Apr. 22, 2025   19:27:33
Cyclic Voltammetry
File: c:/users/guazh/data/banditlqround7_x0exp590_r20/2025-04-16-exp1159\exp1159-2025-04-22t19_14_39-h2koh\exp1159_cv_50mvs_efin_-1800mv.bin
Data Source:  Experiment
Instrument Model:  CHI760E
Header: CV ran at 50 mVs
Note: 

Init E (V) = -1
High E (V) = -1
Low E (V) = -1.8
Final E (V) = -1
Init P/N = N
Scan Rate (V/s) = 0.05
Segment = 7
Sample Interval (V) = 0.001
Quiet Time (sec) = 60
Sensitivity (A/V) = 0.001
Comp R (ohm) = 1.3

Results:

Channel 1:
Segment 1:

Segment 2:

Segment 3:

Segment 4:

Segment 5:

Segment 6:

Segment 7:

Potential/V, Current/A

-1.000, 1.063e-6
-1.001, 1.122e-6
-1.002, 1.131e-6
-1.003, 1.133e-6
-1.004, 1.152e-6
-1.005, 1.149e-6
-1.006, 1.176e-6
-1.007, 1.177e-6
-1.008, 1.195e-6
-1.009, 1.198e-6
-1.010, 1.211e-6
-1.011, 1.234e-6
-1.012, 1.224e-6
-1.013, 1.225e-6
-1.014, 1.244e-6
-1.015, 1.248e-6
-1.016, 1.229e-6
-1.017, 1.254e-6
-1.018, 1.262e-6
-1.019, 1.272e-6
-1.020, 1.273e-6
-1.021, 1.273e-6
-1.022, 1.274e-6
-1.023, 1.279e-6
-1.024, 1.310e-6
-1.025, 1.306e-6
-1.026, 1.300e-6
-1.027, 1.306e-6
-1.028, 1.325e-6
-1.029, 1.334e-6
-1.030, 1.320e-6
-1.031, 1.333e-6
-1.032, 1.321e-6
-1.033, 1.328e-6
-1.034, 1.343e-6
-1.035, 1.354e-6
-1.036, 1.333e-6
-1.037, 1.376e-6
-1.038, 1.360e-6
-1.039, 1.370e-6
-1.040, 1.369e-6
-1.041, 1.372e-6
-1.042, 1.365e-6
-1.043, 1.384e-6
-1.044, 1.410e-6
-1.045, 1.386e-6
-1.046, 1.392e-6
-1.047, 1.402e-6
-1.048, 1.398e-6
-1.049, 1.421e-6
-1.050, 1.429e-6
-1.051, 1.421e-6
-1.052, 1.425e-6
-1.053, 1.420e-6
-1.054, 1.450e-6
-1.055, 1.448e-6
-1.056, 1.434e-6
-1.057, 1.437e-6
-1.058, 1.460e-6
-1.059, 1.471e-6
-1.060, 1.469e-6
-1.061, 1.463e-6
-1.062, 1.486e-6
-1.063, 1.488e-6
-1.064, 1.516e-6
-1.065, 1.489e-6
-1.066, 1.484e-6
-1.067, 1.493e-6
-1.068, 1.491e-6
-1.069, 1.506e-6
-1.070, 1.529e-6
-1.071, 1.515e-6
-1.072, 1.519e-6
-1.073, 1.530e-6
-1.074, 1.540e-6
-1.075, 1.544e-6
-1.076, 1.551e-6
-1.077, 1.545e-6
-1.078, 1.534e-6
-1.079, 1.563e-6
-1.080, 1.571e-6
-1.081, 1.564e-6
-1.082, 1.561e-6
-1.083, 1.569e-6
-1.084, 1.581e-6
-1.085, 1.575e-6
-1.086, 1.579e-6
-1.087, 1.576e-6
-1.088, 1.604e-6
-1.089, 1.598e-6
-1.090, 1.625e-6
-1.091, 1.596e-6
-1.092, 1.623e-6
-1.093, 1.635e-6
-1.094, 1.627e-6
-1.095, 1.623e-6
-1.096, 1.615e-6
-1.097, 1.630e-6
-1.098, 1.631e-6
-1.099, 1.652e-6
-1.100, 1.646e-6
-1.101, 1.678e-6
-1.102, 1.649e-6
-1.103, 1.672e-6
-1.104, 1.676e-6
-1.105, 1.684e-6
-1.106, 1.689e-6
-1.107, 1.676e-6
-1.108, 1.687e-6
-1.109, 1.694e-6
-1.110, 1.719e-6
-1.111, 1.703e-6
-1.112, 1.706e-6
-1.113, 1.715e-6
-1.114, 1.742e-6
-1.115, 1.747e-6
-1.116, 1.751e-6
-1.117, 1.738e-6
-1.118, 1.737e-6
-1.119, 1.760e-6
-1.120, 1.780e-6
-1.121, 1.759e-6
-1.122, 1.777e-6
-1.123, 1.780e-6
-1.124, 1.776e-6
-1.125, 1.796e-6
-1.126, 1.797e-6
-1.127, 1.816e-6
-1.128, 1.815e-6
-1.129, 1.819e-6
-1.130, 1.814e-6
-1.131, 1.822e-6
-1.132, 1.830e-6
-1.133, 1.837e-6
-1.134, 1.863e-6
-1.135, 1.876e-6
-1.136, 1.857e-6
-1.137, 1.860e-6
-1.138, 1.850e-6
-1.139, 1.871e-6
-1.140, 1.878e-6
-1.141, 1.865e-6
-1.142, 1.886e-6
-1.143, 1.901e-6
-1.144, 1.915e-6
-1.145, 1.943e-6
-1.146, 1.929e-6
-1.147, 1.934e-6
-1.148, 1.915e-6
-1.149, 1.951e-6
-1.150, 1.939e-6
-1.151, 1.966e-6
-1.152, 1.966e-6
-1.153, 1.968e-6
-1.154, 1.980e-6
-1.155, 1.981e-6
-1.156, 1.984e-6
-1.157, 1.965e-6
-1.158, 2.009e-6
-1.159, 2.007e-6
-1.160, 2.001e-6
-1.161, 2.026e-6
-1.162, 2.026e-6
-1.163, 2.019e-6
-1.164, 2.053e-6
-1.165, 2.046e-6
-1.166, 2.071e-6
-1.167, 2.068e-6
-1.168, 2.074e-6
-1.169, 2.085e-6
-1.170, 2.084e-6
-1.171, 2.075e-6
-1.172, 2.112e-6
-1.173, 2.097e-6
-1.174, 2.112e-6
-1.175, 2.122e-6
-1.176, 2.130e-6
-1.177, 2.112e-6
-1.178, 2.127e-6
-1.179, 2.155e-6
-1.180, 2.161e-6
-1.181, 2.151e-6
-1.182, 2.170e-6
-1.183, 2.179e-6
-1.184, 2.194e-6
-1.185, 2.204e-6
-1.186, 2.208e-6
-1.187, 2.199e-6
-1.188, 2.237e-6
-1.189, 2.228e-6
-1.190, 2.243e-6
-1.191, 2.239e-6
-1.192, 2.244e-6
-1.193, 2.266e-6
-1.194, 2.253e-6
-1.195, 2.256e-6
-1.196, 2.273e-6
-1.197, 2.269e-6
-1.198, 2.277e-6
-1.199, 2.288e-6
-1.200, 2.303e-6
-1.201, 2.298e-6
-1.202, 2.290e-6
-1.203, 2.313e-6
-1.204, 2.313e-6
-1.205, 2.351e-6
-1.206, 2.332e-6
-1.207, 2.333e-6
-1.208, 2.350e-6
-1.209, 2.353e-6
-1.210, 2.369e-6
-1.211, 2.345e-6
-1.212, 2.358e-6
-1.213, 2.377e-6
-1.214, 2.381e-6
-1.215, 2.398e-6
-1.216, 2.388e-6
-1.217, 2.398e-6
-1.218, 2.409e-6
-1.219, 2.395e-6
-1.220, 2.427e-6
-1.221, 2.416e-6
-1.222, 2.425e-6
-1.223, 2.443e-6
-1.224, 2.451e-6
-1.225, 2.463e-6
-1.226, 2.463e-6
-1.227, 2.456e-6
-1.228, 2.463e-6
-1.229, 2.466e-6
-1.230, 2.492e-6
-1.231, 2.515e-6
-1.232, 2.487e-6
-1.233, 2.503e-6
-1.234, 2.522e-6
-1.235, 2.529e-6
-1.236, 2.519e-6
-1.237, 2.525e-6
-1.238, 2.542e-6
-1.239, 2.553e-6
-1.240, 2.548e-6
-1.241, 2.569e-6
-1.242, 2.560e-6
-1.243, 2.551e-6
-1.244, 2.593e-6
-1.245, 2.598e-6
-1.246, 2.585e-6
-1.247, 2.594e-6
-1.248, 2.588e-6
-1.249, 2.620e-6
-1.250, 2.617e-6
-1.251, 2.613e-6
-1.252, 2.623e-6
-1.253, 2.635e-6
-1.254, 2.640e-6
-1.255, 2.648e-6
-1.256, 2.650e-6
-1.257, 2.644e-6
-1.258, 2.661e-6
-1.259, 2.659e-6
-1.260, 2.664e-6
-1.261, 2.672e-6
-1.262, 2.672e-6
-1.263, 2.661e-6
-1.264, 2.697e-6
-1.265, 2.708e-6
-1.266, 2.690e-6
-1.267, 2.702e-6
-1.268, 2.706e-6
-1.269, 2.708e-6
-1.270, 2.707e-6
-1.271, 2.717e-6
-1.272, 2.705e-6
-1.273, 2.704e-6
-1.274, 2.739e-6
-1.275, 2.724e-6
-1.276, 2.742e-6
-1.277, 2.716e-6
-1.278, 2.724e-6
-1.279, 2.751e-6
-1.280, 2.760e-6
-1.281, 2.753e-6
-1.282, 2.755e-6
-1.283, 2.742e-6
-1.284, 2.766e-6
-1.285, 2.758e-6
-1.286, 2.766e-6
-1.287, 2.766e-6
-1.288, 2.730e-6
-1.289, 2.774e-6
-1.290, 2.768e-6
-1.291, 2.761e-6
-1.292, 2.754e-6
-1.293, 2.772e-6
-1.294, 2.773e-6
-1.295, 2.781e-6
-1.296, 2.771e-6
-1.297, 2.781e-6
-1.298, 2.776e-6
-1.299, 2.783e-6
-1.300, 2.785e-6
-1.301, 2.764e-6
-1.302, 2.757e-6
-1.303, 2.772e-6
-1.304, 2.764e-6
-1.305, 2.765e-6
-1.306, 2.752e-6
-1.307, 2.755e-6
-1.308, 2.741e-6
-1.309, 2.747e-6
-1.310, 2.753e-6
-1.311, 2.740e-6
-1.312, 2.734e-6
-1.313, 2.741e-6
-1.314, 2.745e-6
-1.315, 2.755e-6
-1.316, 2.722e-6
-1.317, 2.716e-6
-1.318, 2.715e-6
-1.319, 2.713e-6
-1.320, 2.700e-6
-1.321, 2.720e-6
-1.322, 2.702e-6
-1.323, 2.682e-6
-1.324, 2.695e-6
-1.325, 2.706e-6
-1.326, 2.683e-6
-1.327, 2.671e-6
-1.328, 2.682e-6
-1.329, 2.652e-6
-1.330, 2.659e-6
-1.331, 2.657e-6
-1.332, 2.663e-6
-1.333, 2.637e-6
-1.334, 2.644e-6
-1.335, 2.650e-6
-1.336, 2.622e-6
-1.337, 2.635e-6
-1.338, 2.601e-6
-1.339, 2.621e-6
-1.340, 2.617e-6
-1.341, 2.625e-6
-1.342, 2.596e-6
-1.343, 2.585e-6
-1.344, 2.596e-6
-1.345, 2.614e-6
-1.346, 2.607e-6
-1.347, 2.599e-6
-1.348, 2.569e-6
-1.349, 2.582e-6
-1.350, 2.604e-6
-1.351, 2.572e-6
-1.352, 2.563e-6
-1.353, 2.564e-6
-1.354, 2.560e-6
-1.355, 2.571e-6
-1.356, 2.565e-6
-1.357, 2.561e-6
-1.358, 2.546e-6
-1.359, 2.587e-6
-1.360, 2.578e-6
-1.361, 2.579e-6
-1.362, 2.570e-6
-1.363, 2.565e-6
-1.364, 2.552e-6
-1.365, 2.581e-6
-1.366, 2.569e-6
-1.367, 2.555e-6
-1.368, 2.558e-6
-1.369, 2.561e-6
-1.370, 2.573e-6
-1.371, 2.603e-6
-1.372, 2.577e-6
-1.373, 2.569e-6
-1.374, 2.584e-6
-1.375, 2.603e-6
-1.376, 2.578e-6
-1.377, 2.576e-6
-1.378, 2.585e-6
-1.379, 2.587e-6
-1.380, 2.598e-6
-1.381, 2.616e-6
-1.382, 2.607e-6
-1.383, 2.604e-6
-1.384, 2.603e-6
-1.385, 2.633e-6
-1.386, 2.608e-6
-1.387, 2.630e-6
-1.388, 2.627e-6
-1.389, 2.619e-6
-1.390, 2.651e-6
-1.391, 2.634e-6
-1.392, 2.656e-6
-1.393, 2.625e-6
-1.394, 2.644e-6
-1.395, 2.675e-6
-1.396, 2.668e-6
-1.397, 2.666e-6
-1.398, 2.653e-6
-1.399, 2.670e-6
-1.400, 2.688e-6
-1.401, 2.674e-6
-1.402, 2.692e-6
-1.403, 2.662e-6
-1.404, 2.686e-6
-1.405, 2.717e-6
-1.406, 2.694e-6
-1.407, 2.688e-6
-1.408, 2.698e-6
-1.409, 2.712e-6
-1.410, 2.738e-6
-1.411, 2.731e-6
-1.412, 2.737e-6
-1.413, 2.718e-6
-1.414, 2.743e-6
-1.415, 2.763e-6
-1.416, 2.745e-6
-1.417, 2.759e-6
-1.418, 2.752e-6
-1.419, 2.767e-6
-1.420, 2.809e-6
-1.421, 2.791e-6
-1.422, 2.794e-6
-1.423, 2.803e-6
-1.424, 2.824e-6
-1.425, 2.829e-6
-1.426, 2.848e-6
-1.427, 2.852e-6
-1.428, 2.875e-6
-1.429, 2.849e-6
-1.430, 2.879e-6
-1.431, 2.872e-6
-1.432, 2.865e-6
-1.433, 2.873e-6
-1.434, 2.912e-6
-1.435, 2.954e-6
-1.436, 2.921e-6
-1.437, 2.911e-6
-1.438, 2.922e-6
-1.439, 2.944e-6
-1.440, 2.975e-6
-1.441, 2.961e-6
-1.442, 2.955e-6
-1.443, 2.957e-6
-1.444, 2.995e-6
-1.445, 3.020e-6
-1.446, 2.995e-6
-1.447, 2.991e-6
-1.448, 2.986e-6
-1.449, 3.026e-6
-1.450, 3.041e-6
-1.451, 3.039e-6
-1.452, 3.038e-6
-1.453, 3.064e-6
-1.454, 3.046e-6
-1.455, 3.089e-6
-1.456, 3.074e-6
-1.457, 3.080e-6
-1.458, 3.100e-6
-1.459, 3.147e-6
-1.460, 3.145e-6
-1.461, 3.157e-6
-1.462, 3.188e-6
-1.463, 3.188e-6
-1.464, 3.199e-6
-1.465, 3.226e-6
-1.466, 3.237e-6
-1.467, 3.236e-6
-1.468, 3.247e-6
-1.469, 3.277e-6
-1.470, 3.319e-6
-1.471, 3.321e-6
-1.472, 3.314e-6
-1.473, 3.358e-6
-1.474, 3.343e-6
-1.475, 3.375e-6
-1.476, 3.406e-6
-1.477, 3.412e-6
-1.478, 3.421e-6
-1.479, 3.452e-6
-1.480, 3.474e-6
-1.481, 3.495e-6
-1.482, 3.516e-6
-1.483, 3.504e-6
-1.484, 3.545e-6
-1.485, 3.580e-6
-1.486, 3.612e-6
-1.487, 3.608e-6
-1.488, 3.643e-6
-1.489, 3.674e-6
-1.490, 3.689e-6
-1.491, 3.743e-6
-1.492, 3.747e-6
-1.493, 3.758e-6
-1.494, 3.786e-6
-1.495, 3.849e-6
-1.496, 3.855e-6
-1.497, 3.873e-6
-1.498, 3.908e-6
-1.499, 3.949e-6
-1.500, 4.002e-6
-1.501, 4.034e-6
-1.502, 4.061e-6
-1.503, 4.079e-6
-1.504, 4.133e-6
-1.505, 4.183e-6
-1.506, 4.208e-6
-1.507, 4.246e-6
-1.508, 4.272e-6
-1.509, 4.319e-6
-1.510, 4.381e-6
-1.511, 4.414e-6
-1.512, 4.476e-6
-1.513, 4.517e-6
-1.514, 4.555e-6
-1.515, 4.636e-6
-1.516, 4.664e-6
-1.517, 4.699e-6
-1.518, 4.750e-6
-1.519, 4.827e-6
-1.520, 4.892e-6
-1.521, 4.953e-6
-1.522, 5.007e-6
-1.523, 5.045e-6
-1.524, 5.124e-6
-1.525, 5.210e-6
-1.526, 5.308e-6
-1.527, 5.325e-6
-1.528, 5.426e-6
-1.529, 5.488e-6
-1.530, 5.597e-6
-1.531, 5.649e-6
-1.532, 5.754e-6
-1.533, 5.859e-6
-1.534, 5.915e-6
-1.535, 6.047e-6
-1.536, 6.129e-6
-1.537, 6.210e-6
-1.538, 6.304e-6
-1.539, 6.408e-6
-1.540, 6.546e-6
-1.541, 6.661e-6
-1.542, 6.748e-6
-1.543, 6.879e-6
-1.544, 7.022e-6
-1.545, 7.138e-6
-1.546, 7.297e-6
-1.547, 7.404e-6
-1.548, 7.492e-6
-1.549, 7.678e-6
-1.550, 7.821e-6
-1.551, 7.985e-6
-1.552, 8.121e-6
-1.553, 8.270e-6
-1.554, 8.426e-6
-1.555, 8.624e-6
-1.556, 8.787e-6
-1.557, 8.969e-6
-1.558, 9.137e-6
-1.559, 9.336e-6
-1.560, 9.524e-6
-1.561, 9.722e-6
-1.562, 9.915e-6
-1.563, 1.013e-5
-1.564, 1.035e-5
-1.565, 1.058e-5
-1.566, 1.084e-5
-1.567, 1.103e-5
-1.568, 1.126e-5
-1.569, 1.151e-5
-1.570, 1.180e-5
-1.571, 1.207e-5
-1.572, 1.231e-5
-1.573, 1.260e-5
-1.574, 1.290e-5
-1.575, 1.322e-5
-1.576, 1.351e-5
-1.577, 1.380e-5
-1.578, 1.415e-5
-1.579, 1.447e-5
-1.580, 1.486e-5
-1.581, 1.517e-5
-1.582, 1.555e-5
-1.583, 1.589e-5
-1.584, 1.630e-5
-1.585, 1.668e-5
-1.586, 1.708e-5
-1.587, 1.751e-5
-1.588, 1.792e-5
-1.589, 1.836e-5
-1.590, 1.884e-5
-1.591, 1.925e-5
-1.592, 1.976e-5
-1.593, 2.024e-5
-1.594, 2.075e-5
-1.595, 2.126e-5
-1.596, 2.180e-5
-1.597, 2.231e-5
-1.598, 2.290e-5
-1.599, 2.344e-5
-1.600, 2.409e-5
-1.601, 2.471e-5
-1.602, 2.534e-5
-1.603, 2.603e-5
-1.604, 2.673e-5
-1.605, 2.734e-5
-1.606, 2.800e-5
-1.607, 2.873e-5
-1.608, 2.944e-5
-1.609, 3.019e-5
-1.610, 3.097e-5
-1.611, 3.179e-5
-1.612, 3.259e-5
-1.613, 3.340e-5
-1.614, 3.428e-5
-1.615, 3.517e-5
-1.616, 3.608e-5
-1.617, 3.697e-5
-1.618, 3.795e-5
-1.619, 3.891e-5
-1.620, 3.994e-5
-1.621, 4.096e-5
-1.622, 4.204e-5
-1.623, 4.311e-5
-1.624, 4.422e-5
-1.625, 4.537e-5
-1.626, 4.656e-5
-1.627, 4.778e-5
-1.628, 4.899e-5
-1.629, 5.029e-5
-1.630, 5.161e-5
-1.631, 5.295e-5
-1.632, 5.436e-5
-1.633, 5.575e-5
-1.634, 5.718e-5
-1.635, 5.867e-5
-1.636, 6.024e-5
-1.637, 6.176e-5
-1.638, 6.341e-5
-1.639, 6.508e-5
-1.640, 6.676e-5
-1.641, 6.852e-5
-1.642, 7.028e-5
-1.643, 7.211e-5
-1.644, 7.399e-5
-1.645, 7.591e-5
-1.646, 7.790e-5
-1.647, 7.995e-5
-1.648, 8.200e-5
-1.649, 8.413e-5
-1.650, 8.631e-5
-1.651, 8.856e-5
-1.652, 9.086e-5
-1.653, 9.318e-5
-1.654, 9.558e-5
-1.655, 9.800e-5
-1.656, 1.005e-4
-1.657, 1.031e-4
-1.658, 1.057e-4
-1.659, 1.084e-4
-1.660, 1.111e-4
-1.661, 1.139e-4
-1.662, 1.168e-4
-1.663, 1.197e-4
-1.664, 1.227e-4
-1.665, 1.258e-4
-1.666, 1.289e-4
-1.667, 1.321e-4
-1.668, 1.354e-4
-1.669, 1.388e-4
-1.670, 1.423e-4
-1.671, 1.458e-4
-1.672, 1.494e-4
-1.673, 1.531e-4
-1.674, 1.569e-4
-1.675, 1.607e-4
-1.676, 1.647e-4
-1.677, 1.687e-4
-1.678, 1.728e-4
-1.679, 1.770e-4
-1.680, 1.813e-4
-1.681, 1.857e-4
-1.682, 1.901e-4
-1.683, 1.946e-4
-1.684, 1.992e-4
-1.685, 2.039e-4
-1.686, 2.088e-4
-1.687, 2.137e-4
-1.688, 2.187e-4
-1.689, 2.239e-4
-1.690, 2.291e-4
-1.691, 2.345e-4
-1.692, 2.400e-4
-1.693, 2.455e-4
-1.694, 2.511e-4
-1.695, 2.569e-4
-1.696, 2.628e-4
-1.697, 2.688e-4
-1.698, 2.749e-4
-1.699, 2.811e-4
-1.700, 2.874e-4
-1.701, 2.939e-4
-1.702, 3.006e-4
-1.703, 3.073e-4
-1.704, 3.141e-4
-1.705, 3.211e-4
-1.706, 3.282e-4
-1.707, 3.354e-4
-1.708, 3.428e-4
-1.709, 3.502e-4
-1.710, 3.578e-4
-1.711, 3.657e-4
-1.712, 3.737e-4
-1.713, 3.818e-4
-1.714, 3.900e-4
-1.715, 3.983e-4
-1.716, 4.069e-4
-1.717, 4.156e-4
-1.718, 4.244e-4
-1.719, 4.334e-4
-1.720, 4.425e-4
-1.721, 4.519e-4
-1.722, 4.614e-4
-1.723, 4.710e-4
-1.724, 4.810e-4
-1.725, 4.909e-4
-1.726, 5.012e-4
-1.727, 5.116e-4
-1.728, 5.221e-4
-1.729, 5.329e-4
-1.730, 5.439e-4
-1.731, 5.551e-4
-1.732, 5.665e-4
-1.733, 5.780e-4
-1.734, 5.897e-4
-1.735, 6.016e-4
-1.736, 6.138e-4
-1.737, 6.262e-4
-1.738, 6.388e-4
-1.739, 6.516e-4
-1.740, 6.647e-4
-1.741, 6.781e-4
-1.742, 6.917e-4
-1.743, 7.054e-4
-1.744, 7.193e-4
-1.745, 7.336e-4
-1.746, 7.481e-4
-1.747, 7.630e-4
-1.748, 7.781e-4
-1.749, 7.935e-4
-1.750, 8.092e-4
-1.751, 8.251e-4
-1.752, 8.410e-4
-1.753, 8.573e-4
-1.754, 8.743e-4
-1.755, 8.914e-4
-1.756, 9.086e-4
-1.757, 9.257e-4
-1.758, 9.431e-4
-1.759, 9.609e-4
-1.760, 9.791e-4
-1.761, 9.980e-4
-1.762, 1.017e-3
-1.763, 1.036e-3
-1.764, 1.056e-3
-1.765, 1.076e-3
-1.766, 1.096e-3
-1.767, 1.117e-3
-1.768, 1.138e-3
-1.769, 1.160e-3
-1.770, 1.182e-3
-1.771, 1.204e-3
-1.772, 1.226e-3
-1.773, 1.248e-3
-1.774, 1.272e-3
-1.775, 1.295e-3
-1.776, 1.320e-3
-1.777, 1.344e-3
-1.778, 1.367e-3
-1.779, 1.390e-3
-1.780, 1.415e-3
-1.781, 1.440e-3
-1.782, 1.466e-3
-1.783, 1.493e-3
-1.784, 1.520e-3
-1.785, 1.547e-3
-1.786, 1.576e-3
-1.787, 1.604e-3
-1.788, 1.634e-3
-1.789, 1.661e-3
-1.790, 1.690e-3
-1.791, 1.720e-3
-1.792, 1.750e-3
-1.793, 1.781e-3
-1.794, 1.813e-3
-1.795, 1.845e-3
-1.796, 1.877e-3
-1.797, 1.910e-3
-1.798, 1.942e-3
-1.799, 1.976e-3
-1.800, 1.988e-3
-1.799, 1.972e-3
-1.798, 1.956e-3
-1.797, 1.938e-3
-1.796, 1.919e-3
-1.795, 1.900e-3
-1.794, 1.882e-3
-1.793, 1.863e-3
-1.792, 1.842e-3
-1.791, 1.822e-3
-1.790, 1.801e-3
-1.789, 1.782e-3
-1.788, 1.762e-3
-1.787, 1.742e-3
-1.786, 1.722e-3
-1.785, 1.701e-3
-1.784, 1.682e-3
-1.783, 1.662e-3
-1.782, 1.641e-3
-1.781, 1.621e-3
-1.780, 1.601e-3
-1.779, 1.582e-3
-1.778, 1.561e-3
-1.777, 1.541e-3
-1.776, 1.521e-3
-1.775, 1.502e-3
-1.774, 1.483e-3
-1.773, 1.463e-3
-1.772, 1.444e-3
-1.771, 1.425e-3
-1.770, 1.407e-3
-1.769, 1.388e-3
-1.768, 1.370e-3
-1.767, 1.353e-3
-1.766, 1.334e-3
-1.765, 1.317e-3
-1.764, 1.299e-3
-1.763, 1.282e-3
-1.762, 1.264e-3
-1.761, 1.247e-3
-1.760, 1.229e-3
-1.759, 1.213e-3
-1.758, 1.197e-3
-1.757, 1.180e-3
-1.756, 1.164e-3
-1.755, 1.148e-3
-1.754, 1.132e-3
-1.753, 1.117e-3
-1.752, 1.101e-3
-1.751, 1.085e-3
-1.750, 1.070e-3
-1.749, 1.055e-3
-1.748, 1.040e-3
-1.747, 1.025e-3
-1.746, 1.010e-3
-1.745, 9.962e-4
-1.744, 9.814e-4
-1.743, 9.672e-4
-1.742, 9.533e-4
-1.741, 9.386e-4
-1.740, 9.245e-4
-1.739, 9.110e-4
-1.738, 8.975e-4
-1.737, 8.844e-4
-1.736, 8.712e-4
-1.735, 8.583e-4
-1.734, 8.458e-4
-1.733, 8.331e-4
-1.732, 8.203e-4
-1.731, 8.079e-4
-1.730, 7.958e-4
-1.729, 7.837e-4
-1.728, 7.721e-4
-1.727, 7.606e-4
-1.726, 7.490e-4
-1.725, 7.376e-4
-1.724, 7.263e-4
-1.723, 7.151e-4
-1.722, 7.040e-4
-1.721, 6.930e-4
-1.720, 6.823e-4
-1.719, 6.717e-4
-1.718, 6.613e-4
-1.717, 6.510e-4
-1.716, 6.407e-4
-1.715, 6.306e-4
-1.714, 6.207e-4
-1.713, 6.108e-4
-1.712, 6.012e-4
-1.711, 5.915e-4
-1.710, 5.821e-4
-1.709, 5.730e-4
-1.708, 5.638e-4
-1.707, 5.546e-4
-1.706, 5.456e-4
-1.705, 5.368e-4
-1.704, 5.281e-4
-1.703, 5.195e-4
-1.702, 5.111e-4
-1.701, 5.026e-4
-1.700, 4.944e-4
-1.699, 4.863e-4
-1.698, 4.782e-4
-1.697, 4.702e-4
-1.696, 4.623e-4
-1.695, 4.545e-4
-1.694, 4.470e-4
-1.693, 4.396e-4
-1.692, 4.322e-4
-1.691, 4.249e-4
-1.690, 4.177e-4
-1.689, 4.106e-4
-1.688, 4.037e-4
-1.687, 3.967e-4
-1.686, 3.898e-4
-1.685, 3.831e-4
-1.684, 3.765e-4
-1.683, 3.699e-4
-1.682, 3.634e-4
-1.681, 3.571e-4
-1.680, 3.508e-4
-1.679, 3.448e-4
-1.678, 3.387e-4
-1.677, 3.326e-4
-1.676, 3.266e-4
-1.675, 3.207e-4
-1.674, 3.149e-4
-1.673, 3.093e-4
-1.672, 3.037e-4
-1.671, 2.982e-4
-1.670, 2.929e-4
-1.669, 2.877e-4
-1.668, 2.826e-4
-1.667, 2.774e-4
-1.666, 2.723e-4
-1.665, 2.672e-4
-1.664, 2.623e-4
-1.663, 2.575e-4
-1.662, 2.527e-4
-1.661, 2.480e-4
-1.660, 2.433e-4
-1.659, 2.387e-4
-1.658, 2.343e-4
-1.657, 2.298e-4
-1.656, 2.254e-4
-1.655, 2.211e-4
-1.654, 2.169e-4
-1.653, 2.128e-4
-1.652, 2.087e-4
-1.651, 2.047e-4
-1.650, 2.007e-4
-1.649, 1.968e-4
-1.648, 1.930e-4
-1.647, 1.892e-4
-1.646, 1.855e-4
-1.645, 1.819e-4
-1.644, 1.783e-4
-1.643, 1.748e-4
-1.642, 1.713e-4
-1.641, 1.679e-4
-1.640, 1.645e-4
-1.639, 1.612e-4
-1.638, 1.579e-4
-1.637, 1.546e-4
-1.636, 1.515e-4
-1.635, 1.484e-4
-1.634, 1.454e-4
-1.633, 1.424e-4
-1.632, 1.395e-4
-1.631, 1.366e-4
-1.630, 1.338e-4
-1.629, 1.310e-4
-1.628, 1.283e-4
-1.627, 1.256e-4
-1.626, 1.230e-4
-1.625, 1.205e-4
-1.624, 1.180e-4
-1.623, 1.155e-4
-1.622, 1.131e-4
-1.621, 1.107e-4
-1.620, 1.083e-4
-1.619, 1.060e-4
-1.618, 1.038e-4
-1.617, 1.016e-4
-1.616, 9.936e-5
-1.615, 9.724e-5
-1.614, 9.511e-5
-1.613, 9.307e-5
-1.612, 9.101e-5
-1.611, 8.903e-5
-1.610, 8.706e-5
-1.609, 8.515e-5
-1.608, 8.330e-5
-1.607, 8.143e-5
-1.606, 7.964e-5
-1.605, 7.787e-5
-1.604, 7.615e-5
-1.603, 7.445e-5
-1.602, 7.279e-5
-1.601, 7.113e-5
-1.600, 6.956e-5
-1.599, 6.799e-5
-1.598, 6.649e-5
-1.597, 6.499e-5
-1.596, 6.353e-5
-1.595, 6.207e-5
-1.594, 6.069e-5
-1.593, 5.931e-5
-1.592, 5.798e-5
-1.591, 5.666e-5
-1.590, 5.537e-5
-1.589, 5.411e-5
-1.588, 5.288e-5
-1.587, 5.165e-5
-1.586, 5.047e-5
-1.585, 4.930e-5
-1.584, 4.818e-5
-1.583, 4.708e-5
-1.582, 4.596e-5
-1.581, 4.491e-5
-1.580, 4.388e-5
-1.579, 4.288e-5
-1.578, 4.190e-5
-1.577, 4.090e-5
-1.576, 3.998e-5
-1.575, 3.906e-5
-1.574, 3.813e-5
-1.573, 3.728e-5
-1.572, 3.640e-5
-1.571, 3.553e-5
-1.570, 3.472e-5
-1.569, 3.392e-5
-1.568, 3.315e-5
-1.567, 3.238e-5
-1.566, 3.162e-5
-1.565, 3.087e-5
-1.564, 3.017e-5
-1.563, 2.948e-5
-1.562, 2.880e-5
-1.561, 2.810e-5
-1.560, 2.744e-5
-1.559, 2.684e-5
-1.558, 2.620e-5
-1.557, 2.559e-5
-1.556, 2.499e-5
-1.555, 2.441e-5
-1.554, 2.386e-5
-1.553, 2.334e-5
-1.552, 2.277e-5
-1.551, 2.223e-5
-1.550, 2.172e-5
-1.549, 2.123e-5
-1.548, 2.076e-5
-1.547, 2.027e-5
-1.546, 1.979e-5
-1.545, 1.935e-5
-1.544, 1.890e-5
-1.543, 1.846e-5
-1.542, 1.801e-5
-1.541, 1.763e-5
-1.540, 1.720e-5
-1.539, 1.683e-5
-1.538, 1.645e-5
-1.537, 1.608e-5
-1.536, 1.571e-5
-1.535, 1.533e-5
-1.534, 1.500e-5
-1.533, 1.467e-5
-1.532, 1.433e-5
-1.531, 1.400e-5
-1.530, 1.369e-5
-1.529, 1.338e-5
-1.528, 1.310e-5
-1.527, 1.281e-5
-1.526, 1.251e-5
-1.525, 1.223e-5
-1.524, 1.197e-5
-1.523, 1.171e-5
-1.522, 1.143e-5
-1.521, 1.118e-5
-1.520, 1.093e-5
-1.519, 1.070e-5
-1.518, 1.049e-5
-1.517, 1.023e-5
-1.516, 1.002e-5
-1.515, 9.808e-6
-1.514, 9.613e-6
-1.513, 9.415e-6
-1.512, 9.203e-6
-1.511, 8.996e-6
-1.510, 8.800e-6
-1.509, 8.625e-6
-1.508, 8.436e-6
-1.507, 8.253e-6
-1.506, 8.084e-6
-1.505, 7.899e-6
-1.504, 7.729e-6
-1.503, 7.598e-6
-1.502, 7.397e-6
-1.501, 7.266e-6
-1.500, 7.109e-6
-1.499, 6.975e-6
-1.498, 6.827e-6
-1.497, 6.684e-6
-1.496, 6.549e-6
-1.495, 6.427e-6
-1.494, 6.291e-6
-1.493, 6.163e-6
-1.492, 6.034e-6
-1.491, 5.922e-6
-1.490, 5.832e-6
-1.489, 5.684e-6
-1.488, 5.574e-6
-1.487, 5.467e-6
-1.486, 5.354e-6
-1.485, 5.238e-6
-1.484, 5.149e-6
-1.483, 5.049e-6
-1.482, 4.939e-6
-1.481, 4.832e-6
-1.480, 4.763e-6
-1.479, 4.675e-6
-1.478, 4.564e-6
-1.477, 4.490e-6
-1.476, 4.382e-6
-1.475, 4.317e-6
-1.474, 4.251e-6
-1.473, 4.163e-6
-1.472, 4.078e-6
-1.471, 3.999e-6
-1.470, 3.923e-6
-1.469, 3.860e-6
-1.468, 3.787e-6
-1.467, 3.726e-6
-1.466, 3.642e-6
-1.465, 3.568e-6
-1.464, 3.543e-6
-1.463, 3.476e-6
-1.462, 3.390e-6
-1.461, 3.325e-6
-1.460, 3.267e-6
-1.459, 3.207e-6
-1.458, 3.176e-6
-1.457, 3.111e-6
-1.456, 3.040e-6
-1.455, 2.987e-6
-1.454, 2.952e-6
-1.453, 2.916e-6
-1.452, 2.820e-6
-1.451, 2.795e-6
-1.450, 2.737e-6
-1.449, 2.695e-6
-1.448, 2.676e-6
-1.447, 2.600e-6
-1.446, 2.547e-6
-1.445, 2.503e-6
-1.444, 2.478e-6
-1.443, 2.426e-6
-1.442, 2.401e-6
-1.441, 2.353e-6
-1.440, 2.315e-6
-1.439, 2.267e-6
-1.438, 2.256e-6
-1.437, 2.190e-6
-1.436, 2.173e-6
-1.435, 2.122e-6
-1.434, 2.087e-6
-1.433, 2.055e-6
-1.432, 2.034e-6
-1.431, 1.974e-6
-1.430, 1.961e-6
-1.429, 1.951e-6
-1.428, 1.914e-6
-1.427, 1.868e-6
-1.426, 1.847e-6
-1.425, 1.795e-6
-1.424, 1.798e-6
-1.423, 1.798e-6
-1.422, 1.746e-6
-1.421, 1.700e-6
-1.420, 1.677e-6
-1.419, 1.664e-6
-1.418, 1.652e-6
-1.417, 1.612e-6
-1.416, 1.594e-6
-1.415, 1.558e-6
-1.414, 1.568e-6
-1.413, 1.537e-6
-1.412, 1.483e-6
-1.411, 1.461e-6
-1.410, 1.433e-6
-1.409, 1.420e-6
-1.408, 1.404e-6
-1.407, 1.397e-6
-1.406, 1.356e-6
-1.405, 1.340e-6
-1.404, 1.325e-6
-1.403, 1.321e-6
-1.402, 1.297e-6
-1.401, 1.268e-6
-1.400, 1.236e-6
-1.399, 1.232e-6
-1.398, 1.224e-6
-1.397, 1.171e-6
-1.396, 1.166e-6
-1.395, 1.158e-6
-1.394, 1.147e-6
-1.393, 1.115e-6
-1.392, 1.111e-6
-1.391, 1.072e-6
-1.390, 1.059e-6
-1.389, 1.063e-6
-1.388, 1.063e-6
-1.387, 1.027e-6
-1.386, 1.021e-6
-1.385, 9.973e-7
-1.384, 9.844e-7
-1.383, 9.815e-7
-1.382, 9.825e-7
-1.381, 9.815e-7
-1.380, 9.381e-7
-1.379, 9.696e-7
-1.378, 9.588e-7
-1.377, 9.085e-7
-1.376, 8.946e-7
-1.375, 8.700e-7
-1.374, 8.798e-7
-1.373, 9.094e-7
-1.372, 8.779e-7
-1.371, 8.532e-7
-1.370, 8.354e-7
-1.369, 8.453e-7
-1.368, 8.552e-7
-1.367, 8.187e-7
-1.366, 8.216e-7
-1.365, 8.137e-7
-1.364, 8.049e-7
-1.363, 8.108e-7
-1.362, 7.871e-7
-1.361, 7.585e-7
-1.360, 7.684e-7
-1.359, 7.703e-7
-1.358, 7.634e-7
-1.357, 7.516e-7
-1.356, 7.338e-7
-1.355, 7.299e-7
-1.354, 7.240e-7
-1.353, 7.309e-7
-1.352, 7.111e-7
-1.351, 7.023e-7
-1.350, 6.687e-7
-1.349, 6.658e-7
-1.348, 6.648e-7
-1.347, 6.855e-7
-1.346, 6.618e-7
-1.345, 6.648e-7
-1.344, 6.559e-7
-1.343, 6.401e-7
-1.342, 6.302e-7
-1.341, 6.194e-7
-1.340, 6.115e-7
-1.339, 6.243e-7
-1.338, 6.194e-7
-1.337, 6.273e-7
-1.336, 5.957e-7
-1.335, 6.036e-7
-1.334, 6.125e-7
-1.333, 6.135e-7
-1.332, 5.997e-7
-1.331, 5.947e-7
-1.330, 5.898e-7
-1.329, 5.602e-7
-1.328, 5.888e-7
-1.327, 5.740e-7
-1.326, 5.740e-7
-1.325, 5.572e-7
-1.324, 5.592e-7
-1.323, 5.602e-7
-1.322, 5.622e-7
-1.321, 5.523e-7
-1.320, 5.493e-7
-1.319, 5.424e-7
-1.318, 5.602e-7
-1.317, 5.543e-7
-1.316, 5.355e-7
-1.315, 5.483e-7
-1.314, 5.158e-7
-1.313, 5.444e-7
-1.312, 5.247e-7
-1.311, 5.237e-7
-1.310, 5.089e-7
-1.309, 5.237e-7
-1.308, 5.040e-7
-1.307, 5.326e-7
-1.306, 5.138e-7
-1.305, 4.911e-7
-1.304, 5.099e-7
-1.303, 5.049e-7
-1.302, 4.980e-7
-1.301, 5.079e-7
-1.300, 4.684e-7
-1.299, 5.040e-7
-1.298, 4.724e-7
-1.297, 4.951e-7
-1.296, 4.734e-7
-1.295, 4.753e-7
-1.294, 4.734e-7
-1.293, 4.852e-7
-1.292, 4.704e-7
-1.291, 4.625e-7
-1.290, 4.586e-7
-1.289, 4.684e-7
-1.288, 4.714e-7
-1.287, 4.487e-7
-1.286, 4.763e-7
-1.285, 4.734e-7
-1.284, 4.556e-7
-1.283, 4.665e-7
-1.282, 4.408e-7
-1.281, 4.605e-7
-1.280, 4.536e-7
-1.279, 4.369e-7
-1.278, 4.517e-7
-1.277, 4.487e-7
-1.276, 4.290e-7
-1.275, 4.191e-7
-1.274, 4.043e-7
-1.273, 4.379e-7
-1.272, 4.359e-7
-1.271, 4.388e-7
-1.270, 4.073e-7
-1.269, 4.211e-7
-1.268, 4.438e-7
-1.267, 4.083e-7
-1.266, 4.122e-7
-1.265, 4.083e-7
-1.264, 4.201e-7
-1.263, 4.013e-7
-1.262, 4.053e-7
-1.261, 4.211e-7
-1.260, 3.905e-7
-1.259, 4.053e-7
-1.258, 4.063e-7
-1.257, 4.023e-7
-1.256, 3.865e-7
-1.255, 3.757e-7
-1.254, 3.708e-7
-1.253, 3.994e-7
-1.252, 3.885e-7
-1.251, 3.787e-7
-1.250, 3.777e-7
-1.249, 3.648e-7
-1.248, 3.836e-7
-1.247, 3.816e-7
-1.246, 3.619e-7
-1.245, 3.609e-7
-1.244, 3.639e-7
-1.243, 3.737e-7
-1.242, 3.579e-7
-1.241, 3.481e-7
-1.240, 3.382e-7
-1.239, 3.530e-7
-1.238, 3.619e-7
-1.237, 3.500e-7
-1.236, 3.461e-7
-1.235, 3.283e-7
-1.234, 3.264e-7
-1.233, 3.560e-7
-1.232, 3.293e-7
-1.231, 3.520e-7
-1.230, 3.500e-7
-1.229, 3.352e-7
-1.228, 3.491e-7
-1.227, 3.412e-7
-1.226, 3.214e-7
-1.225, 3.185e-7
-1.224, 3.254e-7
-1.223, 3.352e-7
-1.222, 3.352e-7
-1.221, 3.086e-7
-1.220, 3.224e-7
-1.219, 3.096e-7
-1.218, 3.254e-7
-1.217, 3.392e-7
-1.216, 3.056e-7
-1.215, 3.007e-7
-1.214, 3.106e-7
-1.213, 3.106e-7
-1.212, 3.254e-7
-1.211, 2.997e-7
-1.210, 3.066e-7
-1.209, 2.978e-7
-1.208, 3.037e-7
-1.207, 3.264e-7
-1.206, 2.780e-7
-1.205, 2.830e-7
-1.204, 2.899e-7
-1.203, 2.770e-7
-1.202, 2.997e-7
-1.201, 2.899e-7
-1.200, 2.948e-7
-1.199, 2.731e-7
-1.198, 2.908e-7
-1.197, 2.701e-7
-1.196, 2.711e-7
-1.195, 2.731e-7
-1.194, 2.711e-7
-1.193, 2.879e-7
-1.192, 2.760e-7
-1.191, 2.741e-7
-1.190, 2.405e-7
-1.189, 2.790e-7
-1.188, 2.622e-7
-1.187, 2.593e-7
-1.186, 2.524e-7
-1.185, 2.534e-7
-1.184, 2.425e-7
-1.183, 2.593e-7
-1.182, 2.553e-7
-1.181, 2.435e-7
-1.180, 2.386e-7
-1.179, 2.218e-7
-1.178, 2.514e-7
-1.177, 2.307e-7
-1.176, 2.307e-7
-1.175, 2.257e-7
-1.174, 2.376e-7
-1.173, 2.267e-7
-1.172, 2.267e-7
-1.171, 2.060e-7
-1.170, 2.297e-7
-1.169, 2.178e-7
-1.168, 2.238e-7
-1.167, 2.317e-7
-1.166, 2.228e-7
-1.165, 2.060e-7
-1.164, 2.149e-7
-1.163, 2.050e-7
-1.162, 2.257e-7
-1.161, 1.971e-7
-1.160, 1.971e-7
-1.159, 1.932e-7
-1.158, 2.297e-7
-1.157, 2.139e-7
-1.156, 1.902e-7
-1.155, 1.932e-7
-1.154, 2.070e-7
-1.153, 2.129e-7
-1.152, 1.892e-7
-1.151, 1.803e-7
-1.150, 1.715e-7
-1.149, 1.843e-7
-1.148, 1.971e-7
-1.147, 1.873e-7
-1.146, 1.537e-7
-1.145, 1.656e-7
-1.144, 1.705e-7
-1.143, 1.764e-7
-1.142, 1.754e-7
-1.141, 1.685e-7
-1.140, 1.557e-7
-1.139, 1.586e-7
-1.138, 1.725e-7
-1.137, 1.715e-7
-1.136, 1.596e-7
-1.135, 1.705e-7
-1.134, 1.517e-7
-1.133, 1.744e-7
-1.132, 1.646e-7
-1.131, 1.586e-7
-1.130, 1.517e-7
-1.129, 1.419e-7
-1.128, 1.468e-7
-1.127, 1.616e-7
-1.126, 1.399e-7
-1.125, 1.261e-7
-1.124, 1.320e-7
-1.123, 1.369e-7
-1.122, 1.508e-7
-1.121, 1.044e-7
-1.120, 1.083e-7
-1.119, 8.958e-8
-1.118, 1.093e-7
-1.117, 1.133e-7
-1.116, 1.192e-7
-1.115, 1.093e-7
-1.114, 1.044e-7
-1.113, 1.172e-7
-1.112, 1.064e-7
-1.111, 1.034e-7
-1.110, 9.254e-8
-1.109, 8.366e-8
-1.108, 1.024e-7
-1.107, 8.169e-8
-1.106, 8.268e-8
-1.105, 8.465e-8
-1.104, 8.169e-8
-1.103, 9.846e-8
-1.102, 9.057e-8
-1.101, 6.294e-8
-1.100, 6.294e-8
-1.099, 5.703e-8
-1.098, 7.380e-8
-1.097, 6.788e-8
-1.096, 5.012e-8
-1.095, 6.393e-8
-1.094, 5.111e-8
-1.093, 6.196e-8
-1.092, 6.196e-8
-1.091, 4.025e-8
-1.090, 6.097e-8
-1.089, 3.631e-8
-1.088, 5.012e-8
-1.087, 5.012e-8
-1.086, 5.209e-8
-1.085, 3.236e-8
-1.084, 4.420e-8
-1.083, 2.447e-8
-1.082, 3.335e-8
-1.081, 1.953e-8
-1.080, 2.545e-8
-1.079, 9.669e-9
-1.078, 4.124e-8
-1.077, 3.749e-9
-1.076, 1.559e-8
-1.075, -1.973e-10
-1.074, -1.184e-9
-1.073, 2.249e-8
-1.072, 1.066e-8
-1.071, 7.695e-9
-1.070, -1.302e-8
-1.069, -8.090e-9
-1.068, 8.682e-9
-1.067, -9.077e-9
-1.066, -9.077e-9
-1.065, -1.204e-8
-1.064, -3.157e-9
-1.063, 5.722e-9
-1.062, 1.066e-8
-1.061, -2.092e-8
-1.060, -1.598e-8
-1.059, -2.782e-8
-1.058, -2.190e-8
-1.057, -2.980e-8
-1.056, -3.473e-8
-1.055, -3.275e-8
-1.054, -2.092e-8
-1.053, -4.755e-8
-1.052, -3.374e-8
-1.051, -5.643e-8
-1.050, -5.249e-8
-1.049, -4.459e-8
-1.048, -5.643e-8
-1.047, -4.657e-8
-1.046, -6.137e-8
-1.045, -7.321e-8
-1.044, -7.814e-8
-1.043, -6.926e-8
-1.042, -6.926e-8
-1.041, -8.307e-8
-1.040, -7.814e-8
-1.039, -8.899e-8
-1.038, -8.307e-8
-1.037, -7.617e-8
-1.036, -9.096e-8
-1.035, -9.096e-8
-1.034, -8.406e-8
-1.033, -1.077e-7
-1.032, -1.058e-7
-1.031, -1.087e-7
-1.030, -1.097e-7
-1.029, -1.176e-7
-1.028, -9.688e-8
-1.027, -9.984e-8
-1.026, -1.334e-7
-1.025, -1.186e-7
-1.024, -1.354e-7
-1.023, -9.294e-8
-1.022, -8.800e-8
-1.021, -1.107e-7
-1.020, -1.038e-7
-1.019, -1.363e-7
-1.018, -1.008e-7
-1.017, -1.156e-7
-1.016, -9.195e-8
-1.015, -1.018e-7
-1.014, -1.127e-7
-1.013, -1.107e-7
-1.012, -1.107e-7
-1.011, -1.245e-7
-1.010, -1.117e-7
-1.009, -1.265e-7
-1.008, -1.294e-7
-1.007, -1.117e-7
-1.006, -1.275e-7
-1.005, -1.245e-7
-1.004, -1.275e-7
-1.003, -1.314e-7
-1.002, -1.225e-7
-1.001, -1.324e-7
-1.000, 1.362e-8
-1.001, 1.330e-7
-1.002, 1.784e-7
-1.003, 2.287e-7
-1.004, 2.514e-7
-1.005, 2.751e-7
-1.006, 3.126e-7
-1.007, 3.185e-7
-1.008, 3.530e-7
-1.009, 3.915e-7
-1.010, 4.211e-7
-1.011, 4.211e-7
-1.012, 4.625e-7
-1.013, 4.862e-7
-1.014, 4.753e-7
-1.015, 4.990e-7
-1.016, 5.247e-7
-1.017, 5.197e-7
-1.018, 5.789e-7
-1.019, 5.612e-7
-1.020, 5.888e-7
-1.021, 5.957e-7
-1.022, 6.066e-7
-1.023, 6.273e-7
-1.024, 6.381e-7
-1.025, 6.667e-7
-1.026, 6.529e-7
-1.027, 6.766e-7
-1.028, 6.973e-7
-1.029, 7.111e-7
-1.030, 7.220e-7
-1.031, 7.131e-7
-1.032, 7.447e-7
-1.033, 7.624e-7
-1.034, 7.733e-7
-1.035, 7.674e-7
-1.036, 7.654e-7
-1.037, 7.930e-7
-1.038, 7.989e-7
-1.039, 8.226e-7
-1.040, 8.276e-7
-1.041, 8.226e-7
-1.042, 8.443e-7
-1.043, 8.641e-7
-1.044, 8.512e-7
-1.045, 8.532e-7
-1.046, 8.493e-7
-1.047, 8.808e-7
-1.048, 9.065e-7
-1.049, 9.055e-7
-1.050, 9.035e-7
-1.051, 8.966e-7
-1.052, 9.321e-7
-1.053, 9.302e-7
-1.054, 9.361e-7
-1.055, 9.440e-7
-1.056, 9.558e-7
-1.057, 9.568e-7
-1.058, 9.726e-7
-1.059, 9.686e-7
-1.060, 9.578e-7
-1.061, 9.746e-7
-1.062, 9.913e-7
-1.063, 9.963e-7
-1.064, 1.015e-6
-1.065, 1.014e-6
-1.066, 1.013e-6
-1.067, 1.032e-6
-1.068, 1.041e-6
-1.069, 1.038e-6
-1.070, 1.044e-6
-1.071, 1.047e-6
-1.072, 1.050e-6
-1.073, 1.068e-6
-1.074, 1.074e-6
-1.075, 1.079e-6
-1.076, 1.083e-6
-1.077, 1.093e-6
-1.078, 1.115e-6
-1.079, 1.096e-6
-1.080, 1.108e-6
-1.081, 1.109e-6
-1.082, 1.142e-6
-1.083, 1.142e-6
-1.084, 1.145e-6
-1.085, 1.140e-6
-1.086, 1.137e-6
-1.087, 1.152e-6
-1.088, 1.181e-6
-1.089, 1.193e-6
-1.090, 1.170e-6
-1.091, 1.185e-6
-1.092, 1.183e-6
-1.093, 1.198e-6
-1.094, 1.199e-6
-1.095, 1.194e-6
-1.096, 1.205e-6
-1.097, 1.210e-6
-1.098, 1.241e-6
-1.099, 1.238e-6
-1.100, 1.235e-6
-1.101, 1.246e-6
-1.102, 1.259e-6
-1.103, 1.268e-6
-1.104, 1.266e-6
-1.105, 1.280e-6
-1.106, 1.260e-6
-1.107, 1.289e-6
-1.108, 1.284e-6
-1.109, 1.293e-6
-1.110, 1.290e-6
-1.111, 1.310e-6
-1.112, 1.319e-6
-1.113, 1.328e-6
-1.114, 1.326e-6
-1.115, 1.328e-6
-1.116, 1.320e-6
-1.117, 1.342e-6
-1.118, 1.333e-6
-1.119, 1.344e-6
-1.120, 1.338e-6
-1.121, 1.336e-6
-1.122, 1.366e-6
-1.123, 1.375e-6
-1.124, 1.361e-6
-1.125, 1.353e-6
-1.126, 1.368e-6
-1.127, 1.369e-6
-1.128, 1.381e-6
-1.129, 1.381e-6
-1.130, 1.395e-6
-1.131, 1.398e-6
-1.132, 1.387e-6
-1.133, 1.404e-6
-1.134, 1.410e-6
-1.135, 1.416e-6
-1.136, 1.409e-6
-1.137, 1.420e-6
-1.138, 1.424e-6
-1.139, 1.408e-6
-1.140, 1.426e-6
-1.141, 1.418e-6
-1.142, 1.430e-6
-1.143, 1.439e-6
-1.144, 1.424e-6
-1.145, 1.445e-6
-1.146, 1.461e-6
-1.147, 1.454e-6
-1.148, 1.479e-6
-1.149, 1.477e-6
-1.150, 1.460e-6
-1.151, 1.462e-6
-1.152, 1.481e-6
-1.153, 1.480e-6
-1.154, 1.479e-6
-1.155, 1.495e-6
-1.156, 1.498e-6
-1.157, 1.477e-6
-1.158, 1.516e-6
-1.159, 1.506e-6
-1.160, 1.508e-6
-1.161, 1.503e-6
-1.162, 1.494e-6
-1.163, 1.519e-6
-1.164, 1.525e-6
-1.165, 1.517e-6
-1.166, 1.509e-6
-1.167, 1.531e-6
-1.168, 1.545e-6
-1.169, 1.555e-6
-1.170, 1.532e-6
-1.171, 1.544e-6
-1.172, 1.530e-6
-1.173, 1.562e-6
-1.174, 1.560e-6
-1.175, 1.571e-6
-1.176, 1.566e-6
-1.177, 1.584e-6
-1.178, 1.593e-6
-1.179, 1.591e-6
-1.180, 1.569e-6
-1.181, 1.603e-6
-1.182, 1.587e-6
-1.183, 1.597e-6
-1.184, 1.607e-6
-1.185, 1.600e-6
-1.186, 1.603e-6
-1.187, 1.610e-6
-1.188, 1.638e-6
-1.189, 1.628e-6
-1.190, 1.627e-6
-1.191, 1.644e-6
-1.192, 1.625e-6
-1.193, 1.648e-6
-1.194, 1.629e-6
-1.195, 1.648e-6
-1.196, 1.631e-6
-1.197, 1.669e-6
-1.198, 1.668e-6
-1.199, 1.693e-6
-1.200, 1.655e-6
-1.201, 1.663e-6
-1.202, 1.677e-6
-1.203, 1.689e-6
-1.204, 1.682e-6
-1.205, 1.678e-6
-1.206, 1.664e-6
-1.207, 1.676e-6
-1.208, 1.691e-6
-1.209, 1.667e-6
-1.210, 1.682e-6
-1.211, 1.681e-6
-1.212, 1.688e-6
-1.213, 1.714e-6
-1.214, 1.700e-6
-1.215, 1.707e-6
-1.216, 1.698e-6
-1.217, 1.706e-6
-1.218, 1.715e-6
-1.219, 1.703e-6
-1.220, 1.690e-6
-1.221, 1.703e-6
-1.222, 1.713e-6
-1.223, 1.722e-6
-1.224, 1.686e-6
-1.225, 1.704e-6
-1.226, 1.723e-6
-1.227, 1.709e-6
-1.228, 1.713e-6
-1.229, 1.727e-6
-1.230, 1.714e-6
-1.231, 1.713e-6
-1.232, 1.709e-6
-1.233, 1.741e-6
-1.234, 1.726e-6
-1.235, 1.724e-6
-1.236, 1.742e-6
-1.237, 1.742e-6
-1.238, 1.746e-6
-1.239, 1.754e-6
-1.240, 1.744e-6
-1.241, 1.751e-6
-1.242, 1.767e-6
-1.243, 1.763e-6
-1.244, 1.759e-6
-1.245, 1.756e-6
-1.246, 1.758e-6
-1.247, 1.759e-6
-1.248, 1.777e-6
-1.249, 1.776e-6
-1.250, 1.773e-6
-1.251, 1.764e-6
-1.252, 1.773e-6
-1.253, 1.797e-6
-1.254, 1.767e-6
-1.255, 1.775e-6
-1.256, 1.769e-6
-1.257, 1.800e-6
-1.258, 1.798e-6
-1.259, 1.792e-6
-1.260, 1.781e-6
-1.261, 1.795e-6
-1.262, 1.808e-6
-1.263, 1.802e-6
-1.264, 1.802e-6
-1.265, 1.800e-6
-1.266, 1.794e-6
-1.267, 1.811e-6
-1.268, 1.795e-6
-1.269, 1.825e-6
-1.270, 1.808e-6
-1.271, 1.803e-6
-1.272, 1.806e-6
-1.273, 1.815e-6
-1.274, 1.840e-6
-1.275, 1.837e-6
-1.276, 1.832e-6
-1.277, 1.822e-6
-1.278, 1.840e-6
-1.279, 1.848e-6
-1.280, 1.848e-6
-1.281, 1.840e-6
-1.282, 1.831e-6
-1.283, 1.886e-6
-1.284, 1.862e-6
-1.285, 1.854e-6
-1.286, 1.864e-6
-1.287, 1.871e-6
-1.288, 1.876e-6
-1.289, 1.877e-6
-1.290, 1.880e-6
-1.291, 1.866e-6
-1.292, 1.866e-6
-1.293, 1.893e-6
-1.294, 1.912e-6
-1.295, 1.879e-6
-1.296, 1.902e-6
-1.297, 1.902e-6
-1.298, 1.921e-6
-1.299, 1.922e-6
-1.300, 1.904e-6
-1.301, 1.908e-6
-1.302, 1.909e-6
-1.303, 1.929e-6
-1.304, 1.903e-6
-1.305, 1.898e-6
-1.306, 1.939e-6
-1.307, 1.939e-6
-1.308, 1.928e-6
-1.309, 1.948e-6
-1.310, 1.958e-6
-1.311, 1.944e-6
-1.312, 1.938e-6
-1.313, 1.961e-6
-1.314, 1.949e-6
-1.315, 1.938e-6
-1.316, 1.936e-6
-1.317, 1.960e-6
-1.318, 1.969e-6
-1.319, 1.996e-6
-1.320, 1.992e-6
-1.321, 1.980e-6
-1.322, 1.972e-6
-1.323, 1.995e-6
-1.324, 2.012e-6
-1.325, 2.000e-6
-1.326, 1.986e-6
-1.327, 1.978e-6
-1.328, 2.000e-6
-1.329, 2.028e-6
-1.330, 2.020e-6
-1.331, 2.016e-6
-1.332, 2.044e-6
-1.333, 2.056e-6
-1.334, 2.052e-6
-1.335, 2.057e-6
-1.336, 2.026e-6
-1.337, 2.036e-6
-1.338, 2.063e-6
-1.339, 2.073e-6
-1.340, 2.061e-6
-1.341, 2.068e-6
-1.342, 2.068e-6
-1.343, 2.102e-6
-1.344, 2.097e-6
-1.345, 2.082e-6
-1.346, 2.092e-6
-1.347, 2.084e-6
-1.348, 2.104e-6
-1.349, 2.114e-6
-1.350, 2.107e-6
-1.351, 2.114e-6
-1.352, 2.108e-6
-1.353, 2.138e-6
-1.354, 2.129e-6
-1.355, 2.126e-6
-1.356, 2.135e-6
-1.357, 2.121e-6
-1.358, 2.155e-6
-1.359, 2.161e-6
-1.360, 2.149e-6
-1.361, 2.159e-6
-1.362, 2.171e-6
-1.363, 2.167e-6
-1.364, 2.186e-6
-1.365, 2.177e-6
-1.366, 2.197e-6
-1.367, 2.184e-6
-1.368, 2.192e-6
-1.369, 2.213e-6
-1.370, 2.194e-6
-1.371, 2.215e-6
-1.372, 2.225e-6
-1.373, 2.225e-6
-1.374, 2.230e-6
-1.375, 2.237e-6
-1.376, 2.244e-6
-1.377, 2.249e-6
-1.378, 2.271e-6
-1.379, 2.266e-6
-1.380, 2.263e-6
-1.381, 2.260e-6
-1.382, 2.304e-6
-1.383, 2.309e-6
-1.384, 2.303e-6
-1.385, 2.317e-6
-1.386, 2.312e-6
-1.387, 2.302e-6
-1.388, 2.347e-6
-1.389, 2.341e-6
-1.390, 2.340e-6
-1.391, 2.348e-6
-1.392, 2.328e-6
-1.393, 2.361e-6
-1.394, 2.371e-6
-1.395, 2.376e-6
-1.396, 2.367e-6
-1.397, 2.387e-6
-1.398, 2.399e-6
-1.399, 2.419e-6
-1.400, 2.392e-6
-1.401, 2.414e-6
-1.402, 2.427e-6
-1.403, 2.446e-6
-1.404, 2.451e-6
-1.405, 2.439e-6
-1.406, 2.456e-6
-1.407, 2.460e-6
-1.408, 2.477e-6
-1.409, 2.498e-6
-1.410, 2.485e-6
-1.411, 2.506e-6
-1.412, 2.499e-6
-1.413, 2.512e-6
-1.414, 2.523e-6
-1.415, 2.526e-6
-1.416, 2.546e-6
-1.417, 2.543e-6
-1.418, 2.556e-6
-1.419, 2.579e-6
-1.420, 2.574e-6
-1.421, 2.612e-6
-1.422, 2.599e-6
-1.423, 2.617e-6
-1.424, 2.621e-6
-1.425, 2.623e-6
-1.426, 2.631e-6
-1.427, 2.623e-6
-1.428, 2.665e-6
-1.429, 2.692e-6
-1.430, 2.679e-6
-1.431, 2.706e-6
-1.432, 2.716e-6
-1.433, 2.714e-6
-1.434, 2.744e-6
-1.435, 2.732e-6
-1.436, 2.719e-6
-1.437, 2.756e-6
-1.438, 2.783e-6
-1.439, 2.792e-6
-1.440, 2.812e-6
-1.441, 2.809e-6
-1.442, 2.815e-6
-1.443, 2.828e-6
-1.444, 2.856e-6
-1.445, 2.846e-6
-1.446, 2.874e-6
-1.447, 2.874e-6
-1.448, 2.898e-6
-1.449, 2.923e-6
-1.450, 2.914e-6
-1.451, 2.925e-6
-1.452, 2.957e-6
-1.453, 2.976e-6
-1.454, 2.976e-6
-1.455, 3.019e-6
-1.456, 2.999e-6
-1.457, 3.013e-6
-1.458, 3.037e-6
-1.459, 3.071e-6
-1.460, 3.061e-6
-1.461, 3.091e-6
-1.462, 3.114e-6
-1.463, 3.130e-6
-1.464, 3.128e-6
-1.465, 3.142e-6
-1.466, 3.157e-6
-1.467, 3.170e-6
-1.468, 3.219e-6
-1.469, 3.224e-6
-1.470, 3.245e-6
-1.471, 3.261e-6
-1.472, 3.286e-6
-1.473, 3.300e-6
-1.474, 3.337e-6
-1.475, 3.354e-6
-1.476, 3.345e-6
-1.477, 3.386e-6
-1.478, 3.410e-6
-1.479, 3.446e-6
-1.480, 3.464e-6
-1.481, 3.475e-6
-1.482, 3.494e-6
-1.483, 3.514e-6
-1.484, 3.545e-6
-1.485, 3.574e-6
-1.486, 3.601e-6
-1.487, 3.611e-6
-1.488, 3.660e-6
-1.489, 3.681e-6
-1.490, 3.702e-6
-1.491, 3.714e-6
-1.492, 3.732e-6
-1.493, 3.788e-6
-1.494, 3.801e-6
-1.495, 3.843e-6
-1.496, 3.851e-6
-1.497, 3.896e-6
-1.498, 3.937e-6
-1.499, 3.966e-6
-1.500, 4.000e-6
-1.501, 4.033e-6
-1.502, 4.062e-6
-1.503, 4.131e-6
-1.504, 4.175e-6
-1.505, 4.208e-6
-1.506, 4.239e-6
-1.507, 4.260e-6
-1.508, 4.293e-6
-1.509, 4.352e-6
-1.510, 4.383e-6
-1.511, 4.430e-6
-1.512, 4.467e-6
-1.513, 4.516e-6
-1.514, 4.584e-6
-1.515, 4.623e-6
-1.516, 4.661e-6
-1.517, 4.724e-6
-1.518, 4.776e-6
-1.519, 4.819e-6
-1.520, 4.872e-6
-1.521, 4.946e-6
-1.522, 4.989e-6
-1.523, 5.065e-6
-1.524, 5.098e-6
-1.525, 5.185e-6
-1.526, 5.224e-6
-1.527, 5.287e-6
-1.528, 5.336e-6
-1.529, 5.431e-6
-1.530, 5.487e-6
-1.531, 5.567e-6
-1.532, 5.599e-6
-1.533, 5.689e-6
-1.534, 5.780e-6
-1.535, 5.856e-6
-1.536, 5.937e-6
-1.537, 6.003e-6
-1.538, 6.091e-6
-1.539, 6.193e-6
-1.540, 6.239e-6
-1.541, 6.338e-6
-1.542, 6.422e-6
-1.543, 6.552e-6
-1.544, 6.643e-6
-1.545, 6.741e-6
-1.546, 6.823e-6
-1.547, 6.950e-6
-1.548, 7.043e-6
-1.549, 7.174e-6
-1.550, 7.278e-6
-1.551, 7.400e-6
-1.552, 7.502e-6
-1.553, 7.632e-6
-1.554, 7.771e-6
-1.555, 7.896e-6
-1.556, 8.031e-6
-1.557, 8.141e-6
-1.558, 8.282e-6
-1.559, 8.430e-6
-1.560, 8.592e-6
-1.561, 8.724e-6
-1.562, 8.882e-6
-1.563, 9.044e-6
-1.564, 9.235e-6
-1.565, 9.375e-6
-1.566, 9.538e-6
-1.567, 9.727e-6
-1.568, 9.884e-6
-1.569, 1.009e-5
-1.570, 1.029e-5
-1.571, 1.048e-5
-1.572, 1.067e-5
-1.573, 1.088e-5
-1.574, 1.114e-5
-1.575, 1.136e-5
-1.576, 1.156e-5
-1.577, 1.177e-5
-1.578, 1.201e-5
-1.579, 1.227e-5
-1.580, 1.250e-5
-1.581, 1.278e-5
-1.582, 1.301e-5
-1.583, 1.328e-5
-1.584, 1.357e-5
-1.585, 1.388e-5
-1.586, 1.415e-5
-1.587, 1.444e-5
-1.588, 1.477e-5
-1.589, 1.511e-5
-1.590, 1.541e-5
-1.591, 1.576e-5
-1.592, 1.607e-5
-1.593, 1.646e-5
-1.594, 1.683e-5
-1.595, 1.721e-5
-1.596, 1.758e-5
-1.597, 1.797e-5
-1.598, 1.839e-5
-1.599, 1.881e-5
-1.600, 1.926e-5
-1.601, 1.969e-5
-1.602, 2.012e-5
-1.603, 2.058e-5
-1.604, 2.110e-5
-1.605, 2.158e-5
-1.606, 2.206e-5
-1.607, 2.258e-5
-1.608, 2.312e-5
-1.609, 2.369e-5
-1.610, 2.423e-5
-1.611, 2.480e-5
-1.612, 2.539e-5
-1.613, 2.602e-5
-1.614, 2.662e-5
-1.615, 2.729e-5
-1.616, 2.793e-5
-1.617, 2.861e-5
-1.618, 2.932e-5
-1.619, 3.009e-5
-1.620, 3.081e-5
-1.621, 3.157e-5
-1.622, 3.233e-5
-1.623, 3.312e-5
-1.624, 3.395e-5
-1.625, 3.479e-5
-1.626, 3.567e-5
-1.627, 3.653e-5
-1.628, 3.743e-5
-1.629, 3.840e-5
-1.630, 3.932e-5
-1.631, 4.030e-5
-1.632, 4.131e-5
-1.633, 4.235e-5
-1.634, 4.338e-5
-1.635, 4.448e-5
-1.636, 4.563e-5
-1.637, 4.674e-5
-1.638, 4.794e-5
-1.639, 4.921e-5
-1.640, 5.039e-5
-1.641, 5.170e-5
-1.642, 5.296e-5
-1.643, 5.431e-5
-1.644, 5.568e-5
-1.645, 5.710e-5
-1.646, 5.852e-5
-1.647, 5.997e-5
-1.648, 6.148e-5
-1.649, 6.306e-5
-1.650, 6.463e-5
-1.651, 6.626e-5
-1.652, 6.789e-5
-1.653, 6.961e-5
-1.654, 7.139e-5
-1.655, 7.315e-5
-1.656, 7.499e-5
-1.657, 7.687e-5
-1.658, 7.879e-5
-1.659, 8.078e-5
-1.660, 8.281e-5
-1.661, 8.486e-5
-1.662, 8.697e-5
-1.663, 8.911e-5
-1.664, 9.137e-5
-1.665, 9.366e-5
-1.666, 9.595e-5
-1.667, 9.831e-5
-1.668, 1.007e-4
-1.669, 1.032e-4
-1.670, 1.057e-4
-1.671, 1.083e-4
-1.672, 1.109e-4
-1.673, 1.136e-4
-1.674, 1.164e-4
-1.675, 1.192e-4
-1.676, 1.221e-4
-1.677, 1.250e-4
-1.678, 1.280e-4
-1.679, 1.311e-4
-1.680, 1.343e-4
-1.681, 1.375e-4
-1.682, 1.407e-4
-1.683, 1.441e-4
-1.684, 1.475e-4
-1.685, 1.510e-4
-1.686, 1.546e-4
-1.687, 1.583e-4
-1.688, 1.620e-4
-1.689, 1.659e-4
-1.690, 1.698e-4
-1.691, 1.738e-4
-1.692, 1.778e-4
-1.693, 1.819e-4
-1.694, 1.862e-4
-1.695, 1.906e-4
-1.696, 1.950e-4
-1.697, 1.995e-4
-1.698, 2.041e-4
-1.699, 2.088e-4
-1.700, 2.136e-4
-1.701, 2.184e-4
-1.702, 2.234e-4
-1.703, 2.285e-4
-1.704, 2.337e-4
-1.705, 2.391e-4
-1.706, 2.445e-4
-1.707, 2.500e-4
-1.708, 2.556e-4
-1.709, 2.613e-4
-1.710, 2.672e-4
-1.711, 2.731e-4
-1.712, 2.792e-4
-1.713, 2.853e-4
-1.714, 2.917e-4
-1.715, 2.982e-4
-1.716, 3.047e-4
-1.717, 3.115e-4
-1.718, 3.184e-4
-1.719, 3.254e-4
-1.720, 3.325e-4
-1.721, 3.398e-4
-1.722, 3.472e-4
-1.723, 3.547e-4
-1.724, 3.623e-4
-1.725, 3.702e-4
-1.726, 3.782e-4
-1.727, 3.863e-4
-1.728, 3.946e-4
-1.729, 4.032e-4
-1.730, 4.119e-4
-1.731, 4.207e-4
-1.732, 4.296e-4
-1.733, 4.386e-4
-1.734, 4.479e-4
-1.735, 4.575e-4
-1.736, 4.673e-4
-1.737, 4.771e-4
-1.738, 4.872e-4
-1.739, 4.976e-4
-1.740, 5.083e-4
-1.741, 5.189e-4
-1.742, 5.298e-4
-1.743, 5.409e-4
-1.744, 5.522e-4
-1.745, 5.639e-4
-1.746, 5.756e-4
-1.747, 5.874e-4
-1.748, 5.996e-4
-1.749, 6.120e-4
-1.750, 6.248e-4
-1.751, 6.377e-4
-1.752, 6.507e-4
-1.753, 6.644e-4
-1.754, 6.779e-4
-1.755, 6.916e-4
-1.756, 7.054e-4
-1.757, 7.197e-4
-1.758, 7.342e-4
-1.759, 7.492e-4
-1.760, 7.645e-4
-1.761, 7.798e-4
-1.762, 7.955e-4
-1.763, 8.117e-4
-1.764, 8.281e-4
-1.765, 8.446e-4
-1.766, 8.615e-4
-1.767, 8.788e-4
-1.768, 8.964e-4
-1.769, 9.143e-4
-1.770, 9.327e-4
-1.771, 9.513e-4
-1.772, 9.706e-4
-1.773, 9.901e-4
-1.774, 1.009e-3
-1.775, 1.029e-3
-1.776, 1.050e-3
-1.777, 1.070e-3
-1.778, 1.092e-3
-1.779, 1.114e-3
-1.780, 1.136e-3
-1.781, 1.156e-3
-1.782, 1.178e-3
-1.783, 1.200e-3
-1.784, 1.224e-3
-1.785, 1.248e-3
-1.786, 1.271e-3
-1.787, 1.295e-3
-1.788, 1.320e-3
-1.789, 1.346e-3
-1.790, 1.372e-3
-1.791, 1.398e-3
-1.792, 1.424e-3
-1.793, 1.451e-3
-1.794, 1.477e-3
-1.795, 1.506e-3
-1.796, 1.535e-3
-1.797, 1.563e-3
-1.798, 1.592e-3
-1.799, 1.622e-3
-1.800, 1.634e-3
-1.799, 1.622e-3
-1.798, 1.608e-3
-1.797, 1.592e-3
-1.796, 1.576e-3
-1.795, 1.560e-3
-1.794, 1.545e-3
-1.793, 1.529e-3
-1.792, 1.512e-3
-1.791, 1.496e-3
-1.790, 1.479e-3
-1.789, 1.460e-3
-1.788, 1.442e-3
-1.787, 1.425e-3
-1.786, 1.408e-3
-1.785, 1.391e-3
-1.784, 1.374e-3
-1.783, 1.357e-3
-1.782, 1.340e-3
-1.781, 1.323e-3
-1.780, 1.306e-3
-1.779, 1.290e-3
-1.778, 1.273e-3
-1.777, 1.256e-3
-1.776, 1.240e-3
-1.775, 1.224e-3
-1.774, 1.208e-3
-1.773, 1.192e-3
-1.772, 1.176e-3
-1.771, 1.161e-3
-1.770, 1.146e-3
-1.769, 1.130e-3
-1.768, 1.114e-3
-1.767, 1.099e-3
-1.766, 1.085e-3
-1.765, 1.070e-3
-1.764, 1.056e-3
-1.763, 1.042e-3
-1.762, 1.027e-3
-1.761, 1.014e-3
-1.760, 9.992e-4
-1.759, 9.853e-4
-1.758, 9.718e-4
-1.757, 9.586e-4
-1.756, 9.452e-4
-1.755, 9.324e-4
-1.754, 9.194e-4
-1.753, 9.063e-4
-1.752, 8.932e-4
-1.751, 8.805e-4
-1.750, 8.685e-4
-1.749, 8.562e-4
-1.748, 8.436e-4
-1.747, 8.314e-4
-1.746, 8.195e-4
-1.745, 8.081e-4
-1.744, 7.966e-4
-1.743, 7.846e-4
-1.742, 7.726e-4
-1.741, 7.613e-4
-1.740, 7.504e-4
-1.739, 7.394e-4
-1.738, 7.285e-4
-1.737, 7.179e-4
-1.736, 7.074e-4
-1.735, 6.969e-4
-1.734, 6.867e-4
-1.733, 6.764e-4
-1.732, 6.661e-4
-1.731, 6.562e-4
-1.730, 6.466e-4
-1.729, 6.369e-4
-1.728, 6.274e-4
-1.727, 6.178e-4
-1.726, 6.085e-4
-1.725, 5.993e-4
-1.724, 5.902e-4
-1.723, 5.811e-4
-1.722, 5.721e-4
-1.721, 5.634e-4
-1.720, 5.549e-4
-1.719, 5.462e-4
-1.718, 5.376e-4
-1.717, 5.293e-4
-1.716, 5.210e-4
-1.715, 5.130e-4
-1.714, 5.050e-4
-1.713, 4.971e-4
-1.712, 4.893e-4
-1.711, 4.816e-4
-1.710, 4.740e-4
-1.709, 4.665e-4
-1.708, 4.591e-4
-1.707, 4.519e-4
-1.706, 4.449e-4
-1.705, 4.378e-4
-1.704, 4.309e-4
-1.703, 4.239e-4
-1.702, 4.171e-4
-1.701, 4.106e-4
-1.700, 4.039e-4
-1.699, 3.973e-4
-1.698, 3.909e-4
-1.697, 3.844e-4
-1.696, 3.781e-4
-1.695, 3.720e-4
-1.694, 3.659e-4
-1.693, 3.599e-4
-1.692, 3.540e-4
-1.691, 3.481e-4
-1.690, 3.422e-4
-1.689, 3.364e-4
-1.688, 3.308e-4
-1.687, 3.252e-4
-1.686, 3.197e-4
-1.685, 3.144e-4
-1.684, 3.090e-4
-1.683, 3.037e-4
-1.682, 2.985e-4
-1.681, 2.935e-4
-1.680, 2.885e-4
-1.679, 2.836e-4
-1.678, 2.787e-4
-1.677, 2.739e-4
-1.676, 2.692e-4
-1.675, 2.645e-4
-1.674, 2.599e-4
-1.673, 2.553e-4
-1.672, 2.508e-4
-1.671, 2.464e-4
-1.670, 2.420e-4
-1.669, 2.378e-4
-1.668, 2.335e-4
-1.667, 2.292e-4
-1.666, 2.251e-4
-1.665, 2.211e-4
-1.664, 2.172e-4
-1.663, 2.132e-4
-1.662, 2.093e-4
-1.661, 2.055e-4
-1.660, 2.018e-4
-1.659, 1.981e-4
-1.658, 1.945e-4
-1.657, 1.909e-4
-1.656, 1.874e-4
-1.655, 1.840e-4
-1.654, 1.806e-4
-1.653, 1.772e-4
-1.652, 1.738e-4
-1.651, 1.705e-4
-1.650, 1.673e-4
-1.649, 1.642e-4
-1.648, 1.610e-4
-1.647, 1.579e-4
-1.646, 1.549e-4
-1.645, 1.519e-4
-1.644, 1.490e-4
-1.643, 1.461e-4
-1.642, 1.433e-4
-1.641, 1.405e-4
-1.640, 1.378e-4
-1.639, 1.351e-4
-1.638, 1.324e-4
-1.637, 1.298e-4
-1.636, 1.272e-4
-1.635, 1.247e-4
-1.634, 1.223e-4
-1.633, 1.198e-4
-1.632, 1.175e-4
-1.631, 1.151e-4
-1.630, 1.129e-4
-1.629, 1.106e-4
-1.628, 1.084e-4
-1.627, 1.062e-4
-1.626, 1.040e-4
-1.625, 1.019e-4
-1.624, 9.982e-5
-1.623, 9.774e-5
-1.622, 9.575e-5
-1.621, 9.377e-5
-1.620, 9.185e-5
-1.619, 8.995e-5
-1.618, 8.805e-5
-1.617, 8.622e-5
-1.616, 8.439e-5
-1.615, 8.261e-5
-1.614, 8.088e-5
-1.613, 7.915e-5
-1.612, 7.746e-5
-1.611, 7.583e-5
-1.610, 7.424e-5
-1.609, 7.261e-5
-1.608, 7.108e-5
-1.607, 6.952e-5
-1.606, 6.800e-5
-1.605, 6.654e-5
-1.604, 6.511e-5
-1.603, 6.372e-5
-1.602, 6.230e-5
-1.601, 6.094e-5
-1.600, 5.962e-5
-1.599, 5.831e-5
-1.598, 5.704e-5
-1.597, 5.576e-5
-1.596, 5.453e-5
-1.595, 5.339e-5
-1.594, 5.220e-5
-1.593, 5.102e-5
-1.592, 4.990e-5
-1.591, 4.877e-5
-1.590, 4.770e-5
-1.589, 4.665e-5
-1.588, 4.557e-5
-1.587, 4.453e-5
-1.586, 4.355e-5
-1.585, 4.260e-5
-1.584, 4.165e-5
-1.583, 4.069e-5
-1.582, 3.975e-5
-1.581, 3.887e-5
-1.580, 3.801e-5
-1.579, 3.712e-5
-1.578, 3.629e-5
-1.577, 3.546e-5
-1.576, 3.467e-5
-1.575, 3.390e-5
-1.574, 3.310e-5
-1.573, 3.236e-5
-1.572, 3.162e-5
-1.571, 3.088e-5
-1.570, 3.020e-5
-1.569, 2.950e-5
-1.568, 2.883e-5
-1.567, 2.813e-5
-1.566, 2.752e-5
-1.565, 2.691e-5
-1.564, 2.629e-5
-1.563, 2.568e-5
-1.562, 2.507e-5
-1.561, 2.450e-5
-1.560, 2.394e-5
-1.559, 2.340e-5
-1.558, 2.284e-5
-1.557, 2.234e-5
-1.556, 2.181e-5
-1.555, 2.134e-5
-1.554, 2.083e-5
-1.553, 2.034e-5
-1.552, 1.988e-5
-1.551, 1.942e-5
-1.550, 1.900e-5
-1.549, 1.857e-5
-1.548, 1.815e-5
-1.547, 1.771e-5
-1.546, 1.733e-5
-1.545, 1.694e-5
-1.544, 1.655e-5
-1.543, 1.617e-5
-1.542, 1.580e-5
-1.541, 1.546e-5
-1.540, 1.510e-5
-1.539, 1.475e-5
-1.538, 1.441e-5
-1.537, 1.410e-5
-1.536, 1.376e-5
-1.535, 1.345e-5
-1.534, 1.316e-5
-1.533, 1.286e-5
-1.532, 1.255e-5
-1.531, 1.228e-5
-1.530, 1.200e-5
-1.529, 1.175e-5
-1.528, 1.149e-5
-1.527, 1.124e-5
-1.526, 1.097e-5
-1.525, 1.072e-5
-1.524, 1.051e-5
-1.523, 1.027e-5
-1.522, 1.006e-5
-1.521, 9.835e-6
-1.520, 9.628e-6
-1.519, 9.405e-6
-1.518, 9.180e-6
-1.517, 8.961e-6
-1.516, 8.778e-6
-1.515, 8.597e-6
-1.514, 8.417e-6
-1.513, 8.237e-6
-1.512, 8.073e-6
-1.511, 7.879e-6
-1.510, 7.721e-6
-1.509, 7.573e-6
-1.508, 7.392e-6
-1.507, 7.217e-6
-1.506, 7.079e-6
-1.505, 6.938e-6
-1.504, 6.823e-6
-1.503, 6.657e-6
-1.502, 6.526e-6
-1.501, 6.399e-6
-1.500, 6.279e-6
-1.499, 6.163e-6
-1.498, 6.000e-6
-1.497, 5.850e-6
-1.496, 5.767e-6
-1.495, 5.653e-6
-1.494, 5.535e-6
-1.493, 5.411e-6
-1.492, 5.282e-6
-1.491, 5.184e-6
-1.490, 5.124e-6
-1.489, 5.005e-6
-1.488, 4.900e-6
-1.487, 4.806e-6
-1.486, 4.696e-6
-1.485, 4.601e-6
-1.484, 4.502e-6
-1.483, 4.424e-6
-1.482, 4.331e-6
-1.481, 4.251e-6
-1.480, 4.176e-6
-1.479, 4.119e-6
-1.478, 4.020e-6
-1.477, 3.937e-6
-1.476, 3.871e-6
-1.475, 3.789e-6
-1.474, 3.762e-6
-1.473, 3.665e-6
-1.472, 3.589e-6
-1.471, 3.517e-6
-1.470, 3.459e-6
-1.469, 3.402e-6
-1.468, 3.333e-6
-1.467, 3.267e-6
-1.466, 3.208e-6
-1.465, 3.155e-6
-1.464, 3.125e-6
-1.463, 3.059e-6
-1.462, 2.984e-6
-1.461, 2.933e-6
-1.460, 2.890e-6
-1.459, 2.841e-6
-1.458, 2.779e-6
-1.457, 2.729e-6
-1.456, 2.664e-6
-1.455, 2.653e-6
-1.454, 2.606e-6
-1.453, 2.563e-6
-1.452, 2.491e-6
-1.451, 2.469e-6
-1.450, 2.432e-6
-1.449, 2.373e-6
-1.448, 2.316e-6
-1.447, 2.300e-6
-1.446, 2.238e-6
-1.445, 2.230e-6
-1.444, 2.157e-6
-1.443, 2.157e-6
-1.442, 2.093e-6
-1.441, 2.069e-6
-1.440, 2.027e-6
-1.439, 2.019e-6
-1.438, 1.979e-6
-1.437, 1.951e-6
-1.436, 1.913e-6
-1.435, 1.891e-6
-1.434, 1.861e-6
-1.433, 1.829e-6
-1.432, 1.799e-6
-1.431, 1.783e-6
-1.430, 1.739e-6
-1.429, 1.717e-6
-1.428, 1.702e-6
-1.427, 1.633e-6
-1.426, 1.617e-6
-1.425, 1.593e-6
-1.424, 1.613e-6
-1.423, 1.564e-6
-1.422, 1.551e-6
-1.421, 1.531e-6
-1.420, 1.505e-6
-1.419, 1.490e-6
-1.418, 1.439e-6
-1.417, 1.419e-6
-1.416, 1.400e-6
-1.415, 1.399e-6
-1.414, 1.381e-6
-1.413, 1.353e-6
-1.412, 1.341e-6
-1.411, 1.311e-6
-1.410, 1.307e-6
-1.409, 1.296e-6
-1.408, 1.261e-6
-1.407, 1.239e-6
-1.406, 1.228e-6
-1.405, 1.217e-6
-1.404, 1.212e-6
-1.403, 1.172e-6
-1.402, 1.165e-6
-1.401, 1.138e-6
-1.400, 1.130e-6
-1.399, 1.143e-6
-1.398, 1.109e-6
-1.397, 1.098e-6
-1.396, 1.087e-6
-1.395, 1.078e-6
-1.394, 1.061e-6
-1.393, 1.047e-6
-1.392, 1.039e-6
-1.391, 1.003e-6
-1.390, 1.007e-6
-1.389, 1.021e-6
-1.388, 9.923e-7
-1.387, 9.657e-7
-1.386, 9.746e-7
-1.385, 9.568e-7
-1.384, 9.519e-7
-1.383, 9.203e-7
-1.382, 9.094e-7
-1.381, 9.055e-7
-1.380, 8.808e-7
-1.379, 8.818e-7
-1.378, 8.710e-7
-1.377, 8.641e-7
-1.376, 8.493e-7
-1.375, 8.650e-7
-1.374, 8.562e-7
-1.373, 8.502e-7
-1.372, 8.325e-7
-1.371, 8.335e-7
-1.370, 8.157e-7
-1.369, 8.147e-7
-1.368, 8.009e-7
-1.367, 7.891e-7
-1.366, 7.605e-7
-1.365, 7.841e-7
-1.364, 7.605e-7
-1.363, 7.467e-7
-1.362, 7.467e-7
-1.361, 7.210e-7
-1.360, 7.388e-7
-1.359, 7.427e-7
-1.358, 7.269e-7
-1.357, 7.052e-7
-1.356, 6.845e-7
-1.355, 6.963e-7
-1.354, 6.796e-7
-1.353, 6.954e-7
-1.352, 6.825e-7
-1.351, 6.510e-7
-1.350, 6.845e-7
-1.349, 6.806e-7
-1.348, 6.707e-7
-1.347, 6.480e-7
-1.346, 6.519e-7
-1.345, 6.638e-7
-1.344, 6.450e-7
-1.343, 6.263e-7
-1.342, 6.164e-7
-1.341, 5.888e-7
-1.340, 6.066e-7
-1.339, 6.204e-7
-1.338, 6.154e-7
-1.337, 5.819e-7
-1.336, 5.819e-7
-1.335, 5.967e-7
-1.334, 5.898e-7
-1.333, 5.789e-7
-1.332, 5.691e-7
-1.331, 5.503e-7
-1.330, 5.612e-7
-1.329, 5.671e-7
-1.328, 5.622e-7
-1.327, 5.572e-7
-1.326, 5.533e-7
-1.325, 5.395e-7
-1.324, 5.493e-7
-1.323, 5.424e-7
-1.322, 5.266e-7
-1.321, 5.227e-7
-1.320, 5.385e-7
-1.319, 5.345e-7
-1.318, 5.089e-7
-1.317, 5.138e-7
-1.316, 5.010e-7
-1.315, 5.040e-7
-1.314, 5.158e-7
-1.313, 5.040e-7
-1.312, 5.040e-7
-1.311, 4.941e-7
-1.310, 4.980e-7
-1.309, 4.803e-7
-1.308, 4.832e-7
-1.307, 4.911e-7
-1.306, 4.763e-7
-1.305, 4.674e-7
-1.304, 4.911e-7
-1.303, 4.862e-7
-1.302, 4.842e-7
-1.301, 4.813e-7
-1.300, 4.615e-7
-1.299, 4.605e-7
-1.298, 4.645e-7
-1.297, 4.694e-7
-1.296, 4.487e-7
-1.295, 4.546e-7
-1.294, 4.477e-7
-1.293, 4.369e-7
-1.292, 4.487e-7
-1.291, 4.250e-7
-1.290, 4.556e-7
-1.289, 4.418e-7
-1.288, 4.132e-7
-1.287, 4.152e-7
-1.286, 4.231e-7
-1.285, 4.171e-7
-1.284, 4.181e-7
-1.283, 4.122e-7
-1.282, 4.092e-7
-1.281, 4.122e-7
-1.280, 3.954e-7
-1.279, 4.161e-7
-1.278, 4.033e-7
-1.277, 4.043e-7
-1.276, 4.023e-7
-1.275, 3.954e-7
-1.274, 4.142e-7
-1.273, 4.092e-7
-1.272, 3.974e-7
-1.271, 3.767e-7
-1.270, 3.994e-7
-1.269, 3.954e-7
-1.268, 4.013e-7
-1.267, 3.875e-7
-1.266, 3.767e-7
-1.265, 3.767e-7
-1.264, 3.944e-7
-1.263, 3.875e-7
-1.262, 3.737e-7
-1.261, 3.836e-7
-1.260, 3.737e-7
-1.259, 3.826e-7
-1.258, 3.806e-7
-1.257, 3.954e-7
-1.256, 3.856e-7
-1.255, 3.777e-7
-1.254, 3.757e-7
-1.253, 3.757e-7
-1.252, 3.629e-7
-1.251, 3.461e-7
-1.250, 3.579e-7
-1.249, 3.727e-7
-1.248, 3.451e-7
-1.247, 3.639e-7
-1.246, 3.570e-7
-1.245, 3.540e-7
-1.244, 3.570e-7
-1.243, 3.777e-7
-1.242, 3.570e-7
-1.241, 3.550e-7
-1.240, 3.431e-7
-1.239, 3.658e-7
-1.238, 3.402e-7
-1.237, 3.372e-7
-1.236, 3.491e-7
-1.235, 3.224e-7
-1.234, 3.570e-7
-1.233, 3.254e-7
-1.232, 3.323e-7
-1.231, 3.244e-7
-1.230, 3.165e-7
-1.229, 3.007e-7
-1.228, 3.145e-7
-1.227, 3.165e-7
-1.226, 3.017e-7
-1.225, 3.027e-7
-1.224, 2.869e-7
-1.223, 2.978e-7
-1.222, 2.987e-7
-1.221, 2.908e-7
-1.220, 2.622e-7
-1.219, 3.126e-7
-1.218, 3.027e-7
-1.217, 2.889e-7
-1.216, 2.780e-7
-1.215, 2.780e-7
-1.214, 2.968e-7
-1.213, 2.632e-7
-1.212, 2.790e-7
-1.211, 2.820e-7
-1.210, 2.514e-7
-1.209, 2.672e-7
-1.208, 2.652e-7
-1.207, 2.534e-7
-1.206, 2.632e-7
-1.205, 2.603e-7
-1.204, 2.721e-7
-1.203, 2.652e-7
-1.202, 2.356e-7
-1.201, 2.474e-7
-1.200, 2.405e-7
-1.199, 2.583e-7
-1.198, 2.652e-7
-1.197, 2.425e-7
-1.196, 2.415e-7
-1.195, 2.218e-7
-1.194, 2.297e-7
-1.193, 2.317e-7
-1.192, 2.395e-7
-1.191, 2.336e-7
-1.190, 2.514e-7
-1.189, 2.573e-7
-1.188, 2.415e-7
-1.187, 2.228e-7
-1.186, 2.139e-7
-1.185, 2.188e-7
-1.184, 2.238e-7
-1.183, 2.218e-7
-1.182, 2.188e-7
-1.181, 2.198e-7
-1.180, 2.139e-7
-1.179, 2.277e-7
-1.178, 2.119e-7
-1.177, 1.863e-7
-1.176, 1.794e-7
-1.175, 1.853e-7
-1.174, 2.040e-7
-1.173, 2.090e-7
-1.172, 1.863e-7
-1.171, 1.646e-7
-1.170, 1.863e-7
-1.169, 1.833e-7
-1.168, 1.744e-7
-1.167, 1.547e-7
-1.166, 1.586e-7
-1.165, 1.586e-7
-1.164, 1.626e-7
-1.163, 1.794e-7
-1.162, 1.498e-7
-1.161, 1.646e-7
-1.160, 1.360e-7
-1.159, 1.606e-7
-1.158, 1.616e-7
-1.157, 1.320e-7
-1.156, 1.448e-7
-1.155, 1.300e-7
-1.154, 1.399e-7
-1.153, 1.488e-7
-1.152, 1.103e-7
-1.151, 1.024e-7
-1.150, 1.083e-7
-1.149, 1.310e-7
-1.148, 1.251e-7
-1.147, 1.113e-7
-1.146, 9.846e-8
-1.145, 9.353e-8
-1.144, 1.123e-7
-1.143, 1.064e-7
-1.142, 9.550e-8
-1.141, 8.465e-8
-1.140, 9.945e-8
-1.139, 8.662e-8
-1.138, 9.452e-8
-1.137, 8.958e-8
-1.136, 7.281e-8
-1.135, 6.294e-8
-1.134, 7.972e-8
-1.133, 7.774e-8
-1.132, 6.590e-8
-1.131, 7.972e-8
-1.130, 5.505e-8
-1.129, 5.012e-8
-1.128, 6.985e-8
-1.127, 4.913e-8
-1.126, 4.025e-8
-1.125, 4.124e-8
-1.124, 3.729e-8
-1.123, 4.617e-8
-1.122, 3.828e-8
-1.121, 3.828e-8
-1.120, 2.940e-8
-1.119, 2.743e-8
-1.118, 2.151e-8
-1.117, 2.743e-8
-1.116, 9.669e-9
-1.115, 1.263e-8
-1.114, -6.117e-9
-1.113, -8.090e-9
-1.112, -4.144e-9
-1.111, -3.157e-9
-1.110, 4.736e-9
-1.109, -1.500e-8
-1.108, 1.776e-9
-1.107, -1.894e-8
-1.106, -1.894e-8
-1.105, -2.092e-8
-1.104, -7.103e-9
-1.103, -1.894e-8
-1.102, -1.796e-8
-1.101, -3.275e-8
-1.100, -2.585e-8
-1.099, -1.697e-8
-1.098, -2.388e-8
-1.097, -3.078e-8
-1.096, -2.980e-8
-1.095, -4.262e-8
-1.094, -2.980e-8
-1.093, -4.065e-8
-1.092, -6.235e-8
-1.091, -5.347e-8
-1.090, -7.123e-8
-1.089, -4.854e-8
-1.088, -5.742e-8
-1.087, -7.123e-8
-1.086, -7.814e-8
-1.085, -7.025e-8
-1.084, -7.715e-8
-1.083, -5.051e-8
-1.082, -7.222e-8
-1.081, -8.998e-8
-1.080, -6.038e-8
-1.079, -7.814e-8
-1.078, -5.939e-8
-1.077, -7.814e-8
-1.076, -9.294e-8
-1.075, -8.406e-8
-1.074, -6.235e-8
-1.073, -6.038e-8
-1.072, -7.518e-8
-1.071, -6.827e-8
-1.070, -7.222e-8
-1.069, -6.531e-8
-1.068, -7.715e-8
-1.067, -8.011e-8
-1.066, -8.998e-8
-1.065, -8.208e-8
-1.064, -6.630e-8
-1.063, -7.222e-8
-1.062, -8.110e-8
-1.061, -7.814e-8
-1.060, -8.504e-8
-1.059, -7.617e-8
-1.058, -7.518e-8
-1.057, -1.018e-7
-1.056, -9.590e-8
-1.055, -1.008e-7
-1.054, -9.096e-8
-1.053, -1.018e-7
-1.052, -8.800e-8
-1.051, -9.590e-8
-1.050, -1.058e-7
-1.049, -9.590e-8
-1.048, -1.008e-7
-1.047, -1.156e-7
-1.046, -1.235e-7
-1.045, -1.117e-7
-1.044, -1.285e-7
-1.043, -1.117e-7
-1.042, -1.127e-7
-1.041, -1.334e-7
-1.040, -1.176e-7
-1.039, -1.038e-7
-1.038, -1.206e-7
-1.037, -1.334e-7
-1.036, -1.482e-7
-1.035, -1.294e-7
-1.034, -1.541e-7
-1.033, -1.275e-7
-1.032, -1.383e-7
-1.031, -1.640e-7
-1.030, -1.442e-7
-1.029, -1.669e-7
-1.028, -1.511e-7
-1.027, -1.492e-7
-1.026, -1.531e-7
-1.025, -1.610e-7
-1.024, -1.699e-7
-1.023, -1.679e-7
-1.022, -1.669e-7
-1.021, -1.768e-7
-1.020, -1.748e-7
-1.019, -1.729e-7
-1.018, -1.768e-7
-1.017, -1.916e-7
-1.016, -1.975e-7
-1.015, -2.034e-7
-1.014, -2.064e-7
-1.013, -1.886e-7
-1.012, -1.946e-7
-1.011, -2.015e-7
-1.010, -2.232e-7
-1.009, -1.975e-7
-1.008, -2.074e-7
-1.007, -2.103e-7
-1.006, -2.291e-7
-1.005, -2.301e-7
-1.004, -2.133e-7
-1.003, -1.955e-7
-1.002, -2.113e-7
-1.001, -2.192e-7
-1.000, -6.137e-8
-1.001, 5.308e-8
-1.002, 1.034e-7
-1.003, 1.221e-7
-1.004, 1.537e-7
-1.005, 1.942e-7
-1.006, 2.307e-7
-1.007, 2.524e-7
-1.008, 2.820e-7
-1.009, 3.135e-7
-1.010, 3.303e-7
-1.011, 3.708e-7
-1.012, 4.083e-7
-1.013, 4.161e-7
-1.014, 4.260e-7
-1.015, 4.467e-7
-1.016, 4.704e-7
-1.017, 4.892e-7
-1.018, 4.921e-7
-1.019, 5.138e-7
-1.020, 5.109e-7
-1.021, 5.553e-7
-1.022, 5.661e-7
-1.023, 5.878e-7
-1.024, 5.878e-7
-1.025, 6.174e-7
-1.026, 6.174e-7
-1.027, 6.588e-7
-1.028, 6.440e-7
-1.029, 6.677e-7
-1.030, 6.776e-7
-1.031, 6.954e-7
-1.032, 7.141e-7
-1.033, 7.161e-7
-1.034, 7.427e-7
-1.035, 7.447e-7
-1.036, 7.585e-7
-1.037, 7.930e-7
-1.038, 7.861e-7
-1.039, 7.832e-7
-1.040, 7.851e-7
-1.041, 7.989e-7
-1.042, 8.068e-7
-1.043, 8.305e-7
-1.044, 8.433e-7
-1.045, 8.443e-7
-1.046, 8.404e-7
-1.047, 8.710e-7
-1.048, 8.828e-7
-1.049, 8.769e-7
-1.050, 8.838e-7
-1.051, 8.956e-7
-1.052, 9.016e-7
-1.053, 9.302e-7
-1.054, 9.311e-7
-1.055, 9.282e-7
-1.056, 9.509e-7
-1.057, 9.706e-7
-1.058, 9.598e-7
-1.059, 9.558e-7
-1.060, 9.686e-7
-1.061, 9.755e-7
-1.062, 9.874e-7
-1.063, 9.854e-7
-1.064, 1.008e-6
-1.065, 1.021e-6
-1.066, 1.001e-6
-1.067, 1.018e-6
-1.068, 1.011e-6
-1.069, 1.023e-6
-1.070, 1.029e-6
-1.071, 1.031e-6
-1.072, 1.056e-6
-1.073, 1.043e-6
-1.074, 1.051e-6
-1.075, 1.060e-6
-1.076, 1.087e-6
-1.077, 1.097e-6
-1.078, 1.102e-6
-1.079, 1.089e-6
-1.080, 1.084e-6
-1.081, 1.099e-6
-1.082, 1.123e-6
-1.083, 1.107e-6
-1.084, 1.103e-6
-1.085, 1.109e-6
-1.086, 1.136e-6
-1.087, 1.145e-6
-1.088, 1.138e-6
-1.089, 1.128e-6
-1.090, 1.153e-6
-1.091, 1.173e-6
-1.092, 1.175e-6
-1.093, 1.180e-6
-1.094, 1.178e-6
-1.095, 1.194e-6
-1.096, 1.177e-6
-1.097, 1.207e-6
-1.098, 1.200e-6
-1.099, 1.206e-6
-1.100, 1.207e-6
-1.101, 1.209e-6
-1.102, 1.228e-6
-1.103, 1.224e-6
-1.104, 1.206e-6
-1.105, 1.237e-6
-1.106, 1.241e-6
-1.107, 1.252e-6
-1.108, 1.252e-6
-1.109, 1.233e-6
-1.110, 1.231e-6
-1.111, 1.240e-6
-1.112, 1.256e-6
-1.113, 1.237e-6
-1.114, 1.243e-6
-1.115, 1.271e-6
-1.116, 1.266e-6
-1.117, 1.276e-6
-1.118, 1.267e-6
-1.119, 1.286e-6
-1.120, 1.276e-6
-1.121, 1.291e-6
-1.122, 1.327e-6
-1.123, 1.304e-6
-1.124, 1.292e-6
-1.125, 1.293e-6
-1.126, 1.303e-6
-1.127, 1.329e-6
-1.128, 1.307e-6
-1.129, 1.312e-6
-1.130, 1.347e-6
-1.131, 1.338e-6
-1.132, 1.368e-6
-1.133, 1.369e-6
-1.134, 1.367e-6
-1.135, 1.353e-6
-1.136, 1.365e-6
-1.137, 1.369e-6
-1.138, 1.370e-6
-1.139, 1.385e-6
-1.140, 1.403e-6
-1.141, 1.425e-6
-1.142, 1.415e-6
-1.143, 1.397e-6
-1.144, 1.407e-6
-1.145, 1.418e-6
-1.146, 1.428e-6
-1.147, 1.449e-6
-1.148, 1.427e-6
-1.149, 1.432e-6
-1.150, 1.445e-6
-1.151, 1.436e-6
-1.152, 1.459e-6
-1.153, 1.449e-6
-1.154, 1.444e-6
-1.155, 1.439e-6
-1.156, 1.437e-6
-1.157, 1.471e-6
-1.158, 1.460e-6
-1.159, 1.466e-6
-1.160, 1.452e-6
-1.161, 1.475e-6
-1.162, 1.496e-6
-1.163, 1.477e-6
-1.164, 1.477e-6
-1.165, 1.480e-6
-1.166, 1.500e-6
-1.167, 1.519e-6
-1.168, 1.517e-6
-1.169, 1.508e-6
-1.170, 1.510e-6
-1.171, 1.526e-6
-1.172, 1.533e-6
-1.173, 1.526e-6
-1.174, 1.518e-6
-1.175, 1.532e-6
-1.176, 1.535e-6
-1.177, 1.560e-6
-1.178, 1.556e-6
-1.179, 1.547e-6
-1.180, 1.550e-6
-1.181, 1.538e-6
-1.182, 1.565e-6
-1.183, 1.550e-6
-1.184, 1.563e-6
-1.185, 1.567e-6
-1.186, 1.549e-6
-1.187, 1.597e-6
-1.188, 1.568e-6
-1.189, 1.569e-6
-1.190, 1.577e-6
-1.191, 1.581e-6
-1.192, 1.599e-6
-1.193, 1.604e-6
-1.194, 1.589e-6
-1.195, 1.609e-6
-1.196, 1.596e-6
-1.197, 1.607e-6
-1.198, 1.608e-6
-1.199, 1.591e-6
-1.200, 1.618e-6
-1.201, 1.606e-6
-1.202, 1.624e-6
-1.203, 1.636e-6
-1.204, 1.612e-6
-1.205, 1.623e-6
-1.206, 1.625e-6
-1.207, 1.643e-6
-1.208, 1.627e-6
-1.209, 1.642e-6
-1.210, 1.633e-6
-1.211, 1.654e-6
-1.212, 1.675e-6
-1.213, 1.684e-6
-1.214, 1.684e-6
-1.215, 1.676e-6
-1.216, 1.667e-6
-1.217, 1.700e-6
-1.218, 1.686e-6
-1.219, 1.672e-6
-1.220, 1.682e-6
-1.221, 1.681e-6
-1.222, 1.697e-6
-1.223, 1.705e-6
-1.224, 1.687e-6
-1.225, 1.704e-6
-1.226, 1.693e-6
-1.227, 1.715e-6
-1.228, 1.715e-6
-1.229, 1.744e-6
-1.230, 1.729e-6
-1.231, 1.745e-6
-1.232, 1.752e-6
-1.233, 1.741e-6
-1.234, 1.750e-6
-1.235, 1.733e-6
-1.236, 1.749e-6
-1.237, 1.788e-6
-1.238, 1.788e-6
-1.239, 1.779e-6
-1.240, 1.788e-6
-1.241, 1.792e-6
-1.242, 1.801e-6
-1.243, 1.818e-6
-1.244, 1.796e-6
-1.245, 1.798e-6
-1.246, 1.803e-6
-1.247, 1.810e-6
-1.248, 1.836e-6
-1.249, 1.823e-6
-1.250, 1.819e-6
-1.251, 1.810e-6
-1.252, 1.841e-6
-1.253, 1.838e-6
-1.254, 1.825e-6
-1.255, 1.859e-6
-1.256, 1.847e-6
-1.257, 1.861e-6
-1.258, 1.857e-6
-1.259, 1.825e-6
-1.260, 1.841e-6
-1.261, 1.850e-6
-1.262, 1.865e-6
-1.263, 1.889e-6
-1.264, 1.870e-6
-1.265, 1.909e-6
-1.266, 1.881e-6
-1.267, 1.899e-6
-1.268, 1.927e-6
-1.269, 1.906e-6
-1.270, 1.916e-6
-1.271, 1.890e-6
-1.272, 1.925e-6
-1.273, 1.929e-6
-1.274, 1.920e-6
-1.275, 1.949e-6
-1.276, 1.913e-6
-1.277, 1.936e-6
-1.278, 1.945e-6
-1.279, 1.925e-6
-1.280, 1.937e-6
-1.281, 1.953e-6
-1.282, 1.959e-6
-1.283, 1.975e-6
-1.284, 1.964e-6
-1.285, 1.950e-6
-1.286, 1.973e-6
-1.287, 1.972e-6
-1.288, 1.984e-6
-1.289, 1.963e-6
-1.290, 1.986e-6
-1.291, 1.971e-6
-1.292, 1.988e-6
-1.293, 1.990e-6
-1.294, 1.994e-6
-1.295, 1.983e-6
-1.296, 2.004e-6
-1.297, 2.003e-6
-1.298, 2.017e-6
-1.299, 1.992e-6
-1.300, 2.011e-6
-1.301, 2.011e-6
-1.302, 2.033e-6
-1.303, 2.027e-6
-1.304, 2.016e-6
-1.305, 2.035e-6
-1.306, 2.045e-6
-1.307, 2.054e-6
-1.308, 2.071e-6
-1.309, 2.061e-6
-1.310, 2.055e-6
-1.311, 2.053e-6
-1.312, 2.067e-6
-1.313, 2.056e-6
-1.314, 2.057e-6
-1.315, 2.074e-6
-1.316, 2.068e-6
-1.317, 2.080e-6
-1.318, 2.078e-6
-1.319, 2.082e-6
-1.320, 2.094e-6
-1.321, 2.081e-6
-1.322, 2.115e-6
-1.323, 2.082e-6
-1.324, 2.089e-6
-1.325, 2.119e-6
-1.326, 2.112e-6
-1.327, 2.110e-6
-1.328, 2.125e-6
-1.329, 2.123e-6
-1.330, 2.132e-6
-1.331, 2.121e-6
-1.332, 2.126e-6
-1.333, 2.149e-6
-1.334, 2.141e-6
-1.335, 2.164e-6
-1.336, 2.169e-6
-1.337, 2.171e-6
-1.338, 2.199e-6
-1.339, 2.194e-6
-1.340, 2.173e-6
-1.341, 2.194e-6
-1.342, 2.198e-6
-1.343, 2.195e-6
-1.344, 2.198e-6
-1.345, 2.199e-6
-1.346, 2.203e-6
-1.347, 2.223e-6
-1.348, 2.225e-6
-1.349, 2.211e-6
-1.350, 2.216e-6
-1.351, 2.214e-6
-1.352, 2.224e-6
-1.353, 2.246e-6
-1.354, 2.222e-6
-1.355, 2.244e-6
-1.356, 2.234e-6
-1.357, 2.261e-6
-1.358, 2.260e-6
-1.359, 2.268e-6
-1.360, 2.256e-6
-1.361, 2.260e-6
-1.362, 2.264e-6
-1.363, 2.285e-6
-1.364, 2.289e-6
-1.365, 2.286e-6
-1.366, 2.307e-6
-1.367, 2.296e-6
-1.368, 2.308e-6
-1.369, 2.304e-6
-1.370, 2.307e-6
-1.371, 2.326e-6
-1.372, 2.336e-6
-1.373, 2.351e-6
-1.374, 2.359e-6
-1.375, 2.318e-6
-1.376, 2.346e-6
-1.377, 2.354e-6
-1.378, 2.366e-6
-1.379, 2.351e-6
-1.380, 2.375e-6
-1.381, 2.377e-6
-1.382, 2.375e-6
-1.383, 2.401e-6
-1.384, 2.405e-6
-1.385, 2.402e-6
-1.386, 2.410e-6
-1.387, 2.427e-6
-1.388, 2.428e-6
-1.389, 2.433e-6
-1.390, 2.420e-6
-1.391, 2.448e-6
-1.392, 2.453e-6
-1.393, 2.467e-6
-1.394, 2.462e-6
-1.395, 2.477e-6
-1.396, 2.484e-6
-1.397, 2.483e-6
-1.398, 2.492e-6
-1.399, 2.501e-6
-1.400, 2.504e-6
-1.401, 2.506e-6
-1.402, 2.511e-6
-1.403, 2.525e-6
-1.404, 2.532e-6
-1.405, 2.532e-6
-1.406, 2.572e-6
-1.407, 2.548e-6
-1.408, 2.570e-6
-1.409, 2.586e-6
-1.410, 2.572e-6
-1.411, 2.583e-6
-1.412, 2.610e-6
-1.413, 2.626e-6
-1.414, 2.617e-6
-1.415, 2.620e-6
-1.416, 2.613e-6
-1.417, 2.636e-6
-1.418, 2.634e-6
-1.419, 2.650e-6
-1.420, 2.634e-6
-1.421, 2.665e-6
-1.422, 2.681e-6
-1.423, 2.696e-6
-1.424, 2.698e-6
-1.425, 2.692e-6
-1.426, 2.688e-6
-1.427, 2.696e-6
-1.428, 2.738e-6
-1.429, 2.719e-6
-1.430, 2.730e-6
-1.431, 2.751e-6
-1.432, 2.737e-6
-1.433, 2.755e-6
-1.434, 2.801e-6
-1.435, 2.796e-6
-1.436, 2.796e-6
-1.437, 2.801e-6
-1.438, 2.824e-6
-1.439, 2.820e-6
-1.440, 2.827e-6
-1.441, 2.854e-6
-1.442, 2.877e-6
-1.443, 2.882e-6
-1.444, 2.889e-6
-1.445, 2.882e-6
-1.446, 2.905e-6
-1.447, 2.921e-6
-1.448, 2.942e-6
-1.449, 2.934e-6
-1.450, 2.957e-6
-1.451, 2.973e-6
-1.452, 3.009e-6
-1.453, 3.013e-6
-1.454, 3.006e-6
-1.455, 3.029e-6
-1.456, 3.025e-6
-1.457, 3.051e-6
-1.458, 3.064e-6
-1.459, 3.088e-6
-1.460, 3.103e-6
-1.461, 3.101e-6
-1.462, 3.128e-6
-1.463, 3.149e-6
-1.464, 3.156e-6
-1.465, 3.163e-6
-1.466, 3.186e-6
-1.467, 3.215e-6
-1.468, 3.242e-6
-1.469, 3.240e-6
-1.470, 3.252e-6
-1.471, 3.241e-6
-1.472, 3.287e-6
-1.473, 3.332e-6
-1.474, 3.333e-6
-1.475, 3.352e-6
-1.476, 3.359e-6
-1.477, 3.388e-6
-1.478, 3.414e-6
-1.479, 3.429e-6
-1.480, 3.441e-6
-1.481, 3.446e-6
-1.482, 3.483e-6
-1.483, 3.494e-6
-1.484, 3.528e-6
-1.485, 3.555e-6
-1.486, 3.575e-6
-1.487, 3.599e-6
-1.488, 3.629e-6
-1.489, 3.637e-6
-1.490, 3.655e-6
-1.491, 3.697e-6
-1.492, 3.718e-6
-1.493, 3.746e-6
-1.494, 3.776e-6
-1.495, 3.794e-6
-1.496, 3.826e-6
-1.497, 3.849e-6
-1.498, 3.919e-6
-1.499, 3.933e-6
-1.500, 3.954e-6
-1.501, 3.970e-6
-1.502, 4.005e-6
-1.503, 4.068e-6
-1.504, 4.095e-6
-1.505, 4.120e-6
-1.506, 4.115e-6
-1.507, 4.190e-6
-1.508, 4.228e-6
-1.509, 4.290e-6
-1.510, 4.289e-6
-1.511, 4.327e-6
-1.512, 4.385e-6
-1.513, 4.458e-6
-1.514, 4.469e-6
-1.515, 4.502e-6
-1.516, 4.555e-6
-1.517, 4.609e-6
-1.518, 4.676e-6
-1.519, 4.717e-6
-1.520, 4.730e-6
-1.521, 4.779e-6
-1.522, 4.846e-6
-1.523, 4.902e-6
-1.524, 4.981e-6
-1.525, 5.006e-6
-1.526, 5.088e-6
-1.527, 5.157e-6
-1.528, 5.238e-6
-1.529, 5.273e-6
-1.530, 5.309e-6
-1.531, 5.384e-6
-1.532, 5.450e-6
-1.533, 5.529e-6
-1.534, 5.571e-6
-1.535, 5.636e-6
-1.536, 5.714e-6
-1.537, 5.808e-6
-1.538, 5.892e-6
-1.539, 5.968e-6
-1.540, 6.028e-6
-1.541, 6.097e-6
-1.542, 6.192e-6
-1.543, 6.296e-6
-1.544, 6.357e-6
-1.545, 6.439e-6
-1.546, 6.528e-6
-1.547, 6.626e-6
-1.548, 6.739e-6
-1.549, 6.835e-6
-1.550, 6.928e-6
-1.551, 7.032e-6
-1.552, 7.144e-6
-1.553, 7.249e-6
-1.554, 7.353e-6
-1.555, 7.442e-6
-1.556, 7.580e-6
-1.557, 7.707e-6
-1.558, 7.833e-6
-1.559, 7.971e-6
-1.560, 8.079e-6
-1.561, 8.217e-6
-1.562, 8.335e-6
-1.563, 8.514e-6
-1.564, 8.668e-6
-1.565, 8.790e-6
-1.566, 8.936e-6
-1.567, 9.109e-6
-1.568, 9.293e-6
-1.569, 9.444e-6
-1.570, 9.581e-6
-1.571, 9.754e-6
-1.572, 9.952e-6
-1.573, 1.014e-5
-1.574, 1.032e-5
-1.575, 1.053e-5
-1.576, 1.070e-5
-1.577, 1.090e-5
-1.578, 1.113e-5
-1.579, 1.132e-5
-1.580, 1.155e-5
-1.581, 1.176e-5
-1.582, 1.202e-5
-1.583, 1.227e-5
-1.584, 1.247e-5
-1.585, 1.276e-5
-1.586, 1.298e-5
-1.587, 1.328e-5
-1.588, 1.356e-5
-1.589, 1.382e-5
-1.590, 1.410e-5
-1.591, 1.441e-5
-1.592, 1.470e-5
-1.593, 1.502e-5
-1.594, 1.534e-5
-1.595, 1.565e-5
-1.596, 1.597e-5
-1.597, 1.633e-5
-1.598, 1.669e-5
-1.599, 1.704e-5
-1.600, 1.741e-5
-1.601, 1.780e-5
-1.602, 1.820e-5
-1.603, 1.861e-5
-1.604, 1.901e-5
-1.605, 1.943e-5
-1.606, 1.988e-5
-1.607, 2.033e-5
-1.608, 2.081e-5
-1.609, 2.129e-5
-1.610, 2.178e-5
-1.611, 2.225e-5
-1.612, 2.280e-5
-1.613, 2.335e-5
-1.614, 2.389e-5
-1.615, 2.442e-5
-1.616, 2.499e-5
-1.617, 2.559e-5
-1.618, 2.620e-5
-1.619, 2.682e-5
-1.620, 2.745e-5
-1.621, 2.810e-5
-1.622, 2.876e-5
-1.623, 2.946e-5
-1.624, 3.017e-5
-1.625, 3.088e-5
-1.626, 3.163e-5
-1.627, 3.241e-5
-1.628, 3.322e-5
-1.629, 3.401e-5
-1.630, 3.483e-5
-1.631, 3.569e-5
-1.632, 3.656e-5
-1.633, 3.750e-5
-1.634, 3.843e-5
-1.635, 3.936e-5
-1.636, 4.032e-5
-1.637, 4.129e-5
-1.638, 4.235e-5
-1.639, 4.341e-5
-1.640, 4.450e-5
-1.641, 4.559e-5
-1.642, 4.670e-5
-1.643, 4.789e-5
-1.644, 4.905e-5
-1.645, 5.026e-5
-1.646, 5.151e-5
-1.647, 5.280e-5
-1.648, 5.413e-5
-1.649, 5.548e-5
-1.650, 5.685e-5
-1.651, 5.827e-5
-1.652, 5.971e-5
-1.653, 6.120e-5
-1.654, 6.271e-5
-1.655, 6.429e-5
-1.656, 6.588e-5
-1.657, 6.751e-5
-1.658, 6.920e-5
-1.659, 7.089e-5
-1.660, 7.265e-5
-1.661, 7.444e-5
-1.662, 7.629e-5
-1.663, 7.822e-5
-1.664, 8.014e-5
-1.665, 8.212e-5
-1.666, 8.413e-5
-1.667, 8.621e-5
-1.668, 8.836e-5
-1.669, 9.051e-5
-1.670, 9.272e-5
-1.671, 9.494e-5
-1.672, 9.726e-5
-1.673, 9.965e-5
-1.674, 1.020e-4
-1.675, 1.045e-4
-1.676, 1.070e-4
-1.677, 1.096e-4
-1.678, 1.122e-4
-1.679, 1.149e-4
-1.680, 1.176e-4
-1.681, 1.204e-4
-1.682, 1.232e-4
-1.683, 1.261e-4
-1.684, 1.291e-4
-1.685, 1.322e-4
-1.686, 1.353e-4
-1.687, 1.385e-4
-1.688, 1.417e-4
-1.689, 1.450e-4
-1.690, 1.484e-4
-1.691, 1.519e-4
-1.692, 1.555e-4
-1.693, 1.591e-4
-1.694, 1.629e-4
-1.695, 1.667e-4
-1.696, 1.706e-4
-1.697, 1.745e-4
-1.698, 1.785e-4
-1.699, 1.826e-4
-1.700, 1.868e-4
-1.701, 1.910e-4
-1.702, 1.954e-4
-1.703, 1.999e-4
-1.704, 2.044e-4
-1.705, 2.090e-4
-1.706, 2.137e-4
-1.707, 2.185e-4
-1.708, 2.234e-4
-1.709, 2.284e-4
-1.710, 2.335e-4
-1.711, 2.387e-4
-1.712, 2.440e-4
-1.713, 2.495e-4
-1.714, 2.550e-4
-1.715, 2.606e-4
-1.716, 2.664e-4
-1.717, 2.723e-4
-1.718, 2.782e-4
-1.719, 2.844e-4
-1.720, 2.905e-4
-1.721, 2.969e-4
-1.722, 3.032e-4
-1.723, 3.098e-4
-1.724, 3.166e-4
-1.725, 3.234e-4
-1.726, 3.304e-4
-1.727, 3.375e-4
-1.728, 3.448e-4
-1.729, 3.523e-4
-1.730, 3.598e-4
-1.731, 3.675e-4
-1.732, 3.753e-4
-1.733, 3.834e-4
-1.734, 3.917e-4
-1.735, 4.001e-4
-1.736, 4.086e-4
-1.737, 4.173e-4
-1.738, 4.262e-4
-1.739, 4.351e-4
-1.740, 4.442e-4
-1.741, 4.535e-4
-1.742, 4.631e-4
-1.743, 4.728e-4
-1.744, 4.828e-4
-1.745, 4.930e-4
-1.746, 5.030e-4
-1.747, 5.133e-4
-1.748, 5.239e-4
-1.749, 5.349e-4
-1.750, 5.460e-4
-1.751, 5.574e-4
-1.752, 5.689e-4
-1.753, 5.806e-4
-1.754, 5.927e-4
-1.755, 6.047e-4
-1.756, 6.170e-4
-1.757, 6.296e-4
-1.758, 6.427e-4
-1.759, 6.562e-4
-1.760, 6.697e-4
-1.761, 6.831e-4
-1.762, 6.969e-4
-1.763, 7.110e-4
-1.764, 7.255e-4
-1.765, 7.402e-4
-1.766, 7.550e-4
-1.767, 7.701e-4
-1.768, 7.857e-4
-1.769, 8.015e-4
-1.770, 8.178e-4
-1.771, 8.341e-4
-1.772, 8.508e-4
-1.773, 8.678e-4
-1.774, 8.853e-4
-1.775, 9.029e-4
-1.776, 9.204e-4
-1.777, 9.384e-4
-1.778, 9.569e-4
-1.779, 9.758e-4
-1.780, 9.956e-4
-1.781, 1.015e-3
-1.782, 1.035e-3
-1.783, 1.055e-3
-1.784, 1.075e-3
-1.785, 1.097e-3
-1.786, 1.117e-3
-1.787, 1.139e-3
-1.788, 1.162e-3
-1.789, 1.185e-3
-1.790, 1.209e-3
-1.791, 1.232e-3
-1.792, 1.255e-3
-1.793, 1.279e-3
-1.794, 1.304e-3
-1.795, 1.328e-3
-1.796, 1.354e-3
-1.797, 1.379e-3
-1.798, 1.405e-3
-1.799, 1.433e-3
-1.800, 1.444e-3
-1.799, 1.433e-3
-1.798, 1.419e-3
-1.797, 1.405e-3
-1.796, 1.392e-3
-1.795, 1.378e-3
-1.794, 1.364e-3
-1.793, 1.349e-3
-1.792, 1.335e-3
-1.791, 1.322e-3
-1.790, 1.306e-3
-1.789, 1.291e-3
-1.788, 1.276e-3
-1.787, 1.261e-3
-1.786, 1.246e-3
-1.785, 1.231e-3
-1.784, 1.216e-3
-1.783, 1.201e-3
-1.782, 1.186e-3
-1.781, 1.172e-3
-1.780, 1.157e-3
-1.779, 1.143e-3
-1.778, 1.128e-3
-1.777, 1.114e-3
-1.776, 1.101e-3
-1.775, 1.087e-3
-1.774, 1.073e-3
-1.773, 1.059e-3
-1.772, 1.045e-3
-1.771, 1.031e-3
-1.770, 1.017e-3
-1.769, 1.004e-3
-1.768, 9.904e-4
-1.767, 9.771e-4
-1.766, 9.643e-4
-1.765, 9.511e-4
-1.764, 9.379e-4
-1.763, 9.249e-4
-1.762, 9.128e-4
-1.761, 9.006e-4
-1.760, 8.875e-4
-1.759, 8.745e-4
-1.758, 8.624e-4
-1.757, 8.504e-4
-1.756, 8.389e-4
-1.755, 8.272e-4
-1.754, 8.157e-4
-1.753, 8.040e-4
-1.752, 7.925e-4
-1.751, 7.814e-4
-1.750, 7.701e-4
-1.749, 7.591e-4
-1.748, 7.484e-4
-1.747, 7.377e-4
-1.746, 7.274e-4
-1.745, 7.168e-4
-1.744, 7.062e-4
-1.743, 6.962e-4
-1.742, 6.861e-4
-1.741, 6.761e-4
-1.740, 6.663e-4
-1.739, 6.565e-4
-1.738, 6.468e-4
-1.737, 6.372e-4
-1.736, 6.280e-4
-1.735, 6.188e-4
-1.734, 6.095e-4
-1.733, 6.003e-4
-1.732, 5.914e-4
-1.731, 5.827e-4
-1.730, 5.740e-4
-1.729, 5.652e-4
-1.728, 5.567e-4
-1.727, 5.484e-4
-1.726, 5.401e-4
-1.725, 5.321e-4
-1.724, 5.240e-4
-1.723, 5.159e-4
-1.722, 5.080e-4
-1.721, 5.003e-4
-1.720, 4.926e-4
-1.719, 4.850e-4
-1.718, 4.774e-4
-1.717, 4.701e-4
-1.716, 4.628e-4
-1.715, 4.556e-4
-1.714, 4.485e-4
-1.713, 4.416e-4
-1.712, 4.347e-4
-1.711, 4.280e-4
-1.710, 4.212e-4
-1.709, 4.145e-4
-1.708, 4.079e-4
-1.707, 4.014e-4
-1.706, 3.950e-4
-1.705, 3.887e-4
-1.704, 3.825e-4
-1.703, 3.764e-4
-1.702, 3.704e-4
-1.701, 3.645e-4
-1.700, 3.587e-4
-1.699, 3.529e-4
-1.698, 3.471e-4
-1.697, 3.416e-4
-1.696, 3.361e-4
-1.695, 3.306e-4
-1.694, 3.251e-4
-1.693, 3.198e-4
-1.692, 3.145e-4
-1.691, 3.093e-4
-1.690, 3.042e-4
-1.689, 2.991e-4
-1.688, 2.942e-4
-1.687, 2.894e-4
-1.686, 2.845e-4
-1.685, 2.797e-4
-1.684, 2.750e-4
-1.683, 2.703e-4
-1.682, 2.658e-4
-1.681, 2.614e-4
-1.680, 2.570e-4
-1.679, 2.527e-4
-1.678, 2.484e-4
-1.677, 2.441e-4
-1.676, 2.400e-4
-1.675, 2.358e-4
-1.674, 2.318e-4
-1.673, 2.277e-4
-1.672, 2.238e-4
-1.671, 2.199e-4
-1.670, 2.161e-4
-1.669, 2.123e-4
-1.668, 2.086e-4
-1.667, 2.050e-4
-1.666, 2.014e-4
-1.665, 1.979e-4
-1.664, 1.944e-4
-1.663, 1.909e-4
-1.662, 1.874e-4
-1.661, 1.840e-4
-1.660, 1.807e-4
-1.659, 1.775e-4
-1.658, 1.742e-4
-1.657, 1.711e-4
-1.656, 1.680e-4
-1.655, 1.649e-4
-1.654, 1.619e-4
-1.653, 1.589e-4
-1.652, 1.559e-4
-1.651, 1.530e-4
-1.650, 1.502e-4
-1.649, 1.473e-4
-1.648, 1.446e-4
-1.647, 1.419e-4
-1.646, 1.393e-4
-1.645, 1.366e-4
-1.644, 1.340e-4
-1.643, 1.315e-4
-1.642, 1.290e-4
-1.641, 1.265e-4
-1.640, 1.241e-4
-1.639, 1.217e-4
-1.638, 1.193e-4
-1.637, 1.171e-4
-1.636, 1.149e-4
-1.635, 1.126e-4
-1.634, 1.104e-4
-1.633, 1.082e-4
-1.632, 1.061e-4
-1.631, 1.040e-4
-1.630, 1.020e-4
-1.629, 9.998e-5
-1.628, 9.799e-5
-1.627, 9.606e-5
-1.626, 9.419e-5
-1.625, 9.227e-5
-1.624, 9.042e-5
-1.623, 8.857e-5
-1.622, 8.677e-5
-1.621, 8.502e-5
-1.620, 8.328e-5
-1.619, 8.157e-5
-1.618, 7.990e-5
-1.617, 7.827e-5
-1.616, 7.666e-5
-1.615, 7.510e-5
-1.614, 7.354e-5
-1.613, 7.198e-5
-1.612, 7.048e-5
-1.611, 6.905e-5
-1.610, 6.759e-5
-1.609, 6.616e-5
-1.608, 6.476e-5
-1.607, 6.341e-5
-1.606, 6.209e-5
-1.605, 6.078e-5
-1.604, 5.949e-5
-1.603, 5.823e-5
-1.602, 5.704e-5
-1.601, 5.579e-5
-1.600, 5.461e-5
-1.599, 5.341e-5
-1.598, 5.227e-5
-1.597, 5.118e-5
-1.596, 5.008e-5
-1.595, 4.900e-5
-1.594, 4.794e-5
-1.593, 4.688e-5
-1.592, 4.588e-5
-1.591, 4.486e-5
-1.590, 4.389e-5
-1.589, 4.294e-5
-1.588, 4.199e-5
-1.587, 4.109e-5
-1.586, 4.018e-5
-1.585, 3.932e-5
-1.584, 3.844e-5
-1.583, 3.758e-5
-1.582, 3.677e-5
-1.581, 3.599e-5
-1.580, 3.515e-5
-1.579, 3.438e-5
-1.578, 3.361e-5
-1.577, 3.286e-5
-1.576, 3.217e-5
-1.575, 3.143e-5
-1.574, 3.072e-5
-1.573, 3.004e-5
-1.572, 2.938e-5
-1.571, 2.875e-5
-1.570, 2.810e-5
-1.569, 2.746e-5
-1.568, 2.682e-5
-1.567, 2.626e-5
-1.566, 2.570e-5
-1.565, 2.511e-5
-1.564, 2.453e-5
-1.563, 2.398e-5
-1.562, 2.345e-5
-1.561, 2.295e-5
-1.560, 2.241e-5
-1.559, 2.191e-5
-1.558, 2.141e-5
-1.557, 2.098e-5
-1.556, 2.051e-5
-1.555, 2.002e-5
-1.554, 1.957e-5
-1.553, 1.913e-5
-1.552, 1.871e-5
-1.551, 1.829e-5
-1.550, 1.787e-5
-1.549, 1.746e-5
-1.548, 1.707e-5
-1.547, 1.671e-5
-1.546, 1.636e-5
-1.545, 1.597e-5
-1.544, 1.562e-5
-1.543, 1.524e-5
-1.542, 1.492e-5
-1.541, 1.458e-5
-1.540, 1.428e-5
-1.539, 1.393e-5
-1.538, 1.360e-5
-1.537, 1.332e-5
-1.536, 1.302e-5
-1.535, 1.273e-5
-1.534, 1.246e-5
-1.533, 1.216e-5
-1.532, 1.189e-5
-1.531, 1.166e-5
-1.530, 1.139e-5
-1.529, 1.113e-5
-1.528, 1.088e-5
-1.527, 1.067e-5
-1.526, 1.043e-5
-1.525, 1.022e-5
-1.524, 9.982e-6
-1.523, 9.752e-6
-1.522, 9.556e-6
-1.521, 9.365e-6
-1.520, 9.133e-6
-1.519, 8.942e-6
-1.518, 8.741e-6
-1.517, 8.554e-6
-1.516, 8.401e-6
-1.515, 8.193e-6
-1.514, 8.036e-6
-1.513, 7.838e-6
-1.512, 7.694e-6
-1.511, 7.558e-6
-1.510, 7.391e-6
-1.509, 7.213e-6
-1.508, 7.048e-6
-1.507, 6.928e-6
-1.506, 6.801e-6
-1.505, 6.640e-6
-1.504, 6.483e-6
-1.503, 6.353e-6
-1.502, 6.243e-6
-1.501, 6.130e-6
-1.500, 5.995e-6
-1.499, 5.883e-6
-1.498, 5.731e-6
-1.497, 5.637e-6
-1.496, 5.529e-6
-1.495, 5.418e-6
-1.494, 5.291e-6
-1.493, 5.174e-6
-1.492, 5.107e-6
-1.491, 5.022e-6
-1.490, 4.906e-6
-1.489, 4.788e-6
-1.488, 4.696e-6
-1.487, 4.610e-6
-1.486, 4.505e-6
-1.485, 4.418e-6
-1.484, 4.314e-6
-1.483, 4.264e-6
-1.482, 4.189e-6
-1.481, 4.111e-6
-1.480, 4.017e-6
-1.479, 3.931e-6
-1.478, 3.852e-6
-1.477, 3.794e-6
-1.476, 3.735e-6
-1.475, 3.647e-6
-1.474, 3.587e-6
-1.473, 3.501e-6
-1.472, 3.449e-6
-1.471, 3.379e-6
-1.470, 3.323e-6
-1.469, 3.257e-6
-1.468, 3.184e-6
-1.467, 3.138e-6
-1.466, 3.096e-6
-1.465, 3.021e-6
-1.464, 2.965e-6
-1.463, 2.905e-6
-1.462, 2.888e-6
-1.461, 2.838e-6
-1.460, 2.763e-6
-1.459, 2.717e-6
-1.458, 2.657e-6
-1.457, 2.626e-6
-1.456, 2.588e-6
-1.455, 2.550e-6
-1.454, 2.491e-6
-1.453, 2.438e-6
-1.452, 2.412e-6
-1.451, 2.392e-6
-1.450, 2.351e-6
-1.449, 2.280e-6
-1.448, 2.248e-6
-1.447, 2.198e-6
-1.446, 2.181e-6
-1.445, 2.130e-6
-1.444, 2.083e-6
-1.443, 2.053e-6
-1.442, 2.030e-6
-1.441, 2.008e-6
-1.440, 1.958e-6
-1.439, 1.901e-6
-1.438, 1.875e-6
-1.437, 1.867e-6
-1.436, 1.841e-6
-1.435, 1.800e-6
-1.434, 1.755e-6
-1.433, 1.734e-6
-1.432, 1.723e-6
-1.431, 1.699e-6
-1.430, 1.670e-6
-1.429, 1.644e-6
-1.428, 1.603e-6
-1.427, 1.574e-6
-1.426, 1.570e-6
-1.425, 1.533e-6
-1.424, 1.506e-6
-1.423, 1.500e-6
-1.422, 1.474e-6
-1.421, 1.455e-6
-1.420, 1.415e-6
-1.419, 1.387e-6
-1.418, 1.365e-6
-1.417, 1.365e-6
-1.416, 1.354e-6
-1.415, 1.329e-6
-1.414, 1.298e-6
-1.413, 1.272e-6
-1.412, 1.272e-6
-1.411, 1.282e-6
-1.410, 1.230e-6
-1.409, 1.218e-6
-1.408, 1.183e-6
-1.407, 1.191e-6
-1.406, 1.160e-6
-1.405, 1.128e-6
-1.404, 1.112e-6
-1.403, 1.103e-6
-1.402, 1.099e-6
-1.401, 1.089e-6
-1.400, 1.064e-6
-1.399, 1.049e-6
-1.398, 1.029e-6
-1.397, 1.015e-6
-1.396, 1.023e-6
-1.395, 1.015e-6
-1.394, 9.963e-7
-1.393, 1.001e-6
-1.392, 9.795e-7
-1.391, 9.617e-7
-1.390, 9.657e-7
-1.389, 9.351e-7
-1.388, 9.242e-7
-1.387, 8.966e-7
-1.386, 9.144e-7
-1.385, 9.183e-7
-1.384, 8.759e-7
-1.383, 8.769e-7
-1.382, 8.552e-7
-1.381, 8.493e-7
-1.380, 8.404e-7
-1.379, 8.187e-7
-1.378, 8.226e-7
-1.377, 8.128e-7
-1.376, 8.315e-7
-1.375, 8.177e-7
-1.374, 7.723e-7
-1.373, 7.743e-7
-1.372, 7.713e-7
-1.371, 7.920e-7
-1.370, 7.763e-7
-1.369, 7.575e-7
-1.368, 7.467e-7
-1.367, 7.407e-7
-1.366, 7.496e-7
-1.365, 7.526e-7
-1.364, 7.151e-7
-1.363, 7.052e-7
-1.362, 7.250e-7
-1.361, 7.190e-7
-1.360, 6.973e-7
-1.359, 6.924e-7
-1.358, 6.904e-7
-1.357, 6.638e-7
-1.356, 6.707e-7
-1.355, 6.608e-7
-1.354, 6.450e-7
-1.353, 6.352e-7
-1.352, 6.431e-7
-1.351, 6.460e-7
-1.350, 6.312e-7
-1.349, 6.401e-7
-1.348, 6.233e-7
-1.347, 6.302e-7
-1.346, 6.431e-7
-1.345, 6.223e-7
-1.344, 6.075e-7
-1.343, 6.046e-7
-1.342, 6.095e-7
-1.341, 6.283e-7
-1.340, 5.927e-7
-1.339, 6.085e-7
-1.338, 5.927e-7
-1.337, 5.898e-7
-1.336, 5.937e-7
-1.335, 5.987e-7
-1.334, 5.789e-7
-1.333, 5.671e-7
-1.332, 5.849e-7
-1.331, 5.770e-7
-1.330, 5.661e-7
-1.329, 5.572e-7
-1.328, 5.483e-7
-1.327, 5.493e-7
-1.326, 5.562e-7
-1.325, 5.375e-7
-1.324, 5.197e-7
-1.323, 5.503e-7
-1.322, 5.247e-7
-1.321, 5.286e-7
-1.320, 5.247e-7
-1.319, 5.069e-7
-1.318, 5.138e-7
-1.317, 4.931e-7
-1.316, 5.276e-7
-1.315, 5.020e-7
-1.314, 4.911e-7
-1.313, 4.753e-7
-1.312, 4.872e-7
-1.311, 4.882e-7
-1.310, 4.872e-7
-1.309, 4.684e-7
-1.308, 4.704e-7
-1.307, 4.813e-7
-1.306, 4.714e-7
-1.305, 4.704e-7
-1.304, 4.576e-7
-1.303, 4.517e-7
-1.302, 4.497e-7
-1.301, 4.822e-7
-1.300, 4.684e-7
-1.299, 4.546e-7
-1.298, 4.428e-7
-1.297, 4.556e-7
-1.296, 4.586e-7
-1.295, 4.536e-7
-1.294, 4.684e-7
-1.293, 4.309e-7
-1.292, 4.369e-7
-1.291, 4.517e-7
-1.290, 4.349e-7
-1.289, 4.359e-7
-1.288, 4.171e-7
-1.287, 4.260e-7
-1.286, 4.309e-7
-1.285, 4.181e-7
-1.284, 4.033e-7
-1.283, 3.905e-7
-1.282, 4.112e-7
-1.281, 4.290e-7
-1.280, 4.388e-7
-1.279, 4.428e-7
-1.278, 4.517e-7
-1.277, 4.379e-7
-1.276, 4.349e-7
-1.275, 4.290e-7
-1.274, 4.112e-7
-1.273, 3.964e-7
-1.272, 4.142e-7
-1.271, 4.231e-7
-1.270, 4.191e-7
-1.269, 4.043e-7
-1.268, 4.201e-7
-1.267, 4.023e-7
-1.266, 4.270e-7
-1.265, 4.063e-7
-1.264, 3.974e-7
-1.263, 4.132e-7
-1.262, 3.875e-7
-1.261, 3.984e-7
-1.260, 3.954e-7
-1.259, 3.915e-7
-1.258, 3.885e-7
-1.257, 3.964e-7
-1.256, 4.112e-7
-1.255, 3.777e-7
-1.254, 3.708e-7
-1.253, 3.658e-7
-1.252, 3.806e-7
-1.251, 3.865e-7
-1.250, 3.688e-7
-1.249, 3.826e-7
-1.248, 3.500e-7
-1.247, 3.500e-7
-1.246, 3.678e-7
-1.245, 3.678e-7
-1.244, 3.579e-7
-1.243, 3.579e-7
-1.242, 3.343e-7
-1.241, 3.471e-7
-1.240, 3.441e-7
-1.239, 3.224e-7
-1.238, 3.264e-7
-1.237, 3.313e-7
-1.236, 3.422e-7
-1.235, 3.283e-7
-1.234, 3.293e-7
-1.233, 3.372e-7
-1.232, 3.264e-7
-1.231, 3.392e-7
-1.230, 3.096e-7
-1.229, 3.116e-7
-1.228, 3.037e-7
-1.227, 3.027e-7
-1.226, 2.908e-7
-1.225, 2.859e-7
-1.224, 3.214e-7
-1.223, 2.938e-7
-1.222, 2.790e-7
-1.221, 3.056e-7
-1.220, 2.839e-7
-1.219, 2.859e-7
-1.218, 2.780e-7
-1.217, 2.908e-7
-1.216, 2.987e-7
-1.215, 2.682e-7
-1.214, 2.632e-7
-1.213, 2.790e-7
-1.212, 2.701e-7
-1.211, 2.760e-7
-1.210, 2.839e-7
-1.209, 2.632e-7
-1.208, 2.672e-7
-1.207, 2.652e-7
-1.206, 2.770e-7
-1.205, 2.662e-7
-1.204, 2.770e-7
-1.203, 2.603e-7
-1.202, 2.553e-7
-1.201, 2.691e-7
-1.200, 2.553e-7
-1.199, 2.346e-7
-1.198, 2.317e-7
-1.197, 2.376e-7
-1.196, 2.524e-7
-1.195, 2.484e-7
-1.194, 2.267e-7
-1.193, 2.356e-7
-1.192, 2.435e-7
-1.191, 2.534e-7
-1.190, 2.287e-7
-1.189, 2.208e-7
-1.188, 2.099e-7
-1.187, 2.346e-7
-1.186, 2.395e-7
-1.185, 2.297e-7
-1.184, 2.317e-7
-1.183, 2.159e-7
-1.182, 1.991e-7
-1.181, 2.317e-7
-1.180, 2.238e-7
-1.179, 1.961e-7
-1.178, 1.991e-7
-1.177, 1.991e-7
-1.176, 1.922e-7
-1.175, 2.001e-7
-1.174, 1.784e-7
-1.173, 1.705e-7
-1.172, 1.725e-7
-1.171, 1.725e-7
-1.170, 1.803e-7
-1.169, 1.715e-7
-1.168, 1.873e-7
-1.167, 1.626e-7
-1.166, 1.843e-7
-1.165, 1.705e-7
-1.164, 1.478e-7
-1.163, 1.567e-7
-1.162, 1.488e-7
-1.161, 1.429e-7
-1.160, 1.537e-7
-1.159, 1.389e-7
-1.158, 1.379e-7
-1.157, 1.271e-7
-1.156, 1.567e-7
-1.155, 1.616e-7
-1.154, 1.409e-7
-1.153, 1.537e-7
-1.152, 1.251e-7
-1.151, 1.547e-7
-1.150, 1.399e-7
-1.149, 1.241e-7
-1.148, 1.231e-7
-1.147, 1.281e-7
-1.146, 1.310e-7
-1.145, 1.429e-7
-1.144, 1.300e-7
-1.143, 1.192e-7
-1.142, 1.152e-7
-1.141, 1.172e-7
-1.140, 1.073e-7
-1.139, 7.972e-8
-1.138, 9.254e-8
-1.137, 7.774e-8
-1.136, 9.452e-8
-1.135, 9.156e-8
-1.134, 8.169e-8
-1.133, 8.860e-8
-1.132, 8.465e-8
-1.131, 8.958e-8
-1.130, 9.748e-8
-1.129, 6.196e-8
-1.128, 7.577e-8
-1.127, 6.590e-8
-1.126, 9.254e-8
-1.125, 8.169e-8
-1.124, 6.393e-8
-1.123, 5.111e-8
-1.122, 6.985e-8
-1.121, 7.577e-8
-1.120, 6.097e-8
-1.119, 6.689e-8
-1.118, 6.393e-8
-1.117, 5.998e-8
-1.116, 6.590e-8
-1.115, 5.111e-8
-1.114, 5.308e-8
-1.113, 2.940e-8
-1.112, 3.631e-8
-1.111, 3.927e-8
-1.110, 3.433e-8
-1.109, 1.657e-8
-1.108, 1.066e-8
-1.107, 2.348e-8
-1.106, 3.532e-8
-1.105, 2.644e-8
-1.104, 9.669e-9
-1.103, 2.348e-8
-1.102, 2.762e-9
-1.101, 3.729e-8
-1.100, 2.841e-8
-1.099, -1.973e-10
-1.098, -1.184e-9
-1.097, 1.776e-9
-1.096, 1.164e-8
-1.095, 3.532e-8
-1.094, -7.103e-9
-1.093, 1.263e-8
-1.092, -4.144e-9
-1.091, -4.144e-9
-1.090, -4.144e-9
-1.089, -1.598e-8
-1.088, -2.388e-8
-1.087, -2.585e-8
-1.086, -8.090e-9
-1.085, -1.973e-10
-1.084, -2.486e-8
-1.083, -2.190e-8
-1.082, -3.177e-8
-1.081, -3.177e-8
-1.080, -2.980e-8
-1.079, -7.103e-9
-1.078, -3.374e-8
-1.077, -3.177e-8
-1.076, -2.388e-8
-1.075, -2.782e-8
-1.074, -4.361e-8
-1.073, -6.038e-8
-1.072, -3.275e-8
-1.071, -3.177e-8
-1.070, -2.881e-8
-1.069, -3.374e-8
-1.068, -4.361e-8
-1.067, -5.643e-8
-1.066, -4.854e-8
-1.065, -5.446e-8
-1.064, -5.249e-8
-1.063, -7.025e-8
-1.062, -6.038e-8
-1.061, -7.025e-8
-1.060, -5.545e-8
-1.059, -7.715e-8
-1.058, -1.008e-7
-1.057, -9.392e-8
-1.056, -8.702e-8
-1.055, -5.939e-8
-1.054, -9.096e-8
-1.053, -9.984e-8
-1.052, -8.702e-8
-1.051, -8.504e-8
-1.050, -1.058e-7
-1.049, -1.008e-7
-1.048, -9.688e-8
-1.047, -1.008e-7
-1.046, -9.590e-8
-1.045, -1.117e-7
-1.044, -1.215e-7
-1.043, -1.285e-7
-1.042, -1.245e-7
-1.041, -1.255e-7
-1.040, -1.225e-7
-1.039, -1.324e-7
-1.038, -1.354e-7
-1.037, -1.472e-7
-1.036, -1.383e-7
-1.035, -1.176e-7
-1.034, -1.640e-7
-1.033, -1.472e-7
-1.032, -1.561e-7
-1.031, -1.334e-7
-1.030, -1.363e-7
-1.029, -1.472e-7
-1.028, -1.551e-7
-1.027, -1.640e-7
-1.026, -1.659e-7
-1.025, -1.551e-7
-1.024, -1.758e-7
-1.023, -1.837e-7
-1.022, -1.807e-7
-1.021, -1.689e-7
-1.020, -1.729e-7
-1.019, -1.847e-7
-1.018, -1.886e-7
-1.017, -2.005e-7
-1.016, -1.837e-7
-1.015, -1.847e-7
-1.014, -2.153e-7
-1.013, -2.034e-7
-1.012, -2.182e-7
-1.011, -2.153e-7
-1.010, -2.084e-7
-1.009, -2.143e-7
-1.008, -2.291e-7
-1.007, -2.330e-7
-1.006, -2.281e-7
-1.005, -2.005e-7
-1.004, -2.084e-7
-1.003, -2.232e-7
-1.002, -2.429e-7
-1.001, -2.468e-7
