Aug. 8, 2024   07:32:11
Cyclic Voltammetry
File: c:/users/guazh/data/20240802_batch_500/2024-08-02-exp52\exp52-2024-08-08t07_19_14-arkoh\exp52_cv_sr_900mvs_efin_-1500mv.bin
Data Source:  Experiment
Instrument Model:  CHI760E
Header: CV ran at 900 mVs
Note: 

Init E (V) = -1
High E (V) = -1
Low E (V) = -1.5
Final E (V) = -1
Init P/N = N
Scan Rate (V/s) = 0.9
Segment = 3
Sample Interval (V) = 0.001
Quiet Time (sec) = 2
Sensitivity (A/V) = 0.01
Comp R (ohm) = 2.1

Results:

Channel 1:
Segment 1:

Segment 2:

Segment 3:

Potential/V, Current/A

-1.000, 4.024e-5
-1.001, 1.636e-4
-1.002, 2.561e-4
-1.003, 3.270e-4
-1.004, 3.855e-4
-1.005, 4.287e-4
-1.006, 4.626e-4
-1.007, 4.904e-4
-1.008, 5.120e-4
-1.009, 5.335e-4
-1.010, 5.489e-4
-1.011, 5.644e-4
-1.012, 5.798e-4
-1.013, 5.983e-4
-1.014, 6.106e-4
-1.015, 6.229e-4
-1.016, 6.353e-4
-1.017, 6.445e-4
-1.018, 6.507e-4
-1.019, 6.538e-4
-1.020, 6.599e-4
-1.021, 6.599e-4
-1.022, 6.599e-4
-1.023, 6.630e-4
-1.024, 6.661e-4
-1.025, 6.723e-4
-1.026, 6.723e-4
-1.027, 6.784e-4
-1.028, 6.877e-4
-1.029, 6.939e-4
-1.030, 7.000e-4
-1.031, 7.093e-4
-1.032, 7.124e-4
-1.033, 7.154e-4
-1.034, 7.154e-4
-1.035, 7.154e-4
-1.036, 7.185e-4
-1.037, 7.185e-4
-1.038, 7.154e-4
-1.039, 7.185e-4
-1.040, 7.185e-4
-1.041, 7.185e-4
-1.042, 7.278e-4
-1.043, 7.339e-4
-1.044, 7.401e-4
-1.045, 7.432e-4
-1.046, 7.524e-4
-1.047, 7.555e-4
-1.048, 7.586e-4
-1.049, 7.586e-4
-1.050, 7.586e-4
-1.051, 7.586e-4
-1.052, 7.555e-4
-1.053, 7.555e-4
-1.054, 7.555e-4
-1.055, 7.586e-4
-1.056, 7.555e-4
-1.057, 7.617e-4
-1.058, 7.679e-4
-1.059, 7.740e-4
-1.060, 7.802e-4
-1.061, 7.863e-4
-1.062, 7.894e-4
-1.063, 7.925e-4
-1.064, 7.925e-4
-1.065, 7.894e-4
-1.066, 7.894e-4
-1.067, 7.894e-4
-1.068, 7.863e-4
-1.069, 7.863e-4
-1.070, 7.894e-4
-1.071, 7.863e-4
-1.072, 7.925e-4
-1.073, 7.987e-4
-1.074, 8.018e-4
-1.075, 8.079e-4
-1.076, 8.172e-4
-1.077, 8.172e-4
-1.078, 8.203e-4
-1.079, 8.172e-4
-1.080, 8.172e-4
-1.081, 8.172e-4
-1.082, 8.141e-4
-1.083, 8.110e-4
-1.084, 8.141e-4
-1.085, 8.141e-4
-1.086, 8.110e-4
-1.087, 8.172e-4
-1.088, 8.203e-4
-1.089, 8.264e-4
-1.090, 8.295e-4
-1.091, 8.388e-4
-1.092, 8.388e-4
-1.093, 8.388e-4
-1.094, 8.388e-4
-1.095, 8.388e-4
-1.096, 8.357e-4
-1.097, 8.326e-4
-1.098, 8.295e-4
-1.099, 8.295e-4
-1.100, 8.295e-4
-1.101, 8.295e-4
-1.102, 8.326e-4
-1.103, 8.388e-4
-1.104, 8.418e-4
-1.105, 8.449e-4
-1.106, 8.511e-4
-1.107, 8.511e-4
-1.108, 8.542e-4
-1.109, 8.511e-4
-1.110, 8.511e-4
-1.111, 8.480e-4
-1.112, 8.418e-4
-1.113, 8.388e-4
-1.114, 8.388e-4
-1.115, 8.418e-4
-1.116, 8.388e-4
-1.117, 8.418e-4
-1.118, 8.480e-4
-1.119, 8.511e-4
-1.120, 8.542e-4
-1.121, 8.603e-4
-1.122, 8.573e-4
-1.123, 8.603e-4
-1.124, 8.573e-4
-1.125, 8.542e-4
-1.126, 8.511e-4
-1.127, 8.480e-4
-1.128, 8.449e-4
-1.129, 8.449e-4
-1.130, 8.418e-4
-1.131, 8.418e-4
-1.132, 8.449e-4
-1.133, 8.511e-4
-1.134, 8.511e-4
-1.135, 8.542e-4
-1.136, 8.603e-4
-1.137, 8.603e-4
-1.138, 8.603e-4
-1.139, 8.573e-4
-1.140, 8.542e-4
-1.141, 8.542e-4
-1.142, 8.511e-4
-1.143, 8.418e-4
-1.144, 8.418e-4
-1.145, 8.418e-4
-1.146, 8.388e-4
-1.147, 8.418e-4
-1.148, 8.480e-4
-1.149, 8.480e-4
-1.150, 8.511e-4
-1.151, 8.573e-4
-1.152, 8.573e-4
-1.153, 8.573e-4
-1.154, 8.542e-4
-1.155, 8.480e-4
-1.156, 8.480e-4
-1.157, 8.449e-4
-1.158, 8.388e-4
-1.159, 8.357e-4
-1.160, 8.357e-4
-1.161, 8.357e-4
-1.162, 8.388e-4
-1.163, 8.418e-4
-1.164, 8.449e-4
-1.165, 8.480e-4
-1.166, 8.511e-4
-1.167, 8.511e-4
-1.168, 8.511e-4
-1.169, 8.480e-4
-1.170, 8.449e-4
-1.171, 8.418e-4
-1.172, 8.388e-4
-1.173, 8.326e-4
-1.174, 8.326e-4
-1.175, 8.295e-4
-1.176, 8.264e-4
-1.177, 8.326e-4
-1.178, 8.357e-4
-1.179, 8.388e-4
-1.180, 8.418e-4
-1.181, 8.449e-4
-1.182, 8.449e-4
-1.183, 8.449e-4
-1.184, 8.418e-4
-1.185, 8.388e-4
-1.186, 8.357e-4
-1.187, 8.295e-4
-1.188, 8.264e-4
-1.189, 8.233e-4
-1.190, 8.233e-4
-1.191, 8.233e-4
-1.192, 8.264e-4
-1.193, 8.295e-4
-1.194, 8.295e-4
-1.195, 8.326e-4
-1.196, 8.388e-4
-1.197, 8.357e-4
-1.198, 8.388e-4
-1.199, 8.357e-4
-1.200, 8.295e-4
-1.201, 8.295e-4
-1.202, 8.264e-4
-1.203, 8.203e-4
-1.204, 8.172e-4
-1.205, 8.172e-4
-1.206, 8.141e-4
-1.207, 8.172e-4
-1.208, 8.233e-4
-1.209, 8.264e-4
-1.210, 8.264e-4
-1.211, 8.326e-4
-1.212, 8.326e-4
-1.213, 8.326e-4
-1.214, 8.295e-4
-1.215, 8.264e-4
-1.216, 8.233e-4
-1.217, 8.203e-4
-1.218, 8.141e-4
-1.219, 8.141e-4
-1.220, 8.141e-4
-1.221, 8.110e-4
-1.222, 8.141e-4
-1.223, 8.172e-4
-1.224, 8.203e-4
-1.225, 8.233e-4
-1.226, 8.264e-4
-1.227, 8.295e-4
-1.228, 8.295e-4
-1.229, 8.295e-4
-1.230, 8.264e-4
-1.231, 8.233e-4
-1.232, 8.172e-4
-1.233, 8.110e-4
-1.234, 8.110e-4
-1.235, 8.110e-4
-1.236, 8.110e-4
-1.237, 8.110e-4
-1.238, 8.172e-4
-1.239, 8.203e-4
-1.240, 8.233e-4
-1.241, 8.295e-4
-1.242, 8.264e-4
-1.243, 8.295e-4
-1.244, 8.264e-4
-1.245, 8.233e-4
-1.246, 8.233e-4
-1.247, 8.172e-4
-1.248, 8.141e-4
-1.249, 8.141e-4
-1.250, 8.141e-4
-1.251, 8.141e-4
-1.252, 8.172e-4
-1.253, 8.203e-4
-1.254, 8.264e-4
-1.255, 8.264e-4
-1.256, 8.326e-4
-1.257, 8.357e-4
-1.258, 8.357e-4
-1.259, 8.326e-4
-1.260, 8.326e-4
-1.261, 8.295e-4
-1.262, 8.264e-4
-1.263, 8.233e-4
-1.264, 8.233e-4
-1.265, 8.233e-4
-1.266, 8.233e-4
-1.267, 8.264e-4
-1.268, 8.295e-4
-1.269, 8.357e-4
-1.270, 8.418e-4
-1.271, 8.480e-4
-1.272, 8.480e-4
-1.273, 8.511e-4
-1.274, 8.480e-4
-1.275, 8.480e-4
-1.276, 8.480e-4
-1.277, 8.418e-4
-1.278, 8.388e-4
-1.279, 8.418e-4
-1.280, 8.449e-4
-1.281, 8.449e-4
-1.282, 8.480e-4
-1.283, 8.542e-4
-1.284, 8.603e-4
-1.285, 8.634e-4
-1.286, 8.696e-4
-1.287, 8.727e-4
-1.288, 8.758e-4
-1.289, 8.727e-4
-1.290, 8.727e-4
-1.291, 8.727e-4
-1.292, 8.727e-4
-1.293, 8.696e-4
-1.294, 8.727e-4
-1.295, 8.758e-4
-1.296, 8.727e-4
-1.297, 8.819e-4
-1.298, 8.881e-4
-1.299, 8.943e-4
-1.300, 9.004e-4
-1.301, 9.066e-4
-1.302, 9.097e-4
-1.303, 9.158e-4
-1.304, 9.158e-4
-1.305, 9.158e-4
-1.306, 9.158e-4
-1.307, 9.189e-4
-1.308, 9.158e-4
-1.309, 9.189e-4
-1.310, 9.220e-4
-1.311, 9.251e-4
-1.312, 9.313e-4
-1.313, 9.436e-4
-1.314, 9.467e-4
-1.315, 9.559e-4
-1.316, 9.652e-4
-1.317, 9.713e-4
-1.318, 9.775e-4
-1.319, 9.775e-4
-1.320, 9.806e-4
-1.321, 9.806e-4
-1.322, 9.837e-4
-1.323, 9.837e-4
-1.324, 9.898e-4
-1.325, 9.960e-4
-1.326, 9.991e-4
-1.327, 1.008e-3
-1.328, 1.021e-3
-1.329, 1.030e-3
-1.330, 1.036e-3
-1.331, 1.048e-3
-1.332, 1.058e-3
-1.333, 1.064e-3
-1.334, 1.067e-3
-1.335, 1.073e-3
-1.336, 1.076e-3
-1.337, 1.082e-3
-1.338, 1.082e-3
-1.339, 1.092e-3
-1.340, 1.098e-3
-1.341, 1.104e-3
-1.342, 1.116e-3
-1.343, 1.129e-3
-1.344, 1.141e-3
-1.345, 1.153e-3
-1.346, 1.166e-3
-1.347, 1.175e-3
-1.348, 1.187e-3
-1.349, 1.193e-3
-1.350, 1.196e-3
-1.351, 1.206e-3
-1.352, 1.212e-3
-1.353, 1.218e-3
-1.354, 1.227e-3
-1.355, 1.236e-3
-1.356, 1.246e-3
-1.357, 1.258e-3
-1.358, 1.273e-3
-1.359, 1.289e-3
-1.360, 1.304e-3
-1.361, 1.320e-3
-1.362, 1.332e-3
-1.363, 1.344e-3
-1.364, 1.354e-3
-1.365, 1.363e-3
-1.366, 1.375e-3
-1.367, 1.381e-3
-1.368, 1.391e-3
-1.369, 1.406e-3
-1.370, 1.418e-3
-1.371, 1.431e-3
-1.372, 1.449e-3
-1.373, 1.465e-3
-1.374, 1.483e-3
-1.375, 1.502e-3
-1.376, 1.520e-3
-1.377, 1.539e-3
-1.378, 1.554e-3
-1.379, 1.566e-3
-1.380, 1.579e-3
-1.381, 1.594e-3
-1.382, 1.606e-3
-1.383, 1.619e-3
-1.384, 1.637e-3
-1.385, 1.653e-3
-1.386, 1.668e-3
-1.387, 1.690e-3
-1.388, 1.711e-3
-1.389, 1.733e-3
-1.390, 1.754e-3
-1.391, 1.779e-3
-1.392, 1.798e-3
-1.393, 1.819e-3
-1.394, 1.835e-3
-1.395, 1.850e-3
-1.396, 1.869e-3
-1.397, 1.887e-3
-1.398, 1.902e-3
-1.399, 1.924e-3
-1.400, 1.946e-3
-1.401, 1.967e-3
-1.402, 1.989e-3
-1.403, 2.017e-3
-1.404, 2.041e-3
-1.405, 2.066e-3
-1.406, 2.094e-3
-1.407, 2.118e-3
-1.408, 2.143e-3
-1.409, 2.164e-3
-1.410, 2.186e-3
-1.411, 2.208e-3
-1.412, 2.232e-3
-1.413, 2.251e-3
-1.414, 2.275e-3
-1.415, 2.303e-3
-1.416, 2.328e-3
-1.417, 2.359e-3
-1.418, 2.390e-3
-1.419, 2.420e-3
-1.420, 2.451e-3
-1.421, 2.485e-3
-1.422, 2.513e-3
-1.423, 2.547e-3
-1.424, 2.571e-3
-1.425, 2.596e-3
-1.426, 2.627e-3
-1.427, 2.655e-3
-1.428, 2.679e-3
-1.429, 2.710e-3
-1.430, 2.741e-3
-1.431, 2.772e-3
-1.432, 2.806e-3
-1.433, 2.843e-3
-1.434, 2.880e-3
-1.435, 2.917e-3
-1.436, 2.954e-3
-1.437, 2.991e-3
-1.438, 3.025e-3
-1.439, 3.059e-3
-1.440, 3.086e-3
-1.441, 3.123e-3
-1.442, 3.157e-3
-1.443, 3.188e-3
-1.444, 3.228e-3
-1.445, 3.262e-3
-1.446, 3.302e-3
-1.447, 3.342e-3
-1.448, 3.385e-3
-1.449, 3.425e-3
-1.450, 3.469e-3
-1.451, 3.515e-3
-1.452, 3.555e-3
-1.453, 3.598e-3
-1.454, 3.635e-3
-1.455, 3.675e-3
-1.456, 3.715e-3
-1.457, 3.758e-3
-1.458, 3.792e-3
-1.459, 3.839e-3
-1.460, 3.882e-3
-1.461, 3.925e-3
-1.462, 3.971e-3
-1.463, 4.021e-3
-1.464, 4.067e-3
-1.465, 4.119e-3
-1.466, 4.169e-3
-1.467, 4.218e-3
-1.468, 4.264e-3
-1.469, 4.310e-3
-1.470, 4.357e-3
-1.471, 4.403e-3
-1.472, 4.449e-3
-1.473, 4.492e-3
-1.474, 4.542e-3
-1.475, 4.591e-3
-1.476, 4.640e-3
-1.477, 4.693e-3
-1.478, 4.748e-3
-1.479, 4.804e-3
-1.480, 4.862e-3
-1.481, 4.918e-3
-1.482, 4.973e-3
-1.483, 5.029e-3
-1.484, 5.078e-3
-1.485, 5.130e-3
-1.486, 5.186e-3
-1.487, 5.238e-3
-1.488, 5.288e-3
-1.489, 5.343e-3
-1.490, 5.399e-3
-1.491, 5.457e-3
-1.492, 5.513e-3
-1.493, 5.574e-3
-1.494, 5.639e-3
-1.495, 5.701e-3
-1.496, 5.762e-3
-1.497, 5.827e-3
-1.498, 5.886e-3
-1.499, 5.944e-3
-1.500, 5.904e-3
-1.499, 5.719e-3
-1.498, 5.581e-3
-1.497, 5.457e-3
-1.496, 5.356e-3
-1.495, 5.263e-3
-1.494, 5.177e-3
-1.493, 5.100e-3
-1.492, 5.026e-3
-1.491, 4.952e-3
-1.490, 4.881e-3
-1.489, 4.813e-3
-1.488, 4.745e-3
-1.487, 4.674e-3
-1.486, 4.603e-3
-1.485, 4.532e-3
-1.484, 4.458e-3
-1.483, 4.391e-3
-1.482, 4.323e-3
-1.481, 4.255e-3
-1.480, 4.190e-3
-1.479, 4.125e-3
-1.478, 4.064e-3
-1.477, 4.005e-3
-1.476, 3.943e-3
-1.475, 3.885e-3
-1.474, 3.829e-3
-1.473, 3.771e-3
-1.472, 3.715e-3
-1.471, 3.651e-3
-1.470, 3.589e-3
-1.469, 3.530e-3
-1.468, 3.469e-3
-1.467, 3.410e-3
-1.466, 3.355e-3
-1.465, 3.296e-3
-1.464, 3.244e-3
-1.463, 3.188e-3
-1.462, 3.139e-3
-1.461, 3.086e-3
-1.460, 3.037e-3
-1.459, 2.991e-3
-1.458, 2.941e-3
-1.457, 2.892e-3
-1.456, 2.840e-3
-1.455, 2.784e-3
-1.454, 2.735e-3
-1.453, 2.682e-3
-1.452, 2.630e-3
-1.451, 2.584e-3
-1.450, 2.538e-3
-1.449, 2.488e-3
-1.448, 2.445e-3
-1.447, 2.402e-3
-1.446, 2.359e-3
-1.445, 2.319e-3
-1.444, 2.279e-3
-1.443, 2.235e-3
-1.442, 2.195e-3
-1.441, 2.149e-3
-1.440, 2.103e-3
-1.439, 2.060e-3
-1.438, 2.017e-3
-1.437, 1.970e-3
-1.436, 1.930e-3
-1.435, 1.890e-3
-1.434, 1.853e-3
-1.433, 1.813e-3
-1.432, 1.779e-3
-1.431, 1.745e-3
-1.430, 1.711e-3
-1.429, 1.677e-3
-1.428, 1.643e-3
-1.427, 1.610e-3
-1.426, 1.569e-3
-1.425, 1.532e-3
-1.424, 1.495e-3
-1.423, 1.458e-3
-1.422, 1.418e-3
-1.421, 1.384e-3
-1.420, 1.354e-3
-1.419, 1.320e-3
-1.418, 1.292e-3
-1.417, 1.261e-3
-1.416, 1.233e-3
-1.415, 1.209e-3
-1.414, 1.184e-3
-1.413, 1.153e-3
-1.412, 1.125e-3
-1.411, 1.095e-3
-1.410, 1.061e-3
-1.409, 1.033e-3
-1.408, 1.002e-3
-1.407, 9.683e-4
-1.406, 9.405e-4
-1.405, 9.128e-4
-1.404, 8.881e-4
-1.403, 8.665e-4
-1.402, 8.418e-4
-1.401, 8.203e-4
-1.400, 7.987e-4
-1.399, 7.771e-4
-1.398, 7.524e-4
-1.397, 7.339e-4
-1.396, 7.031e-4
-1.395, 6.784e-4
-1.394, 6.538e-4
-1.393, 6.291e-4
-1.392, 6.014e-4
-1.391, 5.798e-4
-1.390, 5.582e-4
-1.389, 5.366e-4
-1.388, 5.150e-4
-1.387, 4.996e-4
-1.386, 4.842e-4
-1.385, 4.657e-4
-1.384, 4.503e-4
-1.383, 4.318e-4
-1.382, 4.133e-4
-1.381, 3.917e-4
-1.380, 3.701e-4
-1.379, 3.485e-4
-1.378, 3.300e-4
-1.377, 3.054e-4
-1.376, 2.869e-4
-1.375, 2.715e-4
-1.374, 2.561e-4
-1.373, 2.406e-4
-1.372, 2.252e-4
-1.371, 2.160e-4
-1.370, 2.067e-4
-1.369, 1.913e-4
-1.368, 1.759e-4
-1.367, 1.636e-4
-1.366, 1.451e-4
-1.365, 1.296e-4
-1.364, 1.081e-4
-1.363, 9.265e-5
-1.362, 7.415e-5
-1.361, 6.182e-5
-1.360, 4.949e-5
-1.359, 3.407e-5
-1.358, 2.482e-5
-1.357, 1.249e-5
-1.356, 3.239e-6
-1.355, -6.010e-6
-1.354, -1.526e-5
-1.353, -2.451e-5
-1.352, -3.376e-5
-1.351, -4.917e-5
-1.350, -6.767e-5
-1.349, -7.692e-5
-1.348, -9.542e-5
-1.347, -1.078e-4
-1.346, -1.201e-4
-1.345, -1.293e-4
-1.344, -1.386e-4
-1.343, -1.478e-4
-1.342, -1.540e-4
-1.341, -1.602e-4
-1.340, -1.663e-4
-1.339, -1.725e-4
-1.338, -1.817e-4
-1.337, -1.879e-4
-1.336, -2.002e-4
-1.335, -2.157e-4
-1.334, -2.249e-4
-1.333, -2.372e-4
-1.332, -2.496e-4
-1.331, -2.588e-4
-1.330, -2.681e-4
-1.329, -2.742e-4
-1.328, -2.804e-4
-1.327, -2.835e-4
-1.326, -2.866e-4
-1.325, -2.927e-4
-1.324, -2.958e-4
-1.323, -3.020e-4
-1.322, -3.082e-4
-1.321, -3.174e-4
-1.320, -3.297e-4
-1.319, -3.390e-4
-1.318, -3.482e-4
-1.317, -3.575e-4
-1.316, -3.667e-4
-1.315, -3.698e-4
-1.314, -3.760e-4
-1.313, -3.791e-4
-1.312, -3.791e-4
-1.311, -3.821e-4
-1.310, -3.852e-4
-1.309, -3.883e-4
-1.308, -3.945e-4
-1.307, -3.945e-4
-1.306, -4.037e-4
-1.305, -4.161e-4
-1.304, -4.222e-4
-1.303, -4.284e-4
-1.302, -4.407e-4
-1.301, -4.438e-4
-1.300, -4.500e-4
-1.299, -4.500e-4
-1.298, -4.531e-4
-1.297, -4.561e-4
-1.296, -4.561e-4
-1.295, -4.561e-4
-1.294, -4.561e-4
-1.293, -4.623e-4
-1.292, -4.623e-4
-1.291, -4.716e-4
-1.290, -4.777e-4
-1.289, -4.839e-4
-1.288, -4.901e-4
-1.287, -4.993e-4
-1.286, -5.024e-4
-1.285, -5.055e-4
-1.284, -5.086e-4
-1.283, -5.086e-4
-1.282, -5.116e-4
-1.281, -5.086e-4
-1.280, -5.086e-4
-1.279, -5.116e-4
-1.278, -5.116e-4
-1.277, -5.116e-4
-1.276, -5.209e-4
-1.275, -5.240e-4
-1.274, -5.301e-4
-1.273, -5.363e-4
-1.272, -5.425e-4
-1.271, -5.456e-4
-1.270, -5.486e-4
-1.269, -5.517e-4
-1.268, -5.486e-4
-1.267, -5.486e-4
-1.266, -5.456e-4
-1.265, -5.456e-4
-1.264, -5.456e-4
-1.263, -5.486e-4
-1.262, -5.456e-4
-1.261, -5.517e-4
-1.260, -5.579e-4
-1.259, -5.641e-4
-1.258, -5.671e-4
-1.257, -5.764e-4
-1.256, -5.764e-4
-1.255, -5.795e-4
-1.254, -5.795e-4
-1.253, -5.764e-4
-1.252, -5.795e-4
-1.251, -5.733e-4
-1.250, -5.733e-4
-1.249, -5.733e-4
-1.248, -5.733e-4
-1.247, -5.733e-4
-1.246, -5.764e-4
-1.245, -5.826e-4
-1.244, -5.887e-4
-1.243, -5.918e-4
-1.242, -5.980e-4
-1.241, -6.011e-4
-1.240, -6.011e-4
-1.239, -6.011e-4
-1.238, -6.011e-4
-1.237, -5.980e-4
-1.236, -5.980e-4
-1.235, -5.918e-4
-1.234, -5.918e-4
-1.233, -5.949e-4
-1.232, -5.918e-4
-1.231, -5.980e-4
-1.230, -6.041e-4
-1.229, -6.103e-4
-1.228, -6.134e-4
-1.227, -6.195e-4
-1.226, -6.195e-4
-1.225, -6.195e-4
-1.224, -6.195e-4
-1.223, -6.195e-4
-1.222, -6.165e-4
-1.221, -6.134e-4
-1.220, -6.103e-4
-1.219, -6.103e-4
-1.218, -6.103e-4
-1.217, -6.072e-4
-1.216, -6.134e-4
-1.215, -6.195e-4
-1.214, -6.226e-4
-1.213, -6.257e-4
-1.212, -6.319e-4
-1.211, -6.319e-4
-1.210, -6.350e-4
-1.209, -6.350e-4
-1.208, -6.319e-4
-1.207, -6.319e-4
-1.206, -6.288e-4
-1.205, -6.257e-4
-1.204, -6.226e-4
-1.203, -6.257e-4
-1.202, -6.226e-4
-1.201, -6.288e-4
-1.200, -6.350e-4
-1.199, -6.380e-4
-1.198, -6.411e-4
-1.197, -6.473e-4
-1.196, -6.504e-4
-1.195, -6.504e-4
-1.194, -6.504e-4
-1.193, -6.473e-4
-1.192, -6.473e-4
-1.191, -6.411e-4
-1.190, -6.411e-4
-1.189, -6.380e-4
-1.188, -6.411e-4
-1.187, -6.380e-4
-1.186, -6.411e-4
-1.185, -6.473e-4
-1.184, -6.535e-4
-1.183, -6.535e-4
-1.182, -6.627e-4
-1.181, -6.627e-4
-1.180, -6.627e-4
-1.179, -6.627e-4
-1.178, -6.627e-4
-1.177, -6.627e-4
-1.176, -6.596e-4
-1.175, -6.565e-4
-1.174, -6.535e-4
-1.173, -6.565e-4
-1.172, -6.535e-4
-1.171, -6.565e-4
-1.170, -6.627e-4
-1.169, -6.689e-4
-1.168, -6.689e-4
-1.167, -6.781e-4
-1.166, -6.781e-4
-1.165, -6.812e-4
-1.164, -6.812e-4
-1.163, -6.781e-4
-1.162, -6.781e-4
-1.161, -6.750e-4
-1.160, -6.720e-4
-1.159, -6.720e-4
-1.158, -6.720e-4
-1.157, -6.689e-4
-1.156, -6.750e-4
-1.155, -6.812e-4
-1.154, -6.843e-4
-1.153, -6.874e-4
-1.152, -6.966e-4
-1.151, -6.966e-4
-1.150, -6.966e-4
-1.149, -6.966e-4
-1.148, -6.966e-4
-1.147, -6.966e-4
-1.146, -6.935e-4
-1.145, -6.905e-4
-1.144, -6.905e-4
-1.143, -6.905e-4
-1.142, -6.905e-4
-1.141, -6.935e-4
-1.140, -7.028e-4
-1.139, -7.028e-4
-1.138, -7.090e-4
-1.137, -7.151e-4
-1.136, -7.151e-4
-1.135, -7.182e-4
-1.134, -7.182e-4
-1.133, -7.182e-4
-1.132, -7.182e-4
-1.131, -7.151e-4
-1.130, -7.120e-4
-1.129, -7.120e-4
-1.128, -7.120e-4
-1.127, -7.151e-4
-1.126, -7.182e-4
-1.125, -7.244e-4
-1.124, -7.275e-4
-1.123, -7.305e-4
-1.122, -7.398e-4
-1.121, -7.398e-4
-1.120, -7.429e-4
-1.119, -7.429e-4
-1.118, -7.429e-4
-1.117, -7.398e-4
-1.116, -7.398e-4
-1.115, -7.367e-4
-1.114, -7.367e-4
-1.113, -7.398e-4
-1.112, -7.367e-4
-1.111, -7.429e-4
-1.110, -7.490e-4
-1.109, -7.552e-4
-1.108, -7.614e-4
-1.107, -7.675e-4
-1.106, -7.675e-4
-1.105, -7.706e-4
-1.104, -7.675e-4
-1.103, -7.706e-4
-1.102, -7.706e-4
-1.101, -7.706e-4
-1.100, -7.675e-4
-1.099, -7.675e-4
-1.098, -7.706e-4
-1.097, -7.675e-4
-1.096, -7.737e-4
-1.095, -7.799e-4
-1.094, -7.860e-4
-1.093, -7.891e-4
-1.092, -7.984e-4
-1.091, -7.984e-4
-1.090, -8.015e-4
-1.089, -8.015e-4
-1.088, -8.015e-4
-1.087, -8.015e-4
-1.086, -8.015e-4
-1.085, -7.984e-4
-1.084, -8.015e-4
-1.083, -8.015e-4
-1.082, -8.015e-4
-1.081, -8.076e-4
-1.080, -8.138e-4
-1.079, -8.200e-4
-1.078, -8.230e-4
-1.077, -8.292e-4
-1.076, -8.323e-4
-1.075, -8.385e-4
-1.074, -8.385e-4
-1.073, -8.385e-4
-1.072, -8.385e-4
-1.071, -8.385e-4
-1.070, -8.354e-4
-1.069, -8.354e-4
-1.068, -8.385e-4
-1.067, -8.385e-4
-1.066, -8.446e-4
-1.065, -8.539e-4
-1.064, -8.569e-4
-1.063, -8.631e-4
-1.062, -8.724e-4
-1.061, -8.724e-4
-1.060, -8.785e-4
-1.059, -8.754e-4
-1.058, -8.754e-4
-1.057, -8.785e-4
-1.056, -8.785e-4
-1.055, -8.754e-4
-1.054, -8.785e-4
-1.053, -8.785e-4
-1.052, -8.785e-4
-1.051, -8.847e-4
-1.050, -8.939e-4
-1.049, -9.001e-4
-1.048, -9.032e-4
-1.047, -9.124e-4
-1.046, -9.155e-4
-1.045, -9.186e-4
-1.044, -9.217e-4
-1.043, -9.217e-4
-1.042, -9.217e-4
-1.041, -9.217e-4
-1.040, -9.186e-4
-1.039, -9.248e-4
-1.038, -9.248e-4
-1.037, -9.279e-4
-1.036, -9.309e-4
-1.035, -9.402e-4
-1.034, -9.464e-4
-1.033, -9.525e-4
-1.032, -9.587e-4
-1.031, -9.649e-4
-1.030, -9.679e-4
-1.029, -9.679e-4
-1.028, -9.710e-4
-1.027, -9.710e-4
-1.026, -9.741e-4
-1.025, -9.710e-4
-1.024, -9.741e-4
-1.023, -9.772e-4
-1.022, -9.803e-4
-1.021, -9.834e-4
-1.020, -9.926e-4
-1.019, -1.002e-3
-1.018, -1.008e-3
-1.017, -1.014e-3
-1.016, -1.020e-3
-1.015, -1.023e-3
-1.014, -1.027e-3
-1.013, -1.027e-3
-1.012, -1.030e-3
-1.011, -1.030e-3
-1.010, -1.030e-3
-1.009, -1.033e-3
-1.008, -1.036e-3
-1.007, -1.039e-3
-1.006, -1.048e-3
-1.005, -1.054e-3
-1.004, -1.064e-3
-1.003, -1.070e-3
-1.002, -1.079e-3
-1.001, -1.085e-3
