Potential V vs RHE, Current mA cm-2
0.013299999999999867,-0.5692798270656908
0.012299999999999978,-1.9650339955125358
0.011299999999999866,-2.8379108675292635
0.010299999999999976,-3.447651437771094
0.009299999999999864,-3.884797229429391
0.008299999999999974,-4.1889601589003735
0.007299999999999862,-4.494537799671222
0.006299999999999972,-4.668547289554621
0.00529999999999986,-4.800115440442069
0.0042999999999999705,-4.9302688800296535
0.0032999999999998586,-5.017980980621284
0.0022999999999999687,-5.0618370309171015
0.0012999999999998568,-5.105693081212917
0.00029999999999996696,-5.149549131508733
-0.000700000000000145,-5.191990470504685
-0.0017000000000000348,-5.235846520800501
-0.0027000000000001467,-5.279702571096316
-0.0037000000000000366,-5.323558621392133
-0.0047000000000001485,-5.367414671687949
-0.005700000000000038,-5.411270721983764
-0.00670000000000015,-5.453712060979717
-0.00770000000000004,-5.453712060979717
-0.008700000000000152,-5.497568111275533
-0.009700000000000042,-5.497568111275533
-0.010700000000000154,-5.497568111275533
-0.011700000000000044,-5.497568111275533
-0.012700000000000156,-5.5414241615713475
-0.013700000000000045,-5.5414241615713475
-0.014700000000000157,-5.585280211867165
-0.015700000000000047,-5.629136262162981
-0.01670000000000016,-5.629136262162981
-0.01770000000000005,-5.672992312458796
-0.01870000000000016,-5.715433651454749
-0.01970000000000005,-5.715433651454749
-0.020700000000000163,-5.715433651454749
-0.021700000000000053,-5.715433651454749
-0.022700000000000164,-5.759289701750564
-0.023700000000000054,-5.715433651454749
-0.024700000000000166,-5.759289701750564
-0.025700000000000056,-5.759289701750564
-0.026700000000000168,-5.80314575204638
-0.027700000000000058,-5.80314575204638
-0.02870000000000017,-5.847001802342197
-0.02970000000000006,-5.890857852638012
-0.03070000000000017,-5.890857852638012
-0.03170000000000006,-5.9347139029338285
-0.03270000000000017,-5.9347139029338285
-0.03370000000000006,-5.9347139029338285
-0.034700000000000175,-5.9347139029338285
-0.035700000000000065,-5.9347139029338285
-0.03670000000000018,-5.977155241929781
-0.03770000000000007,-5.977155241929781
-0.03870000000000018,-6.021011292225596
-0.03970000000000007,-6.021011292225596
-0.04070000000000018,-6.108723392817228
-0.04170000000000007,-6.108723392817228
-0.04270000000000018,-6.108723392817228
-0.04370000000000007,-6.152579443113044
-0.044700000000000184,-6.152579443113044
-0.045700000000000074,-6.152579443113044
-0.046700000000000186,-6.152579443113044
-0.047700000000000076,-6.152579443113044
-0.04870000000000019,-6.196435493408861
-0.04970000000000008,-6.196435493408861
-0.05070000000000019,-6.238876832404812
-0.05170000000000008,-6.282732882700628
-0.05270000000000019,-6.282732882700628
-0.05370000000000008,-6.326588932996443
-0.05470000000000019,-6.37044498329226
-0.05570000000000008,-6.326588932996443
-0.056700000000000195,-6.37044498329226
-0.057700000000000085,-6.37044498329226
-0.058700000000000196,-6.37044498329226
-0.059700000000000086,-6.414301033588076
-0.0607000000000002,-6.414301033588076
-0.06170000000000009,-6.458157083883892
-0.0627000000000002,-6.500598422879844
-0.06370000000000009,-6.500598422879844
-0.0647000000000002,-6.54445447317566
-0.06570000000000009,-6.588310523471475
-0.0667000000000002,-6.588310523471475
-0.0677000000000001,-6.632166573767292
-0.0687000000000002,-6.632166573767292
-0.0697000000000001,-6.588310523471475
-0.07070000000000021,-6.632166573767292
-0.0717000000000001,-6.632166573767292
-0.07270000000000021,-6.6760226240631075
-0.0737000000000001,-6.719878674358924
-0.07470000000000021,-6.762320013354876
-0.0757000000000001,-6.762320013354876
-0.07670000000000021,-6.806176063650692
-0.0777000000000001,-6.850032113946507
-0.07870000000000021,-6.850032113946507
-0.0797000000000001,-6.850032113946507
-0.08070000000000022,-6.893888164242324
-0.0817000000000001,-6.893888164242324
-0.08270000000000022,-6.893888164242324
-0.08370000000000011,-6.93774421453814
-0.08470000000000022,-6.93774421453814
-0.08570000000000011,-6.981600264833956
-0.08670000000000022,-7.024041603829907
-0.08770000000000011,-7.067897654125724
-0.08870000000000022,-7.111753704421539
-0.08970000000000011,-7.155609754717355
-0.09070000000000022,-7.155609754717355
-0.09170000000000011,-7.155609754717355
-0.09270000000000023,-7.199465805013171
-0.09370000000000012,-7.199465805013171
-0.09470000000000023,-7.243321855308987
-0.09570000000000012,-7.243321855308987
-0.09670000000000023,-7.28576319430494
-0.09770000000000012,-7.329619244600755
-0.09870000000000023,-7.37347529489657
-0.09970000000000012,-7.4173313451923875
-0.10070000000000023,-7.461187395488204
-0.10170000000000012,-7.461187395488204
-0.10270000000000024,-7.50504344578402
-0.10370000000000013,-7.50504344578402
-0.10470000000000024,-7.5474847847799715
-0.10570000000000013,-7.5474847847799715
-0.10670000000000024,-7.591340835075788
-0.10770000000000013,-7.635196885371603
-0.10870000000000024,-7.635196885371603
-0.10970000000000013,-7.679052935667419
-0.11070000000000024,-7.722908985963235
-0.11170000000000013,-7.7653503249591855
-0.11270000000000002,-7.809206375255003
-0.11370000000000013,-7.809206375255003
-0.11470000000000002,-7.853062425550818
-0.11570000000000014,-7.853062425550818
-0.11670000000000003,-7.896918475846635
-0.11770000000000014,-7.896918475846635
-0.11870000000000003,-7.940774526142452
-0.11970000000000014,-7.984630576438266
-0.12070000000000003,-8.027071915434218
-0.12170000000000014,-8.070927965730034
-0.12270000000000003,-8.11478401602585
-0.12370000000000014,-8.158640066321666
-0.12470000000000003,-8.158640066321666
-0.12570000000000014,-8.202496116617484
-0.12670000000000003,-8.202496116617484
-0.12770000000000015,-8.246352166913299
-0.12870000000000004,-8.246352166913299
-0.12970000000000015,-8.246352166913299
-0.13070000000000004,-8.288793505909249
-0.13170000000000015,-8.332649556205066
-0.13270000000000004,-8.376505606500881
-0.13370000000000015,-8.4203616567967
-0.13470000000000004,-8.508073757388331
-0.13570000000000015,-8.508073757388331
-0.13670000000000004,-8.55051509638428
-0.13770000000000016,-8.55051509638428
-0.13870000000000005,-8.55051509638428
-0.13970000000000016,-8.594371146680096
-0.14070000000000005,-8.594371146680096
-0.14170000000000016,-8.638227196975913
-0.14270000000000005,-8.68208324727173
-0.14370000000000016,-8.68208324727173
-0.14470000000000005,-8.725939297567548
-0.14570000000000016,-8.812236686859313
-0.14670000000000005,-8.85609273715513
-0.14770000000000016,-8.899948787450944
-0.14870000000000005,-8.899948787450944
-0.14970000000000017,-8.943804837746763
-0.15070000000000006,-8.943804837746763
-0.15170000000000017,-8.943804837746763
-0.15270000000000006,-8.987660888042578
-0.15370000000000017,-9.031516938338395
-0.15470000000000006,-9.073958277334345
-0.15570000000000017,-9.11781432763016
-0.15670000000000006,-9.161670377925978
-0.15770000000000017,-9.205526428221793
-0.15870000000000006,-9.24938247851761
-0.15970000000000018,-9.293238528813426
-0.16070000000000007,-9.293238528813426
-0.16170000000000018,-9.293238528813426
-0.16270000000000007,-9.335679867809377
-0.16370000000000018,-9.335679867809377
-0.16470000000000007,-9.379535918105192
-0.16570000000000018,-9.423391968401008
-0.16670000000000007,-9.467248018696827
-0.16770000000000018,-9.511104068992642
-0.16870000000000007,-9.55496011928846
-0.16970000000000018,-9.59740145828441
-0.17070000000000007,-9.641257508580225
-0.17170000000000019,-9.685113558876042
-0.17270000000000008,-9.685113558876042
-0.1737000000000002,-9.728969609171857
-0.17470000000000008,-9.728969609171857
-0.1757000000000002,-9.728969609171857
-0.17670000000000008,-9.772825659467674
-0.1777000000000002,-9.81668170976349
-0.17870000000000008,-9.85912304875944
-0.1797000000000002,-9.902979099055257
-0.18070000000000008,-9.946835149351072
-0.1817000000000002,-9.99069119964689
-0.18270000000000008,-10.034547249942705
-0.1837000000000002,-10.034547249942705
-0.1847000000000001,-10.078403300238522
-0.1857000000000002,-10.078403300238522
-0.1867000000000001,-10.078403300238522
-0.1877000000000002,-10.120844639234473
-0.1887000000000001,-10.164700689530287
-0.1897000000000002,-10.208556739826104
-0.1907000000000001,-10.25241279012192
-0.1917000000000001,-10.296268840417738
-0.19269999999999998,-10.340124890713554
-0.1937000000000001,-10.382566229709504
-0.19469999999999998,-10.42642228000532
-0.1957000000000001,-10.42642228000532
-0.19669999999999999,-10.470278330301136
-0.1977000000000001,-10.470278330301136
-0.1987,-10.514134380596953
-0.1997000000000001,-10.514134380596953
-0.2007,-10.557990430892769
-0.2017000000000001,-10.601846481188586
-0.2027,-10.644287820184536
-0.2037000000000001,-10.688143870480351
-0.2047,-10.775855971071984
-0.2057000000000001,-10.775855971071984
-0.2067,-10.819712021367803
-0.2077000000000001,-10.863568071663616
-0.2087,-10.863568071663616
-0.2097000000000001,-10.906009410659568
-0.2107,-10.906009410659568
-0.2117000000000001,-10.949865460955383
-0.2127,-10.993721511251199
-0.2137000000000001,-11.037577561547016
-0.2147,-11.123874950838783
-0.2157000000000001,-11.211587051430415
-0.2167,-11.255443101726232
-0.21770000000000012,-11.255443101726232
-0.2187,-11.255443101726232
-0.21970000000000012,-11.255443101726232
-0.2207,-11.255443101726232
-0.22170000000000012,-11.299299152022046
-0.2227,-11.343155202317865
-0.22370000000000012,-11.385596541313816
-0.2247,-11.473308641905447
-0.22570000000000012,-11.56102074249708
-0.2267,-11.604876792792895
-0.22770000000000012,-11.691174182084664
-0.22870000000000001,-11.73503023238048
-0.22970000000000013,-11.778886282676295
-0.23070000000000002,-11.778886282676295
-0.23170000000000013,-11.778886282676295
-0.23270000000000002,-11.778886282676295
-0.23370000000000013,-11.82274233297211
-0.23470000000000002,-11.86659838326793
-0.23570000000000013,-11.909039722263879
-0.23670000000000002,-11.952895772559694
-0.2376999999999999,-11.996751822855511
-0.23870000000000002,-12.084463923447142
-0.2396999999999999,-12.170761312738911
-0.24070000000000003,-12.170761312738911
-0.24169999999999991,-12.214617363034726
-0.24270000000000003,-12.258473413330542
-0.24369999999999992,-12.302329463626359
-0.24470000000000003,-12.302329463626359
-0.24569999999999992,-12.302329463626359
-0.24670000000000003,-12.390041564217992
-0.24769999999999992,-12.390041564217992
-0.24870000000000003,-12.476338953509758
-0.24969999999999992,-12.56405105410139
-0.25070000000000003,-12.607907104397206
-0.2516999999999999,-12.651763154693022
-0.25270000000000004,-12.694204493688973
-0.2536999999999999,-12.73806054398479
-0.25470000000000004,-12.781916594280606
-0.2556999999999999,-12.781916594280606
-0.25670000000000004,-12.825772644576423
-0.25769999999999993,-12.869628694872238
-0.25870000000000004,-12.913484745168056
-0.25969999999999993,-12.955926084164007
-0.26070000000000004,-12.99978213445982
-0.26169999999999993,-13.043638184755638
-0.26270000000000004,-13.13135028534727
-0.26369999999999993,-13.175206335643086
-0.26470000000000005,-13.217647674639037
-0.26569999999999994,-13.217647674639037
-0.26670000000000005,-13.261503724934855
-0.26769999999999994,-13.30535977523067
-0.26870000000000005,-13.30535977523067
-0.26969999999999994,-13.349215825526485
-0.27070000000000005,-13.349215825526485
-0.27169999999999994,-13.3930718758223
-0.27270000000000005,-13.436927926118118
-0.27369999999999994,-13.47936926511407
-0.27470000000000006,-13.523225315409885
-0.27569999999999995,-13.523225315409885
-0.27670000000000006,-13.523225315409885
-0.27769999999999995,-13.567081365705702
-0.27870000000000006,-13.567081365705702
-0.27969999999999995,-13.610937416001518
-0.28070000000000006,-13.610937416001518
-0.28169999999999995,-13.610937416001518
-0.28270000000000006,-13.654793466297335
-0.28369999999999995,-13.654793466297335
-0.28470000000000006,-13.698649516593148
-0.28569999999999995,-13.698649516593148
-0.28670000000000007,-13.741090855589102
-0.28769999999999996,-13.741090855589102
-0.28870000000000007,-13.741090855589102
-0.28969999999999996,-13.741090855589102
-0.29070000000000007,-13.741090855589102
-0.29169999999999996,-13.741090855589102
-0.29270000000000007,-13.741090855589102
-0.29369999999999996,-13.741090855589102
-0.2947000000000001,-13.784946905884919
-0.29569999999999996,-13.828802956180734
-0.2967000000000001,-13.828802956180734
-0.29769999999999996,-13.916515056772363
-0.2987000000000001,-13.916515056772363
-0.29969999999999997,-13.916515056772363
-0.3007000000000001,-13.916515056772363
-0.30169999999999997,-13.916515056772363
-0.3027000000000001,-13.960371107068182
-0.30369999999999997,-13.916515056772363
-0.3047000000000001,-13.960371107068182
-0.30569999999999997,-13.960371107068182
-0.3067000000000001,-14.002812446064135
-0.3077,-14.002812446064135
-0.3087000000000001,-14.046668496359947
-0.3097,-14.13438059695158
-0.3107000000000001,-14.13438059695158
-0.3117,-14.217848563643619
-0.3127000000000001,-14.217848563643619
-0.3137,-14.26028990263957
-0.3147000000000001,-14.30273124163552
-0.3157,-14.345172580631472
-0.3167000000000001,-14.401761032626075
-0.3177,-14.444202371622024
-0.3187000000000001,-14.529085049613924
-0.3197,-14.57152638860988
-0.3207000000000001,-14.65640906660178
-0.3217,-14.741291744593681
-0.3227000000000001,-14.783733083589633
-0.3237,-14.868615761581536
-0.3247000000000001,-14.925204213576137
-0.3257,-15.01008689156804
-0.3267000000000001,-15.094969569559943
-0.3277,-15.179852247551842
-0.3287000000000001,-15.307176264539699
-0.3297,-15.3920589425316
-0.3307000000000001,-15.533530072518102
-0.3317,-15.660854089505953
-0.3327000000000001,-15.78817810649381
-0.3337,-15.972090575476265
-0.3347000000000001,-16.099414592464115
-0.3357,-16.22673860945197
-0.3367000000000001,-16.354062626439823
-0.3377,-16.495533756426326
-0.3387000000000001,-16.665299112410132
-0.3397,-16.792623129397985
-0.3407000000000001,-16.962388485381787
-0.3417,-17.188742293360193
-0.3427000000000001,-17.40094898833995
-0.3437,-17.627302796318357
-0.3447000000000001,-17.839509491298113
-0.3457,-18.10830463827247
-0.3467000000000001,-18.362952672248177
-0.3477,-18.631747819222536
-0.3487000000000001,-18.88639585319824
-0.3497,-19.155191000172596
-0.3507000000000001,-19.452280373144255
-0.3517,-19.763516859114564
-0.3527000000000001,-20.06060623208622
-0.3537,-20.456725396048434
-0.3547000000000001,-20.85284456001064
-0.3557,-21.291405062968803
-0.35670000000000013,-21.67337711393236
-0.3577,-22.15437895588647
-0.35870000000000013,-22.63538079784059
-0.3597,-23.15882397879065
-0.36070000000000013,-23.724708498736668
-0.3617,-24.290593018682678
-0.3626999999999999,-24.9130659906233
-0.3637,-25.563833188561212
-0.3646999999999999,-26.29948306449103
-0.3657,-27.091721392415455
-0.3666999999999999,-27.912253946337174
-0.3677,-28.789374952253496
-0.3686999999999999,-29.751378636161718
-0.36970000000000003,-30.7558236590659
-0.3706999999999999,-31.84515135996197
-0.37170000000000003,-32.97692039985401
-0.3726999999999999,-34.236013456733886
-0.37370000000000003,-35.594136304604326
-0.3746999999999999,-37.07958316946261
-0.37570000000000003,-38.692354051308754
-0.3766999999999999,-40.43244895014274
-0.37770000000000004,-42.31401497896325
-0.3786999999999999,-44.3229050247716
-0.37970000000000004,-46.45911908756781
-0.3806999999999999,-48.76509850634781
-0.38170000000000004,-51.17010771611838
-0.38269999999999993,-53.74488228187274
-0.38370000000000004,-56.404539525619015
-0.38469999999999993,-59.19152078635314
-0.38570000000000004,-62.06338472507916
-0.38669999999999993,-63.77518539791585
-0.38570000000000004,-63.98739209289561
-0.38469999999999993,-64.68060062982947
-0.38370000000000004,-65.51528029674984
-0.38269999999999993,-66.25093017267966
-0.38170000000000004,-66.91584448361623
-0.3806999999999999,-67.52417034255821
-0.37970000000000004,-67.9202895065204
-0.3786999999999999,-68.25982021848802
-0.37770000000000004,-68.48617402646643
-0.3766999999999999,-68.57105670445833
-0.37570000000000003,-68.61349804345427
-0.3746999999999999,-68.52861536546239
-0.37370000000000003,-68.34470289647993
-0.3726999999999999,-68.13249620150016
-0.37170000000000003,-67.9202895065204
-0.3706999999999999,-67.6090530205501
-0.36970000000000003,-67.21293385658788
-0.3686999999999999,-66.77437335362974
-0.3677,-66.29337151167562
-0.3666999999999999,-65.82651678272015
-0.3657,-65.2464851497755
-0.3646999999999999,-64.68060062982947
-0.3637,-64.0722747708875
-0.3626999999999999,-63.421507572949594
-0.3617,-62.77074037501168
-0.36070000000000013,-62.11997317707376
-0.3597,-61.49750020513315
-0.35870000000000013,-60.80429166819927
-0.3577,-60.11108313126541
-0.35670000000000013,-59.36128614233694
-0.3557,-58.62563626640712
-0.3547000000000001,-57.8333979384827
-0.3537,-57.097748062552874
-0.3527000000000001,-56.30550973462846
-0.3517,-55.56985985869864
-0.3507000000000001,-54.73518019177827
-0.3497,-53.9570889768525
-0.3487000000000001,-53.22143910092268
-0.3477,-52.386759434002315
-0.3467000000000001,-51.594521106077885
-0.3457,-50.81642989115212
-0.3447000000000001,-50.024191563227696
-0.3437,-49.24610034830193
-0.3427000000000001,-48.36897934238561
-0.3417,-47.590888127459834
-0.3407000000000001,-46.79864979953541
-0.3397,-45.93567590661774
-0.3387000000000001,-45.143437578693316
-0.3377,-44.36534636376755
-0.3367000000000001,-43.57310803584313
-0.3357,-42.79501682091736
-0.3347000000000001,-42.00277849299294
-0.3337,-41.22468727806717
-0.3327000000000001,-40.43244895014274
-0.3317,-39.61191639622103
-0.3307000000000001,-38.86211940729255
-0.3297,-38.08402819236679
-0.3287000000000001,-37.291789864442364
-0.3277,-36.55613998851254
-0.3267000000000001,-35.763901660588125
-0.3257,-35.02825178465831
-0.3247000000000001,-34.278454795729836
-0.3237,-33.54280491980002
-0.3227000000000001,-32.807155043870196
-0.3217,-32.05735805494172
-0.3207000000000001,-31.321708179011907
-0.3197,-30.614352529079397
-0.3187000000000001,-29.878702653149578
-0.3177,-29.18549411621571
-0.3167000000000001,-28.478138466283188
-0.3157,-27.78492992934932
-0.3147000000000001,-27.134162731411404
-0.3137,-26.483395533473487
-0.3127000000000001,-25.81848122253692
-0.3117,-25.167714024599
-0.3107000000000001,-24.516946826661083
-0.3097,-23.86617962872317
-0.3087000000000001,-23.2012653177866
-0.3077,-22.592939458844636
-0.3067000000000001,-21.94217226090672
-0.30569999999999997,-21.333846401964752
-0.3047000000000001,-20.72552054302279
-0.30369999999999997,-20.10304757108217
-0.3027000000000001,-19.537163051136158
-0.30169999999999997,-18.97127853119014
-0.3007000000000001,-18.44783535024008
-0.29969999999999997,-17.881950830294063
-0.2987000000000001,-17.316066310348052
-0.29769999999999996,-16.792623129397985
-0.2967000000000001,-16.22673860945197
-0.29569999999999996,-15.70329542850191
-0.2947000000000001,-15.179852247551842
-0.29369999999999996,-14.65640906660178
-0.29270000000000007,-14.175407224647667
-0.29169999999999996,-13.698649516593148
-0.29070000000000007,-13.217647674639037
-0.28969999999999996,-12.73806054398479
-0.28870000000000007,-12.302329463626359
-0.28769999999999996,-11.86659838326793
-0.28670000000000007,-11.385596541313816
-0.28569999999999995,-10.949865460955383
-0.28470000000000006,-10.470278330301136
-0.28369999999999995,-10.034547249942705
-0.28270000000000006,-9.59740145828441
-0.28169999999999995,-9.205526428221793
-0.28070000000000006,-8.812236686859313
-0.27969999999999995,-8.4203616567967
-0.27870000000000006,-8.070927965730034
-0.27769999999999995,-7.679052935667419
-0.27670000000000006,-7.28576319430494
-0.27569999999999995,-6.93774421453814
-0.27470000000000006,-6.588310523471475
-0.27369999999999994,-6.196435493408861
-0.27270000000000005,-5.847001802342197
-0.27169999999999994,-5.5414241615713475
-0.27070000000000005,-5.191990470504685
-0.26969999999999994,-4.887827541033701
-0.26870000000000005,-4.538393849967037
-0.26769999999999994,-4.276672259492005
-0.26670000000000005,-3.971094618721158
-0.26569999999999994,-3.6655169779503103
