Potential V vs RHE, Current mA cm-2
0.013299999999999867,0.3467457395969205
0.012299999999999978,-0.48199213986401795
0.011299999999999866,-0.9181476336124089
0.010299999999999976,-1.2671569112891135
0.009299999999999864,-1.7033124050375041
0.008299999999999974,-2.226755585987568
0.007299999999999862,-2.576189277054232
0.006299999999999972,-2.7501987669376318
0.00529999999999986,-2.924208256821031
0.0042999999999999705,-3.2297858975918787
0.0032999999999998586,-3.579219588658543
0.0022999999999999687,-3.840941179133574
0.0012999999999998568,-3.971094618721158
0.00029999999999996696,-4.0588067193127895
-0.000700000000000145,-4.3205283097878215
-0.0017000000000000348,-4.668547289554621
-0.0027000000000001467,-4.887827541033701
-0.0037000000000000366,-4.974124930325469
-0.0047000000000001485,-5.017980980621284
-0.005700000000000038,-5.235846520800501
-0.00670000000000015,-5.5414241615713475
-0.00770000000000004,-5.715433651454749
-0.008700000000000152,-5.759289701750564
-0.009700000000000042,-5.80314575204638
-0.010700000000000154,-6.021011292225596
-0.011700000000000044,-6.282732882700628
-0.012700000000000156,-6.458157083883892
-0.013700000000000045,-6.458157083883892
-0.014700000000000157,-6.458157083883892
-0.015700000000000047,-6.632166573767292
-0.01670000000000016,-6.893888164242324
-0.01770000000000005,-7.024041603829907
-0.01870000000000016,-7.024041603829907
-0.01970000000000005,-7.024041603829907
-0.020700000000000163,-7.199465805013171
-0.021700000000000053,-7.4173313451923875
-0.022700000000000164,-7.5474847847799715
-0.023700000000000054,-7.5474847847799715
-0.024700000000000166,-7.5474847847799715
-0.025700000000000056,-7.679052935667419
-0.026700000000000168,-7.896918475846635
-0.027700000000000058,-8.027071915434218
-0.02870000000000017,-7.984630576438266
-0.02970000000000006,-7.984630576438266
-0.03070000000000017,-8.11478401602585
-0.03170000000000006,-8.332649556205066
-0.03270000000000017,-8.4203616567967
-0.03370000000000006,-8.376505606500881
-0.034700000000000175,-8.332649556205066
-0.035700000000000065,-8.464217707092514
-0.03670000000000018,-8.68208324727173
-0.03770000000000007,-8.769795347863363
-0.03870000000000018,-8.725939297567548
-0.03970000000000007,-8.638227196975913
-0.04070000000000018,-8.769795347863363
-0.04170000000000007,-8.943804837746763
-0.04270000000000018,-9.031516938338395
-0.04370000000000007,-8.987660888042578
-0.044700000000000184,-8.943804837746763
-0.045700000000000074,-9.073958277334345
-0.046700000000000186,-9.293238528813426
-0.047700000000000076,-9.335679867809377
-0.04870000000000019,-9.293238528813426
-0.04970000000000008,-9.24938247851761
-0.05070000000000019,-9.335679867809377
-0.05170000000000008,-9.511104068992642
-0.05270000000000019,-9.55496011928846
-0.05370000000000008,-9.511104068992642
-0.05470000000000019,-9.423391968401008
-0.05570000000000008,-9.511104068992642
-0.056700000000000195,-9.728969609171857
-0.057700000000000085,-9.772825659467674
-0.058700000000000196,-9.685113558876042
-0.059700000000000086,-9.641257508580225
-0.0607000000000002,-9.728969609171857
-0.06170000000000009,-9.902979099055257
-0.0627000000000002,-9.946835149351072
-0.06370000000000009,-9.902979099055257
-0.0647000000000002,-9.85912304875944
-0.06570000000000009,-9.946835149351072
-0.0667000000000002,-10.120844639234473
-0.0677000000000001,-10.120844639234473
-0.0687000000000002,-10.034547249942705
-0.0697000000000001,-9.946835149351072
-0.07070000000000021,-10.034547249942705
-0.0717000000000001,-10.164700689530287
-0.07270000000000021,-10.25241279012192
-0.0737000000000001,-10.164700689530287
-0.07470000000000021,-10.078403300238522
-0.0757000000000001,-10.164700689530287
-0.07670000000000021,-10.340124890713554
-0.0777000000000001,-10.382566229709504
-0.07870000000000021,-10.296268840417738
-0.0797000000000001,-10.25241279012192
-0.08070000000000022,-10.296268840417738
-0.0817000000000001,-10.470278330301136
-0.08270000000000022,-10.514134380596953
-0.08370000000000011,-10.42642228000532
-0.08470000000000022,-10.340124890713554
-0.08570000000000011,-10.382566229709504
-0.08670000000000022,-10.557990430892769
-0.08770000000000011,-10.557990430892769
-0.08870000000000022,-10.470278330301136
-0.08970000000000011,-10.382566229709504
-0.09070000000000022,-10.470278330301136
-0.09170000000000011,-10.644287820184536
-0.09270000000000023,-10.644287820184536
-0.09370000000000012,-10.557990430892769
-0.09470000000000023,-10.470278330301136
-0.09570000000000012,-10.557990430892769
-0.09670000000000023,-10.688143870480351
-0.09770000000000012,-10.775855971071984
-0.09870000000000023,-10.688143870480351
-0.09970000000000012,-10.601846481188586
-0.10070000000000023,-10.644287820184536
-0.10170000000000012,-10.775855971071984
-0.10270000000000024,-10.819712021367803
-0.10370000000000013,-10.688143870480351
-0.10470000000000024,-10.601846481188586
-0.10570000000000013,-10.644287820184536
-0.10670000000000024,-10.775855971071984
-0.10770000000000013,-10.863568071663616
-0.10870000000000024,-10.731999920776168
-0.10970000000000013,-10.644287820184536
-0.11070000000000024,-10.688143870480351
-0.11170000000000013,-10.819712021367803
-0.11270000000000002,-10.906009410659568
-0.11370000000000013,-10.819712021367803
-0.11470000000000002,-10.731999920776168
-0.11570000000000014,-10.819712021367803
-0.11670000000000003,-10.949865460955383
-0.11770000000000014,-10.993721511251199
-0.11870000000000003,-10.906009410659568
-0.11970000000000014,-10.775855971071984
-0.12070000000000003,-10.863568071663616
-0.12170000000000014,-10.993721511251199
-0.12270000000000003,-10.993721511251199
-0.12370000000000014,-10.906009410659568
-0.12470000000000003,-10.775855971071984
-0.12570000000000014,-10.863568071663616
-0.12670000000000003,-10.993721511251199
-0.12770000000000015,-11.037577561547016
-0.12870000000000004,-10.906009410659568
-0.12970000000000015,-10.819712021367803
-0.13070000000000004,-10.863568071663616
-0.13170000000000015,-10.993721511251199
-0.13270000000000004,-11.081433611842833
-0.13370000000000015,-10.949865460955383
-0.13470000000000004,-10.863568071663616
-0.13570000000000015,-10.949865460955383
-0.13670000000000004,-11.081433611842833
-0.13770000000000016,-11.081433611842833
-0.13870000000000005,-10.993721511251199
-0.13970000000000016,-10.906009410659568
-0.14070000000000005,-10.949865460955383
-0.14170000000000016,-11.081433611842833
-0.14270000000000005,-11.123874950838783
-0.14370000000000016,-10.993721511251199
-0.14470000000000005,-10.949865460955383
-0.14570000000000016,-10.993721511251199
-0.14670000000000005,-11.123874950838783
-0.14770000000000016,-11.1677310011346
-0.14870000000000005,-11.037577561547016
-0.14970000000000017,-10.949865460955383
-0.15070000000000006,-10.993721511251199
-0.15170000000000017,-11.123874950838783
-0.15270000000000006,-11.1677310011346
-0.15370000000000017,-11.123874950838783
-0.15470000000000006,-11.037577561547016
-0.15570000000000017,-11.123874950838783
-0.15670000000000006,-11.255443101726232
-0.15770000000000017,-11.255443101726232
-0.15870000000000006,-11.1677310011346
-0.15970000000000018,-11.081433611842833
-0.16070000000000007,-11.123874950838783
-0.16170000000000018,-11.255443101726232
-0.16270000000000007,-11.299299152022046
-0.16370000000000018,-11.211587051430415
-0.16470000000000007,-11.123874950838783
-0.16570000000000018,-11.1677310011346
-0.16670000000000007,-11.299299152022046
-0.16770000000000018,-11.343155202317865
-0.16870000000000007,-11.211587051430415
-0.16970000000000018,-11.123874950838783
-0.17070000000000007,-11.211587051430415
-0.17170000000000019,-11.343155202317865
-0.17270000000000008,-11.385596541313816
-0.1737000000000002,-11.299299152022046
-0.17470000000000008,-11.255443101726232
-0.1757000000000002,-11.343155202317865
-0.17670000000000008,-11.473308641905447
-0.1777000000000002,-11.473308641905447
-0.17870000000000008,-11.385596541313816
-0.1797000000000002,-11.299299152022046
-0.18070000000000008,-11.385596541313816
-0.1817000000000002,-11.517164692201263
-0.18270000000000008,-11.56102074249708
-0.1837000000000002,-11.473308641905447
-0.1847000000000001,-11.385596541313816
-0.1857000000000002,-11.473308641905447
-0.1867000000000001,-11.647318131788847
-0.1877000000000002,-11.691174182084664
-0.1887000000000001,-11.56102074249708
-0.1897000000000002,-11.473308641905447
-0.1907000000000001,-11.56102074249708
-0.1917000000000001,-11.691174182084664
-0.19269999999999998,-11.691174182084664
-0.1937000000000001,-11.604876792792895
-0.19469999999999998,-11.56102074249708
-0.1957000000000001,-11.647318131788847
-0.19669999999999999,-11.778886282676295
-0.1977000000000001,-11.82274233297211
-0.1987,-11.73503023238048
-0.1997000000000001,-11.647318131788847
-0.2007,-11.73503023238048
-0.2017000000000001,-11.909039722263879
-0.2027,-11.996751822855511
-0.2037000000000001,-11.909039722263879
-0.2047,-11.82274233297211
-0.2057000000000001,-11.909039722263879
-0.2067,-12.040607873151327
-0.2077000000000001,-12.084463923447142
-0.2087,-11.996751822855511
-0.2097000000000001,-11.952895772559694
-0.2107,-12.040607873151327
-0.2117000000000001,-12.170761312738911
-0.2127,-12.258473413330542
-0.2137000000000001,-12.170761312738911
-0.2147,-12.12831997374296
-0.2157000000000001,-12.214617363034726
-0.2167,-12.390041564217992
-0.21770000000000012,-12.476338953509758
-0.2187,-12.390041564217992
-0.21970000000000012,-12.302329463626359
-0.2207,-12.390041564217992
-0.22170000000000012,-12.56405105410139
-0.2227,-12.651763154693022
-0.22370000000000012,-12.56405105410139
-0.2247,-12.520195003805576
-0.22570000000000012,-12.651763154693022
-0.2267,-12.781916594280606
-0.22770000000000012,-12.869628694872238
-0.22870000000000001,-12.781916594280606
-0.22970000000000013,-12.73806054398479
-0.23070000000000002,-12.825772644576423
-0.23170000000000013,-12.955926084164007
-0.23270000000000002,-12.99978213445982
-0.23370000000000013,-12.955926084164007
-0.23470000000000002,-12.913484745168056
-0.23570000000000013,-12.99978213445982
-0.23670000000000002,-13.175206335643086
-0.2376999999999999,-13.261503724934855
-0.23870000000000002,-13.217647674639037
-0.2396999999999999,-13.175206335643086
-0.24070000000000003,-13.30535977523067
-0.24169999999999991,-13.436927926118118
-0.24270000000000003,-13.523225315409885
-0.24369999999999992,-13.47936926511407
-0.24470000000000003,-13.436927926118118
-0.24569999999999992,-13.523225315409885
-0.24670000000000003,-13.741090855589102
-0.24769999999999992,-13.784946905884919
-0.24870000000000003,-13.741090855589102
-0.24969999999999992,-13.698649516593148
-0.25070000000000003,-13.828802956180734
-0.2516999999999999,-14.046668496359947
-0.25270000000000004,-14.13438059695158
-0.2536999999999999,-14.13438059695158
-0.25470000000000004,-14.090524546655764
-0.2556999999999999,-14.217848563643619
-0.25670000000000004,-14.444202371622024
-0.25769999999999993,-14.57152638860988
-0.25870000000000004,-14.529085049613924
-0.25969999999999993,-14.529085049613924
-0.26070000000000004,-14.61396772760583
-0.26169999999999993,-14.826174422585586
-0.26270000000000004,-14.967645552572087
-0.26369999999999993,-14.967645552572087
-0.26470000000000005,-14.967645552572087
-0.26569999999999994,-15.094969569559943
-0.26670000000000005,-15.264734925543747
-0.26769999999999994,-15.3920589425316
-0.26870000000000005,-15.3920589425316
-0.26969999999999994,-15.3920589425316
-0.27070000000000005,-15.575971411514052
-0.27169999999999994,-15.78817810649381
-0.27270000000000005,-15.91550212348166
-0.27369999999999994,-15.91550212348166
-0.27470000000000006,-15.972090575476265
-0.27569999999999995,-16.141855931460068
-0.27670000000000006,-16.396503965435777
-0.27769999999999995,-16.580416434418233
-0.27870000000000006,-16.580416434418233
-0.27969999999999995,-16.622857773414182
-0.28070000000000006,-16.835064468393938
-0.28169999999999995,-17.061418276372343
-0.28270000000000006,-17.231183632356142
-0.28369999999999995,-17.231183632356142
-0.28470000000000006,-17.2736249713521
-0.28569999999999995,-17.48583166633185
-0.28670000000000007,-17.797068152302163
-0.28769999999999996,-17.966833508285966
-0.28870000000000007,-18.009274847281915
-0.28969999999999996,-18.06586329927652
-0.29070000000000007,-18.320511333252224
-0.29169999999999996,-18.674189158218486
-0.29270000000000007,-18.843954514202288
-0.29369999999999996,-18.97127853119014
-0.2947000000000001,-19.056161209182044
-0.29569999999999996,-19.28251501716045
-0.2967000000000001,-19.636192842126707
-0.29769999999999996,-19.848399537106463
-0.2987000000000001,-19.93328221509837
-0.29969999999999997,-20.10304757108217
-0.3007000000000001,-20.371842718056527
-0.30169999999999997,-20.76796188201874
-0.3027000000000001,-21.065051254990397
-0.30369999999999997,-21.149933932982297
-0.3047000000000001,-21.376287740960702
-0.30569999999999997,-21.67337711393236
-0.3067000000000001,-22.111937616890522
-0.3077,-22.46561544185678
-0.3087000000000001,-22.67782213683654
-0.3097,-22.946617283810895
-0.3107000000000001,-23.342736447773106
-0.3117,-23.767149837732617
-0.3127000000000001,-24.120827662698876
-0.3137,-24.389622809673234
-0.3147000000000001,-24.686712182644893
-0.3157,-25.0828313466071
-0.3167000000000001,-25.60627452755716
-0.3177,-26.129717708507226
-0.3187000000000001,-26.483395533473487
-0.3197,-26.86536758443705
-0.3207000000000001,-27.38881076538711
-0.3217,-28.09616641531963
-0.3227000000000001,-28.704492274261593
-0.3237,-29.22793545521166
-0.3247000000000001,-29.793819975157668
-0.3257,-30.529469851087494
-0.3267000000000001,-31.40659085700382
-0.3277,-32.24127052392419
-0.3287000000000001,-32.93447906085806
-0.3297,-33.627687597791926
-0.3307000000000001,-34.632132620696105
-0.3317,-35.721460321592176
-0.3327000000000001,-36.725905344496354
-0.3337,-37.73035036740053
-0.3347000000000001,-38.692354051308754
-0.3357,-39.82412309120078
-0.3367000000000001,-41.04077480908471
-0.3377,-42.2715736399673
-0.3387000000000001,-43.31846000186743
-0.3397,-44.45022904175945
-0.3407000000000001,-45.70932209863933
-0.3417,-47.067444946509774
-0.3427000000000001,-48.41142068138156
-0.3437,-49.59977817326819
-0.3447000000000001,-50.73154721316022
-0.3457,-51.990640270040096
-0.3467000000000001,-53.30632177891458
-0.3477,-54.56541483579447
-0.3487000000000001,-55.6971838756865
-0.3497,-56.786511576582576
-0.3507000000000001,-58.017310407465146
-0.3517,-59.27640346434504
-0.3527000000000001,-60.59208497321952
-0.3537,-61.72385401311155
-0.3547000000000001,-62.81318171400764
-0.3557,-64.0722747708875
-0.35670000000000013,-65.43039761875795
-0.3577,-66.68949067563783
-0.35870000000000013,-67.9202895065204
-0.3597,-69.0944998854084
-0.36070000000000013,-70.35359294228827
-0.3617,-71.7117157901587
-0.3626999999999999,-72.92836750804264
-0.3637,-74.0176952089387
-0.3646999999999999,-75.02214023184291
-0.3657,-76.06902659374302
-0.3666999999999999,-77.28567831162695
-0.3677,-78.47403580351359
-0.3686999999999999,-79.42189237442317
-0.36970000000000003,-80.38389605833139
-0.3706999999999999,-81.43078242023151
-0.37170000000000003,-82.61913991211814
-0.3726999999999999,-83.79335029100612
-0.37370000000000003,-84.8826779919022
-0.3746999999999999,-85.92956435380233
-0.37570000000000003,-87.10377473269031
-0.3766999999999999,-88.46189758056073
-0.37770000000000004,-89.67854929844468
-0.3786999999999999,-90.6405529823529
-0.37970000000000004,-91.64499800525708
-0.3806999999999999,-92.73432570615316
-0.38170000000000004,-93.86609474604518
-0.38269999999999993,-94.95542244694126
-0.38370000000000004,-95.87498479185354
-0.38469999999999993,-96.79454713676581
-0.38570000000000004,-97.78484504667132
-0.38669999999999993,-98.09608153264163
-0.38570000000000004,-96.92187115375367
-0.38469999999999993,-95.56374830588322
-0.38370000000000004,-94.47442060498715
-0.38269999999999993,-93.51241692107894
-0.38170000000000004,-92.6918843671572
-0.3806999999999999,-91.98452871722468
-0.37970000000000004,-91.03667214631511
-0.3786999999999999,-90.07466846240689
-0.37770000000000004,-89.28243013448247
-0.3766999999999999,-88.46189758056073
-0.37570000000000003,-87.41501121866061
-0.3746999999999999,-86.32568351776455
-0.37370000000000003,-84.92511933089816
-0.3726999999999999,-83.75090895201016
-0.37170000000000003,-82.8313466070979
-0.3706999999999999,-81.78446024519776
-0.36970000000000003,-80.65269120530574
-0.3686999999999999,-79.52092216541372
-0.3677,-78.51647714250953
-0.3666999999999999,-77.51203211960537
-0.3657,-76.50758709670117
-0.3646999999999999,-75.46070073480107
-0.3637,-74.41381437290093
-0.3626999999999999,-73.49425202798865
-0.3617,-72.57468968307639
-0.36070000000000013,-71.7965984681506
-0.3597,-70.87703612323833
-0.35870000000000013,-69.8301497613382
-0.3577,-69.0944998854084
-0.35670000000000013,-68.04761352350828
-0.3557,-66.12360615569182
-0.3547000000000001,-65.03427845479574
-0.3537,-63.98739209289561
-0.3527000000000001,-63.11027108697928
-0.3517,-62.20485585506566
-0.3507000000000001,-61.455058866137186
-0.3497,-60.49305518222897
-0.3487000000000001,-59.587639950315335
-0.3477,-58.62563626640712
-0.3467000000000001,-57.974869068469204
-0.3457,-57.22507207954074
-0.3447000000000001,-56.36209818662306
-0.3437,-55.527418519702685
-0.3427000000000001,-54.69273885278232
-0.3417,-53.9570889768525
-0.3407000000000001,-53.30632177891458
-0.3397,-52.514083450990164
-0.3387000000000001,-51.65110955807249
-0.3377,-50.943753908139975
-0.3367000000000001,-50.335428049198
-0.3357,-49.50074838227763
-0.3347000000000001,-48.68021582835591
-0.3337,-47.76065348344364
-0.3327000000000001,-47.067444946509774
-0.3317,-46.41667774857186
-0.3307000000000001,-45.70932209863933
-0.3297,-44.93123088371356
-0.3287000000000001,-44.096551216793195
-0.3277,-43.40334267985933
-0.3267000000000001,-42.79501682091736
-0.3257,-42.130102509980794
-0.3247000000000001,-41.43689397304693
-0.3237,-40.65880275812115
-0.3227000000000001,-39.99388844718459
-0.3217,-39.51288660523048
-0.3207000000000001,-38.90456074628851
-0.3197,-38.253793548350586
-0.3187000000000001,-37.51814367242077
-0.3177,-36.95225915247476
-0.3167000000000001,-36.47125731052064
-0.3157,-35.90537279057463
-0.3147000000000001,-35.15557580164616
-0.3137,-34.41992592571634
-0.3127000000000001,-33.85404140577033
-0.3117,-33.330598224820264
-0.3107000000000001,-32.807155043870196
-0.3097,-32.14224073293363
-0.3087000000000001,-31.449032195999767
-0.3077,-30.925589015049702
-0.3067000000000001,-30.487028512091538
-0.30569999999999997,-29.96358533114148
-0.3047000000000001,-29.35525947219951
-0.30369999999999997,-28.746933613257543
-0.3027000000000001,-28.265931771303435
-0.30169999999999997,-27.869812607341224
-0.3007000000000001,-27.43125210438306
-0.29969999999999997,-26.780484906445146
-0.2987000000000001,-26.17215904750318
-0.29769999999999996,-25.691157205549064
-0.2967000000000001,-25.295038041586857
-0.29569999999999996,-24.814036199632742
-0.2947000000000001,-24.24815167968673
-0.29369999999999996,-23.682267159740714
-0.29270000000000007,-23.24370665678255
-0.29169999999999996,-22.861734605818995
-0.29070000000000007,-22.42317410286083
-0.28969999999999996,-21.899730921910766
-0.28870000000000007,-21.333846401964752
-0.28769999999999996,-20.93772723800254
-0.28670000000000007,-20.626490752032236
-0.28569999999999995,-20.244518701068674
-0.28470000000000006,-19.721075520118614
-0.28369999999999995,-19.2400736781645
-0.28270000000000006,-18.843954514202288
-0.28169999999999995,-18.53271802823198
-0.28070000000000006,-18.19318731626437
-0.27969999999999995,-17.669744135314307
-0.27870000000000006,-17.188742293360193
-0.27769999999999995,-16.792623129397985
-0.27670000000000006,-16.53797509542228
-0.27569999999999995,-16.184297270456018
-0.27470000000000006,-15.70329542850191
-0.27369999999999994,-15.264734925543747
-0.27270000000000005,-14.925204213576137
-0.27169999999999994,-14.69885040559773
-0.27070000000000005,-14.401761032626075
-0.26969999999999994,-14.002812446064135
-0.26870000000000005,-13.567081365705702
-0.26769999999999994,-13.261503724934855
