Dec. 19, 2024   20:20:09
Cyclic Voltammetry
File: c:/users/guazh/data/banditlqround7_x0exp667_r5/2024-12-16-exp704\exp704-2024-12-19t20_14_12-h2koh\exp704_cv_sr_100mvs_efin_-1400mv.bin
Data Source:  Experiment
Instrument Model:  CHI760E
Header: CV ran at 100 mVs
Note: 

Init E (V) = -1
High E (V) = -1
Low E (V) = -1.4
Final E (V) = -1
Init P/N = N
Scan Rate (V/s) = 0.1
Segment = 3
Sample Interval (V) = 0.001
Quiet Time (sec) = 2
Sensitivity (A/V) = 0.01
Comp R (ohm) = 1.2

Results:

Channel 1:
Segment 1:

Segment 2:

Segment 3:

Potential/V, Current/A

-1.000, -2.439e-3
-1.001, -2.309e-3
-1.002, -2.173e-3
-1.003, -2.066e-3
-1.004, -1.944e-3
-1.005, -1.837e-3
-1.006, -1.737e-3
-1.007, -1.621e-3
-1.008, -1.534e-3
-1.009, -1.429e-3
-1.010, -1.336e-3
-1.011, -1.250e-3
-1.012, -1.150e-3
-1.013, -1.077e-3
-1.014, -9.832e-4
-1.015, -9.010e-4
-1.016, -8.254e-4
-1.017, -7.349e-4
-1.018, -6.681e-4
-1.019, -5.840e-4
-1.020, -5.098e-4
-1.021, -4.409e-4
-1.022, -3.587e-4
-1.023, -2.980e-4
-1.024, -2.186e-4
-1.025, -1.510e-4
-1.026, -8.855e-5
-1.027, -1.153e-5
-1.028, 4.343e-5
-1.029, 1.157e-4
-1.030, 1.775e-4
-1.031, 2.353e-4
-1.032, 3.069e-4
-1.033, 3.570e-4
-1.034, 4.248e-4
-1.035, 4.827e-4
-1.036, 5.360e-4
-1.037, 6.034e-4
-1.038, 6.486e-4
-1.039, 7.131e-4
-1.040, 7.673e-4
-1.041, 8.174e-4
-1.042, 8.833e-4
-1.043, 9.249e-4
-1.044, 9.857e-4
-1.045, 1.036e-3
-1.046, 1.083e-3
-1.047, 1.143e-3
-1.048, 1.181e-3
-1.049, 1.239e-3
-1.050, 1.286e-3
-1.051, 1.329e-3
-1.052, 1.385e-3
-1.053, 1.418e-3
-1.054, 1.471e-3
-1.055, 1.515e-3
-1.056, 1.557e-3
-1.057, 1.612e-3
-1.058, 1.646e-3
-1.059, 1.697e-3
-1.060, 1.738e-3
-1.061, 1.777e-3
-1.062, 1.830e-3
-1.063, 1.862e-3
-1.064, 1.911e-3
-1.065, 1.953e-3
-1.066, 1.992e-3
-1.067, 2.044e-3
-1.068, 2.069e-3
-1.069, 2.113e-3
-1.070, 2.151e-3
-1.071, 2.181e-3
-1.072, 2.230e-3
-1.073, 2.255e-3
-1.074, 2.303e-3
-1.075, 2.347e-3
-1.076, 2.380e-3
-1.077, 2.429e-3
-1.078, 2.457e-3
-1.079, 2.503e-3
-1.080, 2.542e-3
-1.081, 2.576e-3
-1.082, 2.623e-3
-1.083, 2.649e-3
-1.084, 2.694e-3
-1.085, 2.732e-3
-1.086, 2.761e-3
-1.087, 2.808e-3
-1.088, 2.832e-3
-1.089, 2.874e-3
-1.090, 2.911e-3
-1.091, 2.942e-3
-1.092, 2.991e-3
-1.093, 3.013e-3
-1.094, 3.054e-3
-1.095, 3.093e-3
-1.096, 3.124e-3
-1.097, 3.174e-3
-1.098, 3.199e-3
-1.099, 3.242e-3
-1.100, 3.271e-3
-1.101, 3.308e-3
-1.102, 3.356e-3
-1.103, 3.372e-3
-1.104, 3.420e-3
-1.105, 3.451e-3
-1.106, 3.480e-3
-1.107, 3.522e-3
-1.108, 3.542e-3
-1.109, 3.582e-3
-1.110, 3.614e-3
-1.111, 3.646e-3
-1.112, 3.691e-3
-1.113, 3.716e-3
-1.114, 3.759e-3
-1.115, 3.794e-3
-1.116, 3.826e-3
-1.117, 3.868e-3
-1.118, 3.886e-3
-1.119, 3.925e-3
-1.120, 3.962e-3
-1.121, 3.988e-3
-1.122, 4.030e-3
-1.123, 4.055e-3
-1.124, 4.099e-3
-1.125, 4.134e-3
-1.126, 4.165e-3
-1.127, 4.209e-3
-1.128, 4.233e-3
-1.129, 4.274e-3
-1.130, 4.305e-3
-1.131, 4.333e-3
-1.132, 4.375e-3
-1.133, 4.399e-3
-1.134, 4.443e-3
-1.135, 4.476e-3
-1.136, 4.505e-3
-1.137, 4.548e-3
-1.138, 4.569e-3
-1.139, 4.611e-3
-1.140, 4.646e-3
-1.141, 4.672e-3
-1.142, 4.714e-3
-1.143, 4.735e-3
-1.144, 4.776e-3
-1.145, 4.816e-3
-1.146, 4.849e-3
-1.147, 4.898e-3
-1.148, 4.930e-3
-1.149, 4.975e-3
-1.150, 5.009e-3
-1.151, 5.039e-3
-1.152, 5.081e-3
-1.153, 5.105e-3
-1.154, 5.147e-3
-1.155, 5.178e-3
-1.156, 5.208e-3
-1.157, 5.255e-3
-1.158, 5.275e-3
-1.159, 5.306e-3
-1.160, 5.338e-3
-1.161, 5.368e-3
-1.162, 5.410e-3
-1.163, 5.431e-3
-1.164, 5.471e-3
-1.165, 5.506e-3
-1.166, 5.536e-3
-1.167, 5.583e-3
-1.168, 5.601e-3
-1.169, 5.642e-3
-1.170, 5.676e-3
-1.171, 5.703e-3
-1.172, 5.748e-3
-1.173, 5.767e-3
-1.174, 5.806e-3
-1.175, 5.839e-3
-1.176, 5.878e-3
-1.177, 5.931e-3
-1.178, 5.932e-3
-1.179, 5.954e-3
-1.180, 5.983e-3
-1.181, 5.994e-3
-1.182, 6.041e-3
-1.183, 6.056e-3
-1.184, 6.105e-3
-1.185, 6.145e-3
-1.186, 6.178e-3
-1.187, 6.238e-3
-1.188, 6.265e-3
-1.189, 6.312e-3
-1.190, 6.351e-3
-1.191, 6.384e-3
-1.192, 6.424e-3
-1.193, 6.450e-3
-1.194, 6.489e-3
-1.195, 6.515e-3
-1.196, 6.548e-3
-1.197, 6.614e-3
-1.198, 6.623e-3
-1.199, 6.669e-3
-1.200, 6.699e-3
-1.201, 6.720e-3
-1.202, 6.770e-3
-1.203, 6.791e-3
-1.204, 6.834e-3
-1.205, 6.866e-3
-1.206, 6.894e-3
-1.207, 6.939e-3
-1.208, 6.962e-3
-1.209, 7.008e-3
-1.210, 7.046e-3
-1.211, 7.076e-3
-1.212, 7.124e-3
-1.213, 7.149e-3
-1.214, 7.190e-3
-1.215, 7.227e-3
-1.216, 7.261e-3
-1.217, 7.308e-3
-1.218, 7.339e-3
-1.219, 7.384e-3
-1.220, 7.416e-3
-1.221, 7.449e-3
-1.222, 7.499e-3
-1.223, 7.528e-3
-1.224, 7.574e-3
-1.225, 7.618e-3
-1.226, 7.649e-3
-1.227, 7.695e-3
-1.228, 7.733e-3
-1.229, 7.784e-3
-1.230, 7.820e-3
-1.231, 7.854e-3
-1.232, 7.902e-3
-1.233, 7.929e-3
-1.234, 7.976e-3
-1.235, 8.017e-3
-1.236, 8.049e-3
-1.237, 8.096e-3
-1.238, 8.125e-3
-1.239, 8.171e-3
-1.240, 8.210e-3
-1.241, 8.246e-3
-1.242, 8.297e-3
-1.243, 8.331e-3
-1.244, 8.388e-3
-1.245, 8.440e-3
-1.246, 8.488e-3
-1.247, 8.547e-3
-1.248, 8.580e-3
-1.249, 8.644e-3
-1.250, 8.679e-3
-1.251, 8.718e-3
-1.252, 8.765e-3
-1.253, 8.798e-3
-1.254, 8.856e-3
-1.255, 8.895e-3
-1.256, 8.935e-3
-1.257, 8.975e-3
-1.258, 9.025e-3
-1.259, 9.082e-3
-1.260, 9.114e-3
-1.261, 9.148e-3
-1.262, 9.175e-3
-1.263, 9.206e-3
-1.264, 9.242e-3
-1.265, 9.282e-3
-1.266, 9.322e-3
-1.267, 9.374e-3
-1.268, 9.408e-3
-1.269, 9.469e-3
-1.270, 9.529e-3
-1.271, 9.566e-3
-1.272, 9.617e-3
-1.273, 9.609e-3
-1.274, 9.651e-3
-1.275, 9.698e-3
-1.276, 9.727e-3
-1.277, 9.754e-3
-1.278, 9.796e-3
-1.279, 9.851e-3
-1.280, 9.938e-3
-1.281, 9.998e-3
-1.282, 1.003e-2
-1.283, 1.004e-2
-1.284, 1.007e-2
-1.285, 1.013e-2
-1.286, 1.019e-2
-1.287, 1.024e-2
-1.288, 1.028e-2
-1.289, 1.032e-2
-1.290, 1.039e-2
-1.291, 1.041e-2
-1.292, 1.047e-2
-1.293, 1.052e-2
-1.294, 1.058e-2
-1.295, 1.062e-2
-1.296, 1.066e-2
-1.297, 1.071e-2
-1.298, 1.075e-2
-1.299, 1.081e-2
-1.300, 1.086e-2
-1.301, 1.090e-2
-1.302, 1.097e-2
-1.303, 1.100e-2
-1.304, 1.105e-2
-1.305, 1.109e-2
-1.306, 1.113e-2
-1.307, 1.119e-2
-1.308, 1.124e-2
-1.309, 1.130e-2
-1.310, 1.133e-2
-1.311, 1.137e-2
-1.312, 1.143e-2
-1.313, 1.148e-2
-1.314, 1.154e-2
-1.315, 1.163e-2
-1.316, 1.169e-2
-1.317, 1.175e-2
-1.318, 1.179e-2
-1.319, 1.184e-2
-1.320, 1.189e-2
-1.321, 1.194e-2
-1.322, 1.203e-2
-1.323, 1.206e-2
-1.324, 1.208e-2
-1.325, 1.212e-2
-1.326, 1.218e-2
-1.327, 1.224e-2
-1.328, 1.229e-2
-1.329, 1.234e-2
-1.330, 1.238e-2
-1.331, 1.243e-2
-1.332, 1.250e-2
-1.333, 1.255e-2
-1.334, 1.260e-2
-1.335, 1.265e-2
-1.336, 1.267e-2
-1.337, 1.273e-2
-1.338, 1.277e-2
-1.339, 1.282e-2
-1.340, 1.288e-2
-1.341, 1.292e-2
-1.342, 1.297e-2
-1.343, 1.301e-2
-1.344, 1.307e-2
-1.345, 1.312e-2
-1.346, 1.315e-2
-1.347, 1.324e-2
-1.348, 1.328e-2
-1.349, 1.335e-2
-1.350, 1.337e-2
-1.351, 1.339e-2
-1.352, 1.342e-2
-1.353, 1.347e-2
-1.354, 1.351e-2
-1.355, 1.355e-2
-1.356, 1.359e-2
-1.357, 1.366e-2
-1.358, 1.369e-2
-1.359, 1.375e-2
-1.360, 1.380e-2
-1.361, 1.384e-2
-1.362, 1.392e-2
-1.363, 1.395e-2
-1.364, 1.400e-2
-1.365, 1.405e-2
-1.366, 1.410e-2
-1.367, 1.417e-2
-1.368, 1.420e-2
-1.369, 1.425e-2
-1.370, 1.431e-2
-1.371, 1.436e-2
-1.372, 1.442e-2
-1.373, 1.445e-2
-1.374, 1.450e-2
-1.375, 1.456e-2
-1.376, 1.460e-2
-1.377, 1.467e-2
-1.378, 1.465e-2
-1.379, 1.468e-2
-1.380, 1.470e-2
-1.381, 1.469e-2
-1.382, 1.472e-2
-1.383, 1.473e-2
-1.384, 1.479e-2
-1.385, 1.485e-2
-1.386, 1.490e-2
-1.387, 1.496e-2
-1.388, 1.502e-2
-1.389, 1.510e-2
-1.390, 1.515e-2
-1.391, 1.518e-2
-1.392, 1.525e-2
-1.393, 1.530e-2
-1.394, 1.536e-2
-1.395, 1.543e-2
-1.396, 1.548e-2
-1.397, 1.553e-2
-1.398, 1.556e-2
-1.399, 1.559e-2
-1.400, 1.551e-2
-1.399, 1.528e-2
-1.398, 1.509e-2
-1.397, 1.488e-2
-1.396, 1.467e-2
-1.395, 1.448e-2
-1.394, 1.428e-2
-1.393, 1.410e-2
-1.392, 1.391e-2
-1.391, 1.372e-2
-1.390, 1.353e-2
-1.389, 1.333e-2
-1.388, 1.315e-2
-1.387, 1.296e-2
-1.386, 1.279e-2
-1.385, 1.261e-2
-1.384, 1.243e-2
-1.383, 1.226e-2
-1.382, 1.208e-2
-1.381, 1.191e-2
-1.380, 1.174e-2
-1.379, 1.156e-2
-1.378, 1.141e-2
-1.377, 1.123e-2
-1.376, 1.107e-2
-1.375, 1.090e-2
-1.374, 1.073e-2
-1.373, 1.057e-2
-1.372, 1.040e-2
-1.371, 1.025e-2
-1.370, 1.009e-2
-1.369, 9.924e-3
-1.368, 9.799e-3
-1.367, 9.634e-3
-1.366, 9.495e-3
-1.365, 9.336e-3
-1.364, 9.179e-3
-1.363, 9.054e-3
-1.362, 8.904e-3
-1.361, 8.772e-3
-1.360, 8.633e-3
-1.359, 8.485e-3
-1.358, 8.355e-3
-1.357, 8.206e-3
-1.356, 8.073e-3
-1.355, 7.934e-3
-1.354, 7.792e-3
-1.353, 7.680e-3
-1.352, 7.553e-3
-1.351, 7.436e-3
-1.350, 7.307e-3
-1.349, 7.163e-3
-1.348, 7.036e-3
-1.347, 6.887e-3
-1.346, 6.751e-3
-1.345, 6.622e-3
-1.344, 6.491e-3
-1.343, 6.378e-3
-1.342, 6.252e-3
-1.341, 6.148e-3
-1.340, 6.034e-3
-1.339, 5.913e-3
-1.338, 5.811e-3
-1.337, 5.684e-3
-1.336, 5.577e-3
-1.335, 5.460e-3
-1.334, 5.339e-3
-1.333, 5.234e-3
-1.332, 5.110e-3
-1.331, 5.006e-3
-1.330, 4.899e-3
-1.329, 4.782e-3
-1.328, 4.688e-3
-1.327, 4.570e-3
-1.326, 4.470e-3
-1.325, 4.368e-3
-1.324, 4.258e-3
-1.323, 4.165e-3
-1.322, 4.050e-3
-1.321, 3.955e-3
-1.320, 3.856e-3
-1.319, 3.750e-3
-1.318, 3.662e-3
-1.317, 3.555e-3
-1.316, 3.465e-3
-1.315, 3.370e-3
-1.314, 3.267e-3
-1.313, 3.186e-3
-1.312, 3.083e-3
-1.311, 2.996e-3
-1.310, 2.906e-3
-1.309, 2.807e-3
-1.308, 2.728e-3
-1.307, 2.629e-3
-1.306, 2.546e-3
-1.305, 2.458e-3
-1.304, 2.362e-3
-1.303, 2.289e-3
-1.302, 2.192e-3
-1.301, 2.113e-3
-1.300, 2.028e-3
-1.299, 1.940e-3
-1.298, 1.870e-3
-1.297, 1.778e-3
-1.296, 1.704e-3
-1.295, 1.622e-3
-1.294, 1.536e-3
-1.293, 1.468e-3
-1.292, 1.380e-3
-1.291, 1.308e-3
-1.290, 1.232e-3
-1.289, 1.149e-3
-1.288, 1.084e-3
-1.287, 9.992e-4
-1.286, 9.301e-4
-1.285, 8.575e-4
-1.284, 7.762e-4
-1.283, 7.148e-4
-1.282, 6.323e-4
-1.281, 5.673e-4
-1.280, 4.956e-4
-1.279, 4.182e-4
-1.278, 3.598e-4
-1.277, 2.807e-4
-1.276, 2.186e-4
-1.275, 1.517e-4
-1.274, 7.748e-5
-1.273, 2.133e-5
-1.272, -5.477e-5
-1.271, -1.145e-4
-1.270, -1.786e-4
-1.269, -2.501e-4
-1.268, -3.033e-4
-1.267, -3.762e-4
-1.266, -4.330e-4
-1.265, -4.952e-4
-1.264, -5.642e-4
-1.263, -6.145e-4
-1.262, -6.864e-4
-1.261, -7.414e-4
-1.260, -8.011e-4
-1.259, -8.691e-4
-1.258, -9.181e-4
-1.257, -9.889e-4
-1.256, -1.041e-3
-1.255, -1.099e-3
-1.254, -1.165e-3
-1.253, -1.210e-3
-1.252, -1.279e-3
-1.251, -1.328e-3
-1.250, -1.383e-3
-1.249, -1.447e-3
-1.248, -1.493e-3
-1.247, -1.560e-3
-1.246, -1.610e-3
-1.245, -1.666e-3
-1.244, -1.728e-3
-1.243, -1.771e-3
-1.242, -1.836e-3
-1.241, -1.885e-3
-1.240, -1.937e-3
-1.239, -1.998e-3
-1.238, -2.040e-3
-1.237, -2.104e-3
-1.236, -2.151e-3
-1.235, -2.203e-3
-1.234, -2.264e-3
-1.233, -2.306e-3
-1.232, -2.367e-3
-1.231, -2.411e-3
-1.230, -2.462e-3
-1.229, -2.527e-3
-1.228, -2.567e-3
-1.227, -2.630e-3
-1.226, -2.675e-3
-1.225, -2.723e-3
-1.224, -2.780e-3
-1.223, -2.821e-3
-1.222, -2.889e-3
-1.221, -2.931e-3
-1.220, -2.978e-3
-1.219, -3.029e-3
-1.218, -3.068e-3
-1.217, -3.135e-3
-1.216, -3.182e-3
-1.215, -3.239e-3
-1.214, -3.294e-3
-1.213, -3.331e-3
-1.212, -3.392e-3
-1.211, -3.436e-3
-1.210, -3.484e-3
-1.209, -3.539e-3
-1.208, -3.585e-3
-1.207, -3.648e-3
-1.206, -3.693e-3
-1.205, -3.741e-3
-1.204, -3.795e-3
-1.203, -3.832e-3
-1.202, -3.891e-3
-1.201, -3.938e-3
-1.200, -3.984e-3
-1.199, -4.040e-3
-1.198, -4.080e-3
-1.197, -4.139e-3
-1.196, -4.185e-3
-1.195, -4.231e-3
-1.194, -4.285e-3
-1.193, -4.323e-3
-1.192, -4.382e-3
-1.191, -4.428e-3
-1.190, -4.478e-3
-1.189, -4.535e-3
-1.188, -4.575e-3
-1.187, -4.634e-3
-1.186, -4.679e-3
-1.185, -4.727e-3
-1.184, -4.784e-3
-1.183, -4.820e-3
-1.182, -4.877e-3
-1.181, -4.920e-3
-1.180, -4.970e-3
-1.179, -5.026e-3
-1.178, -5.064e-3
-1.177, -5.124e-3
-1.176, -5.168e-3
-1.175, -5.218e-3
-1.174, -5.279e-3
-1.173, -5.315e-3
-1.172, -5.375e-3
-1.171, -5.419e-3
-1.170, -5.469e-3
-1.169, -5.528e-3
-1.168, -5.563e-3
-1.167, -5.621e-3
-1.166, -5.661e-3
-1.165, -5.706e-3
-1.164, -5.763e-3
-1.163, -5.801e-3
-1.162, -5.860e-3
-1.161, -5.904e-3
-1.160, -5.953e-3
-1.159, -6.011e-3
-1.158, -6.049e-3
-1.157, -6.109e-3
-1.156, -6.156e-3
-1.155, -6.212e-3
-1.154, -6.267e-3
-1.153, -6.301e-3
-1.152, -6.359e-3
-1.151, -6.400e-3
-1.150, -6.448e-3
-1.149, -6.495e-3
-1.148, -6.543e-3
-1.147, -6.612e-3
-1.146, -6.691e-3
-1.145, -6.761e-3
-1.144, -6.820e-3
-1.143, -6.864e-3
-1.142, -6.923e-3
-1.141, -6.954e-3
-1.140, -6.977e-3
-1.139, -7.007e-3
-1.138, -7.035e-3
-1.137, -7.087e-3
-1.136, -7.127e-3
-1.135, -7.181e-3
-1.134, -7.232e-3
-1.133, -7.273e-3
-1.132, -7.333e-3
-1.131, -7.377e-3
-1.130, -7.429e-3
-1.129, -7.493e-3
-1.128, -7.538e-3
-1.127, -7.589e-3
-1.126, -7.634e-3
-1.125, -7.680e-3
-1.124, -7.732e-3
-1.123, -7.761e-3
-1.122, -7.822e-3
-1.121, -7.860e-3
-1.120, -7.905e-3
-1.119, -7.961e-3
-1.118, -7.990e-3
-1.117, -8.044e-3
-1.116, -8.083e-3
-1.115, -8.128e-3
-1.114, -8.182e-3
-1.113, -8.210e-3
-1.112, -8.264e-3
-1.111, -8.318e-3
-1.110, -8.373e-3
-1.109, -8.429e-3
-1.108, -8.470e-3
-1.107, -8.523e-3
-1.106, -8.560e-3
-1.105, -8.602e-3
-1.104, -8.656e-3
-1.103, -8.675e-3
-1.102, -8.720e-3
-1.101, -8.763e-3
-1.100, -8.803e-3
-1.099, -8.852e-3
-1.098, -8.884e-3
-1.097, -8.944e-3
-1.096, -8.978e-3
-1.095, -9.031e-3
-1.094, -9.081e-3
-1.093, -9.107e-3
-1.092, -9.157e-3
-1.091, -9.193e-3
-1.090, -9.236e-3
-1.089, -9.286e-3
-1.088, -9.318e-3
-1.087, -9.366e-3
-1.086, -9.396e-3
-1.085, -9.426e-3
-1.084, -9.468e-3
-1.083, -9.494e-3
-1.082, -9.543e-3
-1.081, -9.583e-3
-1.080, -9.624e-3
-1.079, -9.672e-3
-1.078, -9.700e-3
-1.077, -9.734e-3
-1.076, -9.767e-3
-1.075, -9.810e-3
-1.074, -9.858e-3
-1.073, -9.883e-3
-1.072, -9.916e-3
-1.071, -9.944e-3
-1.070, -9.987e-3
-1.069, -1.005e-2
-1.068, -1.004e-2
-1.067, -1.011e-2
-1.066, -1.013e-2
-1.065, -1.018e-2
-1.064, -1.022e-2
-1.063, -1.023e-2
-1.062, -1.027e-2
-1.061, -1.030e-2
-1.060, -1.033e-2
-1.059, -1.037e-2
-1.058, -1.039e-2
-1.057, -1.042e-2
-1.056, -1.044e-2
-1.055, -1.046e-2
-1.054, -1.049e-2
-1.053, -1.052e-2
-1.052, -1.056e-2
-1.051, -1.058e-2
-1.050, -1.061e-2
-1.049, -1.065e-2
-1.048, -1.067e-2
-1.047, -1.071e-2
-1.046, -1.073e-2
-1.045, -1.076e-2
-1.044, -1.080e-2
-1.043, -1.081e-2
-1.042, -1.085e-2
-1.041, -1.087e-2
-1.040, -1.089e-2
-1.039, -1.092e-2
-1.038, -1.093e-2
-1.037, -1.096e-2
-1.036, -1.098e-2
-1.035, -1.100e-2
-1.034, -1.103e-2
-1.033, -1.104e-2
-1.032, -1.108e-2
-1.031, -1.110e-2
-1.030, -1.112e-2
-1.029, -1.116e-2
-1.028, -1.117e-2
-1.027, -1.121e-2
-1.026, -1.122e-2
-1.025, -1.124e-2
-1.024, -1.128e-2
-1.023, -1.129e-2
-1.022, -1.133e-2
-1.021, -1.134e-2
-1.020, -1.135e-2
-1.019, -1.137e-2
-1.018, -1.139e-2
-1.017, -1.143e-2
-1.016, -1.144e-2
-1.015, -1.145e-2
-1.014, -1.148e-2
-1.013, -1.148e-2
-1.012, -1.151e-2
-1.011, -1.152e-2
-1.010, -1.154e-2
-1.009, -1.157e-2
-1.008, -1.157e-2
-1.007, -1.159e-2
-1.006, -1.161e-2
-1.005, -1.163e-2
-1.004, -1.166e-2
-1.003, -1.166e-2
-1.002, -1.170e-2
-1.001, -1.171e-2
