Potential V vs RHE, Current mA cm-2
0.013299999999999867,26.780484906445146
0.012299999999999978,24.814036199632742
0.011299999999999866,22.80514615382439
0.010299999999999976,20.93772723800254
0.009299999999999864,19.098602548177997
0.008299999999999974,17.358507649344002
0.007299999999999862,15.70329542850191
0.006299999999999972,14.042424362460354
0.00529999999999986,12.428238769314348
0.0042999999999999705,10.771611837172388
0.0032999999999998586,9.06971414343475
0.0022999999999999687,7.369231160996977
0.0012999999999998568,5.581036077967569
0.00029999999999996696,3.922994434525747
-0.000700000000000145,2.30880884137974
-0.0017000000000000348,0.7393281253094681
-0.0027000000000001467,-0.7872868383748929
-0.0037000000000000366,-2.226755585987568
-0.0047000000000001485,-3.7093730282461257
-0.005700000000000038,-5.235846520800501
-0.00670000000000015,-6.762320013354876
-0.00770000000000004,-8.332649556205066
-0.008700000000000152,-9.946835149351072
-0.009700000000000042,-11.517164692201263
-0.010700000000000154,-13.087494235051453
-0.011700000000000044,-14.529085049613924
-0.012700000000000156,-15.87306078448571
-0.013700000000000045,-17.231183632356142
-0.014700000000000157,-18.589306480226583
-0.015700000000000047,-19.97572355409432
-0.01670000000000016,-21.418729079956652
-0.01770000000000005,-22.904175944814945
-0.01870000000000016,-24.389622809673234
-0.01970000000000005,-25.81848122253692
-0.020700000000000163,-27.261486748399253
-0.021700000000000053,-28.577168257273744
-0.022700000000000164,-29.878702653149578
-0.023700000000000054,-31.095354371033505
-0.024700000000000166,-32.41103587990799
-0.025700000000000056,-33.670128936787876
-0.026700000000000168,-35.02825178465831
-0.027700000000000058,-36.47125731052064
-0.02870000000000017,-37.81523304539243
-0.02970000000000006,-39.173355893262865
-0.03070000000000017,-40.51733162813464
-0.03170000000000006,-41.74813045901723
-0.03270000000000017,-42.96478217690117
-0.03370000000000006,-44.138992555789144
-0.034700000000000175,-45.36979138667173
-0.035700000000000065,-46.586443104555656
-0.03670000000000018,-47.84553616143554
-0.03770000000000007,-49.16121767031002
-0.03870000000000018,-50.50519340518181
-0.03970000000000007,-51.77843357506035
-0.04070000000000018,-53.079967970936174
-0.04170000000000007,-54.26832546282281
-0.04270000000000018,-55.400094502714836
-0.04370000000000007,-56.489422203610914
-0.044700000000000184,-57.66363258249889
-0.045700000000000074,-58.79540162239092
-0.046700000000000186,-60.06864179226946
-0.047700000000000076,-61.28529351015339
-0.04870000000000019,-62.544386567033264
-0.04970000000000008,-63.81762673691181
-0.05070000000000019,-65.03427845479574
-0.05170000000000008,-66.12360615569182
-0.05270000000000019,-67.21293385658788
-0.05370000000000008,-68.25982021848802
-0.05470000000000019,-69.39158925838004
-0.05570000000000008,-70.48091695927613
-0.056700000000000195,-71.6268331121668
-0.057700000000000085,-72.84348483005074
-0.058700000000000196,-74.06013654793468
-0.059700000000000086,-75.29093537881725
-0.0607000000000002,-76.46514575770523
-0.06170000000000009,-77.55447345860131
-0.0627000000000002,-78.60135982050144
-0.06370000000000009,-79.60580484340561
-0.0647000000000002,-80.65269120530574
-0.06570000000000009,-81.69957756720586
-0.0667000000000002,-82.8313466070979
-0.0677000000000001,-84.00555698598588
-0.0687000000000002,-85.17976736487385
-0.0697000000000001,-86.36812485676049
-0.07070000000000021,-87.49989389665252
-0.0717000000000001,-88.54678025855264
-0.07270000000000021,-89.50878394246087
-0.0737000000000001,-90.47078762636909
-0.07470000000000021,-91.46108553627462
-0.0757000000000001,-92.4655305591788
-0.07670000000000021,-93.55485826007487
-0.0777000000000001,-94.7432157519615
-0.07870000000000021,-95.91742613084948
-0.0797000000000001,-97.04919517074151
-0.08070000000000022,-98.18096421063355
-0.0817000000000001,-99.22785057253368
-0.08270000000000022,-100.23229559543785
-0.08370000000000011,-101.23674061834203
-0.08470000000000022,-102.19874430225026
-0.08570000000000011,-103.20318932515443
-0.08670000000000022,-104.25007568705455
-0.08770000000000011,-105.38184472694657
-0.08870000000000022,-106.51361376683862
-0.08970000000000011,-107.6029414677347
-0.09070000000000022,-108.64982782963483
-0.09170000000000011,-109.654272852539
-0.09270000000000023,-110.65871787544317
-0.09370000000000012,-111.57828022035544
-0.09470000000000023,-112.58272524325962
-0.09570000000000012,-113.48814047517324
-0.09670000000000023,-114.4925854980774
-0.09770000000000012,-115.5819131989735
-0.09870000000000023,-116.67124089986959
-0.09970000000000012,-117.77471571376431
-0.10070000000000023,-118.86404341466037
-0.10170000000000012,-119.86848843756455
-0.10270000000000024,-120.85878634747009
-0.10370000000000013,-121.77834869238235
-0.10470000000000024,-122.69791103729463
-0.10570000000000013,-123.65991472120285
-0.10670000000000024,-124.70680108310299
-0.10770000000000013,-125.79612878399907
-0.10870000000000024,-126.88545648489513
-0.10970000000000013,-127.88990150779931
-0.11070000000000024,-128.85190519170752
-0.11170000000000013,-129.75732042362114
-0.11270000000000002,-130.7193241075294
-0.11370000000000013,-131.55400377444977
-0.11470000000000002,-132.41697766736743
-0.11570000000000014,-133.37898135127566
-0.11670000000000003,-134.38342637417986
-0.11770000000000014,-135.43031273607997
-0.11870000000000003,-136.51964043697603
-0.11970000000000014,-137.52408545988024
-0.12070000000000003,-138.57097182178035
-0.12170000000000014,-139.57541684468453
-0.12270000000000003,-140.53742052859275
-0.12370000000000014,-141.3721001955131
-0.12470000000000003,-142.17848563643616
-0.12570000000000014,-143.16878354634173
-0.12670000000000003,-144.15908145624724
-0.12770000000000015,-145.29085049613926
-0.12870000000000004,-146.28114840604482
-0.12970000000000015,-147.27144631595033
-0.13070000000000004,-148.40321535584232
-0.13170000000000015,-149.39351326574788
-0.13270000000000004,-150.24234004566688
-0.13370000000000015,-151.09116682558593
-0.13470000000000004,-151.93999360550492
-0.13570000000000015,-152.78882038542397
-0.13670000000000004,-153.77911829532948
-0.13770000000000016,-154.9108873352215
-0.13870000000000005,-155.90118524512707
-0.13970000000000016,-156.89148315503257
-0.14070000000000005,-158.02325219492457
-0.14170000000000016,-158.87207897484362
-0.14270000000000005,-159.86237688474912
-0.14370000000000016,-160.71120366466818
-0.14470000000000005,-161.5600304445872
-0.14570000000000016,-162.40885722450622
-0.14670000000000005,-163.54062626439824
-0.14770000000000016,-164.53092417430375
-0.14870000000000005,-165.6626932141958
-0.14970000000000017,-166.65299112410133
-0.15070000000000006,-167.78476016399335
-0.15170000000000017,-168.63358694391238
-0.15270000000000006,-169.48241372383137
-0.15370000000000017,-170.33124050375042
-0.15470000000000006,-171.18006728366944
-0.15570000000000017,-172.0288940635885
-0.15670000000000006,-172.87772084350746
-0.15770000000000017,-174.0094898833995
-0.15870000000000006,-174.99978779330505
-0.15970000000000018,-175.99008570321055
-0.16070000000000007,-177.1218547431026
-0.16170000000000018,-178.1121526530081
-0.16270000000000007,-179.10245056291362
-0.16370000000000018,-179.95127734283267
-0.16470000000000007,-180.94157525273818
-0.16570000000000018,-181.93187316264374
-0.16670000000000007,-182.92217107254925
-0.16770000000000018,-183.91246898245475
-0.16870000000000007,-184.9027668923603
-0.16970000000000018,-185.89306480226583
-0.17070000000000007,-187.02483384215788
-0.17170000000000019,-187.87366062207687
-0.17270000000000008,-188.72248740199586
-0.1737000000000002,-189.57131418191491
-0.17470000000000008,-190.42014096183394
-0.1757000000000002,-191.41043887173947
-0.17670000000000008,-192.2592656516585
-0.1777000000000002,-193.249563561564
-0.17870000000000008,-194.38133260145605
-0.1797000000000002,-195.37163051136156
-0.18070000000000008,-196.3619284212671
-0.1817000000000002,-197.21075520118612
-0.18270000000000008,-198.05958198110514
-0.1837000000000002,-198.90840876102413
-0.1847000000000001,-199.75723554094319
-0.1857000000000002,-200.6060623208622
-0.1867000000000001,-201.59636023076774
-0.1877000000000002,-202.58665814067325
-0.1887000000000001,-203.57695605057876
-0.1897000000000002,-204.7087250904708
-0.1907000000000001,-205.69902300037634
-0.1917000000000001,-206.54784978029537
-0.19269999999999998,-207.3966765602144
-0.1937000000000001,-208.3869744701199
-0.19469999999999998,-209.23580125003892
-0.1957000000000001,-210.22609915994445
-0.19669999999999999,-211.21639706985
-0.1977000000000001,-212.2066949797555
-0.1987,-213.33846401964755
-0.1997000000000001,-214.32876192955305
-0.2007,-215.17758870947208
-0.2017000000000001,-216.0264154893911
-0.2027,-217.01671339929663
-0.2037000000000001,-217.86554017921566
-0.2047,-218.85583808912116
-0.2057000000000001,-219.7046648690402
-0.2067,-220.6949627789457
-0.2077000000000001,-221.82673181883774
-0.2087,-222.9585008587298
-0.2097000000000001,-224.09026989862178
-0.2107,-225.08056780852735
-0.2117000000000001,-225.92939458844637
-0.2127,-226.91969249835188
-0.2137000000000001,-228.0514615382439
-0.2147,-229.04175944814943
-0.2157000000000001,-229.89058622806846
-0.2167,-230.880884137974
-0.21770000000000012,-232.01265317786604
-0.2187,-233.00295108777152
-0.21970000000000012,-233.85177786769057
-0.2207,-234.84207577759608
-0.22170000000000012,-235.69090255751513
-0.2227,-236.53972933743412
-0.22370000000000012,-237.24708498736666
-0.2247,-237.9544406372992
-0.22570000000000012,-238.94473854720468
-0.2267,-239.7935653271237
-0.22770000000000012,-240.78386323702924
-0.22870000000000001,-241.77416114693477
-0.22970000000000013,-242.62298792685377
-0.23070000000000002,-243.6132858367593
-0.23170000000000013,-244.46211261667833
-0.23270000000000002,-245.31093939659738
-0.23370000000000013,-246.15976617651637
-0.23470000000000002,-246.8671218264489
-0.23570000000000013,-247.71594860636796
-0.23670000000000002,-248.70624651627344
-0.2376999999999999,-249.5550732961925
-0.23870000000000002,-250.6868423360845
-0.2396999999999999,-251.53566911600356
-0.24070000000000003,-252.52596702590907
-0.24169999999999991,-253.37479380582806
-0.24270000000000003,-254.2236205857471
-0.24369999999999992,-254.93097623567962
-0.24470000000000003,-255.77980301559862
-0.24569999999999992,-256.62862979551767
-0.24670000000000003,-257.6189277054232
-0.24769999999999992,-258.4677544853422
-0.24870000000000003,-259.4580523952477
-0.24969999999999992,-260.16540804518024
-0.25070000000000003,-261.1557059550858
-0.2516999999999999,-262.0045327350048
-0.25270000000000004,-262.9948306449103
-0.2536999999999999,-263.84365742482936
-0.25470000000000004,-264.6924842047484
-0.2556999999999999,-265.5413109846674
-0.25670000000000004,-266.5316088945729
-0.25769999999999993,-267.5219068044785
-0.25870000000000004,-268.512204714384
-0.25969999999999993,-269.5025026242895
-0.26070000000000004,-270.49280053419506
-0.26169999999999993,-271.341627314114
-0.26270000000000004,-272.1904540940331
-0.26369999999999993,-272.8978097439656
-0.26470000000000005,-273.7466365238846
-0.26569999999999994,-274.7369344337901
-0.26670000000000005,-275.86870347368216
-0.26769999999999994,-277.0004725135742
-0.26870000000000005,-278.1322415534662
-0.26969999999999994,-278.9810683333853
-0.27070000000000005,-279.82989511330425
-0.27169999999999994,-280.82019302320975
-0.27270000000000005,-281.66901980312883
-0.27369999999999994,-282.3763754530613
-0.27470000000000006,-283.3666733629668
-0.27569999999999995,-284.35697127287233
-0.27670000000000006,-285.3472691827779
-0.27769999999999995,-286.33756709268346
-0.27870000000000006,-287.327865002589
-0.27969999999999995,-288.3181629124945
-0.28070000000000006,-289.3084608224
-0.28169999999999995,-290.157287602319
-0.28270000000000006,-291.14758551222457
-0.28369999999999995,-291.9964122921436
-0.28470000000000006,-293.1281813320356
-0.28569999999999995,-294.11847924194115
-0.28670000000000007,-295.10877715184665
-0.28769999999999996,-296.2405461917387
-0.28870000000000007,-297.3723152316307
-0.28969999999999996,-298.3626131415362
-0.29070000000000007,-299.3529110514418
-0.29169999999999996,-300.3432089613473
-0.29270000000000007,-301.33350687125284
-0.29369999999999996,-302.18233365117186
-0.2947000000000001,-303.0311604310908
-0.29569999999999996,-304.0214583409964
-0.2967000000000001,-305.0117562509019
-0.29769999999999996,-306.1435252907939
-0.2987000000000001,-307.1338232006995
-0.29969999999999997,-308.2655922405915
-0.3007000000000001,-309.1144190205105
-0.30169999999999997,-309.9632458004295
-0.3027000000000001,-310.95354371033505
-0.30369999999999997,-311.6608993602676
-0.3047000000000001,-312.50972614018656
-0.30569999999999997,-313.35855292010564
-0.3067000000000001,-314.34885083001114
-0.3077,-315.4806198699032
-0.3087000000000001,-316.6123889097952
-0.3097,-317.60268681970075
-0.3107000000000001,-318.4515135996198
-0.3117,-319.15886924955225
-0.3127000000000001,-319.8662248994848
-0.3137,-320.57358054941733
-0.3147000000000001,-321.42240732933635
-0.3157,-322.2712341092554
-0.3167000000000001,-323.2615320191609
-0.3177,-324.3933010590529
-0.3187000000000001,-325.3835989689584
-0.3197,-326.23242574887746
-0.3207000000000001,-327.3641947887695
-0.3217,-328.2130215686885
-0.3227000000000001,-329.20331947859404
-0.3237,-329.9106751285266
-0.3247000000000001,-330.7595019084456
-0.3257,-331.6083286883646
-0.3267000000000001,-332.59862659827013
-0.3277,-333.44745337818915
-0.3287000000000001,-334.43775128809466
-0.3297,-335.42804919800017
-0.3307000000000001,-336.4183471079057
-0.3317,-337.40864501781124
-0.3327000000000001,-338.2574717977303
-0.3337,-338.96482744766274
-0.3347000000000001,-339.95512535756825
-0.3357,-340.80395213748733
-0.3367000000000001,-341.7942500473929
-0.3377,-342.7845479572984
-0.3387000000000001,-343.7748458672039
-0.3397,-344.7651437771094
-0.3407000000000001,-345.7554416870149
-0.3417,-346.7457395969205
-0.3427000000000001,-347.3116241168665
-0.3437,-347.87750863681254
-0.3447000000000001,-348.72633541673156
-0.3457,-349.5751621966506
-0.3467000000000001,-350.5654601065561
-0.3477,-351.4142868864751
-0.3487000000000001,-352.4045847963807
-0.3497,-353.3948827062862
-0.3507000000000001,-354.2437094862052
-0.3517,-355.09253626612417
-0.3527000000000001,-355.7998919160567
-0.3537,-356.50724756598925
-0.3547000000000001,-357.35607434590827
-0.3557,-358.20490112582723
-0.35670000000000013,-358.91225677575983
-0.3577,-359.90255468566534
-0.35870000000000013,-361.0343237255574
-0.3597,-362.0246216354629
-0.36070000000000013,-363.0149195453684
-0.3617,-363.8637463252875
-0.3626999999999999,-364.7125731052065
-0.3637,-365.56139988512547
-0.3646999999999999,-366.4102266650445
-0.3657,-366.97611118499054
-0.3666999999999999,-367.96640909489605
-0.3677,-369.09817813478804
-0.3686999999999999,-370.2299471746801
-0.36970000000000003,-371.0787739545991
-0.3706999999999999,-372.0690718645047
-0.37170000000000003,-372.9178986444237
-0.3726999999999999,-373.6252542943562
-0.37370000000000003,-374.3326099442887
-0.3746999999999999,-375.0399655942212
-0.37570000000000003,-375.8887923741402
-0.3766999999999999,-377.0205614140323
-0.37770000000000004,-378.0108593239378
-0.3786999999999999,-379.14262836382983
-0.37970000000000004,-380.13292627373534
-0.3806999999999999,-381.12322418364084
-0.38170000000000004,-382.11352209354635
-0.38269999999999993,-382.96234887346543
-0.38370000000000004,-383.6697045233979
-0.38469999999999993,-384.6600024333035
-0.38570000000000004,-385.5088292132225
-0.38669999999999993,-385.22588695324947
-0.38570000000000004,-382.3964643535194
-0.38469999999999993,-379.56704175378934
-0.38370000000000004,-376.7376191540593
-0.38269999999999993,-374.04966768431575
-0.38170000000000004,-371.3617162145721
-0.3806999999999999,-368.5322936148421
-0.37970000000000004,-365.8443421450985
-0.3786999999999999,-363.2978618053415
-0.37770000000000004,-360.6099103355978
-0.3766999999999999,-357.7804877358678
-0.37570000000000003,-355.2340073961107
-0.3746999999999999,-352.68752705635364
-0.37370000000000003,-350.2825178465831
-0.3726999999999999,-347.73603750682605
-0.37170000000000003,-345.1895571670689
-0.3706999999999999,-342.64307682731186
-0.36970000000000003,-340.2380676175413
-0.3686999999999999,-337.69158727778427
-0.3677,-335.1451069380272
-0.3666999999999999,-332.59862659827013
-0.3657,-330.19361738849955
-0.3646999999999999,-327.9300793087155
-0.3637,-325.5250700989449
-0.3626999999999999,-322.97858975918786
-0.3617,-320.4321094194308
-0.36070000000000013,-317.8856290796738
-0.3597,-315.3391487399167
-0.35870000000000013,-312.9341395301461
-0.3577,-310.38765919038906
-0.35670000000000013,-307.841178850632
-0.3557,-305.57764077084795
-0.3547000000000001,-303.31410269106385
-0.3537,-301.0505646112798
-0.3527000000000001,-298.78702653149577
-0.3517,-296.3820173217252
-0.3507000000000001,-293.9770081119546
-0.3497,-291.571998902184
-0.3487000000000001,-289.1669896924135
-0.3477,-286.76198048264297
-0.3467000000000001,-284.49844240285887
-0.3457,-282.2349043230748
-0.3447000000000001,-280.11283737327733
-0.3437,-277.84929929349323
-0.3427000000000001,-275.58576121370913
-0.3417,-273.3222231339251
-0.3407000000000001,-270.9172139241545
-0.3397,-268.65367584437047
-0.3387000000000001,-266.2486666345999
-0.3377,-263.98512855481584
-0.3367000000000001,-261.7215904750318
-0.3357,-259.59952352523425
-0.3347000000000001,-257.4774565754367
-0.3337,-255.21391849565262
-0.3327000000000001,-253.09185154585506
-0.3317,-250.6868423360845
-0.3307000000000001,-248.42330425630044
-0.3297,-246.01829504652986
-0.3287000000000001,-243.75475696674582
-0.3277,-241.49121888696175
-0.3267000000000001,-239.2276808071777
-0.3257,-237.24708498736666
-0.3247000000000001,-235.12501803756908
-0.3237,-233.00295108777152
-0.3227000000000001,-230.880884137974
-0.3217,-228.61734605818995
-0.3207000000000001,-226.49527910839237
-0.3197,-224.2317410286083
-0.3187000000000001,-221.96820294882426
-0.3177,-219.7046648690402
-0.3167000000000001,-217.58259791924263
-0.3157,-215.4605309694451
-0.3147000000000001,-213.47993514963403
-0.3137,-211.35786819983647
-0.3127000000000001,-209.37727238002543
-0.3117,-207.25520543022787
-0.3107000000000001,-205.13313848043032
-0.3097,-202.86960040064628
-0.3087000000000001,-200.7475334508487
-0.3077,-198.62546650105114
-0.3067000000000001,-196.6448706812401
-0.30569999999999997,-194.66427486142905
-0.3047000000000001,-192.683679041618
-0.30369999999999997,-190.70308322180696
-0.3027000000000001,-188.58101627200938
-0.30169999999999997,-186.60042045219836
-0.3007000000000001,-184.47835350240078
-0.29969999999999997,-182.21481542261674
-0.2987000000000001,-180.09274847281918
-0.29769999999999996,-178.1121526530081
-0.2967000000000001,-176.13155683319707
-0.29569999999999996,-174.150961013386
-0.2947000000000001,-172.31183632356147
-0.29369999999999996,-170.33124050375042
-0.29270000000000007,-168.35064468393938
-0.29169999999999996,-166.22857773414182
-0.29070000000000007,-164.24798191433075
-0.28969999999999996,-162.12591496453322
-0.28870000000000007,-160.00384801473567
-0.28769999999999996,-158.02325219492457
-0.28670000000000007,-156.04265637511355
-0.28569999999999995,-154.203531685289
-0.28470000000000006,-152.36440699546444
-0.28369999999999995,-150.38381117565342
-0.28270000000000006,-148.54468648582886
-0.28169999999999995,-146.7055617960043
-0.28070000000000006,-144.58349484620675
-0.27969999999999995,-142.6028990263957
-0.27870000000000006,-140.5798618675887
-0.27769999999999995,-138.65585449977226
-0.27670000000000006,-136.7884355839504
-0.27569999999999995,-134.94931089412586
-0.27470000000000006,-133.12433331729994
-0.27369999999999994,-131.28520862747538
-0.27270000000000005,-129.41778971165354
-0.27169999999999994,-127.53622368283307
-0.27070000000000005,-125.5273336370247
-0.26969999999999994,-123.532590704215
-0.26870000000000005,-121.60858333639854
-0.26769999999999994,-119.72701730757805
