Potential V vs RHE, Current mA cm-2
0.013299999999999867,2.427644590568403
0.012299999999999978,0.7236248298809663
0.011299999999999866,-0.657840754437242
0.010299999999999976,-1.8362952672248178
0.009299999999999864,-2.9029875873230555
0.008299999999999974,-3.8734795390304706
0.007299999999999862,-4.757674101446118
0.006299999999999972,-5.524447625972968
0.00529999999999986,-6.204923761208051
0.0042999999999999705,-6.872667494744348
0.0032999999999998586,-7.510702290983478
0.0022999999999999687,-8.110539882126256
0.0012999999999998568,-8.649544887374834
0.00029999999999996696,-9.112155482430701
-0.000700000000000145,-9.601645592184004
-0.0017000000000000348,-10.082647434138115
-0.0027000000000001467,-10.529696204895469
-0.0037000000000000366,-10.942791904456058
-0.0047000000000001485,-11.31627568762043
-0.005700000000000038,-11.705321295083316
-0.00670000000000015,-12.122661128543498
-0.00770000000000004,-12.503218468207196
-0.008700000000000152,-12.842749180174803
-0.009700000000000042,-13.155400377444975
-0.010700000000000154,-13.492101666812855
-0.011700000000000044,-13.854267759578304
-0.012700000000000156,-14.189554337646317
-0.013700000000000045,-14.514937936615278
-0.014700000000000157,-14.797880196588284
-0.015700000000000047,-15.06667534356264
-0.01670000000000016,-15.4203531685289
-0.01770000000000005,-15.74573676749786
-0.01870000000000016,-16.014531914472215
-0.01970000000000005,-16.269179948447924
-0.020700000000000163,-16.56626932141958
-0.021700000000000053,-16.891652920388537
-0.022700000000000164,-17.20288940635885
-0.023700000000000054,-17.471684553333205
-0.024700000000000166,-17.74047970030756
-0.025700000000000056,-18.03756907327922
-0.026700000000000168,-18.348805559249524
-0.027700000000000058,-18.674189158218486
-0.02870000000000017,-18.95713141819149
-0.02970000000000006,-19.211779452167196
-0.03070000000000017,-19.508868825138855
-0.03170000000000006,-19.820105311109163
-0.03270000000000017,-20.13134179707947
-0.03370000000000006,-20.414284057052477
-0.034700000000000175,-20.683079204026836
-0.035700000000000065,-20.980168576998494
-0.03670000000000018,-21.30555217596745
-0.03770000000000007,-21.63093577493641
-0.03870000000000018,-21.94217226090672
-0.03970000000000007,-22.210967407881075
-0.04070000000000018,-22.522203893851387
-0.04170000000000007,-22.861734605818995
-0.04270000000000018,-23.15882397879065
-0.04370000000000007,-23.48420757775961
-0.044700000000000184,-23.781296950731264
-0.045700000000000074,-24.092533436701576
-0.046700000000000186,-24.44621126166783
-0.047700000000000076,-24.799889086634096
-0.04870000000000019,-25.12527268560305
-0.04970000000000008,-25.40821494557606
-0.05070000000000019,-25.719451431546364
-0.05170000000000008,-26.058982143513976
-0.05270000000000019,-26.38436574248293
-0.05370000000000008,-26.709749341451893
-0.05470000000000019,-27.0209858274222
-0.05570000000000008,-27.37466365238846
-0.056700000000000195,-27.78492992934932
-0.057700000000000085,-28.166901980312883
-0.058700000000000196,-28.506432692280487
-0.059700000000000086,-28.8176691782508
-0.0607000000000002,-29.171347003217054
-0.06170000000000009,-29.567466167179266
-0.0627000000000002,-29.949438218142824
-0.06370000000000009,-30.303116043109085
-0.0647000000000002,-30.62849964207804
-0.06570000000000009,-30.99632458004295
-0.0667000000000002,-31.392443744005163
-0.0677000000000001,-31.816857133964678
-0.0687000000000002,-32.170534958930936
-0.0697000000000001,-32.56665412289314
-0.07070000000000021,-32.96277328685535
-0.0717000000000001,-33.344745337818914
-0.07270000000000021,-33.740864501781125
-0.0737000000000001,-34.09454232674739
-0.07470000000000021,-34.41992592571634
-0.0757000000000001,-34.787750863681254
-0.07670000000000021,-35.226311366639415
-0.0777000000000001,-35.679018982596226
-0.07870000000000021,-36.230756389543586
-0.0797000000000001,-36.669316892501755
-0.08070000000000022,-37.05128894346531
-0.0817000000000001,-37.376672542434264
-0.08270000000000022,-37.73035036740053
-0.08370000000000011,-38.154763757360044
-0.08470000000000022,-38.5084415823263
-0.08570000000000011,-38.8762665202912
-0.08670000000000022,-39.28653279725207
-0.08770000000000011,-39.72509330021023
-0.08870000000000022,-40.135359577171094
-0.08970000000000011,-40.559772967130606
-0.09070000000000022,-41.01248058308742
-0.09170000000000011,-41.49348242504152
-0.09270000000000023,-41.91789581500104
-0.09370000000000012,-42.28572075296594
-0.09470000000000023,-42.653545690930855
-0.09570000000000012,-43.04966485489307
-0.09670000000000023,-43.50237247084988
-0.09770000000000012,-44.011668538801295
-0.09870000000000023,-44.43608192876081
-0.09970000000000012,-44.86049531872031
-0.10070000000000023,-45.31320293467712
-0.10170000000000012,-45.76591055063393
-0.10270000000000024,-46.176176827594794
-0.10370000000000013,-46.572295991557006
-0.10470000000000024,-46.99670938151652
-0.10570000000000013,-47.435269884474685
-0.10670000000000024,-47.902124613430146
-0.10770000000000013,-48.36897934238561
-0.10870000000000024,-48.79339273234511
-0.10970000000000013,-49.21780612230463
-0.11070000000000024,-49.628072399265484
-0.11170000000000013,-50.052485789224995
-0.11270000000000002,-50.43445784018856
-0.11370000000000013,-50.81642989115212
-0.11470000000000002,-51.21254905511432
-0.11570000000000014,-51.65110955807249
-0.11670000000000003,-52.17455273902255
-0.11770000000000014,-52.68384880697396
-0.11870000000000003,-53.12240930993213
-0.11970000000000014,-53.518528473894335
-0.12070000000000003,-53.999530315848446
-0.12170000000000014,-54.537120609797164
-0.12270000000000003,-54.919092660760725
-0.12370000000000014,-55.23032914673103
-0.12470000000000003,-55.59815408469595
-0.12570000000000014,-56.093303039648696
-0.12670000000000003,-56.65918755959472
-0.12770000000000015,-57.12604228855018
-0.12870000000000004,-57.57874990450699
-0.12970000000000015,-57.98901618146786
-0.13070000000000004,-58.38513534543006
-0.13170000000000015,-58.83784296138688
-0.13270000000000004,-59.33299191633964
-0.13370000000000015,-59.7432581933005
-0.13470000000000004,-60.19596580925731
-0.13570000000000015,-60.64867342521412
-0.13670000000000004,-61.12967526716824
-0.13770000000000016,-61.58238288312505
-0.13870000000000005,-61.9926491600859
-0.13970000000000016,-62.38876832404812
-0.14070000000000005,-62.81318171400764
-0.14170000000000016,-63.251742216965795
-0.14270000000000005,-63.71859694592126
-0.14370000000000016,-64.14301033588076
-0.14470000000000005,-64.55327661284163
-0.14570000000000016,-65.00598422879844
-0.14670000000000005,-65.43039761875795
-0.14770000000000016,-65.93969368670936
-0.14870000000000005,-66.39240130266617
-0.14970000000000017,-66.77437335362974
-0.15070000000000006,-67.21293385658788
-0.15170000000000017,-67.7222299245393
-0.15270000000000006,-68.18908465349477
-0.15370000000000017,-68.61349804345427
-0.15470000000000006,-69.0096172074165
-0.15570000000000017,-69.47647193637195
-0.15670000000000006,-69.9716208913247
-0.15770000000000017,-70.45262273327883
-0.15870000000000006,-70.89118323623698
-0.15970000000000018,-71.28730240019921
-0.16070000000000007,-71.69756867716005
-0.16170000000000018,-72.16442340611552
-0.16270000000000007,-72.63127813507097
-0.16370000000000018,-73.08398575102778
-0.16470000000000007,-73.53669336698461
-0.16570000000000018,-74.10257788693062
-0.16670000000000007,-74.68260951987529
-0.16770000000000018,-75.0504344578402
-0.16870000000000007,-75.51728918679565
-0.16970000000000018,-75.96999680275246
-0.17070000000000007,-76.40855730571064
-0.17170000000000019,-76.98858893865528
-0.17270000000000008,-77.37056098961885
-0.1737000000000002,-77.73838592758376
-0.17470000000000008,-78.26182910853383
-0.1757000000000002,-78.71453672449066
-0.17670000000000008,-79.2945683574353
-0.1777000000000002,-79.7472759733921
-0.17870000000000008,-80.18583647635029
-0.1797000000000002,-80.62439697930844
-0.18070000000000008,-81.03466325626928
-0.1817000000000002,-81.51566509822342
-0.18270000000000008,-81.99666694017753
-0.1837000000000002,-82.40693321713839
-0.1847000000000001,-82.76061104210466
-0.1857000000000002,-83.14258309306821
-0.1867000000000001,-83.63773204802096
-0.1877000000000002,-84.07629255097913
-0.1887000000000001,-84.28849924595887
-0.1897000000000002,-84.75535397491434
-0.1907000000000001,-85.40612117285227
-0.1917000000000001,-86.19835950077669
-0.19269999999999998,-86.8208324727173
-0.1937000000000001,-87.20280452368085
-0.19469999999999998,-87.45745255765657
-0.1957000000000001,-87.98089573860662
-0.19669999999999999,-88.26383799857963
-0.1977000000000001,-88.53263314555399
-0.1987,-88.85801674452296
-0.1997000000000001,-89.48048971646357
-0.2007,-90.06052134940825
-0.2017000000000001,-90.65470009535156
-0.2027,-91.16399616330297
-0.2037000000000001,-91.60255666626112
-0.2047,-92.01282294322199
-0.2057000000000001,-92.45138344618015
-0.2067,-92.87579683613966
-0.2077000000000001,-93.39924001708972
-0.2087,-93.89438897204248
-0.2097000000000001,-94.3753908139966
-0.2107,-94.87053976894937
-0.2117000000000001,-95.42227717589672
-0.2127,-95.95986746984543
-0.2137000000000001,-96.38428085980493
-0.2147,-96.90772404075501
-0.2157000000000001,-97.41702010870642
-0.2167,-97.96875751565379
-0.21770000000000012,-98.5629362615971
-0.2187,-99.00149676455526
-0.21970000000000012,-99.52493994550532
-0.2207,-100.00594178745945
-0.22170000000000012,-100.65670898539736
-0.2227,-101.22259350534338
-0.22370000000000012,-101.64700689530288
-0.2247,-102.09971451125969
-0.22570000000000012,-102.66559903120572
-0.2267,-103.14660087315983
-0.22770000000000012,-103.5568671501207
-0.22870000000000001,-103.92469208808559
-0.22970000000000013,-104.4056939300397
-0.23070000000000002,-104.99987267598301
-0.23170000000000013,-105.53746296993172
-0.23270000000000002,-106.17408305487102
-0.23370000000000013,-106.78240891381296
-0.23470000000000002,-107.16438096477653
-0.23570000000000013,-107.67367703272794
-0.23670000000000002,-108.29615000466856
-0.2376999999999999,-108.89032875061187
-0.23870000000000002,-109.42791904456058
-0.2396999999999999,-109.89477377351605
-0.24070000000000003,-110.4748054064607
-0.24169999999999991,-111.04068992640673
-0.24270000000000003,-111.6207215593514
-0.24369999999999992,-112.11587051430415
-0.24470000000000003,-112.69590214724884
-0.24569999999999992,-113.23349244119754
-0.24670000000000003,-113.87011252613681
-0.24769999999999992,-114.47843838507877
-0.24870000000000003,-115.18579403501128
-0.24969999999999992,-115.7516785549573
-0.25070000000000003,-116.33171018790196
-0.2516999999999999,-116.96833027284121
-0.25270000000000004,-117.60495035778048
-0.2536999999999999,-118.0859521997346
-0.25470000000000004,-118.59524826768603
-0.2556999999999999,-119.1469856746334
-0.25670000000000004,-119.82604709856861
-0.25769999999999993,-120.53340274850112
-0.25870000000000004,-121.11343438144578
-0.25969999999999993,-121.65102467539451
-0.26070000000000004,-122.31593898633106
-0.26169999999999993,-123.06573597525954
-0.26270000000000004,-123.6740618342015
-0.26369999999999993,-124.25409346714616
-0.26470000000000005,-124.9614491170787
-0.26569999999999994,-125.72539321900584
-0.26670000000000005,-126.56007288592619
-0.26769999999999994,-127.56451790883035
-0.26870000000000005,-128.31431489775883
-0.26969999999999994,-128.9792292086954
-0.27070000000000005,-129.5451137286414
-0.27169999999999994,-130.16758670058204
-0.27270000000000005,-130.7193241075294
-0.27369999999999994,-131.4266797574619
-0.27470000000000006,-132.02085850340524
-0.27569999999999995,-132.75650837933503
-0.27670000000000006,-133.60533515925405
-0.27769999999999995,-134.256102357192
-0.27870000000000006,-134.9351637811272
-0.27969999999999995,-135.79813767404485
-0.28070000000000006,-136.13766838601245
-0.28169999999999995,-136.27913951599896
-0.28270000000000006,-136.5054933239774
-0.28369999999999995,-137.31187876490046
-0.28470000000000006,-138.17485265781812
-0.28569999999999995,-139.1792976807223
-0.28670000000000007,-140.12715425163188
-0.28769999999999996,-140.89109835355902
-0.28870000000000007,-141.47112998650366
-0.28969999999999996,-142.03701450644968
-0.29070000000000007,-142.7443701563822
-0.29169999999999996,-143.0273124163552
-0.29270000000000007,-143.0273124163552
-0.29369999999999996,-143.0273124163552
-0.2947000000000001,-143.0273124163552
-0.29569999999999996,-143.0273124163552
-0.2967000000000001,-143.0273124163552
-0.29769999999999996,-143.0273124163552
-0.2987000000000001,-143.0273124163552
-0.29969999999999997,-143.0273124163552
-0.3007000000000001,-143.0273124163552
-0.30169999999999997,-143.0273124163552
-0.3027000000000001,-143.0273124163552
-0.30369999999999997,-143.0273124163552
-0.3047000000000001,-143.0273124163552
-0.30569999999999997,-143.0273124163552
-0.3067000000000001,-143.0273124163552
-0.3077,-143.0273124163552
-0.3087000000000001,-143.0273124163552
-0.3097,-143.0273124163552
-0.3107000000000001,-143.0273124163552
-0.3117,-143.0273124163552
-0.3127000000000001,-143.0273124163552
-0.3137,-143.0273124163552
-0.3147000000000001,-143.0273124163552
-0.3157,-143.0273124163552
-0.3167000000000001,-143.0273124163552
-0.3177,-143.0273124163552
-0.3187000000000001,-143.0273124163552
-0.3197,-143.0273124163552
-0.3207000000000001,-143.0273124163552
-0.3217,-143.0273124163552
-0.3227000000000001,-143.0273124163552
-0.3237,-143.0273124163552
-0.3247000000000001,-143.0273124163552
-0.3257,-143.0273124163552
-0.3267000000000001,-143.0273124163552
-0.3277,-143.0273124163552
-0.3287000000000001,-143.0273124163552
-0.3297,-143.0273124163552
-0.3307000000000001,-143.0273124163552
-0.3317,-143.0273124163552
-0.3327000000000001,-143.0273124163552
-0.3337,-143.0273124163552
-0.3347000000000001,-143.0273124163552
-0.3357,-143.0273124163552
-0.3367000000000001,-143.0273124163552
-0.3377,-143.0273124163552
-0.3387000000000001,-143.0273124163552
-0.3397,-143.0273124163552
-0.3407000000000001,-143.0273124163552
-0.3417,-143.0273124163552
-0.3427000000000001,-143.0273124163552
-0.3437,-143.0273124163552
-0.3447000000000001,-143.0273124163552
-0.3457,-143.0273124163552
-0.3467000000000001,-143.0273124163552
-0.3477,-143.0273124163552
-0.3487000000000001,-143.0273124163552
-0.3497,-143.0273124163552
-0.3507000000000001,-143.0273124163552
-0.3517,-143.0273124163552
-0.3527000000000001,-143.0273124163552
-0.3537,-143.0273124163552
-0.3547000000000001,-143.0273124163552
-0.3557,-143.0273124163552
-0.35670000000000013,-143.0273124163552
-0.3577,-143.0273124163552
-0.35870000000000013,-143.0273124163552
-0.3597,-143.0273124163552
-0.36070000000000013,-143.0273124163552
-0.3617,-143.0273124163552
-0.3626999999999999,-143.0273124163552
-0.3637,-143.0273124163552
-0.3646999999999999,-143.0273124163552
-0.3657,-143.0273124163552
-0.3666999999999999,-143.0273124163552
-0.3677,-143.0273124163552
-0.3686999999999999,-143.0273124163552
-0.36970000000000003,-143.0273124163552
-0.3706999999999999,-143.0273124163552
-0.37170000000000003,-143.0273124163552
-0.3726999999999999,-143.0273124163552
-0.37370000000000003,-143.0273124163552
-0.3746999999999999,-143.0273124163552
-0.37570000000000003,-143.0273124163552
-0.3766999999999999,-143.0273124163552
-0.37770000000000004,-143.0273124163552
-0.3786999999999999,-143.0273124163552
-0.37970000000000004,-143.0273124163552
-0.3806999999999999,-143.0273124163552
-0.38170000000000004,-143.0273124163552
-0.38269999999999993,-143.0273124163552
-0.38370000000000004,-143.0273124163552
-0.38469999999999993,-143.0273124163552
-0.38570000000000004,-143.0273124163552
-0.38669999999999993,-143.0273124163552
-0.38570000000000004,-143.0273124163552
-0.38469999999999993,-143.0273124163552
-0.38370000000000004,-143.0273124163552
-0.38269999999999993,-143.0273124163552
-0.38170000000000004,-143.0273124163552
-0.3806999999999999,-143.0273124163552
-0.37970000000000004,-143.0273124163552
-0.3786999999999999,-143.0273124163552
-0.37770000000000004,-143.0273124163552
-0.3766999999999999,-143.0273124163552
-0.37570000000000003,-143.0273124163552
-0.3746999999999999,-143.0273124163552
-0.37370000000000003,-143.0273124163552
-0.3726999999999999,-143.0273124163552
-0.37170000000000003,-143.0273124163552
-0.3706999999999999,-143.0273124163552
-0.36970000000000003,-143.0273124163552
-0.3686999999999999,-143.0273124163552
-0.3677,-143.0273124163552
-0.3666999999999999,-143.0273124163552
-0.3657,-143.0273124163552
-0.3646999999999999,-143.0273124163552
-0.3637,-143.0273124163552
-0.3626999999999999,-143.0273124163552
-0.3617,-143.0273124163552
-0.36070000000000013,-143.0273124163552
-0.3597,-143.0273124163552
-0.35870000000000013,-143.0273124163552
-0.3577,-143.0273124163552
-0.35670000000000013,-143.0273124163552
-0.3557,-143.0273124163552
-0.3547000000000001,-143.0273124163552
-0.3537,-143.0273124163552
-0.3527000000000001,-143.0273124163552
-0.3517,-142.8858412863687
-0.3507000000000001,-141.1174521615374
-0.3497,-138.7548842907628
-0.3487000000000001,-136.64696445396388
-0.3477,-134.7936926511407
-0.3467000000000001,-132.78480260533235
-0.3457,-130.77591255952402
-0.3447000000000001,-128.7811696267143
-0.3437,-126.65910267691672
-0.3427000000000001,-124.52288861412055
-0.3417,-122.55643990730813
-0.3407000000000001,-120.64657965249035
-0.3397,-118.58110115468739
-0.3387000000000001,-116.64294667387229
-0.3377,-114.64820374106257
-0.3367000000000001,-112.75249059924342
-0.3357,-111.12557260439863
-0.3347000000000001,-109.30059502757274
-0.3337,-107.29170498176438
-0.3327000000000001,-105.39599183994524
-0.3317,-103.64174982811258
-0.3307000000000001,-101.87336070328129
-0.3297,-100.1332658044473
-0.3287000000000001,-98.32243534062005
-0.3277,-96.63892889378066
-0.3267000000000001,-94.92712822094396
-0.3257,-93.24362177410455
-0.3247000000000001,-91.54596821426652
-0.3237,-89.80587331543254
-0.3227000000000001,-88.17895532058775
-0.3217,-86.59447866473889
-0.3207000000000001,-84.9392664438968
-0.3197,-83.34064267504931
-0.3187000000000001,-81.75616601920048
-0.3177,-80.24242492834487
-0.3167000000000001,-78.71453672449066
-0.3157,-77.1017658426445
-0.3147000000000001,-75.53143629979431
-0.3137,-73.97525386994278
-0.3127000000000001,-72.48980700508447
-0.3117,-71.2307139482046
-0.3107000000000001,-70.08479779531392
-0.3097,-68.57105670445833
-0.3087000000000001,-66.80266757962703
-0.3077,-65.34551494076604
-0.3067000000000001,-64.02983343189156
-0.30569999999999997,-62.700004810018434
-0.3047000000000001,-61.29944062315204
-0.30369999999999997,-59.913023549284304
-0.3027000000000001,-58.59734204040982
-0.30169999999999997,-57.29580764453399
-0.3007000000000001,-55.90939057066625
-0.29969999999999997,-54.494679270801214
-0.2987000000000001,-53.16485064892808
-0.29769999999999996,-51.919904705046854
-0.2967000000000001,-50.73154721316022
-0.29569999999999996,-49.557336834272235
-0.2947000000000001,-48.312390890391
-0.29369999999999996,-47.053297833511124
-0.29270000000000007,-45.80835188962989
-0.29169999999999996,-44.577553058747306
-0.29070000000000007,-43.31846000186743
-0.28969999999999996,-42.03107271899024
-0.28870000000000007,-40.814421001106304
-0.28769999999999996,-39.66850484821563
-0.28670000000000007,-38.55088292132225
-0.28569999999999995,-37.44740810742752
-0.28470000000000006,-36.315639067535486
-0.28369999999999995,-35.21216425364076
-0.28270000000000006,-34.15113077874198
-0.28169999999999995,-33.06180307784591
-0.28070000000000006,-31.986622489948477
-0.27969999999999995,-30.88314767605375
-0.27870000000000006,-29.779672862159025
-0.27769999999999995,-28.789374952253496
-0.27670000000000006,-27.742488590353368
-0.27569999999999995,-26.69560222845324
-0.27470000000000006,-25.662862979551768
-0.27369999999999994,-24.64427084364894
-0.27270000000000005,-23.66812004674206
-0.27169999999999994,-22.691969249835186
-0.27070000000000005,-21.71581845292831
-0.26969999999999994,-20.72552054302279
-0.26870000000000005,-19.749369746115914
-0.26769999999999994,-18.843954514202288
-0.26670000000000005,-17.896097943292716
-0.26569999999999994,-16.94824137238314
