Potential V vs RHE, Current mA cm-2
0.013299999999999867,0.3903188476327636
0.012299999999999978,-0.2202705493889862
0.011299999999999866,-0.6564260431373771
0.010299999999999976,-1.0490084288499246
0.009299999999999864,-1.3107300193249565
0.008299999999999974,-1.5293029151541047
0.007299999999999862,-1.7471684553333202
0.006299999999999972,-1.9650339955125358
0.00529999999999986,-2.1390434853959355
0.0042999999999999705,-2.2706116362833835
0.0032999999999998586,-2.4446211261667834
0.0022999999999999687,-2.576189277054232
0.0012999999999998568,-2.662486666345999
0.00029999999999996696,-2.7501987669376318
-0.000700000000000145,-2.8379108675292635
-0.0017000000000000348,-2.924208256821031
-0.0027000000000001467,-3.0119203574126634
-0.0037000000000000366,-3.0996324580042955
-0.0047000000000001485,-3.1420737970002466
-0.005700000000000038,-3.2297858975918787
-0.00670000000000015,-3.273641947887695
-0.00770000000000004,-3.317497998183511
-0.008700000000000152,-3.403795387475278
-0.009700000000000042,-3.447651437771094
-0.010700000000000154,-3.5353635383627267
-0.011700000000000044,-3.579219588658543
-0.012700000000000156,-3.6655169779503103
-0.013700000000000045,-3.7532290785419424
-0.014700000000000157,-3.7970851288377587
-0.015700000000000047,-3.884797229429391
-0.01670000000000016,-3.971094618721158
-0.01770000000000005,-4.0588067193127895
-0.01870000000000016,-4.146518819904423
-0.01970000000000005,-4.23281620919619
-0.020700000000000163,-4.364384360083638
-0.021700000000000053,-4.450681749375406
-0.022700000000000164,-4.582249900262854
-0.023700000000000054,-4.712403339850438
-0.024700000000000166,-4.843971490737885
-0.025700000000000056,-5.017980980621284
-0.026700000000000168,-5.235846520800501
-0.027700000000000058,-5.453712060979717
-0.02870000000000017,-5.715433651454749
-0.02970000000000006,-5.977155241929781
-0.03070000000000017,-6.196435493408861
-0.03170000000000006,-6.458157083883892
-0.03270000000000017,-6.6760226240631075
-0.03370000000000006,-6.893888164242324
-0.034700000000000175,-7.067897654125724
-0.035700000000000065,-7.243321855308987
-0.03670000000000018,-7.4173313451923875
-0.03770000000000007,-7.591340835075788
-0.03870000000000018,-7.7653503249591855
-0.03970000000000007,-7.940774526142452
-0.04070000000000018,-8.11478401602585
-0.04170000000000007,-8.246352166913299
-0.04270000000000018,-8.464217707092514
-0.04370000000000007,-8.594371146680096
-0.044700000000000184,-8.769795347863363
-0.045700000000000074,-8.943804837746763
-0.046700000000000186,-9.11781432763016
-0.047700000000000076,-9.293238528813426
-0.04870000000000019,-9.467248018696827
-0.04970000000000008,-9.641257508580225
-0.05070000000000019,-9.81668170976349
-0.05170000000000008,-9.99069119964689
-0.05270000000000019,-10.164700689530287
-0.05370000000000008,-10.296268840417738
-0.05470000000000019,-10.514134380596953
-0.05570000000000008,-10.644287820184536
-0.056700000000000195,-10.819712021367803
-0.057700000000000085,-10.906009410659568
-0.058700000000000196,-11.081433611842833
-0.059700000000000086,-11.1677310011346
-0.0607000000000002,-11.343155202317865
-0.06170000000000009,-11.42945259160963
-0.0627000000000002,-11.56102074249708
-0.06370000000000009,-11.647318131788847
-0.0647000000000002,-11.778886282676295
-0.06570000000000009,-11.86659838326793
-0.0667000000000002,-11.952895772559694
-0.0677000000000001,-12.040607873151327
-0.0687000000000002,-12.12831997374296
-0.0697000000000001,-12.170761312738911
-0.07070000000000021,-12.302329463626359
-0.0717000000000001,-12.346185513922174
-0.07270000000000021,-12.390041564217992
-0.0737000000000001,-12.432482903213943
-0.07470000000000021,-12.520195003805576
-0.0757000000000001,-12.56405105410139
-0.07670000000000021,-12.651763154693022
-0.0777000000000001,-12.694204493688973
-0.07870000000000021,-12.73806054398479
-0.0797000000000001,-12.781916594280606
-0.08070000000000022,-12.825772644576423
-0.0817000000000001,-12.913484745168056
-0.08270000000000022,-12.955926084164007
-0.08370000000000011,-12.99978213445982
-0.08470000000000022,-13.043638184755638
-0.08570000000000011,-13.087494235051453
-0.08670000000000022,-13.13135028534727
-0.08770000000000011,-13.175206335643086
-0.08870000000000022,-13.217647674639037
-0.08970000000000011,-13.261503724934855
-0.09070000000000022,-13.261503724934855
-0.09170000000000011,-13.30535977523067
-0.09270000000000023,-13.349215825526485
-0.09370000000000012,-13.3930718758223
-0.09470000000000023,-13.436927926118118
-0.09570000000000012,-13.47936926511407
-0.09670000000000023,-13.523225315409885
-0.09770000000000012,-13.523225315409885
-0.09870000000000023,-13.567081365705702
-0.09970000000000012,-13.610937416001518
-0.10070000000000023,-13.654793466297335
-0.10170000000000012,-13.654793466297335
-0.10270000000000024,-13.698649516593148
-0.10370000000000013,-13.698649516593148
-0.10470000000000024,-13.741090855589102
-0.10570000000000013,-13.784946905884919
-0.10670000000000024,-13.784946905884919
-0.10770000000000013,-13.828802956180734
-0.10870000000000024,-13.872659006476551
-0.10970000000000013,-13.916515056772363
-0.11070000000000024,-13.960371107068182
-0.11170000000000013,-13.960371107068182
-0.11270000000000002,-13.960371107068182
-0.11370000000000013,-14.002812446064135
-0.11470000000000002,-14.002812446064135
-0.11570000000000014,-14.046668496359947
-0.11670000000000003,-14.090524546655764
-0.11770000000000014,-14.090524546655764
-0.11870000000000003,-14.090524546655764
-0.11970000000000014,-14.13438059695158
-0.12070000000000003,-14.13438059695158
-0.12170000000000014,-14.175407224647667
-0.12270000000000003,-14.175407224647667
-0.12370000000000014,-14.217848563643619
-0.12470000000000003,-14.217848563643619
-0.12570000000000014,-14.26028990263957
-0.12670000000000003,-14.26028990263957
-0.12770000000000015,-14.26028990263957
-0.12870000000000004,-14.30273124163552
-0.12970000000000015,-14.30273124163552
-0.13070000000000004,-14.345172580631472
-0.13170000000000015,-14.345172580631472
-0.13270000000000004,-14.345172580631472
-0.13370000000000015,-14.401761032626075
-0.13470000000000004,-14.401761032626075
-0.13570000000000015,-14.401761032626075
-0.13670000000000004,-14.444202371622024
-0.13770000000000016,-14.444202371622024
-0.13870000000000005,-14.444202371622024
-0.13970000000000016,-14.444202371622024
-0.14070000000000005,-14.444202371622024
-0.14170000000000016,-14.444202371622024
-0.14270000000000005,-14.486643710617974
-0.14370000000000016,-14.486643710617974
-0.14470000000000005,-14.486643710617974
-0.14570000000000016,-14.486643710617974
-0.14670000000000005,-14.486643710617974
-0.14770000000000016,-14.529085049613924
-0.14870000000000005,-14.529085049613924
-0.14970000000000017,-14.57152638860988
-0.15070000000000006,-14.529085049613924
-0.15170000000000017,-14.529085049613924
-0.15270000000000006,-14.529085049613924
-0.15370000000000017,-14.529085049613924
-0.15470000000000006,-14.57152638860988
-0.15570000000000017,-14.57152638860988
-0.15670000000000006,-14.529085049613924
-0.15770000000000017,-14.529085049613924
-0.15870000000000006,-14.529085049613924
-0.15970000000000018,-14.529085049613924
-0.16070000000000007,-14.57152638860988
-0.16170000000000018,-14.57152638860988
-0.16270000000000007,-14.57152638860988
-0.16370000000000018,-14.529085049613924
-0.16470000000000007,-14.529085049613924
-0.16570000000000018,-14.57152638860988
-0.16670000000000007,-14.57152638860988
-0.16770000000000018,-14.57152638860988
-0.16870000000000007,-14.57152638860988
-0.16970000000000018,-14.529085049613924
-0.17070000000000007,-14.57152638860988
-0.17170000000000019,-14.57152638860988
-0.17270000000000008,-14.57152638860988
-0.1737000000000002,-14.529085049613924
-0.17470000000000008,-14.529085049613924
-0.1757000000000002,-14.529085049613924
-0.17670000000000008,-14.529085049613924
-0.1777000000000002,-14.529085049613924
-0.17870000000000008,-14.529085049613924
-0.1797000000000002,-14.529085049613924
-0.18070000000000008,-14.529085049613924
-0.1817000000000002,-14.529085049613924
-0.18270000000000008,-14.529085049613924
-0.1837000000000002,-14.529085049613924
-0.1847000000000001,-14.486643710617974
-0.1857000000000002,-14.486643710617974
-0.1867000000000001,-14.486643710617974
-0.1877000000000002,-14.529085049613924
-0.1887000000000001,-14.486643710617974
-0.1897000000000002,-14.529085049613924
-0.1907000000000001,-14.486643710617974
-0.1917000000000001,-14.486643710617974
-0.19269999999999998,-14.486643710617974
-0.1937000000000001,-14.529085049613924
-0.19469999999999998,-14.529085049613924
-0.1957000000000001,-14.529085049613924
-0.19669999999999999,-14.486643710617974
-0.1977000000000001,-14.529085049613924
-0.1987,-14.529085049613924
-0.1997000000000001,-14.529085049613924
-0.2007,-14.529085049613924
-0.2017000000000001,-14.529085049613924
-0.2027,-14.529085049613924
-0.2037000000000001,-14.529085049613924
-0.2047,-14.57152638860988
-0.2057000000000001,-14.57152638860988
-0.2067,-14.57152638860988
-0.2077000000000001,-14.57152638860988
-0.2087,-14.61396772760583
-0.2097000000000001,-14.61396772760583
-0.2107,-14.61396772760583
-0.2117000000000001,-14.61396772760583
-0.2127,-14.61396772760583
-0.2137000000000001,-14.65640906660178
-0.2147,-14.69885040559773
-0.2157000000000001,-14.741291744593681
-0.2167,-14.741291744593681
-0.21770000000000012,-14.741291744593681
-0.2187,-14.741291744593681
-0.21970000000000012,-14.783733083589633
-0.2207,-14.826174422585586
-0.22170000000000012,-14.868615761581536
-0.2227,-14.868615761581536
-0.22370000000000012,-14.868615761581536
-0.2247,-14.925204213576137
-0.22570000000000012,-14.967645552572087
-0.2267,-15.01008689156804
-0.22770000000000012,-15.05252823056399
-0.22870000000000001,-15.094969569559943
-0.22970000000000013,-15.094969569559943
-0.23070000000000002,-15.137410908555893
-0.23170000000000013,-15.179852247551842
-0.23270000000000002,-15.222293586547794
-0.23370000000000013,-15.307176264539699
-0.23470000000000002,-15.349617603535648
-0.23570000000000013,-15.3920589425316
-0.23670000000000002,-15.448647394526201
-0.2376999999999999,-15.533530072518102
-0.23870000000000002,-15.533530072518102
-0.2396999999999999,-15.618412750510005
-0.24070000000000003,-15.660854089505953
-0.24169999999999991,-15.74573676749786
-0.24270000000000003,-15.830619445489761
-0.24369999999999992,-15.87306078448571
-0.24470000000000003,-15.91550212348166
-0.24569999999999992,-16.014531914472215
-0.24670000000000003,-16.099414592464115
-0.24769999999999992,-16.141855931460068
-0.24870000000000003,-16.269179948447924
-0.24969999999999992,-16.354062626439823
-0.25070000000000003,-16.396503965435777
-0.2516999999999999,-16.495533756426326
-0.25270000000000004,-16.580416434418233
-0.2536999999999999,-16.70774045140608
-0.25470000000000004,-16.792623129397985
-0.2556999999999999,-16.877505807389888
-0.25670000000000004,-16.962388485381787
-0.25769999999999993,-17.103859615368293
-0.25870000000000004,-17.188742293360193
-0.25969999999999993,-17.2736249713521
-0.26070000000000004,-17.40094898833995
-0.26169999999999993,-17.542420118326454
-0.26270000000000004,-17.627302796318357
-0.26369999999999993,-17.75462681330621
-0.26470000000000005,-17.881950830294063
-0.26569999999999994,-18.009274847281915
-0.26670000000000005,-18.15074597726842
-0.26769999999999994,-18.27806999425627
-0.26870000000000005,-18.40539401124413
-0.26969999999999994,-18.53271802823198
-0.27070000000000005,-18.716630497214435
-0.27169999999999994,-18.843954514202288
-0.27270000000000005,-19.01371987018609
-0.27369999999999994,-19.155191000172596
-0.27470000000000006,-19.28251501716045
-0.27569999999999995,-19.452280373144255
-0.27670000000000006,-19.636192842126707
-0.27769999999999995,-19.805958198110513
-0.27870000000000006,-19.97572355409432
-0.27969999999999995,-20.10304757108217
-0.28070000000000006,-20.286960040064624
-0.28169999999999995,-20.456725396048434
-0.28270000000000006,-20.683079204026836
-0.28369999999999995,-20.89528589900659
-0.28470000000000006,-21.022609915994444
-0.28569999999999995,-21.2065223849769
-0.28670000000000007,-21.418729079956652
-0.28769999999999996,-21.63093577493641
-0.28870000000000007,-21.857289582914817
-0.28969999999999996,-22.069496277894572
-0.29070000000000007,-22.253408746877028
-0.29169999999999996,-22.46561544185678
-0.29270000000000007,-22.67782213683654
-0.29369999999999996,-22.904175944814945
-0.2947000000000001,-23.15882397879065
-0.29569999999999996,-23.385177786769056
-0.2967000000000001,-23.597384481748815
-0.29769999999999996,-23.823738289727217
-0.2987000000000001,-24.078386323702922
-0.29969999999999997,-24.34718147067728
-0.3007000000000001,-24.601829504652986
-0.30169999999999997,-24.870624651627345
-0.3027000000000001,-25.0828313466071
-0.30369999999999997,-25.337479380582806
-0.3047000000000001,-25.563833188561212
-0.30569999999999997,-25.86092256153287
-0.3067000000000001,-26.129717708507226
-0.3077,-26.440954194477534
-0.3087000000000001,-26.69560222845324
-0.3097,-26.9643973754276
-0.3107000000000001,-27.219045409403304
-0.3117,-27.530281895373616
-0.3127000000000001,-27.827371268345274
-0.3137,-28.13860775431558
-0.3147000000000001,-28.435697127287238
-0.3157,-28.704492274261593
-0.3167000000000001,-29.001581647233255
-0.3177,-29.35525947219951
-0.3187000000000001,-29.66649595816982
-0.3197,-29.96358533114148
-0.3207000000000001,-30.274821817111786
-0.3217,-30.614352529079397
-0.3227000000000001,-30.968030354045652
-0.3237,-31.321708179011907
-0.3247000000000001,-31.618797551983565
-0.3257,-31.972475376949827
-0.3267000000000001,-32.283711862920136
-0.3277,-32.62324257488775
-0.3287000000000001,-33.01936173884996
-0.3297,-33.373039563816214
-0.3307000000000001,-33.755011614779775
-0.3317,-34.10868943974604
-0.3327000000000001,-34.462367264712285
-0.3337,-34.8018979766799
-0.3347000000000001,-35.198017140642115
-0.3357,-35.594136304604326
-0.3367000000000001,-36.03269680756248
-0.3377,-36.37222751953009
-0.3387000000000001,-36.725905344496354
-0.3397,-37.122024508458566
-0.3407000000000001,-37.51814367242077
-0.3417,-37.90011572338433
-0.3427000000000001,-38.33867622634249
-0.3437,-38.777236729300654
-0.3447000000000001,-39.173355893262865
-0.3457,-39.56947505722508
-0.3467000000000001,-39.95144710818864
-0.3477,-40.3900076111468
-0.3487000000000001,-40.828568114104954
-0.3497,-41.30956995605907
-0.3507000000000001,-41.74813045901723
-0.3517,-42.130102509980794
-0.3527000000000001,-42.526221673943
-0.3537,-43.007223515897124
-0.3547000000000001,-43.48822535785123
-0.3557,-43.96922719980534
-0.35670000000000013,-44.4077877027635
-0.3577,-44.84634820572166
-0.35870000000000013,-45.27076159568118
-0.3597,-45.75176343763528
-0.36070000000000013,-46.27520661858535
-0.3617,-46.75620846053947
-0.3626999999999999,-47.19476896349763
-0.3637,-47.67577080545174
-0.3646999999999999,-48.114331308409895
-0.3657,-48.63777448935996
-0.3666999999999999,-49.16121767031002
-0.3677,-49.68466085126009
-0.3686999999999999,-50.1656626932142
-0.36970000000000003,-50.64666453516831
-0.3706999999999999,-51.127666377122424
-0.37170000000000003,-51.65110955807249
-0.3726999999999999,-52.17455273902255
-0.37370000000000003,-52.74043725896857
-0.3746999999999999,-53.22143910092268
-0.37570000000000003,-53.68829382987814
-0.3766999999999999,-54.2117370108282
-0.37770000000000004,-54.791768643772876
-0.3786999999999999,-55.31521182472294
-0.37970000000000004,-55.881096344668954
-0.3806999999999999,-56.404539525619015
-0.38170000000000004,-56.927982706569075
-0.38269999999999993,-57.493867226515086
-0.38370000000000004,-58.017310407465146
-0.38469999999999993,-58.62563626640712
-0.38570000000000004,-59.19152078635314
-0.38669999999999993,-59.02175543036933
-0.38570000000000004,-57.7485152604908
-0.38469999999999993,-56.65918755959472
-0.38370000000000004,-55.6971838756865
-0.38269999999999993,-54.876651321764776
-0.38170000000000004,-54.0419716548444
-0.3806999999999999,-53.26388043991864
-0.37970000000000004,-52.514083450990164
-0.3786999999999999,-51.77843357506035
-0.37770000000000004,-51.071077925127824
-0.3766999999999999,-50.42031072718991
-0.37570000000000003,-49.76954352925199
-0.3746999999999999,-49.076334992318124
-0.37370000000000003,-48.45386202037751
-0.3726999999999999,-47.80309482243959
-0.37170000000000003,-47.15232762450167
-0.3706999999999999,-46.544001765559706
-0.36970000000000003,-45.89323456762179
-0.3686999999999999,-45.27076159568118
-0.3677,-44.66243573673921
-0.3666999999999999,-44.054109877797245
-0.3657,-43.44578401885527
-0.3646999999999999,-42.87989949890926
-0.3637,-42.31401497896325
-0.3626999999999999,-41.74813045901723
-0.3617,-41.182245939071215
-0.36070000000000013,-40.559772967130606
-0.3597,-39.99388844718459
-0.35870000000000013,-39.42800392723857
-0.3577,-38.94700208528445
-0.35670000000000013,-38.38111756533845
-0.3557,-37.81523304539243
-0.3547000000000001,-37.206907186450465
-0.3537,-36.6834640055004
-0.3527000000000001,-36.16002082455034
-0.3517,-35.679018982596226
-0.3507000000000001,-35.11313446265021
-0.3497,-34.58969128170015
-0.3487000000000001,-34.06624810075008
-0.3477,-33.54280491980002
-0.3467000000000001,-33.01936173884996
-0.3457,-32.53835989689585
-0.3447000000000001,-32.01491671594578
-0.3437,-31.533914873991666
-0.3427000000000001,-31.010471693041605
-0.3417,-30.529469851087494
-0.3407000000000001,-30.04846800913338
-0.3397,-29.581613280177915
-0.3387000000000001,-29.14305277721976
-0.3377,-28.704492274261593
-0.3367000000000001,-28.22349043230748
-0.3357,-27.78492992934932
-0.3347000000000001,-27.303928087395207
-0.3337,-26.822926245441096
-0.3327000000000001,-26.34192440348698
-0.3317,-25.91751101352747
-0.3307000000000001,-25.478950510569312
-0.3297,-25.04039000761115
-0.3287000000000001,-24.64427084364894
-0.3277,-24.16326900169483
-0.3267000000000001,-23.724708498736668
-0.3257,-23.342736447773106
-0.3247000000000001,-22.904175944814945
-0.3237,-22.46561544185678
-0.3227000000000001,-22.069496277894572
-0.3217,-21.63093577493641
-0.3207000000000001,-21.248963723972853
-0.3197,-20.85284456001064
-0.3187000000000001,-20.456725396048434
-0.3177,-20.06060623208622
-0.3167000000000001,-19.678634181122664
-0.3157,-19.28251501716045
-0.3147000000000001,-18.88639585319824
-0.3137,-18.49027668923603
-0.3127000000000001,-18.15074597726842
-0.3117,-17.797068152302163
-0.3107000000000001,-17.40094898833995
-0.3097,-17.061418276372343
-0.3087000000000001,-16.70774045140608
-0.3077,-16.311621287443874
-0.3067000000000001,-15.972090575476265
-0.30569999999999997,-15.660854089505953
-0.3047000000000001,-15.307176264539699
-0.30369999999999997,-14.967645552572087
-0.3027000000000001,-14.61396772760583
-0.30169999999999997,-14.30273124163552
-0.3007000000000001,-13.960371107068182
-0.29969999999999997,-13.654793466297335
-0.2987000000000001,-13.30535977523067
-0.29769999999999996,-12.99978213445982
-0.2967000000000001,-12.694204493688973
-0.29569999999999996,-12.390041564217992
-0.2947000000000001,-12.040607873151327
-0.29369999999999996,-11.73503023238048
-0.29270000000000007,-11.42945259160963
-0.29169999999999996,-11.123874950838783
-0.29070000000000007,-10.863568071663616
-0.28969999999999996,-10.557990430892769
-0.28870000000000007,-10.25241279012192
-0.28769999999999996,-9.99069119964689
-0.28670000000000007,-9.685113558876042
-0.28569999999999995,-9.423391968401008
-0.28470000000000006,-9.161670377925978
-0.28369999999999995,-8.85609273715513
-0.28270000000000006,-8.594371146680096
-0.28169999999999995,-8.332649556205066
-0.28070000000000006,-8.070927965730034
-0.27969999999999995,-7.809206375255003
-0.27870000000000006,-7.5474847847799715
-0.27769999999999995,-7.329619244600755
-0.27670000000000006,-7.067897654125724
-0.27569999999999995,-6.806176063650692
-0.27470000000000006,-6.54445447317566
-0.27369999999999994,-6.326588932996443
-0.27270000000000005,-6.064867342521412
-0.27169999999999994,-5.847001802342197
-0.27070000000000005,-5.629136262162981
-0.26969999999999994,-5.411270721983764
-0.26870000000000005,-5.191990470504685
