Potential V vs RHE, Current mA cm-2
0.013299999999999867,0.6371859694592126
0.012299999999999978,0.35933667016571935
0.011299999999999866,0.17980980621284617
0.010299999999999976,0.05125499039411028
0.009299999999999864,-0.048821686958342415
0.008299999999999974,-0.12251399856831217
0.007299999999999862,-0.18207334429263022
0.006299999999999972,-0.2267782213683654
0.00529999999999986,-0.2659657243746269
0.0042999999999999705,-0.3002017378313608
0.0032999999999998586,-0.3318912709483376
0.0022999999999999687,-0.3600440258156518
0.0012999999999998568,-0.3881967806829661
0.00029999999999996696,-0.41394452634050977
-0.000700000000000145,-0.443794934767662
-0.0017000000000000348,-0.4720891607649627
-0.0027000000000001467,-0.501090742412196
-0.0037000000000000366,-0.5339120445690649
-0.0047000000000001485,-0.5675821735058527
-0.005700000000000038,-0.5992717066228296
-0.00670000000000015,-0.6397324497989695
-0.00770000000000004,-0.671846396305906
-0.008700000000000152,-0.7046676984627748
-0.009700000000000042,-0.7383378273995627
-0.010700000000000154,-0.7727153119862831
-0.011700000000000044,-0.8039804317133004
-0.012700000000000156,-0.8360943782202367
-0.013700000000000045,-0.8639641908275778
-0.014700000000000157,-0.8935316569947571
-0.015700000000000047,-0.92295765203195
-0.01670000000000016,-0.9542227717589672
-0.01770000000000005,-0.9863367182659035
-0.01870000000000016,-1.0166115400830154
-0.01970000000000005,-1.052969620489547
-0.020700000000000163,-1.0934303636656868
-0.021700000000000053,-1.1337496357118404
-0.022700000000000164,-1.1846792425069816
-0.023700000000000054,-1.2317891287924876
-0.024700000000000166,-1.280030784117885
-0.025700000000000056,-1.3289797950932156
-0.026700000000000168,-1.370430836179261
-0.027700000000000058,-1.410608637095428
-0.02870000000000017,-1.4430055258623373
-0.02970000000000006,-1.4755438857592333
-0.03070000000000017,-1.505252823056399
-0.03170000000000006,-1.5321323377538347
-0.03270000000000017,-1.5590118524512704
-0.03370000000000006,-1.580232521949246
-0.034700000000000175,-1.6028679027470865
-0.035700000000000065,-1.6283327061446573
-0.03670000000000018,-1.6495533756426328
-0.03770000000000007,-1.6707740451406083
-0.03870000000000018,-1.6891652920388538
-0.03970000000000007,-1.7075565389370995
-0.04070000000000018,-1.7259477858353447
-0.04170000000000007,-1.7457537440334552
-0.04270000000000018,-1.7613155683319706
-0.04370000000000007,-1.776877392630486
-0.044700000000000184,-1.7938539282288664
-0.045700000000000074,-1.8094157525273817
-0.046700000000000186,-1.8263922881257622
-0.047700000000000076,-1.8405394011244125
-0.04870000000000019,-1.850442380223468
-0.04970000000000008,-1.8674189158218486
-0.05070000000000019,-1.8787366062207687
-0.05170000000000008,-1.891469007919554
-0.05270000000000019,-1.9027866983184742
-0.05370000000000008,-1.9112749661176645
-0.05470000000000019,-1.922592656516585
-0.05570000000000008,-1.933910346915505
-0.056700000000000195,-1.9452280373144257
-0.057700000000000085,-1.9565457277133458
-0.058700000000000196,-1.9664487068124006
-0.059700000000000086,-1.9763516859114565
-0.0607000000000002,-1.9876693763103765
-0.06170000000000009,-2.001816489309027
-0.0627000000000002,-2.011719468408082
-0.06370000000000009,-2.0187930249074073
-0.0647000000000002,-2.0272812927065975
-0.06570000000000009,-2.0371842718056525
-0.0667000000000002,-2.047087250904708
-0.0677000000000001,-2.0555755187038987
-0.0687000000000002,-2.0654784978029537
-0.0697000000000001,-2.0753814769020087
-0.07070000000000021,-2.085284456001064
-0.0717000000000001,-2.0937727238002544
-0.07270000000000021,-2.1008462802995793
-0.0737000000000001,-2.1121639706984996
-0.07470000000000021,-2.1206522384976902
-0.0757000000000001,-2.1305552175967453
-0.07670000000000021,-2.1418729079956655
-0.0777000000000001,-2.150361175794856
-0.07870000000000021,-2.1574347322941807
-0.0797000000000001,-2.1659230000933714
-0.08070000000000022,-2.1758259791924264
-0.0817000000000001,-2.1899730921910767
-0.08270000000000022,-2.197046648690402
-0.08370000000000011,-2.205534916489592
-0.08470000000000022,-2.215437895588648
-0.08570000000000011,-2.2210967407881075
-0.08670000000000022,-2.235243853786758
-0.08770000000000011,-2.2451468328858133
-0.08870000000000022,-2.2522203893851382
-0.08970000000000011,-2.263538079784059
-0.09070000000000022,-2.2691969249835187
-0.09170000000000011,-2.280514615382439
-0.09270000000000023,-2.2890028831816296
-0.09370000000000012,-2.296076439680954
-0.09470000000000023,-2.30597941878001
-0.09570000000000012,-2.3144676865791998
-0.09670000000000023,-2.3243706656782552
-0.09770000000000012,-2.3356883560771755
-0.09870000000000023,-2.3413472012766356
-0.09970000000000012,-2.349835469075826
-0.10070000000000023,-2.358323736875016
-0.10170000000000012,-2.3653972933743415
-0.10270000000000024,-2.3767149837732613
-0.10370000000000013,-2.379544406372992
-0.10470000000000024,-2.389447385472047
-0.10570000000000013,-2.396520941971372
-0.10670000000000024,-2.4064239210704272
-0.10770000000000013,-2.414912188869618
-0.10870000000000024,-2.4219857453689424
-0.10970000000000013,-2.4290593018682682
-0.11070000000000024,-2.437547569667458
-0.11170000000000013,-2.4432064148669186
-0.11270000000000002,-2.4545241052658384
-0.11370000000000013,-2.461597661765164
-0.11470000000000002,-2.465841795664759
-0.11570000000000014,-2.472915352164084
-0.11670000000000003,-2.4828183312631396
-0.11770000000000014,-2.4898918877624645
-0.11870000000000003,-2.4983801555616547
-0.11970000000000014,-2.504039000761115
-0.12070000000000003,-2.512527268560305
-0.12170000000000014,-2.5224302476593605
-0.12270000000000003,-2.5280890928588207
-0.12370000000000014,-2.532333226758415
-0.12470000000000003,-2.5408214945576058
-0.12570000000000014,-2.5478950510569307
-0.12670000000000003,-2.5592127414558514
-0.12770000000000015,-2.5620421640555815
-0.12870000000000004,-2.5719451431546365
-0.12970000000000015,-2.5776039883540967
-0.13070000000000004,-2.583262833553557
-0.13170000000000015,-2.591751101352747
-0.13270000000000004,-2.597409946552207
-0.13370000000000015,-2.6030687917516673
-0.13470000000000004,-2.6129717708507227
-0.13570000000000015,-2.6172159047503176
-0.13670000000000004,-2.627118883849373
-0.13770000000000016,-2.6356071516485633
-0.13870000000000005,-2.6384365742482934
-0.13970000000000016,-2.6511689759470785
-0.14070000000000005,-2.656827821146539
-0.14170000000000016,-2.666730800245594
-0.14270000000000005,-2.6723896454450546
-0.14370000000000016,-2.6738043567449195
-0.14470000000000005,-2.6865367584437045
-0.14570000000000016,-2.69361031494303
-0.14670000000000005,-2.700683871442355
-0.14770000000000016,-2.7105868505414104
-0.14870000000000005,-2.7176604070407357
-0.14970000000000017,-2.7261486748399255
-0.15070000000000006,-2.7360516539389814
-0.15170000000000017,-2.744539921738171
-0.15270000000000006,-2.7530281895373614
-0.15370000000000017,-2.7601017460366863
-0.15470000000000006,-2.767175302536012
-0.15570000000000017,-2.7799077042347973
-0.15670000000000006,-2.7898106833338523
-0.15770000000000017,-2.7997136624329078
-0.15870000000000006,-2.8096166415319628
-0.15970000000000018,-2.819519620631018
-0.16070000000000007,-2.833666733629668
-0.16170000000000018,-2.846399135328454
-0.16270000000000007,-2.8506432692280486
-0.16370000000000018,-2.867619804826429
-0.16470000000000007,-2.8860110517246746
-0.16570000000000018,-2.897328742123595
-0.16670000000000007,-2.9114758551222453
-0.16770000000000018,-2.9185494116215707
-0.16870000000000007,-2.9298671020204905
-0.16970000000000018,-2.945428926319006
-0.17070000000000007,-2.9581613280177916
-0.17170000000000019,-2.973723152316307
-0.17270000000000008,-2.9878702653149576
-0.1737000000000002,-3.002017378313608
-0.17470000000000008,-3.0204086252118536
-0.1757000000000002,-3.0387998721100984
-0.17670000000000008,-3.0571911190083445
-0.1777000000000002,-3.0755823659065897
-0.17870000000000008,-3.0911441902051053
-0.1797000000000002,-3.1123648597030806
-0.18070000000000008,-3.1321708179011907
-0.1817000000000002,-3.153391487399167
-0.18270000000000008,-3.1774415794968722
-0.1837000000000002,-3.200076960294713
-0.1847000000000001,-3.2241270523924186
-0.1857000000000002,-3.249591855789989
-0.1867000000000001,-3.27505665918756
-0.1877000000000002,-3.2991067512852656
-0.1887000000000001,-3.328815688582431
-0.1897000000000002,-3.357109914579732
-0.1907000000000001,-3.389648274476628
-0.1917000000000001,-3.4165277891740633
-0.19269999999999998,-3.447651437771094
-0.1937000000000001,-3.4816045089678553
-0.19469999999999998,-3.5141428688647514
-0.1957000000000001,-3.552340073961107
-0.19669999999999999,-3.590537279057463
-0.1977000000000001,-3.6287344841538194
-0.1987,-3.664102266650445
-0.1997000000000001,-3.702299471746801
-0.2007,-3.744740810742752
-0.2017000000000001,-3.7900115723384333
-0.2027,-3.833867622634249
-0.2037000000000001,-3.8791383842299307
-0.2047,-3.9258238571254775
-0.2057000000000001,-3.9725093300210226
-0.2067,-4.026268359415894
-0.2077000000000001,-4.072953832311441
-0.2087,-4.1238834391065815
-0.2097000000000001,-4.181886602401049
-0.2107,-4.237060343095785
-0.2117000000000001,-4.299307640289847
-0.2127,-4.358725514884178
-0.2137000000000001,-4.416728678178644
-0.2147,-4.481805397972437
-0.2157000000000001,-4.556785096865283
-0.2167,-4.61761768275948
-0.21770000000000012,-4.686938536452867
-0.2187,-4.749185833646928
-0.21970000000000012,-4.819921398640179
-0.2207,-4.894901097533027
-0.22170000000000012,-4.9698807964258735
-0.2227,-5.047689917918451
-0.22370000000000012,-5.124084328111163
-0.2247,-5.204722872203471
-0.22570000000000012,-5.289605550195372
-0.2267,-5.3759029394871405
-0.22770000000000012,-5.465029751378637
-0.22870000000000001,-5.552741851970269
-0.22970000000000013,-5.648942220361092
-0.23070000000000002,-5.740898454852318
-0.23170000000000013,-5.834269400643411
-0.23270000000000002,-5.923396212534908
-0.23370000000000013,-6.023840714825327
-0.23470000000000002,-6.124285217115744
-0.23570000000000013,-6.230388564605621
-0.23670000000000002,-6.339321334695229
-0.2376999999999999,-6.448254104784837
-0.23870000000000002,-6.560016297474175
-0.2396999999999999,-6.674607912763243
-0.24070000000000003,-6.790614239352177
-0.24169999999999991,-6.9122794111405685
-0.24270000000000003,-7.031115160329232
-0.24369999999999992,-7.154195043417491
-0.24470000000000003,-7.280104349105479
-0.24569999999999992,-7.410257788693063
-0.24670000000000003,-7.544655362180241
-0.24769999999999992,-7.679052935667419
-0.24870000000000003,-7.820524065653922
-0.24969999999999992,-7.95775106174083
-0.25070000000000003,-8.099222191727335
-0.2516999999999999,-8.24352274431357
-0.25270000000000004,-8.389238008199667
-0.2536999999999999,-8.534953272085767
-0.25470000000000004,-8.686327381171324
-0.2556999999999999,-8.840530912856615
-0.25670000000000004,-9.001808001041228
-0.25769999999999993,-9.164499800525707
-0.25870000000000004,-9.324362177410457
-0.25969999999999993,-9.492712822094397
-0.26070000000000004,-9.663892889378065
-0.26169999999999993,-9.839317090561332
-0.26270000000000004,-10.01332658044473
-0.26369999999999993,-10.18733607032813
-0.26470000000000005,-10.36983382801072
-0.26569999999999994,-10.55516100829304
-0.26670000000000005,-10.751805878974281
-0.26769999999999994,-10.952694883555113
-0.26870000000000005,-11.138022063837434
-0.26969999999999994,-11.333252223218809
-0.27070000000000005,-11.542629495598835
-0.27169999999999994,-11.7463479227794
-0.27270000000000005,-11.9486516386601
-0.27369999999999994,-12.163687756239584
-0.27470000000000006,-12.36740618342015
-0.27569999999999995,-12.589515857498961
-0.27670000000000006,-12.807381397678178
-0.27769999999999995,-13.028076360457122
-0.27870000000000006,-13.253015457135664
-0.27969999999999995,-13.480783976413935
-0.28070000000000006,-13.714211340891666
-0.28169999999999995,-13.950468127969126
-0.28270000000000006,-14.175407224647667
-0.28369999999999995,-14.415908145624723
-0.28470000000000006,-14.65640906660178
-0.28569999999999995,-14.911057100577487
-0.28670000000000007,-15.165705134553193
-0.28769999999999996,-15.4203531685289
-0.28870000000000007,-15.675001202504609
-0.28969999999999996,-15.929649236480316
-0.29070000000000007,-16.19844438345467
-0.29169999999999996,-16.481386643427676
-0.29270000000000007,-16.736034677403385
-0.29369999999999996,-16.99068271137909
-0.2947000000000001,-17.2736249713521
-0.29569999999999996,-17.556567231325104
-0.2967000000000001,-17.839509491298113
-0.29769999999999996,-18.122451751271118
-0.2987000000000001,-18.40539401124413
-0.29969999999999997,-18.702483384215785
-0.3007000000000001,-18.999572757187444
-0.30169999999999997,-19.31080924315775
-0.3027000000000001,-19.60789861612941
-0.30369999999999997,-19.904987989101066
-0.3047000000000001,-20.21622447507137
-0.30569999999999997,-20.52746096104168
-0.3067000000000001,-20.86699167300929
-0.3077,-21.1782281589796
-0.3087000000000001,-21.503611757948562
-0.3097,-21.828995356917517
-0.3107000000000001,-22.168526068885125
-0.3117,-22.522203893851387
-0.3127000000000001,-22.84758749282034
-0.3137,-23.2012653177866
-0.3147000000000001,-23.54079602975421
-0.3157,-23.88032674172182
-0.3167000000000001,-24.24815167968673
-0.3177,-24.587682391654337
-0.3187000000000001,-24.983801555616548
-0.3197,-25.323332267584156
-0.3207000000000001,-25.705304318547718
-0.3217,-26.073129256512626
-0.3227000000000001,-26.440954194477534
-0.3237,-26.851220471438396
-0.3247000000000001,-27.219045409403304
-0.3257,-27.601017460366865
-0.3267000000000001,-27.98298951133043
-0.3277,-28.364961562293985
-0.3287000000000001,-28.746933613257543
-0.3297,-29.14305277721976
-0.3307000000000001,-29.539171941181966
-0.3317,-29.949438218142824
-0.3327000000000001,-30.345557382105042
-0.3337,-30.7558236590659
-0.3347000000000001,-31.180237049025404
-0.3357,-31.590503325986273
-0.3367000000000001,-32.02906382894443
-0.3377,-32.45347721890394
-0.3387000000000001,-32.8637434958648
-0.3397,-33.288156885824314
-0.3407000000000001,-33.712570275783825
-0.3417,-34.16527789174064
-0.3427000000000001,-34.60383839469879
-0.3437,-35.04239889765696
-0.3447000000000001,-35.48095940061512
-0.3457,-35.94781412957058
-0.3467000000000001,-36.38637463252874
-0.3477,-36.8249351354869
-0.3487000000000001,-37.27764275144372
-0.3497,-37.73035036740053
-0.3507000000000001,-38.211352209354644
-0.3517,-38.664059825311455
-0.3527000000000001,-39.130914554266916
-0.3537,-39.58362217022373
-0.3547000000000001,-40.07877112517649
-0.3557,-40.559772967130606
-0.35670000000000013,-41.02662769608606
-0.3577,-41.50762953804018
-0.35870000000000013,-42.01692560599159
-0.3597,-42.4696332219484
-0.36070000000000013,-42.95063506390252
-0.3617,-43.43163690585662
-0.3626999999999999,-43.94093297380804
-0.3637,-44.4643761547581
-0.3646999999999999,-44.94537799671222
-0.3657,-45.482968290660935
-0.3666999999999999,-45.97811724561369
-0.3677,-46.4874133135651
-0.3686999999999999,-47.02500360751382
-0.36970000000000003,-47.54844678846388
-0.3706999999999999,-48.029448630417996
-0.37170000000000003,-48.55289181136806
-0.3726999999999999,-49.062187879319474
-0.37370000000000003,-49.59977817326819
-0.3746999999999999,-50.1656626932142
-0.37570000000000003,-50.74569432615886
-0.3766999999999999,-51.29743173310623
-0.37770000000000004,-51.82087491405629
-0.3786999999999999,-52.33017098200771
-0.37970000000000004,-52.88190838895507
-0.3806999999999999,-53.37705734390783
-0.38170000000000004,-53.971236089851146
-0.38269999999999993,-54.56541483579447
-0.38370000000000004,-55.13129935574048
-0.38469999999999993,-55.6971838756865
-0.38570000000000004,-56.27721550863116
-0.38669999999999993,-56.06500881365141
-0.38570000000000004,-55.24447625972968
-0.38469999999999993,-54.57956194879311
-0.38370000000000004,-53.971236089851146
-0.38269999999999993,-53.30632177891458
-0.38170000000000004,-52.81117282396182
-0.3806999999999999,-52.1886998520212
-0.37970000000000004,-51.53793265408329
-0.3786999999999999,-50.90131256914402
-0.37770000000000004,-50.2788395972034
-0.3766999999999999,-49.656366625262784
-0.37570000000000003,-49.03389365332217
-0.3746999999999999,-48.43971490737886
-0.37370000000000003,-47.85968327443419
-0.3726999999999999,-47.26550452849088
-0.37170000000000003,-46.67132578254756
-0.3706999999999999,-46.077147036604245
-0.36970000000000003,-45.497115403659585
-0.3686999999999999,-44.88878954471762
-0.3677,-44.30875791177294
-0.3666999999999999,-43.77116761782423
-0.3657,-43.290165775870115
-0.3646999999999999,-42.71013414292546
-0.3637,-42.158396735978094
-0.3626999999999999,-41.63495355502803
-0.3617,-41.083216148080666
-0.36070000000000013,-40.531478741133306
-0.3597,-40.00803556018324
-0.35870000000000013,-39.48459237923317
-0.3577,-38.97529631128177
-0.35670000000000013,-38.4518531303317
-0.3557,-37.94255706238028
-0.3547000000000001,-37.41911388143023
-0.3537,-36.92396492647745
-0.3527000000000001,-36.44296308452335
-0.3517,-35.93366701657193
-0.3507000000000001,-35.45266517461782
-0.3497,-34.98581044566235
-0.3487000000000001,-34.51895571670689
-0.3477,-34.02380676175414
-0.3467000000000001,-33.54280491980002
-0.3457,-33.06180307784591
-0.3447000000000001,-32.59494834889044
-0.3437,-32.11394650693633
-0.3427000000000001,-31.632944664982226
-0.3417,-31.20853127502271
-0.3407000000000001,-30.7558236590659
-0.3397,-30.359704495103685
-0.3387000000000001,-29.949438218142824
-0.3377,-29.539171941181966
-0.3367000000000001,-29.100611438223805
-0.3357,-28.690345161262943
-0.3347000000000001,-28.294225997300735
-0.3337,-27.869812607341224
-0.3327000000000001,-27.459546330380363
-0.3317,-27.049280053419505
-0.3307000000000001,-26.63901377645864
-0.3297,-26.22874749949778
-0.3287000000000001,-25.832628335535567
-0.3277,-25.45065628457201
-0.3267000000000001,-25.06868423360845
-0.3257,-24.686712182644893
-0.3247000000000001,-24.304740131681328
-0.3237,-23.92276808071777
-0.3227000000000001,-23.55494314275286
-0.3217,-23.187118204787954
-0.3207000000000001,-22.80514615382439
-0.3197,-22.437321215859484
-0.3187000000000001,-22.069496277894572
-0.3177,-21.729965565926964
-0.3167000000000001,-21.376287740960702
-0.3157,-21.022609915994444
-0.3147000000000001,-20.69722631702549
-0.3137,-20.371842718056527
-0.3127000000000001,-20.03231200608892
-0.3117,-19.721075520118614
-0.3107000000000001,-19.381544808151002
-0.3097,-19.056161209182044
-0.3087000000000001,-18.744924723211735
-0.3077,-18.433688237241427
-0.3067000000000001,-18.122451751271118
-0.30569999999999997,-17.81121526530081
-0.3047000000000001,-17.514125892329155
-0.30369999999999997,-17.217036519357496
-0.3027000000000001,-16.93409425938449
-0.30169999999999997,-16.665299112410132
-0.3007000000000001,-16.368209739438473
-0.29969999999999997,-16.085267479465468
-0.2987000000000001,-15.816472332491113
-0.29769999999999996,-15.547677185516752
-0.2967000000000001,-15.264734925543747
-0.29569999999999996,-15.080822456561293
-0.2947000000000001,-14.755438857592333
-0.29369999999999996,-14.486643710617974
-0.29270000000000007,-14.231995676642269
-0.29169999999999996,-13.963200529667912
-0.29070000000000007,-13.742505566888967
-0.28969999999999996,-13.528884160609344
-0.28870000000000007,-13.223306519838497
-0.28769999999999996,-12.991293866660634
-0.28670000000000007,-12.745134100484115
-0.28569999999999995,-12.498974334307599
-0.28470000000000006,-12.257058702030678
-0.28369999999999995,-12.064657965249033
-0.28270000000000006,-11.798692240874407
-0.28169999999999995,-11.596388524993706
-0.28070000000000006,-11.34739933621746
-0.27969999999999995,-11.115386683039594
-0.27870000000000006,-10.915912389758622
-0.27769999999999995,-10.688143870480351
-0.27670000000000006,-10.467448907701408
-0.27569999999999995,-10.267974614420435
-0.27470000000000006,-10.08689156803771
-0.27369999999999994,-9.893076119956202
-0.27270000000000005,-9.679454713676583
-0.27169999999999994,-9.492712822094397
-0.27070000000000005,-9.28899439491383
-0.26969999999999994,-9.085275967733265
-0.26870000000000005,-8.888631097052025
-0.26769999999999994,-8.72169516366795
