Potential V vs RHE, Current mA cm-2
0.013299999999999867,-0.30755823659065895
0.012299999999999978,-1.3543031273607997
0.011299999999999866,-2.1390434853959355
0.010299999999999976,-2.706342716641815
0.009299999999999864,-3.1859298472960624
0.008299999999999974,-3.579219588658543
0.007299999999999862,-3.884797229429391
0.006299999999999972,-4.102662769608606
0.00529999999999986,-4.276672259492005
0.0042999999999999705,-4.450681749375406
0.0032999999999998586,-4.582249900262854
0.0022999999999999687,-4.712403339850438
0.0012999999999998568,-4.800115440442069
0.00029999999999996696,-4.843971490737885
-0.000700000000000145,-4.9302688800296535
-0.0017000000000000348,-4.974124930325469
-0.0027000000000001467,-5.017980980621284
-0.0037000000000000366,-5.0618370309171015
-0.0047000000000001485,-5.105693081212917
-0.005700000000000038,-5.149549131508733
-0.00670000000000015,-5.191990470504685
-0.00770000000000004,-5.235846520800501
-0.008700000000000152,-5.235846520800501
-0.009700000000000042,-5.279702571096316
-0.010700000000000154,-5.279702571096316
-0.011700000000000044,-5.279702571096316
-0.012700000000000156,-5.323558621392133
-0.013700000000000045,-5.323558621392133
-0.014700000000000157,-5.367414671687949
-0.015700000000000047,-5.367414671687949
-0.01670000000000016,-5.367414671687949
-0.01770000000000005,-5.411270721983764
-0.01870000000000016,-5.411270721983764
-0.01970000000000005,-5.411270721983764
-0.020700000000000163,-5.453712060979717
-0.021700000000000053,-5.453712060979717
-0.022700000000000164,-5.453712060979717
-0.023700000000000054,-5.453712060979717
-0.024700000000000166,-5.453712060979717
-0.025700000000000056,-5.453712060979717
-0.026700000000000168,-5.497568111275533
-0.027700000000000058,-5.497568111275533
-0.02870000000000017,-5.497568111275533
-0.02970000000000006,-5.497568111275533
-0.03070000000000017,-5.5414241615713475
-0.03170000000000006,-5.5414241615713475
-0.03270000000000017,-5.5414241615713475
-0.03370000000000006,-5.5414241615713475
-0.034700000000000175,-5.5414241615713475
-0.035700000000000065,-5.585280211867165
-0.03670000000000018,-5.585280211867165
-0.03770000000000007,-5.585280211867165
-0.03870000000000018,-5.585280211867165
-0.03970000000000007,-5.585280211867165
-0.04070000000000018,-5.585280211867165
-0.04170000000000007,-5.585280211867165
-0.04270000000000018,-5.585280211867165
-0.04370000000000007,-5.585280211867165
-0.044700000000000184,-5.629136262162981
-0.045700000000000074,-5.629136262162981
-0.046700000000000186,-5.672992312458796
-0.047700000000000076,-5.672992312458796
-0.04870000000000019,-5.672992312458796
-0.04970000000000008,-5.672992312458796
-0.05070000000000019,-5.629136262162981
-0.05170000000000008,-5.629136262162981
-0.05270000000000019,-5.672992312458796
-0.05370000000000008,-5.629136262162981
-0.05470000000000019,-5.672992312458796
-0.05570000000000008,-5.672992312458796
-0.056700000000000195,-5.715433651454749
-0.057700000000000085,-5.715433651454749
-0.058700000000000196,-5.715433651454749
-0.059700000000000086,-5.715433651454749
-0.0607000000000002,-5.715433651454749
-0.06170000000000009,-5.715433651454749
-0.0627000000000002,-5.759289701750564
-0.06370000000000009,-5.715433651454749
-0.0647000000000002,-5.759289701750564
-0.06570000000000009,-5.715433651454749
-0.0667000000000002,-5.715433651454749
-0.0677000000000001,-5.715433651454749
-0.0687000000000002,-5.759289701750564
-0.0697000000000001,-5.759289701750564
-0.07070000000000021,-5.80314575204638
-0.0717000000000001,-5.759289701750564
-0.07270000000000021,-5.759289701750564
-0.0737000000000001,-5.759289701750564
-0.07470000000000021,-5.80314575204638
-0.0757000000000001,-5.80314575204638
-0.07670000000000021,-5.80314575204638
-0.0777000000000001,-5.80314575204638
-0.07870000000000021,-5.80314575204638
-0.0797000000000001,-5.80314575204638
-0.08070000000000022,-5.80314575204638
-0.0817000000000001,-5.80314575204638
-0.08270000000000022,-5.80314575204638
-0.08370000000000011,-5.847001802342197
-0.08470000000000022,-5.847001802342197
-0.08570000000000011,-5.847001802342197
-0.08670000000000022,-5.847001802342197
-0.08770000000000011,-5.847001802342197
-0.08870000000000022,-5.847001802342197
-0.08970000000000011,-5.890857852638012
-0.09070000000000022,-5.847001802342197
-0.09170000000000011,-5.847001802342197
-0.09270000000000023,-5.890857852638012
-0.09370000000000012,-5.890857852638012
-0.09470000000000023,-5.890857852638012
-0.09570000000000012,-5.890857852638012
-0.09670000000000023,-5.890857852638012
-0.09770000000000012,-5.9347139029338285
-0.09870000000000023,-5.9347139029338285
-0.09970000000000012,-5.9347139029338285
-0.10070000000000023,-5.9347139029338285
-0.10170000000000012,-5.9347139029338285
-0.10270000000000024,-5.9347139029338285
-0.10370000000000013,-5.9347139029338285
-0.10470000000000024,-5.9347139029338285
-0.10570000000000013,-5.9347139029338285
-0.10670000000000024,-5.9347139029338285
-0.10770000000000013,-5.9347139029338285
-0.10870000000000024,-5.977155241929781
-0.10970000000000013,-5.977155241929781
-0.11070000000000024,-5.977155241929781
-0.11170000000000013,-6.021011292225596
-0.11270000000000002,-5.977155241929781
-0.11370000000000013,-6.021011292225596
-0.11470000000000002,-6.021011292225596
-0.11570000000000014,-6.021011292225596
-0.11670000000000003,-6.021011292225596
-0.11770000000000014,-6.021011292225596
-0.11870000000000003,-6.021011292225596
-0.11970000000000014,-6.021011292225596
-0.12070000000000003,-6.021011292225596
-0.12170000000000014,-6.021011292225596
-0.12270000000000003,-6.064867342521412
-0.12370000000000014,-6.064867342521412
-0.12470000000000003,-6.064867342521412
-0.12570000000000014,-6.064867342521412
-0.12670000000000003,-6.108723392817228
-0.12770000000000015,-6.108723392817228
-0.12870000000000004,-6.108723392817228
-0.12970000000000015,-6.108723392817228
-0.13070000000000004,-6.108723392817228
-0.13170000000000015,-6.108723392817228
-0.13270000000000004,-6.152579443113044
-0.13370000000000015,-6.108723392817228
-0.13470000000000004,-6.108723392817228
-0.13570000000000015,-6.152579443113044
-0.13670000000000004,-6.152579443113044
-0.13770000000000016,-6.152579443113044
-0.13870000000000005,-6.152579443113044
-0.13970000000000016,-6.196435493408861
-0.14070000000000005,-6.196435493408861
-0.14170000000000016,-6.196435493408861
-0.14270000000000005,-6.196435493408861
-0.14370000000000016,-6.196435493408861
-0.14470000000000005,-6.238876832404812
-0.14570000000000016,-6.238876832404812
-0.14670000000000005,-6.238876832404812
-0.14770000000000016,-6.238876832404812
-0.14870000000000005,-6.238876832404812
-0.14970000000000017,-6.282732882700628
-0.15070000000000006,-6.282732882700628
-0.15170000000000017,-6.282732882700628
-0.15270000000000006,-6.326588932996443
-0.15370000000000017,-6.326588932996443
-0.15470000000000006,-6.326588932996443
-0.15570000000000017,-6.326588932996443
-0.15670000000000006,-6.37044498329226
-0.15770000000000017,-6.37044498329226
-0.15870000000000006,-6.37044498329226
-0.15970000000000018,-6.37044498329226
-0.16070000000000007,-6.37044498329226
-0.16170000000000018,-6.414301033588076
-0.16270000000000007,-6.414301033588076
-0.16370000000000018,-6.414301033588076
-0.16470000000000007,-6.458157083883892
-0.16570000000000018,-6.458157083883892
-0.16670000000000007,-6.500598422879844
-0.16770000000000018,-6.500598422879844
-0.16870000000000007,-6.500598422879844
-0.16970000000000018,-6.500598422879844
-0.17070000000000007,-6.500598422879844
-0.17170000000000019,-6.54445447317566
-0.17270000000000008,-6.54445447317566
-0.1737000000000002,-6.54445447317566
-0.17470000000000008,-6.588310523471475
-0.1757000000000002,-6.588310523471475
-0.17670000000000008,-6.588310523471475
-0.1777000000000002,-6.632166573767292
-0.17870000000000008,-6.6760226240631075
-0.1797000000000002,-6.6760226240631075
-0.18070000000000008,-6.6760226240631075
-0.1817000000000002,-6.719878674358924
-0.18270000000000008,-6.719878674358924
-0.1837000000000002,-6.762320013354876
-0.1847000000000001,-6.762320013354876
-0.1857000000000002,-6.762320013354876
-0.1867000000000001,-6.806176063650692
-0.1877000000000002,-6.806176063650692
-0.1887000000000001,-6.850032113946507
-0.1897000000000002,-6.893888164242324
-0.1907000000000001,-6.93774421453814
-0.1917000000000001,-6.93774421453814
-0.19269999999999998,-6.981600264833956
-0.1937000000000001,-7.024041603829907
-0.19469999999999998,-6.981600264833956
-0.1957000000000001,-7.024041603829907
-0.19669999999999999,-7.067897654125724
-0.1977000000000001,-7.067897654125724
-0.1987,-7.111753704421539
-0.1997000000000001,-7.111753704421539
-0.2007,-7.155609754717355
-0.2017000000000001,-7.199465805013171
-0.2027,-7.199465805013171
-0.2037000000000001,-7.243321855308987
-0.2047,-7.28576319430494
-0.2057000000000001,-7.329619244600755
-0.2067,-7.37347529489657
-0.2077000000000001,-7.37347529489657
-0.2087,-7.4173313451923875
-0.2097000000000001,-7.461187395488204
-0.2107,-7.461187395488204
-0.2117000000000001,-7.50504344578402
-0.2127,-7.5474847847799715
-0.2137000000000001,-7.591340835075788
-0.2147,-7.635196885371603
-0.2157000000000001,-7.722908985963235
-0.2167,-7.7653503249591855
-0.21770000000000012,-7.7653503249591855
-0.2187,-7.809206375255003
-0.21970000000000012,-7.853062425550818
-0.2207,-7.896918475846635
-0.22170000000000012,-7.940774526142452
-0.2227,-7.984630576438266
-0.22370000000000012,-8.027071915434218
-0.2247,-8.070927965730034
-0.22570000000000012,-8.11478401602585
-0.2267,-8.158640066321666
-0.22770000000000012,-8.202496116617484
-0.22870000000000001,-8.288793505909249
-0.22970000000000013,-8.332649556205066
-0.23070000000000002,-8.4203616567967
-0.23170000000000013,-8.464217707092514
-0.23270000000000002,-8.508073757388331
-0.23370000000000013,-8.55051509638428
-0.23470000000000002,-8.594371146680096
-0.23570000000000013,-8.68208324727173
-0.23670000000000002,-8.725939297567548
-0.2376999999999999,-8.769795347863363
-0.23870000000000002,-8.85609273715513
-0.2396999999999999,-8.899948787450944
-0.24070000000000003,-8.987660888042578
-0.24169999999999991,-9.031516938338395
-0.24270000000000003,-9.073958277334345
-0.24369999999999992,-9.161670377925978
-0.24470000000000003,-9.24938247851761
-0.24569999999999992,-9.335679867809377
-0.24670000000000003,-9.423391968401008
-0.24769999999999992,-9.511104068992642
-0.24870000000000003,-9.55496011928846
-0.24969999999999992,-9.59740145828441
-0.25070000000000003,-9.685113558876042
-0.2516999999999999,-9.728969609171857
-0.25270000000000004,-9.81668170976349
-0.2536999999999999,-9.946835149351072
-0.25470000000000004,-9.99069119964689
-0.2556999999999999,-10.078403300238522
-0.25670000000000004,-10.164700689530287
-0.25769999999999993,-10.296268840417738
-0.25870000000000004,-10.382566229709504
-0.25969999999999993,-10.470278330301136
-0.26070000000000004,-10.557990430892769
-0.26169999999999993,-10.644287820184536
-0.26270000000000004,-10.731999920776168
-0.26369999999999993,-10.819712021367803
-0.26470000000000005,-10.906009410659568
-0.26569999999999994,-11.037577561547016
-0.26670000000000005,-11.1677310011346
-0.26769999999999994,-11.255443101726232
-0.26870000000000005,-11.385596541313816
-0.26969999999999994,-11.473308641905447
-0.27070000000000005,-11.604876792792895
-0.27169999999999994,-11.691174182084664
-0.27270000000000005,-11.82274233297211
-0.27369999999999994,-11.952895772559694
-0.27470000000000006,-12.084463923447142
-0.27569999999999995,-12.170761312738911
-0.27670000000000006,-12.258473413330542
-0.27769999999999995,-12.390041564217992
-0.27870000000000006,-12.520195003805576
-0.27969999999999995,-12.651763154693022
-0.28070000000000006,-12.781916594280606
-0.28169999999999995,-12.913484745168056
-0.28270000000000006,-13.087494235051453
-0.28369999999999995,-13.217647674639037
-0.28470000000000006,-13.30535977523067
-0.28569999999999995,-13.436927926118118
-0.28670000000000007,-13.567081365705702
-0.28769999999999996,-13.741090855589102
-0.28870000000000007,-13.872659006476551
-0.28969999999999996,-14.002812446064135
-0.29070000000000007,-14.13438059695158
-0.29169999999999996,-14.26028990263957
-0.29270000000000007,-14.444202371622024
-0.29369999999999996,-14.61396772760583
-0.2947000000000001,-14.741291744593681
-0.29569999999999996,-14.925204213576137
-0.2967000000000001,-15.094969569559943
-0.29769999999999996,-15.222293586547794
-0.2987000000000001,-15.349617603535648
-0.29969999999999997,-15.533530072518102
-0.3007000000000001,-15.74573676749786
-0.30169999999999997,-15.91550212348166
-0.3027000000000001,-16.099414592464115
-0.30369999999999997,-16.22673860945197
-0.3047000000000001,-16.396503965435777
-0.30569999999999997,-16.580416434418233
-0.3067000000000001,-16.750181790402035
-0.3077,-16.919947146385837
-0.3087000000000001,-17.146300954364243
-0.3097,-17.316066310348052
-0.3107000000000001,-17.542420118326454
-0.3117,-17.669744135314307
-0.3127000000000001,-17.881950830294063
-0.3137,-18.06586329927652
-0.3147000000000001,-18.27806999425627
-0.3157,-18.49027668923603
-0.3167000000000001,-18.674189158218486
-0.3177,-18.88639585319824
-0.3187000000000001,-19.056161209182044
-0.3197,-19.28251501716045
-0.3207000000000001,-19.452280373144255
-0.3217,-19.678634181122664
-0.3227000000000001,-19.93328221509837
-0.3237,-20.202077362072725
-0.3247000000000001,-20.371842718056527
-0.3257,-20.584049413036283
-0.3267000000000001,-20.810403221014692
-0.3277,-21.022609915994444
-0.3287000000000001,-21.248963723972853
-0.3297,-21.503611757948562
-0.3307000000000001,-21.772406904922917
-0.3317,-21.98461359990267
-0.3327000000000001,-22.196820294882425
-0.3337,-22.42317410286083
-0.3347000000000001,-22.67782213683654
-0.3357,-22.946617283810895
-0.3367000000000001,-23.24370665678255
-0.3377,-23.51250180375691
-0.3387000000000001,-23.724708498736668
-0.3397,-23.993503645711023
-0.3407000000000001,-24.24815167968673
-0.3417,-24.516946826661083
-0.3427000000000001,-24.814036199632742
-0.3437,-25.12527268560305
-0.3447000000000001,-25.39406783257741
-0.3457,-25.648715866553115
-0.3467000000000001,-25.86092256153287
-0.3477,-26.17215904750318
-0.3487000000000001,-26.483395533473487
-0.3497,-26.780484906445146
-0.3507000000000001,-27.091721392415455
-0.3517,-27.34636942639116
-0.3527000000000001,-27.65760591236147
-0.3537,-27.912253946337174
-0.3547000000000001,-28.22349043230748
-0.3557,-28.577168257273744
-0.35670000000000013,-28.831816291249446
-0.3577,-29.14305277721976
-0.35870000000000013,-29.440142150191413
-0.3597,-29.751378636161718
-0.36070000000000013,-30.04846800913338
-0.3617,-30.402145834099635
-0.3626999999999999,-30.7558236590659
-0.3637,-31.052913032037555
-0.3646999999999999,-31.36414951800786
-0.3657,-31.717827342974125
-0.3666999999999999,-32.05735805494172
-0.3677,-32.368594540912035
-0.3686999999999999,-32.70812525287965
-0.36970000000000003,-33.06180307784591
-0.3706999999999999,-33.41548090281216
-0.37170000000000003,-33.755011614779775
-0.3726999999999999,-34.10868943974604
-0.37370000000000003,-34.50480860370825
-0.3746999999999999,-34.85848642867451
-0.37570000000000003,-35.198017140642115
-0.3766999999999999,-35.55169496560837
-0.37770000000000004,-35.90537279057463
-0.3786999999999999,-36.28734484153819
-0.37970000000000004,-36.64102266650445
-0.3806999999999999,-37.037141830466666
-0.38170000000000004,-37.41911388143023
-0.38269999999999993,-37.85767438438838
-0.38370000000000004,-38.211352209354644
-0.38469999999999993,-38.607471373316855
-0.38570000000000004,-38.90456074628851
-0.38669999999999993,-39.258238571254765
-0.38770000000000004,-39.654357735216976
-0.38869999999999993,-40.03632978618054
-0.38970000000000005,-40.4748902891387
-0.39069999999999994,-40.91345079209687
-0.39170000000000005,-41.352011295055014
-0.39269999999999994,-41.70568912002128
-0.39370000000000005,-42.087661170984845
-0.39469999999999994,-42.483780334947056
-0.39570000000000005,-42.92234083790521
-0.39669999999999994,-43.36090134086337
-0.39770000000000005,-43.75702050482558
-0.39869999999999994,-44.138992555789144
-0.39970000000000006,-44.577553058747306
-0.40069999999999995,-44.97367222270952
-0.40170000000000006,-45.36979138667173
-0.40269999999999995,-45.79420477663124
-0.40370000000000006,-46.2327652795894
-0.40469999999999995,-46.713767121543505
-0.40570000000000006,-47.15232762450167
-0.40669999999999995,-47.590888127459834
-0.40770000000000006,-48.029448630417996
-0.40869999999999995,-48.41142068138156
-0.40970000000000006,-48.80753984534376
-0.41069999999999995,-49.24610034830193
-0.41170000000000007,-49.68466085126009
-0.41269999999999996,-50.1656626932142
-0.41370000000000007,-50.64666453516831
-0.41469999999999996,-51.071077925127824
-0.41570000000000007,-51.509638428085985
-0.41669999999999996,-51.90575759204819
-0.41770000000000007,-52.34431809500636
-0.41869999999999996,-52.82531993696047
-0.4197000000000001,-53.30632177891458
-0.42069999999999996,-53.82976495986464
-0.4217000000000001,-54.31076680181876
-0.42269999999999996,-54.834209982768826
-0.4237000000000001,-55.25862337272834
-0.42469999999999997,-55.65474253669055
-0.4257000000000001,-56.05086170065276
-0.42669999999999997,-56.489422203610914
-0.4277000000000001,-56.97042404556503
-0.42869999999999997,-57.493867226515086
-0.4297000000000001,-58.05975174646111
-0.43069999999999997,-58.62563626640712
-0.4317000000000001,-59.14907944735718
-0.4327,-59.587639950315335
-0.4337000000000001,-60.02620045327351
-0.4347,-60.40817250423707
-0.4357000000000001,-60.889174346191176
-0.4367,-61.37017618814529
-0.4377000000000001,-61.89361936909536
-0.4387,-62.41706255004542
-0.4397000000000001,-62.98294706999144
-0.4407,-63.421507572949594
-0.4417000000000001,-63.902509414903705
-0.4427,-64.34106991786187
-0.4437000000000001,-64.82207175981598
-0.4447,-65.3030736017701
-0.4457000000000001,-65.82651678272015
-0.4467,-66.39240130266617
-0.4477000000000001,-66.91584448361623
-0.4487,-67.43928766456631
-0.4497000000000001,-67.86370105452582
-0.4507,-68.30226155748396
-0.4517000000000001,-68.78326339943808
-0.4527,-69.30670658038814
-0.4537000000000001,-69.78770842234226
-0.4547,-70.22626892530042
-0.4557000000000001,-70.70727076725453
-0.4567,-71.18827260920865
-0.4577000000000001,-71.75415712915466
-0.4587,-72.27760031010472
-0.4597000000000001,-72.84348483005074
-0.4607,-73.3669280110008
-0.4617000000000001,-73.80548851395896
-0.4627,-74.32893169490903
-0.4637000000000001,-74.76749219786718
-0.4647,-75.29093537881725
-0.4657000000000001,-75.81437855976732
-0.4667,-76.38026307971333
-0.4677000000000001,-76.86126492166746
-0.4687,-77.34226676362155
-0.4697000000000001,-77.80912149257702
-0.4707,-78.38915312552167
-0.4717000000000001,-78.9550376454677
-0.4727,-79.56336350440966
-0.4737000000000001,-80.17168936335163
-0.4747,-80.73757388329766
-0.4757000000000001,-81.21857572525175
-0.4767,-81.69957756720586
-0.4777000000000001,-82.22302074815593
-0.4787,-82.8313466070979
-0.4797000000000001,-83.43967246603985
-0.4807,-84.04799832498183
-0.48170000000000013,-84.57144150593189
-0.4827,-85.09488468688197
-0.48370000000000013,-85.61832786783202
-0.4847,-86.14177104878208
-0.48570000000000013,-86.75009690772404
-0.4867,-86.5378902127443
-0.48570000000000013,-85.052443347886
-0.4847,-83.79335029100612
-0.48370000000000013,-82.61913991211814
-0.4827,-81.51566509822342
-0.48170000000000013,-80.52536718831789
-0.4807,-79.60580484340561
-0.4797000000000001,-78.72868383748929
-0.4787,-77.86570994457162
-0.4777000000000001,-77.03103027765125
-0.4767,-76.15390927173492
-0.4757000000000001,-75.2484940398213
-0.4747,-74.37137303390499
-0.4737000000000001,-73.53669336698461
-0.4727,-72.80104349105478
-0.4717000000000001,-72.00880516313036
-0.4707,-71.18827260920865
-0.4697000000000001,-70.35359294228827
-0.4687,-69.4906190493706
-0.4677000000000001,-68.65593938245023
-0.4667,-67.82125971552985
-0.4657000000000001,-67.08560983960004
-0.4647,-66.39240130266617
-0.4637000000000001,-65.68504565273366
-0.4627,-64.94939577680383
-0.4617000000000001,-64.15715744887942
-0.4607,-63.3366248949577
