Potential V vs RHE, Current mA cm-2
0.013299999999999867,-0.30755823659065895
0.012299999999999978,-1.2671569112891135
0.011299999999999866,-1.92117794521672
0.010299999999999976,-2.4007650758709675
0.009299999999999864,-2.7501987669376318
0.008299999999999974,-3.055776407708479
0.007299999999999862,-3.2297858975918787
0.006299999999999972,-3.403795387475278
0.00529999999999986,-3.4915074880669104
0.0042999999999999705,-3.623075638954359
0.0032999999999998586,-3.6655169779503103
0.0022999999999999687,-3.7093730282461257
0.0012999999999998568,-3.7970851288377587
0.00029999999999996696,-3.840941179133574
-0.000700000000000145,-3.884797229429391
-0.0017000000000000348,-3.884797229429391
-0.0027000000000001467,-3.927238568425342
-0.0037000000000000366,-3.971094618721158
-0.0047000000000001485,-4.014950669016974
-0.005700000000000038,-4.014950669016974
-0.00670000000000015,-4.0588067193127895
-0.00770000000000004,-4.0588067193127895
-0.008700000000000152,-4.0588067193127895
-0.009700000000000042,-4.0588067193127895
-0.010700000000000154,-4.102662769608606
-0.011700000000000044,-4.102662769608606
-0.012700000000000156,-4.146518819904423
-0.013700000000000045,-4.146518819904423
-0.014700000000000157,-4.146518819904423
-0.015700000000000047,-4.1889601589003735
-0.01670000000000016,-4.1889601589003735
-0.01770000000000005,-4.1889601589003735
-0.01870000000000016,-4.1889601589003735
-0.01970000000000005,-4.1889601589003735
-0.020700000000000163,-4.1889601589003735
-0.021700000000000053,-4.23281620919619
-0.022700000000000164,-4.23281620919619
-0.023700000000000054,-4.23281620919619
-0.024700000000000166,-4.276672259492005
-0.025700000000000056,-4.276672259492005
-0.026700000000000168,-4.276672259492005
-0.027700000000000058,-4.276672259492005
-0.02870000000000017,-4.276672259492005
-0.02970000000000006,-4.276672259492005
-0.03070000000000017,-4.276672259492005
-0.03170000000000006,-4.276672259492005
-0.03270000000000017,-4.276672259492005
-0.03370000000000006,-4.3205283097878215
-0.034700000000000175,-4.3205283097878215
-0.035700000000000065,-4.3205283097878215
-0.03670000000000018,-4.3205283097878215
-0.03770000000000007,-4.3205283097878215
-0.03870000000000018,-4.3205283097878215
-0.03970000000000007,-4.3205283097878215
-0.04070000000000018,-4.3205283097878215
-0.04170000000000007,-4.3205283097878215
-0.04270000000000018,-4.364384360083638
-0.04370000000000007,-4.364384360083638
-0.044700000000000184,-4.364384360083638
-0.045700000000000074,-4.364384360083638
-0.046700000000000186,-4.364384360083638
-0.047700000000000076,-4.364384360083638
-0.04870000000000019,-4.364384360083638
-0.04970000000000008,-4.364384360083638
-0.05070000000000019,-4.406825699079589
-0.05170000000000008,-4.406825699079589
-0.05270000000000019,-4.406825699079589
-0.05370000000000008,-4.406825699079589
-0.05470000000000019,-4.406825699079589
-0.05570000000000008,-4.406825699079589
-0.056700000000000195,-4.450681749375406
-0.057700000000000085,-4.406825699079589
-0.058700000000000196,-4.406825699079589
-0.059700000000000086,-4.406825699079589
-0.0607000000000002,-4.406825699079589
-0.06170000000000009,-4.450681749375406
-0.0627000000000002,-4.450681749375406
-0.06370000000000009,-4.450681749375406
-0.0647000000000002,-4.450681749375406
-0.06570000000000009,-4.450681749375406
-0.0667000000000002,-4.450681749375406
-0.0677000000000001,-4.494537799671222
-0.0687000000000002,-4.450681749375406
-0.0697000000000001,-4.450681749375406
-0.07070000000000021,-4.450681749375406
-0.0717000000000001,-4.494537799671222
-0.07270000000000021,-4.494537799671222
-0.0737000000000001,-4.494537799671222
-0.07470000000000021,-4.494537799671222
-0.0757000000000001,-4.538393849967037
-0.07670000000000021,-4.538393849967037
-0.0777000000000001,-4.494537799671222
-0.07870000000000021,-4.494537799671222
-0.0797000000000001,-4.494537799671222
-0.08070000000000022,-4.494537799671222
-0.0817000000000001,-4.538393849967037
-0.08270000000000022,-4.538393849967037
-0.08370000000000011,-4.538393849967037
-0.08470000000000022,-4.538393849967037
-0.08570000000000011,-4.538393849967037
-0.08670000000000022,-4.582249900262854
-0.08770000000000011,-4.538393849967037
-0.08870000000000022,-4.538393849967037
-0.08970000000000011,-4.538393849967037
-0.09070000000000022,-4.538393849967037
-0.09170000000000011,-4.582249900262854
-0.09270000000000023,-4.582249900262854
-0.09370000000000012,-4.582249900262854
-0.09470000000000023,-4.582249900262854
-0.09570000000000012,-4.582249900262854
-0.09670000000000023,-4.626105950558669
-0.09770000000000012,-4.582249900262854
-0.09870000000000023,-4.582249900262854
-0.09970000000000012,-4.582249900262854
-0.10070000000000023,-4.582249900262854
-0.10170000000000012,-4.626105950558669
-0.10270000000000024,-4.626105950558669
-0.10370000000000013,-4.626105950558669
-0.10470000000000024,-4.626105950558669
-0.10570000000000013,-4.626105950558669
-0.10670000000000024,-4.626105950558669
-0.10770000000000013,-4.668547289554621
-0.10870000000000024,-4.668547289554621
-0.10970000000000013,-4.668547289554621
-0.11070000000000024,-4.668547289554621
-0.11170000000000013,-4.668547289554621
-0.11270000000000002,-4.668547289554621
-0.11370000000000013,-4.712403339850438
-0.11470000000000002,-4.712403339850438
-0.11570000000000014,-4.712403339850438
-0.11670000000000003,-4.712403339850438
-0.11770000000000014,-4.712403339850438
-0.11870000000000003,-4.668547289554621
-0.11970000000000014,-4.712403339850438
-0.12070000000000003,-4.712403339850438
-0.12170000000000014,-4.712403339850438
-0.12270000000000003,-4.712403339850438
-0.12370000000000014,-4.712403339850438
-0.12470000000000003,-4.756259390146253
-0.12570000000000014,-4.756259390146253
-0.12670000000000003,-4.756259390146253
-0.12770000000000015,-4.756259390146253
-0.12870000000000004,-4.756259390146253
-0.12970000000000015,-4.756259390146253
-0.13070000000000004,-4.756259390146253
-0.13170000000000015,-4.756259390146253
-0.13270000000000004,-4.800115440442069
-0.13370000000000015,-4.800115440442069
-0.13470000000000004,-4.800115440442069
-0.13570000000000015,-4.843971490737885
-0.13670000000000004,-4.800115440442069
-0.13770000000000016,-4.843971490737885
-0.13870000000000005,-4.800115440442069
-0.13970000000000016,-4.843971490737885
-0.14070000000000005,-4.843971490737885
-0.14170000000000016,-4.843971490737885
-0.14270000000000005,-4.887827541033701
-0.14370000000000016,-4.887827541033701
-0.14470000000000005,-4.887827541033701
-0.14570000000000016,-4.887827541033701
-0.14670000000000005,-4.887827541033701
-0.14770000000000016,-4.9302688800296535
-0.14870000000000005,-4.887827541033701
-0.14970000000000017,-4.9302688800296535
-0.15070000000000006,-4.9302688800296535
-0.15170000000000017,-4.9302688800296535
-0.15270000000000006,-4.9302688800296535
-0.15370000000000017,-4.974124930325469
-0.15470000000000006,-4.974124930325469
-0.15570000000000017,-5.017980980621284
-0.15670000000000006,-5.017980980621284
-0.15770000000000017,-5.017980980621284
-0.15870000000000006,-5.017980980621284
-0.15970000000000018,-5.017980980621284
-0.16070000000000007,-5.017980980621284
-0.16170000000000018,-5.017980980621284
-0.16270000000000007,-5.0618370309171015
-0.16370000000000018,-5.0618370309171015
-0.16470000000000007,-5.105693081212917
-0.16570000000000018,-5.105693081212917
-0.16670000000000007,-5.105693081212917
-0.16770000000000018,-5.105693081212917
-0.16870000000000007,-5.105693081212917
-0.16970000000000018,-5.149549131508733
-0.17070000000000007,-5.149549131508733
-0.17170000000000019,-5.191990470504685
-0.17270000000000008,-5.191990470504685
-0.1737000000000002,-5.191990470504685
-0.17470000000000008,-5.235846520800501
-0.1757000000000002,-5.235846520800501
-0.17670000000000008,-5.235846520800501
-0.1777000000000002,-5.279702571096316
-0.17870000000000008,-5.279702571096316
-0.1797000000000002,-5.279702571096316
-0.18070000000000008,-5.279702571096316
-0.1817000000000002,-5.323558621392133
-0.18270000000000008,-5.367414671687949
-0.1837000000000002,-5.367414671687949
-0.1847000000000001,-5.411270721983764
-0.1857000000000002,-5.411270721983764
-0.1867000000000001,-5.411270721983764
-0.1877000000000002,-5.453712060979717
-0.1887000000000001,-5.453712060979717
-0.1897000000000002,-5.497568111275533
-0.1907000000000001,-5.497568111275533
-0.1917000000000001,-5.5414241615713475
-0.19269999999999998,-5.5414241615713475
-0.1937000000000001,-5.585280211867165
-0.19469999999999998,-5.629136262162981
-0.1957000000000001,-5.672992312458796
-0.19669999999999999,-5.672992312458796
-0.1977000000000001,-5.672992312458796
-0.1987,-5.672992312458796
-0.1997000000000001,-5.715433651454749
-0.2007,-5.759289701750564
-0.2017000000000001,-5.80314575204638
-0.2027,-5.847001802342197
-0.2037000000000001,-5.847001802342197
-0.2047,-5.890857852638012
-0.2057000000000001,-5.9347139029338285
-0.2067,-5.977155241929781
-0.2077000000000001,-5.977155241929781
-0.2087,-6.021011292225596
-0.2097000000000001,-6.021011292225596
-0.2107,-6.064867342521412
-0.2117000000000001,-6.108723392817228
-0.2127,-6.152579443113044
-0.2137000000000001,-6.196435493408861
-0.2147,-6.238876832404812
-0.2157000000000001,-6.282732882700628
-0.2167,-6.326588932996443
-0.21770000000000012,-6.326588932996443
-0.2187,-6.37044498329226
-0.21970000000000012,-6.414301033588076
-0.2207,-6.458157083883892
-0.22170000000000012,-6.500598422879844
-0.2227,-6.588310523471475
-0.22370000000000012,-6.632166573767292
-0.2247,-6.6760226240631075
-0.22570000000000012,-6.719878674358924
-0.2267,-6.762320013354876
-0.22770000000000012,-6.806176063650692
-0.22870000000000001,-6.850032113946507
-0.22970000000000013,-6.893888164242324
-0.23070000000000002,-6.93774421453814
-0.23170000000000013,-6.981600264833956
-0.23270000000000002,-7.067897654125724
-0.23370000000000013,-7.155609754717355
-0.23470000000000002,-7.199465805013171
-0.23570000000000013,-7.243321855308987
-0.23670000000000002,-7.28576319430494
-0.2376999999999999,-7.37347529489657
-0.23870000000000002,-7.4173313451923875
-0.2396999999999999,-7.50504344578402
-0.24070000000000003,-7.5474847847799715
-0.24169999999999991,-7.591340835075788
-0.24270000000000003,-7.679052935667419
-0.24369999999999992,-7.7653503249591855
-0.24470000000000003,-7.809206375255003
-0.24569999999999992,-7.896918475846635
-0.24670000000000003,-7.984630576438266
-0.24769999999999992,-8.027071915434218
-0.24870000000000003,-8.11478401602585
-0.24969999999999992,-8.202496116617484
-0.25070000000000003,-8.246352166913299
-0.2516999999999999,-8.332649556205066
-0.25270000000000004,-8.4203616567967
-0.2536999999999999,-8.508073757388331
-0.25470000000000004,-8.594371146680096
-0.2556999999999999,-8.68208324727173
-0.25670000000000004,-8.769795347863363
-0.25769999999999993,-8.812236686859313
-0.25870000000000004,-8.899948787450944
-0.25969999999999993,-9.031516938338395
-0.26070000000000004,-9.073958277334345
-0.26169999999999993,-9.161670377925978
-0.26270000000000004,-9.293238528813426
-0.26369999999999993,-9.423391968401008
-0.26470000000000005,-9.511104068992642
-0.26569999999999994,-9.59740145828441
-0.26670000000000005,-9.685113558876042
-0.26769999999999994,-9.81668170976349
-0.26870000000000005,-9.902979099055257
-0.26969999999999994,-9.99069119964689
-0.27070000000000005,-10.078403300238522
-0.27169999999999994,-10.208556739826104
-0.27270000000000005,-10.296268840417738
-0.27369999999999994,-10.470278330301136
-0.27470000000000006,-10.557990430892769
-0.27569999999999995,-10.688143870480351
-0.27670000000000006,-10.819712021367803
-0.27769999999999995,-10.906009410659568
-0.27870000000000006,-11.037577561547016
-0.27969999999999995,-11.1677310011346
-0.28070000000000006,-11.299299152022046
-0.28169999999999995,-11.385596541313816
-0.28270000000000006,-11.517164692201263
-0.28369999999999995,-11.691174182084664
-0.28470000000000006,-11.82274233297211
-0.28569999999999995,-11.996751822855511
-0.28670000000000007,-12.12831997374296
-0.28769999999999996,-12.258473413330542
-0.28870000000000007,-12.390041564217992
-0.28969999999999996,-12.520195003805576
-0.29070000000000007,-12.694204493688973
-0.29169999999999996,-12.825772644576423
-0.29270000000000007,-12.99978213445982
-0.29369999999999996,-13.175206335643086
-0.2947000000000001,-13.30535977523067
-0.29569999999999996,-13.47936926511407
-0.2967000000000001,-13.654793466297335
-0.29769999999999996,-13.784946905884919
-0.2987000000000001,-13.960371107068182
-0.29969999999999997,-14.090524546655764
-0.3007000000000001,-14.26028990263957
-0.30169999999999997,-14.444202371622024
-0.3027000000000001,-14.65640906660178
-0.30369999999999997,-14.783733083589633
-0.3047000000000001,-14.967645552572087
-0.30569999999999997,-15.179852247551842
-0.3067000000000001,-15.349617603535648
-0.3077,-15.533530072518102
-0.3087000000000001,-15.70329542850191
-0.3097,-15.87306078448571
-0.3107000000000001,-16.099414592464115
-0.3117,-16.269179948447924
-0.3127000000000001,-16.438945304431726
-0.3137,-16.665299112410132
-0.3147000000000001,-16.877505807389888
-0.3157,-17.103859615368293
-0.3167000000000001,-17.2736249713521
-0.3177,-17.4433903273359
-0.3187000000000001,-17.627302796318357
-0.3197,-17.839509491298113
-0.3207000000000001,-18.10830463827247
-0.3217,-18.320511333252224
-0.3227000000000001,-18.53271802823198
-0.3237,-18.759071836210385
-0.3247000000000001,-18.97127853119014
-0.3257,-19.197632339168546
-0.3267000000000001,-19.452280373144255
-0.3277,-19.678634181122664
-0.3287000000000001,-19.93328221509837
-0.3297,-20.159636023076775
-0.3307000000000001,-20.371842718056527
-0.3317,-20.584049413036283
-0.3327000000000001,-20.85284456001064
-0.3337,-21.149933932982297
-0.3347000000000001,-21.418729079956652
-0.3357,-21.63093577493641
-0.3367000000000001,-21.857289582914817
-0.3377,-22.069496277894572
-0.3387000000000001,-22.295850085872978
-0.3397,-22.592939458844636
-0.3407000000000001,-22.861734605818995
-0.3417,-23.1163826397947
-0.3427000000000001,-23.385177786769056
-0.3437,-23.597384481748815
-0.3447000000000001,-23.951062306715073
-0.3457,-24.20571034069078
-0.3467000000000001,-24.474505487665134
-0.3477,-24.729153521640843
-0.3487000000000001,-24.997948668615198
-0.3497,-25.252596702590903
-0.3507000000000001,-25.563833188561212
-0.3517,-25.81848122253692
-0.3527000000000001,-26.129717708507226
-0.3537,-26.440954194477534
-0.3547000000000001,-26.738043567449193
-0.3557,-27.091721392415455
-0.35670000000000013,-27.34636942639116
-0.3577,-27.615164573365515
-0.35870000000000013,-27.869812607341224
-0.3597,-28.22349043230748
-0.36070000000000013,-28.619609596269694
-0.3617,-28.91669896924135
-0.3626999999999999,-29.22793545521166
-0.3637,-29.525024828183312
-0.3646999999999999,-29.878702653149578
-0.3657,-30.274821817111786
-0.3666999999999999,-30.614352529079397
-0.3677,-30.925589015049702
-0.3686999999999999,-31.23682550102001
-0.36970000000000003,-31.533914873991666
-0.3706999999999999,-31.887592698957924
-0.37170000000000003,-32.32615320191609
-0.3726999999999999,-32.66568391388369
-0.37370000000000003,-32.97692039985401
-0.3746999999999999,-33.288156885824314
-0.37570000000000003,-33.670128936787876
-0.3766999999999999,-34.02380676175414
-0.37770000000000004,-34.41992592571634
-0.3786999999999999,-34.75945663768395
-0.37970000000000004,-35.07069312365426
-0.3806999999999999,-35.42437094862052
-0.38170000000000004,-35.806342999584075
-0.38269999999999993,-36.20246216354629
-0.38370000000000004,-36.5985813275085
-0.38469999999999993,-36.95225915247476
-0.38570000000000004,-37.291789864442364
-0.38669999999999993,-37.645467689408626
-0.38770000000000004,-38.08402819236679
-0.38869999999999993,-38.46600024333035
-0.38970000000000005,-38.86211940729255
-0.39069999999999994,-39.21579723225882
-0.39170000000000005,-39.56947505722508
-0.39269999999999994,-39.99388844718459
-0.39370000000000005,-40.3900076111468
-0.39469999999999994,-40.78612677510901
-0.39570000000000005,-41.139804600075266
-0.39669999999999994,-41.52177665103883
-0.39770000000000005,-41.96033715399699
-0.39869999999999994,-42.3564563179592
-0.39970000000000006,-42.752575481921404
-0.40069999999999995,-43.09210619388902
-0.40170000000000006,-43.48822535785123
-0.40269999999999995,-43.92678586080939
-0.40370000000000006,-44.36534636376755
-0.40469999999999995,-44.74731841473111
-0.40570000000000006,-45.143437578693316
-0.40669999999999995,-45.581998081651484
-0.40770000000000006,-46.02055858460964
-0.40869999999999995,-46.45911908756781
-0.40970000000000006,-46.84109113853137
-0.41069999999999995,-47.23721030249357
-0.41170000000000007,-47.67577080545174
-0.41269999999999996,-48.156772647405845
-0.41370000000000007,-48.63777448935996
-0.41469999999999996,-49.076334992318124
-0.41570000000000007,-49.458307043281685
-0.41669999999999996,-49.81198486824794
-0.41770000000000007,-50.2505453712061
-0.41869999999999996,-50.64666453516831
-0.4197000000000001,-51.127666377122424
-0.42069999999999996,-51.65110955807249
-0.4217000000000001,-52.17455273902255
-0.42269999999999996,-52.59896612898206
-0.4237000000000001,-52.995085292944275
-0.42469999999999997,-53.433645795902436
-0.4257000000000001,-53.872206298860604
-0.42669999999999997,-54.39564947981066
-0.4277000000000001,-54.876651321764776
-0.42869999999999997,-55.357653163718886
-0.4297000000000001,-55.73962521468245
-0.43069999999999997,-56.1781857176406
-0.4317000000000001,-56.65918755959472
-0.4327,-57.182630740544774
-0.4337000000000001,-57.66363258249889
-0.4347,-58.10219308545706
-0.4357000000000001,-58.583194927411164
-0.4367,-59.02175543036933
-0.4377000000000001,-59.54519861131939
-0.4387,-60.06864179226946
-0.4397000000000001,-60.49305518222897
-0.4407,-60.974057024183075
-0.4417000000000001,-61.412617527141244
-0.4427,-61.851178030099405
-0.4437000000000001,-62.33217987205352
-0.4447,-62.855623053003576
-0.4457000000000001,-63.3366248949577
-0.4467,-63.81762673691181
-0.4477000000000001,-64.25618723986996
-0.4487,-64.68060062982947
-0.4497000000000001,-65.20404381077954
-0.4507,-65.7274869917296
-0.4517000000000001,-66.25093017267966
-0.4527,-66.68949067563783
-0.4537000000000001,-67.128051178596
-0.4547,-67.6090530205501
-0.4557000000000001,-68.21737887949207
-0.4567,-68.78326339943808
-0.4577000000000001,-69.30670658038814
-0.4587,-69.74526708334632
-0.4597000000000001,-70.18382758630447
-0.4607,-70.57994675026669
-0.4617000000000001,-71.18827260920865
-0.4627,-71.7965984681506
-0.4637000000000001,-72.40492432709259
-0.4647,-72.97080884703858
-0.4657000000000001,-73.40936934999675
-0.4667,-73.80548851395896
-0.4677000000000001,-74.28649035591307
-0.4687,-74.8523748758591
-0.4697000000000001,-75.50314207379701
-0.4707,-76.06902659374302
-0.4717000000000001,-76.46514575770523
-0.4727,-76.86126492166746
-0.4737000000000001,-77.28567831162695
-0.4747,-77.90815128356756
-0.4757000000000001,-78.51647714250953
-0.4767,-79.08236166245555
-0.4777000000000001,-79.56336350440966
-0.4787,-80.00192400736783
-0.4797000000000001,-80.46877873632329
-0.4807,-80.9497805782774
-0.48170000000000013,-81.47322375922747
-0.4827,-81.95422560118158
-0.48370000000000013,-82.47766878213164
-0.4847,-83.08599464107361
-0.48570000000000013,-83.75090895201016
-0.4867,-83.43967246603985
-0.48570000000000013,-81.86934292318966
-0.4847,-80.61024986630979
-0.48370000000000013,-79.56336350440966
-0.4827,-78.64380115949739
-0.48170000000000013,-77.7242388145851
-0.4807,-76.7622351306769
-0.4797000000000001,-75.8992612377592
-0.4787,-75.06458157083884
-0.4777000000000001,-74.37137303390499
-0.4767,-73.53669336698461
-0.4757000000000001,-72.63127813507097
-0.4747,-71.75415712915466
-0.4737000000000001,-71.0043601402262
-0.4727,-70.31115160329232
-0.4717000000000001,-69.53306038836655
-0.4707,-68.65593938245023
-0.4697000000000001,-67.82125971552985
-0.4687,-67.08560983960004
-0.4677000000000001,-66.34995996367022
-0.4667,-65.5577216357458
-0.4657000000000001,-64.77963042082003
-0.4647,-63.98739209289561
-0.4637000000000001,-63.251742216965795
-0.4627,-62.544386567033264
-0.4617000000000001,-61.851178030099405
