Sept. 14, 2024   08:57:51
Cyclic Voltammetry
File: c:/users/guazh/data/20240903_batch_252_500/2024-09-03-exp350\exp350-2024-09-14t08_36_55-h2koh\exp350_cv_sr_800mvs_efin_-1700mv.bin
Data Source:  Experiment
Instrument Model:  CHI760E
Header: CV ran at 800 mVs
Note: 

Init E (V) = -1
High E (V) = -1
Low E (V) = -1.7
Final E (V) = -1
Init P/N = N
Scan Rate (V/s) = 0.8
Segment = 3
Sample Interval (V) = 0.001
Quiet Time (sec) = 2
Sensitivity (A/V) = 0.01
Comp R (ohm) = 2.1

Results:

Channel 1:
Segment 1:

Segment 2:

Segment 3:

Potential/V, Current/A

-1.000, 2.482e-5
-1.001, 8.957e-5
-1.002, 1.389e-4
-1.003, 1.759e-4
-1.004, 2.067e-4
-1.005, 2.314e-4
-1.006, 2.499e-4
-1.007, 2.653e-4
-1.008, 2.776e-4
-1.009, 2.900e-4
-1.010, 2.992e-4
-1.011, 3.054e-4
-1.012, 3.146e-4
-1.013, 3.208e-4
-1.014, 3.239e-4
-1.015, 3.300e-4
-1.016, 3.331e-4
-1.017, 3.393e-4
-1.018, 3.424e-4
-1.019, 3.424e-4
-1.020, 3.455e-4
-1.021, 3.455e-4
-1.022, 3.485e-4
-1.023, 3.516e-4
-1.024, 3.516e-4
-1.025, 3.547e-4
-1.026, 3.578e-4
-1.027, 3.578e-4
-1.028, 3.609e-4
-1.029, 3.609e-4
-1.030, 3.640e-4
-1.031, 3.640e-4
-1.032, 3.640e-4
-1.033, 3.640e-4
-1.034, 3.640e-4
-1.035, 3.670e-4
-1.036, 3.640e-4
-1.037, 3.670e-4
-1.038, 3.670e-4
-1.039, 3.701e-4
-1.040, 3.670e-4
-1.041, 3.701e-4
-1.042, 3.701e-4
-1.043, 3.701e-4
-1.044, 3.732e-4
-1.045, 3.732e-4
-1.046, 3.732e-4
-1.047, 3.701e-4
-1.048, 3.701e-4
-1.049, 3.701e-4
-1.050, 3.701e-4
-1.051, 3.732e-4
-1.052, 3.732e-4
-1.053, 3.732e-4
-1.054, 3.732e-4
-1.055, 3.732e-4
-1.056, 3.732e-4
-1.057, 3.732e-4
-1.058, 3.763e-4
-1.059, 3.763e-4
-1.060, 3.763e-4
-1.061, 3.732e-4
-1.062, 3.732e-4
-1.063, 3.763e-4
-1.064, 3.732e-4
-1.065, 3.732e-4
-1.066, 3.763e-4
-1.067, 3.763e-4
-1.068, 3.763e-4
-1.069, 3.763e-4
-1.070, 3.763e-4
-1.071, 3.763e-4
-1.072, 3.763e-4
-1.073, 3.763e-4
-1.074, 3.763e-4
-1.075, 3.763e-4
-1.076, 3.763e-4
-1.077, 3.763e-4
-1.078, 3.763e-4
-1.079, 3.763e-4
-1.080, 3.763e-4
-1.081, 3.732e-4
-1.082, 3.732e-4
-1.083, 3.763e-4
-1.084, 3.763e-4
-1.085, 3.763e-4
-1.086, 3.732e-4
-1.087, 3.763e-4
-1.088, 3.763e-4
-1.089, 3.732e-4
-1.090, 3.732e-4
-1.091, 3.732e-4
-1.092, 3.732e-4
-1.093, 3.732e-4
-1.094, 3.732e-4
-1.095, 3.763e-4
-1.096, 3.732e-4
-1.097, 3.763e-4
-1.098, 3.763e-4
-1.099, 3.732e-4
-1.100, 3.763e-4
-1.101, 3.732e-4
-1.102, 3.732e-4
-1.103, 3.763e-4
-1.104, 3.732e-4
-1.105, 3.732e-4
-1.106, 3.732e-4
-1.107, 3.732e-4
-1.108, 3.732e-4
-1.109, 3.732e-4
-1.110, 3.732e-4
-1.111, 3.732e-4
-1.112, 3.732e-4
-1.113, 3.732e-4
-1.114, 3.732e-4
-1.115, 3.732e-4
-1.116, 3.732e-4
-1.117, 3.732e-4
-1.118, 3.732e-4
-1.119, 3.732e-4
-1.120, 3.732e-4
-1.121, 3.732e-4
-1.122, 3.732e-4
-1.123, 3.732e-4
-1.124, 3.763e-4
-1.125, 3.732e-4
-1.126, 3.732e-4
-1.127, 3.732e-4
-1.128, 3.732e-4
-1.129, 3.701e-4
-1.130, 3.732e-4
-1.131, 3.732e-4
-1.132, 3.732e-4
-1.133, 3.732e-4
-1.134, 3.732e-4
-1.135, 3.732e-4
-1.136, 3.732e-4
-1.137, 3.732e-4
-1.138, 3.732e-4
-1.139, 3.732e-4
-1.140, 3.732e-4
-1.141, 3.732e-4
-1.142, 3.732e-4
-1.143, 3.732e-4
-1.144, 3.732e-4
-1.145, 3.732e-4
-1.146, 3.732e-4
-1.147, 3.732e-4
-1.148, 3.732e-4
-1.149, 3.732e-4
-1.150, 3.732e-4
-1.151, 3.763e-4
-1.152, 3.732e-4
-1.153, 3.732e-4
-1.154, 3.732e-4
-1.155, 3.732e-4
-1.156, 3.732e-4
-1.157, 3.732e-4
-1.158, 3.732e-4
-1.159, 3.732e-4
-1.160, 3.763e-4
-1.161, 3.763e-4
-1.162, 3.763e-4
-1.163, 3.763e-4
-1.164, 3.763e-4
-1.165, 3.763e-4
-1.166, 3.732e-4
-1.167, 3.763e-4
-1.168, 3.763e-4
-1.169, 3.763e-4
-1.170, 3.732e-4
-1.171, 3.763e-4
-1.172, 3.763e-4
-1.173, 3.763e-4
-1.174, 3.763e-4
-1.175, 3.763e-4
-1.176, 3.794e-4
-1.177, 3.794e-4
-1.178, 3.794e-4
-1.179, 3.794e-4
-1.180, 3.794e-4
-1.181, 3.794e-4
-1.182, 3.794e-4
-1.183, 3.794e-4
-1.184, 3.794e-4
-1.185, 3.794e-4
-1.186, 3.794e-4
-1.187, 3.794e-4
-1.188, 3.825e-4
-1.189, 3.825e-4
-1.190, 3.825e-4
-1.191, 3.825e-4
-1.192, 3.825e-4
-1.193, 3.825e-4
-1.194, 3.825e-4
-1.195, 3.825e-4
-1.196, 3.825e-4
-1.197, 3.855e-4
-1.198, 3.855e-4
-1.199, 3.855e-4
-1.200, 3.855e-4
-1.201, 3.855e-4
-1.202, 3.855e-4
-1.203, 3.886e-4
-1.204, 3.886e-4
-1.205, 3.886e-4
-1.206, 3.886e-4
-1.207, 3.886e-4
-1.208, 3.886e-4
-1.209, 3.917e-4
-1.210, 3.917e-4
-1.211, 3.917e-4
-1.212, 3.917e-4
-1.213, 3.917e-4
-1.214, 3.948e-4
-1.215, 3.948e-4
-1.216, 3.979e-4
-1.217, 3.979e-4
-1.218, 3.979e-4
-1.219, 3.979e-4
-1.220, 3.979e-4
-1.221, 3.979e-4
-1.222, 4.010e-4
-1.223, 4.010e-4
-1.224, 4.010e-4
-1.225, 4.010e-4
-1.226, 4.040e-4
-1.227, 4.040e-4
-1.228, 4.071e-4
-1.229, 4.102e-4
-1.230, 4.071e-4
-1.231, 4.102e-4
-1.232, 4.102e-4
-1.233, 4.133e-4
-1.234, 4.102e-4
-1.235, 4.102e-4
-1.236, 4.102e-4
-1.237, 4.133e-4
-1.238, 4.133e-4
-1.239, 4.164e-4
-1.240, 4.164e-4
-1.241, 4.164e-4
-1.242, 4.164e-4
-1.243, 4.195e-4
-1.244, 4.195e-4
-1.245, 4.225e-4
-1.246, 4.195e-4
-1.247, 4.225e-4
-1.248, 4.195e-4
-1.249, 4.225e-4
-1.250, 4.225e-4
-1.251, 4.256e-4
-1.252, 4.256e-4
-1.253, 4.256e-4
-1.254, 4.256e-4
-1.255, 4.256e-4
-1.256, 4.287e-4
-1.257, 4.287e-4
-1.258, 4.287e-4
-1.259, 4.287e-4
-1.260, 4.287e-4
-1.261, 4.318e-4
-1.262, 4.318e-4
-1.263, 4.287e-4
-1.264, 4.318e-4
-1.265, 4.318e-4
-1.266, 4.318e-4
-1.267, 4.349e-4
-1.268, 4.349e-4
-1.269, 4.349e-4
-1.270, 4.349e-4
-1.271, 4.380e-4
-1.272, 4.380e-4
-1.273, 4.410e-4
-1.274, 4.410e-4
-1.275, 4.410e-4
-1.276, 4.410e-4
-1.277, 4.410e-4
-1.278, 4.441e-4
-1.279, 4.441e-4
-1.280, 4.472e-4
-1.281, 4.472e-4
-1.282, 4.503e-4
-1.283, 4.472e-4
-1.284, 4.503e-4
-1.285, 4.503e-4
-1.286, 4.534e-4
-1.287, 4.534e-4
-1.288, 4.534e-4
-1.289, 4.565e-4
-1.290, 4.595e-4
-1.291, 4.595e-4
-1.292, 4.595e-4
-1.293, 4.595e-4
-1.294, 4.626e-4
-1.295, 4.626e-4
-1.296, 4.657e-4
-1.297, 4.688e-4
-1.298, 4.688e-4
-1.299, 4.719e-4
-1.300, 4.719e-4
-1.301, 4.750e-4
-1.302, 4.750e-4
-1.303, 4.780e-4
-1.304, 4.780e-4
-1.305, 4.811e-4
-1.306, 4.811e-4
-1.307, 4.842e-4
-1.308, 4.873e-4
-1.309, 4.873e-4
-1.310, 4.904e-4
-1.311, 4.935e-4
-1.312, 4.935e-4
-1.313, 4.965e-4
-1.314, 4.965e-4
-1.315, 4.996e-4
-1.316, 4.996e-4
-1.317, 5.027e-4
-1.318, 5.058e-4
-1.319, 5.089e-4
-1.320, 5.089e-4
-1.321, 5.120e-4
-1.322, 5.150e-4
-1.323, 5.181e-4
-1.324, 5.181e-4
-1.325, 5.243e-4
-1.326, 5.243e-4
-1.327, 5.274e-4
-1.328, 5.274e-4
-1.329, 5.305e-4
-1.330, 5.305e-4
-1.331, 5.366e-4
-1.332, 5.397e-4
-1.333, 5.428e-4
-1.334, 5.459e-4
-1.335, 5.489e-4
-1.336, 5.520e-4
-1.337, 5.551e-4
-1.338, 5.582e-4
-1.339, 5.582e-4
-1.340, 5.613e-4
-1.341, 5.644e-4
-1.342, 5.674e-4
-1.343, 5.705e-4
-1.344, 5.736e-4
-1.345, 5.767e-4
-1.346, 5.798e-4
-1.347, 5.829e-4
-1.348, 5.859e-4
-1.349, 5.890e-4
-1.350, 5.952e-4
-1.351, 5.983e-4
-1.352, 6.014e-4
-1.353, 6.044e-4
-1.354, 6.075e-4
-1.355, 6.106e-4
-1.356, 6.137e-4
-1.357, 6.168e-4
-1.358, 6.199e-4
-1.359, 6.260e-4
-1.360, 6.291e-4
-1.361, 6.353e-4
-1.362, 6.384e-4
-1.363, 6.414e-4
-1.364, 6.445e-4
-1.365, 6.507e-4
-1.366, 6.538e-4
-1.367, 6.569e-4
-1.368, 6.599e-4
-1.369, 6.661e-4
-1.370, 6.692e-4
-1.371, 6.723e-4
-1.372, 6.784e-4
-1.373, 6.815e-4
-1.374, 6.846e-4
-1.375, 6.908e-4
-1.376, 6.969e-4
-1.377, 7.031e-4
-1.378, 7.062e-4
-1.379, 7.093e-4
-1.380, 7.154e-4
-1.381, 7.185e-4
-1.382, 7.247e-4
-1.383, 7.309e-4
-1.384, 7.339e-4
-1.385, 7.370e-4
-1.386, 7.432e-4
-1.387, 7.494e-4
-1.388, 7.524e-4
-1.389, 7.586e-4
-1.390, 7.648e-4
-1.391, 7.709e-4
-1.392, 7.740e-4
-1.393, 7.802e-4
-1.394, 7.863e-4
-1.395, 7.894e-4
-1.396, 7.956e-4
-1.397, 7.987e-4
-1.398, 8.079e-4
-1.399, 8.141e-4
-1.400, 8.203e-4
-1.401, 8.264e-4
-1.402, 8.326e-4
-1.403, 8.357e-4
-1.404, 8.449e-4
-1.405, 8.480e-4
-1.406, 8.542e-4
-1.407, 8.603e-4
-1.408, 8.665e-4
-1.409, 8.727e-4
-1.410, 8.819e-4
-1.411, 8.881e-4
-1.412, 8.943e-4
-1.413, 8.973e-4
-1.414, 9.066e-4
-1.415, 9.128e-4
-1.416, 9.220e-4
-1.417, 9.282e-4
-1.418, 9.343e-4
-1.419, 9.405e-4
-1.420, 9.467e-4
-1.421, 9.528e-4
-1.422, 9.621e-4
-1.423, 9.683e-4
-1.424, 9.744e-4
-1.425, 9.806e-4
-1.426, 9.898e-4
-1.427, 9.960e-4
-1.428, 1.002e-3
-1.429, 1.008e-3
-1.430, 1.018e-3
-1.431, 1.024e-3
-1.432, 1.030e-3
-1.433, 1.039e-3
-1.434, 1.045e-3
-1.435, 1.055e-3
-1.436, 1.061e-3
-1.437, 1.067e-3
-1.438, 1.076e-3
-1.439, 1.085e-3
-1.440, 1.095e-3
-1.441, 1.101e-3
-1.442, 1.107e-3
-1.443, 1.116e-3
-1.444, 1.122e-3
-1.445, 1.135e-3
-1.446, 1.141e-3
-1.447, 1.147e-3
-1.448, 1.156e-3
-1.449, 1.166e-3
-1.450, 1.172e-3
-1.451, 1.181e-3
-1.452, 1.190e-3
-1.453, 1.196e-3
-1.454, 1.206e-3
-1.455, 1.215e-3
-1.456, 1.224e-3
-1.457, 1.233e-3
-1.458, 1.243e-3
-1.459, 1.252e-3
-1.460, 1.261e-3
-1.461, 1.270e-3
-1.462, 1.280e-3
-1.463, 1.289e-3
-1.464, 1.298e-3
-1.465, 1.304e-3
-1.466, 1.314e-3
-1.467, 1.323e-3
-1.468, 1.335e-3
-1.469, 1.344e-3
-1.470, 1.354e-3
-1.471, 1.363e-3
-1.472, 1.372e-3
-1.473, 1.381e-3
-1.474, 1.391e-3
-1.475, 1.400e-3
-1.476, 1.409e-3
-1.477, 1.418e-3
-1.478, 1.431e-3
-1.479, 1.440e-3
-1.480, 1.452e-3
-1.481, 1.462e-3
-1.482, 1.471e-3
-1.483, 1.480e-3
-1.484, 1.492e-3
-1.485, 1.505e-3
-1.486, 1.514e-3
-1.487, 1.523e-3
-1.488, 1.536e-3
-1.489, 1.542e-3
-1.490, 1.554e-3
-1.491, 1.563e-3
-1.492, 1.576e-3
-1.493, 1.588e-3
-1.494, 1.600e-3
-1.495, 1.613e-3
-1.496, 1.622e-3
-1.497, 1.631e-3
-1.498, 1.643e-3
-1.499, 1.653e-3
-1.500, 1.665e-3
-1.501, 1.674e-3
-1.502, 1.687e-3
-1.503, 1.699e-3
-1.504, 1.708e-3
-1.505, 1.717e-3
-1.506, 1.730e-3
-1.507, 1.742e-3
-1.508, 1.758e-3
-1.509, 1.767e-3
-1.510, 1.779e-3
-1.511, 1.788e-3
-1.512, 1.804e-3
-1.513, 1.813e-3
-1.514, 1.822e-3
-1.515, 1.838e-3
-1.516, 1.850e-3
-1.517, 1.862e-3
-1.518, 1.872e-3
-1.519, 1.884e-3
-1.520, 1.896e-3
-1.521, 1.909e-3
-1.522, 1.924e-3
-1.523, 1.936e-3
-1.524, 1.949e-3
-1.525, 1.961e-3
-1.526, 1.973e-3
-1.527, 1.986e-3
-1.528, 1.998e-3
-1.529, 2.010e-3
-1.530, 2.023e-3
-1.531, 2.038e-3
-1.532, 2.050e-3
-1.533, 2.063e-3
-1.534, 2.078e-3
-1.535, 2.091e-3
-1.536, 2.103e-3
-1.537, 2.118e-3
-1.538, 2.131e-3
-1.539, 2.143e-3
-1.540, 2.158e-3
-1.541, 2.174e-3
-1.542, 2.189e-3
-1.543, 2.201e-3
-1.544, 2.217e-3
-1.545, 2.229e-3
-1.546, 2.245e-3
-1.547, 2.260e-3
-1.548, 2.275e-3
-1.549, 2.288e-3
-1.550, 2.303e-3
-1.551, 2.319e-3
-1.552, 2.334e-3
-1.553, 2.349e-3
-1.554, 2.365e-3
-1.555, 2.377e-3
-1.556, 2.393e-3
-1.557, 2.408e-3
-1.558, 2.420e-3
-1.559, 2.439e-3
-1.560, 2.454e-3
-1.561, 2.470e-3
-1.562, 2.485e-3
-1.563, 2.501e-3
-1.564, 2.519e-3
-1.565, 2.531e-3
-1.566, 2.547e-3
-1.567, 2.562e-3
-1.568, 2.578e-3
-1.569, 2.593e-3
-1.570, 2.608e-3
-1.571, 2.627e-3
-1.572, 2.642e-3
-1.573, 2.661e-3
-1.574, 2.676e-3
-1.575, 2.692e-3
-1.576, 2.707e-3
-1.577, 2.719e-3
-1.578, 2.735e-3
-1.579, 2.753e-3
-1.580, 2.772e-3
-1.581, 2.790e-3
-1.582, 2.806e-3
-1.583, 2.824e-3
-1.584, 2.840e-3
-1.585, 2.855e-3
-1.586, 2.874e-3
-1.587, 2.892e-3
-1.588, 2.908e-3
-1.589, 2.926e-3
-1.590, 2.941e-3
-1.591, 2.960e-3
-1.592, 2.978e-3
-1.593, 2.997e-3
-1.594, 3.015e-3
-1.595, 3.031e-3
-1.596, 3.049e-3
-1.597, 3.068e-3
-1.598, 3.086e-3
-1.599, 3.105e-3
-1.600, 3.123e-3
-1.601, 3.145e-3
-1.602, 3.167e-3
-1.603, 3.182e-3
-1.604, 3.204e-3
-1.605, 3.225e-3
-1.606, 3.244e-3
-1.607, 3.262e-3
-1.608, 3.281e-3
-1.609, 3.299e-3
-1.610, 3.318e-3
-1.611, 3.339e-3
-1.612, 3.358e-3
-1.613, 3.379e-3
-1.614, 3.398e-3
-1.615, 3.416e-3
-1.616, 3.432e-3
-1.617, 3.450e-3
-1.618, 3.469e-3
-1.619, 3.484e-3
-1.620, 3.506e-3
-1.621, 3.524e-3
-1.622, 3.546e-3
-1.623, 3.567e-3
-1.624, 3.586e-3
-1.625, 3.607e-3
-1.626, 3.632e-3
-1.627, 3.654e-3
-1.628, 3.675e-3
-1.629, 3.697e-3
-1.630, 3.718e-3
-1.631, 3.740e-3
-1.632, 3.762e-3
-1.633, 3.783e-3
-1.634, 3.802e-3
-1.635, 3.823e-3
-1.636, 3.845e-3
-1.637, 3.866e-3
-1.638, 3.891e-3
-1.639, 3.919e-3
-1.640, 3.940e-3
-1.641, 3.962e-3
-1.642, 3.984e-3
-1.643, 4.011e-3
-1.644, 4.036e-3
-1.645, 4.064e-3
-1.646, 4.091e-3
-1.647, 4.113e-3
-1.648, 4.135e-3
-1.649, 4.159e-3
-1.650, 4.181e-3
-1.651, 4.202e-3
-1.652, 4.230e-3
-1.653, 4.258e-3
-1.654, 4.286e-3
-1.655, 4.310e-3
-1.656, 4.332e-3
-1.657, 4.357e-3
-1.658, 4.375e-3
-1.659, 4.397e-3
-1.660, 4.424e-3
-1.661, 4.452e-3
-1.662, 4.480e-3
-1.663, 4.508e-3
-1.664, 4.529e-3
-1.665, 4.554e-3
-1.666, 4.579e-3
-1.667, 4.606e-3
-1.668, 4.634e-3
-1.669, 4.665e-3
-1.670, 4.696e-3
-1.671, 4.720e-3
-1.672, 4.745e-3
-1.673, 4.773e-3
-1.674, 4.797e-3
-1.675, 4.825e-3
-1.676, 4.856e-3
-1.677, 4.890e-3
-1.678, 4.921e-3
-1.679, 4.949e-3
-1.680, 4.970e-3
-1.681, 4.995e-3
-1.682, 5.019e-3
-1.683, 5.050e-3
-1.684, 5.081e-3
-1.685, 5.115e-3
-1.686, 5.146e-3
-1.687, 5.174e-3
-1.688, 5.198e-3
-1.689, 5.226e-3
-1.690, 5.254e-3
-1.691, 5.285e-3
-1.692, 5.315e-3
-1.693, 5.349e-3
-1.694, 5.386e-3
-1.695, 5.417e-3
-1.696, 5.448e-3
-1.697, 5.479e-3
-1.698, 5.510e-3
-1.699, 5.544e-3
-1.700, 5.525e-3
-1.699, 5.430e-3
-1.698, 5.349e-3
-1.697, 5.282e-3
-1.696, 5.217e-3
-1.695, 5.158e-3
-1.694, 5.103e-3
-1.693, 5.053e-3
-1.692, 5.001e-3
-1.691, 4.949e-3
-1.690, 4.893e-3
-1.689, 4.838e-3
-1.688, 4.785e-3
-1.687, 4.736e-3
-1.686, 4.690e-3
-1.685, 4.640e-3
-1.684, 4.588e-3
-1.683, 4.538e-3
-1.682, 4.492e-3
-1.681, 4.446e-3
-1.680, 4.400e-3
-1.679, 4.357e-3
-1.678, 4.310e-3
-1.677, 4.264e-3
-1.676, 4.218e-3
-1.675, 4.175e-3
-1.674, 4.132e-3
-1.673, 4.088e-3
-1.672, 4.042e-3
-1.671, 3.999e-3
-1.670, 3.953e-3
-1.669, 3.913e-3
-1.668, 3.869e-3
-1.667, 3.826e-3
-1.666, 3.783e-3
-1.665, 3.740e-3
-1.664, 3.700e-3
-1.663, 3.663e-3
-1.662, 3.623e-3
-1.661, 3.583e-3
-1.660, 3.546e-3
-1.659, 3.506e-3
-1.658, 3.466e-3
-1.657, 3.425e-3
-1.656, 3.388e-3
-1.655, 3.351e-3
-1.654, 3.318e-3
-1.653, 3.281e-3
-1.652, 3.244e-3
-1.651, 3.210e-3
-1.650, 3.173e-3
-1.649, 3.133e-3
-1.648, 3.099e-3
-1.647, 3.062e-3
-1.646, 3.025e-3
-1.645, 2.991e-3
-1.644, 2.957e-3
-1.643, 2.920e-3
-1.642, 2.889e-3
-1.641, 2.855e-3
-1.640, 2.824e-3
-1.639, 2.787e-3
-1.638, 2.756e-3
-1.637, 2.726e-3
-1.636, 2.695e-3
-1.635, 2.661e-3
-1.634, 2.630e-3
-1.633, 2.599e-3
-1.632, 2.571e-3
-1.631, 2.541e-3
-1.630, 2.510e-3
-1.629, 2.476e-3
-1.628, 2.445e-3
-1.627, 2.414e-3
-1.626, 2.383e-3
-1.625, 2.356e-3
-1.624, 2.328e-3
-1.623, 2.303e-3
-1.622, 2.275e-3
-1.621, 2.248e-3
-1.620, 2.220e-3
-1.619, 2.192e-3
-1.618, 2.161e-3
-1.617, 2.134e-3
-1.616, 2.109e-3
-1.615, 2.081e-3
-1.614, 2.060e-3
-1.613, 2.032e-3
-1.612, 2.010e-3
-1.611, 1.983e-3
-1.610, 1.958e-3
-1.609, 1.933e-3
-1.608, 1.906e-3
-1.607, 1.884e-3
-1.606, 1.859e-3
-1.605, 1.838e-3
-1.604, 1.813e-3
-1.603, 1.791e-3
-1.602, 1.767e-3
-1.601, 1.745e-3
-1.600, 1.724e-3
-1.599, 1.699e-3
-1.598, 1.677e-3
-1.597, 1.656e-3
-1.596, 1.634e-3
-1.595, 1.613e-3
-1.594, 1.591e-3
-1.593, 1.569e-3
-1.592, 1.548e-3
-1.591, 1.529e-3
-1.590, 1.508e-3
-1.589, 1.489e-3
-1.588, 1.468e-3
-1.587, 1.446e-3
-1.586, 1.425e-3
-1.585, 1.409e-3
-1.584, 1.391e-3
-1.583, 1.372e-3
-1.582, 1.354e-3
-1.581, 1.335e-3
-1.580, 1.317e-3
-1.579, 1.298e-3
-1.578, 1.280e-3
-1.577, 1.261e-3
-1.576, 1.246e-3
-1.575, 1.227e-3
-1.574, 1.212e-3
-1.573, 1.196e-3
-1.572, 1.178e-3
-1.571, 1.162e-3
-1.570, 1.147e-3
-1.569, 1.129e-3
-1.568, 1.113e-3
-1.567, 1.098e-3
-1.566, 1.079e-3
-1.565, 1.064e-3
-1.564, 1.051e-3
-1.563, 1.036e-3
-1.562, 1.021e-3
-1.561, 1.005e-3
-1.560, 9.929e-4
-1.559, 9.775e-4
-1.558, 9.621e-4
-1.557, 9.498e-4
-1.556, 9.374e-4
-1.555, 9.220e-4
-1.554, 9.066e-4
-1.553, 8.943e-4
-1.552, 8.788e-4
-1.551, 8.665e-4
-1.550, 8.511e-4
-1.549, 8.388e-4
-1.548, 8.233e-4
-1.547, 8.110e-4
-1.546, 7.987e-4
-1.545, 7.863e-4
-1.544, 7.771e-4
-1.543, 7.648e-4
-1.542, 7.494e-4
-1.541, 7.370e-4
-1.540, 7.247e-4
-1.539, 7.124e-4
-1.538, 7.031e-4
-1.537, 6.939e-4
-1.536, 6.815e-4
-1.535, 6.661e-4
-1.534, 6.569e-4
-1.533, 6.476e-4
-1.532, 6.353e-4
-1.531, 6.260e-4
-1.530, 6.137e-4
-1.529, 6.044e-4
-1.528, 5.921e-4
-1.527, 5.829e-4
-1.526, 5.705e-4
-1.525, 5.613e-4
-1.524, 5.489e-4
-1.523, 5.397e-4
-1.522, 5.305e-4
-1.521, 5.212e-4
-1.520, 5.120e-4
-1.519, 5.027e-4
-1.518, 4.935e-4
-1.517, 4.811e-4
-1.516, 4.750e-4
-1.515, 4.657e-4
-1.514, 4.534e-4
-1.513, 4.441e-4
-1.512, 4.380e-4
-1.511, 4.256e-4
-1.510, 4.164e-4
-1.509, 4.102e-4
-1.508, 4.010e-4
-1.507, 3.917e-4
-1.506, 3.855e-4
-1.505, 3.763e-4
-1.504, 3.701e-4
-1.503, 3.609e-4
-1.502, 3.547e-4
-1.501, 3.455e-4
-1.500, 3.362e-4
-1.499, 3.300e-4
-1.498, 3.208e-4
-1.497, 3.146e-4
-1.496, 3.054e-4
-1.495, 2.961e-4
-1.494, 2.900e-4
-1.493, 2.838e-4
-1.492, 2.776e-4
-1.491, 2.715e-4
-1.490, 2.622e-4
-1.489, 2.561e-4
-1.488, 2.499e-4
-1.487, 2.406e-4
-1.486, 2.345e-4
-1.485, 2.283e-4
-1.484, 2.191e-4
-1.483, 2.160e-4
-1.482, 2.067e-4
-1.481, 2.006e-4
-1.480, 1.944e-4
-1.479, 1.882e-4
-1.478, 1.821e-4
-1.477, 1.759e-4
-1.476, 1.697e-4
-1.475, 1.636e-4
-1.474, 1.574e-4
-1.473, 1.512e-4
-1.472, 1.420e-4
-1.471, 1.358e-4
-1.470, 1.296e-4
-1.469, 1.266e-4
-1.468, 1.204e-4
-1.467, 1.142e-4
-1.466, 1.081e-4
-1.465, 1.019e-4
-1.464, 9.573e-5
-1.463, 9.265e-5
-1.462, 8.648e-5
-1.461, 8.032e-5
-1.460, 7.415e-5
-1.459, 6.798e-5
-1.458, 6.182e-5
-1.457, 5.565e-5
-1.456, 5.257e-5
-1.455, 4.640e-5
-1.454, 4.024e-5
-1.453, 3.715e-5
-1.452, 3.099e-5
-1.451, 2.790e-5
-1.450, 1.865e-5
-1.449, 1.557e-5
-1.448, 1.249e-5
-1.447, 6.322e-6
-1.446, 1.559e-7
-1.445, -6.010e-6
-1.444, -9.093e-6
-1.443, -1.526e-5
-1.442, -1.834e-5
-1.441, -2.451e-5
-1.440, -2.759e-5
-1.439, -3.376e-5
-1.438, -3.684e-5
-1.437, -4.301e-5
-1.436, -4.609e-5
-1.435, -5.226e-5
-1.434, -5.534e-5
-1.433, -6.151e-5
-1.432, -6.767e-5
-1.431, -7.076e-5
-1.430, -7.384e-5
-1.429, -8.000e-5
-1.428, -8.617e-5
-1.427, -8.925e-5
-1.426, -9.234e-5
-1.425, -9.542e-5
-1.424, -1.016e-4
-1.423, -1.047e-4
-1.422, -1.078e-4
-1.421, -1.139e-4
-1.420, -1.170e-4
-1.419, -1.232e-4
-1.418, -1.263e-4
-1.417, -1.293e-4
-1.416, -1.324e-4
-1.415, -1.386e-4
-1.414, -1.417e-4
-1.413, -1.448e-4
-1.412, -1.509e-4
-1.411, -1.509e-4
-1.410, -1.571e-4
-1.409, -1.602e-4
-1.408, -1.632e-4
-1.407, -1.663e-4
-1.406, -1.725e-4
-1.405, -1.756e-4
-1.404, -1.817e-4
-1.403, -1.817e-4
-1.402, -1.879e-4
-1.401, -1.910e-4
-1.400, -1.941e-4
-1.399, -1.972e-4
-1.398, -2.002e-4
-1.397, -2.033e-4
-1.396, -2.095e-4
-1.395, -2.095e-4
-1.394, -2.157e-4
-1.393, -2.187e-4
-1.392, -2.218e-4
-1.391, -2.249e-4
-1.390, -2.280e-4
-1.389, -2.311e-4
-1.388, -2.372e-4
-1.387, -2.372e-4
-1.386, -2.403e-4
-1.385, -2.434e-4
-1.384, -2.496e-4
-1.383, -2.496e-4
-1.382, -2.527e-4
-1.381, -2.557e-4
-1.380, -2.619e-4
-1.379, -2.650e-4
-1.378, -2.681e-4
-1.377, -2.712e-4
-1.376, -2.742e-4
-1.375, -2.773e-4
-1.374, -2.804e-4
-1.373, -2.835e-4
-1.372, -2.835e-4
-1.371, -2.866e-4
-1.370, -2.897e-4
-1.369, -2.927e-4
-1.368, -2.958e-4
-1.367, -2.989e-4
-1.366, -3.020e-4
-1.365, -3.051e-4
-1.364, -3.082e-4
-1.363, -3.112e-4
-1.362, -3.112e-4
-1.361, -3.143e-4
-1.360, -3.174e-4
-1.359, -3.205e-4
-1.358, -3.236e-4
-1.357, -3.267e-4
-1.356, -3.297e-4
-1.355, -3.297e-4
-1.354, -3.328e-4
-1.353, -3.359e-4
-1.352, -3.390e-4
-1.351, -3.421e-4
-1.350, -3.452e-4
-1.349, -3.482e-4
-1.348, -3.513e-4
-1.347, -3.513e-4
-1.346, -3.544e-4
-1.345, -3.544e-4
-1.344, -3.575e-4
-1.343, -3.606e-4
-1.342, -3.637e-4
-1.341, -3.667e-4
-1.340, -3.667e-4
-1.339, -3.698e-4
-1.338, -3.729e-4
-1.337, -3.729e-4
-1.336, -3.760e-4
-1.335, -3.791e-4
-1.334, -3.791e-4
-1.333, -3.821e-4
-1.332, -3.821e-4
-1.331, -3.852e-4
-1.330, -3.883e-4
-1.329, -3.883e-4
-1.328, -3.914e-4
-1.327, -3.945e-4
-1.326, -3.976e-4
-1.325, -3.976e-4
-1.324, -4.006e-4
-1.323, -4.037e-4
-1.322, -4.037e-4
-1.321, -4.068e-4
-1.320, -4.068e-4
-1.319, -4.099e-4
-1.318, -4.130e-4
-1.317, -4.161e-4
-1.316, -4.161e-4
-1.315, -4.161e-4
-1.314, -4.191e-4
-1.313, -4.222e-4
-1.312, -4.222e-4
-1.311, -4.253e-4
-1.310, -4.284e-4
-1.309, -4.284e-4
-1.308, -4.315e-4
-1.307, -4.346e-4
-1.306, -4.346e-4
-1.305, -4.376e-4
-1.304, -4.376e-4
-1.303, -4.376e-4
-1.302, -4.407e-4
-1.301, -4.438e-4
-1.300, -4.469e-4
-1.299, -4.469e-4
-1.298, -4.469e-4
-1.297, -4.500e-4
-1.296, -4.500e-4
-1.295, -4.531e-4
-1.294, -4.561e-4
-1.293, -4.561e-4
-1.292, -4.561e-4
-1.291, -4.561e-4
-1.290, -4.592e-4
-1.289, -4.623e-4
-1.288, -4.623e-4
-1.287, -4.654e-4
-1.286, -4.654e-4
-1.285, -4.685e-4
-1.284, -4.685e-4
-1.283, -4.716e-4
-1.282, -4.716e-4
-1.281, -4.746e-4
-1.280, -4.746e-4
-1.279, -4.777e-4
-1.278, -4.777e-4
-1.277, -4.808e-4
-1.276, -4.808e-4
-1.275, -4.808e-4
-1.274, -4.839e-4
-1.273, -4.839e-4
-1.272, -4.839e-4
-1.271, -4.870e-4
-1.270, -4.870e-4
-1.269, -4.901e-4
-1.268, -4.901e-4
-1.267, -4.901e-4
-1.266, -4.931e-4
-1.265, -4.931e-4
-1.264, -4.931e-4
-1.263, -4.931e-4
-1.262, -4.962e-4
-1.261, -4.962e-4
-1.260, -4.993e-4
-1.259, -5.024e-4
-1.258, -5.024e-4
-1.257, -5.024e-4
-1.256, -5.024e-4
-1.255, -5.055e-4
-1.254, -5.086e-4
-1.253, -5.086e-4
-1.252, -5.086e-4
-1.251, -5.086e-4
-1.250, -5.116e-4
-1.249, -5.116e-4
-1.248, -5.116e-4
-1.247, -5.116e-4
-1.246, -5.147e-4
-1.245, -5.147e-4
-1.244, -5.178e-4
-1.243, -5.147e-4
-1.242, -5.178e-4
-1.241, -5.178e-4
-1.240, -5.178e-4
-1.239, -5.209e-4
-1.238, -5.209e-4
-1.237, -5.240e-4
-1.236, -5.209e-4
-1.235, -5.240e-4
-1.234, -5.240e-4
-1.233, -5.271e-4
-1.232, -5.271e-4
-1.231, -5.271e-4
-1.230, -5.301e-4
-1.229, -5.301e-4
-1.228, -5.332e-4
-1.227, -5.332e-4
-1.226, -5.301e-4
-1.225, -5.301e-4
-1.224, -5.332e-4
-1.223, -5.332e-4
-1.222, -5.332e-4
-1.221, -5.363e-4
-1.220, -5.363e-4
-1.219, -5.363e-4
-1.218, -5.363e-4
-1.217, -5.394e-4
-1.216, -5.394e-4
-1.215, -5.394e-4
-1.214, -5.394e-4
-1.213, -5.425e-4
-1.212, -5.425e-4
-1.211, -5.394e-4
-1.210, -5.425e-4
-1.209, -5.425e-4
-1.208, -5.425e-4
-1.207, -5.425e-4
-1.206, -5.456e-4
-1.205, -5.456e-4
-1.204, -5.456e-4
-1.203, -5.456e-4
-1.202, -5.486e-4
-1.201, -5.486e-4
-1.200, -5.486e-4
-1.199, -5.486e-4
-1.198, -5.486e-4
-1.197, -5.486e-4
-1.196, -5.486e-4
-1.195, -5.486e-4
-1.194, -5.517e-4
-1.193, -5.517e-4
-1.192, -5.517e-4
-1.191, -5.517e-4
-1.190, -5.517e-4
-1.189, -5.517e-4
-1.188, -5.548e-4
-1.187, -5.548e-4
-1.186, -5.517e-4
-1.185, -5.548e-4
-1.184, -5.548e-4
-1.183, -5.517e-4
-1.182, -5.548e-4
-1.181, -5.548e-4
-1.180, -5.548e-4
-1.179, -5.548e-4
-1.178, -5.548e-4
-1.177, -5.548e-4
-1.176, -5.548e-4
-1.175, -5.548e-4
-1.174, -5.548e-4
-1.173, -5.548e-4
-1.172, -5.548e-4
-1.171, -5.548e-4
-1.170, -5.548e-4
-1.169, -5.548e-4
-1.168, -5.548e-4
-1.167, -5.548e-4
-1.166, -5.548e-4
-1.165, -5.579e-4
-1.164, -5.579e-4
-1.163, -5.579e-4
-1.162, -5.579e-4
-1.161, -5.579e-4
-1.160, -5.548e-4
-1.159, -5.548e-4
-1.158, -5.579e-4
-1.157, -5.579e-4
-1.156, -5.548e-4
-1.155, -5.548e-4
-1.154, -5.548e-4
-1.153, -5.579e-4
-1.152, -5.579e-4
-1.151, -5.579e-4
-1.150, -5.579e-4
-1.149, -5.579e-4
-1.148, -5.579e-4
-1.147, -5.579e-4
-1.146, -5.548e-4
-1.145, -5.579e-4
-1.144, -5.548e-4
-1.143, -5.579e-4
-1.142, -5.579e-4
-1.141, -5.579e-4
-1.140, -5.579e-4
-1.139, -5.579e-4
-1.138, -5.579e-4
-1.137, -5.610e-4
-1.136, -5.579e-4
-1.135, -5.610e-4
-1.134, -5.610e-4
-1.133, -5.579e-4
-1.132, -5.579e-4
-1.131, -5.579e-4
-1.130, -5.579e-4
-1.129, -5.579e-4
-1.128, -5.579e-4
-1.127, -5.610e-4
-1.126, -5.610e-4
-1.125, -5.610e-4
-1.124, -5.610e-4
-1.123, -5.610e-4
-1.122, -5.610e-4
-1.121, -5.641e-4
-1.120, -5.641e-4
-1.119, -5.610e-4
-1.118, -5.641e-4
-1.117, -5.610e-4
-1.116, -5.641e-4
-1.115, -5.610e-4
-1.114, -5.641e-4
-1.113, -5.641e-4
-1.112, -5.641e-4
-1.111, -5.671e-4
-1.110, -5.641e-4
-1.109, -5.671e-4
-1.108, -5.671e-4
-1.107, -5.671e-4
-1.106, -5.671e-4
-1.105, -5.671e-4
-1.104, -5.671e-4
-1.103, -5.671e-4
-1.102, -5.671e-4
-1.101, -5.702e-4
-1.100, -5.702e-4
-1.099, -5.733e-4
-1.098, -5.702e-4
-1.097, -5.733e-4
-1.096, -5.733e-4
-1.095, -5.733e-4
-1.094, -5.733e-4
-1.093, -5.733e-4
-1.092, -5.764e-4
-1.091, -5.733e-4
-1.090, -5.733e-4
-1.089, -5.764e-4
-1.088, -5.764e-4
-1.087, -5.764e-4
-1.086, -5.795e-4
-1.085, -5.795e-4
-1.084, -5.795e-4
-1.083, -5.826e-4
-1.082, -5.826e-4
-1.081, -5.826e-4
-1.080, -5.826e-4
-1.079, -5.856e-4
-1.078, -5.826e-4
-1.077, -5.856e-4
-1.076, -5.856e-4
-1.075, -5.856e-4
-1.074, -5.856e-4
-1.073, -5.887e-4
-1.072, -5.887e-4
-1.071, -5.918e-4
-1.070, -5.918e-4
-1.069, -5.918e-4
-1.068, -5.949e-4
-1.067, -5.949e-4
-1.066, -5.949e-4
-1.065, -5.949e-4
-1.064, -5.980e-4
-1.063, -5.980e-4
-1.062, -6.011e-4
-1.061, -6.011e-4
-1.060, -6.041e-4
-1.059, -6.041e-4
-1.058, -6.041e-4
-1.057, -6.041e-4
-1.056, -6.072e-4
-1.055, -6.072e-4
-1.054, -6.072e-4
-1.053, -6.103e-4
-1.052, -6.103e-4
-1.051, -6.103e-4
-1.050, -6.134e-4
-1.049, -6.134e-4
-1.048, -6.134e-4
-1.047, -6.165e-4
-1.046, -6.195e-4
-1.045, -6.195e-4
-1.044, -6.226e-4
-1.043, -6.226e-4
-1.042, -6.226e-4
-1.041, -6.226e-4
-1.040, -6.226e-4
-1.039, -6.257e-4
-1.038, -6.288e-4
-1.037, -6.288e-4
-1.036, -6.288e-4
-1.035, -6.319e-4
-1.034, -6.350e-4
-1.033, -6.350e-4
-1.032, -6.350e-4
-1.031, -6.380e-4
-1.030, -6.411e-4
-1.029, -6.411e-4
-1.028, -6.442e-4
-1.027, -6.473e-4
-1.026, -6.473e-4
-1.025, -6.473e-4
-1.024, -6.504e-4
-1.023, -6.504e-4
-1.022, -6.535e-4
-1.021, -6.565e-4
-1.020, -6.565e-4
-1.019, -6.565e-4
-1.018, -6.596e-4
-1.017, -6.627e-4
-1.016, -6.658e-4
-1.015, -6.689e-4
-1.014, -6.689e-4
-1.013, -6.689e-4
-1.012, -6.689e-4
-1.011, -6.720e-4
-1.010, -6.750e-4
-1.009, -6.750e-4
-1.008, -6.781e-4
-1.007, -6.812e-4
-1.006, -6.843e-4
-1.005, -6.874e-4
-1.004, -6.874e-4
-1.003, -6.905e-4
-1.002, -6.935e-4
-1.001, -6.966e-4
