Sept. 14, 2024   08:56:52
Cyclic Voltammetry
File: c:/users/guazh/data/20240903_batch_252_500/2024-09-03-exp350\exp350-2024-09-14t08_36_55-h2koh\exp350_cv_sr_500mvs_efin_-1700mv.bin
Data Source:  Experiment
Instrument Model:  CHI760E
Header: CV ran at 500 mVs
Note: 

Init E (V) = -1
High E (V) = -1
Low E (V) = -1.7
Final E (V) = -1
Init P/N = N
Scan Rate (V/s) = 0.5
Segment = 3
Sample Interval (V) = 0.001
Quiet Time (sec) = 2
Sensitivity (A/V) = 0.01
Comp R (ohm) = 2.1

Results:

Channel 1:
Segment 1:

Segment 2:

Segment 3:

Potential/V, Current/A

-1.000, 2.174e-5
-1.001, 7.723e-5
-1.002, 1.173e-4
-1.003, 1.420e-4
-1.004, 1.636e-4
-1.005, 1.759e-4
-1.006, 1.882e-4
-1.007, 1.944e-4
-1.008, 2.006e-4
-1.009, 2.067e-4
-1.010, 2.098e-4
-1.011, 2.160e-4
-1.012, 2.191e-4
-1.013, 2.221e-4
-1.014, 2.221e-4
-1.015, 2.252e-4
-1.016, 2.252e-4
-1.017, 2.283e-4
-1.018, 2.314e-4
-1.019, 2.314e-4
-1.020, 2.345e-4
-1.021, 2.345e-4
-1.022, 2.376e-4
-1.023, 2.376e-4
-1.024, 2.376e-4
-1.025, 2.406e-4
-1.026, 2.406e-4
-1.027, 2.406e-4
-1.028, 2.437e-4
-1.029, 2.406e-4
-1.030, 2.437e-4
-1.031, 2.437e-4
-1.032, 2.437e-4
-1.033, 2.437e-4
-1.034, 2.437e-4
-1.035, 2.437e-4
-1.036, 2.468e-4
-1.037, 2.468e-4
-1.038, 2.468e-4
-1.039, 2.468e-4
-1.040, 2.468e-4
-1.041, 2.468e-4
-1.042, 2.468e-4
-1.043, 2.499e-4
-1.044, 2.499e-4
-1.045, 2.499e-4
-1.046, 2.499e-4
-1.047, 2.499e-4
-1.048, 2.499e-4
-1.049, 2.499e-4
-1.050, 2.499e-4
-1.051, 2.499e-4
-1.052, 2.499e-4
-1.053, 2.499e-4
-1.054, 2.530e-4
-1.055, 2.530e-4
-1.056, 2.530e-4
-1.057, 2.499e-4
-1.058, 2.499e-4
-1.059, 2.499e-4
-1.060, 2.530e-4
-1.061, 2.530e-4
-1.062, 2.530e-4
-1.063, 2.530e-4
-1.064, 2.530e-4
-1.065, 2.530e-4
-1.066, 2.530e-4
-1.067, 2.530e-4
-1.068, 2.530e-4
-1.069, 2.530e-4
-1.070, 2.530e-4
-1.071, 2.530e-4
-1.072, 2.530e-4
-1.073, 2.530e-4
-1.074, 2.530e-4
-1.075, 2.530e-4
-1.076, 2.530e-4
-1.077, 2.530e-4
-1.078, 2.530e-4
-1.079, 2.530e-4
-1.080, 2.561e-4
-1.081, 2.530e-4
-1.082, 2.530e-4
-1.083, 2.530e-4
-1.084, 2.530e-4
-1.085, 2.530e-4
-1.086, 2.530e-4
-1.087, 2.530e-4
-1.088, 2.530e-4
-1.089, 2.530e-4
-1.090, 2.530e-4
-1.091, 2.530e-4
-1.092, 2.530e-4
-1.093, 2.530e-4
-1.094, 2.530e-4
-1.095, 2.530e-4
-1.096, 2.530e-4
-1.097, 2.530e-4
-1.098, 2.530e-4
-1.099, 2.530e-4
-1.100, 2.530e-4
-1.101, 2.530e-4
-1.102, 2.530e-4
-1.103, 2.530e-4
-1.104, 2.530e-4
-1.105, 2.561e-4
-1.106, 2.530e-4
-1.107, 2.530e-4
-1.108, 2.530e-4
-1.109, 2.499e-4
-1.110, 2.530e-4
-1.111, 2.530e-4
-1.112, 2.530e-4
-1.113, 2.530e-4
-1.114, 2.530e-4
-1.115, 2.499e-4
-1.116, 2.530e-4
-1.117, 2.530e-4
-1.118, 2.499e-4
-1.119, 2.530e-4
-1.120, 2.499e-4
-1.121, 2.530e-4
-1.122, 2.530e-4
-1.123, 2.530e-4
-1.124, 2.530e-4
-1.125, 2.499e-4
-1.126, 2.530e-4
-1.127, 2.530e-4
-1.128, 2.530e-4
-1.129, 2.530e-4
-1.130, 2.530e-4
-1.131, 2.499e-4
-1.132, 2.530e-4
-1.133, 2.499e-4
-1.134, 2.499e-4
-1.135, 2.530e-4
-1.136, 2.530e-4
-1.137, 2.530e-4
-1.138, 2.530e-4
-1.139, 2.530e-4
-1.140, 2.530e-4
-1.141, 2.499e-4
-1.142, 2.499e-4
-1.143, 2.530e-4
-1.144, 2.530e-4
-1.145, 2.530e-4
-1.146, 2.530e-4
-1.147, 2.530e-4
-1.148, 2.530e-4
-1.149, 2.499e-4
-1.150, 2.530e-4
-1.151, 2.530e-4
-1.152, 2.530e-4
-1.153, 2.530e-4
-1.154, 2.530e-4
-1.155, 2.530e-4
-1.156, 2.530e-4
-1.157, 2.530e-4
-1.158, 2.530e-4
-1.159, 2.530e-4
-1.160, 2.530e-4
-1.161, 2.530e-4
-1.162, 2.530e-4
-1.163, 2.530e-4
-1.164, 2.530e-4
-1.165, 2.530e-4
-1.166, 2.530e-4
-1.167, 2.530e-4
-1.168, 2.530e-4
-1.169, 2.530e-4
-1.170, 2.530e-4
-1.171, 2.561e-4
-1.172, 2.561e-4
-1.173, 2.561e-4
-1.174, 2.530e-4
-1.175, 2.530e-4
-1.176, 2.530e-4
-1.177, 2.561e-4
-1.178, 2.561e-4
-1.179, 2.561e-4
-1.180, 2.561e-4
-1.181, 2.561e-4
-1.182, 2.561e-4
-1.183, 2.561e-4
-1.184, 2.561e-4
-1.185, 2.561e-4
-1.186, 2.561e-4
-1.187, 2.591e-4
-1.188, 2.591e-4
-1.189, 2.591e-4
-1.190, 2.561e-4
-1.191, 2.591e-4
-1.192, 2.591e-4
-1.193, 2.591e-4
-1.194, 2.591e-4
-1.195, 2.591e-4
-1.196, 2.622e-4
-1.197, 2.591e-4
-1.198, 2.622e-4
-1.199, 2.591e-4
-1.200, 2.622e-4
-1.201, 2.622e-4
-1.202, 2.622e-4
-1.203, 2.653e-4
-1.204, 2.653e-4
-1.205, 2.653e-4
-1.206, 2.622e-4
-1.207, 2.622e-4
-1.208, 2.653e-4
-1.209, 2.653e-4
-1.210, 2.653e-4
-1.211, 2.653e-4
-1.212, 2.684e-4
-1.213, 2.684e-4
-1.214, 2.684e-4
-1.215, 2.684e-4
-1.216, 2.684e-4
-1.217, 2.684e-4
-1.218, 2.684e-4
-1.219, 2.715e-4
-1.220, 2.715e-4
-1.221, 2.715e-4
-1.222, 2.715e-4
-1.223, 2.746e-4
-1.224, 2.746e-4
-1.225, 2.746e-4
-1.226, 2.746e-4
-1.227, 2.746e-4
-1.228, 2.746e-4
-1.229, 2.776e-4
-1.230, 2.776e-4
-1.231, 2.776e-4
-1.232, 2.776e-4
-1.233, 2.807e-4
-1.234, 2.807e-4
-1.235, 2.807e-4
-1.236, 2.807e-4
-1.237, 2.807e-4
-1.238, 2.838e-4
-1.239, 2.838e-4
-1.240, 2.807e-4
-1.241, 2.807e-4
-1.242, 2.838e-4
-1.243, 2.838e-4
-1.244, 2.838e-4
-1.245, 2.838e-4
-1.246, 2.838e-4
-1.247, 2.869e-4
-1.248, 2.869e-4
-1.249, 2.869e-4
-1.250, 2.869e-4
-1.251, 2.869e-4
-1.252, 2.869e-4
-1.253, 2.869e-4
-1.254, 2.869e-4
-1.255, 2.900e-4
-1.256, 2.869e-4
-1.257, 2.900e-4
-1.258, 2.869e-4
-1.259, 2.869e-4
-1.260, 2.900e-4
-1.261, 2.900e-4
-1.262, 2.900e-4
-1.263, 2.931e-4
-1.264, 2.931e-4
-1.265, 2.931e-4
-1.266, 2.931e-4
-1.267, 2.931e-4
-1.268, 2.931e-4
-1.269, 2.931e-4
-1.270, 2.961e-4
-1.271, 2.961e-4
-1.272, 2.961e-4
-1.273, 2.992e-4
-1.274, 2.961e-4
-1.275, 2.992e-4
-1.276, 2.992e-4
-1.277, 2.992e-4
-1.278, 3.023e-4
-1.279, 3.023e-4
-1.280, 3.054e-4
-1.281, 3.054e-4
-1.282, 3.054e-4
-1.283, 3.054e-4
-1.284, 3.085e-4
-1.285, 3.085e-4
-1.286, 3.085e-4
-1.287, 3.115e-4
-1.288, 3.115e-4
-1.289, 3.146e-4
-1.290, 3.146e-4
-1.291, 3.146e-4
-1.292, 3.146e-4
-1.293, 3.177e-4
-1.294, 3.177e-4
-1.295, 3.208e-4
-1.296, 3.208e-4
-1.297, 3.208e-4
-1.298, 3.239e-4
-1.299, 3.239e-4
-1.300, 3.270e-4
-1.301, 3.270e-4
-1.302, 3.300e-4
-1.303, 3.300e-4
-1.304, 3.331e-4
-1.305, 3.362e-4
-1.306, 3.362e-4
-1.307, 3.362e-4
-1.308, 3.362e-4
-1.309, 3.393e-4
-1.310, 3.424e-4
-1.311, 3.424e-4
-1.312, 3.424e-4
-1.313, 3.455e-4
-1.314, 3.485e-4
-1.315, 3.485e-4
-1.316, 3.516e-4
-1.317, 3.516e-4
-1.318, 3.547e-4
-1.319, 3.578e-4
-1.320, 3.578e-4
-1.321, 3.609e-4
-1.322, 3.640e-4
-1.323, 3.640e-4
-1.324, 3.670e-4
-1.325, 3.670e-4
-1.326, 3.701e-4
-1.327, 3.732e-4
-1.328, 3.732e-4
-1.329, 3.763e-4
-1.330, 3.794e-4
-1.331, 3.825e-4
-1.332, 3.855e-4
-1.333, 3.855e-4
-1.334, 3.886e-4
-1.335, 3.917e-4
-1.336, 3.917e-4
-1.337, 3.979e-4
-1.338, 3.979e-4
-1.339, 4.010e-4
-1.340, 4.010e-4
-1.341, 4.071e-4
-1.342, 4.102e-4
-1.343, 4.102e-4
-1.344, 4.133e-4
-1.345, 4.164e-4
-1.346, 4.195e-4
-1.347, 4.225e-4
-1.348, 4.256e-4
-1.349, 4.256e-4
-1.350, 4.318e-4
-1.351, 4.349e-4
-1.352, 4.380e-4
-1.353, 4.410e-4
-1.354, 4.441e-4
-1.355, 4.472e-4
-1.356, 4.503e-4
-1.357, 4.534e-4
-1.358, 4.565e-4
-1.359, 4.565e-4
-1.360, 4.626e-4
-1.361, 4.657e-4
-1.362, 4.688e-4
-1.363, 4.750e-4
-1.364, 4.780e-4
-1.365, 4.811e-4
-1.366, 4.842e-4
-1.367, 4.873e-4
-1.368, 4.904e-4
-1.369, 4.935e-4
-1.370, 4.996e-4
-1.371, 5.027e-4
-1.372, 5.058e-4
-1.373, 5.089e-4
-1.374, 5.150e-4
-1.375, 5.181e-4
-1.376, 5.243e-4
-1.377, 5.274e-4
-1.378, 5.305e-4
-1.379, 5.335e-4
-1.380, 5.397e-4
-1.381, 5.459e-4
-1.382, 5.489e-4
-1.383, 5.520e-4
-1.384, 5.551e-4
-1.385, 5.613e-4
-1.386, 5.644e-4
-1.387, 5.705e-4
-1.388, 5.767e-4
-1.389, 5.798e-4
-1.390, 5.829e-4
-1.391, 5.890e-4
-1.392, 5.921e-4
-1.393, 5.983e-4
-1.394, 6.044e-4
-1.395, 6.075e-4
-1.396, 6.137e-4
-1.397, 6.168e-4
-1.398, 6.229e-4
-1.399, 6.291e-4
-1.400, 6.353e-4
-1.401, 6.384e-4
-1.402, 6.445e-4
-1.403, 6.507e-4
-1.404, 6.569e-4
-1.405, 6.630e-4
-1.406, 6.661e-4
-1.407, 6.723e-4
-1.408, 6.784e-4
-1.409, 6.846e-4
-1.410, 6.877e-4
-1.411, 6.939e-4
-1.412, 7.000e-4
-1.413, 7.093e-4
-1.414, 7.124e-4
-1.415, 7.185e-4
-1.416, 7.247e-4
-1.417, 7.309e-4
-1.418, 7.370e-4
-1.419, 7.432e-4
-1.420, 7.494e-4
-1.421, 7.555e-4
-1.422, 7.617e-4
-1.423, 7.679e-4
-1.424, 7.740e-4
-1.425, 7.802e-4
-1.426, 7.863e-4
-1.427, 7.925e-4
-1.428, 8.018e-4
-1.429, 8.079e-4
-1.430, 8.141e-4
-1.431, 8.172e-4
-1.432, 8.264e-4
-1.433, 8.326e-4
-1.434, 8.418e-4
-1.435, 8.480e-4
-1.436, 8.542e-4
-1.437, 8.634e-4
-1.438, 8.696e-4
-1.439, 8.758e-4
-1.440, 8.819e-4
-1.441, 8.881e-4
-1.442, 8.973e-4
-1.443, 9.035e-4
-1.444, 9.128e-4
-1.445, 9.189e-4
-1.446, 9.282e-4
-1.447, 9.343e-4
-1.448, 9.436e-4
-1.449, 9.467e-4
-1.450, 9.559e-4
-1.451, 9.652e-4
-1.452, 9.713e-4
-1.453, 9.806e-4
-1.454, 9.898e-4
-1.455, 9.991e-4
-1.456, 1.005e-3
-1.457, 1.014e-3
-1.458, 1.021e-3
-1.459, 1.030e-3
-1.460, 1.039e-3
-1.461, 1.045e-3
-1.462, 1.055e-3
-1.463, 1.064e-3
-1.464, 1.070e-3
-1.465, 1.079e-3
-1.466, 1.085e-3
-1.467, 1.098e-3
-1.468, 1.104e-3
-1.469, 1.113e-3
-1.470, 1.125e-3
-1.471, 1.135e-3
-1.472, 1.141e-3
-1.473, 1.150e-3
-1.474, 1.159e-3
-1.475, 1.172e-3
-1.476, 1.178e-3
-1.477, 1.184e-3
-1.478, 1.193e-3
-1.479, 1.203e-3
-1.480, 1.212e-3
-1.481, 1.221e-3
-1.482, 1.233e-3
-1.483, 1.243e-3
-1.484, 1.255e-3
-1.485, 1.264e-3
-1.486, 1.270e-3
-1.487, 1.280e-3
-1.488, 1.286e-3
-1.489, 1.295e-3
-1.490, 1.304e-3
-1.491, 1.314e-3
-1.492, 1.329e-3
-1.493, 1.338e-3
-1.494, 1.351e-3
-1.495, 1.360e-3
-1.496, 1.369e-3
-1.497, 1.378e-3
-1.498, 1.388e-3
-1.499, 1.394e-3
-1.500, 1.403e-3
-1.501, 1.415e-3
-1.502, 1.431e-3
-1.503, 1.443e-3
-1.504, 1.455e-3
-1.505, 1.465e-3
-1.506, 1.474e-3
-1.507, 1.486e-3
-1.508, 1.495e-3
-1.509, 1.508e-3
-1.510, 1.517e-3
-1.511, 1.523e-3
-1.512, 1.539e-3
-1.513, 1.548e-3
-1.514, 1.560e-3
-1.515, 1.569e-3
-1.516, 1.579e-3
-1.517, 1.588e-3
-1.518, 1.600e-3
-1.519, 1.613e-3
-1.520, 1.622e-3
-1.521, 1.634e-3
-1.522, 1.647e-3
-1.523, 1.662e-3
-1.524, 1.674e-3
-1.525, 1.684e-3
-1.526, 1.693e-3
-1.527, 1.702e-3
-1.528, 1.714e-3
-1.529, 1.730e-3
-1.530, 1.742e-3
-1.531, 1.751e-3
-1.532, 1.764e-3
-1.533, 1.776e-3
-1.534, 1.791e-3
-1.535, 1.804e-3
-1.536, 1.816e-3
-1.537, 1.828e-3
-1.538, 1.844e-3
-1.539, 1.856e-3
-1.540, 1.869e-3
-1.541, 1.881e-3
-1.542, 1.893e-3
-1.543, 1.906e-3
-1.544, 1.918e-3
-1.545, 1.933e-3
-1.546, 1.946e-3
-1.547, 1.955e-3
-1.548, 1.967e-3
-1.549, 1.976e-3
-1.550, 1.992e-3
-1.551, 2.004e-3
-1.552, 2.020e-3
-1.553, 2.035e-3
-1.554, 2.047e-3
-1.555, 2.060e-3
-1.556, 2.075e-3
-1.557, 2.091e-3
-1.558, 2.103e-3
-1.559, 2.115e-3
-1.560, 2.124e-3
-1.561, 2.140e-3
-1.562, 2.155e-3
-1.563, 2.171e-3
-1.564, 2.183e-3
-1.565, 2.192e-3
-1.566, 2.211e-3
-1.567, 2.223e-3
-1.568, 2.235e-3
-1.569, 2.251e-3
-1.570, 2.266e-3
-1.571, 2.282e-3
-1.572, 2.297e-3
-1.573, 2.309e-3
-1.574, 2.325e-3
-1.575, 2.340e-3
-1.576, 2.353e-3
-1.577, 2.368e-3
-1.578, 2.383e-3
-1.579, 2.399e-3
-1.580, 2.414e-3
-1.581, 2.430e-3
-1.582, 2.445e-3
-1.583, 2.460e-3
-1.584, 2.476e-3
-1.585, 2.491e-3
-1.586, 2.507e-3
-1.587, 2.525e-3
-1.588, 2.541e-3
-1.589, 2.556e-3
-1.590, 2.575e-3
-1.591, 2.590e-3
-1.592, 2.605e-3
-1.593, 2.624e-3
-1.594, 2.639e-3
-1.595, 2.655e-3
-1.596, 2.670e-3
-1.597, 2.686e-3
-1.598, 2.704e-3
-1.599, 2.719e-3
-1.600, 2.735e-3
-1.601, 2.756e-3
-1.602, 2.772e-3
-1.603, 2.793e-3
-1.604, 2.812e-3
-1.605, 2.830e-3
-1.606, 2.843e-3
-1.607, 2.861e-3
-1.608, 2.877e-3
-1.609, 2.895e-3
-1.610, 2.914e-3
-1.611, 2.929e-3
-1.612, 2.948e-3
-1.613, 2.966e-3
-1.614, 2.988e-3
-1.615, 3.006e-3
-1.616, 3.022e-3
-1.617, 3.043e-3
-1.618, 3.062e-3
-1.619, 3.077e-3
-1.620, 3.096e-3
-1.621, 3.114e-3
-1.622, 3.139e-3
-1.623, 3.160e-3
-1.624, 3.176e-3
-1.625, 3.194e-3
-1.626, 3.210e-3
-1.627, 3.231e-3
-1.628, 3.256e-3
-1.629, 3.278e-3
-1.630, 3.299e-3
-1.631, 3.314e-3
-1.632, 3.333e-3
-1.633, 3.358e-3
-1.634, 3.379e-3
-1.635, 3.401e-3
-1.636, 3.419e-3
-1.637, 3.441e-3
-1.638, 3.459e-3
-1.639, 3.481e-3
-1.640, 3.499e-3
-1.641, 3.524e-3
-1.642, 3.546e-3
-1.643, 3.567e-3
-1.644, 3.589e-3
-1.645, 3.610e-3
-1.646, 3.632e-3
-1.647, 3.660e-3
-1.648, 3.684e-3
-1.649, 3.706e-3
-1.650, 3.728e-3
-1.651, 3.749e-3
-1.652, 3.780e-3
-1.653, 3.805e-3
-1.654, 3.829e-3
-1.655, 3.854e-3
-1.656, 3.876e-3
-1.657, 3.900e-3
-1.658, 3.922e-3
-1.659, 3.947e-3
-1.660, 3.974e-3
-1.661, 3.999e-3
-1.662, 4.027e-3
-1.663, 4.051e-3
-1.664, 4.076e-3
-1.665, 4.101e-3
-1.666, 4.125e-3
-1.667, 4.150e-3
-1.668, 4.178e-3
-1.669, 4.202e-3
-1.670, 4.233e-3
-1.671, 4.255e-3
-1.672, 4.280e-3
-1.673, 4.307e-3
-1.674, 4.332e-3
-1.675, 4.363e-3
-1.676, 4.384e-3
-1.677, 4.409e-3
-1.678, 4.434e-3
-1.679, 4.461e-3
-1.680, 4.495e-3
-1.681, 4.520e-3
-1.682, 4.545e-3
-1.683, 4.569e-3
-1.684, 4.600e-3
-1.685, 4.634e-3
-1.686, 4.665e-3
-1.687, 4.690e-3
-1.688, 4.717e-3
-1.689, 4.751e-3
-1.690, 4.782e-3
-1.691, 4.813e-3
-1.692, 4.841e-3
-1.693, 4.871e-3
-1.694, 4.905e-3
-1.695, 4.936e-3
-1.696, 4.964e-3
-1.697, 4.998e-3
-1.698, 5.032e-3
-1.699, 5.069e-3
-1.700, 5.047e-3
-1.699, 4.961e-3
-1.698, 4.896e-3
-1.697, 4.838e-3
-1.696, 4.785e-3
-1.695, 4.736e-3
-1.694, 4.690e-3
-1.693, 4.643e-3
-1.692, 4.600e-3
-1.691, 4.557e-3
-1.690, 4.511e-3
-1.689, 4.468e-3
-1.688, 4.424e-3
-1.687, 4.378e-3
-1.686, 4.329e-3
-1.685, 4.276e-3
-1.684, 4.227e-3
-1.683, 4.184e-3
-1.682, 4.141e-3
-1.681, 4.101e-3
-1.680, 4.064e-3
-1.679, 4.027e-3
-1.678, 3.990e-3
-1.677, 3.947e-3
-1.676, 3.900e-3
-1.675, 3.854e-3
-1.674, 3.811e-3
-1.673, 3.771e-3
-1.672, 3.734e-3
-1.671, 3.694e-3
-1.670, 3.654e-3
-1.669, 3.617e-3
-1.668, 3.577e-3
-1.667, 3.540e-3
-1.666, 3.503e-3
-1.665, 3.462e-3
-1.664, 3.425e-3
-1.663, 3.392e-3
-1.662, 3.355e-3
-1.661, 3.314e-3
-1.660, 3.278e-3
-1.659, 3.247e-3
-1.658, 3.213e-3
-1.657, 3.176e-3
-1.656, 3.139e-3
-1.655, 3.102e-3
-1.654, 3.065e-3
-1.653, 3.031e-3
-1.652, 3.000e-3
-1.651, 2.966e-3
-1.650, 2.932e-3
-1.649, 2.898e-3
-1.648, 2.867e-3
-1.647, 2.837e-3
-1.646, 2.809e-3
-1.645, 2.775e-3
-1.644, 2.741e-3
-1.643, 2.707e-3
-1.642, 2.679e-3
-1.641, 2.649e-3
-1.640, 2.618e-3
-1.639, 2.587e-3
-1.638, 2.556e-3
-1.637, 2.528e-3
-1.636, 2.497e-3
-1.635, 2.467e-3
-1.634, 2.439e-3
-1.633, 2.408e-3
-1.632, 2.383e-3
-1.631, 2.356e-3
-1.630, 2.328e-3
-1.629, 2.303e-3
-1.628, 2.279e-3
-1.627, 2.254e-3
-1.626, 2.223e-3
-1.625, 2.195e-3
-1.624, 2.168e-3
-1.623, 2.143e-3
-1.622, 2.121e-3
-1.621, 2.097e-3
-1.620, 2.072e-3
-1.619, 2.044e-3
-1.618, 2.023e-3
-1.617, 1.998e-3
-1.616, 1.973e-3
-1.615, 1.949e-3
-1.614, 1.927e-3
-1.613, 1.902e-3
-1.612, 1.878e-3
-1.611, 1.859e-3
-1.610, 1.838e-3
-1.609, 1.816e-3
-1.608, 1.791e-3
-1.607, 1.770e-3
-1.606, 1.748e-3
-1.605, 1.730e-3
-1.604, 1.708e-3
-1.603, 1.687e-3
-1.602, 1.665e-3
-1.601, 1.647e-3
-1.600, 1.628e-3
-1.599, 1.606e-3
-1.598, 1.585e-3
-1.597, 1.563e-3
-1.596, 1.545e-3
-1.595, 1.526e-3
-1.594, 1.508e-3
-1.593, 1.489e-3
-1.592, 1.471e-3
-1.591, 1.452e-3
-1.590, 1.434e-3
-1.589, 1.415e-3
-1.588, 1.397e-3
-1.587, 1.381e-3
-1.586, 1.363e-3
-1.585, 1.344e-3
-1.584, 1.329e-3
-1.583, 1.310e-3
-1.582, 1.295e-3
-1.581, 1.280e-3
-1.580, 1.261e-3
-1.579, 1.246e-3
-1.578, 1.230e-3
-1.577, 1.215e-3
-1.576, 1.199e-3
-1.575, 1.184e-3
-1.574, 1.169e-3
-1.573, 1.153e-3
-1.572, 1.141e-3
-1.571, 1.125e-3
-1.570, 1.113e-3
-1.569, 1.098e-3
-1.568, 1.082e-3
-1.567, 1.067e-3
-1.566, 1.055e-3
-1.565, 1.042e-3
-1.564, 1.027e-3
-1.563, 1.014e-3
-1.562, 1.002e-3
-1.561, 9.868e-4
-1.560, 9.744e-4
-1.559, 9.621e-4
-1.558, 9.498e-4
-1.557, 9.374e-4
-1.556, 9.251e-4
-1.555, 9.097e-4
-1.554, 9.004e-4
-1.553, 8.881e-4
-1.552, 8.727e-4
-1.551, 8.603e-4
-1.550, 8.480e-4
-1.549, 8.388e-4
-1.548, 8.264e-4
-1.547, 8.172e-4
-1.546, 8.079e-4
-1.545, 7.956e-4
-1.544, 7.833e-4
-1.543, 7.709e-4
-1.542, 7.586e-4
-1.541, 7.494e-4
-1.540, 7.401e-4
-1.539, 7.309e-4
-1.538, 7.185e-4
-1.537, 7.093e-4
-1.536, 7.000e-4
-1.535, 6.877e-4
-1.534, 6.784e-4
-1.533, 6.692e-4
-1.532, 6.569e-4
-1.531, 6.476e-4
-1.530, 6.384e-4
-1.529, 6.291e-4
-1.528, 6.229e-4
-1.527, 6.137e-4
-1.526, 6.014e-4
-1.525, 5.921e-4
-1.524, 5.829e-4
-1.523, 5.736e-4
-1.522, 5.674e-4
-1.521, 5.582e-4
-1.520, 5.489e-4
-1.519, 5.397e-4
-1.518, 5.335e-4
-1.517, 5.243e-4
-1.516, 5.150e-4
-1.515, 5.089e-4
-1.514, 4.996e-4
-1.513, 4.904e-4
-1.512, 4.842e-4
-1.511, 4.780e-4
-1.510, 4.657e-4
-1.509, 4.595e-4
-1.508, 4.503e-4
-1.507, 4.441e-4
-1.506, 4.380e-4
-1.505, 4.318e-4
-1.504, 4.225e-4
-1.503, 4.164e-4
-1.502, 4.102e-4
-1.501, 4.010e-4
-1.500, 3.948e-4
-1.499, 3.886e-4
-1.498, 3.825e-4
-1.497, 3.763e-4
-1.496, 3.701e-4
-1.495, 3.640e-4
-1.494, 3.547e-4
-1.493, 3.485e-4
-1.492, 3.393e-4
-1.491, 3.331e-4
-1.490, 3.270e-4
-1.489, 3.208e-4
-1.488, 3.146e-4
-1.487, 3.115e-4
-1.486, 3.023e-4
-1.485, 2.961e-4
-1.484, 2.900e-4
-1.483, 2.838e-4
-1.482, 2.776e-4
-1.481, 2.715e-4
-1.480, 2.684e-4
-1.479, 2.622e-4
-1.478, 2.561e-4
-1.477, 2.499e-4
-1.476, 2.437e-4
-1.475, 2.376e-4
-1.474, 2.314e-4
-1.473, 2.252e-4
-1.472, 2.221e-4
-1.471, 2.160e-4
-1.470, 2.098e-4
-1.469, 2.036e-4
-1.468, 2.006e-4
-1.467, 1.944e-4
-1.466, 1.882e-4
-1.465, 1.851e-4
-1.464, 1.790e-4
-1.463, 1.759e-4
-1.462, 1.728e-4
-1.461, 1.666e-4
-1.460, 1.605e-4
-1.459, 1.543e-4
-1.458, 1.481e-4
-1.457, 1.451e-4
-1.456, 1.420e-4
-1.455, 1.358e-4
-1.454, 1.327e-4
-1.453, 1.296e-4
-1.452, 1.204e-4
-1.451, 1.173e-4
-1.450, 1.111e-4
-1.449, 1.081e-4
-1.448, 1.050e-4
-1.447, 9.882e-5
-1.446, 9.573e-5
-1.445, 9.265e-5
-1.444, 8.648e-5
-1.443, 8.340e-5
-1.442, 7.723e-5
-1.441, 7.415e-5
-1.440, 7.107e-5
-1.439, 6.490e-5
-1.438, 6.182e-5
-1.437, 5.873e-5
-1.436, 5.257e-5
-1.435, 4.949e-5
-1.434, 4.332e-5
-1.433, 4.024e-5
-1.432, 3.407e-5
-1.431, 3.099e-5
-1.430, 2.790e-5
-1.429, 2.482e-5
-1.428, 2.174e-5
-1.427, 1.557e-5
-1.426, 1.249e-5
-1.425, 9.405e-6
-1.424, 6.322e-6
-1.423, 1.559e-7
-1.422, -2.927e-6
-1.421, -6.010e-6
-1.420, -9.093e-6
-1.419, -1.218e-5
-1.418, -1.526e-5
-1.417, -2.143e-5
-1.416, -2.451e-5
-1.415, -2.759e-5
-1.414, -3.068e-5
-1.413, -3.376e-5
-1.412, -3.684e-5
-1.411, -3.992e-5
-1.410, -4.301e-5
-1.409, -4.609e-5
-1.408, -5.226e-5
-1.407, -5.534e-5
-1.406, -5.842e-5
-1.405, -6.151e-5
-1.404, -6.151e-5
-1.403, -6.767e-5
-1.402, -7.076e-5
-1.401, -7.384e-5
-1.400, -7.692e-5
-1.399, -8.000e-5
-1.398, -8.309e-5
-1.397, -8.617e-5
-1.396, -8.925e-5
-1.395, -9.234e-5
-1.394, -9.542e-5
-1.393, -9.850e-5
-1.392, -1.016e-4
-1.391, -1.047e-4
-1.390, -1.078e-4
-1.389, -1.078e-4
-1.388, -1.139e-4
-1.387, -1.139e-4
-1.386, -1.170e-4
-1.385, -1.201e-4
-1.384, -1.232e-4
-1.383, -1.263e-4
-1.382, -1.293e-4
-1.381, -1.324e-4
-1.380, -1.355e-4
-1.379, -1.355e-4
-1.378, -1.386e-4
-1.377, -1.417e-4
-1.376, -1.448e-4
-1.375, -1.478e-4
-1.374, -1.478e-4
-1.373, -1.509e-4
-1.372, -1.540e-4
-1.371, -1.571e-4
-1.370, -1.602e-4
-1.369, -1.632e-4
-1.368, -1.663e-4
-1.367, -1.663e-4
-1.366, -1.694e-4
-1.365, -1.725e-4
-1.364, -1.756e-4
-1.363, -1.756e-4
-1.362, -1.787e-4
-1.361, -1.787e-4
-1.360, -1.817e-4
-1.359, -1.848e-4
-1.358, -1.879e-4
-1.357, -1.910e-4
-1.356, -1.910e-4
-1.355, -1.941e-4
-1.354, -1.972e-4
-1.353, -1.972e-4
-1.352, -2.002e-4
-1.351, -2.033e-4
-1.350, -2.064e-4
-1.349, -2.064e-4
-1.348, -2.095e-4
-1.347, -2.095e-4
-1.346, -2.126e-4
-1.345, -2.126e-4
-1.344, -2.157e-4
-1.343, -2.187e-4
-1.342, -2.218e-4
-1.341, -2.218e-4
-1.340, -2.249e-4
-1.339, -2.280e-4
-1.338, -2.280e-4
-1.337, -2.311e-4
-1.336, -2.311e-4
-1.335, -2.342e-4
-1.334, -2.372e-4
-1.333, -2.372e-4
-1.332, -2.403e-4
-1.331, -2.403e-4
-1.330, -2.434e-4
-1.329, -2.465e-4
-1.328, -2.465e-4
-1.327, -2.496e-4
-1.326, -2.496e-4
-1.325, -2.527e-4
-1.324, -2.557e-4
-1.323, -2.557e-4
-1.322, -2.557e-4
-1.321, -2.588e-4
-1.320, -2.588e-4
-1.319, -2.619e-4
-1.318, -2.619e-4
-1.317, -2.650e-4
-1.316, -2.650e-4
-1.315, -2.681e-4
-1.314, -2.681e-4
-1.313, -2.681e-4
-1.312, -2.712e-4
-1.311, -2.742e-4
-1.310, -2.742e-4
-1.309, -2.773e-4
-1.308, -2.773e-4
-1.307, -2.804e-4
-1.306, -2.804e-4
-1.305, -2.835e-4
-1.304, -2.835e-4
-1.303, -2.835e-4
-1.302, -2.866e-4
-1.301, -2.866e-4
-1.300, -2.897e-4
-1.299, -2.897e-4
-1.298, -2.927e-4
-1.297, -2.927e-4
-1.296, -2.927e-4
-1.295, -2.927e-4
-1.294, -2.958e-4
-1.293, -2.958e-4
-1.292, -2.989e-4
-1.291, -2.989e-4
-1.290, -3.020e-4
-1.289, -3.020e-4
-1.288, -3.020e-4
-1.287, -3.020e-4
-1.286, -3.051e-4
-1.285, -3.051e-4
-1.284, -3.082e-4
-1.283, -3.082e-4
-1.282, -3.112e-4
-1.281, -3.112e-4
-1.280, -3.112e-4
-1.279, -3.112e-4
-1.278, -3.143e-4
-1.277, -3.143e-4
-1.276, -3.174e-4
-1.275, -3.174e-4
-1.274, -3.174e-4
-1.273, -3.174e-4
-1.272, -3.174e-4
-1.271, -3.205e-4
-1.270, -3.205e-4
-1.269, -3.205e-4
-1.268, -3.236e-4
-1.267, -3.236e-4
-1.266, -3.236e-4
-1.265, -3.267e-4
-1.264, -3.267e-4
-1.263, -3.267e-4
-1.262, -3.267e-4
-1.261, -3.267e-4
-1.260, -3.297e-4
-1.259, -3.297e-4
-1.258, -3.297e-4
-1.257, -3.328e-4
-1.256, -3.328e-4
-1.255, -3.328e-4
-1.254, -3.328e-4
-1.253, -3.328e-4
-1.252, -3.328e-4
-1.251, -3.359e-4
-1.250, -3.359e-4
-1.249, -3.359e-4
-1.248, -3.390e-4
-1.247, -3.359e-4
-1.246, -3.390e-4
-1.245, -3.390e-4
-1.244, -3.390e-4
-1.243, -3.421e-4
-1.242, -3.421e-4
-1.241, -3.421e-4
-1.240, -3.421e-4
-1.239, -3.421e-4
-1.238, -3.421e-4
-1.237, -3.421e-4
-1.236, -3.452e-4
-1.235, -3.452e-4
-1.234, -3.452e-4
-1.233, -3.452e-4
-1.232, -3.452e-4
-1.231, -3.482e-4
-1.230, -3.482e-4
-1.229, -3.482e-4
-1.228, -3.513e-4
-1.227, -3.513e-4
-1.226, -3.513e-4
-1.225, -3.513e-4
-1.224, -3.513e-4
-1.223, -3.513e-4
-1.222, -3.513e-4
-1.221, -3.513e-4
-1.220, -3.513e-4
-1.219, -3.544e-4
-1.218, -3.544e-4
-1.217, -3.544e-4
-1.216, -3.544e-4
-1.215, -3.544e-4
-1.214, -3.544e-4
-1.213, -3.544e-4
-1.212, -3.544e-4
-1.211, -3.544e-4
-1.210, -3.575e-4
-1.209, -3.575e-4
-1.208, -3.575e-4
-1.207, -3.575e-4
-1.206, -3.575e-4
-1.205, -3.575e-4
-1.204, -3.575e-4
-1.203, -3.575e-4
-1.202, -3.575e-4
-1.201, -3.606e-4
-1.200, -3.575e-4
-1.199, -3.575e-4
-1.198, -3.575e-4
-1.197, -3.575e-4
-1.196, -3.575e-4
-1.195, -3.575e-4
-1.194, -3.575e-4
-1.193, -3.606e-4
-1.192, -3.606e-4
-1.191, -3.606e-4
-1.190, -3.606e-4
-1.189, -3.606e-4
-1.188, -3.606e-4
-1.187, -3.606e-4
-1.186, -3.575e-4
-1.185, -3.606e-4
-1.184, -3.606e-4
-1.183, -3.606e-4
-1.182, -3.606e-4
-1.181, -3.606e-4
-1.180, -3.606e-4
-1.179, -3.606e-4
-1.178, -3.606e-4
-1.177, -3.606e-4
-1.176, -3.606e-4
-1.175, -3.606e-4
-1.174, -3.606e-4
-1.173, -3.606e-4
-1.172, -3.575e-4
-1.171, -3.575e-4
-1.170, -3.575e-4
-1.169, -3.606e-4
-1.168, -3.606e-4
-1.167, -3.606e-4
-1.166, -3.575e-4
-1.165, -3.575e-4
-1.164, -3.606e-4
-1.163, -3.575e-4
-1.162, -3.575e-4
-1.161, -3.575e-4
-1.160, -3.575e-4
-1.159, -3.606e-4
-1.158, -3.606e-4
-1.157, -3.606e-4
-1.156, -3.606e-4
-1.155, -3.606e-4
-1.154, -3.575e-4
-1.153, -3.575e-4
-1.152, -3.575e-4
-1.151, -3.606e-4
-1.150, -3.606e-4
-1.149, -3.606e-4
-1.148, -3.606e-4
-1.147, -3.606e-4
-1.146, -3.606e-4
-1.145, -3.606e-4
-1.144, -3.606e-4
-1.143, -3.606e-4
-1.142, -3.606e-4
-1.141, -3.606e-4
-1.140, -3.606e-4
-1.139, -3.606e-4
-1.138, -3.606e-4
-1.137, -3.606e-4
-1.136, -3.606e-4
-1.135, -3.606e-4
-1.134, -3.606e-4
-1.133, -3.606e-4
-1.132, -3.606e-4
-1.131, -3.606e-4
-1.130, -3.606e-4
-1.129, -3.637e-4
-1.128, -3.606e-4
-1.127, -3.637e-4
-1.126, -3.637e-4
-1.125, -3.637e-4
-1.124, -3.667e-4
-1.123, -3.637e-4
-1.122, -3.637e-4
-1.121, -3.637e-4
-1.120, -3.637e-4
-1.119, -3.637e-4
-1.118, -3.667e-4
-1.117, -3.667e-4
-1.116, -3.667e-4
-1.115, -3.667e-4
-1.114, -3.667e-4
-1.113, -3.667e-4
-1.112, -3.667e-4
-1.111, -3.698e-4
-1.110, -3.698e-4
-1.109, -3.698e-4
-1.108, -3.698e-4
-1.107, -3.729e-4
-1.106, -3.698e-4
-1.105, -3.698e-4
-1.104, -3.698e-4
-1.103, -3.729e-4
-1.102, -3.729e-4
-1.101, -3.729e-4
-1.100, -3.760e-4
-1.099, -3.760e-4
-1.098, -3.760e-4
-1.097, -3.760e-4
-1.096, -3.760e-4
-1.095, -3.760e-4
-1.094, -3.760e-4
-1.093, -3.791e-4
-1.092, -3.791e-4
-1.091, -3.791e-4
-1.090, -3.791e-4
-1.089, -3.791e-4
-1.088, -3.791e-4
-1.087, -3.791e-4
-1.086, -3.821e-4
-1.085, -3.821e-4
-1.084, -3.821e-4
-1.083, -3.852e-4
-1.082, -3.852e-4
-1.081, -3.852e-4
-1.080, -3.852e-4
-1.079, -3.852e-4
-1.078, -3.852e-4
-1.077, -3.852e-4
-1.076, -3.883e-4
-1.075, -3.914e-4
-1.074, -3.914e-4
-1.073, -3.914e-4
-1.072, -3.914e-4
-1.071, -3.914e-4
-1.070, -3.914e-4
-1.069, -3.945e-4
-1.068, -3.945e-4
-1.067, -3.976e-4
-1.066, -3.976e-4
-1.065, -3.976e-4
-1.064, -3.976e-4
-1.063, -4.006e-4
-1.062, -4.006e-4
-1.061, -4.006e-4
-1.060, -4.037e-4
-1.059, -4.006e-4
-1.058, -4.037e-4
-1.057, -4.037e-4
-1.056, -4.037e-4
-1.055, -4.068e-4
-1.054, -4.068e-4
-1.053, -4.068e-4
-1.052, -4.099e-4
-1.051, -4.099e-4
-1.050, -4.099e-4
-1.049, -4.130e-4
-1.048, -4.130e-4
-1.047, -4.130e-4
-1.046, -4.130e-4
-1.045, -4.130e-4
-1.044, -4.191e-4
-1.043, -4.191e-4
-1.042, -4.191e-4
-1.041, -4.222e-4
-1.040, -4.222e-4
-1.039, -4.222e-4
-1.038, -4.253e-4
-1.037, -4.253e-4
-1.036, -4.253e-4
-1.035, -4.284e-4
-1.034, -4.284e-4
-1.033, -4.315e-4
-1.032, -4.315e-4
-1.031, -4.315e-4
-1.030, -4.346e-4
-1.029, -4.346e-4
-1.028, -4.346e-4
-1.027, -4.376e-4
-1.026, -4.407e-4
-1.025, -4.407e-4
-1.024, -4.438e-4
-1.023, -4.438e-4
-1.022, -4.438e-4
-1.021, -4.469e-4
-1.020, -4.469e-4
-1.019, -4.500e-4
-1.018, -4.500e-4
-1.017, -4.531e-4
-1.016, -4.531e-4
-1.015, -4.561e-4
-1.014, -4.592e-4
-1.013, -4.561e-4
-1.012, -4.592e-4
-1.011, -4.623e-4
-1.010, -4.623e-4
-1.009, -4.654e-4
-1.008, -4.685e-4
-1.007, -4.685e-4
-1.006, -4.716e-4
-1.005, -4.716e-4
-1.004, -4.746e-4
-1.003, -4.746e-4
-1.002, -4.746e-4
-1.001, -4.777e-4
