Potential V vs RHE, Current mA cm-2
0.013299999999999867,0.43403342679859325
0.012299999999999978,-0.6128529351015338
0.011299999999999866,-1.4854468648582886
0.010299999999999976,-2.3144676865791998
0.009299999999999864,-3.0119203574126634
0.008299999999999974,-3.6655169779503103
0.007299999999999862,-4.276672259492005
0.006299999999999972,-4.843971490737885
0.00529999999999986,-5.367414671687949
0.0042999999999999705,-5.890857852638012
0.0032999999999998586,-6.326588932996443
0.0022999999999999687,-6.762320013354876
0.0012999999999998568,-7.199465805013171
0.00029999999999996696,-7.591340835075788
-0.000700000000000145,-7.984630576438266
-0.0017000000000000348,-8.376505606500881
-0.0027000000000001467,-8.68208324727173
-0.0037000000000000366,-9.031516938338395
-0.0047000000000001485,-9.335679867809377
-0.005700000000000038,-9.641257508580225
-0.00670000000000015,-9.902979099055257
-0.00770000000000004,-10.164700689530287
-0.008700000000000152,-10.42642228000532
-0.009700000000000042,-10.688143870480351
-0.010700000000000154,-10.906009410659568
-0.011700000000000044,-11.123874950838783
-0.012700000000000156,-11.343155202317865
-0.013700000000000045,-11.517164692201263
-0.014700000000000157,-11.73503023238048
-0.015700000000000047,-11.909039722263879
-0.01670000000000016,-12.084463923447142
-0.01770000000000005,-12.258473413330542
-0.01870000000000016,-12.432482903213943
-0.01970000000000005,-12.607907104397206
-0.020700000000000163,-12.781916594280606
-0.021700000000000053,-12.955926084164007
-0.022700000000000164,-13.087494235051453
-0.023700000000000054,-13.261503724934855
-0.024700000000000166,-13.436927926118118
-0.025700000000000056,-13.567081365705702
-0.026700000000000168,-13.698649516593148
-0.027700000000000058,-13.828802956180734
-0.02870000000000017,-13.960371107068182
-0.02970000000000006,-14.090524546655764
-0.03070000000000017,-14.13438059695158
-0.03170000000000006,-14.175407224647667
-0.03270000000000017,-14.30273124163552
-0.03370000000000006,-14.401761032626075
-0.034700000000000175,-14.529085049613924
-0.035700000000000065,-14.57152638860988
-0.03670000000000018,-14.65640906660178
-0.03770000000000007,-14.741291744593681
-0.03870000000000018,-14.826174422585586
-0.03970000000000007,-14.925204213576137
-0.04070000000000018,-15.01008689156804
-0.04170000000000007,-15.094969569559943
-0.04270000000000018,-15.222293586547794
-0.04370000000000007,-15.307176264539699
-0.044700000000000184,-15.349617603535648
-0.045700000000000074,-15.448647394526201
-0.046700000000000186,-15.491088733522153
-0.047700000000000076,-15.533530072518102
-0.04870000000000019,-15.575971411514052
-0.04970000000000008,-15.618412750510005
-0.05070000000000019,-15.660854089505953
-0.05170000000000008,-15.74573676749786
-0.05270000000000019,-15.78817810649381
-0.05370000000000008,-15.87306078448571
-0.05470000000000019,-15.972090575476265
-0.05570000000000008,-16.014531914472215
-0.056700000000000195,-16.056973253468165
-0.057700000000000085,-16.099414592464115
-0.058700000000000196,-16.141855931460068
-0.059700000000000086,-16.22673860945197
-0.0607000000000002,-16.269179948447924
-0.06170000000000009,-16.311621287443874
-0.0627000000000002,-16.396503965435777
-0.06370000000000009,-16.396503965435777
-0.0647000000000002,-16.438945304431726
-0.06570000000000009,-16.495533756426326
-0.0667000000000002,-16.53797509542228
-0.0677000000000001,-16.580416434418233
-0.0687000000000002,-16.622857773414182
-0.0697000000000001,-16.665299112410132
-0.07070000000000021,-16.665299112410132
-0.0717000000000001,-16.70774045140608
-0.07270000000000021,-16.70774045140608
-0.0737000000000001,-16.750181790402035
-0.07470000000000021,-16.750181790402035
-0.0757000000000001,-16.792623129397985
-0.07670000000000021,-16.835064468393938
-0.0777000000000001,-16.919947146385837
-0.07870000000000021,-16.962388485381787
-0.0797000000000001,-17.018976937376394
-0.08070000000000022,-17.018976937376394
-0.0817000000000001,-17.061418276372343
-0.08270000000000022,-17.061418276372343
-0.08370000000000011,-17.103859615368293
-0.08470000000000022,-17.146300954364243
-0.08570000000000011,-17.188742293360193
-0.08670000000000022,-17.231183632356142
-0.08770000000000011,-17.231183632356142
-0.08870000000000022,-17.2736249713521
-0.08970000000000011,-17.316066310348052
-0.09070000000000022,-17.316066310348052
-0.09170000000000011,-17.316066310348052
-0.09270000000000023,-17.358507649344002
-0.09370000000000012,-17.40094898833995
-0.09470000000000023,-17.4433903273359
-0.09570000000000012,-17.542420118326454
-0.09670000000000023,-17.542420118326454
-0.09770000000000012,-17.584861457322408
-0.09870000000000023,-17.584861457322408
-0.09970000000000012,-17.627302796318357
-0.10070000000000023,-17.584861457322408
-0.10170000000000012,-17.627302796318357
-0.10270000000000024,-17.669744135314307
-0.10370000000000013,-17.71218547431026
-0.10470000000000024,-17.75462681330621
-0.10570000000000013,-17.797068152302163
-0.10670000000000024,-17.839509491298113
-0.10770000000000013,-17.839509491298113
-0.10870000000000024,-17.839509491298113
-0.10970000000000013,-17.881950830294063
-0.11070000000000024,-17.881950830294063
-0.11170000000000013,-17.881950830294063
-0.11270000000000002,-17.924392169290012
-0.11370000000000013,-17.924392169290012
-0.11470000000000002,-17.966833508285966
-0.11570000000000014,-17.966833508285966
-0.11670000000000003,-17.966833508285966
-0.11770000000000014,-17.966833508285966
-0.11870000000000003,-18.009274847281915
-0.11970000000000014,-18.009274847281915
-0.12070000000000003,-18.009274847281915
-0.12170000000000014,-18.06586329927652
-0.12270000000000003,-18.10830463827247
-0.12370000000000014,-18.10830463827247
-0.12470000000000003,-18.15074597726842
-0.12570000000000014,-18.15074597726842
-0.12670000000000003,-18.10830463827247
-0.12770000000000015,-18.15074597726842
-0.12870000000000004,-18.19318731626437
-0.12970000000000015,-18.19318731626437
-0.13070000000000004,-18.19318731626437
-0.13170000000000015,-18.23562865526032
-0.13270000000000004,-18.23562865526032
-0.13370000000000015,-18.27806999425627
-0.13470000000000004,-18.27806999425627
-0.13570000000000015,-18.27806999425627
-0.13670000000000004,-18.320511333252224
-0.13770000000000016,-18.320511333252224
-0.13870000000000005,-18.320511333252224
-0.13970000000000016,-18.320511333252224
-0.14070000000000005,-18.320511333252224
-0.14170000000000016,-18.362952672248177
-0.14270000000000005,-18.362952672248177
-0.14370000000000016,-18.362952672248177
-0.14470000000000005,-18.40539401124413
-0.14570000000000016,-18.44783535024008
-0.14670000000000005,-18.44783535024008
-0.14770000000000016,-18.49027668923603
-0.14870000000000005,-18.49027668923603
-0.14970000000000017,-18.49027668923603
-0.15070000000000006,-18.53271802823198
-0.15170000000000017,-18.53271802823198
-0.15270000000000006,-18.53271802823198
-0.15370000000000017,-18.53271802823198
-0.15470000000000006,-18.589306480226583
-0.15570000000000017,-18.589306480226583
-0.15670000000000006,-18.589306480226583
-0.15770000000000017,-18.631747819222536
-0.15870000000000006,-18.674189158218486
-0.15970000000000018,-18.674189158218486
-0.16070000000000007,-18.716630497214435
-0.16170000000000018,-18.716630497214435
-0.16270000000000007,-18.759071836210385
-0.16370000000000018,-18.716630497214435
-0.16470000000000007,-18.759071836210385
-0.16570000000000018,-18.759071836210385
-0.16670000000000007,-18.759071836210385
-0.16770000000000018,-18.80151317520634
-0.16870000000000007,-18.80151317520634
-0.16970000000000018,-18.80151317520634
-0.17070000000000007,-18.843954514202288
-0.17170000000000019,-18.843954514202288
-0.17270000000000008,-18.80151317520634
-0.1737000000000002,-18.80151317520634
-0.17470000000000008,-18.80151317520634
-0.1757000000000002,-18.80151317520634
-0.17670000000000008,-18.80151317520634
-0.1777000000000002,-18.843954514202288
-0.17870000000000008,-18.843954514202288
-0.1797000000000002,-18.88639585319824
-0.18070000000000008,-18.843954514202288
-0.1817000000000002,-18.80151317520634
-0.18270000000000008,-18.80151317520634
-0.1837000000000002,-18.80151317520634
-0.1847000000000001,-18.80151317520634
-0.1857000000000002,-18.80151317520634
-0.1867000000000001,-18.80151317520634
-0.1877000000000002,-18.843954514202288
-0.1887000000000001,-18.843954514202288
-0.1897000000000002,-18.88639585319824
-0.1907000000000001,-18.843954514202288
-0.1917000000000001,-18.80151317520634
-0.19269999999999998,-18.80151317520634
-0.1937000000000001,-18.80151317520634
-0.19469999999999998,-18.759071836210385
-0.1957000000000001,-18.80151317520634
-0.19669999999999999,-18.80151317520634
-0.1977000000000001,-18.80151317520634
-0.1987,-18.80151317520634
-0.1997000000000001,-18.80151317520634
-0.2007,-18.80151317520634
-0.2017000000000001,-18.80151317520634
-0.2027,-18.80151317520634
-0.2037000000000001,-18.80151317520634
-0.2047,-18.80151317520634
-0.2057000000000001,-18.80151317520634
-0.2067,-18.80151317520634
-0.2077000000000001,-18.80151317520634
-0.2087,-18.843954514202288
-0.2097000000000001,-18.843954514202288
-0.2107,-18.843954514202288
-0.2117000000000001,-18.88639585319824
-0.2127,-18.88639585319824
-0.2137000000000001,-18.88639585319824
-0.2147,-18.88639585319824
-0.2157000000000001,-18.92883719219419
-0.2167,-18.92883719219419
-0.21770000000000012,-18.92883719219419
-0.2187,-18.92883719219419
-0.21970000000000012,-18.92883719219419
-0.2207,-18.97127853119014
-0.22170000000000012,-18.97127853119014
-0.2227,-19.01371987018609
-0.22370000000000012,-19.01371987018609
-0.2247,-19.01371987018609
-0.22570000000000012,-18.97127853119014
-0.2267,-19.01371987018609
-0.22770000000000012,-19.01371987018609
-0.22870000000000001,-19.056161209182044
-0.22970000000000013,-19.112749661176647
-0.23070000000000002,-19.155191000172596
-0.23170000000000013,-19.155191000172596
-0.23270000000000002,-19.197632339168546
-0.23370000000000013,-19.197632339168546
-0.23470000000000002,-19.2400736781645
-0.23570000000000013,-19.28251501716045
-0.23670000000000002,-19.2400736781645
-0.2376999999999999,-19.2400736781645
-0.23870000000000002,-19.2400736781645
-0.2396999999999999,-19.28251501716045
-0.24070000000000003,-19.28251501716045
-0.24169999999999991,-19.3249563561564
-0.24270000000000003,-19.3249563561564
-0.24369999999999992,-19.367397695152352
-0.24470000000000003,-19.409839034148305
-0.24569999999999992,-19.452280373144255
-0.24670000000000003,-19.49472171214021
-0.24769999999999992,-19.537163051136158
-0.24870000000000003,-19.579604390132108
-0.24969999999999992,-19.579604390132108
-0.25070000000000003,-19.636192842126707
-0.2516999999999999,-19.678634181122664
-0.25270000000000004,-19.678634181122664
-0.2536999999999999,-19.721075520118614
-0.25470000000000004,-19.721075520118614
-0.2556999999999999,-19.763516859114564
-0.25670000000000004,-19.805958198110513
-0.25769999999999993,-19.848399537106463
-0.25870000000000004,-19.848399537106463
-0.25969999999999993,-19.890840876102416
-0.26070000000000004,-19.93328221509837
-0.26169999999999993,-19.93328221509837
-0.26270000000000004,-19.97572355409432
-0.26369999999999993,-20.01816489309027
-0.26470000000000005,-20.06060623208622
-0.26569999999999994,-20.10304757108217
-0.26670000000000005,-20.202077362072725
-0.26769999999999994,-20.244518701068674
-0.26870000000000005,-20.286960040064624
-0.26969999999999994,-20.329401379060574
-0.27070000000000005,-20.329401379060574
-0.27169999999999994,-20.329401379060574
-0.27270000000000005,-20.329401379060574
-0.27369999999999994,-20.371842718056527
-0.27470000000000006,-20.414284057052477
-0.27569999999999995,-20.414284057052477
-0.27670000000000006,-20.499166735044383
-0.27769999999999995,-20.584049413036283
-0.27870000000000006,-20.72552054302279
-0.27969999999999995,-20.810403221014692
-0.28070000000000006,-20.93772723800254
-0.28169999999999995,-21.022609915994444
-0.28270000000000006,-21.107492593986347
-0.28369999999999995,-21.2065223849769
-0.28470000000000006,-21.248963723972853
-0.28569999999999995,-21.333846401964752
-0.28670000000000007,-21.418729079956652
-0.28769999999999996,-21.461170418952605
-0.28870000000000007,-21.54605309694451
-0.28969999999999996,-21.54605309694451
-0.29070000000000007,-21.58849443594046
-0.29169999999999996,-21.67337711393236
-0.29270000000000007,-21.729965565926964
-0.29369999999999996,-21.729965565926964
-0.2947000000000001,-21.729965565926964
-0.29569999999999996,-21.772406904922917
-0.2967000000000001,-21.814848243918867
-0.29769999999999996,-21.857289582914817
-0.2987000000000001,-21.98461359990267
-0.29969999999999997,-22.111937616890522
-0.3007000000000001,-22.295850085872978
-0.30169999999999997,-22.46561544185678
-0.3027000000000001,-22.63538079784059
-0.30369999999999997,-22.776851927827092
-0.3047000000000001,-22.904175944814945
-0.30569999999999997,-23.073941300798747
-0.3067000000000001,-23.15882397879065
-0.3077,-23.300295108777156
-0.3087000000000001,-23.385177786769056
-0.3097,-23.47006046476096
-0.3107000000000001,-23.55494314275286
-0.3117,-23.597384481748815
-0.3127000000000001,-23.682267159740714
-0.3137,-23.724708498736668
-0.3147000000000001,-23.823738289727217
-0.3157,-23.908620967719123
-0.3167000000000001,-23.951062306715073
-0.3177,-24.078386323702922
-0.3187000000000001,-24.16326900169483
-0.3197,-24.290593018682678
-0.3207000000000001,-24.432064148669184
-0.3217,-24.64427084364894
-0.3227000000000001,-24.814036199632742
-0.3237,-25.04039000761115
-0.3247000000000001,-25.210155363594954
-0.3257,-25.43650917157336
-0.3267000000000001,-25.60627452755716
-0.3277,-25.77603988354097
-0.3287000000000001,-26.002393691519377
-0.3297,-26.17215904750318
-0.3307000000000001,-26.38436574248293
-0.3317,-26.61071955046134
-0.3327000000000001,-26.780484906445146
-0.3337,-26.9643973754276
-0.3347000000000001,-27.091721392415455
-0.3357,-27.219045409403304
-0.3367000000000001,-27.34636942639116
-0.3377,-27.530281895373616
-0.3387000000000001,-27.700047251357418
-0.3397,-27.869812607341224
-0.3407000000000001,-28.09616641531963
-0.3417,-28.265931771303435
-0.3427000000000001,-28.478138466283188
-0.3437,-28.662050935265643
-0.3447000000000001,-28.91669896924135
-0.3457,-29.14305277721976
-0.3467000000000001,-29.39770081119546
-0.3477,-29.708937297165768
-0.3487000000000001,-29.921143992145527
-0.3497,-30.189939139119886
-0.3507000000000001,-30.402145834099635
-0.3517,-30.614352529079397
-0.3527000000000001,-30.8407063370578
-0.3537,-31.095354371033505
-0.3547000000000001,-31.36414951800786
-0.3557,-31.618797551983565
-0.35670000000000013,-31.887592698957924
-0.3577,-32.09979939393769
-0.35870000000000013,-32.32615320191609
-0.3597,-32.49591855789989
-0.36070000000000013,-32.764713704874254
-0.3617,-33.01936173884996
-0.3626999999999999,-33.288156885824314
-0.3637,-33.58524625879597
-0.3646999999999999,-33.85404140577033
-0.3657,-34.15113077874198
-0.3666999999999999,-34.41992592571634
-0.3677,-34.67457395969205
-0.3686999999999999,-34.90092776767045
-0.36970000000000003,-35.198017140642115
-0.3706999999999999,-35.46681228761647
-0.37170000000000003,-35.806342999584075
-0.3726999999999999,-36.20246216354629
-0.37370000000000003,-36.5985813275085
-0.3746999999999999,-36.95225915247476
-0.37570000000000003,-37.291789864442364
-0.3766999999999999,-37.645467689408626
-0.37770000000000004,-37.94255706238028
-0.3786999999999999,-38.211352209354644
-0.37970000000000004,-38.46600024333035
-0.3806999999999999,-38.777236729300654
-0.38170000000000004,-39.08847321527096
-0.38269999999999993,-39.42800392723857
-0.38370000000000004,-39.78168175220483
-0.38469999999999993,-40.177800916167044
-0.38570000000000004,-40.51733162813464
-0.38669999999999993,-40.91345079209687
-0.38770000000000004,-41.182245939071215
-0.38869999999999993,-41.52177665103883
-0.38970000000000005,-41.83301313700913
-0.39069999999999994,-42.186690961975394
-0.39170000000000005,-42.526221673943
-0.39269999999999994,-42.92234083790521
-0.39370000000000005,-43.36090134086337
-0.39469999999999994,-43.75702050482558
-0.39570000000000005,-44.096551216793195
-0.39669999999999994,-44.45022904175945
-0.39770000000000005,-44.84634820572166
-0.39869999999999994,-45.22832025668522
-0.39970000000000006,-45.666880759643384
-0.40069999999999995,-46.062999923605595
-0.40170000000000006,-46.501560426563756
-0.40269999999999995,-46.88353247752732
-0.40370000000000006,-47.27965164148953
-0.40469999999999995,-47.633329466455784
-0.40570000000000006,-47.987007291422046
-0.40669999999999995,-48.32653800338966
-0.40770000000000006,-48.72265716735186
-0.40869999999999995,-49.16121767031002
-0.40970000000000006,-49.642219512264134
-0.41069999999999995,-50.12322135421825
-0.41170000000000007,-50.60422319617236
-0.41269999999999996,-51.028636586131874
-0.41370000000000007,-51.424755750094086
-0.41469999999999996,-51.82087491405629
-0.41570000000000007,-52.2169940780185
-0.41669999999999996,-52.64140746797801
-0.41770000000000007,-53.03752663194023
-0.41869999999999996,-53.518528473894335
-0.4197000000000001,-54.0419716548444
-0.42069999999999996,-54.52297349679851
-0.4217000000000001,-55.003975338752625
-0.42269999999999996,-55.484977180706736
-0.4237000000000001,-55.881096344668954
-0.42469999999999997,-56.30550973462846
-0.4257000000000001,-56.70162889859067
-0.42669999999999997,-57.14018940154883
-0.4277000000000001,-57.62119124350295
-0.42869999999999997,-58.10219308545706
-0.4297000000000001,-58.62563626640712
-0.43069999999999997,-59.10663810836124
-0.4317000000000001,-59.587639950315335
-0.4327,-60.06864179226946
-0.4337000000000001,-60.54964363422357
-0.4347,-61.01649836317903
-0.4357000000000001,-61.49750020513315
-0.4367,-61.97850204708726
-0.4377000000000001,-62.459503889041365
-0.4387,-62.98294706999144
-0.4397000000000001,-63.421507572949594
-0.4407,-63.902509414903705
-0.4417000000000001,-64.38351125685783
-0.4427,-64.86451309881193
-0.4437000000000001,-65.38795627976201
-0.4447,-65.95384079970802
-0.4457000000000001,-66.56216665864997
-0.4467,-67.08560983960004
-0.4477000000000001,-67.56661168155415
-0.4487,-68.04761352350828
-0.4497000000000001,-68.52861536546239
-0.4507,-69.0096172074165
-0.4517000000000001,-69.4906190493706
-0.4527,-70.05650356931662
-0.4537000000000001,-70.66482942825859
-0.4547,-71.27315528720055
-0.4557000000000001,-71.92392248513846
-0.4567,-72.48980700508447
-0.4577000000000001,-73.0556915250305
-0.4587,-73.57913470598055
-0.4597000000000001,-74.06013654793468
-0.4607,-74.54113838988879
-0.4617000000000001,-75.06458157083884
-0.4627,-75.63046609078486
-0.4637000000000001,-76.23879194972683
-0.4647,-76.86126492166746
-0.4657000000000001,-77.46959078060941
-0.4667,-78.07791663955136
-0.4677000000000001,-78.64380115949739
-0.4687,-79.20968567944341
-0.4697000000000001,-79.73312886039348
-0.4707,-80.29901338033947
-0.4717000000000001,-80.9497805782774
-0.4727,-81.57225355021802
-0.4737000000000001,-82.18057940915998
-0.4747,-82.78890526810196
-0.4757000000000001,-83.35478978804795
-0.4767,-83.92067430799398
-0.4777000000000001,-84.48655882793999
-0.4787,-85.01000200889004
-0.4797000000000001,-85.57588652883607
-0.4807,-86.18421238777805
-0.48170000000000013,-86.7076555687281
-0.4827,-87.18865741068221
-0.48370000000000013,-87.66965925263632
-0.4847,-88.19310243358639
-0.48570000000000013,-88.7589869535324
-0.4867,-88.63166293654454
-0.48570000000000013,-87.27354008867411
-0.4847,-86.18421238777805
-0.48370000000000013,-85.23635581686847
-0.4827,-84.35923481095215
-0.48170000000000013,-83.56699648302772
-0.4807,-82.78890526810196
-0.4797000000000001,-81.95422560118158
-0.4787,-81.13369304725985
-0.4777000000000001,-80.25657204134353
-0.4767,-79.42189237442317
-0.4757000000000001,-78.55891848150549
-0.4747,-77.76668015358106
-0.4737000000000001,-76.9037062606634
-0.4727,-76.06902659374302
-0.4717000000000001,-75.29093537881725
-0.4707,-74.41381437290093
-0.4697000000000001,-73.49425202798865
-0.4687,-72.57468968307639
-0.4677000000000001,-71.6268331121668
-0.4667,-70.70727076725453
-0.4657000000000001,-69.87259110033416
-0.4647,-69.13694122440434
