Sept. 16, 2024   02:52:04
Cyclic Voltammetry
File: c:/users/guazh/data/20240903_batch_252_500/2024-09-03-exp366\exp366-2024-09-16t02_40_10-h2koh\exp366_cv_sr_600mvs_efin_-1500mv.bin
Data Source:  Experiment
Instrument Model:  CHI760E
Header: CV ran at 600 mVs
Note: 

Init E (V) = -1
High E (V) = -1
Low E (V) = -1.5
Final E (V) = -1
Init P/N = N
Scan Rate (V/s) = 0.6
Segment = 3
Sample Interval (V) = 0.001
Quiet Time (sec) = 2
Sensitivity (A/V) = 0.01
Comp R (ohm) = 2.8

Results:

Channel 1:
Segment 1:

Segment 2:

Segment 3:

Potential/V, Current/A

-1.000, -3.992e-5
-1.001, 3.099e-5
-1.002, 8.957e-5
-1.003, 1.420e-4
-1.004, 1.913e-4
-1.005, 2.345e-4
-1.006, 2.715e-4
-1.007, 3.085e-4
-1.008, 3.393e-4
-1.009, 3.701e-4
-1.010, 3.979e-4
-1.011, 4.225e-4
-1.012, 4.472e-4
-1.013, 4.719e-4
-1.014, 4.935e-4
-1.015, 5.181e-4
-1.016, 5.366e-4
-1.017, 5.551e-4
-1.018, 5.705e-4
-1.019, 5.859e-4
-1.020, 6.014e-4
-1.021, 6.137e-4
-1.022, 6.260e-4
-1.023, 6.414e-4
-1.024, 6.538e-4
-1.025, 6.661e-4
-1.026, 6.784e-4
-1.027, 6.908e-4
-1.028, 7.000e-4
-1.029, 7.093e-4
-1.030, 7.185e-4
-1.031, 7.309e-4
-1.032, 7.401e-4
-1.033, 7.524e-4
-1.034, 7.617e-4
-1.035, 7.709e-4
-1.036, 7.802e-4
-1.037, 7.863e-4
-1.038, 7.925e-4
-1.039, 7.956e-4
-1.040, 8.018e-4
-1.041, 8.079e-4
-1.042, 8.141e-4
-1.043, 8.203e-4
-1.044, 8.264e-4
-1.045, 8.295e-4
-1.046, 8.357e-4
-1.047, 8.388e-4
-1.048, 8.449e-4
-1.049, 8.511e-4
-1.050, 8.573e-4
-1.051, 8.634e-4
-1.052, 8.696e-4
-1.053, 8.758e-4
-1.054, 8.788e-4
-1.055, 8.850e-4
-1.056, 8.881e-4
-1.057, 8.912e-4
-1.058, 8.943e-4
-1.059, 8.973e-4
-1.060, 8.973e-4
-1.061, 8.973e-4
-1.062, 9.004e-4
-1.063, 9.066e-4
-1.064, 9.097e-4
-1.065, 9.128e-4
-1.066, 9.189e-4
-1.067, 9.220e-4
-1.068, 9.282e-4
-1.069, 9.313e-4
-1.070, 9.343e-4
-1.071, 9.374e-4
-1.072, 9.405e-4
-1.073, 9.436e-4
-1.074, 9.467e-4
-1.075, 9.498e-4
-1.076, 9.528e-4
-1.077, 9.528e-4
-1.078, 9.559e-4
-1.079, 9.590e-4
-1.080, 9.621e-4
-1.081, 9.621e-4
-1.082, 9.652e-4
-1.083, 9.652e-4
-1.084, 9.683e-4
-1.085, 9.713e-4
-1.086, 9.744e-4
-1.087, 9.775e-4
-1.088, 9.775e-4
-1.089, 9.775e-4
-1.090, 9.744e-4
-1.091, 9.775e-4
-1.092, 9.806e-4
-1.093, 9.868e-4
-1.094, 9.929e-4
-1.095, 9.960e-4
-1.096, 9.991e-4
-1.097, 9.991e-4
-1.098, 9.960e-4
-1.099, 9.960e-4
-1.100, 9.991e-4
-1.101, 9.991e-4
-1.102, 9.991e-4
-1.103, 1.002e-3
-1.104, 1.002e-3
-1.105, 1.002e-3
-1.106, 1.005e-3
-1.107, 1.008e-3
-1.108, 1.008e-3
-1.109, 1.008e-3
-1.110, 1.011e-3
-1.111, 1.014e-3
-1.112, 1.018e-3
-1.113, 1.021e-3
-1.114, 1.024e-3
-1.115, 1.024e-3
-1.116, 1.021e-3
-1.117, 1.021e-3
-1.118, 1.021e-3
-1.119, 1.024e-3
-1.120, 1.024e-3
-1.121, 1.027e-3
-1.122, 1.027e-3
-1.123, 1.030e-3
-1.124, 1.030e-3
-1.125, 1.033e-3
-1.126, 1.036e-3
-1.127, 1.039e-3
-1.128, 1.036e-3
-1.129, 1.036e-3
-1.130, 1.033e-3
-1.131, 1.033e-3
-1.132, 1.036e-3
-1.133, 1.039e-3
-1.134, 1.039e-3
-1.135, 1.042e-3
-1.136, 1.042e-3
-1.137, 1.045e-3
-1.138, 1.045e-3
-1.139, 1.045e-3
-1.140, 1.045e-3
-1.141, 1.042e-3
-1.142, 1.042e-3
-1.143, 1.042e-3
-1.144, 1.042e-3
-1.145, 1.045e-3
-1.146, 1.045e-3
-1.147, 1.045e-3
-1.148, 1.045e-3
-1.149, 1.045e-3
-1.150, 1.045e-3
-1.151, 1.048e-3
-1.152, 1.051e-3
-1.153, 1.058e-3
-1.154, 1.058e-3
-1.155, 1.061e-3
-1.156, 1.061e-3
-1.157, 1.061e-3
-1.158, 1.061e-3
-1.159, 1.064e-3
-1.160, 1.064e-3
-1.161, 1.067e-3
-1.162, 1.064e-3
-1.163, 1.067e-3
-1.164, 1.070e-3
-1.165, 1.073e-3
-1.166, 1.079e-3
-1.167, 1.082e-3
-1.168, 1.079e-3
-1.169, 1.079e-3
-1.170, 1.076e-3
-1.171, 1.076e-3
-1.172, 1.073e-3
-1.173, 1.073e-3
-1.174, 1.070e-3
-1.175, 1.067e-3
-1.176, 1.070e-3
-1.177, 1.073e-3
-1.178, 1.079e-3
-1.179, 1.079e-3
-1.180, 1.082e-3
-1.181, 1.082e-3
-1.182, 1.082e-3
-1.183, 1.082e-3
-1.184, 1.085e-3
-1.185, 1.085e-3
-1.186, 1.085e-3
-1.187, 1.085e-3
-1.188, 1.082e-3
-1.189, 1.079e-3
-1.190, 1.073e-3
-1.191, 1.067e-3
-1.192, 1.061e-3
-1.193, 1.061e-3
-1.194, 1.064e-3
-1.195, 1.070e-3
-1.196, 1.076e-3
-1.197, 1.082e-3
-1.198, 1.085e-3
-1.199, 1.088e-3
-1.200, 1.088e-3
-1.201, 1.092e-3
-1.202, 1.088e-3
-1.203, 1.082e-3
-1.204, 1.079e-3
-1.205, 1.073e-3
-1.206, 1.070e-3
-1.207, 1.067e-3
-1.208, 1.067e-3
-1.209, 1.067e-3
-1.210, 1.070e-3
-1.211, 1.073e-3
-1.212, 1.079e-3
-1.213, 1.085e-3
-1.214, 1.088e-3
-1.215, 1.092e-3
-1.216, 1.095e-3
-1.217, 1.098e-3
-1.218, 1.095e-3
-1.219, 1.088e-3
-1.220, 1.088e-3
-1.221, 1.085e-3
-1.222, 1.085e-3
-1.223, 1.085e-3
-1.224, 1.085e-3
-1.225, 1.085e-3
-1.226, 1.088e-3
-1.227, 1.092e-3
-1.228, 1.095e-3
-1.229, 1.098e-3
-1.230, 1.101e-3
-1.231, 1.101e-3
-1.232, 1.104e-3
-1.233, 1.104e-3
-1.234, 1.107e-3
-1.235, 1.107e-3
-1.236, 1.104e-3
-1.237, 1.104e-3
-1.238, 1.101e-3
-1.239, 1.101e-3
-1.240, 1.101e-3
-1.241, 1.101e-3
-1.242, 1.101e-3
-1.243, 1.101e-3
-1.244, 1.101e-3
-1.245, 1.104e-3
-1.246, 1.110e-3
-1.247, 1.116e-3
-1.248, 1.119e-3
-1.249, 1.119e-3
-1.250, 1.119e-3
-1.251, 1.116e-3
-1.252, 1.116e-3
-1.253, 1.116e-3
-1.254, 1.119e-3
-1.255, 1.122e-3
-1.256, 1.125e-3
-1.257, 1.125e-3
-1.258, 1.125e-3
-1.259, 1.129e-3
-1.260, 1.132e-3
-1.261, 1.132e-3
-1.262, 1.132e-3
-1.263, 1.135e-3
-1.264, 1.138e-3
-1.265, 1.144e-3
-1.266, 1.147e-3
-1.267, 1.147e-3
-1.268, 1.150e-3
-1.269, 1.150e-3
-1.270, 1.147e-3
-1.271, 1.150e-3
-1.272, 1.153e-3
-1.273, 1.159e-3
-1.274, 1.162e-3
-1.275, 1.169e-3
-1.276, 1.169e-3
-1.277, 1.172e-3
-1.278, 1.172e-3
-1.279, 1.175e-3
-1.280, 1.181e-3
-1.281, 1.187e-3
-1.282, 1.190e-3
-1.283, 1.190e-3
-1.284, 1.193e-3
-1.285, 1.196e-3
-1.286, 1.199e-3
-1.287, 1.203e-3
-1.288, 1.206e-3
-1.289, 1.209e-3
-1.290, 1.215e-3
-1.291, 1.218e-3
-1.292, 1.221e-3
-1.293, 1.227e-3
-1.294, 1.230e-3
-1.295, 1.233e-3
-1.296, 1.240e-3
-1.297, 1.243e-3
-1.298, 1.246e-3
-1.299, 1.255e-3
-1.300, 1.261e-3
-1.301, 1.264e-3
-1.302, 1.273e-3
-1.303, 1.280e-3
-1.304, 1.286e-3
-1.305, 1.292e-3
-1.306, 1.298e-3
-1.307, 1.304e-3
-1.308, 1.307e-3
-1.309, 1.310e-3
-1.310, 1.320e-3
-1.311, 1.326e-3
-1.312, 1.332e-3
-1.313, 1.341e-3
-1.314, 1.354e-3
-1.315, 1.360e-3
-1.316, 1.369e-3
-1.317, 1.375e-3
-1.318, 1.381e-3
-1.319, 1.391e-3
-1.320, 1.400e-3
-1.321, 1.412e-3
-1.322, 1.418e-3
-1.323, 1.428e-3
-1.324, 1.437e-3
-1.325, 1.446e-3
-1.326, 1.455e-3
-1.327, 1.468e-3
-1.328, 1.477e-3
-1.329, 1.486e-3
-1.330, 1.495e-3
-1.331, 1.505e-3
-1.332, 1.514e-3
-1.333, 1.526e-3
-1.334, 1.536e-3
-1.335, 1.545e-3
-1.336, 1.554e-3
-1.337, 1.563e-3
-1.338, 1.576e-3
-1.339, 1.585e-3
-1.340, 1.597e-3
-1.341, 1.606e-3
-1.342, 1.619e-3
-1.343, 1.634e-3
-1.344, 1.647e-3
-1.345, 1.662e-3
-1.346, 1.674e-3
-1.347, 1.690e-3
-1.348, 1.705e-3
-1.349, 1.717e-3
-1.350, 1.733e-3
-1.351, 1.745e-3
-1.352, 1.758e-3
-1.353, 1.773e-3
-1.354, 1.785e-3
-1.355, 1.801e-3
-1.356, 1.813e-3
-1.357, 1.825e-3
-1.358, 1.838e-3
-1.359, 1.850e-3
-1.360, 1.865e-3
-1.361, 1.887e-3
-1.362, 1.906e-3
-1.363, 1.927e-3
-1.364, 1.949e-3
-1.365, 1.967e-3
-1.366, 1.986e-3
-1.367, 2.001e-3
-1.368, 2.017e-3
-1.369, 2.032e-3
-1.370, 2.050e-3
-1.371, 2.069e-3
-1.372, 2.087e-3
-1.373, 2.106e-3
-1.374, 2.128e-3
-1.375, 2.149e-3
-1.376, 2.171e-3
-1.377, 2.189e-3
-1.378, 2.208e-3
-1.379, 2.226e-3
-1.380, 2.248e-3
-1.381, 2.266e-3
-1.382, 2.285e-3
-1.383, 2.306e-3
-1.384, 2.322e-3
-1.385, 2.340e-3
-1.386, 2.362e-3
-1.387, 2.386e-3
-1.388, 2.417e-3
-1.389, 2.445e-3
-1.390, 2.470e-3
-1.391, 2.488e-3
-1.392, 2.510e-3
-1.393, 2.528e-3
-1.394, 2.556e-3
-1.395, 2.584e-3
-1.396, 2.612e-3
-1.397, 2.636e-3
-1.398, 2.658e-3
-1.399, 2.679e-3
-1.400, 2.701e-3
-1.401, 2.726e-3
-1.402, 2.750e-3
-1.403, 2.778e-3
-1.404, 2.806e-3
-1.405, 2.830e-3
-1.406, 2.858e-3
-1.407, 2.883e-3
-1.408, 2.911e-3
-1.409, 2.938e-3
-1.410, 2.966e-3
-1.411, 2.991e-3
-1.412, 3.019e-3
-1.413, 3.046e-3
-1.414, 3.077e-3
-1.415, 3.105e-3
-1.416, 3.136e-3
-1.417, 3.163e-3
-1.418, 3.194e-3
-1.419, 3.222e-3
-1.420, 3.250e-3
-1.421, 3.274e-3
-1.422, 3.302e-3
-1.423, 3.333e-3
-1.424, 3.367e-3
-1.425, 3.398e-3
-1.426, 3.432e-3
-1.427, 3.462e-3
-1.428, 3.493e-3
-1.429, 3.521e-3
-1.430, 3.549e-3
-1.431, 3.580e-3
-1.432, 3.614e-3
-1.433, 3.647e-3
-1.434, 3.684e-3
-1.435, 3.718e-3
-1.436, 3.749e-3
-1.437, 3.777e-3
-1.438, 3.805e-3
-1.439, 3.832e-3
-1.440, 3.866e-3
-1.441, 3.900e-3
-1.442, 3.943e-3
-1.443, 3.987e-3
-1.444, 4.027e-3
-1.445, 4.061e-3
-1.446, 4.091e-3
-1.447, 4.125e-3
-1.448, 4.156e-3
-1.449, 4.193e-3
-1.450, 4.227e-3
-1.451, 4.264e-3
-1.452, 4.295e-3
-1.453, 4.329e-3
-1.454, 4.366e-3
-1.455, 4.406e-3
-1.456, 4.452e-3
-1.457, 4.495e-3
-1.458, 4.526e-3
-1.459, 4.554e-3
-1.460, 4.582e-3
-1.461, 4.609e-3
-1.462, 4.653e-3
-1.463, 4.714e-3
-1.464, 4.767e-3
-1.465, 4.813e-3
-1.466, 4.850e-3
-1.467, 4.884e-3
-1.468, 4.921e-3
-1.469, 4.958e-3
-1.470, 4.992e-3
-1.471, 5.029e-3
-1.472, 5.056e-3
-1.473, 5.090e-3
-1.474, 5.127e-3
-1.475, 5.161e-3
-1.476, 5.198e-3
-1.477, 5.241e-3
-1.478, 5.288e-3
-1.479, 5.334e-3
-1.480, 5.380e-3
-1.481, 5.430e-3
-1.482, 5.479e-3
-1.483, 5.525e-3
-1.484, 5.574e-3
-1.485, 5.618e-3
-1.486, 5.658e-3
-1.487, 5.695e-3
-1.488, 5.732e-3
-1.489, 5.769e-3
-1.490, 5.806e-3
-1.491, 5.843e-3
-1.492, 5.870e-3
-1.493, 5.889e-3
-1.494, 5.907e-3
-1.495, 5.938e-3
-1.496, 5.978e-3
-1.497, 6.028e-3
-1.498, 6.080e-3
-1.499, 6.136e-3
-1.500, 6.132e-3
-1.499, 6.040e-3
-1.498, 5.960e-3
-1.497, 5.889e-3
-1.496, 5.827e-3
-1.495, 5.772e-3
-1.494, 5.719e-3
-1.493, 5.664e-3
-1.492, 5.599e-3
-1.491, 5.534e-3
-1.490, 5.470e-3
-1.489, 5.414e-3
-1.488, 5.359e-3
-1.487, 5.309e-3
-1.486, 5.257e-3
-1.485, 5.208e-3
-1.484, 5.158e-3
-1.483, 5.103e-3
-1.482, 5.047e-3
-1.481, 4.989e-3
-1.480, 4.936e-3
-1.479, 4.890e-3
-1.478, 4.841e-3
-1.477, 4.791e-3
-1.476, 4.733e-3
-1.475, 4.677e-3
-1.474, 4.625e-3
-1.473, 4.579e-3
-1.472, 4.535e-3
-1.471, 4.498e-3
-1.470, 4.452e-3
-1.469, 4.406e-3
-1.468, 4.357e-3
-1.467, 4.307e-3
-1.466, 4.258e-3
-1.465, 4.215e-3
-1.464, 4.175e-3
-1.463, 4.135e-3
-1.462, 4.091e-3
-1.461, 4.045e-3
-1.460, 3.993e-3
-1.459, 3.940e-3
-1.458, 3.894e-3
-1.457, 3.854e-3
-1.456, 3.814e-3
-1.455, 3.774e-3
-1.454, 3.734e-3
-1.453, 3.688e-3
-1.452, 3.641e-3
-1.451, 3.598e-3
-1.450, 3.558e-3
-1.449, 3.518e-3
-1.448, 3.478e-3
-1.447, 3.438e-3
-1.446, 3.398e-3
-1.445, 3.355e-3
-1.444, 3.308e-3
-1.443, 3.268e-3
-1.442, 3.228e-3
-1.441, 3.182e-3
-1.440, 3.139e-3
-1.439, 3.096e-3
-1.438, 3.049e-3
-1.437, 3.009e-3
-1.436, 2.972e-3
-1.435, 2.938e-3
-1.434, 2.904e-3
-1.433, 2.871e-3
-1.432, 2.837e-3
-1.431, 2.800e-3
-1.430, 2.763e-3
-1.429, 2.719e-3
-1.428, 2.676e-3
-1.427, 2.636e-3
-1.426, 2.599e-3
-1.425, 2.565e-3
-1.424, 2.531e-3
-1.423, 2.494e-3
-1.422, 2.457e-3
-1.421, 2.420e-3
-1.420, 2.383e-3
-1.419, 2.349e-3
-1.418, 2.316e-3
-1.417, 2.288e-3
-1.416, 2.260e-3
-1.415, 2.226e-3
-1.414, 2.195e-3
-1.413, 2.161e-3
-1.412, 2.131e-3
-1.411, 2.094e-3
-1.410, 2.063e-3
-1.409, 2.029e-3
-1.408, 1.995e-3
-1.407, 1.964e-3
-1.406, 1.933e-3
-1.405, 1.906e-3
-1.404, 1.878e-3
-1.403, 1.850e-3
-1.402, 1.819e-3
-1.401, 1.788e-3
-1.400, 1.761e-3
-1.399, 1.730e-3
-1.398, 1.699e-3
-1.397, 1.668e-3
-1.396, 1.640e-3
-1.395, 1.610e-3
-1.394, 1.579e-3
-1.393, 1.551e-3
-1.392, 1.523e-3
-1.391, 1.492e-3
-1.390, 1.465e-3
-1.389, 1.437e-3
-1.388, 1.409e-3
-1.387, 1.381e-3
-1.386, 1.357e-3
-1.385, 1.329e-3
-1.384, 1.304e-3
-1.383, 1.277e-3
-1.382, 1.249e-3
-1.381, 1.224e-3
-1.380, 1.199e-3
-1.379, 1.172e-3
-1.378, 1.147e-3
-1.377, 1.119e-3
-1.376, 1.095e-3
-1.375, 1.067e-3
-1.374, 1.042e-3
-1.373, 1.021e-3
-1.372, 9.960e-4
-1.371, 9.744e-4
-1.370, 9.528e-4
-1.369, 9.313e-4
-1.368, 9.066e-4
-1.367, 8.850e-4
-1.366, 8.634e-4
-1.365, 8.388e-4
-1.364, 8.172e-4
-1.363, 7.925e-4
-1.362, 7.679e-4
-1.361, 7.463e-4
-1.360, 7.247e-4
-1.359, 7.031e-4
-1.358, 6.846e-4
-1.357, 6.661e-4
-1.356, 6.445e-4
-1.355, 6.260e-4
-1.354, 6.075e-4
-1.353, 5.890e-4
-1.352, 5.705e-4
-1.351, 5.489e-4
-1.350, 5.305e-4
-1.349, 5.089e-4
-1.348, 4.904e-4
-1.347, 4.750e-4
-1.346, 4.565e-4
-1.345, 4.380e-4
-1.344, 4.225e-4
-1.343, 4.040e-4
-1.342, 3.886e-4
-1.341, 3.701e-4
-1.340, 3.516e-4
-1.339, 3.362e-4
-1.338, 3.208e-4
-1.337, 3.054e-4
-1.336, 2.900e-4
-1.335, 2.715e-4
-1.334, 2.561e-4
-1.333, 2.437e-4
-1.332, 2.252e-4
-1.331, 2.129e-4
-1.330, 1.975e-4
-1.329, 1.821e-4
-1.328, 1.666e-4
-1.327, 1.543e-4
-1.326, 1.389e-4
-1.325, 1.266e-4
-1.324, 1.142e-4
-1.323, 9.882e-5
-1.322, 8.648e-5
-1.321, 7.415e-5
-1.320, 5.873e-5
-1.319, 4.640e-5
-1.318, 3.407e-5
-1.317, 2.174e-5
-1.316, 9.405e-6
-1.315, 1.559e-7
-1.314, -1.218e-5
-1.313, -2.451e-5
-1.312, -3.684e-5
-1.311, -4.917e-5
-1.310, -6.151e-5
-1.309, -7.076e-5
-1.308, -8.309e-5
-1.307, -9.234e-5
-1.306, -1.047e-4
-1.305, -1.139e-4
-1.304, -1.232e-4
-1.303, -1.324e-4
-1.302, -1.448e-4
-1.301, -1.540e-4
-1.300, -1.663e-4
-1.299, -1.725e-4
-1.298, -1.848e-4
-1.297, -1.910e-4
-1.296, -2.002e-4
-1.295, -2.095e-4
-1.294, -2.187e-4
-1.293, -2.280e-4
-1.292, -2.372e-4
-1.291, -2.465e-4
-1.290, -2.527e-4
-1.289, -2.619e-4
-1.288, -2.712e-4
-1.287, -2.804e-4
-1.286, -2.866e-4
-1.285, -2.927e-4
-1.284, -3.020e-4
-1.283, -3.082e-4
-1.282, -3.143e-4
-1.281, -3.236e-4
-1.280, -3.328e-4
-1.279, -3.390e-4
-1.278, -3.452e-4
-1.277, -3.513e-4
-1.276, -3.575e-4
-1.275, -3.637e-4
-1.274, -3.698e-4
-1.273, -3.760e-4
-1.272, -3.821e-4
-1.271, -3.883e-4
-1.270, -3.976e-4
-1.269, -4.006e-4
-1.268, -4.068e-4
-1.267, -4.130e-4
-1.266, -4.161e-4
-1.265, -4.222e-4
-1.264, -4.253e-4
-1.263, -4.346e-4
-1.262, -4.376e-4
-1.261, -4.438e-4
-1.260, -4.500e-4
-1.259, -4.561e-4
-1.258, -4.623e-4
-1.257, -4.654e-4
-1.256, -4.716e-4
-1.255, -4.746e-4
-1.254, -4.808e-4
-1.253, -4.839e-4
-1.252, -4.901e-4
-1.251, -4.931e-4
-1.250, -4.993e-4
-1.249, -5.055e-4
-1.248, -5.086e-4
-1.247, -5.116e-4
-1.246, -5.178e-4
-1.245, -5.209e-4
-1.244, -5.240e-4
-1.243, -5.301e-4
-1.242, -5.332e-4
-1.241, -5.394e-4
-1.240, -5.425e-4
-1.239, -5.456e-4
-1.238, -5.517e-4
-1.237, -5.517e-4
-1.236, -5.579e-4
-1.235, -5.610e-4
-1.234, -5.610e-4
-1.233, -5.641e-4
-1.232, -5.671e-4
-1.231, -5.733e-4
-1.230, -5.764e-4
-1.229, -5.795e-4
-1.228, -5.856e-4
-1.227, -5.887e-4
-1.226, -5.918e-4
-1.225, -5.949e-4
-1.224, -5.980e-4
-1.223, -6.011e-4
-1.222, -6.011e-4
-1.221, -6.072e-4
-1.220, -6.072e-4
-1.219, -6.134e-4
-1.218, -6.165e-4
-1.217, -6.195e-4
-1.216, -6.195e-4
-1.215, -6.226e-4
-1.214, -6.257e-4
-1.213, -6.288e-4
-1.212, -6.319e-4
-1.211, -6.350e-4
-1.210, -6.411e-4
-1.209, -6.442e-4
-1.208, -6.473e-4
-1.207, -6.504e-4
-1.206, -6.504e-4
-1.205, -6.504e-4
-1.204, -6.504e-4
-1.203, -6.565e-4
-1.202, -6.596e-4
-1.201, -6.658e-4
-1.200, -6.689e-4
-1.199, -6.720e-4
-1.198, -6.750e-4
-1.197, -6.812e-4
-1.196, -6.843e-4
-1.195, -6.874e-4
-1.194, -6.905e-4
-1.193, -6.905e-4
-1.192, -6.935e-4
-1.191, -6.966e-4
-1.190, -6.997e-4
-1.189, -7.028e-4
-1.188, -7.059e-4
-1.187, -7.059e-4
-1.186, -7.090e-4
-1.185, -7.120e-4
-1.184, -7.151e-4
-1.183, -7.213e-4
-1.182, -7.244e-4
-1.181, -7.275e-4
-1.180, -7.336e-4
-1.179, -7.336e-4
-1.178, -7.398e-4
-1.177, -7.429e-4
-1.176, -7.460e-4
-1.175, -7.460e-4
-1.174, -7.490e-4
-1.173, -7.490e-4
-1.172, -7.521e-4
-1.171, -7.552e-4
-1.170, -7.583e-4
-1.169, -7.645e-4
-1.168, -7.645e-4
-1.167, -7.675e-4
-1.166, -7.706e-4
-1.165, -7.768e-4
-1.164, -7.799e-4
-1.163, -7.860e-4
-1.162, -7.891e-4
-1.161, -7.953e-4
-1.160, -7.984e-4
-1.159, -8.015e-4
-1.158, -8.045e-4
-1.157, -8.076e-4
-1.156, -8.107e-4
-1.155, -8.138e-4
-1.154, -8.169e-4
-1.153, -8.200e-4
-1.152, -8.200e-4
-1.151, -8.261e-4
-1.150, -8.292e-4
-1.149, -8.323e-4
-1.148, -8.385e-4
-1.147, -8.446e-4
-1.146, -8.477e-4
-1.145, -8.508e-4
-1.144, -8.539e-4
-1.143, -8.600e-4
-1.142, -8.631e-4
-1.141, -8.662e-4
-1.140, -8.724e-4
-1.139, -8.724e-4
-1.138, -8.785e-4
-1.137, -8.816e-4
-1.136, -8.847e-4
-1.135, -8.909e-4
-1.134, -8.939e-4
-1.133, -8.970e-4
-1.132, -9.032e-4
-1.131, -9.063e-4
-1.130, -9.124e-4
-1.129, -9.186e-4
-1.128, -9.217e-4
-1.127, -9.279e-4
-1.126, -9.309e-4
-1.125, -9.340e-4
-1.124, -9.371e-4
-1.123, -9.402e-4
-1.122, -9.464e-4
-1.121, -9.525e-4
-1.120, -9.556e-4
-1.119, -9.618e-4
-1.118, -9.649e-4
-1.117, -9.679e-4
-1.116, -9.741e-4
-1.115, -9.803e-4
-1.114, -9.834e-4
-1.113, -9.895e-4
-1.112, -9.957e-4
-1.111, -1.002e-3
-1.110, -1.005e-3
-1.109, -1.014e-3
-1.108, -1.017e-3
-1.107, -1.023e-3
-1.106, -1.027e-3
-1.105, -1.030e-3
-1.104, -1.033e-3
-1.103, -1.039e-3
-1.102, -1.045e-3
-1.101, -1.051e-3
-1.100, -1.057e-3
-1.099, -1.064e-3
-1.098, -1.070e-3
-1.097, -1.076e-3
-1.096, -1.082e-3
-1.095, -1.088e-3
-1.094, -1.091e-3
-1.093, -1.097e-3
-1.092, -1.104e-3
-1.091, -1.113e-3
-1.090, -1.119e-3
-1.089, -1.128e-3
-1.088, -1.134e-3
-1.087, -1.138e-3
-1.086, -1.144e-3
-1.085, -1.147e-3
-1.084, -1.153e-3
-1.083, -1.162e-3
-1.082, -1.171e-3
-1.081, -1.178e-3
-1.080, -1.184e-3
-1.079, -1.190e-3
-1.078, -1.193e-3
-1.077, -1.199e-3
-1.076, -1.205e-3
-1.075, -1.215e-3
-1.074, -1.221e-3
-1.073, -1.227e-3
-1.072, -1.233e-3
-1.071, -1.236e-3
-1.070, -1.242e-3
-1.069, -1.249e-3
-1.068, -1.255e-3
-1.067, -1.264e-3
-1.066, -1.270e-3
-1.065, -1.273e-3
-1.064, -1.282e-3
-1.063, -1.289e-3
-1.062, -1.295e-3
-1.061, -1.301e-3
-1.060, -1.304e-3
-1.059, -1.310e-3
-1.058, -1.319e-3
-1.057, -1.326e-3
-1.056, -1.332e-3
-1.055, -1.338e-3
-1.054, -1.344e-3
-1.053, -1.350e-3
-1.052, -1.356e-3
-1.051, -1.366e-3
-1.050, -1.375e-3
-1.049, -1.384e-3
-1.048, -1.393e-3
-1.047, -1.400e-3
-1.046, -1.406e-3
-1.045, -1.412e-3
-1.044, -1.418e-3
-1.043, -1.427e-3
-1.042, -1.437e-3
-1.041, -1.443e-3
-1.040, -1.449e-3
-1.039, -1.458e-3
-1.038, -1.464e-3
-1.037, -1.470e-3
-1.036, -1.480e-3
-1.035, -1.489e-3
-1.034, -1.498e-3
-1.033, -1.507e-3
-1.032, -1.517e-3
-1.031, -1.526e-3
-1.030, -1.535e-3
-1.029, -1.544e-3
-1.028, -1.554e-3
-1.027, -1.563e-3
-1.026, -1.572e-3
-1.025, -1.581e-3
-1.024, -1.591e-3
-1.023, -1.600e-3
-1.022, -1.609e-3
-1.021, -1.618e-3
-1.020, -1.631e-3
-1.019, -1.640e-3
-1.018, -1.649e-3
-1.017, -1.659e-3
-1.016, -1.665e-3
-1.015, -1.671e-3
-1.014, -1.680e-3
-1.013, -1.689e-3
-1.012, -1.702e-3
-1.011, -1.714e-3
-1.010, -1.723e-3
-1.009, -1.733e-3
-1.008, -1.739e-3
-1.007, -1.748e-3
-1.006, -1.757e-3
-1.005, -1.766e-3
-1.004, -1.776e-3
-1.003, -1.785e-3
-1.002, -1.794e-3
-1.001, -1.807e-3
