Potential V vs RHE, Current mA cm-2
0.013299999999999867,0.5647527509061226
0.012299999999999978,-0.4384190318281749
0.011299999999999866,-1.2671569112891135
0.010299999999999976,-2.008890045808352
0.009299999999999864,-2.706342716641815
0.008299999999999974,-3.317497998183511
0.007299999999999862,-3.840941179133574
0.006299999999999972,-4.364384360083638
0.00529999999999986,-4.800115440442069
0.0042999999999999705,-5.235846520800501
0.0032999999999998586,-5.629136262162981
0.0022999999999999687,-5.977155241929781
0.0012999999999998568,-6.326588932996443
0.00029999999999996696,-6.6760226240631075
-0.000700000000000145,-6.981600264833956
-0.0017000000000000348,-7.329619244600755
-0.0027000000000001467,-7.591340835075788
-0.0037000000000000366,-7.853062425550818
-0.0047000000000001485,-8.070927965730034
-0.005700000000000038,-8.288793505909249
-0.00670000000000015,-8.508073757388331
-0.00770000000000004,-8.68208324727173
-0.008700000000000152,-8.85609273715513
-0.009700000000000042,-9.073958277334345
-0.010700000000000154,-9.24938247851761
-0.011700000000000044,-9.423391968401008
-0.012700000000000156,-9.59740145828441
-0.013700000000000045,-9.772825659467674
-0.014700000000000157,-9.902979099055257
-0.015700000000000047,-10.034547249942705
-0.01670000000000016,-10.164700689530287
-0.01770000000000005,-10.340124890713554
-0.01870000000000016,-10.470278330301136
-0.01970000000000005,-10.644287820184536
-0.020700000000000163,-10.775855971071984
-0.021700000000000053,-10.906009410659568
-0.022700000000000164,-11.037577561547016
-0.023700000000000054,-11.123874950838783
-0.024700000000000166,-11.211587051430415
-0.025700000000000056,-11.255443101726232
-0.026700000000000168,-11.343155202317865
-0.027700000000000058,-11.42945259160963
-0.02870000000000017,-11.517164692201263
-0.02970000000000006,-11.604876792792895
-0.03070000000000017,-11.691174182084664
-0.03170000000000006,-11.73503023238048
-0.03270000000000017,-11.82274233297211
-0.03370000000000006,-11.86659838326793
-0.034700000000000175,-11.952895772559694
-0.035700000000000065,-12.040607873151327
-0.03670000000000018,-12.12831997374296
-0.03770000000000007,-12.214617363034726
-0.03870000000000018,-12.302329463626359
-0.03970000000000007,-12.390041564217992
-0.04070000000000018,-12.432482903213943
-0.04170000000000007,-12.520195003805576
-0.04270000000000018,-12.56405105410139
-0.04370000000000007,-12.607907104397206
-0.044700000000000184,-12.651763154693022
-0.045700000000000074,-12.694204493688973
-0.046700000000000186,-12.694204493688973
-0.047700000000000076,-12.694204493688973
-0.04870000000000019,-12.73806054398479
-0.04970000000000008,-12.825772644576423
-0.05070000000000019,-12.869628694872238
-0.05170000000000008,-12.913484745168056
-0.05270000000000019,-12.99978213445982
-0.05370000000000008,-13.043638184755638
-0.05470000000000019,-13.13135028534727
-0.05570000000000008,-13.175206335643086
-0.056700000000000195,-13.217647674639037
-0.057700000000000085,-13.261503724934855
-0.058700000000000196,-13.30535977523067
-0.059700000000000086,-13.349215825526485
-0.0607000000000002,-13.3930718758223
-0.06170000000000009,-13.436927926118118
-0.0627000000000002,-13.47936926511407
-0.06370000000000009,-13.47936926511407
-0.0647000000000002,-13.523225315409885
-0.06570000000000009,-13.567081365705702
-0.0667000000000002,-13.610937416001518
-0.0677000000000001,-13.610937416001518
-0.0687000000000002,-13.654793466297335
-0.0697000000000001,-13.654793466297335
-0.07070000000000021,-13.698649516593148
-0.0717000000000001,-13.741090855589102
-0.07270000000000021,-13.784946905884919
-0.0737000000000001,-13.828802956180734
-0.07470000000000021,-13.828802956180734
-0.0757000000000001,-13.828802956180734
-0.07670000000000021,-13.784946905884919
-0.0777000000000001,-13.828802956180734
-0.07870000000000021,-13.872659006476551
-0.0797000000000001,-13.960371107068182
-0.08070000000000022,-14.046668496359947
-0.0817000000000001,-14.090524546655764
-0.08270000000000022,-14.13438059695158
-0.08370000000000011,-14.13438059695158
-0.08470000000000022,-14.090524546655764
-0.08570000000000011,-14.090524546655764
-0.08670000000000022,-14.13438059695158
-0.08770000000000011,-14.13438059695158
-0.08870000000000022,-14.13438059695158
-0.08970000000000011,-14.175407224647667
-0.09070000000000022,-14.175407224647667
-0.09170000000000011,-14.175407224647667
-0.09270000000000023,-14.217848563643619
-0.09370000000000012,-14.26028990263957
-0.09470000000000023,-14.26028990263957
-0.09570000000000012,-14.26028990263957
-0.09670000000000023,-14.30273124163552
-0.09770000000000012,-14.345172580631472
-0.09870000000000023,-14.401761032626075
-0.09970000000000012,-14.444202371622024
-0.10070000000000023,-14.486643710617974
-0.10170000000000012,-14.486643710617974
-0.10270000000000024,-14.444202371622024
-0.10370000000000013,-14.444202371622024
-0.10470000000000024,-14.444202371622024
-0.10570000000000013,-14.486643710617974
-0.10670000000000024,-14.486643710617974
-0.10770000000000013,-14.529085049613924
-0.10870000000000024,-14.529085049613924
-0.10970000000000013,-14.57152638860988
-0.11070000000000024,-14.57152638860988
-0.11170000000000013,-14.61396772760583
-0.11270000000000002,-14.65640906660178
-0.11370000000000013,-14.69885040559773
-0.11470000000000002,-14.65640906660178
-0.11570000000000014,-14.65640906660178
-0.11670000000000003,-14.61396772760583
-0.11770000000000014,-14.61396772760583
-0.11870000000000003,-14.65640906660178
-0.11970000000000014,-14.69885040559773
-0.12070000000000003,-14.69885040559773
-0.12170000000000014,-14.741291744593681
-0.12270000000000003,-14.741291744593681
-0.12370000000000014,-14.783733083589633
-0.12470000000000003,-14.783733083589633
-0.12570000000000014,-14.783733083589633
-0.12670000000000003,-14.783733083589633
-0.12770000000000015,-14.741291744593681
-0.12870000000000004,-14.741291744593681
-0.12970000000000015,-14.741291744593681
-0.13070000000000004,-14.741291744593681
-0.13170000000000015,-14.783733083589633
-0.13270000000000004,-14.783733083589633
-0.13370000000000015,-14.783733083589633
-0.13470000000000004,-14.783733083589633
-0.13570000000000015,-14.783733083589633
-0.13670000000000004,-14.783733083589633
-0.13770000000000016,-14.826174422585586
-0.13870000000000005,-14.868615761581536
-0.13970000000000016,-14.967645552572087
-0.14070000000000005,-14.967645552572087
-0.14170000000000016,-15.01008689156804
-0.14270000000000005,-15.01008689156804
-0.14370000000000016,-15.01008689156804
-0.14470000000000005,-15.01008689156804
-0.14570000000000016,-15.05252823056399
-0.14670000000000005,-15.05252823056399
-0.14770000000000016,-15.094969569559943
-0.14870000000000005,-15.05252823056399
-0.14970000000000017,-15.094969569559943
-0.15070000000000006,-15.137410908555893
-0.15170000000000017,-15.179852247551842
-0.15270000000000006,-15.264734925543747
-0.15370000000000017,-15.307176264539699
-0.15470000000000006,-15.264734925543747
-0.15570000000000017,-15.264734925543747
-0.15670000000000006,-15.222293586547794
-0.15770000000000017,-15.222293586547794
-0.15870000000000006,-15.179852247551842
-0.15970000000000018,-15.179852247551842
-0.16070000000000007,-15.137410908555893
-0.16170000000000018,-15.094969569559943
-0.16270000000000007,-15.137410908555893
-0.16370000000000018,-15.179852247551842
-0.16470000000000007,-15.264734925543747
-0.16570000000000018,-15.264734925543747
-0.16670000000000007,-15.307176264539699
-0.16770000000000018,-15.307176264539699
-0.16870000000000007,-15.307176264539699
-0.16970000000000018,-15.307176264539699
-0.17070000000000007,-15.349617603535648
-0.17170000000000019,-15.349617603535648
-0.17270000000000008,-15.349617603535648
-0.1737000000000002,-15.349617603535648
-0.17470000000000008,-15.307176264539699
-0.1757000000000002,-15.264734925543747
-0.17670000000000008,-15.179852247551842
-0.1777000000000002,-15.094969569559943
-0.17870000000000008,-15.01008689156804
-0.1797000000000002,-15.01008689156804
-0.18070000000000008,-15.05252823056399
-0.1817000000000002,-15.137410908555893
-0.18270000000000008,-15.222293586547794
-0.1837000000000002,-15.307176264539699
-0.1847000000000001,-15.349617603535648
-0.1857000000000002,-15.3920589425316
-0.1867000000000001,-15.3920589425316
-0.1877000000000002,-15.448647394526201
-0.1887000000000001,-15.3920589425316
-0.1897000000000002,-15.307176264539699
-0.1907000000000001,-15.264734925543747
-0.1917000000000001,-15.179852247551842
-0.19269999999999998,-15.137410908555893
-0.1937000000000001,-15.094969569559943
-0.19469999999999998,-15.094969569559943
-0.1957000000000001,-15.094969569559943
-0.19669999999999999,-15.137410908555893
-0.1977000000000001,-15.179852247551842
-0.1987,-15.264734925543747
-0.1997000000000001,-15.349617603535648
-0.2007,-15.3920589425316
-0.2017000000000001,-15.448647394526201
-0.2027,-15.491088733522153
-0.2037000000000001,-15.533530072518102
-0.2047,-15.491088733522153
-0.2057000000000001,-15.3920589425316
-0.2067,-15.3920589425316
-0.2077000000000001,-15.349617603535648
-0.2087,-15.349617603535648
-0.2097000000000001,-15.349617603535648
-0.2107,-15.349617603535648
-0.2117000000000001,-15.349617603535648
-0.2127,-15.3920589425316
-0.2137000000000001,-15.448647394526201
-0.2147,-15.491088733522153
-0.2157000000000001,-15.533530072518102
-0.2167,-15.575971411514052
-0.21770000000000012,-15.575971411514052
-0.2187,-15.618412750510005
-0.21970000000000012,-15.618412750510005
-0.2207,-15.660854089505953
-0.22170000000000012,-15.660854089505953
-0.2227,-15.618412750510005
-0.22370000000000012,-15.618412750510005
-0.2247,-15.575971411514052
-0.22570000000000012,-15.575971411514052
-0.2267,-15.575971411514052
-0.22770000000000012,-15.575971411514052
-0.22870000000000001,-15.575971411514052
-0.22970000000000013,-15.575971411514052
-0.23070000000000002,-15.575971411514052
-0.23170000000000013,-15.618412750510005
-0.23270000000000002,-15.70329542850191
-0.23370000000000013,-15.78817810649381
-0.23470000000000002,-15.830619445489761
-0.23570000000000013,-15.830619445489761
-0.23670000000000002,-15.830619445489761
-0.2376999999999999,-15.78817810649381
-0.23870000000000002,-15.78817810649381
-0.2396999999999999,-15.78817810649381
-0.24070000000000003,-15.830619445489761
-0.24169999999999991,-15.87306078448571
-0.24270000000000003,-15.91550212348166
-0.24369999999999992,-15.91550212348166
-0.24470000000000003,-15.91550212348166
-0.24569999999999992,-15.972090575476265
-0.24670000000000003,-16.014531914472215
-0.24769999999999992,-16.014531914472215
-0.24870000000000003,-16.014531914472215
-0.24969999999999992,-16.056973253468165
-0.25070000000000003,-16.099414592464115
-0.2516999999999999,-16.184297270456018
-0.25270000000000004,-16.22673860945197
-0.2536999999999999,-16.22673860945197
-0.25470000000000004,-16.269179948447924
-0.2556999999999999,-16.269179948447924
-0.25670000000000004,-16.22673860945197
-0.25769999999999993,-16.269179948447924
-0.25870000000000004,-16.311621287443874
-0.25969999999999993,-16.396503965435777
-0.26070000000000004,-16.438945304431726
-0.26169999999999993,-16.53797509542228
-0.26270000000000004,-16.53797509542228
-0.26369999999999993,-16.580416434418233
-0.26470000000000005,-16.580416434418233
-0.26569999999999994,-16.622857773414182
-0.26670000000000005,-16.70774045140608
-0.26769999999999994,-16.792623129397985
-0.26870000000000005,-16.835064468393938
-0.26969999999999994,-16.835064468393938
-0.27070000000000005,-16.877505807389888
-0.27169999999999994,-16.919947146385837
-0.27270000000000005,-16.962388485381787
-0.27369999999999994,-17.018976937376394
-0.27470000000000006,-17.061418276372343
-0.27569999999999995,-17.103859615368293
-0.27670000000000006,-17.188742293360193
-0.27769999999999995,-17.231183632356142
-0.27870000000000006,-17.2736249713521
-0.27969999999999995,-17.358507649344002
-0.28070000000000006,-17.40094898833995
-0.28169999999999995,-17.4433903273359
-0.28270000000000006,-17.542420118326454
-0.28369999999999995,-17.584861457322408
-0.28470000000000006,-17.627302796318357
-0.28569999999999995,-17.75462681330621
-0.28670000000000007,-17.839509491298113
-0.28769999999999996,-17.881950830294063
-0.28870000000000007,-18.009274847281915
-0.28969999999999996,-18.10830463827247
-0.29070000000000007,-18.19318731626437
-0.29169999999999996,-18.27806999425627
-0.29270000000000007,-18.362952672248177
-0.29369999999999996,-18.44783535024008
-0.2947000000000001,-18.49027668923603
-0.29569999999999996,-18.53271802823198
-0.2967000000000001,-18.674189158218486
-0.29769999999999996,-18.759071836210385
-0.2987000000000001,-18.843954514202288
-0.29969999999999997,-18.97127853119014
-0.3007000000000001,-19.155191000172596
-0.30169999999999997,-19.2400736781645
-0.3027000000000001,-19.367397695152352
-0.30369999999999997,-19.452280373144255
-0.3047000000000001,-19.537163051136158
-0.30569999999999997,-19.678634181122664
-0.3067000000000001,-19.805958198110513
-0.3077,-19.97572355409432
-0.3087000000000001,-20.06060623208622
-0.3097,-20.202077362072725
-0.3107000000000001,-20.329401379060574
-0.3117,-20.456725396048434
-0.3127000000000001,-20.584049413036283
-0.3137,-20.76796188201874
-0.3147000000000001,-20.89528589900659
-0.3157,-21.022609915994444
-0.3167000000000001,-21.149933932982297
-0.3177,-21.291405062968803
-0.3187000000000001,-21.418729079956652
-0.3197,-21.58849443594046
-0.3207000000000001,-21.729965565926964
-0.3217,-21.857289582914817
-0.3227000000000001,-21.98461359990267
-0.3237,-22.111937616890522
-0.3247000000000001,-22.295850085872978
-0.3257,-22.42317410286083
-0.3267000000000001,-22.592939458844636
-0.3277,-22.72026347583249
-0.3287000000000001,-22.904175944814945
-0.3297,-23.1163826397947
-0.3307000000000001,-23.300295108777156
-0.3317,-23.51250180375691
-0.3327000000000001,-23.682267159740714
-0.3337,-23.908620967719123
-0.3347000000000001,-24.120827662698876
-0.3357,-24.290593018682678
-0.3367000000000001,-24.516946826661083
-0.3377,-24.686712182644893
-0.3387000000000001,-24.870624651627345
-0.3397,-25.0828313466071
-0.3407000000000001,-25.252596702590903
-0.3417,-25.478950510569312
-0.3427000000000001,-25.648715866553115
-0.3437,-25.81848122253692
-0.3447000000000001,-26.002393691519377
-0.3457,-26.17215904750318
-0.3467000000000001,-26.38436574248293
-0.3477,-26.69560222845324
-0.3487000000000001,-26.9643973754276
-0.3497,-27.261486748399253
-0.3507000000000001,-27.572723234369565
-0.3517,-27.827371268345274
-0.3527000000000001,-28.09616641531963
-0.3537,-28.308373110299385
-0.3547000000000001,-28.53472691827779
-0.3557,-28.746933613257543
-0.35670000000000013,-29.001581647233255
-0.3577,-29.27037679420761
-0.35870000000000013,-29.525024828183312
-0.3597,-29.793819975157668
-0.36070000000000013,-30.10505646112798
-0.3617,-30.402145834099635
-0.3626999999999999,-30.71338232006995
-0.3637,-30.968030354045652
-0.3646999999999999,-31.23682550102001
-0.3657,-31.49147353499572
-0.3666999999999999,-31.802710020966025
-0.3677,-32.05735805494172
-0.3686999999999999,-32.32615320191609
-0.36970000000000003,-32.62324257488775
-0.3706999999999999,-32.84959638286615
-0.37170000000000003,-33.10424441684186
-0.3726999999999999,-33.41548090281216
-0.37370000000000003,-33.755011614779775
-0.3746999999999999,-34.193572117737936
-0.37570000000000003,-34.58969128170015
-0.3766999999999999,-34.94336910666641
-0.37770000000000004,-35.198017140642115
-0.3786999999999999,-35.50925362661242
-0.37970000000000004,-35.763901660588125
-0.3806999999999999,-36.16002082455034
-0.38170000000000004,-36.55613998851254
-0.38269999999999993,-36.95225915247476
-0.38370000000000004,-37.291789864442364
-0.38469999999999993,-37.60302635041268
-0.38570000000000004,-37.90011572338433
-0.38669999999999993,-38.211352209354644
-0.38770000000000004,-38.5650300343209
-0.38869999999999993,-38.90456074628851
-0.38970000000000005,-39.30067991025072
-0.39069999999999994,-39.696799074212926
-0.39170000000000005,-40.03632978618054
-0.39269999999999994,-40.43244895014274
-0.39370000000000005,-40.78612677510901
-0.39469999999999994,-41.182245939071215
-0.39570000000000005,-41.56421799003478
-0.39669999999999994,-41.96033715399699
-0.39770000000000005,-42.31401497896325
-0.39869999999999994,-42.71013414292546
-0.39970000000000006,-43.09210619388902
-0.40069999999999995,-43.53066669684718
-0.40170000000000006,-43.92678586080939
-0.40269999999999995,-44.36534636376755
-0.40370000000000006,-44.74731841473111
-0.40469999999999995,-45.18587891768927
-0.40570000000000006,-45.581998081651484
-0.40669999999999995,-45.97811724561369
-0.40770000000000006,-46.3176479575813
-0.40869999999999995,-46.713767121543505
-0.40970000000000006,-47.15232762450167
-0.41069999999999995,-47.633329466455784
-0.41170000000000007,-48.071889969413945
-0.41269999999999996,-48.55289181136806
-0.41370000000000007,-48.97730520132757
-0.41469999999999996,-49.41586570428573
-0.41570000000000007,-49.81198486824794
-0.41669999999999996,-50.20810403221015
-0.41770000000000007,-50.64666453516831
-0.41869999999999996,-51.127666377122424
-0.4197000000000001,-51.594521106077885
-0.42069999999999996,-52.11796428702795
-0.4217000000000001,-52.59896612898206
-0.42269999999999996,-53.03752663194023
-0.4237000000000001,-53.433645795902436
-0.42469999999999997,-53.82976495986464
-0.4257000000000001,-54.2117370108282
-0.42669999999999997,-54.69273885278232
-0.4277000000000001,-55.17374069473642
-0.42869999999999997,-55.7820665536784
-0.4297000000000001,-56.404539525619015
-0.43069999999999997,-56.97042404556503
-0.4317000000000001,-57.45142588751914
-0.4327,-57.87583927747865
-0.4337000000000001,-58.35684111943277
-0.4347,-58.79540162239092
-0.4357000000000001,-59.31884480334099
-0.4367,-59.7998466452951
-0.4377000000000001,-60.32328982624517
-0.4387,-60.761850329203334
-0.4397000000000001,-61.242852171157445
-0.4407,-61.7662953521075
-0.4417000000000001,-62.33217987205352
-0.4427,-62.98294706999144
-0.4437000000000001,-63.59127292893339
-0.4447,-64.02983343189156
-0.4457000000000001,-64.42595259585376
-0.4467,-64.82207175981598
-0.4477000000000001,-65.20404381077954
-0.4487,-65.82651678272015
-0.4497000000000001,-66.68949067563783
-0.4507,-67.43928766456631
-0.4517000000000001,-68.0900548625042
-0.4527,-68.61349804345427
-0.4537000000000001,-69.0944998854084
-0.4547,-69.61794306635846
-0.4557000000000001,-70.14138624730852
-0.4567,-70.62238808926263
-0.4577000000000001,-71.1458312702127
-0.4587,-71.52780332117625
-0.4597000000000001,-72.00880516313036
-0.4607,-72.53224834408043
-0.4617000000000001,-73.01325018603454
-0.4627,-73.53669336698461
-0.4637000000000001,-74.14501922592657
-0.4647,-74.80993353686314
-0.4657000000000001,-75.46070073480107
-0.4667,-76.11146793273898
-0.4677000000000001,-76.81882358267148
-0.4687,-77.51203211960537
-0.4697000000000001,-78.16279931754329
-0.4707,-78.85600785447714
-0.4717000000000001,-79.47848082641775
-0.4727,-80.04436534636378
-0.4737000000000001,-80.56780852731384
-0.4747,-81.09125170826391
-0.4757000000000001,-81.61469488921396
-0.4767,-82.13813807016405
-0.4777000000000001,-82.6615812511141
-0.4787,-83.04355330207765
-0.4797000000000001,-83.31234844905201
-0.4807,-83.56699648302772
-0.48170000000000013,-84.00555698598588
-0.4827,-84.57144150593189
-0.48370000000000013,-85.27879715586442
-0.4847,-86.01444703179425
-0.48570000000000013,-86.80668535971866
-0.4867,-86.75009690772404
-0.48570000000000013,-85.44856251184822
-0.4847,-84.31679347195619
-0.48370000000000013,-83.31234844905201
-0.4827,-82.43522744313569
-0.48170000000000013,-81.65713622820991
-0.4807,-80.90733923928146
-0.4797000000000001,-80.12924802435568
-0.4787,-79.20968567944341
-0.4777000000000001,-78.29012333453113
-0.4767,-77.38470810261751
-0.4757000000000001,-76.5924697746931
-0.4747,-75.81437855976732
-0.4737000000000001,-75.1070229098348
-0.4727,-74.37137303390499
-0.4717000000000001,-73.6781644969711
-0.4707,-72.97080884703858
-0.4697000000000001,-72.19271763211282
-0.4687,-71.4004793041884
-0.4677000000000001,-70.57994675026669
-0.4667,-69.8301497613382
-0.4657000000000001,-69.1793825634003
