May 4, 2025   14:16:13
Linear Sweep Voltammetry
File: c:/users/guazh/data/banditlqround7_x0exp1108_r5/2025-04-30-exp1238\regeneratedgce-2025-05-04t14_13_09-lsvinkoh\regeneratedgce_lsv_50mvs_efin_-1700mv.bin
Data Source:  Experiment
Instrument Model:  CHI760E
Header: LSV ran at 50 mVs with Efin at -1700mV
Note: 

Init E (V) = -0.6
Final E (V) = -1.7
Scan Rate (V/s) = 0.05
Sample Interval (V) = 0.001
Quiet Time (sec) = 2
Sensitivity (A/V) = 1e-4
Comp R (ohm) = 1.2

Results:

Channel 1:
Ep = -1.252V
ip = 3.631e-4A
Ah = 4.150e-4C

Potential/V, Current/A

-0.600, -2.815e-6
-0.601, -2.421e-6
-0.602, -2.137e-6
-0.603, -1.905e-6
-0.604, -1.680e-6
-0.605, -1.469e-6
-0.606, -1.257e-6
-0.607, -1.073e-6
-0.608, -8.886e-7
-0.609, -7.021e-7
-0.610, -5.208e-7
-0.611, -3.355e-7
-0.612, -1.648e-7
-0.613, -3.277e-8
-0.614, 1.340e-7
-0.615, 2.973e-7
-0.616, 4.334e-7
-0.617, 5.867e-7
-0.618, 7.159e-7
-0.619, 8.385e-7
-0.620, 9.741e-7
-0.621, 1.102e-6
-0.622, 1.243e-6
-0.623, 1.364e-6
-0.624, 1.491e-6
-0.625, 1.614e-6
-0.626, 1.736e-6
-0.627, 1.861e-6
-0.628, 1.977e-6
-0.629, 2.086e-6
-0.630, 2.219e-6
-0.631, 2.345e-6
-0.632, 2.422e-6
-0.633, 2.532e-6
-0.634, 2.638e-6
-0.635, 2.774e-6
-0.636, 2.915e-6
-0.637, 3.019e-6
-0.638, 3.122e-6
-0.639, 3.226e-6
-0.640, 3.334e-6
-0.641, 3.450e-6
-0.642, 3.574e-6
-0.643, 3.701e-6
-0.644, 3.843e-6
-0.645, 3.940e-6
-0.646, 4.039e-6
-0.647, 4.148e-6
-0.648, 4.300e-6
-0.649, 4.390e-6
-0.650, 4.482e-6
-0.651, 4.608e-6
-0.652, 4.745e-6
-0.653, 4.867e-6
-0.654, 4.971e-6
-0.655, 5.088e-6
-0.656, 5.162e-6
-0.657, 5.341e-6
-0.658, 5.432e-6
-0.659, 5.482e-6
-0.660, 5.705e-6
-0.661, 5.866e-6
-0.662, 6.004e-6
-0.663, 6.135e-6
-0.664, 6.297e-6
-0.665, 6.398e-6
-0.666, 6.505e-6
-0.667, 6.626e-6
-0.668, 6.738e-6
-0.669, 6.877e-6
-0.670, 6.961e-6
-0.671, 7.140e-6
-0.672, 7.326e-6
-0.673, 7.495e-6
-0.674, 7.500e-6
-0.675, 7.643e-6
-0.676, 7.773e-6
-0.677, 7.995e-6
-0.678, 8.090e-6
-0.679, 8.314e-6
-0.680, 8.300e-6
-0.681, 8.391e-6
-0.682, 8.639e-6
-0.683, 8.786e-6
-0.684, 8.973e-6
-0.685, 9.085e-6
-0.686, 9.189e-6
-0.687, 9.348e-6
-0.688, 9.472e-6
-0.689, 9.644e-6
-0.690, 9.737e-6
-0.691, 9.840e-6
-0.692, 9.948e-6
-0.693, 1.008e-5
-0.694, 1.029e-5
-0.695, 1.047e-5
-0.696, 1.056e-5
-0.697, 1.081e-5
-0.698, 1.104e-5
-0.699, 1.123e-5
-0.700, 1.132e-5
-0.701, 1.145e-5
-0.702, 1.170e-5
-0.703, 1.166e-5
-0.704, 1.179e-5
-0.705, 1.194e-5
-0.706, 1.211e-5
-0.707, 1.217e-5
-0.708, 1.231e-5
-0.709, 1.248e-5
-0.710, 1.264e-5
-0.711, 1.271e-5
-0.712, 1.295e-5
-0.713, 1.328e-5
-0.714, 1.353e-5
-0.715, 1.363e-5
-0.716, 1.367e-5
-0.717, 1.377e-5
-0.718, 1.388e-5
-0.719, 1.442e-5
-0.720, 1.484e-5
-0.721, 1.475e-5
-0.722, 1.468e-5
-0.723, 1.485e-5
-0.724, 1.505e-5
-0.725, 1.537e-5
-0.726, 1.578e-5
-0.727, 1.581e-5
-0.728, 1.606e-5
-0.729, 1.642e-5
-0.730, 1.631e-5
-0.731, 1.636e-5
-0.732, 1.653e-5
-0.733, 1.652e-5
-0.734, 1.664e-5
-0.735, 1.670e-5
-0.736, 1.672e-5
-0.737, 1.677e-5
-0.738, 1.681e-5
-0.739, 1.679e-5
-0.740, 1.714e-5
-0.741, 1.727e-5
-0.742, 1.730e-5
-0.743, 1.734e-5
-0.744, 1.778e-5
-0.745, 1.788e-5
-0.746, 1.811e-5
-0.747, 1.852e-5
-0.748, 1.874e-5
-0.749, 1.868e-5
-0.750, 1.902e-5
-0.751, 1.949e-5
-0.752, 1.964e-5
-0.753, 1.990e-5
-0.754, 2.036e-5
-0.755, 2.067e-5
-0.756, 2.087e-5
-0.757, 2.074e-5
-0.758, 2.074e-5
-0.759, 2.090e-5
-0.760, 2.094e-5
-0.761, 2.108e-5
-0.762, 2.107e-5
-0.763, 2.129e-5
-0.764, 2.169e-5
-0.765, 2.217e-5
-0.766, 2.205e-5
-0.767, 2.210e-5
-0.768, 2.247e-5
-0.769, 2.271e-5
-0.770, 2.283e-5
-0.771, 2.292e-5
-0.772, 2.311e-5
-0.773, 2.352e-5
-0.774, 2.351e-5
-0.775, 2.333e-5
-0.776, 2.325e-5
-0.777, 2.324e-5
-0.778, 2.343e-5
-0.779, 2.377e-5
-0.780, 2.437e-5
-0.781, 2.420e-5
-0.782, 2.448e-5
-0.783, 2.457e-5
-0.784, 2.451e-5
-0.785, 2.480e-5
-0.786, 2.523e-5
-0.787, 2.562e-5
-0.788, 2.559e-5
-0.789, 2.576e-5
-0.790, 2.631e-5
-0.791, 2.715e-5
-0.792, 2.765e-5
-0.793, 2.786e-5
-0.794, 2.807e-5
-0.795, 2.791e-5
-0.796, 2.790e-5
-0.797, 2.809e-5
-0.798, 2.812e-5
-0.799, 2.850e-5
-0.800, 2.886e-5
-0.801, 2.851e-5
-0.802, 2.872e-5
-0.803, 2.964e-5
-0.804, 2.976e-5
-0.805, 2.965e-5
-0.806, 3.008e-5
-0.807, 3.007e-5
-0.808, 2.978e-5
-0.809, 3.027e-5
-0.810, 3.088e-5
-0.811, 3.088e-5
-0.812, 3.068e-5
-0.813, 3.139e-5
-0.814, 3.137e-5
-0.815, 3.136e-5
-0.816, 3.177e-5
-0.817, 3.182e-5
-0.818, 3.162e-5
-0.819, 3.172e-5
-0.820, 3.137e-5
-0.821, 3.124e-5
-0.822, 3.144e-5
-0.823, 3.135e-5
-0.824, 3.160e-5
-0.825, 3.172e-5
-0.826, 3.181e-5
-0.827, 3.204e-5
-0.828, 3.241e-5
-0.829, 3.278e-5
-0.830, 3.363e-5
-0.831, 3.447e-5
-0.832, 3.481e-5
-0.833, 3.519e-5
-0.834, 3.550e-5
-0.835, 3.535e-5
-0.836, 3.454e-5
-0.837, 3.422e-5
-0.838, 3.429e-5
-0.839, 3.483e-5
-0.840, 3.496e-5
-0.841, 3.499e-5
-0.842, 3.531e-5
-0.843, 3.536e-5
-0.844, 3.588e-5
-0.845, 3.678e-5
-0.846, 3.718e-5
-0.847, 3.785e-5
-0.848, 3.836e-5
-0.849, 3.857e-5
-0.850, 3.862e-5
-0.851, 3.859e-5
-0.852, 3.815e-5
-0.853, 3.826e-5
-0.854, 3.872e-5
-0.855, 3.897e-5
-0.856, 3.905e-5
-0.857, 3.906e-5
-0.858, 3.868e-5
-0.859, 3.893e-5
-0.860, 3.941e-5
-0.861, 3.957e-5
-0.862, 4.038e-5
-0.863, 4.071e-5
-0.864, 4.075e-5
-0.865, 4.044e-5
-0.866, 4.115e-5
-0.867, 4.157e-5
-0.868, 4.201e-5
-0.869, 4.223e-5
-0.870, 4.236e-5
-0.871, 4.208e-5
-0.872, 4.249e-5
-0.873, 4.299e-5
-0.874, 4.263e-5
-0.875, 4.296e-5
-0.876, 4.387e-5
-0.877, 4.457e-5
-0.878, 4.553e-5
-0.879, 4.642e-5
-0.880, 4.641e-5
-0.881, 4.647e-5
-0.882, 4.667e-5
-0.883, 4.700e-5
-0.884, 4.696e-5
-0.885, 4.724e-5
-0.886, 4.727e-5
-0.887, 4.733e-5
-0.888, 4.822e-5
-0.889, 5.283e-5
-0.890, 5.451e-5
-0.891, 5.447e-5
-0.892, 5.457e-5
-0.893, 5.544e-5
-0.894, 5.594e-5
-0.895, 5.618e-5
-0.896, 5.702e-5
-0.897, 5.751e-5
-0.898, 5.832e-5
-0.899, 5.882e-5
-0.900, 6.052e-5
-0.901, 6.177e-5
-0.902, 6.218e-5
-0.903, 6.266e-5
-0.904, 6.374e-5
-0.905, 6.856e-5
-0.906, 6.975e-5
-0.907, 6.936e-5
-0.908, 6.911e-5
-0.909, 6.883e-5
-0.910, 6.907e-5
-0.911, 6.953e-5
-0.912, 7.021e-5
-0.913, 7.070e-5
-0.914, 7.092e-5
-0.915, 7.065e-5
-0.916, 7.180e-5
-0.917, 7.460e-5
-0.918, 7.606e-5
-0.919, 7.626e-5
-0.920, 7.633e-5
-0.921, 7.709e-5
-0.922, 7.789e-5
-0.923, 7.781e-5
-0.924, 7.860e-5
-0.925, 7.943e-5
-0.926, 7.866e-5
-0.927, 7.811e-5
-0.928, 8.418e-5
-0.929, 8.948e-5
-0.930, 9.016e-5
-0.931, 9.107e-5
-0.932, 9.154e-5
-0.933, 9.200e-5
-0.934, 9.267e-5
-0.935, 9.435e-5
-0.936, 9.744e-5
-0.937, 9.866e-5
-0.938, 9.903e-5
-0.939, 1.020e-4
-0.940, 1.012e-4
-0.941, 1.004e-4
-0.942, 1.028e-4
-0.943, 1.049e-4
-0.944, 1.071e-4
-0.945, 1.072e-4
-0.946, 1.088e-4
-0.947, 1.108e-4
-0.948, 1.112e-4
-0.949, 1.122e-4
-0.950, 1.112e-4
-0.951, 1.117e-4
-0.952, 1.126e-4
-0.953, 1.134e-4
-0.954, 1.145e-4
-0.955, 1.148e-4
-0.956, 1.149e-4
-0.957, 1.160e-4
-0.958, 1.172e-4
-0.959, 1.170e-4
-0.960, 1.199e-4
-0.961, 1.232e-4
-0.962, 1.250e-4
-0.963, 1.266e-4
-0.964, 1.290e-4
-0.965, 1.310e-4
-0.966, 1.325e-4
-0.967, 1.352e-4
-0.968, 1.360e-4
-0.969, 1.376e-4
-0.970, 1.436e-4
-0.971, 1.463e-4
-0.972, 1.456e-4
-0.973, 1.462e-4
-0.974, 1.471e-4
-0.975, 1.485e-4
-0.976, 1.523e-4
-0.977, 1.549e-4
-0.978, 1.562e-4
-0.979, 1.581e-4
-0.980, 1.605e-4
-0.981, 1.613e-4
-0.982, 1.631e-4
-0.983, 1.654e-4
-0.984, 1.663e-4
-0.985, 1.666e-4
-0.986, 1.676e-4
-0.987, 1.705e-4
-0.988, 1.730e-4
-0.989, 1.735e-4
-0.990, 1.750e-4
-0.991, 1.751e-4
-0.992, 1.796e-4
-0.993, 1.833e-4
-0.994, 1.921e-4
-0.995, 1.975e-4
-0.996, 1.990e-4
-0.997, 2.012e-4
-0.998, 2.011e-4
-0.999, 2.014e-4
-1.000, 2.029e-4
-1.001, 2.053e-4
-1.002, 2.097e-4
-1.003, 2.157e-4
-1.004, 2.196e-4
-1.005, 2.203e-4
-1.006, 2.241e-4
-1.007, 2.280e-4
-1.008, 2.277e-4
-1.009, 2.309e-4
-1.010, 2.347e-4
-1.011, 2.346e-4
-1.012, 2.345e-4
-1.013, 2.378e-4
-1.014, 2.427e-4
-1.015, 2.455e-4
-1.016, 2.474e-4
-1.017, 2.491e-4
-1.018, 2.509e-4
-1.019, 2.572e-4
-1.020, 2.601e-4
-1.021, 2.607e-4
-1.022, 2.622e-4
-1.023, 2.672e-4
-1.024, 2.715e-4
-1.025, 2.731e-4
-1.026, 2.741e-4
-1.027, 2.762e-4
-1.028, 2.775e-4
-1.029, 2.891e-4
-1.030, 2.928e-4
-1.031, 2.967e-4
-1.032, 3.019e-4
-1.033, 3.013e-4
-1.034, 3.031e-4
-1.035, 3.060e-4
-1.036, 3.068e-4
-1.037, 3.073e-4
-1.038, 3.071e-4
-1.039, 3.085e-4
-1.040, 3.114e-4
-1.041, 3.165e-4
-1.042, 3.278e-4
-1.043, 3.323e-4
-1.044, 3.330e-4
-1.045, 3.345e-4
-1.046, 3.346e-4
-1.047, 3.322e-4
-1.048, 3.310e-4
-1.049, 3.324e-4
-1.050, 3.347e-4
-1.051, 3.372e-4
-1.052, 3.405e-4
-1.053, 3.412e-4
-1.054, 3.436e-4
-1.055, 3.450e-4
-1.056, 3.446e-4
-1.057, 3.432e-4
-1.058, 3.454e-4
-1.059, 3.472e-4
-1.060, 3.489e-4
-1.061, 3.525e-4
-1.062, 3.554e-4
-1.063, 3.587e-4
-1.064, 3.696e-4
-1.065, 3.696e-4
-1.066, 3.711e-4
-1.067, 3.753e-4
-1.068, 3.708e-4
-1.069, 3.711e-4
-1.070, 3.728e-4
-1.071, 3.754e-4
-1.072, 3.749e-4
-1.073, 3.726e-4
-1.074, 3.738e-4
-1.075, 3.754e-4
-1.076, 3.751e-4
-1.077, 3.774e-4
-1.078, 3.783e-4
-1.079, 3.774e-4
-1.080, 3.831e-4
-1.081, 3.890e-4
-1.082, 3.887e-4
-1.083, 3.897e-4
-1.084, 3.942e-4
-1.085, 4.019e-4
-1.086, 4.049e-4
-1.087, 4.040e-4
-1.088, 4.061e-4
-1.089, 4.075e-4
-1.090, 4.076e-4
-1.091, 4.102e-4
-1.092, 4.139e-4
-1.093, 4.173e-4
-1.094, 4.207e-4
-1.095, 4.213e-4
-1.096, 4.199e-4
-1.097, 4.191e-4
-1.098, 4.221e-4
-1.099, 4.256e-4
-1.100, 4.260e-4
-1.101, 4.222e-4
-1.102, 4.219e-4
-1.103, 4.247e-4
-1.104, 4.301e-4
-1.105, 4.340e-4
-1.106, 4.403e-4
-1.107, 4.423e-4
-1.108, 4.442e-4
-1.109, 4.455e-4
-1.110, 4.465e-4
-1.111, 4.489e-4
-1.112, 4.501e-4
-1.113, 4.554e-4
-1.114, 4.570e-4
-1.115, 4.618e-4
-1.116, 4.636e-4
-1.117, 4.661e-4
-1.118, 4.694e-4
-1.119, 4.707e-4
-1.120, 4.707e-4
-1.121, 4.720e-4
-1.122, 4.729e-4
-1.123, 4.724e-4
-1.124, 4.746e-4
-1.125, 4.810e-4
-1.126, 4.871e-4
-1.127, 4.950e-4
-1.128, 5.012e-4
-1.129, 5.027e-4
-1.130, 5.087e-4
-1.131, 5.156e-4
-1.132, 5.189e-4
-1.133, 5.214e-4
-1.134, 5.211e-4
-1.135, 5.236e-4
-1.136, 5.253e-4
-1.137, 5.288e-4
-1.138, 5.272e-4
-1.139, 5.253e-4
-1.140, 5.302e-4
-1.141, 5.342e-4
-1.142, 5.417e-4
-1.143, 5.450e-4
-1.144, 5.472e-4
-1.145, 5.493e-4
-1.146, 5.521e-4
-1.147, 5.572e-4
-1.148, 5.545e-4
-1.149, 5.514e-4
-1.150, 5.564e-4
-1.151, 5.589e-4
-1.152, 5.615e-4
-1.153, 5.667e-4
-1.154, 5.724e-4
-1.155, 5.775e-4
-1.156, 5.792e-4
-1.157, 5.815e-4
-1.158, 5.885e-4
-1.159, 5.926e-4
-1.160, 5.949e-4
-1.161, 5.996e-4
-1.162, 6.011e-4
-1.163, 6.008e-4
-1.164, 6.036e-4
-1.165, 6.094e-4
-1.166, 6.147e-4
-1.167, 6.199e-4
-1.168, 6.309e-4
-1.169, 6.345e-4
-1.170, 6.352e-4
-1.171, 6.396e-4
-1.172, 6.483e-4
-1.173, 6.499e-4
-1.174, 6.507e-4
-1.175, 6.495e-4
-1.176, 6.592e-4
-1.177, 6.627e-4
-1.178, 6.627e-4
-1.179, 6.631e-4
-1.180, 6.650e-4
-1.181, 6.659e-4
-1.182, 6.665e-4
-1.183, 6.677e-4
-1.184, 6.686e-4
-1.185, 6.744e-4
-1.186, 6.771e-4
-1.187, 6.744e-4
-1.188, 6.762e-4
-1.189, 6.797e-4
-1.190, 6.823e-4
-1.191, 6.819e-4
-1.192, 6.895e-4
-1.193, 6.989e-4
-1.194, 7.051e-4
-1.195, 7.110e-4
-1.196, 7.226e-4
-1.197, 7.278e-4
-1.198, 7.308e-4
-1.199, 7.357e-4
-1.200, 7.405e-4
-1.201, 7.453e-4
-1.202, 7.553e-4
-1.203, 7.563e-4
-1.204, 7.576e-4
-1.205, 7.605e-4
-1.206, 7.600e-4
-1.207, 7.633e-4
-1.208, 7.646e-4
-1.209, 7.647e-4
-1.210, 7.709e-4
-1.211, 7.730e-4
-1.212, 7.731e-4
-1.213, 7.738e-4
-1.214, 7.773e-4
-1.215, 7.853e-4
-1.216, 7.908e-4
-1.217, 7.966e-4
-1.218, 8.010e-4
-1.219, 8.067e-4
-1.220, 8.066e-4
-1.221, 8.060e-4
-1.222, 8.080e-4
-1.223, 8.117e-4
-1.224, 8.164e-4
-1.225, 8.252e-4
-1.226, 8.324e-4
-1.227, 8.374e-4
-1.228, 8.431e-4
-1.229, 8.456e-4
-1.230, 8.513e-4
-1.231, 8.528e-4
-1.232, 8.582e-4
-1.233, 8.653e-4
-1.234, 8.727e-4
-1.235, 8.800e-4
-1.236, 8.841e-4
-1.237, 8.873e-4
-1.238, 8.907e-4
-1.239, 8.950e-4
-1.240, 8.974e-4
-1.241, 9.199e-4
-1.242, 9.395e-4
-1.243, 9.461e-4
-1.244, 9.541e-4
-1.245, 9.657e-4
-1.246, 9.770e-4
-1.247, 9.849e-4
-1.248, 9.900e-4
-1.249, 9.944e-4
-1.250, 1.003e-3
-1.251, 1.011e-3
-1.252, 1.011e-3
-1.253, 1.011e-3
-1.254, 1.011e-3
-1.255, 1.011e-3
-1.256, 1.011e-3
-1.257, 1.011e-3
-1.258, 1.011e-3
-1.259, 1.011e-3
-1.260, 1.011e-3
-1.261, 1.011e-3
-1.262, 1.011e-3
-1.263, 1.011e-3
-1.264, 1.011e-3
-1.265, 1.011e-3
-1.266, 1.011e-3
-1.267, 1.011e-3
-1.268, 1.011e-3
-1.269, 1.011e-3
-1.270, 1.011e-3
-1.271, 1.011e-3
-1.272, 1.011e-3
-1.273, 1.011e-3
-1.274, 1.011e-3
-1.275, 1.011e-3
-1.276, 1.011e-3
-1.277, 1.011e-3
-1.278, 1.011e-3
-1.279, 1.011e-3
-1.280, 1.011e-3
-1.281, 1.011e-3
-1.282, 1.011e-3
-1.283, 1.011e-3
-1.284, 1.011e-3
-1.285, 1.011e-3
-1.286, 1.011e-3
-1.287, 1.011e-3
-1.288, 1.011e-3
-1.289, 1.011e-3
-1.290, 1.011e-3
-1.291, 1.011e-3
-1.292, 1.011e-3
-1.293, 1.011e-3
-1.294, 1.011e-3
-1.295, 1.011e-3
-1.296, 1.011e-3
-1.297, 1.011e-3
-1.298, 1.011e-3
-1.299, 1.011e-3
-1.300, 1.011e-3
-1.301, 1.011e-3
-1.302, 1.011e-3
-1.303, 1.011e-3
-1.304, 1.011e-3
-1.305, 1.011e-3
-1.306, 1.011e-3
-1.307, 1.011e-3
-1.308, 1.011e-3
-1.309, 1.011e-3
-1.310, 1.011e-3
-1.311, 1.011e-3
-1.312, 1.011e-3
-1.313, 1.011e-3
-1.314, 1.011e-3
-1.315, 1.011e-3
-1.316, 1.011e-3
-1.317, 1.011e-3
-1.318, 1.011e-3
-1.319, 1.011e-3
-1.320, 1.011e-3
-1.321, 1.011e-3
-1.322, 1.011e-3
-1.323, 1.011e-3
-1.324, 1.011e-3
-1.325, 1.011e-3
-1.326, 1.011e-3
-1.327, 1.011e-3
-1.328, 1.011e-3
-1.329, 1.011e-3
-1.330, 1.011e-3
-1.331, 1.011e-3
-1.332, 1.011e-3
-1.333, 1.011e-3
-1.334, 1.011e-3
-1.335, 1.011e-3
-1.336, 1.011e-3
-1.337, 1.011e-3
-1.338, 1.011e-3
-1.339, 1.011e-3
-1.340, 1.011e-3
-1.341, 1.011e-3
-1.342, 1.011e-3
-1.343, 1.011e-3
-1.344, 1.011e-3
-1.345, 1.011e-3
-1.346, 1.011e-3
-1.347, 1.011e-3
-1.348, 1.011e-3
-1.349, 1.011e-3
-1.350, 1.011e-3
-1.351, 1.011e-3
-1.352, 1.011e-3
-1.353, 1.011e-3
-1.354, 1.011e-3
-1.355, 1.011e-3
-1.356, 1.011e-3
-1.357, 1.011e-3
-1.358, 1.011e-3
-1.359, 1.011e-3
-1.360, 1.011e-3
-1.361, 1.011e-3
-1.362, 1.011e-3
-1.363, 1.011e-3
-1.364, 1.011e-3
-1.365, 1.011e-3
-1.366, 1.011e-3
-1.367, 1.011e-3
-1.368, 1.011e-3
-1.369, 1.011e-3
-1.370, 1.011e-3
-1.371, 1.011e-3
-1.372, 1.011e-3
-1.373, 1.011e-3
-1.374, 1.011e-3
-1.375, 1.011e-3
-1.376, 1.011e-3
-1.377, 1.011e-3
-1.378, 1.011e-3
-1.379, 1.011e-3
-1.380, 1.011e-3
-1.381, 1.011e-3
-1.382, 1.011e-3
-1.383, 1.011e-3
-1.384, 1.011e-3
-1.385, 1.011e-3
-1.386, 1.011e-3
-1.387, 1.011e-3
-1.388, 1.011e-3
-1.389, 1.011e-3
-1.390, 1.011e-3
-1.391, 1.011e-3
-1.392, 1.011e-3
-1.393, 1.011e-3
-1.394, 1.011e-3
-1.395, 1.011e-3
-1.396, 1.011e-3
-1.397, 1.011e-3
-1.398, 1.011e-3
-1.399, 1.011e-3
-1.400, 1.011e-3
-1.401, 1.011e-3
-1.402, 1.011e-3
-1.403, 1.011e-3
-1.404, 1.011e-3
-1.405, 1.011e-3
-1.406, 1.011e-3
-1.407, 1.011e-3
-1.408, 1.011e-3
-1.409, 1.011e-3
-1.410, 1.011e-3
-1.411, 1.011e-3
-1.412, 1.011e-3
-1.413, 1.011e-3
-1.414, 1.011e-3
-1.415, 1.011e-3
-1.416, 1.011e-3
-1.417, 1.011e-3
-1.418, 1.011e-3
-1.419, 1.011e-3
-1.420, 1.011e-3
-1.421, 1.011e-3
-1.422, 1.011e-3
-1.423, 1.011e-3
-1.424, 1.011e-3
-1.425, 1.011e-3
-1.426, 1.011e-3
-1.427, 1.011e-3
-1.428, 1.011e-3
-1.429, 1.011e-3
-1.430, 1.011e-3
-1.431, 1.011e-3
-1.432, 1.011e-3
-1.433, 1.011e-3
-1.434, 1.011e-3
-1.435, 1.011e-3
-1.436, 1.011e-3
-1.437, 1.011e-3
-1.438, 1.011e-3
-1.439, 1.011e-3
-1.440, 1.011e-3
-1.441, 1.011e-3
-1.442, 1.011e-3
-1.443, 1.011e-3
-1.444, 1.011e-3
-1.445, 1.011e-3
-1.446, 1.011e-3
-1.447, 1.011e-3
-1.448, 1.011e-3
-1.449, 1.011e-3
-1.450, 1.011e-3
-1.451, 1.011e-3
-1.452, 1.011e-3
-1.453, 1.011e-3
-1.454, 1.011e-3
-1.455, 1.011e-3
-1.456, 1.011e-3
-1.457, 1.011e-3
-1.458, 1.011e-3
-1.459, 1.011e-3
-1.460, 1.011e-3
-1.461, 1.011e-3
-1.462, 1.011e-3
-1.463, 1.011e-3
-1.464, 1.011e-3
-1.465, 1.011e-3
-1.466, 1.011e-3
-1.467, 1.011e-3
-1.468, 1.011e-3
-1.469, 1.011e-3
-1.470, 1.011e-3
-1.471, 1.011e-3
-1.472, 1.011e-3
-1.473, 1.011e-3
-1.474, 1.011e-3
-1.475, 1.011e-3
-1.476, 1.011e-3
-1.477, 1.011e-3
-1.478, 1.011e-3
-1.479, 1.011e-3
-1.480, 1.011e-3
-1.481, 1.011e-3
-1.482, 1.011e-3
-1.483, 1.011e-3
-1.484, 1.011e-3
-1.485, 1.011e-3
-1.486, 1.011e-3
-1.487, 1.011e-3
-1.488, 1.011e-3
-1.489, 1.011e-3
-1.490, 1.011e-3
-1.491, 1.011e-3
-1.492, 1.011e-3
-1.493, 1.011e-3
-1.494, 1.011e-3
-1.495, 1.011e-3
-1.496, 1.011e-3
-1.497, 1.011e-3
-1.498, 1.011e-3
-1.499, 1.011e-3
-1.500, 1.011e-3
-1.501, 1.011e-3
-1.502, 1.011e-3
-1.503, 1.011e-3
-1.504, 1.011e-3
-1.505, 1.011e-3
-1.506, 1.011e-3
-1.507, 1.011e-3
-1.508, 1.011e-3
-1.509, 1.011e-3
-1.510, 1.011e-3
-1.511, 1.011e-3
-1.512, 1.011e-3
-1.513, 1.011e-3
-1.514, 1.011e-3
-1.515, 1.011e-3
-1.516, 1.011e-3
-1.517, 1.011e-3
-1.518, 1.011e-3
-1.519, 1.011e-3
-1.520, 1.011e-3
-1.521, 1.011e-3
-1.522, 1.011e-3
-1.523, 1.011e-3
-1.524, 1.011e-3
-1.525, 1.011e-3
-1.526, 1.011e-3
-1.527, 1.011e-3
-1.528, 1.011e-3
-1.529, 1.011e-3
-1.530, 1.011e-3
-1.531, 1.011e-3
-1.532, 1.011e-3
-1.533, 1.011e-3
-1.534, 1.011e-3
-1.535, 1.011e-3
-1.536, 1.011e-3
-1.537, 1.011e-3
-1.538, 1.011e-3
-1.539, 1.011e-3
-1.540, 1.011e-3
-1.541, 1.011e-3
-1.542, 1.011e-3
-1.543, 1.011e-3
-1.544, 1.011e-3
-1.545, 1.011e-3
-1.546, 1.011e-3
-1.547, 1.011e-3
-1.548, 1.011e-3
-1.549, 1.011e-3
-1.550, 1.011e-3
-1.551, 1.011e-3
-1.552, 1.011e-3
-1.553, 1.011e-3
-1.554, 1.011e-3
-1.555, 1.011e-3
-1.556, 1.011e-3
-1.557, 1.011e-3
-1.558, 1.011e-3
-1.559, 1.011e-3
-1.560, 1.011e-3
-1.561, 1.011e-3
-1.562, 1.011e-3
-1.563, 1.011e-3
-1.564, 1.011e-3
-1.565, 1.011e-3
-1.566, 1.011e-3
-1.567, 1.011e-3
-1.568, 1.011e-3
-1.569, 1.011e-3
-1.570, 1.011e-3
-1.571, 1.011e-3
-1.572, 1.011e-3
-1.573, 1.011e-3
-1.574, 1.011e-3
-1.575, 1.011e-3
-1.576, 1.011e-3
-1.577, 1.011e-3
-1.578, 1.011e-3
-1.579, 1.011e-3
-1.580, 1.011e-3
-1.581, 1.011e-3
-1.582, 1.011e-3
-1.583, 1.011e-3
-1.584, 1.011e-3
-1.585, 1.011e-3
-1.586, 1.011e-3
-1.587, 1.011e-3
-1.588, 1.011e-3
-1.589, 1.011e-3
-1.590, 1.011e-3
-1.591, 1.011e-3
-1.592, 1.011e-3
-1.593, 1.011e-3
-1.594, 1.011e-3
-1.595, 1.011e-3
-1.596, 1.011e-3
-1.597, 1.011e-3
-1.598, 1.011e-3
-1.599, 1.011e-3
-1.600, 1.011e-3
-1.601, 1.011e-3
-1.602, 1.011e-3
-1.603, 1.011e-3
-1.604, 1.011e-3
-1.605, 1.011e-3
-1.606, 1.011e-3
-1.607, 1.011e-3
-1.608, 1.011e-3
-1.609, 1.011e-3
-1.610, 1.011e-3
-1.611, 1.011e-3
-1.612, 1.011e-3
-1.613, 1.011e-3
-1.614, 1.011e-3
-1.615, 1.011e-3
-1.616, 1.011e-3
-1.617, 1.011e-3
-1.618, 1.011e-3
-1.619, 1.011e-3
-1.620, 1.011e-3
-1.621, 1.011e-3
-1.622, 1.011e-3
-1.623, 1.011e-3
-1.624, 1.011e-3
-1.625, 1.011e-3
-1.626, 1.011e-3
-1.627, 1.011e-3
-1.628, 1.011e-3
-1.629, 1.011e-3
-1.630, 1.011e-3
-1.631, 1.011e-3
-1.632, 1.011e-3
-1.633, 1.011e-3
-1.634, 1.011e-3
-1.635, 1.011e-3
-1.636, 1.011e-3
-1.637, 1.011e-3
-1.638, 1.011e-3
-1.639, 1.011e-3
-1.640, 1.011e-3
-1.641, 1.011e-3
-1.642, 1.011e-3
-1.643, 1.011e-3
-1.644, 1.011e-3
-1.645, 1.011e-3
-1.646, 1.011e-3
-1.647, 1.011e-3
-1.648, 1.011e-3
-1.649, 1.011e-3
-1.650, 1.011e-3
-1.651, 1.011e-3
-1.652, 1.011e-3
-1.653, 1.011e-3
-1.654, 1.011e-3
-1.655, 1.011e-3
-1.656, 1.011e-3
-1.657, 1.011e-3
-1.658, 1.011e-3
-1.659, 1.011e-3
-1.660, 1.011e-3
-1.661, 1.011e-3
-1.662, 1.011e-3
-1.663, 1.011e-3
-1.664, 1.011e-3
-1.665, 1.011e-3
-1.666, 1.011e-3
-1.667, 1.011e-3
-1.668, 1.011e-3
-1.669, 1.011e-3
-1.670, 1.011e-3
-1.671, 1.011e-3
-1.672, 1.011e-3
-1.673, 1.011e-3
-1.674, 1.011e-3
-1.675, 1.011e-3
-1.676, 1.011e-3
-1.677, 1.011e-3
-1.678, 1.011e-3
-1.679, 1.011e-3
-1.680, 1.011e-3
-1.681, 1.011e-3
-1.682, 1.011e-3
-1.683, 1.011e-3
-1.684, 1.011e-3
-1.685, 1.011e-3
-1.686, 1.011e-3
-1.687, 1.011e-3
-1.688, 1.011e-3
-1.689, 1.011e-3
-1.690, 1.011e-3
-1.691, 1.011e-3
-1.692, 1.011e-3
-1.693, 1.011e-3
-1.694, 1.011e-3
-1.695, 1.011e-3
-1.696, 1.011e-3
-1.697, 1.011e-3
-1.698, 1.011e-3
-1.699, 1.011e-3
