Jan. 10, 2025   00:20:17
Cyclic Voltammetry
File: c:/users/guazh/data/banditlqround7_x0exp772_r5/2025-01-08-exp813\exp813-2025-01-10t00_11_43-arkoh\exp813_cv_sr_400mvs_efin_-1400mv.bin
Data Source:  Experiment
Instrument Model:  CHI760E
Header: CV ran at 400 mVs
Note: 

Init E (V) = -1
High E (V) = -1
Low E (V) = -1.4
Final E (V) = -1
Init P/N = N
Scan Rate (V/s) = 0.4
Segment = 3
Sample Interval (V) = 0.001
Quiet Time (sec) = 2
Sensitivity (A/V) = 0.01
Comp R (ohm) = 1.5

Results:

Channel 1:
Segment 1:

Segment 2:

Segment 3:

Potential/V, Current/A

-1.000, -6.596e-4
-1.001, -5.116e-4
-1.002, -3.637e-4
-1.003, -2.218e-4
-1.004, -9.542e-5
-1.005, 9.405e-6
-1.006, 1.019e-4
-1.007, 1.975e-4
-1.008, 3.054e-4
-1.009, 4.195e-4
-1.010, 5.274e-4
-1.011, 6.168e-4
-1.012, 6.908e-4
-1.013, 7.586e-4
-1.014, 8.388e-4
-1.015, 9.313e-4
-1.016, 1.027e-3
-1.017, 1.113e-3
-1.018, 1.184e-3
-1.019, 1.236e-3
-1.020, 1.298e-3
-1.021, 1.369e-3
-1.022, 1.449e-3
-1.023, 1.532e-3
-1.024, 1.606e-3
-1.025, 1.662e-3
-1.026, 1.705e-3
-1.027, 1.761e-3
-1.028, 1.828e-3
-1.029, 1.906e-3
-1.030, 1.976e-3
-1.031, 2.035e-3
-1.032, 2.078e-3
-1.033, 2.121e-3
-1.034, 2.171e-3
-1.035, 2.235e-3
-1.036, 2.309e-3
-1.037, 2.371e-3
-1.038, 2.420e-3
-1.039, 2.457e-3
-1.040, 2.497e-3
-1.041, 2.550e-3
-1.042, 2.618e-3
-1.043, 2.686e-3
-1.044, 2.741e-3
-1.045, 2.778e-3
-1.046, 2.812e-3
-1.047, 2.855e-3
-1.048, 2.911e-3
-1.049, 2.975e-3
-1.050, 3.040e-3
-1.051, 3.086e-3
-1.052, 3.123e-3
-1.053, 3.154e-3
-1.054, 3.200e-3
-1.055, 3.259e-3
-1.056, 3.324e-3
-1.057, 3.382e-3
-1.058, 3.422e-3
-1.059, 3.456e-3
-1.060, 3.490e-3
-1.061, 3.543e-3
-1.062, 3.601e-3
-1.063, 3.666e-3
-1.064, 3.718e-3
-1.065, 3.758e-3
-1.066, 3.786e-3
-1.067, 3.826e-3
-1.068, 3.879e-3
-1.069, 3.940e-3
-1.070, 4.002e-3
-1.071, 4.051e-3
-1.072, 4.085e-3
-1.073, 4.116e-3
-1.074, 4.156e-3
-1.075, 4.215e-3
-1.076, 4.283e-3
-1.077, 4.335e-3
-1.078, 4.378e-3
-1.079, 4.406e-3
-1.080, 4.440e-3
-1.081, 4.486e-3
-1.082, 4.545e-3
-1.083, 4.606e-3
-1.084, 4.659e-3
-1.085, 4.699e-3
-1.086, 4.730e-3
-1.087, 4.770e-3
-1.088, 4.825e-3
-1.089, 4.893e-3
-1.090, 4.952e-3
-1.091, 4.995e-3
-1.092, 5.029e-3
-1.093, 5.063e-3
-1.094, 5.106e-3
-1.095, 5.164e-3
-1.096, 5.229e-3
-1.097, 5.288e-3
-1.098, 5.328e-3
-1.099, 5.359e-3
-1.100, 5.393e-3
-1.101, 5.442e-3
-1.102, 5.504e-3
-1.103, 5.565e-3
-1.104, 5.614e-3
-1.105, 5.655e-3
-1.106, 5.682e-3
-1.107, 5.722e-3
-1.108, 5.778e-3
-1.109, 5.843e-3
-1.110, 5.904e-3
-1.111, 5.951e-3
-1.112, 5.981e-3
-1.113, 6.015e-3
-1.114, 6.058e-3
-1.115, 6.117e-3
-1.116, 6.182e-3
-1.117, 6.237e-3
-1.118, 6.284e-3
-1.119, 6.311e-3
-1.120, 6.345e-3
-1.121, 6.395e-3
-1.122, 6.456e-3
-1.123, 6.518e-3
-1.124, 6.570e-3
-1.125, 6.604e-3
-1.126, 6.635e-3
-1.127, 6.672e-3
-1.128, 6.724e-3
-1.129, 6.789e-3
-1.130, 6.848e-3
-1.131, 6.894e-3
-1.132, 6.925e-3
-1.133, 6.956e-3
-1.134, 6.999e-3
-1.135, 7.057e-3
-1.136, 7.125e-3
-1.137, 7.184e-3
-1.138, 7.224e-3
-1.139, 7.258e-3
-1.140, 7.292e-3
-1.141, 7.338e-3
-1.142, 7.403e-3
-1.143, 7.467e-3
-1.144, 7.517e-3
-1.145, 7.554e-3
-1.146, 7.582e-3
-1.147, 7.622e-3
-1.148, 7.677e-3
-1.149, 7.739e-3
-1.150, 7.797e-3
-1.151, 7.841e-3
-1.152, 7.874e-3
-1.153, 7.902e-3
-1.154, 7.945e-3
-1.155, 7.998e-3
-1.156, 8.062e-3
-1.157, 8.115e-3
-1.158, 8.155e-3
-1.159, 8.183e-3
-1.160, 8.214e-3
-1.161, 8.260e-3
-1.162, 8.318e-3
-1.163, 8.380e-3
-1.164, 8.429e-3
-1.165, 8.463e-3
-1.166, 8.491e-3
-1.167, 8.525e-3
-1.168, 8.574e-3
-1.169, 8.636e-3
-1.170, 8.691e-3
-1.171, 8.735e-3
-1.172, 8.765e-3
-1.173, 8.793e-3
-1.174, 8.827e-3
-1.175, 8.883e-3
-1.176, 8.944e-3
-1.177, 9.000e-3
-1.178, 9.034e-3
-1.179, 9.061e-3
-1.180, 9.092e-3
-1.181, 9.135e-3
-1.182, 9.194e-3
-1.183, 9.253e-3
-1.184, 9.296e-3
-1.185, 9.330e-3
-1.186, 9.354e-3
-1.187, 9.388e-3
-1.188, 9.434e-3
-1.189, 9.490e-3
-1.190, 9.545e-3
-1.191, 9.586e-3
-1.192, 9.613e-3
-1.193, 9.641e-3
-1.194, 9.675e-3
-1.195, 9.724e-3
-1.196, 9.786e-3
-1.197, 9.835e-3
-1.198, 9.872e-3
-1.199, 9.897e-3
-1.200, 9.925e-3
-1.201, 9.965e-3
-1.202, 1.002e-2
-1.203, 1.008e-2
-1.204, 1.012e-2
-1.205, 1.015e-2
-1.206, 1.017e-2
-1.207, 1.020e-2
-1.208, 1.025e-2
-1.209, 1.030e-2
-1.210, 1.036e-2
-1.211, 1.040e-2
-1.212, 1.043e-2
-1.213, 1.045e-2
-1.214, 1.049e-2
-1.215, 1.054e-2
-1.216, 1.059e-2
-1.217, 1.065e-2
-1.218, 1.068e-2
-1.219, 1.070e-2
-1.220, 1.073e-2
-1.221, 1.077e-2
-1.222, 1.082e-2
-1.223, 1.088e-2
-1.224, 1.092e-2
-1.225, 1.095e-2
-1.226, 1.096e-2
-1.227, 1.099e-2
-1.228, 1.103e-2
-1.229, 1.110e-2
-1.230, 1.115e-2
-1.231, 1.118e-2
-1.232, 1.121e-2
-1.233, 1.123e-2
-1.234, 1.127e-2
-1.235, 1.132e-2
-1.236, 1.137e-2
-1.237, 1.142e-2
-1.238, 1.146e-2
-1.239, 1.148e-2
-1.240, 1.151e-2
-1.241, 1.155e-2
-1.242, 1.160e-2
-1.243, 1.166e-2
-1.244, 1.170e-2
-1.245, 1.173e-2
-1.246, 1.175e-2
-1.247, 1.178e-2
-1.248, 1.182e-2
-1.249, 1.188e-2
-1.250, 1.193e-2
-1.251, 1.197e-2
-1.252, 1.200e-2
-1.253, 1.202e-2
-1.254, 1.205e-2
-1.255, 1.210e-2
-1.256, 1.215e-2
-1.257, 1.220e-2
-1.258, 1.223e-2
-1.259, 1.224e-2
-1.260, 1.227e-2
-1.261, 1.230e-2
-1.262, 1.235e-2
-1.263, 1.240e-2
-1.264, 1.245e-2
-1.265, 1.247e-2
-1.266, 1.248e-2
-1.267, 1.251e-2
-1.268, 1.255e-2
-1.269, 1.259e-2
-1.270, 1.264e-2
-1.271, 1.268e-2
-1.272, 1.270e-2
-1.273, 1.272e-2
-1.274, 1.275e-2
-1.275, 1.279e-2
-1.276, 1.284e-2
-1.277, 1.288e-2
-1.278, 1.291e-2
-1.279, 1.292e-2
-1.280, 1.294e-2
-1.281, 1.298e-2
-1.282, 1.302e-2
-1.283, 1.306e-2
-1.284, 1.310e-2
-1.285, 1.311e-2
-1.286, 1.312e-2
-1.287, 1.315e-2
-1.288, 1.318e-2
-1.289, 1.323e-2
-1.290, 1.327e-2
-1.291, 1.329e-2
-1.292, 1.331e-2
-1.293, 1.333e-2
-1.294, 1.336e-2
-1.295, 1.339e-2
-1.296, 1.343e-2
-1.297, 1.346e-2
-1.298, 1.347e-2
-1.299, 1.348e-2
-1.300, 1.350e-2
-1.301, 1.353e-2
-1.302, 1.357e-2
-1.303, 1.361e-2
-1.304, 1.364e-2
-1.305, 1.365e-2
-1.306, 1.366e-2
-1.307, 1.366e-2
-1.308, 1.369e-2
-1.309, 1.373e-2
-1.310, 1.376e-2
-1.311, 1.378e-2
-1.312, 1.378e-2
-1.313, 1.379e-2
-1.314, 1.381e-2
-1.315, 1.383e-2
-1.316, 1.387e-2
-1.317, 1.390e-2
-1.318, 1.391e-2
-1.319, 1.391e-2
-1.320, 1.391e-2
-1.321, 1.393e-2
-1.322, 1.396e-2
-1.323, 1.399e-2
-1.324, 1.400e-2
-1.325, 1.400e-2
-1.326, 1.399e-2
-1.327, 1.400e-2
-1.328, 1.402e-2
-1.329, 1.405e-2
-1.330, 1.407e-2
-1.331, 1.407e-2
-1.332, 1.406e-2
-1.333, 1.404e-2
-1.334, 1.404e-2
-1.335, 1.406e-2
-1.336, 1.408e-2
-1.337, 1.410e-2
-1.338, 1.410e-2
-1.339, 1.408e-2
-1.340, 1.407e-2
-1.341, 1.408e-2
-1.342, 1.410e-2
-1.343, 1.412e-2
-1.344, 1.412e-2
-1.345, 1.410e-2
-1.346, 1.408e-2
-1.347, 1.407e-2
-1.348, 1.409e-2
-1.349, 1.411e-2
-1.350, 1.412e-2
-1.351, 1.411e-2
-1.352, 1.409e-2
-1.353, 1.407e-2
-1.354, 1.406e-2
-1.355, 1.406e-2
-1.356, 1.407e-2
-1.357, 1.407e-2
-1.358, 1.405e-2
-1.359, 1.403e-2
-1.360, 1.400e-2
-1.361, 1.399e-2
-1.362, 1.400e-2
-1.363, 1.400e-2
-1.364, 1.399e-2
-1.365, 1.397e-2
-1.366, 1.395e-2
-1.367, 1.393e-2
-1.368, 1.393e-2
-1.369, 1.394e-2
-1.370, 1.394e-2
-1.371, 1.392e-2
-1.372, 1.389e-2
-1.373, 1.386e-2
-1.374, 1.384e-2
-1.375, 1.383e-2
-1.376, 1.383e-2
-1.377, 1.382e-2
-1.378, 1.379e-2
-1.379, 1.376e-2
-1.380, 1.372e-2
-1.381, 1.371e-2
-1.382, 1.371e-2
-1.383, 1.371e-2
-1.384, 1.370e-2
-1.385, 1.368e-2
-1.386, 1.364e-2
-1.387, 1.361e-2
-1.388, 1.360e-2
-1.389, 1.359e-2
-1.390, 1.358e-2
-1.391, 1.356e-2
-1.392, 1.353e-2
-1.393, 1.349e-2
-1.394, 1.347e-2
-1.395, 1.346e-2
-1.396, 1.346e-2
-1.397, 1.345e-2
-1.398, 1.342e-2
-1.399, 1.339e-2
-1.400, 1.325e-2
-1.399, 1.292e-2
-1.398, 1.262e-2
-1.397, 1.234e-2
-1.396, 1.206e-2
-1.395, 1.177e-2
-1.394, 1.147e-2
-1.393, 1.119e-2
-1.392, 1.094e-2
-1.391, 1.071e-2
-1.390, 1.047e-2
-1.389, 1.023e-2
-1.388, 9.977e-3
-1.387, 9.734e-3
-1.386, 9.508e-3
-1.385, 9.299e-3
-1.384, 9.105e-3
-1.383, 8.898e-3
-1.382, 8.685e-3
-1.381, 8.466e-3
-1.380, 8.257e-3
-1.379, 8.066e-3
-1.378, 7.893e-3
-1.377, 7.717e-3
-1.376, 7.535e-3
-1.375, 7.341e-3
-1.374, 7.144e-3
-1.373, 6.962e-3
-1.372, 6.798e-3
-1.371, 6.647e-3
-1.370, 6.493e-3
-1.369, 6.327e-3
-1.368, 6.151e-3
-1.367, 5.975e-3
-1.366, 5.818e-3
-1.365, 5.679e-3
-1.364, 5.547e-3
-1.363, 5.405e-3
-1.362, 5.251e-3
-1.361, 5.093e-3
-1.360, 4.939e-3
-1.359, 4.804e-3
-1.358, 4.680e-3
-1.357, 4.560e-3
-1.356, 4.431e-3
-1.355, 4.292e-3
-1.354, 4.144e-3
-1.353, 4.011e-3
-1.352, 3.894e-3
-1.351, 3.786e-3
-1.350, 3.678e-3
-1.349, 3.558e-3
-1.348, 3.425e-3
-1.347, 3.299e-3
-1.346, 3.182e-3
-1.345, 3.083e-3
-1.344, 2.991e-3
-1.343, 2.889e-3
-1.342, 2.772e-3
-1.341, 2.652e-3
-1.340, 2.534e-3
-1.339, 2.439e-3
-1.338, 2.353e-3
-1.337, 2.266e-3
-1.336, 2.174e-3
-1.335, 2.063e-3
-1.334, 1.952e-3
-1.333, 1.847e-3
-1.332, 1.764e-3
-1.331, 1.690e-3
-1.330, 1.610e-3
-1.329, 1.517e-3
-1.328, 1.415e-3
-1.327, 1.314e-3
-1.326, 1.227e-3
-1.325, 1.156e-3
-1.324, 1.088e-3
-1.323, 1.018e-3
-1.322, 9.282e-4
-1.321, 8.295e-4
-1.320, 7.401e-4
-1.319, 6.661e-4
-1.318, 6.044e-4
-1.317, 5.428e-4
-1.316, 4.719e-4
-1.315, 3.886e-4
-1.314, 2.961e-4
-1.313, 2.191e-4
-1.312, 1.574e-4
-1.311, 1.050e-4
-1.310, 4.949e-5
-1.309, -2.143e-5
-1.308, -1.047e-4
-1.307, -1.848e-4
-1.306, -2.527e-4
-1.305, -3.051e-4
-1.304, -3.513e-4
-1.303, -4.068e-4
-1.302, -4.746e-4
-1.301, -5.548e-4
-1.300, -6.257e-4
-1.299, -6.812e-4
-1.298, -7.244e-4
-1.297, -7.675e-4
-1.296, -8.230e-4
-1.295, -8.909e-4
-1.294, -9.649e-4
-1.293, -1.027e-3
-1.292, -1.073e-3
-1.291, -1.110e-3
-1.290, -1.150e-3
-1.289, -1.208e-3
-1.288, -1.273e-3
-1.287, -1.338e-3
-1.286, -1.393e-3
-1.285, -1.427e-3
-1.284, -1.461e-3
-1.283, -1.501e-3
-1.282, -1.563e-3
-1.281, -1.625e-3
-1.280, -1.686e-3
-1.279, -1.729e-3
-1.278, -1.760e-3
-1.277, -1.791e-3
-1.276, -1.834e-3
-1.275, -1.887e-3
-1.274, -1.951e-3
-1.273, -2.001e-3
-1.272, -2.032e-3
-1.271, -2.059e-3
-1.270, -2.090e-3
-1.269, -2.136e-3
-1.268, -2.192e-3
-1.267, -2.247e-3
-1.266, -2.291e-3
-1.265, -2.318e-3
-1.264, -2.337e-3
-1.263, -2.371e-3
-1.262, -2.420e-3
-1.261, -2.476e-3
-1.260, -2.525e-3
-1.259, -2.559e-3
-1.258, -2.580e-3
-1.257, -2.605e-3
-1.256, -2.639e-3
-1.255, -2.685e-3
-1.254, -2.741e-3
-1.253, -2.784e-3
-1.252, -2.809e-3
-1.251, -2.827e-3
-1.250, -2.852e-3
-1.249, -2.892e-3
-1.248, -2.941e-3
-1.247, -2.987e-3
-1.246, -3.024e-3
-1.245, -3.046e-3
-1.244, -3.061e-3
-1.243, -3.086e-3
-1.242, -3.129e-3
-1.241, -3.182e-3
-1.240, -3.225e-3
-1.239, -3.256e-3
-1.238, -3.271e-3
-1.237, -3.286e-3
-1.236, -3.317e-3
-1.235, -3.360e-3
-1.234, -3.407e-3
-1.233, -3.447e-3
-1.232, -3.468e-3
-1.231, -3.481e-3
-1.230, -3.499e-3
-1.229, -3.539e-3
-1.228, -3.586e-3
-1.227, -3.629e-3
-1.226, -3.659e-3
-1.225, -3.678e-3
-1.224, -3.687e-3
-1.223, -3.712e-3
-1.222, -3.749e-3
-1.221, -3.795e-3
-1.220, -3.838e-3
-1.219, -3.863e-3
-1.218, -3.875e-3
-1.217, -3.888e-3
-1.216, -3.915e-3
-1.215, -3.959e-3
-1.214, -4.002e-3
-1.213, -4.036e-3
-1.212, -4.057e-3
-1.211, -4.066e-3
-1.210, -4.085e-3
-1.209, -4.116e-3
-1.208, -4.162e-3
-1.207, -4.202e-3
-1.206, -4.233e-3
-1.205, -4.248e-3
-1.204, -4.258e-3
-1.203, -4.279e-3
-1.202, -4.316e-3
-1.201, -4.362e-3
-1.200, -4.406e-3
-1.199, -4.430e-3
-1.198, -4.440e-3
-1.197, -4.455e-3
-1.196, -4.483e-3
-1.195, -4.520e-3
-1.194, -4.566e-3
-1.193, -4.603e-3
-1.192, -4.618e-3
-1.191, -4.634e-3
-1.190, -4.649e-3
-1.189, -4.683e-3
-1.188, -4.726e-3
-1.187, -4.769e-3
-1.186, -4.797e-3
-1.185, -4.813e-3
-1.184, -4.822e-3
-1.183, -4.843e-3
-1.182, -4.883e-3
-1.181, -4.930e-3
-1.180, -4.970e-3
-1.179, -4.994e-3
-1.178, -5.010e-3
-1.177, -5.028e-3
-1.176, -5.056e-3
-1.175, -5.099e-3
-1.174, -5.146e-3
-1.173, -5.183e-3
-1.172, -5.201e-3
-1.171, -5.213e-3
-1.170, -5.235e-3
-1.169, -5.269e-3
-1.168, -5.318e-3
-1.167, -5.364e-3
-1.166, -5.398e-3
-1.165, -5.417e-3
-1.164, -5.429e-3
-1.163, -5.454e-3
-1.162, -5.497e-3
-1.161, -5.543e-3
-1.160, -5.590e-3
-1.159, -5.620e-3
-1.158, -5.636e-3
-1.157, -5.648e-3
-1.156, -5.682e-3
-1.155, -5.722e-3
-1.154, -5.768e-3
-1.153, -5.808e-3
-1.152, -5.830e-3
-1.151, -5.845e-3
-1.150, -5.867e-3
-1.149, -5.904e-3
-1.148, -5.950e-3
-1.147, -5.990e-3
-1.146, -6.024e-3
-1.145, -6.043e-3
-1.144, -6.058e-3
-1.143, -6.089e-3
-1.142, -6.132e-3
-1.141, -6.188e-3
-1.140, -6.234e-3
-1.139, -6.262e-3
-1.138, -6.280e-3
-1.137, -6.299e-3
-1.136, -6.329e-3
-1.135, -6.376e-3
-1.134, -6.425e-3
-1.133, -6.465e-3
-1.132, -6.490e-3
-1.131, -6.502e-3
-1.130, -6.527e-3
-1.129, -6.564e-3
-1.128, -6.613e-3
-1.127, -6.666e-3
-1.126, -6.699e-3
-1.125, -6.724e-3
-1.124, -6.743e-3
-1.123, -6.773e-3
-1.122, -6.817e-3
-1.121, -6.869e-3
-1.120, -6.912e-3
-1.119, -6.943e-3
-1.118, -6.962e-3
-1.117, -6.983e-3
-1.116, -7.017e-3
-1.115, -7.063e-3
-1.114, -7.116e-3
-1.113, -7.156e-3
-1.112, -7.177e-3
-1.111, -7.196e-3
-1.110, -7.220e-3
-1.109, -7.261e-3
-1.108, -7.313e-3
-1.107, -7.359e-3
-1.106, -7.396e-3
-1.105, -7.418e-3
-1.104, -7.433e-3
-1.103, -7.461e-3
-1.102, -7.504e-3
-1.101, -7.557e-3
-1.100, -7.603e-3
-1.099, -7.631e-3
-1.098, -7.655e-3
-1.097, -7.674e-3
-1.096, -7.708e-3
-1.095, -7.754e-3
-1.094, -7.809e-3
-1.093, -7.849e-3
-1.092, -7.874e-3
-1.091, -7.890e-3
-1.090, -7.911e-3
-1.089, -7.951e-3
-1.088, -8.001e-3
-1.087, -8.053e-3
-1.086, -8.090e-3
-1.085, -8.118e-3
-1.084, -8.136e-3
-1.083, -8.164e-3
-1.082, -8.207e-3
-1.081, -8.263e-3
-1.080, -8.306e-3
-1.079, -8.337e-3
-1.078, -8.355e-3
-1.077, -8.377e-3
-1.076, -8.407e-3
-1.075, -8.460e-3
-1.074, -8.509e-3
-1.073, -8.552e-3
-1.072, -8.577e-3
-1.071, -8.596e-3
-1.070, -8.620e-3
-1.069, -8.660e-3
-1.068, -8.710e-3
-1.067, -8.756e-3
-1.066, -8.793e-3
-1.065, -8.811e-3
-1.064, -8.830e-3
-1.063, -8.858e-3
-1.062, -8.901e-3
-1.061, -8.950e-3
-1.060, -8.996e-3
-1.059, -9.024e-3
-1.058, -9.046e-3
-1.057, -9.064e-3
-1.056, -9.098e-3
-1.055, -9.147e-3
-1.054, -9.200e-3
-1.053, -9.240e-3
-1.052, -9.258e-3
-1.051, -9.274e-3
-1.050, -9.295e-3
-1.049, -9.332e-3
-1.048, -9.382e-3
-1.047, -9.431e-3
-1.046, -9.468e-3
-1.045, -9.493e-3
-1.044, -9.514e-3
-1.043, -9.539e-3
-1.042, -9.579e-3
-1.041, -9.628e-3
-1.040, -9.668e-3
-1.039, -9.696e-3
-1.038, -9.715e-3
-1.037, -9.733e-3
-1.036, -9.767e-3
-1.035, -9.810e-3
-1.034, -9.860e-3
-1.033, -9.897e-3
-1.032, -9.918e-3
-1.031, -9.934e-3
-1.030, -9.958e-3
-1.029, -9.995e-3
-1.028, -1.004e-2
-1.027, -1.008e-2
-1.026, -1.012e-2
-1.025, -1.013e-2
-1.024, -1.015e-2
-1.023, -1.017e-2
-1.022, -1.021e-2
-1.021, -1.026e-2
-1.020, -1.030e-2
-1.019, -1.032e-2
-1.018, -1.033e-2
-1.017, -1.035e-2
-1.016, -1.038e-2
-1.015, -1.042e-2
-1.014, -1.047e-2
-1.013, -1.050e-2
-1.012, -1.052e-2
-1.011, -1.053e-2
-1.010, -1.055e-2
-1.009, -1.058e-2
-1.008, -1.063e-2
-1.007, -1.067e-2
-1.006, -1.070e-2
-1.005, -1.071e-2
-1.004, -1.072e-2
-1.003, -1.074e-2
-1.002, -1.078e-2
-1.001, -1.082e-2
