Potential V vs RHE, Current mA cm-2
0.013299999999999867,8.242108033013702
0.012299999999999978,5.929055057734368
0.011299999999999866,3.7051288943465317
0.010299999999999976,1.6113561705462767
0.009299999999999864,-0.3947044526623452
0.008299999999999974,-2.2706116362833835
0.007299999999999862,-4.102662769608606
0.006299999999999972,-5.759289701750564
0.00529999999999986,-7.461187395488204
0.0042999999999999705,-9.031516938338395
0.0032999999999998586,-10.514134380596953
0.0022999999999999687,-12.084463923447142
0.0012999999999998568,-13.610937416001518
0.00029999999999996696,-15.179852247551842
-0.000700000000000145,-16.750181790402035
-0.0017000000000000348,-18.27806999425627
-0.0027000000000001467,-19.848399537106463
-0.0037000000000000366,-21.418729079956652
-0.0047000000000001485,-22.861734605818995
-0.005700000000000038,-24.34718147067728
-0.00670000000000015,-25.691157205549064
-0.00770000000000004,-27.049280053419505
-0.008700000000000152,-28.265931771303435
-0.009700000000000042,-29.482583489187363
-0.010700000000000154,-30.71338232006995
-0.011700000000000044,-31.84515135996197
-0.012700000000000156,-33.01936173884996
-0.013700000000000045,-34.193572117737936
-0.014700000000000157,-35.46681228761647
-0.015700000000000047,-36.64102266650445
-0.01670000000000016,-37.90011572338433
-0.01770000000000005,-39.130914554266916
-0.01870000000000016,-40.43244895014274
-0.01970000000000005,-41.66324778102533
-0.020700000000000163,-42.79501682091736
-0.021700000000000053,-43.96922719980534
-0.022700000000000164,-45.05855490070142
-0.023700000000000054,-46.062999923605595
-0.024700000000000166,-47.067444946509774
-0.025700000000000056,-48.071889969413945
-0.026700000000000168,-48.93486386233162
-0.027700000000000058,-49.98175022423175
-0.02870000000000017,-50.90131256914402
-0.02970000000000006,-51.990640270040096
-0.03070000000000017,-53.079967970936174
-0.03170000000000006,-54.16929567183226
-0.03270000000000017,-55.25862337272834
-0.03370000000000006,-56.404539525619015
-0.034700000000000175,-57.53630856551105
-0.035700000000000065,-58.54075358841522
-0.03670000000000018,-59.587639950315335
-0.03770000000000007,-60.59208497321952
-0.03870000000000018,-61.455058866137186
-0.03970000000000007,-62.33217987205352
-0.04070000000000018,-63.20930087796983
-0.04170000000000007,-64.02983343189156
-0.04270000000000018,-64.94939577680383
-0.04370000000000007,-65.82651678272015
-0.044700000000000184,-66.81681469262568
-0.045700000000000074,-67.82125971552985
-0.046700000000000186,-68.82570473843404
-0.047700000000000076,-69.87259110033416
-0.04870000000000019,-70.96191880123024
-0.04970000000000008,-71.92392248513846
-0.05070000000000019,-72.92836750804264
-0.05170000000000008,-73.89037119195086
-0.05270000000000019,-74.8523748758591
-0.05370000000000008,-75.63046609078486
-0.05470000000000019,-76.50758709670117
-0.05570000000000008,-77.34226676362155
-0.056700000000000195,-78.12035797854733
-0.057700000000000085,-78.99747898446365
-0.058700000000000196,-79.86045287738132
-0.059700000000000086,-80.7800152222936
-0.0607000000000002,-81.78446024519776
-0.06170000000000009,-82.746463929106
-0.0627000000000002,-83.75090895201016
-0.06370000000000009,-84.7977953139103
-0.0647000000000002,-85.80224033681448
-0.06570000000000009,-86.80668535971866
-0.0667000000000002,-87.71210059163228
-0.0677000000000001,-88.63166293654454
-0.0687000000000002,-89.42390126446898
-0.0697000000000001,-90.24443381839069
-0.07070000000000021,-91.12155482430701
-0.0717000000000001,-91.85720470023682
-0.07270000000000021,-92.73432570615316
-0.0737000000000001,-93.55485826007487
-0.07470000000000021,-94.5168619439831
-0.0757000000000001,-95.52130696688728
-0.07670000000000021,-96.52575198979144
-0.0777000000000001,-97.53019701269562
-0.07870000000000021,-98.57708337459576
-0.0797000000000001,-99.58152839749994
-0.08070000000000022,-100.58597342040412
-0.0817000000000001,-101.50553576531638
-0.08270000000000022,-102.41095099723
-0.08370000000000011,-103.24563066415038
-0.08470000000000022,-104.06616321807209
-0.08570000000000011,-104.90084288499246
-0.08670000000000022,-105.69308121291688
-0.08770000000000011,-106.51361376683862
-0.08870000000000022,-107.34829343375898
-0.08970000000000011,-108.3102971176672
-0.09070000000000022,-109.25815368857677
-0.09170000000000011,-110.22015737248502
-0.09270000000000023,-111.22460239538917
-0.09370000000000012,-112.3563714352812
-0.09470000000000023,-113.31837511918944
-0.09570000000000012,-114.3228201420936
-0.09670000000000023,-115.2423824870059
-0.09770000000000012,-116.10535637992358
-0.09870000000000023,-116.94003604684394
-0.09970000000000012,-117.81715705276027
-0.10070000000000023,-118.63768960668197
-0.10170000000000012,-119.4299279346064
-0.10270000000000024,-120.29290182752408
-0.10370000000000013,-121.17002283344038
-0.10470000000000024,-122.08958517835266
-0.10570000000000013,-123.09403020125686
-0.10670000000000024,-124.05603388516508
-0.10770000000000013,-125.10292024706521
-0.10870000000000024,-126.19224794796128
-0.10970000000000013,-127.14010451887084
-0.11070000000000024,-128.144549541775
-0.11170000000000013,-129.10655322568326
-0.11270000000000002,-130.02611557059552
-0.11370000000000013,-130.90323657651186
-0.11470000000000002,-131.76621046942952
-0.11570000000000014,-132.55844879735392
-0.11670000000000003,-133.3365400122797
-0.11770000000000014,-134.21366101819604
-0.11870000000000003,-135.09078202411234
-0.11970000000000014,-136.03863859502192
-0.12070000000000003,-137.04308361792607
-0.12170000000000014,-138.04752864083028
-0.12270000000000003,-139.09441500273041
-0.12370000000000014,-140.18374270362645
-0.12470000000000003,-141.18818772653066
-0.12570000000000014,-142.17848563643616
-0.12670000000000003,-143.16878354634173
-0.12770000000000015,-144.15908145624724
-0.12870000000000004,-145.00790823616626
-0.12970000000000015,-145.85673501608528
-0.13070000000000004,-146.7055617960043
-0.13170000000000015,-147.55438857592333
-0.13270000000000004,-148.40321535584232
-0.13370000000000015,-149.25204213576137
-0.13470000000000004,-150.24234004566688
-0.13570000000000015,-151.23263795557244
-0.13670000000000004,-152.22293586547795
-0.13770000000000016,-153.21323377538346
-0.13870000000000005,-154.3450028152755
-0.13970000000000016,-155.33530072518104
-0.14070000000000005,-156.32559863508658
-0.14170000000000016,-157.31589654499206
-0.14270000000000005,-158.3061944548976
-0.14370000000000016,-159.15502123481662
-0.14470000000000005,-160.00384801473567
-0.14570000000000016,-160.8526747946547
-0.14670000000000005,-161.5600304445872
-0.14770000000000016,-162.5503283544927
-0.14870000000000005,-163.39915513441173
-0.14970000000000017,-164.24798191433075
-0.15070000000000006,-165.3797509542228
-0.15170000000000017,-166.3700488641283
-0.15270000000000006,-167.36034677403384
-0.15370000000000017,-168.49211581392586
-0.15470000000000006,-169.48241372383137
-0.15570000000000017,-170.61418276372342
-0.15670000000000006,-171.46300954364247
-0.15770000000000017,-172.45330745354798
-0.15870000000000006,-173.302134233467
-0.15970000000000018,-174.150961013386
-0.16070000000000007,-174.99978779330505
-0.16170000000000018,-175.84861457322407
-0.16270000000000007,-176.6974413531431
-0.16370000000000018,-177.54626813306209
-0.16470000000000007,-178.53656604296762
-0.16570000000000018,-179.52686395287316
-0.16670000000000007,-180.5171618627787
-0.16770000000000018,-181.64893090267074
-0.16870000000000007,-182.63922881257625
-0.16970000000000018,-183.62952672248176
-0.17070000000000007,-184.6198246323873
-0.17170000000000019,-185.7515936722793
-0.17270000000000008,-186.60042045219836
-0.1737000000000002,-187.44924723211736
-0.17470000000000008,-188.29807401203638
-0.1757000000000002,-189.1469007919554
-0.17670000000000008,-189.8542564418879
-0.1777000000000002,-190.70308322180696
-0.17870000000000008,-191.69338113171247
-0.1797000000000002,-192.54220791163152
-0.18070000000000008,-193.532505821537
-0.1817000000000002,-194.52280373144254
-0.18270000000000008,-195.51310164134807
-0.1837000000000002,-196.6448706812401
-0.1847000000000001,-197.63516859114563
-0.1857000000000002,-198.62546650105114
-0.1867000000000001,-199.61576441095667
-0.1877000000000002,-200.6060623208622
-0.1887000000000001,-201.4548891007812
-0.1897000000000002,-202.44518701068677
-0.1907000000000001,-203.15254266061928
-0.1917000000000001,-204.0013694405383
-0.19269999999999998,-204.8501962204573
-0.1937000000000001,-205.69902300037634
-0.19469999999999998,-206.68932091028185
-0.1957000000000001,-207.67961882018741
-0.19669999999999999,-208.6699167300929
-0.1977000000000001,-209.66021463999843
-0.1987,-210.79198367989048
-0.1997000000000001,-211.782281589796
-0.2007,-212.77257949970152
-0.2017000000000001,-213.62140627962054
-0.2027,-214.61170418952605
-0.2037000000000001,-215.31905983945856
-0.2047,-216.3093577493641
-0.2057000000000001,-217.01671339929663
-0.2067,-217.72406904922914
-0.2077000000000001,-218.57289582914817
-0.2087,-219.42172260906716
-0.2097000000000001,-220.41202051897272
-0.2107,-221.40231842887826
-0.2117000000000001,-222.25114520879725
-0.2127,-223.09997198871628
-0.2137000000000001,-224.2317410286083
-0.2147,-225.22203893851383
-0.2157000000000001,-226.21233684841937
-0.2167,-227.2026347583249
-0.21770000000000012,-228.0514615382439
-0.2187,-228.75881718817644
-0.21970000000000012,-229.60764396809546
-0.2207,-230.45647074801445
-0.22170000000000012,-231.0223552679605
-0.2227,-232.01265317786604
-0.22370000000000012,-232.72000882779852
-0.2247,-233.71030673770406
-0.22570000000000012,-234.55913351762308
-0.2267,-235.54943142752862
-0.22770000000000012,-236.3982582074476
-0.22870000000000001,-237.38855611735315
-0.22970000000000013,-238.37885402725868
-0.23070000000000002,-239.36915193716422
-0.23170000000000013,-240.21797871708318
-0.23270000000000002,-241.06680549700224
-0.23370000000000013,-241.77416114693477
-0.23470000000000002,-242.62298792685377
-0.23570000000000013,-243.3303435767863
-0.23670000000000002,-244.03769922671884
-0.2376999999999999,-244.8865260066378
-0.23870000000000002,-245.59388165657037
-0.2396999999999999,-246.4427084364894
-0.24070000000000003,-247.4330063463949
-0.24169999999999991,-248.42330425630044
-0.24270000000000003,-249.2721310362195
-0.24369999999999992,-250.262428946125
-0.24470000000000003,-251.25272685603056
-0.24569999999999992,-252.10155363594956
-0.24670000000000003,-253.09185154585506
-0.24769999999999992,-253.94067832577412
-0.24870000000000003,-254.78950510569314
-0.24969999999999992,-255.49686075562562
-0.25070000000000003,-256.34568753554464
-0.2516999999999999,-257.0530431854772
-0.25270000000000004,-257.90186996539614
-0.2536999999999999,-258.7506967453152
-0.25470000000000004,-259.59952352523425
-0.2556999999999999,-260.4483503051532
-0.25670000000000004,-261.4386482150588
-0.25769999999999993,-262.42894612496434
-0.25870000000000004,-263.27777290488336
-0.25969999999999993,-264.2680708147888
-0.26070000000000004,-265.2583687246944
-0.26169999999999993,-266.1071955046134
-0.26270000000000004,-266.9560222845325
-0.26369999999999993,-267.6633779344649
-0.26470000000000005,-268.512204714384
-0.26569999999999994,-269.2195603643164
-0.26670000000000005,-269.926916014249
-0.26769999999999994,-270.775742794168
-0.26870000000000005,-271.62456957408705
-0.26969999999999994,-272.47339635400607
-0.27070000000000005,-273.3222231339251
-0.27169999999999994,-274.31252104383066
-0.27270000000000005,-275.1613478237496
-0.27369999999999994,-276.29311686364167
-0.27470000000000006,-277.1419436435607
-0.27569999999999995,-277.9907704234797
-0.27670000000000006,-278.8395972033987
-0.27769999999999995,-279.6884239833177
-0.27870000000000006,-280.3957796332503
-0.27969999999999995,-281.1031352831828
-0.28070000000000006,-281.8104909331153
-0.28169999999999995,-282.3763754530613
-0.28270000000000006,-283.08373110299385
-0.28369999999999995,-283.9325578829129
-0.28470000000000006,-284.63991353284536
-0.28569999999999995,-285.4887403127644
-0.28670000000000007,-286.33756709268346
-0.28769999999999996,-287.327865002589
-0.28870000000000007,-288.176691782508
-0.28969999999999996,-289.02551856242695
-0.29070000000000007,-289.87434534234603
-0.29169999999999996,-290.723172122265
-0.29270000000000007,-291.4305277721976
-0.29369999999999996,-292.2793545521166
-0.2947000000000001,-292.9867102020491
-0.29569999999999996,-293.6940658519816
-0.2967000000000001,-294.2599503719276
-0.29769999999999996,-294.96730602186017
-0.2987000000000001,-295.8161328017792
-0.29969999999999997,-296.52348845171167
-0.3007000000000001,-297.3723152316307
-0.30169999999999997,-298.2211420115498
-0.3027000000000001,-299.06996879146874
-0.30369999999999997,-300.06026670137425
-0.3047000000000001,-301.0505646112798
-0.30569999999999997,-301.8993913911989
-0.3067000000000001,-302.74821817111786
-0.3077,-303.5970449510368
-0.3087000000000001,-304.3044006009694
-0.3097,-305.0117562509019
-0.3107000000000001,-305.71911190083443
-0.3117,-306.28499642078043
-0.3127000000000001,-307.1338232006995
-0.3137,-307.69970772064545
-0.3147000000000001,-308.407063370578
-0.3157,-309.3973612804835
-0.3167000000000001,-310.10471693041603
-0.3177,-310.95354371033505
-0.3187000000000001,-311.80237049025413
-0.3197,-312.65119727017316
-0.3207000000000001,-313.5000240500921
-0.3217,-314.20737970002466
-0.3227000000000001,-315.0562064799437
-0.3237,-315.76356212987616
-0.3247000000000001,-316.47091777980876
-0.3257,-317.1782734297412
-0.3267000000000001,-317.60268681970075
-0.3277,-318.31004246963323
-0.3287000000000001,-318.8759269895793
-0.3297,-319.58328263951176
-0.3307000000000001,-320.4321094194308
-0.3317,-321.2809361993498
-0.3327000000000001,-321.98829184928235
-0.3337,-322.83711862920137
-0.3347000000000001,-323.68594540912045
-0.3357,-324.5347721890394
-0.3367000000000001,-325.24212783897195
-0.3377,-325.94948348890443
-0.3387000000000001,-326.51536800885043
-0.3397,-327.0812525287965
-0.3407000000000001,-327.788608178729
-0.3417,-328.2130215686885
-0.3427000000000001,-328.7789060886345
-0.3437,-329.48626173856707
-0.3447000000000001,-330.05214625851306
-0.3457,-330.7595019084456
-0.3467000000000001,-331.4668575583781
-0.3477,-332.3156843382971
-0.3487000000000001,-333.02303998822964
-0.3497,-333.7303956381621
-0.3507000000000001,-334.43775128809466
-0.3517,-335.1451069380272
-0.3527000000000001,-335.71099145797325
-0.3537,-336.27687597791925
-0.3547000000000001,-336.84276049786524
-0.3557,-337.40864501781124
-0.35670000000000013,-337.83305840777075
-0.3577,-338.39894292771675
-0.35870000000000013,-338.96482744766274
-0.3597,-339.6721830975953
-0.36070000000000013,-340.3795387475279
-0.3617,-341.0868943974603
-0.3626999999999999,-341.7942500473929
-0.3637,-342.5016056973254
-0.3646999999999999,-343.06749021727137
-0.3657,-343.9163169971904
-0.3666999999999999,-344.48220151713645
-0.3677,-345.1895571670689
-0.3686999999999999,-345.7554416870149
-0.36970000000000003,-346.1798550769745
-0.3706999999999999,-346.7457395969205
-0.37170000000000003,-347.17015298688
-0.3726999999999999,-347.59456637683957
-0.37370000000000003,-348.018979766799
-0.3746999999999999,-348.584864286745
-0.37570000000000003,-349.15074880669107
-0.3766999999999999,-349.71663332663707
-0.37770000000000004,-350.42398897656955
-0.3786999999999999,-351.1313446265021
-0.37970000000000004,-351.69722914644814
-0.3806999999999999,-352.26311366639413
-0.38170000000000004,-352.68752705635364
-0.38269999999999993,-353.25341157629964
-0.38370000000000004,-353.6778249662592
-0.38469999999999993,-354.10223835621866
-0.38570000000000004,-354.3851806161917
-0.38669999999999993,-353.11194044631316
-0.38570000000000004,-348.72633541673156
-0.38469999999999993,-344.48220151713645
-0.38370000000000004,-340.3795387475279
-0.38269999999999993,-336.5598182378922
-0.38170000000000004,-332.7400977282566
-0.3806999999999999,-329.0618483486075
-0.37970000000000004,-325.24212783897195
-0.3786999999999999,-321.56387845932284
-0.37770000000000004,-317.8856290796738
-0.3766999999999999,-314.34885083001114
-0.37570000000000003,-310.6706014503621
-0.3746999999999999,-307.1338232006995
-0.37370000000000003,-303.5970449510368
-0.3726999999999999,-299.91879557138776
-0.37170000000000003,-296.3820173217252
-0.3706999999999999,-292.9867102020491
-0.36970000000000003,-289.4499319523865
-0.3686999999999999,-286.0546248327104
-0.3677,-282.8007888430208
-0.3666999999999999,-279.5469528533313
-0.3657,-276.43458799362816
-0.3646999999999999,-273.3222231339251
-0.3637,-270.20985827422203
-0.3626999999999999,-266.9560222845325
-0.3617,-263.84365742482936
-0.36070000000000013,-260.73129256512624
-0.3597,-257.6189277054232
-0.35870000000000013,-254.36509171573357
-0.3577,-251.25272685603056
-0.35670000000000013,-247.99889086634093
-0.3557,-244.8865260066378
-0.3547000000000001,-241.9156322769213
-0.3537,-238.94473854720468
-0.3527000000000001,-235.97384481748813
-0.3517,-233.1444222177581
-0.3507000000000001,-230.31499961802797
-0.3497,-227.4855770182979
-0.3487000000000001,-224.65615441856778
-0.3477,-221.82673181883774
-0.3467000000000001,-219.13878034909416
-0.3457,-216.3093577493641
-0.3447000000000001,-213.47993514963403
-0.3437,-210.65051254990397
-0.3427000000000001,-207.67961882018741
-0.3417,-204.8501962204573
-0.3407000000000001,-202.02077362072723
-0.3397,-199.19135102099716
-0.3387000000000001,-196.50339955125358
-0.3377,-193.9569192114965
-0.3367000000000001,-191.268967741753
-0.3357,-188.72248740199586
-0.3347000000000001,-186.31747819222534
-0.3337,-183.62952672248176
-0.3327000000000001,-181.08304638272472
-0.3317,-178.53656604296762
-0.3307000000000001,-175.99008570321055
-0.3297,-173.302134233467
-0.3287000000000001,-170.61418276372342
-0.3277,-168.06770242396635
-0.3267000000000001,-165.3797509542228
-0.3257,-162.8332706144657
-0.3247000000000001,-160.28679027470866
-0.3237,-157.88178106493808
-0.3227000000000001,-155.47677185516753
-0.3217,-153.07176264539694
-0.3207000000000001,-150.8082245656129
-0.3197,-148.54468648582886
-0.3187000000000001,-146.28114840604482
-0.3177,-144.01761032626072
-0.3167000000000001,-141.61260111649017
-0.3157,-139.3207688107088
-0.3147000000000001,-136.91575960093826
-0.3137,-134.5107503911677
-0.3127000000000001,-132.16232963339172
-0.3117,-129.79976176261712
-0.3107000000000001,-127.53622368283307
-0.3097,-125.18780292505707
-0.3087000000000001,-123.00914752326493
-0.3077,-120.85878634747009
-0.3067000000000001,-118.82160207566443
-0.30569999999999997,-116.77027069086012
-0.3047000000000001,-114.76138064505177
-0.30369999999999997,-112.66760792125153
-0.3027000000000001,-110.65871787544317
-0.30169999999999997,-108.60738649063886
-0.3007000000000001,-106.47117242784265
-0.29969999999999997,-104.33495836504645
-0.2987000000000001,-102.19874430225026
-0.29769999999999996,-100.02008890045809
-0.2967000000000001,-97.84143349866595
-0.29569999999999996,-95.74766077486568
-0.2947000000000001,-93.65388805106544
-0.29369999999999996,-91.68743934425302
-0.29270000000000007,-89.76343197643658
-0.29169999999999996,-87.79698326962418
-0.29070000000000007,-85.97200569279828
-0.28969999999999996,-84.18946945496833
-0.28870000000000007,-82.30790342614785
-0.28769999999999996,-80.42633739732734
-0.28670000000000007,-78.55891848150549
-0.28569999999999995,-76.67735245268499
-0.28470000000000006,-74.66846240687663
-0.28369999999999995,-72.75860215205884
-0.28270000000000006,-70.8345947842424
-0.28169999999999995,-68.82570473843404
-0.28070000000000006,-66.91584448361623
-0.27969999999999995,-65.03427845479574
-0.27870000000000006,-63.251742216965795
-0.27769999999999995,-61.53994154412909
-0.27670000000000006,-59.7998466452951
-0.27569999999999995,-58.14463442445301
-0.27470000000000006,-56.53186354260687
-0.27369999999999994,-54.834209982768826
-0.27270000000000005,-53.16485064892808
-0.27169999999999994,-51.46719708909004
-0.27070000000000005,-49.76954352925199
-0.26969999999999994,-47.987007291422046
-0.26870000000000005,-46.19032394059345
-0.26769999999999994,-44.45022904175945
