Jan. 15, 2025   23:04:42
Cyclic Voltammetry
File: c:/users/guazh/data/banditlqround7_x0exp772_r5/2025-01-10-exp857\exp857-2025-01-15t22_59_49-arkoh\exp857_cv_50mvs_efin_-1400mv.bin
Data Source:  Experiment
Instrument Model:  CHI760E
Header: CV ran at 50 mVs
Note: 

Init E (V) = -1
High E (V) = -1
Low E (V) = -1.4
Final E (V) = -1
Init P/N = N
Scan Rate (V/s) = 0.05
Segment = 7
Sample Interval (V) = 0.001
Quiet Time (sec) = 60
Sensitivity (A/V) = 0.001
Comp R (ohm) = 1.6

Results:

Channel 1:
Segment 1:
Ep = -1.310V
ip = 1.725e-3A
Ah = 2.234e-3C

Segment 2:
Ep = -1.044V
ip = -5.460e-4A
Ah = -9.439e-4C

Segment 3:
Ep = -1.278V
ip = 5.023e-4A
Ah = 5.264e-4C

Segment 4:
Ep = -1.031V
ip = -5.354e-4A
Ah = -1.039e-3C

Segment 5:
Ep = -1.276V
ip = 4.285e-4A
Ah = 4.661e-4C

Segment 6:
Ep = -1.027V
ip = -5.265e-4A
Ah = -1.061e-3C

Segment 7:

Potential/V, Current/A

-1.000, -5.609e-6
-1.001, 4.448e-6
-1.002, 1.025e-5
-1.003, 1.541e-5
-1.004, 1.983e-5
-1.005, 2.243e-5
-1.006, 2.439e-5
-1.007, 2.707e-5
-1.008, 3.022e-5
-1.009, 3.321e-5
-1.010, 3.483e-5
-1.011, 3.588e-5
-1.012, 3.784e-5
-1.013, 4.055e-5
-1.014, 4.297e-5
-1.015, 4.427e-5
-1.016, 4.491e-5
-1.017, 4.658e-5
-1.018, 4.908e-5
-1.019, 5.127e-5
-1.020, 5.212e-5
-1.021, 5.270e-5
-1.022, 5.422e-5
-1.023, 5.679e-5
-1.024, 5.882e-5
-1.025, 5.955e-5
-1.026, 6.011e-5
-1.027, 6.127e-5
-1.028, 6.337e-5
-1.029, 6.529e-5
-1.030, 6.591e-5
-1.031, 6.630e-5
-1.032, 6.769e-5
-1.033, 6.973e-5
-1.034, 7.180e-5
-1.035, 7.232e-5
-1.036, 7.308e-5
-1.037, 7.421e-5
-1.038, 7.615e-5
-1.039, 7.831e-5
-1.040, 7.883e-5
-1.041, 7.926e-5
-1.042, 8.043e-5
-1.043, 8.263e-5
-1.044, 8.469e-5
-1.045, 8.521e-5
-1.046, 8.559e-5
-1.047, 8.693e-5
-1.048, 8.906e-5
-1.049, 9.096e-5
-1.050, 9.172e-5
-1.051, 9.225e-5
-1.052, 9.383e-5
-1.053, 9.595e-5
-1.054, 9.784e-5
-1.055, 9.860e-5
-1.056, 9.888e-5
-1.057, 1.003e-4
-1.058, 1.026e-4
-1.059, 1.043e-4
-1.060, 1.052e-4
-1.061, 1.054e-4
-1.062, 1.066e-4
-1.063, 1.089e-4
-1.064, 1.108e-4
-1.065, 1.118e-4
-1.066, 1.125e-4
-1.067, 1.138e-4
-1.068, 1.161e-4
-1.069, 1.183e-4
-1.070, 1.193e-4
-1.071, 1.200e-4
-1.072, 1.212e-4
-1.073, 1.237e-4
-1.074, 1.259e-4
-1.075, 1.269e-4
-1.076, 1.276e-4
-1.077, 1.291e-4
-1.078, 1.315e-4
-1.079, 1.339e-4
-1.080, 1.349e-4
-1.081, 1.358e-4
-1.082, 1.374e-4
-1.083, 1.400e-4
-1.084, 1.425e-4
-1.085, 1.436e-4
-1.086, 1.448e-4
-1.087, 1.466e-4
-1.088, 1.491e-4
-1.089, 1.518e-4
-1.090, 1.534e-4
-1.091, 1.540e-4
-1.092, 1.561e-4
-1.093, 1.588e-4
-1.094, 1.614e-4
-1.095, 1.631e-4
-1.096, 1.641e-4
-1.097, 1.665e-4
-1.098, 1.696e-4
-1.099, 1.722e-4
-1.100, 1.737e-4
-1.101, 1.746e-4
-1.102, 1.768e-4
-1.103, 1.804e-4
-1.104, 1.833e-4
-1.105, 1.851e-4
-1.106, 1.864e-4
-1.107, 1.889e-4
-1.108, 1.920e-4
-1.109, 1.946e-4
-1.110, 1.962e-4
-1.111, 1.979e-4
-1.112, 2.001e-4
-1.113, 2.038e-4
-1.114, 2.071e-4
-1.115, 2.090e-4
-1.116, 2.107e-4
-1.117, 2.132e-4
-1.118, 2.165e-4
-1.119, 2.199e-4
-1.120, 2.220e-4
-1.121, 2.239e-4
-1.122, 2.268e-4
-1.123, 2.305e-4
-1.124, 2.343e-4
-1.125, 2.365e-4
-1.126, 2.387e-4
-1.127, 2.412e-4
-1.128, 2.449e-4
-1.129, 2.487e-4
-1.130, 2.511e-4
-1.131, 2.532e-4
-1.132, 2.566e-4
-1.133, 2.610e-4
-1.134, 2.651e-4
-1.135, 2.672e-4
-1.136, 2.688e-4
-1.137, 2.720e-4
-1.138, 2.763e-4
-1.139, 2.802e-4
-1.140, 2.830e-4
-1.141, 2.857e-4
-1.142, 2.892e-4
-1.143, 2.937e-4
-1.144, 2.970e-4
-1.145, 3.000e-4
-1.146, 3.030e-4
-1.147, 3.059e-4
-1.148, 3.106e-4
-1.149, 3.155e-4
-1.150, 3.188e-4
-1.151, 3.215e-4
-1.152, 3.251e-4
-1.153, 3.303e-4
-1.154, 3.346e-4
-1.155, 3.378e-4
-1.156, 3.412e-4
-1.157, 3.451e-4
-1.158, 3.504e-4
-1.159, 3.550e-4
-1.160, 3.583e-4
-1.161, 3.617e-4
-1.162, 3.654e-4
-1.163, 3.708e-4
-1.164, 3.761e-4
-1.165, 3.798e-4
-1.166, 3.834e-4
-1.167, 3.879e-4
-1.168, 3.935e-4
-1.169, 3.991e-4
-1.170, 4.032e-4
-1.171, 4.070e-4
-1.172, 4.119e-4
-1.173, 4.179e-4
-1.174, 4.235e-4
-1.175, 4.282e-4
-1.176, 4.324e-4
-1.177, 4.377e-4
-1.178, 4.441e-4
-1.179, 4.499e-4
-1.180, 4.549e-4
-1.181, 4.594e-4
-1.182, 4.648e-4
-1.183, 4.717e-4
-1.184, 4.783e-4
-1.185, 4.839e-4
-1.186, 4.892e-4
-1.187, 4.949e-4
-1.188, 5.025e-4
-1.189, 5.092e-4
-1.190, 5.141e-4
-1.191, 5.198e-4
-1.192, 5.258e-4
-1.193, 5.332e-4
-1.194, 5.406e-4
-1.195, 5.466e-4
-1.196, 5.528e-4
-1.197, 5.592e-4
-1.198, 5.667e-4
-1.199, 5.747e-4
-1.200, 5.809e-4
-1.201, 5.873e-4
-1.202, 5.946e-4
-1.203, 6.031e-4
-1.204, 6.113e-4
-1.205, 6.186e-4
-1.206, 6.256e-4
-1.207, 6.335e-4
-1.208, 6.430e-4
-1.209, 6.511e-4
-1.210, 6.585e-4
-1.211, 6.656e-4
-1.212, 6.749e-4
-1.213, 6.841e-4
-1.214, 6.928e-4
-1.215, 7.009e-4
-1.216, 7.086e-4
-1.217, 7.169e-4
-1.218, 7.270e-4
-1.219, 7.369e-4
-1.220, 7.459e-4
-1.221, 7.544e-4
-1.222, 7.643e-4
-1.223, 7.756e-4
-1.224, 7.861e-4
-1.225, 7.956e-4
-1.226, 8.049e-4
-1.227, 8.151e-4
-1.228, 8.268e-4
-1.229, 8.391e-4
-1.230, 8.490e-4
-1.231, 8.590e-4
-1.232, 8.697e-4
-1.233, 8.820e-4
-1.234, 8.946e-4
-1.235, 9.054e-4
-1.236, 9.161e-4
-1.237, 9.276e-4
-1.238, 9.415e-4
-1.239, 9.551e-4
-1.240, 9.669e-4
-1.241, 9.787e-4
-1.242, 9.911e-4
-1.243, 1.005e-3
-1.244, 1.020e-3
-1.245, 1.033e-3
-1.246, 1.046e-3
-1.247, 1.060e-3
-1.248, 1.075e-3
-1.249, 1.091e-3
-1.250, 1.106e-3
-1.251, 1.120e-3
-1.252, 1.136e-3
-1.253, 1.153e-3
-1.254, 1.170e-3
-1.255, 1.185e-3
-1.256, 1.201e-3
-1.257, 1.218e-3
-1.258, 1.236e-3
-1.259, 1.254e-3
-1.260, 1.272e-3
-1.261, 1.288e-3
-1.262, 1.307e-3
-1.263, 1.327e-3
-1.264, 1.347e-3
-1.265, 1.366e-3
-1.266, 1.384e-3
-1.267, 1.404e-3
-1.268, 1.426e-3
-1.269, 1.447e-3
-1.270, 1.466e-3
-1.271, 1.486e-3
-1.272, 1.507e-3
-1.273, 1.530e-3
-1.274, 1.553e-3
-1.275, 1.574e-3
-1.276, 1.594e-3
-1.277, 1.615e-3
-1.278, 1.639e-3
-1.279, 1.662e-3
-1.280, 1.685e-3
-1.281, 1.706e-3
-1.282, 1.728e-3
-1.283, 1.752e-3
-1.284, 1.775e-3
-1.285, 1.797e-3
-1.286, 1.817e-3
-1.287, 1.839e-3
-1.288, 1.862e-3
-1.289, 1.885e-3
-1.290, 1.906e-3
-1.291, 1.927e-3
-1.292, 1.948e-3
-1.293, 1.969e-3
-1.294, 1.989e-3
-1.295, 2.009e-3
-1.296, 2.026e-3
-1.297, 2.044e-3
-1.298, 2.062e-3
-1.299, 2.079e-3
-1.300, 2.094e-3
-1.301, 2.106e-3
-1.302, 2.119e-3
-1.303, 2.131e-3
-1.304, 2.143e-3
-1.305, 2.152e-3
-1.306, 2.159e-3
-1.307, 2.166e-3
-1.308, 2.172e-3
-1.309, 2.176e-3
-1.310, 2.177e-3
-1.311, 2.175e-3
-1.312, 2.172e-3
-1.313, 2.169e-3
-1.314, 2.163e-3
-1.315, 2.154e-3
-1.316, 2.142e-3
-1.317, 2.132e-3
-1.318, 2.119e-3
-1.319, 2.105e-3
-1.320, 2.086e-3
-1.321, 2.067e-3
-1.322, 2.047e-3
-1.323, 2.027e-3
-1.324, 2.005e-3
-1.325, 1.980e-3
-1.326, 1.955e-3
-1.327, 1.929e-3
-1.328, 1.905e-3
-1.329, 1.881e-3
-1.330, 1.856e-3
-1.331, 1.830e-3
-1.332, 1.807e-3
-1.333, 1.787e-3
-1.334, 1.766e-3
-1.335, 1.744e-3
-1.336, 1.722e-3
-1.337, 1.703e-3
-1.338, 1.686e-3
-1.339, 1.669e-3
-1.340, 1.650e-3
-1.341, 1.632e-3
-1.342, 1.616e-3
-1.343, 1.602e-3
-1.344, 1.586e-3
-1.345, 1.569e-3
-1.346, 1.552e-3
-1.347, 1.537e-3
-1.348, 1.524e-3
-1.349, 1.509e-3
-1.350, 1.493e-3
-1.351, 1.478e-3
-1.352, 1.464e-3
-1.353, 1.451e-3
-1.354, 1.439e-3
-1.355, 1.425e-3
-1.356, 1.412e-3
-1.357, 1.400e-3
-1.358, 1.390e-3
-1.359, 1.380e-3
-1.360, 1.368e-3
-1.361, 1.355e-3
-1.362, 1.345e-3
-1.363, 1.337e-3
-1.364, 1.329e-3
-1.365, 1.319e-3
-1.366, 1.310e-3
-1.367, 1.302e-3
-1.368, 1.295e-3
-1.369, 1.289e-3
-1.370, 1.282e-3
-1.371, 1.275e-3
-1.372, 1.270e-3
-1.373, 1.266e-3
-1.374, 1.263e-3
-1.375, 1.257e-3
-1.376, 1.252e-3
-1.377, 1.248e-3
-1.378, 1.248e-3
-1.379, 1.247e-3
-1.380, 1.245e-3
-1.381, 1.243e-3
-1.382, 1.244e-3
-1.383, 1.246e-3
-1.384, 1.248e-3
-1.385, 1.248e-3
-1.386, 1.250e-3
-1.387, 1.253e-3
-1.388, 1.259e-3
-1.389, 1.266e-3
-1.390, 1.270e-3
-1.391, 1.274e-3
-1.392, 1.282e-3
-1.393, 1.291e-3
-1.394, 1.301e-3
-1.395, 1.308e-3
-1.396, 1.316e-3
-1.397, 1.325e-3
-1.398, 1.338e-3
-1.399, 1.351e-3
-1.400, 1.309e-3
-1.399, 1.254e-3
-1.398, 1.217e-3
-1.397, 1.187e-3
-1.396, 1.156e-3
-1.395, 1.125e-3
-1.394, 1.095e-3
-1.393, 1.068e-3
-1.392, 1.043e-3
-1.391, 1.018e-3
-1.390, 9.917e-4
-1.389, 9.660e-4
-1.388, 9.427e-4
-1.387, 9.208e-4
-1.386, 8.995e-4
-1.385, 8.762e-4
-1.384, 8.534e-4
-1.383, 8.339e-4
-1.382, 8.146e-4
-1.381, 7.959e-4
-1.380, 7.755e-4
-1.379, 7.556e-4
-1.378, 7.373e-4
-1.377, 7.195e-4
-1.376, 7.036e-4
-1.375, 6.850e-4
-1.374, 6.664e-4
-1.373, 6.504e-4
-1.372, 6.359e-4
-1.371, 6.208e-4
-1.370, 6.041e-4
-1.369, 5.868e-4
-1.368, 5.730e-4
-1.367, 5.602e-4
-1.366, 5.472e-4
-1.365, 5.332e-4
-1.364, 5.172e-4
-1.363, 5.042e-4
-1.362, 4.936e-4
-1.361, 4.818e-4
-1.360, 4.680e-4
-1.359, 4.542e-4
-1.358, 4.426e-4
-1.357, 4.327e-4
-1.356, 4.209e-4
-1.355, 4.087e-4
-1.354, 3.971e-4
-1.353, 3.862e-4
-1.352, 3.771e-4
-1.351, 3.676e-4
-1.350, 3.559e-4
-1.349, 3.444e-4
-1.348, 3.350e-4
-1.347, 3.272e-4
-1.346, 3.180e-4
-1.345, 3.070e-4
-1.344, 2.969e-4
-1.343, 2.886e-4
-1.342, 2.809e-4
-1.341, 2.728e-4
-1.340, 2.633e-4
-1.339, 2.539e-4
-1.338, 2.460e-4
-1.337, 2.396e-4
-1.336, 2.324e-4
-1.335, 2.240e-4
-1.334, 2.150e-4
-1.333, 2.087e-4
-1.332, 2.031e-4
-1.331, 1.970e-4
-1.330, 1.890e-4
-1.329, 1.804e-4
-1.328, 1.747e-4
-1.327, 1.697e-4
-1.326, 1.641e-4
-1.325, 1.572e-4
-1.324, 1.496e-4
-1.323, 1.441e-4
-1.322, 1.401e-4
-1.321, 1.353e-4
-1.320, 1.289e-4
-1.319, 1.221e-4
-1.318, 1.173e-4
-1.317, 1.139e-4
-1.316, 1.096e-4
-1.315, 1.034e-4
-1.314, 9.747e-5
-1.313, 9.302e-5
-1.312, 9.027e-5
-1.311, 8.639e-5
-1.310, 8.070e-5
-1.309, 7.536e-5
-1.308, 7.151e-5
-1.307, 6.889e-5
-1.306, 6.545e-5
-1.305, 6.024e-5
-1.304, 5.521e-5
-1.303, 5.212e-5
-1.302, 4.989e-5
-1.301, 4.679e-5
-1.300, 4.201e-5
-1.299, 3.712e-5
-1.298, 3.466e-5
-1.297, 3.264e-5
-1.296, 3.011e-5
-1.295, 2.573e-5
-1.294, 2.092e-5
-1.293, 1.865e-5
-1.292, 1.739e-5
-1.291, 1.497e-5
-1.290, 1.085e-5
-1.289, 6.601e-6
-1.288, 4.647e-6
-1.287, 3.427e-6
-1.286, 1.072e-6
-1.285, -2.666e-6
-1.284, -6.497e-6
-1.283, -8.369e-6
-1.282, -9.255e-6
-1.281, -1.147e-5
-1.280, -1.525e-5
-1.279, -1.857e-5
-1.278, -2.029e-5
-1.277, -2.087e-5
-1.276, -2.261e-5
-1.275, -2.628e-5
-1.274, -2.960e-5
-1.273, -3.093e-5
-1.272, -3.138e-5
-1.271, -3.296e-5
-1.270, -3.646e-5
-1.269, -3.935e-5
-1.268, -4.084e-5
-1.267, -4.135e-5
-1.266, -4.289e-5
-1.265, -4.625e-5
-1.264, -4.894e-5
-1.263, -5.022e-5
-1.262, -5.076e-5
-1.261, -5.190e-5
-1.260, -5.502e-5
-1.259, -5.795e-5
-1.258, -5.915e-5
-1.257, -5.967e-5
-1.256, -6.079e-5
-1.255, -6.404e-5
-1.254, -6.695e-5
-1.253, -6.770e-5
-1.252, -6.821e-5
-1.251, -6.936e-5
-1.250, -7.227e-5
-1.249, -7.544e-5
-1.248, -7.625e-5
-1.247, -7.659e-5
-1.246, -7.790e-5
-1.245, -8.069e-5
-1.244, -8.348e-5
-1.243, -8.471e-5
-1.242, -8.475e-5
-1.241, -8.641e-5
-1.240, -8.920e-5
-1.239, -9.197e-5
-1.238, -9.326e-5
-1.237, -9.320e-5
-1.236, -9.465e-5
-1.235, -9.781e-5
-1.234, -1.005e-4
-1.233, -1.020e-4
-1.232, -1.019e-4
-1.231, -1.034e-4
-1.230, -1.066e-4
-1.229, -1.104e-4
-1.228, -1.110e-4
-1.227, -1.113e-4
-1.226, -1.125e-4
-1.225, -1.160e-4
-1.224, -1.187e-4
-1.223, -1.201e-4
-1.222, -1.205e-4
-1.221, -1.220e-4
-1.220, -1.254e-4
-1.219, -1.284e-4
-1.218, -1.297e-4
-1.217, -1.305e-4
-1.216, -1.320e-4
-1.215, -1.357e-4
-1.214, -1.389e-4
-1.213, -1.403e-4
-1.212, -1.411e-4
-1.211, -1.431e-4
-1.210, -1.464e-4
-1.209, -1.501e-4
-1.208, -1.515e-4
-1.207, -1.525e-4
-1.206, -1.547e-4
-1.205, -1.582e-4
-1.204, -1.621e-4
-1.203, -1.640e-4
-1.202, -1.649e-4
-1.201, -1.675e-4
-1.200, -1.711e-4
-1.199, -1.749e-4
-1.198, -1.775e-4
-1.197, -1.784e-4
-1.196, -1.812e-4
-1.195, -1.855e-4
-1.194, -1.892e-4
-1.193, -1.918e-4
-1.192, -1.929e-4
-1.191, -1.960e-4
-1.190, -2.010e-4
-1.189, -2.049e-4
-1.188, -2.078e-4
-1.187, -2.096e-4
-1.186, -2.126e-4
-1.185, -2.175e-4
-1.184, -2.217e-4
-1.183, -2.246e-4
-1.182, -2.270e-4
-1.181, -2.304e-4
-1.180, -2.359e-4
-1.179, -2.408e-4
-1.178, -2.446e-4
-1.177, -2.473e-4
-1.176, -2.510e-4
-1.175, -2.567e-4
-1.174, -2.624e-4
-1.173, -2.658e-4
-1.172, -2.690e-4
-1.171, -2.739e-4
-1.170, -2.798e-4
-1.169, -2.859e-4
-1.168, -2.900e-4
-1.167, -2.937e-4
-1.166, -2.990e-4
-1.165, -3.062e-4
-1.164, -3.125e-4
-1.163, -3.176e-4
-1.162, -3.215e-4
-1.161, -3.274e-4
-1.160, -3.345e-4
-1.159, -3.416e-4
-1.158, -3.471e-4
-1.157, -3.516e-4
-1.156, -3.579e-4
-1.155, -3.661e-4
-1.154, -3.735e-4
-1.153, -3.795e-4
-1.152, -3.842e-4
-1.151, -3.902e-4
-1.150, -3.987e-4
-1.149, -4.063e-4
-1.148, -4.127e-4
-1.147, -4.181e-4
-1.146, -4.245e-4
-1.145, -4.329e-4
-1.144, -4.401e-4
-1.143, -4.460e-4
-1.142, -4.510e-4
-1.141, -4.580e-4
-1.140, -4.665e-4
-1.139, -4.746e-4
-1.138, -4.807e-4
-1.137, -4.865e-4
-1.136, -4.933e-4
-1.135, -5.020e-4
-1.134, -5.103e-4
-1.133, -5.168e-4
-1.132, -5.226e-4
-1.131, -5.299e-4
-1.130, -5.388e-4
-1.129, -5.474e-4
-1.128, -5.542e-4
-1.127, -5.604e-4
-1.126, -5.677e-4
-1.125, -5.764e-4
-1.124, -5.851e-4
-1.123, -5.918e-4
-1.122, -5.974e-4
-1.121, -6.046e-4
-1.120, -6.132e-4
-1.119, -6.218e-4
-1.118, -6.286e-4
-1.117, -6.346e-4
-1.116, -6.416e-4
-1.115, -6.502e-4
-1.114, -6.586e-4
-1.113, -6.656e-4
-1.112, -6.711e-4
-1.111, -6.784e-4
-1.110, -6.868e-4
-1.109, -6.944e-4
-1.108, -7.009e-4
-1.107, -7.063e-4
-1.106, -7.132e-4
-1.105, -7.218e-4
-1.104, -7.292e-4
-1.103, -7.353e-4
-1.102, -7.408e-4
-1.101, -7.475e-4
-1.100, -7.557e-4
-1.099, -7.630e-4
-1.098, -7.684e-4
-1.097, -7.732e-4
-1.096, -7.795e-4
-1.095, -7.881e-4
-1.094, -7.957e-4
-1.093, -8.024e-4
-1.092, -8.067e-4
-1.091, -8.129e-4
-1.090, -8.198e-4
-1.089, -8.267e-4
-1.088, -8.318e-4
-1.087, -8.357e-4
-1.086, -8.413e-4
-1.085, -8.478e-4
-1.084, -8.546e-4
-1.083, -8.588e-4
-1.082, -8.621e-4
-1.081, -8.673e-4
-1.080, -8.736e-4
-1.079, -8.794e-4
-1.078, -8.845e-4
-1.077, -8.872e-4
-1.076, -8.923e-4
-1.075, -8.985e-4
-1.074, -9.037e-4
-1.073, -9.066e-4
-1.072, -9.085e-4
-1.071, -9.131e-4
-1.070, -9.191e-4
-1.069, -9.241e-4
-1.068, -9.265e-4
-1.067, -9.285e-4
-1.066, -9.314e-4
-1.065, -9.358e-4
-1.064, -9.396e-4
-1.063, -9.415e-4
-1.062, -9.431e-4
-1.061, -9.452e-4
-1.060, -9.492e-4
-1.059, -9.527e-4
-1.058, -9.535e-4
-1.057, -9.544e-4
-1.056, -9.571e-4
-1.055, -9.615e-4
-1.054, -9.641e-4
-1.053, -9.639e-4
-1.052, -9.634e-4
-1.051, -9.650e-4
-1.050, -9.672e-4
-1.049, -9.688e-4
-1.048, -9.685e-4
-1.047, -9.685e-4
-1.046, -9.696e-4
-1.045, -9.698e-4
-1.044, -9.707e-4
-1.043, -9.700e-4
-1.042, -9.683e-4
-1.041, -9.676e-4
-1.040, -9.682e-4
-1.039, -9.683e-4
-1.038, -9.667e-4
-1.037, -9.650e-4
-1.036, -9.640e-4
-1.035, -9.641e-4
-1.034, -9.638e-4
-1.033, -9.622e-4
-1.032, -9.584e-4
-1.031, -9.576e-4
-1.030, -9.570e-4
-1.029, -9.554e-4
-1.028, -9.520e-4
-1.027, -9.486e-4
-1.026, -9.461e-4
-1.025, -9.457e-4
-1.024, -9.431e-4
-1.023, -9.386e-4
-1.022, -9.340e-4
-1.021, -9.310e-4
-1.020, -9.295e-4
-1.019, -9.264e-4
-1.018, -9.220e-4
-1.017, -9.184e-4
-1.016, -9.149e-4
-1.015, -9.127e-4
-1.014, -9.090e-4
-1.013, -9.042e-4
-1.012, -8.991e-4
-1.011, -8.951e-4
-1.010, -8.917e-4
-1.009, -8.880e-4
-1.008, -8.828e-4
-1.007, -8.772e-4
-1.006, -8.727e-4
-1.005, -8.698e-4
-1.004, -8.662e-4
-1.003, -8.608e-4
-1.002, -8.543e-4
-1.001, -8.505e-4
-1.000, -8.024e-4
-1.001, -7.389e-4
-1.002, -6.936e-4
-1.003, -6.553e-4
-1.004, -6.237e-4
-1.005, -5.961e-4
-1.006, -5.704e-4
-1.007, -5.453e-4
-1.008, -5.222e-4
-1.009, -5.007e-4
-1.010, -4.818e-4
-1.011, -4.633e-4
-1.012, -4.443e-4
-1.013, -4.269e-4
-1.014, -4.112e-4
-1.015, -3.970e-4
-1.016, -3.825e-4
-1.017, -3.677e-4
-1.018, -3.530e-4
-1.019, -3.407e-4
-1.020, -3.297e-4
-1.021, -3.185e-4
-1.022, -3.063e-4
-1.023, -2.944e-4
-1.024, -2.845e-4
-1.025, -2.752e-4
-1.026, -2.658e-4
-1.027, -2.554e-4
-1.028, -2.451e-4
-1.029, -2.365e-4
-1.030, -2.289e-4
-1.031, -2.206e-4
-1.032, -2.117e-4
-1.033, -2.028e-4
-1.034, -1.955e-4
-1.035, -1.892e-4
-1.036, -1.819e-4
-1.037, -1.739e-4
-1.038, -1.660e-4
-1.039, -1.593e-4
-1.040, -1.539e-4
-1.041, -1.475e-4
-1.042, -1.400e-4
-1.043, -1.328e-4
-1.044, -1.271e-4
-1.045, -1.220e-4
-1.046, -1.162e-4
-1.047, -1.093e-4
-1.048, -1.027e-4
-1.049, -9.748e-5
-1.050, -9.290e-5
-1.051, -8.774e-5
-1.052, -8.120e-5
-1.053, -7.519e-5
-1.054, -7.051e-5
-1.055, -6.629e-5
-1.056, -6.171e-5
-1.057, -5.557e-5
-1.058, -4.983e-5
-1.059, -4.536e-5
-1.060, -4.150e-5
-1.061, -3.728e-5
-1.062, -3.152e-5
-1.063, -2.593e-5
-1.064, -2.217e-5
-1.065, -1.860e-5
-1.066, -1.449e-5
-1.067, -9.232e-6
-1.068, -3.876e-6
-1.069, -3.435e-7
-1.070, 2.836e-6
-1.071, 6.897e-6
-1.072, 1.193e-5
-1.073, 1.700e-5
-1.074, 2.034e-5
-1.075, 2.360e-5
-1.076, 2.742e-5
-1.077, 3.206e-5
-1.078, 3.663e-5
-1.079, 4.009e-5
-1.080, 4.252e-5
-1.081, 4.617e-5
-1.082, 5.111e-5
-1.083, 5.553e-5
-1.084, 5.868e-5
-1.085, 6.094e-5
-1.086, 6.441e-5
-1.087, 6.922e-5
-1.088, 7.345e-5
-1.089, 7.652e-5
-1.090, 7.889e-5
-1.091, 8.203e-5
-1.092, 8.673e-5
-1.093, 9.037e-5
-1.094, 9.335e-5
-1.095, 9.568e-5
-1.096, 9.856e-5
-1.097, 1.032e-4
-1.098, 1.073e-4
-1.099, 1.100e-4
-1.100, 1.120e-4
-1.101, 1.149e-4
-1.102, 1.193e-4
-1.103, 1.235e-4
-1.104, 1.260e-4
-1.105, 1.282e-4
-1.106, 1.313e-4
-1.107, 1.357e-4
-1.108, 1.396e-4
-1.109, 1.417e-4
-1.110, 1.437e-4
-1.111, 1.468e-4
-1.112, 1.507e-4
-1.113, 1.547e-4
-1.114, 1.572e-4
-1.115, 1.590e-4
-1.116, 1.622e-4
-1.117, 1.665e-4
-1.118, 1.699e-4
-1.119, 1.725e-4
-1.120, 1.744e-4
-1.121, 1.776e-4
-1.122, 1.821e-4
-1.123, 1.859e-4
-1.124, 1.885e-4
-1.125, 1.903e-4
-1.126, 1.932e-4
-1.127, 1.976e-4
-1.128, 2.012e-4
-1.129, 2.038e-4
-1.130, 2.057e-4
-1.131, 2.089e-4
-1.132, 2.134e-4
-1.133, 2.172e-4
-1.134, 2.198e-4
-1.135, 2.219e-4
-1.136, 2.251e-4
-1.137, 2.298e-4
-1.138, 2.340e-4
-1.139, 2.367e-4
-1.140, 2.391e-4
-1.141, 2.422e-4
-1.142, 2.466e-4
-1.143, 2.506e-4
-1.144, 2.531e-4
-1.145, 2.558e-4
-1.146, 2.596e-4
-1.147, 2.644e-4
-1.148, 2.693e-4
-1.149, 2.723e-4
-1.150, 2.743e-4
-1.151, 2.776e-4
-1.152, 2.825e-4
-1.153, 2.869e-4
-1.154, 2.900e-4
-1.155, 2.924e-4
-1.156, 2.966e-4
-1.157, 3.013e-4
-1.158, 3.060e-4
-1.159, 3.093e-4
-1.160, 3.117e-4
-1.161, 3.161e-4
-1.162, 3.212e-4
-1.163, 3.261e-4
-1.164, 3.298e-4
-1.165, 3.328e-4
-1.166, 3.370e-4
-1.167, 3.428e-4
-1.168, 3.475e-4
-1.169, 3.515e-4
-1.170, 3.547e-4
-1.171, 3.591e-4
-1.172, 3.653e-4
-1.173, 3.709e-4
-1.174, 3.750e-4
-1.175, 3.788e-4
-1.176, 3.834e-4
-1.177, 3.893e-4
-1.178, 3.951e-4
-1.179, 3.993e-4
-1.180, 4.035e-4
-1.181, 4.090e-4
-1.182, 4.161e-4
-1.183, 4.225e-4
-1.184, 4.264e-4
-1.185, 4.301e-4
-1.186, 4.349e-4
-1.187, 4.422e-4
-1.188, 4.484e-4
-1.189, 4.533e-4
-1.190, 4.573e-4
-1.191, 4.633e-4
-1.192, 4.703e-4
-1.193, 4.771e-4
-1.194, 4.824e-4
-1.195, 4.871e-4
-1.196, 4.936e-4
-1.197, 5.009e-4
-1.198, 5.081e-4
-1.199, 5.140e-4
-1.200, 5.191e-4
-1.201, 5.261e-4
-1.202, 5.341e-4
-1.203, 5.417e-4
-1.204, 5.477e-4
-1.205, 5.529e-4
-1.206, 5.598e-4
-1.207, 5.683e-4
-1.208, 5.765e-4
-1.209, 5.831e-4
-1.210, 5.888e-4
-1.211, 5.962e-4
-1.212, 6.055e-4
-1.213, 6.140e-4
-1.214, 6.210e-4
-1.215, 6.281e-4
-1.216, 6.364e-4
-1.217, 6.460e-4
-1.218, 6.546e-4
-1.219, 6.618e-4
-1.220, 6.695e-4
-1.221, 6.781e-4
-1.222, 6.882e-4
-1.223, 6.977e-4
-1.224, 7.047e-4
-1.225, 7.121e-4
-1.226, 7.213e-4
-1.227, 7.313e-4
-1.228, 7.423e-4
-1.229, 7.516e-4
-1.230, 7.596e-4
-1.231, 7.694e-4
-1.232, 7.800e-4
-1.233, 7.907e-4
-1.234, 7.994e-4
-1.235, 8.080e-4
-1.236, 8.186e-4
-1.237, 8.297e-4
-1.238, 8.402e-4
-1.239, 8.494e-4
-1.240, 8.578e-4
-1.241, 8.702e-4
-1.242, 8.821e-4
-1.243, 8.938e-4
-1.244, 9.032e-4
-1.245, 9.117e-4
-1.246, 9.228e-4
-1.247, 9.359e-4
-1.248, 9.472e-4
-1.249, 9.564e-4
-1.250, 9.646e-4
-1.251, 9.753e-4
-1.252, 9.876e-4
-1.253, 9.987e-4
-1.254, 1.009e-3
-1.255, 1.018e-3
-1.256, 1.028e-3
-1.257, 1.040e-3
-1.258, 1.051e-3
-1.259, 1.062e-3
-1.260, 1.070e-3
-1.261, 1.078e-3
-1.262, 1.088e-3
-1.263, 1.099e-3
-1.264, 1.107e-3
-1.265, 1.113e-3
-1.266, 1.122e-3
-1.267, 1.130e-3
-1.268, 1.137e-3
-1.269, 1.142e-3
-1.270, 1.146e-3
-1.271, 1.152e-3
-1.272, 1.159e-3
-1.273, 1.164e-3
-1.274, 1.165e-3
-1.275, 1.167e-3
-1.276, 1.169e-3
-1.277, 1.171e-3
-1.278, 1.171e-3
-1.279, 1.169e-3
-1.280, 1.166e-3
-1.281, 1.164e-3
-1.282, 1.161e-3
-1.283, 1.156e-3
-1.284, 1.149e-3
-1.285, 1.142e-3
-1.286, 1.135e-3
-1.287, 1.128e-3
-1.288, 1.116e-3
-1.289, 1.105e-3
-1.290, 1.092e-3
-1.291, 1.081e-3
-1.292, 1.068e-3
-1.293, 1.054e-3
-1.294, 1.039e-3
-1.295, 1.023e-3
-1.296, 1.008e-3
-1.297, 9.939e-4
-1.298, 9.787e-4
-1.299, 9.612e-4
-1.300, 9.444e-4
-1.301, 9.283e-4
-1.302, 9.140e-4
-1.303, 8.988e-4
-1.304, 8.826e-4
-1.305, 8.668e-4
-1.306, 8.515e-4
-1.307, 8.381e-4
-1.308, 8.244e-4
-1.309, 8.088e-4
-1.310, 7.941e-4
-1.311, 7.817e-4
-1.312, 7.704e-4
-1.313, 7.588e-4
-1.314, 7.456e-4
-1.315, 7.331e-4
-1.316, 7.233e-4
-1.317, 7.135e-4
-1.318, 7.040e-4
-1.319, 6.927e-4
-1.320, 6.810e-4
-1.321, 6.726e-4
-1.322, 6.653e-4
-1.323, 6.570e-4
-1.324, 6.480e-4
-1.325, 6.400e-4
-1.326, 6.336e-4
-1.327, 6.284e-4
-1.328, 6.215e-4
-1.329, 6.144e-4
-1.330, 6.077e-4
-1.331, 6.023e-4
-1.332, 5.988e-4
-1.333, 5.944e-4
-1.334, 5.890e-4
-1.335, 5.842e-4
-1.336, 5.813e-4
-1.337, 5.798e-4
-1.338, 5.779e-4
-1.339, 5.739e-4
-1.340, 5.709e-4
-1.341, 5.697e-4
-1.342, 5.706e-4
-1.343, 5.698e-4
-1.344, 5.677e-4
-1.345, 5.668e-4
-1.346, 5.681e-4
-1.347, 5.699e-4
-1.348, 5.718e-4
-1.349, 5.714e-4
-1.350, 5.716e-4
-1.351, 5.745e-4
-1.352, 5.780e-4
-1.353, 5.817e-4
-1.354, 5.835e-4
-1.355, 5.852e-4
-1.356, 5.894e-4
-1.357, 5.948e-4
-1.358, 5.998e-4
-1.359, 6.034e-4
-1.360, 6.076e-4
-1.361, 6.132e-4
-1.362, 6.201e-4
-1.363, 6.263e-4
-1.364, 6.321e-4
-1.365, 6.376e-4
-1.366, 6.452e-4
-1.367, 6.540e-4
-1.368, 6.619e-4
-1.369, 6.683e-4
-1.370, 6.758e-4
-1.371, 6.845e-4
-1.372, 6.948e-4
-1.373, 7.035e-4
-1.374, 7.117e-4
-1.375, 7.210e-4
-1.376, 7.311e-4
-1.377, 7.435e-4
-1.378, 7.542e-4
-1.379, 7.630e-4
-1.380, 7.743e-4
-1.381, 7.872e-4
-1.382, 8.002e-4
-1.383, 8.128e-4
-1.384, 8.229e-4
-1.385, 8.353e-4
-1.386, 8.488e-4
-1.387, 8.634e-4
-1.388, 8.773e-4
-1.389, 8.895e-4
-1.390, 9.032e-4
-1.391, 9.181e-4
-1.392, 9.339e-4
-1.393, 9.503e-4
-1.394, 9.649e-4
-1.395, 9.797e-4
-1.396, 9.960e-4
-1.397, 1.015e-3
-1.398, 1.030e-3
-1.399, 1.046e-3
-1.400, 1.013e-3
-1.399, 9.705e-4
-1.398, 9.459e-4
-1.397, 9.232e-4
-1.396, 9.004e-4
-1.395, 8.788e-4
-1.394, 8.599e-4
-1.393, 8.415e-4
-1.392, 8.236e-4
-1.391, 8.033e-4
-1.390, 7.837e-4
-1.389, 7.676e-4
-1.388, 7.527e-4
-1.387, 7.356e-4
-1.386, 7.172e-4
-1.385, 6.996e-4
-1.384, 6.853e-4
-1.383, 6.699e-4
-1.382, 6.542e-4
-1.381, 6.383e-4
-1.380, 6.230e-4
-1.379, 6.081e-4
-1.378, 5.955e-4
-1.377, 5.818e-4
-1.376, 5.677e-4
-1.375, 5.530e-4
-1.374, 5.397e-4
-1.373, 5.283e-4
-1.372, 5.156e-4
-1.371, 5.015e-4
-1.370, 4.880e-4
-1.369, 4.767e-4
-1.368, 4.667e-4
-1.367, 4.551e-4
-1.366, 4.419e-4
-1.365, 4.296e-4
-1.364, 4.192e-4
-1.363, 4.101e-4
-1.362, 3.998e-4
-1.361, 3.880e-4
-1.360, 3.773e-4
-1.359, 3.680e-4
-1.358, 3.589e-4
-1.357, 3.494e-4
-1.356, 3.382e-4
-1.355, 3.279e-4
-1.354, 3.196e-4
-1.353, 3.125e-4
-1.352, 3.040e-4
-1.351, 2.934e-4
-1.350, 2.838e-4
-1.349, 2.764e-4
-1.348, 2.696e-4
-1.347, 2.620e-4
-1.346, 2.529e-4
-1.345, 2.442e-4
-1.344, 2.375e-4
-1.343, 2.317e-4
-1.342, 2.244e-4
-1.341, 2.162e-4
-1.340, 2.082e-4
-1.339, 2.020e-4
-1.338, 1.970e-4
-1.337, 1.904e-4
-1.336, 1.829e-4
-1.335, 1.757e-4
-1.334, 1.702e-4
-1.333, 1.659e-4
-1.332, 1.598e-4
-1.331, 1.524e-4
-1.330, 1.461e-4
-1.329, 1.411e-4
-1.328, 1.374e-4
-1.327, 1.323e-4
-1.326, 1.252e-4
-1.325, 1.196e-4
-1.324, 1.153e-4
-1.323, 1.119e-4
-1.322, 1.071e-4
-1.321, 1.010e-4
-1.320, 9.595e-5
-1.319, 9.227e-5
-1.318, 8.906e-5
-1.317, 8.492e-5
-1.316, 7.914e-5
-1.315, 7.424e-5
-1.314, 7.128e-5
-1.313, 6.857e-5
-1.312, 6.502e-5
-1.311, 5.981e-5
-1.310, 5.531e-5
-1.309, 5.266e-5
-1.308, 5.042e-5
-1.307, 4.681e-5
-1.306, 4.210e-5
-1.305, 3.796e-5
-1.304, 3.578e-5
-1.303, 3.392e-5
-1.302, 3.050e-5
-1.301, 2.619e-5
-1.300, 2.235e-5
-1.299, 2.010e-5
-1.298, 1.881e-5
-1.297, 1.584e-5
-1.296, 1.206e-5
-1.295, 8.227e-6
-1.294, 6.364e-6
-1.293, 5.250e-6
-1.292, 3.090e-6
-1.291, -9.690e-7
-1.290, -4.140e-6
-1.289, -5.977e-6
-1.288, -6.454e-6
-1.287, -9.159e-6
-1.286, -1.305e-5
-1.285, -1.590e-5
-1.284, -1.741e-5
-1.283, -1.815e-5
-1.282, -1.996e-5
-1.281, -2.351e-5
-1.280, -2.672e-5
-1.279, -2.745e-5
-1.278, -2.818e-5
-1.277, -3.009e-5
-1.276, -3.345e-5
-1.275, -3.630e-5
-1.274, -3.725e-5
-1.273, -3.798e-5
-1.272, -3.951e-5
-1.271, -4.267e-5
-1.270, -4.549e-5
-1.269, -4.602e-5
-1.268, -4.630e-5
-1.267, -4.794e-5
-1.266, -5.106e-5
-1.265, -5.356e-5
-1.264, -5.401e-5
-1.263, -5.405e-5
-1.262, -5.626e-5
-1.261, -5.911e-5
-1.260, -6.146e-5
-1.259, -6.242e-5
-1.258, -6.225e-5
-1.257, -6.417e-5
-1.256, -6.687e-5
-1.255, -6.917e-5
-1.254, -6.986e-5
-1.253, -6.967e-5
-1.252, -7.142e-5
-1.251, -7.446e-5
-1.250, -7.634e-5
-1.249, -7.732e-5
-1.248, -7.702e-5
-1.247, -7.863e-5
-1.246, -8.185e-5
-1.245, -8.372e-5
-1.244, -8.413e-5
-1.243, -8.441e-5
-1.242, -8.597e-5
-1.241, -8.893e-5
-1.240, -9.098e-5
-1.239, -9.171e-5
-1.238, -9.182e-5
-1.237, -9.349e-5
-1.236, -9.656e-5
-1.235, -9.858e-5
-1.234, -9.926e-5
-1.233, -9.946e-5
-1.232, -1.010e-4
-1.231, -1.040e-4
-1.230, -1.064e-4
-1.229, -1.078e-4
-1.228, -1.078e-4
-1.227, -1.094e-4
-1.226, -1.122e-4
-1.225, -1.147e-4
-1.224, -1.153e-4
-1.223, -1.154e-4
-1.222, -1.176e-4
-1.221, -1.207e-4
-1.220, -1.231e-4
-1.219, -1.238e-4
-1.218, -1.243e-4
-1.217, -1.268e-4
-1.216, -1.297e-4
-1.215, -1.325e-4
-1.214, -1.332e-4
-1.213, -1.335e-4
-1.212, -1.358e-4
-1.211, -1.394e-4
-1.210, -1.421e-4
-1.209, -1.432e-4
-1.208, -1.436e-4
-1.207, -1.461e-4
-1.206, -1.498e-4
-1.205, -1.523e-4
-1.204, -1.538e-4
-1.203, -1.547e-4
-1.202, -1.573e-4
-1.201, -1.614e-4
-1.200, -1.639e-4
-1.199, -1.655e-4
-1.198, -1.668e-4
-1.197, -1.697e-4
-1.196, -1.739e-4
-1.195, -1.770e-4
-1.194, -1.785e-4
-1.193, -1.810e-4
-1.192, -1.837e-4
-1.191, -1.878e-4
-1.190, -1.913e-4
-1.189, -1.929e-4
-1.188, -1.947e-4
-1.187, -1.982e-4
-1.186, -2.026e-4
-1.185, -2.066e-4
-1.184, -2.085e-4
-1.183, -2.104e-4
-1.182, -2.143e-4
-1.181, -2.191e-4
-1.180, -2.233e-4
-1.179, -2.259e-4
-1.178, -2.284e-4
-1.177, -2.328e-4
-1.176, -2.380e-4
-1.175, -2.426e-4
-1.174, -2.457e-4
-1.173, -2.483e-4
-1.172, -2.533e-4
-1.171, -2.589e-4
-1.170, -2.638e-4
-1.169, -2.700e-4
-1.168, -2.717e-4
-1.167, -2.768e-4
-1.166, -2.833e-4
-1.165, -2.886e-4
-1.164, -2.927e-4
-1.163, -2.966e-4
-1.162, -3.020e-4
-1.161, -3.090e-4
-1.160, -3.151e-4
-1.159, -3.199e-4
-1.158, -3.242e-4
-1.157, -3.300e-4
-1.156, -3.375e-4
-1.155, -3.437e-4
-1.154, -3.485e-4
-1.153, -3.532e-4
-1.152, -3.607e-4
-1.151, -3.693e-4
-1.150, -3.754e-4
-1.149, -3.792e-4
-1.148, -3.837e-4
-1.147, -3.903e-4
-1.146, -3.981e-4
-1.145, -4.051e-4
-1.144, -4.100e-4
-1.143, -4.146e-4
-1.142, -4.214e-4
-1.141, -4.289e-4
-1.140, -4.359e-4
-1.139, -4.410e-4
-1.138, -4.462e-4
-1.137, -4.532e-4
-1.136, -4.609e-4
-1.135, -4.686e-4
-1.134, -4.748e-4
-1.133, -4.801e-4
-1.132, -4.868e-4
-1.131, -4.944e-4
-1.130, -5.010e-4
-1.129, -5.072e-4
-1.128, -5.126e-4
-1.127, -5.201e-4
-1.126, -5.284e-4
-1.125, -5.356e-4
-1.124, -5.414e-4
-1.123, -5.470e-4
-1.122, -5.537e-4
-1.121, -5.625e-4
-1.120, -5.691e-4
-1.119, -5.751e-4
-1.118, -5.817e-4
-1.117, -5.884e-4
-1.116, -5.962e-4
-1.115, -6.031e-4
-1.114, -6.076e-4
-1.113, -6.130e-4
-1.112, -6.199e-4
-1.111, -6.275e-4
-1.110, -6.353e-4
-1.109, -6.403e-4
-1.108, -6.463e-4
-1.107, -6.528e-4
-1.106, -6.612e-4
-1.105, -6.669e-4
-1.104, -6.717e-4
-1.103, -6.773e-4
-1.102, -6.846e-4
-1.101, -6.921e-4
-1.100, -6.991e-4
-1.099, -7.040e-4
-1.098, -7.088e-4
-1.097, -7.154e-4
-1.096, -7.225e-4
-1.095, -7.288e-4
-1.094, -7.344e-4
-1.093, -7.394e-4
-1.092, -7.446e-4
-1.091, -7.523e-4
-1.090, -7.586e-4
-1.089, -7.625e-4
-1.088, -7.662e-4
-1.087, -7.731e-4
-1.086, -7.801e-4
-1.085, -7.859e-4
-1.084, -7.908e-4
-1.083, -7.949e-4
-1.082, -8.005e-4
-1.081, -8.069e-4
-1.080, -8.160e-4
-1.079, -8.168e-4
-1.078, -8.208e-4
-1.077, -8.268e-4
-1.076, -8.337e-4
-1.075, -8.382e-4
-1.074, -8.403e-4
-1.073, -8.440e-4
-1.072, -8.483e-4
-1.071, -8.543e-4
-1.070, -8.594e-4
-1.069, -8.627e-4
-1.068, -8.651e-4
-1.067, -8.689e-4
-1.066, -8.734e-4
-1.065, -8.782e-4
-1.064, -8.809e-4
-1.063, -8.844e-4
-1.062, -8.873e-4
-1.061, -8.921e-4
-1.060, -8.999e-4
-1.059, -9.004e-4
-1.058, -9.005e-4
-1.057, -9.035e-4
-1.056, -9.077e-4
-1.055, -9.120e-4
-1.054, -9.128e-4
-1.053, -9.128e-4
-1.052, -9.155e-4
-1.051, -9.236e-4
-1.050, -9.251e-4
-1.049, -9.245e-4
-1.048, -9.245e-4
-1.047, -9.262e-4
-1.046, -9.304e-4
-1.045, -9.317e-4
-1.044, -9.317e-4
-1.043, -9.318e-4
-1.042, -9.330e-4
-1.041, -9.365e-4
-1.040, -9.369e-4
-1.039, -9.362e-4
-1.038, -9.354e-4
-1.037, -9.354e-4
-1.036, -9.367e-4
-1.035, -9.362e-4
-1.034, -9.354e-4
-1.033, -9.350e-4
-1.032, -9.366e-4
-1.031, -9.389e-4
-1.030, -9.379e-4
-1.029, -9.347e-4
-1.028, -9.323e-4
-1.027, -9.323e-4
-1.026, -9.331e-4
-1.025, -9.329e-4
-1.024, -9.308e-4
-1.023, -9.291e-4
-1.022, -9.282e-4
-1.021, -9.271e-4
-1.020, -9.257e-4
-1.019, -9.229e-4
-1.018, -9.199e-4
-1.017, -9.182e-4
-1.016, -9.172e-4
-1.015, -9.151e-4
-1.014, -9.114e-4
-1.013, -9.081e-4
-1.012, -9.063e-4
-1.011, -9.042e-4
-1.010, -9.019e-4
-1.009, -8.981e-4
-1.008, -8.948e-4
-1.007, -8.923e-4
-1.006, -8.900e-4
-1.005, -8.865e-4
-1.004, -8.819e-4
-1.003, -8.778e-4
-1.002, -8.749e-4
-1.001, -8.729e-4
-1.000, -8.230e-4
-1.001, -7.569e-4
-1.002, -7.119e-4
-1.003, -6.751e-4
-1.004, -6.435e-4
-1.005, -6.147e-4
-1.006, -5.859e-4
-1.007, -5.599e-4
-1.008, -5.374e-4
-1.009, -5.171e-4
-1.010, -4.967e-4
-1.011, -4.756e-4
-1.012, -4.558e-4
-1.013, -4.389e-4
-1.014, -4.234e-4
-1.015, -4.074e-4
-1.016, -3.913e-4
-1.017, -3.759e-4
-1.018, -3.623e-4
-1.019, -3.505e-4
-1.020, -3.383e-4
-1.021, -3.245e-4
-1.022, -3.112e-4
-1.023, -2.998e-4
-1.024, -2.895e-4
-1.025, -2.791e-4
-1.026, -2.680e-4
-1.027, -2.578e-4
-1.028, -2.487e-4
-1.029, -2.401e-4
-1.030, -2.303e-4
-1.031, -2.199e-4
-1.032, -2.108e-4
-1.033, -2.028e-4
-1.034, -1.960e-4
-1.035, -1.877e-4
-1.036, -1.783e-4
-1.037, -1.700e-4
-1.038, -1.633e-4
-1.039, -1.568e-4
-1.040, -1.499e-4
-1.041, -1.416e-4
-1.042, -1.336e-4
-1.043, -1.277e-4
-1.044, -1.222e-4
-1.045, -1.159e-4
-1.046, -1.084e-4
-1.047, -1.015e-4
-1.048, -9.611e-5
-1.049, -9.112e-5
-1.050, -8.535e-5
-1.051, -7.872e-5
-1.052, -7.201e-5
-1.053, -6.704e-5
-1.054, -6.276e-5
-1.055, -5.725e-5
-1.056, -5.114e-5
-1.057, -4.527e-5
-1.058, -4.086e-5
-1.059, -3.694e-5
-1.060, -3.180e-5
-1.061, -2.597e-5
-1.062, -2.035e-5
-1.063, -1.610e-5
-1.064, -1.263e-5
-1.065, -7.798e-6
-1.066, -2.117e-6
-1.067, 3.002e-6
-1.068, 6.792e-6
-1.069, 9.928e-6
-1.070, 1.436e-5
-1.071, 1.976e-5
-1.072, 2.446e-5
-1.073, 2.807e-5
-1.074, 3.095e-5
-1.075, 3.546e-5
-1.076, 4.036e-5
-1.077, 4.481e-5
-1.078, 4.800e-5
-1.079, 5.084e-5
-1.080, 5.441e-5
-1.081, 5.940e-5
-1.082, 6.381e-5
-1.083, 6.671e-5
-1.084, 6.942e-5
-1.085, 7.281e-5
-1.086, 7.756e-5
-1.087, 8.189e-5
-1.088, 8.448e-5
-1.089, 8.680e-5
-1.090, 9.020e-5
-1.091, 9.478e-5
-1.092, 9.890e-5
-1.093, 1.012e-4
-1.094, 1.035e-4
-1.095, 1.070e-4
-1.096, 1.112e-4
-1.097, 1.151e-4
-1.098, 1.177e-4
-1.099, 1.196e-4
-1.100, 1.230e-4
-1.101, 1.271e-4
-1.102, 1.311e-4
-1.103, 1.337e-4
-1.104, 1.354e-4
-1.105, 1.386e-4
-1.106, 1.429e-4
-1.107, 1.464e-4
-1.108, 1.488e-4
-1.109, 1.505e-4
-1.110, 1.540e-4
-1.111, 1.583e-4
-1.112, 1.617e-4
-1.113, 1.641e-4
-1.114, 1.659e-4
-1.115, 1.690e-4
-1.116, 1.734e-4
-1.117, 1.769e-4
-1.118, 1.791e-4
-1.119, 1.812e-4
-1.120, 1.842e-4
-1.121, 1.884e-4
-1.122, 1.924e-4
-1.123, 1.943e-4
-1.124, 1.966e-4
-1.125, 1.996e-4
-1.126, 2.039e-4
-1.127, 2.078e-4
-1.128, 2.098e-4
-1.129, 2.120e-4
-1.130, 2.152e-4
-1.131, 2.194e-4
-1.132, 2.234e-4
-1.133, 2.257e-4
-1.134, 2.279e-4
-1.135, 2.313e-4
-1.136, 2.356e-4
-1.137, 2.395e-4
-1.138, 2.421e-4
-1.139, 2.441e-4
-1.140, 2.479e-4
-1.141, 2.520e-4
-1.142, 2.559e-4
-1.143, 2.590e-4
-1.144, 2.613e-4
-1.145, 2.651e-4
-1.146, 2.698e-4
-1.147, 2.736e-4
-1.148, 2.761e-4
-1.149, 2.783e-4
-1.150, 2.822e-4
-1.151, 2.875e-4
-1.152, 2.915e-4
-1.153, 2.945e-4
-1.154, 2.972e-4
-1.155, 3.009e-4
-1.156, 3.060e-4
-1.157, 3.103e-4
-1.158, 3.132e-4
-1.159, 3.162e-4
-1.160, 3.201e-4
-1.161, 3.258e-4
-1.162, 3.305e-4
-1.163, 3.337e-4
-1.164, 3.368e-4
-1.165, 3.407e-4
-1.166, 3.464e-4
-1.167, 3.514e-4
-1.168, 3.546e-4
-1.169, 3.579e-4
-1.170, 3.625e-4
-1.171, 3.683e-4
-1.172, 3.738e-4
-1.173, 3.771e-4
-1.174, 3.804e-4
-1.175, 3.856e-4
-1.176, 3.915e-4
-1.177, 3.974e-4
-1.178, 4.016e-4
-1.179, 4.055e-4
-1.180, 4.105e-4
-1.181, 4.159e-4
-1.182, 4.216e-4
-1.183, 4.262e-4
-1.184, 4.308e-4
-1.185, 4.372e-4
-1.186, 4.438e-4
-1.187, 4.497e-4
-1.188, 4.539e-4
-1.189, 4.573e-4
-1.190, 4.631e-4
-1.191, 4.701e-4
-1.192, 4.761e-4
-1.193, 4.811e-4
-1.194, 4.854e-4
-1.195, 4.914e-4
-1.196, 4.987e-4
-1.197, 5.051e-4
-1.198, 5.104e-4
-1.199, 5.157e-4
-1.200, 5.221e-4
-1.201, 5.297e-4
-1.202, 5.368e-4
-1.203, 5.422e-4
-1.204, 5.477e-4
-1.205, 5.545e-4
-1.206, 5.627e-4
-1.207, 5.702e-4
-1.208, 5.764e-4
-1.209, 5.823e-4
-1.210, 5.895e-4
-1.211, 5.977e-4
-1.212, 6.060e-4
-1.213, 6.120e-4
-1.214, 6.182e-4
-1.215, 6.263e-4
-1.216, 6.353e-4
-1.217, 6.436e-4
-1.218, 6.505e-4
-1.219, 6.570e-4
-1.220, 6.656e-4
-1.221, 6.751e-4
-1.222, 6.838e-4
-1.223, 6.916e-4
-1.224, 6.989e-4
-1.225, 7.077e-4
-1.226, 7.167e-4
-1.227, 7.257e-4
-1.228, 7.336e-4
-1.229, 7.419e-4
-1.230, 7.500e-4
-1.231, 7.605e-4
-1.232, 7.705e-4
-1.233, 7.795e-4
-1.234, 7.872e-4
-1.235, 7.961e-4
-1.236, 8.062e-4
-1.237, 8.160e-4
-1.238, 8.248e-4
-1.239, 8.327e-4
-1.240, 8.423e-4
-1.241, 8.535e-4
-1.242, 8.644e-4
-1.243, 8.730e-4
-1.244, 8.814e-4
-1.245, 8.910e-4
-1.246, 9.025e-4
-1.247, 9.121e-4
-1.248, 9.204e-4
-1.249, 9.285e-4
-1.250, 9.383e-4
-1.251, 9.491e-4
-1.252, 9.595e-4
-1.253, 9.669e-4
-1.254, 9.749e-4
-1.255, 9.842e-4
-1.256, 9.949e-4
-1.257, 1.007e-3
-1.258, 1.016e-3
-1.259, 1.022e-3
-1.260, 1.030e-3
-1.261, 1.039e-3
-1.262, 1.046e-3
-1.263, 1.051e-3
-1.264, 1.056e-3
-1.265, 1.063e-3
-1.266, 1.069e-3
-1.267, 1.075e-3
-1.268, 1.078e-3
-1.269, 1.080e-3
-1.270, 1.084e-3
-1.271, 1.089e-3
-1.272, 1.091e-3
-1.273, 1.091e-3
-1.274, 1.091e-3
-1.275, 1.093e-3
-1.276, 1.093e-3
-1.277, 1.091e-3
-1.278, 1.086e-3
-1.279, 1.082e-3
-1.280, 1.078e-3
-1.281, 1.075e-3
-1.282, 1.069e-3
-1.283, 1.061e-3
-1.284, 1.052e-3
-1.285, 1.043e-3
-1.286, 1.035e-3
-1.287, 1.026e-3
-1.288, 1.013e-3
-1.289, 1.001e-3
-1.290, 9.886e-4
-1.291, 9.768e-4
-1.292, 9.634e-4
-1.293, 9.480e-4
-1.294, 9.327e-4
-1.295, 9.190e-4
-1.296, 9.056e-4
-1.297, 8.910e-4
-1.298, 8.755e-4
-1.299, 8.596e-4
-1.300, 8.455e-4
-1.301, 8.320e-4
-1.302, 8.175e-4
-1.303, 8.016e-4
-1.304, 7.867e-4
-1.305, 7.747e-4
-1.306, 7.632e-4
-1.307, 7.514e-4
-1.308, 7.363e-4
-1.309, 7.228e-4
-1.310, 7.115e-4
-1.311, 7.022e-4
-1.312, 6.910e-4
-1.313, 6.783e-4
-1.314, 6.670e-4
-1.315, 6.579e-4
-1.316, 6.497e-4
-1.317, 6.409e-4
-1.318, 6.308e-4
-1.319, 6.215e-4
-1.320, 6.139e-4
-1.321, 6.077e-4
-1.322, 6.003e-4
-1.323, 5.921e-4
-1.324, 5.850e-4
-1.325, 5.792e-4
-1.326, 5.746e-4
-1.327, 5.691e-4
-1.328, 5.623e-4
-1.329, 5.565e-4
-1.330, 5.527e-4
-1.331, 5.496e-4
-1.332, 5.462e-4
-1.333, 5.409e-4
-1.334, 5.369e-4
-1.335, 5.348e-4
-1.336, 5.334e-4
-1.337, 5.318e-4
-1.338, 5.286e-4
-1.339, 5.260e-4
-1.340, 5.262e-4
-1.341, 5.264e-4
-1.342, 5.263e-4
-1.343, 5.247e-4
-1.344, 5.237e-4
-1.345, 5.255e-4
-1.346, 5.279e-4
-1.347, 5.288e-4
-1.348, 5.293e-4
-1.349, 5.296e-4
-1.350, 5.327e-4
-1.351, 5.365e-4
-1.352, 5.396e-4
-1.353, 5.413e-4
-1.354, 5.443e-4
-1.355, 5.486e-4
-1.356, 5.537e-4
-1.357, 5.578e-4
-1.358, 5.616e-4
-1.359, 5.656e-4
-1.360, 5.718e-4
-1.361, 5.792e-4
-1.362, 5.849e-4
-1.363, 5.893e-4
-1.364, 5.952e-4
-1.365, 6.020e-4
-1.366, 6.108e-4
-1.367, 6.186e-4
-1.368, 6.248e-4
-1.369, 6.318e-4
-1.370, 6.405e-4
-1.371, 6.503e-4
-1.372, 6.593e-4
-1.373, 6.670e-4
-1.374, 6.756e-4
-1.375, 6.862e-4
-1.376, 6.978e-4
-1.377, 7.080e-4
-1.378, 7.172e-4
-1.379, 7.270e-4
-1.380, 7.388e-4
-1.381, 7.518e-4
-1.382, 7.639e-4
-1.383, 7.751e-4
-1.384, 7.863e-4
-1.385, 7.999e-4
-1.386, 8.140e-4
-1.387, 8.273e-4
-1.388, 8.397e-4
-1.389, 8.522e-4
-1.390, 8.663e-4
-1.391, 8.824e-4
-1.392, 8.971e-4
-1.393, 9.107e-4
-1.394, 9.254e-4
-1.395, 9.417e-4
-1.396, 9.594e-4
-1.397, 9.754e-4
-1.398, 9.893e-4
-1.399, 1.005e-3
-1.400, 9.743e-4
-1.399, 9.330e-4
-1.398, 9.077e-4
-1.397, 8.846e-4
-1.396, 8.631e-4
-1.395, 8.437e-4
-1.394, 8.269e-4
-1.393, 8.083e-4
-1.392, 7.888e-4
-1.391, 7.697e-4
-1.390, 7.532e-4
-1.389, 7.380e-4
-1.388, 7.215e-4
-1.387, 7.037e-4
-1.386, 6.870e-4
-1.385, 6.715e-4
-1.384, 6.583e-4
-1.383, 6.433e-4
-1.382, 6.263e-4
-1.381, 6.107e-4
-1.380, 5.981e-4
-1.379, 5.857e-4
-1.378, 5.718e-4
-1.377, 5.563e-4
-1.376, 5.426e-4
-1.375, 5.302e-4
-1.374, 5.188e-4
-1.373, 5.065e-4
-1.372, 4.923e-4
-1.371, 4.792e-4
-1.370, 4.684e-4
-1.369, 4.580e-4
-1.368, 4.469e-4
-1.367, 4.339e-4
-1.366, 4.220e-4
-1.365, 4.120e-4
-1.364, 4.021e-4
-1.363, 3.920e-4
-1.362, 3.804e-4
-1.361, 3.691e-4
-1.360, 3.609e-4
-1.359, 3.524e-4
-1.358, 3.426e-4
-1.357, 3.321e-4
-1.356, 3.218e-4
-1.355, 3.135e-4
-1.354, 3.063e-4
-1.353, 2.973e-4
-1.352, 2.876e-4
-1.351, 2.784e-4
-1.350, 2.711e-4
-1.349, 2.650e-4
-1.348, 2.571e-4
-1.347, 2.479e-4
-1.346, 2.393e-4
-1.345, 2.326e-4
-1.344, 2.270e-4
-1.343, 2.198e-4
-1.342, 2.111e-4
-1.341, 2.039e-4
-1.340, 1.979e-4
-1.339, 1.927e-4
-1.338, 1.862e-4
-1.337, 1.782e-4
-1.336, 1.714e-4
-1.335, 1.664e-4
-1.334, 1.618e-4
-1.333, 1.562e-4
-1.332, 1.489e-4
-1.331, 1.425e-4
-1.330, 1.381e-4
-1.329, 1.339e-4
-1.328, 1.289e-4
-1.327, 1.222e-4
-1.326, 1.164e-4
-1.325, 1.125e-4
-1.324, 1.091e-4
-1.323, 1.043e-4
-1.322, 9.853e-5
-1.321, 9.303e-5
-1.320, 8.981e-5
-1.319, 8.686e-5
-1.318, 8.242e-5
-1.317, 7.697e-5
-1.316, 7.209e-5
-1.315, 6.901e-5
-1.314, 6.678e-5
-1.313, 6.267e-5
-1.312, 5.755e-5
-1.311, 5.321e-5
-1.310, 5.057e-5
-1.309, 4.865e-5
-1.308, 4.501e-5
-1.307, 4.005e-5
-1.306, 3.617e-5
-1.305, 3.355e-5
-1.304, 3.216e-5
-1.303, 2.897e-5
-1.302, 2.423e-5
-1.301, 2.092e-5
-1.300, 1.869e-5
-1.299, 1.732e-5
-1.298, 1.459e-5
-1.297, 1.017e-5
-1.296, 7.031e-6
-1.295, 5.357e-6
-1.294, 4.252e-6
-1.293, 1.828e-6
-1.292, -2.260e-6
-1.291, -5.459e-6
-1.290, -6.593e-6
-1.289, -7.817e-6
-1.288, -1.001e-5
-1.287, -1.381e-5
-1.286, -1.694e-5
-1.285, -1.775e-5
-1.284, -1.864e-5
-1.283, -2.081e-5
-1.282, -2.417e-5
-1.281, -2.699e-5
-1.280, -2.819e-5
-1.279, -2.836e-5
-1.278, -3.075e-5
-1.277, -3.374e-5
-1.276, -3.646e-5
-1.275, -3.727e-5
-1.274, -3.748e-5
-1.273, -4.017e-5
-1.272, -4.281e-5
-1.271, -4.506e-5
-1.270, -4.594e-5
-1.269, -4.584e-5
-1.268, -4.778e-5
-1.267, -5.090e-5
-1.266, -5.306e-5
-1.265, -5.402e-5
-1.264, -5.393e-5
-1.263, -5.592e-5
-1.262, -5.883e-5
-1.261, -6.075e-5
-1.260, -6.117e-5
-1.259, -6.131e-5
-1.258, -6.302e-5
-1.257, -6.629e-5
-1.256, -6.802e-5
-1.255, -6.860e-5
-1.254, -6.884e-5
-1.253, -7.020e-5
-1.252, -7.324e-5
-1.251, -7.531e-5
-1.250, -7.566e-5
-1.249, -7.561e-5
-1.248, -7.722e-5
-1.247, -8.017e-5
-1.246, -8.237e-5
-1.245, -8.268e-5
-1.244, -8.263e-5
-1.243, -8.436e-5
-1.242, -8.723e-5
-1.241, -8.948e-5
-1.240, -8.978e-5
-1.239, -8.964e-5
-1.238, -9.150e-5
-1.237, -9.425e-5
-1.236, -9.651e-5
-1.235, -9.697e-5
-1.234, -9.704e-5
-1.233, -9.900e-5
-1.232, -1.015e-4
-1.231, -1.037e-4
-1.230, -1.044e-4
-1.229, -1.053e-4
-1.228, -1.067e-4
-1.227, -1.096e-4
-1.226, -1.116e-4
-1.225, -1.127e-4
-1.224, -1.124e-4
-1.223, -1.143e-4
-1.222, -1.176e-4
-1.221, -1.197e-4
-1.220, -1.202e-4
-1.219, -1.207e-4
-1.218, -1.229e-4
-1.217, -1.264e-4
-1.216, -1.285e-4
-1.215, -1.294e-4
-1.214, -1.302e-4
-1.213, -1.319e-4
-1.212, -1.353e-4
-1.211, -1.379e-4
-1.210, -1.387e-4
-1.209, -1.397e-4
-1.208, -1.416e-4
-1.207, -1.453e-4
-1.206, -1.484e-4
-1.205, -1.493e-4
-1.204, -1.501e-4
-1.203, -1.526e-4
-1.202, -1.559e-4
-1.201, -1.591e-4
-1.200, -1.603e-4
-1.199, -1.612e-4
-1.198, -1.643e-4
-1.197, -1.680e-4
-1.196, -1.715e-4
-1.195, -1.731e-4
-1.194, -1.740e-4
-1.193, -1.771e-4
-1.192, -1.808e-4
-1.191, -1.844e-4
-1.190, -1.863e-4
-1.189, -1.877e-4
-1.188, -1.911e-4
-1.187, -1.955e-4
-1.186, -1.991e-4
-1.185, -2.013e-4
-1.184, -2.028e-4
-1.183, -2.068e-4
-1.182, -2.117e-4
-1.181, -2.152e-4
-1.180, -2.177e-4
-1.179, -2.200e-4
-1.178, -2.243e-4
-1.177, -2.297e-4
-1.176, -2.342e-4
-1.175, -2.371e-4
-1.174, -2.396e-4
-1.173, -2.438e-4
-1.172, -2.498e-4
-1.171, -2.547e-4
-1.170, -2.581e-4
-1.169, -2.621e-4
-1.168, -2.670e-4
-1.167, -2.726e-4
-1.166, -2.781e-4
-1.165, -2.820e-4
-1.164, -2.857e-4
-1.163, -2.912e-4
-1.162, -2.978e-4
-1.161, -3.039e-4
-1.160, -3.081e-4
-1.159, -3.124e-4
-1.158, -3.184e-4
-1.157, -3.253e-4
-1.156, -3.314e-4
-1.155, -3.362e-4
-1.154, -3.402e-4
-1.153, -3.469e-4
-1.152, -3.538e-4
-1.151, -3.607e-4
-1.150, -3.662e-4
-1.149, -3.699e-4
-1.148, -3.760e-4
-1.147, -3.837e-4
-1.146, -3.899e-4
-1.145, -3.949e-4
-1.144, -3.991e-4
-1.143, -4.054e-4
-1.142, -4.133e-4
-1.141, -4.198e-4
-1.140, -4.248e-4
-1.139, -4.296e-4
-1.138, -4.361e-4
-1.137, -4.441e-4
-1.136, -4.507e-4
-1.135, -4.562e-4
-1.134, -4.616e-4
-1.133, -4.680e-4
-1.132, -4.763e-4
-1.131, -4.831e-4
-1.130, -4.886e-4
-1.129, -4.938e-4
-1.128, -5.007e-4
-1.127, -5.088e-4
-1.126, -5.161e-4
-1.125, -5.213e-4
-1.124, -5.263e-4
-1.123, -5.333e-4
-1.122, -5.415e-4
-1.121, -5.488e-4
-1.120, -5.537e-4
-1.119, -5.585e-4
-1.118, -5.654e-4
-1.117, -5.730e-4
-1.116, -5.806e-4
-1.115, -5.865e-4
-1.114, -5.917e-4
-1.113, -5.986e-4
-1.112, -6.056e-4
-1.111, -6.124e-4
-1.110, -6.174e-4
-1.109, -6.232e-4
-1.108, -6.302e-4
-1.107, -6.376e-4
-1.106, -6.440e-4
-1.105, -6.490e-4
-1.104, -6.535e-4
-1.103, -6.602e-4
-1.102, -6.673e-4
-1.101, -6.734e-4
-1.100, -6.790e-4
-1.099, -6.833e-4
-1.098, -6.896e-4
-1.097, -6.971e-4
-1.096, -7.027e-4
-1.095, -7.078e-4
-1.094, -7.141e-4
-1.093, -7.194e-4
-1.092, -7.256e-4
-1.091, -7.315e-4
-1.090, -7.357e-4
-1.089, -7.402e-4
-1.088, -7.458e-4
-1.087, -7.530e-4
-1.086, -7.588e-4
-1.085, -7.632e-4
-1.084, -7.668e-4
-1.083, -7.728e-4
-1.082, -7.788e-4
-1.081, -7.845e-4
-1.080, -7.883e-4
-1.079, -7.915e-4
-1.078, -7.969e-4
-1.077, -8.028e-4
-1.076, -8.083e-4
-1.075, -8.119e-4
-1.074, -8.149e-4
-1.073, -8.199e-4
-1.072, -8.254e-4
-1.071, -8.304e-4
-1.070, -8.330e-4
-1.069, -8.354e-4
-1.068, -8.397e-4
-1.067, -8.479e-4
-1.066, -8.520e-4
-1.065, -8.542e-4
-1.064, -8.561e-4
-1.063, -8.602e-4
-1.062, -8.655e-4
-1.061, -8.693e-4
-1.060, -8.716e-4
-1.059, -8.733e-4
-1.058, -8.770e-4
-1.057, -8.808e-4
-1.056, -8.841e-4
-1.055, -8.858e-4
-1.054, -8.876e-4
-1.053, -8.903e-4
-1.052, -8.942e-4
-1.051, -8.970e-4
-1.050, -8.979e-4
-1.049, -8.994e-4
-1.048, -9.026e-4
-1.047, -9.059e-4
-1.046, -9.082e-4
-1.045, -9.086e-4
-1.044, -9.090e-4
-1.043, -9.108e-4
-1.042, -9.139e-4
-1.041, -9.166e-4
-1.040, -9.151e-4
-1.039, -9.161e-4
-1.038, -9.183e-4
-1.037, -9.200e-4
-1.036, -9.209e-4
-1.035, -9.197e-4
-1.034, -9.181e-4
-1.033, -9.197e-4
-1.032, -9.207e-4
-1.031, -9.213e-4
-1.030, -9.208e-4
-1.029, -9.191e-4
-1.028, -9.195e-4
-1.027, -9.215e-4
-1.026, -9.208e-4
-1.025, -9.197e-4
-1.024, -9.182e-4
-1.023, -9.182e-4
-1.022, -9.180e-4
-1.021, -9.174e-4
-1.020, -9.150e-4
-1.019, -9.134e-4
-1.018, -9.126e-4
-1.017, -9.131e-4
-1.016, -9.117e-4
-1.015, -9.092e-4
-1.014, -9.065e-4
-1.013, -9.049e-4
-1.012, -9.046e-4
-1.011, -9.031e-4
-1.010, -9.006e-4
-1.009, -8.974e-4
-1.008, -8.958e-4
-1.007, -8.939e-4
-1.006, -8.926e-4
-1.005, -8.884e-4
-1.004, -8.847e-4
-1.003, -8.825e-4
-1.002, -8.806e-4
-1.001, -8.781e-4
