Potential V vs RHE, Current mA cm-2
0.013299999999999867,4.2285720752965945
0.012299999999999978,3.661272844050715
0.011299999999999866,3.313253864283916
0.010299999999999976,2.919964122921436
0.009299999999999864,2.5280890928588207
0.008299999999999974,2.178655401792157
0.007299999999999862,2.004645911908757
0.006299999999999972,1.8292217107254924
0.00529999999999986,1.6113561705462767
0.0042999999999999705,1.3063444142953748
0.0032999999999998586,1.0446228238203432
0.0022999999999999687,0.9137620285828272
0.0012999999999998568,0.7829012333453113
0.00029999999999996696,0.6084673300719523
-0.000700000000000145,0.3031726315610774
-0.0017000000000000348,0.12863969849672777
-0.0027000000000001467,0.04140859974704963
-0.0037000000000000366,-0.04582249900262853
-0.0047000000000001485,-0.26384365742482935
-0.005700000000000038,-0.48199213986401795
-0.00670000000000015,-0.6564260431373771
-0.00770000000000004,-0.7437137303390498
-0.008700000000000152,-0.8308599464107361
-0.009700000000000042,-0.9181476336124089
-0.010700000000000154,-1.1362961160515976
-0.011700000000000044,-1.3107300193249565
-0.012700000000000156,-1.3980177065266295
-0.013700000000000045,-1.4415908145624723
-0.014700000000000157,-1.5717442541500557
-0.015700000000000047,-1.7471684553333202
-0.01670000000000016,-1.92117794521672
-0.01770000000000005,-1.9650339955125358
-0.01870000000000016,-2.008890045808352
-0.01970000000000005,-2.1390434853959355
-0.020700000000000163,-2.3144676865791998
-0.021700000000000053,-2.4446211261667834
-0.022700000000000164,-2.532333226758415
-0.023700000000000054,-2.576189277054232
-0.024700000000000166,-2.662486666345999
-0.025700000000000056,-2.8379108675292635
-0.026700000000000168,-2.968064307116847
-0.027700000000000058,-3.0119203574126634
-0.02870000000000017,-3.055776407708479
-0.02970000000000006,-3.1420737970002466
-0.03070000000000017,-3.317497998183511
-0.03170000000000006,-3.447651437771094
-0.03270000000000017,-3.4915074880669104
-0.03370000000000006,-3.4915074880669104
-0.034700000000000175,-3.623075638954359
-0.035700000000000065,-3.7970851288377587
-0.03670000000000018,-3.884797229429391
-0.03770000000000007,-3.927238568425342
-0.03870000000000018,-3.971094618721158
-0.03970000000000007,-4.102662769608606
-0.04070000000000018,-4.23281620919619
-0.04170000000000007,-4.364384360083638
-0.04270000000000018,-4.406825699079589
-0.04370000000000007,-4.406825699079589
-0.044700000000000184,-4.538393849967037
-0.045700000000000074,-4.712403339850438
-0.046700000000000186,-4.800115440442069
-0.047700000000000076,-4.843971490737885
-0.04870000000000019,-4.843971490737885
-0.04970000000000008,-4.974124930325469
-0.05070000000000019,-5.105693081212917
-0.05170000000000008,-5.279702571096316
-0.05270000000000019,-5.323558621392133
-0.05370000000000008,-5.323558621392133
-0.05470000000000019,-5.411270721983764
-0.05570000000000008,-5.585280211867165
-0.056700000000000195,-5.672992312458796
-0.057700000000000085,-5.715433651454749
-0.058700000000000196,-5.715433651454749
-0.059700000000000086,-5.847001802342197
-0.0607000000000002,-5.977155241929781
-0.06170000000000009,-6.108723392817228
-0.0627000000000002,-6.196435493408861
-0.06370000000000009,-6.196435493408861
-0.0647000000000002,-6.282732882700628
-0.06570000000000009,-6.458157083883892
-0.0667000000000002,-6.54445447317566
-0.0677000000000001,-6.588310523471475
-0.0687000000000002,-6.632166573767292
-0.0697000000000001,-6.719878674358924
-0.07070000000000021,-6.93774421453814
-0.0717000000000001,-7.024041603829907
-0.07270000000000021,-7.067897654125724
-0.0737000000000001,-7.067897654125724
-0.07470000000000021,-7.155609754717355
-0.0757000000000001,-7.329619244600755
-0.07670000000000021,-7.461187395488204
-0.0777000000000001,-7.50504344578402
-0.07870000000000021,-7.5474847847799715
-0.0797000000000001,-7.635196885371603
-0.08070000000000022,-7.809206375255003
-0.0817000000000001,-7.940774526142452
-0.08270000000000022,-7.940774526142452
-0.08370000000000011,-7.984630576438266
-0.08470000000000022,-8.11478401602585
-0.08570000000000011,-8.288793505909249
-0.08670000000000022,-8.4203616567967
-0.08770000000000011,-8.464217707092514
-0.08870000000000022,-8.508073757388331
-0.08970000000000011,-8.594371146680096
-0.09070000000000022,-8.769795347863363
-0.09170000000000011,-8.899948787450944
-0.09270000000000023,-8.899948787450944
-0.09370000000000012,-8.943804837746763
-0.09470000000000023,-9.073958277334345
-0.09570000000000012,-9.24938247851761
-0.09670000000000023,-9.379535918105192
-0.09770000000000012,-9.467248018696827
-0.09870000000000023,-9.467248018696827
-0.09970000000000012,-9.59740145828441
-0.10070000000000023,-9.728969609171857
-0.10170000000000012,-9.85912304875944
-0.10270000000000024,-9.902979099055257
-0.10370000000000013,-9.946835149351072
-0.10470000000000024,-10.120844639234473
-0.10570000000000013,-10.340124890713554
-0.10670000000000024,-10.470278330301136
-0.10770000000000013,-10.514134380596953
-0.10870000000000024,-10.514134380596953
-0.10970000000000013,-10.601846481188586
-0.11070000000000024,-10.775855971071984
-0.11170000000000013,-10.863568071663616
-0.11270000000000002,-10.949865460955383
-0.11370000000000013,-10.993721511251199
-0.11470000000000002,-11.1677310011346
-0.11570000000000014,-11.42945259160963
-0.11670000000000003,-11.604876792792895
-0.11770000000000014,-11.647318131788847
-0.11870000000000003,-11.691174182084664
-0.11970000000000014,-11.82274233297211
-0.12070000000000003,-11.996751822855511
-0.12170000000000014,-12.12831997374296
-0.12270000000000003,-12.170761312738911
-0.12370000000000014,-12.214617363034726
-0.12470000000000003,-12.346185513922174
-0.12570000000000014,-12.520195003805576
-0.12670000000000003,-12.694204493688973
-0.12770000000000015,-12.825772644576423
-0.12870000000000004,-12.869628694872238
-0.12970000000000015,-12.955926084164007
-0.13070000000000004,-13.13135028534727
-0.13170000000000015,-13.261503724934855
-0.13270000000000004,-13.30535977523067
-0.13370000000000015,-13.349215825526485
-0.13470000000000004,-13.47936926511407
-0.13570000000000015,-13.741090855589102
-0.13670000000000004,-13.960371107068182
-0.13770000000000016,-14.046668496359947
-0.13870000000000005,-14.090524546655764
-0.13970000000000016,-14.217848563643619
-0.14070000000000005,-14.444202371622024
-0.14170000000000016,-14.57152638860988
-0.14270000000000005,-14.61396772760583
-0.14370000000000016,-14.65640906660178
-0.14470000000000005,-14.826174422585586
-0.14570000000000016,-15.01008689156804
-0.14670000000000005,-15.179852247551842
-0.14770000000000016,-15.222293586547794
-0.14870000000000005,-15.307176264539699
-0.14970000000000017,-15.533530072518102
-0.15070000000000006,-15.74573676749786
-0.15170000000000017,-15.91550212348166
-0.15270000000000006,-16.014531914472215
-0.15370000000000017,-16.056973253468165
-0.15470000000000006,-16.184297270456018
-0.15570000000000017,-16.396503965435777
-0.15670000000000006,-16.580416434418233
-0.15770000000000017,-16.622857773414182
-0.15870000000000006,-16.70774045140608
-0.15970000000000018,-16.877505807389888
-0.16070000000000007,-17.146300954364243
-0.16170000000000018,-17.40094898833995
-0.16270000000000007,-17.48583166633185
-0.16370000000000018,-17.584861457322408
-0.16470000000000007,-17.797068152302163
-0.16570000000000018,-17.966833508285966
-0.16670000000000007,-18.06586329927652
-0.16770000000000018,-18.10830463827247
-0.16870000000000007,-18.10830463827247
-0.16970000000000018,-18.27806999425627
-0.17070000000000007,-18.589306480226583
-0.17170000000000019,-18.759071836210385
-0.17270000000000008,-18.88639585319824
-0.1737000000000002,-19.056161209182044
-0.17470000000000008,-19.2400736781645
-0.1757000000000002,-19.49472171214021
-0.17670000000000008,-19.678634181122664
-0.1777000000000002,-19.763516859114564
-0.17870000000000008,-19.848399537106463
-0.1797000000000002,-20.01816489309027
-0.18070000000000008,-20.329401379060574
-0.1817000000000002,-20.541608074040333
-0.18270000000000008,-20.683079204026836
-0.1837000000000002,-20.76796188201874
-0.1847000000000001,-20.89528589900659
-0.1857000000000002,-21.149933932982297
-0.1867000000000001,-21.291405062968803
-0.1877000000000002,-21.376287740960702
-0.1887000000000001,-21.503611757948562
-0.1897000000000002,-21.814848243918867
-0.1907000000000001,-22.111937616890522
-0.1917000000000001,-22.38073276386488
-0.19269999999999998,-22.508056780852733
-0.1937000000000001,-22.592939458844636
-0.19469999999999998,-22.776851927827092
-0.1957000000000001,-23.073941300798747
-0.19669999999999999,-23.342736447773106
-0.1977000000000001,-23.47006046476096
-0.1987,-23.55494314275286
-0.1997000000000001,-23.682267159740714
-0.2007,-23.86617962872317
-0.2017000000000001,-24.035944984706973
-0.2027,-24.24815167968673
-0.2037000000000001,-24.474505487665134
-0.2047,-24.814036199632742
-0.2057000000000001,-25.12527268560305
-0.2067,-25.337479380582806
-0.2077000000000001,-25.43650917157336
-0.2087,-25.478950510569312
-0.2097000000000001,-25.648715866553115
-0.2107,-25.959952352523427
-0.2117000000000001,-26.257041725495082
-0.2127,-26.483395533473487
-0.2137000000000001,-26.65316088945729
-0.2147,-26.9643973754276
-0.2157000000000001,-27.261486748399253
-0.2167,-27.487840556377662
-0.21770000000000012,-27.530281895373616
-0.2187,-27.615164573365515
-0.21970000000000012,-27.827371268345274
-0.2207,-28.18104909331153
-0.22170000000000012,-28.478138466283188
-0.2227,-28.704492274261593
-0.22370000000000012,-28.959140308237306
-0.2247,-29.35525947219951
-0.22570000000000012,-29.751378636161718
-0.2267,-30.00602667013743
-0.22770000000000012,-30.10505646112798
-0.22870000000000001,-30.232380478115836
-0.22970000000000013,-30.402145834099635
-0.23070000000000002,-30.614352529079397
-0.23170000000000013,-30.925589015049702
-0.23270000000000002,-31.095354371033505
-0.23370000000000013,-31.27926684001596
-0.23470000000000002,-31.533914873991666
-0.23570000000000013,-31.930034037953877
-0.23670000000000002,-32.283711862920136
-0.2376999999999999,-32.41103587990799
-0.23870000000000002,-32.49591855789989
-0.2396999999999999,-32.84959638286615
-0.24070000000000003,-33.288156885824314
-0.24169999999999991,-33.627687597791926
-0.24270000000000003,-33.89648274476628
-0.24369999999999992,-34.06624810075008
-0.24470000000000003,-34.236013456733886
-0.24569999999999992,-34.462367264712285
-0.24670000000000003,-34.632132620696105
-0.24769999999999992,-34.85848642867451
-0.24870000000000003,-35.02825178465831
-0.24969999999999992,-35.240458479638065
-0.25070000000000003,-35.50925362661242
-0.2516999999999999,-35.848784338580025
-0.25270000000000004,-36.244903502542236
-0.2536999999999999,-36.64102266650445
-0.25470000000000004,-37.037141830466666
-0.2556999999999999,-37.376672542434264
-0.25670000000000004,-37.645467689408626
-0.25769999999999993,-37.81523304539243
-0.25870000000000004,-37.90011572338433
-0.25969999999999993,-38.211352209354644
-0.26070000000000004,-38.692354051308754
-0.26169999999999993,-39.21579723225882
-0.26270000000000004,-39.56947505722508
-0.26369999999999993,-39.78168175220483
-0.26470000000000005,-40.03632978618054
-0.26569999999999994,-40.3900076111468
-0.26670000000000005,-40.65880275812115
-0.26769999999999994,-40.95589213109281
-0.26870000000000005,-41.22468727806717
-0.26969999999999994,-41.606659329030734
-0.27070000000000005,-42.087661170984845
-0.27169999999999994,-42.483780334947056
-0.27270000000000005,-42.79501682091736
-0.27369999999999994,-43.007223515897124
-0.27470000000000006,-43.27601866287147
-0.27569999999999995,-43.657990713835034
-0.27670000000000006,-44.011668538801295
-0.27769999999999995,-44.223875233781044
-0.27870000000000006,-44.4926703807554
-0.27969999999999995,-44.84634820572166
-0.28070000000000006,-45.32735004767578
-0.28169999999999995,-45.79420477663124
-0.28270000000000006,-46.062999923605595
-0.28369999999999995,-46.3176479575813
-0.28470000000000006,-46.67132578254756
-0.28569999999999995,-47.15232762450167
-0.28670000000000007,-47.54844678846388
-0.28769999999999996,-47.80309482243959
-0.28870000000000007,-48.071889969413945
-0.28969999999999996,-48.45386202037751
-0.29070000000000007,-48.97730520132757
-0.29169999999999996,-49.41586570428573
-0.29270000000000007,-49.72710219025603
-0.29369999999999996,-49.939308885235796
-0.2947000000000001,-50.29298671020206
-0.29569999999999996,-50.64666453516831
-0.2967000000000001,-50.943753908139975
-0.29769999999999996,-51.17010771611838
-0.2987000000000001,-51.424755750094086
-0.29969999999999997,-51.86331625305225
-0.3007000000000001,-52.42920077299826
-0.30169999999999997,-52.86776127595642
-0.3027000000000001,-53.30632177891458
-0.30369999999999997,-53.603411151886235
-0.3047000000000001,-53.82976495986464
-0.30569999999999997,-54.08441299384035
-0.3067000000000001,-54.31076680181876
-0.3077,-54.52297349679851
-0.3087000000000001,-54.69273885278232
-0.3097,-55.046416677748574
-0.3107000000000001,-55.73962521468245
-0.3117,-56.36209818662306
-0.3127000000000001,-56.74407023758662
-0.3137,-56.97042404556503
-0.3147000000000001,-57.182630740544774
-0.3157,-57.45142588751914
-0.3167000000000001,-57.62119124350295
-0.3177,-57.70607392149485
-0.3187000000000001,-58.017310407465146
-0.3197,-58.39928245842871
-0.3207000000000001,-58.92272563937878
-0.3217,-59.403727481332886
-0.3227000000000001,-59.757405306299155
-0.3237,-60.02620045327351
-0.3247000000000001,-60.28084848724921
-0.3257,-60.71940899020737
-0.3267000000000001,-61.15796949316553
-0.3277,-61.242852171157445
-0.3287000000000001,-61.412617527141244
-0.3297,-61.7662953521075
-0.3307000000000001,-62.02094338608321
-0.3317,-62.24729719406162
-0.3327000000000001,-62.459503889041365
-0.3337,-62.544386567033264
-0.3347000000000001,-62.72829903601572
-0.3357,-62.98294706999144
-0.3367000000000001,-63.29418355596174
-0.3377,-63.46394891194555
-0.3387000000000001,-63.54883158993744
-0.3397,-63.902509414903705
-0.3407000000000001,-64.25618723986996
-0.3417,-64.46839393484973
-0.3427000000000001,-64.55327661284163
-0.3437,-64.46839393484973
-0.3447000000000001,-64.51083527384567
-0.3457,-64.51083527384567
-0.3467000000000001,-64.51083527384567
-0.3477,-64.63815929083353
-0.3487000000000001,-64.59571795183757
-0.3497,-64.77963042082003
-0.3507000000000001,-65.11916113278764
-0.3517,-65.34551494076604
-0.3527000000000001,-65.2464851497755
-0.3537,-65.03427845479574
-0.3547000000000001,-64.86451309881193
-0.3557,-64.77963042082003
-0.35670000000000013,-64.51083527384567
-0.3577,-64.29862857886593
-0.35870000000000013,-64.25618723986996
-0.3597,-64.29862857886593
-0.36070000000000013,-64.59571795183757
-0.3617,-64.59571795183757
-0.3626999999999999,-64.29862857886593
-0.3637,-64.02983343189156
-0.3646999999999999,-63.77518539791585
-0.3657,-63.5063902509415
-0.3666999999999999,-63.3366248949577
-0.3677,-63.251742216965795
-0.3686999999999999,-63.15271242597524
-0.36970000000000003,-63.02538840898739
-0.3706999999999999,-62.68585769701977
-0.37170000000000003,-62.20485585506566
-0.3726999999999999,-61.6814126741156
-0.37370000000000003,-61.37017618814529
-0.3746999999999999,-61.242852171157445
-0.37570000000000003,-61.37017618814529
-0.3766999999999999,-61.455058866137186
-0.37770000000000004,-61.242852171157445
-0.3786999999999999,-60.761850329203334
-0.37970000000000004,-60.28084848724921
-0.3806999999999999,-59.92717066228296
-0.38170000000000004,-59.67252262830725
-0.38269999999999993,-59.403727481332886
-0.38370000000000004,-59.14907944735718
-0.38469999999999993,-59.06419676936528
-0.38570000000000004,-58.880284300382826
-0.38669999999999993,-58.62563626640712
-0.38770000000000004,-58.27195844144086
-0.38869999999999993,-57.974869068469204
-0.38970000000000005,-57.7485152604908
-0.39069999999999994,-57.66363258249889
-0.39170000000000005,-57.57874990450699
-0.39269999999999994,-57.352396096528594
-0.39370000000000005,-57.14018940154883
-0.39469999999999994,-57.012865384560975
-0.39570000000000005,-56.927982706569075
-0.39669999999999994,-56.786511576582576
-0.39770000000000005,-56.489422203610914
-0.39869999999999994,-56.05086170065276
-0.39970000000000006,-55.7820665536784
-0.40069999999999995,-55.6971838756865
-0.40170000000000006,-55.6971838756865
-0.40269999999999995,-55.56985985869864
-0.40370000000000006,-55.484977180706736
-0.40469999999999995,-55.527418519702685
-0.40570000000000006,-55.612301197694585
-0.40669999999999995,-55.527418519702685
-0.40770000000000006,-55.17374069473642
-0.40869999999999995,-54.791768643772876
-0.40970000000000006,-54.52297349679851
-0.41069999999999995,-54.43809081880661
-0.41170000000000007,-54.31076680181876
-0.41269999999999996,-54.08441299384035
-0.41370000000000007,-54.0419716548444
-0.41469999999999996,-54.16929567183226
-0.41570000000000007,-54.39564947981066
-0.41669999999999996,-54.56541483579447
-0.41770000000000007,-54.480532157802564
-0.41869999999999996,-54.2117370108282
-0.4197000000000001,-54.0419716548444
-0.42069999999999996,-53.872206298860604
-0.4217000000000001,-53.603411151886235
-0.42269999999999996,-53.30632177891458
-0.4237000000000001,-53.03752663194023
-0.42469999999999997,-53.12240930993213
-0.4257000000000001,-53.30632177891458
-0.42669999999999997,-53.433645795902436
-0.4277000000000001,-53.476087134898386
-0.42869999999999997,-53.518528473894335
-0.4297000000000001,-53.74488228187274
-0.43069999999999997,-53.7873236208687
-0.4317000000000001,-53.476087134898386
-0.4327,-53.03752663194023
-0.4337000000000001,-52.55652478998611
-0.4347,-52.34431809500636
-0.4357000000000001,-52.55652478998611
-0.4367,-53.16485064892808
-0.4377000000000001,-53.74488228187274
-0.4387,-54.1268543328363
-0.4397000000000001,-54.31076680181876
-0.4407,-54.1268543328363
-0.4417000000000001,-53.64585249088219
-0.4427,-53.079967970936174
-0.4437000000000001,-52.64140746797801
-0.4447,-52.55652478998611
-0.4457000000000001,-52.82531993696047
-0.4467,-53.22143910092268
-0.4477000000000001,-53.603411151886235
-0.4487,-53.872206298860604
-0.4497000000000001,-53.91464763785655
-0.4507,-53.91464763785655
-0.4517000000000001,-53.9570889768525
-0.4527,-53.91464763785655
-0.4537000000000001,-53.74488228187274
-0.4547,-53.64585249088219
-0.4557000000000001,-53.82976495986464
-0.4567,-54.08441299384035
-0.4577000000000001,-54.16929567183226
-0.4587,-54.2117370108282
-0.4597000000000001,-54.52297349679851
-0.4607,-54.919092660760725
-0.4617000000000001,-55.21618203373238
-0.4627,-55.400094502714836
-0.4637000000000001,-55.56985985869864
-0.4647,-55.7820665536784
-0.4657000000000001,-56.1781857176406
-0.4667,-56.489422203610914
-0.4677000000000001,-56.57430488160282
-0.4687,-56.57430488160282
-0.4697000000000001,-56.70162889859067
-0.4707,-57.097748062552874
-0.4717000000000001,-57.493867226515086
-0.4727,-57.66363258249889
-0.4737000000000001,-57.79095659948675
-0.4747,-58.18707576344896
-0.4757000000000001,-58.71051894439902
-0.4767,-59.06419676936528
-0.4777000000000001,-59.31884480334099
-0.4787,-59.587639950315335
-0.4797000000000001,-59.842287984291055
-0.4807,-60.11108313126541
-0.48170000000000013,-60.40817250423707
-0.4827,-60.67696765121143
-0.48370000000000013,-61.01649836317903
-0.4847,-61.53994154412909
-0.48570000000000013,-61.936060708091304
-0.4867,-62.24729719406162
-0.4876999999999999,-62.41706255004542
-0.4887,-62.68585769701977
-0.4896999999999999,-63.20930087796983
-0.4907,-63.81762673691181
-0.4916999999999999,-64.42595259585376
-0.4927,-64.99183711579978
-0.4936999999999999,-65.38795627976201
-0.49470000000000003,-65.7274869917296
-0.4956999999999999,-66.08116481669586
-0.49670000000000003,-66.39240130266617
-0.4976999999999999,-66.64704933664189
-0.49870000000000003,-67.00072716160814
-0.4996999999999999,-67.56661168155415
-0.5007,-68.04761352350828
-0.5016999999999999,-68.61349804345427
-0.5027,-69.22182390239624
-0.5036999999999999,-69.8301497613382
-0.5047,-70.48091695927613
-0.5056999999999999,-71.10338993121674
-0.5067,-71.44292064318435
-0.5076999999999999,-71.66927445116276
-0.5087,-71.96636382413442
-0.5096999999999999,-72.40492432709259
