Potential V vs RHE, Current mA cm-2
0.4132999999999999,0.009092349524232591
0.4122999999999999,0.007264542524806964
0.4112999999999999,0.006343565468594825
0.4102999999999999,0.005687139425457448
0.4092999999999999,0.005097204813413728
0.4082999999999999,0.004638838352257455
0.4072999999999999,0.004224327941396999
0.4062999999999999,0.0038791383842299307
0.4052999999999999,0.0035381929609624566
0.4042999999999999,0.003185929847296063
0.4032999999999999,0.002905817009922785
0.4022999999999999,0.002652583687246944
0.4012999999999999,0.002413497477569753
0.4002999999999999,0.0021857289582914814
0.3992999999999999,0.0019084455435179344
0.3982999999999999,0.001699068271137909
0.3972999999999999,0.0015377911829532948
0.3962999999999999,0.0013429854369618793
0.3952999999999999,0.001176898330357724
0.3942999999999999,0.0009646916353779686
0.39329999999999987,0.0007986045287738132
0.39229999999999987,0.0006688755025761893
0.39129999999999987,0.0005292434972795103
0.39029999999999987,0.0003855088292132225
0.38929999999999987,0.0002277685192782709
0.38829999999999987,8.263328702511679e-05
0.38729999999999987,1.1445014415908146e-05
0.38629999999999987,-0.00011278078482524073
0.38529999999999986,-0.00022578792345845985
0.38429999999999986,-0.0003625905061554089
0.38329999999999986,-0.0004672791423454216
0.38229999999999986,-0.000541268543328363
0.38129999999999986,-0.000636195671549307
0.38029999999999986,-0.0007437137303390499
0.37929999999999986,-0.0008720280452368086
0.37829999999999986,-0.0009516762914192103
0.37729999999999986,-0.0010185921359028263
0.37629999999999986,-0.0010968256707853629
0.37529999999999986,-0.0012084463923447144
0.37429999999999986,-0.0013145497398345922
0.37329999999999985,-0.0014175407224647667
0.37229999999999985,-0.001471299751859638
0.37129999999999985,-0.0015293029151541046
0.37029999999999985,-0.0016311621287443871
0.36929999999999985,-0.0017415096101338603
0.36829999999999985,-0.0018009274847281917
0.36729999999999985,-0.0018660042045219834
0.36629999999999985,-0.0019296662130159098
0.36529999999999985,-0.0019890840876102414
0.36429999999999985,-0.0020937727238002544
0.36329999999999985,-0.002154605309694451
0.36229999999999984,-0.0022196820294882427
0.36129999999999984,-0.0022706116362833837
0.36029999999999984,-0.0023328589334774457
0.35929999999999984,-0.0024474505487665135
0.35829999999999984,-0.002501209578161385
0.35729999999999984,-0.0025365773606580108
0.35629999999999984,-0.0026087276369511276
0.35529999999999984,-0.002644095419447754
0.35429999999999984,-0.0027742488590353368
0.35329999999999984,-0.002822349043230748
0.35229999999999984,-0.002852057980527914
0.35129999999999983,-0.0029128905664221106
0.35029999999999983,-0.002969479018416712
0.34929999999999983,-0.003054361696408614
0.34829999999999983,-0.0031350002405009215
0.34729999999999983,-0.0031788562907967373
0.34629999999999983,-0.0032184682071929585
0.34529999999999983,-0.00327222723658783
0.34429999999999983,-0.0033500363580804067
0.3432999999999998,-0.0034080395213748733
0.3422999999999998,-0.003429260190872849
0.3412999999999998,-0.0034731162411686654
0.3402999999999998,-0.003550925362661242
0.3392999999999998,-0.0036244903502542234
0.3382999999999998,-0.003689567070048016
0.3372999999999998,-0.0037122024508458563
0.3362999999999998,-0.003748984944642347
0.3352999999999998,-0.0038041586853370833
0.3342999999999998,-0.0038876266520291207
0.3332999999999998,-0.003934312124924667
0.3322999999999998,-0.003971094618721158
0.3312999999999998,-0.004005047689917919
0.3302999999999998,-0.004054562585413195
0.3292999999999998,-0.004128127573006177
0.3282999999999998,-0.004184716025000778
0.3272999999999998,-0.004222913230097134
0.3262999999999998,-0.004248378033494706
0.3252999999999999,-0.004300722351589711
0.3242999999999999,-0.004368628493983233
0.3232999999999999,-0.004425216945977834
0.3222999999999999,-0.004459170017174596
0.3212999999999999,-0.004481805397972436
0.3202999999999999,-0.004531320293467712
0.3192999999999999,-0.004611958837560019
0.3182999999999999,-0.004651570753956241
0.3172999999999999,-0.004662888444355161
0.3162999999999999,-0.004719476896349762
0.3152999999999999,-0.004761918235345714
0.3142999999999999,-0.004826994955139506
0.3132999999999999,-0.004863777448935997
0.3122999999999999,-0.004875095139334916
0.3112999999999999,-0.0049062187879319475
0.3102999999999999,-0.0049486601269278984
0.3092999999999999,-0.005036372227519531
0.3082999999999999,-0.005087301834314672
0.3072999999999999,-0.005101448947313322
0.3062999999999999,-0.005122669616811297
0.3052999999999999,-0.005162281533207518
0.3042999999999999,-0.005231602386900905
0.3032999999999999,-0.005281117282396182
0.3022999999999999,-0.0052995085292944265
0.3012999999999999,-0.005336291023090918
0.3002999999999999,-0.005371658805587544
0.2992999999999999,-0.005422588412382685
0.2982999999999999,-0.005482006286977017
0.2972999999999999,-0.005510300512974318
0.2962999999999999,-0.005540009450271483
0.2952999999999999,-0.005562644831069324
0.2942999999999999,-0.005639039241262036
0.2932999999999999,-0.005680065868958122
0.2922999999999999,-0.005699871827156233
0.2912999999999999,-0.005718263074054478
0.2902999999999999,-0.005764948546950025
0.2892999999999999,-0.005854075358841523
0.2882999999999999,-0.005893687275237743
0.2872999999999999,-0.0058993461204372025
0.2862999999999999,-0.005909249099536258
0.2852999999999999,-0.005953105149832074
0.2842999999999999,-0.006045061384323302
0.2832999999999999,-0.006071940899020738
0.2822999999999999,-0.006107308681517363
0.2812999999999999,-0.006121455794516013
0.2802999999999999,-0.0061738001126110205
0.2792999999999999,-0.006244535677604272
0.2782999999999999,-0.006279903460100897
0.2772999999999999,-0.006305368263498468
0.2762999999999999,-0.006335077200795635
0.2752999999999999,-0.006356297870293609
0.2742999999999999,-0.006441180548285512
0.2732999999999999,-0.006492110155080654
0.2722999999999999,-0.0064991837115799785
0.2712999999999999,-0.006551528029674985
0.2702999999999999,-0.006591139946071206
0.2692999999999999,-0.006643484264166213
0.26829999999999987,-0.0067043168500604084
0.26729999999999987,-0.006717049251759194
0.26629999999999987,-0.00675241703425582
0.26529999999999987,-0.00678919952805231
0.26429999999999987,-0.006874082206044212
0.26329999999999987,-0.00692642652413922
0.26229999999999987,-0.0069278412354390854
0.26129999999999987,-0.006963209017935711
0.26029999999999986,-0.007005650356931662
0.25929999999999986,-0.007079215344524643
0.25829999999999986,-0.007157024466017221
0.25729999999999986,-0.007165512733816412
0.25629999999999986,-0.007185318692014522
0.25529999999999986,-0.007239077721409393
0.25429999999999986,-0.0073211309768015645
0.25329999999999986,-0.007356498759298191
0.25229999999999986,-0.007377719428796167
0.25129999999999986,-0.007413087211292792
0.25029999999999986,-0.007445625571189688
0.24929999999999986,-0.007531922960481456
0.24829999999999985,-0.007563046609078486
0.24729999999999985,-0.007587096701176191
0.24629999999999985,-0.007605487948074439
0.24529999999999985,-0.007663491111368904
0.24429999999999985,-0.00774695907806094
0.24329999999999985,-0.007778082726657971
0.24229999999999985,-0.007793644550956487
0.24129999999999985,-0.007820524065653924
0.24029999999999985,-0.00784457415775163
0.23929999999999985,-0.007920968567944341
0.23829999999999985,-0.00794926279394164
0.23729999999999984,-0.007959165773040696
0.23629999999999984,-0.007983215865138404
0.23529999999999984,-0.008011510091135703
0.23429999999999984,-0.008062439697930844
0.23329999999999984,-0.00811478401602585
0.23229999999999984,-0.008110539882126256
0.23129999999999984,-0.008137419396823692
0.23029999999999984,-0.008158640066321667
0.22929999999999984,-0.008215228518316268
0.22829999999999984,-0.00826332870251168
0.22729999999999984,-0.008256255146012354
0.22629999999999983,-0.008278890526810195
0.22529999999999983,-0.00830859946410736
0.22429999999999983,-0.008359529070902502
0.22329999999999983,-0.008400555698598587
0.22229999999999983,-0.008389238008199667
0.22129999999999983,-0.008382164451700343
0.22029999999999983,-0.008426020501996158
0.21929999999999983,-0.008486853087890354
0.21829999999999983,-0.00852787971558644
0.21729999999999983,-0.008520806159087117
0.21629999999999983,-0.008529294426886306
0.21529999999999982,-0.008556173941583742
0.21429999999999982,-0.008601444703179422
0.21329999999999982,-0.00864813017607497
0.21229999999999982,-0.008646715464775103
0.21129999999999982,-0.008643886042175374
0.21029999999999982,-0.00867076555687281
0.20929999999999982,-0.008733012854066871
0.20829999999999982,-0.008752818812264982
0.20729999999999982,-0.008757062946164578
0.20629999999999982,-0.008768380636563497
0.20529999999999982,-0.008779698326962418
0.20429999999999982,-0.008850433891955669
0.20329999999999981,-0.008861751582354591
0.2022999999999998,-0.008878728117952971
0.2012999999999998,-0.008885801674452295
0.20029999999999992,-0.00892399887954865
0.19929999999999992,-0.008965025507244737
0.19829999999999992,-0.008989075599342443
0.19729999999999992,-0.009001808001041228
0.19629999999999992,-0.009007466846240689
0.19529999999999992,-0.009023028670539205
0.19429999999999992,-0.009113570193730566
0.19329999999999992,-0.009174402779624762
0.19229999999999992,-0.009144693842327595
0.19129999999999991,-0.009143279131027731
0.1902999999999999,-0.009156011532726518
0.1892999999999999,-0.009204111716921927
0.1882999999999999,-0.00924938247851761
0.1872999999999999,-0.009242308922018284
0.1862999999999999,-0.009253626612417205
0.1852999999999999,-0.0092861649723141
0.1842999999999999,-0.009322947466110591
0.1832999999999999,-0.009355485826007488
0.1822999999999999,-0.009359729959907083
0.1812999999999999,-0.009369632939006138
0.1802999999999999,-0.009396512453703574
0.1792999999999999,-0.009441783215299255
0.1782999999999999,-0.009501201089893585
0.1772999999999999,-0.00948563926559507
0.1762999999999999,-0.009496956955993991
0.1752999999999999,-0.009523836470691428
0.1742999999999999,-0.009571936654886837
0.1732999999999999,-0.009595986746984544
0.1722999999999999,-0.009620036839082248
0.1712999999999999,-0.009601645592184002
0.1702999999999999,-0.009628525106881438
0.1692999999999999,-0.00968228413627631
0.1682999999999999,-0.009734628454371317
0.1672999999999999,-0.009738872588270914
0.1662999999999999,-0.009744531433470371
0.1652999999999999,-0.00975443441256943
0.1642999999999999,-0.009823755266262814
0.1632999999999999,-0.00983365824536187
0.1622999999999999,-0.009846390647060655
0.1612999999999999,-0.00986761131655863
0.1602999999999999,-0.009881758429557281
0.1592999999999999,-0.009939761592851747
0.15829999999999989,-0.009963811684949454
0.15729999999999988,-0.009969470530148914
0.15629999999999988,-0.00999635004484635
0.15529999999999988,-0.01001615600304446
0.15429999999999988,-0.0100670856098396
0.15329999999999988,-0.010113771082735147
0.15229999999999988,-0.010102453392336227
0.15129999999999988,-0.010119429927934607
0.15029999999999988,-0.010139235886132717
0.14929999999999988,-0.010201483183326778
0.14829999999999988,-0.010255242212721652
0.14729999999999988,-0.010241095099723001
0.14629999999999987,-0.010259486346621246
0.14529999999999987,-0.010273633459619897
0.14429999999999987,-0.010316074798615847
0.14329999999999987,-0.010385395652309235
0.14229999999999987,-0.010405201610507344
0.14129999999999987,-0.01040661632180721
0.14029999999999987,-0.010422178146105724
0.13929999999999987,-0.010478766598100325
0.13829999999999987,-0.010509890246697358
0.13729999999999987,-0.010514134380596953
0.13629999999999987,-0.010532525627495199
0.13529999999999986,-0.010552331585693308
0.13429999999999986,-0.01061174946028764
0.13329999999999986,-0.010648531954084132
0.13229999999999986,-0.010651361376683863
0.13129999999999986,-0.010659849644483051
0.13029999999999986,-0.010693802715679813
0.12929999999999986,-0.010756050012873873
0.12829999999999986,-0.010788588372770769
0.12729999999999986,-0.010801320774469554
0.12629999999999986,-0.010823956155267395
0.12529999999999986,-0.010853665092564562
0.12429999999999986,-0.010915912389758623
0.12329999999999985,-0.010951280172255249
0.12229999999999985,-0.010955524306154846
0.12129999999999985,-0.010958353728754575
0.12029999999999985,-0.010986647954751875
0.11929999999999985,-0.011044651118046341
0.11829999999999985,-0.011085677745742428
0.11729999999999985,-0.011106898415240403
0.11629999999999985,-0.011122460239538919
0.11529999999999985,-0.011153583888135948
0.11429999999999985,-0.011203098783631226
0.11329999999999985,-0.011248369545226906
0.11229999999999984,-0.011261101946925691
0.11129999999999984,-0.011269590214724881
0.11029999999999984,-0.011299299152022046
0.10929999999999984,-0.0113700347170153
0.10829999999999984,-0.011416720189910844
0.10729999999999984,-0.01140398778821206
0.10629999999999984,-0.011447843838507877
0.10529999999999984,-0.011476138064505176
0.10429999999999984,-0.01154687362949843
0.10329999999999984,-0.011604876792792897
0.10229999999999984,-0.01159780323629357
0.10129999999999983,-0.011611950349292221
0.10029999999999983,-0.011641659286589386
0.09929999999999983,-0.011695418315984257
0.09829999999999983,-0.011754836190578589
0.09729999999999983,-0.01175766561317832
0.09629999999999983,-0.011773227437476835
0.09529999999999983,-0.011807180508673597
0.09429999999999983,-0.011853865981569142
0.09329999999999983,-0.011893477897965363
0.09229999999999983,-0.011916113278763203
0.09129999999999983,-0.01193733394826118
0.09029999999999982,-0.011967042885558346
0.08929999999999982,-0.012043437295751058
0.08829999999999982,-0.012074560944348087
0.08729999999999982,-0.012094366902546198
0.08629999999999982,-0.01210285517034539
0.08529999999999982,-0.012146711220641206
0.08429999999999982,-0.012208958517835267
0.08329999999999982,-0.012247155722931623
0.08229999999999982,-0.012264132258530003
0.08129999999999982,-0.012274035237629058
0.08029999999999982,-0.012305158886226089
0.07929999999999982,-0.012377309162519206
0.07829999999999981,-0.012436727037113538
0.07729999999999981,-0.012428238769314348
0.07629999999999981,-0.012453703572711918
0.07529999999999992,-0.012486241932608813
0.07429999999999992,-0.01254141567330355
0.07329999999999992,-0.012613565949596667
0.07229999999999992,-0.012622054217395857
0.07129999999999992,-0.012637616041694373
0.07029999999999992,-0.012657421999892483
0.06929999999999992,-0.012721084008386408
0.06829999999999992,-0.012790404862079796
0.06729999999999992,-0.012798893129878986
0.06629999999999991,-0.012831431489775882
0.06529999999999991,-0.01286679927227251
0.06429999999999991,-0.012940364259865491
0.06329999999999991,-0.013001196845759686
0.06229999999999991,-0.013011099824858742
0.06129999999999991,-0.013021002803957798
0.06029999999999991,-0.013060614720354018
0.05929999999999991,-0.013127106151447677
0.05829999999999991,-0.013182279892142412
0.05729999999999991,-0.013199256427740792
0.056299999999999906,-0.013224721231138364
0.055299999999999905,-0.01326574785883445
0.054299999999999904,-0.013333654001227971
0.0532999999999999,-0.013391657164522437
0.0522999999999999,-0.013428439658318927
0.0512999999999999,-0.013431269080918658
0.0502999999999999,-0.013476539842514339
0.0492999999999999,-0.013531713583209077
0.0482999999999999,-0.013585472612603948
0.0472999999999999,-0.013619425683800706
0.0462999999999999,-0.01365054933239774
0.045299999999999896,-0.01367318471319558
0.044299999999999895,-0.013755237968587752
0.043299999999999894,-0.013806167575382894
0.04229999999999989,-0.013828802956180733
0.04129999999999989,-0.013847194203078981
0.04029999999999989,-0.013902367943773714
0.03929999999999989,-0.013983006487866021
0.03829999999999989,-0.014022618404262242
0.03729999999999989,-0.01404666849635995
0.03629999999999989,-0.014090524546655766
0.03529999999999989,-0.014099012814454956
0.034299999999999886,-0.014189554337646317
0.033299999999999885,-0.01426028990263957
0.032299999999999884,-0.01427443701563822
0.031299999999999883,-0.01430273124163552
0.030299999999999883,-0.014331025467632824
0.02929999999999988,-0.014387613919627423
0.02829999999999988,-0.014458349484620674
0.02729999999999988,-0.014486643710617976
0.02629999999999988,-0.014529085049613928
0.025299999999999878,-0.014571526388609878
0.024299999999999877,-0.014628114840604478
0.023299999999999876,-0.01469885040559773
0.022299999999999875,-0.014727144631595034
0.021299999999999875,-0.014755438857592333
0.020299999999999874,-0.014812027309586936
0.019299999999999873,-0.014854468648582884
0.018299999999999872,-0.014953498439573438
0.01729999999999987,-0.014953498439573438
0.01629999999999987,-0.014995939778569388
0.01529999999999987,-0.01505252823056399
0.014299999999999868,-0.01509496956955994
0.013299999999999867,-0.015165705134553195
0.012299999999999978,-0.015208146473549147
0.011299999999999866,-0.015208146473549147
0.010299999999999976,-0.015250587812545097
0.009299999999999864,-0.015321323377538347
0.008299999999999974,-0.015377911829532949
0.007299999999999862,-0.015406206055530251
0.006299999999999972,-0.015420353168528897
0.00529999999999986,-0.01546279450752485
0.0042999999999999705,-0.015547677185516754
0.0032999999999998586,-0.015590118524512706
0.0022999999999999687,-0.015632559863508654
0.0012999999999998568,-0.015660854089505957
0.00029999999999996696,-0.01568914831550326
-0.000700000000000145,-0.01575988388049651
-0.0017000000000000348,-0.01581647233249111
-0.0027000000000001467,-0.01585891367148706
-0.0037000000000000366,-0.01588720789748436
-0.0047000000000001485,-0.01591550212348166
-0.005700000000000038,-0.016000384801473564
-0.00670000000000015,-0.016056973253468165
-0.00770000000000004,-0.016071120366466816
-0.008700000000000152,-0.016099414592464115
-0.009700000000000042,-0.016127708818461418
-0.010700000000000154,-0.01624088572245062
-0.011700000000000044,-0.01629747417444522
-0.012700000000000156,-0.016311621287443873
-0.013700000000000045,-0.016368209739438477
-0.014700000000000157,-0.016396503965435776
-0.015700000000000047,-0.01646723953042903
-0.01670000000000016,-0.016537975095422278
-0.01770000000000005,-0.016537975095422278
-0.01870000000000016,-0.01658041643441823
-0.01970000000000005,-0.01662285777341418
-0.020700000000000163,-0.016679446225408782
-0.021700000000000053,-0.016750181790402035
-0.022700000000000164,-0.016778476016399334
-0.023700000000000054,-0.016806770242396636
-0.024700000000000166,-0.016863358694391237
-0.025700000000000056,-0.01691994714638584
-0.026700000000000168,-0.01699068271137909
-0.027700000000000058,-0.017004829824377742
-0.02870000000000017,-0.01703312405037504
-0.02970000000000006,-0.017089712502369642
-0.03070000000000017,-0.017160448067362895
-0.03170000000000006,-0.017217036519357496
-0.03270000000000017,-0.0172453307453548
-0.03370000000000006,-0.017273624971352097
-0.034700000000000175,-0.0173302134233467
-0.035700000000000065,-0.0174150961013386
-0.03670000000000018,-0.01748583166633185
-0.03770000000000007,-0.017514125892329157
-0.03870000000000018,-0.0175282730053278
-0.03970000000000007,-0.017556567231325104
-0.04070000000000018,-0.017627302796318356
-0.04170000000000007,-0.01768389124831296
-0.04270000000000018,-0.01771218547431026
-0.04370000000000007,-0.017754626813306213
-0.044700000000000184,-0.017782921039303512
-0.045700000000000074,-0.01785365660429676
-0.046700000000000186,-0.017924392169290013
-0.047700000000000076,-0.017938539282288665
-0.04870000000000019,-0.017980980621284618
-0.04970000000000008,-0.018023421960280565
-0.05070000000000019,-0.018080010412275173
-0.05170000000000008,-0.018150745977268422
-0.05270000000000019,-0.018150745977268422
-0.05370000000000008,-0.01820733442926302
-0.05470000000000019,-0.018235628655260322
-0.05570000000000008,-0.018320511333252226
-0.056700000000000195,-0.018391246898245478
-0.057700000000000085,-0.018419541124242777
-0.058700000000000196,-0.018447835350240076
-0.059700000000000086,-0.01849027668923603
-0.0607000000000002,-0.018575159367227933
-0.06170000000000009,-0.018660042045219833
