Aug. 27, 2024   08:01:51
Cyclic Voltammetry
File: c:/users/guazh/data/20240813_batch_181_500/2024-08-25-exp195\exp195-2024-08-27t07_49_27-h2koh\exp195_cv_50mvs_efin_-1600mv.bin
Data Source:  Experiment
Instrument Model:  CHI760E
Header: CV ran at 50 mVs
Note: 

Init E (V) = -1
High E (V) = -1
Low E (V) = -1.6
Final E (V) = -1
Init P/N = N
Scan Rate (V/s) = 0.05
Segment = 7
Sample Interval (V) = 0.001
Quiet Time (sec) = 60
Sensitivity (A/V) = 0.001
Comp R (ohm) = 1.9

Results:

Channel 1:
Segment 1:

Segment 2:

Segment 3:

Segment 4:
Ep = -1.131V
ip = -1.757e-4A
Ah = -2.187e-4C

Segment 5:

Segment 6:
Ep = -1.132V
ip = -1.356e-4A
Ah = -1.519e-4C

Segment 7:

Potential/V, Current/A

-1.000, 1.480e-6
-1.001, 4.779e-6
-1.002, 6.428e-6
-1.003, 7.487e-6
-1.004, 8.428e-6
-1.005, 9.145e-6
-1.006, 9.845e-6
-1.007, 1.052e-5
-1.008, 1.105e-5
-1.009, 1.151e-5
-1.010, 1.214e-5
-1.011, 1.259e-5
-1.012, 1.316e-5
-1.013, 1.362e-5
-1.014, 1.399e-5
-1.015, 1.449e-5
-1.016, 1.489e-5
-1.017, 1.541e-5
-1.018, 1.582e-5
-1.019, 1.616e-5
-1.020, 1.656e-5
-1.021, 1.698e-5
-1.022, 1.736e-5
-1.023, 1.779e-5
-1.024, 1.812e-5
-1.025, 1.850e-5
-1.026, 1.888e-5
-1.027, 1.931e-5
-1.028, 1.962e-5
-1.029, 1.996e-5
-1.030, 2.024e-5
-1.031, 2.069e-5
-1.032, 2.104e-5
-1.033, 2.128e-5
-1.034, 2.163e-5
-1.035, 2.196e-5
-1.036, 2.231e-5
-1.037, 2.263e-5
-1.038, 2.293e-5
-1.039, 2.318e-5
-1.040, 2.342e-5
-1.041, 2.381e-5
-1.042, 2.409e-5
-1.043, 2.435e-5
-1.044, 2.449e-5
-1.045, 2.480e-5
-1.046, 2.500e-5
-1.047, 2.538e-5
-1.048, 2.553e-5
-1.049, 2.571e-5
-1.050, 2.595e-5
-1.051, 2.620e-5
-1.052, 2.637e-5
-1.053, 2.658e-5
-1.054, 2.672e-5
-1.055, 2.693e-5
-1.056, 2.712e-5
-1.057, 2.732e-5
-1.058, 2.749e-5
-1.059, 2.762e-5
-1.060, 2.779e-5
-1.061, 2.795e-5
-1.062, 2.809e-5
-1.063, 2.836e-5
-1.064, 2.835e-5
-1.065, 2.858e-5
-1.066, 2.870e-5
-1.067, 2.891e-5
-1.068, 2.906e-5
-1.069, 2.910e-5
-1.070, 2.928e-5
-1.071, 2.934e-5
-1.072, 2.955e-5
-1.073, 2.973e-5
-1.074, 2.974e-5
-1.075, 2.995e-5
-1.076, 3.000e-5
-1.077, 3.027e-5
-1.078, 3.030e-5
-1.079, 3.041e-5
-1.080, 3.042e-5
-1.081, 3.061e-5
-1.082, 3.084e-5
-1.083, 3.090e-5
-1.084, 3.096e-5
-1.085, 3.095e-5
-1.086, 3.125e-5
-1.087, 3.145e-5
-1.088, 3.145e-5
-1.089, 3.141e-5
-1.090, 3.169e-5
-1.091, 3.176e-5
-1.092, 3.192e-5
-1.093, 3.195e-5
-1.094, 3.201e-5
-1.095, 3.225e-5
-1.096, 3.231e-5
-1.097, 3.241e-5
-1.098, 3.254e-5
-1.099, 3.264e-5
-1.100, 3.276e-5
-1.101, 3.288e-5
-1.102, 3.288e-5
-1.103, 3.323e-5
-1.104, 3.317e-5
-1.105, 3.326e-5
-1.106, 3.340e-5
-1.107, 3.369e-5
-1.108, 3.375e-5
-1.109, 3.372e-5
-1.110, 3.382e-5
-1.111, 3.417e-5
-1.112, 3.426e-5
-1.113, 3.422e-5
-1.114, 3.438e-5
-1.115, 3.459e-5
-1.116, 3.474e-5
-1.117, 3.478e-5
-1.118, 3.497e-5
-1.119, 3.511e-5
-1.120, 3.525e-5
-1.121, 3.525e-5
-1.122, 3.554e-5
-1.123, 3.572e-5
-1.124, 3.578e-5
-1.125, 3.577e-5
-1.126, 3.614e-5
-1.127, 3.636e-5
-1.128, 3.639e-5
-1.129, 3.637e-5
-1.130, 3.673e-5
-1.131, 3.686e-5
-1.132, 3.702e-5
-1.133, 3.702e-5
-1.134, 3.733e-5
-1.135, 3.749e-5
-1.136, 3.753e-5
-1.137, 3.773e-5
-1.138, 3.803e-5
-1.139, 3.811e-5
-1.140, 3.812e-5
-1.141, 3.837e-5
-1.142, 3.873e-5
-1.143, 3.881e-5
-1.144, 3.872e-5
-1.145, 3.913e-5
-1.146, 3.930e-5
-1.147, 3.939e-5
-1.148, 3.955e-5
-1.149, 3.981e-5
-1.150, 4.002e-5
-1.151, 4.004e-5
-1.152, 4.034e-5
-1.153, 4.064e-5
-1.154, 4.070e-5
-1.155, 4.072e-5
-1.156, 4.103e-5
-1.157, 4.137e-5
-1.158, 4.148e-5
-1.159, 4.145e-5
-1.160, 4.182e-5
-1.161, 4.207e-5
-1.162, 4.213e-5
-1.163, 4.228e-5
-1.164, 4.266e-5
-1.165, 4.274e-5
-1.166, 4.279e-5
-1.167, 4.312e-5
-1.168, 4.340e-5
-1.169, 4.351e-5
-1.170, 4.352e-5
-1.171, 4.381e-5
-1.172, 4.428e-5
-1.173, 4.430e-5
-1.174, 4.420e-5
-1.175, 4.463e-5
-1.176, 4.488e-5
-1.177, 4.502e-5
-1.178, 4.515e-5
-1.179, 4.547e-5
-1.180, 4.562e-5
-1.181, 4.558e-5
-1.182, 4.608e-5
-1.183, 4.629e-5
-1.184, 4.618e-5
-1.185, 4.641e-5
-1.186, 4.685e-5
-1.187, 4.700e-5
-1.188, 4.698e-5
-1.189, 4.730e-5
-1.190, 4.755e-5
-1.191, 4.761e-5
-1.192, 4.788e-5
-1.193, 4.826e-5
-1.194, 4.824e-5
-1.195, 4.825e-5
-1.196, 4.880e-5
-1.197, 4.899e-5
-1.198, 4.887e-5
-1.199, 4.926e-5
-1.200, 4.948e-5
-1.201, 4.953e-5
-1.202, 4.988e-5
-1.203, 5.014e-5
-1.204, 5.021e-5
-1.205, 5.028e-5
-1.206, 5.078e-5
-1.207, 5.104e-5
-1.208, 5.093e-5
-1.209, 5.136e-5
-1.210, 5.166e-5
-1.211, 5.167e-5
-1.212, 5.206e-5
-1.213, 5.237e-5
-1.214, 5.242e-5
-1.215, 5.258e-5
-1.216, 5.301e-5
-1.217, 5.326e-5
-1.218, 5.322e-5
-1.219, 5.359e-5
-1.220, 5.402e-5
-1.221, 5.407e-5
-1.222, 5.438e-5
-1.223, 5.484e-5
-1.224, 5.488e-5
-1.225, 5.504e-5
-1.226, 5.562e-5
-1.227, 5.584e-5
-1.228, 5.597e-5
-1.229, 5.653e-5
-1.230, 5.674e-5
-1.231, 5.679e-5
-1.232, 5.731e-5
-1.233, 5.771e-5
-1.234, 5.768e-5
-1.235, 5.815e-5
-1.236, 5.866e-5
-1.237, 5.880e-5
-1.238, 5.922e-5
-1.239, 5.979e-5
-1.240, 5.994e-5
-1.241, 6.023e-5
-1.242, 6.088e-5
-1.243, 6.128e-5
-1.244, 6.133e-5
-1.245, 6.195e-5
-1.246, 6.251e-5
-1.247, 6.272e-5
-1.248, 6.332e-5
-1.249, 6.376e-5
-1.250, 6.397e-5
-1.251, 6.460e-5
-1.252, 6.523e-5
-1.253, 6.542e-5
-1.254, 6.596e-5
-1.255, 6.668e-5
-1.256, 6.697e-5
-1.257, 6.754e-5
-1.258, 6.828e-5
-1.259, 6.856e-5
-1.260, 6.898e-5
-1.261, 6.984e-5
-1.262, 7.032e-5
-1.263, 7.084e-5
-1.264, 7.163e-5
-1.265, 7.201e-5
-1.266, 7.264e-5
-1.267, 7.356e-5
-1.268, 7.397e-5
-1.269, 7.472e-5
-1.270, 7.554e-5
-1.271, 7.602e-5
-1.272, 7.693e-5
-1.273, 7.769e-5
-1.274, 7.815e-5
-1.275, 7.904e-5
-1.276, 7.992e-5
-1.277, 8.049e-5
-1.278, 8.149e-5
-1.279, 8.237e-5
-1.280, 8.293e-5
-1.281, 8.398e-5
-1.282, 8.495e-5
-1.283, 8.553e-5
-1.284, 8.665e-5
-1.285, 8.751e-5
-1.286, 8.825e-5
-1.287, 8.954e-5
-1.288, 9.040e-5
-1.289, 9.114e-5
-1.290, 9.236e-5
-1.291, 9.335e-5
-1.292, 9.437e-5
-1.293, 9.562e-5
-1.294, 9.648e-5
-1.295, 9.758e-5
-1.296, 9.893e-5
-1.297, 9.992e-5
-1.298, 1.011e-4
-1.299, 1.024e-4
-1.300, 1.034e-4
-1.301, 1.048e-4
-1.302, 1.061e-4
-1.303, 1.071e-4
-1.304, 1.084e-4
-1.305, 1.099e-4
-1.306, 1.110e-4
-1.307, 1.126e-4
-1.308, 1.141e-4
-1.309, 1.152e-4
-1.310, 1.168e-4
-1.311, 1.183e-4
-1.312, 1.197e-4
-1.313, 1.214e-4
-1.314, 1.228e-4
-1.315, 1.243e-4
-1.316, 1.261e-4
-1.317, 1.278e-4
-1.318, 1.292e-4
-1.319, 1.311e-4
-1.320, 1.327e-4
-1.321, 1.344e-4
-1.322, 1.364e-4
-1.323, 1.381e-4
-1.324, 1.399e-4
-1.325, 1.420e-4
-1.326, 1.437e-4
-1.327, 1.457e-4
-1.328, 1.478e-4
-1.329, 1.497e-4
-1.330, 1.516e-4
-1.331, 1.539e-4
-1.332, 1.560e-4
-1.333, 1.581e-4
-1.334, 1.604e-4
-1.335, 1.625e-4
-1.336, 1.647e-4
-1.337, 1.673e-4
-1.338, 1.695e-4
-1.339, 1.718e-4
-1.340, 1.745e-4
-1.341, 1.768e-4
-1.342, 1.793e-4
-1.343, 1.821e-4
-1.344, 1.845e-4
-1.345, 1.872e-4
-1.346, 1.901e-4
-1.347, 1.927e-4
-1.348, 1.955e-4
-1.349, 1.983e-4
-1.350, 2.010e-4
-1.351, 2.040e-4
-1.352, 2.070e-4
-1.353, 2.099e-4
-1.354, 2.128e-4
-1.355, 2.160e-4
-1.356, 2.190e-4
-1.357, 2.222e-4
-1.358, 2.256e-4
-1.359, 2.285e-4
-1.360, 2.318e-4
-1.361, 2.352e-4
-1.362, 2.384e-4
-1.363, 2.418e-4
-1.364, 2.453e-4
-1.365, 2.483e-4
-1.366, 2.518e-4
-1.367, 2.555e-4
-1.368, 2.586e-4
-1.369, 2.621e-4
-1.370, 2.659e-4
-1.371, 2.691e-4
-1.372, 2.729e-4
-1.373, 2.763e-4
-1.374, 2.798e-4
-1.375, 2.837e-4
-1.376, 2.871e-4
-1.377, 2.910e-4
-1.378, 2.948e-4
-1.379, 2.983e-4
-1.380, 3.020e-4
-1.381, 3.057e-4
-1.382, 3.096e-4
-1.383, 3.134e-4
-1.384, 3.171e-4
-1.385, 3.209e-4
-1.386, 3.245e-4
-1.387, 3.285e-4
-1.388, 3.327e-4
-1.389, 3.364e-4
-1.390, 3.405e-4
-1.391, 3.446e-4
-1.392, 3.482e-4
-1.393, 3.524e-4
-1.394, 3.564e-4
-1.395, 3.607e-4
-1.396, 3.650e-4
-1.397, 3.694e-4
-1.398, 3.737e-4
-1.399, 3.779e-4
-1.400, 3.823e-4
-1.401, 3.868e-4
-1.402, 3.913e-4
-1.403, 3.959e-4
-1.404, 4.005e-4
-1.405, 4.049e-4
-1.406, 4.094e-4
-1.407, 4.143e-4
-1.408, 4.191e-4
-1.409, 4.237e-4
-1.410, 4.287e-4
-1.411, 4.338e-4
-1.412, 4.385e-4
-1.413, 4.435e-4
-1.414, 4.487e-4
-1.415, 4.539e-4
-1.416, 4.591e-4
-1.417, 4.642e-4
-1.418, 4.694e-4
-1.419, 4.743e-4
-1.420, 4.800e-4
-1.421, 4.854e-4
-1.422, 4.909e-4
-1.423, 4.968e-4
-1.424, 5.019e-4
-1.425, 5.075e-4
-1.426, 5.132e-4
-1.427, 5.191e-4
-1.428, 5.251e-4
-1.429, 5.307e-4
-1.430, 5.365e-4
-1.431, 5.424e-4
-1.432, 5.486e-4
-1.433, 5.549e-4
-1.434, 5.615e-4
-1.435, 5.677e-4
-1.436, 5.743e-4
-1.437, 5.808e-4
-1.438, 5.872e-4
-1.439, 5.939e-4
-1.440, 6.006e-4
-1.441, 6.075e-4
-1.442, 6.144e-4
-1.443, 6.220e-4
-1.444, 6.295e-4
-1.445, 6.366e-4
-1.446, 6.442e-4
-1.447, 6.518e-4
-1.448, 6.599e-4
-1.449, 6.678e-4
-1.450, 6.759e-4
-1.451, 6.840e-4
-1.452, 6.922e-4
-1.453, 7.006e-4
-1.454, 7.089e-4
-1.455, 7.172e-4
-1.456, 7.256e-4
-1.457, 7.347e-4
-1.458, 7.435e-4
-1.459, 7.524e-4
-1.460, 7.619e-4
-1.461, 7.709e-4
-1.462, 7.805e-4
-1.463, 7.902e-4
-1.464, 7.998e-4
-1.465, 8.093e-4
-1.466, 8.195e-4
-1.467, 8.300e-4
-1.468, 8.410e-4
-1.469, 8.512e-4
-1.470, 8.620e-4
-1.471, 8.736e-4
-1.472, 8.843e-4
-1.473, 8.960e-4
-1.474, 9.074e-4
-1.475, 9.192e-4
-1.476, 9.310e-4
-1.477, 9.431e-4
-1.478, 9.556e-4
-1.479, 9.680e-4
-1.480, 9.812e-4
-1.481, 9.939e-4
-1.482, 1.007e-3
-1.483, 1.021e-3
-1.484, 1.034e-3
-1.485, 1.049e-3
-1.486, 1.063e-3
-1.487, 1.078e-3
-1.488, 1.092e-3
-1.489, 1.107e-3
-1.490, 1.122e-3
-1.491, 1.138e-3
-1.492, 1.154e-3
-1.493, 1.169e-3
-1.494, 1.185e-3
-1.495, 1.202e-3
-1.496, 1.218e-3
-1.497, 1.235e-3
-1.498, 1.252e-3
-1.499, 1.268e-3
-1.500, 1.286e-3
-1.501, 1.303e-3
-1.502, 1.321e-3
-1.503, 1.340e-3
-1.504, 1.359e-3
-1.505, 1.378e-3
-1.506, 1.398e-3
-1.507, 1.417e-3
-1.508, 1.436e-3
-1.509, 1.456e-3
-1.510, 1.475e-3
-1.511, 1.495e-3
-1.512, 1.516e-3
-1.513, 1.537e-3
-1.514, 1.558e-3
-1.515, 1.579e-3
-1.516, 1.600e-3
-1.517, 1.622e-3
-1.518, 1.643e-3
-1.519, 1.666e-3
-1.520, 1.687e-3
-1.521, 1.710e-3
-1.522, 1.732e-3
-1.523, 1.755e-3
-1.524, 1.778e-3
-1.525, 1.800e-3
-1.526, 1.822e-3
-1.527, 1.845e-3
-1.528, 1.868e-3
-1.529, 1.891e-3
-1.530, 1.913e-3
-1.531, 1.938e-3
-1.532, 1.962e-3
-1.533, 1.987e-3
-1.534, 2.012e-3
-1.535, 2.037e-3
-1.536, 2.061e-3
-1.537, 2.087e-3
-1.538, 2.113e-3
-1.539, 2.138e-3
-1.540, 2.164e-3
-1.541, 2.189e-3
-1.542, 2.215e-3
-1.543, 2.241e-3
-1.544, 2.268e-3
-1.545, 2.294e-3
-1.546, 2.321e-3
-1.547, 2.348e-3
-1.548, 2.374e-3
-1.549, 2.401e-3
-1.550, 2.430e-3
-1.551, 2.457e-3
-1.552, 2.483e-3
-1.553, 2.510e-3
-1.554, 2.539e-3
-1.555, 2.566e-3
-1.556, 2.594e-3
-1.557, 2.621e-3
-1.558, 2.647e-3
-1.559, 2.674e-3
-1.560, 2.703e-3
-1.561, 2.730e-3
-1.562, 2.758e-3
-1.563, 2.785e-3
-1.564, 2.813e-3
-1.565, 2.842e-3
-1.566, 2.869e-3
-1.567, 2.899e-3
-1.568, 2.929e-3
-1.569, 2.958e-3
-1.570, 2.987e-3
-1.571, 3.013e-3
-1.572, 3.042e-3
-1.573, 3.071e-3
-1.574, 3.100e-3
-1.575, 3.128e-3
-1.576, 3.158e-3
-1.577, 3.187e-3
-1.578, 3.216e-3
-1.579, 3.244e-3
-1.580, 3.271e-3
-1.581, 3.299e-3
-1.582, 3.327e-3
-1.583, 3.356e-3
-1.584, 3.384e-3
-1.585, 3.411e-3
-1.586, 3.440e-3
-1.587, 3.468e-3
-1.588, 3.496e-3
-1.589, 3.523e-3
-1.590, 3.551e-3
-1.591, 3.579e-3
-1.592, 3.607e-3
-1.593, 3.635e-3
-1.594, 3.662e-3
-1.595, 3.689e-3
-1.596, 3.715e-3
-1.597, 3.744e-3
-1.598, 3.771e-3
-1.599, 3.796e-3
-1.600, 3.794e-3
-1.599, 3.763e-3
-1.598, 3.731e-3
-1.597, 3.699e-3
-1.596, 3.668e-3
-1.595, 3.636e-3
-1.594, 3.604e-3
-1.593, 3.571e-3
-1.592, 3.541e-3
-1.591, 3.510e-3
-1.590, 3.478e-3
-1.589, 3.447e-3
-1.588, 3.416e-3
-1.587, 3.384e-3
-1.586, 3.354e-3
-1.585, 3.323e-3
-1.584, 3.293e-3
-1.583, 3.263e-3
-1.582, 3.233e-3
-1.581, 3.203e-3
-1.580, 3.174e-3
-1.579, 3.144e-3
-1.578, 3.115e-3
-1.577, 3.087e-3
-1.576, 3.057e-3
-1.575, 3.029e-3
-1.574, 3.001e-3
-1.573, 2.973e-3
-1.572, 2.944e-3
-1.571, 2.916e-3
-1.570, 2.887e-3
-1.569, 2.860e-3
-1.568, 2.832e-3
-1.567, 2.804e-3
-1.566, 2.778e-3
-1.565, 2.751e-3
-1.564, 2.725e-3
-1.563, 2.699e-3
-1.562, 2.673e-3
-1.561, 2.647e-3
-1.560, 2.622e-3
-1.559, 2.597e-3
-1.558, 2.571e-3
-1.557, 2.546e-3
-1.556, 2.524e-3
-1.555, 2.499e-3
-1.554, 2.475e-3
-1.553, 2.452e-3
-1.552, 2.428e-3
-1.551, 2.403e-3
-1.550, 2.381e-3
-1.549, 2.357e-3
-1.548, 2.334e-3
-1.547, 2.309e-3
-1.546, 2.287e-3
-1.545, 2.263e-3
-1.544, 2.240e-3
-1.543, 2.218e-3
-1.542, 2.195e-3
-1.541, 2.173e-3
-1.540, 2.151e-3
-1.539, 2.129e-3
-1.538, 2.106e-3
-1.537, 2.085e-3
-1.536, 2.064e-3
-1.535, 2.042e-3
-1.534, 2.021e-3
-1.533, 2.000e-3
-1.532, 1.980e-3
-1.531, 1.958e-3
-1.530, 1.938e-3
-1.529, 1.918e-3
-1.528, 1.897e-3
-1.527, 1.877e-3
-1.526, 1.857e-3
-1.525, 1.837e-3
-1.524, 1.817e-3
-1.523, 1.797e-3
-1.522, 1.779e-3
-1.521, 1.760e-3
-1.520, 1.741e-3
-1.519, 1.721e-3
-1.518, 1.703e-3
-1.517, 1.684e-3
-1.516, 1.665e-3
-1.515, 1.646e-3
-1.514, 1.627e-3
-1.513, 1.609e-3
-1.512, 1.591e-3
-1.511, 1.573e-3
-1.510, 1.555e-3
-1.509, 1.537e-3
-1.508, 1.519e-3
-1.507, 1.502e-3
-1.506, 1.485e-3
-1.505, 1.467e-3
-1.504, 1.451e-3
-1.503, 1.434e-3
-1.502, 1.417e-3
-1.501, 1.400e-3
-1.500, 1.384e-3
-1.499, 1.367e-3
-1.498, 1.351e-3
-1.497, 1.335e-3
-1.496, 1.319e-3
-1.495, 1.305e-3
-1.494, 1.290e-3
-1.493, 1.275e-3
-1.492, 1.260e-3
-1.491, 1.244e-3
-1.490, 1.229e-3
-1.489, 1.214e-3
-1.488, 1.199e-3
-1.487, 1.184e-3
-1.486, 1.170e-3
-1.485, 1.155e-3
-1.484, 1.140e-3
-1.483, 1.126e-3
-1.482, 1.112e-3
-1.481, 1.098e-3
-1.480, 1.084e-3
-1.479, 1.070e-3
-1.478, 1.056e-3
-1.477, 1.043e-3
-1.476, 1.029e-3
-1.475, 1.016e-3
-1.474, 1.003e-3
-1.473, 9.896e-4
-1.472, 9.768e-4
-1.471, 9.637e-4
-1.470, 9.507e-4
-1.469, 9.379e-4
-1.468, 9.253e-4
-1.467, 9.129e-4
-1.466, 9.005e-4
-1.465, 8.882e-4
-1.464, 8.762e-4
-1.463, 8.647e-4
-1.462, 8.527e-4
-1.461, 8.410e-4
-1.460, 8.292e-4
-1.459, 8.176e-4
-1.458, 8.067e-4
-1.457, 7.954e-4
-1.456, 7.841e-4
-1.455, 7.728e-4
-1.454, 7.622e-4
-1.453, 7.514e-4
-1.452, 7.406e-4
-1.451, 7.301e-4
-1.450, 7.194e-4
-1.449, 7.091e-4
-1.448, 6.989e-4
-1.447, 6.888e-4
-1.446, 6.783e-4
-1.445, 6.684e-4
-1.444, 6.586e-4
-1.443, 6.489e-4
-1.442, 6.392e-4
-1.441, 6.293e-4
-1.440, 6.200e-4
-1.439, 6.106e-4
-1.438, 6.013e-4
-1.437, 5.926e-4
-1.436, 5.833e-4
-1.435, 5.742e-4
-1.434, 5.654e-4
-1.433, 5.568e-4
-1.432, 5.483e-4
-1.431, 5.397e-4
-1.430, 5.311e-4
-1.429, 5.230e-4
-1.428, 5.149e-4
-1.427, 5.068e-4
-1.426, 4.987e-4
-1.425, 4.907e-4
-1.424, 4.830e-4
-1.423, 4.753e-4
-1.422, 4.677e-4
-1.421, 4.601e-4
-1.420, 4.526e-4
-1.419, 4.454e-4
-1.418, 4.382e-4
-1.417, 4.310e-4
-1.416, 4.240e-4
-1.415, 4.168e-4
-1.414, 4.100e-4
-1.413, 4.033e-4
-1.412, 3.967e-4
-1.411, 3.899e-4
-1.410, 3.835e-4
-1.409, 3.771e-4
-1.408, 3.707e-4
-1.407, 3.645e-4
-1.406, 3.582e-4
-1.405, 3.520e-4
-1.404, 3.460e-4
-1.403, 3.401e-4
-1.402, 3.343e-4
-1.401, 3.284e-4
-1.400, 3.228e-4
-1.399, 3.172e-4
-1.398, 3.115e-4
-1.397, 3.062e-4
-1.396, 3.007e-4
-1.395, 2.953e-4
-1.394, 2.903e-4
-1.393, 2.850e-4
-1.392, 2.800e-4
-1.391, 2.749e-4
-1.390, 2.698e-4
-1.389, 2.651e-4
-1.388, 2.602e-4
-1.387, 2.556e-4
-1.386, 2.509e-4
-1.385, 2.461e-4
-1.384, 2.417e-4
-1.383, 2.370e-4
-1.382, 2.325e-4
-1.381, 2.283e-4
-1.380, 2.239e-4
-1.379, 2.197e-4
-1.378, 2.155e-4
-1.377, 2.113e-4
-1.376, 2.073e-4
-1.375, 2.031e-4
-1.374, 1.992e-4
-1.373, 1.953e-4
-1.372, 1.914e-4
-1.371, 1.875e-4
-1.370, 1.837e-4
-1.369, 1.799e-4
-1.368, 1.764e-4
-1.367, 1.727e-4
-1.366, 1.692e-4
-1.365, 1.654e-4
-1.364, 1.618e-4
-1.363, 1.584e-4
-1.362, 1.549e-4
-1.361, 1.514e-4
-1.360, 1.480e-4
-1.359, 1.447e-4
-1.358, 1.413e-4
-1.357, 1.381e-4
-1.356, 1.348e-4
-1.355, 1.314e-4
-1.354, 1.284e-4
-1.353, 1.252e-4
-1.352, 1.221e-4
-1.351, 1.190e-4
-1.350, 1.158e-4
-1.349, 1.129e-4
-1.348, 1.099e-4
-1.347, 1.069e-4
-1.346, 1.040e-4
-1.345, 1.010e-4
-1.344, 9.824e-5
-1.343, 9.541e-5
-1.342, 9.255e-5
-1.341, 8.980e-5
-1.340, 8.693e-5
-1.339, 8.423e-5
-1.338, 8.157e-5
-1.337, 7.888e-5
-1.336, 7.625e-5
-1.335, 7.355e-5
-1.334, 7.105e-5
-1.333, 6.858e-5
-1.332, 6.602e-5
-1.331, 6.341e-5
-1.330, 6.088e-5
-1.329, 5.852e-5
-1.328, 5.617e-5
-1.327, 5.377e-5
-1.326, 5.123e-5
-1.325, 4.898e-5
-1.324, 4.675e-5
-1.323, 4.448e-5
-1.322, 4.221e-5
-1.321, 3.988e-5
-1.320, 3.780e-5
-1.319, 3.573e-5
-1.318, 3.357e-5
-1.317, 3.153e-5
-1.316, 2.942e-5
-1.315, 2.734e-5
-1.314, 2.550e-5
-1.313, 2.352e-5
-1.312, 2.169e-5
-1.311, 1.983e-5
-1.310, 1.794e-5
-1.309, 1.629e-5
-1.308, 1.450e-5
-1.307, 1.273e-5
-1.306, 1.099e-5
-1.305, 9.213e-6
-1.304, 7.635e-6
-1.303, 5.985e-6
-1.302, 4.257e-6
-1.301, 2.576e-6
-1.300, 7.960e-7
-1.299, -8.497e-7
-1.298, -2.408e-6
-1.297, -4.232e-6
-1.296, -5.969e-6
-1.295, -7.805e-6
-1.294, -9.577e-6
-1.293, -1.126e-5
-1.292, -1.321e-5
-1.291, -1.517e-5
-1.290, -1.713e-5
-1.289, -1.908e-5
-1.288, -2.087e-5
-1.287, -2.300e-5
-1.286, -2.510e-5
-1.285, -2.713e-5
-1.284, -2.914e-5
-1.283, -3.112e-5
-1.282, -3.327e-5
-1.281, -3.550e-5
-1.280, -3.774e-5
-1.279, -3.971e-5
-1.278, -4.175e-5
-1.277, -4.377e-5
-1.276, -4.584e-5
-1.275, -4.792e-5
-1.274, -4.974e-5
-1.273, -5.162e-5
-1.272, -5.340e-5
-1.271, -5.521e-5
-1.270, -5.698e-5
-1.269, -5.851e-5
-1.268, -5.999e-5
-1.267, -6.154e-5
-1.266, -6.297e-5
-1.265, -6.451e-5
-1.264, -6.566e-5
-1.263, -6.684e-5
-1.262, -6.803e-5
-1.261, -6.918e-5
-1.260, -7.033e-5
-1.259, -7.134e-5
-1.258, -7.225e-5
-1.257, -7.335e-5
-1.256, -7.445e-5
-1.255, -7.566e-5
-1.254, -7.694e-5
-1.253, -7.828e-5
-1.252, -8.022e-5
-1.251, -8.264e-5
-1.250, -8.572e-5
-1.249, -8.942e-5
-1.248, -9.359e-5
-1.247, -9.851e-5
-1.246, -1.037e-4
-1.245, -1.088e-4
-1.244, -1.139e-4
-1.243, -1.190e-4
-1.242, -1.240e-4
-1.241, -1.290e-4
-1.240, -1.341e-4
-1.239, -1.389e-4
-1.238, -1.437e-4
-1.237, -1.484e-4
-1.236, -1.531e-4
-1.235, -1.578e-4
-1.234, -1.623e-4
-1.233, -1.667e-4
-1.232, -1.711e-4
-1.231, -1.755e-4
-1.230, -1.798e-4
-1.229, -1.843e-4
-1.228, -1.882e-4
-1.227, -1.922e-4
-1.226, -1.959e-4
-1.225, -1.996e-4
-1.224, -2.031e-4
-1.223, -2.064e-4
-1.222, -2.098e-4
-1.221, -2.129e-4
-1.220, -2.160e-4
-1.219, -2.190e-4
-1.218, -2.215e-4
-1.217, -2.242e-4
-1.216, -2.268e-4
-1.215, -2.293e-4
-1.214, -2.317e-4
-1.213, -2.337e-4
-1.212, -2.359e-4
-1.211, -2.380e-4
-1.210, -2.397e-4
-1.209, -2.415e-4
-1.208, -2.430e-4
-1.207, -2.449e-4
-1.206, -2.468e-4
-1.205, -2.487e-4
-1.204, -2.505e-4
-1.203, -2.523e-4
-1.202, -2.541e-4
-1.201, -2.562e-4
-1.200, -2.581e-4
-1.199, -2.602e-4
-1.198, -2.623e-4
-1.197, -2.645e-4
-1.196, -2.671e-4
-1.195, -2.697e-4
-1.194, -2.723e-4
-1.193, -2.749e-4
-1.192, -2.776e-4
-1.191, -2.806e-4
-1.190, -2.837e-4
-1.189, -2.866e-4
-1.188, -2.898e-4
-1.187, -2.934e-4
-1.186, -2.969e-4
-1.185, -3.006e-4
-1.184, -3.042e-4
-1.183, -3.078e-4
-1.182, -3.117e-4
-1.181, -3.156e-4
-1.180, -3.197e-4
-1.179, -3.236e-4
-1.178, -3.277e-4
-1.177, -3.319e-4
-1.176, -3.360e-4
-1.175, -3.401e-4
-1.174, -3.441e-4
-1.173, -3.480e-4
-1.172, -3.520e-4
-1.171, -3.558e-4
-1.170, -3.593e-4
-1.169, -3.630e-4
-1.168, -3.664e-4
-1.167, -3.700e-4
-1.166, -3.737e-4
-1.165, -3.772e-4
-1.164, -3.806e-4
-1.163, -3.838e-4
-1.162, -3.870e-4
-1.161, -3.900e-4
-1.160, -3.928e-4
-1.159, -3.955e-4
-1.158, -3.983e-4
-1.157, -4.006e-4
-1.156, -4.030e-4
-1.155, -4.056e-4
-1.154, -4.073e-4
-1.153, -4.095e-4
-1.152, -4.115e-4
-1.151, -4.133e-4
-1.150, -4.154e-4
-1.149, -4.173e-4
-1.148, -4.195e-4
-1.147, -4.208e-4
-1.146, -4.224e-4
-1.145, -4.241e-4
-1.144, -4.251e-4
-1.143, -4.263e-4
-1.142, -4.276e-4
-1.141, -4.285e-4
-1.140, -4.294e-4
-1.139, -4.302e-4
-1.138, -4.310e-4
-1.137, -4.320e-4
-1.136, -4.322e-4
-1.135, -4.325e-4
-1.134, -4.328e-4
-1.133, -4.327e-4
-1.132, -4.329e-4
-1.131, -4.330e-4
-1.130, -4.330e-4
-1.129, -4.328e-4
-1.128, -4.326e-4
-1.127, -4.321e-4
-1.126, -4.320e-4
-1.125, -4.313e-4
-1.124, -4.297e-4
-1.123, -4.293e-4
-1.122, -4.284e-4
-1.121, -4.271e-4
-1.120, -4.259e-4
-1.119, -4.247e-4
-1.118, -4.234e-4
-1.117, -4.218e-4
-1.116, -4.205e-4
-1.115, -4.188e-4
-1.114, -4.162e-4
-1.113, -4.146e-4
-1.112, -4.126e-4
-1.111, -4.106e-4
-1.110, -4.087e-4
-1.109, -4.062e-4
-1.108, -4.040e-4
-1.107, -4.013e-4
-1.106, -3.988e-4
-1.105, -3.961e-4
-1.104, -3.934e-4
-1.103, -3.905e-4
-1.102, -3.880e-4
-1.101, -3.848e-4
-1.100, -3.819e-4
-1.099, -3.788e-4
-1.098, -3.758e-4
-1.097, -3.728e-4
-1.096, -3.694e-4
-1.095, -3.662e-4
-1.094, -3.633e-4
-1.093, -3.602e-4
-1.092, -3.570e-4
-1.091, -3.539e-4
-1.090, -3.506e-4
-1.089, -3.471e-4
-1.088, -3.435e-4
-1.087, -3.405e-4
-1.086, -3.376e-4
-1.085, -3.342e-4
-1.084, -3.312e-4
-1.083, -3.279e-4
-1.082, -3.247e-4
-1.081, -3.216e-4
-1.080, -3.187e-4
-1.079, -3.157e-4
-1.078, -3.126e-4
-1.077, -3.096e-4
-1.076, -3.067e-4
-1.075, -3.039e-4
-1.074, -3.011e-4
-1.073, -2.982e-4
-1.072, -2.952e-4
-1.071, -2.926e-4
-1.070, -2.899e-4
-1.069, -2.872e-4
-1.068, -2.846e-4
-1.067, -2.818e-4
-1.066, -2.793e-4
-1.065, -2.768e-4
-1.064, -2.743e-4
-1.063, -2.717e-4
-1.062, -2.693e-4
-1.061, -2.670e-4
-1.060, -2.648e-4
-1.059, -2.625e-4
-1.058, -2.602e-4
-1.057, -2.579e-4
-1.056, -2.556e-4
-1.055, -2.536e-4
-1.054, -2.515e-4
-1.053, -2.493e-4
-1.052, -2.471e-4
-1.051, -2.451e-4
-1.050, -2.432e-4
-1.049, -2.413e-4
-1.048, -2.390e-4
-1.047, -2.372e-4
-1.046, -2.354e-4
-1.045, -2.335e-4
-1.044, -2.318e-4
-1.043, -2.300e-4
-1.042, -2.280e-4
-1.041, -2.264e-4
-1.040, -2.247e-4
-1.039, -2.231e-4
-1.038, -2.214e-4
-1.037, -2.200e-4
-1.036, -2.185e-4
-1.035, -2.169e-4
-1.034, -2.153e-4
-1.033, -2.137e-4
-1.032, -2.122e-4
-1.031, -2.108e-4
-1.030, -2.093e-4
-1.029, -2.079e-4
-1.028, -2.065e-4
-1.027, -2.051e-4
-1.026, -2.038e-4
-1.025, -2.025e-4
-1.024, -2.014e-4
-1.023, -2.001e-4
-1.022, -1.988e-4
-1.021, -1.976e-4
-1.020, -1.965e-4
-1.019, -1.953e-4
-1.018, -1.939e-4
-1.017, -1.929e-4
-1.016, -1.918e-4
-1.015, -1.906e-4
-1.014, -1.896e-4
-1.013, -1.885e-4
-1.012, -1.875e-4
-1.011, -1.867e-4
-1.010, -1.858e-4
-1.009, -1.849e-4
-1.008, -1.839e-4
-1.007, -1.830e-4
-1.006, -1.823e-4
-1.005, -1.814e-4
-1.004, -1.804e-4
-1.003, -1.796e-4
-1.002, -1.787e-4
-1.001, -1.782e-4
-1.000, -1.658e-4
-1.001, -1.525e-4
-1.002, -1.438e-4
-1.003, -1.367e-4
-1.004, -1.305e-4
-1.005, -1.252e-4
-1.006, -1.201e-4
-1.007, -1.154e-4
-1.008, -1.111e-4
-1.009, -1.071e-4
-1.010, -1.033e-4
-1.011, -9.971e-5
-1.012, -9.632e-5
-1.013, -9.311e-5
-1.014, -9.001e-5
-1.015, -8.714e-5
-1.016, -8.437e-5
-1.017, -8.152e-5
-1.018, -7.896e-5
-1.019, -7.654e-5
-1.020, -7.413e-5
-1.021, -7.182e-5
-1.022, -6.948e-5
-1.023, -6.736e-5
-1.024, -6.521e-5
-1.025, -6.329e-5
-1.026, -6.132e-5
-1.027, -5.944e-5
-1.028, -5.752e-5
-1.029, -5.584e-5
-1.030, -5.415e-5
-1.031, -5.239e-5
-1.032, -5.070e-5
-1.033, -4.912e-5
-1.034, -4.763e-5
-1.035, -4.621e-5
-1.036, -4.469e-5
-1.037, -4.320e-5
-1.038, -4.184e-5
-1.039, -4.045e-5
-1.040, -3.929e-5
-1.041, -3.795e-5
-1.042, -3.657e-5
-1.043, -3.538e-5
-1.044, -3.419e-5
-1.045, -3.315e-5
-1.046, -3.196e-5
-1.047, -3.083e-5
-1.048, -2.968e-5
-1.049, -2.866e-5
-1.050, -2.768e-5
-1.051, -2.668e-5
-1.052, -2.560e-5
-1.053, -2.463e-5
-1.054, -2.375e-5
-1.055, -2.284e-5
-1.056, -2.191e-5
-1.057, -2.101e-5
-1.058, -2.007e-5
-1.059, -1.933e-5
-1.060, -1.855e-5
-1.061, -1.768e-5
-1.062, -1.685e-5
-1.063, -1.604e-5
-1.064, -1.532e-5
-1.065, -1.463e-5
-1.066, -1.384e-5
-1.067, -1.314e-5
-1.068, -1.239e-5
-1.069, -1.171e-5
-1.070, -1.119e-5
-1.071, -1.047e-5
-1.072, -9.818e-6
-1.073, -9.182e-6
-1.074, -8.523e-6
-1.075, -7.953e-6
-1.076, -7.346e-6
-1.077, -6.726e-6
-1.078, -6.161e-6
-1.079, -5.556e-6
-1.080, -5.104e-6
-1.081, -4.540e-6
-1.082, -3.911e-6
-1.083, -3.409e-6
-1.084, -2.890e-6
-1.085, -2.424e-6
-1.086, -1.940e-6
-1.087, -1.341e-6
-1.088, -8.941e-7
-1.089, -4.096e-7
-1.090, 4.025e-8
-1.091, 5.237e-7
-1.092, 1.106e-6
-1.093, 1.553e-6
-1.094, 2.007e-6
-1.095, 2.472e-6
-1.096, 2.870e-6
-1.097, 3.368e-6
-1.098, 3.935e-6
-1.099, 4.290e-6
-1.100, 4.749e-6
-1.101, 5.188e-6
-1.102, 5.705e-6
-1.103, 6.190e-6
-1.104, 6.574e-6
-1.105, 7.027e-6
-1.106, 7.477e-6
-1.107, 7.925e-6
-1.108, 8.429e-6
-1.109, 8.856e-6
-1.110, 9.245e-6
-1.111, 9.730e-6
-1.112, 1.017e-5
-1.113, 1.065e-5
-1.114, 1.110e-5
-1.115, 1.146e-5
-1.116, 1.192e-5
-1.117, 1.242e-5
-1.118, 1.285e-5
-1.119, 1.333e-5
-1.120, 1.371e-5
-1.121, 1.415e-5
-1.122, 1.470e-5
-1.123, 1.512e-5
-1.124, 1.554e-5
-1.125, 1.600e-5
-1.126, 1.643e-5
-1.127, 1.693e-5
-1.128, 1.735e-5
-1.129, 1.774e-5
-1.130, 1.824e-5
-1.131, 1.863e-5
-1.132, 1.914e-5
-1.133, 1.959e-5
-1.134, 1.996e-5
-1.135, 2.037e-5
-1.136, 2.078e-5
-1.137, 2.123e-5
-1.138, 2.172e-5
-1.139, 2.206e-5
-1.140, 2.245e-5
-1.141, 2.292e-5
-1.142, 2.332e-5
-1.143, 2.376e-5
-1.144, 2.410e-5
-1.145, 2.444e-5
-1.146, 2.490e-5
-1.147, 2.532e-5
-1.148, 2.573e-5
-1.149, 2.608e-5
-1.150, 2.639e-5
-1.151, 2.684e-5
-1.152, 2.728e-5
-1.153, 2.766e-5
-1.154, 2.796e-5
-1.155, 2.837e-5
-1.156, 2.873e-5
-1.157, 2.920e-5
-1.158, 2.954e-5
-1.159, 2.984e-5
-1.160, 3.023e-5
-1.161, 3.062e-5
-1.162, 3.107e-5
-1.163, 3.142e-5
-1.164, 3.179e-5
-1.165, 3.217e-5
-1.166, 3.250e-5
-1.167, 3.294e-5
-1.168, 3.329e-5
-1.169, 3.369e-5
-1.170, 3.401e-5
-1.171, 3.442e-5
-1.172, 3.492e-5
-1.173, 3.526e-5
-1.174, 3.562e-5
-1.175, 3.604e-5
-1.176, 3.640e-5
-1.177, 3.692e-5
-1.178, 3.736e-5
-1.179, 3.768e-5
-1.180, 3.805e-5
-1.181, 3.841e-5
-1.182, 3.893e-5
-1.183, 3.941e-5
-1.184, 3.971e-5
-1.185, 4.018e-5
-1.186, 4.057e-5
-1.187, 4.105e-5
-1.188, 4.149e-5
-1.189, 4.184e-5
-1.190, 4.231e-5
-1.191, 4.272e-5
-1.192, 4.319e-5
-1.193, 4.370e-5
-1.194, 4.410e-5
-1.195, 4.453e-5
-1.196, 4.503e-5
-1.197, 4.544e-5
-1.198, 4.605e-5
-1.199, 4.644e-5
-1.200, 4.683e-5
-1.201, 4.736e-5
-1.202, 4.789e-5
-1.203, 4.836e-5
-1.204, 4.886e-5
-1.205, 4.927e-5
-1.206, 4.981e-5
-1.207, 5.033e-5
-1.208, 5.087e-5
-1.209, 5.141e-5
-1.210, 5.189e-5
-1.211, 5.237e-5
-1.212, 5.295e-5
-1.213, 5.355e-5
-1.214, 5.407e-5
-1.215, 5.455e-5
-1.216, 5.503e-5
-1.217, 5.573e-5
-1.218, 5.636e-5
-1.219, 5.687e-5
-1.220, 5.736e-5
-1.221, 5.800e-5
-1.222, 5.868e-5
-1.223, 5.932e-5
-1.224, 5.985e-5
-1.225, 6.047e-5
-1.226, 6.112e-5
-1.227, 6.177e-5
-1.228, 6.252e-5
-1.229, 6.325e-5
-1.230, 6.379e-5
-1.231, 6.444e-5
-1.232, 6.518e-5
-1.233, 6.594e-5
-1.234, 6.652e-5
-1.235, 6.714e-5
-1.236, 6.793e-5
-1.237, 6.862e-5
-1.238, 6.936e-5
-1.239, 7.000e-5
-1.240, 7.083e-5
-1.241, 7.157e-5
-1.242, 7.235e-5
-1.243, 7.312e-5
-1.244, 7.390e-5
-1.245, 7.465e-5
-1.246, 7.539e-5
-1.247, 7.626e-5
-1.248, 7.715e-5
-1.249, 7.792e-5
-1.250, 7.865e-5
-1.251, 7.958e-5
-1.252, 8.050e-5
-1.253, 8.130e-5
-1.254, 8.215e-5
-1.255, 8.313e-5
-1.256, 8.405e-5
-1.257, 8.488e-5
-1.258, 8.587e-5
-1.259, 8.680e-5
-1.260, 8.776e-5
-1.261, 8.868e-5
-1.262, 8.968e-5
-1.263, 9.085e-5
-1.264, 9.168e-5
-1.265, 9.264e-5
-1.266, 9.380e-5
-1.267, 9.485e-5
-1.268, 9.579e-5
-1.269, 9.687e-5
-1.270, 9.785e-5
-1.271, 9.900e-5
-1.272, 1.001e-4
-1.273, 1.014e-4
-1.274, 1.026e-4
-1.275, 1.035e-4
-1.276, 1.047e-4
-1.277, 1.060e-4
-1.278, 1.073e-4
-1.279, 1.083e-4
-1.280, 1.095e-4
-1.281, 1.109e-4
-1.282, 1.120e-4
-1.283, 1.132e-4
-1.284, 1.146e-4
-1.285, 1.157e-4
-1.286, 1.170e-4
-1.287, 1.185e-4
-1.288, 1.197e-4
-1.289, 1.209e-4
-1.290, 1.223e-4
-1.291, 1.237e-4
-1.292, 1.252e-4
-1.293, 1.266e-4
-1.294, 1.280e-4
-1.295, 1.294e-4
-1.296, 1.308e-4
-1.297, 1.324e-4
-1.298, 1.339e-4
-1.299, 1.354e-4
-1.300, 1.370e-4
-1.301, 1.385e-4
-1.302, 1.402e-4
-1.303, 1.420e-4
-1.304, 1.435e-4
-1.305, 1.452e-4
-1.306, 1.470e-4
-1.307, 1.487e-4
-1.308, 1.505e-4
-1.309, 1.522e-4
-1.310, 1.539e-4
-1.311, 1.558e-4
-1.312, 1.577e-4
-1.313, 1.596e-4
-1.314, 1.616e-4
-1.315, 1.634e-4
-1.316, 1.654e-4
-1.317, 1.674e-4
-1.318, 1.694e-4
-1.319, 1.715e-4
-1.320, 1.734e-4
-1.321, 1.755e-4
-1.322, 1.777e-4
-1.323, 1.801e-4
-1.324, 1.819e-4
-1.325, 1.843e-4
-1.326, 1.866e-4
-1.327, 1.885e-4
-1.328, 1.910e-4
-1.329, 1.937e-4
-1.330, 1.955e-4
-1.331, 1.979e-4
-1.332, 2.009e-4
-1.333, 2.029e-4
-1.334, 2.053e-4
-1.335, 2.083e-4
-1.336, 2.103e-4
-1.337, 2.131e-4
-1.338, 2.163e-4
-1.339, 2.182e-4
-1.340, 2.212e-4
-1.341, 2.244e-4
-1.342, 2.264e-4
-1.343, 2.298e-4
-1.344, 2.327e-4
-1.345, 2.351e-4
-1.346, 2.388e-4
-1.347, 2.415e-4
-1.348, 2.444e-4
-1.349, 2.481e-4
-1.350, 2.508e-4
-1.351, 2.540e-4
-1.352, 2.580e-4
-1.353, 2.607e-4
-1.354, 2.643e-4
-1.355, 2.682e-4
-1.356, 2.709e-4
-1.357, 2.752e-4
-1.358, 2.788e-4
-1.359, 2.822e-4
-1.360, 2.868e-4
-1.361, 2.901e-4
-1.362, 2.941e-4
-1.363, 2.986e-4
-1.364, 3.020e-4
-1.365, 3.067e-4
-1.366, 3.109e-4
-1.367, 3.150e-4
-1.368, 3.203e-4
-1.369, 3.240e-4
-1.370, 3.290e-4
-1.371, 3.336e-4
-1.372, 3.380e-4
-1.373, 3.437e-4
-1.374, 3.476e-4
-1.375, 3.532e-4
-1.376, 3.578e-4
-1.377, 3.627e-4
-1.378, 3.687e-4
-1.379, 3.729e-4
-1.380, 3.785e-4
-1.381, 3.840e-4
-1.382, 3.890e-4
-1.383, 3.954e-4
-1.384, 4.004e-4
-1.385, 4.061e-4
-1.386, 4.120e-4
-1.387, 4.172e-4
-1.388, 4.239e-4
-1.389, 4.294e-4
-1.390, 4.356e-4
-1.391, 4.416e-4
-1.392, 4.476e-4
-1.393, 4.545e-4
-1.394, 4.601e-4
-1.395, 4.671e-4
-1.396, 4.734e-4
-1.397, 4.801e-4
-1.398, 4.869e-4
-1.399, 4.927e-4
-1.400, 4.998e-4
-1.401, 5.064e-4
-1.402, 5.133e-4
-1.403, 5.207e-4
-1.404, 5.267e-4
-1.405, 5.342e-4
-1.406, 5.411e-4
-1.407, 5.480e-4
-1.408, 5.558e-4
-1.409, 5.623e-4
-1.410, 5.701e-4
-1.411, 5.774e-4
-1.412, 5.848e-4
-1.413, 5.930e-4
-1.414, 5.999e-4
-1.415, 6.082e-4
-1.416, 6.155e-4
-1.417, 6.230e-4
-1.418, 6.314e-4
-1.419, 6.392e-4
-1.420, 6.478e-4
-1.421, 6.560e-4
-1.422, 6.643e-4
-1.423, 6.724e-4
-1.424, 6.809e-4
-1.425, 6.895e-4
-1.426, 6.978e-4
-1.427, 7.070e-4
-1.428, 7.152e-4
-1.429, 7.243e-4
-1.430, 7.331e-4
-1.431, 7.420e-4
-1.432, 7.509e-4
-1.433, 7.600e-4
-1.434, 7.686e-4
-1.435, 7.775e-4
-1.436, 7.870e-4
-1.437, 7.962e-4
-1.438, 8.050e-4
-1.439, 8.143e-4
-1.440, 8.235e-4
-1.441, 8.323e-4
-1.442, 8.419e-4
-1.443, 8.508e-4
-1.444, 8.608e-4
-1.445, 8.705e-4
-1.446, 8.798e-4
-1.447, 8.897e-4
-1.448, 8.996e-4
-1.449, 9.095e-4
-1.450, 9.193e-4
-1.451, 9.289e-4
-1.452, 9.391e-4
-1.453, 9.491e-4
-1.454, 9.590e-4
-1.455, 9.687e-4
-1.456, 9.790e-4
-1.457, 9.888e-4
-1.458, 9.989e-4
-1.459, 1.009e-3
-1.460, 1.019e-3
-1.461, 1.029e-3
-1.462, 1.039e-3
-1.463, 1.049e-3
-1.464, 1.058e-3
-1.465, 1.068e-3
-1.466, 1.078e-3
-1.467, 1.088e-3
-1.468, 1.098e-3
-1.469, 1.108e-3
-1.470, 1.118e-3
-1.471, 1.128e-3
-1.472, 1.138e-3
-1.473, 1.148e-3
-1.474, 1.158e-3
-1.475, 1.167e-3
-1.476, 1.177e-3
-1.477, 1.187e-3
-1.478, 1.196e-3
-1.479, 1.207e-3
-1.480, 1.216e-3
-1.481, 1.226e-3
-1.482, 1.235e-3
-1.483, 1.246e-3
-1.484, 1.255e-3
-1.485, 1.265e-3
-1.486, 1.275e-3
-1.487, 1.285e-3
-1.488, 1.294e-3
-1.489, 1.304e-3
-1.490, 1.314e-3
-1.491, 1.324e-3
-1.492, 1.333e-3
-1.493, 1.343e-3
-1.494, 1.353e-3
-1.495, 1.363e-3
-1.496, 1.372e-3
-1.497, 1.382e-3
-1.498, 1.392e-3
-1.499, 1.402e-3
-1.500, 1.412e-3
-1.501, 1.421e-3
-1.502, 1.431e-3
-1.503, 1.441e-3
-1.504, 1.451e-3
-1.505, 1.461e-3
-1.506, 1.472e-3
-1.507, 1.482e-3
-1.508, 1.493e-3
-1.509, 1.504e-3
-1.510, 1.515e-3
-1.511, 1.525e-3
-1.512, 1.536e-3
-1.513, 1.547e-3
-1.514, 1.558e-3
-1.515, 1.570e-3
-1.516, 1.582e-3
-1.517, 1.592e-3
-1.518, 1.604e-3
-1.519, 1.616e-3
-1.520, 1.627e-3
-1.521, 1.639e-3
-1.522, 1.652e-3
-1.523, 1.665e-3
-1.524, 1.677e-3
-1.525, 1.691e-3
-1.526, 1.704e-3
-1.527, 1.718e-3
-1.528, 1.731e-3
-1.529, 1.745e-3
-1.530, 1.760e-3
-1.531, 1.773e-3
-1.532, 1.789e-3
-1.533, 1.804e-3
-1.534, 1.818e-3
-1.535, 1.834e-3
-1.536, 1.850e-3
-1.537, 1.866e-3
-1.538, 1.882e-3
-1.539, 1.899e-3
-1.540, 1.916e-3
-1.541, 1.933e-3
-1.542, 1.950e-3
-1.543, 1.968e-3
-1.544, 1.985e-3
-1.545, 2.003e-3
-1.546, 2.023e-3
-1.547, 2.042e-3
-1.548, 2.059e-3
-1.549, 2.078e-3
-1.550, 2.096e-3
-1.551, 2.115e-3
-1.552, 2.134e-3
-1.553, 2.154e-3
-1.554, 2.175e-3
-1.555, 2.195e-3
-1.556, 2.212e-3
-1.557, 2.232e-3
-1.558, 2.252e-3
-1.559, 2.273e-3
-1.560, 2.292e-3
-1.561, 2.312e-3
-1.562, 2.333e-3
-1.563, 2.354e-3
-1.564, 2.374e-3
-1.565, 2.396e-3
-1.566, 2.408e-3
-1.567, 2.425e-3
-1.568, 2.444e-3
-1.569, 2.466e-3
-1.570, 2.486e-3
-1.571, 2.506e-3
-1.572, 2.527e-3
-1.573, 2.549e-3
-1.574, 2.571e-3
-1.575, 2.592e-3
-1.576, 2.614e-3
-1.577, 2.635e-3
-1.578, 2.657e-3
-1.579, 2.680e-3
-1.580, 2.701e-3
-1.581, 2.723e-3
-1.582, 2.745e-3
-1.583, 2.767e-3
-1.584, 2.789e-3
-1.585, 2.811e-3
-1.586, 2.834e-3
-1.587, 2.856e-3
-1.588, 2.879e-3
-1.589, 2.902e-3
-1.590, 2.925e-3
-1.591, 2.948e-3
-1.592, 2.971e-3
-1.593, 2.993e-3
-1.594, 3.016e-3
-1.595, 3.038e-3
-1.596, 3.061e-3
-1.597, 3.084e-3
-1.598, 3.106e-3
-1.599, 3.128e-3
-1.600, 3.123e-3
-1.599, 3.096e-3
-1.598, 3.069e-3
-1.597, 3.044e-3
-1.596, 3.019e-3
-1.595, 2.994e-3
-1.594, 2.969e-3
-1.593, 2.945e-3
-1.592, 2.921e-3
-1.591, 2.897e-3
-1.590, 2.874e-3
-1.589, 2.850e-3
-1.588, 2.827e-3
-1.587, 2.803e-3
-1.586, 2.779e-3
-1.585, 2.755e-3
-1.584, 2.732e-3
-1.583, 2.709e-3
-1.582, 2.684e-3
-1.581, 2.658e-3
-1.580, 2.634e-3
-1.579, 2.611e-3
-1.578, 2.588e-3
-1.577, 2.565e-3
-1.576, 2.543e-3
-1.575, 2.520e-3
-1.574, 2.498e-3
-1.573, 2.476e-3
-1.572, 2.454e-3
-1.571, 2.433e-3
-1.570, 2.412e-3
-1.569, 2.389e-3
-1.568, 2.369e-3
-1.567, 2.347e-3
-1.566, 2.326e-3
-1.565, 2.305e-3
-1.564, 2.284e-3
-1.563, 2.265e-3
-1.562, 2.243e-3
-1.561, 2.224e-3
-1.560, 2.203e-3
-1.559, 2.183e-3
-1.558, 2.163e-3
-1.557, 2.144e-3
-1.556, 2.124e-3
-1.555, 2.105e-3
-1.554, 2.085e-3
-1.553, 2.066e-3
-1.552, 2.048e-3
-1.551, 2.029e-3
-1.550, 2.009e-3
-1.549, 1.991e-3
-1.548, 1.973e-3
-1.547, 1.954e-3
-1.546, 1.935e-3
-1.545, 1.917e-3
-1.544, 1.899e-3
-1.543, 1.881e-3
-1.542, 1.863e-3
-1.541, 1.846e-3
-1.540, 1.828e-3
-1.539, 1.810e-3
-1.538, 1.793e-3
-1.537, 1.775e-3
-1.536, 1.759e-3
-1.535, 1.741e-3
-1.534, 1.724e-3
-1.533, 1.707e-3
-1.532, 1.691e-3
-1.531, 1.675e-3
-1.530, 1.658e-3
-1.529, 1.641e-3
-1.528, 1.625e-3
-1.527, 1.608e-3
-1.526, 1.592e-3
-1.525, 1.576e-3
-1.524, 1.560e-3
-1.523, 1.544e-3
-1.522, 1.528e-3
-1.521, 1.513e-3
-1.520, 1.497e-3
-1.519, 1.481e-3
-1.518, 1.466e-3
-1.517, 1.451e-3
-1.516, 1.436e-3
-1.515, 1.421e-3
-1.514, 1.406e-3
-1.513, 1.392e-3
-1.512, 1.377e-3
-1.511, 1.362e-3
-1.510, 1.348e-3
-1.509, 1.333e-3
-1.508, 1.318e-3
-1.507, 1.305e-3
-1.506, 1.291e-3
-1.505, 1.277e-3
-1.504, 1.263e-3
-1.503, 1.249e-3
-1.502, 1.236e-3
-1.501, 1.222e-3
-1.500, 1.208e-3
-1.499, 1.195e-3
-1.498, 1.182e-3
-1.497, 1.169e-3
-1.496, 1.156e-3
-1.495, 1.144e-3
-1.494, 1.130e-3
-1.493, 1.118e-3
-1.492, 1.105e-3
-1.491, 1.093e-3
-1.490, 1.080e-3
-1.489, 1.068e-3
-1.488, 1.056e-3
-1.487, 1.044e-3
-1.486, 1.032e-3
-1.485, 1.019e-3
-1.484, 1.007e-3
-1.483, 9.959e-4
-1.482, 9.841e-4
-1.481, 9.726e-4
-1.480, 9.609e-4
-1.479, 9.497e-4
-1.478, 9.384e-4
-1.477, 9.271e-4
-1.476, 9.162e-4
-1.475, 9.056e-4
-1.474, 8.944e-4
-1.473, 8.831e-4
-1.472, 8.726e-4
-1.471, 8.614e-4
-1.470, 8.507e-4
-1.469, 8.403e-4
-1.468, 8.303e-4
-1.467, 8.202e-4
-1.466, 8.098e-4
-1.465, 7.997e-4
-1.464, 7.898e-4
-1.463, 7.800e-4
-1.462, 7.703e-4
-1.461, 7.608e-4
-1.460, 7.514e-4
-1.459, 7.414e-4
-1.458, 7.320e-4
-1.457, 7.225e-4
-1.456, 7.134e-4
-1.455, 7.043e-4
-1.454, 6.949e-4
-1.453, 6.858e-4
-1.452, 6.767e-4
-1.451, 6.678e-4
-1.450, 6.596e-4
-1.449, 6.512e-4
-1.448, 6.428e-4
-1.447, 6.343e-4
-1.446, 6.258e-4
-1.445, 6.174e-4
-1.444, 6.091e-4
-1.443, 6.007e-4
-1.442, 5.925e-4
-1.441, 5.846e-4
-1.440, 5.766e-4
-1.439, 5.684e-4
-1.438, 5.606e-4
-1.437, 5.531e-4
-1.436, 5.455e-4
-1.435, 5.379e-4
-1.434, 5.304e-4
-1.433, 5.229e-4
-1.432, 5.156e-4
-1.431, 5.082e-4
-1.430, 5.009e-4
-1.429, 4.938e-4
-1.428, 4.866e-4
-1.427, 4.799e-4
-1.426, 4.728e-4
-1.425, 4.660e-4
-1.424, 4.594e-4
-1.423, 4.525e-4
-1.422, 4.461e-4
-1.421, 4.396e-4
-1.420, 4.328e-4
-1.419, 4.263e-4
-1.418, 4.201e-4
-1.417, 4.137e-4
-1.416, 4.076e-4
-1.415, 4.014e-4
-1.414, 3.952e-4
-1.413, 3.894e-4
-1.412, 3.834e-4
-1.411, 3.776e-4
-1.410, 3.719e-4
-1.409, 3.659e-4
-1.408, 3.602e-4
-1.407, 3.547e-4
-1.406, 3.492e-4
-1.405, 3.438e-4
-1.404, 3.382e-4
-1.403, 3.328e-4
-1.402, 3.276e-4
-1.401, 3.224e-4
-1.400, 3.173e-4
-1.399, 3.120e-4
-1.398, 3.069e-4
-1.397, 3.021e-4
-1.396, 2.972e-4
-1.395, 2.923e-4
-1.394, 2.873e-4
-1.393, 2.828e-4
-1.392, 2.784e-4
-1.391, 2.734e-4
-1.390, 2.687e-4
-1.389, 2.643e-4
-1.388, 2.599e-4
-1.387, 2.556e-4
-1.386, 2.512e-4
-1.385, 2.467e-4
-1.384, 2.424e-4
-1.383, 2.382e-4
-1.382, 2.341e-4
-1.381, 2.301e-4
-1.380, 2.260e-4
-1.379, 2.219e-4
-1.378, 2.180e-4
-1.377, 2.139e-4
-1.376, 2.103e-4
-1.375, 2.063e-4
-1.374, 2.023e-4
-1.373, 1.987e-4
-1.372, 1.950e-4
-1.371, 1.914e-4
-1.370, 1.878e-4
-1.369, 1.840e-4
-1.368, 1.806e-4
-1.367, 1.771e-4
-1.366, 1.736e-4
-1.365, 1.702e-4
-1.364, 1.667e-4
-1.363, 1.634e-4
-1.362, 1.602e-4
-1.361, 1.568e-4
-1.360, 1.537e-4
-1.359, 1.503e-4
-1.358, 1.471e-4
-1.357, 1.441e-4
-1.356, 1.409e-4
-1.355, 1.378e-4
-1.354, 1.348e-4
-1.353, 1.317e-4
-1.352, 1.289e-4
-1.351, 1.259e-4
-1.350, 1.229e-4
-1.349, 1.200e-4
-1.348, 1.172e-4
-1.347, 1.143e-4
-1.346, 1.115e-4
-1.345, 1.086e-4
-1.344, 1.058e-4
-1.343, 1.031e-4
-1.342, 1.004e-4
-1.341, 9.778e-5
-1.340, 9.505e-5
-1.339, 9.231e-5
-1.338, 8.967e-5
-1.337, 8.706e-5
-1.336, 8.460e-5
-1.335, 8.205e-5
-1.334, 7.941e-5
-1.333, 7.697e-5
-1.332, 7.450e-5
-1.331, 7.204e-5
-1.330, 6.958e-5
-1.329, 6.716e-5
-1.328, 6.477e-5
-1.327, 6.251e-5
-1.326, 6.013e-5
-1.325, 5.794e-5
-1.324, 5.561e-5
-1.323, 5.331e-5
-1.322, 5.113e-5
-1.321, 4.899e-5
-1.320, 4.687e-5
-1.319, 4.473e-5
-1.318, 4.261e-5
-1.317, 4.067e-5
-1.316, 3.866e-5
-1.315, 3.656e-5
-1.314, 3.457e-5
-1.313, 3.263e-5
-1.312, 3.076e-5
-1.311, 2.894e-5
-1.310, 2.703e-5
-1.309, 2.529e-5
-1.308, 2.351e-5
-1.307, 2.186e-5
-1.306, 2.018e-5
-1.305, 1.845e-5
-1.304, 1.681e-5
-1.303, 1.526e-5
-1.302, 1.361e-5
-1.301, 1.217e-5
-1.300, 1.058e-5
-1.299, 9.054e-6
-1.298, 7.530e-6
-1.297, 6.032e-6
-1.296, 4.761e-6
-1.295, 3.156e-6
-1.294, 1.652e-6
-1.293, 2.899e-7
-1.292, -1.152e-6
-1.291, -2.567e-6
-1.290, -4.041e-6
-1.289, -5.571e-6
-1.288, -6.946e-6
-1.287, -8.373e-6
-1.286, -9.905e-6
-1.285, -1.136e-5
-1.284, -1.297e-5
-1.283, -1.443e-5
-1.282, -1.578e-5
-1.281, -1.722e-5
-1.280, -1.879e-5
-1.279, -2.021e-5
-1.278, -2.173e-5
-1.277, -2.294e-5
-1.276, -2.437e-5
-1.275, -2.590e-5
-1.274, -2.725e-5
-1.273, -2.868e-5
-1.272, -2.995e-5
-1.271, -3.122e-5
-1.270, -3.275e-5
-1.269, -3.408e-5
-1.268, -3.538e-5
-1.267, -3.667e-5
-1.266, -3.794e-5
-1.265, -3.937e-5
-1.264, -4.057e-5
-1.263, -4.186e-5
-1.262, -4.312e-5
-1.261, -4.421e-5
-1.260, -4.545e-5
-1.259, -4.667e-5
-1.258, -4.780e-5
-1.257, -4.890e-5
-1.256, -4.987e-5
-1.255, -5.101e-5
-1.254, -5.214e-5
-1.253, -5.316e-5
-1.252, -5.410e-5
-1.251, -5.511e-5
-1.250, -5.619e-5
-1.249, -5.720e-5
-1.248, -5.829e-5
-1.247, -5.934e-5
-1.246, -6.054e-5
-1.245, -6.206e-5
-1.244, -6.370e-5
-1.243, -6.567e-5
-1.242, -6.791e-5
-1.241, -7.065e-5
-1.240, -7.373e-5
-1.239, -7.712e-5
-1.238, -8.070e-5
-1.237, -8.432e-5
-1.236, -8.794e-5
-1.235, -9.169e-5
-1.234, -9.527e-5
-1.233, -9.892e-5
-1.232, -1.022e-4
-1.231, -1.056e-4
-1.230, -1.090e-4
-1.229, -1.127e-4
-1.228, -1.162e-4
-1.227, -1.194e-4
-1.226, -1.224e-4
-1.225, -1.255e-4
-1.224, -1.285e-4
-1.223, -1.317e-4
-1.222, -1.346e-4
-1.221, -1.375e-4
-1.220, -1.404e-4
-1.219, -1.433e-4
-1.218, -1.462e-4
-1.217, -1.490e-4
-1.216, -1.515e-4
-1.215, -1.543e-4
-1.214, -1.570e-4
-1.213, -1.595e-4
-1.212, -1.620e-4
-1.211, -1.644e-4
-1.210, -1.669e-4
-1.209, -1.694e-4
-1.208, -1.717e-4
-1.207, -1.741e-4
-1.206, -1.764e-4
-1.205, -1.786e-4
-1.204, -1.810e-4
-1.203, -1.834e-4
-1.202, -1.856e-4
-1.201, -1.877e-4
-1.200, -1.900e-4
-1.199, -1.923e-4
-1.198, -1.946e-4
-1.197, -1.966e-4
-1.196, -1.987e-4
-1.195, -2.011e-4
-1.194, -2.034e-4
-1.193, -2.058e-4
-1.192, -2.080e-4
-1.191, -2.105e-4
-1.190, -2.132e-4
-1.189, -2.156e-4
-1.188, -2.182e-4
-1.187, -2.207e-4
-1.186, -2.233e-4
-1.185, -2.264e-4
-1.184, -2.292e-4
-1.183, -2.320e-4
-1.182, -2.349e-4
-1.181, -2.380e-4
-1.180, -2.414e-4
-1.179, -2.448e-4
-1.178, -2.482e-4
-1.177, -2.517e-4
-1.176, -2.551e-4
-1.175, -2.587e-4
-1.174, -2.626e-4
-1.173, -2.663e-4
-1.172, -2.701e-4
-1.171, -2.740e-4
-1.170, -2.779e-4
-1.169, -2.820e-4
-1.168, -2.858e-4
-1.167, -2.898e-4
-1.166, -2.939e-4
-1.165, -2.981e-4
-1.164, -3.023e-4
-1.163, -3.063e-4
-1.162, -3.102e-4
-1.161, -3.139e-4
-1.160, -3.178e-4
-1.159, -3.218e-4
-1.158, -3.256e-4
-1.157, -3.291e-4
-1.156, -3.328e-4
-1.155, -3.363e-4
-1.154, -3.400e-4
-1.153, -3.432e-4
-1.152, -3.463e-4
-1.151, -3.495e-4
-1.150, -3.522e-4
-1.149, -3.549e-4
-1.148, -3.578e-4
-1.147, -3.602e-4
-1.146, -3.626e-4
-1.145, -3.651e-4
-1.144, -3.674e-4
-1.143, -3.693e-4
-1.142, -3.709e-4
-1.141, -3.724e-4
-1.140, -3.738e-4
-1.139, -3.750e-4
-1.138, -3.762e-4
-1.137, -3.772e-4
-1.136, -3.778e-4
-1.135, -3.782e-4
-1.134, -3.788e-4
-1.133, -3.788e-4
-1.132, -3.791e-4
-1.131, -3.792e-4
-1.130, -3.783e-4
-1.129, -3.781e-4
-1.128, -3.776e-4
-1.127, -3.769e-4
-1.126, -3.760e-4
-1.125, -3.749e-4
-1.124, -3.738e-4
-1.123, -3.726e-4
-1.122, -3.710e-4
-1.121, -3.695e-4
-1.120, -3.680e-4
-1.119, -3.650e-4
-1.118, -3.634e-4
-1.117, -3.615e-4
-1.116, -3.599e-4
-1.115, -3.579e-4
-1.114, -3.564e-4
-1.113, -3.542e-4
-1.112, -3.513e-4
-1.111, -3.486e-4
-1.110, -3.460e-4
-1.109, -3.434e-4
-1.108, -3.405e-4
-1.107, -3.375e-4
-1.106, -3.344e-4
-1.105, -3.314e-4
-1.104, -3.282e-4
-1.103, -3.251e-4
-1.102, -3.218e-4
-1.101, -3.186e-4
-1.100, -3.152e-4
-1.099, -3.121e-4
-1.098, -3.086e-4
-1.097, -3.051e-4
-1.096, -3.017e-4
-1.095, -2.981e-4
-1.094, -2.949e-4
-1.093, -2.914e-4
-1.092, -2.880e-4
-1.091, -2.847e-4
-1.090, -2.813e-4
-1.089, -2.782e-4
-1.088, -2.750e-4
-1.087, -2.716e-4
-1.086, -2.683e-4
-1.085, -2.650e-4
-1.084, -2.624e-4
-1.083, -2.594e-4
-1.082, -2.564e-4
-1.081, -2.530e-4
-1.080, -2.501e-4
-1.079, -2.474e-4
-1.078, -2.445e-4
-1.077, -2.415e-4
-1.076, -2.390e-4
-1.075, -2.365e-4
-1.074, -2.340e-4
-1.073, -2.313e-4
-1.072, -2.287e-4
-1.071, -2.265e-4
-1.070, -2.242e-4
-1.069, -2.217e-4
-1.068, -2.196e-4
-1.067, -2.173e-4
-1.066, -2.153e-4
-1.065, -2.132e-4
-1.064, -2.110e-4
-1.063, -2.089e-4
-1.062, -2.070e-4
-1.061, -2.049e-4
-1.060, -2.031e-4
-1.059, -2.015e-4
-1.058, -1.998e-4
-1.057, -1.979e-4
-1.056, -1.963e-4
-1.055, -1.945e-4
-1.054, -1.931e-4
-1.053, -1.915e-4
-1.052, -1.901e-4
-1.051, -1.888e-4
-1.050, -1.874e-4
-1.049, -1.861e-4
-1.048, -1.847e-4
-1.047, -1.832e-4
-1.046, -1.820e-4
-1.045, -1.808e-4
-1.044, -1.797e-4
-1.043, -1.784e-4
-1.042, -1.769e-4
-1.041, -1.759e-4
-1.040, -1.747e-4
-1.039, -1.738e-4
-1.038, -1.727e-4
-1.037, -1.719e-4
-1.036, -1.708e-4
-1.035, -1.697e-4
-1.034, -1.687e-4
-1.033, -1.679e-4
-1.032, -1.669e-4
-1.031, -1.660e-4
-1.030, -1.651e-4
-1.029, -1.644e-4
-1.028, -1.638e-4
-1.027, -1.629e-4
-1.026, -1.621e-4
-1.025, -1.615e-4
-1.024, -1.609e-4
-1.023, -1.603e-4
-1.022, -1.596e-4
-1.021, -1.589e-4
-1.020, -1.585e-4
-1.019, -1.578e-4
-1.018, -1.572e-4
-1.017, -1.566e-4
-1.016, -1.558e-4
-1.015, -1.552e-4
-1.014, -1.549e-4
-1.013, -1.543e-4
-1.012, -1.537e-4
-1.011, -1.532e-4
-1.010, -1.527e-4
-1.009, -1.523e-4
-1.008, -1.518e-4
-1.007, -1.512e-4
-1.006, -1.507e-4
-1.005, -1.504e-4
-1.004, -1.504e-4
-1.003, -1.498e-4
-1.002, -1.492e-4
-1.001, -1.488e-4
-1.000, -1.354e-4
-1.001, -1.206e-4
-1.002, -1.114e-4
-1.003, -1.044e-4
-1.004, -9.864e-5
-1.005, -9.374e-5
-1.006, -8.957e-5
-1.007, -8.567e-5
-1.008, -8.223e-5
-1.009, -7.890e-5
-1.010, -7.580e-5
-1.011, -7.318e-5
-1.012, -7.047e-5
-1.013, -6.800e-5
-1.014, -6.564e-5
-1.015, -6.340e-5
-1.016, -6.137e-5
-1.017, -5.917e-5
-1.018, -5.736e-5
-1.019, -5.540e-5
-1.020, -5.358e-5
-1.021, -5.195e-5
-1.022, -5.021e-5
-1.023, -4.848e-5
-1.024, -4.686e-5
-1.025, -4.534e-5
-1.026, -4.386e-5
-1.027, -4.256e-5
-1.028, -4.112e-5
-1.029, -3.975e-5
-1.030, -3.848e-5
-1.031, -3.732e-5
-1.032, -3.615e-5
-1.033, -3.493e-5
-1.034, -3.375e-5
-1.035, -3.261e-5
-1.036, -3.150e-5
-1.037, -3.058e-5
-1.038, -2.953e-5
-1.039, -2.852e-5
-1.040, -2.756e-5
-1.041, -2.655e-5
-1.042, -2.557e-5
-1.043, -2.462e-5
-1.044, -2.353e-5
-1.045, -2.277e-5
-1.046, -2.199e-5
-1.047, -2.108e-5
-1.048, -2.031e-5
-1.049, -1.935e-5
-1.050, -1.857e-5
-1.051, -1.795e-5
-1.052, -1.713e-5
-1.053, -1.636e-5
-1.054, -1.560e-5
-1.055, -1.492e-5
-1.056, -1.440e-5
-1.057, -1.371e-5
-1.058, -1.297e-5
-1.059, -1.235e-5
-1.060, -1.167e-5
-1.061, -1.122e-5
-1.062, -1.059e-5
-1.063, -9.904e-6
-1.064, -9.359e-6
-1.065, -8.815e-6
-1.066, -8.332e-6
-1.067, -7.837e-6
-1.068, -7.160e-6
-1.069, -6.692e-6
-1.070, -6.203e-6
-1.071, -5.706e-6
-1.072, -5.340e-6
-1.073, -4.772e-6
-1.074, -4.257e-6
-1.075, -3.798e-6
-1.076, -3.540e-6
-1.077, -3.221e-6
-1.078, -2.810e-6
-1.079, -2.268e-6
-1.080, -2.021e-6
-1.081, -1.617e-6
-1.082, -1.143e-6
-1.083, -7.293e-7
-1.084, -1.087e-7
-1.085, 2.751e-7
-1.086, 5.839e-7
-1.087, 1.083e-6
-1.088, 1.396e-6
-1.089, 1.910e-6
-1.090, 2.338e-6
-1.091, 2.603e-6
-1.092, 3.084e-6
-1.093, 3.511e-6
-1.094, 3.947e-6
-1.095, 4.344e-6
-1.096, 4.688e-6
-1.097, 5.055e-6
-1.098, 5.632e-6
-1.099, 6.068e-6
-1.100, 6.489e-6
-1.101, 6.820e-6
-1.102, 7.236e-6
-1.103, 7.750e-6
-1.104, 8.137e-6
-1.105, 8.560e-6
-1.106, 8.992e-6
-1.107, 9.382e-6
-1.108, 9.910e-6
-1.109, 1.044e-5
-1.110, 1.081e-5
-1.111, 1.128e-5
-1.112, 1.170e-5
-1.113, 1.213e-5
-1.114, 1.270e-5
-1.115, 1.319e-5
-1.116, 1.360e-5
-1.117, 1.407e-5
-1.118, 1.452e-5
-1.119, 1.510e-5
-1.120, 1.553e-5
-1.121, 1.589e-5
-1.122, 1.637e-5
-1.123, 1.684e-5
-1.124, 1.737e-5
-1.125, 1.778e-5
-1.126, 1.815e-5
-1.127, 1.857e-5
-1.128, 1.896e-5
-1.129, 1.945e-5
-1.130, 1.987e-5
-1.131, 2.019e-5
-1.132, 2.062e-5
-1.133, 2.098e-5
-1.134, 2.143e-5
-1.135, 2.182e-5
-1.136, 2.213e-5
-1.137, 2.249e-5
-1.138, 2.290e-5
-1.139, 2.331e-5
-1.140, 2.373e-5
-1.141, 2.394e-5
-1.142, 2.425e-5
-1.143, 2.466e-5
-1.144, 2.502e-5
-1.145, 2.535e-5
-1.146, 2.564e-5
-1.147, 2.590e-5
-1.148, 2.635e-5
-1.149, 2.665e-5
-1.150, 2.699e-5
-1.151, 2.731e-5
-1.152, 2.759e-5
-1.153, 2.794e-5
-1.154, 2.835e-5
-1.155, 2.861e-5
-1.156, 2.892e-5
-1.157, 2.920e-5
-1.158, 2.954e-5
-1.159, 2.995e-5
-1.160, 3.024e-5
-1.161, 3.052e-5
-1.162, 3.091e-5
-1.163, 3.125e-5
-1.164, 3.165e-5
-1.165, 3.202e-5
-1.166, 3.229e-5
-1.167, 3.268e-5
-1.168, 3.307e-5
-1.169, 3.350e-5
-1.170, 3.394e-5
-1.171, 3.425e-5
-1.172, 3.464e-5
-1.173, 3.514e-5
-1.174, 3.557e-5
-1.175, 3.607e-5
-1.176, 3.647e-5
-1.177, 3.695e-5
-1.178, 3.750e-5
-1.179, 3.797e-5
-1.180, 3.844e-5
-1.181, 3.886e-5
-1.182, 3.935e-5
-1.183, 3.996e-5
-1.184, 4.043e-5
-1.185, 4.090e-5
-1.186, 4.142e-5
-1.187, 4.196e-5
-1.188, 4.259e-5
-1.189, 4.312e-5
-1.190, 4.372e-5
-1.191, 4.424e-5
-1.192, 4.469e-5
-1.193, 4.540e-5
-1.194, 4.597e-5
-1.195, 4.656e-5
-1.196, 4.719e-5
-1.197, 4.774e-5
-1.198, 4.842e-5
-1.199, 4.905e-5
-1.200, 4.967e-5
-1.201, 5.036e-5
-1.202, 5.101e-5
-1.203, 5.170e-5
-1.204, 5.253e-5
-1.205, 5.310e-5
-1.206, 5.384e-5
-1.207, 5.458e-5
-1.208, 5.532e-5
-1.209, 5.610e-5
-1.210, 5.694e-5
-1.211, 5.762e-5
-1.212, 5.843e-5
-1.213, 5.922e-5
-1.214, 6.002e-5
-1.215, 6.093e-5
-1.216, 6.169e-5
-1.217, 6.249e-5
-1.218, 6.349e-5
-1.219, 6.430e-5
-1.220, 6.527e-5
-1.221, 6.607e-5
-1.222, 6.692e-5
-1.223, 6.796e-5
-1.224, 6.881e-5
-1.225, 6.979e-5
-1.226, 7.066e-5
-1.227, 7.156e-5
-1.228, 7.260e-5
-1.229, 7.383e-5
-1.230, 7.466e-5
-1.231, 7.557e-5
-1.232, 7.645e-5
-1.233, 7.751e-5
-1.234, 7.847e-5
-1.235, 7.948e-5
-1.236, 8.041e-5
-1.237, 8.134e-5
-1.238, 8.238e-5
-1.239, 8.348e-5
-1.240, 8.450e-5
-1.241, 8.549e-5
-1.242, 8.648e-5
-1.243, 8.757e-5
-1.244, 8.865e-5
-1.245, 8.964e-5
-1.246, 9.068e-5
-1.247, 9.175e-5
-1.248, 9.287e-5
-1.249, 9.408e-5
-1.250, 9.512e-5
-1.251, 9.618e-5
-1.252, 9.735e-5
-1.253, 9.854e-5
-1.254, 9.976e-5
-1.255, 1.010e-4
-1.256, 1.021e-4
-1.257, 1.033e-4
-1.258, 1.046e-4
-1.259, 1.058e-4
-1.260, 1.072e-4
-1.261, 1.084e-4
-1.262, 1.095e-4
-1.263, 1.110e-4
-1.264, 1.122e-4
-1.265, 1.136e-4
-1.266, 1.150e-4
-1.267, 1.162e-4
-1.268, 1.177e-4
-1.269, 1.190e-4
-1.270, 1.205e-4
-1.271, 1.219e-4
-1.272, 1.232e-4
-1.273, 1.247e-4
-1.274, 1.262e-4
-1.275, 1.276e-4
-1.276, 1.291e-4
-1.277, 1.305e-4
-1.278, 1.321e-4
-1.279, 1.336e-4
-1.280, 1.353e-4
-1.281, 1.367e-4
-1.282, 1.382e-4
-1.283, 1.399e-4
-1.284, 1.415e-4
-1.285, 1.431e-4
-1.286, 1.447e-4
-1.287, 1.463e-4
-1.288, 1.480e-4
-1.289, 1.496e-4
-1.290, 1.513e-4
-1.291, 1.530e-4
-1.292, 1.547e-4
-1.293, 1.564e-4
-1.294, 1.582e-4
-1.295, 1.601e-4
-1.296, 1.619e-4
-1.297, 1.636e-4
-1.298, 1.656e-4
-1.299, 1.677e-4
-1.300, 1.694e-4
-1.301, 1.715e-4
-1.302, 1.729e-4
-1.303, 1.752e-4
-1.304, 1.771e-4
-1.305, 1.795e-4
-1.306, 1.810e-4
-1.307, 1.834e-4
-1.308, 1.854e-4
-1.309, 1.879e-4
-1.310, 1.895e-4
-1.311, 1.922e-4
-1.312, 1.939e-4
-1.313, 1.966e-4
-1.314, 1.986e-4
-1.315, 2.013e-4
-1.316, 2.032e-4
-1.317, 2.057e-4
-1.318, 2.081e-4
-1.319, 2.107e-4
-1.320, 2.130e-4
-1.321, 2.156e-4
-1.322, 2.181e-4
-1.323, 2.204e-4
-1.324, 2.232e-4
-1.325, 2.260e-4
-1.326, 2.287e-4
-1.327, 2.315e-4
-1.328, 2.339e-4
-1.329, 2.367e-4
-1.330, 2.396e-4
-1.331, 2.426e-4
-1.332, 2.450e-4
-1.333, 2.480e-4
-1.334, 2.510e-4
-1.335, 2.542e-4
-1.336, 2.568e-4
-1.337, 2.601e-4
-1.338, 2.629e-4
-1.339, 2.661e-4
-1.340, 2.693e-4
-1.341, 2.723e-4
-1.342, 2.760e-4
-1.343, 2.788e-4
-1.344, 2.827e-4
-1.345, 2.854e-4
-1.346, 2.890e-4
-1.347, 2.922e-4
-1.348, 2.960e-4
-1.349, 2.989e-4
-1.350, 3.028e-4
-1.351, 3.065e-4
-1.352, 3.101e-4
-1.353, 3.139e-4
-1.354, 3.174e-4
-1.355, 3.211e-4
-1.356, 3.250e-4
-1.357, 3.289e-4
-1.358, 3.326e-4
-1.359, 3.366e-4
-1.360, 3.408e-4
-1.361, 3.445e-4
-1.362, 3.488e-4
-1.363, 3.530e-4
-1.364, 3.572e-4
-1.365, 3.609e-4
-1.366, 3.652e-4
-1.367, 3.700e-4
-1.368, 3.741e-4
-1.369, 3.786e-4
-1.370, 3.830e-4
-1.371, 3.874e-4
-1.372, 3.919e-4
-1.373, 3.960e-4
-1.374, 4.008e-4
-1.375, 4.054e-4
-1.376, 4.105e-4
-1.377, 4.147e-4
-1.378, 4.199e-4
-1.379, 4.241e-4
-1.380, 4.291e-4
-1.381, 4.339e-4
-1.382, 4.387e-4
-1.383, 4.443e-4
-1.384, 4.488e-4
-1.385, 4.542e-4
-1.386, 4.591e-4
-1.387, 4.636e-4
-1.388, 4.689e-4
-1.389, 4.740e-4
-1.390, 4.795e-4
-1.391, 4.850e-4
-1.392, 4.898e-4
-1.393, 4.957e-4
-1.394, 5.006e-4
-1.395, 5.065e-4
-1.396, 5.116e-4
-1.397, 5.170e-4
-1.398, 5.225e-4
-1.399, 5.284e-4
-1.400, 5.335e-4
-1.401, 5.395e-4
-1.402, 5.450e-4
-1.403, 5.508e-4
-1.404, 5.567e-4
-1.405, 5.620e-4
-1.406, 5.678e-4
-1.407, 5.736e-4
-1.408, 5.796e-4
-1.409, 5.855e-4
-1.410, 5.916e-4
-1.411, 5.969e-4
-1.412, 6.027e-4
-1.413, 6.088e-4
-1.414, 6.148e-4
-1.415, 6.206e-4
-1.416, 6.263e-4
-1.417, 6.324e-4
-1.418, 6.383e-4
-1.419, 6.443e-4
-1.420, 6.503e-4
-1.421, 6.567e-4
-1.422, 6.626e-4
-1.423, 6.689e-4
-1.424, 6.744e-4
-1.425, 6.803e-4
-1.426, 6.866e-4
-1.427, 6.924e-4
-1.428, 6.985e-4
-1.429, 7.042e-4
-1.430, 7.101e-4
-1.431, 7.156e-4
-1.432, 7.215e-4
-1.433, 7.278e-4
-1.434, 7.341e-4
-1.435, 7.399e-4
-1.436, 7.456e-4
-1.437, 7.514e-4
-1.438, 7.576e-4
-1.439, 7.634e-4
-1.440, 7.693e-4
-1.441, 7.753e-4
-1.442, 7.813e-4
-1.443, 7.869e-4
-1.444, 7.930e-4
-1.445, 7.987e-4
-1.446, 8.048e-4
-1.447, 8.110e-4
-1.448, 8.165e-4
-1.449, 8.228e-4
-1.450, 8.284e-4
-1.451, 8.348e-4
-1.452, 8.412e-4
-1.453, 8.473e-4
-1.454, 8.534e-4
-1.455, 8.599e-4
-1.456, 8.661e-4
-1.457, 8.726e-4
-1.458, 8.789e-4
-1.459, 8.854e-4
-1.460, 8.919e-4
-1.461, 8.983e-4
-1.462, 9.045e-4
-1.463, 9.118e-4
-1.464, 9.186e-4
-1.465, 9.252e-4
-1.466, 9.324e-4
-1.467, 9.392e-4
-1.468, 9.462e-4
-1.469, 9.530e-4
-1.470, 9.602e-4
-1.471, 9.667e-4
-1.472, 9.739e-4
-1.473, 9.814e-4
-1.474, 9.886e-4
-1.475, 9.961e-4
-1.476, 1.004e-3
-1.477, 1.011e-3
-1.478, 1.019e-3
-1.479, 1.026e-3
-1.480, 1.034e-3
-1.481, 1.042e-3
-1.482, 1.050e-3
-1.483, 1.057e-3
-1.484, 1.065e-3
-1.485, 1.074e-3
-1.486, 1.082e-3
-1.487, 1.090e-3
-1.488, 1.098e-3
-1.489, 1.107e-3
-1.490, 1.115e-3
-1.491, 1.124e-3
-1.492, 1.133e-3
-1.493, 1.141e-3
-1.494, 1.150e-3
-1.495, 1.159e-3
-1.496, 1.168e-3
-1.497, 1.177e-3
-1.498, 1.186e-3
-1.499, 1.196e-3
-1.500, 1.206e-3
-1.501, 1.215e-3
-1.502, 1.225e-3
-1.503, 1.234e-3
-1.504, 1.245e-3
-1.505, 1.255e-3
-1.506, 1.265e-3
-1.507, 1.275e-3
-1.508, 1.286e-3
-1.509, 1.297e-3
-1.510, 1.308e-3
-1.511, 1.318e-3
-1.512, 1.329e-3
-1.513, 1.340e-3
-1.514, 1.352e-3
-1.515, 1.362e-3
-1.516, 1.374e-3
-1.517, 1.386e-3
-1.518, 1.398e-3
-1.519, 1.410e-3
-1.520, 1.422e-3
-1.521, 1.434e-3
-1.522, 1.446e-3
-1.523, 1.458e-3
-1.524, 1.472e-3
-1.525, 1.484e-3
-1.526, 1.497e-3
-1.527, 1.509e-3
-1.528, 1.522e-3
-1.529, 1.535e-3
-1.530, 1.549e-3
-1.531, 1.562e-3
-1.532, 1.575e-3
-1.533, 1.588e-3
-1.534, 1.602e-3
-1.535, 1.616e-3
-1.536, 1.629e-3
-1.537, 1.644e-3
-1.538, 1.658e-3
-1.539, 1.672e-3
-1.540, 1.687e-3
-1.541, 1.702e-3
-1.542, 1.717e-3
-1.543, 1.731e-3
-1.544, 1.746e-3
-1.545, 1.761e-3
-1.546, 1.776e-3
-1.547, 1.791e-3
-1.548, 1.807e-3
-1.549, 1.821e-3
-1.550, 1.837e-3
-1.551, 1.852e-3
-1.552, 1.868e-3
-1.553, 1.883e-3
-1.554, 1.899e-3
-1.555, 1.916e-3
-1.556, 1.931e-3
-1.557, 1.947e-3
-1.558, 1.964e-3
-1.559, 1.980e-3
-1.560, 1.997e-3
-1.561, 2.014e-3
-1.562, 2.030e-3
-1.563, 2.046e-3
-1.564, 2.064e-3
-1.565, 2.080e-3
-1.566, 2.097e-3
-1.567, 2.116e-3
-1.568, 2.133e-3
-1.569, 2.151e-3
-1.570, 2.168e-3
-1.571, 2.186e-3
-1.572, 2.202e-3
-1.573, 2.220e-3
-1.574, 2.238e-3
-1.575, 2.255e-3
-1.576, 2.273e-3
-1.577, 2.290e-3
-1.578, 2.308e-3
-1.579, 2.327e-3
-1.580, 2.346e-3
-1.581, 2.364e-3
-1.582, 2.383e-3
-1.583, 2.400e-3
-1.584, 2.419e-3
-1.585, 2.437e-3
-1.586, 2.456e-3
-1.587, 2.476e-3
-1.588, 2.496e-3
-1.589, 2.516e-3
-1.590, 2.535e-3
-1.591, 2.553e-3
-1.592, 2.572e-3
-1.593, 2.591e-3
-1.594, 2.610e-3
-1.595, 2.630e-3
-1.596, 2.649e-3
-1.597, 2.669e-3
-1.598, 2.690e-3
-1.599, 2.708e-3
-1.600, 2.702e-3
-1.599, 2.676e-3
-1.598, 2.655e-3
-1.597, 2.632e-3
-1.596, 2.611e-3
-1.595, 2.590e-3
-1.594, 2.569e-3
-1.593, 2.548e-3
-1.592, 2.527e-3
-1.591, 2.506e-3
-1.590, 2.484e-3
-1.589, 2.463e-3
-1.588, 2.443e-3
-1.587, 2.422e-3
-1.586, 2.402e-3
-1.585, 2.382e-3
-1.584, 2.361e-3
-1.583, 2.342e-3
-1.582, 2.322e-3
-1.581, 2.302e-3
-1.580, 2.283e-3
-1.579, 2.264e-3
-1.578, 2.245e-3
-1.577, 2.225e-3
-1.576, 2.207e-3
-1.575, 2.186e-3
-1.574, 2.167e-3
-1.573, 2.149e-3
-1.572, 2.130e-3
-1.571, 2.112e-3
-1.570, 2.093e-3
-1.569, 2.075e-3
-1.568, 2.057e-3
-1.567, 2.040e-3
-1.566, 2.021e-3
-1.565, 2.004e-3
-1.564, 1.987e-3
-1.563, 1.970e-3
-1.562, 1.952e-3
-1.561, 1.934e-3
-1.560, 1.917e-3
-1.559, 1.900e-3
-1.558, 1.883e-3
-1.557, 1.864e-3
-1.556, 1.847e-3
-1.555, 1.832e-3
-1.554, 1.815e-3
-1.553, 1.798e-3
-1.552, 1.782e-3
-1.551, 1.765e-3
-1.550, 1.749e-3
-1.549, 1.733e-3
-1.548, 1.718e-3
-1.547, 1.702e-3
-1.546, 1.686e-3
-1.545, 1.670e-3
-1.544, 1.655e-3
-1.543, 1.640e-3
-1.542, 1.624e-3
-1.541, 1.610e-3
-1.540, 1.595e-3
-1.539, 1.580e-3
-1.538, 1.565e-3
-1.537, 1.549e-3
-1.536, 1.535e-3
-1.535, 1.520e-3
-1.534, 1.505e-3
-1.533, 1.491e-3
-1.532, 1.477e-3
-1.531, 1.463e-3
-1.530, 1.448e-3
-1.529, 1.434e-3
-1.528, 1.421e-3
-1.527, 1.407e-3
-1.526, 1.394e-3
-1.525, 1.380e-3
-1.524, 1.367e-3
-1.523, 1.353e-3
-1.522, 1.340e-3
-1.521, 1.327e-3
-1.520, 1.314e-3
-1.519, 1.301e-3
-1.518, 1.287e-3
-1.517, 1.274e-3
-1.516, 1.261e-3
-1.515, 1.248e-3
-1.514, 1.236e-3
-1.513, 1.223e-3
-1.512, 1.211e-3
-1.511, 1.198e-3
-1.510, 1.186e-3
-1.509, 1.174e-3
-1.508, 1.161e-3
-1.507, 1.150e-3
-1.506, 1.138e-3
-1.505, 1.126e-3
-1.504, 1.114e-3
-1.503, 1.103e-3
-1.502, 1.091e-3
-1.501, 1.080e-3
-1.500, 1.068e-3
-1.499, 1.057e-3
-1.498, 1.045e-3
-1.497, 1.035e-3
-1.496, 1.024e-3
-1.495, 1.013e-3
-1.494, 1.001e-3
-1.493, 9.913e-4
-1.492, 9.803e-4
-1.491, 9.697e-4
-1.490, 9.593e-4
-1.489, 9.485e-4
-1.488, 9.382e-4
-1.487, 9.273e-4
-1.486, 9.173e-4
-1.485, 9.069e-4
-1.484, 8.962e-4
-1.483, 8.866e-4
-1.482, 8.768e-4
-1.481, 8.672e-4
-1.480, 8.573e-4
-1.479, 8.474e-4
-1.478, 8.376e-4
-1.477, 8.282e-4
-1.476, 8.189e-4
-1.475, 8.096e-4
-1.474, 8.003e-4
-1.473, 7.906e-4
-1.472, 7.817e-4
-1.471, 7.730e-4
-1.470, 7.637e-4
-1.469, 7.551e-4
-1.468, 7.459e-4
-1.467, 7.371e-4
-1.466, 7.284e-4
-1.465, 7.197e-4
-1.464, 7.111e-4
-1.463, 7.026e-4
-1.462, 6.944e-4
-1.461, 6.862e-4
-1.460, 6.777e-4
-1.459, 6.695e-4
-1.458, 6.612e-4
-1.457, 6.533e-4
-1.456, 6.455e-4
-1.455, 6.375e-4
-1.454, 6.295e-4
-1.453, 6.218e-4
-1.452, 6.141e-4
-1.451, 6.065e-4
-1.450, 5.990e-4
-1.449, 5.915e-4
-1.448, 5.843e-4
-1.447, 5.768e-4
-1.446, 5.695e-4
-1.445, 5.624e-4
-1.444, 5.549e-4
-1.443, 5.480e-4
-1.442, 5.409e-4
-1.441, 5.339e-4
-1.440, 5.272e-4
-1.439, 5.202e-4
-1.438, 5.134e-4
-1.437, 5.067e-4
-1.436, 5.000e-4
-1.435, 4.935e-4
-1.434, 4.868e-4
-1.433, 4.803e-4
-1.432, 4.740e-4
-1.431, 4.679e-4
-1.430, 4.616e-4
-1.429, 4.553e-4
-1.428, 4.492e-4
-1.427, 4.431e-4
-1.426, 4.371e-4
-1.425, 4.310e-4
-1.424, 4.251e-4
-1.423, 4.192e-4
-1.422, 4.134e-4
-1.421, 4.077e-4
-1.420, 4.019e-4
-1.419, 3.964e-4
-1.418, 3.909e-4
-1.417, 3.852e-4
-1.416, 3.799e-4
-1.415, 3.745e-4
-1.414, 3.690e-4
-1.413, 3.638e-4
-1.412, 3.586e-4
-1.411, 3.535e-4
-1.410, 3.484e-4
-1.409, 3.433e-4
-1.408, 3.382e-4
-1.407, 3.332e-4
-1.406, 3.282e-4
-1.405, 3.235e-4
-1.404, 3.186e-4
-1.403, 3.139e-4
-1.402, 3.091e-4
-1.401, 3.044e-4
-1.400, 2.999e-4
-1.399, 2.952e-4
-1.398, 2.906e-4
-1.397, 2.864e-4
-1.396, 2.818e-4
-1.395, 2.775e-4
-1.394, 2.731e-4
-1.393, 2.687e-4
-1.392, 2.645e-4
-1.391, 2.604e-4
-1.390, 2.562e-4
-1.389, 2.522e-4
-1.388, 2.481e-4
-1.387, 2.440e-4
-1.386, 2.400e-4
-1.385, 2.360e-4
-1.384, 2.322e-4
-1.383, 2.283e-4
-1.382, 2.243e-4
-1.381, 2.207e-4
-1.380, 2.169e-4
-1.379, 2.132e-4
-1.378, 2.095e-4
-1.377, 2.058e-4
-1.376, 2.024e-4
-1.375, 1.988e-4
-1.374, 1.953e-4
-1.373, 1.919e-4
-1.372, 1.884e-4
-1.371, 1.851e-4
-1.370, 1.817e-4
-1.369, 1.783e-4
-1.368, 1.750e-4
-1.367, 1.718e-4
-1.366, 1.686e-4
-1.365, 1.654e-4
-1.364, 1.622e-4
-1.363, 1.590e-4
-1.362, 1.559e-4
-1.361, 1.528e-4
-1.360, 1.500e-4
-1.359, 1.469e-4
-1.358, 1.437e-4
-1.357, 1.409e-4
-1.356, 1.379e-4
-1.355, 1.352e-4
-1.354, 1.323e-4
-1.353, 1.294e-4
-1.352, 1.267e-4
-1.351, 1.239e-4
-1.350, 1.210e-4
-1.349, 1.184e-4
-1.348, 1.156e-4
-1.347, 1.130e-4
-1.346, 1.103e-4
-1.345, 1.076e-4
-1.344, 1.051e-4
-1.343, 1.024e-4
-1.342, 9.987e-5
-1.341, 9.750e-5
-1.340, 9.491e-5
-1.339, 9.241e-5
-1.338, 9.000e-5
-1.337, 8.754e-5
-1.336, 8.525e-5
-1.335, 8.286e-5
-1.334, 8.045e-5
-1.333, 7.818e-5
-1.332, 7.575e-5
-1.331, 7.352e-5
-1.330, 7.131e-5
-1.329, 6.898e-5
-1.328, 6.681e-5
-1.327, 6.461e-5
-1.326, 6.249e-5
-1.325, 6.033e-5
-1.324, 5.816e-5
-1.323, 5.601e-5
-1.322, 5.407e-5
-1.321, 5.188e-5
-1.320, 4.996e-5
-1.319, 4.795e-5
-1.318, 4.585e-5
-1.317, 4.396e-5
-1.316, 4.209e-5
-1.315, 4.017e-5
-1.314, 3.828e-5
-1.313, 3.625e-5
-1.312, 3.451e-5
-1.311, 3.278e-5
-1.310, 3.095e-5
-1.309, 2.925e-5
-1.308, 2.750e-5
-1.307, 2.579e-5
-1.306, 2.425e-5
-1.305, 2.258e-5
-1.304, 2.107e-5
-1.303, 1.943e-5
-1.302, 1.785e-5
-1.301, 1.647e-5
-1.300, 1.506e-5
-1.299, 1.351e-5
-1.298, 1.203e-5
-1.297, 1.067e-5
-1.296, 9.387e-6
-1.295, 8.036e-6
-1.294, 6.588e-6
-1.293, 5.229e-6
-1.292, 3.957e-6
-1.291, 2.703e-6
-1.290, 1.514e-6
-1.289, 1.843e-7
-1.288, -1.108e-6
-1.287, -2.365e-6
-1.286, -3.521e-6
-1.285, -4.714e-6
-1.284, -5.983e-6
-1.283, -7.291e-6
-1.282, -8.509e-6
-1.281, -9.666e-6
-1.280, -1.100e-5
-1.279, -1.219e-5
-1.278, -1.349e-5
-1.277, -1.461e-5
-1.276, -1.568e-5
-1.275, -1.689e-5
-1.274, -1.812e-5
-1.273, -1.938e-5
-1.272, -2.044e-5
-1.271, -2.156e-5
-1.270, -2.266e-5
-1.269, -2.384e-5
-1.268, -2.505e-5
-1.267, -2.613e-5
-1.266, -2.717e-5
-1.265, -2.826e-5
-1.264, -2.935e-5
-1.263, -3.050e-5
-1.262, -3.154e-5
-1.261, -3.246e-5
-1.260, -3.356e-5
-1.259, -3.457e-5
-1.258, -3.568e-5
-1.257, -3.669e-5
-1.256, -3.750e-5
-1.255, -3.853e-5
-1.254, -3.954e-5
-1.253, -4.051e-5
-1.252, -4.144e-5
-1.251, -4.227e-5
-1.250, -4.308e-5
-1.249, -4.407e-5
-1.248, -4.492e-5
-1.247, -4.578e-5
-1.246, -4.660e-5
-1.245, -4.737e-5
-1.244, -4.829e-5
-1.243, -4.919e-5
-1.242, -4.999e-5
-1.241, -5.095e-5
-1.240, -5.185e-5
-1.239, -5.295e-5
-1.238, -5.435e-5
-1.237, -5.564e-5
-1.236, -5.734e-5
-1.235, -5.931e-5
-1.234, -6.151e-5
-1.233, -6.418e-5
-1.232, -6.686e-5
-1.231, -6.974e-5
-1.230, -7.269e-5
-1.229, -7.586e-5
-1.228, -7.883e-5
-1.227, -8.160e-5
-1.226, -8.421e-5
-1.225, -8.703e-5
-1.224, -8.960e-5
-1.223, -9.231e-5
-1.222, -9.491e-5
-1.221, -9.732e-5
-1.220, -9.973e-5
-1.219, -1.022e-4
-1.218, -1.046e-4
-1.217, -1.070e-4
-1.216, -1.093e-4
-1.215, -1.115e-4
-1.214, -1.140e-4
-1.213, -1.162e-4
-1.212, -1.184e-4
-1.211, -1.206e-4
-1.210, -1.227e-4
-1.209, -1.250e-4
-1.208, -1.271e-4
-1.207, -1.291e-4
-1.206, -1.312e-4
-1.205, -1.331e-4
-1.204, -1.351e-4
-1.203, -1.374e-4
-1.202, -1.394e-4
-1.201, -1.412e-4
-1.200, -1.431e-4
-1.199, -1.451e-4
-1.198, -1.471e-4
-1.197, -1.491e-4
-1.196, -1.510e-4
-1.195, -1.528e-4
-1.194, -1.547e-4
-1.193, -1.566e-4
-1.192, -1.584e-4
-1.191, -1.604e-4
-1.190, -1.624e-4
-1.189, -1.645e-4
-1.188, -1.666e-4
-1.187, -1.686e-4
-1.186, -1.705e-4
-1.185, -1.726e-4
-1.184, -1.746e-4
-1.183, -1.768e-4
-1.182, -1.789e-4
-1.181, -1.810e-4
-1.180, -1.833e-4
-1.179, -1.856e-4
-1.178, -1.881e-4
-1.177, -1.904e-4
-1.176, -1.927e-4
-1.175, -1.952e-4
-1.174, -1.978e-4
-1.173, -2.003e-4
-1.172, -2.029e-4
-1.171, -2.055e-4
-1.170, -2.082e-4
-1.169, -2.113e-4
-1.168, -2.141e-4
-1.167, -2.170e-4
-1.166, -2.200e-4
-1.165, -2.228e-4
-1.164, -2.259e-4
-1.163, -2.289e-4
-1.162, -2.319e-4
-1.161, -2.351e-4
-1.160, -2.380e-4
-1.159, -2.411e-4
-1.158, -2.440e-4
-1.157, -2.471e-4
-1.156, -2.501e-4
-1.155, -2.531e-4
-1.154, -2.561e-4
-1.153, -2.591e-4
-1.152, -2.620e-4
-1.151, -2.647e-4
-1.150, -2.676e-4
-1.149, -2.702e-4
-1.148, -2.727e-4
-1.147, -2.753e-4
-1.146, -2.774e-4
-1.145, -2.796e-4
-1.144, -2.816e-4
-1.143, -2.838e-4
-1.142, -2.857e-4
-1.141, -2.873e-4
-1.140, -2.890e-4
-1.139, -2.904e-4
-1.138, -2.916e-4
-1.137, -2.927e-4
-1.136, -2.934e-4
-1.135, -2.942e-4
-1.134, -2.948e-4
-1.133, -2.950e-4
-1.132, -2.953e-4
-1.131, -2.952e-4
-1.130, -2.949e-4
-1.129, -2.946e-4
-1.128, -2.939e-4
-1.127, -2.932e-4
-1.126, -2.923e-4
-1.125, -2.910e-4
-1.124, -2.896e-4
-1.123, -2.881e-4
-1.122, -2.865e-4
-1.121, -2.845e-4
-1.120, -2.822e-4
-1.119, -2.801e-4
-1.118, -2.778e-4
-1.117, -2.750e-4
-1.116, -2.723e-4
-1.115, -2.694e-4
-1.114, -2.664e-4
-1.113, -2.635e-4
-1.112, -2.602e-4
-1.111, -2.570e-4
-1.110, -2.537e-4
-1.109, -2.503e-4
-1.108, -2.471e-4
-1.107, -2.435e-4
-1.106, -2.400e-4
-1.105, -2.365e-4
-1.104, -2.332e-4
-1.103, -2.298e-4
-1.102, -2.266e-4
-1.101, -2.231e-4
-1.100, -2.199e-4
-1.099, -2.166e-4
-1.098, -2.133e-4
-1.097, -2.104e-4
-1.096, -2.070e-4
-1.095, -2.042e-4
-1.094, -2.014e-4
-1.093, -1.985e-4
-1.092, -1.958e-4
-1.091, -1.930e-4
-1.090, -1.905e-4
-1.089, -1.882e-4
-1.088, -1.856e-4
-1.087, -1.834e-4
-1.086, -1.811e-4
-1.085, -1.788e-4
-1.084, -1.768e-4
-1.083, -1.747e-4
-1.082, -1.728e-4
-1.081, -1.709e-4
-1.080, -1.689e-4
-1.079, -1.672e-4
-1.078, -1.655e-4
-1.077, -1.638e-4
-1.076, -1.622e-4
-1.075, -1.608e-4
-1.074, -1.591e-4
-1.073, -1.577e-4
-1.072, -1.561e-4
-1.071, -1.548e-4
-1.070, -1.533e-4
-1.069, -1.521e-4
-1.068, -1.509e-4
-1.067, -1.495e-4
-1.066, -1.483e-4
-1.065, -1.471e-4
-1.064, -1.459e-4
-1.063, -1.448e-4
-1.062, -1.438e-4
-1.061, -1.425e-4
-1.060, -1.415e-4
-1.059, -1.405e-4
-1.058, -1.395e-4
-1.057, -1.386e-4
-1.056, -1.375e-4
-1.055, -1.365e-4
-1.054, -1.358e-4
-1.053, -1.348e-4
-1.052, -1.340e-4
-1.051, -1.331e-4
-1.050, -1.321e-4
-1.049, -1.316e-4
-1.048, -1.307e-4
-1.047, -1.301e-4
-1.046, -1.293e-4
-1.045, -1.283e-4
-1.044, -1.279e-4
-1.043, -1.272e-4
-1.042, -1.265e-4
-1.041, -1.259e-4
-1.040, -1.252e-4
-1.039, -1.246e-4
-1.038, -1.242e-4
-1.037, -1.235e-4
-1.036, -1.230e-4
-1.035, -1.224e-4
-1.034, -1.219e-4
-1.033, -1.215e-4
-1.032, -1.209e-4
-1.031, -1.204e-4
-1.030, -1.200e-4
-1.029, -1.195e-4
-1.028, -1.191e-4
-1.027, -1.188e-4
-1.026, -1.182e-4
-1.025, -1.179e-4
-1.024, -1.176e-4
-1.023, -1.172e-4
-1.022, -1.169e-4
-1.021, -1.164e-4
-1.020, -1.160e-4
-1.019, -1.158e-4
-1.018, -1.155e-4
-1.017, -1.154e-4
-1.016, -1.150e-4
-1.015, -1.146e-4
-1.014, -1.145e-4
-1.013, -1.141e-4
-1.012, -1.140e-4
-1.011, -1.138e-4
-1.010, -1.134e-4
-1.009, -1.134e-4
-1.008, -1.131e-4
-1.007, -1.130e-4
-1.006, -1.129e-4
-1.005, -1.126e-4
-1.004, -1.125e-4
-1.003, -1.124e-4
-1.002, -1.122e-4
-1.001, -1.121e-4
