Aug. 27, 2024   08:10:09
Cyclic Voltammetry
File: c:/users/guazh/data/20240813_batch_181_500/2024-08-25-exp195\exp195-2024-08-27t07_49_27-h2koh\exp195_cv_50mvs_efin_-1800mv.bin
Data Source:  Experiment
Instrument Model:  CHI760E
Header: CV ran at 50 mVs
Note: 

Init E (V) = -1
High E (V) = -1
Low E (V) = -1.8
Final E (V) = -1
Init P/N = N
Scan Rate (V/s) = 0.05
Segment = 7
Sample Interval (V) = 0.001
Quiet Time (sec) = 60
Sensitivity (A/V) = 0.001
Comp R (ohm) = 1.9

Results:

Channel 1:
Segment 1:

Segment 2:

Segment 3:

Segment 4:

Segment 5:

Segment 6:

Segment 7:

Potential/V, Current/A

-1.000, 3.537e-6
-1.001, 7.474e-6
-1.002, 8.951e-6
-1.003, 9.941e-6
-1.004, 1.064e-5
-1.005, 1.117e-5
-1.006, 1.167e-5
-1.007, 1.219e-5
-1.008, 1.259e-5
-1.009, 1.302e-5
-1.010, 1.335e-5
-1.011, 1.370e-5
-1.012, 1.410e-5
-1.013, 1.444e-5
-1.014, 1.478e-5
-1.015, 1.510e-5
-1.016, 1.535e-5
-1.017, 1.574e-5
-1.018, 1.610e-5
-1.019, 1.637e-5
-1.020, 1.662e-5
-1.021, 1.686e-5
-1.022, 1.722e-5
-1.023, 1.757e-5
-1.024, 1.779e-5
-1.025, 1.808e-5
-1.026, 1.831e-5
-1.027, 1.861e-5
-1.028, 1.896e-5
-1.029, 1.917e-5
-1.030, 1.944e-5
-1.031, 1.970e-5
-1.032, 1.991e-5
-1.033, 2.015e-5
-1.034, 2.043e-5
-1.035, 2.069e-5
-1.036, 2.081e-5
-1.037, 2.106e-5
-1.038, 2.140e-5
-1.039, 2.152e-5
-1.040, 2.162e-5
-1.041, 2.194e-5
-1.042, 2.205e-5
-1.043, 2.236e-5
-1.044, 2.253e-5
-1.045, 2.255e-5
-1.046, 2.280e-5
-1.047, 2.298e-5
-1.048, 2.302e-5
-1.049, 2.340e-5
-1.050, 2.345e-5
-1.051, 2.350e-5
-1.052, 2.371e-5
-1.053, 2.399e-5
-1.054, 2.398e-5
-1.055, 2.411e-5
-1.056, 2.428e-5
-1.057, 2.446e-5
-1.058, 2.456e-5
-1.059, 2.474e-5
-1.060, 2.478e-5
-1.061, 2.491e-5
-1.062, 2.515e-5
-1.063, 2.520e-5
-1.064, 2.540e-5
-1.065, 2.553e-5
-1.066, 2.554e-5
-1.067, 2.582e-5
-1.068, 2.598e-5
-1.069, 2.599e-5
-1.070, 2.622e-5
-1.071, 2.641e-5
-1.072, 2.634e-5
-1.073, 2.670e-5
-1.074, 2.684e-5
-1.075, 2.701e-5
-1.076, 2.722e-5
-1.077, 2.711e-5
-1.078, 2.747e-5
-1.079, 2.771e-5
-1.080, 2.759e-5
-1.081, 2.798e-5
-1.082, 2.797e-5
-1.083, 2.829e-5
-1.084, 2.845e-5
-1.085, 2.858e-5
-1.086, 2.869e-5
-1.087, 2.902e-5
-1.088, 2.914e-5
-1.089, 2.925e-5
-1.090, 2.960e-5
-1.091, 2.957e-5
-1.092, 2.996e-5
-1.093, 3.008e-5
-1.094, 3.021e-5
-1.095, 3.064e-5
-1.096, 3.049e-5
-1.097, 3.087e-5
-1.098, 3.119e-5
-1.099, 3.117e-5
-1.100, 3.164e-5
-1.101, 3.172e-5
-1.102, 3.180e-5
-1.103, 3.232e-5
-1.104, 3.248e-5
-1.105, 3.254e-5
-1.106, 3.288e-5
-1.107, 3.314e-5
-1.108, 3.325e-5
-1.109, 3.355e-5
-1.110, 3.377e-5
-1.111, 3.385e-5
-1.112, 3.427e-5
-1.113, 3.445e-5
-1.114, 3.468e-5
-1.115, 3.497e-5
-1.116, 3.513e-5
-1.117, 3.527e-5
-1.118, 3.569e-5
-1.119, 3.603e-5
-1.120, 3.592e-5
-1.121, 3.637e-5
-1.122, 3.670e-5
-1.123, 3.675e-5
-1.124, 3.725e-5
-1.125, 3.733e-5
-1.126, 3.748e-5
-1.127, 3.800e-5
-1.128, 3.810e-5
-1.129, 3.837e-5
-1.130, 3.872e-5
-1.131, 3.895e-5
-1.132, 3.914e-5
-1.133, 3.949e-5
-1.134, 3.987e-5
-1.135, 4.000e-5
-1.136, 4.010e-5
-1.137, 4.064e-5
-1.138, 4.074e-5
-1.139, 4.119e-5
-1.140, 4.124e-5
-1.141, 4.168e-5
-1.142, 4.191e-5
-1.143, 4.210e-5
-1.144, 4.243e-5
-1.145, 4.276e-5
-1.146, 4.285e-5
-1.147, 4.325e-5
-1.148, 4.359e-5
-1.149, 4.381e-5
-1.150, 4.401e-5
-1.151, 4.443e-5
-1.152, 4.468e-5
-1.153, 4.480e-5
-1.154, 4.520e-5
-1.155, 4.551e-5
-1.156, 4.582e-5
-1.157, 4.600e-5
-1.158, 4.626e-5
-1.159, 4.664e-5
-1.160, 4.693e-5
-1.161, 4.711e-5
-1.162, 4.748e-5
-1.163, 4.777e-5
-1.164, 4.818e-5
-1.165, 4.831e-5
-1.166, 4.863e-5
-1.167, 4.902e-5
-1.168, 4.922e-5
-1.169, 4.940e-5
-1.170, 4.974e-5
-1.171, 5.011e-5
-1.172, 5.046e-5
-1.173, 5.054e-5
-1.174, 5.090e-5
-1.175, 5.132e-5
-1.176, 5.142e-5
-1.177, 5.193e-5
-1.178, 5.223e-5
-1.179, 5.226e-5
-1.180, 5.271e-5
-1.181, 5.298e-5
-1.182, 5.311e-5
-1.183, 5.365e-5
-1.184, 5.381e-5
-1.185, 5.397e-5
-1.186, 5.434e-5
-1.187, 5.464e-5
-1.188, 5.489e-5
-1.189, 5.513e-5
-1.190, 5.552e-5
-1.191, 5.576e-5
-1.192, 5.578e-5
-1.193, 5.619e-5
-1.194, 5.663e-5
-1.195, 5.679e-5
-1.196, 5.702e-5
-1.197, 5.737e-5
-1.198, 5.771e-5
-1.199, 5.791e-5
-1.200, 5.815e-5
-1.201, 5.837e-5
-1.202, 5.884e-5
-1.203, 5.909e-5
-1.204, 5.929e-5
-1.205, 5.963e-5
-1.206, 5.990e-5
-1.207, 6.008e-5
-1.208, 6.049e-5
-1.209, 6.083e-5
-1.210, 6.095e-5
-1.211, 6.120e-5
-1.212, 6.162e-5
-1.213, 6.199e-5
-1.214, 6.239e-5
-1.215, 6.252e-5
-1.216, 6.290e-5
-1.217, 6.342e-5
-1.218, 6.353e-5
-1.219, 6.407e-5
-1.220, 6.416e-5
-1.221, 6.469e-5
-1.222, 6.496e-5
-1.223, 6.542e-5
-1.224, 6.572e-5
-1.225, 6.608e-5
-1.226, 6.639e-5
-1.227, 6.682e-5
-1.228, 6.734e-5
-1.229, 6.772e-5
-1.230, 6.807e-5
-1.231, 6.830e-5
-1.232, 6.880e-5
-1.233, 6.914e-5
-1.234, 6.970e-5
-1.235, 6.995e-5
-1.236, 7.045e-5
-1.237, 7.085e-5
-1.238, 7.136e-5
-1.239, 7.171e-5
-1.240, 7.221e-5
-1.241, 7.252e-5
-1.242, 7.321e-5
-1.243, 7.346e-5
-1.244, 7.419e-5
-1.245, 7.451e-5
-1.246, 7.497e-5
-1.247, 7.548e-5
-1.248, 7.596e-5
-1.249, 7.650e-5
-1.250, 7.688e-5
-1.251, 7.741e-5
-1.252, 7.796e-5
-1.253, 7.850e-5
-1.254, 7.898e-5
-1.255, 7.960e-5
-1.256, 7.999e-5
-1.257, 8.067e-5
-1.258, 8.113e-5
-1.259, 8.170e-5
-1.260, 8.220e-5
-1.261, 8.277e-5
-1.262, 8.338e-5
-1.263, 8.387e-5
-1.264, 8.460e-5
-1.265, 8.496e-5
-1.266, 8.571e-5
-1.267, 8.617e-5
-1.268, 8.696e-5
-1.269, 8.741e-5
-1.270, 8.809e-5
-1.271, 8.868e-5
-1.272, 8.932e-5
-1.273, 8.996e-5
-1.274, 9.057e-5
-1.275, 9.115e-5
-1.276, 9.195e-5
-1.277, 9.252e-5
-1.278, 9.320e-5
-1.279, 9.404e-5
-1.280, 9.474e-5
-1.281, 9.524e-5
-1.282, 9.618e-5
-1.283, 9.686e-5
-1.284, 9.752e-5
-1.285, 9.824e-5
-1.286, 9.892e-5
-1.287, 9.960e-5
-1.288, 1.005e-4
-1.289, 1.012e-4
-1.290, 1.019e-4
-1.291, 1.028e-4
-1.292, 1.036e-4
-1.293, 1.043e-4
-1.294, 1.052e-4
-1.295, 1.061e-4
-1.296, 1.068e-4
-1.297, 1.075e-4
-1.298, 1.085e-4
-1.299, 1.093e-4
-1.300, 1.102e-4
-1.301, 1.109e-4
-1.302, 1.119e-4
-1.303, 1.130e-4
-1.304, 1.137e-4
-1.305, 1.145e-4
-1.306, 1.156e-4
-1.307, 1.165e-4
-1.308, 1.174e-4
-1.309, 1.184e-4
-1.310, 1.194e-4
-1.311, 1.204e-4
-1.312, 1.213e-4
-1.313, 1.225e-4
-1.314, 1.234e-4
-1.315, 1.243e-4
-1.316, 1.255e-4
-1.317, 1.264e-4
-1.318, 1.275e-4
-1.319, 1.287e-4
-1.320, 1.298e-4
-1.321, 1.309e-4
-1.322, 1.320e-4
-1.323, 1.333e-4
-1.324, 1.345e-4
-1.325, 1.355e-4
-1.326, 1.367e-4
-1.327, 1.380e-4
-1.328, 1.392e-4
-1.329, 1.405e-4
-1.330, 1.417e-4
-1.331, 1.429e-4
-1.332, 1.443e-4
-1.333, 1.456e-4
-1.334, 1.469e-4
-1.335, 1.483e-4
-1.336, 1.496e-4
-1.337, 1.511e-4
-1.338, 1.525e-4
-1.339, 1.540e-4
-1.340, 1.553e-4
-1.341, 1.567e-4
-1.342, 1.582e-4
-1.343, 1.598e-4
-1.344, 1.613e-4
-1.345, 1.628e-4
-1.346, 1.643e-4
-1.347, 1.659e-4
-1.348, 1.675e-4
-1.349, 1.691e-4
-1.350, 1.707e-4
-1.351, 1.724e-4
-1.352, 1.740e-4
-1.353, 1.757e-4
-1.354, 1.774e-4
-1.355, 1.789e-4
-1.356, 1.807e-4
-1.357, 1.825e-4
-1.358, 1.844e-4
-1.359, 1.860e-4
-1.360, 1.879e-4
-1.361, 1.897e-4
-1.362, 1.915e-4
-1.363, 1.932e-4
-1.364, 1.951e-4
-1.365, 1.969e-4
-1.366, 1.987e-4
-1.367, 2.006e-4
-1.368, 2.023e-4
-1.369, 2.043e-4
-1.370, 2.061e-4
-1.371, 2.080e-4
-1.372, 2.099e-4
-1.373, 2.120e-4
-1.374, 2.139e-4
-1.375, 2.157e-4
-1.376, 2.177e-4
-1.377, 2.196e-4
-1.378, 2.215e-4
-1.379, 2.234e-4
-1.380, 2.253e-4
-1.381, 2.273e-4
-1.382, 2.294e-4
-1.383, 2.313e-4
-1.384, 2.333e-4
-1.385, 2.353e-4
-1.386, 2.372e-4
-1.387, 2.392e-4
-1.388, 2.412e-4
-1.389, 2.431e-4
-1.390, 2.452e-4
-1.391, 2.471e-4
-1.392, 2.491e-4
-1.393, 2.512e-4
-1.394, 2.532e-4
-1.395, 2.553e-4
-1.396, 2.574e-4
-1.397, 2.594e-4
-1.398, 2.617e-4
-1.399, 2.637e-4
-1.400, 2.655e-4
-1.401, 2.679e-4
-1.402, 2.701e-4
-1.403, 2.721e-4
-1.404, 2.744e-4
-1.405, 2.765e-4
-1.406, 2.787e-4
-1.407, 2.810e-4
-1.408, 2.829e-4
-1.409, 2.853e-4
-1.410, 2.873e-4
-1.411, 2.897e-4
-1.412, 2.922e-4
-1.413, 2.945e-4
-1.414, 2.970e-4
-1.415, 2.993e-4
-1.416, 3.015e-4
-1.417, 3.038e-4
-1.418, 3.062e-4
-1.419, 3.088e-4
-1.420, 3.116e-4
-1.421, 3.140e-4
-1.422, 3.165e-4
-1.423, 3.192e-4
-1.424, 3.219e-4
-1.425, 3.246e-4
-1.426, 3.271e-4
-1.427, 3.301e-4
-1.428, 3.329e-4
-1.429, 3.356e-4
-1.430, 3.387e-4
-1.431, 3.417e-4
-1.432, 3.445e-4
-1.433, 3.475e-4
-1.434, 3.505e-4
-1.435, 3.532e-4
-1.436, 3.561e-4
-1.437, 3.592e-4
-1.438, 3.622e-4
-1.439, 3.654e-4
-1.440, 3.683e-4
-1.441, 3.714e-4
-1.442, 3.749e-4
-1.443, 3.780e-4
-1.444, 3.810e-4
-1.445, 3.840e-4
-1.446, 3.873e-4
-1.447, 3.907e-4
-1.448, 3.940e-4
-1.449, 3.976e-4
-1.450, 4.008e-4
-1.451, 4.040e-4
-1.452, 4.074e-4
-1.453, 4.105e-4
-1.454, 4.141e-4
-1.455, 4.175e-4
-1.456, 4.208e-4
-1.457, 4.246e-4
-1.458, 4.283e-4
-1.459, 4.317e-4
-1.460, 4.353e-4
-1.461, 4.390e-4
-1.462, 4.425e-4
-1.463, 4.462e-4
-1.464, 4.498e-4
-1.465, 4.536e-4
-1.466, 4.574e-4
-1.467, 4.610e-4
-1.468, 4.652e-4
-1.469, 4.687e-4
-1.470, 4.722e-4
-1.471, 4.761e-4
-1.472, 4.802e-4
-1.473, 4.841e-4
-1.474, 4.879e-4
-1.475, 4.922e-4
-1.476, 4.961e-4
-1.477, 4.999e-4
-1.478, 5.043e-4
-1.479, 5.085e-4
-1.480, 5.127e-4
-1.481, 5.165e-4
-1.482, 5.210e-4
-1.483, 5.251e-4
-1.484, 5.296e-4
-1.485, 5.337e-4
-1.486, 5.381e-4
-1.487, 5.429e-4
-1.488, 5.470e-4
-1.489, 5.511e-4
-1.490, 5.556e-4
-1.491, 5.600e-4
-1.492, 5.648e-4
-1.493, 5.693e-4
-1.494, 5.735e-4
-1.495, 5.777e-4
-1.496, 5.825e-4
-1.497, 5.875e-4
-1.498, 5.915e-4
-1.499, 5.960e-4
-1.500, 6.008e-4
-1.501, 6.054e-4
-1.502, 6.100e-4
-1.503, 6.144e-4
-1.504, 6.192e-4
-1.505, 6.244e-4
-1.506, 6.289e-4
-1.507, 6.337e-4
-1.508, 6.385e-4
-1.509, 6.430e-4
-1.510, 6.480e-4
-1.511, 6.526e-4
-1.512, 6.576e-4
-1.513, 6.625e-4
-1.514, 6.674e-4
-1.515, 6.723e-4
-1.516, 6.769e-4
-1.517, 6.815e-4
-1.518, 6.870e-4
-1.519, 6.917e-4
-1.520, 6.967e-4
-1.521, 7.018e-4
-1.522, 7.070e-4
-1.523, 7.121e-4
-1.524, 7.172e-4
-1.525, 7.223e-4
-1.526, 7.274e-4
-1.527, 7.324e-4
-1.528, 7.376e-4
-1.529, 7.424e-4
-1.530, 7.481e-4
-1.531, 7.533e-4
-1.532, 7.589e-4
-1.533, 7.641e-4
-1.534, 7.689e-4
-1.535, 7.738e-4
-1.536, 7.792e-4
-1.537, 7.848e-4
-1.538, 7.898e-4
-1.539, 7.952e-4
-1.540, 8.010e-4
-1.541, 8.064e-4
-1.542, 8.115e-4
-1.543, 8.172e-4
-1.544, 8.227e-4
-1.545, 8.276e-4
-1.546, 8.329e-4
-1.547, 8.381e-4
-1.548, 8.438e-4
-1.549, 8.495e-4
-1.550, 8.546e-4
-1.551, 8.599e-4
-1.552, 8.653e-4
-1.553, 8.711e-4
-1.554, 8.767e-4
-1.555, 8.826e-4
-1.556, 8.879e-4
-1.557, 8.929e-4
-1.558, 8.984e-4
-1.559, 9.044e-4
-1.560, 9.103e-4
-1.561, 9.159e-4
-1.562, 9.215e-4
-1.563, 9.268e-4
-1.564, 9.328e-4
-1.565, 9.389e-4
-1.566, 9.444e-4
-1.567, 9.502e-4
-1.568, 9.558e-4
-1.569, 9.613e-4
-1.570, 9.669e-4
-1.571, 9.726e-4
-1.572, 9.776e-4
-1.573, 9.836e-4
-1.574, 9.896e-4
-1.575, 9.949e-4
-1.576, 1.000e-3
-1.577, 1.006e-3
-1.578, 1.012e-3
-1.579, 1.018e-3
-1.580, 1.023e-3
-1.581, 1.029e-3
-1.582, 1.034e-3
-1.583, 1.041e-3
-1.584, 1.046e-3
-1.585, 1.052e-3
-1.586, 1.058e-3
-1.587, 1.064e-3
-1.588, 1.070e-3
-1.589, 1.076e-3
-1.590, 1.082e-3
-1.591, 1.088e-3
-1.592, 1.094e-3
-1.593, 1.100e-3
-1.594, 1.106e-3
-1.595, 1.112e-3
-1.596, 1.118e-3
-1.597, 1.125e-3
-1.598, 1.131e-3
-1.599, 1.137e-3
-1.600, 1.144e-3
-1.601, 1.150e-3
-1.602, 1.155e-3
-1.603, 1.161e-3
-1.604, 1.167e-3
-1.605, 1.174e-3
-1.606, 1.180e-3
-1.607, 1.186e-3
-1.608, 1.193e-3
-1.609, 1.199e-3
-1.610, 1.205e-3
-1.611, 1.212e-3
-1.612, 1.220e-3
-1.613, 1.227e-3
-1.614, 1.233e-3
-1.615, 1.240e-3
-1.616, 1.247e-3
-1.617, 1.254e-3
-1.618, 1.261e-3
-1.619, 1.267e-3
-1.620, 1.274e-3
-1.621, 1.281e-3
-1.622, 1.288e-3
-1.623, 1.295e-3
-1.624, 1.302e-3
-1.625, 1.309e-3
-1.626, 1.317e-3
-1.627, 1.324e-3
-1.628, 1.331e-3
-1.629, 1.339e-3
-1.630, 1.347e-3
-1.631, 1.354e-3
-1.632, 1.363e-3
-1.633, 1.370e-3
-1.634, 1.378e-3
-1.635, 1.386e-3
-1.636, 1.394e-3
-1.637, 1.402e-3
-1.638, 1.410e-3
-1.639, 1.418e-3
-1.640, 1.427e-3
-1.641, 1.435e-3
-1.642, 1.444e-3
-1.643, 1.453e-3
-1.644, 1.462e-3
-1.645, 1.470e-3
-1.646, 1.479e-3
-1.647, 1.489e-3
-1.648, 1.497e-3
-1.649, 1.506e-3
-1.650, 1.515e-3
-1.651, 1.524e-3
-1.652, 1.534e-3
-1.653, 1.543e-3
-1.654, 1.551e-3
-1.655, 1.561e-3
-1.656, 1.571e-3
-1.657, 1.581e-3
-1.658, 1.590e-3
-1.659, 1.601e-3
-1.660, 1.611e-3
-1.661, 1.621e-3
-1.662, 1.631e-3
-1.663, 1.642e-3
-1.664, 1.651e-3
-1.665, 1.662e-3
-1.666, 1.673e-3
-1.667, 1.682e-3
-1.668, 1.695e-3
-1.669, 1.705e-3
-1.670, 1.716e-3
-1.671, 1.727e-3
-1.672, 1.739e-3
-1.673, 1.749e-3
-1.674, 1.761e-3
-1.675, 1.773e-3
-1.676, 1.785e-3
-1.677, 1.796e-3
-1.678, 1.807e-3
-1.679, 1.819e-3
-1.680, 1.831e-3
-1.681, 1.843e-3
-1.682, 1.856e-3
-1.683, 1.869e-3
-1.684, 1.881e-3
-1.685, 1.893e-3
-1.686, 1.905e-3
-1.687, 1.919e-3
-1.688, 1.933e-3
-1.689, 1.946e-3
-1.690, 1.961e-3
-1.691, 1.973e-3
-1.692, 1.986e-3
-1.693, 2.000e-3
-1.694, 2.014e-3
-1.695, 2.028e-3
-1.696, 2.042e-3
-1.697, 2.056e-3
-1.698, 2.070e-3
-1.699, 2.085e-3
-1.700, 2.100e-3
-1.701, 2.115e-3
-1.702, 2.131e-3
-1.703, 2.145e-3
-1.704, 2.161e-3
-1.705, 2.176e-3
-1.706, 2.190e-3
-1.707, 2.203e-3
-1.708, 2.219e-3
-1.709, 2.235e-3
-1.710, 2.251e-3
-1.711, 2.266e-3
-1.712, 2.283e-3
-1.713, 2.300e-3
-1.714, 2.317e-3
-1.715, 2.334e-3
-1.716, 2.349e-3
-1.717, 2.368e-3
-1.718, 2.385e-3
-1.719, 2.403e-3
-1.720, 2.420e-3
-1.721, 2.437e-3
-1.722, 2.453e-3
-1.723, 2.471e-3
-1.724, 2.490e-3
-1.725, 2.508e-3
-1.726, 2.526e-3
-1.727, 2.543e-3
-1.728, 2.562e-3
-1.729, 2.580e-3
-1.730, 2.597e-3
-1.731, 2.615e-3
-1.732, 2.636e-3
-1.733, 2.654e-3
-1.734, 2.674e-3
-1.735, 2.694e-3
-1.736, 2.713e-3
-1.737, 2.731e-3
-1.738, 2.750e-3
-1.739, 2.769e-3
-1.740, 2.790e-3
-1.741, 2.811e-3
-1.742, 2.831e-3
-1.743, 2.851e-3
-1.744, 2.872e-3
-1.745, 2.891e-3
-1.746, 2.912e-3
-1.747, 2.934e-3
-1.748, 2.958e-3
-1.749, 2.978e-3
-1.750, 2.999e-3
-1.751, 3.019e-3
-1.752, 3.041e-3
-1.753, 3.062e-3
-1.754, 3.083e-3
-1.755, 3.106e-3
-1.756, 3.130e-3
-1.757, 3.152e-3
-1.758, 3.174e-3
-1.759, 3.197e-3
-1.760, 3.219e-3
-1.761, 3.243e-3
-1.762, 3.264e-3
-1.763, 3.290e-3
-1.764, 3.313e-3
-1.765, 3.337e-3
-1.766, 3.360e-3
-1.767, 3.384e-3
-1.768, 3.410e-3
-1.769, 3.435e-3
-1.770, 3.458e-3
-1.771, 3.484e-3
-1.772, 3.508e-3
-1.773, 3.533e-3
-1.774, 3.558e-3
-1.775, 3.584e-3
-1.776, 3.608e-3
-1.777, 3.635e-3
-1.778, 3.662e-3
-1.779, 3.690e-3
-1.780, 3.717e-3
-1.781, 3.744e-3
-1.782, 3.772e-3
-1.783, 3.800e-3
-1.784, 3.827e-3
-1.785, 3.853e-3
-1.786, 3.880e-3
-1.787, 3.909e-3
-1.788, 3.937e-3
-1.789, 3.965e-3
-1.790, 3.992e-3
-1.791, 4.021e-3
-1.792, 4.051e-3
-1.793, 4.080e-3
-1.794, 4.108e-3
-1.795, 4.137e-3
-1.796, 4.167e-3
-1.797, 4.197e-3
-1.798, 4.222e-3
-1.799, 4.251e-3
-1.800, 4.258e-3
-1.799, 4.236e-3
-1.798, 4.212e-3
-1.797, 4.189e-3
-1.796, 4.167e-3
-1.795, 4.146e-3
-1.794, 4.122e-3
-1.793, 4.097e-3
-1.792, 4.078e-3
-1.791, 4.057e-3
-1.790, 4.029e-3
-1.789, 4.007e-3
-1.788, 3.983e-3
-1.787, 3.958e-3
-1.786, 3.931e-3
-1.785, 3.897e-3
-1.784, 3.874e-3
-1.783, 3.851e-3
-1.782, 3.826e-3
-1.781, 3.802e-3
-1.780, 3.781e-3
-1.779, 3.758e-3
-1.778, 3.720e-3
-1.777, 3.689e-3
-1.776, 3.666e-3
-1.775, 3.642e-3
-1.774, 3.616e-3
-1.773, 3.590e-3
-1.772, 3.567e-3
-1.771, 3.543e-3
-1.770, 3.521e-3
-1.769, 3.497e-3
-1.768, 3.475e-3
-1.767, 3.452e-3
-1.766, 3.430e-3
-1.765, 3.409e-3
-1.764, 3.378e-3
-1.763, 3.354e-3
-1.762, 3.333e-3
-1.761, 3.312e-3
-1.760, 3.290e-3
-1.759, 3.269e-3
-1.758, 3.250e-3
-1.757, 3.228e-3
-1.756, 3.202e-3
-1.755, 3.180e-3
-1.754, 3.157e-3
-1.753, 3.138e-3
-1.752, 3.117e-3
-1.751, 3.095e-3
-1.750, 3.073e-3
-1.749, 3.053e-3
-1.748, 3.031e-3
-1.747, 3.009e-3
-1.746, 2.990e-3
-1.745, 2.970e-3
-1.744, 2.949e-3
-1.743, 2.933e-3
-1.742, 2.911e-3
-1.741, 2.891e-3
-1.740, 2.870e-3
-1.739, 2.847e-3
-1.738, 2.827e-3
-1.737, 2.809e-3
-1.736, 2.788e-3
-1.735, 2.762e-3
-1.734, 2.743e-3
-1.733, 2.724e-3
-1.732, 2.705e-3
-1.731, 2.686e-3
-1.730, 2.668e-3
-1.729, 2.648e-3
-1.728, 2.629e-3
-1.727, 2.610e-3
-1.726, 2.592e-3
-1.725, 2.572e-3
-1.724, 2.553e-3
-1.723, 2.534e-3
-1.722, 2.515e-3
-1.721, 2.498e-3
-1.720, 2.474e-3
-1.719, 2.455e-3
-1.718, 2.437e-3
-1.717, 2.420e-3
-1.716, 2.401e-3
-1.715, 2.384e-3
-1.714, 2.366e-3
-1.713, 2.352e-3
-1.712, 2.332e-3
-1.711, 2.313e-3
-1.710, 2.297e-3
-1.709, 2.282e-3
-1.708, 2.265e-3
-1.707, 2.250e-3
-1.706, 2.234e-3
-1.705, 2.217e-3
-1.704, 2.200e-3
-1.703, 2.184e-3
-1.702, 2.169e-3
-1.701, 2.154e-3
-1.700, 2.137e-3
-1.699, 2.119e-3
-1.698, 2.104e-3
-1.697, 2.091e-3
-1.696, 2.076e-3
-1.695, 2.060e-3
-1.694, 2.045e-3
-1.693, 2.030e-3
-1.692, 2.015e-3
-1.691, 1.999e-3
-1.690, 1.985e-3
-1.689, 1.970e-3
-1.688, 1.956e-3
-1.687, 1.941e-3
-1.686, 1.927e-3
-1.685, 1.913e-3
-1.684, 1.897e-3
-1.683, 1.881e-3
-1.682, 1.869e-3
-1.681, 1.855e-3
-1.680, 1.840e-3
-1.679, 1.826e-3
-1.678, 1.811e-3
-1.677, 1.799e-3
-1.676, 1.783e-3
-1.675, 1.769e-3
-1.674, 1.756e-3
-1.673, 1.743e-3
-1.672, 1.731e-3
-1.671, 1.718e-3
-1.670, 1.704e-3
-1.669, 1.692e-3
-1.668, 1.678e-3
-1.667, 1.666e-3
-1.666, 1.654e-3
-1.665, 1.639e-3
-1.664, 1.625e-3
-1.663, 1.614e-3
-1.662, 1.602e-3
-1.661, 1.590e-3
-1.660, 1.576e-3
-1.659, 1.565e-3
-1.658, 1.554e-3
-1.657, 1.540e-3
-1.656, 1.529e-3
-1.655, 1.517e-3
-1.654, 1.504e-3
-1.653, 1.492e-3
-1.652, 1.480e-3
-1.651, 1.469e-3
-1.650, 1.457e-3
-1.649, 1.446e-3
-1.648, 1.434e-3
-1.647, 1.423e-3
-1.646, 1.412e-3
-1.645, 1.402e-3
-1.644, 1.390e-3
-1.643, 1.379e-3
-1.642, 1.368e-3
-1.641, 1.358e-3
-1.640, 1.347e-3
-1.639, 1.336e-3
-1.638, 1.325e-3
-1.637, 1.314e-3
-1.636, 1.304e-3
-1.635, 1.293e-3
-1.634, 1.283e-3
-1.633, 1.273e-3
-1.632, 1.264e-3
-1.631, 1.253e-3
-1.630, 1.243e-3
-1.629, 1.233e-3
-1.628, 1.223e-3
-1.627, 1.212e-3
-1.626, 1.203e-3
-1.625, 1.192e-3
-1.624, 1.183e-3
-1.623, 1.174e-3
-1.622, 1.163e-3
-1.621, 1.155e-3
-1.620, 1.145e-3
-1.619, 1.136e-3
-1.618, 1.126e-3
-1.617, 1.116e-3
-1.616, 1.107e-3
-1.615, 1.098e-3
-1.614, 1.088e-3
-1.613, 1.080e-3
-1.612, 1.072e-3
-1.611, 1.063e-3
-1.610, 1.054e-3
-1.609, 1.045e-3
-1.608, 1.037e-3
-1.607, 1.029e-3
-1.606, 1.020e-3
-1.605, 1.011e-3
-1.604, 1.002e-3
-1.603, 9.935e-4
-1.602, 9.856e-4
-1.601, 9.781e-4
-1.600, 9.704e-4
-1.599, 9.593e-4
-1.598, 9.503e-4
-1.597, 9.432e-4
-1.596, 9.352e-4
-1.595, 9.277e-4
-1.594, 9.197e-4
-1.593, 9.121e-4
-1.592, 9.050e-4
-1.591, 8.973e-4
-1.590, 8.891e-4
-1.589, 8.805e-4
-1.588, 8.737e-4
-1.587, 8.660e-4
-1.586, 8.586e-4
-1.585, 8.518e-4
-1.584, 8.439e-4
-1.583, 8.369e-4
-1.582, 8.297e-4
-1.581, 8.220e-4
-1.580, 8.156e-4
-1.579, 8.086e-4
-1.578, 8.023e-4
-1.577, 7.952e-4
-1.576, 7.887e-4
-1.575, 7.812e-4
-1.574, 7.746e-4
-1.573, 7.674e-4
-1.572, 7.607e-4
-1.571, 7.546e-4
-1.570, 7.481e-4
-1.569, 7.415e-4
-1.568, 7.361e-4
-1.567, 7.298e-4
-1.566, 7.224e-4
-1.565, 7.160e-4
-1.564, 7.096e-4
-1.563, 7.035e-4
-1.562, 6.971e-4
-1.561, 6.907e-4
-1.560, 6.854e-4
-1.559, 6.800e-4
-1.558, 6.730e-4
-1.557, 6.683e-4
-1.556, 6.613e-4
-1.555, 6.548e-4
-1.554, 6.494e-4
-1.553, 6.435e-4
-1.552, 6.383e-4
-1.551, 6.330e-4
-1.550, 6.267e-4
-1.549, 6.206e-4
-1.548, 6.154e-4
-1.547, 6.098e-4
-1.546, 6.046e-4
-1.545, 5.983e-4
-1.544, 5.930e-4
-1.543, 5.881e-4
-1.542, 5.830e-4
-1.541, 5.777e-4
-1.540, 5.722e-4
-1.539, 5.646e-4
-1.538, 5.591e-4
-1.537, 5.546e-4
-1.536, 5.496e-4
-1.535, 5.447e-4
-1.534, 5.400e-4
-1.533, 5.359e-4
-1.532, 5.308e-4
-1.531, 5.258e-4
-1.530, 5.204e-4
-1.529, 5.153e-4
-1.528, 5.108e-4
-1.527, 5.060e-4
-1.526, 5.015e-4
-1.525, 4.963e-4
-1.524, 4.915e-4
-1.523, 4.873e-4
-1.522, 4.828e-4
-1.521, 4.781e-4
-1.520, 4.711e-4
-1.519, 4.664e-4
-1.518, 4.623e-4
-1.517, 4.581e-4
-1.516, 4.538e-4
-1.515, 4.492e-4
-1.514, 4.453e-4
-1.513, 4.411e-4
-1.512, 4.369e-4
-1.511, 4.321e-4
-1.510, 4.279e-4
-1.509, 4.236e-4
-1.508, 4.195e-4
-1.507, 4.157e-4
-1.506, 4.114e-4
-1.505, 4.073e-4
-1.504, 4.033e-4
-1.503, 3.992e-4
-1.502, 3.953e-4
-1.501, 3.913e-4
-1.500, 3.875e-4
-1.499, 3.834e-4
-1.498, 3.794e-4
-1.497, 3.755e-4
-1.496, 3.718e-4
-1.495, 3.675e-4
-1.494, 3.637e-4
-1.493, 3.602e-4
-1.492, 3.567e-4
-1.491, 3.532e-4
-1.490, 3.495e-4
-1.489, 3.458e-4
-1.488, 3.424e-4
-1.487, 3.387e-4
-1.486, 3.352e-4
-1.485, 3.316e-4
-1.484, 3.279e-4
-1.483, 3.247e-4
-1.482, 3.213e-4
-1.481, 3.177e-4
-1.480, 3.146e-4
-1.479, 3.118e-4
-1.478, 3.082e-4
-1.477, 3.041e-4
-1.476, 3.007e-4
-1.475, 2.976e-4
-1.474, 2.942e-4
-1.473, 2.914e-4
-1.472, 2.883e-4
-1.471, 2.852e-4
-1.470, 2.817e-4
-1.469, 2.788e-4
-1.468, 2.757e-4
-1.467, 2.719e-4
-1.466, 2.688e-4
-1.465, 2.660e-4
-1.464, 2.634e-4
-1.463, 2.604e-4
-1.462, 2.575e-4
-1.461, 2.546e-4
-1.460, 2.514e-4
-1.459, 2.486e-4
-1.458, 2.456e-4
-1.457, 2.429e-4
-1.456, 2.400e-4
-1.455, 2.372e-4
-1.454, 2.344e-4
-1.453, 2.317e-4
-1.452, 2.288e-4
-1.451, 2.260e-4
-1.450, 2.233e-4
-1.449, 2.207e-4
-1.448, 2.182e-4
-1.447, 2.156e-4
-1.446, 2.129e-4
-1.445, 2.102e-4
-1.444, 2.075e-4
-1.443, 2.049e-4
-1.442, 2.027e-4
-1.441, 2.003e-4
-1.440, 1.974e-4
-1.439, 1.950e-4
-1.438, 1.927e-4
-1.437, 1.902e-4
-1.436, 1.876e-4
-1.435, 1.852e-4
-1.434, 1.827e-4
-1.433, 1.803e-4
-1.432, 1.780e-4
-1.431, 1.757e-4
-1.430, 1.734e-4
-1.429, 1.710e-4
-1.428, 1.686e-4
-1.427, 1.664e-4
-1.426, 1.641e-4
-1.425, 1.618e-4
-1.424, 1.595e-4
-1.423, 1.573e-4
-1.422, 1.552e-4
-1.421, 1.530e-4
-1.420, 1.508e-4
-1.419, 1.486e-4
-1.418, 1.465e-4
-1.417, 1.445e-4
-1.416, 1.424e-4
-1.415, 1.403e-4
-1.414, 1.383e-4
-1.413, 1.362e-4
-1.412, 1.343e-4
-1.411, 1.323e-4
-1.410, 1.302e-4
-1.409, 1.282e-4
-1.408, 1.262e-4
-1.407, 1.244e-4
-1.406, 1.225e-4
-1.405, 1.205e-4
-1.404, 1.186e-4
-1.403, 1.166e-4
-1.402, 1.149e-4
-1.401, 1.130e-4
-1.400, 1.112e-4
-1.399, 1.094e-4
-1.398, 1.077e-4
-1.397, 1.060e-4
-1.396, 1.041e-4
-1.395, 1.021e-4
-1.394, 1.004e-4
-1.393, 9.866e-5
-1.392, 9.695e-5
-1.391, 9.525e-5
-1.390, 9.355e-5
-1.389, 9.185e-5
-1.388, 9.019e-5
-1.387, 8.867e-5
-1.386, 8.690e-5
-1.385, 8.525e-5
-1.384, 8.364e-5
-1.383, 8.206e-5
-1.382, 8.049e-5
-1.381, 7.900e-5
-1.380, 7.739e-5
-1.379, 7.574e-5
-1.378, 7.448e-5
-1.377, 7.303e-5
-1.376, 7.155e-5
-1.375, 7.012e-5
-1.374, 6.861e-5
-1.373, 6.724e-5
-1.372, 6.580e-5
-1.371, 6.428e-5
-1.370, 6.273e-5
-1.369, 6.127e-5
-1.368, 6.005e-5
-1.367, 5.868e-5
-1.366, 5.731e-5
-1.365, 5.599e-5
-1.364, 5.462e-5
-1.363, 5.338e-5
-1.362, 5.201e-5
-1.361, 5.064e-5
-1.360, 4.933e-5
-1.359, 4.804e-5
-1.358, 4.687e-5
-1.357, 4.561e-5
-1.356, 4.441e-5
-1.355, 4.315e-5
-1.354, 4.194e-5
-1.353, 4.072e-5
-1.352, 3.959e-5
-1.351, 3.842e-5
-1.350, 3.723e-5
-1.349, 3.612e-5
-1.348, 3.504e-5
-1.347, 3.395e-5
-1.346, 3.287e-5
-1.345, 3.176e-5
-1.344, 3.075e-5
-1.343, 2.971e-5
-1.342, 2.868e-5
-1.341, 2.771e-5
-1.340, 2.667e-5
-1.339, 2.567e-5
-1.338, 2.474e-5
-1.337, 2.374e-5
-1.336, 2.291e-5
-1.335, 2.195e-5
-1.334, 2.101e-5
-1.333, 2.016e-5
-1.332, 1.925e-5
-1.331, 1.836e-5
-1.330, 1.750e-5
-1.329, 1.661e-5
-1.328, 1.584e-5
-1.327, 1.499e-5
-1.326, 1.416e-5
-1.325, 1.338e-5
-1.324, 1.253e-5
-1.323, 1.175e-5
-1.322, 1.104e-5
-1.321, 1.025e-5
-1.320, 9.474e-6
-1.319, 8.717e-6
-1.318, 7.969e-6
-1.317, 7.298e-6
-1.316, 6.574e-6
-1.315, 5.792e-6
-1.314, 5.114e-6
-1.313, 4.476e-6
-1.312, 3.795e-6
-1.311, 3.086e-6
-1.310, 2.338e-6
-1.309, 1.707e-6
-1.308, 1.049e-6
-1.307, 3.915e-7
-1.306, -2.538e-7
-1.305, -1.020e-6
-1.304, -1.632e-6
-1.303, -2.172e-6
-1.302, -2.907e-6
-1.301, -3.497e-6
-1.300, -4.202e-6
-1.299, -4.811e-6
-1.298, -5.328e-6
-1.297, -5.979e-6
-1.296, -6.528e-6
-1.295, -7.151e-6
-1.294, -7.738e-6
-1.293, -8.139e-6
-1.292, -8.760e-6
-1.291, -9.307e-6
-1.290, -9.832e-6
-1.289, -1.033e-5
-1.288, -1.070e-5
-1.287, -1.124e-5
-1.286, -1.178e-5
-1.285, -1.222e-5
-1.284, -1.272e-5
-1.283, -1.309e-5
-1.282, -1.358e-5
-1.281, -1.410e-5
-1.280, -1.463e-5
-1.279, -1.503e-5
-1.278, -1.541e-5
-1.277, -1.579e-5
-1.276, -1.623e-5
-1.275, -1.663e-5
-1.274, -1.703e-5
-1.273, -1.743e-5
-1.272, -1.777e-5
-1.271, -1.818e-5
-1.270, -1.856e-5
-1.269, -1.894e-5
-1.268, -1.929e-5
-1.267, -1.961e-5
-1.266, -1.999e-5
-1.265, -2.032e-5
-1.264, -2.067e-5
-1.263, -2.099e-5
-1.262, -2.133e-5
-1.261, -2.167e-5
-1.260, -2.199e-5
-1.259, -2.236e-5
-1.258, -2.260e-5
-1.257, -2.292e-5
-1.256, -2.321e-5
-1.255, -2.352e-5
-1.254, -2.388e-5
-1.253, -2.409e-5
-1.252, -2.435e-5
-1.251, -2.470e-5
-1.250, -2.496e-5
-1.249, -2.527e-5
-1.248, -2.546e-5
-1.247, -2.570e-5
-1.246, -2.601e-5
-1.245, -2.623e-5
-1.244, -2.658e-5
-1.243, -2.674e-5
-1.242, -2.696e-5
-1.241, -2.725e-5
-1.240, -2.744e-5
-1.239, -2.770e-5
-1.238, -2.786e-5
-1.237, -2.801e-5
-1.236, -2.829e-5
-1.235, -2.854e-5
-1.234, -2.877e-5
-1.233, -2.894e-5
-1.232, -2.912e-5
-1.231, -2.936e-5
-1.230, -2.963e-5
-1.229, -3.002e-5
-1.228, -3.009e-5
-1.227, -3.034e-5
-1.226, -3.053e-5
-1.225, -3.081e-5
-1.224, -3.099e-5
-1.223, -3.114e-5
-1.222, -3.141e-5
-1.221, -3.155e-5
-1.220, -3.185e-5
-1.219, -3.203e-5
-1.218, -3.216e-5
-1.217, -3.249e-5
-1.216, -3.276e-5
-1.215, -3.322e-5
-1.214, -3.346e-5
-1.213, -3.363e-5
-1.212, -3.396e-5
-1.211, -3.424e-5
-1.210, -3.460e-5
-1.209, -3.498e-5
-1.208, -3.523e-5
-1.207, -3.555e-5
-1.206, -3.584e-5
-1.205, -3.619e-5
-1.204, -3.653e-5
-1.203, -3.689e-5
-1.202, -3.718e-5
-1.201, -3.759e-5
-1.200, -3.781e-5
-1.199, -3.814e-5
-1.198, -3.850e-5
-1.197, -3.877e-5
-1.196, -3.905e-5
-1.195, -3.939e-5
-1.194, -3.962e-5
-1.193, -3.995e-5
-1.192, -4.020e-5
-1.191, -4.048e-5
-1.190, -4.080e-5
-1.189, -4.101e-5
-1.188, -4.122e-5
-1.187, -4.143e-5
-1.186, -4.164e-5
-1.185, -4.195e-5
-1.184, -4.209e-5
-1.183, -4.227e-5
-1.182, -4.252e-5
-1.181, -4.271e-5
-1.180, -4.296e-5
-1.179, -4.318e-5
-1.178, -4.345e-5
-1.177, -4.359e-5
-1.176, -4.373e-5
-1.175, -4.392e-5
-1.174, -4.409e-5
-1.173, -4.414e-5
-1.172, -4.438e-5
-1.171, -4.457e-5
-1.170, -4.466e-5
-1.169, -4.491e-5
-1.168, -4.493e-5
-1.167, -4.520e-5
-1.166, -4.541e-5
-1.165, -4.551e-5
-1.164, -4.564e-5
-1.163, -4.572e-5
-1.162, -4.595e-5
-1.161, -4.616e-5
-1.160, -4.622e-5
-1.159, -4.637e-5
-1.158, -4.654e-5
-1.157, -4.668e-5
-1.156, -4.689e-5
-1.155, -4.705e-5
-1.154, -4.712e-5
-1.153, -4.724e-5
-1.152, -4.728e-5
-1.151, -4.740e-5
-1.150, -4.760e-5
-1.149, -4.756e-5
-1.148, -4.769e-5
-1.147, -4.772e-5
-1.146, -4.786e-5
-1.145, -4.798e-5
-1.144, -4.798e-5
-1.143, -4.800e-5
-1.142, -4.799e-5
-1.141, -4.816e-5
-1.140, -4.837e-5
-1.139, -4.839e-5
-1.138, -4.839e-5
-1.137, -4.847e-5
-1.136, -4.857e-5
-1.135, -4.865e-5
-1.134, -4.870e-5
-1.133, -4.870e-5
-1.132, -4.885e-5
-1.131, -4.894e-5
-1.130, -4.899e-5
-1.129, -4.906e-5
-1.128, -4.905e-5
-1.127, -4.919e-5
-1.126, -4.930e-5
-1.125, -4.943e-5
-1.124, -4.943e-5
-1.123, -4.941e-5
-1.122, -4.956e-5
-1.121, -4.967e-5
-1.120, -4.976e-5
-1.119, -4.972e-5
-1.118, -4.987e-5
-1.117, -4.986e-5
-1.116, -4.996e-5
-1.115, -4.996e-5
-1.114, -4.995e-5
-1.113, -5.016e-5
-1.112, -5.018e-5
-1.111, -5.034e-5
-1.110, -5.037e-5
-1.109, -5.038e-5
-1.108, -5.045e-5
-1.107, -5.045e-5
-1.106, -5.064e-5
-1.105, -5.074e-5
-1.104, -5.076e-5
-1.103, -5.079e-5
-1.102, -5.087e-5
-1.101, -5.096e-5
-1.100, -5.106e-5
-1.099, -5.106e-5
-1.098, -5.110e-5
-1.097, -5.127e-5
-1.096, -5.130e-5
-1.095, -5.134e-5
-1.094, -5.145e-5
-1.093, -5.140e-5
-1.092, -5.157e-5
-1.091, -5.161e-5
-1.090, -5.176e-5
-1.089, -5.180e-5
-1.088, -5.185e-5
-1.087, -5.193e-5
-1.086, -5.198e-5
-1.085, -5.205e-5
-1.084, -5.204e-5
-1.083, -5.207e-5
-1.082, -5.210e-5
-1.081, -5.228e-5
-1.080, -5.232e-5
-1.079, -5.238e-5
-1.078, -5.237e-5
-1.077, -5.233e-5
-1.076, -5.253e-5
-1.075, -5.270e-5
-1.074, -5.268e-5
-1.073, -5.258e-5
-1.072, -5.250e-5
-1.071, -5.262e-5
-1.070, -5.269e-5
-1.069, -5.266e-5
-1.068, -5.266e-5
-1.067, -5.263e-5
-1.066, -5.268e-5
-1.065, -5.280e-5
-1.064, -5.273e-5
-1.063, -5.270e-5
-1.062, -5.278e-5
-1.061, -5.277e-5
-1.060, -5.276e-5
-1.059, -5.274e-5
-1.058, -5.261e-5
-1.057, -5.273e-5
-1.056, -5.276e-5
-1.055, -5.280e-5
-1.054, -5.282e-5
-1.053, -5.273e-5
-1.052, -5.281e-5
-1.051, -5.283e-5
-1.050, -5.283e-5
-1.049, -5.286e-5
-1.048, -5.275e-5
-1.047, -5.279e-5
-1.046, -5.280e-5
-1.045, -5.285e-5
-1.044, -5.287e-5
-1.043, -5.282e-5
-1.042, -5.281e-5
-1.041, -5.288e-5
-1.040, -5.291e-5
-1.039, -5.291e-5
-1.038, -5.293e-5
-1.037, -5.294e-5
-1.036, -5.303e-5
-1.035, -5.304e-5
-1.034, -5.303e-5
-1.033, -5.310e-5
-1.032, -5.308e-5
-1.031, -5.313e-5
-1.030, -5.313e-5
-1.029, -5.310e-5
-1.028, -5.316e-5
-1.027, -5.318e-5
-1.026, -5.328e-5
-1.025, -5.330e-5
-1.024, -5.336e-5
-1.023, -5.331e-5
-1.022, -5.338e-5
-1.021, -5.342e-5
-1.020, -5.351e-5
-1.019, -5.356e-5
-1.018, -5.358e-5
-1.017, -5.362e-5
-1.016, -5.367e-5
-1.015, -5.372e-5
-1.014, -5.379e-5
-1.013, -5.382e-5
-1.012, -5.386e-5
-1.011, -5.404e-5
-1.010, -5.404e-5
-1.009, -5.420e-5
-1.008, -5.418e-5
-1.007, -5.423e-5
-1.006, -5.447e-5
-1.005, -5.450e-5
-1.004, -5.459e-5
-1.003, -5.464e-5
-1.002, -5.470e-5
-1.001, -5.490e-5
-1.000, -4.474e-5
-1.001, -3.323e-5
-1.002, -2.731e-5
-1.003, -2.337e-5
-1.004, -2.061e-5
-1.005, -1.841e-5
-1.006, -1.651e-5
-1.007, -1.489e-5
-1.008, -1.358e-5
-1.009, -1.238e-5
-1.010, -1.123e-5
-1.011, -1.027e-5
-1.012, -9.256e-6
-1.013, -8.477e-6
-1.014, -7.735e-6
-1.015, -6.928e-6
-1.016, -6.267e-6
-1.017, -5.522e-6
-1.018, -4.958e-6
-1.019, -4.468e-6
-1.020, -3.901e-6
-1.021, -3.396e-6
-1.022, -2.843e-6
-1.023, -2.378e-6
-1.024, -1.948e-6
-1.025, -1.570e-6
-1.026, -1.126e-6
-1.027, -7.115e-7
-1.028, -3.297e-7
-1.029, -5.545e-8
-1.030, 3.274e-7
-1.031, 7.082e-7
-1.032, 1.057e-6
-1.033, 1.378e-6
-1.034, 1.690e-6
-1.035, 1.959e-6
-1.036, 2.384e-6
-1.037, 2.725e-6
-1.038, 2.952e-6
-1.039, 3.225e-6
-1.040, 3.500e-6
-1.041, 3.828e-6
-1.042, 4.179e-6
-1.043, 4.422e-6
-1.044, 4.716e-6
-1.045, 4.946e-6
-1.046, 5.263e-6
-1.047, 5.645e-6
-1.048, 5.824e-6
-1.049, 6.127e-6
-1.050, 6.385e-6
-1.051, 6.654e-6
-1.052, 6.959e-6
-1.053, 7.182e-6
-1.054, 7.391e-6
-1.055, 7.656e-6
-1.056, 7.900e-6
-1.057, 8.200e-6
-1.058, 8.352e-6
-1.059, 8.544e-6
-1.060, 8.782e-6
-1.061, 8.990e-6
-1.062, 9.270e-6
-1.063, 9.448e-6
-1.064, 9.602e-6
-1.065, 9.803e-6
-1.066, 1.007e-5
-1.067, 1.032e-5
-1.068, 1.053e-5
-1.069, 1.071e-5
-1.070, 1.089e-5
-1.071, 1.116e-5
-1.072, 1.137e-5
-1.073, 1.157e-5
-1.074, 1.177e-5
-1.075, 1.201e-5
-1.076, 1.228e-5
-1.077, 1.246e-5
-1.078, 1.264e-5
-1.079, 1.283e-5
-1.080, 1.298e-5
-1.081, 1.326e-5
-1.082, 1.353e-5
-1.083, 1.365e-5
-1.084, 1.393e-5
-1.085, 1.403e-5
-1.086, 1.430e-5
-1.087, 1.455e-5
-1.088, 1.470e-5
-1.089, 1.489e-5
-1.090, 1.510e-5
-1.091, 1.534e-5
-1.092, 1.558e-5
-1.093, 1.571e-5
-1.094, 1.589e-5
-1.095, 1.614e-5
-1.096, 1.634e-5
-1.097, 1.659e-5
-1.098, 1.674e-5
-1.099, 1.688e-5
-1.100, 1.710e-5
-1.101, 1.732e-5
-1.102, 1.749e-5
-1.103, 1.772e-5
-1.104, 1.781e-5
-1.105, 1.801e-5
-1.106, 1.823e-5
-1.107, 1.835e-5
-1.108, 1.859e-5
-1.109, 1.866e-5
-1.110, 1.885e-5
-1.111, 1.906e-5
-1.112, 1.923e-5
-1.113, 1.940e-5
-1.114, 1.950e-5
-1.115, 1.965e-5
-1.116, 1.988e-5
-1.117, 1.998e-5
-1.118, 2.013e-5
-1.119, 2.031e-5
-1.120, 2.039e-5
-1.121, 2.060e-5
-1.122, 2.081e-5
-1.123, 2.089e-5
-1.124, 2.103e-5
-1.125, 2.119e-5
-1.126, 2.132e-5
-1.127, 2.155e-5
-1.128, 2.162e-5
-1.129, 2.176e-5
-1.130, 2.196e-5
-1.131, 2.205e-5
-1.132, 2.228e-5
-1.133, 2.231e-5
-1.134, 2.244e-5
-1.135, 2.264e-5
-1.136, 2.277e-5
-1.137, 2.295e-5
-1.138, 2.304e-5
-1.139, 2.317e-5
-1.140, 2.335e-5
-1.141, 2.347e-5
-1.142, 2.368e-5
-1.143, 2.373e-5
-1.144, 2.382e-5
-1.145, 2.397e-5
-1.146, 2.408e-5
-1.147, 2.426e-5
-1.148, 2.434e-5
-1.149, 2.447e-5
-1.150, 2.458e-5
-1.151, 2.478e-5
-1.152, 2.492e-5
-1.153, 2.501e-5
-1.154, 2.515e-5
-1.155, 2.520e-5
-1.156, 2.540e-5
-1.157, 2.555e-5
-1.158, 2.564e-5
-1.159, 2.582e-5
-1.160, 2.588e-5
-1.161, 2.603e-5
-1.162, 2.622e-5
-1.163, 2.627e-5
-1.164, 2.646e-5
-1.165, 2.653e-5
-1.166, 2.667e-5
-1.167, 2.687e-5
-1.168, 2.688e-5
-1.169, 2.707e-5
-1.170, 2.716e-5
-1.171, 2.729e-5
-1.172, 2.748e-5
-1.173, 2.755e-5
-1.174, 2.769e-5
-1.175, 2.782e-5
-1.176, 2.790e-5
-1.177, 2.820e-5
-1.178, 2.831e-5
-1.179, 2.840e-5
-1.180, 2.852e-5
-1.181, 2.868e-5
-1.182, 2.880e-5
-1.183, 2.895e-5
-1.184, 2.901e-5
-1.185, 2.907e-5
-1.186, 2.932e-5
-1.187, 2.941e-5
-1.188, 2.956e-5
-1.189, 2.964e-5
-1.190, 2.973e-5
-1.191, 2.991e-5
-1.192, 2.998e-5
-1.193, 3.009e-5
-1.194, 3.017e-5
-1.195, 3.029e-5
-1.196, 3.055e-5
-1.197, 3.067e-5
-1.198, 3.074e-5
-1.199, 3.086e-5
-1.200, 3.094e-5
-1.201, 3.114e-5
-1.202, 3.123e-5
-1.203, 3.132e-5
-1.204, 3.142e-5
-1.205, 3.152e-5
-1.206, 3.174e-5
-1.207, 3.190e-5
-1.208, 3.200e-5
-1.209, 3.213e-5
-1.210, 3.223e-5
-1.211, 3.243e-5
-1.212, 3.251e-5
-1.213, 3.261e-5
-1.214, 3.274e-5
-1.215, 3.292e-5
-1.216, 3.314e-5
-1.217, 3.328e-5
-1.218, 3.343e-5
-1.219, 3.354e-5
-1.220, 3.374e-5
-1.221, 3.388e-5
-1.222, 3.406e-5
-1.223, 3.428e-5
-1.224, 3.440e-5
-1.225, 3.456e-5
-1.226, 3.478e-5
-1.227, 3.492e-5
-1.228, 3.515e-5
-1.229, 3.541e-5
-1.230, 3.549e-5
-1.231, 3.571e-5
-1.232, 3.590e-5
-1.233, 3.604e-5
-1.234, 3.624e-5
-1.235, 3.637e-5
-1.236, 3.664e-5
-1.237, 3.678e-5
-1.238, 3.698e-5
-1.239, 3.723e-5
-1.240, 3.738e-5
-1.241, 3.766e-5
-1.242, 3.786e-5
-1.243, 3.804e-5
-1.244, 3.832e-5
-1.245, 3.843e-5
-1.246, 3.874e-5
-1.247, 3.902e-5
-1.248, 3.917e-5
-1.249, 3.942e-5
-1.250, 3.964e-5
-1.251, 3.992e-5
-1.252, 4.024e-5
-1.253, 4.044e-5
-1.254, 4.069e-5
-1.255, 4.094e-5
-1.256, 4.124e-5
-1.257, 4.155e-5
-1.258, 4.178e-5
-1.259, 4.205e-5
-1.260, 4.237e-5
-1.261, 4.267e-5
-1.262, 4.303e-5
-1.263, 4.332e-5
-1.264, 4.358e-5
-1.265, 4.386e-5
-1.266, 4.423e-5
-1.267, 4.455e-5
-1.268, 4.486e-5
-1.269, 4.510e-5
-1.270, 4.545e-5
-1.271, 4.582e-5
-1.272, 4.624e-5
-1.273, 4.652e-5
-1.274, 4.691e-5
-1.275, 4.720e-5
-1.276, 4.767e-5
-1.277, 4.805e-5
-1.278, 4.839e-5
-1.279, 4.882e-5
-1.280, 4.933e-5
-1.281, 4.968e-5
-1.282, 5.018e-5
-1.283, 5.049e-5
-1.284, 5.090e-5
-1.285, 5.130e-5
-1.286, 5.184e-5
-1.287, 5.237e-5
-1.288, 5.269e-5
-1.289, 5.319e-5
-1.290, 5.373e-5
-1.291, 5.424e-5
-1.292, 5.478e-5
-1.293, 5.512e-5
-1.294, 5.562e-5
-1.295, 5.613e-5
-1.296, 5.663e-5
-1.297, 5.721e-5
-1.298, 5.770e-5
-1.299, 5.825e-5
-1.300, 5.882e-5
-1.301, 5.944e-5
-1.302, 6.003e-5
-1.303, 6.059e-5
-1.304, 6.114e-5
-1.305, 6.169e-5
-1.306, 6.234e-5
-1.307, 6.307e-5
-1.308, 6.372e-5
-1.309, 6.421e-5
-1.310, 6.486e-5
-1.311, 6.561e-5
-1.312, 6.620e-5
-1.313, 6.692e-5
-1.314, 6.754e-5
-1.315, 6.821e-5
-1.316, 6.903e-5
-1.317, 6.976e-5
-1.318, 7.047e-5
-1.319, 7.114e-5
-1.320, 7.191e-5
-1.321, 7.259e-5
-1.322, 7.358e-5
-1.323, 7.422e-5
-1.324, 7.493e-5
-1.325, 7.584e-5
-1.326, 7.662e-5
-1.327, 7.745e-5
-1.328, 7.828e-5
-1.329, 7.900e-5
-1.330, 7.999e-5
-1.331, 8.088e-5
-1.332, 8.177e-5
-1.333, 8.268e-5
-1.334, 8.333e-5
-1.335, 8.442e-5
-1.336, 8.535e-5
-1.337, 8.647e-5
-1.338, 8.735e-5
-1.339, 8.813e-5
-1.340, 8.908e-5
-1.341, 9.010e-5
-1.342, 9.111e-5
-1.343, 9.205e-5
-1.344, 9.308e-5
-1.345, 9.405e-5
-1.346, 9.507e-5
-1.347, 9.629e-5
-1.348, 9.725e-5
-1.349, 9.824e-5
-1.350, 9.917e-5
-1.351, 1.003e-4
-1.352, 1.015e-4
-1.353, 1.025e-4
-1.354, 1.037e-4
-1.355, 1.047e-4
-1.356, 1.059e-4
-1.357, 1.070e-4
-1.358, 1.080e-4
-1.359, 1.091e-4
-1.360, 1.103e-4
-1.361, 1.117e-4
-1.362, 1.129e-4
-1.363, 1.140e-4
-1.364, 1.152e-4
-1.365, 1.164e-4
-1.366, 1.178e-4
-1.367, 1.190e-4
-1.368, 1.201e-4
-1.369, 1.213e-4
-1.370, 1.225e-4
-1.371, 1.239e-4
-1.372, 1.256e-4
-1.373, 1.266e-4
-1.374, 1.279e-4
-1.375, 1.292e-4
-1.376, 1.305e-4
-1.377, 1.318e-4
-1.378, 1.330e-4
-1.379, 1.344e-4
-1.380, 1.359e-4
-1.381, 1.375e-4
-1.382, 1.389e-4
-1.383, 1.402e-4
-1.384, 1.416e-4
-1.385, 1.430e-4
-1.386, 1.446e-4
-1.387, 1.459e-4
-1.388, 1.474e-4
-1.389, 1.488e-4
-1.390, 1.504e-4
-1.391, 1.518e-4
-1.392, 1.532e-4
-1.393, 1.551e-4
-1.394, 1.566e-4
-1.395, 1.580e-4
-1.396, 1.595e-4
-1.397, 1.610e-4
-1.398, 1.629e-4
-1.399, 1.650e-4
-1.400, 1.661e-4
-1.401, 1.675e-4
-1.402, 1.694e-4
-1.403, 1.709e-4
-1.404, 1.725e-4
-1.405, 1.740e-4
-1.406, 1.759e-4
-1.407, 1.779e-4
-1.408, 1.796e-4
-1.409, 1.813e-4
-1.410, 1.832e-4
-1.411, 1.848e-4
-1.412, 1.865e-4
-1.413, 1.883e-4
-1.414, 1.900e-4
-1.415, 1.917e-4
-1.416, 1.936e-4
-1.417, 1.955e-4
-1.418, 1.974e-4
-1.419, 1.992e-4
-1.420, 2.014e-4
-1.421, 2.031e-4
-1.422, 2.049e-4
-1.423, 2.070e-4
-1.424, 2.086e-4
-1.425, 2.109e-4
-1.426, 2.128e-4
-1.427, 2.147e-4
-1.428, 2.167e-4
-1.429, 2.187e-4
-1.430, 2.207e-4
-1.431, 2.229e-4
-1.432, 2.250e-4
-1.433, 2.270e-4
-1.434, 2.289e-4
-1.435, 2.310e-4
-1.436, 2.335e-4
-1.437, 2.354e-4
-1.438, 2.372e-4
-1.439, 2.393e-4
-1.440, 2.415e-4
-1.441, 2.444e-4
-1.442, 2.467e-4
-1.443, 2.484e-4
-1.444, 2.504e-4
-1.445, 2.526e-4
-1.446, 2.550e-4
-1.447, 2.572e-4
-1.448, 2.594e-4
-1.449, 2.617e-4
-1.450, 2.643e-4
-1.451, 2.666e-4
-1.452, 2.688e-4
-1.453, 2.710e-4
-1.454, 2.731e-4
-1.455, 2.755e-4
-1.456, 2.776e-4
-1.457, 2.798e-4
-1.458, 2.826e-4
-1.459, 2.856e-4
-1.460, 2.883e-4
-1.461, 2.900e-4
-1.462, 2.923e-4
-1.463, 2.948e-4
-1.464, 2.970e-4
-1.465, 2.996e-4
-1.466, 3.023e-4
-1.467, 3.053e-4
-1.468, 3.075e-4
-1.469, 3.099e-4
-1.470, 3.124e-4
-1.471, 3.150e-4
-1.472, 3.176e-4
-1.473, 3.202e-4
-1.474, 3.225e-4
-1.475, 3.252e-4
-1.476, 3.280e-4
-1.477, 3.306e-4
-1.478, 3.332e-4
-1.479, 3.358e-4
-1.480, 3.387e-4
-1.481, 3.413e-4
-1.482, 3.441e-4
-1.483, 3.468e-4
-1.484, 3.497e-4
-1.485, 3.523e-4
-1.486, 3.550e-4
-1.487, 3.578e-4
-1.488, 3.606e-4
-1.489, 3.634e-4
-1.490, 3.663e-4
-1.491, 3.691e-4
-1.492, 3.722e-4
-1.493, 3.749e-4
-1.494, 3.779e-4
-1.495, 3.809e-4
-1.496, 3.837e-4
-1.497, 3.864e-4
-1.498, 3.894e-4
-1.499, 3.924e-4
-1.500, 3.954e-4
-1.501, 3.988e-4
-1.502, 4.014e-4
-1.503, 4.045e-4
-1.504, 4.078e-4
-1.505, 4.112e-4
-1.506, 4.141e-4
-1.507, 4.168e-4
-1.508, 4.194e-4
-1.509, 4.223e-4
-1.510, 4.260e-4
-1.511, 4.292e-4
-1.512, 4.322e-4
-1.513, 4.356e-4
-1.514, 4.388e-4
-1.515, 4.418e-4
-1.516, 4.449e-4
-1.517, 4.482e-4
-1.518, 4.515e-4
-1.519, 4.545e-4
-1.520, 4.579e-4
-1.521, 4.614e-4
-1.522, 4.649e-4
-1.523, 4.677e-4
-1.524, 4.710e-4
-1.525, 4.744e-4
-1.526, 4.777e-4
-1.527, 4.812e-4
-1.528, 4.844e-4
-1.529, 4.878e-4
-1.530, 4.917e-4
-1.531, 4.952e-4
-1.532, 4.985e-4
-1.533, 5.021e-4
-1.534, 5.055e-4
-1.535, 5.092e-4
-1.536, 5.127e-4
-1.537, 5.162e-4
-1.538, 5.196e-4
-1.539, 5.234e-4
-1.540, 5.270e-4
-1.541, 5.303e-4
-1.542, 5.343e-4
-1.543, 5.388e-4
-1.544, 5.427e-4
-1.545, 5.458e-4
-1.546, 5.491e-4
-1.547, 5.525e-4
-1.548, 5.564e-4
-1.549, 5.602e-4
-1.550, 5.642e-4
-1.551, 5.687e-4
-1.552, 5.729e-4
-1.553, 5.767e-4
-1.554, 5.803e-4
-1.555, 5.831e-4
-1.556, 5.876e-4
-1.557, 5.925e-4
-1.558, 5.975e-4
-1.559, 6.012e-4
-1.560, 6.056e-4
-1.561, 6.097e-4
-1.562, 6.135e-4
-1.563, 6.171e-4
-1.564, 6.209e-4
-1.565, 6.251e-4
-1.566, 6.303e-4
-1.567, 6.346e-4
-1.568, 6.388e-4
-1.569, 6.432e-4
-1.570, 6.476e-4
-1.571, 6.516e-4
-1.572, 6.565e-4
-1.573, 6.611e-4
-1.574, 6.657e-4
-1.575, 6.700e-4
-1.576, 6.745e-4
-1.577, 6.785e-4
-1.578, 6.836e-4
-1.579, 6.884e-4
-1.580, 6.931e-4
-1.581, 6.980e-4
-1.582, 7.030e-4
-1.583, 7.078e-4
-1.584, 7.125e-4
-1.585, 7.167e-4
-1.586, 7.219e-4
-1.587, 7.262e-4
-1.588, 7.318e-4
-1.589, 7.371e-4
-1.590, 7.423e-4
-1.591, 7.477e-4
-1.592, 7.519e-4
-1.593, 7.567e-4
-1.594, 7.620e-4
-1.595, 7.669e-4
-1.596, 7.733e-4
-1.597, 7.787e-4
-1.598, 7.833e-4
-1.599, 7.890e-4
-1.600, 7.947e-4
-1.601, 8.000e-4
-1.602, 8.052e-4
-1.603, 8.111e-4
-1.604, 8.180e-4
-1.605, 8.240e-4
-1.606, 8.293e-4
-1.607, 8.346e-4
-1.608, 8.397e-4
-1.609, 8.455e-4
-1.610, 8.518e-4
-1.611, 8.590e-4
-1.612, 8.653e-4
-1.613, 8.707e-4
-1.614, 8.770e-4
-1.615, 8.837e-4
-1.616, 8.897e-4
-1.617, 8.959e-4
-1.618, 9.020e-4
-1.619, 9.089e-4
-1.620, 9.153e-4
-1.621, 9.217e-4
-1.622, 9.289e-4
-1.623, 9.353e-4
-1.624, 9.411e-4
-1.625, 9.490e-4
-1.626, 9.562e-4
-1.627, 9.628e-4
-1.628, 9.695e-4
-1.629, 9.765e-4
-1.630, 9.837e-4
-1.631, 9.908e-4
-1.632, 9.981e-4
-1.633, 1.006e-3
-1.634, 1.014e-3
-1.635, 1.021e-3
-1.636, 1.028e-3
-1.637, 1.036e-3
-1.638, 1.044e-3
-1.639, 1.051e-3
-1.640, 1.060e-3
-1.641, 1.068e-3
-1.642, 1.076e-3
-1.643, 1.084e-3
-1.644, 1.093e-3
-1.645, 1.101e-3
-1.646, 1.109e-3
-1.647, 1.117e-3
-1.648, 1.125e-3
-1.649, 1.134e-3
-1.650, 1.142e-3
-1.651, 1.152e-3
-1.652, 1.161e-3
-1.653, 1.170e-3
-1.654, 1.179e-3
-1.655, 1.189e-3
-1.656, 1.198e-3
-1.657, 1.207e-3
-1.658, 1.217e-3
-1.659, 1.226e-3
-1.660, 1.235e-3
-1.661, 1.244e-3
-1.662, 1.255e-3
-1.663, 1.265e-3
-1.664, 1.274e-3
-1.665, 1.285e-3
-1.666, 1.294e-3
-1.667, 1.304e-3
-1.668, 1.315e-3
-1.669, 1.326e-3
-1.670, 1.337e-3
-1.671, 1.347e-3
-1.672, 1.357e-3
-1.673, 1.368e-3
-1.674, 1.379e-3
-1.675, 1.390e-3
-1.676, 1.402e-3
-1.677, 1.413e-3
-1.678, 1.425e-3
-1.679, 1.436e-3
-1.680, 1.448e-3
-1.681, 1.459e-3
-1.682, 1.471e-3
-1.683, 1.482e-3
-1.684, 1.494e-3
-1.685, 1.506e-3
-1.686, 1.518e-3
-1.687, 1.530e-3
-1.688, 1.543e-3
-1.689, 1.554e-3
-1.690, 1.568e-3
-1.691, 1.581e-3
-1.692, 1.594e-3
-1.693, 1.607e-3
-1.694, 1.620e-3
-1.695, 1.633e-3
-1.696, 1.646e-3
-1.697, 1.659e-3
-1.698, 1.673e-3
-1.699, 1.686e-3
-1.700, 1.701e-3
-1.701, 1.715e-3
-1.702, 1.729e-3
-1.703, 1.743e-3
-1.704, 1.758e-3
-1.705, 1.773e-3
-1.706, 1.787e-3
-1.707, 1.802e-3
-1.708, 1.816e-3
-1.709, 1.831e-3
-1.710, 1.846e-3
-1.711, 1.862e-3
-1.712, 1.877e-3
-1.713, 1.891e-3
-1.714, 1.906e-3
-1.715, 1.923e-3
-1.716, 1.940e-3
-1.717, 1.957e-3
-1.718, 1.973e-3
-1.719, 1.988e-3
-1.720, 2.005e-3
-1.721, 2.021e-3
-1.722, 2.038e-3
-1.723, 2.056e-3
-1.724, 2.072e-3
-1.725, 2.089e-3
-1.726, 2.107e-3
-1.727, 2.124e-3
-1.728, 2.142e-3
-1.729, 2.159e-3
-1.730, 2.177e-3
-1.731, 2.196e-3
-1.732, 2.214e-3
-1.733, 2.233e-3
-1.734, 2.251e-3
-1.735, 2.269e-3
-1.736, 2.289e-3
-1.737, 2.307e-3
-1.738, 2.327e-3
-1.739, 2.347e-3
-1.740, 2.367e-3
-1.741, 2.387e-3
-1.742, 2.405e-3
-1.743, 2.420e-3
-1.744, 2.443e-3
-1.745, 2.464e-3
-1.746, 2.484e-3
-1.747, 2.505e-3
-1.748, 2.528e-3
-1.749, 2.552e-3
-1.750, 2.571e-3
-1.751, 2.586e-3
-1.752, 2.604e-3
-1.753, 2.624e-3
-1.754, 2.646e-3
-1.755, 2.671e-3
-1.756, 2.700e-3
-1.757, 2.722e-3
-1.758, 2.743e-3
-1.759, 2.761e-3
-1.760, 2.779e-3
-1.761, 2.800e-3
-1.762, 2.828e-3
-1.763, 2.855e-3
-1.764, 2.879e-3
-1.765, 2.905e-3
-1.766, 2.928e-3
-1.767, 2.950e-3
-1.768, 2.972e-3
-1.769, 2.996e-3
-1.770, 3.023e-3
-1.771, 3.050e-3
-1.772, 3.075e-3
-1.773, 3.099e-3
-1.774, 3.124e-3
-1.775, 3.149e-3
-1.776, 3.174e-3
-1.777, 3.200e-3
-1.778, 3.225e-3
-1.779, 3.251e-3
-1.780, 3.277e-3
-1.781, 3.304e-3
-1.782, 3.331e-3
-1.783, 3.358e-3
-1.784, 3.383e-3
-1.785, 3.412e-3
-1.786, 3.441e-3
-1.787, 3.470e-3
-1.788, 3.495e-3
-1.789, 3.522e-3
-1.790, 3.550e-3
-1.791, 3.579e-3
-1.792, 3.609e-3
-1.793, 3.639e-3
-1.794, 3.670e-3
-1.795, 3.702e-3
-1.796, 3.734e-3
-1.797, 3.763e-3
-1.798, 3.792e-3
-1.799, 3.822e-3
-1.800, 3.828e-3
-1.799, 3.814e-3
-1.798, 3.796e-3
-1.797, 3.779e-3
-1.796, 3.758e-3
-1.795, 3.733e-3
-1.794, 3.706e-3
-1.793, 3.695e-3
-1.792, 3.677e-3
-1.791, 3.652e-3
-1.790, 3.633e-3
-1.789, 3.616e-3
-1.788, 3.596e-3
-1.787, 3.572e-3
-1.786, 3.545e-3
-1.785, 3.524e-3
-1.784, 3.500e-3
-1.783, 3.477e-3
-1.782, 3.457e-3
-1.781, 3.439e-3
-1.780, 3.419e-3
-1.779, 3.396e-3
-1.778, 3.372e-3
-1.777, 3.349e-3
-1.776, 3.324e-3
-1.775, 3.301e-3
-1.774, 3.282e-3
-1.773, 3.261e-3
-1.772, 3.240e-3
-1.771, 3.221e-3
-1.770, 3.200e-3
-1.769, 3.179e-3
-1.768, 3.157e-3
-1.767, 3.134e-3
-1.766, 3.114e-3
-1.765, 3.094e-3
-1.764, 3.075e-3
-1.763, 3.056e-3
-1.762, 3.037e-3
-1.761, 3.013e-3
-1.760, 2.990e-3
-1.759, 2.969e-3
-1.758, 2.950e-3
-1.757, 2.929e-3
-1.756, 2.911e-3
-1.755, 2.893e-3
-1.754, 2.870e-3
-1.753, 2.850e-3
-1.752, 2.828e-3
-1.751, 2.808e-3
-1.750, 2.789e-3
-1.749, 2.771e-3
-1.748, 2.751e-3
-1.747, 2.733e-3
-1.746, 2.712e-3
-1.745, 2.692e-3
-1.744, 2.671e-3
-1.743, 2.651e-3
-1.742, 2.632e-3
-1.741, 2.618e-3
-1.740, 2.600e-3
-1.739, 2.578e-3
-1.738, 2.559e-3
-1.737, 2.544e-3
-1.736, 2.527e-3
-1.735, 2.510e-3
-1.734, 2.492e-3
-1.733, 2.472e-3
-1.732, 2.451e-3
-1.731, 2.432e-3
-1.730, 2.416e-3
-1.729, 2.402e-3
-1.728, 2.386e-3
-1.727, 2.368e-3
-1.726, 2.350e-3
-1.725, 2.330e-3
-1.724, 2.312e-3
-1.723, 2.295e-3
-1.722, 2.279e-3
-1.721, 2.263e-3
-1.720, 2.247e-3
-1.719, 2.230e-3
-1.718, 2.215e-3
-1.717, 2.198e-3
-1.716, 2.179e-3
-1.715, 2.163e-3
-1.714, 2.146e-3
-1.713, 2.130e-3
-1.712, 2.114e-3
-1.711, 2.099e-3
-1.710, 2.083e-3
-1.709, 2.068e-3
-1.708, 2.051e-3
-1.707, 2.035e-3
-1.706, 2.020e-3
-1.705, 2.003e-3
-1.704, 1.987e-3
-1.703, 1.973e-3
-1.702, 1.960e-3
-1.701, 1.945e-3
-1.700, 1.929e-3
-1.699, 1.913e-3
-1.698, 1.900e-3
-1.697, 1.884e-3
-1.696, 1.871e-3
-1.695, 1.857e-3
-1.694, 1.842e-3
-1.693, 1.828e-3
-1.692, 1.813e-3
-1.691, 1.798e-3
-1.690, 1.783e-3
-1.689, 1.766e-3
-1.688, 1.752e-3
-1.687, 1.736e-3
-1.686, 1.721e-3
-1.685, 1.707e-3
-1.684, 1.696e-3
-1.683, 1.684e-3
-1.682, 1.671e-3
-1.681, 1.657e-3
-1.680, 1.642e-3
-1.679, 1.628e-3
-1.678, 1.615e-3
-1.677, 1.604e-3
-1.676, 1.591e-3
-1.675, 1.577e-3
-1.674, 1.562e-3
-1.673, 1.549e-3
-1.672, 1.538e-3
-1.671, 1.525e-3
-1.670, 1.512e-3
-1.669, 1.500e-3
-1.668, 1.485e-3
-1.667, 1.474e-3
-1.666, 1.461e-3
-1.665, 1.450e-3
-1.664, 1.439e-3
-1.663, 1.426e-3
-1.662, 1.415e-3
-1.661, 1.405e-3
-1.660, 1.392e-3
-1.659, 1.381e-3
-1.658, 1.370e-3
-1.657, 1.358e-3
-1.656, 1.348e-3
-1.655, 1.336e-3
-1.654, 1.325e-3
-1.653, 1.313e-3
-1.652, 1.303e-3
-1.651, 1.292e-3
-1.650, 1.281e-3
-1.649, 1.271e-3
-1.648, 1.259e-3
-1.647, 1.248e-3
-1.646, 1.238e-3
-1.645, 1.230e-3
-1.644, 1.221e-3
-1.643, 1.209e-3
-1.642, 1.198e-3
-1.641, 1.189e-3
-1.640, 1.177e-3
-1.639, 1.168e-3
-1.638, 1.157e-3
-1.637, 1.149e-3
-1.636, 1.139e-3
-1.635, 1.130e-3
-1.634, 1.120e-3
-1.633, 1.109e-3
-1.632, 1.099e-3
-1.631, 1.090e-3
-1.630, 1.080e-3
-1.629, 1.071e-3
-1.628, 1.060e-3
-1.627, 1.052e-3
-1.626, 1.044e-3
-1.625, 1.035e-3
-1.624, 1.025e-3
-1.623, 1.016e-3
-1.622, 1.007e-3
-1.621, 9.988e-4
-1.620, 9.902e-4
-1.619, 9.823e-4
-1.618, 9.735e-4
-1.617, 9.638e-4
-1.616, 9.563e-4
-1.615, 9.479e-4
-1.614, 9.393e-4
-1.613, 9.307e-4
-1.612, 9.235e-4
-1.611, 9.142e-4
-1.610, 9.060e-4
-1.609, 8.976e-4
-1.608, 8.891e-4
-1.607, 8.809e-4
-1.606, 8.739e-4
-1.605, 8.666e-4
-1.604, 8.590e-4
-1.603, 8.511e-4
-1.602, 8.423e-4
-1.601, 8.351e-4
-1.600, 8.271e-4
-1.599, 8.206e-4
-1.598, 8.124e-4
-1.597, 8.060e-4
-1.596, 7.982e-4
-1.595, 7.906e-4
-1.594, 7.838e-4
-1.593, 7.774e-4
-1.592, 7.658e-4
-1.591, 7.547e-4
-1.590, 7.502e-4
-1.589, 7.440e-4
-1.588, 7.375e-4
-1.587, 7.294e-4
-1.586, 7.223e-4
-1.585, 7.154e-4
-1.584, 7.087e-4
-1.583, 7.010e-4
-1.582, 6.956e-4
-1.581, 6.900e-4
-1.580, 6.837e-4
-1.579, 6.776e-4
-1.578, 6.711e-4
-1.577, 6.643e-4
-1.576, 6.578e-4
-1.575, 6.519e-4
-1.574, 6.459e-4
-1.573, 6.395e-4
-1.572, 6.343e-4
-1.571, 6.271e-4
-1.570, 6.206e-4
-1.569, 6.147e-4
-1.568, 6.095e-4
-1.567, 6.032e-4
-1.566, 5.979e-4
-1.565, 5.925e-4
-1.564, 5.869e-4
-1.563, 5.817e-4
-1.562, 5.757e-4
-1.561, 5.696e-4
-1.560, 5.636e-4
-1.559, 5.575e-4
-1.558, 5.522e-4
-1.557, 5.468e-4
-1.556, 5.419e-4
-1.555, 5.366e-4
-1.554, 5.313e-4
-1.553, 5.259e-4
-1.552, 5.202e-4
-1.551, 5.154e-4
-1.550, 5.098e-4
-1.549, 5.050e-4
-1.548, 4.997e-4
-1.547, 4.952e-4
-1.546, 4.897e-4
-1.545, 4.850e-4
-1.544, 4.788e-4
-1.543, 4.740e-4
-1.542, 4.696e-4
-1.541, 4.648e-4
-1.540, 4.599e-4
-1.539, 4.553e-4
-1.538, 4.510e-4
-1.537, 4.466e-4
-1.536, 4.419e-4
-1.535, 4.381e-4
-1.534, 4.328e-4
-1.533, 4.271e-4
-1.532, 4.228e-4
-1.531, 4.187e-4
-1.530, 4.143e-4
-1.529, 4.098e-4
-1.528, 4.058e-4
-1.527, 4.013e-4
-1.526, 3.969e-4
-1.525, 3.930e-4
-1.524, 3.888e-4
-1.523, 3.845e-4
-1.522, 3.803e-4
-1.521, 3.762e-4
-1.520, 3.726e-4
-1.519, 3.683e-4
-1.518, 3.642e-4
-1.517, 3.601e-4
-1.516, 3.561e-4
-1.515, 3.521e-4
-1.514, 3.484e-4
-1.513, 3.442e-4
-1.512, 3.405e-4
-1.511, 3.367e-4
-1.510, 3.330e-4
-1.509, 3.296e-4
-1.508, 3.258e-4
-1.507, 3.216e-4
-1.506, 3.178e-4
-1.505, 3.142e-4
-1.504, 3.106e-4
-1.503, 3.069e-4
-1.502, 3.037e-4
-1.501, 3.004e-4
-1.500, 2.970e-4
-1.499, 2.937e-4
-1.498, 2.906e-4
-1.497, 2.876e-4
-1.496, 2.838e-4
-1.495, 2.803e-4
-1.494, 2.769e-4
-1.493, 2.739e-4
-1.492, 2.706e-4
-1.491, 2.672e-4
-1.490, 2.640e-4
-1.489, 2.610e-4
-1.488, 2.578e-4
-1.487, 2.545e-4
-1.486, 2.516e-4
-1.485, 2.487e-4
-1.484, 2.457e-4
-1.483, 2.429e-4
-1.482, 2.394e-4
-1.481, 2.362e-4
-1.480, 2.334e-4
-1.479, 2.306e-4
-1.478, 2.278e-4
-1.477, 2.250e-4
-1.476, 2.222e-4
-1.475, 2.193e-4
-1.474, 2.163e-4
-1.473, 2.133e-4
-1.472, 2.107e-4
-1.471, 2.081e-4
-1.470, 2.055e-4
-1.469, 2.029e-4
-1.468, 2.002e-4
-1.467, 1.975e-4
-1.466, 1.948e-4
-1.465, 1.923e-4
-1.464, 1.898e-4
-1.463, 1.871e-4
-1.462, 1.848e-4
-1.461, 1.824e-4
-1.460, 1.799e-4
-1.459, 1.772e-4
-1.458, 1.748e-4
-1.457, 1.722e-4
-1.456, 1.699e-4
-1.455, 1.677e-4
-1.454, 1.653e-4
-1.453, 1.630e-4
-1.452, 1.608e-4
-1.451, 1.584e-4
-1.450, 1.561e-4
-1.449, 1.540e-4
-1.448, 1.519e-4
-1.447, 1.497e-4
-1.446, 1.475e-4
-1.445, 1.451e-4
-1.444, 1.429e-4
-1.443, 1.408e-4
-1.442, 1.388e-4
-1.441, 1.366e-4
-1.440, 1.348e-4
-1.439, 1.327e-4
-1.438, 1.307e-4
-1.437, 1.291e-4
-1.436, 1.268e-4
-1.435, 1.246e-4
-1.434, 1.226e-4
-1.433, 1.205e-4
-1.432, 1.187e-4
-1.431, 1.168e-4
-1.430, 1.148e-4
-1.429, 1.130e-4
-1.428, 1.111e-4
-1.427, 1.091e-4
-1.426, 1.074e-4
-1.425, 1.056e-4
-1.424, 1.038e-4
-1.423, 1.020e-4
-1.422, 1.003e-4
-1.421, 9.865e-5
-1.420, 9.685e-5
-1.419, 9.521e-5
-1.418, 9.350e-5
-1.417, 9.179e-5
-1.416, 9.021e-5
-1.415, 8.846e-5
-1.414, 8.685e-5
-1.413, 8.532e-5
-1.412, 8.363e-5
-1.411, 8.216e-5
-1.410, 8.071e-5
-1.409, 7.915e-5
-1.408, 7.759e-5
-1.407, 7.599e-5
-1.406, 7.453e-5
-1.405, 7.325e-5
-1.404, 7.175e-5
-1.403, 7.026e-5
-1.402, 6.871e-5
-1.401, 6.732e-5
-1.400, 6.603e-5
-1.399, 6.457e-5
-1.398, 6.308e-5
-1.397, 6.170e-5
-1.396, 6.038e-5
-1.395, 5.913e-5
-1.394, 5.784e-5
-1.393, 5.641e-5
-1.392, 5.523e-5
-1.391, 5.391e-5
-1.390, 5.266e-5
-1.389, 5.159e-5
-1.388, 5.028e-5
-1.387, 4.895e-5
-1.386, 4.772e-5
-1.385, 4.659e-5
-1.384, 4.554e-5
-1.383, 4.426e-5
-1.382, 4.300e-5
-1.381, 4.200e-5
-1.380, 4.089e-5
-1.379, 3.978e-5
-1.378, 3.864e-5
-1.377, 3.759e-5
-1.376, 3.665e-5
-1.375, 3.561e-5
-1.374, 3.452e-5
-1.373, 3.354e-5
-1.372, 3.251e-5
-1.371, 3.154e-5
-1.370, 3.053e-5
-1.369, 2.958e-5
-1.368, 2.873e-5
-1.367, 2.776e-5
-1.366, 2.682e-5
-1.365, 2.597e-5
-1.364, 2.501e-5
-1.363, 2.413e-5
-1.362, 2.322e-5
-1.361, 2.243e-5
-1.360, 2.169e-5
-1.359, 2.081e-5
-1.358, 1.992e-5
-1.357, 1.916e-5
-1.356, 1.831e-5
-1.355, 1.760e-5
-1.354, 1.681e-5
-1.353, 1.600e-5
-1.352, 1.534e-5
-1.351, 1.460e-5
-1.350, 1.390e-5
-1.349, 1.316e-5
-1.348, 1.241e-5
-1.347, 1.176e-5
-1.346, 1.106e-5
-1.345, 1.040e-5
-1.344, 9.797e-6
-1.343, 9.071e-6
-1.342, 8.417e-6
-1.341, 7.859e-6
-1.340, 7.205e-6
-1.339, 6.576e-6
-1.338, 5.936e-6
-1.337, 5.263e-6
-1.336, 4.821e-6
-1.335, 4.215e-6
-1.334, 3.563e-6
-1.333, 3.033e-6
-1.332, 2.397e-6
-1.331, 1.935e-6
-1.330, 1.338e-6
-1.329, 7.585e-7
-1.328, 2.918e-7
-1.327, -2.646e-7
-1.326, -7.609e-7
-1.325, -1.284e-6
-1.324, -1.833e-6
-1.323, -2.378e-6
-1.322, -2.880e-6
-1.321, -3.354e-6
-1.320, -3.841e-6
-1.319, -4.363e-6
-1.318, -4.880e-6
-1.317, -5.336e-6
-1.316, -5.770e-6
-1.315, -6.191e-6
-1.314, -6.688e-6
-1.313, -7.188e-6
-1.312, -7.545e-6
-1.311, -7.934e-6
-1.310, -8.366e-6
-1.309, -8.763e-6
-1.308, -9.223e-6
-1.307, -9.569e-6
-1.306, -9.948e-6
-1.305, -1.034e-5
-1.304, -1.074e-5
-1.303, -1.111e-5
-1.302, -1.145e-5
-1.301, -1.177e-5
-1.300, -1.214e-5
-1.299, -1.252e-5
-1.298, -1.285e-5
-1.297, -1.318e-5
-1.296, -1.343e-5
-1.295, -1.370e-5
-1.294, -1.411e-5
-1.293, -1.442e-5
-1.292, -1.464e-5
-1.291, -1.497e-5
-1.290, -1.522e-5
-1.289, -1.560e-5
-1.288, -1.585e-5
-1.287, -1.605e-5
-1.286, -1.635e-5
-1.285, -1.658e-5
-1.284, -1.684e-5
-1.283, -1.718e-5
-1.282, -1.735e-5
-1.281, -1.764e-5
-1.280, -1.790e-5
-1.279, -1.805e-5
-1.278, -1.835e-5
-1.277, -1.855e-5
-1.276, -1.875e-5
-1.275, -1.900e-5
-1.274, -1.916e-5
-1.273, -1.947e-5
-1.272, -1.964e-5
-1.271, -1.979e-5
-1.270, -2.002e-5
-1.269, -2.021e-5
-1.268, -2.043e-5
-1.267, -2.065e-5
-1.266, -2.080e-5
-1.265, -2.096e-5
-1.264, -2.113e-5
-1.263, -2.137e-5
-1.262, -2.151e-5
-1.261, -2.165e-5
-1.260, -2.183e-5
-1.259, -2.203e-5
-1.258, -2.220e-5
-1.257, -2.236e-5
-1.256, -2.246e-5
-1.255, -2.259e-5
-1.254, -2.285e-5
-1.253, -2.298e-5
-1.252, -2.308e-5
-1.251, -2.323e-5
-1.250, -2.334e-5
-1.249, -2.357e-5
-1.248, -2.368e-5
-1.247, -2.378e-5
-1.246, -2.394e-5
-1.245, -2.399e-5
-1.244, -2.417e-5
-1.243, -2.431e-5
-1.242, -2.437e-5
-1.241, -2.453e-5
-1.240, -2.457e-5
-1.239, -2.474e-5
-1.238, -2.488e-5
-1.237, -2.498e-5
-1.236, -2.510e-5
-1.235, -2.519e-5
-1.234, -2.533e-5
-1.233, -2.545e-5
-1.232, -2.549e-5
-1.231, -2.560e-5
-1.230, -2.578e-5
-1.229, -2.603e-5
-1.228, -2.615e-5
-1.227, -2.615e-5
-1.226, -2.621e-5
-1.225, -2.631e-5
-1.224, -2.639e-5
-1.223, -2.654e-5
-1.222, -2.667e-5
-1.221, -2.663e-5
-1.220, -2.674e-5
-1.219, -2.685e-5
-1.218, -2.698e-5
-1.217, -2.709e-5
-1.216, -2.706e-5
-1.215, -2.721e-5
-1.214, -2.736e-5
-1.213, -2.747e-5
-1.212, -2.756e-5
-1.211, -2.758e-5
-1.210, -2.771e-5
-1.209, -2.787e-5
-1.208, -2.796e-5
-1.207, -2.804e-5
-1.206, -2.807e-5
-1.205, -2.818e-5
-1.204, -2.835e-5
-1.203, -2.846e-5
-1.202, -2.850e-5
-1.201, -2.859e-5
-1.200, -2.869e-5
-1.199, -2.880e-5
-1.198, -2.892e-5
-1.197, -2.900e-5
-1.196, -2.910e-5
-1.195, -2.920e-5
-1.194, -2.933e-5
-1.193, -2.954e-5
-1.192, -2.953e-5
-1.191, -2.960e-5
-1.190, -2.974e-5
-1.189, -2.977e-5
-1.188, -2.994e-5
-1.187, -3.004e-5
-1.186, -3.012e-5
-1.185, -3.029e-5
-1.184, -3.034e-5
-1.183, -3.044e-5
-1.182, -3.061e-5
-1.181, -3.060e-5
-1.180, -3.077e-5
-1.179, -3.091e-5
-1.178, -3.115e-5
-1.177, -3.123e-5
-1.176, -3.123e-5
-1.175, -3.132e-5
-1.174, -3.140e-5
-1.173, -3.159e-5
-1.172, -3.174e-5
-1.171, -3.181e-5
-1.170, -3.184e-5
-1.169, -3.196e-5
-1.168, -3.206e-5
-1.167, -3.220e-5
-1.166, -3.225e-5
-1.165, -3.235e-5
-1.164, -3.247e-5
-1.163, -3.267e-5
-1.162, -3.267e-5
-1.161, -3.274e-5
-1.160, -3.278e-5
-1.159, -3.291e-5
-1.158, -3.308e-5
-1.157, -3.309e-5
-1.156, -3.310e-5
-1.155, -3.316e-5
-1.154, -3.325e-5
-1.153, -3.343e-5
-1.152, -3.342e-5
-1.151, -3.342e-5
-1.150, -3.355e-5
-1.149, -3.357e-5
-1.148, -3.368e-5
-1.147, -3.365e-5
-1.146, -3.373e-5
-1.145, -3.385e-5
-1.144, -3.388e-5
-1.143, -3.388e-5
-1.142, -3.392e-5
-1.141, -3.392e-5
-1.140, -3.409e-5
-1.139, -3.416e-5
-1.138, -3.420e-5
-1.137, -3.426e-5
-1.136, -3.429e-5
-1.135, -3.437e-5
-1.134, -3.443e-5
-1.133, -3.456e-5
-1.132, -3.450e-5
-1.131, -3.459e-5
-1.130, -3.466e-5
-1.129, -3.475e-5
-1.128, -3.477e-5
-1.127, -3.482e-5
-1.126, -3.491e-5
-1.125, -3.497e-5
-1.124, -3.501e-5
-1.123, -3.514e-5
-1.122, -3.516e-5
-1.121, -3.521e-5
-1.120, -3.522e-5
-1.119, -3.533e-5
-1.118, -3.544e-5
-1.117, -3.545e-5
-1.116, -3.551e-5
-1.115, -3.563e-5
-1.114, -3.573e-5
-1.113, -3.583e-5
-1.112, -3.574e-5
-1.111, -3.578e-5
-1.110, -3.596e-5
-1.109, -3.603e-5
-1.108, -3.606e-5
-1.107, -3.611e-5
-1.106, -3.617e-5
-1.105, -3.631e-5
-1.104, -3.634e-5
-1.103, -3.640e-5
-1.102, -3.656e-5
-1.101, -3.652e-5
-1.100, -3.664e-5
-1.099, -3.677e-5
-1.098, -3.678e-5
-1.097, -3.693e-5
-1.096, -3.689e-5
-1.095, -3.702e-5
-1.094, -3.717e-5
-1.093, -3.720e-5
-1.092, -3.729e-5
-1.091, -3.733e-5
-1.090, -3.744e-5
-1.089, -3.762e-5
-1.088, -3.761e-5
-1.087, -3.769e-5
-1.086, -3.780e-5
-1.085, -3.784e-5
-1.084, -3.799e-5
-1.083, -3.801e-5
-1.082, -3.811e-5
-1.081, -3.818e-5
-1.080, -3.824e-5
-1.079, -3.837e-5
-1.078, -3.844e-5
-1.077, -3.853e-5
-1.076, -3.863e-5
-1.075, -3.876e-5
-1.074, -3.886e-5
-1.073, -3.889e-5
-1.072, -3.892e-5
-1.071, -3.901e-5
-1.070, -3.913e-5
-1.069, -3.930e-5
-1.068, -3.938e-5
-1.067, -3.947e-5
-1.066, -3.941e-5
-1.065, -3.951e-5
-1.064, -3.972e-5
-1.063, -3.981e-5
-1.062, -3.996e-5
-1.061, -3.992e-5
-1.060, -4.008e-5
-1.059, -4.023e-5
-1.058, -4.026e-5
-1.057, -4.039e-5
-1.056, -4.043e-5
-1.055, -4.060e-5
-1.054, -4.077e-5
-1.053, -4.084e-5
-1.052, -4.086e-5
-1.051, -4.087e-5
-1.050, -4.110e-5
-1.049, -4.126e-5
-1.048, -4.138e-5
-1.047, -4.144e-5
-1.046, -4.157e-5
-1.045, -4.162e-5
-1.044, -4.177e-5
-1.043, -4.187e-5
-1.042, -4.199e-5
-1.041, -4.218e-5
-1.040, -4.226e-5
-1.039, -4.247e-5
-1.038, -4.258e-5
-1.037, -4.253e-5
-1.036, -4.269e-5
-1.035, -4.282e-5
-1.034, -4.296e-5
-1.033, -4.319e-5
-1.032, -4.319e-5
-1.031, -4.339e-5
-1.030, -4.359e-5
-1.029, -4.362e-5
-1.028, -4.382e-5
-1.027, -4.391e-5
-1.026, -4.408e-5
-1.025, -4.430e-5
-1.024, -4.447e-5
-1.023, -4.467e-5
-1.022, -4.474e-5
-1.021, -4.484e-5
-1.020, -4.510e-5
-1.019, -4.529e-5
-1.018, -4.536e-5
-1.017, -4.549e-5
-1.016, -4.564e-5
-1.015, -4.586e-5
-1.014, -4.609e-5
-1.013, -4.619e-5
-1.012, -4.639e-5
-1.011, -4.652e-5
-1.010, -4.670e-5
-1.009, -4.697e-5
-1.008, -4.704e-5
-1.007, -4.724e-5
-1.006, -4.747e-5
-1.005, -4.761e-5
-1.004, -4.792e-5
-1.003, -4.802e-5
-1.002, -4.817e-5
-1.001, -4.841e-5
-1.000, -3.854e-5
-1.001, -2.782e-5
-1.002, -2.242e-5
-1.003, -1.907e-5
-1.004, -1.648e-5
-1.005, -1.457e-5
-1.006, -1.304e-5
-1.007, -1.159e-5
-1.008, -1.052e-5
-1.009, -9.409e-6
-1.010, -8.419e-6
-1.011, -7.657e-6
-1.012, -6.851e-6
-1.013, -6.135e-6
-1.014, -5.458e-6
-1.015, -4.831e-6
-1.016, -4.361e-6
-1.017, -3.734e-6
-1.018, -3.184e-6
-1.019, -2.718e-6
-1.020, -2.239e-6
-1.021, -1.865e-6
-1.022, -1.381e-6
-1.023, -8.822e-7
-1.024, -4.708e-7
-1.025, -8.504e-8
-1.026, 2.573e-7
-1.027, 5.908e-7
-1.028, 1.055e-6
-1.029, 1.389e-6
-1.030, 1.712e-6
-1.031, 2.038e-6
-1.032, 2.370e-6
-1.033, 2.725e-6
-1.034, 3.109e-6
-1.035, 3.398e-6
-1.036, 3.676e-6
-1.037, 4.012e-6
-1.038, 4.399e-6
-1.039, 4.745e-6
-1.040, 4.972e-6
-1.041, 5.197e-6
-1.042, 5.533e-6
-1.043, 5.865e-6
-1.044, 6.135e-6
-1.045, 6.332e-6
-1.046, 6.579e-6
-1.047, 6.856e-6
-1.048, 7.135e-6
-1.049, 7.390e-6
-1.050, 7.597e-6
-1.051, 7.800e-6
-1.052, 8.040e-6
-1.053, 8.386e-6
-1.054, 8.525e-6
-1.055, 8.778e-6
-1.056, 8.975e-6
-1.057, 9.196e-6
-1.058, 9.529e-6
-1.059, 9.665e-6
-1.060, 9.955e-6
-1.061, 1.007e-5
-1.062, 1.032e-5
-1.063, 1.064e-5
-1.064, 1.077e-5
-1.065, 1.098e-5
-1.066, 1.120e-5
-1.067, 1.136e-5
-1.068, 1.171e-5
-1.069, 1.187e-5
-1.070, 1.205e-5
-1.071, 1.228e-5
-1.072, 1.246e-5
-1.073, 1.273e-5
-1.074, 1.290e-5
-1.075, 1.311e-5
-1.076, 1.332e-5
-1.077, 1.347e-5
-1.078, 1.376e-5
-1.079, 1.390e-5
-1.080, 1.402e-5
-1.081, 1.426e-5
-1.082, 1.443e-5
-1.083, 1.466e-5
-1.084, 1.484e-5
-1.085, 1.500e-5
-1.086, 1.514e-5
-1.087, 1.531e-5
-1.088, 1.555e-5
-1.089, 1.572e-5
-1.090, 1.588e-5
-1.091, 1.598e-5
-1.092, 1.617e-5
-1.093, 1.638e-5
-1.094, 1.652e-5
-1.095, 1.670e-5
-1.096, 1.673e-5
-1.097, 1.692e-5
-1.098, 1.721e-5
-1.099, 1.727e-5
-1.100, 1.745e-5
-1.101, 1.751e-5
-1.102, 1.764e-5
-1.103, 1.786e-5
-1.104, 1.795e-5
-1.105, 1.809e-5
-1.106, 1.817e-5
-1.107, 1.829e-5
-1.108, 1.853e-5
-1.109, 1.860e-5
-1.110, 1.870e-5
-1.111, 1.882e-5
-1.112, 1.891e-5
-1.113, 1.915e-5
-1.114, 1.921e-5
-1.115, 1.930e-5
-1.116, 1.936e-5
-1.117, 1.949e-5
-1.118, 1.965e-5
-1.119, 1.973e-5
-1.120, 1.981e-5
-1.121, 1.986e-5
-1.122, 2.001e-5
-1.123, 2.015e-5
-1.124, 2.021e-5
-1.125, 2.028e-5
-1.126, 2.031e-5
-1.127, 2.047e-5
-1.128, 2.058e-5
-1.129, 2.068e-5
-1.130, 2.073e-5
-1.131, 2.074e-5
-1.132, 2.091e-5
-1.133, 2.098e-5
-1.134, 2.101e-5
-1.135, 2.113e-5
-1.136, 2.113e-5
-1.137, 2.125e-5
-1.138, 2.136e-5
-1.139, 2.138e-5
-1.140, 2.150e-5
-1.141, 2.148e-5
-1.142, 2.157e-5
-1.143, 2.175e-5
-1.144, 2.175e-5
-1.145, 2.184e-5
-1.146, 2.186e-5
-1.147, 2.194e-5
-1.148, 2.205e-5
-1.149, 2.212e-5
-1.150, 2.216e-5
-1.151, 2.219e-5
-1.152, 2.229e-5
-1.153, 2.244e-5
-1.154, 2.249e-5
-1.155, 2.248e-5
-1.156, 2.255e-5
-1.157, 2.259e-5
-1.158, 2.274e-5
-1.159, 2.282e-5
-1.160, 2.281e-5
-1.161, 2.285e-5
-1.162, 2.296e-5
-1.163, 2.307e-5
-1.164, 2.310e-5
-1.165, 2.316e-5
-1.166, 2.321e-5
-1.167, 2.328e-5
-1.168, 2.335e-5
-1.169, 2.349e-5
-1.170, 2.343e-5
-1.171, 2.354e-5
-1.172, 2.356e-5
-1.173, 2.373e-5
-1.174, 2.372e-5
-1.175, 2.384e-5
-1.176, 2.384e-5
-1.177, 2.394e-5
-1.178, 2.410e-5
-1.179, 2.401e-5
-1.180, 2.409e-5
-1.181, 2.413e-5
-1.182, 2.426e-5
-1.183, 2.434e-5
-1.184, 2.438e-5
-1.185, 2.443e-5
-1.186, 2.449e-5
-1.187, 2.445e-5
-1.188, 2.463e-5
-1.189, 2.453e-5
-1.190, 2.469e-5
-1.191, 2.471e-5
-1.192, 2.459e-5
-1.193, 2.478e-5
-1.194, 2.479e-5
-1.195, 2.481e-5
-1.196, 2.487e-5
-1.197, 2.495e-5
-1.198, 2.498e-5
-1.199, 2.496e-5
-1.200, 2.503e-5
-1.201, 2.501e-5
-1.202, 2.507e-5
-1.203, 2.518e-5
-1.204, 2.526e-5
-1.205, 2.517e-5
-1.206, 2.530e-5
-1.207, 2.534e-5
-1.208, 2.540e-5
-1.209, 2.546e-5
-1.210, 2.548e-5
-1.211, 2.556e-5
-1.212, 2.555e-5
-1.213, 2.565e-5
-1.214, 2.572e-5
-1.215, 2.580e-5
-1.216, 2.582e-5
-1.217, 2.584e-5
-1.218, 2.602e-5
-1.219, 2.609e-5
-1.220, 2.606e-5
-1.221, 2.618e-5
-1.222, 2.623e-5
-1.223, 2.636e-5
-1.224, 2.645e-5
-1.225, 2.642e-5
-1.226, 2.650e-5
-1.227, 2.662e-5
-1.228, 2.674e-5
-1.229, 2.705e-5
-1.230, 2.697e-5
-1.231, 2.702e-5
-1.232, 2.699e-5
-1.233, 2.716e-5
-1.234, 2.735e-5
-1.235, 2.731e-5
-1.236, 2.743e-5
-1.237, 2.761e-5
-1.238, 2.763e-5
-1.239, 2.779e-5
-1.240, 2.782e-5
-1.241, 2.790e-5
-1.242, 2.814e-5
-1.243, 2.825e-5
-1.244, 2.830e-5
-1.245, 2.837e-5
-1.246, 2.852e-5
-1.247, 2.863e-5
-1.248, 2.883e-5
-1.249, 2.898e-5
-1.250, 2.910e-5
-1.251, 2.920e-5
-1.252, 2.939e-5
-1.253, 2.955e-5
-1.254, 2.971e-5
-1.255, 2.987e-5
-1.256, 2.983e-5
-1.257, 3.000e-5
-1.258, 3.023e-5
-1.259, 3.040e-5
-1.260, 3.058e-5
-1.261, 3.072e-5
-1.262, 3.097e-5
-1.263, 3.106e-5
-1.264, 3.117e-5
-1.265, 3.143e-5
-1.266, 3.153e-5
-1.267, 3.176e-5
-1.268, 3.203e-5
-1.269, 3.217e-5
-1.270, 3.237e-5
-1.271, 3.256e-5
-1.272, 3.271e-5
-1.273, 3.299e-5
-1.274, 3.325e-5
-1.275, 3.348e-5
-1.276, 3.371e-5
-1.277, 3.382e-5
-1.278, 3.410e-5
-1.279, 3.442e-5
-1.280, 3.466e-5
-1.281, 3.494e-5
-1.282, 3.524e-5
-1.283, 3.549e-5
-1.284, 3.571e-5
-1.285, 3.585e-5
-1.286, 3.619e-5
-1.287, 3.667e-5
-1.288, 3.691e-5
-1.289, 3.719e-5
-1.290, 3.747e-5
-1.291, 3.783e-5
-1.292, 3.822e-5
-1.293, 3.848e-5
-1.294, 3.875e-5
-1.295, 3.906e-5
-1.296, 3.937e-5
-1.297, 3.981e-5
-1.298, 4.022e-5
-1.299, 4.056e-5
-1.300, 4.091e-5
-1.301, 4.131e-5
-1.302, 4.173e-5
-1.303, 4.212e-5
-1.304, 4.248e-5
-1.305, 4.283e-5
-1.306, 4.326e-5
-1.307, 4.371e-5
-1.308, 4.427e-5
-1.309, 4.469e-5
-1.310, 4.508e-5
-1.311, 4.553e-5
-1.312, 4.597e-5
-1.313, 4.649e-5
-1.314, 4.687e-5
-1.315, 4.732e-5
-1.316, 4.792e-5
-1.317, 4.846e-5
-1.318, 4.902e-5
-1.319, 4.942e-5
-1.320, 4.991e-5
-1.321, 5.046e-5
-1.322, 5.108e-5
-1.323, 5.165e-5
-1.324, 5.222e-5
-1.325, 5.272e-5
-1.326, 5.326e-5
-1.327, 5.396e-5
-1.328, 5.458e-5
-1.329, 5.514e-5
-1.330, 5.576e-5
-1.331, 5.635e-5
-1.332, 5.719e-5
-1.333, 5.771e-5
-1.334, 5.834e-5
-1.335, 5.901e-5
-1.336, 5.965e-5
-1.337, 6.044e-5
-1.338, 6.110e-5
-1.339, 6.185e-5
-1.340, 6.262e-5
-1.341, 6.333e-5
-1.342, 6.418e-5
-1.343, 6.487e-5
-1.344, 6.555e-5
-1.345, 6.643e-5
-1.346, 6.714e-5
-1.347, 6.800e-5
-1.348, 6.882e-5
-1.349, 6.964e-5
-1.350, 7.044e-5
-1.351, 7.130e-5
-1.352, 7.214e-5
-1.353, 7.303e-5
-1.354, 7.391e-5
-1.355, 7.481e-5
-1.356, 7.578e-5
-1.357, 7.673e-5
-1.358, 7.764e-5
-1.359, 7.853e-5
-1.360, 7.952e-5
-1.361, 8.053e-5
-1.362, 8.158e-5
-1.363, 8.233e-5
-1.364, 8.336e-5
-1.365, 8.439e-5
-1.366, 8.532e-5
-1.367, 8.634e-5
-1.368, 8.746e-5
-1.369, 8.861e-5
-1.370, 8.960e-5
-1.371, 9.068e-5
-1.372, 9.161e-5
-1.373, 9.265e-5
-1.374, 9.383e-5
-1.375, 9.496e-5
-1.376, 9.618e-5
-1.377, 9.728e-5
-1.378, 9.836e-5
-1.379, 9.947e-5
-1.380, 1.008e-4
-1.381, 1.019e-4
-1.382, 1.031e-4
-1.383, 1.044e-4
-1.384, 1.057e-4
-1.385, 1.068e-4
-1.386, 1.080e-4
-1.387, 1.092e-4
-1.388, 1.105e-4
-1.389, 1.119e-4
-1.390, 1.132e-4
-1.391, 1.144e-4
-1.392, 1.156e-4
-1.393, 1.169e-4
-1.394, 1.183e-4
-1.395, 1.195e-4
-1.396, 1.210e-4
-1.397, 1.223e-4
-1.398, 1.237e-4
-1.399, 1.252e-4
-1.400, 1.264e-4
-1.401, 1.279e-4
-1.402, 1.295e-4
-1.403, 1.308e-4
-1.404, 1.321e-4
-1.405, 1.334e-4
-1.406, 1.351e-4
-1.407, 1.369e-4
-1.408, 1.382e-4
-1.409, 1.394e-4
-1.410, 1.409e-4
-1.411, 1.425e-4
-1.412, 1.442e-4
-1.413, 1.456e-4
-1.414, 1.470e-4
-1.415, 1.488e-4
-1.416, 1.505e-4
-1.417, 1.522e-4
-1.418, 1.533e-4
-1.419, 1.549e-4
-1.420, 1.568e-4
-1.421, 1.585e-4
-1.422, 1.601e-4
-1.423, 1.620e-4
-1.424, 1.636e-4
-1.425, 1.652e-4
-1.426, 1.667e-4
-1.427, 1.684e-4
-1.428, 1.703e-4
-1.429, 1.721e-4
-1.430, 1.738e-4
-1.431, 1.755e-4
-1.432, 1.772e-4
-1.433, 1.791e-4
-1.434, 1.808e-4
-1.435, 1.827e-4
-1.436, 1.846e-4
-1.437, 1.864e-4
-1.438, 1.883e-4
-1.439, 1.902e-4
-1.440, 1.921e-4
-1.441, 1.940e-4
-1.442, 1.961e-4
-1.443, 1.980e-4
-1.444, 1.999e-4
-1.445, 2.015e-4
-1.446, 2.033e-4
-1.447, 2.058e-4
-1.448, 2.082e-4
-1.449, 2.098e-4
-1.450, 2.116e-4
-1.451, 2.137e-4
-1.452, 2.159e-4
-1.453, 2.178e-4
-1.454, 2.196e-4
-1.455, 2.217e-4
-1.456, 2.238e-4
-1.457, 2.261e-4
-1.458, 2.283e-4
-1.459, 2.302e-4
-1.460, 2.326e-4
-1.461, 2.346e-4
-1.462, 2.369e-4
-1.463, 2.393e-4
-1.464, 2.416e-4
-1.465, 2.435e-4
-1.466, 2.455e-4
-1.467, 2.476e-4
-1.468, 2.501e-4
-1.469, 2.525e-4
-1.470, 2.545e-4
-1.471, 2.568e-4
-1.472, 2.594e-4
-1.473, 2.620e-4
-1.474, 2.639e-4
-1.475, 2.659e-4
-1.476, 2.686e-4
-1.477, 2.709e-4
-1.478, 2.734e-4
-1.479, 2.759e-4
-1.480, 2.781e-4
-1.481, 2.809e-4
-1.482, 2.832e-4
-1.483, 2.849e-4
-1.484, 2.876e-4
-1.485, 2.907e-4
-1.486, 2.933e-4
-1.487, 2.958e-4
-1.488, 2.979e-4
-1.489, 3.001e-4
-1.490, 3.026e-4
-1.491, 3.056e-4
-1.492, 3.087e-4
-1.493, 3.109e-4
-1.494, 3.135e-4
-1.495, 3.163e-4
-1.496, 3.193e-4
-1.497, 3.216e-4
-1.498, 3.242e-4
-1.499, 3.272e-4
-1.500, 3.301e-4
-1.501, 3.326e-4
-1.502, 3.353e-4
-1.503, 3.378e-4
-1.504, 3.405e-4
-1.505, 3.434e-4
-1.506, 3.465e-4
-1.507, 3.494e-4
-1.508, 3.521e-4
-1.509, 3.547e-4
-1.510, 3.579e-4
-1.511, 3.606e-4
-1.512, 3.637e-4
-1.513, 3.664e-4
-1.514, 3.692e-4
-1.515, 3.724e-4
-1.516, 3.754e-4
-1.517, 3.789e-4
-1.518, 3.820e-4
-1.519, 3.845e-4
-1.520, 3.878e-4
-1.521, 3.910e-4
-1.522, 3.940e-4
-1.523, 3.970e-4
-1.524, 4.002e-4
-1.525, 4.033e-4
-1.526, 4.063e-4
-1.527, 4.098e-4
-1.528, 4.131e-4
-1.529, 4.164e-4
-1.530, 4.193e-4
-1.531, 4.226e-4
-1.532, 4.262e-4
-1.533, 4.295e-4
-1.534, 4.329e-4
-1.535, 4.365e-4
-1.536, 4.397e-4
-1.537, 4.432e-4
-1.538, 4.469e-4
-1.539, 4.503e-4
-1.540, 4.538e-4
-1.541, 4.568e-4
-1.542, 4.607e-4
-1.543, 4.651e-4
-1.544, 4.687e-4
-1.545, 4.723e-4
-1.546, 4.747e-4
-1.547, 4.784e-4
-1.548, 4.833e-4
-1.549, 4.870e-4
-1.550, 4.907e-4
-1.551, 4.941e-4
-1.552, 4.980e-4
-1.553, 5.021e-4
-1.554, 5.053e-4
-1.555, 5.089e-4
-1.556, 5.128e-4
-1.557, 5.172e-4
-1.558, 5.217e-4
-1.559, 5.252e-4
-1.560, 5.286e-4
-1.561, 5.327e-4
-1.562, 5.365e-4
-1.563, 5.411e-4
-1.564, 5.452e-4
-1.565, 5.493e-4
-1.566, 5.534e-4
-1.567, 5.578e-4
-1.568, 5.619e-4
-1.569, 5.662e-4
-1.570, 5.708e-4
-1.571, 5.752e-4
-1.572, 5.799e-4
-1.573, 5.840e-4
-1.574, 5.885e-4
-1.575, 5.928e-4
-1.576, 5.976e-4
-1.577, 6.018e-4
-1.578, 6.060e-4
-1.579, 6.112e-4
-1.580, 6.159e-4
-1.581, 6.209e-4
-1.582, 6.262e-4
-1.583, 6.301e-4
-1.584, 6.351e-4
-1.585, 6.390e-4
-1.586, 6.443e-4
-1.587, 6.492e-4
-1.588, 6.538e-4
-1.589, 6.589e-4
-1.590, 6.645e-4
-1.591, 6.694e-4
-1.592, 6.744e-4
-1.593, 6.796e-4
-1.594, 6.846e-4
-1.595, 6.898e-4
-1.596, 6.945e-4
-1.597, 7.003e-4
-1.598, 7.059e-4
-1.599, 7.119e-4
-1.600, 7.175e-4
-1.601, 7.229e-4
-1.602, 7.288e-4
-1.603, 7.341e-4
-1.604, 7.398e-4
-1.605, 7.458e-4
-1.606, 7.509e-4
-1.607, 7.572e-4
-1.608, 7.632e-4
-1.609, 7.691e-4
-1.610, 7.746e-4
-1.611, 7.817e-4
-1.612, 7.886e-4
-1.613, 7.953e-4
-1.614, 7.995e-4
-1.615, 8.041e-4
-1.616, 8.115e-4
-1.617, 8.174e-4
-1.618, 8.234e-4
-1.619, 8.302e-4
-1.620, 8.370e-4
-1.621, 8.450e-4
-1.622, 8.514e-4
-1.623, 8.582e-4
-1.624, 8.635e-4
-1.625, 8.704e-4
-1.626, 8.776e-4
-1.627, 8.841e-4
-1.628, 8.922e-4
-1.629, 8.983e-4
-1.630, 9.062e-4
-1.631, 9.138e-4
-1.632, 9.204e-4
-1.633, 9.269e-4
-1.634, 9.359e-4
-1.635, 9.437e-4
-1.636, 9.517e-4
-1.637, 9.593e-4
-1.638, 9.658e-4
-1.639, 9.741e-4
-1.640, 9.827e-4
-1.641, 9.907e-4
-1.642, 9.978e-4
-1.643, 1.005e-3
-1.644, 1.013e-3
-1.645, 1.021e-3
-1.646, 1.029e-3
-1.647, 1.037e-3
-1.648, 1.046e-3
-1.649, 1.055e-3
-1.650, 1.064e-3
-1.651, 1.074e-3
-1.652, 1.081e-3
-1.653, 1.090e-3
-1.654, 1.099e-3
-1.655, 1.108e-3
-1.656, 1.118e-3
-1.657, 1.126e-3
-1.658, 1.135e-3
-1.659, 1.145e-3
-1.660, 1.154e-3
-1.661, 1.163e-3
-1.662, 1.172e-3
-1.663, 1.182e-3
-1.664, 1.192e-3
-1.665, 1.201e-3
-1.666, 1.210e-3
-1.667, 1.221e-3
-1.668, 1.232e-3
-1.669, 1.241e-3
-1.670, 1.252e-3
-1.671, 1.262e-3
-1.672, 1.272e-3
-1.673, 1.282e-3
-1.674, 1.293e-3
-1.675, 1.304e-3
-1.676, 1.315e-3
-1.677, 1.325e-3
-1.678, 1.336e-3
-1.679, 1.347e-3
-1.680, 1.358e-3
-1.681, 1.369e-3
-1.682, 1.381e-3
-1.683, 1.392e-3
-1.684, 1.406e-3
-1.685, 1.418e-3
-1.686, 1.430e-3
-1.687, 1.441e-3
-1.688, 1.453e-3
-1.689, 1.465e-3
-1.690, 1.478e-3
-1.691, 1.489e-3
-1.692, 1.503e-3
-1.693, 1.516e-3
-1.694, 1.528e-3
-1.695, 1.542e-3
-1.696, 1.552e-3
-1.697, 1.565e-3
-1.698, 1.578e-3
-1.699, 1.591e-3
-1.700, 1.605e-3
-1.701, 1.620e-3
-1.702, 1.632e-3
-1.703, 1.647e-3
-1.704, 1.660e-3
-1.705, 1.673e-3
-1.706, 1.690e-3
-1.707, 1.704e-3
-1.708, 1.716e-3
-1.709, 1.733e-3
-1.710, 1.750e-3
-1.711, 1.766e-3
-1.712, 1.779e-3
-1.713, 1.792e-3
-1.714, 1.806e-3
-1.715, 1.821e-3
-1.716, 1.835e-3
-1.717, 1.851e-3
-1.718, 1.870e-3
-1.719, 1.887e-3
-1.720, 1.902e-3
-1.721, 1.916e-3
-1.722, 1.930e-3
-1.723, 1.946e-3
-1.724, 1.962e-3
-1.725, 1.979e-3
-1.726, 1.997e-3
-1.727, 2.014e-3
-1.728, 2.032e-3
-1.729, 2.048e-3
-1.730, 2.064e-3
-1.731, 2.081e-3
-1.732, 2.099e-3
-1.733, 2.118e-3
-1.734, 2.136e-3
-1.735, 2.152e-3
-1.736, 2.170e-3
-1.737, 2.189e-3
-1.738, 2.207e-3
-1.739, 2.226e-3
-1.740, 2.245e-3
-1.741, 2.263e-3
-1.742, 2.284e-3
-1.743, 2.304e-3
-1.744, 2.325e-3
-1.745, 2.342e-3
-1.746, 2.361e-3
-1.747, 2.383e-3
-1.748, 2.404e-3
-1.749, 2.426e-3
-1.750, 2.444e-3
-1.751, 2.467e-3
-1.752, 2.488e-3
-1.753, 2.510e-3
-1.754, 2.530e-3
-1.755, 2.549e-3
-1.756, 2.570e-3
-1.757, 2.590e-3
-1.758, 2.610e-3
-1.759, 2.634e-3
-1.760, 2.659e-3
-1.761, 2.682e-3
-1.762, 2.707e-3
-1.763, 2.730e-3
-1.764, 2.755e-3
-1.765, 2.777e-3
-1.766, 2.795e-3
-1.767, 2.817e-3
-1.768, 2.846e-3
-1.769, 2.876e-3
-1.770, 2.896e-3
-1.771, 2.919e-3
-1.772, 2.944e-3
-1.773, 2.965e-3
-1.774, 2.989e-3
-1.775, 3.013e-3
-1.776, 3.040e-3
-1.777, 3.068e-3
-1.778, 3.095e-3
-1.779, 3.121e-3
-1.780, 3.147e-3
-1.781, 3.172e-3
-1.782, 3.197e-3
-1.783, 3.225e-3
-1.784, 3.248e-3
-1.785, 3.277e-3
-1.786, 3.305e-3
-1.787, 3.337e-3
-1.788, 3.364e-3
-1.789, 3.392e-3
-1.790, 3.420e-3
-1.791, 3.449e-3
-1.792, 3.478e-3
-1.793, 3.507e-3
-1.794, 3.541e-3
-1.795, 3.570e-3
-1.796, 3.602e-3
-1.797, 3.631e-3
-1.798, 3.660e-3
-1.799, 3.688e-3
-1.800, 3.699e-3
-1.799, 3.684e-3
-1.798, 3.672e-3
-1.797, 3.650e-3
-1.796, 3.630e-3
-1.795, 3.611e-3
-1.794, 3.590e-3
-1.793, 3.570e-3
-1.792, 3.551e-3
-1.791, 3.533e-3
-1.790, 3.509e-3
-1.789, 3.485e-3
-1.788, 3.461e-3
-1.787, 3.442e-3
-1.786, 3.420e-3
-1.785, 3.399e-3
-1.784, 3.378e-3
-1.783, 3.356e-3
-1.782, 3.335e-3
-1.781, 3.311e-3
-1.780, 3.282e-3
-1.779, 3.267e-3
-1.778, 3.250e-3
-1.777, 3.226e-3
-1.776, 3.208e-3
-1.775, 3.193e-3
-1.774, 3.174e-3
-1.773, 3.153e-3
-1.772, 3.126e-3
-1.771, 3.105e-3
-1.770, 3.082e-3
-1.769, 3.059e-3
-1.768, 3.038e-3
-1.767, 3.021e-3
-1.766, 3.005e-3
-1.765, 2.984e-3
-1.764, 2.963e-3
-1.763, 2.939e-3
-1.762, 2.914e-3
-1.761, 2.890e-3
-1.760, 2.870e-3
-1.759, 2.854e-3
-1.758, 2.835e-3
-1.757, 2.815e-3
-1.756, 2.794e-3
-1.755, 2.774e-3
-1.754, 2.751e-3
-1.753, 2.731e-3
-1.752, 2.712e-3
-1.751, 2.693e-3
-1.750, 2.676e-3
-1.749, 2.656e-3
-1.748, 2.638e-3
-1.747, 2.621e-3
-1.746, 2.602e-3
-1.745, 2.584e-3
-1.744, 2.562e-3
-1.743, 2.539e-3
-1.742, 2.521e-3
-1.741, 2.509e-3
-1.740, 2.491e-3
-1.739, 2.469e-3
-1.738, 2.450e-3
-1.737, 2.432e-3
-1.736, 2.412e-3
-1.735, 2.391e-3
-1.734, 2.375e-3
-1.733, 2.359e-3
-1.732, 2.342e-3
-1.731, 2.324e-3
-1.730, 2.301e-3
-1.729, 2.283e-3
-1.728, 2.265e-3
-1.727, 2.251e-3
-1.726, 2.235e-3
-1.725, 2.215e-3
-1.724, 2.195e-3
-1.723, 2.181e-3
-1.722, 2.171e-3
-1.721, 2.152e-3
-1.720, 2.132e-3
-1.719, 2.116e-3
-1.718, 2.102e-3
-1.717, 2.084e-3
-1.716, 2.065e-3
-1.715, 2.049e-3
-1.714, 2.031e-3
-1.713, 2.016e-3
-1.712, 2.000e-3
-1.711, 1.984e-3
-1.710, 1.966e-3
-1.709, 1.951e-3
-1.708, 1.939e-3
-1.707, 1.924e-3
-1.706, 1.911e-3
-1.705, 1.895e-3
-1.704, 1.880e-3
-1.703, 1.866e-3
-1.702, 1.850e-3
-1.701, 1.834e-3
-1.700, 1.821e-3
-1.699, 1.804e-3
-1.698, 1.790e-3
-1.697, 1.776e-3
-1.696, 1.761e-3
-1.695, 1.749e-3
-1.694, 1.732e-3
-1.693, 1.720e-3
-1.692, 1.709e-3
-1.691, 1.696e-3
-1.690, 1.685e-3
-1.689, 1.672e-3
-1.688, 1.659e-3
-1.687, 1.644e-3
-1.686, 1.630e-3
-1.685, 1.619e-3
-1.684, 1.604e-3
-1.683, 1.590e-3
-1.682, 1.578e-3
-1.681, 1.568e-3
-1.680, 1.554e-3
-1.679, 1.539e-3
-1.678, 1.527e-3
-1.677, 1.515e-3
-1.676, 1.501e-3
-1.675, 1.489e-3
-1.674, 1.477e-3
-1.673, 1.465e-3
-1.672, 1.454e-3
-1.671, 1.440e-3
-1.670, 1.425e-3
-1.669, 1.414e-3
-1.668, 1.402e-3
-1.667, 1.391e-3
-1.666, 1.381e-3
-1.665, 1.367e-3
-1.664, 1.356e-3
-1.663, 1.344e-3
-1.662, 1.335e-3
-1.661, 1.325e-3
-1.660, 1.314e-3
-1.659, 1.301e-3
-1.658, 1.292e-3
-1.657, 1.282e-3
-1.656, 1.271e-3
-1.655, 1.260e-3
-1.654, 1.246e-3
-1.653, 1.235e-3
-1.652, 1.225e-3
-1.651, 1.215e-3
-1.650, 1.200e-3
-1.649, 1.185e-3
-1.648, 1.175e-3
-1.647, 1.167e-3
-1.646, 1.155e-3
-1.645, 1.142e-3
-1.644, 1.132e-3
-1.643, 1.123e-3
-1.642, 1.114e-3
-1.641, 1.105e-3
-1.640, 1.095e-3
-1.639, 1.086e-3
-1.638, 1.078e-3
-1.637, 1.068e-3
-1.636, 1.057e-3
-1.635, 1.048e-3
-1.634, 1.039e-3
-1.633, 1.030e-3
-1.632, 1.022e-3
-1.631, 1.012e-3
-1.630, 1.004e-3
-1.629, 9.949e-4
-1.628, 9.851e-4
-1.627, 9.752e-4
-1.626, 9.681e-4
-1.625, 9.598e-4
-1.624, 9.515e-4
-1.623, 9.429e-4
-1.622, 9.345e-4
-1.621, 9.255e-4
-1.620, 9.170e-4
-1.619, 9.103e-4
-1.618, 9.018e-4
-1.617, 8.924e-4
-1.616, 8.854e-4
-1.615, 8.784e-4
-1.614, 8.702e-4
-1.613, 8.610e-4
-1.612, 8.529e-4
-1.611, 8.454e-4
-1.610, 8.378e-4
-1.609, 8.301e-4
-1.608, 8.236e-4
-1.607, 8.157e-4
-1.606, 8.084e-4
-1.605, 7.995e-4
-1.604, 7.919e-4
-1.603, 7.851e-4
-1.602, 7.803e-4
-1.601, 7.712e-4
-1.600, 7.611e-4
-1.599, 7.544e-4
-1.598, 7.473e-4
-1.597, 7.408e-4
-1.596, 7.333e-4
-1.595, 7.266e-4
-1.594, 7.196e-4
-1.593, 7.143e-4
-1.592, 7.076e-4
-1.591, 7.005e-4
-1.590, 6.930e-4
-1.589, 6.848e-4
-1.588, 6.788e-4
-1.587, 6.721e-4
-1.586, 6.661e-4
-1.585, 6.597e-4
-1.584, 6.521e-4
-1.583, 6.465e-4
-1.582, 6.406e-4
-1.581, 6.338e-4
-1.580, 6.274e-4
-1.579, 6.213e-4
-1.578, 6.152e-4
-1.577, 6.095e-4
-1.576, 6.035e-4
-1.575, 5.978e-4
-1.574, 5.916e-4
-1.573, 5.855e-4
-1.572, 5.792e-4
-1.571, 5.740e-4
-1.570, 5.680e-4
-1.569, 5.623e-4
-1.568, 5.578e-4
-1.567, 5.519e-4
-1.566, 5.459e-4
-1.565, 5.400e-4
-1.564, 5.338e-4
-1.563, 5.289e-4
-1.562, 5.242e-4
-1.561, 5.179e-4
-1.560, 5.129e-4
-1.559, 5.079e-4
-1.558, 5.031e-4
-1.557, 4.973e-4
-1.556, 4.915e-4
-1.555, 4.865e-4
-1.554, 4.811e-4
-1.553, 4.764e-4
-1.552, 4.717e-4
-1.551, 4.672e-4
-1.550, 4.623e-4
-1.549, 4.570e-4
-1.548, 4.521e-4
-1.547, 4.478e-4
-1.546, 4.425e-4
-1.545, 4.373e-4
-1.544, 4.326e-4
-1.543, 4.296e-4
-1.542, 4.253e-4
-1.541, 4.203e-4
-1.540, 4.151e-4
-1.539, 4.107e-4
-1.538, 4.061e-4
-1.537, 4.014e-4
-1.536, 3.967e-4
-1.535, 3.927e-4
-1.534, 3.889e-4
-1.533, 3.851e-4
-1.532, 3.803e-4
-1.531, 3.754e-4
-1.530, 3.712e-4
-1.529, 3.673e-4
-1.528, 3.635e-4
-1.527, 3.593e-4
-1.526, 3.556e-4
-1.525, 3.516e-4
-1.524, 3.477e-4
-1.523, 3.432e-4
-1.522, 3.387e-4
-1.521, 3.350e-4
-1.520, 3.324e-4
-1.519, 3.286e-4
-1.518, 3.241e-4
-1.517, 3.207e-4
-1.516, 3.172e-4
-1.515, 3.132e-4
-1.514, 3.090e-4
-1.513, 3.056e-4
-1.512, 3.025e-4
-1.511, 2.990e-4
-1.510, 2.954e-4
-1.509, 2.917e-4
-1.508, 2.883e-4
-1.507, 2.848e-4
-1.506, 2.815e-4
-1.505, 2.780e-4
-1.504, 2.747e-4
-1.503, 2.716e-4
-1.502, 2.682e-4
-1.501, 2.648e-4
-1.500, 2.616e-4
-1.499, 2.584e-4
-1.498, 2.551e-4
-1.497, 2.522e-4
-1.496, 2.492e-4
-1.495, 2.460e-4
-1.494, 2.430e-4
-1.493, 2.398e-4
-1.492, 2.366e-4
-1.491, 2.337e-4
-1.490, 2.307e-4
-1.489, 2.279e-4
-1.488, 2.252e-4
-1.487, 2.224e-4
-1.486, 2.194e-4
-1.485, 2.164e-4
-1.484, 2.134e-4
-1.483, 2.109e-4
-1.482, 2.083e-4
-1.481, 2.051e-4
-1.480, 2.027e-4
-1.479, 2.002e-4
-1.478, 1.974e-4
-1.477, 1.950e-4
-1.476, 1.924e-4
-1.475, 1.897e-4
-1.474, 1.872e-4
-1.473, 1.848e-4
-1.472, 1.823e-4
-1.471, 1.797e-4
-1.470, 1.769e-4
-1.469, 1.744e-4
-1.468, 1.721e-4
-1.467, 1.697e-4
-1.466, 1.673e-4
-1.465, 1.650e-4
-1.464, 1.628e-4
-1.463, 1.604e-4
-1.462, 1.579e-4
-1.461, 1.555e-4
-1.460, 1.533e-4
-1.459, 1.511e-4
-1.458, 1.490e-4
-1.457, 1.468e-4
-1.456, 1.446e-4
-1.455, 1.423e-4
-1.454, 1.401e-4
-1.453, 1.379e-4
-1.452, 1.358e-4
-1.451, 1.339e-4
-1.450, 1.319e-4
-1.449, 1.300e-4
-1.448, 1.280e-4
-1.447, 1.258e-4
-1.446, 1.238e-4
-1.445, 1.219e-4
-1.444, 1.199e-4
-1.443, 1.180e-4
-1.442, 1.161e-4
-1.441, 1.142e-4
-1.440, 1.124e-4
-1.439, 1.105e-4
-1.438, 1.086e-4
-1.437, 1.069e-4
-1.436, 1.050e-4
-1.435, 1.034e-4
-1.434, 1.016e-4
-1.433, 9.978e-5
-1.432, 9.804e-5
-1.431, 9.632e-5
-1.430, 9.460e-5
-1.429, 9.306e-5
-1.428, 9.131e-5
-1.427, 8.970e-5
-1.426, 8.813e-5
-1.425, 8.640e-5
-1.424, 8.485e-5
-1.423, 8.333e-5
-1.422, 8.160e-5
-1.421, 8.012e-5
-1.420, 7.873e-5
-1.419, 7.726e-5
-1.418, 7.580e-5
-1.417, 7.419e-5
-1.416, 7.270e-5
-1.415, 7.141e-5
-1.414, 7.009e-5
-1.413, 6.861e-5
-1.412, 6.698e-5
-1.411, 6.553e-5
-1.410, 6.424e-5
-1.409, 6.300e-5
-1.408, 6.167e-5
-1.407, 6.028e-5
-1.406, 5.896e-5
-1.405, 5.783e-5
-1.404, 5.653e-5
-1.403, 5.525e-5
-1.402, 5.392e-5
-1.401, 5.266e-5
-1.400, 5.165e-5
-1.399, 5.039e-5
-1.398, 4.915e-5
-1.397, 4.798e-5
-1.396, 4.683e-5
-1.395, 4.559e-5
-1.394, 4.452e-5
-1.393, 4.354e-5
-1.392, 4.246e-5
-1.391, 4.130e-5
-1.390, 4.013e-5
-1.389, 3.919e-5
-1.388, 3.814e-5
-1.387, 3.704e-5
-1.386, 3.596e-5
-1.385, 3.506e-5
-1.384, 3.416e-5
-1.383, 3.315e-5
-1.382, 3.212e-5
-1.381, 3.113e-5
-1.380, 3.016e-5
-1.379, 2.925e-5
-1.378, 2.839e-5
-1.377, 2.757e-5
-1.376, 2.673e-5
-1.375, 2.578e-5
-1.374, 2.493e-5
-1.373, 2.412e-5
-1.372, 2.323e-5
-1.371, 2.241e-5
-1.370, 2.163e-5
-1.369, 2.083e-5
-1.368, 2.008e-5
-1.367, 1.929e-5
-1.366, 1.850e-5
-1.365, 1.786e-5
-1.364, 1.710e-5
-1.363, 1.637e-5
-1.362, 1.567e-5
-1.361, 1.493e-5
-1.360, 1.434e-5
-1.359, 1.367e-5
-1.358, 1.287e-5
-1.357, 1.230e-5
-1.356, 1.156e-5
-1.355, 1.098e-5
-1.354, 1.044e-5
-1.353, 9.689e-6
-1.352, 9.093e-6
-1.351, 8.532e-6
-1.350, 7.918e-6
-1.349, 7.362e-6
-1.348, 6.756e-6
-1.347, 6.170e-6
-1.346, 5.654e-6
-1.345, 5.055e-6
-1.344, 4.542e-6
-1.343, 4.014e-6
-1.342, 3.410e-6
-1.341, 2.930e-6
-1.340, 2.451e-6
-1.339, 1.945e-6
-1.338, 1.386e-6
-1.337, 8.680e-7
-1.336, 3.915e-7
-1.335, -7.025e-8
-1.334, -5.616e-7
-1.333, -1.036e-6
-1.332, -1.531e-6
-1.331, -2.040e-6
-1.330, -2.461e-6
-1.329, -2.901e-6
-1.328, -3.405e-6
-1.327, -3.830e-6
-1.326, -4.278e-6
-1.325, -4.731e-6
-1.324, -5.171e-6
-1.323, -5.597e-6
-1.322, -6.040e-6
-1.321, -6.434e-6
-1.320, -6.784e-6
-1.319, -7.179e-6
-1.318, -7.587e-6
-1.317, -7.967e-6
-1.316, -8.325e-6
-1.315, -8.676e-6
-1.314, -8.982e-6
-1.313, -9.382e-6
-1.312, -9.716e-6
-1.311, -1.010e-5
-1.310, -1.038e-5
-1.309, -1.069e-5
-1.308, -1.105e-5
-1.307, -1.136e-5
-1.306, -1.169e-5
-1.305, -1.199e-5
-1.304, -1.224e-5
-1.303, -1.256e-5
-1.302, -1.285e-5
-1.301, -1.315e-5
-1.300, -1.337e-5
-1.299, -1.373e-5
-1.298, -1.396e-5
-1.297, -1.423e-5
-1.296, -1.444e-5
-1.295, -1.466e-5
-1.294, -1.492e-5
-1.293, -1.518e-5
-1.292, -1.548e-5
-1.291, -1.573e-5
-1.290, -1.590e-5
-1.289, -1.612e-5
-1.288, -1.635e-5
-1.287, -1.660e-5
-1.286, -1.678e-5
-1.285, -1.693e-5
-1.284, -1.716e-5
-1.283, -1.738e-5
-1.282, -1.759e-5
-1.281, -1.776e-5
-1.280, -1.802e-5
-1.279, -1.822e-5
-1.278, -1.838e-5
-1.277, -1.856e-5
-1.276, -1.868e-5
-1.275, -1.882e-5
-1.274, -1.904e-5
-1.273, -1.923e-5
-1.272, -1.939e-5
-1.271, -1.955e-5
-1.270, -1.967e-5
-1.269, -1.980e-5
-1.268, -2.002e-5
-1.267, -2.019e-5
-1.266, -2.034e-5
-1.265, -2.047e-5
-1.264, -2.058e-5
-1.263, -2.074e-5
-1.262, -2.087e-5
-1.261, -2.101e-5
-1.260, -2.116e-5
-1.259, -2.127e-5
-1.258, -2.140e-5
-1.257, -2.159e-5
-1.256, -2.162e-5
-1.255, -2.173e-5
-1.254, -2.190e-5
-1.253, -2.203e-5
-1.252, -2.217e-5
-1.251, -2.223e-5
-1.250, -2.235e-5
-1.249, -2.249e-5
-1.248, -2.256e-5
-1.247, -2.266e-5
-1.246, -2.276e-5
-1.245, -2.280e-5
-1.244, -2.294e-5
-1.243, -2.303e-5
-1.242, -2.317e-5
-1.241, -2.328e-5
-1.240, -2.324e-5
-1.239, -2.339e-5
-1.238, -2.355e-5
-1.237, -2.359e-5
-1.236, -2.374e-5
-1.235, -2.380e-5
-1.234, -2.382e-5
-1.233, -2.399e-5
-1.232, -2.402e-5
-1.231, -2.419e-5
-1.230, -2.418e-5
-1.229, -2.446e-5
-1.228, -2.451e-5
-1.227, -2.457e-5
-1.226, -2.456e-5
-1.225, -2.471e-5
-1.224, -2.469e-5
-1.223, -2.482e-5
-1.222, -2.494e-5
-1.221, -2.501e-5
-1.220, -2.506e-5
-1.219, -2.509e-5
-1.218, -2.519e-5
-1.217, -2.540e-5
-1.216, -2.538e-5
-1.215, -2.545e-5
-1.214, -2.550e-5
-1.213, -2.560e-5
-1.212, -2.576e-5
-1.211, -2.581e-5
-1.210, -2.584e-5
-1.209, -2.598e-5
-1.208, -2.599e-5
-1.207, -2.615e-5
-1.206, -2.622e-5
-1.205, -2.622e-5
-1.204, -2.634e-5
-1.203, -2.649e-5
-1.202, -2.658e-5
-1.201, -2.664e-5
-1.200, -2.664e-5
-1.199, -2.680e-5
-1.198, -2.693e-5
-1.197, -2.700e-5
-1.196, -2.708e-5
-1.195, -2.714e-5
-1.194, -2.724e-5
-1.193, -2.746e-5
-1.192, -2.749e-5
-1.191, -2.756e-5
-1.190, -2.771e-5
-1.189, -2.769e-5
-1.188, -2.788e-5
-1.187, -2.801e-5
-1.186, -2.806e-5
-1.185, -2.820e-5
-1.184, -2.819e-5
-1.183, -2.841e-5
-1.182, -2.858e-5
-1.181, -2.854e-5
-1.180, -2.867e-5
-1.179, -2.877e-5
-1.178, -2.892e-5
-1.177, -2.908e-5
-1.176, -2.906e-5
-1.175, -2.917e-5
-1.174, -2.931e-5
-1.173, -2.936e-5
-1.172, -2.960e-5
-1.171, -2.961e-5
-1.170, -2.969e-5
-1.169, -2.979e-5
-1.168, -2.983e-5
-1.167, -2.997e-5
-1.166, -3.003e-5
-1.165, -3.010e-5
-1.164, -3.025e-5
-1.163, -3.039e-5
-1.162, -3.046e-5
-1.161, -3.054e-5
-1.160, -3.054e-5
-1.159, -3.057e-5
-1.158, -3.077e-5
-1.157, -3.085e-5
-1.156, -3.088e-5
-1.155, -3.096e-5
-1.154, -3.095e-5
-1.153, -3.108e-5
-1.152, -3.114e-5
-1.151, -3.116e-5
-1.150, -3.123e-5
-1.149, -3.122e-5
-1.148, -3.135e-5
-1.147, -3.139e-5
-1.146, -3.140e-5
-1.145, -3.150e-5
-1.144, -3.156e-5
-1.143, -3.162e-5
-1.142, -3.176e-5
-1.141, -3.177e-5
-1.140, -3.186e-5
-1.139, -3.192e-5
-1.138, -3.194e-5
-1.137, -3.207e-5
-1.136, -3.202e-5
-1.135, -3.209e-5
-1.134, -3.220e-5
-1.133, -3.225e-5
-1.132, -3.238e-5
-1.131, -3.237e-5
-1.130, -3.240e-5
-1.129, -3.242e-5
-1.128, -3.249e-5
-1.127, -3.266e-5
-1.126, -3.273e-5
-1.125, -3.280e-5
-1.124, -3.286e-5
-1.123, -3.294e-5
-1.122, -3.303e-5
-1.121, -3.306e-5
-1.120, -3.308e-5
-1.119, -3.315e-5
-1.118, -3.327e-5
-1.117, -3.332e-5
-1.116, -3.340e-5
-1.115, -3.350e-5
-1.114, -3.366e-5
-1.113, -3.397e-5
-1.112, -3.410e-5
-1.111, -3.404e-5
-1.110, -3.400e-5
-1.109, -3.406e-5
-1.108, -3.417e-5
-1.107, -3.421e-5
-1.106, -3.424e-5
-1.105, -3.432e-5
-1.104, -3.432e-5
-1.103, -3.442e-5
-1.102, -3.456e-5
-1.101, -3.448e-5
-1.100, -3.460e-5
-1.099, -3.465e-5
-1.098, -3.486e-5
-1.097, -3.494e-5
-1.096, -3.492e-5
-1.095, -3.501e-5
-1.094, -3.509e-5
-1.093, -3.513e-5
-1.092, -3.529e-5
-1.091, -3.535e-5
-1.090, -3.534e-5
-1.089, -3.547e-5
-1.088, -3.555e-5
-1.087, -3.570e-5
-1.086, -3.581e-5
-1.085, -3.576e-5
-1.084, -3.590e-5
-1.083, -3.597e-5
-1.082, -3.612e-5
-1.081, -3.622e-5
-1.080, -3.618e-5
-1.079, -3.633e-5
-1.078, -3.647e-5
-1.077, -3.652e-5
-1.076, -3.664e-5
-1.075, -3.670e-5
-1.074, -3.681e-5
-1.073, -3.696e-5
-1.072, -3.701e-5
-1.071, -3.708e-5
-1.070, -3.713e-5
-1.069, -3.717e-5
-1.068, -3.743e-5
-1.067, -3.752e-5
-1.066, -3.755e-5
-1.065, -3.763e-5
-1.064, -3.769e-5
-1.063, -3.791e-5
-1.062, -3.797e-5
-1.061, -3.798e-5
-1.060, -3.811e-5
-1.059, -3.825e-5
-1.058, -3.832e-5
-1.057, -3.850e-5
-1.056, -3.848e-5
-1.055, -3.862e-5
-1.054, -3.878e-5
-1.053, -3.887e-5
-1.052, -3.906e-5
-1.051, -3.913e-5
-1.050, -3.916e-5
-1.049, -3.936e-5
-1.048, -3.944e-5
-1.047, -3.956e-5
-1.046, -3.964e-5
-1.045, -3.970e-5
-1.044, -3.990e-5
-1.043, -4.009e-5
-1.042, -4.017e-5
-1.041, -4.030e-5
-1.040, -4.033e-5
-1.039, -4.048e-5
-1.038, -4.069e-5
-1.037, -4.075e-5
-1.036, -4.093e-5
-1.035, -4.106e-5
-1.034, -4.119e-5
-1.033, -4.146e-5
-1.032, -4.156e-5
-1.031, -4.158e-5
-1.030, -4.176e-5
-1.029, -4.189e-5
-1.028, -4.207e-5
-1.027, -4.226e-5
-1.026, -4.240e-5
-1.025, -4.260e-5
-1.024, -4.273e-5
-1.023, -4.292e-5
-1.022, -4.318e-5
-1.021, -4.324e-5
-1.020, -4.338e-5
-1.019, -4.349e-5
-1.018, -4.371e-5
-1.017, -4.392e-5
-1.016, -4.404e-5
-1.015, -4.417e-5
-1.014, -4.437e-5
-1.013, -4.451e-5
-1.012, -4.478e-5
-1.011, -4.496e-5
-1.010, -4.503e-5
-1.009, -4.530e-5
-1.008, -4.542e-5
-1.007, -4.565e-5
-1.006, -4.586e-5
-1.005, -4.595e-5
-1.004, -4.616e-5
-1.003, -4.640e-5
-1.002, -4.653e-5
-1.001, -4.682e-5
