Apr. 10, 2025   02:17:12
Cyclic Voltammetry
File: c:/users/guazh/data/banditlqround7_x0exp994_r5/2025-03-28-exp1034\exp1034-2025-04-10t02_06_33-h2koh\exp1034_cv_sr_300mvs_efin_-1600mv.bin
Data Source:  Experiment
Instrument Model:  CHI760E
Header: CV ran at 300 mVs
Note: 

Init E (V) = -1
High E (V) = -1
Low E (V) = -1.6
Final E (V) = -1
Init P/N = N
Scan Rate (V/s) = 0.3
Segment = 3
Sample Interval (V) = 0.001
Quiet Time (sec) = 2
Sensitivity (A/V) = 0.01
Comp R (ohm) = 1.8

Results:

Channel 1:
Segment 1:
Ep = -1.237V
ip = 2.184e-4A
Ah = 3.054e-5C

Segment 2:
Ep = -1.211V
ip = -1.979e-5A
Ah = -4.727e-6C

Segment 3:

Potential/V, Current/A

-1.000, 1.557e-5
-1.001, 2.174e-5
-1.002, 2.174e-5
-1.003, 2.174e-5
-1.004, 2.482e-5
-1.005, 2.482e-5
-1.006, 2.790e-5
-1.007, 2.790e-5
-1.008, 2.482e-5
-1.009, 2.790e-5
-1.010, 2.790e-5
-1.011, 3.099e-5
-1.012, 2.790e-5
-1.013, 2.790e-5
-1.014, 2.790e-5
-1.015, 3.099e-5
-1.016, 3.099e-5
-1.017, 3.099e-5
-1.018, 3.099e-5
-1.019, 3.099e-5
-1.020, 3.099e-5
-1.021, 3.407e-5
-1.022, 3.099e-5
-1.023, 3.407e-5
-1.024, 3.099e-5
-1.025, 3.407e-5
-1.026, 3.407e-5
-1.027, 3.407e-5
-1.028, 3.407e-5
-1.029, 3.407e-5
-1.030, 3.407e-5
-1.031, 3.715e-5
-1.032, 3.407e-5
-1.033, 3.407e-5
-1.034, 3.715e-5
-1.035, 3.715e-5
-1.036, 3.715e-5
-1.037, 3.715e-5
-1.038, 3.715e-5
-1.039, 3.715e-5
-1.040, 3.715e-5
-1.041, 4.024e-5
-1.042, 3.715e-5
-1.043, 3.715e-5
-1.044, 3.715e-5
-1.045, 4.024e-5
-1.046, 4.024e-5
-1.047, 4.024e-5
-1.048, 4.024e-5
-1.049, 4.024e-5
-1.050, 4.024e-5
-1.051, 4.332e-5
-1.052, 4.332e-5
-1.053, 4.024e-5
-1.054, 4.024e-5
-1.055, 4.332e-5
-1.056, 4.332e-5
-1.057, 4.332e-5
-1.058, 4.332e-5
-1.059, 4.024e-5
-1.060, 4.332e-5
-1.061, 4.332e-5
-1.062, 4.332e-5
-1.063, 4.332e-5
-1.064, 4.332e-5
-1.065, 4.332e-5
-1.066, 4.640e-5
-1.067, 4.640e-5
-1.068, 4.332e-5
-1.069, 4.332e-5
-1.070, 4.640e-5
-1.071, 4.640e-5
-1.072, 4.640e-5
-1.073, 4.332e-5
-1.074, 4.640e-5
-1.075, 4.640e-5
-1.076, 4.640e-5
-1.077, 4.640e-5
-1.078, 4.640e-5
-1.079, 4.640e-5
-1.080, 4.949e-5
-1.081, 4.949e-5
-1.082, 4.949e-5
-1.083, 4.640e-5
-1.084, 4.949e-5
-1.085, 4.949e-5
-1.086, 4.949e-5
-1.087, 4.949e-5
-1.088, 4.949e-5
-1.089, 4.949e-5
-1.090, 4.949e-5
-1.091, 5.257e-5
-1.092, 4.949e-5
-1.093, 4.949e-5
-1.094, 4.949e-5
-1.095, 5.257e-5
-1.096, 5.257e-5
-1.097, 4.949e-5
-1.098, 5.257e-5
-1.099, 5.257e-5
-1.100, 5.257e-5
-1.101, 5.257e-5
-1.102, 5.257e-5
-1.103, 5.257e-5
-1.104, 5.257e-5
-1.105, 5.257e-5
-1.106, 5.565e-5
-1.107, 5.257e-5
-1.108, 5.565e-5
-1.109, 5.565e-5
-1.110, 5.565e-5
-1.111, 5.565e-5
-1.112, 5.565e-5
-1.113, 5.565e-5
-1.114, 5.565e-5
-1.115, 5.873e-5
-1.116, 5.873e-5
-1.117, 5.873e-5
-1.118, 5.873e-5
-1.119, 5.873e-5
-1.120, 5.873e-5
-1.121, 5.873e-5
-1.122, 6.182e-5
-1.123, 5.873e-5
-1.124, 5.873e-5
-1.125, 6.182e-5
-1.126, 6.182e-5
-1.127, 6.182e-5
-1.128, 6.182e-5
-1.129, 6.182e-5
-1.130, 6.490e-5
-1.131, 6.490e-5
-1.132, 6.490e-5
-1.133, 6.490e-5
-1.134, 6.490e-5
-1.135, 6.490e-5
-1.136, 6.798e-5
-1.137, 6.798e-5
-1.138, 6.798e-5
-1.139, 6.798e-5
-1.140, 6.798e-5
-1.141, 7.107e-5
-1.142, 7.107e-5
-1.143, 7.107e-5
-1.144, 7.107e-5
-1.145, 7.415e-5
-1.146, 7.415e-5
-1.147, 7.415e-5
-1.148, 7.415e-5
-1.149, 7.415e-5
-1.150, 7.723e-5
-1.151, 7.723e-5
-1.152, 7.723e-5
-1.153, 8.032e-5
-1.154, 8.032e-5
-1.155, 8.340e-5
-1.156, 8.340e-5
-1.157, 8.340e-5
-1.158, 8.340e-5
-1.159, 8.648e-5
-1.160, 8.648e-5
-1.161, 8.957e-5
-1.162, 8.957e-5
-1.163, 8.957e-5
-1.164, 9.265e-5
-1.165, 9.265e-5
-1.166, 9.573e-5
-1.167, 9.573e-5
-1.168, 9.882e-5
-1.169, 9.882e-5
-1.170, 1.019e-4
-1.171, 1.019e-4
-1.172, 1.050e-4
-1.173, 1.050e-4
-1.174, 1.081e-4
-1.175, 1.081e-4
-1.176, 1.111e-4
-1.177, 1.142e-4
-1.178, 1.142e-4
-1.179, 1.173e-4
-1.180, 1.204e-4
-1.181, 1.204e-4
-1.182, 1.235e-4
-1.183, 1.266e-4
-1.184, 1.266e-4
-1.185, 1.327e-4
-1.186, 1.358e-4
-1.187, 1.358e-4
-1.188, 1.389e-4
-1.189, 1.420e-4
-1.190, 1.451e-4
-1.191, 1.512e-4
-1.192, 1.512e-4
-1.193, 1.543e-4
-1.194, 1.574e-4
-1.195, 1.605e-4
-1.196, 1.666e-4
-1.197, 1.666e-4
-1.198, 1.728e-4
-1.199, 1.759e-4
-1.200, 1.790e-4
-1.201, 1.821e-4
-1.202, 1.882e-4
-1.203, 1.882e-4
-1.204, 1.944e-4
-1.205, 1.975e-4
-1.206, 2.036e-4
-1.207, 2.067e-4
-1.208, 2.098e-4
-1.209, 2.129e-4
-1.210, 2.191e-4
-1.211, 2.221e-4
-1.212, 2.252e-4
-1.213, 2.283e-4
-1.214, 2.314e-4
-1.215, 2.376e-4
-1.216, 2.437e-4
-1.217, 2.468e-4
-1.218, 2.499e-4
-1.219, 2.530e-4
-1.220, 2.561e-4
-1.221, 2.622e-4
-1.222, 2.653e-4
-1.223, 2.684e-4
-1.224, 2.715e-4
-1.225, 2.746e-4
-1.226, 2.776e-4
-1.227, 2.807e-4
-1.228, 2.838e-4
-1.229, 2.838e-4
-1.230, 2.900e-4
-1.231, 2.900e-4
-1.232, 2.931e-4
-1.233, 2.931e-4
-1.234, 2.931e-4
-1.235, 2.961e-4
-1.236, 2.961e-4
-1.237, 2.992e-4
-1.238, 2.961e-4
-1.239, 2.961e-4
-1.240, 2.961e-4
-1.241, 2.992e-4
-1.242, 2.961e-4
-1.243, 2.931e-4
-1.244, 2.931e-4
-1.245, 2.931e-4
-1.246, 2.900e-4
-1.247, 2.900e-4
-1.248, 2.838e-4
-1.249, 2.807e-4
-1.250, 2.807e-4
-1.251, 2.776e-4
-1.252, 2.746e-4
-1.253, 2.715e-4
-1.254, 2.653e-4
-1.255, 2.653e-4
-1.256, 2.591e-4
-1.257, 2.561e-4
-1.258, 2.530e-4
-1.259, 2.468e-4
-1.260, 2.468e-4
-1.261, 2.437e-4
-1.262, 2.376e-4
-1.263, 2.345e-4
-1.264, 2.283e-4
-1.265, 2.252e-4
-1.266, 2.252e-4
-1.267, 2.191e-4
-1.268, 2.160e-4
-1.269, 2.098e-4
-1.270, 2.098e-4
-1.271, 2.067e-4
-1.272, 2.006e-4
-1.273, 2.006e-4
-1.274, 1.944e-4
-1.275, 1.944e-4
-1.276, 1.913e-4
-1.277, 1.882e-4
-1.278, 1.851e-4
-1.279, 1.821e-4
-1.280, 1.821e-4
-1.281, 1.821e-4
-1.282, 1.759e-4
-1.283, 1.728e-4
-1.284, 1.728e-4
-1.285, 1.697e-4
-1.286, 1.697e-4
-1.287, 1.697e-4
-1.288, 1.666e-4
-1.289, 1.636e-4
-1.290, 1.636e-4
-1.291, 1.636e-4
-1.292, 1.636e-4
-1.293, 1.605e-4
-1.294, 1.574e-4
-1.295, 1.574e-4
-1.296, 1.574e-4
-1.297, 1.543e-4
-1.298, 1.543e-4
-1.299, 1.543e-4
-1.300, 1.543e-4
-1.301, 1.543e-4
-1.302, 1.543e-4
-1.303, 1.512e-4
-1.304, 1.512e-4
-1.305, 1.512e-4
-1.306, 1.512e-4
-1.307, 1.512e-4
-1.308, 1.481e-4
-1.309, 1.481e-4
-1.310, 1.481e-4
-1.311, 1.512e-4
-1.312, 1.481e-4
-1.313, 1.481e-4
-1.314, 1.451e-4
-1.315, 1.481e-4
-1.316, 1.481e-4
-1.317, 1.451e-4
-1.318, 1.451e-4
-1.319, 1.451e-4
-1.320, 1.451e-4
-1.321, 1.481e-4
-1.322, 1.451e-4
-1.323, 1.451e-4
-1.324, 1.451e-4
-1.325, 1.451e-4
-1.326, 1.451e-4
-1.327, 1.451e-4
-1.328, 1.420e-4
-1.329, 1.420e-4
-1.330, 1.451e-4
-1.331, 1.451e-4
-1.332, 1.451e-4
-1.333, 1.420e-4
-1.334, 1.420e-4
-1.335, 1.420e-4
-1.336, 1.420e-4
-1.337, 1.420e-4
-1.338, 1.420e-4
-1.339, 1.420e-4
-1.340, 1.420e-4
-1.341, 1.420e-4
-1.342, 1.420e-4
-1.343, 1.389e-4
-1.344, 1.389e-4
-1.345, 1.389e-4
-1.346, 1.420e-4
-1.347, 1.389e-4
-1.348, 1.389e-4
-1.349, 1.389e-4
-1.350, 1.389e-4
-1.351, 1.389e-4
-1.352, 1.389e-4
-1.353, 1.389e-4
-1.354, 1.358e-4
-1.355, 1.358e-4
-1.356, 1.389e-4
-1.357, 1.358e-4
-1.358, 1.358e-4
-1.359, 1.358e-4
-1.360, 1.358e-4
-1.361, 1.358e-4
-1.362, 1.358e-4
-1.363, 1.327e-4
-1.364, 1.327e-4
-1.365, 1.327e-4
-1.366, 1.327e-4
-1.367, 1.327e-4
-1.368, 1.296e-4
-1.369, 1.296e-4
-1.370, 1.296e-4
-1.371, 1.327e-4
-1.372, 1.296e-4
-1.373, 1.266e-4
-1.374, 1.266e-4
-1.375, 1.266e-4
-1.376, 1.296e-4
-1.377, 1.266e-4
-1.378, 1.266e-4
-1.379, 1.266e-4
-1.380, 1.266e-4
-1.381, 1.266e-4
-1.382, 1.266e-4
-1.383, 1.235e-4
-1.384, 1.235e-4
-1.385, 1.235e-4
-1.386, 1.235e-4
-1.387, 1.235e-4
-1.388, 1.235e-4
-1.389, 1.204e-4
-1.390, 1.204e-4
-1.391, 1.204e-4
-1.392, 1.204e-4
-1.393, 1.173e-4
-1.394, 1.173e-4
-1.395, 1.204e-4
-1.396, 1.204e-4
-1.397, 1.173e-4
-1.398, 1.173e-4
-1.399, 1.173e-4
-1.400, 1.173e-4
-1.401, 1.173e-4
-1.402, 1.173e-4
-1.403, 1.173e-4
-1.404, 1.173e-4
-1.405, 1.173e-4
-1.406, 1.173e-4
-1.407, 1.173e-4
-1.408, 1.142e-4
-1.409, 1.142e-4
-1.410, 1.173e-4
-1.411, 1.142e-4
-1.412, 1.173e-4
-1.413, 1.142e-4
-1.414, 1.142e-4
-1.415, 1.173e-4
-1.416, 1.173e-4
-1.417, 1.173e-4
-1.418, 1.142e-4
-1.419, 1.142e-4
-1.420, 1.173e-4
-1.421, 1.173e-4
-1.422, 1.173e-4
-1.423, 1.142e-4
-1.424, 1.142e-4
-1.425, 1.173e-4
-1.426, 1.173e-4
-1.427, 1.173e-4
-1.428, 1.142e-4
-1.429, 1.142e-4
-1.430, 1.173e-4
-1.431, 1.173e-4
-1.432, 1.173e-4
-1.433, 1.173e-4
-1.434, 1.173e-4
-1.435, 1.204e-4
-1.436, 1.204e-4
-1.437, 1.204e-4
-1.438, 1.204e-4
-1.439, 1.204e-4
-1.440, 1.204e-4
-1.441, 1.235e-4
-1.442, 1.204e-4
-1.443, 1.204e-4
-1.444, 1.204e-4
-1.445, 1.235e-4
-1.446, 1.266e-4
-1.447, 1.266e-4
-1.448, 1.266e-4
-1.449, 1.266e-4
-1.450, 1.266e-4
-1.451, 1.296e-4
-1.452, 1.296e-4
-1.453, 1.296e-4
-1.454, 1.296e-4
-1.455, 1.296e-4
-1.456, 1.327e-4
-1.457, 1.327e-4
-1.458, 1.327e-4
-1.459, 1.327e-4
-1.460, 1.358e-4
-1.461, 1.389e-4
-1.462, 1.389e-4
-1.463, 1.389e-4
-1.464, 1.389e-4
-1.465, 1.420e-4
-1.466, 1.420e-4
-1.467, 1.451e-4
-1.468, 1.451e-4
-1.469, 1.451e-4
-1.470, 1.481e-4
-1.471, 1.512e-4
-1.472, 1.512e-4
-1.473, 1.512e-4
-1.474, 1.543e-4
-1.475, 1.543e-4
-1.476, 1.574e-4
-1.477, 1.605e-4
-1.478, 1.605e-4
-1.479, 1.636e-4
-1.480, 1.666e-4
-1.481, 1.697e-4
-1.482, 1.728e-4
-1.483, 1.728e-4
-1.484, 1.759e-4
-1.485, 1.790e-4
-1.486, 1.821e-4
-1.487, 1.851e-4
-1.488, 1.882e-4
-1.489, 1.913e-4
-1.490, 1.944e-4
-1.491, 2.006e-4
-1.492, 2.036e-4
-1.493, 2.067e-4
-1.494, 2.098e-4
-1.495, 2.160e-4
-1.496, 2.191e-4
-1.497, 2.252e-4
-1.498, 2.283e-4
-1.499, 2.314e-4
-1.500, 2.406e-4
-1.501, 2.437e-4
-1.502, 2.499e-4
-1.503, 2.561e-4
-1.504, 2.622e-4
-1.505, 2.684e-4
-1.506, 2.776e-4
-1.507, 2.838e-4
-1.508, 2.900e-4
-1.509, 2.992e-4
-1.510, 3.085e-4
-1.511, 3.208e-4
-1.512, 3.270e-4
-1.513, 3.362e-4
-1.514, 3.485e-4
-1.515, 3.578e-4
-1.516, 3.701e-4
-1.517, 3.825e-4
-1.518, 3.948e-4
-1.519, 4.102e-4
-1.520, 4.225e-4
-1.521, 4.380e-4
-1.522, 4.534e-4
-1.523, 4.688e-4
-1.524, 4.842e-4
-1.525, 5.027e-4
-1.526, 5.243e-4
-1.527, 5.428e-4
-1.528, 5.644e-4
-1.529, 5.829e-4
-1.530, 6.075e-4
-1.531, 6.322e-4
-1.532, 6.569e-4
-1.533, 6.815e-4
-1.534, 7.093e-4
-1.535, 7.370e-4
-1.536, 7.679e-4
-1.537, 7.987e-4
-1.538, 8.295e-4
-1.539, 8.634e-4
-1.540, 9.004e-4
-1.541, 9.374e-4
-1.542, 9.775e-4
-1.543, 1.014e-3
-1.544, 1.058e-3
-1.545, 1.104e-3
-1.546, 1.156e-3
-1.547, 1.206e-3
-1.548, 1.258e-3
-1.549, 1.317e-3
-1.550, 1.381e-3
-1.551, 1.452e-3
-1.552, 1.529e-3
-1.553, 1.613e-3
-1.554, 1.705e-3
-1.555, 1.807e-3
-1.556, 1.921e-3
-1.557, 2.044e-3
-1.558, 2.180e-3
-1.559, 2.328e-3
-1.560, 2.494e-3
-1.561, 2.676e-3
-1.562, 2.874e-3
-1.563, 3.083e-3
-1.564, 3.302e-3
-1.565, 3.521e-3
-1.566, 3.731e-3
-1.567, 3.931e-3
-1.568, 4.119e-3
-1.569, 4.292e-3
-1.570, 4.455e-3
-1.571, 4.612e-3
-1.572, 4.757e-3
-1.573, 4.890e-3
-1.574, 5.019e-3
-1.575, 5.146e-3
-1.576, 5.272e-3
-1.577, 5.399e-3
-1.578, 5.525e-3
-1.579, 5.645e-3
-1.580, 5.769e-3
-1.581, 5.892e-3
-1.582, 6.015e-3
-1.583, 6.136e-3
-1.584, 6.253e-3
-1.585, 6.376e-3
-1.586, 6.502e-3
-1.587, 6.629e-3
-1.588, 6.749e-3
-1.589, 6.866e-3
-1.590, 6.990e-3
-1.591, 7.116e-3
-1.592, 7.242e-3
-1.593, 7.360e-3
-1.594, 7.480e-3
-1.595, 7.603e-3
-1.596, 7.733e-3
-1.597, 7.862e-3
-1.598, 7.988e-3
-1.599, 8.112e-3
-1.600, 8.155e-3
-1.599, 8.062e-3
-1.598, 7.970e-3
-1.597, 7.871e-3
-1.596, 7.770e-3
-1.595, 7.677e-3
-1.594, 7.578e-3
-1.593, 7.486e-3
-1.592, 7.387e-3
-1.591, 7.289e-3
-1.590, 7.193e-3
-1.589, 7.101e-3
-1.588, 7.008e-3
-1.587, 6.909e-3
-1.586, 6.808e-3
-1.585, 6.712e-3
-1.584, 6.617e-3
-1.583, 6.524e-3
-1.582, 6.425e-3
-1.581, 6.324e-3
-1.580, 6.228e-3
-1.579, 6.136e-3
-1.578, 6.040e-3
-1.577, 5.941e-3
-1.576, 5.849e-3
-1.575, 5.753e-3
-1.574, 5.664e-3
-1.573, 5.578e-3
-1.572, 5.482e-3
-1.571, 5.389e-3
-1.570, 5.300e-3
-1.569, 5.217e-3
-1.568, 5.134e-3
-1.567, 5.044e-3
-1.566, 4.958e-3
-1.565, 4.871e-3
-1.564, 4.788e-3
-1.563, 4.705e-3
-1.562, 4.622e-3
-1.561, 4.535e-3
-1.560, 4.458e-3
-1.559, 4.381e-3
-1.558, 4.304e-3
-1.557, 4.224e-3
-1.556, 4.144e-3
-1.555, 4.067e-3
-1.554, 3.993e-3
-1.553, 3.916e-3
-1.552, 3.839e-3
-1.551, 3.762e-3
-1.550, 3.688e-3
-1.549, 3.617e-3
-1.548, 3.546e-3
-1.547, 3.475e-3
-1.546, 3.401e-3
-1.545, 3.333e-3
-1.544, 3.265e-3
-1.543, 3.200e-3
-1.542, 3.130e-3
-1.541, 3.062e-3
-1.540, 2.997e-3
-1.539, 2.935e-3
-1.538, 2.874e-3
-1.537, 2.809e-3
-1.536, 2.747e-3
-1.535, 2.689e-3
-1.534, 2.630e-3
-1.533, 2.575e-3
-1.532, 2.513e-3
-1.531, 2.454e-3
-1.530, 2.396e-3
-1.529, 2.343e-3
-1.528, 2.291e-3
-1.527, 2.238e-3
-1.526, 2.183e-3
-1.525, 2.131e-3
-1.524, 2.081e-3
-1.523, 2.035e-3
-1.522, 1.986e-3
-1.521, 1.933e-3
-1.520, 1.887e-3
-1.519, 1.844e-3
-1.518, 1.798e-3
-1.517, 1.751e-3
-1.516, 1.705e-3
-1.515, 1.662e-3
-1.514, 1.622e-3
-1.513, 1.579e-3
-1.512, 1.539e-3
-1.511, 1.495e-3
-1.510, 1.458e-3
-1.509, 1.421e-3
-1.508, 1.384e-3
-1.507, 1.347e-3
-1.506, 1.310e-3
-1.505, 1.277e-3
-1.504, 1.243e-3
-1.503, 1.212e-3
-1.502, 1.178e-3
-1.501, 1.144e-3
-1.500, 1.116e-3
-1.499, 1.085e-3
-1.498, 1.055e-3
-1.497, 1.027e-3
-1.496, 9.960e-4
-1.495, 9.713e-4
-1.494, 9.436e-4
-1.493, 9.189e-4
-1.492, 8.912e-4
-1.491, 8.634e-4
-1.490, 8.388e-4
-1.489, 8.172e-4
-1.488, 7.925e-4
-1.487, 7.709e-4
-1.486, 7.463e-4
-1.485, 7.278e-4
-1.484, 7.062e-4
-1.483, 6.846e-4
-1.482, 6.661e-4
-1.481, 6.445e-4
-1.480, 6.260e-4
-1.479, 6.075e-4
-1.478, 5.921e-4
-1.477, 5.736e-4
-1.476, 5.551e-4
-1.475, 5.397e-4
-1.474, 5.243e-4
-1.473, 5.089e-4
-1.472, 4.935e-4
-1.471, 4.780e-4
-1.470, 4.626e-4
-1.469, 4.503e-4
-1.468, 4.380e-4
-1.467, 4.225e-4
-1.466, 4.102e-4
-1.465, 3.979e-4
-1.464, 3.855e-4
-1.463, 3.732e-4
-1.462, 3.609e-4
-1.461, 3.516e-4
-1.460, 3.393e-4
-1.459, 3.331e-4
-1.458, 3.208e-4
-1.457, 3.085e-4
-1.456, 2.992e-4
-1.455, 2.900e-4
-1.454, 2.807e-4
-1.453, 2.715e-4
-1.452, 2.622e-4
-1.451, 2.561e-4
-1.450, 2.468e-4
-1.449, 2.406e-4
-1.448, 2.314e-4
-1.447, 2.252e-4
-1.446, 2.191e-4
-1.445, 2.129e-4
-1.444, 2.067e-4
-1.443, 1.975e-4
-1.442, 1.913e-4
-1.441, 1.851e-4
-1.440, 1.790e-4
-1.439, 1.759e-4
-1.438, 1.697e-4
-1.437, 1.636e-4
-1.436, 1.574e-4
-1.435, 1.512e-4
-1.434, 1.481e-4
-1.433, 1.420e-4
-1.432, 1.389e-4
-1.431, 1.327e-4
-1.430, 1.296e-4
-1.429, 1.235e-4
-1.428, 1.204e-4
-1.427, 1.173e-4
-1.426, 1.111e-4
-1.425, 1.081e-4
-1.424, 1.050e-4
-1.423, 1.019e-4
-1.422, 9.882e-5
-1.421, 9.265e-5
-1.420, 8.957e-5
-1.419, 8.957e-5
-1.418, 8.648e-5
-1.417, 8.340e-5
-1.416, 7.723e-5
-1.415, 7.723e-5
-1.414, 7.415e-5
-1.413, 7.107e-5
-1.412, 6.798e-5
-1.411, 6.490e-5
-1.410, 6.182e-5
-1.409, 6.182e-5
-1.408, 5.873e-5
-1.407, 5.565e-5
-1.406, 5.257e-5
-1.405, 5.257e-5
-1.404, 4.949e-5
-1.403, 4.949e-5
-1.402, 4.640e-5
-1.401, 4.332e-5
-1.400, 4.332e-5
-1.399, 4.024e-5
-1.398, 3.715e-5
-1.397, 3.715e-5
-1.396, 3.407e-5
-1.395, 3.099e-5
-1.394, 3.099e-5
-1.393, 2.790e-5
-1.392, 2.790e-5
-1.391, 2.790e-5
-1.390, 2.482e-5
-1.389, 2.482e-5
-1.388, 2.174e-5
-1.387, 2.174e-5
-1.386, 1.865e-5
-1.385, 1.865e-5
-1.384, 1.865e-5
-1.383, 1.557e-5
-1.382, 1.557e-5
-1.381, 1.249e-5
-1.380, 1.249e-5
-1.379, 9.405e-6
-1.378, 9.405e-6
-1.377, 9.405e-6
-1.376, 6.322e-6
-1.375, 6.322e-6
-1.374, 6.322e-6
-1.373, 3.239e-6
-1.372, 3.239e-6
-1.371, 1.559e-7
-1.370, 1.559e-7
-1.369, 1.559e-7
-1.368, 1.559e-7
-1.367, -2.927e-6
-1.366, -2.927e-6
-1.365, -2.927e-6
-1.364, -2.927e-6
-1.363, -6.010e-6
-1.362, -6.010e-6
-1.361, -9.093e-6
-1.360, -9.093e-6
-1.359, -9.093e-6
-1.358, -9.093e-6
-1.357, -1.218e-5
-1.356, -1.218e-5
-1.355, -1.218e-5
-1.354, -1.218e-5
-1.353, -1.526e-5
-1.352, -1.526e-5
-1.351, -1.526e-5
-1.350, -1.834e-5
-1.349, -1.834e-5
-1.348, -1.834e-5
-1.347, -2.143e-5
-1.346, -2.143e-5
-1.345, -2.143e-5
-1.344, -2.143e-5
-1.343, -2.451e-5
-1.342, -2.451e-5
-1.341, -2.451e-5
-1.340, -2.759e-5
-1.339, -2.451e-5
-1.338, -2.759e-5
-1.337, -3.068e-5
-1.336, -3.068e-5
-1.335, -3.068e-5
-1.334, -3.068e-5
-1.333, -3.068e-5
-1.332, -3.376e-5
-1.331, -3.376e-5
-1.330, -3.376e-5
-1.329, -3.376e-5
-1.328, -3.684e-5
-1.327, -3.684e-5
-1.326, -3.992e-5
-1.325, -3.684e-5
-1.324, -3.992e-5
-1.323, -3.992e-5
-1.322, -4.301e-5
-1.321, -4.301e-5
-1.320, -4.301e-5
-1.319, -4.301e-5
-1.318, -4.609e-5
-1.317, -4.609e-5
-1.316, -4.609e-5
-1.315, -4.917e-5
-1.314, -4.609e-5
-1.313, -4.917e-5
-1.312, -5.226e-5
-1.311, -5.226e-5
-1.310, -5.226e-5
-1.309, -5.226e-5
-1.308, -5.534e-5
-1.307, -5.534e-5
-1.306, -5.842e-5
-1.305, -5.842e-5
-1.304, -5.842e-5
-1.303, -5.842e-5
-1.302, -6.151e-5
-1.301, -6.459e-5
-1.300, -6.151e-5
-1.299, -6.151e-5
-1.298, -6.459e-5
-1.297, -6.767e-5
-1.296, -6.767e-5
-1.295, -6.767e-5
-1.294, -6.767e-5
-1.293, -6.767e-5
-1.292, -7.076e-5
-1.291, -7.384e-5
-1.290, -7.384e-5
-1.289, -7.384e-5
-1.288, -7.384e-5
-1.287, -7.692e-5
-1.286, -7.692e-5
-1.285, -7.692e-5
-1.284, -7.692e-5
-1.283, -8.000e-5
-1.282, -8.309e-5
-1.281, -8.617e-5
-1.280, -8.309e-5
-1.279, -8.617e-5
-1.278, -8.617e-5
-1.277, -8.925e-5
-1.276, -9.234e-5
-1.275, -9.234e-5
-1.274, -9.234e-5
-1.273, -9.234e-5
-1.272, -9.542e-5
-1.271, -9.850e-5
-1.270, -9.850e-5
-1.269, -9.850e-5
-1.268, -9.850e-5
-1.267, -1.016e-4
-1.266, -1.047e-4
-1.265, -1.047e-4
-1.264, -1.047e-4
-1.263, -1.047e-4
-1.262, -1.078e-4
-1.261, -1.108e-4
-1.260, -1.139e-4
-1.259, -1.108e-4
-1.258, -1.139e-4
-1.257, -1.170e-4
-1.256, -1.170e-4
-1.255, -1.170e-4
-1.254, -1.170e-4
-1.253, -1.201e-4
-1.252, -1.232e-4
-1.251, -1.232e-4
-1.250, -1.232e-4
-1.249, -1.263e-4
-1.248, -1.263e-4
-1.247, -1.293e-4
-1.246, -1.324e-4
-1.245, -1.324e-4
-1.244, -1.293e-4
-1.243, -1.324e-4
-1.242, -1.355e-4
-1.241, -1.386e-4
-1.240, -1.355e-4
-1.239, -1.355e-4
-1.238, -1.386e-4
-1.237, -1.417e-4
-1.236, -1.417e-4
-1.235, -1.417e-4
-1.234, -1.417e-4
-1.233, -1.417e-4
-1.232, -1.448e-4
-1.231, -1.478e-4
-1.230, -1.478e-4
-1.229, -1.478e-4
-1.228, -1.478e-4
-1.227, -1.509e-4
-1.226, -1.509e-4
-1.225, -1.509e-4
-1.224, -1.509e-4
-1.223, -1.509e-4
-1.222, -1.540e-4
-1.221, -1.540e-4
-1.220, -1.540e-4
-1.219, -1.540e-4
-1.218, -1.540e-4
-1.217, -1.540e-4
-1.216, -1.540e-4
-1.215, -1.540e-4
-1.214, -1.540e-4
-1.213, -1.540e-4
-1.212, -1.540e-4
-1.211, -1.571e-4
-1.210, -1.540e-4
-1.209, -1.540e-4
-1.208, -1.540e-4
-1.207, -1.540e-4
-1.206, -1.571e-4
-1.205, -1.540e-4
-1.204, -1.540e-4
-1.203, -1.540e-4
-1.202, -1.540e-4
-1.201, -1.540e-4
-1.200, -1.540e-4
-1.199, -1.509e-4
-1.198, -1.509e-4
-1.197, -1.509e-4
-1.196, -1.540e-4
-1.195, -1.509e-4
-1.194, -1.478e-4
-1.193, -1.478e-4
-1.192, -1.509e-4
-1.191, -1.478e-4
-1.190, -1.478e-4
-1.189, -1.478e-4
-1.188, -1.448e-4
-1.187, -1.448e-4
-1.186, -1.448e-4
-1.185, -1.448e-4
-1.184, -1.417e-4
-1.183, -1.417e-4
-1.182, -1.417e-4
-1.181, -1.417e-4
-1.180, -1.417e-4
-1.179, -1.386e-4
-1.178, -1.386e-4
-1.177, -1.386e-4
-1.176, -1.386e-4
-1.175, -1.386e-4
-1.174, -1.355e-4
-1.173, -1.355e-4
-1.172, -1.355e-4
-1.171, -1.355e-4
-1.170, -1.324e-4
-1.169, -1.324e-4
-1.168, -1.293e-4
-1.167, -1.293e-4
-1.166, -1.293e-4
-1.165, -1.293e-4
-1.164, -1.263e-4
-1.163, -1.263e-4
-1.162, -1.263e-4
-1.161, -1.293e-4
-1.160, -1.263e-4
-1.159, -1.263e-4
-1.158, -1.232e-4
-1.157, -1.232e-4
-1.156, -1.263e-4
-1.155, -1.232e-4
-1.154, -1.232e-4
-1.153, -1.201e-4
-1.152, -1.232e-4
-1.151, -1.232e-4
-1.150, -1.201e-4
-1.149, -1.201e-4
-1.148, -1.201e-4
-1.147, -1.201e-4
-1.146, -1.201e-4
-1.145, -1.201e-4
-1.144, -1.201e-4
-1.143, -1.201e-4
-1.142, -1.201e-4
-1.141, -1.201e-4
-1.140, -1.201e-4
-1.139, -1.201e-4
-1.138, -1.201e-4
-1.137, -1.201e-4
-1.136, -1.201e-4
-1.135, -1.201e-4
-1.134, -1.170e-4
-1.133, -1.201e-4
-1.132, -1.201e-4
-1.131, -1.201e-4
-1.130, -1.201e-4
-1.129, -1.170e-4
-1.128, -1.201e-4
-1.127, -1.201e-4
-1.126, -1.201e-4
-1.125, -1.201e-4
-1.124, -1.201e-4
-1.123, -1.201e-4
-1.122, -1.232e-4
-1.121, -1.232e-4
-1.120, -1.201e-4
-1.119, -1.201e-4
-1.118, -1.201e-4
-1.117, -1.201e-4
-1.116, -1.232e-4
-1.115, -1.232e-4
-1.114, -1.201e-4
-1.113, -1.201e-4
-1.112, -1.232e-4
-1.111, -1.232e-4
-1.110, -1.232e-4
-1.109, -1.232e-4
-1.108, -1.232e-4
-1.107, -1.232e-4
-1.106, -1.232e-4
-1.105, -1.232e-4
-1.104, -1.232e-4
-1.103, -1.232e-4
-1.102, -1.232e-4
-1.101, -1.263e-4
-1.100, -1.263e-4
-1.099, -1.263e-4
-1.098, -1.232e-4
-1.097, -1.263e-4
-1.096, -1.263e-4
-1.095, -1.263e-4
-1.094, -1.263e-4
-1.093, -1.263e-4
-1.092, -1.263e-4
-1.091, -1.263e-4
-1.090, -1.263e-4
-1.089, -1.263e-4
-1.088, -1.263e-4
-1.087, -1.263e-4
-1.086, -1.293e-4
-1.085, -1.293e-4
-1.084, -1.293e-4
-1.083, -1.293e-4
-1.082, -1.293e-4
-1.081, -1.324e-4
-1.080, -1.293e-4
-1.079, -1.293e-4
-1.078, -1.324e-4
-1.077, -1.324e-4
-1.076, -1.324e-4
-1.075, -1.324e-4
-1.074, -1.293e-4
-1.073, -1.324e-4
-1.072, -1.324e-4
-1.071, -1.355e-4
-1.070, -1.355e-4
-1.069, -1.324e-4
-1.068, -1.355e-4
-1.067, -1.355e-4
-1.066, -1.355e-4
-1.065, -1.355e-4
-1.064, -1.355e-4
-1.063, -1.355e-4
-1.062, -1.386e-4
-1.061, -1.386e-4
-1.060, -1.355e-4
-1.059, -1.355e-4
-1.058, -1.386e-4
-1.057, -1.386e-4
-1.056, -1.386e-4
-1.055, -1.386e-4
-1.054, -1.386e-4
-1.053, -1.386e-4
-1.052, -1.386e-4
-1.051, -1.386e-4
-1.050, -1.386e-4
-1.049, -1.386e-4
-1.048, -1.386e-4
-1.047, -1.417e-4
-1.046, -1.417e-4
-1.045, -1.386e-4
-1.044, -1.386e-4
-1.043, -1.386e-4
-1.042, -1.417e-4
-1.041, -1.417e-4
-1.040, -1.417e-4
-1.039, -1.386e-4
-1.038, -1.386e-4
-1.037, -1.417e-4
-1.036, -1.417e-4
-1.035, -1.417e-4
-1.034, -1.417e-4
-1.033, -1.417e-4
-1.032, -1.417e-4
-1.031, -1.417e-4
-1.030, -1.417e-4
-1.029, -1.417e-4
-1.028, -1.417e-4
-1.027, -1.417e-4
-1.026, -1.417e-4
-1.025, -1.417e-4
-1.024, -1.417e-4
-1.023, -1.417e-4
-1.022, -1.417e-4
-1.021, -1.417e-4
-1.020, -1.417e-4
-1.019, -1.386e-4
-1.018, -1.417e-4
-1.017, -1.417e-4
-1.016, -1.417e-4
-1.015, -1.417e-4
-1.014, -1.417e-4
-1.013, -1.417e-4
-1.012, -1.417e-4
-1.011, -1.417e-4
-1.010, -1.417e-4
-1.009, -1.386e-4
-1.008, -1.386e-4
-1.007, -1.417e-4
-1.006, -1.417e-4
-1.005, -1.386e-4
-1.004, -1.386e-4
-1.003, -1.386e-4
-1.002, -1.386e-4
-1.001, -1.417e-4
