Apr. 10, 2025   02:15:16
Cyclic Voltammetry
File: c:/users/guazh/data/banditlqround7_x0exp994_r5/2025-03-28-exp1034\exp1034-2025-04-10t02_06_33-h2koh\exp1034_cv_50mvs_efin_-1600mv.bin
Data Source:  Experiment
Instrument Model:  CHI760E
Header: CV ran at 50 mVs
Note: 

Init E (V) = -1
High E (V) = -1
Low E (V) = -1.6
Final E (V) = -1
Init P/N = N
Scan Rate (V/s) = 0.05
Segment = 7
Sample Interval (V) = 0.001
Quiet Time (sec) = 60
Sensitivity (A/V) = 0.001
Comp R (ohm) = 1.8

Results:

Channel 1:
Segment 1:
Ep = -1.234V
ip = 5.397e-5A
Ah = 4.931e-5C

Segment 2:
Ep = -1.043V
ip = -1.707e-5A
Ah = -1.986e-5C

Segment 3:
Ep = -1.221V
ip = 2.793e-5A
Ah = 2.493e-5C

Segment 4:
Ep = -1.026V
ip = -1.624e-5A
Ah = -2.229e-5C

Segment 5:
Ep = -1.222V
ip = 2.371e-5A
Ah = 2.307e-5C

Segment 6:

Segment 7:

Potential/V, Current/A

-1.000, 3.722e-6
-1.001, 4.438e-6
-1.002, 4.711e-6
-1.003, 5.011e-6
-1.004, 5.274e-6
-1.005, 5.394e-6
-1.006, 5.259e-6
-1.007, 5.398e-6
-1.008, 5.540e-6
-1.009, 5.740e-6
-1.010, 5.822e-6
-1.011, 5.640e-6
-1.012, 5.785e-6
-1.013, 6.000e-6
-1.014, 6.106e-6
-1.015, 6.172e-6
-1.016, 6.059e-6
-1.017, 6.059e-6
-1.018, 6.335e-6
-1.019, 6.472e-6
-1.020, 6.434e-6
-1.021, 6.331e-6
-1.022, 6.358e-6
-1.023, 6.609e-6
-1.024, 6.748e-6
-1.025, 6.758e-6
-1.026, 6.712e-6
-1.027, 6.687e-6
-1.028, 6.896e-6
-1.029, 7.032e-6
-1.030, 7.078e-6
-1.031, 6.983e-6
-1.032, 6.939e-6
-1.033, 7.145e-6
-1.034, 7.410e-6
-1.035, 7.294e-6
-1.036, 7.248e-6
-1.037, 7.283e-6
-1.038, 7.432e-6
-1.039, 7.666e-6
-1.040, 7.574e-6
-1.041, 7.528e-6
-1.042, 7.577e-6
-1.043, 7.763e-6
-1.044, 7.953e-6
-1.045, 7.930e-6
-1.046, 7.790e-6
-1.047, 7.882e-6
-1.048, 8.024e-6
-1.049, 8.251e-6
-1.050, 8.281e-6
-1.051, 8.114e-6
-1.052, 8.118e-6
-1.053, 8.465e-6
-1.054, 8.530e-6
-1.055, 8.599e-6
-1.056, 8.443e-6
-1.057, 8.523e-6
-1.058, 8.774e-6
-1.059, 8.862e-6
-1.060, 8.858e-6
-1.061, 8.839e-6
-1.062, 8.850e-6
-1.063, 9.086e-6
-1.064, 9.226e-6
-1.065, 9.182e-6
-1.066, 9.208e-6
-1.067, 9.133e-6
-1.068, 9.370e-6
-1.069, 9.595e-6
-1.070, 9.582e-6
-1.071, 9.519e-6
-1.072, 9.590e-6
-1.073, 9.744e-6
-1.074, 9.956e-6
-1.075, 9.963e-6
-1.076, 9.858e-6
-1.077, 9.906e-6
-1.078, 1.007e-5
-1.079, 1.029e-5
-1.080, 1.028e-5
-1.081, 1.024e-5
-1.082, 1.034e-5
-1.083, 1.046e-5
-1.084, 1.064e-5
-1.085, 1.071e-5
-1.086, 1.060e-5
-1.087, 1.071e-5
-1.088, 1.085e-5
-1.089, 1.105e-5
-1.090, 1.111e-5
-1.091, 1.098e-5
-1.092, 1.107e-5
-1.093, 1.130e-5
-1.094, 1.148e-5
-1.095, 1.150e-5
-1.096, 1.144e-5
-1.097, 1.147e-5
-1.098, 1.177e-5
-1.099, 1.188e-5
-1.100, 1.191e-5
-1.101, 1.186e-5
-1.102, 1.190e-5
-1.103, 1.214e-5
-1.104, 1.231e-5
-1.105, 1.239e-5
-1.106, 1.231e-5
-1.107, 1.234e-5
-1.108, 1.263e-5
-1.109, 1.281e-5
-1.110, 1.284e-5
-1.111, 1.282e-5
-1.112, 1.288e-5
-1.113, 1.307e-5
-1.114, 1.334e-5
-1.115, 1.334e-5
-1.116, 1.333e-5
-1.117, 1.343e-5
-1.118, 1.363e-5
-1.119, 1.391e-5
-1.120, 1.387e-5
-1.121, 1.390e-5
-1.122, 1.406e-5
-1.123, 1.423e-5
-1.124, 1.446e-5
-1.125, 1.457e-5
-1.126, 1.449e-5
-1.127, 1.469e-5
-1.128, 1.492e-5
-1.129, 1.511e-5
-1.130, 1.524e-5
-1.131, 1.526e-5
-1.132, 1.537e-5
-1.133, 1.564e-5
-1.134, 1.588e-5
-1.135, 1.603e-5
-1.136, 1.604e-5
-1.137, 1.621e-5
-1.138, 1.654e-5
-1.139, 1.674e-5
-1.140, 1.690e-5
-1.141, 1.700e-5
-1.142, 1.711e-5
-1.143, 1.749e-5
-1.144, 1.768e-5
-1.145, 1.785e-5
-1.146, 1.806e-5
-1.147, 1.815e-5
-1.148, 1.852e-5
-1.149, 1.887e-5
-1.150, 1.908e-5
-1.151, 1.921e-5
-1.152, 1.939e-5
-1.153, 1.977e-5
-1.154, 2.019e-5
-1.155, 2.042e-5
-1.156, 2.056e-5
-1.157, 2.081e-5
-1.158, 2.128e-5
-1.159, 2.170e-5
-1.160, 2.196e-5
-1.161, 2.220e-5
-1.162, 2.251e-5
-1.163, 2.292e-5
-1.164, 2.349e-5
-1.165, 2.382e-5
-1.166, 2.400e-5
-1.167, 2.447e-5
-1.168, 2.495e-5
-1.169, 2.556e-5
-1.170, 2.604e-5
-1.171, 2.626e-5
-1.172, 2.671e-5
-1.173, 2.737e-5
-1.174, 2.798e-5
-1.175, 2.854e-5
-1.176, 2.890e-5
-1.177, 2.943e-5
-1.178, 3.019e-5
-1.179, 3.096e-5
-1.180, 3.149e-5
-1.181, 3.199e-5
-1.182, 3.257e-5
-1.183, 3.355e-5
-1.184, 3.428e-5
-1.185, 3.500e-5
-1.186, 3.560e-5
-1.187, 3.631e-5
-1.188, 3.729e-5
-1.189, 3.815e-5
-1.190, 3.900e-5
-1.191, 3.979e-5
-1.192, 4.053e-5
-1.193, 4.156e-5
-1.194, 4.270e-5
-1.195, 4.351e-5
-1.196, 4.436e-5
-1.197, 4.524e-5
-1.198, 4.640e-5
-1.199, 4.759e-5
-1.200, 4.850e-5
-1.201, 4.941e-5
-1.202, 5.046e-5
-1.203, 5.155e-5
-1.204, 5.274e-5
-1.205, 5.381e-5
-1.206, 5.464e-5
-1.207, 5.574e-5
-1.208, 5.677e-5
-1.209, 5.801e-5
-1.210, 5.905e-5
-1.211, 5.981e-5
-1.212, 6.084e-5
-1.213, 6.191e-5
-1.214, 6.295e-5
-1.215, 6.400e-5
-1.216, 6.461e-5
-1.217, 6.546e-5
-1.218, 6.640e-5
-1.219, 6.727e-5
-1.220, 6.806e-5
-1.221, 6.860e-5
-1.222, 6.916e-5
-1.223, 6.990e-5
-1.224, 7.057e-5
-1.225, 7.105e-5
-1.226, 7.135e-5
-1.227, 7.166e-5
-1.228, 7.225e-5
-1.229, 7.270e-5
-1.230, 7.282e-5
-1.231, 7.278e-5
-1.232, 7.265e-5
-1.233, 7.273e-5
-1.234, 7.283e-5
-1.235, 7.261e-5
-1.236, 7.223e-5
-1.237, 7.189e-5
-1.238, 7.168e-5
-1.239, 7.153e-5
-1.240, 7.098e-5
-1.241, 7.033e-5
-1.242, 6.978e-5
-1.243, 6.925e-5
-1.244, 6.877e-5
-1.245, 6.814e-5
-1.246, 6.727e-5
-1.247, 6.646e-5
-1.248, 6.578e-5
-1.249, 6.523e-5
-1.250, 6.450e-5
-1.251, 6.343e-5
-1.252, 6.255e-5
-1.253, 6.186e-5
-1.254, 6.113e-5
-1.255, 6.032e-5
-1.256, 5.916e-5
-1.257, 5.824e-5
-1.258, 5.757e-5
-1.259, 5.686e-5
-1.260, 5.603e-5
-1.261, 5.505e-5
-1.262, 5.413e-5
-1.263, 5.346e-5
-1.264, 5.272e-5
-1.265, 5.200e-5
-1.266, 5.104e-5
-1.267, 5.009e-5
-1.268, 4.964e-5
-1.269, 4.913e-5
-1.270, 4.837e-5
-1.271, 4.756e-5
-1.272, 4.676e-5
-1.273, 4.631e-5
-1.274, 4.601e-5
-1.275, 4.530e-5
-1.276, 4.465e-5
-1.277, 4.404e-5
-1.278, 4.372e-5
-1.279, 4.353e-5
-1.280, 4.308e-5
-1.281, 4.249e-5
-1.282, 4.197e-5
-1.283, 4.180e-5
-1.284, 4.164e-5
-1.285, 4.125e-5
-1.286, 4.083e-5
-1.287, 4.053e-5
-1.288, 4.038e-5
-1.289, 4.028e-5
-1.290, 4.008e-5
-1.291, 3.954e-5
-1.292, 3.944e-5
-1.293, 3.938e-5
-1.294, 3.931e-5
-1.295, 3.919e-5
-1.296, 3.868e-5
-1.297, 3.851e-5
-1.298, 3.854e-5
-1.299, 3.849e-5
-1.300, 3.835e-5
-1.301, 3.808e-5
-1.302, 3.786e-5
-1.303, 3.801e-5
-1.304, 3.807e-5
-1.305, 3.786e-5
-1.306, 3.769e-5
-1.307, 3.741e-5
-1.308, 3.748e-5
-1.309, 3.745e-5
-1.310, 3.733e-5
-1.311, 3.712e-5
-1.312, 3.694e-5
-1.313, 3.697e-5
-1.314, 3.709e-5
-1.315, 3.693e-5
-1.316, 3.659e-5
-1.317, 3.651e-5
-1.318, 3.649e-5
-1.319, 3.661e-5
-1.320, 3.641e-5
-1.321, 3.611e-5
-1.322, 3.597e-5
-1.323, 3.600e-5
-1.324, 3.615e-5
-1.325, 3.609e-5
-1.326, 3.578e-5
-1.327, 3.562e-5
-1.328, 3.562e-5
-1.329, 3.569e-5
-1.330, 3.564e-5
-1.331, 3.529e-5
-1.332, 3.509e-5
-1.333, 3.528e-5
-1.334, 3.541e-5
-1.335, 3.540e-5
-1.336, 3.516e-5
-1.337, 3.508e-5
-1.338, 3.524e-5
-1.339, 3.520e-5
-1.340, 3.515e-5
-1.341, 3.497e-5
-1.342, 3.480e-5
-1.343, 3.495e-5
-1.344, 3.495e-5
-1.345, 3.487e-5
-1.346, 3.464e-5
-1.347, 3.452e-5
-1.348, 3.454e-5
-1.349, 3.478e-5
-1.350, 3.468e-5
-1.351, 3.459e-5
-1.352, 3.450e-5
-1.353, 3.455e-5
-1.354, 3.481e-5
-1.355, 3.471e-5
-1.356, 3.457e-5
-1.357, 3.452e-5
-1.358, 3.462e-5
-1.359, 3.497e-5
-1.360, 3.486e-5
-1.361, 3.470e-5
-1.362, 3.471e-5
-1.363, 3.483e-5
-1.364, 3.511e-5
-1.365, 3.513e-5
-1.366, 3.505e-5
-1.367, 3.506e-5
-1.368, 3.518e-5
-1.369, 3.547e-5
-1.370, 3.556e-5
-1.371, 3.549e-5
-1.372, 3.553e-5
-1.373, 3.585e-5
-1.374, 3.612e-5
-1.375, 3.632e-5
-1.376, 3.613e-5
-1.377, 3.609e-5
-1.378, 3.643e-5
-1.379, 3.666e-5
-1.380, 3.686e-5
-1.381, 3.681e-5
-1.382, 3.696e-5
-1.383, 3.730e-5
-1.384, 3.763e-5
-1.385, 3.781e-5
-1.386, 3.789e-5
-1.387, 3.798e-5
-1.388, 3.839e-5
-1.389, 3.888e-5
-1.390, 3.907e-5
-1.391, 3.908e-5
-1.392, 3.909e-5
-1.393, 3.950e-5
-1.394, 4.009e-5
-1.395, 4.028e-5
-1.396, 4.049e-5
-1.397, 4.068e-5
-1.398, 4.104e-5
-1.399, 4.156e-5
-1.400, 4.177e-5
-1.401, 4.187e-5
-1.402, 4.219e-5
-1.403, 4.262e-5
-1.404, 4.311e-5
-1.405, 4.344e-5
-1.406, 4.355e-5
-1.407, 4.390e-5
-1.408, 4.436e-5
-1.409, 4.491e-5
-1.410, 4.532e-5
-1.411, 4.534e-5
-1.412, 4.566e-5
-1.413, 4.621e-5
-1.414, 4.678e-5
-1.415, 4.722e-5
-1.416, 4.736e-5
-1.417, 4.770e-5
-1.418, 4.841e-5
-1.419, 4.907e-5
-1.420, 4.956e-5
-1.421, 4.999e-5
-1.422, 5.045e-5
-1.423, 5.120e-5
-1.424, 5.190e-5
-1.425, 5.238e-5
-1.426, 5.292e-5
-1.427, 5.330e-5
-1.428, 5.418e-5
-1.429, 5.509e-5
-1.430, 5.581e-5
-1.431, 5.644e-5
-1.432, 5.713e-5
-1.433, 5.822e-5
-1.434, 5.932e-5
-1.435, 6.023e-5
-1.436, 6.113e-5
-1.437, 6.216e-5
-1.438, 6.337e-5
-1.439, 6.473e-5
-1.440, 6.587e-5
-1.441, 6.719e-5
-1.442, 6.863e-5
-1.443, 7.016e-5
-1.444, 7.179e-5
-1.445, 7.343e-5
-1.446, 7.489e-5
-1.447, 7.669e-5
-1.448, 7.852e-5
-1.449, 8.074e-5
-1.450, 8.291e-5
-1.451, 8.491e-5
-1.452, 8.713e-5
-1.453, 8.965e-5
-1.454, 9.225e-5
-1.455, 9.494e-5
-1.456, 9.753e-5
-1.457, 1.004e-4
-1.458, 1.035e-4
-1.459, 1.065e-4
-1.460, 1.097e-4
-1.461, 1.127e-4
-1.462, 1.159e-4
-1.463, 1.196e-4
-1.464, 1.232e-4
-1.465, 1.266e-4
-1.466, 1.303e-4
-1.467, 1.343e-4
-1.468, 1.387e-4
-1.469, 1.434e-4
-1.470, 1.483e-4
-1.471, 1.534e-4
-1.472, 1.589e-4
-1.473, 1.649e-4
-1.474, 1.713e-4
-1.475, 1.782e-4
-1.476, 1.857e-4
-1.477, 1.938e-4
-1.478, 2.030e-4
-1.479, 2.132e-4
-1.480, 2.240e-4
-1.481, 2.356e-4
-1.482, 2.478e-4
-1.483, 2.606e-4
-1.484, 2.743e-4
-1.485, 2.887e-4
-1.486, 3.035e-4
-1.487, 3.187e-4
-1.488, 3.338e-4
-1.489, 3.489e-4
-1.490, 3.649e-4
-1.491, 3.817e-4
-1.492, 3.992e-4
-1.493, 4.171e-4
-1.494, 4.349e-4
-1.495, 4.534e-4
-1.496, 4.728e-4
-1.497, 4.932e-4
-1.498, 5.145e-4
-1.499, 5.365e-4
-1.500, 5.591e-4
-1.501, 5.822e-4
-1.502, 6.061e-4
-1.503, 6.315e-4
-1.504, 6.577e-4
-1.505, 6.844e-4
-1.506, 7.116e-4
-1.507, 7.398e-4
-1.508, 7.691e-4
-1.509, 7.990e-4
-1.510, 8.291e-4
-1.511, 8.606e-4
-1.512, 8.938e-4
-1.513, 9.280e-4
-1.514, 9.637e-4
-1.515, 1.000e-3
-1.516, 1.037e-3
-1.517, 1.074e-3
-1.518, 1.115e-3
-1.519, 1.157e-3
-1.520, 1.199e-3
-1.521, 1.239e-3
-1.522, 1.284e-3
-1.523, 1.330e-3
-1.524, 1.377e-3
-1.525, 1.423e-3
-1.526, 1.472e-3
-1.527, 1.521e-3
-1.528, 1.567e-3
-1.529, 1.619e-3
-1.530, 1.674e-3
-1.531, 1.730e-3
-1.532, 1.788e-3
-1.533, 1.845e-3
-1.534, 1.904e-3
-1.535, 1.964e-3
-1.536, 2.025e-3
-1.537, 2.086e-3
-1.538, 2.149e-3
-1.539, 2.216e-3
-1.540, 2.283e-3
-1.541, 2.349e-3
-1.542, 2.418e-3
-1.543, 2.483e-3
-1.544, 2.553e-3
-1.545, 2.629e-3
-1.546, 2.702e-3
-1.547, 2.773e-3
-1.548, 2.845e-3
-1.549, 2.924e-3
-1.550, 3.001e-3
-1.551, 3.080e-3
-1.552, 3.157e-3
-1.553, 3.231e-3
-1.554, 3.313e-3
-1.555, 3.400e-3
-1.556, 3.478e-3
-1.557, 3.555e-3
-1.558, 3.644e-3
-1.559, 3.735e-3
-1.560, 3.822e-3
-1.561, 3.908e-3
-1.562, 3.995e-3
-1.563, 4.082e-3
-1.564, 4.168e-3
-1.565, 4.260e-3
-1.566, 4.359e-3
-1.567, 4.453e-3
-1.568, 4.551e-3
-1.569, 4.637e-3
-1.570, 4.734e-3
-1.571, 4.833e-3
-1.572, 4.927e-3
-1.573, 5.026e-3
-1.574, 5.109e-3
-1.575, 5.199e-3
-1.576, 5.301e-3
-1.577, 5.395e-3
-1.578, 5.486e-3
-1.579, 5.599e-3
-1.580, 5.699e-3
-1.581, 5.787e-3
-1.582, 5.887e-3
-1.583, 5.979e-3
-1.584, 6.078e-3
-1.585, 6.176e-3
-1.586, 6.281e-3
-1.587, 6.388e-3
-1.588, 6.482e-3
-1.589, 6.582e-3
-1.590, 6.682e-3
-1.591, 6.768e-3
-1.592, 6.854e-3
-1.593, 6.954e-3
-1.594, 7.059e-3
-1.595, 7.147e-3
-1.596, 7.236e-3
-1.597, 7.321e-3
-1.598, 7.410e-3
-1.599, 7.504e-3
-1.600, 7.507e-3
-1.599, 7.401e-3
-1.598, 7.307e-3
-1.597, 7.215e-3
-1.596, 7.136e-3
-1.595, 7.034e-3
-1.594, 6.937e-3
-1.593, 6.827e-3
-1.592, 6.726e-3
-1.591, 6.631e-3
-1.590, 6.553e-3
-1.589, 6.473e-3
-1.588, 6.392e-3
-1.587, 6.296e-3
-1.586, 6.195e-3
-1.585, 6.088e-3
-1.584, 5.995e-3
-1.583, 5.904e-3
-1.582, 5.812e-3
-1.581, 5.715e-3
-1.580, 5.612e-3
-1.579, 5.532e-3
-1.578, 5.453e-3
-1.577, 5.358e-3
-1.576, 5.273e-3
-1.575, 5.185e-3
-1.574, 5.105e-3
-1.573, 5.022e-3
-1.572, 4.944e-3
-1.571, 4.873e-3
-1.570, 4.802e-3
-1.569, 4.733e-3
-1.568, 4.666e-3
-1.567, 4.587e-3
-1.566, 4.507e-3
-1.565, 4.434e-3
-1.564, 4.366e-3
-1.563, 4.294e-3
-1.562, 4.219e-3
-1.561, 4.149e-3
-1.560, 4.076e-3
-1.559, 4.006e-3
-1.558, 3.939e-3
-1.557, 3.875e-3
-1.556, 3.808e-3
-1.555, 3.745e-3
-1.554, 3.682e-3
-1.553, 3.619e-3
-1.552, 3.572e-3
-1.551, 3.520e-3
-1.550, 3.467e-3
-1.549, 3.407e-3
-1.548, 3.347e-3
-1.547, 3.287e-3
-1.546, 3.231e-3
-1.545, 3.173e-3
-1.544, 3.120e-3
-1.543, 3.064e-3
-1.542, 3.010e-3
-1.541, 2.957e-3
-1.540, 2.902e-3
-1.539, 2.848e-3
-1.538, 2.794e-3
-1.537, 2.741e-3
-1.536, 2.684e-3
-1.535, 2.630e-3
-1.534, 2.580e-3
-1.533, 2.532e-3
-1.532, 2.481e-3
-1.531, 2.431e-3
-1.530, 2.380e-3
-1.529, 2.331e-3
-1.528, 2.282e-3
-1.527, 2.235e-3
-1.526, 2.189e-3
-1.525, 2.144e-3
-1.524, 2.098e-3
-1.523, 2.050e-3
-1.522, 2.006e-3
-1.521, 1.965e-3
-1.520, 1.924e-3
-1.519, 1.882e-3
-1.518, 1.841e-3
-1.517, 1.800e-3
-1.516, 1.760e-3
-1.515, 1.723e-3
-1.514, 1.685e-3
-1.513, 1.647e-3
-1.512, 1.609e-3
-1.511, 1.572e-3
-1.510, 1.535e-3
-1.509, 1.496e-3
-1.508, 1.461e-3
-1.507, 1.427e-3
-1.506, 1.394e-3
-1.505, 1.363e-3
-1.504, 1.332e-3
-1.503, 1.300e-3
-1.502, 1.268e-3
-1.501, 1.236e-3
-1.500, 1.205e-3
-1.499, 1.176e-3
-1.498, 1.148e-3
-1.497, 1.121e-3
-1.496, 1.095e-3
-1.495, 1.069e-3
-1.494, 1.041e-3
-1.493, 1.014e-3
-1.492, 9.867e-4
-1.491, 9.623e-4
-1.490, 9.391e-4
-1.489, 9.157e-4
-1.488, 8.919e-4
-1.487, 8.695e-4
-1.486, 8.476e-4
-1.485, 8.253e-4
-1.484, 8.031e-4
-1.483, 7.819e-4
-1.482, 7.614e-4
-1.481, 7.419e-4
-1.480, 7.230e-4
-1.479, 7.044e-4
-1.478, 6.860e-4
-1.477, 6.688e-4
-1.476, 6.520e-4
-1.475, 6.351e-4
-1.474, 6.179e-4
-1.473, 6.015e-4
-1.472, 5.860e-4
-1.471, 5.705e-4
-1.470, 5.553e-4
-1.469, 5.399e-4
-1.468, 5.248e-4
-1.467, 5.099e-4
-1.466, 4.953e-4
-1.465, 4.808e-4
-1.464, 4.666e-4
-1.463, 4.526e-4
-1.462, 4.386e-4
-1.461, 4.257e-4
-1.460, 4.135e-4
-1.459, 4.019e-4
-1.458, 3.909e-4
-1.457, 3.799e-4
-1.456, 3.697e-4
-1.455, 3.594e-4
-1.454, 3.488e-4
-1.453, 3.383e-4
-1.452, 3.283e-4
-1.451, 3.187e-4
-1.450, 3.097e-4
-1.449, 3.007e-4
-1.448, 2.921e-4
-1.447, 2.837e-4
-1.446, 2.756e-4
-1.445, 2.678e-4
-1.444, 2.599e-4
-1.443, 2.521e-4
-1.442, 2.445e-4
-1.441, 2.372e-4
-1.440, 2.301e-4
-1.439, 2.229e-4
-1.438, 2.157e-4
-1.437, 2.090e-4
-1.436, 2.028e-4
-1.435, 1.971e-4
-1.434, 1.915e-4
-1.433, 1.859e-4
-1.432, 1.804e-4
-1.431, 1.749e-4
-1.430, 1.693e-4
-1.429, 1.640e-4
-1.428, 1.589e-4
-1.427, 1.542e-4
-1.426, 1.497e-4
-1.425, 1.453e-4
-1.424, 1.408e-4
-1.423, 1.363e-4
-1.422, 1.320e-4
-1.421, 1.279e-4
-1.420, 1.240e-4
-1.419, 1.201e-4
-1.418, 1.163e-4
-1.417, 1.127e-4
-1.416, 1.093e-4
-1.415, 1.058e-4
-1.414, 1.024e-4
-1.413, 9.933e-5
-1.412, 9.638e-5
-1.411, 9.338e-5
-1.410, 9.038e-5
-1.409, 8.728e-5
-1.408, 8.443e-5
-1.407, 8.168e-5
-1.406, 7.911e-5
-1.405, 7.663e-5
-1.404, 7.407e-5
-1.403, 7.184e-5
-1.402, 6.962e-5
-1.401, 6.733e-5
-1.400, 6.531e-5
-1.399, 6.313e-5
-1.398, 6.093e-5
-1.397, 5.888e-5
-1.396, 5.696e-5
-1.395, 5.518e-5
-1.394, 5.332e-5
-1.393, 5.156e-5
-1.392, 5.000e-5
-1.391, 4.837e-5
-1.390, 4.657e-5
-1.389, 4.485e-5
-1.388, 4.328e-5
-1.387, 4.176e-5
-1.386, 4.036e-5
-1.385, 3.907e-5
-1.384, 3.782e-5
-1.383, 3.645e-5
-1.382, 3.521e-5
-1.381, 3.412e-5
-1.380, 3.285e-5
-1.379, 3.149e-5
-1.378, 3.023e-5
-1.377, 2.915e-5
-1.376, 2.814e-5
-1.375, 2.712e-5
-1.374, 2.601e-5
-1.373, 2.518e-5
-1.372, 2.435e-5
-1.371, 2.355e-5
-1.370, 2.269e-5
-1.369, 2.148e-5
-1.368, 2.037e-5
-1.367, 1.955e-5
-1.366, 1.887e-5
-1.365, 1.825e-5
-1.364, 1.737e-5
-1.363, 1.652e-5
-1.362, 1.569e-5
-1.361, 1.499e-5
-1.360, 1.440e-5
-1.359, 1.366e-5
-1.358, 1.293e-5
-1.357, 1.229e-5
-1.356, 1.165e-5
-1.355, 1.097e-5
-1.354, 1.035e-5
-1.353, 9.524e-6
-1.352, 8.891e-6
-1.351, 8.251e-6
-1.350, 7.912e-6
-1.349, 7.546e-6
-1.348, 6.890e-6
-1.347, 6.237e-6
-1.346, 5.612e-6
-1.345, 5.002e-6
-1.344, 4.349e-6
-1.343, 3.704e-6
-1.342, 3.386e-6
-1.341, 3.249e-6
-1.340, 2.945e-6
-1.339, 2.412e-6
-1.338, 1.894e-6
-1.337, 1.366e-6
-1.336, 1.034e-6
-1.335, 6.510e-7
-1.334, -1.729e-7
-1.333, -8.141e-7
-1.332, -1.156e-6
-1.331, -1.266e-6
-1.330, -1.280e-6
-1.329, -1.597e-6
-1.328, -1.994e-6
-1.327, -2.449e-6
-1.326, -3.086e-6
-1.325, -3.369e-6
-1.324, -4.116e-6
-1.323, -4.834e-6
-1.322, -5.027e-6
-1.321, -4.871e-6
-1.320, -4.494e-6
-1.319, -4.771e-6
-1.318, -5.361e-6
-1.317, -5.906e-6
-1.316, -6.392e-6
-1.315, -7.029e-6
-1.314, -7.494e-6
-1.313, -8.090e-6
-1.312, -8.339e-6
-1.311, -8.430e-6
-1.310, -8.738e-6
-1.309, -9.103e-6
-1.308, -9.710e-6
-1.307, -1.002e-5
-1.306, -1.013e-5
-1.305, -1.042e-5
-1.304, -1.093e-5
-1.303, -1.115e-5
-1.302, -1.153e-5
-1.301, -1.162e-5
-1.300, -1.179e-5
-1.299, -1.249e-5
-1.298, -1.319e-5
-1.297, -1.369e-5
-1.296, -1.380e-5
-1.295, -1.374e-5
-1.294, -1.409e-5
-1.293, -1.454e-5
-1.292, -1.512e-5
-1.291, -1.542e-5
-1.290, -1.562e-5
-1.289, -1.616e-5
-1.288, -1.683e-5
-1.287, -1.745e-5
-1.286, -1.760e-5
-1.285, -1.770e-5
-1.284, -1.800e-5
-1.283, -1.842e-5
-1.282, -1.876e-5
-1.281, -1.898e-5
-1.280, -1.922e-5
-1.279, -1.954e-5
-1.278, -1.993e-5
-1.277, -1.996e-5
-1.276, -2.004e-5
-1.275, -2.033e-5
-1.274, -2.083e-5
-1.273, -2.145e-5
-1.272, -2.152e-5
-1.271, -2.149e-5
-1.270, -2.169e-5
-1.269, -2.214e-5
-1.268, -2.288e-5
-1.267, -2.286e-5
-1.266, -2.241e-5
-1.265, -2.217e-5
-1.264, -2.265e-5
-1.263, -2.333e-5
-1.262, -2.379e-5
-1.261, -2.404e-5
-1.260, -2.439e-5
-1.259, -2.481e-5
-1.258, -2.536e-5
-1.257, -2.584e-5
-1.256, -2.570e-5
-1.255, -2.569e-5
-1.254, -2.614e-5
-1.253, -2.648e-5
-1.252, -2.662e-5
-1.251, -2.647e-5
-1.250, -2.632e-5
-1.249, -2.661e-5
-1.248, -2.701e-5
-1.247, -2.718e-5
-1.246, -2.695e-5
-1.245, -2.678e-5
-1.244, -2.699e-5
-1.243, -2.733e-5
-1.242, -2.744e-5
-1.241, -2.746e-5
-1.240, -2.730e-5
-1.239, -2.735e-5
-1.238, -2.782e-5
-1.237, -2.802e-5
-1.236, -2.797e-5
-1.235, -2.799e-5
-1.234, -2.796e-5
-1.233, -2.820e-5
-1.232, -2.804e-5
-1.231, -2.794e-5
-1.230, -2.791e-5
-1.229, -2.836e-5
-1.228, -2.824e-5
-1.227, -2.803e-5
-1.226, -2.757e-5
-1.225, -2.760e-5
-1.224, -2.769e-5
-1.223, -2.801e-5
-1.222, -2.820e-5
-1.221, -2.795e-5
-1.220, -2.764e-5
-1.219, -2.764e-5
-1.218, -2.767e-5
-1.217, -2.754e-5
-1.216, -2.729e-5
-1.215, -2.714e-5
-1.214, -2.705e-5
-1.213, -2.710e-5
-1.212, -2.697e-5
-1.211, -2.668e-5
-1.210, -2.630e-5
-1.209, -2.627e-5
-1.208, -2.627e-5
-1.207, -2.622e-5
-1.206, -2.591e-5
-1.205, -2.557e-5
-1.204, -2.541e-5
-1.203, -2.553e-5
-1.202, -2.533e-5
-1.201, -2.513e-5
-1.200, -2.476e-5
-1.199, -2.456e-5
-1.198, -2.464e-5
-1.197, -2.431e-5
-1.196, -2.405e-5
-1.195, -2.385e-5
-1.194, -2.381e-5
-1.193, -2.400e-5
-1.192, -2.384e-5
-1.191, -2.350e-5
-1.190, -2.330e-5
-1.189, -2.312e-5
-1.188, -2.315e-5
-1.187, -2.309e-5
-1.186, -2.284e-5
-1.185, -2.262e-5
-1.184, -2.251e-5
-1.183, -2.256e-5
-1.182, -2.262e-5
-1.181, -2.225e-5
-1.180, -2.212e-5
-1.179, -2.223e-5
-1.178, -2.242e-5
-1.177, -2.231e-5
-1.176, -2.196e-5
-1.175, -2.167e-5
-1.174, -2.173e-5
-1.173, -2.183e-5
-1.172, -2.190e-5
-1.171, -2.176e-5
-1.170, -2.155e-5
-1.169, -2.153e-5
-1.168, -2.167e-5
-1.167, -2.165e-5
-1.166, -2.156e-5
-1.165, -2.132e-5
-1.164, -2.138e-5
-1.163, -2.164e-5
-1.162, -2.158e-5
-1.161, -2.154e-5
-1.160, -2.144e-5
-1.159, -2.151e-5
-1.158, -2.179e-5
-1.157, -2.176e-5
-1.156, -2.171e-5
-1.155, -2.169e-5
-1.154, -2.177e-5
-1.153, -2.201e-5
-1.152, -2.206e-5
-1.151, -2.201e-5
-1.150, -2.202e-5
-1.149, -2.212e-5
-1.148, -2.242e-5
-1.147, -2.253e-5
-1.146, -2.243e-5
-1.145, -2.246e-5
-1.144, -2.255e-5
-1.143, -2.284e-5
-1.142, -2.305e-5
-1.141, -2.303e-5
-1.140, -2.300e-5
-1.139, -2.317e-5
-1.138, -2.348e-5
-1.137, -2.365e-5
-1.136, -2.363e-5
-1.135, -2.365e-5
-1.134, -2.394e-5
-1.133, -2.421e-5
-1.132, -2.435e-5
-1.131, -2.452e-5
-1.130, -2.447e-5
-1.129, -2.474e-5
-1.128, -2.507e-5
-1.127, -2.531e-5
-1.126, -2.542e-5
-1.125, -2.541e-5
-1.124, -2.567e-5
-1.123, -2.608e-5
-1.122, -2.632e-5
-1.121, -2.637e-5
-1.120, -2.640e-5
-1.119, -2.661e-5
-1.118, -2.705e-5
-1.117, -2.719e-5
-1.116, -2.726e-5
-1.115, -2.746e-5
-1.114, -2.757e-5
-1.113, -2.794e-5
-1.112, -2.818e-5
-1.111, -2.824e-5
-1.110, -2.836e-5
-1.109, -2.854e-5
-1.108, -2.887e-5
-1.107, -2.926e-5
-1.106, -2.924e-5
-1.105, -2.938e-5
-1.104, -2.954e-5
-1.103, -2.992e-5
-1.102, -3.029e-5
-1.101, -3.023e-5
-1.100, -3.037e-5
-1.099, -3.055e-5
-1.098, -3.091e-5
-1.097, -3.125e-5
-1.096, -3.129e-5
-1.095, -3.134e-5
-1.094, -3.167e-5
-1.093, -3.197e-5
-1.092, -3.230e-5
-1.091, -3.242e-5
-1.090, -3.238e-5
-1.089, -3.268e-5
-1.088, -3.309e-5
-1.087, -3.336e-5
-1.086, -3.351e-5
-1.085, -3.350e-5
-1.084, -3.372e-5
-1.083, -3.418e-5
-1.082, -3.447e-5
-1.081, -3.453e-5
-1.080, -3.447e-5
-1.079, -3.481e-5
-1.078, -3.529e-5
-1.077, -3.542e-5
-1.076, -3.555e-5
-1.075, -3.564e-5
-1.074, -3.581e-5
-1.073, -3.619e-5
-1.072, -3.637e-5
-1.071, -3.644e-5
-1.070, -3.649e-5
-1.069, -3.669e-5
-1.068, -3.698e-5
-1.067, -3.729e-5
-1.066, -3.720e-5
-1.065, -3.728e-5
-1.064, -3.740e-5
-1.063, -3.769e-5
-1.062, -3.800e-5
-1.061, -3.789e-5
-1.060, -3.781e-5
-1.059, -3.809e-5
-1.058, -3.825e-5
-1.057, -3.850e-5
-1.056, -3.841e-5
-1.055, -3.829e-5
-1.054, -3.856e-5
-1.053, -3.866e-5
-1.052, -3.885e-5
-1.051, -3.884e-5
-1.050, -3.866e-5
-1.049, -3.887e-5
-1.048, -3.901e-5
-1.047, -3.912e-5
-1.046, -3.907e-5
-1.045, -3.892e-5
-1.044, -3.890e-5
-1.043, -3.923e-5
-1.042, -3.921e-5
-1.041, -3.910e-5
-1.040, -3.891e-5
-1.039, -3.895e-5
-1.038, -3.917e-5
-1.037, -3.912e-5
-1.036, -3.904e-5
-1.035, -3.887e-5
-1.034, -3.877e-5
-1.033, -3.897e-5
-1.032, -3.897e-5
-1.031, -3.882e-5
-1.030, -3.859e-5
-1.029, -3.857e-5
-1.028, -3.870e-5
-1.027, -3.872e-5
-1.026, -3.848e-5
-1.025, -3.828e-5
-1.024, -3.824e-5
-1.023, -3.837e-5
-1.022, -3.833e-5
-1.021, -3.805e-5
-1.020, -3.780e-5
-1.019, -3.780e-5
-1.018, -3.785e-5
-1.017, -3.789e-5
-1.016, -3.755e-5
-1.015, -3.732e-5
-1.014, -3.728e-5
-1.013, -3.728e-5
-1.012, -3.721e-5
-1.011, -3.701e-5
-1.010, -3.674e-5
-1.009, -3.667e-5
-1.008, -3.669e-5
-1.007, -3.661e-5
-1.006, -3.645e-5
-1.005, -3.606e-5
-1.004, -3.600e-5
-1.003, -3.604e-5
-1.002, -3.594e-5
-1.001, -3.571e-5
-1.000, -2.507e-5
-1.001, -2.054e-5
-1.002, -1.819e-5
-1.003, -1.638e-5
-1.004, -1.466e-5
-1.005, -1.306e-5
-1.006, -1.180e-5
-1.007, -1.084e-5
-1.008, -9.953e-6
-1.009, -8.878e-6
-1.010, -7.801e-6
-1.011, -7.123e-6
-1.012, -6.465e-6
-1.013, -5.940e-6
-1.014, -5.178e-6
-1.015, -4.330e-6
-1.016, -3.924e-6
-1.017, -3.511e-6
-1.018, -3.082e-6
-1.019, -2.499e-6
-1.020, -1.921e-6
-1.021, -1.482e-6
-1.022, -1.351e-6
-1.023, -9.838e-7
-1.024, -5.103e-7
-1.025, -4.854e-8
-1.026, 3.343e-7
-1.027, 4.211e-7
-1.028, 6.579e-7
-1.029, 1.056e-6
-1.030, 1.461e-6
-1.031, 1.762e-6
-1.032, 1.792e-6
-1.033, 1.930e-6
-1.034, 2.318e-6
-1.035, 2.702e-6
-1.036, 2.907e-6
-1.037, 2.949e-6
-1.038, 3.021e-6
-1.039, 3.410e-6
-1.040, 3.637e-6
-1.041, 3.900e-6
-1.042, 3.909e-6
-1.043, 4.006e-6
-1.044, 4.267e-6
-1.045, 4.618e-6
-1.046, 4.759e-6
-1.047, 4.718e-6
-1.048, 4.793e-6
-1.049, 5.037e-6
-1.050, 5.352e-6
-1.051, 5.514e-6
-1.052, 5.433e-6
-1.053, 5.550e-6
-1.054, 5.751e-6
-1.055, 6.077e-6
-1.056, 6.122e-6
-1.057, 6.052e-6
-1.058, 6.209e-6
-1.059, 6.341e-6
-1.060, 6.646e-6
-1.061, 6.773e-6
-1.062, 6.732e-6
-1.063, 6.790e-6
-1.064, 6.896e-6
-1.065, 7.208e-6
-1.066, 7.391e-6
-1.067, 7.244e-6
-1.068, 7.280e-6
-1.069, 7.525e-6
-1.070, 7.747e-6
-1.071, 7.889e-6
-1.072, 7.833e-6
-1.073, 7.870e-6
-1.074, 8.062e-6
-1.075, 8.332e-6
-1.076, 8.385e-6
-1.077, 8.382e-6
-1.078, 8.356e-6
-1.079, 8.560e-6
-1.080, 8.798e-6
-1.081, 8.875e-6
-1.082, 8.912e-6
-1.083, 8.869e-6
-1.084, 9.040e-6
-1.085, 9.359e-6
-1.086, 9.375e-6
-1.087, 9.392e-6
-1.088, 9.443e-6
-1.089, 9.550e-6
-1.090, 9.833e-6
-1.091, 9.896e-6
-1.092, 9.952e-6
-1.093, 9.956e-6
-1.094, 1.011e-5
-1.095, 1.041e-5
-1.096, 1.044e-5
-1.097, 1.044e-5
-1.098, 1.052e-5
-1.099, 1.063e-5
-1.100, 1.091e-5
-1.101, 1.104e-5
-1.102, 1.101e-5
-1.103, 1.106e-5
-1.104, 1.119e-5
-1.105, 1.151e-5
-1.106, 1.162e-5
-1.107, 1.164e-5
-1.108, 1.171e-5
-1.109, 1.185e-5
-1.110, 1.215e-5
-1.111, 1.232e-5
-1.112, 1.222e-5
-1.113, 1.231e-5
-1.114, 1.259e-5
-1.115, 1.279e-5
-1.116, 1.296e-5
-1.117, 1.304e-5
-1.118, 1.308e-5
-1.119, 1.331e-5
-1.120, 1.357e-5
-1.121, 1.377e-5
-1.122, 1.376e-5
-1.123, 1.383e-5
-1.124, 1.414e-5
-1.125, 1.440e-5
-1.126, 1.461e-5
-1.127, 1.466e-5
-1.128, 1.467e-5
-1.129, 1.507e-5
-1.130, 1.530e-5
-1.131, 1.554e-5
-1.132, 1.556e-5
-1.133, 1.579e-5
-1.134, 1.599e-5
-1.135, 1.637e-5
-1.136, 1.658e-5
-1.137, 1.661e-5
-1.138, 1.686e-5
-1.139, 1.711e-5
-1.140, 1.742e-5
-1.141, 1.772e-5
-1.142, 1.785e-5
-1.143, 1.803e-5
-1.144, 1.834e-5
-1.145, 1.874e-5
-1.146, 1.907e-5
-1.147, 1.916e-5
-1.148, 1.940e-5
-1.149, 1.973e-5
-1.150, 2.015e-5
-1.151, 2.055e-5
-1.152, 2.069e-5
-1.153, 2.091e-5
-1.154, 2.136e-5
-1.155, 2.175e-5
-1.156, 2.218e-5
-1.157, 2.240e-5
-1.158, 2.258e-5
-1.159, 2.312e-5
-1.160, 2.358e-5
-1.161, 2.401e-5
-1.162, 2.428e-5
-1.163, 2.457e-5
-1.164, 2.497e-5
-1.165, 2.560e-5
-1.166, 2.609e-5
-1.167, 2.640e-5
-1.168, 2.669e-5
-1.169, 2.718e-5
-1.170, 2.778e-5
-1.171, 2.833e-5
-1.172, 2.869e-5
-1.173, 2.907e-5
-1.174, 2.958e-5
-1.175, 3.025e-5
-1.176, 3.077e-5
-1.177, 3.119e-5
-1.178, 3.171e-5
-1.179, 3.213e-5
-1.180, 3.281e-5
-1.181, 3.348e-5
-1.182, 3.385e-5
-1.183, 3.435e-5
-1.184, 3.490e-5
-1.185, 3.561e-5
-1.186, 3.632e-5
-1.187, 3.669e-5
-1.188, 3.715e-5
-1.189, 3.771e-5
-1.190, 3.848e-5
-1.191, 3.920e-5
-1.192, 3.948e-5
-1.193, 3.999e-5
-1.194, 4.062e-5
-1.195, 4.132e-5
-1.196, 4.197e-5
-1.197, 4.235e-5
-1.198, 4.279e-5
-1.199, 4.341e-5
-1.200, 4.405e-5
-1.201, 4.465e-5
-1.202, 4.507e-5
-1.203, 4.536e-5
-1.204, 4.595e-5
-1.205, 4.655e-5
-1.206, 4.709e-5
-1.207, 4.744e-5
-1.208, 4.764e-5
-1.209, 4.811e-5
-1.210, 4.865e-5
-1.211, 4.908e-5
-1.212, 4.926e-5
-1.213, 4.947e-5
-1.214, 4.981e-5
-1.215, 5.022e-5
-1.216, 5.054e-5
-1.217, 5.054e-5
-1.218, 5.063e-5
-1.219, 5.077e-5
-1.220, 5.113e-5
-1.221, 5.130e-5
-1.222, 5.117e-5
-1.223, 5.108e-5
-1.224, 5.098e-5
-1.225, 5.106e-5
-1.226, 5.122e-5
-1.227, 5.086e-5
-1.228, 5.071e-5
-1.229, 5.062e-5
-1.230, 5.047e-5
-1.231, 5.039e-5
-1.232, 4.983e-5
-1.233, 4.935e-5
-1.234, 4.908e-5
-1.235, 4.880e-5
-1.236, 4.855e-5
-1.237, 4.797e-5
-1.238, 4.733e-5
-1.239, 4.704e-5
-1.240, 4.664e-5
-1.241, 4.635e-5
-1.242, 4.577e-5
-1.243, 4.506e-5
-1.244, 4.464e-5
-1.245, 4.428e-5
-1.246, 4.390e-5
-1.247, 4.328e-5
-1.248, 4.267e-5
-1.249, 4.222e-5
-1.250, 4.204e-5
-1.251, 4.161e-5
-1.252, 4.103e-5
-1.253, 4.044e-5
-1.254, 4.007e-5
-1.255, 3.988e-5
-1.256, 3.953e-5
-1.257, 3.893e-5
-1.258, 3.846e-5
-1.259, 3.816e-5
-1.260, 3.797e-5
-1.261, 3.775e-5
-1.262, 3.724e-5
-1.263, 3.677e-5
-1.264, 3.647e-5
-1.265, 3.627e-5
-1.266, 3.620e-5
-1.267, 3.576e-5
-1.268, 3.546e-5
-1.269, 3.523e-5
-1.270, 3.515e-5
-1.271, 3.514e-5
-1.272, 3.466e-5
-1.273, 3.441e-5
-1.274, 3.427e-5
-1.275, 3.428e-5
-1.276, 3.427e-5
-1.277, 3.403e-5
-1.278, 3.373e-5
-1.279, 3.366e-5
-1.280, 3.378e-5
-1.281, 3.377e-5
-1.282, 3.371e-5
-1.283, 3.335e-5
-1.284, 3.334e-5
-1.285, 3.347e-5
-1.286, 3.354e-5
-1.287, 3.342e-5
-1.288, 3.314e-5
-1.289, 3.308e-5
-1.290, 3.333e-5
-1.291, 3.331e-5
-1.292, 3.320e-5
-1.293, 3.301e-5
-1.294, 3.296e-5
-1.295, 3.317e-5
-1.296, 3.326e-5
-1.297, 3.307e-5
-1.298, 3.288e-5
-1.299, 3.291e-5
-1.300, 3.314e-5
-1.301, 3.319e-5
-1.302, 3.309e-5
-1.303, 3.286e-5
-1.304, 3.287e-5
-1.305, 3.311e-5
-1.306, 3.330e-5
-1.307, 3.311e-5
-1.308, 3.309e-5
-1.309, 3.311e-5
-1.310, 3.326e-5
-1.311, 3.346e-5
-1.312, 3.325e-5
-1.313, 3.299e-5
-1.314, 3.319e-5
-1.315, 3.324e-5
-1.316, 3.344e-5
-1.317, 3.329e-5
-1.318, 3.306e-5
-1.319, 3.320e-5
-1.320, 3.324e-5
-1.321, 3.330e-5
-1.322, 3.322e-5
-1.323, 3.302e-5
-1.324, 3.309e-5
-1.325, 3.341e-5
-1.326, 3.346e-5
-1.327, 3.339e-5
-1.328, 3.305e-5
-1.329, 3.305e-5
-1.330, 3.324e-5
-1.331, 3.329e-5
-1.332, 3.315e-5
-1.333, 3.304e-5
-1.334, 3.301e-5
-1.335, 3.323e-5
-1.336, 3.331e-5
-1.337, 3.316e-5
-1.338, 3.306e-5
-1.339, 3.298e-5
-1.340, 3.307e-5
-1.341, 3.321e-5
-1.342, 3.296e-5
-1.343, 3.279e-5
-1.344, 3.271e-5
-1.345, 3.289e-5
-1.346, 3.319e-5
-1.347, 3.292e-5
-1.348, 3.273e-5
-1.349, 3.271e-5
-1.350, 3.278e-5
-1.351, 3.303e-5
-1.352, 3.279e-5
-1.353, 3.266e-5
-1.354, 3.266e-5
-1.355, 3.268e-5
-1.356, 3.283e-5
-1.357, 3.267e-5
-1.358, 3.243e-5
-1.359, 3.250e-5
-1.360, 3.250e-5
-1.361, 3.267e-5
-1.362, 3.253e-5
-1.363, 3.231e-5
-1.364, 3.234e-5
-1.365, 3.248e-5
-1.366, 3.251e-5
-1.367, 3.240e-5
-1.368, 3.217e-5
-1.369, 3.212e-5
-1.370, 3.230e-5
-1.371, 3.240e-5
-1.372, 3.232e-5
-1.373, 3.221e-5
-1.374, 3.221e-5
-1.375, 3.249e-5
-1.376, 3.252e-5
-1.377, 3.241e-5
-1.378, 3.224e-5
-1.379, 3.222e-5
-1.380, 3.248e-5
-1.381, 3.269e-5
-1.382, 3.265e-5
-1.383, 3.248e-5
-1.384, 3.253e-5
-1.385, 3.272e-5
-1.386, 3.303e-5
-1.387, 3.288e-5
-1.388, 3.279e-5
-1.389, 3.305e-5
-1.390, 3.326e-5
-1.391, 3.371e-5
-1.392, 3.375e-5
-1.393, 3.374e-5
-1.394, 3.406e-5
-1.395, 3.430e-5
-1.396, 3.453e-5
-1.397, 3.456e-5
-1.398, 3.453e-5
-1.399, 3.485e-5
-1.400, 3.534e-5
-1.401, 3.582e-5
-1.402, 3.604e-5
-1.403, 3.608e-5
-1.404, 3.643e-5
-1.405, 3.698e-5
-1.406, 3.744e-5
-1.407, 3.778e-5
-1.408, 3.796e-5
-1.409, 3.855e-5
-1.410, 3.916e-5
-1.411, 3.969e-5
-1.412, 4.004e-5
-1.413, 4.030e-5
-1.414, 4.081e-5
-1.415, 4.162e-5
-1.416, 4.218e-5
-1.417, 4.283e-5
-1.418, 4.343e-5
-1.419, 4.417e-5
-1.420, 4.503e-5
-1.421, 4.589e-5
-1.422, 4.643e-5
-1.423, 4.710e-5
-1.424, 4.780e-5
-1.425, 4.876e-5
-1.426, 4.979e-5
-1.427, 5.059e-5
-1.428, 5.155e-5
-1.429, 5.275e-5
-1.430, 5.395e-5
-1.431, 5.514e-5
-1.432, 5.605e-5
-1.433, 5.711e-5
-1.434, 5.839e-5
-1.435, 5.986e-5
-1.436, 6.142e-5
-1.437, 6.277e-5
-1.438, 6.423e-5
-1.439, 6.603e-5
-1.440, 6.798e-5
-1.441, 6.989e-5
-1.442, 7.165e-5
-1.443, 7.302e-5
-1.444, 7.492e-5
-1.445, 7.696e-5
-1.446, 7.910e-5
-1.447, 8.126e-5
-1.448, 8.331e-5
-1.449, 8.563e-5
-1.450, 8.823e-5
-1.451, 9.093e-5
-1.452, 9.354e-5
-1.453, 9.616e-5
-1.454, 9.889e-5
-1.455, 1.018e-4
-1.456, 1.050e-4
-1.457, 1.082e-4
-1.458, 1.115e-4
-1.459, 1.152e-4
-1.460, 1.191e-4
-1.461, 1.232e-4
-1.462, 1.274e-4
-1.463, 1.317e-4
-1.464, 1.363e-4
-1.465, 1.414e-4
-1.466, 1.471e-4
-1.467, 1.529e-4
-1.468, 1.590e-4
-1.469, 1.658e-4
-1.470, 1.733e-4
-1.471, 1.816e-4
-1.472, 1.901e-4
-1.473, 1.993e-4
-1.474, 2.095e-4
-1.475, 2.203e-4
-1.476, 2.320e-4
-1.477, 2.446e-4
-1.478, 2.581e-4
-1.479, 2.723e-4
-1.480, 2.875e-4
-1.481, 3.038e-4
-1.482, 3.211e-4
-1.483, 3.389e-4
-1.484, 3.573e-4
-1.485, 3.762e-4
-1.486, 3.961e-4
-1.487, 4.169e-4
-1.488, 4.381e-4
-1.489, 4.603e-4
-1.490, 4.833e-4
-1.491, 5.072e-4
-1.492, 5.321e-4
-1.493, 5.578e-4
-1.494, 5.840e-4
-1.495, 6.111e-4
-1.496, 6.397e-4
-1.497, 6.693e-4
-1.498, 6.998e-4
-1.499, 7.309e-4
-1.500, 7.636e-4
-1.501, 7.972e-4
-1.502, 8.325e-4
-1.503, 8.680e-4
-1.504, 9.043e-4
-1.505, 9.434e-4
-1.506, 9.830e-4
-1.507, 1.022e-3
-1.508, 1.064e-3
-1.509, 1.107e-3
-1.510, 1.151e-3
-1.511, 1.198e-3
-1.512, 1.246e-3
-1.513, 1.295e-3
-1.514, 1.345e-3
-1.515, 1.395e-3
-1.516, 1.448e-3
-1.517, 1.501e-3
-1.518, 1.555e-3
-1.519, 1.612e-3
-1.520, 1.669e-3
-1.521, 1.728e-3
-1.522, 1.788e-3
-1.523, 1.850e-3
-1.524, 1.913e-3
-1.525, 1.977e-3
-1.526, 2.040e-3
-1.527, 2.105e-3
-1.528, 2.173e-3
-1.529, 2.246e-3
-1.530, 2.321e-3
-1.531, 2.391e-3
-1.532, 2.463e-3
-1.533, 2.536e-3
-1.534, 2.606e-3
-1.535, 2.676e-3
-1.536, 2.756e-3
-1.537, 2.838e-3
-1.538, 2.915e-3
-1.539, 2.993e-3
-1.540, 3.075e-3
-1.541, 3.158e-3
-1.542, 3.241e-3
-1.543, 3.325e-3
-1.544, 3.409e-3
-1.545, 3.489e-3
-1.546, 3.576e-3
-1.547, 3.665e-3
-1.548, 3.753e-3
-1.549, 3.841e-3
-1.550, 3.927e-3
-1.551, 4.013e-3
-1.552, 4.104e-3
-1.553, 4.201e-3
-1.554, 4.298e-3
-1.555, 4.390e-3
-1.556, 4.486e-3
-1.557, 4.584e-3
-1.558, 4.686e-3
-1.559, 4.783e-3
-1.560, 4.872e-3
-1.561, 4.964e-3
-1.562, 5.061e-3
-1.563, 5.168e-3
-1.564, 5.270e-3
-1.565, 5.366e-3
-1.566, 5.461e-3
-1.567, 5.563e-3
-1.568, 5.669e-3
-1.569, 5.772e-3
-1.570, 5.869e-3
-1.571, 5.969e-3
-1.572, 6.078e-3
-1.573, 6.175e-3
-1.574, 6.267e-3
-1.575, 6.370e-3
-1.576, 6.481e-3
-1.577, 6.593e-3
-1.578, 6.696e-3
-1.579, 6.798e-3
-1.580, 6.908e-3
-1.581, 7.026e-3
-1.582, 7.137e-3
-1.583, 7.223e-3
-1.584, 7.322e-3
-1.585, 7.410e-3
-1.586, 7.487e-3
-1.587, 7.579e-3
-1.588, 7.672e-3
-1.589, 7.774e-3
-1.590, 7.867e-3
-1.591, 7.959e-3
-1.592, 8.058e-3
-1.593, 8.175e-3
-1.594, 8.294e-3
-1.595, 8.392e-3
-1.596, 8.478e-3
-1.597, 8.557e-3
-1.598, 8.642e-3
-1.599, 8.732e-3
-1.600, 8.752e-3
-1.599, 8.635e-3
-1.598, 8.498e-3
-1.597, 8.358e-3
-1.596, 8.222e-3
-1.595, 8.092e-3
-1.594, 7.984e-3
-1.593, 7.873e-3
-1.592, 7.761e-3
-1.591, 7.641e-3
-1.590, 7.515e-3
-1.589, 7.392e-3
-1.588, 7.259e-3
-1.587, 7.133e-3
-1.586, 7.015e-3
-1.585, 6.902e-3
-1.584, 6.793e-3
-1.583, 6.675e-3
-1.582, 6.563e-3
-1.581, 6.452e-3
-1.580, 6.336e-3
-1.579, 6.222e-3
-1.578, 6.125e-3
-1.577, 6.040e-3
-1.576, 5.954e-3
-1.575, 5.870e-3
-1.574, 5.791e-3
-1.573, 5.685e-3
-1.572, 5.573e-3
-1.571, 5.472e-3
-1.570, 5.379e-3
-1.569, 5.288e-3
-1.568, 5.216e-3
-1.567, 5.142e-3
-1.566, 5.055e-3
-1.565, 4.967e-3
-1.564, 4.882e-3
-1.563, 4.796e-3
-1.562, 4.728e-3
-1.561, 4.664e-3
-1.560, 4.583e-3
-1.559, 4.497e-3
-1.558, 4.418e-3
-1.557, 4.342e-3
-1.556, 4.274e-3
-1.555, 4.199e-3
-1.554, 4.120e-3
-1.553, 4.038e-3
-1.552, 3.957e-3
-1.551, 3.876e-3
-1.550, 3.805e-3
-1.549, 3.733e-3
-1.548, 3.659e-3
-1.547, 3.596e-3
-1.546, 3.528e-3
-1.545, 3.462e-3
-1.544, 3.397e-3
-1.543, 3.329e-3
-1.542, 3.262e-3
-1.541, 3.190e-3
-1.540, 3.117e-3
-1.539, 3.059e-3
-1.538, 3.010e-3
-1.537, 2.953e-3
-1.536, 2.891e-3
-1.535, 2.821e-3
-1.534, 2.756e-3
-1.533, 2.702e-3
-1.532, 2.642e-3
-1.531, 2.585e-3
-1.530, 2.528e-3
-1.529, 2.473e-3
-1.528, 2.424e-3
-1.527, 2.373e-3
-1.526, 2.320e-3
-1.525, 2.268e-3
-1.524, 2.220e-3
-1.523, 2.173e-3
-1.522, 2.122e-3
-1.521, 2.071e-3
-1.520, 2.023e-3
-1.519, 1.980e-3
-1.518, 1.935e-3
-1.517, 1.888e-3
-1.516, 1.844e-3
-1.515, 1.798e-3
-1.514, 1.754e-3
-1.513, 1.713e-3
-1.512, 1.672e-3
-1.511, 1.630e-3
-1.510, 1.589e-3
-1.509, 1.550e-3
-1.508, 1.513e-3
-1.507, 1.477e-3
-1.506, 1.441e-3
-1.505, 1.406e-3
-1.504, 1.372e-3
-1.503, 1.337e-3
-1.502, 1.304e-3
-1.501, 1.269e-3
-1.500, 1.234e-3
-1.499, 1.202e-3
-1.498, 1.172e-3
-1.497, 1.141e-3
-1.496, 1.110e-3
-1.495, 1.077e-3
-1.494, 1.049e-3
-1.493, 1.025e-3
-1.492, 9.984e-4
-1.491, 9.727e-4
-1.490, 9.479e-4
-1.489, 9.236e-4
-1.488, 8.996e-4
-1.487, 8.755e-4
-1.486, 8.520e-4
-1.485, 8.302e-4
-1.484, 8.079e-4
-1.483, 7.856e-4
-1.482, 7.637e-4
-1.481, 7.426e-4
-1.480, 7.218e-4
-1.479, 7.016e-4
-1.478, 6.815e-4
-1.477, 6.618e-4
-1.476, 6.423e-4
-1.475, 6.230e-4
-1.474, 6.043e-4
-1.473, 5.847e-4
-1.472, 5.662e-4
-1.471, 5.489e-4
-1.470, 5.332e-4
-1.469, 5.188e-4
-1.468, 5.039e-4
-1.467, 4.893e-4
-1.466, 4.755e-4
-1.465, 4.620e-4
-1.464, 4.487e-4
-1.463, 4.353e-4
-1.462, 4.218e-4
-1.461, 4.081e-4
-1.460, 3.947e-4
-1.459, 3.828e-4
-1.458, 3.720e-4
-1.457, 3.614e-4
-1.456, 3.509e-4
-1.455, 3.405e-4
-1.454, 3.304e-4
-1.453, 3.208e-4
-1.452, 3.113e-4
-1.451, 3.022e-4
-1.450, 2.935e-4
-1.449, 2.851e-4
-1.448, 2.768e-4
-1.447, 2.687e-4
-1.446, 2.607e-4
-1.445, 2.531e-4
-1.444, 2.454e-4
-1.443, 2.377e-4
-1.442, 2.303e-4
-1.441, 2.233e-4
-1.440, 2.166e-4
-1.439, 2.100e-4
-1.438, 2.038e-4
-1.437, 1.979e-4
-1.436, 1.922e-4
-1.435, 1.867e-4
-1.434, 1.813e-4
-1.433, 1.757e-4
-1.432, 1.704e-4
-1.431, 1.651e-4
-1.430, 1.601e-4
-1.429, 1.553e-4
-1.428, 1.506e-4
-1.427, 1.460e-4
-1.426, 1.415e-4
-1.425, 1.372e-4
-1.424, 1.331e-4
-1.423, 1.291e-4
-1.422, 1.251e-4
-1.421, 1.212e-4
-1.420, 1.174e-4
-1.419, 1.139e-4
-1.418, 1.104e-4
-1.417, 1.069e-4
-1.416, 1.037e-4
-1.415, 1.006e-4
-1.414, 9.748e-5
-1.413, 9.431e-5
-1.412, 9.117e-5
-1.411, 8.814e-5
-1.410, 8.551e-5
-1.409, 8.295e-5
-1.408, 8.021e-5
-1.407, 7.727e-5
-1.406, 7.462e-5
-1.405, 7.211e-5
-1.404, 6.967e-5
-1.403, 6.734e-5
-1.402, 6.511e-5
-1.401, 6.295e-5
-1.400, 6.093e-5
-1.399, 5.890e-5
-1.398, 5.683e-5
-1.397, 5.495e-5
-1.396, 5.312e-5
-1.395, 5.146e-5
-1.394, 4.980e-5
-1.393, 4.807e-5
-1.392, 4.637e-5
-1.391, 4.465e-5
-1.390, 4.285e-5
-1.389, 4.114e-5
-1.388, 3.972e-5
-1.387, 3.805e-5
-1.386, 3.690e-5
-1.385, 3.599e-5
-1.384, 3.484e-5
-1.383, 3.345e-5
-1.382, 3.207e-5
-1.381, 3.092e-5
-1.380, 2.974e-5
-1.379, 2.861e-5
-1.378, 2.753e-5
-1.377, 2.641e-5
-1.376, 2.551e-5
-1.375, 2.466e-5
-1.374, 2.371e-5
-1.373, 2.273e-5
-1.372, 2.170e-5
-1.371, 2.083e-5
-1.370, 2.012e-5
-1.369, 1.924e-5
-1.368, 1.841e-5
-1.367, 1.751e-5
-1.366, 1.687e-5
-1.365, 1.621e-5
-1.364, 1.555e-5
-1.363, 1.479e-5
-1.362, 1.414e-5
-1.361, 1.341e-5
-1.360, 1.291e-5
-1.359, 1.240e-5
-1.358, 1.180e-5
-1.357, 1.092e-5
-1.356, 1.020e-5
-1.355, 9.537e-6
-1.354, 9.082e-6
-1.353, 8.458e-6
-1.352, 7.791e-6
-1.351, 7.249e-6
-1.350, 6.854e-6
-1.349, 6.556e-6
-1.348, 6.107e-6
-1.347, 5.378e-6
-1.346, 4.797e-6
-1.345, 4.176e-6
-1.344, 3.687e-6
-1.343, 3.252e-6
-1.342, 2.861e-6
-1.341, 2.444e-6
-1.340, 1.916e-6
-1.339, 1.491e-6
-1.338, 1.208e-6
-1.337, 6.490e-7
-1.336, 3.165e-7
-1.335, -2.388e-8
-1.334, -4.185e-7
-1.333, -6.573e-7
-1.332, -9.542e-7
-1.331, -1.347e-6
-1.330, -1.465e-6
-1.329, -1.924e-6
-1.328, -2.545e-6
-1.327, -3.511e-6
-1.326, -4.094e-6
-1.325, -3.858e-6
-1.324, -3.875e-6
-1.323, -4.252e-6
-1.322, -4.075e-6
-1.321, -4.061e-6
-1.320, -4.338e-6
-1.319, -5.026e-6
-1.318, -5.861e-6
-1.317, -6.314e-6
-1.316, -6.926e-6
-1.315, -7.134e-6
-1.314, -7.049e-6
-1.313, -7.222e-6
-1.312, -7.607e-6
-1.311, -8.248e-6
-1.310, -8.346e-6
-1.309, -8.237e-6
-1.308, -8.671e-6
-1.307, -9.220e-6
-1.306, -9.848e-6
-1.305, -1.008e-5
-1.304, -1.007e-5
-1.303, -1.011e-5
-1.302, -1.027e-5
-1.301, -1.058e-5
-1.300, -1.105e-5
-1.299, -1.142e-5
-1.298, -1.166e-5
-1.297, -1.216e-5
-1.296, -1.276e-5
-1.295, -1.304e-5
-1.294, -1.307e-5
-1.293, -1.328e-5
-1.292, -1.369e-5
-1.291, -1.416e-5
-1.290, -1.482e-5
-1.289, -1.546e-5
-1.288, -1.526e-5
-1.287, -1.551e-5
-1.286, -1.603e-5
-1.285, -1.605e-5
-1.284, -1.598e-5
-1.283, -1.603e-5
-1.282, -1.638e-5
-1.281, -1.685e-5
-1.280, -1.716e-5
-1.279, -1.705e-5
-1.278, -1.716e-5
-1.277, -1.738e-5
-1.276, -1.775e-5
-1.275, -1.818e-5
-1.274, -1.829e-5
-1.273, -1.847e-5
-1.272, -1.875e-5
-1.271, -1.896e-5
-1.270, -1.912e-5
-1.269, -1.892e-5
-1.268, -1.922e-5
-1.267, -1.973e-5
-1.266, -2.004e-5
-1.265, -2.030e-5
-1.264, -2.038e-5
-1.263, -2.061e-5
-1.262, -2.111e-5
-1.261, -2.143e-5
-1.260, -2.148e-5
-1.259, -2.143e-5
-1.258, -2.152e-5
-1.257, -2.200e-5
-1.256, -2.250e-5
-1.255, -2.296e-5
-1.254, -2.316e-5
-1.253, -2.320e-5
-1.252, -2.347e-5
-1.251, -2.386e-5
-1.250, -2.388e-5
-1.249, -2.390e-5
-1.248, -2.393e-5
-1.247, -2.461e-5
-1.246, -2.513e-5
-1.245, -2.516e-5
-1.244, -2.514e-5
-1.243, -2.538e-5
-1.242, -2.553e-5
-1.241, -2.573e-5
-1.240, -2.558e-5
-1.239, -2.537e-5
-1.238, -2.548e-5
-1.237, -2.574e-5
-1.236, -2.606e-5
-1.235, -2.616e-5
-1.234, -2.591e-5
-1.233, -2.603e-5
-1.232, -2.626e-5
-1.231, -2.645e-5
-1.230, -2.637e-5
-1.229, -2.639e-5
-1.228, -2.627e-5
-1.227, -2.663e-5
-1.226, -2.683e-5
-1.225, -2.677e-5
-1.224, -2.630e-5
-1.223, -2.629e-5
-1.222, -2.659e-5
-1.221, -2.654e-5
-1.220, -2.629e-5
-1.219, -2.602e-5
-1.218, -2.579e-5
-1.217, -2.604e-5
-1.216, -2.615e-5
-1.215, -2.611e-5
-1.214, -2.585e-5
-1.213, -2.546e-5
-1.212, -2.555e-5
-1.211, -2.562e-5
-1.210, -2.537e-5
-1.209, -2.517e-5
-1.208, -2.486e-5
-1.207, -2.498e-5
-1.206, -2.495e-5
-1.205, -2.460e-5
-1.204, -2.422e-5
-1.203, -2.395e-5
-1.202, -2.384e-5
-1.201, -2.386e-5
-1.200, -2.363e-5
-1.199, -2.330e-5
-1.198, -2.317e-5
-1.197, -2.320e-5
-1.196, -2.314e-5
-1.195, -2.289e-5
-1.194, -2.249e-5
-1.193, -2.229e-5
-1.192, -2.232e-5
-1.191, -2.226e-5
-1.190, -2.206e-5
-1.189, -2.178e-5
-1.188, -2.158e-5
-1.187, -2.172e-5
-1.186, -2.155e-5
-1.185, -2.135e-5
-1.184, -2.100e-5
-1.183, -2.070e-5
-1.182, -2.088e-5
-1.181, -2.076e-5
-1.180, -2.061e-5
-1.179, -2.046e-5
-1.178, -2.037e-5
-1.177, -2.048e-5
-1.176, -2.046e-5
-1.175, -2.029e-5
-1.174, -2.013e-5
-1.173, -2.003e-5
-1.172, -2.012e-5
-1.171, -2.017e-5
-1.170, -2.000e-5
-1.169, -1.985e-5
-1.168, -1.969e-5
-1.167, -1.985e-5
-1.166, -1.999e-5
-1.165, -1.980e-5
-1.164, -1.965e-5
-1.163, -1.962e-5
-1.162, -1.982e-5
-1.161, -1.992e-5
-1.160, -1.976e-5
-1.159, -1.963e-5
-1.158, -1.968e-5
-1.157, -1.981e-5
-1.156, -1.997e-5
-1.155, -1.994e-5
-1.154, -1.981e-5
-1.153, -1.988e-5
-1.152, -2.008e-5
-1.151, -2.023e-5
-1.150, -2.030e-5
-1.149, -2.018e-5
-1.148, -2.014e-5
-1.147, -2.051e-5
-1.146, -2.059e-5
-1.145, -2.072e-5
-1.144, -2.054e-5
-1.143, -2.059e-5
-1.142, -2.097e-5
-1.141, -2.111e-5
-1.140, -2.114e-5
-1.139, -2.117e-5
-1.138, -2.119e-5
-1.137, -2.154e-5
-1.136, -2.170e-5
-1.135, -2.180e-5
-1.134, -2.190e-5
-1.133, -2.188e-5
-1.132, -2.229e-5
-1.131, -2.249e-5
-1.130, -2.257e-5
-1.129, -2.259e-5
-1.128, -2.262e-5
-1.127, -2.299e-5
-1.126, -2.329e-5
-1.125, -2.332e-5
-1.124, -2.339e-5
-1.123, -2.350e-5
-1.122, -2.382e-5
-1.121, -2.409e-5
-1.120, -2.411e-5
-1.119, -2.415e-5
-1.118, -2.433e-5
-1.117, -2.451e-5
-1.116, -2.476e-5
-1.115, -2.492e-5
-1.114, -2.490e-5
-1.113, -2.503e-5
-1.112, -2.529e-5
-1.111, -2.548e-5
-1.110, -2.563e-5
-1.109, -2.554e-5
-1.108, -2.562e-5
-1.107, -2.602e-5
-1.106, -2.628e-5
-1.105, -2.633e-5
-1.104, -2.631e-5
-1.103, -2.643e-5
-1.102, -2.680e-5
-1.101, -2.704e-5
-1.100, -2.708e-5
-1.099, -2.717e-5
-1.098, -2.723e-5
-1.097, -2.761e-5
-1.096, -2.790e-5
-1.095, -2.799e-5
-1.094, -2.807e-5
-1.093, -2.811e-5
-1.092, -2.853e-5
-1.091, -2.886e-5
-1.090, -2.895e-5
-1.089, -2.907e-5
-1.088, -2.908e-5
-1.087, -2.958e-5
-1.086, -2.986e-5
-1.085, -2.988e-5
-1.084, -3.002e-5
-1.083, -3.017e-5
-1.082, -3.051e-5
-1.081, -3.082e-5
-1.080, -3.097e-5
-1.079, -3.098e-5
-1.078, -3.113e-5
-1.077, -3.140e-5
-1.076, -3.185e-5
-1.075, -3.198e-5
-1.074, -3.193e-5
-1.073, -3.210e-5
-1.072, -3.239e-5
-1.071, -3.279e-5
-1.070, -3.290e-5
-1.069, -3.284e-5
-1.068, -3.296e-5
-1.067, -3.338e-5
-1.066, -3.360e-5
-1.065, -3.376e-5
-1.064, -3.372e-5
-1.063, -3.379e-5
-1.062, -3.421e-5
-1.061, -3.440e-5
-1.060, -3.446e-5
-1.059, -3.455e-5
-1.058, -3.456e-5
-1.057, -3.490e-5
-1.056, -3.515e-5
-1.055, -3.512e-5
-1.054, -3.521e-5
-1.053, -3.516e-5
-1.052, -3.546e-5
-1.051, -3.575e-5
-1.050, -3.573e-5
-1.049, -3.573e-5
-1.048, -3.567e-5
-1.047, -3.594e-5
-1.046, -3.620e-5
-1.045, -3.617e-5
-1.044, -3.611e-5
-1.043, -3.613e-5
-1.042, -3.635e-5
-1.041, -3.655e-5
-1.040, -3.652e-5
-1.039, -3.639e-5
-1.038, -3.638e-5
-1.037, -3.662e-5
-1.036, -3.677e-5
-1.035, -3.678e-5
-1.034, -3.661e-5
-1.033, -3.658e-5
-1.032, -3.674e-5
-1.031, -3.687e-5
-1.030, -3.683e-5
-1.029, -3.672e-5
-1.028, -3.658e-5
-1.027, -3.687e-5
-1.026, -3.691e-5
-1.025, -3.689e-5
-1.024, -3.670e-5
-1.023, -3.655e-5
-1.022, -3.682e-5
-1.021, -3.686e-5
-1.020, -3.675e-5
-1.019, -3.662e-5
-1.018, -3.641e-5
-1.017, -3.662e-5
-1.016, -3.672e-5
-1.015, -3.655e-5
-1.014, -3.641e-5
-1.013, -3.621e-5
-1.012, -3.641e-5
-1.011, -3.655e-5
-1.010, -3.633e-5
-1.009, -3.617e-5
-1.008, -3.597e-5
-1.007, -3.610e-5
-1.006, -3.623e-5
-1.005, -3.601e-5
-1.004, -3.581e-5
-1.003, -3.572e-5
-1.002, -3.580e-5
-1.001, -3.588e-5
-1.000, -2.571e-5
-1.001, -2.112e-5
-1.002, -1.861e-5
-1.003, -1.699e-5
-1.004, -1.542e-5
-1.005, -1.394e-5
-1.006, -1.258e-5
-1.007, -1.127e-5
-1.008, -1.055e-5
-1.009, -9.698e-6
-1.010, -8.714e-6
-1.011, -7.813e-6
-1.012, -7.018e-6
-1.013, -6.471e-6
-1.014, -5.994e-6
-1.015, -5.284e-6
-1.016, -4.538e-6
-1.017, -4.046e-6
-1.018, -3.630e-6
-1.019, -3.291e-6
-1.020, -2.783e-6
-1.021, -2.165e-6
-1.022, -1.686e-6
-1.023, -1.464e-6
-1.024, -1.251e-6
-1.025, -8.664e-7
-1.026, -3.041e-7
-1.027, 5.308e-8
-1.028, 1.182e-7
-1.029, 3.560e-7
-1.030, 7.023e-7
-1.031, 1.170e-6
-1.032, 1.461e-6
-1.033, 1.493e-6
-1.034, 1.697e-6
-1.035, 1.941e-6
-1.036, 2.341e-6
-1.037, 2.697e-6
-1.038, 2.627e-6
-1.039, 2.835e-6
-1.040, 3.016e-6
-1.041, 3.414e-6
-1.042, 3.652e-6
-1.043, 3.625e-6
-1.044, 3.679e-6
-1.045, 3.978e-6
-1.046, 4.243e-6
-1.047, 4.494e-6
-1.048, 4.474e-6
-1.049, 4.478e-6
-1.050, 4.721e-6
-1.051, 5.027e-6
-1.052, 5.219e-6
-1.053, 5.172e-6
-1.054, 5.190e-6
-1.055, 5.471e-6
-1.056, 5.682e-6
-1.057, 5.899e-6
-1.058, 5.869e-6
-1.059, 5.884e-6
-1.060, 6.070e-6
-1.061, 6.363e-6
-1.062, 6.530e-6
-1.063, 6.502e-6
-1.064, 6.426e-6
-1.065, 6.694e-6
-1.066, 6.966e-6
-1.067, 7.057e-6
-1.068, 7.016e-6
-1.069, 7.126e-6
-1.070, 7.232e-6
-1.071, 7.504e-6
-1.072, 7.676e-6
-1.073, 7.605e-6
-1.074, 7.636e-6
-1.075, 7.863e-6
-1.076, 8.019e-6
-1.077, 8.253e-6
-1.078, 8.142e-6
-1.079, 8.209e-6
-1.080, 8.328e-6
-1.081, 8.487e-6
-1.082, 8.770e-6
-1.083, 8.649e-6
-1.084, 8.668e-6
-1.085, 8.812e-6
-1.086, 9.071e-6
-1.087, 9.265e-6
-1.088, 9.188e-6
-1.089, 9.209e-6
-1.090, 9.418e-6
-1.091, 9.579e-6
-1.092, 9.789e-6
-1.093, 9.745e-6
-1.094, 9.723e-6
-1.095, 9.969e-6
-1.096, 1.020e-5
-1.097, 1.033e-5
-1.098, 1.036e-5
-1.099, 1.029e-5
-1.100, 1.050e-5
-1.101, 1.078e-5
-1.102, 1.097e-5
-1.103, 1.093e-5
-1.104, 1.088e-5
-1.105, 1.115e-5
-1.106, 1.138e-5
-1.107, 1.149e-5
-1.108, 1.156e-5
-1.109, 1.165e-5
-1.110, 1.177e-5
-1.111, 1.207e-5
-1.112, 1.219e-5
-1.113, 1.220e-5
-1.114, 1.229e-5
-1.115, 1.246e-5
-1.116, 1.277e-5
-1.117, 1.295e-5
-1.118, 1.303e-5
-1.119, 1.302e-5
-1.120, 1.324e-5
-1.121, 1.351e-5
-1.122, 1.378e-5
-1.123, 1.380e-5
-1.124, 1.390e-5
-1.125, 1.407e-5
-1.126, 1.434e-5
-1.127, 1.470e-5
-1.128, 1.467e-5
-1.129, 1.477e-5
-1.130, 1.504e-5
-1.131, 1.534e-5
-1.132, 1.561e-5
-1.133, 1.569e-5
-1.134, 1.576e-5
-1.135, 1.607e-5
-1.136, 1.633e-5
-1.137, 1.661e-5
-1.138, 1.683e-5
-1.139, 1.696e-5
-1.140, 1.719e-5
-1.141, 1.758e-5
-1.142, 1.788e-5
-1.143, 1.803e-5
-1.144, 1.818e-5
-1.145, 1.845e-5
-1.146, 1.886e-5
-1.147, 1.919e-5
-1.148, 1.935e-5
-1.149, 1.961e-5
-1.150, 1.991e-5
-1.151, 2.029e-5
-1.152, 2.068e-5
-1.153, 2.089e-5
-1.154, 2.110e-5
-1.155, 2.142e-5
-1.156, 2.192e-5
-1.157, 2.234e-5
-1.158, 2.254e-5
-1.159, 2.282e-5
-1.160, 2.317e-5
-1.161, 2.369e-5
-1.162, 2.410e-5
-1.163, 2.437e-5
-1.164, 2.467e-5
-1.165, 2.511e-5
-1.166, 2.568e-5
-1.167, 2.616e-5
-1.168, 2.638e-5
-1.169, 2.672e-5
-1.170, 2.721e-5
-1.171, 2.773e-5
-1.172, 2.832e-5
-1.173, 2.858e-5
-1.174, 2.896e-5
-1.175, 2.942e-5
-1.176, 2.998e-5
-1.177, 3.062e-5
-1.178, 3.100e-5
-1.179, 3.131e-5
-1.180, 3.181e-5
-1.181, 3.247e-5
-1.182, 3.297e-5
-1.183, 3.341e-5
-1.184, 3.372e-5
-1.185, 3.427e-5
-1.186, 3.493e-5
-1.187, 3.549e-5
-1.188, 3.586e-5
-1.189, 3.627e-5
-1.190, 3.677e-5
-1.191, 3.743e-5
-1.192, 3.796e-5
-1.193, 3.829e-5
-1.194, 3.865e-5
-1.195, 3.922e-5
-1.196, 3.987e-5
-1.197, 4.033e-5
-1.198, 4.073e-5
-1.199, 4.104e-5
-1.200, 4.148e-5
-1.201, 4.206e-5
-1.202, 4.262e-5
-1.203, 4.284e-5
-1.204, 4.316e-5
-1.205, 4.356e-5
-1.206, 4.401e-5
-1.207, 4.454e-5
-1.208, 4.465e-5
-1.209, 4.491e-5
-1.210, 4.520e-5
-1.211, 4.563e-5
-1.212, 4.597e-5
-1.213, 4.608e-5
-1.214, 4.618e-5
-1.215, 4.645e-5
-1.216, 4.671e-5
-1.217, 4.695e-5
-1.218, 4.704e-5
-1.219, 4.692e-5
-1.220, 4.708e-5
-1.221, 4.719e-5
-1.222, 4.732e-5
-1.223, 4.724e-5
-1.224, 4.698e-5
-1.225, 4.695e-5
-1.226, 4.702e-5
-1.227, 4.696e-5
-1.228, 4.677e-5
-1.229, 4.646e-5
-1.230, 4.611e-5
-1.231, 4.615e-5
-1.232, 4.588e-5
-1.233, 4.532e-5
-1.234, 4.499e-5
-1.235, 4.453e-5
-1.236, 4.431e-5
-1.237, 4.407e-5
-1.238, 4.338e-5
-1.239, 4.288e-5
-1.240, 4.245e-5
-1.241, 4.216e-5
-1.242, 4.191e-5
-1.243, 4.121e-5
-1.244, 4.063e-5
-1.245, 4.028e-5
-1.246, 3.995e-5
-1.247, 3.972e-5
-1.248, 3.898e-5
-1.249, 3.849e-5
-1.250, 3.822e-5
-1.251, 3.787e-5
-1.252, 3.761e-5
-1.253, 3.703e-5
-1.254, 3.651e-5
-1.255, 3.630e-5
-1.256, 3.604e-5
-1.257, 3.586e-5
-1.258, 3.548e-5
-1.259, 3.499e-5
-1.260, 3.475e-5
-1.261, 3.463e-5
-1.262, 3.447e-5
-1.263, 3.408e-5
-1.264, 3.368e-5
-1.265, 3.346e-5
-1.266, 3.344e-5
-1.267, 3.336e-5
-1.268, 3.309e-5
-1.269, 3.274e-5
-1.270, 3.272e-5
-1.271, 3.275e-5
-1.272, 3.262e-5
-1.273, 3.226e-5
-1.274, 3.206e-5
-1.275, 3.197e-5
-1.276, 3.211e-5
-1.277, 3.219e-5
-1.278, 3.191e-5
-1.279, 3.168e-5
-1.280, 3.170e-5
-1.281, 3.186e-5
-1.282, 3.192e-5
-1.283, 3.167e-5
-1.284, 3.147e-5
-1.285, 3.154e-5
-1.286, 3.173e-5
-1.287, 3.193e-5
-1.288, 3.169e-5
-1.289, 3.164e-5
-1.290, 3.178e-5
-1.291, 3.195e-5
-1.292, 3.204e-5
-1.293, 3.191e-5
-1.294, 3.166e-5
-1.295, 3.184e-5
-1.296, 3.184e-5
-1.297, 3.202e-5
-1.298, 3.189e-5
-1.299, 3.175e-5
-1.300, 3.197e-5
-1.301, 3.210e-5
-1.302, 3.234e-5
-1.303, 3.219e-5
-1.304, 3.195e-5
-1.305, 3.201e-5
-1.306, 3.222e-5
-1.307, 3.234e-5
-1.308, 3.212e-5
-1.309, 3.207e-5
-1.310, 3.222e-5
-1.311, 3.245e-5
-1.312, 3.252e-5
-1.313, 3.239e-5
-1.314, 3.224e-5
-1.315, 3.226e-5
-1.316, 3.250e-5
-1.317, 3.270e-5
-1.318, 3.247e-5
-1.319, 3.232e-5
-1.320, 3.230e-5
-1.321, 3.251e-5
-1.322, 3.268e-5
-1.323, 3.243e-5
-1.324, 3.233e-5
-1.325, 3.246e-5
-1.326, 3.264e-5
-1.327, 3.283e-5
-1.328, 3.253e-5
-1.329, 3.239e-5
-1.330, 3.246e-5
-1.331, 3.260e-5
-1.332, 3.279e-5
-1.333, 3.270e-5
-1.334, 3.254e-5
-1.335, 3.276e-5
-1.336, 3.280e-5
-1.337, 3.282e-5
-1.338, 3.265e-5
-1.339, 3.238e-5
-1.340, 3.245e-5
-1.341, 3.264e-5
-1.342, 3.264e-5
-1.343, 3.260e-5
-1.344, 3.239e-5
-1.345, 3.237e-5
-1.346, 3.258e-5
-1.347, 3.258e-5
-1.348, 3.237e-5
-1.349, 3.210e-5
-1.350, 3.210e-5
-1.351, 3.227e-5
-1.352, 3.232e-5
-1.353, 3.211e-5
-1.354, 3.199e-5
-1.355, 3.188e-5
-1.356, 3.205e-5
-1.357, 3.213e-5
-1.358, 3.182e-5
-1.359, 3.167e-5
-1.360, 3.155e-5
-1.361, 3.164e-5
-1.362, 3.172e-5
-1.363, 3.138e-5
-1.364, 3.119e-5
-1.365, 3.117e-5
-1.366, 3.128e-5
-1.367, 3.144e-5
-1.368, 3.126e-5
-1.369, 3.116e-5
-1.370, 3.125e-5
-1.371, 3.116e-5
-1.372, 3.117e-5
-1.373, 3.088e-5
-1.374, 3.071e-5
-1.375, 3.082e-5
-1.376, 3.085e-5
-1.377, 3.110e-5
-1.378, 3.099e-5
-1.379, 3.090e-5
-1.380, 3.110e-5
-1.381, 3.128e-5
-1.382, 3.135e-5
-1.383, 3.117e-5
-1.384, 3.095e-5
-1.385, 3.113e-5
-1.386, 3.142e-5
-1.387, 3.153e-5
-1.388, 3.159e-5
-1.389, 3.160e-5
-1.390, 3.190e-5
-1.391, 3.228e-5
-1.392, 3.258e-5
-1.393, 3.257e-5
-1.394, 3.265e-5
-1.395, 3.290e-5
-1.396, 3.323e-5
-1.397, 3.369e-5
-1.398, 3.381e-5
-1.399, 3.404e-5
-1.400, 3.444e-5
-1.401, 3.496e-5
-1.402, 3.553e-5
-1.403, 3.569e-5
-1.404, 3.586e-5
-1.405, 3.641e-5
-1.406, 3.702e-5
-1.407, 3.764e-5
-1.408, 3.789e-5
-1.409, 3.831e-5
-1.410, 3.899e-5
-1.411, 3.953e-5
-1.412, 4.013e-5
-1.413, 4.057e-5
-1.414, 4.102e-5
-1.415, 4.185e-5
-1.416, 4.261e-5
-1.417, 4.346e-5
-1.418, 4.410e-5
-1.419, 4.471e-5
-1.420, 4.561e-5
-1.421, 4.666e-5
-1.422, 4.762e-5
-1.423, 4.837e-5
-1.424, 4.915e-5
-1.425, 5.030e-5
-1.426, 5.157e-5
-1.427, 5.266e-5
-1.428, 5.363e-5
-1.429, 5.464e-5
-1.430, 5.591e-5
-1.431, 5.735e-5
-1.432, 5.865e-5
-1.433, 5.995e-5
-1.434, 6.131e-5
-1.435, 6.284e-5
-1.436, 6.465e-5
-1.437, 6.643e-5
-1.438, 6.818e-5
-1.439, 6.997e-5
-1.440, 7.176e-5
-1.441, 7.355e-5
-1.442, 7.525e-5
-1.443, 7.691e-5
-1.444, 7.884e-5
-1.445, 8.123e-5
-1.446, 8.373e-5
-1.447, 8.653e-5
-1.448, 8.904e-5
-1.449, 9.172e-5
-1.450, 9.470e-5
-1.451, 9.772e-5
-1.452, 1.009e-4
-1.453, 1.040e-4
-1.454, 1.072e-4
-1.455, 1.107e-4
-1.456, 1.146e-4
-1.457, 1.188e-4
-1.458, 1.233e-4
-1.459, 1.280e-4
-1.460, 1.332e-4
-1.461, 1.387e-4
-1.462, 1.443e-4
-1.463, 1.503e-4
-1.464, 1.570e-4
-1.465, 1.644e-4
-1.466, 1.721e-4
-1.467, 1.799e-4
-1.468, 1.883e-4
-1.469, 1.976e-4
-1.470, 2.079e-4
-1.471, 2.193e-4
-1.472, 2.311e-4
-1.473, 2.436e-4
-1.474, 2.567e-4
-1.475, 2.703e-4
-1.476, 2.850e-4
-1.477, 3.010e-4
-1.478, 3.178e-4
-1.479, 3.355e-4
-1.480, 3.536e-4
-1.481, 3.725e-4
-1.482, 3.920e-4
-1.483, 4.123e-4
-1.484, 4.335e-4
-1.485, 4.558e-4
-1.486, 4.793e-4
-1.487, 5.036e-4
-1.488, 5.286e-4
-1.489, 5.544e-4
-1.490, 5.813e-4
-1.491, 6.088e-4
-1.492, 6.376e-4
-1.493, 6.670e-4
-1.494, 6.979e-4
-1.495, 7.303e-4
-1.496, 7.636e-4
-1.497, 7.983e-4
-1.498, 8.345e-4
-1.499, 8.712e-4
-1.500, 9.093e-4
-1.501, 9.488e-4
-1.502, 9.903e-4
-1.503, 1.032e-3
-1.504, 1.074e-3
-1.505, 1.120e-3
-1.506, 1.166e-3
-1.507, 1.212e-3
-1.508, 1.260e-3
-1.509, 1.308e-3
-1.510, 1.358e-3
-1.511, 1.410e-3
-1.512, 1.464e-3
-1.513, 1.518e-3
-1.514, 1.576e-3
-1.515, 1.632e-3
-1.516, 1.692e-3
-1.517, 1.752e-3
-1.518, 1.813e-3
-1.519, 1.874e-3
-1.520, 1.936e-3
-1.521, 2.000e-3
-1.522, 2.067e-3
-1.523, 2.143e-3
-1.524, 2.207e-3
-1.525, 2.271e-3
-1.526, 2.346e-3
-1.527, 2.419e-3
-1.528, 2.494e-3
-1.529, 2.565e-3
-1.530, 2.641e-3
-1.531, 2.723e-3
-1.532, 2.799e-3
-1.533, 2.875e-3
-1.534, 2.954e-3
-1.535, 3.040e-3
-1.536, 3.128e-3
-1.537, 3.207e-3
-1.538, 3.288e-3
-1.539, 3.373e-3
-1.540, 3.462e-3
-1.541, 3.550e-3
-1.542, 3.639e-3
-1.543, 3.731e-3
-1.544, 3.826e-3
-1.545, 3.913e-3
-1.546, 4.005e-3
-1.547, 4.093e-3
-1.548, 4.182e-3
-1.549, 4.269e-3
-1.550, 4.362e-3
-1.551, 4.461e-3
-1.552, 4.563e-3
-1.553, 4.665e-3
-1.554, 4.757e-3
-1.555, 4.851e-3
-1.556, 4.956e-3
-1.557, 5.063e-3
-1.558, 5.153e-3
-1.559, 5.238e-3
-1.560, 5.336e-3
-1.561, 5.442e-3
-1.562, 5.552e-3
-1.563, 5.657e-3
-1.564, 5.756e-3
-1.565, 5.854e-3
-1.566, 5.959e-3
-1.567, 6.075e-3
-1.568, 6.176e-3
-1.569, 6.278e-3
-1.570, 6.393e-3
-1.571, 6.515e-3
-1.572, 6.618e-3
-1.573, 6.735e-3
-1.574, 6.845e-3
-1.575, 6.955e-3
-1.576, 7.024e-3
-1.577, 7.121e-3
-1.578, 7.224e-3
-1.579, 7.330e-3
-1.580, 7.442e-3
-1.581, 7.524e-3
-1.582, 7.609e-3
-1.583, 7.701e-3
-1.584, 7.797e-3
-1.585, 7.920e-3
-1.586, 8.019e-3
-1.587, 8.093e-3
-1.588, 8.177e-3
-1.589, 8.273e-3
-1.590, 8.353e-3
-1.591, 8.445e-3
-1.592, 8.531e-3
-1.593, 8.620e-3
-1.594, 8.713e-3
-1.595, 8.815e-3
-1.596, 8.909e-3
-1.597, 8.969e-3
-1.598, 9.029e-3
-1.599, 9.089e-3
-1.600, 9.097e-3
-1.599, 8.961e-3
-1.598, 8.890e-3
-1.597, 8.811e-3
-1.596, 8.715e-3
-1.595, 8.564e-3
-1.594, 8.408e-3
-1.593, 8.254e-3
-1.592, 8.118e-3
-1.591, 7.973e-3
-1.590, 7.860e-3
-1.589, 7.768e-3
-1.588, 7.664e-3
-1.587, 7.555e-3
-1.586, 7.441e-3
-1.585, 7.321e-3
-1.584, 7.199e-3
-1.583, 7.093e-3
-1.582, 6.981e-3
-1.581, 6.895e-3
-1.580, 6.810e-3
-1.579, 6.739e-3
-1.578, 6.631e-3
-1.577, 6.532e-3
-1.576, 6.430e-3
-1.575, 6.325e-3
-1.574, 6.228e-3
-1.573, 6.146e-3
-1.572, 6.034e-3
-1.571, 5.940e-3
-1.570, 5.851e-3
-1.569, 5.750e-3
-1.568, 5.661e-3
-1.567, 5.565e-3
-1.566, 5.482e-3
-1.565, 5.389e-3
-1.564, 5.296e-3
-1.563, 5.208e-3
-1.562, 5.129e-3
-1.561, 5.047e-3
-1.560, 4.953e-3
-1.559, 4.877e-3
-1.558, 4.781e-3
-1.557, 4.710e-3
-1.556, 4.630e-3
-1.555, 4.548e-3
-1.554, 4.457e-3
-1.553, 4.373e-3
-1.552, 4.287e-3
-1.551, 4.208e-3
-1.550, 4.135e-3
-1.549, 4.062e-3
-1.548, 4.003e-3
-1.547, 3.937e-3
-1.546, 3.861e-3
-1.545, 3.783e-3
-1.544, 3.711e-3
-1.543, 3.636e-3
-1.542, 3.570e-3
-1.541, 3.504e-3
-1.540, 3.435e-3
-1.539, 3.366e-3
-1.538, 3.298e-3
-1.537, 3.234e-3
-1.536, 3.163e-3
-1.535, 3.097e-3
-1.534, 3.035e-3
-1.533, 2.978e-3
-1.532, 2.922e-3
-1.531, 2.870e-3
-1.530, 2.816e-3
-1.529, 2.757e-3
-1.528, 2.696e-3
-1.527, 2.645e-3
-1.526, 2.594e-3
-1.525, 2.537e-3
-1.524, 2.476e-3
-1.523, 2.415e-3
-1.522, 2.357e-3
-1.521, 2.306e-3
-1.520, 2.258e-3
-1.519, 2.203e-3
-1.518, 2.148e-3
-1.517, 2.096e-3
-1.516, 2.046e-3
-1.515, 1.993e-3
-1.514, 1.938e-3
-1.513, 1.887e-3
-1.512, 1.838e-3
-1.511, 1.790e-3
-1.510, 1.745e-3
-1.509, 1.698e-3
-1.508, 1.652e-3
-1.507, 1.608e-3
-1.506, 1.563e-3
-1.505, 1.520e-3
-1.504, 1.478e-3
-1.503, 1.433e-3
-1.502, 1.390e-3
-1.501, 1.354e-3
-1.500, 1.317e-3
-1.499, 1.281e-3
-1.498, 1.247e-3
-1.497, 1.213e-3
-1.496, 1.181e-3
-1.495, 1.149e-3
-1.494, 1.118e-3
-1.493, 1.089e-3
-1.492, 1.060e-3
-1.491, 1.033e-3
-1.490, 1.008e-3
-1.489, 9.817e-4
-1.488, 9.555e-4
-1.487, 9.303e-4
-1.486, 9.045e-4
-1.485, 8.794e-4
-1.484, 8.547e-4
-1.483, 8.305e-4
-1.482, 8.063e-4
-1.481, 7.826e-4
-1.480, 7.600e-4
-1.479, 7.374e-4
-1.478, 7.158e-4
-1.477, 6.957e-4
-1.476, 6.766e-4
-1.475, 6.575e-4
-1.474, 6.387e-4
-1.473, 6.205e-4
-1.472, 6.025e-4
-1.471, 5.847e-4
-1.470, 5.676e-4
-1.469, 5.514e-4
-1.468, 5.360e-4
-1.467, 5.212e-4
-1.466, 5.066e-4
-1.465, 4.923e-4
-1.464, 4.783e-4
-1.463, 4.644e-4
-1.462, 4.508e-4
-1.461, 4.377e-4
-1.460, 4.252e-4
-1.459, 4.131e-4
-1.458, 4.011e-4
-1.457, 3.888e-4
-1.456, 3.769e-4
-1.455, 3.649e-4
-1.454, 3.535e-4
-1.453, 3.427e-4
-1.452, 3.326e-4
-1.451, 3.230e-4
-1.450, 3.135e-4
-1.449, 3.040e-4
-1.448, 2.947e-4
-1.447, 2.856e-4
-1.446, 2.768e-4
-1.445, 2.682e-4
-1.444, 2.600e-4
-1.443, 2.518e-4
-1.442, 2.440e-4
-1.441, 2.363e-4
-1.440, 2.290e-4
-1.439, 2.218e-4
-1.438, 2.149e-4
-1.437, 2.083e-4
-1.436, 2.018e-4
-1.435, 1.955e-4
-1.434, 1.896e-4
-1.433, 1.834e-4
-1.432, 1.775e-4
-1.431, 1.719e-4
-1.430, 1.666e-4
-1.429, 1.616e-4
-1.428, 1.565e-4
-1.427, 1.516e-4
-1.426, 1.468e-4
-1.425, 1.422e-4
-1.424, 1.379e-4
-1.423, 1.335e-4
-1.422, 1.291e-4
-1.421, 1.251e-4
-1.420, 1.213e-4
-1.419, 1.177e-4
-1.418, 1.141e-4
-1.417, 1.104e-4
-1.416, 1.069e-4
-1.415, 1.035e-4
-1.414, 1.004e-4
-1.413, 9.719e-5
-1.412, 9.393e-5
-1.411, 9.083e-5
-1.410, 8.802e-5
-1.409, 8.523e-5
-1.408, 8.244e-5
-1.407, 7.968e-5
-1.406, 7.706e-5
-1.405, 7.463e-5
-1.404, 7.226e-5
-1.403, 6.966e-5
-1.402, 6.739e-5
-1.401, 6.516e-5
-1.400, 6.294e-5
-1.399, 6.084e-5
-1.398, 5.863e-5
-1.397, 5.670e-5
-1.396, 5.480e-5
-1.395, 5.298e-5
-1.394, 5.119e-5
-1.393, 4.944e-5
-1.392, 4.783e-5
-1.391, 4.611e-5
-1.390, 4.453e-5
-1.389, 4.307e-5
-1.388, 4.146e-5
-1.387, 3.990e-5
-1.386, 3.843e-5
-1.385, 3.709e-5
-1.384, 3.585e-5
-1.383, 3.445e-5
-1.382, 3.298e-5
-1.381, 3.193e-5
-1.380, 3.104e-5
-1.379, 2.994e-5
-1.378, 2.875e-5
-1.377, 2.744e-5
-1.376, 2.638e-5
-1.375, 2.526e-5
-1.374, 2.448e-5
-1.373, 2.361e-5
-1.372, 2.264e-5
-1.371, 2.154e-5
-1.370, 2.069e-5
-1.369, 1.998e-5
-1.368, 1.914e-5
-1.367, 1.826e-5
-1.366, 1.725e-5
-1.365, 1.649e-5
-1.364, 1.603e-5
-1.363, 1.523e-5
-1.362, 1.454e-5
-1.361, 1.404e-5
-1.360, 1.333e-5
-1.359, 1.262e-5
-1.358, 1.195e-5
-1.357, 1.143e-5
-1.356, 1.073e-5
-1.355, 1.025e-5
-1.354, 9.765e-6
-1.353, 9.196e-6
-1.352, 8.691e-6
-1.351, 8.104e-6
-1.350, 7.743e-6
-1.349, 7.415e-6
-1.348, 6.793e-6
-1.347, 5.988e-6
-1.346, 5.167e-6
-1.345, 4.719e-6
-1.344, 4.380e-6
-1.343, 4.054e-6
-1.342, 3.501e-6
-1.341, 2.971e-6
-1.340, 2.529e-6
-1.339, 2.230e-6
-1.338, 1.971e-6
-1.337, 1.427e-6
-1.336, 1.034e-6
-1.335, 6.894e-7
-1.334, 4.043e-7
-1.333, -1.204e-8
-1.332, -4.797e-7
-1.331, -9.266e-7
-1.330, -1.239e-6
-1.329, -1.440e-6
-1.328, -1.671e-6
-1.327, -1.990e-6
-1.326, -2.549e-6
-1.325, -2.900e-6
-1.324, -3.043e-6
-1.323, -3.638e-6
-1.322, -4.566e-6
-1.321, -5.520e-6
-1.320, -5.461e-6
-1.319, -5.230e-6
-1.318, -5.441e-6
-1.317, -6.059e-6
-1.316, -6.604e-6
-1.315, -7.109e-6
-1.314, -6.667e-6
-1.313, -6.702e-6
-1.312, -7.344e-6
-1.311, -7.886e-6
-1.310, -8.211e-6
-1.309, -8.136e-6
-1.308, -8.420e-6
-1.307, -8.447e-6
-1.306, -8.584e-6
-1.305, -9.078e-6
-1.304, -9.714e-6
-1.303, -1.058e-5
-1.302, -1.109e-5
-1.301, -1.057e-5
-1.300, -1.041e-5
-1.299, -1.072e-5
-1.298, -1.125e-5
-1.297, -1.185e-5
-1.296, -1.235e-5
-1.295, -1.229e-5
-1.294, -1.239e-5
-1.293, -1.248e-5
-1.292, -1.319e-5
-1.291, -1.418e-5
-1.290, -1.475e-5
-1.289, -1.437e-5
-1.288, -1.382e-5
-1.287, -1.410e-5
-1.286, -1.441e-5
-1.285, -1.444e-5
-1.284, -1.447e-5
-1.283, -1.475e-5
-1.282, -1.503e-5
-1.281, -1.546e-5
-1.280, -1.553e-5
-1.279, -1.553e-5
-1.278, -1.591e-5
-1.277, -1.626e-5
-1.276, -1.690e-5
-1.275, -1.725e-5
-1.274, -1.731e-5
-1.273, -1.765e-5
-1.272, -1.793e-5
-1.271, -1.836e-5
-1.270, -1.845e-5
-1.269, -1.828e-5
-1.268, -1.850e-5
-1.267, -1.898e-5
-1.266, -1.929e-5
-1.265, -1.953e-5
-1.264, -1.952e-5
-1.263, -1.977e-5
-1.262, -2.017e-5
-1.261, -2.041e-5
-1.260, -2.071e-5
-1.259, -2.070e-5
-1.258, -2.067e-5
-1.257, -2.113e-5
-1.256, -2.131e-5
-1.255, -2.155e-5
-1.254, -2.182e-5
-1.253, -2.203e-5
-1.252, -2.253e-5
-1.251, -2.266e-5
-1.250, -2.250e-5
-1.249, -2.243e-5
-1.248, -2.251e-5
-1.247, -2.292e-5
-1.246, -2.331e-5
-1.245, -2.326e-5
-1.244, -2.326e-5
-1.243, -2.360e-5
-1.242, -2.395e-5
-1.241, -2.404e-5
-1.240, -2.379e-5
-1.239, -2.379e-5
-1.238, -2.399e-5
-1.237, -2.437e-5
-1.236, -2.465e-5
-1.235, -2.475e-5
-1.234, -2.440e-5
-1.233, -2.442e-5
-1.232, -2.453e-5
-1.231, -2.470e-5
-1.230, -2.491e-5
-1.229, -2.500e-5
-1.228, -2.474e-5
-1.227, -2.489e-5
-1.226, -2.485e-5
-1.225, -2.475e-5
-1.224, -2.446e-5
-1.223, -2.449e-5
-1.222, -2.483e-5
-1.221, -2.478e-5
-1.220, -2.466e-5
-1.219, -2.440e-5
-1.218, -2.425e-5
-1.217, -2.431e-5
-1.216, -2.421e-5
-1.215, -2.398e-5
-1.214, -2.393e-5
-1.213, -2.377e-5
-1.212, -2.379e-5
-1.211, -2.370e-5
-1.210, -2.338e-5
-1.209, -2.329e-5
-1.208, -2.330e-5
-1.207, -2.333e-5
-1.206, -2.319e-5
-1.205, -2.272e-5
-1.204, -2.237e-5
-1.203, -2.225e-5
-1.202, -2.223e-5
-1.201, -2.229e-5
-1.200, -2.202e-5
-1.199, -2.165e-5
-1.198, -2.164e-5
-1.197, -2.153e-5
-1.196, -2.149e-5
-1.195, -2.126e-5
-1.194, -2.080e-5
-1.193, -2.075e-5
-1.192, -2.074e-5
-1.191, -2.066e-5
-1.190, -2.037e-5
-1.189, -2.009e-5
-1.188, -2.006e-5
-1.187, -2.020e-5
-1.186, -2.004e-5
-1.185, -1.986e-5
-1.184, -1.959e-5
-1.183, -1.945e-5
-1.182, -1.954e-5
-1.181, -1.942e-5
-1.180, -1.930e-5
-1.179, -1.909e-5
-1.178, -1.913e-5
-1.177, -1.923e-5
-1.176, -1.921e-5
-1.175, -1.908e-5
-1.174, -1.891e-5
-1.173, -1.882e-5
-1.172, -1.892e-5
-1.171, -1.889e-5
-1.170, -1.864e-5
-1.169, -1.848e-5
-1.168, -1.843e-5
-1.167, -1.853e-5
-1.166, -1.862e-5
-1.165, -1.846e-5
-1.164, -1.841e-5
-1.163, -1.845e-5
-1.162, -1.850e-5
-1.161, -1.857e-5
-1.160, -1.844e-5
-1.159, -1.831e-5
-1.158, -1.845e-5
-1.157, -1.856e-5
-1.156, -1.866e-5
-1.155, -1.859e-5
-1.154, -1.851e-5
-1.153, -1.864e-5
-1.152, -1.879e-5
-1.151, -1.894e-5
-1.150, -1.889e-5
-1.149, -1.875e-5
-1.148, -1.890e-5
-1.147, -1.919e-5
-1.146, -1.925e-5
-1.145, -1.924e-5
-1.144, -1.926e-5
-1.143, -1.940e-5
-1.142, -1.973e-5
-1.141, -1.977e-5
-1.140, -1.982e-5
-1.139, -1.984e-5
-1.138, -1.989e-5
-1.137, -2.023e-5
-1.136, -2.037e-5
-1.135, -2.040e-5
-1.134, -2.043e-5
-1.133, -2.062e-5
-1.132, -2.089e-5
-1.131, -2.110e-5
-1.130, -2.107e-5
-1.129, -2.115e-5
-1.128, -2.130e-5
-1.127, -2.157e-5
-1.126, -2.185e-5
-1.125, -2.184e-5
-1.124, -2.183e-5
-1.123, -2.205e-5
-1.122, -2.231e-5
-1.121, -2.259e-5
-1.120, -2.256e-5
-1.119, -2.257e-5
-1.118, -2.273e-5
-1.117, -2.295e-5
-1.116, -2.316e-5
-1.115, -2.317e-5
-1.114, -2.307e-5
-1.113, -2.335e-5
-1.112, -2.353e-5
-1.111, -2.373e-5
-1.110, -2.376e-5
-1.109, -2.370e-5
-1.108, -2.387e-5
-1.107, -2.418e-5
-1.106, -2.430e-5
-1.105, -2.439e-5
-1.104, -2.435e-5
-1.103, -2.456e-5
-1.102, -2.494e-5
-1.101, -2.506e-5
-1.100, -2.512e-5
-1.099, -2.519e-5
-1.098, -2.535e-5
-1.097, -2.571e-5
-1.096, -2.585e-5
-1.095, -2.594e-5
-1.094, -2.601e-5
-1.093, -2.623e-5
-1.092, -2.649e-5
-1.091, -2.674e-5
-1.090, -2.681e-5
-1.089, -2.693e-5
-1.088, -2.708e-5
-1.087, -2.740e-5
-1.086, -2.776e-5
-1.085, -2.772e-5
-1.084, -2.774e-5
-1.083, -2.806e-5
-1.082, -2.833e-5
-1.081, -2.862e-5
-1.080, -2.867e-5
-1.079, -2.869e-5
-1.078, -2.901e-5
-1.077, -2.925e-5
-1.076, -2.958e-5
-1.075, -2.971e-5
-1.074, -2.967e-5
-1.073, -2.990e-5
-1.072, -3.024e-5
-1.071, -3.047e-5
-1.070, -3.055e-5
-1.069, -3.055e-5
-1.068, -3.074e-5
-1.067, -3.115e-5
-1.066, -3.133e-5
-1.065, -3.142e-5
-1.064, -3.142e-5
-1.063, -3.157e-5
-1.062, -3.194e-5
-1.061, -3.215e-5
-1.060, -3.218e-5
-1.059, -3.227e-5
-1.058, -3.235e-5
-1.057, -3.272e-5
-1.056, -3.289e-5
-1.055, -3.293e-5
-1.054, -3.295e-5
-1.053, -3.296e-5
-1.052, -3.336e-5
-1.051, -3.358e-5
-1.050, -3.352e-5
-1.049, -3.352e-5
-1.048, -3.361e-5
-1.047, -3.392e-5
-1.046, -3.410e-5
-1.045, -3.411e-5
-1.044, -3.388e-5
-1.043, -3.419e-5
-1.042, -3.448e-5
-1.041, -3.458e-5
-1.040, -3.445e-5
-1.039, -3.435e-5
-1.038, -3.459e-5
-1.037, -3.474e-5
-1.036, -3.491e-5
-1.035, -3.483e-5
-1.034, -3.470e-5
-1.033, -3.484e-5
-1.032, -3.502e-5
-1.031, -3.515e-5
-1.030, -3.509e-5
-1.029, -3.492e-5
-1.028, -3.501e-5
-1.027, -3.523e-5
-1.026, -3.529e-5
-1.025, -3.526e-5
-1.024, -3.512e-5
-1.023, -3.513e-5
-1.022, -3.539e-5
-1.021, -3.539e-5
-1.020, -3.525e-5
-1.019, -3.519e-5
-1.018, -3.513e-5
-1.017, -3.539e-5
-1.016, -3.542e-5
-1.015, -3.525e-5
-1.014, -3.511e-5
-1.013, -3.510e-5
-1.012, -3.529e-5
-1.011, -3.534e-5
-1.010, -3.516e-5
-1.009, -3.500e-5
-1.008, -3.499e-5
-1.007, -3.520e-5
-1.006, -3.528e-5
-1.005, -3.496e-5
-1.004, -3.482e-5
-1.003, -3.493e-5
-1.002, -3.500e-5
-1.001, -3.504e-5
