Potential V vs RHE, Current mA cm-2
0.013299999999999867,14.65640906660178
0.012299999999999978,12.95168195026441
0.011299999999999866,11.38135240741422
0.010299999999999976,9.986447065747294
0.009299999999999864,8.63398306307632
0.008299999999999974,7.369231160996977
0.007299999999999862,6.060623208621817
0.006299999999999972,4.708159205950842
0.00529999999999986,3.2693978139880997
0.0042999999999999705,1.9169338113171246
0.0032999999999998586,0.6084673300719523
0.0022999999999999687,-0.6128529351015338
0.0012999999999998568,-1.7033124050375041
0.00029999999999996696,-2.706342716641815
-0.000700000000000145,-3.7970851288377587
-0.0017000000000000348,-4.974124930325469
-0.0027000000000001467,-6.238876832404812
-0.0037000000000000366,-7.461187395488204
-0.0047000000000001485,-8.638227196975913
-0.005700000000000038,-9.728969609171857
-0.00670000000000015,-10.688143870480351
-0.00770000000000004,-11.604876792792895
-0.008700000000000152,-12.56405105410139
-0.009700000000000042,-13.610937416001518
-0.010700000000000154,-14.69885040559773
-0.011700000000000044,-15.830619445489761
-0.012700000000000156,-16.962388485381787
-0.013700000000000045,-17.924392169290012
-0.014700000000000157,-18.843954514202288
-0.015700000000000047,-19.678634181122664
-0.01670000000000016,-20.541608074040333
-0.01770000000000005,-21.503611757948562
-0.01870000000000016,-22.46561544185678
-0.01970000000000005,-23.51250180375691
-0.020700000000000163,-24.559388165657033
-0.021700000000000053,-25.521391849565262
-0.022700000000000164,-26.34192440348698
-0.023700000000000054,-27.134162731411404
-0.024700000000000166,-27.912253946337174
-0.025700000000000056,-28.704492274261593
-0.026700000000000168,-29.62405461917387
-0.027700000000000058,-30.614352529079397
-0.02870000000000017,-31.618797551983565
-0.02970000000000006,-32.53835989689585
-0.03070000000000017,-33.41548090281216
-0.03170000000000006,-34.15113077874198
-0.03270000000000017,-34.85848642867451
-0.03370000000000006,-35.594136304604326
-0.034700000000000175,-36.329786180534136
-0.035700000000000065,-37.206907186450465
-0.03670000000000018,-38.12646953136274
-0.03770000000000007,-38.98944342428042
-0.03870000000000018,-39.82412309120078
-0.03970000000000007,-40.4748902891387
-0.04070000000000018,-41.182245939071215
-0.04170000000000007,-41.87545447600508
-0.04270000000000018,-42.6111043519349
-0.04370000000000007,-43.53066669684718
-0.044700000000000184,-44.45022904175945
-0.045700000000000074,-45.412232725667685
-0.046700000000000186,-46.27520661858535
-0.047700000000000076,-47.02500360751382
-0.04870000000000019,-47.76065348344364
-0.04970000000000008,-48.41142068138156
-0.05070000000000019,-49.076334992318124
-0.05170000000000008,-49.85442620724389
-0.05270000000000019,-50.64666453516831
-0.05370000000000008,-51.509638428085985
-0.05470000000000019,-52.30187675601041
-0.05570000000000008,-52.995085292944275
-0.056700000000000195,-53.64585249088219
-0.057700000000000085,-54.26832546282281
-0.058700000000000196,-54.876651321764776
-0.059700000000000086,-55.612301197694585
-0.0607000000000002,-56.404539525619015
-0.06170000000000009,-57.352396096528594
-0.0627000000000002,-58.22951710244491
-0.06370000000000009,-58.92272563937878
-0.0647000000000002,-59.54519861131939
-0.06570000000000009,-60.15352447026136
-0.0667000000000002,-60.71940899020737
-0.0677000000000001,-61.412617527141244
-0.0687000000000002,-62.16241451606972
-0.0697000000000001,-62.94050573099548
-0.07070000000000021,-63.732744058919906
-0.0717000000000001,-64.42595259585376
-0.07270000000000021,-65.0767197937917
-0.0737000000000001,-65.76992833072556
-0.07470000000000021,-66.39240130266617
-0.0757000000000001,-67.128051178596
-0.07670000000000021,-67.96273084551636
-0.0777000000000001,-68.86814607742998
-0.07870000000000021,-69.78770842234226
-0.0797000000000001,-70.62238808926263
-0.08070000000000022,-71.35803796519245
-0.0817000000000001,-71.92392248513846
-0.08270000000000022,-72.44736566608852
-0.08370000000000011,-73.01325018603454
-0.08470000000000022,-73.6781644969711
-0.08570000000000011,-74.45625571189689
-0.08670000000000022,-75.29093537881725
-0.08770000000000011,-76.06902659374302
-0.08870000000000022,-76.86126492166746
-0.08970000000000011,-77.51203211960537
-0.09070000000000022,-78.07791663955136
-0.09170000000000011,-78.72868383748929
-0.09270000000000023,-79.42189237442317
-0.09370000000000012,-80.21413070234757
-0.09470000000000023,-81.09125170826391
-0.09570000000000012,-81.91178426218562
-0.09670000000000023,-82.70402259011003
-0.09770000000000012,-83.39723112704392
-0.09870000000000023,-84.00555698598588
-0.09970000000000012,-84.57144150593189
-0.10070000000000023,-85.23635581686847
-0.10170000000000012,-85.92956435380233
-0.10270000000000024,-86.75009690772404
-0.10370000000000013,-87.62721791364037
-0.10470000000000024,-88.54678025855264
-0.10570000000000013,-89.28243013448247
-0.10670000000000024,-89.94734444541903
-0.10770000000000013,-90.51322896536506
-0.10870000000000024,-91.12155482430701
-0.10970000000000013,-91.77232202224494
-0.11070000000000024,-92.6070016891653
-0.11170000000000013,-93.51241692107894
-0.11270000000000002,-94.38953792699526
-0.11370000000000013,-95.12518780292505
-0.11470000000000002,-95.79010211386164
-0.11570000000000014,-96.44086931179956
-0.11670000000000003,-97.04919517074151
-0.11770000000000014,-97.74240370767538
-0.11870000000000003,-98.57708337459576
-0.11970000000000014,-99.45420438051207
-0.12070000000000003,-100.31717827342976
-0.12170000000000014,-101.06697526235823
-0.12270000000000003,-101.71774246029614
-0.12370000000000014,-102.36850965823406
-0.12470000000000003,-102.89195283918411
-0.12570000000000014,-103.50027869812607
-0.12670000000000003,-104.25007568705455
-0.12770000000000015,-105.07060824097626
-0.12870000000000004,-105.94772924689259
-0.12970000000000015,-106.73996757481702
-0.13070000000000004,-107.47561745074682
-0.13170000000000015,-108.0839433096888
-0.13270000000000004,-108.60738649063886
-0.13370000000000015,-109.17327101058488
-0.13470000000000004,-109.8806266605174
-0.13570000000000015,-110.70115921443913
-0.13670000000000004,-111.6207215593514
-0.13770000000000016,-112.54028390426367
-0.13870000000000005,-113.31837511918944
-0.13970000000000016,-114.05402499511925
-0.14070000000000005,-114.67649796705987
-0.14170000000000016,-115.4121478429897
-0.14270000000000005,-116.20438617091412
-0.14370000000000016,-117.10980140282774
-0.14470000000000005,-118.07180508673595
-0.14570000000000016,-118.94892609265229
-0.14670000000000005,-119.64213462958614
-0.14770000000000016,-120.29290182752408
-0.14870000000000005,-120.85878634747009
-0.14970000000000017,-121.56614199740261
-0.15070000000000006,-122.21690919534053
-0.15170000000000017,-123.00914752326493
-0.15270000000000006,-123.82968007718667
-0.15370000000000017,-124.62191840511109
-0.15470000000000006,-125.272685603049
-0.15570000000000017,-125.92345280098691
-0.15670000000000006,-126.57421999892482
-0.15770000000000017,-127.28157564885734
-0.15870000000000006,-128.01722552478716
-0.15970000000000018,-128.85190519170752
-0.16070000000000007,-129.75732042362114
-0.16170000000000018,-130.76176544652535
-0.16270000000000007,-131.72376913043357
-0.16370000000000018,-132.60089013634988
-0.16470000000000007,-133.29409867328377
-0.16570000000000018,-133.8599831932298
-0.16670000000000007,-134.46830905217172
-0.16770000000000018,-135.09078202411234
-0.16870000000000007,-135.82643190004217
-0.16970000000000018,-136.60452311496792
-0.17070000000000007,-137.43920278188833
-0.17170000000000019,-138.17485265781812
-0.17270000000000008,-138.8397669687547
-0.1737000000000002,-139.4056514887007
-0.17470000000000008,-140.05641868663866
-0.1757000000000002,-140.79206856256846
-0.17670000000000008,-141.61260111649017
-0.1777000000000002,-142.31995676642268
-0.17870000000000008,-143.16878354634173
-0.1797000000000002,-143.87613919627424
-0.18070000000000008,-144.58349484620675
-0.1817000000000002,-145.29085049613926
-0.18270000000000008,-145.85673501608528
-0.1837000000000002,-146.5640906660178
-0.1847000000000001,-147.27144631595033
-0.1857000000000002,-147.83733083589632
-0.1867000000000001,-148.68615761581535
-0.1877000000000002,-149.6764555257209
-0.1887000000000001,-150.5252823056399
-0.1897000000000002,-151.23263795557244
-0.1907000000000001,-151.93999360550492
-0.1917000000000001,-152.64734925543743
-0.19269999999999998,-153.63764716534297
-0.1937000000000001,-154.486473945262
-0.19469999999999998,-155.47677185516753
-0.1957000000000001,-156.46706976507306
-0.19669999999999999,-157.17442541500557
-0.1977000000000001,-157.7403099349516
-0.1987,-158.02325219492457
-0.1997000000000001,-158.4476655848841
-0.2007,-159.15502123481662
-0.2017000000000001,-159.86237688474912
-0.2027,-160.71120366466818
-0.2037000000000001,-161.5600304445872
-0.2047,-162.40885722450622
-0.2057000000000001,-163.25768400442522
-0.2067,-163.96503965435775
-0.2077000000000001,-164.67239530429026
-0.2087,-165.3797509542228
-0.2097000000000001,-166.0871066041553
-0.2107,-166.79446225408785
-0.2117000000000001,-167.6432890340068
-0.2127,-168.49211581392586
-0.2137000000000001,-169.3409425938449
-0.2147,-170.0482982437774
-0.2157000000000001,-170.61418276372342
-0.2167,-171.03859615368293
-0.21770000000000012,-171.74595180361547
-0.2187,-172.59477858353446
-0.21970000000000012,-173.44360536345349
-0.2207,-174.2924321433725
-0.22170000000000012,-175.14125892329156
-0.2227,-175.84861457322407
-0.22370000000000012,-176.27302796318358
-0.2247,-176.8389124831296
-0.22570000000000012,-177.54626813306209
-0.2267,-178.3950949129811
-0.22770000000000012,-179.38539282288664
-0.22870000000000001,-180.37569073279218
-0.22970000000000013,-181.36598864269772
-0.23070000000000002,-182.21481542261674
-0.23170000000000013,-182.92217107254925
-0.23270000000000002,-183.62952672248176
-0.23370000000000013,-184.33688237241427
-0.23470000000000002,-185.0442380223468
-0.23570000000000013,-185.6101225422928
-0.23670000000000002,-186.31747819222534
-0.2376999999999999,-187.02483384215788
-0.23870000000000002,-187.59071836210387
-0.2396999999999999,-188.15660288204987
-0.24070000000000003,-188.58101627200938
-0.24169999999999991,-189.1469007919554
-0.24270000000000003,-189.71278531190143
-0.24369999999999992,-190.56161209182042
-0.24470000000000003,-191.41043887173947
-0.24569999999999992,-192.2592656516585
-0.24670000000000003,-193.10809243157752
-0.24769999999999992,-193.81544808151003
-0.24870000000000003,-194.2398614714695
-0.24969999999999992,-194.80574599141553
-0.25070000000000003,-195.51310164134807
-0.2516999999999999,-196.2204572912806
-0.25270000000000004,-197.0692840711996
-0.2536999999999999,-197.77663972113214
-0.25470000000000004,-198.48399537106465
-0.2556999999999999,-199.19135102099716
-0.25670000000000004,-199.89870667092967
-0.25769999999999993,-200.4645911908757
-0.25870000000000004,-201.17194684080823
-0.25969999999999993,-202.02077362072723
-0.26070000000000004,-202.7281292706598
-0.26169999999999993,-203.57695605057876
-0.26270000000000004,-204.2843117005113
-0.26369999999999993,-205.13313848043032
-0.26470000000000005,-205.84049413036286
-0.26569999999999994,-206.54784978029537
-0.26670000000000005,-207.25520543022787
-0.26769999999999994,-207.96256108016038
-0.26870000000000005,-208.95285899006592
-0.26969999999999994,-209.8016857699849
-0.27070000000000005,-210.65051254990397
-0.27169999999999994,-211.499339329823
-0.27270000000000005,-212.2066949797555
-0.27369999999999994,-212.77257949970152
-0.27470000000000006,-213.19699288966103
-0.27569999999999995,-213.90434853959354
-0.27670000000000006,-214.75317531951256
-0.27769999999999995,-215.4605309694451
-0.27870000000000006,-216.3093577493641
-0.27969999999999995,-217.01671339929663
-0.28070000000000006,-217.58259791924263
-0.28169999999999995,-218.14848243918865
-0.28270000000000006,-218.57289582914817
-0.28369999999999995,-218.99730921910768
-0.28470000000000006,-219.7046648690402
-0.28569999999999995,-220.41202051897272
-0.28670000000000007,-221.26084729889175
-0.28769999999999996,-221.82673181883774
-0.28870000000000007,-222.53408746877028
-0.28969999999999996,-223.09997198871628
-0.29070000000000007,-223.52438537867582
-0.29169999999999996,-224.09026989862178
-0.29270000000000007,-224.65615441856778
-0.29369999999999996,-225.50498119848683
-0.2947000000000001,-226.35380797840588
-0.29569999999999996,-227.2026347583249
-0.2967000000000001,-228.0514615382439
-0.29769999999999996,-228.61734605818995
-0.2987000000000001,-229.04175944814943
-0.29969999999999997,-229.46617283810895
-0.3007000000000001,-230.03205735805497
-0.30169999999999997,-230.59794187800094
-0.3027000000000001,-231.163826397947
-0.30369999999999997,-232.72000882779852
-0.3047000000000001,-234.13472012766357
-0.30569999999999997,-234.55913351762308
-0.3067000000000001,-235.69090255751513
-0.3077,-236.3982582074476
-0.3087000000000001,-237.10561385738015
-0.3097,-237.9544406372992
-0.3107000000000001,-238.8032674172182
-0.3117,-239.5106230671507
-0.3127000000000001,-240.0765075870967
-0.3137,-240.50092097705624
-0.3147000000000001,-240.92533436701575
-0.3157,-241.06680549700224
-0.3167000000000001,-241.34974775697523
-0.3177,-241.77416114693477
-0.3187000000000001,-242.62298792685377
-0.3197,-243.75475696674582
-0.3207000000000001,-244.60358374666484
-0.3217,-245.45241052658386
-0.3227000000000001,-246.15976617651637
-0.3237,-246.8671218264489
-0.3247000000000001,-247.2915352164084
-0.3257,-247.85741973635444
-0.3267000000000001,-248.28183312631393
-0.3277,-248.70624651627344
-0.3287000000000001,-249.2721310362195
-0.3297,-249.83801555616546
-0.3307000000000001,-250.262428946125
-0.3317,-250.9697845960575
-0.3327000000000001,-251.53566911600356
-0.3337,-251.96008250596302
-0.3347000000000001,-252.52596702590907
-0.3357,-252.95038041586852
-0.3367000000000001,-253.65773606580112
-0.3377,-254.36509171573357
-0.3387000000000001,-254.78950510569314
-0.3397,-255.35538962563913
-0.3407000000000001,-255.92127414558513
-0.3417,-256.4871586655312
-0.3427000000000001,-257.1945143154637
-0.3437,-257.90186996539614
-0.3447000000000001,-258.7506967453152
-0.3457,-259.4580523952477
-0.3467000000000001,-260.02393691519376
-0.3477,-260.58982143513975
-0.3487000000000001,-261.01423482509927
-0.3497,-261.58011934504526
-0.3507000000000001,-262.1460038649913
-0.3517,-262.7118883849373
-0.3527000000000001,-263.41924403486985
-0.3537,-264.12659968480233
-0.3547000000000001,-264.6924842047484
-0.3557,-265.5413109846674
-0.35670000000000013,-266.1071955046134
-0.3577,-266.5316088945729
-0.35870000000000013,-266.9560222845325
-0.3597,-267.6633779344649
-0.36070000000000013,-268.22926245441096
-0.3617,-269.07808923433
-0.3626999999999999,-269.64397375427603
-0.3637,-270.0683871442355
-0.3646999999999999,-270.35132940420846
-0.3657,-270.63427166418154
-0.3666999999999999,-271.05868505414105
-0.3677,-271.62456957408705
-0.3686999999999999,-272.3319252240195
-0.36970000000000003,-273.03928087395207
-0.3706999999999999,-273.7466365238846
-0.37170000000000003,-274.0295787838576
-0.3726999999999999,-274.0295787838576
-0.37370000000000003,-273.8881076538711
-0.3746999999999999,-274.1710499138441
-0.37570000000000003,-274.5954633038036
-0.3766999999999999,-275.30281895373616
-0.37770000000000004,-276.15164573365513
-0.3786999999999999,-277.1419436435607
-0.37970000000000004,-277.9907704234797
-0.3806999999999999,-278.8395972033987
-0.38170000000000004,-279.5469528533313
-0.38269999999999993,-280.25430850326376
-0.38370000000000004,-280.82019302320975
-0.38469999999999993,-281.3860775431558
-0.38570000000000004,-281.9519620631018
-0.38669999999999993,-281.24460641316927
-0.38570000000000004,-277.9907704234797
-0.38469999999999993,-274.87840556377665
-0.38370000000000004,-271.9075118340601
-0.38269999999999993,-269.07808923433
-0.38170000000000004,-266.2486666345999
-0.3806999999999999,-263.41924403486985
-0.37970000000000004,-260.8727636951128
-0.3786999999999999,-258.4677544853422
-0.37770000000000004,-256.0627452755717
-0.3766999999999999,-253.65773606580112
-0.37570000000000003,-251.25272685603056
-0.3746999999999999,-248.70624651627344
-0.37370000000000003,-246.15976617651637
-0.3726999999999999,-243.75475696674582
-0.37170000000000003,-241.34974775697523
-0.3706999999999999,-239.0862096771912
-0.36970000000000003,-236.6812004674206
-0.3686999999999999,-234.13472012766357
-0.3677,-231.5882397879065
-0.3666999999999999,-229.04175944814943
-0.3657,-226.35380797840588
-0.3646999999999999,-223.9487987686353
-0.3637,-221.54378955886475
-0.3626999999999999,-219.5631937390537
-0.3617,-217.44112678925615
-0.36070000000000013,-215.31905983945856
-0.3597,-213.19699288966103
-0.35870000000000013,-211.07492593986345
-0.3577,-208.6699167300929
-0.35670000000000013,-206.26490752032234
-0.3557,-204.0013694405383
-0.3547000000000001,-201.87930249074074
-0.3537,-200.04017780091618
-0.3527000000000001,-198.05958198110514
-0.3517,-196.0789861612941
-0.3507000000000001,-193.9569192114965
-0.3497,-191.9763233916855
-0.3487000000000001,-189.8542564418879
-0.3477,-187.73218949209036
-0.3467000000000001,-185.6101225422928
-0.3457,-183.48805559249527
-0.3447000000000001,-181.5074597726842
-0.3437,-179.38539282288664
-0.3427000000000001,-177.4047970030756
-0.3417,-175.28273005327804
-0.3407000000000001,-173.01919197349397
-0.3397,-170.89712502369645
-0.3387000000000001,-168.77505807389886
-0.3377,-166.79446225408785
-0.3367000000000001,-165.09680869424977
-0.3357,-163.39915513441173
-0.3347000000000001,-161.70150157457368
-0.3337,-159.86237688474912
-0.3327000000000001,-157.7403099349516
-0.3317,-155.75971411514055
-0.3307000000000001,-153.77911829532948
-0.3297,-151.93999360550492
-0.3287000000000001,-150.24234004566688
-0.3277,-148.54468648582886
-0.3267000000000001,-146.8470329259908
-0.3257,-145.00790823616626
-0.3247000000000001,-142.8858412863687
-0.3237,-140.62230320658463
-0.3227000000000001,-138.57097182178035
-0.3217,-136.60452311496792
-0.3207000000000001,-134.82198687713802
-0.3197,-133.08189197830401
-0.3187000000000001,-131.32764996647134
-0.3177,-129.58755506763737
-0.3167000000000001,-127.80501882980741
-0.3157,-126.00833547897882
-0.3147000000000001,-124.26824058014482
-0.3137,-122.61302835930273
-0.3127000000000001,-121.04269881645253
-0.3117,-119.38748659561045
-0.3107000000000001,-117.67568592277377
-0.3097,-115.97803236293572
-0.3087000000000001,-114.1530547861098
-0.3077,-112.31393009628526
-0.3067000000000001,-110.4465111804634
-0.30569999999999997,-108.69226916863077
-0.3047000000000001,-107.12193962578058
-0.30369999999999997,-105.63649276092228
-0.3027000000000001,-104.06616321807209
-0.30169999999999997,-102.45339233622596
-0.3007000000000001,-100.75573877638791
-0.29969999999999997,-99.05808521654988
-0.2987000000000001,-97.26140186572127
-0.29769999999999996,-95.60618964487918
-0.2967000000000001,-94.03586010202899
-0.29569999999999996,-92.50797189817473
-0.2947000000000001,-91.07911348531105
-0.29369999999999996,-89.59366662045278
-0.29270000000000007,-88.02333707760259
-0.29169999999999996,-86.41056619575643
-0.29070000000000007,-84.75535397491434
-0.28969999999999996,-83.04355330207765
-0.28870000000000007,-81.43078242023151
-0.28769999999999996,-79.90289421637728
-0.28670000000000007,-78.47403580351359
-0.28569999999999995,-77.03103027765125
-0.28470000000000006,-75.5880247517889
-0.28369999999999995,-74.10257788693062
-0.28270000000000006,-72.48980700508447
-0.28169999999999995,-70.91947746223428
-0.28070000000000006,-69.43403059737601
-0.27969999999999995,-68.04761352350828
-0.27870000000000006,-66.77437335362974
-0.27769999999999995,-65.4728389577539
-0.27670000000000006,-64.11471610988345
-0.27569999999999995,-62.64341635802381
-0.27470000000000006,-61.01649836317903
-0.27369999999999994,-59.31884480334099
-0.27270000000000005,-57.8333979384827
-0.27169999999999994,-56.44698086461496
-0.27070000000000005,-55.17374069473642
-0.26969999999999994,-53.872206298860604
-0.26870000000000005,-52.59896612898206
