Dec. 28, 2024   22:41:16
Linear Sweep Voltammetry
File: c:/users/guazh/data/banditlqround7_x0exp136_r20/2024-12-24-exp771\1acid_2ac-2024-12-28t22_38_02-lsvinphos\1acid_2ac_lsv_50mvs_efin_-2300mv.bin
Data Source:  Experiment
Instrument Model:  CHI760E
Header: LSV ran at 50 mVs with Efin at -2300mV
Note: 

Init E (V) = -0.6
Final E (V) = -2.3
Scan Rate (V/s) = 0.05
Sample Interval (V) = 0.001
Quiet Time (sec) = 2
Sensitivity (A/V) = 1e-4
Comp R (ohm) = 10.1

Results:

Channel 1:
Ep = -1.668V
ip = 6.216e-4A
Ah = 7.689e-4C

Potential/V, Current/A

-0.600, 1.622e-5
-0.601, 1.650e-5
-0.602, 1.661e-5
-0.603, 1.667e-5
-0.604, 1.673e-5
-0.605, 1.677e-5
-0.606, 1.681e-5
-0.607, 1.684e-5
-0.608, 1.687e-5
-0.609, 1.689e-5
-0.610, 1.691e-5
-0.611, 1.696e-5
-0.612, 1.697e-5
-0.613, 1.698e-5
-0.614, 1.700e-5
-0.615, 1.702e-5
-0.616, 1.704e-5
-0.617, 1.705e-5
-0.618, 1.707e-5
-0.619, 1.709e-5
-0.620, 1.711e-5
-0.621, 1.716e-5
-0.622, 1.719e-5
-0.623, 1.719e-5
-0.624, 1.719e-5
-0.625, 1.720e-5
-0.626, 1.722e-5
-0.627, 1.725e-5
-0.628, 1.727e-5
-0.629, 1.728e-5
-0.630, 1.730e-5
-0.631, 1.732e-5
-0.632, 1.734e-5
-0.633, 1.734e-5
-0.634, 1.737e-5
-0.635, 1.736e-5
-0.636, 1.739e-5
-0.637, 1.745e-5
-0.638, 1.745e-5
-0.639, 1.745e-5
-0.640, 1.748e-5
-0.641, 1.749e-5
-0.642, 1.750e-5
-0.643, 1.750e-5
-0.644, 1.750e-5
-0.645, 1.752e-5
-0.646, 1.753e-5
-0.647, 1.755e-5
-0.648, 1.756e-5
-0.649, 1.758e-5
-0.650, 1.758e-5
-0.651, 1.761e-5
-0.652, 1.761e-5
-0.653, 1.761e-5
-0.654, 1.762e-5
-0.655, 1.763e-5
-0.656, 1.763e-5
-0.657, 1.764e-5
-0.658, 1.765e-5
-0.659, 1.764e-5
-0.660, 1.766e-5
-0.661, 1.767e-5
-0.662, 1.769e-5
-0.663, 1.769e-5
-0.664, 1.768e-5
-0.665, 1.769e-5
-0.666, 1.775e-5
-0.667, 1.776e-5
-0.668, 1.774e-5
-0.669, 1.774e-5
-0.670, 1.774e-5
-0.671, 1.776e-5
-0.672, 1.776e-5
-0.673, 1.776e-5
-0.674, 1.775e-5
-0.675, 1.775e-5
-0.676, 1.775e-5
-0.677, 1.776e-5
-0.678, 1.776e-5
-0.679, 1.775e-5
-0.680, 1.775e-5
-0.681, 1.777e-5
-0.682, 1.778e-5
-0.683, 1.778e-5
-0.684, 1.776e-5
-0.685, 1.775e-5
-0.686, 1.777e-5
-0.687, 1.778e-5
-0.688, 1.777e-5
-0.689, 1.776e-5
-0.690, 1.776e-5
-0.691, 1.778e-5
-0.692, 1.779e-5
-0.693, 1.778e-5
-0.694, 1.776e-5
-0.695, 1.777e-5
-0.696, 1.777e-5
-0.697, 1.778e-5
-0.698, 1.778e-5
-0.699, 1.777e-5
-0.700, 1.776e-5
-0.701, 1.777e-5
-0.702, 1.777e-5
-0.703, 1.776e-5
-0.704, 1.775e-5
-0.705, 1.775e-5
-0.706, 1.777e-5
-0.707, 1.777e-5
-0.708, 1.776e-5
-0.709, 1.776e-5
-0.710, 1.774e-5
-0.711, 1.775e-5
-0.712, 1.775e-5
-0.713, 1.776e-5
-0.714, 1.775e-5
-0.715, 1.774e-5
-0.716, 1.773e-5
-0.717, 1.773e-5
-0.718, 1.775e-5
-0.719, 1.772e-5
-0.720, 1.770e-5
-0.721, 1.770e-5
-0.722, 1.770e-5
-0.723, 1.770e-5
-0.724, 1.771e-5
-0.725, 1.771e-5
-0.726, 1.771e-5
-0.727, 1.773e-5
-0.728, 1.772e-5
-0.729, 1.770e-5
-0.730, 1.768e-5
-0.731, 1.768e-5
-0.732, 1.768e-5
-0.733, 1.765e-5
-0.734, 1.764e-5
-0.735, 1.764e-5
-0.736, 1.766e-5
-0.737, 1.766e-5
-0.738, 1.764e-5
-0.739, 1.763e-5
-0.740, 1.766e-5
-0.741, 1.766e-5
-0.742, 1.765e-5
-0.743, 1.763e-5
-0.744, 1.763e-5
-0.745, 1.763e-5
-0.746, 1.763e-5
-0.747, 1.762e-5
-0.748, 1.762e-5
-0.749, 1.760e-5
-0.750, 1.759e-5
-0.751, 1.762e-5
-0.752, 1.760e-5
-0.753, 1.759e-5
-0.754, 1.757e-5
-0.755, 1.758e-5
-0.756, 1.759e-5
-0.757, 1.757e-5
-0.758, 1.756e-5
-0.759, 1.755e-5
-0.760, 1.754e-5
-0.761, 1.756e-5
-0.762, 1.757e-5
-0.763, 1.755e-5
-0.764, 1.754e-5
-0.765, 1.753e-5
-0.766, 1.754e-5
-0.767, 1.755e-5
-0.768, 1.754e-5
-0.769, 1.753e-5
-0.770, 1.752e-5
-0.771, 1.752e-5
-0.772, 1.752e-5
-0.773, 1.752e-5
-0.774, 1.751e-5
-0.775, 1.751e-5
-0.776, 1.752e-5
-0.777, 1.751e-5
-0.778, 1.750e-5
-0.779, 1.750e-5
-0.780, 1.749e-5
-0.781, 1.750e-5
-0.782, 1.750e-5
-0.783, 1.750e-5
-0.784, 1.750e-5
-0.785, 1.751e-5
-0.786, 1.750e-5
-0.787, 1.750e-5
-0.788, 1.750e-5
-0.789, 1.749e-5
-0.790, 1.749e-5
-0.791, 1.750e-5
-0.792, 1.750e-5
-0.793, 1.750e-5
-0.794, 1.749e-5
-0.795, 1.750e-5
-0.796, 1.751e-5
-0.797, 1.751e-5
-0.798, 1.750e-5
-0.799, 1.750e-5
-0.800, 1.751e-5
-0.801, 1.751e-5
-0.802, 1.753e-5
-0.803, 1.753e-5
-0.804, 1.751e-5
-0.805, 1.752e-5
-0.806, 1.754e-5
-0.807, 1.753e-5
-0.808, 1.752e-5
-0.809, 1.753e-5
-0.810, 1.753e-5
-0.811, 1.754e-5
-0.812, 1.754e-5
-0.813, 1.754e-5
-0.814, 1.754e-5
-0.815, 1.756e-5
-0.816, 1.756e-5
-0.817, 1.756e-5
-0.818, 1.757e-5
-0.819, 1.757e-5
-0.820, 1.758e-5
-0.821, 1.760e-5
-0.822, 1.761e-5
-0.823, 1.761e-5
-0.824, 1.762e-5
-0.825, 1.762e-5
-0.826, 1.762e-5
-0.827, 1.765e-5
-0.828, 1.765e-5
-0.829, 1.766e-5
-0.830, 1.768e-5
-0.831, 1.770e-5
-0.832, 1.768e-5
-0.833, 1.769e-5
-0.834, 1.769e-5
-0.835, 1.771e-5
-0.836, 1.773e-5
-0.837, 1.774e-5
-0.838, 1.775e-5
-0.839, 1.775e-5
-0.840, 1.777e-5
-0.841, 1.784e-5
-0.842, 1.793e-5
-0.843, 1.790e-5
-0.844, 1.788e-5
-0.845, 1.789e-5
-0.846, 1.791e-5
-0.847, 1.793e-5
-0.848, 1.794e-5
-0.849, 1.795e-5
-0.850, 1.797e-5
-0.851, 1.798e-5
-0.852, 1.801e-5
-0.853, 1.802e-5
-0.854, 1.803e-5
-0.855, 1.806e-5
-0.856, 1.808e-5
-0.857, 1.810e-5
-0.858, 1.811e-5
-0.859, 1.813e-5
-0.860, 1.817e-5
-0.861, 1.821e-5
-0.862, 1.823e-5
-0.863, 1.824e-5
-0.864, 1.827e-5
-0.865, 1.829e-5
-0.866, 1.834e-5
-0.867, 1.838e-5
-0.868, 1.841e-5
-0.869, 1.844e-5
-0.870, 1.849e-5
-0.871, 1.853e-5
-0.872, 1.858e-5
-0.873, 1.862e-5
-0.874, 1.866e-5
-0.875, 1.870e-5
-0.876, 1.875e-5
-0.877, 1.879e-5
-0.878, 1.884e-5
-0.879, 1.889e-5
-0.880, 1.895e-5
-0.881, 1.902e-5
-0.882, 1.909e-5
-0.883, 1.916e-5
-0.884, 1.921e-5
-0.885, 1.928e-5
-0.886, 1.936e-5
-0.887, 1.945e-5
-0.888, 1.953e-5
-0.889, 1.960e-5
-0.890, 1.969e-5
-0.891, 1.978e-5
-0.892, 1.986e-5
-0.893, 1.995e-5
-0.894, 2.005e-5
-0.895, 2.014e-5
-0.896, 2.023e-5
-0.897, 2.033e-5
-0.898, 2.042e-5
-0.899, 2.053e-5
-0.900, 2.064e-5
-0.901, 2.076e-5
-0.902, 2.088e-5
-0.903, 2.100e-5
-0.904, 2.111e-5
-0.905, 2.124e-5
-0.906, 2.136e-5
-0.907, 2.147e-5
-0.908, 2.158e-5
-0.909, 2.170e-5
-0.910, 2.183e-5
-0.911, 2.195e-5
-0.912, 2.208e-5
-0.913, 2.220e-5
-0.914, 2.232e-5
-0.915, 2.245e-5
-0.916, 2.259e-5
-0.917, 2.272e-5
-0.918, 2.283e-5
-0.919, 2.294e-5
-0.920, 2.307e-5
-0.921, 2.320e-5
-0.922, 2.333e-5
-0.923, 2.344e-5
-0.924, 2.357e-5
-0.925, 2.370e-5
-0.926, 2.385e-5
-0.927, 2.400e-5
-0.928, 2.411e-5
-0.929, 2.423e-5
-0.930, 2.437e-5
-0.931, 2.449e-5
-0.932, 2.463e-5
-0.933, 2.474e-5
-0.934, 2.486e-5
-0.935, 2.500e-5
-0.936, 2.514e-5
-0.937, 2.525e-5
-0.938, 2.535e-5
-0.939, 2.546e-5
-0.940, 2.558e-5
-0.941, 2.574e-5
-0.942, 2.589e-5
-0.943, 2.599e-5
-0.944, 2.613e-5
-0.945, 2.628e-5
-0.946, 2.641e-5
-0.947, 2.652e-5
-0.948, 2.664e-5
-0.949, 2.675e-5
-0.950, 2.689e-5
-0.951, 2.701e-5
-0.952, 2.713e-5
-0.953, 2.727e-5
-0.954, 2.740e-5
-0.955, 2.753e-5
-0.956, 2.768e-5
-0.957, 2.780e-5
-0.958, 2.793e-5
-0.959, 2.807e-5
-0.960, 2.824e-5
-0.961, 2.842e-5
-0.962, 2.855e-5
-0.963, 2.870e-5
-0.964, 2.887e-5
-0.965, 2.900e-5
-0.966, 2.916e-5
-0.967, 2.929e-5
-0.968, 2.942e-5
-0.969, 2.958e-5
-0.970, 2.972e-5
-0.971, 2.988e-5
-0.972, 3.002e-5
-0.973, 3.018e-5
-0.974, 3.032e-5
-0.975, 3.048e-5
-0.976, 3.067e-5
-0.977, 3.084e-5
-0.978, 3.098e-5
-0.979, 3.112e-5
-0.980, 3.128e-5
-0.981, 3.145e-5
-0.982, 3.162e-5
-0.983, 3.179e-5
-0.984, 3.197e-5
-0.985, 3.219e-5
-0.986, 3.241e-5
-0.987, 3.258e-5
-0.988, 3.280e-5
-0.989, 3.304e-5
-0.990, 3.328e-5
-0.991, 3.353e-5
-0.992, 3.378e-5
-0.993, 3.402e-5
-0.994, 3.425e-5
-0.995, 3.449e-5
-0.996, 3.482e-5
-0.997, 3.528e-5
-0.998, 3.602e-5
-0.999, 3.642e-5
-1.000, 3.667e-5
-1.001, 3.694e-5
-1.002, 3.715e-5
-1.003, 3.734e-5
-1.004, 3.759e-5
-1.005, 3.785e-5
-1.006, 3.810e-5
-1.007, 3.841e-5
-1.008, 3.865e-5
-1.009, 3.898e-5
-1.010, 3.945e-5
-1.011, 3.981e-5
-1.012, 4.011e-5
-1.013, 4.042e-5
-1.014, 4.075e-5
-1.015, 4.108e-5
-1.016, 4.139e-5
-1.017, 4.166e-5
-1.018, 4.200e-5
-1.019, 4.233e-5
-1.020, 4.259e-5
-1.021, 4.287e-5
-1.022, 4.319e-5
-1.023, 4.339e-5
-1.024, 4.360e-5
-1.025, 4.384e-5
-1.026, 4.408e-5
-1.027, 4.432e-5
-1.028, 4.457e-5
-1.029, 4.483e-5
-1.030, 4.513e-5
-1.031, 4.540e-5
-1.032, 4.566e-5
-1.033, 4.589e-5
-1.034, 4.617e-5
-1.035, 4.647e-5
-1.036, 4.687e-5
-1.037, 4.718e-5
-1.038, 4.741e-5
-1.039, 4.755e-5
-1.040, 4.782e-5
-1.041, 4.800e-5
-1.042, 4.811e-5
-1.043, 4.820e-5
-1.044, 4.833e-5
-1.045, 4.841e-5
-1.046, 4.851e-5
-1.047, 4.865e-5
-1.048, 4.874e-5
-1.049, 4.887e-5
-1.050, 4.901e-5
-1.051, 4.915e-5
-1.052, 4.928e-5
-1.053, 4.934e-5
-1.054, 4.944e-5
-1.055, 4.960e-5
-1.056, 4.981e-5
-1.057, 5.000e-5
-1.058, 5.012e-5
-1.059, 5.023e-5
-1.060, 5.037e-5
-1.061, 5.044e-5
-1.062, 5.049e-5
-1.063, 5.054e-5
-1.064, 5.061e-5
-1.065, 5.069e-5
-1.066, 5.077e-5
-1.067, 5.084e-5
-1.068, 5.091e-5
-1.069, 5.101e-5
-1.070, 5.113e-5
-1.071, 5.127e-5
-1.072, 5.139e-5
-1.073, 5.154e-5
-1.074, 5.164e-5
-1.075, 5.175e-5
-1.076, 5.190e-5
-1.077, 5.198e-5
-1.078, 5.205e-5
-1.079, 5.229e-5
-1.080, 5.241e-5
-1.081, 5.252e-5
-1.082, 5.271e-5
-1.083, 5.293e-5
-1.084, 5.325e-5
-1.085, 5.340e-5
-1.086, 5.354e-5
-1.087, 5.378e-5
-1.088, 5.407e-5
-1.089, 5.425e-5
-1.090, 5.429e-5
-1.091, 5.448e-5
-1.092, 5.471e-5
-1.093, 5.501e-5
-1.094, 5.510e-5
-1.095, 5.526e-5
-1.096, 5.540e-5
-1.097, 5.539e-5
-1.098, 5.553e-5
-1.099, 5.555e-5
-1.100, 5.561e-5
-1.101, 5.573e-5
-1.102, 5.589e-5
-1.103, 5.604e-5
-1.104, 5.605e-5
-1.105, 5.613e-5
-1.106, 5.628e-5
-1.107, 5.653e-5
-1.108, 5.676e-5
-1.109, 5.694e-5
-1.110, 5.705e-5
-1.111, 5.716e-5
-1.112, 5.729e-5
-1.113, 5.734e-5
-1.114, 5.741e-5
-1.115, 5.753e-5
-1.116, 5.771e-5
-1.117, 5.788e-5
-1.118, 5.800e-5
-1.119, 5.805e-5
-1.120, 5.815e-5
-1.121, 5.827e-5
-1.122, 5.836e-5
-1.123, 5.843e-5
-1.124, 5.853e-5
-1.125, 5.865e-5
-1.126, 5.877e-5
-1.127, 5.889e-5
-1.128, 5.899e-5
-1.129, 5.913e-5
-1.130, 5.931e-5
-1.131, 5.944e-5
-1.132, 5.955e-5
-1.133, 5.963e-5
-1.134, 5.976e-5
-1.135, 5.987e-5
-1.136, 6.000e-5
-1.137, 6.017e-5
-1.138, 6.034e-5
-1.139, 6.052e-5
-1.140, 6.064e-5
-1.141, 6.076e-5
-1.142, 6.088e-5
-1.143, 6.101e-5
-1.144, 6.115e-5
-1.145, 6.131e-5
-1.146, 6.155e-5
-1.147, 6.171e-5
-1.148, 6.185e-5
-1.149, 6.197e-5
-1.150, 6.213e-5
-1.151, 6.227e-5
-1.152, 6.242e-5
-1.153, 6.257e-5
-1.154, 6.271e-5
-1.155, 6.288e-5
-1.156, 6.305e-5
-1.157, 6.321e-5
-1.158, 6.334e-5
-1.159, 6.350e-5
-1.160, 6.368e-5
-1.161, 6.388e-5
-1.162, 6.411e-5
-1.163, 6.446e-5
-1.164, 6.534e-5
-1.165, 6.552e-5
-1.166, 6.565e-5
-1.167, 6.578e-5
-1.168, 6.592e-5
-1.169, 6.607e-5
-1.170, 6.622e-5
-1.171, 6.638e-5
-1.172, 6.655e-5
-1.173, 6.673e-5
-1.174, 6.691e-5
-1.175, 6.710e-5
-1.176, 6.732e-5
-1.177, 6.754e-5
-1.178, 6.772e-5
-1.179, 6.783e-5
-1.180, 6.798e-5
-1.181, 6.815e-5
-1.182, 6.831e-5
-1.183, 6.844e-5
-1.184, 6.861e-5
-1.185, 6.878e-5
-1.186, 6.895e-5
-1.187, 6.912e-5
-1.188, 6.932e-5
-1.189, 6.953e-5
-1.190, 6.971e-5
-1.191, 6.979e-5
-1.192, 6.989e-5
-1.193, 7.000e-5
-1.194, 7.013e-5
-1.195, 7.030e-5
-1.196, 7.046e-5
-1.197, 7.059e-5
-1.198, 7.073e-5
-1.199, 7.086e-5
-1.200, 7.103e-5
-1.201, 7.124e-5
-1.202, 7.140e-5
-1.203, 7.156e-5
-1.204, 7.172e-5
-1.205, 7.186e-5
-1.206, 7.200e-5
-1.207, 7.213e-5
-1.208, 7.228e-5
-1.209, 7.240e-5
-1.210, 7.256e-5
-1.211, 7.273e-5
-1.212, 7.286e-5
-1.213, 7.300e-5
-1.214, 7.313e-5
-1.215, 7.327e-5
-1.216, 7.340e-5
-1.217, 7.354e-5
-1.218, 7.367e-5
-1.219, 7.382e-5
-1.220, 7.399e-5
-1.221, 7.416e-5
-1.222, 7.433e-5
-1.223, 7.451e-5
-1.224, 7.470e-5
-1.225, 7.488e-5
-1.226, 7.503e-5
-1.227, 7.513e-5
-1.228, 7.523e-5
-1.229, 7.539e-5
-1.230, 7.555e-5
-1.231, 7.567e-5
-1.232, 7.580e-5
-1.233, 7.591e-5
-1.234, 7.604e-5
-1.235, 7.620e-5
-1.236, 7.636e-5
-1.237, 7.649e-5
-1.238, 7.659e-5
-1.239, 7.672e-5
-1.240, 7.688e-5
-1.241, 7.705e-5
-1.242, 7.718e-5
-1.243, 7.731e-5
-1.244, 7.747e-5
-1.245, 7.765e-5
-1.246, 7.786e-5
-1.247, 7.801e-5
-1.248, 7.816e-5
-1.249, 7.833e-5
-1.250, 7.851e-5
-1.251, 7.870e-5
-1.252, 7.884e-5
-1.253, 7.902e-5
-1.254, 7.920e-5
-1.255, 7.945e-5
-1.256, 7.984e-5
-1.257, 7.999e-5
-1.258, 8.012e-5
-1.259, 8.032e-5
-1.260, 8.053e-5
-1.261, 8.078e-5
-1.262, 8.108e-5
-1.263, 8.145e-5
-1.264, 8.182e-5
-1.265, 8.202e-5
-1.266, 8.213e-5
-1.267, 8.229e-5
-1.268, 8.254e-5
-1.269, 8.278e-5
-1.270, 8.301e-5
-1.271, 8.324e-5
-1.272, 8.349e-5
-1.273, 8.372e-5
-1.274, 8.397e-5
-1.275, 8.424e-5
-1.276, 8.451e-5
-1.277, 8.476e-5
-1.278, 8.500e-5
-1.279, 8.528e-5
-1.280, 8.559e-5
-1.281, 8.591e-5
-1.282, 8.619e-5
-1.283, 8.646e-5
-1.284, 8.674e-5
-1.285, 8.704e-5
-1.286, 8.738e-5
-1.287, 8.766e-5
-1.288, 8.795e-5
-1.289, 8.822e-5
-1.290, 8.853e-5
-1.291, 8.886e-5
-1.292, 8.918e-5
-1.293, 8.948e-5
-1.294, 8.981e-5
-1.295, 9.016e-5
-1.296, 9.049e-5
-1.297, 9.084e-5
-1.298, 9.118e-5
-1.299, 9.154e-5
-1.300, 9.195e-5
-1.301, 9.238e-5
-1.302, 9.271e-5
-1.303, 9.305e-5
-1.304, 9.340e-5
-1.305, 9.379e-5
-1.306, 9.418e-5
-1.307, 9.454e-5
-1.308, 9.488e-5
-1.309, 9.525e-5
-1.310, 9.563e-5
-1.311, 9.602e-5
-1.312, 9.642e-5
-1.313, 9.680e-5
-1.314, 9.717e-5
-1.315, 9.760e-5
-1.316, 9.804e-5
-1.317, 9.845e-5
-1.318, 9.885e-5
-1.319, 9.926e-5
-1.320, 9.969e-5
-1.321, 1.001e-4
-1.322, 1.005e-4
-1.323, 1.009e-4
-1.324, 1.013e-4
-1.325, 1.018e-4
-1.326, 1.022e-4
-1.327, 1.026e-4
-1.328, 1.031e-4
-1.329, 1.035e-4
-1.330, 1.039e-4
-1.331, 1.044e-4
-1.332, 1.048e-4
-1.333, 1.052e-4
-1.334, 1.057e-4
-1.335, 1.062e-4
-1.336, 1.066e-4
-1.337, 1.070e-4
-1.338, 1.075e-4
-1.339, 1.080e-4
-1.340, 1.084e-4
-1.341, 1.089e-4
-1.342, 1.094e-4
-1.343, 1.098e-4
-1.344, 1.103e-4
-1.345, 1.108e-4
-1.346, 1.113e-4
-1.347, 1.117e-4
-1.348, 1.122e-4
-1.349, 1.126e-4
-1.350, 1.131e-4
-1.351, 1.136e-4
-1.352, 1.140e-4
-1.353, 1.145e-4
-1.354, 1.150e-4
-1.355, 1.154e-4
-1.356, 1.159e-4
-1.357, 1.164e-4
-1.358, 1.168e-4
-1.359, 1.173e-4
-1.360, 1.178e-4
-1.361, 1.182e-4
-1.362, 1.187e-4
-1.363, 1.192e-4
-1.364, 1.196e-4
-1.365, 1.201e-4
-1.366, 1.206e-4
-1.367, 1.210e-4
-1.368, 1.214e-4
-1.369, 1.219e-4
-1.370, 1.224e-4
-1.371, 1.229e-4
-1.372, 1.233e-4
-1.373, 1.238e-4
-1.374, 1.243e-4
-1.375, 1.248e-4
-1.376, 1.253e-4
-1.377, 1.258e-4
-1.378, 1.262e-4
-1.379, 1.267e-4
-1.380, 1.273e-4
-1.381, 1.278e-4
-1.382, 1.284e-4
-1.383, 1.289e-4
-1.384, 1.294e-4
-1.385, 1.300e-4
-1.386, 1.305e-4
-1.387, 1.311e-4
-1.388, 1.316e-4
-1.389, 1.321e-4
-1.390, 1.326e-4
-1.391, 1.332e-4
-1.392, 1.338e-4
-1.393, 1.344e-4
-1.394, 1.349e-4
-1.395, 1.355e-4
-1.396, 1.361e-4
-1.397, 1.367e-4
-1.398, 1.373e-4
-1.399, 1.379e-4
-1.400, 1.385e-4
-1.401, 1.391e-4
-1.402, 1.397e-4
-1.403, 1.403e-4
-1.404, 1.409e-4
-1.405, 1.415e-4
-1.406, 1.422e-4
-1.407, 1.429e-4
-1.408, 1.435e-4
-1.409, 1.441e-4
-1.410, 1.448e-4
-1.411, 1.455e-4
-1.412, 1.462e-4
-1.413, 1.469e-4
-1.414, 1.476e-4
-1.415, 1.484e-4
-1.416, 1.491e-4
-1.417, 1.499e-4
-1.418, 1.506e-4
-1.419, 1.513e-4
-1.420, 1.520e-4
-1.421, 1.528e-4
-1.422, 1.535e-4
-1.423, 1.543e-4
-1.424, 1.552e-4
-1.425, 1.560e-4
-1.426, 1.568e-4
-1.427, 1.576e-4
-1.428, 1.585e-4
-1.429, 1.593e-4
-1.430, 1.602e-4
-1.431, 1.611e-4
-1.432, 1.620e-4
-1.433, 1.629e-4
-1.434, 1.638e-4
-1.435, 1.648e-4
-1.436, 1.658e-4
-1.437, 1.668e-4
-1.438, 1.678e-4
-1.439, 1.688e-4
-1.440, 1.697e-4
-1.441, 1.707e-4
-1.442, 1.717e-4
-1.443, 1.727e-4
-1.444, 1.737e-4
-1.445, 1.748e-4
-1.446, 1.759e-4
-1.447, 1.770e-4
-1.448, 1.780e-4
-1.449, 1.791e-4
-1.450, 1.803e-4
-1.451, 1.814e-4
-1.452, 1.824e-4
-1.453, 1.835e-4
-1.454, 1.847e-4
-1.455, 1.859e-4
-1.456, 1.871e-4
-1.457, 1.882e-4
-1.458, 1.894e-4
-1.459, 1.906e-4
-1.460, 1.918e-4
-1.461, 1.931e-4
-1.462, 1.944e-4
-1.463, 1.956e-4
-1.464, 1.969e-4
-1.465, 1.981e-4
-1.466, 1.994e-4
-1.467, 2.006e-4
-1.468, 2.018e-4
-1.469, 2.031e-4
-1.470, 2.044e-4
-1.471, 2.058e-4
-1.472, 2.073e-4
-1.473, 2.088e-4
-1.474, 2.101e-4
-1.475, 2.117e-4
-1.476, 2.132e-4
-1.477, 2.147e-4
-1.478, 2.161e-4
-1.479, 2.175e-4
-1.480, 2.189e-4
-1.481, 2.203e-4
-1.482, 2.218e-4
-1.483, 2.232e-4
-1.484, 2.247e-4
-1.485, 2.263e-4
-1.486, 2.278e-4
-1.487, 2.293e-4
-1.488, 2.308e-4
-1.489, 2.323e-4
-1.490, 2.339e-4
-1.491, 2.355e-4
-1.492, 2.371e-4
-1.493, 2.387e-4
-1.494, 2.404e-4
-1.495, 2.421e-4
-1.496, 2.438e-4
-1.497, 2.454e-4
-1.498, 2.471e-4
-1.499, 2.489e-4
-1.500, 2.506e-4
-1.501, 2.524e-4
-1.502, 2.541e-4
-1.503, 2.558e-4
-1.504, 2.577e-4
-1.505, 2.596e-4
-1.506, 2.616e-4
-1.507, 2.634e-4
-1.508, 2.653e-4
-1.509, 2.672e-4
-1.510, 2.692e-4
-1.511, 2.712e-4
-1.512, 2.730e-4
-1.513, 2.749e-4
-1.514, 2.769e-4
-1.515, 2.790e-4
-1.516, 2.811e-4
-1.517, 2.832e-4
-1.518, 2.852e-4
-1.519, 2.873e-4
-1.520, 2.894e-4
-1.521, 2.917e-4
-1.522, 2.939e-4
-1.523, 2.960e-4
-1.524, 2.982e-4
-1.525, 3.005e-4
-1.526, 3.028e-4
-1.527, 3.050e-4
-1.528, 3.074e-4
-1.529, 3.098e-4
-1.530, 3.122e-4
-1.531, 3.146e-4
-1.532, 3.170e-4
-1.533, 3.196e-4
-1.534, 3.222e-4
-1.535, 3.248e-4
-1.536, 3.274e-4
-1.537, 3.300e-4
-1.538, 3.326e-4
-1.539, 3.352e-4
-1.540, 3.379e-4
-1.541, 3.406e-4
-1.542, 3.434e-4
-1.543, 3.461e-4
-1.544, 3.487e-4
-1.545, 3.513e-4
-1.546, 3.540e-4
-1.547, 3.568e-4
-1.548, 3.596e-4
-1.549, 3.625e-4
-1.550, 3.654e-4
-1.551, 3.684e-4
-1.552, 3.713e-4
-1.553, 3.743e-4
-1.554, 3.773e-4
-1.555, 3.803e-4
-1.556, 3.835e-4
-1.557, 3.867e-4
-1.558, 3.900e-4
-1.559, 3.933e-4
-1.560, 3.967e-4
-1.561, 3.999e-4
-1.562, 4.034e-4
-1.563, 4.069e-4
-1.564, 4.104e-4
-1.565, 4.137e-4
-1.566, 4.170e-4
-1.567, 4.204e-4
-1.568, 4.238e-4
-1.569, 4.272e-4
-1.570, 4.307e-4
-1.571, 4.342e-4
-1.572, 4.376e-4
-1.573, 4.410e-4
-1.574, 4.446e-4
-1.575, 4.481e-4
-1.576, 4.518e-4
-1.577, 4.555e-4
-1.578, 4.593e-4
-1.579, 4.632e-4
-1.580, 4.671e-4
-1.581, 4.710e-4
-1.582, 4.749e-4
-1.583, 4.790e-4
-1.584, 4.832e-4
-1.585, 4.873e-4
-1.586, 4.916e-4
-1.587, 4.959e-4
-1.588, 5.001e-4
-1.589, 5.044e-4
-1.590, 5.087e-4
-1.591, 5.131e-4
-1.592, 5.176e-4
-1.593, 5.220e-4
-1.594, 5.267e-4
-1.595, 5.313e-4
-1.596, 5.360e-4
-1.597, 5.407e-4
-1.598, 5.453e-4
-1.599, 5.499e-4
-1.600, 5.547e-4
-1.601, 5.595e-4
-1.602, 5.644e-4
-1.603, 5.692e-4
-1.604, 5.741e-4
-1.605, 5.792e-4
-1.606, 5.843e-4
-1.607, 5.894e-4
-1.608, 5.944e-4
-1.609, 5.995e-4
-1.610, 6.049e-4
-1.611, 6.102e-4
-1.612, 6.157e-4
-1.613, 6.212e-4
-1.614, 6.266e-4
-1.615, 6.319e-4
-1.616, 6.373e-4
-1.617, 6.429e-4
-1.618, 6.486e-4
-1.619, 6.541e-4
-1.620, 6.597e-4
-1.621, 6.653e-4
-1.622, 6.712e-4
-1.623, 6.771e-4
-1.624, 6.830e-4
-1.625, 6.889e-4
-1.626, 6.948e-4
-1.627, 7.005e-4
-1.628, 7.064e-4
-1.629, 7.125e-4
-1.630, 7.189e-4
-1.631, 7.254e-4
-1.632, 7.318e-4
-1.633, 7.382e-4
-1.634, 7.449e-4
-1.635, 7.517e-4
-1.636, 7.587e-4
-1.637, 7.658e-4
-1.638, 7.729e-4
-1.639, 7.802e-4
-1.640, 7.875e-4
-1.641, 7.947e-4
-1.642, 8.018e-4
-1.643, 8.094e-4
-1.644, 8.170e-4
-1.645, 8.245e-4
-1.646, 8.321e-4
-1.647, 8.398e-4
-1.648, 8.474e-4
-1.649, 8.553e-4
-1.650, 8.635e-4
-1.651, 8.720e-4
-1.652, 8.802e-4
-1.653, 8.883e-4
-1.654, 8.963e-4
-1.655, 9.046e-4
-1.656, 9.129e-4
-1.657, 9.213e-4
-1.658, 9.299e-4
-1.659, 9.386e-4
-1.660, 9.474e-4
-1.661, 9.563e-4
-1.662, 9.651e-4
-1.663, 9.738e-4
-1.664, 9.826e-4
-1.665, 9.917e-4
-1.666, 1.001e-3
-1.667, 1.009e-3
-1.668, 1.011e-3
-1.669, 1.011e-3
-1.670, 1.011e-3
-1.671, 1.011e-3
-1.672, 1.011e-3
-1.673, 1.011e-3
-1.674, 1.011e-3
-1.675, 1.011e-3
-1.676, 1.011e-3
-1.677, 1.011e-3
-1.678, 1.011e-3
-1.679, 1.011e-3
-1.680, 1.011e-3
-1.681, 1.011e-3
-1.682, 1.011e-3
-1.683, 1.011e-3
-1.684, 1.011e-3
-1.685, 1.011e-3
-1.686, 1.011e-3
-1.687, 1.011e-3
-1.688, 1.011e-3
-1.689, 1.011e-3
-1.690, 1.011e-3
-1.691, 1.011e-3
-1.692, 1.011e-3
-1.693, 1.011e-3
-1.694, 1.011e-3
-1.695, 1.011e-3
-1.696, 1.011e-3
-1.697, 1.011e-3
-1.698, 1.011e-3
-1.699, 1.011e-3
-1.700, 1.011e-3
-1.701, 1.011e-3
-1.702, 1.011e-3
-1.703, 1.011e-3
-1.704, 1.011e-3
-1.705, 1.011e-3
-1.706, 1.011e-3
-1.707, 1.011e-3
-1.708, 1.011e-3
-1.709, 1.011e-3
-1.710, 1.011e-3
-1.711, 1.011e-3
-1.712, 1.011e-3
-1.713, 1.011e-3
-1.714, 1.011e-3
-1.715, 1.011e-3
-1.716, 1.011e-3
-1.717, 1.011e-3
-1.718, 1.011e-3
-1.719, 1.011e-3
-1.720, 1.011e-3
-1.721, 1.011e-3
-1.722, 1.011e-3
-1.723, 1.011e-3
-1.724, 1.011e-3
-1.725, 1.011e-3
-1.726, 1.011e-3
-1.727, 1.011e-3
-1.728, 1.011e-3
-1.729, 1.011e-3
-1.730, 1.011e-3
-1.731, 1.011e-3
-1.732, 1.011e-3
-1.733, 1.011e-3
-1.734, 1.011e-3
-1.735, 1.011e-3
-1.736, 1.011e-3
-1.737, 1.011e-3
-1.738, 1.011e-3
-1.739, 1.011e-3
-1.740, 1.011e-3
-1.741, 1.011e-3
-1.742, 1.011e-3
-1.743, 1.011e-3
-1.744, 1.011e-3
-1.745, 1.011e-3
-1.746, 1.011e-3
-1.747, 1.011e-3
-1.748, 1.011e-3
-1.749, 1.011e-3
-1.750, 1.011e-3
-1.751, 1.011e-3
-1.752, 1.011e-3
-1.753, 1.011e-3
-1.754, 1.011e-3
-1.755, 1.011e-3
-1.756, 1.011e-3
-1.757, 1.011e-3
-1.758, 1.011e-3
-1.759, 1.011e-3
-1.760, 1.011e-3
-1.761, 1.011e-3
-1.762, 1.011e-3
-1.763, 1.011e-3
-1.764, 1.011e-3
-1.765, 1.011e-3
-1.766, 1.011e-3
-1.767, 1.011e-3
-1.768, 1.011e-3
-1.769, 1.011e-3
-1.770, 1.011e-3
-1.771, 1.011e-3
-1.772, 1.011e-3
-1.773, 1.011e-3
-1.774, 1.011e-3
-1.775, 1.011e-3
-1.776, 1.011e-3
-1.777, 1.011e-3
-1.778, 1.011e-3
-1.779, 1.011e-3
-1.780, 1.011e-3
-1.781, 1.011e-3
-1.782, 1.011e-3
-1.783, 1.011e-3
-1.784, 1.011e-3
-1.785, 1.011e-3
-1.786, 1.011e-3
-1.787, 1.011e-3
-1.788, 1.011e-3
-1.789, 1.011e-3
-1.790, 1.011e-3
-1.791, 1.011e-3
-1.792, 1.011e-3
-1.793, 1.011e-3
-1.794, 1.011e-3
-1.795, 1.011e-3
-1.796, 1.011e-3
-1.797, 1.011e-3
-1.798, 1.011e-3
-1.799, 1.011e-3
-1.800, 1.011e-3
-1.801, 1.011e-3
-1.802, 1.011e-3
-1.803, 1.011e-3
-1.804, 1.011e-3
-1.805, 1.011e-3
-1.806, 1.011e-3
-1.807, 1.011e-3
-1.808, 1.011e-3
-1.809, 1.011e-3
-1.810, 1.011e-3
-1.811, 1.011e-3
-1.812, 1.011e-3
-1.813, 1.011e-3
-1.814, 1.011e-3
-1.815, 1.011e-3
-1.816, 1.011e-3
-1.817, 1.011e-3
-1.818, 1.011e-3
-1.819, 1.011e-3
-1.820, 1.011e-3
-1.821, 1.011e-3
-1.822, 1.011e-3
-1.823, 1.011e-3
-1.824, 1.011e-3
-1.825, 1.011e-3
-1.826, 1.011e-3
-1.827, 1.011e-3
-1.828, 1.011e-3
-1.829, 1.011e-3
-1.830, 1.011e-3
-1.831, 1.011e-3
-1.832, 1.011e-3
-1.833, 1.011e-3
-1.834, 1.011e-3
-1.835, 1.011e-3
-1.836, 1.011e-3
-1.837, 1.011e-3
-1.838, 1.011e-3
-1.839, 1.011e-3
-1.840, 1.011e-3
-1.841, 1.011e-3
-1.842, 1.011e-3
-1.843, 1.011e-3
-1.844, 1.011e-3
-1.845, 1.011e-3
-1.846, 1.011e-3
-1.847, 1.011e-3
-1.848, 1.011e-3
-1.849, 1.011e-3
-1.850, 1.011e-3
-1.851, 1.011e-3
-1.852, 1.011e-3
-1.853, 1.011e-3
-1.854, 1.011e-3
-1.855, 1.011e-3
-1.856, 1.011e-3
-1.857, 1.011e-3
-1.858, 1.011e-3
-1.859, 1.011e-3
-1.860, 1.011e-3
-1.861, 1.011e-3
-1.862, 1.011e-3
-1.863, 1.011e-3
-1.864, 1.011e-3
-1.865, 1.011e-3
-1.866, 1.011e-3
-1.867, 1.011e-3
-1.868, 1.011e-3
-1.869, 1.011e-3
-1.870, 1.011e-3
-1.871, 1.011e-3
-1.872, 1.011e-3
-1.873, 1.011e-3
-1.874, 1.011e-3
-1.875, 1.011e-3
-1.876, 1.011e-3
-1.877, 1.011e-3
-1.878, 1.011e-3
-1.879, 1.011e-3
-1.880, 1.011e-3
-1.881, 1.011e-3
-1.882, 1.011e-3
-1.883, 1.011e-3
-1.884, 1.011e-3
-1.885, 1.011e-3
-1.886, 1.011e-3
-1.887, 1.011e-3
-1.888, 1.011e-3
-1.889, 1.011e-3
-1.890, 1.011e-3
-1.891, 1.011e-3
-1.892, 1.011e-3
-1.893, 1.011e-3
-1.894, 1.011e-3
-1.895, 1.011e-3
-1.896, 1.011e-3
-1.897, 1.011e-3
-1.898, 1.011e-3
-1.899, 1.011e-3
-1.900, 1.011e-3
-1.901, 1.011e-3
-1.902, 1.011e-3
-1.903, 1.011e-3
-1.904, 1.011e-3
-1.905, 1.011e-3
-1.906, 1.011e-3
-1.907, 1.011e-3
-1.908, 1.011e-3
-1.909, 1.011e-3
-1.910, 1.011e-3
-1.911, 1.011e-3
-1.912, 1.011e-3
-1.913, 1.011e-3
-1.914, 1.011e-3
-1.915, 1.011e-3
-1.916, 1.011e-3
-1.917, 1.011e-3
-1.918, 1.011e-3
-1.919, 1.011e-3
-1.920, 1.011e-3
-1.921, 1.011e-3
-1.922, 1.011e-3
-1.923, 1.011e-3
-1.924, 1.011e-3
-1.925, 1.011e-3
-1.926, 1.011e-3
-1.927, 1.011e-3
-1.928, 1.011e-3
-1.929, 1.011e-3
-1.930, 1.011e-3
-1.931, 1.011e-3
-1.932, 1.011e-3
-1.933, 1.011e-3
-1.934, 1.011e-3
-1.935, 1.011e-3
-1.936, 1.011e-3
-1.937, 1.011e-3
-1.938, 1.011e-3
-1.939, 1.011e-3
-1.940, 1.011e-3
-1.941, 1.011e-3
-1.942, 1.011e-3
-1.943, 1.011e-3
-1.944, 1.011e-3
-1.945, 1.011e-3
-1.946, 1.011e-3
-1.947, 1.011e-3
-1.948, 1.011e-3
-1.949, 1.011e-3
-1.950, 1.011e-3
-1.951, 1.011e-3
-1.952, 1.011e-3
-1.953, 1.011e-3
-1.954, 1.011e-3
-1.955, 1.011e-3
-1.956, 1.011e-3
-1.957, 1.011e-3
-1.958, 1.011e-3
-1.959, 1.011e-3
-1.960, 1.011e-3
-1.961, 1.011e-3
-1.962, 1.011e-3
-1.963, 1.011e-3
-1.964, 1.011e-3
-1.965, 1.011e-3
-1.966, 1.011e-3
-1.967, 1.011e-3
-1.968, 1.011e-3
-1.969, 1.011e-3
-1.970, 1.011e-3
-1.971, 1.011e-3
-1.972, 1.011e-3
-1.973, 1.011e-3
-1.974, 1.011e-3
-1.975, 1.011e-3
-1.976, 1.011e-3
-1.977, 1.011e-3
-1.978, 1.011e-3
-1.979, 1.011e-3
-1.980, 1.011e-3
-1.981, 1.011e-3
-1.982, 1.011e-3
-1.983, 1.011e-3
-1.984, 1.011e-3
-1.985, 1.011e-3
-1.986, 1.011e-3
-1.987, 1.011e-3
-1.988, 1.011e-3
-1.989, 1.011e-3
-1.990, 1.011e-3
-1.991, 1.011e-3
-1.992, 1.011e-3
-1.993, 1.011e-3
-1.994, 1.011e-3
-1.995, 1.011e-3
-1.996, 1.011e-3
-1.997, 1.011e-3
-1.998, 1.011e-3
-1.999, 1.011e-3
-2.000, 1.011e-3
-2.001, 1.011e-3
-2.002, 1.011e-3
-2.003, 1.011e-3
-2.004, 1.011e-3
-2.005, 1.011e-3
-2.006, 1.011e-3
-2.007, 1.011e-3
-2.008, 1.011e-3
-2.009, 1.011e-3
-2.010, 1.011e-3
-2.011, 1.011e-3
-2.012, 1.011e-3
-2.013, 1.011e-3
-2.014, 1.011e-3
-2.015, 1.011e-3
-2.016, 1.011e-3
-2.017, 1.011e-3
-2.018, 1.011e-3
-2.019, 1.011e-3
-2.020, 1.011e-3
-2.021, 1.011e-3
-2.022, 1.011e-3
-2.023, 1.011e-3
-2.024, 1.011e-3
-2.025, 1.011e-3
-2.026, 1.011e-3
-2.027, 1.011e-3
-2.028, 1.011e-3
-2.029, 1.011e-3
-2.030, 1.011e-3
-2.031, 1.011e-3
-2.032, 1.011e-3
-2.033, 1.011e-3
-2.034, 1.011e-3
-2.035, 1.011e-3
-2.036, 1.011e-3
-2.037, 1.011e-3
-2.038, 1.011e-3
-2.039, 1.011e-3
-2.040, 1.011e-3
-2.041, 1.011e-3
-2.042, 1.011e-3
-2.043, 1.011e-3
-2.044, 1.011e-3
-2.045, 1.011e-3
-2.046, 1.011e-3
-2.047, 1.011e-3
-2.048, 1.011e-3
-2.049, 1.011e-3
-2.050, 1.011e-3
-2.051, 1.011e-3
-2.052, 1.011e-3
-2.053, 1.011e-3
-2.054, 1.011e-3
-2.055, 1.011e-3
-2.056, 1.011e-3
-2.057, 1.011e-3
-2.058, 1.011e-3
-2.059, 1.011e-3
-2.060, 1.011e-3
-2.061, 1.011e-3
-2.062, 1.011e-3
-2.063, 1.011e-3
-2.064, 1.011e-3
-2.065, 1.011e-3
-2.066, 1.011e-3
-2.067, 1.011e-3
-2.068, 1.011e-3
-2.069, 1.011e-3
-2.070, 1.011e-3
-2.071, 1.011e-3
-2.072, 1.011e-3
-2.073, 1.011e-3
-2.074, 1.011e-3
-2.075, 1.011e-3
-2.076, 1.011e-3
-2.077, 1.011e-3
-2.078, 1.011e-3
-2.079, 1.011e-3
-2.080, 1.011e-3
-2.081, 1.011e-3
-2.082, 1.011e-3
-2.083, 1.011e-3
-2.084, 1.011e-3
-2.085, 1.011e-3
-2.086, 1.011e-3
-2.087, 1.011e-3
-2.088, 1.011e-3
-2.089, 1.011e-3
-2.090, 1.011e-3
-2.091, 1.011e-3
-2.092, 1.011e-3
-2.093, 1.011e-3
-2.094, 1.011e-3
-2.095, 1.011e-3
-2.096, 1.011e-3
-2.097, 1.011e-3
-2.098, 1.011e-3
-2.099, 1.011e-3
-2.100, 1.011e-3
-2.101, 1.011e-3
-2.102, 1.011e-3
-2.103, 1.011e-3
-2.104, 1.011e-3
-2.105, 1.011e-3
-2.106, 1.011e-3
-2.107, 1.011e-3
-2.108, 1.011e-3
-2.109, 1.011e-3
-2.110, 1.011e-3
-2.111, 1.011e-3
-2.112, 1.011e-3
-2.113, 1.011e-3
-2.114, 1.011e-3
-2.115, 1.011e-3
-2.116, 1.011e-3
-2.117, 1.011e-3
-2.118, 1.011e-3
-2.119, 1.011e-3
-2.120, 1.011e-3
-2.121, 1.011e-3
-2.122, 1.011e-3
-2.123, 1.011e-3
-2.124, 1.011e-3
-2.125, 1.011e-3
-2.126, 1.011e-3
-2.127, 1.011e-3
-2.128, 1.011e-3
-2.129, 1.011e-3
-2.130, 1.011e-3
-2.131, 1.011e-3
-2.132, 1.011e-3
-2.133, 1.011e-3
-2.134, 1.011e-3
-2.135, 1.011e-3
-2.136, 1.011e-3
-2.137, 1.011e-3
-2.138, 1.011e-3
-2.139, 1.011e-3
-2.140, 1.011e-3
-2.141, 1.011e-3
-2.142, 1.011e-3
-2.143, 1.011e-3
-2.144, 1.011e-3
-2.145, 1.011e-3
-2.146, 1.011e-3
-2.147, 1.011e-3
-2.148, 1.011e-3
-2.149, 1.011e-3
-2.150, 1.011e-3
-2.151, 1.011e-3
-2.152, 1.011e-3
-2.153, 1.011e-3
-2.154, 1.011e-3
-2.155, 1.011e-3
-2.156, 1.011e-3
-2.157, 1.011e-3
-2.158, 1.011e-3
-2.159, 1.011e-3
-2.160, 1.011e-3
-2.161, 1.011e-3
-2.162, 1.011e-3
-2.163, 1.011e-3
-2.164, 1.011e-3
-2.165, 1.011e-3
-2.166, 1.011e-3
-2.167, 1.011e-3
-2.168, 1.011e-3
-2.169, 1.011e-3
-2.170, 1.011e-3
-2.171, 1.011e-3
-2.172, 1.011e-3
-2.173, 1.011e-3
-2.174, 1.011e-3
-2.175, 1.011e-3
-2.176, 1.011e-3
-2.177, 1.011e-3
-2.178, 1.011e-3
-2.179, 1.011e-3
-2.180, 1.011e-3
-2.181, 1.011e-3
-2.182, 1.011e-3
-2.183, 1.011e-3
-2.184, 1.011e-3
-2.185, 1.011e-3
-2.186, 1.011e-3
-2.187, 1.011e-3
-2.188, 1.011e-3
-2.189, 1.011e-3
-2.190, 1.011e-3
-2.191, 1.011e-3
-2.192, 1.011e-3
-2.193, 1.011e-3
-2.194, 1.011e-3
-2.195, 1.011e-3
-2.196, 1.011e-3
-2.197, 1.011e-3
-2.198, 1.011e-3
-2.199, 1.011e-3
-2.200, 1.011e-3
-2.201, 1.011e-3
-2.202, 1.011e-3
-2.203, 1.011e-3
-2.204, 1.011e-3
-2.205, 1.011e-3
-2.206, 1.011e-3
-2.207, 1.011e-3
-2.208, 1.011e-3
-2.209, 1.011e-3
-2.210, 1.011e-3
-2.211, 1.011e-3
-2.212, 1.011e-3
-2.213, 1.011e-3
-2.214, 1.011e-3
-2.215, 1.011e-3
-2.216, 1.011e-3
-2.217, 1.011e-3
-2.218, 1.011e-3
-2.219, 1.011e-3
-2.220, 1.011e-3
-2.221, 1.011e-3
-2.222, 1.011e-3
-2.223, 1.011e-3
-2.224, 1.011e-3
-2.225, 1.011e-3
-2.226, 1.011e-3
-2.227, 1.011e-3
-2.228, 1.011e-3
-2.229, 1.011e-3
-2.230, 1.011e-3
-2.231, 1.011e-3
-2.232, 1.011e-3
-2.233, 1.011e-3
-2.234, 1.011e-3
-2.235, 1.011e-3
-2.236, 1.011e-3
-2.237, 1.011e-3
-2.238, 1.011e-3
-2.239, 1.011e-3
-2.240, 1.011e-3
-2.241, 1.011e-3
-2.242, 1.011e-3
-2.243, 1.011e-3
-2.244, 1.011e-3
-2.245, 1.011e-3
-2.246, 1.011e-3
-2.247, 1.011e-3
-2.248, 1.011e-3
-2.249, 1.011e-3
-2.250, 1.011e-3
-2.251, 1.011e-3
-2.252, 1.011e-3
-2.253, 1.011e-3
-2.254, 1.011e-3
-2.255, 1.011e-3
-2.256, 1.011e-3
-2.257, 1.011e-3
-2.258, 1.011e-3
-2.259, 1.011e-3
-2.260, 1.011e-3
-2.261, 1.011e-3
-2.262, 1.011e-3
-2.263, 1.011e-3
-2.264, 1.011e-3
-2.265, 1.011e-3
-2.266, 1.011e-3
-2.267, 1.011e-3
-2.268, 1.011e-3
-2.269, 1.011e-3
-2.270, 1.011e-3
-2.271, 1.011e-3
-2.272, 1.011e-3
-2.273, 1.011e-3
-2.274, 1.011e-3
-2.275, 1.011e-3
-2.276, 1.011e-3
-2.277, 1.011e-3
-2.278, 1.011e-3
-2.279, 1.011e-3
-2.280, 1.011e-3
-2.281, 1.011e-3
-2.282, 1.011e-3
-2.283, 1.011e-3
-2.284, 1.011e-3
-2.285, 1.011e-3
-2.286, 1.011e-3
-2.287, 1.011e-3
-2.288, 1.011e-3
-2.289, 1.011e-3
-2.290, 1.011e-3
-2.291, 1.011e-3
-2.292, 1.011e-3
-2.293, 1.011e-3
-2.294, 1.011e-3
-2.295, 1.011e-3
-2.296, 1.011e-3
-2.297, 1.011e-3
-2.298, 1.011e-3
-2.299, 1.011e-3
