Mar. 17, 2025   02:27:55
Cyclic Voltammetry
File: c:/users/guazh/data/banditlqround7_x0exp891_r5/2025-03-03-exp917\exp917-2025-03-17t02_07_11-arkoh\exp917_cv_sr_600mvs_efin_-1900mv.bin
Data Source:  Experiment
Instrument Model:  CHI760E
Header: CV ran at 600 mVs
Note: 

Init E (V) = -1
High E (V) = -1
Low E (V) = -1.9
Final E (V) = -1
Init P/N = N
Scan Rate (V/s) = 0.6
Segment = 3
Sample Interval (V) = 0.001
Quiet Time (sec) = 2
Sensitivity (A/V) = 0.01
Comp R (ohm) = 2.0

Results:

Channel 1:
Segment 1:

Segment 2:

Segment 3:

Potential/V, Current/A

-1.000, 3.239e-6
-1.001, 3.239e-6
-1.002, 1.559e-7
-1.003, 3.239e-6
-1.004, 3.239e-6
-1.005, 3.239e-6
-1.006, 3.239e-6
-1.007, 3.239e-6
-1.008, 3.239e-6
-1.009, 3.239e-6
-1.010, 3.239e-6
-1.011, 3.239e-6
-1.012, 3.239e-6
-1.013, 3.239e-6
-1.014, 3.239e-6
-1.015, 3.239e-6
-1.016, 3.239e-6
-1.017, 3.239e-6
-1.018, 3.239e-6
-1.019, 3.239e-6
-1.020, 3.239e-6
-1.021, 3.239e-6
-1.022, 3.239e-6
-1.023, 3.239e-6
-1.024, 3.239e-6
-1.025, 3.239e-6
-1.026, 3.239e-6
-1.027, 3.239e-6
-1.028, 3.239e-6
-1.029, 3.239e-6
-1.030, 3.239e-6
-1.031, 3.239e-6
-1.032, 3.239e-6
-1.033, 3.239e-6
-1.034, 3.239e-6
-1.035, 3.239e-6
-1.036, 3.239e-6
-1.037, 3.239e-6
-1.038, 3.239e-6
-1.039, 3.239e-6
-1.040, 6.322e-6
-1.041, 3.239e-6
-1.042, 3.239e-6
-1.043, 3.239e-6
-1.044, 3.239e-6
-1.045, 3.239e-6
-1.046, 3.239e-6
-1.047, 3.239e-6
-1.048, 3.239e-6
-1.049, 3.239e-6
-1.050, 3.239e-6
-1.051, 3.239e-6
-1.052, 3.239e-6
-1.053, 3.239e-6
-1.054, 3.239e-6
-1.055, 3.239e-6
-1.056, 3.239e-6
-1.057, 3.239e-6
-1.058, 3.239e-6
-1.059, 3.239e-6
-1.060, 6.322e-6
-1.061, 3.239e-6
-1.062, 3.239e-6
-1.063, 3.239e-6
-1.064, 6.322e-6
-1.065, 3.239e-6
-1.066, 6.322e-6
-1.067, 3.239e-6
-1.068, 3.239e-6
-1.069, 3.239e-6
-1.070, 3.239e-6
-1.071, 3.239e-6
-1.072, 6.322e-6
-1.073, 3.239e-6
-1.074, 3.239e-6
-1.075, 6.322e-6
-1.076, 3.239e-6
-1.077, 3.239e-6
-1.078, 3.239e-6
-1.079, 3.239e-6
-1.080, 3.239e-6
-1.081, 3.239e-6
-1.082, 3.239e-6
-1.083, 6.322e-6
-1.084, 6.322e-6
-1.085, 3.239e-6
-1.086, 3.239e-6
-1.087, 6.322e-6
-1.088, 3.239e-6
-1.089, 6.322e-6
-1.090, 6.322e-6
-1.091, 3.239e-6
-1.092, 3.239e-6
-1.093, 3.239e-6
-1.094, 3.239e-6
-1.095, 3.239e-6
-1.096, 3.239e-6
-1.097, 3.239e-6
-1.098, 3.239e-6
-1.099, 3.239e-6
-1.100, 6.322e-6
-1.101, 6.322e-6
-1.102, 3.239e-6
-1.103, 6.322e-6
-1.104, 6.322e-6
-1.105, 6.322e-6
-1.106, 6.322e-6
-1.107, 6.322e-6
-1.108, 3.239e-6
-1.109, 6.322e-6
-1.110, 3.239e-6
-1.111, 6.322e-6
-1.112, 6.322e-6
-1.113, 6.322e-6
-1.114, 6.322e-6
-1.115, 6.322e-6
-1.116, 3.239e-6
-1.117, 6.322e-6
-1.118, 3.239e-6
-1.119, 3.239e-6
-1.120, 6.322e-6
-1.121, 6.322e-6
-1.122, 6.322e-6
-1.123, 6.322e-6
-1.124, 6.322e-6
-1.125, 3.239e-6
-1.126, 6.322e-6
-1.127, 6.322e-6
-1.128, 3.239e-6
-1.129, 6.322e-6
-1.130, 3.239e-6
-1.131, 3.239e-6
-1.132, 6.322e-6
-1.133, 6.322e-6
-1.134, 6.322e-6
-1.135, 6.322e-6
-1.136, 6.322e-6
-1.137, 6.322e-6
-1.138, 6.322e-6
-1.139, 6.322e-6
-1.140, 6.322e-6
-1.141, 6.322e-6
-1.142, 6.322e-6
-1.143, 6.322e-6
-1.144, 6.322e-6
-1.145, 6.322e-6
-1.146, 6.322e-6
-1.147, 6.322e-6
-1.148, 6.322e-6
-1.149, 6.322e-6
-1.150, 6.322e-6
-1.151, 6.322e-6
-1.152, 6.322e-6
-1.153, 6.322e-6
-1.154, 6.322e-6
-1.155, 6.322e-6
-1.156, 6.322e-6
-1.157, 6.322e-6
-1.158, 6.322e-6
-1.159, 6.322e-6
-1.160, 6.322e-6
-1.161, 6.322e-6
-1.162, 6.322e-6
-1.163, 6.322e-6
-1.164, 6.322e-6
-1.165, 6.322e-6
-1.166, 6.322e-6
-1.167, 6.322e-6
-1.168, 6.322e-6
-1.169, 6.322e-6
-1.170, 6.322e-6
-1.171, 6.322e-6
-1.172, 6.322e-6
-1.173, 6.322e-6
-1.174, 6.322e-6
-1.175, 6.322e-6
-1.176, 6.322e-6
-1.177, 6.322e-6
-1.178, 6.322e-6
-1.179, 6.322e-6
-1.180, 6.322e-6
-1.181, 6.322e-6
-1.182, 6.322e-6
-1.183, 6.322e-6
-1.184, 6.322e-6
-1.185, 6.322e-6
-1.186, 6.322e-6
-1.187, 6.322e-6
-1.188, 6.322e-6
-1.189, 6.322e-6
-1.190, 6.322e-6
-1.191, 6.322e-6
-1.192, 6.322e-6
-1.193, 6.322e-6
-1.194, 6.322e-6
-1.195, 6.322e-6
-1.196, 6.322e-6
-1.197, 6.322e-6
-1.198, 6.322e-6
-1.199, 6.322e-6
-1.200, 6.322e-6
-1.201, 6.322e-6
-1.202, 6.322e-6
-1.203, 6.322e-6
-1.204, 6.322e-6
-1.205, 6.322e-6
-1.206, 6.322e-6
-1.207, 6.322e-6
-1.208, 6.322e-6
-1.209, 6.322e-6
-1.210, 6.322e-6
-1.211, 6.322e-6
-1.212, 6.322e-6
-1.213, 6.322e-6
-1.214, 6.322e-6
-1.215, 6.322e-6
-1.216, 6.322e-6
-1.217, 6.322e-6
-1.218, 6.322e-6
-1.219, 6.322e-6
-1.220, 6.322e-6
-1.221, 6.322e-6
-1.222, 6.322e-6
-1.223, 6.322e-6
-1.224, 6.322e-6
-1.225, 6.322e-6
-1.226, 6.322e-6
-1.227, 6.322e-6
-1.228, 6.322e-6
-1.229, 6.322e-6
-1.230, 6.322e-6
-1.231, 9.405e-6
-1.232, 6.322e-6
-1.233, 6.322e-6
-1.234, 6.322e-6
-1.235, 9.405e-6
-1.236, 6.322e-6
-1.237, 6.322e-6
-1.238, 9.405e-6
-1.239, 6.322e-6
-1.240, 6.322e-6
-1.241, 6.322e-6
-1.242, 6.322e-6
-1.243, 9.405e-6
-1.244, 6.322e-6
-1.245, 6.322e-6
-1.246, 6.322e-6
-1.247, 9.405e-6
-1.248, 6.322e-6
-1.249, 9.405e-6
-1.250, 6.322e-6
-1.251, 9.405e-6
-1.252, 9.405e-6
-1.253, 6.322e-6
-1.254, 6.322e-6
-1.255, 9.405e-6
-1.256, 6.322e-6
-1.257, 6.322e-6
-1.258, 6.322e-6
-1.259, 6.322e-6
-1.260, 9.405e-6
-1.261, 9.405e-6
-1.262, 6.322e-6
-1.263, 9.405e-6
-1.264, 6.322e-6
-1.265, 6.322e-6
-1.266, 6.322e-6
-1.267, 6.322e-6
-1.268, 6.322e-6
-1.269, 9.405e-6
-1.270, 9.405e-6
-1.271, 9.405e-6
-1.272, 9.405e-6
-1.273, 9.405e-6
-1.274, 9.405e-6
-1.275, 9.405e-6
-1.276, 6.322e-6
-1.277, 9.405e-6
-1.278, 9.405e-6
-1.279, 6.322e-6
-1.280, 9.405e-6
-1.281, 9.405e-6
-1.282, 9.405e-6
-1.283, 9.405e-6
-1.284, 9.405e-6
-1.285, 9.405e-6
-1.286, 9.405e-6
-1.287, 6.322e-6
-1.288, 9.405e-6
-1.289, 9.405e-6
-1.290, 9.405e-6
-1.291, 9.405e-6
-1.292, 9.405e-6
-1.293, 6.322e-6
-1.294, 9.405e-6
-1.295, 9.405e-6
-1.296, 6.322e-6
-1.297, 9.405e-6
-1.298, 9.405e-6
-1.299, 9.405e-6
-1.300, 9.405e-6
-1.301, 9.405e-6
-1.302, 9.405e-6
-1.303, 9.405e-6
-1.304, 9.405e-6
-1.305, 9.405e-6
-1.306, 9.405e-6
-1.307, 9.405e-6
-1.308, 9.405e-6
-1.309, 9.405e-6
-1.310, 9.405e-6
-1.311, 9.405e-6
-1.312, 9.405e-6
-1.313, 9.405e-6
-1.314, 9.405e-6
-1.315, 9.405e-6
-1.316, 9.405e-6
-1.317, 9.405e-6
-1.318, 9.405e-6
-1.319, 9.405e-6
-1.320, 9.405e-6
-1.321, 9.405e-6
-1.322, 9.405e-6
-1.323, 9.405e-6
-1.324, 9.405e-6
-1.325, 9.405e-6
-1.326, 9.405e-6
-1.327, 9.405e-6
-1.328, 9.405e-6
-1.329, 9.405e-6
-1.330, 9.405e-6
-1.331, 9.405e-6
-1.332, 9.405e-6
-1.333, 9.405e-6
-1.334, 9.405e-6
-1.335, 9.405e-6
-1.336, 9.405e-6
-1.337, 9.405e-6
-1.338, 9.405e-6
-1.339, 9.405e-6
-1.340, 9.405e-6
-1.341, 9.405e-6
-1.342, 9.405e-6
-1.343, 9.405e-6
-1.344, 9.405e-6
-1.345, 9.405e-6
-1.346, 9.405e-6
-1.347, 9.405e-6
-1.348, 9.405e-6
-1.349, 9.405e-6
-1.350, 9.405e-6
-1.351, 9.405e-6
-1.352, 9.405e-6
-1.353, 9.405e-6
-1.354, 9.405e-6
-1.355, 9.405e-6
-1.356, 9.405e-6
-1.357, 9.405e-6
-1.358, 9.405e-6
-1.359, 9.405e-6
-1.360, 1.249e-5
-1.361, 9.405e-6
-1.362, 9.405e-6
-1.363, 9.405e-6
-1.364, 9.405e-6
-1.365, 9.405e-6
-1.366, 9.405e-6
-1.367, 9.405e-6
-1.368, 9.405e-6
-1.369, 9.405e-6
-1.370, 9.405e-6
-1.371, 9.405e-6
-1.372, 9.405e-6
-1.373, 9.405e-6
-1.374, 9.405e-6
-1.375, 9.405e-6
-1.376, 9.405e-6
-1.377, 9.405e-6
-1.378, 9.405e-6
-1.379, 9.405e-6
-1.380, 1.249e-5
-1.381, 9.405e-6
-1.382, 1.249e-5
-1.383, 1.249e-5
-1.384, 9.405e-6
-1.385, 9.405e-6
-1.386, 9.405e-6
-1.387, 1.249e-5
-1.388, 9.405e-6
-1.389, 9.405e-6
-1.390, 1.249e-5
-1.391, 1.249e-5
-1.392, 9.405e-6
-1.393, 9.405e-6
-1.394, 1.249e-5
-1.395, 1.249e-5
-1.396, 9.405e-6
-1.397, 9.405e-6
-1.398, 9.405e-6
-1.399, 9.405e-6
-1.400, 1.249e-5
-1.401, 9.405e-6
-1.402, 9.405e-6
-1.403, 9.405e-6
-1.404, 9.405e-6
-1.405, 1.249e-5
-1.406, 9.405e-6
-1.407, 9.405e-6
-1.408, 1.249e-5
-1.409, 1.249e-5
-1.410, 1.249e-5
-1.411, 1.249e-5
-1.412, 1.249e-5
-1.413, 9.405e-6
-1.414, 1.249e-5
-1.415, 1.249e-5
-1.416, 9.405e-6
-1.417, 1.249e-5
-1.418, 9.405e-6
-1.419, 9.405e-6
-1.420, 1.249e-5
-1.421, 1.249e-5
-1.422, 1.249e-5
-1.423, 1.249e-5
-1.424, 9.405e-6
-1.425, 1.249e-5
-1.426, 1.249e-5
-1.427, 9.405e-6
-1.428, 1.249e-5
-1.429, 1.249e-5
-1.430, 1.249e-5
-1.431, 1.249e-5
-1.432, 1.249e-5
-1.433, 1.249e-5
-1.434, 1.249e-5
-1.435, 1.249e-5
-1.436, 9.405e-6
-1.437, 1.249e-5
-1.438, 1.249e-5
-1.439, 1.249e-5
-1.440, 1.249e-5
-1.441, 1.249e-5
-1.442, 1.249e-5
-1.443, 1.249e-5
-1.444, 9.405e-6
-1.445, 1.249e-5
-1.446, 1.249e-5
-1.447, 1.249e-5
-1.448, 1.249e-5
-1.449, 1.249e-5
-1.450, 1.249e-5
-1.451, 1.249e-5
-1.452, 1.249e-5
-1.453, 1.249e-5
-1.454, 1.249e-5
-1.455, 1.249e-5
-1.456, 1.249e-5
-1.457, 1.249e-5
-1.458, 1.249e-5
-1.459, 1.249e-5
-1.460, 1.249e-5
-1.461, 1.249e-5
-1.462, 1.249e-5
-1.463, 1.249e-5
-1.464, 1.249e-5
-1.465, 1.249e-5
-1.466, 1.249e-5
-1.467, 1.249e-5
-1.468, 1.249e-5
-1.469, 1.249e-5
-1.470, 1.249e-5
-1.471, 1.249e-5
-1.472, 1.249e-5
-1.473, 1.249e-5
-1.474, 1.249e-5
-1.475, 1.249e-5
-1.476, 1.249e-5
-1.477, 1.249e-5
-1.478, 1.249e-5
-1.479, 1.249e-5
-1.480, 1.249e-5
-1.481, 1.249e-5
-1.482, 1.249e-5
-1.483, 1.249e-5
-1.484, 1.249e-5
-1.485, 1.249e-5
-1.486, 1.249e-5
-1.487, 1.249e-5
-1.488, 1.249e-5
-1.489, 1.249e-5
-1.490, 1.249e-5
-1.491, 1.249e-5
-1.492, 1.249e-5
-1.493, 1.249e-5
-1.494, 1.249e-5
-1.495, 1.249e-5
-1.496, 1.249e-5
-1.497, 1.249e-5
-1.498, 1.249e-5
-1.499, 1.249e-5
-1.500, 1.249e-5
-1.501, 1.249e-5
-1.502, 1.249e-5
-1.503, 1.249e-5
-1.504, 1.249e-5
-1.505, 1.249e-5
-1.506, 1.249e-5
-1.507, 1.249e-5
-1.508, 1.557e-5
-1.509, 1.249e-5
-1.510, 1.249e-5
-1.511, 1.249e-5
-1.512, 1.557e-5
-1.513, 1.249e-5
-1.514, 1.249e-5
-1.515, 1.557e-5
-1.516, 1.557e-5
-1.517, 1.249e-5
-1.518, 1.249e-5
-1.519, 1.557e-5
-1.520, 1.557e-5
-1.521, 1.249e-5
-1.522, 1.249e-5
-1.523, 1.249e-5
-1.524, 1.249e-5
-1.525, 1.557e-5
-1.526, 1.557e-5
-1.527, 1.249e-5
-1.528, 1.557e-5
-1.529, 1.249e-5
-1.530, 1.557e-5
-1.531, 1.557e-5
-1.532, 1.557e-5
-1.533, 1.249e-5
-1.534, 1.557e-5
-1.535, 1.557e-5
-1.536, 1.557e-5
-1.537, 1.557e-5
-1.538, 1.557e-5
-1.539, 1.557e-5
-1.540, 1.557e-5
-1.541, 1.557e-5
-1.542, 1.557e-5
-1.543, 1.557e-5
-1.544, 1.557e-5
-1.545, 1.557e-5
-1.546, 1.557e-5
-1.547, 1.557e-5
-1.548, 1.557e-5
-1.549, 1.557e-5
-1.550, 1.557e-5
-1.551, 1.557e-5
-1.552, 1.557e-5
-1.553, 1.557e-5
-1.554, 1.557e-5
-1.555, 1.557e-5
-1.556, 1.557e-5
-1.557, 1.557e-5
-1.558, 1.557e-5
-1.559, 1.557e-5
-1.560, 1.557e-5
-1.561, 1.557e-5
-1.562, 1.557e-5
-1.563, 1.557e-5
-1.564, 1.557e-5
-1.565, 1.557e-5
-1.566, 1.557e-5
-1.567, 1.557e-5
-1.568, 1.557e-5
-1.569, 1.557e-5
-1.570, 1.557e-5
-1.571, 1.865e-5
-1.572, 1.557e-5
-1.573, 1.557e-5
-1.574, 1.557e-5
-1.575, 1.557e-5
-1.576, 1.557e-5
-1.577, 1.865e-5
-1.578, 1.557e-5
-1.579, 1.865e-5
-1.580, 1.865e-5
-1.581, 1.865e-5
-1.582, 1.865e-5
-1.583, 1.865e-5
-1.584, 1.865e-5
-1.585, 1.865e-5
-1.586, 1.865e-5
-1.587, 1.865e-5
-1.588, 1.865e-5
-1.589, 1.865e-5
-1.590, 1.865e-5
-1.591, 1.865e-5
-1.592, 1.865e-5
-1.593, 1.865e-5
-1.594, 1.865e-5
-1.595, 1.865e-5
-1.596, 1.865e-5
-1.597, 1.865e-5
-1.598, 1.865e-5
-1.599, 1.865e-5
-1.600, 2.174e-5
-1.601, 1.865e-5
-1.602, 1.865e-5
-1.603, 1.865e-5
-1.604, 1.865e-5
-1.605, 2.174e-5
-1.606, 2.174e-5
-1.607, 2.174e-5
-1.608, 2.174e-5
-1.609, 1.865e-5
-1.610, 2.174e-5
-1.611, 2.174e-5
-1.612, 2.174e-5
-1.613, 2.174e-5
-1.614, 2.174e-5
-1.615, 2.174e-5
-1.616, 2.174e-5
-1.617, 2.174e-5
-1.618, 2.174e-5
-1.619, 2.174e-5
-1.620, 2.174e-5
-1.621, 2.174e-5
-1.622, 2.482e-5
-1.623, 2.174e-5
-1.624, 2.174e-5
-1.625, 2.482e-5
-1.626, 2.482e-5
-1.627, 2.482e-5
-1.628, 2.482e-5
-1.629, 2.482e-5
-1.630, 2.482e-5
-1.631, 2.482e-5
-1.632, 2.482e-5
-1.633, 2.482e-5
-1.634, 2.482e-5
-1.635, 2.482e-5
-1.636, 2.482e-5
-1.637, 2.790e-5
-1.638, 2.790e-5
-1.639, 2.790e-5
-1.640, 2.790e-5
-1.641, 2.790e-5
-1.642, 2.790e-5
-1.643, 2.790e-5
-1.644, 2.790e-5
-1.645, 2.790e-5
-1.646, 2.790e-5
-1.647, 3.099e-5
-1.648, 3.099e-5
-1.649, 3.099e-5
-1.650, 3.099e-5
-1.651, 3.099e-5
-1.652, 3.099e-5
-1.653, 3.099e-5
-1.654, 3.407e-5
-1.655, 3.407e-5
-1.656, 3.407e-5
-1.657, 3.407e-5
-1.658, 3.407e-5
-1.659, 3.407e-5
-1.660, 3.715e-5
-1.661, 3.407e-5
-1.662, 3.715e-5
-1.663, 3.715e-5
-1.664, 3.715e-5
-1.665, 4.024e-5
-1.666, 3.715e-5
-1.667, 4.024e-5
-1.668, 4.024e-5
-1.669, 4.024e-5
-1.670, 4.024e-5
-1.671, 4.024e-5
-1.672, 4.332e-5
-1.673, 4.332e-5
-1.674, 4.332e-5
-1.675, 4.332e-5
-1.676, 4.332e-5
-1.677, 4.640e-5
-1.678, 4.640e-5
-1.679, 4.640e-5
-1.680, 4.640e-5
-1.681, 4.640e-5
-1.682, 4.949e-5
-1.683, 4.949e-5
-1.684, 4.949e-5
-1.685, 5.257e-5
-1.686, 5.257e-5
-1.687, 5.257e-5
-1.688, 5.257e-5
-1.689, 5.565e-5
-1.690, 5.565e-5
-1.691, 5.565e-5
-1.692, 5.873e-5
-1.693, 5.873e-5
-1.694, 5.873e-5
-1.695, 6.182e-5
-1.696, 6.182e-5
-1.697, 6.182e-5
-1.698, 6.182e-5
-1.699, 6.490e-5
-1.700, 6.798e-5
-1.701, 6.798e-5
-1.702, 6.798e-5
-1.703, 7.107e-5
-1.704, 7.107e-5
-1.705, 7.107e-5
-1.706, 7.415e-5
-1.707, 7.415e-5
-1.708, 7.723e-5
-1.709, 7.723e-5
-1.710, 8.032e-5
-1.711, 8.032e-5
-1.712, 8.340e-5
-1.713, 8.340e-5
-1.714, 8.648e-5
-1.715, 8.648e-5
-1.716, 8.957e-5
-1.717, 8.957e-5
-1.718, 9.265e-5
-1.719, 9.265e-5
-1.720, 9.573e-5
-1.721, 9.882e-5
-1.722, 9.882e-5
-1.723, 1.019e-4
-1.724, 1.050e-4
-1.725, 1.050e-4
-1.726, 1.081e-4
-1.727, 1.081e-4
-1.728, 1.111e-4
-1.729, 1.142e-4
-1.730, 1.173e-4
-1.731, 1.204e-4
-1.732, 1.235e-4
-1.733, 1.235e-4
-1.734, 1.266e-4
-1.735, 1.296e-4
-1.736, 1.296e-4
-1.737, 1.327e-4
-1.738, 1.358e-4
-1.739, 1.389e-4
-1.740, 1.451e-4
-1.741, 1.451e-4
-1.742, 1.481e-4
-1.743, 1.543e-4
-1.744, 1.543e-4
-1.745, 1.605e-4
-1.746, 1.636e-4
-1.747, 1.636e-4
-1.748, 1.697e-4
-1.749, 1.728e-4
-1.750, 1.759e-4
-1.751, 1.790e-4
-1.752, 1.851e-4
-1.753, 1.882e-4
-1.754, 1.913e-4
-1.755, 1.944e-4
-1.756, 2.006e-4
-1.757, 2.036e-4
-1.758, 2.098e-4
-1.759, 2.129e-4
-1.760, 2.191e-4
-1.761, 2.221e-4
-1.762, 2.283e-4
-1.763, 2.314e-4
-1.764, 2.376e-4
-1.765, 2.406e-4
-1.766, 2.468e-4
-1.767, 2.530e-4
-1.768, 2.591e-4
-1.769, 2.622e-4
-1.770, 2.684e-4
-1.771, 2.746e-4
-1.772, 2.807e-4
-1.773, 2.869e-4
-1.774, 2.931e-4
-1.775, 2.992e-4
-1.776, 3.054e-4
-1.777, 3.115e-4
-1.778, 3.177e-4
-1.779, 3.239e-4
-1.780, 3.331e-4
-1.781, 3.393e-4
-1.782, 3.455e-4
-1.783, 3.547e-4
-1.784, 3.609e-4
-1.785, 3.701e-4
-1.786, 3.763e-4
-1.787, 3.855e-4
-1.788, 3.917e-4
-1.789, 4.010e-4
-1.790, 4.102e-4
-1.791, 4.164e-4
-1.792, 4.256e-4
-1.793, 4.349e-4
-1.794, 4.441e-4
-1.795, 4.534e-4
-1.796, 4.626e-4
-1.797, 4.719e-4
-1.798, 4.811e-4
-1.799, 4.904e-4
-1.800, 5.027e-4
-1.801, 5.120e-4
-1.802, 5.212e-4
-1.803, 5.335e-4
-1.804, 5.428e-4
-1.805, 5.551e-4
-1.806, 5.674e-4
-1.807, 5.767e-4
-1.808, 5.890e-4
-1.809, 6.014e-4
-1.810, 6.137e-4
-1.811, 6.260e-4
-1.812, 6.384e-4
-1.813, 6.507e-4
-1.814, 6.630e-4
-1.815, 6.754e-4
-1.816, 6.908e-4
-1.817, 7.031e-4
-1.818, 7.185e-4
-1.819, 7.309e-4
-1.820, 7.463e-4
-1.821, 7.586e-4
-1.822, 7.740e-4
-1.823, 7.894e-4
-1.824, 8.048e-4
-1.825, 8.203e-4
-1.826, 8.357e-4
-1.827, 8.511e-4
-1.828, 8.696e-4
-1.829, 8.850e-4
-1.830, 9.004e-4
-1.831, 9.189e-4
-1.832, 9.343e-4
-1.833, 9.528e-4
-1.834, 9.713e-4
-1.835, 9.898e-4
-1.836, 1.005e-3
-1.837, 1.024e-3
-1.838, 1.042e-3
-1.839, 1.061e-3
-1.840, 1.082e-3
-1.841, 1.101e-3
-1.842, 1.122e-3
-1.843, 1.141e-3
-1.844, 1.162e-3
-1.845, 1.181e-3
-1.846, 1.203e-3
-1.847, 1.221e-3
-1.848, 1.243e-3
-1.849, 1.264e-3
-1.850, 1.289e-3
-1.851, 1.310e-3
-1.852, 1.335e-3
-1.853, 1.357e-3
-1.854, 1.381e-3
-1.855, 1.403e-3
-1.856, 1.428e-3
-1.857, 1.452e-3
-1.858, 1.474e-3
-1.859, 1.499e-3
-1.860, 1.526e-3
-1.861, 1.551e-3
-1.862, 1.576e-3
-1.863, 1.603e-3
-1.864, 1.628e-3
-1.865, 1.659e-3
-1.866, 1.684e-3
-1.867, 1.711e-3
-1.868, 1.739e-3
-1.869, 1.767e-3
-1.870, 1.795e-3
-1.871, 1.825e-3
-1.872, 1.853e-3
-1.873, 1.884e-3
-1.874, 1.915e-3
-1.875, 1.943e-3
-1.876, 1.973e-3
-1.877, 2.004e-3
-1.878, 2.035e-3
-1.879, 2.066e-3
-1.880, 2.100e-3
-1.881, 2.131e-3
-1.882, 2.164e-3
-1.883, 2.195e-3
-1.884, 2.229e-3
-1.885, 2.263e-3
-1.886, 2.294e-3
-1.887, 2.331e-3
-1.888, 2.365e-3
-1.889, 2.402e-3
-1.890, 2.436e-3
-1.891, 2.473e-3
-1.892, 2.510e-3
-1.893, 2.547e-3
-1.894, 2.584e-3
-1.895, 2.621e-3
-1.896, 2.658e-3
-1.897, 2.695e-3
-1.898, 2.735e-3
-1.899, 2.772e-3
-1.900, 2.787e-3
-1.899, 2.775e-3
-1.898, 2.760e-3
-1.897, 2.747e-3
-1.896, 2.729e-3
-1.895, 2.713e-3
-1.894, 2.698e-3
-1.893, 2.682e-3
-1.892, 2.664e-3
-1.891, 2.649e-3
-1.890, 2.630e-3
-1.889, 2.615e-3
-1.888, 2.596e-3
-1.887, 2.578e-3
-1.886, 2.559e-3
-1.885, 2.541e-3
-1.884, 2.519e-3
-1.883, 2.501e-3
-1.882, 2.479e-3
-1.881, 2.460e-3
-1.880, 2.439e-3
-1.879, 2.420e-3
-1.878, 2.399e-3
-1.877, 2.380e-3
-1.876, 2.362e-3
-1.875, 2.343e-3
-1.874, 2.322e-3
-1.873, 2.303e-3
-1.872, 2.285e-3
-1.871, 2.266e-3
-1.870, 2.245e-3
-1.869, 2.226e-3
-1.868, 2.205e-3
-1.867, 2.186e-3
-1.866, 2.164e-3
-1.865, 2.146e-3
-1.864, 2.128e-3
-1.863, 2.106e-3
-1.862, 2.084e-3
-1.861, 2.066e-3
-1.860, 2.047e-3
-1.859, 2.026e-3
-1.858, 2.007e-3
-1.857, 1.989e-3
-1.856, 1.970e-3
-1.855, 1.952e-3
-1.854, 1.933e-3
-1.853, 1.912e-3
-1.852, 1.893e-3
-1.851, 1.875e-3
-1.850, 1.856e-3
-1.849, 1.838e-3
-1.848, 1.819e-3
-1.847, 1.801e-3
-1.846, 1.785e-3
-1.845, 1.767e-3
-1.844, 1.745e-3
-1.843, 1.730e-3
-1.842, 1.708e-3
-1.841, 1.690e-3
-1.840, 1.674e-3
-1.839, 1.656e-3
-1.838, 1.637e-3
-1.837, 1.622e-3
-1.836, 1.603e-3
-1.835, 1.585e-3
-1.834, 1.566e-3
-1.833, 1.551e-3
-1.832, 1.536e-3
-1.831, 1.517e-3
-1.830, 1.502e-3
-1.829, 1.483e-3
-1.828, 1.468e-3
-1.827, 1.449e-3
-1.826, 1.434e-3
-1.825, 1.418e-3
-1.824, 1.400e-3
-1.823, 1.384e-3
-1.822, 1.369e-3
-1.821, 1.354e-3
-1.820, 1.338e-3
-1.819, 1.320e-3
-1.818, 1.307e-3
-1.817, 1.292e-3
-1.816, 1.277e-3
-1.815, 1.261e-3
-1.814, 1.243e-3
-1.813, 1.227e-3
-1.812, 1.215e-3
-1.811, 1.203e-3
-1.810, 1.187e-3
-1.809, 1.172e-3
-1.808, 1.159e-3
-1.807, 1.144e-3
-1.806, 1.132e-3
-1.805, 1.116e-3
-1.804, 1.101e-3
-1.803, 1.088e-3
-1.802, 1.073e-3
-1.801, 1.061e-3
-1.800, 1.048e-3
-1.799, 1.033e-3
-1.798, 1.021e-3
-1.797, 1.008e-3
-1.796, 9.960e-4
-1.795, 9.837e-4
-1.794, 9.713e-4
-1.793, 9.559e-4
-1.792, 9.436e-4
-1.791, 9.313e-4
-1.790, 9.189e-4
-1.789, 9.097e-4
-1.788, 8.943e-4
-1.787, 8.850e-4
-1.786, 8.727e-4
-1.785, 8.603e-4
-1.784, 8.480e-4
-1.783, 8.357e-4
-1.782, 8.233e-4
-1.781, 8.141e-4
-1.780, 8.018e-4
-1.779, 7.894e-4
-1.778, 7.802e-4
-1.777, 7.709e-4
-1.776, 7.586e-4
-1.775, 7.494e-4
-1.774, 7.370e-4
-1.773, 7.278e-4
-1.772, 7.185e-4
-1.771, 7.062e-4
-1.770, 6.969e-4
-1.769, 6.877e-4
-1.768, 6.784e-4
-1.767, 6.661e-4
-1.766, 6.569e-4
-1.765, 6.476e-4
-1.764, 6.384e-4
-1.763, 6.291e-4
-1.762, 6.199e-4
-1.761, 6.106e-4
-1.760, 6.014e-4
-1.759, 5.921e-4
-1.758, 5.859e-4
-1.757, 5.767e-4
-1.756, 5.674e-4
-1.755, 5.582e-4
-1.754, 5.489e-4
-1.753, 5.397e-4
-1.752, 5.335e-4
-1.751, 5.243e-4
-1.750, 5.181e-4
-1.749, 5.089e-4
-1.748, 5.027e-4
-1.747, 4.935e-4
-1.746, 4.873e-4
-1.745, 4.780e-4
-1.744, 4.719e-4
-1.743, 4.626e-4
-1.742, 4.565e-4
-1.741, 4.503e-4
-1.740, 4.410e-4
-1.739, 4.349e-4
-1.738, 4.287e-4
-1.737, 4.225e-4
-1.736, 4.133e-4
-1.735, 4.102e-4
-1.734, 4.010e-4
-1.733, 3.948e-4
-1.732, 3.886e-4
-1.731, 3.825e-4
-1.730, 3.763e-4
-1.729, 3.701e-4
-1.728, 3.640e-4
-1.727, 3.578e-4
-1.726, 3.516e-4
-1.725, 3.455e-4
-1.724, 3.393e-4
-1.723, 3.331e-4
-1.722, 3.270e-4
-1.721, 3.239e-4
-1.720, 3.177e-4
-1.719, 3.115e-4
-1.718, 3.085e-4
-1.717, 3.023e-4
-1.716, 2.961e-4
-1.715, 2.931e-4
-1.714, 2.869e-4
-1.713, 2.807e-4
-1.712, 2.776e-4
-1.711, 2.715e-4
-1.710, 2.684e-4
-1.709, 2.622e-4
-1.708, 2.561e-4
-1.707, 2.530e-4
-1.706, 2.499e-4
-1.705, 2.437e-4
-1.704, 2.406e-4
-1.703, 2.345e-4
-1.702, 2.314e-4
-1.701, 2.283e-4
-1.700, 2.221e-4
-1.699, 2.191e-4
-1.698, 2.160e-4
-1.697, 2.098e-4
-1.696, 2.067e-4
-1.695, 2.036e-4
-1.694, 2.006e-4
-1.693, 1.944e-4
-1.692, 1.913e-4
-1.691, 1.882e-4
-1.690, 1.851e-4
-1.689, 1.821e-4
-1.688, 1.790e-4
-1.687, 1.759e-4
-1.686, 1.728e-4
-1.685, 1.666e-4
-1.684, 1.666e-4
-1.683, 1.636e-4
-1.682, 1.605e-4
-1.681, 1.543e-4
-1.680, 1.543e-4
-1.679, 1.512e-4
-1.678, 1.481e-4
-1.677, 1.451e-4
-1.676, 1.420e-4
-1.675, 1.389e-4
-1.674, 1.358e-4
-1.673, 1.327e-4
-1.672, 1.327e-4
-1.671, 1.296e-4
-1.670, 1.266e-4
-1.669, 1.235e-4
-1.668, 1.204e-4
-1.667, 1.204e-4
-1.666, 1.173e-4
-1.665, 1.142e-4
-1.664, 1.111e-4
-1.663, 1.081e-4
-1.662, 1.081e-4
-1.661, 1.050e-4
-1.660, 1.019e-4
-1.659, 1.019e-4
-1.658, 9.882e-5
-1.657, 9.573e-5
-1.656, 9.573e-5
-1.655, 9.265e-5
-1.654, 8.957e-5
-1.653, 8.957e-5
-1.652, 8.648e-5
-1.651, 8.648e-5
-1.650, 8.340e-5
-1.649, 8.032e-5
-1.648, 8.032e-5
-1.647, 7.723e-5
-1.646, 7.723e-5
-1.645, 7.415e-5
-1.644, 7.107e-5
-1.643, 7.107e-5
-1.642, 6.798e-5
-1.641, 6.798e-5
-1.640, 6.798e-5
-1.639, 6.490e-5
-1.638, 6.490e-5
-1.637, 6.182e-5
-1.636, 6.182e-5
-1.635, 6.182e-5
-1.634, 5.873e-5
-1.633, 5.873e-5
-1.632, 5.565e-5
-1.631, 5.565e-5
-1.630, 5.565e-5
-1.629, 5.257e-5
-1.628, 5.257e-5
-1.627, 4.949e-5
-1.626, 4.949e-5
-1.625, 4.640e-5
-1.624, 4.640e-5
-1.623, 4.640e-5
-1.622, 4.332e-5
-1.621, 4.332e-5
-1.620, 4.332e-5
-1.619, 4.024e-5
-1.618, 4.024e-5
-1.617, 4.024e-5
-1.616, 3.715e-5
-1.615, 4.024e-5
-1.614, 3.715e-5
-1.613, 3.715e-5
-1.612, 3.715e-5
-1.611, 3.407e-5
-1.610, 3.407e-5
-1.609, 3.407e-5
-1.608, 3.099e-5
-1.607, 3.099e-5
-1.606, 3.099e-5
-1.605, 3.099e-5
-1.604, 2.790e-5
-1.603, 2.790e-5
-1.602, 2.790e-5
-1.601, 2.790e-5
-1.600, 2.482e-5
-1.599, 2.482e-5
-1.598, 2.482e-5
-1.597, 2.482e-5
-1.596, 2.174e-5
-1.595, 2.174e-5
-1.594, 2.174e-5
-1.593, 2.174e-5
-1.592, 2.174e-5
-1.591, 2.174e-5
-1.590, 1.865e-5
-1.589, 1.865e-5
-1.588, 1.865e-5
-1.587, 1.865e-5
-1.586, 1.865e-5
-1.585, 1.865e-5
-1.584, 1.557e-5
-1.583, 1.557e-5
-1.582, 1.557e-5
-1.581, 1.557e-5
-1.580, 1.557e-5
-1.579, 1.557e-5
-1.578, 1.557e-5
-1.577, 1.249e-5
-1.576, 1.249e-5
-1.575, 1.249e-5
-1.574, 1.249e-5
-1.573, 1.249e-5
-1.572, 1.249e-5
-1.571, 1.249e-5
-1.570, 9.405e-6
-1.569, 9.405e-6
-1.568, 9.405e-6
-1.567, 9.405e-6
-1.566, 9.405e-6
-1.565, 9.405e-6
-1.564, 9.405e-6
-1.563, 9.405e-6
-1.562, 9.405e-6
-1.561, 9.405e-6
-1.560, 9.405e-6
-1.559, 6.322e-6
-1.558, 9.405e-6
-1.557, 6.322e-6
-1.556, 6.322e-6
-1.555, 6.322e-6
-1.554, 6.322e-6
-1.553, 6.322e-6
-1.552, 6.322e-6
-1.551, 6.322e-6
-1.550, 6.322e-6
-1.549, 6.322e-6
-1.548, 3.239e-6
-1.547, 3.239e-6
-1.546, 6.322e-6
-1.545, 3.239e-6
-1.544, 6.322e-6
-1.543, 3.239e-6
-1.542, 3.239e-6
-1.541, 3.239e-6
-1.540, 3.239e-6
-1.539, 3.239e-6
-1.538, 3.239e-6
-1.537, 3.239e-6
-1.536, 3.239e-6
-1.535, 3.239e-6
-1.534, 3.239e-6
-1.533, 3.239e-6
-1.532, 3.239e-6
-1.531, 3.239e-6
-1.530, 3.239e-6
-1.529, 3.239e-6
-1.528, 1.559e-7
-1.527, 1.559e-7
-1.526, 3.239e-6
-1.525, 1.559e-7
-1.524, 1.559e-7
-1.523, 1.559e-7
-1.522, 1.559e-7
-1.521, 1.559e-7
-1.520, 1.559e-7
-1.519, 1.559e-7
-1.518, 1.559e-7
-1.517, 1.559e-7
-1.516, 1.559e-7
-1.515, 1.559e-7
-1.514, 1.559e-7
-1.513, 1.559e-7
-1.512, 1.559e-7
-1.511, 1.559e-7
-1.510, 1.559e-7
-1.509, 1.559e-7
-1.508, 1.559e-7
-1.507, 1.559e-7
-1.506, 1.559e-7
-1.505, 1.559e-7
-1.504, 1.559e-7
-1.503, 1.559e-7
-1.502, 1.559e-7
-1.501, 1.559e-7
-1.500, 1.559e-7
-1.499, 1.559e-7
-1.498, 1.559e-7
-1.497, 1.559e-7
-1.496, 1.559e-7
-1.495, 1.559e-7
-1.494, 1.559e-7
-1.493, 1.559e-7
-1.492, 1.559e-7
-1.491, 1.559e-7
-1.490, -2.927e-6
-1.489, -2.927e-6
-1.488, -2.927e-6
-1.487, -2.927e-6
-1.486, 1.559e-7
-1.485, -2.927e-6
-1.484, -2.927e-6
-1.483, 1.559e-7
-1.482, -2.927e-6
-1.481, -2.927e-6
-1.480, 1.559e-7
-1.479, -2.927e-6
-1.478, -2.927e-6
-1.477, -2.927e-6
-1.476, -2.927e-6
-1.475, -2.927e-6
-1.474, 1.559e-7
-1.473, -2.927e-6
-1.472, 1.559e-7
-1.471, -2.927e-6
-1.470, -2.927e-6
-1.469, -2.927e-6
-1.468, -2.927e-6
-1.467, -2.927e-6
-1.466, -2.927e-6
-1.465, -2.927e-6
-1.464, -2.927e-6
-1.463, -2.927e-6
-1.462, -2.927e-6
-1.461, -2.927e-6
-1.460, 1.559e-7
-1.459, -2.927e-6
-1.458, -2.927e-6
-1.457, -2.927e-6
-1.456, -2.927e-6
-1.455, -2.927e-6
-1.454, -2.927e-6
-1.453, -2.927e-6
-1.452, -2.927e-6
-1.451, -2.927e-6
-1.450, -2.927e-6
-1.449, -2.927e-6
-1.448, -2.927e-6
-1.447, -2.927e-6
-1.446, -2.927e-6
-1.445, -2.927e-6
-1.444, -2.927e-6
-1.443, -2.927e-6
-1.442, -2.927e-6
-1.441, -2.927e-6
-1.440, -2.927e-6
-1.439, -2.927e-6
-1.438, -2.927e-6
-1.437, -2.927e-6
-1.436, -2.927e-6
-1.435, -2.927e-6
-1.434, -2.927e-6
-1.433, -2.927e-6
-1.432, -2.927e-6
-1.431, -2.927e-6
-1.430, -2.927e-6
-1.429, -2.927e-6
-1.428, -2.927e-6
-1.427, -2.927e-6
-1.426, -2.927e-6
-1.425, -2.927e-6
-1.424, -2.927e-6
-1.423, -2.927e-6
-1.422, -2.927e-6
-1.421, -2.927e-6
-1.420, -2.927e-6
-1.419, -2.927e-6
-1.418, -2.927e-6
-1.417, -2.927e-6
-1.416, -2.927e-6
-1.415, -2.927e-6
-1.414, -2.927e-6
-1.413, -2.927e-6
-1.412, -2.927e-6
-1.411, -2.927e-6
-1.410, -2.927e-6
-1.409, -2.927e-6
-1.408, -2.927e-6
-1.407, -2.927e-6
-1.406, -2.927e-6
-1.405, -2.927e-6
-1.404, -2.927e-6
-1.403, -2.927e-6
-1.402, -2.927e-6
-1.401, -2.927e-6
-1.400, -2.927e-6
-1.399, -2.927e-6
-1.398, -2.927e-6
-1.397, -2.927e-6
-1.396, -2.927e-6
-1.395, -2.927e-6
-1.394, -2.927e-6
-1.393, -2.927e-6
-1.392, -2.927e-6
-1.391, -2.927e-6
-1.390, -2.927e-6
-1.389, -2.927e-6
-1.388, -2.927e-6
-1.387, -6.010e-6
-1.386, -2.927e-6
-1.385, -2.927e-6
-1.384, -2.927e-6
-1.383, -2.927e-6
-1.382, -6.010e-6
-1.381, -2.927e-6
-1.380, -2.927e-6
-1.379, -2.927e-6
-1.378, -2.927e-6
-1.377, -2.927e-6
-1.376, -2.927e-6
-1.375, -2.927e-6
-1.374, -2.927e-6
-1.373, -2.927e-6
-1.372, -2.927e-6
-1.371, -2.927e-6
-1.370, -2.927e-6
-1.369, -2.927e-6
-1.368, -6.010e-6
-1.367, -6.010e-6
-1.366, -2.927e-6
-1.365, -2.927e-6
-1.364, -2.927e-6
-1.363, -2.927e-6
-1.362, -2.927e-6
-1.361, -2.927e-6
-1.360, -2.927e-6
-1.359, -6.010e-6
-1.358, -2.927e-6
-1.357, -2.927e-6
-1.356, -2.927e-6
-1.355, -2.927e-6
-1.354, -2.927e-6
-1.353, -2.927e-6
-1.352, -2.927e-6
-1.351, -2.927e-6
-1.350, -2.927e-6
-1.349, -2.927e-6
-1.348, -2.927e-6
-1.347, -2.927e-6
-1.346, -2.927e-6
-1.345, -6.010e-6
-1.344, -2.927e-6
-1.343, -2.927e-6
-1.342, -2.927e-6
-1.341, -2.927e-6
-1.340, -2.927e-6
-1.339, -2.927e-6
-1.338, -2.927e-6
-1.337, -2.927e-6
-1.336, -2.927e-6
-1.335, -2.927e-6
-1.334, -2.927e-6
-1.333, -6.010e-6
-1.332, -2.927e-6
-1.331, -2.927e-6
-1.330, -2.927e-6
-1.329, -2.927e-6
-1.328, -2.927e-6
-1.327, -2.927e-6
-1.326, -2.927e-6
-1.325, -6.010e-6
-1.324, -2.927e-6
-1.323, -2.927e-6
-1.322, -6.010e-6
-1.321, -2.927e-6
-1.320, -2.927e-6
-1.319, -2.927e-6
-1.318, -2.927e-6
-1.317, -6.010e-6
-1.316, -2.927e-6
-1.315, -2.927e-6
-1.314, -2.927e-6
-1.313, -6.010e-6
-1.312, -2.927e-6
-1.311, -2.927e-6
-1.310, -6.010e-6
-1.309, -2.927e-6
-1.308, -2.927e-6
-1.307, -6.010e-6
-1.306, -2.927e-6
-1.305, -2.927e-6
-1.304, -6.010e-6
-1.303, -2.927e-6
-1.302, -6.010e-6
-1.301, -2.927e-6
-1.300, -2.927e-6
-1.299, -6.010e-6
-1.298, -2.927e-6
-1.297, -2.927e-6
-1.296, -2.927e-6
-1.295, -2.927e-6
-1.294, -2.927e-6
-1.293, -2.927e-6
-1.292, -2.927e-6
-1.291, -2.927e-6
-1.290, -2.927e-6
-1.289, -2.927e-6
-1.288, -6.010e-6
-1.287, -6.010e-6
-1.286, -2.927e-6
-1.285, -6.010e-6
-1.284, -6.010e-6
-1.283, -2.927e-6
-1.282, -6.010e-6
-1.281, -2.927e-6
-1.280, -2.927e-6
-1.279, -6.010e-6
-1.278, -2.927e-6
-1.277, -2.927e-6
-1.276, -2.927e-6
-1.275, -2.927e-6
-1.274, -2.927e-6
-1.273, -6.010e-6
-1.272, -2.927e-6
-1.271, -2.927e-6
-1.270, -6.010e-6
-1.269, -6.010e-6
-1.268, -6.010e-6
-1.267, -2.927e-6
-1.266, -2.927e-6
-1.265, -2.927e-6
-1.264, -2.927e-6
-1.263, -2.927e-6
-1.262, -6.010e-6
-1.261, -2.927e-6
-1.260, -2.927e-6
-1.259, -6.010e-6
-1.258, -2.927e-6
-1.257, -2.927e-6
-1.256, -2.927e-6
-1.255, -2.927e-6
-1.254, -2.927e-6
-1.253, -6.010e-6
-1.252, -2.927e-6
-1.251, -2.927e-6
-1.250, -6.010e-6
-1.249, -6.010e-6
-1.248, -6.010e-6
-1.247, -6.010e-6
-1.246, -2.927e-6
-1.245, -2.927e-6
-1.244, -2.927e-6
-1.243, -2.927e-6
-1.242, -6.010e-6
-1.241, -6.010e-6
-1.240, -2.927e-6
-1.239, -6.010e-6
-1.238, -2.927e-6
-1.237, -6.010e-6
-1.236, -2.927e-6
-1.235, -2.927e-6
-1.234, -6.010e-6
-1.233, -6.010e-6
-1.232, -2.927e-6
-1.231, -2.927e-6
-1.230, -2.927e-6
-1.229, -2.927e-6
-1.228, -6.010e-6
-1.227, -2.927e-6
-1.226, -2.927e-6
-1.225, -6.010e-6
-1.224, -6.010e-6
-1.223, -2.927e-6
-1.222, -6.010e-6
-1.221, -2.927e-6
-1.220, -2.927e-6
-1.219, -6.010e-6
-1.218, -2.927e-6
-1.217, -2.927e-6
-1.216, -6.010e-6
-1.215, -2.927e-6
-1.214, -2.927e-6
-1.213, -6.010e-6
-1.212, -6.010e-6
-1.211, -6.010e-6
-1.210, -2.927e-6
-1.209, -2.927e-6
-1.208, -6.010e-6
-1.207, -6.010e-6
-1.206, -2.927e-6
-1.205, -6.010e-6
-1.204, -6.010e-6
-1.203, -2.927e-6
-1.202, -6.010e-6
-1.201, -2.927e-6
-1.200, -6.010e-6
-1.199, -6.010e-6
-1.198, -2.927e-6
-1.197, -6.010e-6
-1.196, -6.010e-6
-1.195, -2.927e-6
-1.194, -6.010e-6
-1.193, -6.010e-6
-1.192, -2.927e-6
-1.191, -6.010e-6
-1.190, -6.010e-6
-1.189, -6.010e-6
-1.188, -6.010e-6
-1.187, -2.927e-6
-1.186, -6.010e-6
-1.185, -6.010e-6
-1.184, -2.927e-6
-1.183, -6.010e-6
-1.182, -6.010e-6
-1.181, -6.010e-6
-1.180, -2.927e-6
-1.179, -6.010e-6
-1.178, -6.010e-6
-1.177, -2.927e-6
-1.176, -6.010e-6
-1.175, -6.010e-6
-1.174, -6.010e-6
-1.173, -6.010e-6
-1.172, -6.010e-6
-1.171, -6.010e-6
-1.170, -6.010e-6
-1.169, -2.927e-6
-1.168, -6.010e-6
-1.167, -6.010e-6
-1.166, -2.927e-6
-1.165, -6.010e-6
-1.164, -6.010e-6
-1.163, -6.010e-6
-1.162, -6.010e-6
-1.161, -6.010e-6
-1.160, -2.927e-6
-1.159, -6.010e-6
-1.158, -6.010e-6
-1.157, -6.010e-6
-1.156, -6.010e-6
-1.155, -6.010e-6
-1.154, -6.010e-6
-1.153, -6.010e-6
-1.152, -6.010e-6
-1.151, -2.927e-6
-1.150, -2.927e-6
-1.149, -6.010e-6
-1.148, -6.010e-6
-1.147, -6.010e-6
-1.146, -6.010e-6
-1.145, -6.010e-6
-1.144, -6.010e-6
-1.143, -2.927e-6
-1.142, -6.010e-6
-1.141, -6.010e-6
-1.140, -2.927e-6
-1.139, -6.010e-6
-1.138, -6.010e-6
-1.137, -6.010e-6
-1.136, -6.010e-6
-1.135, -2.927e-6
-1.134, -6.010e-6
-1.133, -6.010e-6
-1.132, -6.010e-6
-1.131, -6.010e-6
-1.130, -6.010e-6
-1.129, -6.010e-6
-1.128, -6.010e-6
-1.127, -6.010e-6
-1.126, -6.010e-6
-1.125, -6.010e-6
-1.124, -6.010e-6
-1.123, -2.927e-6
-1.122, -6.010e-6
-1.121, -2.927e-6
-1.120, -6.010e-6
-1.119, -6.010e-6
-1.118, -6.010e-6
-1.117, -6.010e-6
-1.116, -6.010e-6
-1.115, -6.010e-6
-1.114, -6.010e-6
-1.113, -6.010e-6
-1.112, -6.010e-6
-1.111, -6.010e-6
-1.110, -6.010e-6
-1.109, -6.010e-6
-1.108, -6.010e-6
-1.107, -6.010e-6
-1.106, -6.010e-6
-1.105, -6.010e-6
-1.104, -2.927e-6
-1.103, -6.010e-6
-1.102, -6.010e-6
-1.101, -6.010e-6
-1.100, -6.010e-6
-1.099, -6.010e-6
-1.098, -6.010e-6
-1.097, -6.010e-6
-1.096, -6.010e-6
-1.095, -6.010e-6
-1.094, -6.010e-6
-1.093, -6.010e-6
-1.092, -6.010e-6
-1.091, -6.010e-6
-1.090, -6.010e-6
-1.089, -6.010e-6
-1.088, -6.010e-6
-1.087, -6.010e-6
-1.086, -6.010e-6
-1.085, -6.010e-6
-1.084, -6.010e-6
-1.083, -6.010e-6
-1.082, -6.010e-6
-1.081, -6.010e-6
-1.080, -2.927e-6
-1.079, -6.010e-6
-1.078, -6.010e-6
-1.077, -6.010e-6
-1.076, -6.010e-6
-1.075, -6.010e-6
-1.074, -6.010e-6
-1.073, -6.010e-6
-1.072, -6.010e-6
-1.071, -6.010e-6
-1.070, -6.010e-6
-1.069, -6.010e-6
-1.068, -6.010e-6
-1.067, -6.010e-6
-1.066, -6.010e-6
-1.065, -6.010e-6
-1.064, -6.010e-6
-1.063, -6.010e-6
-1.062, -6.010e-6
-1.061, -6.010e-6
-1.060, -6.010e-6
-1.059, -6.010e-6
-1.058, -6.010e-6
-1.057, -6.010e-6
-1.056, -6.010e-6
-1.055, -6.010e-6
-1.054, -6.010e-6
-1.053, -6.010e-6
-1.052, -6.010e-6
-1.051, -6.010e-6
-1.050, -6.010e-6
-1.049, -6.010e-6
-1.048, -6.010e-6
-1.047, -6.010e-6
-1.046, -6.010e-6
-1.045, -6.010e-6
-1.044, -6.010e-6
-1.043, -6.010e-6
-1.042, -6.010e-6
-1.041, -6.010e-6
-1.040, -6.010e-6
-1.039, -6.010e-6
-1.038, -6.010e-6
-1.037, -6.010e-6
-1.036, -6.010e-6
-1.035, -6.010e-6
-1.034, -6.010e-6
-1.033, -6.010e-6
-1.032, -6.010e-6
-1.031, -6.010e-6
-1.030, -6.010e-6
-1.029, -6.010e-6
-1.028, -6.010e-6
-1.027, -6.010e-6
-1.026, -6.010e-6
-1.025, -6.010e-6
-1.024, -6.010e-6
-1.023, -6.010e-6
-1.022, -6.010e-6
-1.021, -6.010e-6
-1.020, -2.927e-6
-1.019, -6.010e-6
-1.018, -6.010e-6
-1.017, -6.010e-6
-1.016, -6.010e-6
-1.015, -6.010e-6
-1.014, -6.010e-6
-1.013, -6.010e-6
-1.012, -6.010e-6
-1.011, -6.010e-6
-1.010, -6.010e-6
-1.009, -6.010e-6
-1.008, -6.010e-6
-1.007, -6.010e-6
-1.006, -6.010e-6
-1.005, -6.010e-6
-1.004, -6.010e-6
-1.003, -6.010e-6
-1.002, -6.010e-6
-1.001, -6.010e-6
