July 13, 2024   17:35:14
Cyclic Voltammetry
File: c:/users/guazh/data/20240709_batch67/2024-07-10-exp34\exp34-2024-07-13t17_30_19-h2koh\exp34_cv_50mvs_efin_-1400mv.bin
Data Source:  Experiment
Instrument Model:  CHI760E
Header: CV ran at 50 mVs
Note: 

Init E (V) = -1
High E (V) = -1
Low E (V) = -1.4
Final E (V) = -1
Init P/N = N
Scan Rate (V/s) = 0.05
Segment = 7
Sample Interval (V) = 0.001
Quiet Time (sec) = 60
Sensitivity (A/V) = 0.001
Comp R (ohm) = 1.9

Results:

Channel 1:
Segment 1:
Ep = -1.202V
ip = 1.270e-3A
Ah = 1.911e-3C

Segment 2:
Ep = -1.036V
ip = -5.417e-5A
Ah = -8.112e-5C

Segment 3:

Segment 4:

Segment 5:

Segment 6:

Segment 7:

Potential/V, Current/A

-1.000, 3.027e-5
-1.001, 3.893e-5
-1.002, 4.112e-5
-1.003, 4.106e-5
-1.004, 4.068e-5
-1.005, 4.208e-5
-1.006, 4.487e-5
-1.007, 4.647e-5
-1.008, 4.593e-5
-1.009, 4.539e-5
-1.010, 4.682e-5
-1.011, 4.935e-5
-1.012, 5.091e-5
-1.013, 5.053e-5
-1.014, 4.978e-5
-1.015, 5.138e-5
-1.016, 5.389e-5
-1.017, 5.545e-5
-1.018, 5.524e-5
-1.019, 5.460e-5
-1.020, 5.606e-5
-1.021, 5.881e-5
-1.022, 6.044e-5
-1.023, 6.050e-5
-1.024, 5.989e-5
-1.025, 6.129e-5
-1.026, 6.448e-5
-1.027, 6.598e-5
-1.028, 6.626e-5
-1.029, 6.569e-5
-1.030, 6.736e-5
-1.031, 7.075e-5
-1.032, 7.247e-5
-1.033, 7.261e-5
-1.034, 7.248e-5
-1.035, 7.429e-5
-1.036, 7.781e-5
-1.037, 7.988e-5
-1.038, 8.020e-5
-1.039, 8.036e-5
-1.040, 8.232e-5
-1.041, 8.595e-5
-1.042, 8.850e-5
-1.043, 8.896e-5
-1.044, 8.944e-5
-1.045, 9.166e-5
-1.046, 9.550e-5
-1.047, 9.830e-5
-1.048, 9.917e-5
-1.049, 9.987e-5
-1.050, 1.028e-4
-1.051, 1.067e-4
-1.052, 1.099e-4
-1.053, 1.110e-4
-1.054, 1.121e-4
-1.055, 1.153e-4
-1.056, 1.196e-4
-1.057, 1.230e-4
-1.058, 1.249e-4
-1.059, 1.262e-4
-1.060, 1.299e-4
-1.061, 1.348e-4
-1.062, 1.387e-4
-1.063, 1.410e-4
-1.064, 1.427e-4
-1.065, 1.467e-4
-1.066, 1.525e-4
-1.067, 1.567e-4
-1.068, 1.596e-4
-1.069, 1.621e-4
-1.070, 1.667e-4
-1.071, 1.729e-4
-1.072, 1.778e-4
-1.073, 1.812e-4
-1.074, 1.845e-4
-1.075, 1.900e-4
-1.076, 1.967e-4
-1.077, 2.023e-4
-1.078, 2.065e-4
-1.079, 2.104e-4
-1.080, 2.164e-4
-1.081, 2.241e-4
-1.082, 2.309e-4
-1.083, 2.357e-4
-1.084, 2.407e-4
-1.085, 2.473e-4
-1.086, 2.559e-4
-1.087, 2.636e-4
-1.088, 2.692e-4
-1.089, 2.750e-4
-1.090, 2.831e-4
-1.091, 2.923e-4
-1.092, 3.011e-4
-1.093, 3.080e-4
-1.094, 3.145e-4
-1.095, 3.235e-4
-1.096, 3.342e-4
-1.097, 3.438e-4
-1.098, 3.518e-4
-1.099, 3.598e-4
-1.100, 3.698e-4
-1.101, 3.817e-4
-1.102, 3.924e-4
-1.103, 4.019e-4
-1.104, 4.108e-4
-1.105, 4.220e-4
-1.106, 4.348e-4
-1.107, 4.468e-4
-1.108, 4.575e-4
-1.109, 4.673e-4
-1.110, 4.799e-4
-1.111, 4.944e-4
-1.112, 5.075e-4
-1.113, 5.191e-4
-1.114, 5.308e-4
-1.115, 5.443e-4
-1.116, 5.595e-4
-1.117, 5.739e-4
-1.118, 5.864e-4
-1.119, 5.995e-4
-1.120, 6.144e-4
-1.121, 6.309e-4
-1.122, 6.461e-4
-1.123, 6.595e-4
-1.124, 6.730e-4
-1.125, 6.885e-4
-1.126, 7.064e-4
-1.127, 7.230e-4
-1.128, 7.376e-4
-1.129, 7.517e-4
-1.130, 7.683e-4
-1.131, 7.869e-4
-1.132, 8.039e-4
-1.133, 8.185e-4
-1.134, 8.335e-4
-1.135, 8.506e-4
-1.136, 8.684e-4
-1.137, 8.858e-4
-1.138, 9.010e-4
-1.139, 9.160e-4
-1.140, 9.328e-4
-1.141, 9.511e-4
-1.142, 9.680e-4
-1.143, 9.834e-4
-1.144, 9.977e-4
-1.145, 1.014e-3
-1.146, 1.032e-3
-1.147, 1.048e-3
-1.148, 1.063e-3
-1.149, 1.077e-3
-1.150, 1.092e-3
-1.151, 1.109e-3
-1.152, 1.125e-3
-1.153, 1.138e-3
-1.154, 1.151e-3
-1.155, 1.166e-3
-1.156, 1.182e-3
-1.157, 1.195e-3
-1.158, 1.208e-3
-1.159, 1.220e-3
-1.160, 1.232e-3
-1.161, 1.247e-3
-1.162, 1.259e-3
-1.163, 1.270e-3
-1.164, 1.281e-3
-1.165, 1.291e-3
-1.166, 1.303e-3
-1.167, 1.316e-3
-1.168, 1.325e-3
-1.169, 1.333e-3
-1.170, 1.343e-3
-1.171, 1.353e-3
-1.172, 1.362e-3
-1.173, 1.370e-3
-1.174, 1.376e-3
-1.175, 1.384e-3
-1.176, 1.393e-3
-1.177, 1.401e-3
-1.178, 1.406e-3
-1.179, 1.411e-3
-1.180, 1.417e-3
-1.181, 1.424e-3
-1.182, 1.431e-3
-1.183, 1.434e-3
-1.184, 1.437e-3
-1.185, 1.442e-3
-1.186, 1.447e-3
-1.187, 1.451e-3
-1.188, 1.455e-3
-1.189, 1.455e-3
-1.190, 1.459e-3
-1.191, 1.465e-3
-1.192, 1.467e-3
-1.193, 1.468e-3
-1.194, 1.468e-3
-1.195, 1.470e-3
-1.196, 1.474e-3
-1.197, 1.477e-3
-1.198, 1.477e-3
-1.199, 1.476e-3
-1.200, 1.477e-3
-1.201, 1.480e-3
-1.202, 1.481e-3
-1.203, 1.481e-3
-1.204, 1.479e-3
-1.205, 1.479e-3
-1.206, 1.481e-3
-1.207, 1.481e-3
-1.208, 1.479e-3
-1.209, 1.478e-3
-1.210, 1.477e-3
-1.211, 1.479e-3
-1.212, 1.480e-3
-1.213, 1.477e-3
-1.214, 1.475e-3
-1.215, 1.473e-3
-1.216, 1.474e-3
-1.217, 1.474e-3
-1.218, 1.473e-3
-1.219, 1.469e-3
-1.220, 1.468e-3
-1.221, 1.469e-3
-1.222, 1.467e-3
-1.223, 1.465e-3
-1.224, 1.462e-3
-1.225, 1.461e-3
-1.226, 1.461e-3
-1.227, 1.461e-3
-1.228, 1.458e-3
-1.229, 1.456e-3
-1.230, 1.454e-3
-1.231, 1.454e-3
-1.232, 1.453e-3
-1.233, 1.450e-3
-1.234, 1.447e-3
-1.235, 1.446e-3
-1.236, 1.445e-3
-1.237, 1.444e-3
-1.238, 1.442e-3
-1.239, 1.438e-3
-1.240, 1.436e-3
-1.241, 1.437e-3
-1.242, 1.436e-3
-1.243, 1.433e-3
-1.244, 1.430e-3
-1.245, 1.428e-3
-1.246, 1.428e-3
-1.247, 1.428e-3
-1.248, 1.424e-3
-1.249, 1.420e-3
-1.250, 1.419e-3
-1.251, 1.419e-3
-1.252, 1.417e-3
-1.253, 1.414e-3
-1.254, 1.411e-3
-1.255, 1.408e-3
-1.256, 1.408e-3
-1.257, 1.408e-3
-1.258, 1.404e-3
-1.259, 1.401e-3
-1.260, 1.401e-3
-1.261, 1.399e-3
-1.262, 1.398e-3
-1.263, 1.396e-3
-1.264, 1.391e-3
-1.265, 1.390e-3
-1.266, 1.389e-3
-1.267, 1.387e-3
-1.268, 1.385e-3
-1.269, 1.381e-3
-1.270, 1.380e-3
-1.271, 1.381e-3
-1.272, 1.380e-3
-1.273, 1.378e-3
-1.274, 1.375e-3
-1.275, 1.372e-3
-1.276, 1.372e-3
-1.277, 1.371e-3
-1.278, 1.368e-3
-1.279, 1.365e-3
-1.280, 1.365e-3
-1.281, 1.364e-3
-1.282, 1.364e-3
-1.283, 1.361e-3
-1.284, 1.359e-3
-1.285, 1.358e-3
-1.286, 1.358e-3
-1.287, 1.358e-3
-1.288, 1.356e-3
-1.289, 1.354e-3
-1.290, 1.354e-3
-1.291, 1.355e-3
-1.292, 1.355e-3
-1.293, 1.354e-3
-1.294, 1.352e-3
-1.295, 1.353e-3
-1.296, 1.354e-3
-1.297, 1.356e-3
-1.298, 1.356e-3
-1.299, 1.355e-3
-1.300, 1.357e-3
-1.301, 1.359e-3
-1.302, 1.362e-3
-1.303, 1.363e-3
-1.304, 1.363e-3
-1.305, 1.365e-3
-1.306, 1.369e-3
-1.307, 1.372e-3
-1.308, 1.374e-3
-1.309, 1.376e-3
-1.310, 1.379e-3
-1.311, 1.384e-3
-1.312, 1.389e-3
-1.313, 1.391e-3
-1.314, 1.395e-3
-1.315, 1.400e-3
-1.316, 1.406e-3
-1.317, 1.412e-3
-1.318, 1.418e-3
-1.319, 1.421e-3
-1.320, 1.428e-3
-1.321, 1.437e-3
-1.322, 1.444e-3
-1.323, 1.451e-3
-1.324, 1.457e-3
-1.325, 1.465e-3
-1.326, 1.475e-3
-1.327, 1.485e-3
-1.328, 1.492e-3
-1.329, 1.500e-3
-1.330, 1.511e-3
-1.331, 1.522e-3
-1.332, 1.534e-3
-1.333, 1.543e-3
-1.334, 1.553e-3
-1.335, 1.566e-3
-1.336, 1.579e-3
-1.337, 1.592e-3
-1.338, 1.605e-3
-1.339, 1.616e-3
-1.340, 1.629e-3
-1.341, 1.646e-3
-1.342, 1.662e-3
-1.343, 1.675e-3
-1.344, 1.689e-3
-1.345, 1.705e-3
-1.346, 1.723e-3
-1.347, 1.742e-3
-1.348, 1.757e-3
-1.349, 1.772e-3
-1.350, 1.790e-3
-1.351, 1.810e-3
-1.352, 1.828e-3
-1.353, 1.847e-3
-1.354, 1.864e-3
-1.355, 1.882e-3
-1.356, 1.906e-3
-1.357, 1.926e-3
-1.358, 1.945e-3
-1.359, 1.965e-3
-1.360, 1.986e-3
-1.361, 2.010e-3
-1.362, 2.034e-3
-1.363, 2.055e-3
-1.364, 2.076e-3
-1.365, 2.100e-3
-1.366, 2.122e-3
-1.367, 2.145e-3
-1.368, 2.169e-3
-1.369, 2.194e-3
-1.370, 2.219e-3
-1.371, 2.246e-3
-1.372, 2.272e-3
-1.373, 2.296e-3
-1.374, 2.320e-3
-1.375, 2.348e-3
-1.376, 2.375e-3
-1.377, 2.402e-3
-1.378, 2.427e-3
-1.379, 2.452e-3
-1.380, 2.482e-3
-1.381, 2.513e-3
-1.382, 2.540e-3
-1.383, 2.567e-3
-1.384, 2.595e-3
-1.385, 2.624e-3
-1.386, 2.656e-3
-1.387, 2.687e-3
-1.388, 2.713e-3
-1.389, 2.744e-3
-1.390, 2.778e-3
-1.391, 2.815e-3
-1.392, 2.849e-3
-1.393, 2.878e-3
-1.394, 2.906e-3
-1.395, 2.939e-3
-1.396, 2.971e-3
-1.397, 3.004e-3
-1.398, 3.038e-3
-1.399, 3.067e-3
-1.400, 3.055e-3
-1.399, 3.014e-3
-1.398, 2.973e-3
-1.397, 2.932e-3
-1.396, 2.892e-3
-1.395, 2.851e-3
-1.394, 2.813e-3
-1.393, 2.775e-3
-1.392, 2.733e-3
-1.391, 2.693e-3
-1.390, 2.656e-3
-1.389, 2.619e-3
-1.388, 2.583e-3
-1.387, 2.546e-3
-1.386, 2.506e-3
-1.385, 2.468e-3
-1.384, 2.434e-3
-1.383, 2.399e-3
-1.382, 2.361e-3
-1.381, 2.324e-3
-1.380, 2.288e-3
-1.379, 2.255e-3
-1.378, 2.222e-3
-1.377, 2.187e-3
-1.376, 2.153e-3
-1.375, 2.120e-3
-1.374, 2.086e-3
-1.373, 2.053e-3
-1.372, 2.019e-3
-1.371, 1.985e-3
-1.370, 1.952e-3
-1.369, 1.921e-3
-1.368, 1.889e-3
-1.367, 1.857e-3
-1.366, 1.824e-3
-1.365, 1.793e-3
-1.364, 1.763e-3
-1.363, 1.733e-3
-1.362, 1.700e-3
-1.361, 1.668e-3
-1.360, 1.639e-3
-1.359, 1.610e-3
-1.358, 1.581e-3
-1.357, 1.551e-3
-1.356, 1.520e-3
-1.355, 1.492e-3
-1.354, 1.465e-3
-1.353, 1.436e-3
-1.352, 1.407e-3
-1.351, 1.378e-3
-1.350, 1.349e-3
-1.349, 1.324e-3
-1.348, 1.298e-3
-1.347, 1.271e-3
-1.346, 1.243e-3
-1.345, 1.216e-3
-1.344, 1.192e-3
-1.343, 1.167e-3
-1.342, 1.140e-3
-1.341, 1.113e-3
-1.340, 1.089e-3
-1.339, 1.066e-3
-1.338, 1.043e-3
-1.337, 1.018e-3
-1.336, 9.929e-4
-1.335, 9.694e-4
-1.334, 9.485e-4
-1.333, 9.272e-4
-1.332, 9.032e-4
-1.331, 8.800e-4
-1.330, 8.585e-4
-1.329, 8.385e-4
-1.328, 8.186e-4
-1.327, 7.973e-4
-1.326, 7.758e-4
-1.325, 7.568e-4
-1.324, 7.385e-4
-1.323, 7.196e-4
-1.322, 6.995e-4
-1.321, 6.787e-4
-1.320, 6.607e-4
-1.319, 6.446e-4
-1.318, 6.272e-4
-1.317, 6.087e-4
-1.316, 5.903e-4
-1.315, 5.735e-4
-1.314, 5.588e-4
-1.313, 5.434e-4
-1.312, 5.262e-4
-1.311, 5.092e-4
-1.310, 4.943e-4
-1.309, 4.811e-4
-1.308, 4.670e-4
-1.307, 4.516e-4
-1.306, 4.361e-4
-1.305, 4.229e-4
-1.304, 4.114e-4
-1.303, 3.988e-4
-1.302, 3.846e-4
-1.301, 3.711e-4
-1.300, 3.589e-4
-1.299, 3.486e-4
-1.298, 3.377e-4
-1.297, 3.248e-4
-1.296, 3.127e-4
-1.295, 3.022e-4
-1.294, 2.931e-4
-1.293, 2.837e-4
-1.292, 2.724e-4
-1.291, 2.610e-4
-1.290, 2.520e-4
-1.289, 2.441e-4
-1.288, 2.356e-4
-1.287, 2.256e-4
-1.286, 2.155e-4
-1.285, 2.074e-4
-1.284, 2.008e-4
-1.283, 1.934e-4
-1.282, 1.845e-4
-1.281, 1.755e-4
-1.280, 1.684e-4
-1.279, 1.628e-4
-1.278, 1.561e-4
-1.277, 1.484e-4
-1.276, 1.403e-4
-1.275, 1.341e-4
-1.274, 1.295e-4
-1.273, 1.238e-4
-1.272, 1.168e-4
-1.271, 1.095e-4
-1.270, 1.042e-4
-1.269, 1.004e-4
-1.268, 9.552e-5
-1.267, 8.905e-5
-1.266, 8.284e-5
-1.265, 7.788e-5
-1.264, 7.492e-5
-1.263, 7.054e-5
-1.262, 6.492e-5
-1.261, 5.917e-5
-1.260, 5.509e-5
-1.259, 5.229e-5
-1.258, 4.898e-5
-1.257, 4.377e-5
-1.256, 3.867e-5
-1.255, 3.520e-5
-1.254, 3.313e-5
-1.253, 3.026e-5
-1.252, 2.551e-5
-1.251, 2.074e-5
-1.250, 1.777e-5
-1.249, 1.592e-5
-1.248, 1.341e-5
-1.247, 9.003e-6
-1.246, 4.491e-6
-1.245, 3.659e-6
-1.244, 2.795e-6
-1.243, 4.408e-7
-1.242, -3.324e-6
-1.241, -7.493e-6
-1.240, -9.859e-6
-1.239, -1.088e-5
-1.238, -1.310e-5
-1.237, -1.655e-5
-1.236, -2.058e-5
-1.235, -2.244e-5
-1.234, -2.306e-5
-1.233, -2.489e-5
-1.232, -2.782e-5
-1.231, -3.148e-5
-1.230, -3.342e-5
-1.229, -3.405e-5
-1.228, -3.513e-5
-1.227, -3.828e-5
-1.226, -4.107e-5
-1.225, -4.221e-5
-1.224, -4.236e-5
-1.223, -4.341e-5
-1.222, -4.574e-5
-1.221, -4.832e-5
-1.220, -4.986e-5
-1.219, -5.016e-5
-1.218, -5.125e-5
-1.217, -5.410e-5
-1.216, -5.692e-5
-1.215, -5.817e-5
-1.214, -5.824e-5
-1.213, -5.921e-5
-1.212, -6.185e-5
-1.211, -6.484e-5
-1.210, -6.577e-5
-1.209, -6.566e-5
-1.208, -6.636e-5
-1.207, -6.900e-5
-1.206, -7.188e-5
-1.205, -7.256e-5
-1.204, -7.244e-5
-1.203, -7.333e-5
-1.202, -7.562e-5
-1.201, -7.848e-5
-1.200, -7.925e-5
-1.199, -7.879e-5
-1.198, -7.985e-5
-1.197, -8.194e-5
-1.196, -8.459e-5
-1.195, -8.557e-5
-1.194, -8.512e-5
-1.193, -8.579e-5
-1.192, -8.792e-5
-1.191, -9.066e-5
-1.190, -9.166e-5
-1.189, -9.121e-5
-1.188, -9.181e-5
-1.187, -9.416e-5
-1.186, -9.661e-5
-1.185, -9.750e-5
-1.184, -9.666e-5
-1.183, -9.682e-5
-1.182, -9.862e-5
-1.181, -9.981e-5
-1.180, -9.859e-5
-1.179, -9.672e-5
-1.178, -9.804e-5
-1.177, -1.007e-4
-1.176, -1.027e-4
-1.175, -1.029e-4
-1.174, -1.017e-4
-1.173, -1.022e-4
-1.172, -1.048e-4
-1.171, -1.082e-4
-1.170, -1.094e-4
-1.169, -1.098e-4
-1.168, -1.108e-4
-1.167, -1.136e-4
-1.166, -1.167e-4
-1.165, -1.175e-4
-1.164, -1.172e-4
-1.163, -1.184e-4
-1.162, -1.207e-4
-1.161, -1.237e-4
-1.160, -1.244e-4
-1.159, -1.242e-4
-1.158, -1.251e-4
-1.157, -1.274e-4
-1.156, -1.301e-4
-1.155, -1.312e-4
-1.154, -1.308e-4
-1.153, -1.316e-4
-1.152, -1.339e-4
-1.151, -1.367e-4
-1.150, -1.377e-4
-1.149, -1.371e-4
-1.148, -1.379e-4
-1.147, -1.404e-4
-1.146, -1.431e-4
-1.145, -1.441e-4
-1.144, -1.436e-4
-1.143, -1.445e-4
-1.142, -1.472e-4
-1.141, -1.497e-4
-1.140, -1.509e-4
-1.139, -1.506e-4
-1.138, -1.514e-4
-1.137, -1.540e-4
-1.136, -1.565e-4
-1.135, -1.576e-4
-1.134, -1.575e-4
-1.133, -1.583e-4
-1.132, -1.608e-4
-1.131, -1.635e-4
-1.130, -1.645e-4
-1.129, -1.644e-4
-1.128, -1.649e-4
-1.127, -1.677e-4
-1.126, -1.707e-4
-1.125, -1.718e-4
-1.124, -1.717e-4
-1.123, -1.726e-4
-1.122, -1.751e-4
-1.121, -1.783e-4
-1.120, -1.792e-4
-1.119, -1.792e-4
-1.118, -1.802e-4
-1.117, -1.827e-4
-1.116, -1.857e-4
-1.115, -1.870e-4
-1.114, -1.868e-4
-1.113, -1.880e-4
-1.112, -1.905e-4
-1.111, -1.937e-4
-1.110, -1.950e-4
-1.109, -1.948e-4
-1.108, -1.959e-4
-1.107, -1.987e-4
-1.106, -2.016e-4
-1.105, -2.030e-4
-1.104, -2.029e-4
-1.103, -2.040e-4
-1.102, -2.070e-4
-1.101, -2.100e-4
-1.100, -2.114e-4
-1.099, -2.116e-4
-1.098, -2.126e-4
-1.097, -2.157e-4
-1.096, -2.183e-4
-1.095, -2.197e-4
-1.094, -2.200e-4
-1.093, -2.209e-4
-1.092, -2.239e-4
-1.091, -2.270e-4
-1.090, -2.283e-4
-1.089, -2.286e-4
-1.088, -2.296e-4
-1.087, -2.325e-4
-1.086, -2.358e-4
-1.085, -2.370e-4
-1.084, -2.370e-4
-1.083, -2.383e-4
-1.082, -2.412e-4
-1.081, -2.443e-4
-1.080, -2.455e-4
-1.079, -2.457e-4
-1.078, -2.470e-4
-1.077, -2.497e-4
-1.076, -2.530e-4
-1.075, -2.542e-4
-1.074, -2.541e-4
-1.073, -2.555e-4
-1.072, -2.582e-4
-1.071, -2.611e-4
-1.070, -2.627e-4
-1.069, -2.622e-4
-1.068, -2.635e-4
-1.067, -2.664e-4
-1.066, -2.691e-4
-1.065, -2.704e-4
-1.064, -2.702e-4
-1.063, -2.711e-4
-1.062, -2.738e-4
-1.061, -2.765e-4
-1.060, -2.775e-4
-1.059, -2.772e-4
-1.058, -2.779e-4
-1.057, -2.802e-4
-1.056, -2.825e-4
-1.055, -2.836e-4
-1.054, -2.831e-4
-1.053, -2.837e-4
-1.052, -2.861e-4
-1.051, -2.885e-4
-1.050, -2.891e-4
-1.049, -2.888e-4
-1.048, -2.888e-4
-1.047, -2.909e-4
-1.046, -2.930e-4
-1.045, -2.930e-4
-1.044, -2.919e-4
-1.043, -2.923e-4
-1.042, -2.940e-4
-1.041, -2.961e-4
-1.040, -2.960e-4
-1.039, -2.947e-4
-1.038, -2.947e-4
-1.037, -2.960e-4
-1.036, -2.976e-4
-1.035, -2.973e-4
-1.034, -2.954e-4
-1.033, -2.951e-4
-1.032, -2.961e-4
-1.031, -2.974e-4
-1.030, -2.967e-4
-1.029, -2.947e-4
-1.028, -2.939e-4
-1.027, -2.947e-4
-1.026, -2.955e-4
-1.025, -2.947e-4
-1.024, -2.924e-4
-1.023, -2.911e-4
-1.022, -2.917e-4
-1.021, -2.919e-4
-1.020, -2.907e-4
-1.019, -2.881e-4
-1.018, -2.865e-4
-1.017, -2.867e-4
-1.016, -2.866e-4
-1.015, -2.848e-4
-1.014, -2.821e-4
-1.013, -2.798e-4
-1.012, -2.797e-4
-1.011, -2.795e-4
-1.010, -2.772e-4
-1.009, -2.740e-4
-1.008, -2.715e-4
-1.007, -2.708e-4
-1.006, -2.703e-4
-1.005, -2.679e-4
-1.004, -2.641e-4
-1.003, -2.616e-4
-1.002, -2.607e-4
-1.001, -2.598e-4
-1.000, -2.277e-4
-1.001, -2.031e-4
-1.002, -1.887e-4
-1.003, -1.783e-4
-1.004, -1.686e-4
-1.005, -1.582e-4
-1.006, -1.474e-4
-1.007, -1.382e-4
-1.008, -1.317e-4
-1.009, -1.254e-4
-1.010, -1.179e-4
-1.011, -1.097e-4
-1.012, -1.030e-4
-1.013, -9.852e-5
-1.014, -9.443e-5
-1.015, -8.860e-5
-1.016, -8.214e-5
-1.017, -7.700e-5
-1.018, -7.387e-5
-1.019, -7.104e-5
-1.020, -6.637e-5
-1.021, -6.109e-5
-1.022, -5.692e-5
-1.023, -5.465e-5
-1.024, -5.260e-5
-1.025, -4.912e-5
-1.026, -4.437e-5
-1.027, -4.120e-5
-1.028, -3.949e-5
-1.029, -3.833e-5
-1.030, -3.519e-5
-1.031, -3.102e-5
-1.032, -2.841e-5
-1.033, -2.745e-5
-1.034, -2.645e-5
-1.035, -2.394e-5
-1.036, -2.019e-5
-1.037, -1.791e-5
-1.038, -1.732e-5
-1.039, -1.665e-5
-1.040, -1.463e-5
-1.041, -1.127e-5
-1.042, -9.130e-6
-1.043, -8.916e-6
-1.044, -8.581e-6
-1.045, -6.704e-6
-1.046, -3.740e-6
-1.047, -1.534e-6
-1.048, -1.850e-6
-1.049, -1.680e-6
-1.050, 2.336e-7
-1.051, 2.911e-6
-1.052, 4.642e-6
-1.053, 4.423e-6
-1.054, 4.296e-6
-1.055, 6.123e-6
-1.056, 8.686e-6
-1.057, 1.021e-5
-1.058, 9.955e-6
-1.059, 9.474e-6
-1.060, 1.128e-5
-1.061, 1.367e-5
-1.062, 1.507e-5
-1.063, 1.483e-5
-1.064, 1.424e-5
-1.065, 1.568e-5
-1.066, 1.834e-5
-1.067, 1.949e-5
-1.068, 1.909e-5
-1.069, 1.854e-5
-1.070, 1.988e-5
-1.071, 2.250e-5
-1.072, 2.355e-5
-1.073, 2.301e-5
-1.074, 2.254e-5
-1.075, 2.394e-5
-1.076, 2.634e-5
-1.077, 2.733e-5
-1.078, 2.667e-5
-1.079, 2.623e-5
-1.080, 2.732e-5
-1.081, 2.968e-5
-1.082, 3.093e-5
-1.083, 3.003e-5
-1.084, 2.953e-5
-1.085, 3.068e-5
-1.086, 3.305e-5
-1.087, 3.425e-5
-1.088, 3.333e-5
-1.089, 3.277e-5
-1.090, 3.407e-5
-1.091, 3.622e-5
-1.092, 3.731e-5
-1.093, 3.648e-5
-1.094, 3.589e-5
-1.095, 3.723e-5
-1.096, 3.924e-5
-1.097, 4.031e-5
-1.098, 3.974e-5
-1.099, 3.892e-5
-1.100, 4.027e-5
-1.101, 4.250e-5
-1.102, 4.342e-5
-1.103, 4.285e-5
-1.104, 4.200e-5
-1.105, 4.320e-5
-1.106, 4.555e-5
-1.107, 4.643e-5
-1.108, 4.578e-5
-1.109, 4.498e-5
-1.110, 4.619e-5
-1.111, 4.852e-5
-1.112, 4.947e-5
-1.113, 4.872e-5
-1.114, 4.814e-5
-1.115, 4.923e-5
-1.116, 5.148e-5
-1.117, 5.252e-5
-1.118, 5.167e-5
-1.119, 5.123e-5
-1.120, 5.220e-5
-1.121, 5.446e-5
-1.122, 5.564e-5
-1.123, 5.473e-5
-1.124, 5.424e-5
-1.125, 5.540e-5
-1.126, 5.773e-5
-1.127, 5.877e-5
-1.128, 5.797e-5
-1.129, 5.730e-5
-1.130, 5.869e-5
-1.131, 6.086e-5
-1.132, 6.189e-5
-1.133, 6.117e-5
-1.134, 6.053e-5
-1.135, 6.184e-5
-1.136, 6.403e-5
-1.137, 6.518e-5
-1.138, 6.441e-5
-1.139, 6.376e-5
-1.140, 6.510e-5
-1.141, 6.726e-5
-1.142, 6.831e-5
-1.143, 6.779e-5
-1.144, 6.704e-5
-1.145, 6.836e-5
-1.146, 7.073e-5
-1.147, 7.166e-5
-1.148, 7.113e-5
-1.149, 7.040e-5
-1.150, 7.165e-5
-1.151, 7.417e-5
-1.152, 7.506e-5
-1.153, 7.445e-5
-1.154, 7.412e-5
-1.155, 7.516e-5
-1.156, 7.775e-5
-1.157, 7.872e-5
-1.158, 7.813e-5
-1.159, 7.766e-5
-1.160, 7.893e-5
-1.161, 8.115e-5
-1.162, 8.239e-5
-1.163, 8.177e-5
-1.164, 8.134e-5
-1.165, 8.256e-5
-1.166, 8.508e-5
-1.167, 8.623e-5
-1.168, 8.545e-5
-1.169, 8.512e-5
-1.170, 8.656e-5
-1.171, 8.876e-5
-1.172, 9.015e-5
-1.173, 8.945e-5
-1.174, 8.893e-5
-1.175, 9.046e-5
-1.176, 9.273e-5
-1.177, 9.428e-5
-1.178, 9.368e-5
-1.179, 9.305e-5
-1.180, 9.460e-5
-1.181, 9.683e-5
-1.182, 9.803e-5
-1.183, 9.771e-5
-1.184, 9.721e-5
-1.185, 9.859e-5
-1.186, 1.012e-4
-1.187, 1.022e-4
-1.188, 1.019e-4
-1.189, 1.015e-4
-1.190, 1.029e-4
-1.191, 1.056e-4
-1.192, 1.068e-4
-1.193, 1.063e-4
-1.194, 1.062e-4
-1.195, 1.076e-4
-1.196, 1.101e-4
-1.197, 1.115e-4
-1.198, 1.109e-4
-1.199, 1.109e-4
-1.200, 1.122e-4
-1.201, 1.149e-4
-1.202, 1.163e-4
-1.203, 1.158e-4
-1.204, 1.157e-4
-1.205, 1.171e-4
-1.206, 1.198e-4
-1.207, 1.213e-4
-1.208, 1.207e-4
-1.209, 1.206e-4
-1.210, 1.223e-4
-1.211, 1.249e-4
-1.212, 1.265e-4
-1.213, 1.261e-4
-1.214, 1.260e-4
-1.215, 1.277e-4
-1.216, 1.303e-4
-1.217, 1.319e-4
-1.218, 1.317e-4
-1.219, 1.316e-4
-1.220, 1.334e-4
-1.221, 1.361e-4
-1.222, 1.377e-4
-1.223, 1.379e-4
-1.224, 1.376e-4
-1.225, 1.393e-4
-1.226, 1.424e-4
-1.227, 1.440e-4
-1.228, 1.444e-4
-1.229, 1.446e-4
-1.230, 1.462e-4
-1.231, 1.493e-4
-1.232, 1.509e-4
-1.233, 1.510e-4
-1.234, 1.513e-4
-1.235, 1.532e-4
-1.236, 1.564e-4
-1.237, 1.583e-4
-1.238, 1.584e-4
-1.239, 1.588e-4
-1.240, 1.610e-4
-1.241, 1.640e-4
-1.242, 1.661e-4
-1.243, 1.663e-4
-1.244, 1.670e-4
-1.245, 1.689e-4
-1.246, 1.724e-4
-1.247, 1.748e-4
-1.248, 1.752e-4
-1.249, 1.758e-4
-1.250, 1.783e-4
-1.251, 1.816e-4
-1.252, 1.841e-4
-1.253, 1.847e-4
-1.254, 1.854e-4
-1.255, 1.882e-4
-1.256, 1.918e-4
-1.257, 1.944e-4
-1.258, 1.954e-4
-1.259, 1.963e-4
-1.260, 1.994e-4
-1.261, 2.033e-4
-1.262, 2.061e-4
-1.263, 2.074e-4
-1.264, 2.084e-4
-1.265, 2.117e-4
-1.266, 2.159e-4
-1.267, 2.190e-4
-1.268, 2.206e-4
-1.269, 2.220e-4
-1.270, 2.256e-4
-1.271, 2.303e-4
-1.272, 2.333e-4
-1.273, 2.354e-4
-1.274, 2.373e-4
-1.275, 2.409e-4
-1.276, 2.460e-4
-1.277, 2.498e-4
-1.278, 2.521e-4
-1.279, 2.546e-4
-1.280, 2.588e-4
-1.281, 2.640e-4
-1.282, 2.685e-4
-1.283, 2.708e-4
-1.284, 2.739e-4
-1.285, 2.788e-4
-1.286, 2.844e-4
-1.287, 2.893e-4
-1.288, 2.925e-4
-1.289, 2.957e-4
-1.290, 3.011e-4
-1.291, 3.075e-4
-1.292, 3.130e-4
-1.293, 3.168e-4
-1.294, 3.211e-4
-1.295, 3.271e-4
-1.296, 3.341e-4
-1.297, 3.405e-4
-1.298, 3.452e-4
-1.299, 3.500e-4
-1.300, 3.571e-4
-1.301, 3.650e-4
-1.302, 3.722e-4
-1.303, 3.778e-4
-1.304, 3.832e-4
-1.305, 3.909e-4
-1.306, 4.002e-4
-1.307, 4.079e-4
-1.308, 4.147e-4
-1.309, 4.214e-4
-1.310, 4.302e-4
-1.311, 4.404e-4
-1.312, 4.493e-4
-1.313, 4.570e-4
-1.314, 4.652e-4
-1.315, 4.749e-4
-1.316, 4.863e-4
-1.317, 4.969e-4
-1.318, 5.058e-4
-1.319, 5.148e-4
-1.320, 5.263e-4
-1.321, 5.389e-4
-1.322, 5.507e-4
-1.323, 5.610e-4
-1.324, 5.716e-4
-1.325, 5.841e-4
-1.326, 5.983e-4
-1.327, 6.117e-4
-1.328, 6.230e-4
-1.329, 6.353e-4
-1.330, 6.494e-4
-1.331, 6.645e-4
-1.332, 6.794e-4
-1.333, 6.922e-4
-1.334, 7.052e-4
-1.335, 7.211e-4
-1.336, 7.379e-4
-1.337, 7.535e-4
-1.338, 7.685e-4
-1.339, 7.830e-4
-1.340, 7.996e-4
-1.341, 8.181e-4
-1.342, 8.349e-4
-1.343, 8.504e-4
-1.344, 8.665e-4
-1.345, 8.843e-4
-1.346, 9.036e-4
-1.347, 9.221e-4
-1.348, 9.386e-4
-1.349, 9.551e-4
-1.350, 9.749e-4
-1.351, 9.948e-4
-1.352, 1.014e-3
-1.353, 1.032e-3
-1.354, 1.049e-3
-1.355, 1.069e-3
-1.356, 1.090e-3
-1.357, 1.110e-3
-1.358, 1.128e-3
-1.359, 1.148e-3
-1.360, 1.168e-3
-1.361, 1.190e-3
-1.362, 1.211e-3
-1.363, 1.230e-3
-1.364, 1.249e-3
-1.365, 1.271e-3
-1.366, 1.294e-3
-1.367, 1.316e-3
-1.368, 1.336e-3
-1.369, 1.356e-3
-1.370, 1.377e-3
-1.371, 1.401e-3
-1.372, 1.423e-3
-1.373, 1.444e-3
-1.374, 1.465e-3
-1.375, 1.487e-3
-1.376, 1.511e-3
-1.377, 1.534e-3
-1.378, 1.555e-3
-1.379, 1.576e-3
-1.380, 1.600e-3
-1.381, 1.624e-3
-1.382, 1.647e-3
-1.383, 1.670e-3
-1.384, 1.691e-3
-1.385, 1.715e-3
-1.386, 1.740e-3
-1.387, 1.763e-3
-1.388, 1.785e-3
-1.389, 1.808e-3
-1.390, 1.830e-3
-1.391, 1.857e-3
-1.392, 1.882e-3
-1.393, 1.905e-3
-1.394, 1.927e-3
-1.395, 1.952e-3
-1.396, 1.978e-3
-1.397, 2.002e-3
-1.398, 2.025e-3
-1.399, 2.049e-3
-1.400, 2.039e-3
-1.399, 2.013e-3
-1.398, 1.990e-3
-1.397, 1.967e-3
-1.396, 1.945e-3
-1.395, 1.924e-3
-1.394, 1.906e-3
-1.393, 1.888e-3
-1.392, 1.866e-3
-1.391, 1.843e-3
-1.390, 1.821e-3
-1.389, 1.804e-3
-1.388, 1.785e-3
-1.387, 1.762e-3
-1.386, 1.739e-3
-1.385, 1.718e-3
-1.384, 1.698e-3
-1.383, 1.677e-3
-1.382, 1.656e-3
-1.381, 1.634e-3
-1.380, 1.613e-3
-1.379, 1.594e-3
-1.378, 1.573e-3
-1.377, 1.550e-3
-1.376, 1.529e-3
-1.375, 1.507e-3
-1.374, 1.488e-3
-1.373, 1.468e-3
-1.372, 1.446e-3
-1.371, 1.423e-3
-1.370, 1.404e-3
-1.369, 1.385e-3
-1.368, 1.365e-3
-1.367, 1.344e-3
-1.366, 1.322e-3
-1.365, 1.302e-3
-1.364, 1.284e-3
-1.363, 1.264e-3
-1.362, 1.242e-3
-1.361, 1.221e-3
-1.360, 1.201e-3
-1.359, 1.183e-3
-1.358, 1.165e-3
-1.357, 1.143e-3
-1.356, 1.123e-3
-1.355, 1.104e-3
-1.354, 1.085e-3
-1.353, 1.066e-3
-1.352, 1.046e-3
-1.351, 1.025e-3
-1.350, 1.007e-3
-1.349, 9.895e-4
-1.348, 9.708e-4
-1.347, 9.509e-4
-1.346, 9.310e-4
-1.345, 9.127e-4
-1.344, 8.961e-4
-1.343, 8.784e-4
-1.342, 8.585e-4
-1.341, 8.392e-4
-1.340, 8.226e-4
-1.339, 8.056e-4
-1.338, 7.889e-4
-1.337, 7.705e-4
-1.336, 7.518e-4
-1.335, 7.355e-4
-1.334, 7.203e-4
-1.333, 7.039e-4
-1.332, 6.861e-4
-1.331, 6.687e-4
-1.330, 6.535e-4
-1.329, 6.391e-4
-1.328, 6.241e-4
-1.327, 6.070e-4
-1.326, 5.905e-4
-1.325, 5.763e-4
-1.324, 5.626e-4
-1.323, 5.484e-4
-1.322, 5.328e-4
-1.321, 5.171e-4
-1.320, 5.043e-4
-1.319, 4.921e-4
-1.318, 4.786e-4
-1.317, 4.643e-4
-1.316, 4.498e-4
-1.315, 4.375e-4
-1.314, 4.267e-4
-1.313, 4.142e-4
-1.312, 4.011e-4
-1.311, 3.881e-4
-1.310, 3.768e-4
-1.309, 3.672e-4
-1.308, 3.563e-4
-1.307, 3.441e-4
-1.306, 3.323e-4
-1.305, 3.225e-4
-1.304, 3.134e-4
-1.303, 3.038e-4
-1.302, 2.924e-4
-1.301, 2.817e-4
-1.300, 2.730e-4
-1.299, 2.651e-4
-1.298, 2.566e-4
-1.297, 2.464e-4
-1.296, 2.368e-4
-1.295, 2.290e-4
-1.294, 2.223e-4
-1.293, 2.148e-4
-1.292, 2.056e-4
-1.291, 1.969e-4
-1.290, 1.902e-4
-1.289, 1.844e-4
-1.288, 1.780e-4
-1.287, 1.697e-4
-1.286, 1.617e-4
-1.285, 1.563e-4
-1.284, 1.515e-4
-1.283, 1.454e-4
-1.282, 1.384e-4
-1.281, 1.312e-4
-1.280, 1.263e-4
-1.279, 1.226e-4
-1.278, 1.174e-4
-1.277, 1.109e-4
-1.276, 1.048e-4
-1.275, 1.005e-4
-1.274, 9.730e-5
-1.273, 9.294e-5
-1.272, 8.709e-5
-1.271, 8.165e-5
-1.270, 7.813e-5
-1.269, 7.565e-5
-1.268, 7.173e-5
-1.267, 6.641e-5
-1.266, 6.154e-5
-1.265, 5.854e-5
-1.264, 5.667e-5
-1.263, 5.343e-5
-1.262, 4.856e-5
-1.261, 4.436e-5
-1.260, 4.180e-5
-1.259, 4.024e-5
-1.258, 3.763e-5
-1.257, 3.309e-5
-1.256, 2.932e-5
-1.255, 2.732e-5
-1.254, 2.605e-5
-1.253, 2.384e-5
-1.252, 1.995e-5
-1.251, 1.625e-5
-1.250, 1.465e-5
-1.249, 1.376e-5
-1.248, 1.193e-5
-1.247, 8.192e-6
-1.246, 4.729e-6
-1.245, 3.585e-6
-1.244, 3.120e-6
-1.243, 1.353e-6
-1.242, -1.929e-6
-1.241, -5.002e-6
-1.240, -5.926e-6
-1.239, -6.172e-6
-1.238, -7.763e-6
-1.237, -1.084e-5
-1.236, -1.356e-5
-1.235, -1.450e-5
-1.234, -1.450e-5
-1.233, -1.585e-5
-1.232, -1.863e-5
-1.231, -2.122e-5
-1.230, -2.196e-5
-1.229, -2.226e-5
-1.228, -2.291e-5
-1.227, -2.574e-5
-1.226, -2.807e-5
-1.225, -2.875e-5
-1.224, -2.821e-5
-1.223, -2.934e-5
-1.222, -3.207e-5
-1.221, -3.409e-5
-1.220, -3.459e-5
-1.219, -3.418e-5
-1.218, -3.496e-5
-1.217, -3.757e-5
-1.216, -3.964e-5
-1.215, -3.988e-5
-1.214, -3.947e-5
-1.213, -4.022e-5
-1.212, -4.257e-5
-1.211, -4.480e-5
-1.210, -4.484e-5
-1.209, -4.439e-5
-1.208, -4.484e-5
-1.207, -4.725e-5
-1.206, -4.942e-5
-1.205, -4.930e-5
-1.204, -4.878e-5
-1.203, -4.949e-5
-1.202, -5.171e-5
-1.201, -5.373e-5
-1.200, -5.356e-5
-1.199, -5.279e-5
-1.198, -5.369e-5
-1.197, -5.569e-5
-1.196, -5.763e-5
-1.195, -5.753e-5
-1.194, -5.650e-5
-1.193, -5.734e-5
-1.192, -5.936e-5
-1.191, -6.132e-5
-1.190, -6.135e-5
-1.189, -6.049e-5
-1.188, -6.116e-5
-1.187, -6.340e-5
-1.186, -6.509e-5
-1.185, -6.517e-5
-1.184, -6.424e-5
-1.183, -6.486e-5
-1.182, -6.696e-5
-1.181, -6.884e-5
-1.180, -6.860e-5
-1.179, -6.795e-5
-1.178, -6.856e-5
-1.177, -7.074e-5
-1.176, -7.231e-5
-1.175, -7.223e-5
-1.174, -7.152e-5
-1.173, -7.191e-5
-1.172, -7.397e-5
-1.171, -7.581e-5
-1.170, -7.554e-5
-1.169, -7.488e-5
-1.168, -7.522e-5
-1.167, -7.731e-5
-1.166, -7.929e-5
-1.165, -7.891e-5
-1.164, -7.807e-5
-1.163, -7.861e-5
-1.162, -8.062e-5
-1.161, -8.242e-5
-1.160, -8.217e-5
-1.159, -8.126e-5
-1.158, -8.195e-5
-1.157, -8.377e-5
-1.156, -8.562e-5
-1.155, -8.539e-5
-1.154, -8.448e-5
-1.153, -8.506e-5
-1.152, -8.704e-5
-1.151, -8.875e-5
-1.150, -8.863e-5
-1.149, -8.759e-5
-1.148, -8.804e-5
-1.147, -9.014e-5
-1.146, -9.174e-5
-1.145, -9.163e-5
-1.144, -9.050e-5
-1.143, -9.093e-5
-1.142, -9.306e-5
-1.141, -9.462e-5
-1.140, -9.437e-5
-1.139, -9.350e-5
-1.138, -9.379e-5
-1.137, -9.593e-5
-1.136, -9.729e-5
-1.135, -9.704e-5
-1.134, -9.613e-5
-1.133, -9.644e-5
-1.132, -9.825e-5
-1.131, -1.001e-4
-1.130, -9.964e-5
-1.129, -9.875e-5
-1.128, -9.890e-5
-1.127, -1.008e-4
-1.126, -1.026e-4
-1.125, -1.021e-4
-1.124, -1.009e-4
-1.123, -1.013e-4
-1.122, -1.031e-4
-1.121, -1.049e-4
-1.120, -1.042e-4
-1.119, -1.032e-4
-1.118, -1.037e-4
-1.117, -1.054e-4
-1.116, -1.069e-4
-1.115, -1.065e-4
-1.114, -1.053e-4
-1.113, -1.056e-4
-1.112, -1.074e-4
-1.111, -1.088e-4
-1.110, -1.084e-4
-1.109, -1.071e-4
-1.108, -1.073e-4
-1.107, -1.091e-4
-1.106, -1.104e-4
-1.105, -1.099e-4
-1.104, -1.085e-4
-1.103, -1.087e-4
-1.102, -1.104e-4
-1.101, -1.116e-4
-1.100, -1.109e-4
-1.099, -1.096e-4
-1.098, -1.096e-4
-1.097, -1.113e-4
-1.096, -1.124e-4
-1.095, -1.116e-4
-1.094, -1.105e-4
-1.093, -1.102e-4
-1.092, -1.117e-4
-1.091, -1.130e-4
-1.090, -1.119e-4
-1.089, -1.106e-4
-1.088, -1.104e-4
-1.087, -1.117e-4
-1.086, -1.129e-4
-1.085, -1.118e-4
-1.084, -1.102e-4
-1.083, -1.102e-4
-1.082, -1.114e-4
-1.081, -1.124e-4
-1.080, -1.112e-4
-1.079, -1.096e-4
-1.078, -1.093e-4
-1.077, -1.104e-4
-1.076, -1.114e-4
-1.075, -1.102e-4
-1.074, -1.083e-4
-1.073, -1.081e-4
-1.072, -1.089e-4
-1.071, -1.097e-4
-1.070, -1.084e-4
-1.069, -1.064e-4
-1.068, -1.059e-4
-1.067, -1.070e-4
-1.066, -1.075e-4
-1.065, -1.061e-4
-1.064, -1.041e-4
-1.063, -1.034e-4
-1.062, -1.045e-4
-1.061, -1.047e-4
-1.060, -1.032e-4
-1.059, -1.012e-4
-1.058, -1.004e-4
-1.057, -1.014e-4
-1.056, -1.017e-4
-1.055, -9.997e-5
-1.054, -9.790e-5
-1.053, -9.693e-5
-1.052, -9.776e-5
-1.051, -9.808e-5
-1.050, -9.621e-5
-1.049, -9.409e-5
-1.048, -9.316e-5
-1.047, -9.380e-5
-1.046, -9.417e-5
-1.045, -9.217e-5
-1.044, -8.992e-5
-1.043, -8.911e-5
-1.042, -8.960e-5
-1.041, -9.002e-5
-1.040, -8.802e-5
-1.039, -8.568e-5
-1.038, -8.491e-5
-1.037, -8.530e-5
-1.036, -8.556e-5
-1.035, -8.383e-5
-1.034, -8.129e-5
-1.033, -8.043e-5
-1.032, -8.093e-5
-1.031, -8.108e-5
-1.030, -7.944e-5
-1.029, -7.688e-5
-1.028, -7.588e-5
-1.027, -7.664e-5
-1.026, -7.664e-5
-1.025, -7.485e-5
-1.024, -7.255e-5
-1.023, -7.153e-5
-1.022, -7.220e-5
-1.021, -7.228e-5
-1.020, -7.032e-5
-1.019, -6.817e-5
-1.018, -6.712e-5
-1.017, -6.797e-5
-1.016, -6.808e-5
-1.015, -6.627e-5
-1.014, -6.430e-5
-1.013, -6.328e-5
-1.012, -6.412e-5
-1.011, -6.451e-5
-1.010, -6.276e-5
-1.009, -6.074e-5
-1.008, -5.991e-5
-1.007, -6.073e-5
-1.006, -6.140e-5
-1.005, -5.963e-5
-1.004, -5.768e-5
-1.003, -5.717e-5
-1.002, -5.810e-5
-1.001, -5.867e-5
-1.000, -3.254e-5
-1.001, -2.047e-5
-1.002, -1.796e-5
-1.003, -1.757e-5
-1.004, -1.678e-5
-1.005, -1.424e-5
-1.006, -1.143e-5
-1.007, -1.001e-5
-1.008, -1.049e-5
-1.009, -1.039e-5
-1.010, -8.229e-6
-1.011, -5.933e-6
-1.012, -4.986e-6
-1.013, -5.592e-6
-1.014, -5.829e-6
-1.015, -3.907e-6
-1.016, -1.820e-6
-1.017, -1.212e-6
-1.018, -1.908e-6
-1.019, -2.443e-6
-1.020, -6.040e-7
-1.021, 1.187e-6
-1.022, 1.983e-6
-1.023, 1.024e-6
-1.024, 4.625e-7
-1.025, 1.967e-6
-1.026, 4.022e-6
-1.027, 4.334e-6
-1.028, 3.412e-6
-1.029, 2.794e-6
-1.030, 4.285e-6
-1.031, 6.207e-6
-1.032, 6.537e-6
-1.033, 5.359e-6
-1.034, 4.926e-6
-1.035, 6.306e-6
-1.036, 8.057e-6
-1.037, 8.480e-6
-1.038, 7.300e-6
-1.039, 6.793e-6
-1.040, 8.010e-6
-1.041, 9.743e-6
-1.042, 1.008e-5
-1.043, 8.963e-6
-1.044, 8.269e-6
-1.045, 9.549e-6
-1.046, 1.127e-5
-1.047, 1.172e-5
-1.048, 1.036e-5
-1.049, 9.602e-6
-1.050, 1.110e-5
-1.051, 1.266e-5
-1.052, 1.295e-5
-1.053, 1.170e-5
-1.054, 1.087e-5
-1.055, 1.231e-5
-1.056, 1.397e-5
-1.057, 1.406e-5
-1.058, 1.306e-5
-1.059, 1.203e-5
-1.060, 1.344e-5
-1.061, 1.498e-5
-1.062, 1.535e-5
-1.063, 1.411e-5
-1.064, 1.318e-5
-1.065, 1.442e-5
-1.066, 1.625e-5
-1.067, 1.628e-5
-1.068, 1.522e-5
-1.069, 1.424e-5
-1.070, 1.563e-5
-1.071, 1.725e-5
-1.072, 1.734e-5
-1.073, 1.613e-5
-1.074, 1.537e-5
-1.075, 1.674e-5
-1.076, 1.832e-5
-1.077, 1.845e-5
-1.078, 1.708e-5
-1.079, 1.639e-5
-1.080, 1.749e-5
-1.081, 1.925e-5
-1.082, 1.940e-5
-1.083, 1.806e-5
-1.084, 1.733e-5
-1.085, 1.855e-5
-1.086, 2.005e-5
-1.087, 2.042e-5
-1.088, 1.904e-5
-1.089, 1.823e-5
-1.090, 1.959e-5
-1.091, 2.116e-5
-1.092, 2.138e-5
-1.093, 1.999e-5
-1.094, 1.922e-5
-1.095, 2.066e-5
-1.096, 2.204e-5
-1.097, 2.230e-5
-1.098, 2.111e-5
-1.099, 2.018e-5
-1.100, 2.152e-5
-1.101, 2.324e-5
-1.102, 2.320e-5
-1.103, 2.214e-5
-1.104, 2.110e-5
-1.105, 2.255e-5
-1.106, 2.435e-5
-1.107, 2.443e-5
-1.108, 2.326e-5
-1.109, 2.243e-5
-1.110, 2.366e-5
-1.111, 2.540e-5
-1.112, 2.548e-5
-1.113, 2.427e-5
-1.114, 2.351e-5
-1.115, 2.466e-5
-1.116, 2.655e-5
-1.117, 2.656e-5
-1.118, 2.539e-5
-1.119, 2.469e-5
-1.120, 2.588e-5
-1.121, 2.756e-5
-1.122, 2.797e-5
-1.123, 2.652e-5
-1.124, 2.585e-5
-1.125, 2.712e-5
-1.126, 2.888e-5
-1.127, 2.911e-5
-1.128, 2.808e-5
-1.129, 2.739e-5
-1.130, 2.885e-5
-1.131, 3.037e-5
-1.132, 3.067e-5
-1.133, 2.941e-5
-1.134, 2.855e-5
-1.135, 3.002e-5
-1.136, 3.164e-5
-1.137, 3.190e-5
-1.138, 3.088e-5
-1.139, 2.982e-5
-1.140, 3.142e-5
-1.141, 3.304e-5
-1.142, 3.329e-5
-1.143, 3.219e-5
-1.144, 3.123e-5
-1.145, 3.283e-5
-1.146, 3.455e-5
-1.147, 3.462e-5
-1.148, 3.364e-5
-1.149, 3.274e-5
-1.150, 3.421e-5
-1.151, 3.620e-5
-1.152, 3.620e-5
-1.153, 3.500e-5
-1.154, 3.436e-5
-1.155, 3.575e-5
-1.156, 3.751e-5
-1.157, 3.780e-5
-1.158, 3.665e-5
-1.159, 3.607e-5
-1.160, 3.733e-5
-1.161, 3.916e-5
-1.162, 3.952e-5
-1.163, 3.829e-5
-1.164, 3.764e-5
-1.165, 3.909e-5
-1.166, 4.076e-5
-1.167, 4.129e-5
-1.168, 3.999e-5
-1.169, 3.931e-5
-1.170, 4.088e-5
-1.171, 4.253e-5
-1.172, 4.297e-5
-1.173, 4.180e-5
-1.174, 4.104e-5
-1.175, 4.274e-5
-1.176, 4.442e-5
-1.177, 4.496e-5
-1.178, 4.391e-5
-1.179, 4.298e-5
-1.180, 4.455e-5
-1.181, 4.638e-5
-1.182, 4.659e-5
-1.183, 4.575e-5
-1.184, 4.500e-5
-1.185, 4.642e-5
-1.186, 4.843e-5
-1.187, 4.866e-5
-1.188, 4.776e-5
-1.189, 4.703e-5
-1.190, 4.861e-5
-1.191, 5.048e-5
-1.192, 5.080e-5
-1.193, 4.979e-5
-1.194, 4.929e-5
-1.195, 5.061e-5
-1.196, 5.271e-5
-1.197, 5.299e-5
-1.198, 5.203e-5
-1.199, 5.159e-5
-1.200, 5.300e-5
-1.201, 5.501e-5
-1.202, 5.551e-5
-1.203, 5.446e-5
-1.204, 5.397e-5
-1.205, 5.542e-5
-1.206, 5.736e-5
-1.207, 5.805e-5
-1.208, 5.698e-5
-1.209, 5.646e-5
-1.210, 5.825e-5
-1.211, 6.015e-5
-1.212, 6.074e-5
-1.213, 5.983e-5
-1.214, 5.937e-5
-1.215, 6.109e-5
-1.216, 6.294e-5
-1.217, 6.356e-5
-1.218, 6.283e-5
-1.219, 6.234e-5
-1.220, 6.410e-5
-1.221, 6.616e-5
-1.222, 6.683e-5
-1.223, 6.611e-5
-1.224, 6.558e-5
-1.225, 6.738e-5
-1.226, 6.968e-5
-1.227, 7.019e-5
-1.228, 6.983e-5
-1.229, 6.963e-5
-1.230, 7.124e-5
-1.231, 7.352e-5
-1.232, 7.413e-5
-1.233, 7.358e-5
-1.234, 7.344e-5
-1.235, 7.537e-5
-1.236, 7.770e-5
-1.237, 7.852e-5
-1.238, 7.795e-5
-1.239, 7.795e-5
-1.240, 7.996e-5
-1.241, 8.241e-5
-1.242, 8.352e-5
-1.243, 8.297e-5
-1.244, 8.304e-5
-1.245, 8.517e-5
-1.246, 8.767e-5
-1.247, 8.890e-5
-1.248, 8.837e-5
-1.249, 8.872e-5
-1.250, 9.115e-5
-1.251, 9.379e-5
-1.252, 9.517e-5
-1.253, 9.492e-5
-1.254, 9.532e-5
-1.255, 9.788e-5
-1.256, 1.006e-4
-1.257, 1.023e-4
-1.258, 1.026e-4
-1.259, 1.028e-4
-1.260, 1.057e-4
-1.261, 1.088e-4
-1.262, 1.104e-4
-1.263, 1.108e-4
-1.264, 1.115e-4
-1.265, 1.144e-4
-1.266, 1.180e-4
-1.267, 1.200e-4
-1.268, 1.206e-4
-1.269, 1.217e-4
-1.270, 1.251e-4
-1.271, 1.288e-4
-1.272, 1.311e-4
-1.273, 1.320e-4
-1.274, 1.334e-4
-1.275, 1.369e-4
-1.276, 1.413e-4
-1.277, 1.440e-4
-1.278, 1.453e-4
-1.279, 1.473e-4
-1.280, 1.514e-4
-1.281, 1.559e-4
-1.282, 1.592e-4
-1.283, 1.608e-4
-1.284, 1.632e-4
-1.285, 1.679e-4
-1.286, 1.729e-4
-1.287, 1.768e-4
-1.288, 1.792e-4
-1.289, 1.820e-4
-1.290, 1.872e-4
-1.291, 1.929e-4
-1.292, 1.972e-4
-1.293, 2.005e-4
-1.294, 2.040e-4
-1.295, 2.099e-4
-1.296, 2.161e-4
-1.297, 2.214e-4
-1.298, 2.253e-4
-1.299, 2.295e-4
-1.300, 2.362e-4
-1.301, 2.433e-4
-1.302, 2.492e-4
-1.303, 2.541e-4
-1.304, 2.591e-4
-1.305, 2.666e-4
-1.306, 2.749e-4
-1.307, 2.816e-4
-1.308, 2.872e-4
-1.309, 2.933e-4
-1.310, 3.017e-4
-1.311, 3.108e-4
-1.312, 3.188e-4
-1.313, 3.253e-4
-1.314, 3.326e-4
-1.315, 3.418e-4
-1.316, 3.521e-4
-1.317, 3.608e-4
-1.318, 3.688e-4
-1.319, 3.768e-4
-1.320, 3.870e-4
-1.321, 3.983e-4
-1.322, 4.084e-4
-1.323, 4.170e-4
-1.324, 4.279e-4
-1.325, 4.390e-4
-1.326, 4.506e-4
-1.327, 4.615e-4
-1.328, 4.707e-4
-1.329, 4.812e-4
-1.330, 4.935e-4
-1.331, 5.064e-4
-1.332, 5.187e-4
-1.333, 5.294e-4
-1.334, 5.403e-4
-1.335, 5.538e-4
-1.336, 5.675e-4
-1.337, 5.803e-4
-1.338, 5.921e-4
-1.339, 6.040e-4
-1.340, 6.179e-4
-1.341, 6.328e-4
-1.342, 6.466e-4
-1.343, 6.587e-4
-1.344, 6.712e-4
-1.345, 6.864e-4
-1.346, 7.015e-4
-1.347, 7.159e-4
-1.348, 7.291e-4
-1.349, 7.418e-4
-1.350, 7.575e-4
-1.351, 7.738e-4
-1.352, 7.883e-4
-1.353, 8.021e-4
-1.354, 8.160e-4
-1.355, 8.317e-4
-1.356, 8.486e-4
-1.357, 8.640e-4
-1.358, 8.776e-4
-1.359, 8.923e-4
-1.360, 9.085e-4
-1.361, 9.253e-4
-1.362, 9.419e-4
-1.363, 9.563e-4
-1.364, 9.708e-4
-1.365, 9.878e-4
-1.366, 1.005e-3
-1.367, 1.021e-3
-1.368, 1.037e-3
-1.369, 1.052e-3
-1.370, 1.069e-3
-1.371, 1.087e-3
-1.372, 1.104e-3
-1.373, 1.118e-3
-1.374, 1.134e-3
-1.375, 1.153e-3
-1.376, 1.171e-3
-1.377, 1.188e-3
-1.378, 1.204e-3
-1.379, 1.220e-3
-1.380, 1.238e-3
-1.381, 1.257e-3
-1.382, 1.274e-3
-1.383, 1.291e-3
-1.384, 1.307e-3
-1.385, 1.325e-3
-1.386, 1.345e-3
-1.387, 1.363e-3
-1.388, 1.379e-3
-1.389, 1.397e-3
-1.390, 1.416e-3
-1.391, 1.435e-3
-1.392, 1.453e-3
-1.393, 1.471e-3
-1.394, 1.488e-3
-1.395, 1.508e-3
-1.396, 1.528e-3
-1.397, 1.547e-3
-1.398, 1.565e-3
-1.399, 1.584e-3
-1.400, 1.568e-3
-1.399, 1.549e-3
-1.398, 1.534e-3
-1.397, 1.518e-3
-1.396, 1.503e-3
-1.395, 1.489e-3
-1.394, 1.476e-3
-1.393, 1.463e-3
-1.392, 1.448e-3
-1.391, 1.432e-3
-1.390, 1.419e-3
-1.389, 1.407e-3
-1.388, 1.392e-3
-1.387, 1.377e-3
-1.386, 1.362e-3
-1.385, 1.348e-3
-1.384, 1.336e-3
-1.383, 1.321e-3
-1.382, 1.305e-3
-1.381, 1.291e-3
-1.380, 1.276e-3
-1.379, 1.262e-3
-1.378, 1.249e-3
-1.377, 1.232e-3
-1.376, 1.216e-3
-1.375, 1.203e-3
-1.374, 1.190e-3
-1.373, 1.176e-3
-1.372, 1.160e-3
-1.371, 1.143e-3
-1.370, 1.129e-3
-1.369, 1.116e-3
-1.368, 1.101e-3
-1.367, 1.085e-3
-1.366, 1.069e-3
-1.365, 1.055e-3
-1.364, 1.041e-3
-1.363, 1.027e-3
-1.362, 1.011e-3
-1.361, 9.943e-4
-1.360, 9.808e-4
-1.359, 9.669e-4
-1.358, 9.524e-4
-1.357, 9.366e-4
-1.356, 9.203e-4
-1.355, 9.064e-4
-1.354, 8.933e-4
-1.353, 8.783e-4
-1.352, 8.626e-4
-1.351, 8.473e-4
-1.350, 8.327e-4
-1.349, 8.200e-4
-1.348, 8.058e-4
-1.347, 7.895e-4
-1.346, 7.744e-4
-1.345, 7.609e-4
-1.344, 7.479e-4
-1.343, 7.343e-4
-1.342, 7.188e-4
-1.341, 7.036e-4
-1.340, 6.908e-4
-1.339, 6.783e-4
-1.338, 6.645e-4
-1.337, 6.495e-4
-1.336, 6.352e-4
-1.335, 6.223e-4
-1.334, 6.107e-4
-1.333, 5.977e-4
-1.332, 5.832e-4
-1.331, 5.692e-4
-1.330, 5.572e-4
-1.329, 5.458e-4
-1.328, 5.338e-4
-1.327, 5.198e-4
-1.326, 5.061e-4
-1.325, 4.950e-4
-1.324, 4.844e-4
-1.323, 4.727e-4
-1.322, 4.598e-4
-1.321, 4.470e-4
-1.320, 4.365e-4
-1.319, 4.270e-4
-1.318, 4.160e-4
-1.317, 4.037e-4
-1.316, 3.920e-4
-1.315, 3.821e-4
-1.314, 3.731e-4
-1.313, 3.630e-4
-1.312, 3.518e-4
-1.311, 3.407e-4
-1.310, 3.318e-4
-1.309, 3.239e-4
-1.308, 3.145e-4
-1.307, 3.042e-4
-1.306, 2.941e-4
-1.305, 2.859e-4
-1.304, 2.788e-4
-1.303, 2.704e-4
-1.302, 2.605e-4
-1.301, 2.514e-4
-1.300, 2.442e-4
-1.299, 2.378e-4
-1.298, 2.304e-4
-1.297, 2.215e-4
-1.296, 2.132e-4
-1.295, 2.069e-4
-1.294, 2.012e-4
-1.293, 1.947e-4
-1.292, 1.866e-4
-1.291, 1.789e-4
-1.290, 1.733e-4
-1.289, 1.686e-4
-1.288, 1.629e-4
-1.287, 1.554e-4
-1.286, 1.485e-4
-1.285, 1.438e-4
-1.284, 1.398e-4
-1.283, 1.346e-4
-1.282, 1.280e-4
-1.281, 1.217e-4
-1.280, 1.176e-4
-1.279, 1.143e-4
-1.278, 1.097e-4
-1.277, 1.040e-4
-1.276, 9.840e-5
-1.275, 9.469e-5
-1.274, 9.220e-5
-1.273, 8.803e-5
-1.272, 8.292e-5
-1.271, 7.772e-5
-1.270, 7.480e-5
-1.269, 7.267e-5
-1.268, 6.924e-5
-1.267, 6.426e-5
-1.266, 5.992e-5
-1.265, 5.723e-5
-1.264, 5.574e-5
-1.263, 5.280e-5
-1.262, 4.833e-5
-1.261, 4.432e-5
-1.260, 4.242e-5
-1.259, 4.094e-5
-1.258, 3.859e-5
-1.257, 3.435e-5
-1.256, 3.086e-5
-1.255, 2.916e-5
-1.254, 2.819e-5
-1.253, 2.611e-5
-1.252, 2.248e-5
-1.251, 1.894e-5
-1.250, 1.777e-5
-1.249, 1.713e-5
-1.248, 1.534e-5
-1.247, 1.202e-5
-1.246, 8.816e-6
-1.245, 7.903e-6
-1.244, 7.616e-6
-1.243, 6.003e-6
-1.242, 2.832e-6
-1.241, 5.801e-8
-1.240, -6.987e-7
-1.239, -7.599e-7
-1.238, -2.135e-6
-1.237, -4.961e-6
-1.236, -7.483e-6
-1.235, -8.228e-6
-1.234, -7.956e-6
-1.233, -9.234e-6
-1.232, -1.186e-5
-1.231, -1.413e-5
-1.230, -1.494e-5
-1.229, -1.477e-5
-1.228, -1.546e-5
-1.227, -1.804e-5
-1.226, -2.012e-5
-1.225, -2.058e-5
-1.224, -1.990e-5
-1.223, -2.071e-5
-1.222, -2.331e-5
-1.221, -2.518e-5
-1.220, -2.541e-5
-1.219, -2.474e-5
-1.218, -2.548e-5
-1.217, -2.793e-5
-1.216, -2.978e-5
-1.215, -2.978e-5
-1.214, -2.927e-5
-1.213, -2.972e-5
-1.212, -3.189e-5
-1.211, -3.386e-5
-1.210, -3.380e-5
-1.209, -3.314e-5
-1.208, -3.351e-5
-1.207, -3.555e-5
-1.206, -3.753e-5
-1.205, -3.734e-5
-1.204, -3.657e-5
-1.203, -3.702e-5
-1.202, -3.892e-5
-1.201, -4.073e-5
-1.200, -4.042e-5
-1.199, -3.956e-5
-1.198, -4.008e-5
-1.197, -4.187e-5
-1.196, -4.363e-5
-1.195, -4.354e-5
-1.194, -4.253e-5
-1.193, -4.293e-5
-1.192, -4.470e-5
-1.191, -4.650e-5
-1.190, -4.639e-5
-1.189, -4.528e-5
-1.188, -4.550e-5
-1.187, -4.756e-5
-1.186, -4.893e-5
-1.185, -4.897e-5
-1.184, -4.775e-5
-1.183, -4.794e-5
-1.182, -4.994e-5
-1.181, -5.138e-5
-1.180, -5.115e-5
-1.179, -5.019e-5
-1.178, -5.039e-5
-1.177, -5.233e-5
-1.176, -5.362e-5
-1.175, -5.338e-5
-1.174, -5.237e-5
-1.173, -5.258e-5
-1.172, -5.429e-5
-1.171, -5.594e-5
-1.170, -5.547e-5
-1.169, -5.448e-5
-1.168, -5.442e-5
-1.167, -5.624e-5
-1.166, -5.773e-5
-1.165, -5.727e-5
-1.164, -5.623e-5
-1.163, -5.644e-5
-1.162, -5.801e-5
-1.161, -5.964e-5
-1.160, -5.913e-5
-1.159, -5.796e-5
-1.158, -5.818e-5
-1.157, -5.969e-5
-1.156, -6.122e-5
-1.155, -6.091e-5
-1.154, -5.957e-5
-1.153, -5.971e-5
-1.152, -6.131e-5
-1.151, -6.267e-5
-1.150, -6.250e-5
-1.149, -6.104e-5
-1.148, -6.109e-5
-1.147, -6.285e-5
-1.146, -6.408e-5
-1.145, -6.375e-5
-1.144, -6.236e-5
-1.143, -6.243e-5
-1.142, -6.414e-5
-1.141, -6.532e-5
-1.140, -6.494e-5
-1.139, -6.363e-5
-1.138, -6.344e-5
-1.137, -6.518e-5
-1.136, -6.634e-5
-1.135, -6.593e-5
-1.134, -6.475e-5
-1.133, -6.446e-5
-1.132, -6.598e-5
-1.131, -6.742e-5
-1.130, -6.672e-5
-1.129, -6.556e-5
-1.128, -6.521e-5
-1.127, -6.666e-5
-1.126, -6.811e-5
-1.125, -6.736e-5
-1.124, -6.599e-5
-1.123, -6.589e-5
-1.122, -6.712e-5
-1.121, -6.844e-5
-1.120, -6.786e-5
-1.119, -6.634e-5
-1.118, -6.615e-5
-1.117, -6.741e-5
-1.116, -6.865e-5
-1.115, -6.803e-5
-1.114, -6.639e-5
-1.113, -6.619e-5
-1.112, -6.741e-5
-1.111, -6.845e-5
-1.110, -6.800e-5
-1.109, -6.625e-5
-1.108, -6.581e-5
-1.107, -6.712e-5
-1.106, -6.803e-5
-1.105, -6.744e-5
-1.104, -6.573e-5
-1.103, -6.524e-5
-1.102, -6.665e-5
-1.101, -6.761e-5
-1.100, -6.680e-5
-1.099, -6.527e-5
-1.098, -6.452e-5
-1.097, -6.588e-5
-1.096, -6.645e-5
-1.095, -6.579e-5
-1.094, -6.410e-5
-1.093, -6.342e-5
-1.092, -6.447e-5
-1.091, -6.546e-5
-1.090, -6.446e-5
-1.089, -6.273e-5
-1.088, -6.199e-5
-1.087, -6.307e-5
-1.086, -6.398e-5
-1.085, -6.281e-5
-1.084, -6.104e-5
-1.083, -6.049e-5
-1.082, -6.128e-5
-1.081, -6.223e-5
-1.080, -6.110e-5
-1.079, -5.921e-5
-1.078, -5.859e-5
-1.077, -5.941e-5
-1.076, -6.032e-5
-1.075, -5.933e-5
-1.074, -5.731e-5
-1.073, -5.658e-5
-1.072, -5.744e-5
-1.071, -5.811e-5
-1.070, -5.721e-5
-1.069, -5.520e-5
-1.068, -5.442e-5
-1.067, -5.536e-5
-1.066, -5.599e-5
-1.065, -5.506e-5
-1.064, -5.293e-5
-1.063, -5.225e-5
-1.062, -5.319e-5
-1.061, -5.386e-5
-1.060, -5.271e-5
-1.059, -5.079e-5
-1.058, -4.984e-5
-1.057, -5.071e-5
-1.056, -5.126e-5
-1.055, -5.028e-5
-1.054, -4.857e-5
-1.053, -4.758e-5
-1.052, -4.852e-5
-1.051, -4.943e-5
-1.050, -4.833e-5
-1.049, -4.658e-5
-1.048, -4.576e-5
-1.047, -4.664e-5
-1.046, -4.759e-5
-1.045, -4.657e-5
-1.044, -4.479e-5
-1.043, -4.427e-5
-1.042, -4.516e-5
-1.041, -4.624e-5
-1.040, -4.525e-5
-1.039, -4.341e-5
-1.038, -4.297e-5
-1.037, -4.381e-5
-1.036, -4.480e-5
-1.035, -4.403e-5
-1.034, -4.217e-5
-1.033, -4.166e-5
-1.032, -4.258e-5
-1.031, -4.360e-5
-1.030, -4.295e-5
-1.029, -4.099e-5
-1.028, -4.053e-5
-1.027, -4.169e-5
-1.026, -4.258e-5
-1.025, -4.204e-5
-1.024, -4.021e-5
-1.023, -3.960e-5
-1.022, -4.088e-5
-1.021, -4.166e-5
-1.020, -4.105e-5
-1.019, -3.935e-5
-1.018, -3.879e-5
-1.017, -4.007e-5
-1.016, -4.098e-5
-1.015, -4.031e-5
-1.014, -3.870e-5
-1.013, -3.808e-5
-1.012, -3.920e-5
-1.011, -4.037e-5
-1.010, -3.961e-5
-1.009, -3.806e-5
-1.008, -3.749e-5
-1.007, -3.853e-5
-1.006, -3.978e-5
-1.005, -3.894e-5
-1.004, -3.734e-5
-1.003, -3.692e-5
-1.002, -3.796e-5
-1.001, -3.912e-5
