Potential V vs RHE, Current mA cm-2
0.013299999999999867,2.6143864821505876
0.012299999999999978,1.0010497157844997
0.011299999999999866,-0.48199213986401795
0.010299999999999976,-1.9650339955125358
0.009299999999999864,-3.361354048479327
0.008299999999999974,-4.668547289554621
0.007299999999999862,-5.977155241929781
0.006299999999999972,-7.199465805013171
0.00529999999999986,-8.376505606500881
0.0042999999999999705,-9.55496011928846
0.0032999999999998586,-10.644287820184536
0.0022999999999999687,-11.73503023238048
0.0012999999999998568,-12.781916594280606
0.00029999999999996696,-13.741090855589102
-0.000700000000000145,-14.69885040559773
-0.0017000000000000348,-15.618412750510005
-0.0027000000000001467,-16.495533756426326
-0.0037000000000000366,-17.316066310348052
-0.0047000000000001485,-18.19318731626437
-0.005700000000000038,-18.97127853119014
-0.00670000000000015,-19.805958198110513
-0.00770000000000004,-20.541608074040333
-0.008700000000000152,-21.333846401964752
-0.009700000000000042,-22.069496277894572
-0.010700000000000154,-22.819293266823045
-0.011700000000000044,-23.55494314275286
-0.012700000000000156,-24.16326900169483
-0.013700000000000045,-24.814036199632742
-0.014700000000000157,-25.39406783257741
-0.015700000000000047,-25.91751101352747
-0.01670000000000016,-26.440954194477534
-0.01770000000000005,-27.00683871442355
-0.01870000000000016,-27.572723234369565
-0.01970000000000005,-28.13860775431558
-0.020700000000000163,-28.662050935265643
-0.021700000000000053,-29.18549411621571
-0.022700000000000164,-29.751378636161718
-0.023700000000000054,-30.274821817111786
-0.024700000000000166,-30.7558236590659
-0.025700000000000056,-31.23682550102001
-0.026700000000000168,-31.618797551983565
-0.027700000000000058,-32.09979939393769
-0.02870000000000017,-32.49591855789989
-0.02970000000000006,-32.892037721862096
-0.03070000000000017,-33.330598224820264
-0.03170000000000006,-33.712570275783825
-0.03270000000000017,-34.15113077874198
-0.03370000000000006,-34.5472499427042
-0.034700000000000175,-34.94336910666641
-0.035700000000000065,-35.38192960962457
-0.03670000000000018,-35.721460321592176
-0.03770000000000007,-36.11757948555439
-0.03870000000000018,-36.5136986495166
-0.03970000000000007,-36.8532293614842
-0.04070000000000018,-37.249348525446415
-0.04170000000000007,-37.60302635041268
-0.04270000000000018,-37.99914551437489
-0.04370000000000007,-38.33867622634249
-0.044700000000000184,-38.6499127123128
-0.045700000000000074,-38.94700208528445
-0.046700000000000186,-39.30067991025072
-0.047700000000000076,-39.61191639622103
-0.04870000000000019,-39.90900576919269
-0.04970000000000008,-40.177800916167044
-0.05070000000000019,-40.43244895014274
-0.05170000000000008,-40.743685436113054
-0.05270000000000019,-41.04077480908471
-0.05370000000000008,-41.39445263405098
-0.05470000000000019,-41.74813045901723
-0.05570000000000008,-42.04521983198889
-0.056700000000000195,-42.3564563179592
-0.057700000000000085,-42.653545690930855
-0.058700000000000196,-42.92234083790521
-0.059700000000000086,-43.17698887188092
-0.0607000000000002,-43.36090134086337
-0.06170000000000009,-43.48822535785123
-0.0627000000000002,-43.657990713835034
-0.06370000000000009,-43.75702050482558
-0.0647000000000002,-43.88434452181344
-0.06570000000000009,-44.011668538801295
-0.0667000000000002,-44.181433894785094
-0.0677000000000001,-44.36534636376755
-0.0687000000000002,-44.577553058747306
-0.0697000000000001,-44.88878954471762
-0.07070000000000021,-45.22832025668522
-0.0717000000000001,-45.624439420647434
-0.07270000000000021,-46.062999923605595
-0.0737000000000001,-46.45911908756781
-0.07470000000000021,-46.75620846053947
-0.0757000000000001,-46.94012092952192
-0.07670000000000021,-46.982562268517874
-0.0777000000000001,-46.84109113853137
-0.07870000000000021,-46.67132578254756
-0.0797000000000001,-46.45911908756781
-0.08070000000000022,-46.2327652795894
-0.0817000000000001,-46.147882601597495
-0.08270000000000022,-46.27520661858535
-0.08370000000000011,-46.586443104555656
-0.08470000000000022,-46.94012092952192
-0.08570000000000011,-47.40697565847737
-0.08670000000000022,-47.8879775004315
-0.08770000000000011,-48.41142068138156
-0.08870000000000022,-48.84998118433972
-0.08970000000000011,-49.20365900930597
-0.09070000000000022,-49.458307043281685
-0.09170000000000011,-49.59977817326819
-0.09270000000000023,-49.642219512264134
-0.09370000000000012,-49.68466085126009
-0.09470000000000023,-49.642219512264134
-0.09570000000000012,-49.59977817326819
-0.09670000000000023,-49.642219512264134
-0.09770000000000012,-49.72710219025603
-0.09870000000000023,-49.85442620724389
-0.09970000000000012,-50.0807800152223
-0.10070000000000023,-50.335428049198
-0.10170000000000012,-50.60422319617236
-0.10270000000000024,-50.943753908139975
-0.10370000000000013,-51.33987307210218
-0.10470000000000024,-51.77843357506035
-0.10570000000000013,-52.17455273902255
-0.10670000000000024,-52.471642111994214
-0.10770000000000013,-52.69799591997262
-0.10870000000000024,-52.78287859796452
-0.10970000000000013,-52.86776127595642
-0.11070000000000024,-52.95264395394832
-0.11170000000000013,-52.995085292944275
-0.11270000000000002,-53.03752663194023
-0.11370000000000013,-53.079967970936174
-0.11470000000000002,-53.22143910092268
-0.11570000000000014,-53.348763117910536
-0.11670000000000003,-53.518528473894335
-0.11770000000000014,-53.64585249088219
-0.11870000000000003,-53.9570889768525
-0.11970000000000014,-54.26832546282281
-0.12070000000000003,-54.69273885278232
-0.12170000000000014,-55.088858016744524
-0.12270000000000003,-55.484977180706736
-0.12370000000000014,-55.73962521468245
-0.12470000000000003,-55.9235376836649
-0.12570000000000014,-56.05086170065276
-0.12670000000000003,-56.093303039648696
-0.12770000000000015,-56.1781857176406
-0.12870000000000004,-56.30550973462846
-0.12970000000000015,-56.489422203610914
-0.13070000000000004,-56.65918755959472
-0.13170000000000015,-56.88554136757313
-0.13270000000000004,-57.14018940154883
-0.13370000000000015,-57.408984548523186
-0.13470000000000004,-57.70607392149485
-0.13570000000000015,-58.05975174646111
-0.13670000000000004,-58.35684111943277
-0.13770000000000016,-58.71051894439902
-0.13870000000000005,-59.06419676936528
-0.13970000000000016,-59.31884480334099
-0.14070000000000005,-59.54519861131939
-0.14170000000000016,-59.7149639673032
-0.14270000000000005,-59.884729323287
-0.14370000000000016,-60.06864179226946
-0.14470000000000005,-60.28084848724921
-0.14570000000000016,-60.54964363422357
-0.14670000000000005,-60.84673300719523
-0.14770000000000016,-61.15796949316553
-0.14870000000000005,-61.49750020513315
-0.14970000000000017,-61.80873669110345
-0.15070000000000006,-62.20485585506566
-0.15170000000000017,-62.58682790602922
-0.15270000000000006,-62.89806439199953
-0.15370000000000017,-63.20930087796983
-0.15470000000000006,-63.46394891194555
-0.15570000000000017,-63.732744058919906
-0.15670000000000006,-63.944950753899654
-0.15770000000000017,-64.11471610988345
-0.15870000000000006,-64.25618723986996
-0.15970000000000018,-64.38351125685783
-0.16070000000000007,-64.46839393484973
-0.16170000000000018,-64.63815929083353
-0.16270000000000007,-64.77963042082003
-0.16370000000000018,-65.03427845479574
-0.16470000000000007,-65.38795627976201
-0.16570000000000018,-65.76992833072556
-0.16670000000000007,-66.12360615569182
-0.16770000000000018,-66.56216665864997
-0.16870000000000007,-66.9582858226122
-0.16970000000000018,-67.2978165345798
-0.17070000000000007,-67.56661168155415
-0.17170000000000019,-67.7788183765339
-0.17270000000000008,-67.9202895065204
-0.1737000000000002,-68.04761352350828
-0.17470000000000008,-68.17493754049613
-0.1757000000000002,-68.30226155748396
-0.17670000000000008,-68.48617402646643
-0.1777000000000002,-68.65593938245023
-0.17870000000000008,-68.86814607742998
-0.1797000000000002,-69.0944998854084
-0.18070000000000008,-69.39158925838004
-0.1817000000000002,-69.74526708334632
-0.18270000000000008,-70.05650356931662
-0.1837000000000002,-70.31115160329232
-0.1847000000000001,-70.48091695927613
-0.1857000000000002,-70.66482942825859
-0.1867000000000001,-70.79215344524643
-0.1877000000000002,-70.91947746223428
-0.1887000000000001,-71.0043601402262
-0.1897000000000002,-71.18827260920865
-0.1907000000000001,-71.4004793041884
-0.1917000000000001,-71.6268331121668
-0.19269999999999998,-71.96636382413442
-0.1937000000000001,-72.32004164910067
-0.19469999999999998,-72.80104349105478
-0.1957000000000001,-73.2820453330089
-0.19669999999999999,-73.76304717496302
-0.1977000000000001,-74.14501922592657
-0.1987,-74.54113838988879
-0.1997000000000001,-74.89481621485504
-0.2007,-75.29093537881725
-0.2017000000000001,-75.6729074297808
-0.2027,-76.02658525474708
-0.2037000000000001,-76.38026307971333
-0.2047,-76.7622351306769
-0.2057000000000001,-77.11591295564315
-0.2067,-77.51203211960537
-0.2077000000000001,-77.7242388145851
-0.2087,-77.99303396155948
-0.2097000000000001,-78.16279931754329
-0.2107,-78.38915312552167
-0.2117000000000001,-78.60135982050144
-0.2127,-78.91259630647174
-0.2137000000000001,-79.20968567944341
-0.2147,-79.56336350440966
-0.2157000000000001,-80.04436534636378
-0.2167,-80.46877873632329
-0.21770000000000012,-80.90733923928146
-0.2187,-81.38834108123557
-0.21970000000000012,-81.86934292318966
-0.2207,-82.26546208715187
-0.22170000000000012,-82.6615812511141
-0.2227,-83.04355330207765
-0.22370000000000012,-83.35478978804795
-0.2247,-83.70846761301424
-0.22570000000000012,-84.00555698598588
-0.2267,-84.27435213296022
-0.22770000000000012,-84.61388284492786
-0.22870000000000001,-84.92511933089816
-0.22970000000000013,-85.32123849486035
-0.23070000000000002,-85.70321054582392
-0.23170000000000013,-86.09932970978613
-0.23270000000000002,-86.5378902127443
-0.23370000000000013,-86.93400937670651
-0.23470000000000002,-87.33012854066871
-0.23570000000000013,-87.71210059163228
-0.23670000000000002,-88.02333707760259
-0.2376999999999999,-88.27798511157829
-0.23870000000000002,-88.5892215975486
-0.2396999999999999,-88.94289942251486
-0.24070000000000003,-89.32487147347842
-0.24169999999999991,-89.76343197643658
-0.24270000000000003,-90.24443381839069
-0.24369999999999992,-90.68299432134886
-0.24470000000000003,-91.07911348531105
-0.24569999999999992,-91.41864419727867
-0.24670000000000003,-91.72988068324898
-0.24769999999999992,-92.04111716921928
-0.24870000000000003,-92.25332386419905
-0.24969999999999992,-92.4655305591788
-0.25070000000000003,-92.7767670451491
-0.2516999999999999,-93.08800353111941
-0.25270000000000004,-93.38509290409107
-0.2536999999999999,-93.82365340704924
-0.25470000000000004,-94.30465524900335
-0.2556999999999999,-94.8280984299534
-0.25670000000000004,-95.47886562789132
-0.25769999999999993,-96.12963282582925
-0.25870000000000004,-96.83698847576176
-0.25969999999999993,-97.53019701269562
-0.26070000000000004,-98.09608153264163
-0.26169999999999993,-98.5346420355998
-0.26270000000000004,-98.88831986056607
-0.26369999999999993,-99.14296789454177
-0.26470000000000005,-99.49664571950804
-0.26569999999999994,-99.83617643147564
-0.26670000000000005,-100.23229559543785
-0.26769999999999994,-100.62841475940007
-0.26870000000000005,-101.06697526235823
-0.26969999999999994,-101.50553576531638
-0.27070000000000005,-101.97239049427183
-0.27169999999999994,-102.3260683192381
-0.27270000000000005,-102.72218748320032
-0.27369999999999994,-102.97683551717601
-0.27470000000000006,-103.24563066415038
-0.27569999999999995,-103.59930848911664
-0.27670000000000006,-103.89639786208829
-0.27769999999999995,-104.33495836504645
-0.27870000000000006,-104.77351886800463
-0.27969999999999995,-105.29696204895468
-0.28070000000000006,-105.86284656890071
-0.28169999999999995,-106.4287310888467
-0.28270000000000006,-106.99461560879273
-0.28369999999999995,-107.6029414677347
-0.28470000000000006,-108.21126732667666
-0.28569999999999995,-108.87618163761321
-0.28670000000000007,-109.44206615755924
-0.28769999999999996,-110.00795067750525
-0.28870000000000007,-110.53139385845533
-0.28969999999999996,-111.05483703940537
-0.29070000000000007,-111.4509562033676
-0.29169999999999996,-111.7904869153352
-0.29270000000000007,-112.14416474030146
-0.29369999999999996,-112.54028390426367
-0.2947000000000001,-112.92225595522721
-0.29569999999999996,-113.40325779718134
-0.2967000000000001,-113.88425963913545
-0.29769999999999996,-114.36526148108955
-0.2987000000000001,-114.80382198404773
-0.29969999999999997,-115.2423824870059
-0.3007000000000001,-115.76582566795594
-0.30169999999999997,-116.28926884890602
-0.3027000000000001,-116.89759470784797
-0.30369999999999997,-117.50592056678994
-0.3047000000000001,-118.24157044271978
-0.30569999999999997,-118.99136743164823
-0.3067000000000001,-119.64213462958614
-0.3077,-120.25046048852812
-0.3087000000000001,-120.73146233048222
-0.3097,-121.12758149444444
-0.3107000000000001,-121.33978818942418
-0.3117,-121.52370065840667
-0.3127000000000001,-121.65102467539451
-0.3137,-121.77834869238235
-0.3147000000000001,-122.00470250036076
-0.3157,-122.38667455132433
-0.3167000000000001,-122.82523505428249
-0.3177,-123.4760022522204
-0.3187000000000001,-124.22579924114888
-0.3197,-125.00389045607463
-0.3207000000000001,-125.7536874450031
-0.3217,-126.5317786599289
-0.3227000000000001,-127.23913430986138
-0.3237,-127.84746016880335
-0.3247000000000001,-128.37090334975343
-0.3257,-128.752875400717
-0.3267000000000001,-129.02167054769134
-0.3277,-129.2338772426711
-0.3287000000000001,-129.4602310506495
-0.3297,-129.6299964066333
-0.3307000000000001,-129.79976176261712
-0.3317,-130.11099824858744
-0.3327000000000001,-130.42223473455772
-0.3337,-130.76176544652535
-0.3347000000000001,-131.24276728847948
-0.3357,-131.68132779143764
-0.3367000000000001,-132.16232963339172
-0.3377,-132.60089013634988
-0.3387000000000001,-133.08189197830401
-0.3397,-133.69021783724597
-0.3407000000000001,-134.256102357192
-0.3417,-134.82198687713802
-0.3427000000000001,-135.3029887190921
-0.3437,-135.78399056104624
-0.3447000000000001,-136.1801097250084
-0.3457,-136.43475775898415
-0.3467000000000001,-136.562081775972
-0.3477,-136.51964043697603
-0.3487000000000001,-136.3923164199882
-0.3497,-136.2225510640044
-0.3507000000000001,-136.03863859502192
-0.3517,-135.91131457803408
-0.3527000000000001,-135.86887323903812
-0.3537,-135.82643190004217
-0.3547000000000001,-135.99619725602597
-0.3557,-136.30743374199628
-0.35670000000000013,-136.60452311496792
-0.3577,-137.08552495692206
-0.35870000000000013,-137.65140947686808
-0.3597,-138.04752864083028
-0.36070000000000013,-138.3587651268006
-0.3617,-138.48608914378846
-0.3626999999999999,-138.48608914378846
-0.3637,-138.44364780479248
-0.3646999999999999,-138.27388244880868
-0.3657,-138.13241131882216
-0.3666999999999999,-137.9626459628384
-0.3677,-137.83532194585052
-0.3686999999999999,-137.75043926785864
-0.36970000000000003,-137.75043926785864
-0.3706999999999999,-137.75043926785864
-0.37170000000000003,-137.87776328484648
-0.3726999999999999,-138.13241131882216
-0.37370000000000003,-138.52853048278442
-0.3746999999999999,-138.92464964674662
-0.37570000000000003,-139.3207688107088
-0.3766999999999999,-139.61785818368048
-0.37770000000000004,-139.6602995226764
-0.3786999999999999,-139.53297550568857
-0.37970000000000004,-139.1792976807223
-0.3806999999999999,-138.7548842907628
-0.38170000000000004,-138.23144110981272
-0.38269999999999993,-137.70799792886265
-0.38370000000000004,-137.31187876490046
-0.38469999999999993,-137.00064227893017
-0.38570000000000004,-136.91575960093826
-0.38669999999999993,-135.82643190004217
-0.38570000000000004,-132.89797950932152
-0.38469999999999993,-130.32320494356716
-0.38370000000000004,-127.93234284679528
-0.38269999999999993,-125.71124610600715
-0.38170000000000004,-123.43356091322445
-0.3806999999999999,-121.29734685042824
-0.37970000000000004,-119.1186914486361
-0.3786999999999999,-116.89759470784797
-0.37770000000000004,-114.53502683707337
-0.3766999999999999,-112.27148875728932
-0.37570000000000003,-109.9655093385093
-0.3746999999999999,-107.68782414572658
-0.37370000000000003,-105.5516100829304
-0.3726999999999999,-103.50027869812607
-0.37170000000000003,-101.44894731332178
-0.3706999999999999,-99.49664571950804
-0.36970000000000003,-97.61507969068752
-0.3686999999999999,-95.83254345285758
-0.3677,-94.13488989301955
-0.3666999999999999,-92.4655305591788
-0.3657,-90.85275967733266
-0.3646999999999999,-89.42390126446898
-0.3637,-88.02333707760259
-0.3626999999999999,-86.6227728907362
-0.3617,-85.23635581686847
-0.36070000000000013,-83.83579163000208
-0.3597,-82.30790342614785
-0.35870000000000013,-80.82245656128954
-0.3577,-79.16724434044745
-0.35670000000000013,-77.46959078060941
-0.3557,-75.71534876877676
-0.3547000000000001,-74.0176952089387
-0.3537,-72.40492432709259
-0.3527000000000001,-70.8345947842424
-0.3517,-69.39158925838004
-0.3507000000000001,-67.96273084551636
-0.3497,-66.64704933664189
-0.3487000000000001,-65.43039761875795
-0.3477,-64.29862857886593
-0.3467000000000001,-63.29418355596174
-0.3457,-62.28973853305756
-0.3447000000000001,-61.28529351015339
-0.3437,-60.23840714825326
-0.3427000000000001,-59.02175543036933
-0.3417,-57.8333979384827
-0.3407000000000001,-56.57430488160282
-0.3397,-55.21618203373238
-0.3387000000000001,-53.91464763785655
-0.3377,-52.69799591997262
-0.3367000000000001,-51.509638428085985
-0.3357,-50.335428049198
-0.3347000000000001,-49.16121767031002
-0.3337,-48.071889969413945
-0.3327000000000001,-46.94012092952192
-0.3317,-45.85079322862584
-0.3307000000000001,-44.74731841473111
-0.3297,-43.75702050482558
-0.3287000000000001,-42.752575481921404
-0.3277,-41.83301313700913
-0.3267000000000001,-40.91345079209687
-0.3257,-39.99388844718459
-0.3247000000000001,-39.130914554266916
-0.3237,-38.12646953136274
-0.3227000000000001,-37.122024508458566
-0.3217,-36.11757948555439
-0.3207000000000001,-35.02825178465831
-0.3197,-33.98136542275818
-0.3187000000000001,-32.93447906085806
-0.3177,-31.887592698957924
-0.3167000000000001,-30.925589015049702
-0.3157,-29.921143992145527
-0.3147000000000001,-29.058170099227848
-0.3137,-28.09616641531963
-0.3127000000000001,-27.261486748399253
-0.3117,-26.440954194477534
-0.3107000000000001,-25.60627452755716
-0.3097,-24.814036199632742
-0.3087000000000001,-24.035944984706973
-0.3077,-23.24370665678255
-0.3067000000000001,-22.42317410286083
-0.30569999999999997,-21.54605309694451
-0.3047000000000001,-20.76796188201874
-0.30369999999999997,-19.890840876102416
-0.3027000000000001,-19.056161209182044
-0.30169999999999997,-18.23562865526032
-0.3007000000000001,-17.40094898833995
-0.29969999999999997,-16.622857773414182
-0.2987000000000001,-15.78817810649381
-0.29769999999999996,-15.01008689156804
-0.2967000000000001,-14.217848563643619
-0.29569999999999996,-13.436927926118118
-0.2947000000000001,-12.651763154693022
-0.29369999999999996,-11.909039722263879
-0.29270000000000007,-11.1677310011346
-0.29169999999999996,-10.470278330301136
-0.29070000000000007,-9.728969609171857
-0.28969999999999996,-9.031516938338395
-0.28870000000000007,-8.376505606500881
-0.28769999999999996,-7.679052935667419
-0.28670000000000007,-6.981600264833956
-0.28569999999999995,-6.326588932996443
-0.28470000000000006,-5.629136262162981
-0.28369999999999995,-4.9302688800296535
-0.28270000000000006,-4.23281620919619
-0.28169999999999995,-3.4915074880669104
-0.28070000000000006,-2.794054817233447
-0.27969999999999995,-2.095187435100119
-0.27870000000000006,-1.3980177065266295
-0.27769999999999995,-0.7872868383748929
-0.27670000000000006,-0.1330535977523067
-0.27569999999999995,0.5211796428702795
-0.27470000000000006,1.1317690398920295
-0.27369999999999994,1.6990682711379093
-0.27270000000000005,2.30880884137974
-0.27169999999999994,2.919964122921436
-0.27070000000000005,3.5311194044631313
-0.26969999999999994,4.140859974704963
-0.26870000000000005,4.752015256246658
-0.26769999999999994,5.3631705377883545
-0.26670000000000005,5.929055057734368
-0.26569999999999994,6.540210339276065
