Potential V vs RHE, Current mA cm-2
0.013299999999999867,2.7898106833338523
0.012299999999999978,1.2626298351295453
0.011299999999999866,-0.1766974413531431
0.010299999999999976,-1.4854468648582886
0.009299999999999864,-2.7501987669376318
0.008299999999999974,-3.971094618721158
0.007299999999999862,-5.0618370309171015
0.006299999999999972,-6.108723392817228
0.00529999999999986,-7.024041603829907
0.0042999999999999705,-7.940774526142452
0.0032999999999998586,-8.812236686859313
0.0022999999999999687,-9.641257508580225
0.0012999999999998568,-10.470278330301136
0.00029999999999996696,-11.211587051430415
-0.000700000000000145,-11.909039722263879
-0.0017000000000000348,-12.520195003805576
-0.0027000000000001467,-13.13135028534727
-0.0037000000000000366,-13.828802956180734
-0.0047000000000001485,-14.401761032626075
-0.005700000000000038,-14.967645552572087
-0.00670000000000015,-15.448647394526201
-0.00770000000000004,-15.87306078448571
-0.008700000000000152,-16.311621287443874
-0.009700000000000042,-16.750181790402035
-0.010700000000000154,-17.231183632356142
-0.011700000000000044,-17.75462681330621
-0.012700000000000156,-18.19318731626437
-0.013700000000000045,-18.589306480226583
-0.014700000000000157,-18.92883719219419
-0.015700000000000047,-19.197632339168546
-0.01670000000000016,-19.537163051136158
-0.01770000000000005,-19.890840876102416
-0.01870000000000016,-20.202077362072725
-0.01970000000000005,-20.541608074040333
-0.020700000000000163,-20.85284456001064
-0.021700000000000053,-21.149933932982297
-0.022700000000000164,-21.461170418952605
-0.023700000000000054,-21.729965565926964
-0.024700000000000166,-21.94217226090672
-0.025700000000000056,-22.111937616890522
-0.026700000000000168,-22.33829142486893
-0.027700000000000058,-22.592939458844636
-0.02870000000000017,-22.861734605818995
-0.02970000000000006,-23.15882397879065
-0.03070000000000017,-23.427619125765005
-0.03170000000000006,-23.639825820744765
-0.03270000000000017,-23.86617962872317
-0.03370000000000006,-24.035944984706973
-0.034700000000000175,-24.16326900169483
-0.035700000000000065,-24.290593018682678
-0.03670000000000018,-24.474505487665134
-0.03770000000000007,-24.64427084364894
-0.03870000000000018,-24.9130659906233
-0.03970000000000007,-25.167714024599
-0.04070000000000018,-25.43650917157336
-0.04170000000000007,-25.563833188561212
-0.04270000000000018,-25.60627452755716
-0.04370000000000007,-25.648715866553115
-0.044700000000000184,-25.73359854454502
-0.045700000000000074,-25.86092256153287
-0.046700000000000186,-26.129717708507226
-0.047700000000000076,-26.38436574248293
-0.04870000000000019,-26.568278211465387
-0.04970000000000008,-26.69560222845324
-0.05070000000000019,-26.822926245441096
-0.05170000000000008,-27.049280053419505
-0.05270000000000019,-27.219045409403304
-0.05370000000000008,-27.34636942639116
-0.05470000000000019,-27.43125210438306
-0.05570000000000008,-27.572723234369565
-0.056700000000000195,-27.615164573365515
-0.057700000000000085,-27.78492992934932
-0.058700000000000196,-27.912253946337174
-0.059700000000000086,-28.05372507632368
-0.0607000000000002,-28.09616641531963
-0.06170000000000009,-28.13860775431558
-0.0627000000000002,-28.22349043230748
-0.06370000000000009,-28.393255788291288
-0.0647000000000002,-28.662050935265643
-0.06570000000000009,-28.959140308237306
-0.0667000000000002,-29.18549411621571
-0.0677000000000001,-29.35525947219951
-0.0687000000000002,-29.440142150191413
-0.0697000000000001,-29.581613280177915
-0.07070000000000021,-29.708937297165768
-0.0717000000000001,-29.878702653149578
-0.07270000000000021,-30.147497800123933
-0.0737000000000001,-30.402145834099635
-0.07470000000000021,-30.670940981073993
-0.0757000000000001,-30.8407063370578
-0.07670000000000021,-30.925589015049702
-0.0777000000000001,-30.968030354045652
-0.07870000000000021,-31.095354371033505
-0.0797000000000001,-31.19438416202406
-0.08070000000000022,-31.321708179011907
-0.0817000000000001,-31.449032195999767
-0.08270000000000022,-31.533914873991666
-0.08370000000000011,-31.661238890979522
-0.08470000000000022,-31.802710020966025
-0.08570000000000011,-31.930034037953877
-0.08670000000000022,-32.05735805494172
-0.08770000000000011,-32.184682071929586
-0.08870000000000022,-32.32615320191609
-0.08970000000000011,-32.53835989689585
-0.09070000000000022,-32.70812525287965
-0.09170000000000011,-32.93447906085806
-0.09270000000000023,-33.18912709483376
-0.09370000000000012,-33.41548090281216
-0.09470000000000023,-33.58524625879597
-0.09570000000000012,-33.58524625879597
-0.09670000000000023,-33.627687597791926
-0.09770000000000012,-33.755011614779775
-0.09870000000000023,-34.02380676175414
-0.09970000000000012,-34.377484586720385
-0.10070000000000023,-34.67457395969205
-0.10170000000000012,-34.90092776767045
-0.10270000000000024,-35.07069312365426
-0.10370000000000013,-35.240458479638065
-0.10470000000000024,-35.42437094862052
-0.10570000000000013,-35.55169496560837
-0.10670000000000024,-35.679018982596226
-0.10770000000000013,-35.806342999584075
-0.10870000000000024,-35.94781412957058
-0.10970000000000013,-36.07513814655844
-0.11070000000000024,-36.244903502542236
-0.11170000000000013,-36.47125731052064
-0.11270000000000002,-36.725905344496354
-0.11370000000000013,-36.8532293614842
-0.11470000000000002,-36.81078802248826
-0.11570000000000014,-36.8532293614842
-0.11670000000000003,-36.95225915247476
-0.11770000000000014,-37.164465847454515
-0.11870000000000003,-37.51814367242077
-0.11970000000000014,-37.81523304539243
-0.12070000000000003,-38.04158685337084
-0.12170000000000014,-38.16891087035869
-0.12270000000000003,-38.29623488734655
-0.12370000000000014,-38.38111756533845
-0.12470000000000003,-38.5650300343209
-0.12570000000000014,-38.86211940729255
-0.12670000000000003,-39.173355893262865
-0.12770000000000015,-39.38556258824262
-0.12870000000000004,-39.47044526623452
-0.12970000000000015,-39.51288660523048
-0.13070000000000004,-39.61191639622103
-0.13170000000000015,-39.78168175220483
-0.13270000000000004,-40.03632978618054
-0.13370000000000015,-40.3900076111468
-0.13470000000000004,-40.701244097117105
-0.13570000000000015,-40.91345079209687
-0.13670000000000004,-41.04077480908471
-0.13770000000000016,-41.22468727806717
-0.13870000000000005,-41.43689397304693
-0.13970000000000016,-41.66324778102533
-0.14070000000000005,-41.83301313700913
-0.14170000000000016,-41.87545447600508
-0.14270000000000005,-42.00277849299294
-0.14370000000000016,-42.130102509980794
-0.14470000000000005,-42.39889765695515
-0.14570000000000016,-42.71013414292546
-0.14670000000000005,-43.04966485489307
-0.14770000000000016,-43.36090134086337
-0.14870000000000005,-43.57310803584313
-0.14970000000000017,-43.75702050482558
-0.15070000000000006,-43.88434452181344
-0.15170000000000017,-44.096551216793195
-0.15270000000000006,-44.28046368577565
-0.15370000000000017,-44.4926703807554
-0.15470000000000006,-44.66243573673921
-0.15570000000000017,-44.88878954471762
-0.15670000000000006,-45.143437578693316
-0.15770000000000017,-45.53955674265553
-0.15870000000000006,-45.93567590661774
-0.15970000000000018,-46.19032394059345
-0.16070000000000007,-46.27520661858535
-0.16170000000000018,-46.27520661858535
-0.16270000000000007,-46.37423640957591
-0.16370000000000018,-46.713767121543505
-0.16470000000000007,-47.19476896349763
-0.16570000000000018,-47.633329466455784
-0.16670000000000007,-47.987007291422046
-0.16770000000000018,-48.156772647405845
-0.16870000000000007,-48.24165532539775
-0.16970000000000018,-48.51045047237211
-0.17070000000000007,-48.97730520132757
-0.17170000000000019,-49.557336834272235
-0.17270000000000008,-49.939308885235796
-0.1737000000000002,-50.1656626932142
-0.17470000000000008,-50.335428049198
-0.1757000000000002,-50.42031072718991
-0.17670000000000008,-50.46275206618586
-0.1777000000000002,-50.68910587416426
-0.17870000000000008,-50.98619524713592
-0.1797000000000002,-51.33987307210218
-0.18070000000000008,-51.594521106077885
-0.1817000000000002,-51.82087491405629
-0.18270000000000008,-52.033081609036046
-0.1837000000000002,-52.2169940780185
-0.1847000000000001,-52.42920077299826
-0.1857000000000002,-52.59896612898206
-0.1867000000000001,-52.82531993696047
-0.1877000000000002,-53.079967970936174
-0.1887000000000001,-53.476087134898386
-0.1897000000000002,-53.91464763785655
-0.1907000000000001,-54.39564947981066
-0.1917000000000001,-54.73518019177827
-0.19269999999999998,-55.046416677748574
-0.1937000000000001,-55.357653163718886
-0.19469999999999998,-55.484977180706736
-0.1957000000000001,-55.484977180706736
-0.19669999999999999,-55.484977180706736
-0.1977000000000001,-55.484977180706736
-0.1987,-55.400094502714836
-0.1997000000000001,-55.31521182472294
-0.2007,-55.442535841710786
-0.2017000000000001,-55.7820665536784
-0.2027,-56.36209818662306
-0.2037000000000001,-56.97042404556503
-0.2047,-57.45142588751914
-0.2057000000000001,-57.66363258249889
-0.2067,-57.62119124350295
-0.2077000000000001,-57.62119124350295
-0.2087,-57.7485152604908
-0.2097000000000001,-58.22951710244491
-0.2107,-58.880284300382826
-0.2117000000000001,-59.67252262830725
-0.2127,-60.32328982624517
-0.2137000000000001,-60.71940899020737
-0.2147,-60.93161568518713
-0.2157000000000001,-61.07308681517363
-0.2167,-61.11552815416958
-0.21770000000000012,-61.20041083216149
-0.2187,-61.455058866137186
-0.21970000000000012,-61.80873669110345
-0.2207,-62.28973853305756
-0.22170000000000012,-62.855623053003576
-0.2227,-63.3366248949577
-0.22370000000000012,-63.59127292893339
-0.2247,-63.732744058919906
-0.22570000000000012,-63.77518539791585
-0.2267,-63.902509414903705
-0.22770000000000012,-64.15715744887942
-0.22870000000000001,-64.63815929083353
-0.22970000000000013,-65.20404381077954
-0.23070000000000002,-65.64260431373769
-0.23170000000000013,-65.86895812171612
-0.23270000000000002,-65.95384079970802
-0.23370000000000013,-66.08116481669586
-0.23470000000000002,-66.34995996367022
-0.23570000000000013,-66.81681469262568
-0.23670000000000002,-67.2978165345798
-0.2376999999999999,-67.693935698542
-0.23870000000000002,-68.04761352350828
-0.2396999999999999,-68.30226155748396
-0.24070000000000003,-68.61349804345427
-0.24169999999999991,-69.05205854641244
-0.24270000000000003,-69.57550172736251
-0.24369999999999992,-70.18382758630447
-0.24470000000000003,-70.74971210625048
-0.24569999999999992,-71.27315528720055
-0.24670000000000003,-71.6268331121668
-0.24769999999999992,-71.8814811461425
-0.24870000000000003,-72.19271763211282
-0.24969999999999992,-72.44736566608852
-0.25070000000000003,-72.92836750804264
-0.2516999999999999,-73.57913470598055
-0.25270000000000004,-74.28649035591307
-0.2536999999999999,-74.62602106788069
-0.25470000000000004,-74.62602106788069
-0.2556999999999999,-74.49869705089283
-0.25670000000000004,-74.49869705089283
-0.25769999999999993,-74.72505085887124
-0.25870000000000004,-75.19190558782671
-0.25969999999999993,-75.81437855976732
-0.26070000000000004,-76.33782174071737
-0.26169999999999993,-76.81882358267148
-0.26270000000000004,-77.03103027765125
-0.26369999999999993,-77.1583542946391
-0.26470000000000005,-77.20079563363505
-0.26569999999999994,-77.38470810261751
-0.26670000000000005,-77.7242388145851
-0.26769999999999994,-77.99303396155948
-0.26870000000000005,-78.24768199553519
-0.26969999999999994,-78.64380115949739
-0.27070000000000005,-79.20968567944341
-0.27169999999999994,-79.69068752139752
-0.27270000000000005,-79.90289421637728
-0.27369999999999994,-79.7755701993894
-0.27470000000000006,-79.69068752139752
-0.27569999999999995,-79.7755701993894
-0.27670000000000006,-80.08680668535972
-0.27769999999999995,-80.69513254430169
-0.27870000000000006,-81.30345840324367
-0.27969999999999995,-81.65713622820991
-0.28070000000000006,-81.91178426218562
-0.28169999999999995,-81.95422560118158
-0.28270000000000006,-81.95422560118158
-0.28369999999999995,-81.99666694017753
-0.28470000000000006,-82.13813807016405
-0.28569999999999995,-82.39278610413973
-0.28670000000000007,-82.61913991211814
-0.28769999999999996,-82.8313466070979
-0.28870000000000007,-83.0011119630817
-0.28969999999999996,-83.04355330207765
-0.29070000000000007,-83.04355330207765
-0.29169999999999996,-82.8313466070979
-0.29270000000000007,-82.70402259011003
-0.29369999999999996,-82.8313466070979
-0.2947000000000001,-83.08599464107361
-0.29569999999999996,-83.31234844905201
-0.2967000000000001,-83.39723112704392
-0.29769999999999996,-83.35478978804795
-0.2987000000000001,-83.31234844905201
-0.29969999999999997,-83.31234844905201
-0.3007000000000001,-83.35478978804795
-0.30169999999999997,-83.43967246603985
-0.3027000000000001,-83.52455514403178
-0.30369999999999997,-83.52455514403178
-0.3047000000000001,-83.56699648302772
-0.30569999999999997,-83.83579163000208
-0.3067000000000001,-84.13288100297372
-0.3077,-84.31679347195619
-0.3087000000000001,-84.04799832498183
-0.3097,-83.70846761301424
-0.3107000000000001,-83.39723112704392
-0.3117,-83.31234844905201
-0.3127000000000001,-83.52455514403178
-0.3137,-83.92067430799398
-0.3147000000000001,-84.23191079396429
-0.3157,-84.40167614994809
-0.3167000000000001,-84.31679347195619
-0.3177,-84.04799832498183
-0.3187000000000001,-83.70846761301424
-0.3197,-83.39723112704392
-0.3207000000000001,-83.31234844905201
-0.3217,-83.22746577106011
-0.3227000000000001,-83.14258309306821
-0.3237,-83.14258309306821
-0.3247000000000001,-83.0011119630817
-0.3257,-82.6615812511141
-0.3267000000000001,-81.99666694017753
-0.3277,-81.21857572525175
-0.3287000000000001,-80.69513254430169
-0.3297,-80.65269120530574
-0.3307000000000001,-80.99222191727335
-0.3317,-81.43078242023151
-0.3327000000000001,-81.61469488921396
-0.3337,-81.51566509822342
-0.3347000000000001,-81.1761343862558
-0.3357,-80.82245656128954
-0.3367000000000001,-80.61024986630979
-0.3377,-80.69513254430169
-0.3387000000000001,-80.99222191727335
-0.3397,-81.30345840324367
-0.3407000000000001,-81.47322375922747
-0.3417,-81.57225355021802
-0.3427000000000001,-81.69957756720586
-0.3437,-82.13813807016405
-0.3447000000000001,-82.746463929106
-0.3457,-83.18502443206415
-0.3467000000000001,-83.22746577106011
-0.3477,-83.18502443206415
-0.3487000000000001,-83.08599464107361
-0.3497,-83.26990711005605
-0.3507000000000001,-83.83579163000208
-0.3517,-84.48655882793999
-0.3527000000000001,-85.09488468688197
-0.3537,-85.57588652883607
-0.3547000000000001,-85.92956435380233
-0.3557,-86.18421238777805
-0.35670000000000013,-86.36812485676049
-0.3577,-86.6227728907362
-0.35870000000000013,-87.06133339369435
-0.3597,-87.54233523564847
-0.36070000000000013,-87.89601306061473
-0.3617,-88.23554377258235
-0.3626999999999999,-88.63166293654454
-0.3637,-89.23998879548651
-0.3646999999999999,-89.84831465442848
-0.3657,-90.24443381839069
-0.3666999999999999,-90.59811164335694
-0.3677,-90.89520101632861
-0.3686999999999999,-91.41864419727867
-0.36970000000000003,-92.16844118620713
-0.3706999999999999,-93.13044487011537
-0.37170000000000003,-94.07830144102493
-0.3726999999999999,-94.8280984299534
-0.37370000000000003,-95.39398294989942
-0.3746999999999999,-95.95986746984543
-0.37570000000000003,-96.44086931179956
-0.3766999999999999,-97.13407784873341
-0.37770000000000004,-98.18096421063355
-0.3786999999999999,-99.35517458952152
-0.37970000000000004,-100.31717827342976
-0.3806999999999999,-100.75573877638791
-0.38170000000000004,-101.10941660135417
-0.38269999999999993,-101.50553576531638
-0.38370000000000004,-102.07142028526239
-0.38469999999999993,-103.07586530816658
-0.38570000000000004,-104.2925170260505
-0.38669999999999993,-104.12275167006669
-0.38570000000000004,-101.76018379929208
-0.38469999999999993,-99.45420438051207
-0.38370000000000004,-97.31799031771587
-0.38269999999999993,-95.39398294989942
-0.38170000000000004,-93.73877072905732
-0.3806999999999999,-92.25332386419905
-0.37970000000000004,-90.7254356603448
-0.3786999999999999,-89.19754745649055
-0.37770000000000004,-87.79698326962418
-0.3766999999999999,-86.6227728907362
-0.37570000000000003,-85.44856251184822
-0.3746999999999999,-84.04799832498183
-0.37370000000000003,-82.39278610413973
-0.3726999999999999,-80.7800152222936
-0.37170000000000003,-79.2945683574353
-0.3706999999999999,-78.20524065653922
-0.36970000000000003,-77.46959078060941
-0.3686999999999999,-76.81882358267148
-0.3677,-75.85681989876326
-0.3666999999999999,-74.58357972888473
-0.3657,-73.197162655017
-0.3646999999999999,-71.75415712915466
-0.3637,-70.62238808926263
-0.3626999999999999,-69.87259110033416
-0.3617,-69.26426524139221
-0.36070000000000013,-68.38714423547587
-0.3597,-67.2978165345798
-0.35870000000000013,-66.03872347769992
-0.3577,-64.68060062982947
-0.35670000000000013,-63.37906623395363
-0.3557,-62.37462121104946
-0.3547000000000001,-61.7662953521075
-0.3537,-61.327734849149344
-0.3527000000000001,-60.63452631221547
-0.3517,-59.587639950315335
-0.3507000000000001,-58.35684111943277
-0.3497,-57.182630740544774
-0.3487000000000001,-56.1781857176406
-0.3477,-55.21618203373238
-0.3467000000000001,-54.43809081880661
-0.3457,-53.64585249088219
-0.3447000000000001,-52.74043725896857
-0.3437,-51.73599223606439
-0.3427000000000001,-50.60422319617236
-0.3417,-49.373424365289786
-0.3407000000000001,-48.1992139864018
-0.3397,-47.23721030249357
-0.3387000000000001,-46.586443104555656
-0.3377,-46.062999923605595
-0.3367000000000001,-45.412232725667685
-0.3357,-44.66243573673921
-0.3347000000000001,-43.79946184382153
-0.3337,-42.87989949890926
-0.3327000000000001,-41.91789581500104
-0.3317,-41.04077480908471
-0.3307000000000001,-40.34756627215084
-0.3297,-39.739240413208876
-0.3287000000000001,-39.258238571254765
-0.3277,-38.6499127123128
-0.3267000000000001,-37.85767438438838
-0.3257,-36.95225915247476
-0.3247000000000001,-35.848784338580025
-0.3237,-34.90092776767045
-0.3227000000000001,-34.10868943974604
-0.3217,-33.45792224180811
-0.3207000000000001,-32.807155043870196
-0.3197,-32.05735805494172
-0.3187000000000001,-31.27926684001596
-0.3177,-30.614352529079397
-0.3167000000000001,-29.96358533114148
-0.3157,-29.22793545521166
-0.3147000000000001,-28.265931771303435
-0.3137,-27.091721392415455
-0.3127000000000001,-25.959952352523427
-0.3117,-25.210155363594954
-0.3107000000000001,-24.870624651627345
-0.3097,-24.432064148669184
-0.3087000000000001,-23.823738289727217
-0.3077,-23.073941300798747
-0.3067000000000001,-22.253408746877028
-0.30569999999999997,-21.418729079956652
-0.3047000000000001,-20.683079204026836
-0.30369999999999997,-20.01816489309027
-0.3027000000000001,-19.452280373144255
-0.30169999999999997,-18.88639585319824
-0.3007000000000001,-18.320511333252224
-0.29969999999999997,-17.71218547431026
-0.2987000000000001,-17.061418276372343
-0.29769999999999996,-16.396503965435777
-0.2967000000000001,-15.660854089505953
-0.29569999999999996,-14.925204213576137
-0.2947000000000001,-14.26028990263957
-0.29369999999999996,-13.741090855589102
-0.29270000000000007,-13.349215825526485
-0.29169999999999996,-12.913484745168056
-0.29070000000000007,-12.520195003805576
-0.28969999999999996,-12.084463923447142
-0.28870000000000007,-11.517164692201263
-0.28769999999999996,-10.906009410659568
-0.28670000000000007,-10.208556739826104
-0.28569999999999995,-9.511104068992642
-0.28470000000000006,-8.85609273715513
-0.28369999999999995,-8.288793505909249
-0.28270000000000006,-7.809206375255003
-0.28169999999999995,-7.28576319430494
-0.28070000000000006,-6.762320013354876
-0.27969999999999995,-6.196435493408861
-0.27870000000000006,-5.629136262162981
-0.27769999999999995,-5.105693081212917
-0.27670000000000006,-4.582249900262854
-0.27569999999999995,-4.102662769608606
-0.27470000000000006,-3.623075638954359
-0.27369999999999994,-3.1420737970002466
-0.27270000000000005,-2.618630616050183
-0.27169999999999994,-2.095187435100119
-0.27070000000000005,-1.5717442541500557
-0.26969999999999994,-1.1362961160515976
-0.26870000000000005,-0.7437137303390498
-0.26769999999999994,-0.30755823659065895
-0.26670000000000005,0.17231183632356148
-0.26569999999999994,0.6520404381077953
-0.26470000000000005,1.1317690398920295
