Mar. 5, 2025   04:29:22
Cyclic Voltammetry
File: c:/users/guazh/data/banditlqround7_x0exp169_r20_3/2025-03-03-exp874\exp874-2025-03-05t04_22_11-h2koh\exp874_cv_sr_500mvs_efin_-1400mv.bin
Data Source:  Experiment
Instrument Model:  CHI760E
Header: CV ran at 500 mVs
Note: 

Init E (V) = -1
High E (V) = -1
Low E (V) = -1.4
Final E (V) = -1
Init P/N = N
Scan Rate (V/s) = 0.5
Segment = 3
Sample Interval (V) = 0.001
Quiet Time (sec) = 2
Sensitivity (A/V) = 0.01
Comp R (ohm) = 1.2

Results:

Channel 1:
Segment 1:
Ep = -1.396V
ip = 1.855e-3A
Ah = 5.611e-4C

Segment 2:

Segment 3:

Potential/V, Current/A

-1.000, -2.002e-4
-1.001, -8.617e-5
-1.002, 1.557e-5
-1.003, 1.142e-4
-1.004, 2.036e-4
-1.005, 2.900e-4
-1.006, 3.732e-4
-1.007, 4.503e-4
-1.008, 5.243e-4
-1.009, 5.983e-4
-1.010, 6.630e-4
-1.011, 7.247e-4
-1.012, 7.833e-4
-1.013, 8.418e-4
-1.014, 9.004e-4
-1.015, 9.590e-4
-1.016, 1.018e-3
-1.017, 1.070e-3
-1.018, 1.116e-3
-1.019, 1.159e-3
-1.020, 1.196e-3
-1.021, 1.233e-3
-1.022, 1.270e-3
-1.023, 1.310e-3
-1.024, 1.357e-3
-1.025, 1.400e-3
-1.026, 1.440e-3
-1.027, 1.477e-3
-1.028, 1.508e-3
-1.029, 1.532e-3
-1.030, 1.554e-3
-1.031, 1.576e-3
-1.032, 1.600e-3
-1.033, 1.631e-3
-1.034, 1.665e-3
-1.035, 1.696e-3
-1.036, 1.724e-3
-1.037, 1.745e-3
-1.038, 1.764e-3
-1.039, 1.782e-3
-1.040, 1.798e-3
-1.041, 1.816e-3
-1.042, 1.832e-3
-1.043, 1.850e-3
-1.044, 1.865e-3
-1.045, 1.881e-3
-1.046, 1.899e-3
-1.047, 1.915e-3
-1.048, 1.927e-3
-1.049, 1.939e-3
-1.050, 1.958e-3
-1.051, 1.976e-3
-1.052, 1.998e-3
-1.053, 2.013e-3
-1.054, 2.035e-3
-1.055, 2.050e-3
-1.056, 2.066e-3
-1.057, 2.081e-3
-1.058, 2.100e-3
-1.059, 2.115e-3
-1.060, 2.134e-3
-1.061, 2.152e-3
-1.062, 2.171e-3
-1.063, 2.192e-3
-1.064, 2.211e-3
-1.065, 2.223e-3
-1.066, 2.235e-3
-1.067, 2.242e-3
-1.068, 2.251e-3
-1.069, 2.257e-3
-1.070, 2.269e-3
-1.071, 2.285e-3
-1.072, 2.300e-3
-1.073, 2.316e-3
-1.074, 2.331e-3
-1.075, 2.340e-3
-1.076, 2.349e-3
-1.077, 2.356e-3
-1.078, 2.359e-3
-1.079, 2.365e-3
-1.080, 2.371e-3
-1.081, 2.386e-3
-1.082, 2.411e-3
-1.083, 2.436e-3
-1.084, 2.457e-3
-1.085, 2.470e-3
-1.086, 2.473e-3
-1.087, 2.470e-3
-1.088, 2.467e-3
-1.089, 2.467e-3
-1.090, 2.476e-3
-1.091, 2.494e-3
-1.092, 2.516e-3
-1.093, 2.538e-3
-1.094, 2.556e-3
-1.095, 2.568e-3
-1.096, 2.578e-3
-1.097, 2.581e-3
-1.098, 2.584e-3
-1.099, 2.590e-3
-1.100, 2.602e-3
-1.101, 2.618e-3
-1.102, 2.633e-3
-1.103, 2.649e-3
-1.104, 2.661e-3
-1.105, 2.667e-3
-1.106, 2.673e-3
-1.107, 2.679e-3
-1.108, 2.692e-3
-1.109, 2.707e-3
-1.110, 2.723e-3
-1.111, 2.735e-3
-1.112, 2.744e-3
-1.113, 2.756e-3
-1.114, 2.763e-3
-1.115, 2.772e-3
-1.116, 2.787e-3
-1.117, 2.806e-3
-1.118, 2.827e-3
-1.119, 2.843e-3
-1.120, 2.855e-3
-1.121, 2.871e-3
-1.122, 2.883e-3
-1.123, 2.895e-3
-1.124, 2.908e-3
-1.125, 2.923e-3
-1.126, 2.938e-3
-1.127, 2.948e-3
-1.128, 2.951e-3
-1.129, 2.954e-3
-1.130, 2.960e-3
-1.131, 2.978e-3
-1.132, 3.003e-3
-1.133, 3.025e-3
-1.134, 3.040e-3
-1.135, 3.052e-3
-1.136, 3.062e-3
-1.137, 3.071e-3
-1.138, 3.083e-3
-1.139, 3.102e-3
-1.140, 3.120e-3
-1.141, 3.145e-3
-1.142, 3.170e-3
-1.143, 3.191e-3
-1.144, 3.207e-3
-1.145, 3.213e-3
-1.146, 3.219e-3
-1.147, 3.219e-3
-1.148, 3.222e-3
-1.149, 3.231e-3
-1.150, 3.253e-3
-1.151, 3.281e-3
-1.152, 3.311e-3
-1.153, 3.339e-3
-1.154, 3.351e-3
-1.155, 3.355e-3
-1.156, 3.358e-3
-1.157, 3.358e-3
-1.158, 3.367e-3
-1.159, 3.385e-3
-1.160, 3.407e-3
-1.161, 3.435e-3
-1.162, 3.462e-3
-1.163, 3.487e-3
-1.164, 3.506e-3
-1.165, 3.515e-3
-1.166, 3.524e-3
-1.167, 3.530e-3
-1.168, 3.540e-3
-1.169, 3.555e-3
-1.170, 3.570e-3
-1.171, 3.589e-3
-1.172, 3.607e-3
-1.173, 3.626e-3
-1.174, 3.647e-3
-1.175, 3.672e-3
-1.176, 3.694e-3
-1.177, 3.712e-3
-1.178, 3.718e-3
-1.179, 3.725e-3
-1.180, 3.731e-3
-1.181, 3.746e-3
-1.182, 3.771e-3
-1.183, 3.799e-3
-1.184, 3.832e-3
-1.185, 3.863e-3
-1.186, 3.891e-3
-1.187, 3.913e-3
-1.188, 3.931e-3
-1.189, 3.943e-3
-1.190, 3.959e-3
-1.191, 3.974e-3
-1.192, 3.993e-3
-1.193, 4.011e-3
-1.194, 4.030e-3
-1.195, 4.051e-3
-1.196, 4.076e-3
-1.197, 4.101e-3
-1.198, 4.128e-3
-1.199, 4.144e-3
-1.200, 4.144e-3
-1.201, 4.141e-3
-1.202, 4.132e-3
-1.203, 4.135e-3
-1.204, 4.153e-3
-1.205, 4.187e-3
-1.206, 4.230e-3
-1.207, 4.261e-3
-1.208, 4.292e-3
-1.209, 4.317e-3
-1.210, 4.338e-3
-1.211, 4.354e-3
-1.212, 4.372e-3
-1.213, 4.394e-3
-1.214, 4.421e-3
-1.215, 4.446e-3
-1.216, 4.474e-3
-1.217, 4.495e-3
-1.218, 4.511e-3
-1.219, 4.526e-3
-1.220, 4.542e-3
-1.221, 4.557e-3
-1.222, 4.575e-3
-1.223, 4.603e-3
-1.224, 4.646e-3
-1.225, 4.699e-3
-1.226, 4.742e-3
-1.227, 4.757e-3
-1.228, 4.736e-3
-1.229, 4.711e-3
-1.230, 4.693e-3
-1.231, 4.693e-3
-1.232, 4.714e-3
-1.233, 4.760e-3
-1.234, 4.822e-3
-1.235, 4.881e-3
-1.236, 4.915e-3
-1.237, 4.924e-3
-1.238, 4.912e-3
-1.239, 4.896e-3
-1.240, 4.890e-3
-1.241, 4.887e-3
-1.242, 4.902e-3
-1.243, 4.939e-3
-1.244, 4.995e-3
-1.245, 5.047e-3
-1.246, 5.097e-3
-1.247, 5.137e-3
-1.248, 5.164e-3
-1.249, 5.189e-3
-1.250, 5.211e-3
-1.251, 5.235e-3
-1.252, 5.269e-3
-1.253, 5.303e-3
-1.254, 5.334e-3
-1.255, 5.368e-3
-1.256, 5.399e-3
-1.257, 5.436e-3
-1.258, 5.470e-3
-1.259, 5.491e-3
-1.260, 5.507e-3
-1.261, 5.522e-3
-1.262, 5.534e-3
-1.263, 5.547e-3
-1.264, 5.559e-3
-1.265, 5.578e-3
-1.266, 5.593e-3
-1.267, 5.611e-3
-1.268, 5.633e-3
-1.269, 5.661e-3
-1.270, 5.692e-3
-1.271, 5.719e-3
-1.272, 5.750e-3
-1.273, 5.793e-3
-1.274, 5.833e-3
-1.275, 5.870e-3
-1.276, 5.895e-3
-1.277, 5.907e-3
-1.278, 5.914e-3
-1.279, 5.926e-3
-1.280, 5.944e-3
-1.281, 5.978e-3
-1.282, 6.018e-3
-1.283, 6.068e-3
-1.284, 6.108e-3
-1.285, 6.142e-3
-1.286, 6.169e-3
-1.287, 6.194e-3
-1.288, 6.216e-3
-1.289, 6.234e-3
-1.290, 6.256e-3
-1.291, 6.287e-3
-1.292, 6.333e-3
-1.293, 6.388e-3
-1.294, 6.435e-3
-1.295, 6.465e-3
-1.296, 6.478e-3
-1.297, 6.475e-3
-1.298, 6.475e-3
-1.299, 6.475e-3
-1.300, 6.490e-3
-1.301, 6.518e-3
-1.302, 6.558e-3
-1.303, 6.598e-3
-1.304, 6.635e-3
-1.305, 6.669e-3
-1.306, 6.694e-3
-1.307, 6.712e-3
-1.308, 6.728e-3
-1.309, 6.740e-3
-1.310, 6.761e-3
-1.311, 6.786e-3
-1.312, 6.808e-3
-1.313, 6.826e-3
-1.314, 6.854e-3
-1.315, 6.897e-3
-1.316, 6.946e-3
-1.317, 6.990e-3
-1.318, 7.005e-3
-1.319, 6.990e-3
-1.320, 6.965e-3
-1.321, 6.953e-3
-1.322, 6.940e-3
-1.323, 6.940e-3
-1.324, 6.946e-3
-1.325, 6.956e-3
-1.326, 6.959e-3
-1.327, 6.974e-3
-1.328, 6.986e-3
-1.329, 7.002e-3
-1.330, 7.014e-3
-1.331, 7.023e-3
-1.332, 7.033e-3
-1.333, 7.030e-3
-1.334, 7.027e-3
-1.335, 7.027e-3
-1.336, 7.033e-3
-1.337, 7.048e-3
-1.338, 7.067e-3
-1.339, 7.079e-3
-1.340, 7.082e-3
-1.341, 7.070e-3
-1.342, 7.048e-3
-1.343, 7.020e-3
-1.344, 6.999e-3
-1.345, 6.974e-3
-1.346, 6.959e-3
-1.347, 6.959e-3
-1.348, 6.959e-3
-1.349, 6.956e-3
-1.350, 6.943e-3
-1.351, 6.928e-3
-1.352, 6.912e-3
-1.353, 6.903e-3
-1.354, 6.897e-3
-1.355, 6.885e-3
-1.356, 6.863e-3
-1.357, 6.848e-3
-1.358, 6.845e-3
-1.359, 6.851e-3
-1.360, 6.866e-3
-1.361, 6.879e-3
-1.362, 6.885e-3
-1.363, 6.891e-3
-1.364, 6.900e-3
-1.365, 6.903e-3
-1.366, 6.897e-3
-1.367, 6.900e-3
-1.368, 6.912e-3
-1.369, 6.946e-3
-1.370, 6.990e-3
-1.371, 7.033e-3
-1.372, 7.051e-3
-1.373, 7.051e-3
-1.374, 7.045e-3
-1.375, 7.042e-3
-1.376, 7.051e-3
-1.377, 7.070e-3
-1.378, 7.104e-3
-1.379, 7.147e-3
-1.380, 7.199e-3
-1.381, 7.245e-3
-1.382, 7.282e-3
-1.383, 7.313e-3
-1.384, 7.332e-3
-1.385, 7.341e-3
-1.386, 7.347e-3
-1.387, 7.350e-3
-1.388, 7.360e-3
-1.389, 7.372e-3
-1.390, 7.393e-3
-1.391, 7.434e-3
-1.392, 7.492e-3
-1.393, 7.566e-3
-1.394, 7.631e-3
-1.395, 7.677e-3
-1.396, 7.699e-3
-1.397, 7.708e-3
-1.398, 7.723e-3
-1.399, 7.748e-3
-1.400, 7.705e-3
-1.399, 7.541e-3
-1.398, 7.400e-3
-1.397, 7.267e-3
-1.396, 7.141e-3
-1.395, 7.008e-3
-1.394, 6.875e-3
-1.393, 6.737e-3
-1.392, 6.604e-3
-1.391, 6.478e-3
-1.390, 6.361e-3
-1.389, 6.256e-3
-1.388, 6.157e-3
-1.387, 6.058e-3
-1.386, 5.963e-3
-1.385, 5.870e-3
-1.384, 5.784e-3
-1.383, 5.701e-3
-1.382, 5.621e-3
-1.381, 5.537e-3
-1.380, 5.442e-3
-1.379, 5.343e-3
-1.378, 5.241e-3
-1.377, 5.143e-3
-1.376, 5.056e-3
-1.375, 4.979e-3
-1.374, 4.915e-3
-1.373, 4.847e-3
-1.372, 4.776e-3
-1.371, 4.696e-3
-1.370, 4.619e-3
-1.369, 4.535e-3
-1.368, 4.452e-3
-1.367, 4.375e-3
-1.366, 4.304e-3
-1.365, 4.243e-3
-1.364, 4.184e-3
-1.363, 4.116e-3
-1.362, 4.036e-3
-1.361, 3.950e-3
-1.360, 3.869e-3
-1.359, 3.792e-3
-1.358, 3.721e-3
-1.357, 3.666e-3
-1.356, 3.607e-3
-1.355, 3.546e-3
-1.354, 3.481e-3
-1.353, 3.413e-3
-1.352, 3.348e-3
-1.351, 3.281e-3
-1.350, 3.216e-3
-1.349, 3.151e-3
-1.348, 3.086e-3
-1.347, 3.025e-3
-1.346, 2.963e-3
-1.345, 2.911e-3
-1.344, 2.864e-3
-1.343, 2.815e-3
-1.342, 2.760e-3
-1.341, 2.698e-3
-1.340, 2.630e-3
-1.339, 2.559e-3
-1.338, 2.491e-3
-1.337, 2.423e-3
-1.336, 2.365e-3
-1.335, 2.309e-3
-1.334, 2.260e-3
-1.333, 2.211e-3
-1.332, 2.161e-3
-1.331, 2.106e-3
-1.330, 2.047e-3
-1.329, 1.986e-3
-1.328, 1.924e-3
-1.327, 1.869e-3
-1.326, 1.819e-3
-1.325, 1.776e-3
-1.324, 1.727e-3
-1.323, 1.671e-3
-1.322, 1.610e-3
-1.321, 1.548e-3
-1.320, 1.486e-3
-1.319, 1.431e-3
-1.318, 1.381e-3
-1.317, 1.332e-3
-1.316, 1.289e-3
-1.315, 1.249e-3
-1.314, 1.206e-3
-1.313, 1.159e-3
-1.312, 1.113e-3
-1.311, 1.064e-3
-1.310, 1.018e-3
-1.309, 9.744e-4
-1.308, 9.313e-4
-1.307, 8.912e-4
-1.306, 8.511e-4
-1.305, 8.110e-4
-1.304, 7.679e-4
-1.303, 7.216e-4
-1.302, 6.754e-4
-1.301, 6.322e-4
-1.300, 5.890e-4
-1.299, 5.459e-4
-1.298, 5.058e-4
-1.297, 4.657e-4
-1.296, 4.256e-4
-1.295, 3.886e-4
-1.294, 3.455e-4
-1.293, 3.054e-4
-1.292, 2.684e-4
-1.291, 2.314e-4
-1.290, 1.913e-4
-1.289, 1.543e-4
-1.288, 1.173e-4
-1.287, 7.723e-5
-1.286, 3.715e-5
-1.285, 1.559e-7
-1.284, -3.376e-5
-1.283, -6.767e-5
-1.282, -1.016e-4
-1.281, -1.355e-4
-1.280, -1.694e-4
-1.279, -2.064e-4
-1.278, -2.403e-4
-1.277, -2.742e-4
-1.276, -3.082e-4
-1.275, -3.390e-4
-1.274, -3.698e-4
-1.273, -4.037e-4
-1.272, -4.346e-4
-1.271, -4.654e-4
-1.270, -4.993e-4
-1.269, -5.271e-4
-1.268, -5.579e-4
-1.267, -5.887e-4
-1.266, -6.165e-4
-1.265, -6.473e-4
-1.264, -6.750e-4
-1.263, -7.059e-4
-1.262, -7.336e-4
-1.261, -7.645e-4
-1.260, -7.922e-4
-1.259, -8.200e-4
-1.258, -8.446e-4
-1.257, -8.693e-4
-1.256, -8.939e-4
-1.255, -9.186e-4
-1.254, -9.402e-4
-1.253, -9.618e-4
-1.252, -9.803e-4
-1.251, -9.988e-4
-1.250, -1.023e-3
-1.249, -1.048e-3
-1.248, -1.079e-3
-1.247, -1.104e-3
-1.246, -1.131e-3
-1.245, -1.153e-3
-1.244, -1.171e-3
-1.243, -1.190e-3
-1.242, -1.205e-3
-1.241, -1.227e-3
-1.240, -1.245e-3
-1.239, -1.270e-3
-1.238, -1.295e-3
-1.237, -1.316e-3
-1.236, -1.344e-3
-1.235, -1.366e-3
-1.234, -1.390e-3
-1.233, -1.412e-3
-1.232, -1.437e-3
-1.231, -1.455e-3
-1.230, -1.474e-3
-1.229, -1.489e-3
-1.228, -1.504e-3
-1.227, -1.517e-3
-1.226, -1.529e-3
-1.225, -1.544e-3
-1.224, -1.557e-3
-1.223, -1.569e-3
-1.222, -1.578e-3
-1.221, -1.588e-3
-1.220, -1.600e-3
-1.219, -1.609e-3
-1.218, -1.625e-3
-1.217, -1.640e-3
-1.216, -1.655e-3
-1.215, -1.671e-3
-1.214, -1.686e-3
-1.213, -1.696e-3
-1.212, -1.702e-3
-1.211, -1.711e-3
-1.210, -1.720e-3
-1.209, -1.729e-3
-1.208, -1.742e-3
-1.207, -1.757e-3
-1.206, -1.770e-3
-1.205, -1.785e-3
-1.204, -1.800e-3
-1.203, -1.816e-3
-1.202, -1.828e-3
-1.201, -1.840e-3
-1.200, -1.850e-3
-1.199, -1.859e-3
-1.198, -1.871e-3
-1.197, -1.884e-3
-1.196, -1.899e-3
-1.195, -1.914e-3
-1.194, -1.933e-3
-1.193, -1.948e-3
-1.192, -1.961e-3
-1.191, -1.973e-3
-1.190, -1.985e-3
-1.189, -1.995e-3
-1.188, -2.004e-3
-1.187, -2.016e-3
-1.186, -2.032e-3
-1.185, -2.044e-3
-1.184, -2.053e-3
-1.183, -2.056e-3
-1.182, -2.056e-3
-1.181, -2.056e-3
-1.180, -2.062e-3
-1.179, -2.066e-3
-1.178, -2.072e-3
-1.177, -2.081e-3
-1.176, -2.093e-3
-1.175, -2.103e-3
-1.174, -2.109e-3
-1.173, -2.112e-3
-1.172, -2.118e-3
-1.171, -2.118e-3
-1.170, -2.121e-3
-1.169, -2.121e-3
-1.168, -2.121e-3
-1.167, -2.124e-3
-1.166, -2.130e-3
-1.165, -2.133e-3
-1.164, -2.133e-3
-1.163, -2.133e-3
-1.162, -2.140e-3
-1.161, -2.155e-3
-1.160, -2.180e-3
-1.159, -2.204e-3
-1.158, -2.223e-3
-1.157, -2.229e-3
-1.156, -2.232e-3
-1.155, -2.232e-3
-1.154, -2.229e-3
-1.153, -2.226e-3
-1.152, -2.223e-3
-1.151, -2.220e-3
-1.150, -2.226e-3
-1.149, -2.235e-3
-1.148, -2.247e-3
-1.147, -2.254e-3
-1.146, -2.260e-3
-1.145, -2.260e-3
-1.144, -2.263e-3
-1.143, -2.269e-3
-1.142, -2.278e-3
-1.141, -2.288e-3
-1.140, -2.291e-3
-1.139, -2.291e-3
-1.138, -2.294e-3
-1.137, -2.297e-3
-1.136, -2.300e-3
-1.135, -2.309e-3
-1.134, -2.312e-3
-1.133, -2.312e-3
-1.132, -2.312e-3
-1.131, -2.309e-3
-1.130, -2.315e-3
-1.129, -2.318e-3
-1.128, -2.325e-3
-1.127, -2.328e-3
-1.126, -2.337e-3
-1.125, -2.343e-3
-1.124, -2.346e-3
-1.123, -2.352e-3
-1.122, -2.355e-3
-1.121, -2.358e-3
-1.120, -2.365e-3
-1.119, -2.374e-3
-1.118, -2.374e-3
-1.117, -2.371e-3
-1.116, -2.368e-3
-1.115, -2.368e-3
-1.114, -2.374e-3
-1.113, -2.386e-3
-1.112, -2.405e-3
-1.111, -2.420e-3
-1.110, -2.436e-3
-1.109, -2.445e-3
-1.108, -2.448e-3
-1.107, -2.454e-3
-1.106, -2.460e-3
-1.105, -2.463e-3
-1.104, -2.466e-3
-1.103, -2.472e-3
-1.102, -2.476e-3
-1.101, -2.479e-3
-1.100, -2.488e-3
-1.099, -2.494e-3
-1.098, -2.506e-3
-1.097, -2.522e-3
-1.096, -2.537e-3
-1.095, -2.556e-3
-1.094, -2.565e-3
-1.093, -2.577e-3
-1.092, -2.580e-3
-1.091, -2.580e-3
-1.090, -2.583e-3
-1.089, -2.590e-3
-1.088, -2.599e-3
-1.087, -2.608e-3
-1.086, -2.620e-3
-1.085, -2.627e-3
-1.084, -2.630e-3
-1.083, -2.636e-3
-1.082, -2.642e-3
-1.081, -2.648e-3
-1.080, -2.651e-3
-1.079, -2.651e-3
-1.078, -2.648e-3
-1.077, -2.642e-3
-1.076, -2.642e-3
-1.075, -2.645e-3
-1.074, -2.657e-3
-1.073, -2.670e-3
-1.072, -2.682e-3
-1.071, -2.691e-3
-1.070, -2.701e-3
-1.069, -2.707e-3
-1.068, -2.707e-3
-1.067, -2.707e-3
-1.066, -2.707e-3
-1.065, -2.713e-3
-1.064, -2.722e-3
-1.063, -2.738e-3
-1.062, -2.747e-3
-1.061, -2.753e-3
-1.060, -2.756e-3
-1.059, -2.756e-3
-1.058, -2.756e-3
-1.057, -2.762e-3
-1.056, -2.772e-3
-1.055, -2.784e-3
-1.054, -2.796e-3
-1.053, -2.812e-3
-1.052, -2.827e-3
-1.051, -2.836e-3
-1.050, -2.842e-3
-1.049, -2.846e-3
-1.048, -2.852e-3
-1.047, -2.861e-3
-1.046, -2.876e-3
-1.045, -2.892e-3
-1.044, -2.904e-3
-1.043, -2.916e-3
-1.042, -2.926e-3
-1.041, -2.938e-3
-1.040, -2.960e-3
-1.039, -2.978e-3
-1.038, -2.990e-3
-1.037, -2.994e-3
-1.036, -2.994e-3
-1.035, -3.003e-3
-1.034, -3.021e-3
-1.033, -3.049e-3
-1.032, -3.086e-3
-1.031, -3.123e-3
-1.030, -3.160e-3
-1.029, -3.182e-3
-1.028, -3.200e-3
-1.027, -3.212e-3
-1.026, -3.228e-3
-1.025, -3.246e-3
-1.024, -3.271e-3
-1.023, -3.302e-3
-1.022, -3.336e-3
-1.021, -3.370e-3
-1.020, -3.397e-3
-1.019, -3.431e-3
-1.018, -3.462e-3
-1.017, -3.493e-3
-1.016, -3.521e-3
-1.015, -3.555e-3
-1.014, -3.589e-3
-1.013, -3.626e-3
-1.012, -3.666e-3
-1.011, -3.706e-3
-1.010, -3.743e-3
-1.009, -3.780e-3
-1.008, -3.820e-3
-1.007, -3.863e-3
-1.006, -3.906e-3
-1.005, -3.952e-3
-1.004, -3.999e-3
-1.003, -4.048e-3
-1.002, -4.100e-3
-1.001, -4.159e-3
