Potential V vs RHE, Current mA cm-2
0.013299999999999867,3.8791383842299307
0.012299999999999978,1.219056727093702
0.011299999999999866,-1.3543031273607997
0.010299999999999976,-3.7970851288377587
0.009299999999999864,-6.238876832404812
0.008299999999999974,-8.55051509638428
0.007299999999999862,-10.819712021367803
0.006299999999999972,-13.043638184755638
0.00529999999999986,-15.179852247551842
0.0042999999999999705,-17.2736249713521
0.0032999999999998586,-19.28251501716045
0.0022999999999999687,-21.291405062968803
0.0012999999999998568,-23.300295108777156
0.00029999999999996696,-25.295038041586857
-0.000700000000000145,-27.303928087395207
-0.0017000000000000348,-29.22793545521166
-0.0027000000000001467,-31.19438416202406
-0.0037000000000000366,-33.14668575583781
-0.0047000000000001485,-35.07069312365426
-0.005700000000000038,-36.89567070048016
-0.00670000000000015,-38.777236729300654
-0.00770000000000004,-40.51733162813464
-0.008700000000000152,-42.229132300971344
-0.009700000000000042,-43.96922719980534
-0.010700000000000154,-45.666880759643384
-0.011700000000000044,-47.27965164148953
-0.012700000000000156,-48.84998118433972
-0.013700000000000045,-50.42031072718991
-0.014700000000000157,-52.033081609036046
-0.015700000000000047,-53.603411151886235
-0.01670000000000016,-55.21618203373238
-0.01770000000000005,-56.786511576582576
-0.01870000000000016,-58.35684111943277
-0.01970000000000005,-59.884729323287
-0.020700000000000163,-61.37017618814529
-0.021700000000000053,-62.855623053003576
-0.022700000000000164,-64.29862857886593
-0.023700000000000054,-65.68504565273366
-0.024700000000000166,-67.08560983960004
-0.025700000000000056,-68.38714423547587
-0.026700000000000168,-69.70282574435035
-0.027700000000000058,-71.06094859222078
-0.02870000000000017,-72.32004164910067
-0.02970000000000006,-73.62157604497652
-0.03070000000000017,-74.97969889284694
-0.03170000000000006,-76.33782174071737
-0.03270000000000017,-77.63935613659322
-0.03370000000000006,-78.9550376454677
-0.034700000000000175,-80.25657204134353
-0.035700000000000065,-81.51566509822342
-0.03670000000000018,-82.746463929106
-0.03770000000000007,-83.96311564698992
-0.03870000000000018,-85.09488468688197
-0.03970000000000007,-86.22665372677399
-0.04070000000000018,-87.33012854066871
-0.04170000000000007,-88.37701490256885
-0.04270000000000018,-89.46634260346492
-0.04370000000000007,-90.51322896536506
-0.044700000000000184,-91.60255666626112
-0.045700000000000074,-92.73432570615316
-0.046700000000000186,-93.86609474604518
-0.047700000000000076,-94.99786378593721
-0.04870000000000019,-96.17207416482519
-0.04970000000000008,-97.26140186572127
-0.05070000000000019,-98.364876679616
-0.05170000000000008,-99.49664571950804
-0.05270000000000019,-100.58597342040412
-0.05370000000000008,-101.59041844330828
-0.05470000000000019,-102.5524221272165
-0.05570000000000008,-103.50027869812607
-0.056700000000000195,-104.46228238203432
-0.057700000000000085,-105.38184472694657
-0.058700000000000196,-106.30140707185885
-0.059700000000000086,-107.26341075576708
-0.0607000000000002,-108.2537086656726
-0.06170000000000009,-109.25815368857677
-0.0627000000000002,-110.26259871148096
-0.06370000000000009,-111.22460239538917
-0.0647000000000002,-112.22904741829338
-0.06570000000000009,-113.19105110220158
-0.0667000000000002,-114.1530547861098
-0.0677000000000001,-115.05847001802343
-0.0687000000000002,-115.8931496849438
-0.0697000000000001,-116.77027069086012
-0.07070000000000021,-117.54836190578591
-0.0717000000000001,-118.38304157270628
-0.07270000000000021,-119.24601546562396
-0.0737000000000001,-120.12313647154028
-0.07470000000000021,-121.00025747745659
-0.0757000000000001,-121.96226116136481
-0.07670000000000021,-122.86767639327843
-0.0777000000000001,-123.82968007718667
-0.07870000000000021,-124.7916837610949
-0.0797000000000001,-125.7536874450031
-0.08070000000000022,-126.71569112891132
-0.0817000000000001,-127.66354769982091
-0.08270000000000022,-128.5831100447332
-0.08370000000000011,-129.4602310506495
-0.08470000000000022,-130.32320494356716
-0.08570000000000011,-131.2003259494835
-0.08670000000000022,-131.99256427740792
-0.08770000000000011,-132.81309683132966
-0.08870000000000022,-133.64777649825
-0.08970000000000011,-134.5107503911677
-0.09070000000000022,-135.43031273607997
-0.09170000000000011,-136.30743374199628
-0.09270000000000023,-137.22699608690854
-0.09370000000000012,-138.13241131882216
-0.09470000000000023,-139.05197366373446
-0.09570000000000012,-139.8866533306548
-0.09670000000000023,-140.74962722357247
-0.09770000000000012,-141.47112998650366
-0.09870000000000023,-142.31995676642268
-0.09970000000000012,-143.16878354634173
-0.10070000000000023,-143.87613919627424
-0.10170000000000012,-144.58349484620675
-0.10270000000000024,-145.43232162612577
-0.10370000000000013,-146.1396772760583
-0.10470000000000024,-146.9885040559773
-0.10570000000000013,-147.6958597059098
-0.10670000000000024,-148.54468648582886
-0.10770000000000013,-149.39351326574788
-0.10870000000000024,-150.24234004566688
-0.10970000000000013,-150.94969569559944
-0.11070000000000024,-151.7985224755184
-0.11170000000000013,-152.64734925543743
-0.11270000000000002,-153.35470490536997
-0.11370000000000013,-154.0620605553025
-0.11470000000000002,-154.76941620523502
-0.11570000000000014,-155.47677185516753
-0.11670000000000003,-156.04265637511355
-0.11770000000000014,-156.75001202504606
-0.11870000000000003,-157.59883880496508
-0.11970000000000014,-158.3061944548976
-0.12070000000000003,-159.15502123481662
-0.12170000000000014,-159.86237688474912
-0.12270000000000003,-160.71120366466818
-0.12370000000000014,-161.5600304445872
-0.12470000000000003,-162.40885722450622
-0.12570000000000014,-163.11621287443873
-0.12670000000000003,-163.82356852437124
-0.12770000000000015,-164.53092417430375
-0.12870000000000004,-165.2382798242363
-0.12970000000000015,-165.94563547416882
-0.13070000000000004,-166.51151999411482
-0.13170000000000015,-167.21887564404733
-0.13270000000000004,-167.92623129397984
-0.13370000000000015,-168.49211581392586
-0.13470000000000004,-169.19947146385837
-0.13570000000000015,-169.9068271137909
-0.13670000000000004,-170.61418276372342
-0.13770000000000016,-171.32153841365593
-0.13870000000000005,-172.0288940635885
-0.13970000000000016,-172.87772084350746
-0.14070000000000005,-173.58507649344
-0.14170000000000016,-174.2924321433725
-0.14270000000000005,-174.99978779330505
-0.14370000000000016,-175.70714344323756
-0.14470000000000005,-176.27302796318358
-0.14570000000000016,-176.8389124831296
-0.14670000000000005,-177.4047970030756
-0.14770000000000016,-177.9706815230216
-0.14870000000000005,-178.53656604296762
-0.14970000000000017,-179.24392169290016
-0.15070000000000006,-179.80980621284618
-0.15170000000000017,-180.37569073279218
-0.15270000000000006,-181.08304638272472
-0.15370000000000017,-181.64893090267074
-0.15470000000000006,-182.21481542261674
-0.15570000000000017,-182.92217107254925
-0.15670000000000006,-183.48805559249527
-0.15770000000000017,-183.91246898245475
-0.15870000000000006,-184.47835350240078
-0.15970000000000018,-184.9027668923603
-0.16070000000000007,-185.3271802823198
-0.16170000000000018,-185.7515936722793
-0.16270000000000007,-186.31747819222534
-0.16370000000000018,-186.74189158218485
-0.16470000000000007,-187.30777610213087
-0.16570000000000018,-187.73218949209036
-0.16670000000000007,-188.29807401203638
-0.16770000000000018,-188.8639585319824
-0.16870000000000007,-189.42984305192843
-0.16970000000000018,-189.99572757187443
-0.17070000000000007,-190.42014096183394
-0.17170000000000019,-190.98602548177996
-0.17270000000000008,-191.41043887173947
-0.1737000000000002,-191.83485226169896
-0.17470000000000008,-192.2592656516585
-0.1757000000000002,-192.54220791163152
-0.17670000000000008,-192.966621301591
-0.1777000000000002,-193.249563561564
-0.17870000000000008,-193.6739769515235
-0.1797000000000002,-194.09839034148303
-0.18070000000000008,-194.66427486142905
-0.1817000000000002,-195.08868825138856
-0.18270000000000008,-195.51310164134807
-0.1837000000000002,-196.0789861612941
-0.1847000000000001,-196.50339955125358
-0.1857000000000002,-197.0692840711996
-0.1867000000000001,-197.49369746115914
-0.1877000000000002,-197.91811085111863
-0.1887000000000001,-198.3425242410781
-0.1897000000000002,-198.62546650105114
-0.1907000000000001,-199.04987989101065
-0.1917000000000001,-199.47429328097016
-0.19269999999999998,-199.89870667092967
-0.1937000000000001,-200.3231200608892
-0.19469999999999998,-200.7475334508487
-0.1957000000000001,-201.31341797079472
-0.19669999999999999,-201.73783136075423
-0.1977000000000001,-202.16224475071377
-0.1987,-202.58665814067325
-0.1997000000000001,-203.15254266061928
-0.2007,-203.57695605057876
-0.2017000000000001,-204.0013694405383
-0.2027,-204.42578283049778
-0.2037000000000001,-204.8501962204573
-0.2047,-205.13313848043032
-0.2057000000000001,-205.41608074040332
-0.2067,-205.69902300037634
-0.2077000000000001,-205.98196526034934
-0.2087,-206.26490752032234
-0.2097000000000001,-206.54784978029537
-0.2107,-206.97226317025488
-0.2117000000000001,-207.3966765602144
-0.2127,-207.67961882018741
-0.2137000000000001,-208.1040322101469
-0.2147,-208.3869744701199
-0.2157000000000001,-208.8113878600794
-0.2167,-209.0943301200524
-0.21770000000000012,-209.37727238002543
-0.2187,-209.51874351001192
-0.21970000000000012,-209.66021463999843
-0.2207,-209.8016857699849
-0.22170000000000012,-209.94315689997146
-0.2227,-210.08462802995794
-0.22370000000000012,-210.08462802995794
-0.2247,-210.36757028993094
-0.22570000000000012,-210.50904141991748
-0.2267,-210.65051254990397
-0.22770000000000012,-210.79198367989048
-0.22870000000000001,-211.07492593986345
-0.22970000000000013,-211.21639706985
-0.23070000000000002,-211.35786819983647
-0.23170000000000013,-211.64081045980947
-0.23270000000000002,-211.782281589796
-0.23370000000000013,-212.065223849769
-0.23470000000000002,-212.2066949797555
-0.23570000000000013,-212.34816610974204
-0.23670000000000002,-212.34816610974204
-0.2376999999999999,-212.48963723972852
-0.23870000000000002,-212.77257949970152
-0.2396999999999999,-212.914050629688
-0.24070000000000003,-213.19699288966103
-0.24169999999999991,-213.33846401964755
-0.24270000000000003,-213.47993514963403
-0.24369999999999992,-213.62140627962054
-0.24470000000000003,-213.90434853959354
-0.24569999999999992,-214.04581966958003
-0.24670000000000003,-214.18729079956654
-0.24769999999999992,-214.32876192955305
-0.24870000000000003,-214.32876192955305
-0.24969999999999992,-214.47023305953954
-0.25070000000000003,-214.47023305953954
-0.2516999999999999,-214.47023305953954
-0.25270000000000004,-214.47023305953954
-0.2536999999999999,-214.61170418952605
-0.25470000000000004,-214.75317531951256
-0.2556999999999999,-214.89464644949908
-0.25670000000000004,-215.17758870947208
-0.25769999999999993,-215.31905983945856
-0.25870000000000004,-215.6020020994316
-0.25969999999999993,-215.7434732294181
-0.26070000000000004,-215.88494435940459
-0.26169999999999993,-216.0264154893911
-0.26270000000000004,-216.1678866193776
-0.26369999999999993,-216.3093577493641
-0.26470000000000005,-216.4508288793506
-0.26569999999999994,-216.59230000933712
-0.26670000000000005,-216.59230000933712
-0.26769999999999994,-216.73377113932364
-0.26870000000000005,-216.73377113932364
-0.26969999999999994,-216.87524226931012
-0.27070000000000005,-217.01671339929663
-0.27169999999999994,-217.01671339929663
-0.27270000000000005,-217.15818452928315
-0.27369999999999994,-217.44112678925615
-0.27470000000000006,-217.58259791924263
-0.27569999999999995,-217.58259791924263
-0.27670000000000006,-217.72406904922914
-0.27769999999999995,-217.72406904922914
-0.27870000000000006,-217.58259791924263
-0.27969999999999995,-217.44112678925615
-0.28070000000000006,-217.44112678925615
-0.28169999999999995,-217.15818452928315
-0.28270000000000006,-217.15818452928315
-0.28369999999999995,-217.01671339929663
-0.28470000000000006,-217.01671339929663
-0.28569999999999995,-217.01671339929663
-0.28670000000000007,-217.15818452928315
-0.28769999999999996,-217.29965565926966
-0.28870000000000007,-217.44112678925615
-0.28969999999999996,-217.58259791924263
-0.29070000000000007,-217.58259791924263
-0.29169999999999996,-217.72406904922914
-0.29270000000000007,-217.86554017921566
-0.29369999999999996,-217.86554017921566
-0.2947000000000001,-217.86554017921566
-0.29569999999999996,-217.86554017921566
-0.2967000000000001,-217.86554017921566
-0.29769999999999996,-217.72406904922914
-0.2987000000000001,-217.58259791924263
-0.29969999999999997,-217.44112678925615
-0.3007000000000001,-217.29965565926966
-0.30169999999999997,-217.29965565926966
-0.3027000000000001,-217.15818452928315
-0.30369999999999997,-217.01671339929663
-0.3047000000000001,-217.01671339929663
-0.30569999999999997,-216.87524226931012
-0.3067000000000001,-216.73377113932364
-0.3077,-216.59230000933712
-0.3087000000000001,-216.4508288793506
-0.3097,-216.1678866193776
-0.3107000000000001,-215.88494435940459
-0.3117,-215.7434732294181
-0.3127000000000001,-215.4605309694451
-0.3137,-215.31905983945856
-0.3147000000000001,-215.17758870947208
-0.3157,-215.03611757948556
-0.3167000000000001,-215.03611757948556
-0.3177,-214.89464644949908
-0.3187000000000001,-214.89464644949908
-0.3197,-214.89464644949908
-0.3207000000000001,-214.75317531951256
-0.3217,-214.75317531951256
-0.3227000000000001,-214.61170418952605
-0.3237,-214.47023305953954
-0.3247000000000001,-214.18729079956654
-0.3257,-214.18729079956654
-0.3267000000000001,-213.90434853959354
-0.3277,-213.62140627962054
-0.3287000000000001,-213.47993514963403
-0.3297,-213.47993514963403
-0.3307000000000001,-213.33846401964755
-0.3317,-213.19699288966103
-0.3327000000000001,-213.19699288966103
-0.3337,-213.05552175967455
-0.3347000000000001,-212.914050629688
-0.3357,-212.77257949970152
-0.3367000000000001,-212.631108369715
-0.3377,-212.48963723972852
-0.3387000000000001,-212.34816610974204
-0.3397,-212.065223849769
-0.3407000000000001,-211.782281589796
-0.3417,-211.64081045980947
-0.3427000000000001,-211.35786819983647
-0.3437,-211.07492593986345
-0.3447000000000001,-210.93345480987696
-0.3457,-210.79198367989048
-0.3467000000000001,-210.65051254990397
-0.3477,-210.50904141991748
-0.3487000000000001,-210.36757028993094
-0.3497,-210.22609915994445
-0.3507000000000001,-210.08462802995794
-0.3517,-209.94315689997146
-0.3527000000000001,-209.8016857699849
-0.3537,-209.66021463999843
-0.3547000000000001,-209.51874351001192
-0.3557,-209.37727238002543
-0.35670000000000013,-209.0943301200524
-0.3577,-208.95285899006592
-0.35870000000000013,-208.8113878600794
-0.3597,-208.6699167300929
-0.36070000000000013,-208.52844560010638
-0.3617,-208.3869744701199
-0.3626999999999999,-208.3869744701199
-0.3637,-208.24550334013338
-0.3646999999999999,-208.24550334013338
-0.3657,-208.1040322101469
-0.3666999999999999,-207.96256108016038
-0.3677,-207.8210899501739
-0.3686999999999999,-207.8210899501739
-0.36970000000000003,-207.67961882018741
-0.3706999999999999,-207.5381476902009
-0.37170000000000003,-207.3966765602144
-0.3726999999999999,-207.25520543022787
-0.37370000000000003,-207.1137343002414
-0.3746999999999999,-207.1137343002414
-0.37570000000000003,-206.97226317025488
-0.3766999999999999,-206.97226317025488
-0.37770000000000004,-206.97226317025488
-0.3786999999999999,-206.83079204026836
-0.37970000000000004,-206.83079204026836
-0.3806999999999999,-206.68932091028185
-0.38170000000000004,-206.54784978029537
-0.38269999999999993,-206.54784978029537
-0.38370000000000004,-206.40637865030885
-0.38469999999999993,-206.26490752032234
-0.38570000000000004,-206.12343639033585
-0.38669999999999993,-204.14284057052478
-0.38570000000000004,-198.90840876102413
-0.38469999999999993,-193.81544808151003
-0.38370000000000004,-188.8639585319824
-0.38269999999999993,-184.05394011244127
-0.38170000000000004,-179.52686395287316
-0.3806999999999999,-175.14125892329156
-0.37970000000000004,-170.75565389370993
-0.3786999999999999,-166.51151999411482
-0.37770000000000004,-162.2673860945197
-0.3766999999999999,-158.3061944548976
-0.37570000000000003,-154.203531685289
-0.3746999999999999,-150.1008689156804
-0.37370000000000003,-146.1396772760583
-0.3726999999999999,-142.31995676642268
-0.37170000000000003,-138.40120646579655
-0.3706999999999999,-134.73710419914607
-0.36970000000000003,-131.07300193249566
-0.3686999999999999,-127.4937823438371
-0.3677,-124.14091656315696
-0.3666999999999999,-120.77390366947817
-0.3657,-117.54836190578591
-0.3646999999999999,-114.40770282008553
-0.3637,-111.3094850733811
-0.3626999999999999,-108.35273845666316
-0.3617,-105.33940338795064
-0.36070000000000013,-102.36850965823406
-0.3597,-99.41176304151614
-0.35870000000000013,-96.4833106507955
-0.3577,-93.61144671206948
-0.35670000000000013,-90.7254356603448
-0.3557,-87.93845439961068
-0.3547000000000001,-85.17976736487385
-0.3537,-82.52011012112759
-0.3527000000000001,-79.90289421637728
-0.3517,-77.34226676362155
-0.3507000000000001,-74.8523748758591
-0.3497,-72.40492432709259
-0.3487000000000001,-69.95747377832606
-0.3477,-67.56661168155415
-0.3467000000000001,-65.20404381077954
-0.3457,-62.81318171400764
-0.3447000000000001,-60.45061384323302
-0.3437,-58.14463442445301
-0.3427000000000001,-55.7820665536784
-0.3417,-53.518528473894335
-0.3407000000000001,-51.29743173310623
-0.3397,-49.118776331314066
-0.3387000000000001,-47.02500360751382
-0.3377,-44.88878954471762
-0.3367000000000001,-42.87989949890926
-0.3357,-40.91345079209687
-0.3347000000000001,-38.98944342428042
-0.3337,-37.07958316946261
-0.3327000000000001,-35.198017140642115
-0.3317,-33.288156885824314
-0.3307000000000001,-31.40659085700382
-0.3297,-29.525024828183312
-0.3287000000000001,-27.65760591236147
-0.3277,-25.77603988354097
-0.3267000000000001,-23.908620967719123
-0.3257,-22.069496277894572
-0.3247000000000001,-20.329401379060574
-0.3237,-18.589306480226583
-0.3227000000000001,-16.962388485381787
-0.3217,-15.349617603535648
-0.3207000000000001,-13.741090855589102
-0.3197,-12.214617363034726
-0.3187000000000001,-10.644287820184536
-0.3177,-9.11781432763016
-0.3167000000000001,-7.591340835075788
-0.3157,-6.021011292225596
-0.3147000000000001,-4.450681749375406
-0.3137,-2.924208256821031
-0.3127000000000001,-1.3980177065266295
-0.3117,0.17231183632356148
-0.3107000000000001,1.6990682711379093
-0.3097,3.1378296631006513
-0.3087000000000001,4.534149716067443
-0.3077,5.886613718738418
-0.3067000000000001,7.281519060405343
-0.30569999999999997,8.590127012780503
-0.3047000000000001,9.854878914859846
-0.30369999999999997,11.119630816939189
-0.3027000000000001,12.428238769314348
-0.30169999999999997,13.65054933239774
-0.3007000000000001,14.911057100577487
-0.29969999999999997,16.184297270456018
-0.2987000000000001,17.48583166633185
-0.29769999999999996,18.80151317520634
-0.2967000000000001,20.06060623208622
-0.29569999999999996,21.277257949970153
-0.2947000000000001,22.508056780852733
-0.29369999999999996,23.682267159740714
-0.29270000000000007,24.814036199632742
-0.29169999999999996,25.94580523952477
-0.29070000000000007,26.992691601424898
-0.28969999999999996,27.997136624329073
-0.28870000000000007,29.044022986229205
-0.28769999999999996,30.04846800913338
-0.28670000000000007,31.095354371033505
-0.28569999999999995,32.14224073293363
-0.28470000000000006,33.231568433829715
-0.28369999999999995,34.278454795729836
-0.28270000000000006,35.367782496625914
-0.28169999999999995,36.45711019752199
-0.28070000000000006,37.46155522042617
-0.27969999999999995,38.5084415823263
-0.27870000000000006,39.51288660523048
-0.27769999999999995,40.4748902891387
-0.27670000000000006,41.39445263405098
-0.27569999999999995,42.29986786596459
-0.27470000000000006,43.17698887188092
-0.27369999999999994,44.096551216793195
-0.27270000000000005,45.01611356170547
-0.27169999999999994,45.83664611562718
-0.27070000000000005,46.79864979953541
-0.26969999999999994,47.71821214444768
-0.26870000000000005,48.63777448935996
-0.26769999999999994,49.543189721273585
