Potential V vs RHE, Current mA cm-2
0.013299999999999867,4.054562585413195
0.012299999999999978,1.4812027309586933
0.011299999999999866,-0.9181476336124089
0.010299999999999976,-3.273641947887695
0.009299999999999864,-5.629136262162981
0.008299999999999974,-7.896918475846635
0.007299999999999862,-10.164700689530287
0.006299999999999972,-12.432482903213943
0.00529999999999986,-14.61396772760583
0.0042999999999999705,-16.750181790402035
0.0032999999999998586,-18.759071836210385
0.0022999999999999687,-20.72552054302279
0.0012999999999998568,-22.63538079784059
0.00029999999999996696,-24.474505487665134
-0.000700000000000145,-26.21460038649913
-0.0017000000000000348,-28.011283737327723
-0.0027000000000001467,-29.751378636161718
-0.0037000000000000366,-31.533914873991666
-0.0047000000000001485,-33.330598224820264
-0.005700000000000038,-35.11313446265021
-0.00670000000000015,-36.8532293614842
-0.00770000000000004,-38.5650300343209
-0.008700000000000152,-40.177800916167044
-0.009700000000000042,-41.70568912002128
-0.010700000000000154,-43.23357732387552
-0.011700000000000044,-44.619994397743255
-0.012700000000000156,-46.02055858460964
-0.013700000000000045,-47.40697565847737
-0.014700000000000157,-48.80753984534376
-0.015700000000000047,-50.20810403221015
-0.01670000000000016,-51.65110955807249
-0.01770000000000005,-53.079967970936174
-0.01870000000000016,-54.480532157802564
-0.01970000000000005,-55.881096344668954
-0.020700000000000163,-57.182630740544774
-0.021700000000000053,-58.498312249419264
-0.022700000000000164,-59.7149639673032
-0.023700000000000054,-60.889174346191176
-0.024700000000000166,-62.11997317707376
-0.025700000000000056,-63.29418355596174
-0.026700000000000168,-64.55327661284163
-0.027700000000000058,-65.86895812171612
-0.02870000000000017,-67.128051178596
-0.02970000000000006,-68.44373268747047
-0.03070000000000017,-69.61794306635846
-0.03170000000000006,-70.79215344524643
-0.03270000000000017,-71.8814811461425
-0.03370000000000006,-72.92836750804264
-0.034700000000000175,-73.89037119195086
-0.035700000000000065,-74.89481621485504
-0.03670000000000018,-75.85681989876326
-0.03770000000000007,-76.86126492166746
-0.03870000000000018,-77.86570994457162
-0.03970000000000007,-78.91259630647174
-0.04070000000000018,-79.94533555537322
-0.04170000000000007,-80.99222191727335
-0.04270000000000018,-81.99666694017753
-0.04370000000000007,-82.95867062408576
-0.044700000000000184,-83.87823296899803
-0.045700000000000074,-84.75535397491434
-0.046700000000000186,-85.53344518984011
-0.047700000000000076,-86.36812485676049
-0.04870000000000019,-87.23109874967815
-0.04970000000000008,-88.10821975559449
-0.05070000000000019,-89.07022343950271
-0.05170000000000008,-90.07466846240689
-0.05270000000000019,-91.07911348531105
-0.05370000000000008,-92.04111716921928
-0.05470000000000019,-92.94653240113291
-0.05570000000000008,-93.82365340704924
-0.056700000000000195,-94.6583330739696
-0.057700000000000085,-95.47886562789132
-0.058700000000000196,-96.27110395581576
-0.059700000000000086,-97.09163650973747
-0.0607000000000002,-97.88387483766188
-0.06170000000000009,-98.7892900695755
-0.0627000000000002,-99.70885241448778
-0.06370000000000009,-100.58597342040412
-0.0647000000000002,-101.54797710431234
-0.06570000000000009,-102.41095099723
-0.0667000000000002,-103.28807200314633
-0.0677000000000001,-104.06616321807209
-0.0687000000000002,-104.77351886800463
-0.0697000000000001,-105.50916874393444
-0.07070000000000021,-106.21652439386696
-0.0717000000000001,-106.90973293080083
-0.07270000000000021,-107.64538280673065
-0.0737000000000001,-108.48006247365102
-0.07470000000000021,-109.30059502757274
-0.0757000000000001,-110.1352746944931
-0.07670000000000021,-110.96995436141347
-0.0777000000000001,-111.7904869153352
-0.07870000000000021,-112.58272524325962
-0.0797000000000001,-113.27593378019348
-0.08070000000000022,-113.92670097813141
-0.0817000000000001,-114.53502683707337
-0.08270000000000022,-115.19994114800993
-0.08370000000000011,-115.85070834594785
-0.08470000000000022,-116.54391688288172
-0.08570000000000011,-117.29371387181018
-0.08670000000000022,-118.02936374774
-0.08770000000000011,-118.76501362366983
-0.08870000000000022,-119.51481061259831
-0.08970000000000011,-120.25046048852812
-0.09070000000000022,-120.95781613846064
-0.09170000000000011,-121.60858333639854
-0.09270000000000023,-122.25935053433648
-0.09370000000000012,-122.86767639327843
-0.09470000000000023,-123.57503204321095
-0.09570000000000012,-124.26824058014482
-0.09670000000000023,-125.00389045607463
-0.09770000000000012,-125.79612878399907
-0.09870000000000023,-126.57421999892482
-0.09970000000000012,-127.4088996658452
-0.10070000000000023,-128.144549541775
-0.10170000000000012,-128.85190519170752
-0.10270000000000024,-129.50267238964545
-0.10370000000000013,-130.1534395875834
-0.10470000000000024,-130.76176544652535
-0.10570000000000013,-131.32764996647134
-0.10670000000000024,-131.89353448641737
-0.10770000000000013,-132.55844879735392
-0.10870000000000024,-133.1667746562959
-0.10970000000000013,-133.8599831932298
-0.11070000000000024,-134.56733884316228
-0.11170000000000013,-135.26054738009617
-0.11270000000000002,-135.91131457803408
-0.11370000000000013,-136.562081775972
-0.11470000000000002,-137.12796629591801
-0.11570000000000014,-137.70799792886265
-0.11670000000000003,-138.17485265781812
-0.11770000000000014,-138.6982958387682
-0.11870000000000003,-139.22173901971826
-0.11970000000000014,-139.80177065266292
-0.12070000000000003,-140.41009651160488
-0.12170000000000014,-141.06086370954282
-0.12270000000000003,-141.75407224647665
-0.12370000000000014,-142.31995676642268
-0.12470000000000003,-143.0273124163552
-0.12570000000000014,-143.5931969363012
-0.12670000000000003,-144.15908145624724
-0.12770000000000015,-144.58349484620675
-0.12870000000000004,-145.00790823616626
-0.12970000000000015,-145.57379275611228
-0.13070000000000004,-145.9982061460718
-0.13170000000000015,-146.5640906660178
-0.13270000000000004,-147.1299751859638
-0.13370000000000015,-147.6958597059098
-0.13470000000000004,-148.26174422585584
-0.13570000000000015,-148.82762874580186
-0.13670000000000004,-149.39351326574788
-0.13770000000000016,-149.8179266557074
-0.13870000000000005,-150.24234004566688
-0.13970000000000016,-150.66675343562642
-0.14070000000000005,-151.09116682558593
-0.14170000000000016,-151.5155802155454
-0.14270000000000005,-151.93999360550492
-0.14370000000000016,-152.50587812545095
-0.14470000000000005,-152.93029151541046
-0.14570000000000016,-153.49617603535648
-0.14670000000000005,-153.920589425316
-0.14770000000000016,-154.486473945262
-0.14870000000000005,-155.05235846520802
-0.14970000000000017,-155.61824298515404
-0.15070000000000006,-156.04265637511355
-0.15170000000000017,-156.46706976507306
-0.15270000000000006,-156.89148315503257
-0.15370000000000017,-157.31589654499206
-0.15470000000000006,-157.7403099349516
-0.15570000000000017,-158.1647233249111
-0.15670000000000006,-158.5891367148706
-0.15770000000000017,-159.01355010483013
-0.15870000000000006,-159.43796349478964
-0.15970000000000018,-159.86237688474912
-0.16070000000000007,-160.28679027470866
-0.16170000000000018,-160.5697325346817
-0.16270000000000007,-160.71120366466818
-0.16370000000000018,-161.1356170546277
-0.16470000000000007,-161.41855931460069
-0.16570000000000018,-161.70150157457368
-0.16670000000000007,-162.12591496453322
-0.16770000000000018,-162.40885722450622
-0.16870000000000007,-162.97474174445222
-0.16970000000000018,-163.39915513441173
-0.17070000000000007,-163.82356852437124
-0.17170000000000019,-164.24798191433075
-0.17270000000000008,-164.53092417430375
-0.1737000000000002,-164.81386643427678
-0.17470000000000008,-165.2382798242363
-0.1757000000000002,-165.3797509542228
-0.17670000000000008,-165.8041643441823
-0.1777000000000002,-166.0871066041553
-0.17870000000000008,-166.51151999411482
-0.1797000000000002,-167.07740451406085
-0.18070000000000008,-167.50181790402033
-0.1817000000000002,-167.92623129397984
-0.18270000000000008,-168.35064468393938
-0.1837000000000002,-168.63358694391238
-0.1847000000000001,-168.91652920388537
-0.1857000000000002,-169.0580003338719
-0.1867000000000001,-169.19947146385837
-0.1877000000000002,-169.3409425938449
-0.1887000000000001,-169.48241372383137
-0.1897000000000002,-169.6238848538179
-0.1907000000000001,-169.7653559838044
-0.1917000000000001,-169.9068271137909
-0.19269999999999998,-170.0482982437774
-0.1937000000000001,-170.33124050375042
-0.19469999999999998,-170.33124050375042
-0.1957000000000001,-170.47271163373694
-0.19669999999999999,-170.47271163373694
-0.1977000000000001,-170.47271163373694
-0.1987,-170.33124050375042
-0.1997000000000001,-170.33124050375042
-0.2007,-170.47271163373694
-0.2017000000000001,-170.47271163373694
-0.2027,-170.61418276372342
-0.2037000000000001,-170.75565389370993
-0.2047,-170.89712502369645
-0.2057000000000001,-170.89712502369645
-0.2067,-171.03859615368293
-0.2077000000000001,-171.18006728366944
-0.2087,-171.32153841365593
-0.2097000000000001,-171.46300954364247
-0.2107,-171.46300954364247
-0.2117000000000001,-171.60448067362896
-0.2127,-171.74595180361547
-0.2137000000000001,-171.88742293360195
-0.2147,-172.17036519357498
-0.2157000000000001,-172.31183632356147
-0.2167,-172.59477858353446
-0.21770000000000012,-172.73624971352098
-0.2187,-172.87772084350746
-0.21970000000000012,-172.87772084350746
-0.2207,-172.87772084350746
-0.22170000000000012,-173.01919197349397
-0.2227,-173.01919197349397
-0.22370000000000012,-173.01919197349397
-0.2247,-173.01919197349397
-0.22570000000000012,-173.16066310348046
-0.2267,-173.302134233467
-0.22770000000000012,-173.44360536345349
-0.22870000000000001,-173.72654762342648
-0.22970000000000013,-173.86801875341303
-0.23070000000000002,-174.0094898833995
-0.23170000000000013,-174.0094898833995
-0.23270000000000002,-174.150961013386
-0.23370000000000013,-174.150961013386
-0.23470000000000002,-174.150961013386
-0.23570000000000013,-174.2924321433725
-0.23670000000000002,-174.2924321433725
-0.2376999999999999,-174.43390327335902
-0.23870000000000002,-174.43390327335902
-0.2396999999999999,-174.57537440334553
-0.24070000000000003,-174.71684553333202
-0.24169999999999991,-174.99978779330505
-0.24270000000000003,-175.42420118326456
-0.24369999999999992,-175.70714344323756
-0.24470000000000003,-175.99008570321055
-0.24569999999999992,-176.13155683319707
-0.24670000000000003,-176.27302796318358
-0.24769999999999992,-176.4144990931701
-0.24870000000000003,-176.55597022315658
-0.24969999999999992,-176.6974413531431
-0.25070000000000003,-176.8389124831296
-0.2516999999999999,-176.8389124831296
-0.25270000000000004,-176.8389124831296
-0.2536999999999999,-176.8389124831296
-0.25470000000000004,-176.6974413531431
-0.2556999999999999,-176.4144990931701
-0.25670000000000004,-176.27302796318358
-0.25769999999999993,-175.99008570321055
-0.25870000000000004,-175.70714344323756
-0.25969999999999993,-175.56567231325104
-0.26070000000000004,-175.56567231325104
-0.26169999999999993,-175.42420118326456
-0.26270000000000004,-175.56567231325104
-0.26369999999999993,-175.42420118326456
-0.26470000000000005,-175.42420118326456
-0.26569999999999994,-175.28273005327804
-0.26670000000000005,-175.28273005327804
-0.26769999999999994,-174.99978779330505
-0.26870000000000005,-174.57537440334553
-0.26969999999999994,-174.150961013386
-0.27070000000000005,-173.72654762342648
-0.27169999999999994,-173.302134233467
-0.27270000000000005,-172.87772084350746
-0.27369999999999994,-172.45330745354798
-0.27470000000000006,-172.31183632356147
-0.27569999999999995,-172.17036519357498
-0.27670000000000006,-172.0288940635885
-0.27769999999999995,-171.88742293360195
-0.27870000000000006,-171.88742293360195
-0.27969999999999995,-171.74595180361547
-0.28070000000000006,-171.60448067362896
-0.28169999999999995,-171.46300954364247
-0.28270000000000006,-171.32153841365593
-0.28369999999999995,-171.32153841365593
-0.28470000000000006,-171.18006728366944
-0.28569999999999995,-171.18006728366944
-0.28670000000000007,-171.18006728366944
-0.28769999999999996,-171.03859615368293
-0.28870000000000007,-170.89712502369645
-0.28969999999999996,-170.75565389370993
-0.29070000000000007,-170.61418276372342
-0.29169999999999996,-170.33124050375042
-0.29270000000000007,-170.18976937376394
-0.29369999999999996,-170.0482982437774
-0.2947000000000001,-169.9068271137909
-0.29569999999999996,-169.7653559838044
-0.2967000000000001,-169.6238848538179
-0.29769999999999996,-169.48241372383137
-0.2987000000000001,-169.3409425938449
-0.29969999999999997,-169.19947146385837
-0.3007000000000001,-168.77505807389886
-0.30169999999999997,-168.49211581392586
-0.3027000000000001,-168.20917355395284
-0.30369999999999997,-167.78476016399335
-0.3047000000000001,-167.50181790402033
-0.30569999999999997,-167.21887564404733
-0.3067000000000001,-166.93593338407433
-0.3077,-166.79446225408785
-0.3087000000000001,-166.79446225408785
-0.3097,-166.65299112410133
-0.3107000000000001,-166.51151999411482
-0.3117,-166.3700488641283
-0.3127000000000001,-166.0871066041553
-0.3137,-165.94563547416882
-0.3147000000000001,-165.6626932141958
-0.3157,-165.3797509542228
-0.3167000000000001,-165.09680869424977
-0.3177,-164.81386643427678
-0.3187000000000001,-164.81386643427678
-0.3197,-164.67239530429026
-0.3207000000000001,-164.53092417430375
-0.3217,-164.53092417430375
-0.3227000000000001,-164.38945304431726
-0.3237,-164.24798191433075
-0.3247000000000001,-164.10651078434424
-0.3257,-163.96503965435775
-0.3267000000000001,-163.82356852437124
-0.3277,-163.54062626439824
-0.3287000000000001,-163.39915513441173
-0.3297,-163.25768400442522
-0.3307000000000001,-163.11621287443873
-0.3317,-162.97474174445222
-0.3327000000000001,-162.8332706144657
-0.3337,-162.6917994844792
-0.3347000000000001,-162.6917994844792
-0.3357,-162.40885722450622
-0.3367000000000001,-162.2673860945197
-0.3377,-161.9844438345467
-0.3387000000000001,-161.70150157457368
-0.3397,-161.41855931460069
-0.3407000000000001,-161.2770881846142
-0.3417,-161.1356170546277
-0.3427000000000001,-161.1356170546277
-0.3437,-160.99414592464117
-0.3447000000000001,-160.99414592464117
-0.3457,-160.8526747946547
-0.3467000000000001,-160.8526747946547
-0.3477,-160.71120366466818
-0.3487000000000001,-160.5697325346817
-0.3497,-160.42826140469515
-0.3507000000000001,-160.28679027470866
-0.3517,-160.14531914472215
-0.3527000000000001,-160.14531914472215
-0.3537,-160.00384801473567
-0.3547000000000001,-160.00384801473567
-0.3557,-160.00384801473567
-0.35670000000000013,-160.00384801473567
-0.3577,-160.14531914472215
-0.35870000000000013,-160.14531914472215
-0.3597,-160.00384801473567
-0.36070000000000013,-160.00384801473567
-0.3617,-159.86237688474912
-0.3626999999999999,-159.72090575476264
-0.3637,-159.72090575476264
-0.3646999999999999,-159.57943462477613
-0.3657,-159.57943462477613
-0.3666999999999999,-159.72090575476264
-0.3677,-159.72090575476264
-0.3686999999999999,-159.72090575476264
-0.36970000000000003,-159.86237688474912
-0.3706999999999999,-159.86237688474912
-0.37170000000000003,-159.86237688474912
-0.3726999999999999,-159.86237688474912
-0.37370000000000003,-159.86237688474912
-0.3746999999999999,-159.86237688474912
-0.37570000000000003,-159.86237688474912
-0.3766999999999999,-160.14531914472215
-0.37770000000000004,-160.28679027470866
-0.3786999999999999,-160.5697325346817
-0.37970000000000004,-160.8526747946547
-0.3806999999999999,-160.99414592464117
-0.38170000000000004,-161.2770881846142
-0.38269999999999993,-161.2770881846142
-0.38370000000000004,-161.41855931460069
-0.38469999999999993,-161.5600304445872
-0.38570000000000004,-161.5600304445872
-0.38669999999999993,-159.86237688474912
-0.38570000000000004,-154.76941620523502
-0.38469999999999993,-150.1008689156804
-0.38370000000000004,-145.7152638860988
-0.38269999999999993,-141.41454153450906
-0.38170000000000004,-137.31187876490046
-0.3806999999999999,-133.29409867328377
-0.37970000000000004,-129.3753483726576
-0.3786999999999999,-125.56977497602065
-0.37770000000000004,-121.77834869238235
-0.3766999999999999,-118.15668776472786
-0.37570000000000003,-114.57746817606933
-0.3746999999999999,-111.13971971739728
-0.37370000000000003,-107.914177953705
-0.3726999999999999,-104.77351886800463
-0.37170000000000003,-101.71774246029614
-0.3706999999999999,-98.74684873057957
-0.36970000000000003,-95.87498479185354
-0.3686999999999999,-92.98897374012887
-0.3677,-90.15955114039879
-0.3666999999999999,-87.33012854066871
-0.3657,-84.57144150593189
-0.3646999999999999,-81.86934292318966
-0.3637,-79.20968567944341
-0.3626999999999999,-76.63491111368903
-0.3617,-74.14501922592657
-0.36070000000000013,-71.7965984681506
-0.3597,-69.4906190493706
-0.35870000000000013,-67.25537519558385
-0.3577,-64.99183711579978
-0.35670000000000013,-62.81318171400764
-0.3557,-60.67696765121143
-0.3547000000000001,-58.498312249419264
-0.3537,-56.30550973462846
-0.3527000000000001,-54.1268543328363
-0.3517,-52.075522948032
-0.3507000000000001,-50.024191563227696
-0.3497,-48.1992139864018
-0.3487000000000001,-46.37423640957591
-0.3477,-44.577553058747306
-0.3467000000000001,-42.837458159913304
-0.3457,-41.083216148080666
-0.3447000000000001,-39.30067991025072
-0.3437,-37.56058501141672
-0.3427000000000001,-35.763901660588125
-0.3417,-33.98136542275818
-0.3407000000000001,-32.24127052392419
-0.3397,-30.529469851087494
-0.3387000000000001,-28.8742576302454
-0.3377,-27.303928087395207
-0.3367000000000001,-25.81848122253692
-0.3357,-24.34718147067728
-0.3347000000000001,-22.861734605818995
-0.3337,-21.461170418952605
-0.3327000000000001,-19.97572355409432
-0.3317,-18.49027668923603
-0.3307000000000001,-17.061418276372343
-0.3297,-15.575971411514052
-0.3287000000000001,-14.090524546655764
-0.3277,-12.694204493688973
-0.3267000000000001,-11.343155202317865
-0.3257,-10.034547249942705
-0.3247000000000001,-8.812236686859313
-0.3237,-7.635196885371603
-0.3227000000000001,-6.37044498329226
-0.3217,-5.191990470504685
-0.3207000000000001,-3.927238568425342
-0.3197,-2.662486666345999
-0.3187000000000001,-1.3980177065266295
-0.3177,-0.08943804837746762
-0.3167000000000001,1.1317690398920295
-0.3157,2.352664891675556
-0.3147000000000001,3.4434073038714996
-0.3137,4.578005766363259
-0.3127000000000001,5.624892128263387
-0.3117,6.627922439867697
-0.3107000000000001,7.674808801767824
-0.3097,8.764136502663902
-0.3087000000000001,9.854878914859846
-0.3077,10.94562132705579
-0.3067000000000001,12.036363739251732
-0.30569999999999997,13.169547490443627
-0.3047000000000001,14.217848563643619
-0.30369999999999997,15.222293586547794
-0.3027000000000001,16.184297270456018
-0.30169999999999997,17.089712502369647
-0.3007000000000001,17.966833508285966
-0.29969999999999997,18.88639585319824
-0.2987000000000001,19.749369746115914
-0.29769999999999996,20.668932091028186
-0.2967000000000001,21.63093577493641
-0.29569999999999996,22.592939458844636
-0.2947000000000001,23.597384481748815
-0.29369999999999996,24.559388165657033
-0.29270000000000007,25.46480339757066
-0.29169999999999996,26.34192440348698
-0.29070000000000007,27.134162731411404
-0.28969999999999996,27.954695285333123
-0.28870000000000007,28.704492274261593
-0.28769999999999996,29.440142150191413
-0.28670000000000007,30.21823336511718
-0.28569999999999995,31.095354371033505
-0.28470000000000006,31.972475376949827
-0.28369999999999995,32.79300793087155
-0.28270000000000006,33.712570275783825
-0.28169999999999995,34.5472499427042
-0.28070000000000006,35.367782496625914
-0.27969999999999995,36.11757948555439
-0.27870000000000006,36.8532293614842
-0.27769999999999995,37.54643789841808
-0.27670000000000006,38.211352209354644
-0.27569999999999995,38.90456074628851
-0.27470000000000006,39.59776928322238
-0.27369999999999994,40.34756627215084
-0.27270000000000005,41.12565748707661
-0.27169999999999994,41.87545447600508
-0.27070000000000005,42.653545690930855
-0.26969999999999994,43.44578401885527
-0.26870000000000005,44.138992555789144
-0.26769999999999994,44.78975975372706
