Potential V vs RHE, Current mA cm-2
0.013299999999999867,-0.3947044526623452
0.012299999999999978,-2.1390434853959355
0.011299999999999866,-3.4915074880669104
0.010299999999999976,-4.538393849967037
0.009299999999999864,-5.411270721983764
0.008299999999999974,-6.064867342521412
0.007299999999999862,-6.6760226240631075
0.006299999999999972,-7.243321855308987
0.00529999999999986,-7.809206375255003
0.0042999999999999705,-8.332649556205066
0.0032999999999998586,-8.68208324727173
0.0022999999999999687,-8.943804837746763
0.0012999999999998568,-9.11781432763016
0.00029999999999996696,-9.205526428221793
-0.000700000000000145,-9.335679867809377
-0.0017000000000000348,-9.511104068992642
-0.0027000000000001467,-9.685113558876042
-0.0037000000000000366,-9.902979099055257
-0.0047000000000001485,-10.078403300238522
-0.005700000000000038,-10.164700689530287
-0.00670000000000015,-10.164700689530287
-0.00770000000000004,-10.120844639234473
-0.008700000000000152,-10.120844639234473
-0.009700000000000042,-10.120844639234473
-0.010700000000000154,-10.25241279012192
-0.011700000000000044,-10.382566229709504
-0.012700000000000156,-10.514134380596953
-0.013700000000000045,-10.557990430892769
-0.014700000000000157,-10.557990430892769
-0.015700000000000047,-10.470278330301136
-0.01670000000000016,-10.382566229709504
-0.01770000000000005,-10.382566229709504
-0.01870000000000016,-10.42642228000532
-0.01970000000000005,-10.557990430892769
-0.020700000000000163,-10.644287820184536
-0.021700000000000053,-10.731999920776168
-0.022700000000000164,-10.688143870480351
-0.023700000000000054,-10.601846481188586
-0.024700000000000166,-10.514134380596953
-0.025700000000000056,-10.470278330301136
-0.026700000000000168,-10.470278330301136
-0.027700000000000058,-10.557990430892769
-0.02870000000000017,-10.688143870480351
-0.02970000000000006,-10.775855971071984
-0.03070000000000017,-10.775855971071984
-0.03170000000000006,-10.731999920776168
-0.03270000000000017,-10.601846481188586
-0.03370000000000006,-10.557990430892769
-0.034700000000000175,-10.514134380596953
-0.035700000000000065,-10.601846481188586
-0.03670000000000018,-10.688143870480351
-0.03770000000000007,-10.819712021367803
-0.03870000000000018,-10.819712021367803
-0.03970000000000007,-10.775855971071984
-0.04070000000000018,-10.688143870480351
-0.04170000000000007,-10.557990430892769
-0.04270000000000018,-10.557990430892769
-0.04370000000000007,-10.601846481188586
-0.044700000000000184,-10.688143870480351
-0.045700000000000074,-10.819712021367803
-0.046700000000000186,-10.863568071663616
-0.047700000000000076,-10.819712021367803
-0.04870000000000019,-10.775855971071984
-0.04970000000000008,-10.644287820184536
-0.05070000000000019,-10.601846481188586
-0.05170000000000008,-10.601846481188586
-0.05270000000000019,-10.688143870480351
-0.05370000000000008,-10.819712021367803
-0.05470000000000019,-10.863568071663616
-0.05570000000000008,-10.863568071663616
-0.056700000000000195,-10.819712021367803
-0.057700000000000085,-10.731999920776168
-0.058700000000000196,-10.644287820184536
-0.059700000000000086,-10.601846481188586
-0.0607000000000002,-10.688143870480351
-0.06170000000000009,-10.819712021367803
-0.0627000000000002,-10.906009410659568
-0.06370000000000009,-10.906009410659568
-0.0647000000000002,-10.863568071663616
-0.06570000000000009,-10.775855971071984
-0.0667000000000002,-10.688143870480351
-0.0677000000000001,-10.644287820184536
-0.0687000000000002,-10.688143870480351
-0.0697000000000001,-10.775855971071984
-0.07070000000000021,-10.906009410659568
-0.0717000000000001,-10.949865460955383
-0.07270000000000021,-10.906009410659568
-0.0737000000000001,-10.819712021367803
-0.07470000000000021,-10.688143870480351
-0.0757000000000001,-10.644287820184536
-0.07670000000000021,-10.688143870480351
-0.0777000000000001,-10.775855971071984
-0.07870000000000021,-10.906009410659568
-0.0797000000000001,-10.949865460955383
-0.08070000000000022,-10.949865460955383
-0.0817000000000001,-10.906009410659568
-0.08270000000000022,-10.775855971071984
-0.08370000000000011,-10.731999920776168
-0.08470000000000022,-10.688143870480351
-0.08570000000000011,-10.775855971071984
-0.08670000000000022,-10.863568071663616
-0.08770000000000011,-10.949865460955383
-0.08870000000000022,-10.993721511251199
-0.08970000000000011,-10.949865460955383
-0.09070000000000022,-10.863568071663616
-0.09170000000000011,-10.775855971071984
-0.09270000000000023,-10.731999920776168
-0.09370000000000012,-10.731999920776168
-0.09470000000000023,-10.863568071663616
-0.09570000000000012,-10.949865460955383
-0.09670000000000023,-11.037577561547016
-0.09770000000000012,-10.993721511251199
-0.09870000000000023,-10.906009410659568
-0.09970000000000012,-10.819712021367803
-0.10070000000000023,-10.775855971071984
-0.10170000000000012,-10.775855971071984
-0.10270000000000024,-10.863568071663616
-0.10370000000000013,-10.993721511251199
-0.10470000000000024,-11.081433611842833
-0.10570000000000013,-11.037577561547016
-0.10670000000000024,-10.993721511251199
-0.10770000000000013,-10.906009410659568
-0.10870000000000024,-10.819712021367803
-0.10970000000000013,-10.819712021367803
-0.11070000000000024,-10.906009410659568
-0.11170000000000013,-11.037577561547016
-0.11270000000000002,-11.123874950838783
-0.11370000000000013,-11.1677310011346
-0.11470000000000002,-11.123874950838783
-0.11570000000000014,-11.037577561547016
-0.11670000000000003,-10.906009410659568
-0.11770000000000014,-10.863568071663616
-0.11870000000000003,-10.906009410659568
-0.11970000000000014,-11.037577561547016
-0.12070000000000003,-11.1677310011346
-0.12170000000000014,-11.211587051430415
-0.12270000000000003,-11.1677310011346
-0.12370000000000014,-11.123874950838783
-0.12470000000000003,-10.993721511251199
-0.12570000000000014,-10.949865460955383
-0.12670000000000003,-10.993721511251199
-0.12770000000000015,-11.081433611842833
-0.12870000000000004,-11.211587051430415
-0.12970000000000015,-11.299299152022046
-0.13070000000000004,-11.299299152022046
-0.13170000000000015,-11.211587051430415
-0.13270000000000004,-11.123874950838783
-0.13370000000000015,-11.037577561547016
-0.13470000000000004,-11.037577561547016
-0.13570000000000015,-11.123874950838783
-0.13670000000000004,-11.255443101726232
-0.13770000000000016,-11.343155202317865
-0.13870000000000005,-11.42945259160963
-0.13970000000000016,-11.385596541313816
-0.14070000000000005,-11.343155202317865
-0.14170000000000016,-11.211587051430415
-0.14270000000000005,-11.211587051430415
-0.14370000000000016,-11.255443101726232
-0.14470000000000005,-11.343155202317865
-0.14570000000000016,-11.473308641905447
-0.14670000000000005,-11.56102074249708
-0.14770000000000016,-11.56102074249708
-0.14870000000000005,-11.473308641905447
-0.14970000000000017,-11.385596541313816
-0.15070000000000006,-11.343155202317865
-0.15170000000000017,-11.385596541313816
-0.15270000000000006,-11.517164692201263
-0.15370000000000017,-11.647318131788847
-0.15470000000000006,-11.73503023238048
-0.15570000000000017,-11.778886282676295
-0.15670000000000006,-11.73503023238048
-0.15770000000000017,-11.647318131788847
-0.15870000000000006,-11.604876792792895
-0.15970000000000018,-11.604876792792895
-0.16070000000000007,-11.691174182084664
-0.16170000000000018,-11.86659838326793
-0.16270000000000007,-11.952895772559694
-0.16370000000000018,-12.040607873151327
-0.16470000000000007,-12.040607873151327
-0.16570000000000018,-11.996751822855511
-0.16670000000000007,-11.909039722263879
-0.16770000000000018,-11.86659838326793
-0.16870000000000007,-11.952895772559694
-0.16970000000000018,-12.084463923447142
-0.17070000000000007,-12.258473413330542
-0.17170000000000019,-12.346185513922174
-0.17270000000000008,-12.346185513922174
-0.1737000000000002,-12.302329463626359
-0.17470000000000008,-12.214617363034726
-0.1757000000000002,-12.214617363034726
-0.17670000000000008,-12.258473413330542
-0.1777000000000002,-12.390041564217992
-0.17870000000000008,-12.56405105410139
-0.1797000000000002,-12.694204493688973
-0.18070000000000008,-12.73806054398479
-0.1817000000000002,-12.694204493688973
-0.18270000000000008,-12.651763154693022
-0.1837000000000002,-12.651763154693022
-0.1847000000000001,-12.694204493688973
-0.1857000000000002,-12.825772644576423
-0.1867000000000001,-12.99978213445982
-0.1877000000000002,-13.175206335643086
-0.1887000000000001,-13.261503724934855
-0.1897000000000002,-13.261503724934855
-0.1907000000000001,-13.261503724934855
-0.1917000000000001,-13.175206335643086
-0.19269999999999998,-13.217647674639037
-0.1937000000000001,-13.30535977523067
-0.19469999999999998,-13.47936926511407
-0.1957000000000001,-13.698649516593148
-0.19669999999999999,-13.784946905884919
-0.1977000000000001,-13.872659006476551
-0.1987,-13.872659006476551
-0.1997000000000001,-13.828802956180734
-0.2007,-13.872659006476551
-0.2017000000000001,-14.002812446064135
-0.2027,-14.13438059695158
-0.2037000000000001,-14.345172580631472
-0.2047,-14.529085049613924
-0.2057000000000001,-14.61396772760583
-0.2067,-14.65640906660178
-0.2077000000000001,-14.65640906660178
-0.2087,-14.69885040559773
-0.2097000000000001,-14.783733083589633
-0.2107,-14.967645552572087
-0.2117000000000001,-15.179852247551842
-0.2127,-15.3920589425316
-0.2137000000000001,-15.575971411514052
-0.2147,-15.660854089505953
-0.2157000000000001,-15.70329542850191
-0.2167,-15.74573676749786
-0.21770000000000012,-15.78817810649381
-0.2187,-15.972090575476265
-0.21970000000000012,-16.184297270456018
-0.2207,-16.438945304431726
-0.22170000000000012,-16.622857773414182
-0.2227,-16.750181790402035
-0.22370000000000012,-16.792623129397985
-0.2247,-16.835064468393938
-0.22570000000000012,-16.962388485381787
-0.2267,-17.103859615368293
-0.22770000000000012,-17.358507649344002
-0.22870000000000001,-17.669744135314307
-0.22970000000000013,-17.881950830294063
-0.23070000000000002,-18.10830463827247
-0.23170000000000013,-18.19318731626437
-0.23270000000000002,-18.23562865526032
-0.23370000000000013,-18.320511333252224
-0.23470000000000002,-18.44783535024008
-0.23570000000000013,-18.716630497214435
-0.23670000000000002,-18.97127853119014
-0.2376999999999999,-19.28251501716045
-0.23870000000000002,-19.537163051136158
-0.2396999999999999,-19.721075520118614
-0.24070000000000003,-19.890840876102416
-0.24169999999999991,-20.06060623208622
-0.24270000000000003,-20.329401379060574
-0.24369999999999992,-20.626490752032236
-0.24470000000000003,-20.980168576998494
-0.24569999999999992,-21.333846401964752
-0.24670000000000003,-21.67337711393236
-0.24769999999999992,-21.857289582914817
-0.24870000000000003,-22.027054938898623
-0.24969999999999992,-22.15437895588647
-0.25070000000000003,-22.38073276386488
-0.2516999999999999,-22.63538079784059
-0.25270000000000004,-22.989058622806844
-0.2536999999999999,-23.385177786769056
-0.25470000000000004,-23.767149837732617
-0.2556999999999999,-24.078386323702922
-0.25670000000000004,-24.34718147067728
-0.25769999999999993,-24.559388165657033
-0.25870000000000004,-24.771594860636792
-0.25969999999999993,-25.12527268560305
-0.26070000000000004,-25.478950510569312
-0.26169999999999993,-25.91751101352747
-0.26270000000000004,-26.29948306449103
-0.26369999999999993,-26.65316088945729
-0.26470000000000005,-26.9643973754276
-0.26569999999999994,-27.176604070407354
-0.26670000000000005,-27.43125210438306
-0.26769999999999994,-27.78492992934932
-0.26870000000000005,-28.18104909331153
-0.26969999999999994,-28.619609596269694
-0.27070000000000005,-29.100611438223805
-0.27169999999999994,-29.525024828183312
-0.27270000000000005,-29.878702653149578
-0.27369999999999994,-30.147497800123933
-0.27470000000000006,-30.402145834099635
-0.27569999999999995,-30.7558236590659
-0.27670000000000006,-31.137795710029454
-0.27769999999999995,-31.618797551983565
-0.27870000000000006,-32.184682071929586
-0.27969999999999995,-32.66568391388369
-0.28070000000000006,-33.10424441684186
-0.28169999999999995,-33.45792224180811
-0.28270000000000006,-33.755011614779775
-0.28369999999999995,-34.15113077874198
-0.28470000000000006,-34.58969128170015
-0.28569999999999995,-35.11313446265021
-0.28670000000000007,-35.679018982596226
-0.28769999999999996,-36.28734484153819
-0.28870000000000007,-36.8532293614842
-0.28969999999999996,-37.291789864442364
-0.29070000000000007,-37.73035036740053
-0.29169999999999996,-38.12646953136274
-0.29270000000000007,-38.5650300343209
-0.29369999999999996,-39.130914554266916
-0.2947000000000001,-39.696799074212926
-0.29569999999999996,-40.34756627215084
-0.2967000000000001,-40.95589213109281
-0.29769999999999996,-41.47933531204288
-0.2987000000000001,-41.96033715399699
-0.29969999999999997,-42.39889765695515
-0.3007000000000001,-42.87989949890926
-0.30169999999999997,-43.40334267985933
-0.3027000000000001,-44.054109877797245
-0.30369999999999997,-44.74731841473111
-0.3047000000000001,-45.412232725667685
-0.30569999999999997,-46.062999923605595
-0.3067000000000001,-46.586443104555656
-0.3077,-47.10988628550572
-0.3087000000000001,-47.633329466455784
-0.3097,-48.24165532539775
-0.3107000000000001,-48.93486386233162
-0.3117,-49.68466085126009
-0.3127000000000001,-50.46275206618586
-0.3137,-51.127666377122424
-0.3147000000000001,-51.73599223606439
-0.3157,-52.30187675601041
-0.3167000000000001,-52.82531993696047
-0.3177,-53.433645795902436
-0.3187000000000001,-54.1268543328363
-0.3197,-54.919092660760725
-0.3207000000000001,-55.6971838756865
-0.3217,-56.44698086461496
-0.3227000000000001,-57.14018940154883
-0.3237,-57.79095659948675
-0.3247000000000001,-58.35684111943277
-0.3257,-59.02175543036933
-0.3267000000000001,-59.7149639673032
-0.3277,-60.49305518222897
-0.3287000000000001,-61.327734849149344
-0.3297,-62.11997317707376
-0.3307000000000001,-62.855623053003576
-0.3317,-63.54883158993744
-0.3327000000000001,-64.19959878787537
-0.3337,-64.90695443780788
-0.3347000000000001,-65.64260431373769
-0.3357,-66.47728398065809
-0.3367000000000001,-67.34025787357575
-0.3377,-68.25982021848802
-0.3387000000000001,-69.0944998854084
-0.3397,-69.87259110033416
-0.3407000000000001,-70.53750541127073
-0.3417,-71.2307139482046
-0.3427000000000001,-71.96636382413442
-0.3437,-72.84348483005074
-0.3447000000000001,-73.76304717496302
-0.3457,-74.76749219786718
-0.3467000000000001,-75.63046609078486
-0.3477,-76.50758709670117
-0.3487000000000001,-77.28567831162695
-0.3497,-78.03547530055542
-0.3507000000000001,-78.8135665154812
-0.3517,-79.64824618240156
-0.3527000000000001,-80.56780852731384
-0.3537,-81.51566509822342
-0.3547000000000001,-82.47766878213164
-0.3557,-83.39723112704392
-0.35670000000000013,-84.23191079396429
-0.3577,-85.01000200889004
-0.35870000000000013,-85.84468167581042
-0.3597,-86.7076555687281
-0.36070000000000013,-87.66965925263632
-0.3617,-88.6741042755405
-0.3626999999999999,-89.72099063744062
-0.3637,-90.68299432134886
-0.3646999999999999,-91.60255666626112
-0.3657,-92.42308922018285
-0.3666999999999999,-93.25776888710321
-0.3677,-94.21977257101145
-0.3686999999999999,-95.26665893291157
-0.36970000000000003,-96.31354529481169
-0.3706999999999999,-97.4877556736997
-0.37170000000000003,-98.6195247135917
-0.3726999999999999,-99.62396973649588
-0.37370000000000003,-100.5010907424122
-0.3746999999999999,-101.27918195733798
-0.37570000000000003,-102.1563029632543
-0.3766999999999999,-103.07586530816658
-0.37770000000000004,-103.98128054008019
-0.3786999999999999,-105.07060824097626
-0.37970000000000004,-106.11749460287639
-0.3806999999999999,-107.16438096477653
-0.38170000000000004,-108.1688259876807
-0.38269999999999993,-109.17327101058488
-0.38370000000000004,-110.17771603348905
-0.38469999999999993,-111.22460239538917
-0.38570000000000004,-112.39881277427718
-0.38669999999999993,-112.27148875728932
-0.38570000000000004,-110.00795067750525
-0.38469999999999993,-108.12638464868475
-0.38370000000000004,-106.38628974985076
-0.38269999999999993,-104.73107752900866
-0.38170000000000004,-103.20318932515443
-0.3806999999999999,-101.80262513828804
-0.37970000000000004,-100.58597342040412
-0.3786999999999999,-99.41176304151614
-0.37770000000000004,-98.2234055496295
-0.3766999999999999,-97.09163650973747
-0.37570000000000003,-95.87498479185354
-0.3746999999999999,-94.601744621975
-0.37370000000000003,-93.38509290409107
-0.3726999999999999,-92.25332386419905
-0.37170000000000003,-91.12155482430701
-0.3706999999999999,-90.07466846240689
-0.36970000000000003,-89.02778210050676
-0.3686999999999999,-87.89601306061473
-0.3677,-86.89156803771054
-0.3666999999999999,-85.75979899781852
-0.3657,-84.6563241839238
-0.3646999999999999,-83.60943782202366
-0.3637,-82.61913991211814
-0.3626999999999999,-81.69957756720586
-0.3617,-80.73757388329766
-0.36070000000000013,-79.81801153838538
-0.3597,-78.72868383748929
-0.35870000000000013,-77.59691479759726
-0.3577,-76.38026307971333
-0.35670000000000013,-75.2484940398213
-0.3557,-74.20160767792116
-0.3547000000000001,-73.2820453330089
-0.3537,-72.36248298809663
-0.3527000000000001,-71.44292064318435
-0.3517,-70.48091695927613
-0.3507000000000001,-69.43403059737601
-0.3497,-68.34470289647993
-0.3487000000000001,-67.21293385658788
-0.3477,-66.16604749468777
-0.3467000000000001,-65.16160247178358
-0.3457,-64.29862857886593
-0.3447000000000001,-63.46394891194555
-0.3437,-62.64341635802381
-0.3427000000000001,-61.72385401311155
-0.3417,-60.71940899020737
-0.3407000000000001,-59.6300812893113
-0.3397,-58.583194927411164
-0.3387000000000001,-57.57874990450699
-0.3377,-56.65918755959472
-0.3367000000000001,-55.838655005673
-0.3357,-55.088858016744524
-0.3347000000000001,-54.26832546282281
-0.3337,-53.39120445690648
-0.3327000000000001,-52.42920077299826
-0.3317,-51.46719708909004
-0.3307000000000001,-50.547634744177756
-0.3297,-49.72710219025603
-0.3287000000000001,-48.97730520132757
-0.3277,-48.24165532539775
-0.3267000000000001,-47.46356411047198
-0.3257,-46.586443104555656
-0.3247000000000001,-45.666880759643384
-0.3237,-44.704877075735155
-0.3227000000000001,-43.84190318281749
-0.3217,-43.007223515897124
-0.3207000000000001,-42.2715736399673
-0.3197,-41.606659329030734
-0.3187000000000001,-40.828568114104954
-0.3177,-40.092918238175145
-0.3167000000000001,-39.21579723225882
-0.3157,-38.29623488734655
-0.3147000000000001,-37.41911388143023
-0.3137,-36.64102266650445
-0.3127000000000001,-35.94781412957058
-0.3117,-35.240458479638065
-0.3107000000000001,-34.632132620696105
-0.3097,-33.93892408376223
-0.3087000000000001,-33.14668575583781
-0.3077,-32.32615320191609
-0.3067000000000001,-31.449032195999767
-0.30569999999999997,-30.71338232006995
-0.3047000000000001,-30.00602667013743
-0.30369999999999997,-29.440142150191413
-0.3027000000000001,-28.831816291249446
-0.30169999999999997,-28.22349043230748
-0.3007000000000001,-27.530281895373616
-0.29969999999999997,-26.738043567449193
-0.2987000000000001,-25.959952352523427
-0.29769999999999996,-25.210155363594954
-0.2967000000000001,-24.559388165657033
-0.29569999999999996,-23.993503645711023
-0.2947000000000001,-23.47006046476096
-0.29369999999999996,-22.904175944814945
-0.29270000000000007,-22.295850085872978
-0.29169999999999996,-21.58849443594046
-0.29070000000000007,-20.89528589900659
-0.28969999999999996,-20.159636023076775
-0.28870000000000007,-19.49472171214021
-0.28769999999999996,-18.92883719219419
-0.28670000000000007,-18.44783535024008
-0.28569999999999995,-17.966833508285966
-0.28470000000000006,-17.40094898833995
-0.28369999999999995,-16.835064468393938
-0.28270000000000006,-16.141855931460068
-0.28169999999999995,-15.448647394526201
-0.28070000000000006,-14.826174422585586
-0.27969999999999995,-14.30273124163552
-0.27870000000000006,-13.828802956180734
-0.27769999999999995,-13.436927926118118
-0.27670000000000006,-12.955926084164007
-0.27569999999999995,-12.390041564217992
-0.27470000000000006,-11.778886282676295
-0.27369999999999994,-11.1677310011346
-0.27270000000000005,-10.557990430892769
-0.27169999999999994,-10.078403300238522
-0.27070000000000005,-9.641257508580225
-0.26969999999999994,-9.24938247851761
-0.26870000000000005,-8.85609273715513
