Potential V vs RHE, Current mA cm-2
0.013299999999999867,-0.5255652478998613
0.012299999999999978,-2.226755585987568
0.011299999999999866,-3.7093730282461257
0.010299999999999976,-4.974124930325469
0.009299999999999864,-6.064867342521412
0.008299999999999974,-7.111753704421539
0.007299999999999862,-8.070927965730034
0.006299999999999972,-8.943804837746763
0.00529999999999986,-9.728969609171857
0.0042999999999999705,-10.470278330301136
0.0032999999999998586,-11.1677310011346
0.0022999999999999687,-11.778886282676295
0.0012999999999998568,-12.302329463626359
0.00029999999999996696,-12.73806054398479
-0.000700000000000145,-13.13135028534727
-0.0017000000000000348,-13.436927926118118
-0.0027000000000001467,-13.698649516593148
-0.0037000000000000366,-13.916515056772363
-0.0047000000000001485,-14.13438059695158
-0.005700000000000038,-14.345172580631472
-0.00670000000000015,-14.61396772760583
-0.00770000000000004,-14.826174422585586
-0.008700000000000152,-15.05252823056399
-0.009700000000000042,-15.264734925543747
-0.010700000000000154,-15.533530072518102
-0.011700000000000044,-15.70329542850191
-0.012700000000000156,-15.87306078448571
-0.013700000000000045,-15.972090575476265
-0.014700000000000157,-15.972090575476265
-0.015700000000000047,-16.056973253468165
-0.01670000000000016,-16.056973253468165
-0.01770000000000005,-16.056973253468165
-0.01870000000000016,-16.099414592464115
-0.01970000000000005,-16.141855931460068
-0.020700000000000163,-16.22673860945197
-0.021700000000000053,-16.311621287443874
-0.022700000000000164,-16.438945304431726
-0.023700000000000054,-16.580416434418233
-0.024700000000000166,-16.665299112410132
-0.025700000000000056,-16.70774045140608
-0.026700000000000168,-16.750181790402035
-0.027700000000000058,-16.750181790402035
-0.02870000000000017,-16.70774045140608
-0.02970000000000006,-16.665299112410132
-0.03070000000000017,-16.622857773414182
-0.03170000000000006,-16.580416434418233
-0.03270000000000017,-16.580416434418233
-0.03370000000000006,-16.622857773414182
-0.034700000000000175,-16.70774045140608
-0.035700000000000065,-16.750181790402035
-0.03670000000000018,-16.835064468393938
-0.03770000000000007,-16.919947146385837
-0.03870000000000018,-16.962388485381787
-0.03970000000000007,-17.018976937376394
-0.04070000000000018,-17.018976937376394
-0.04170000000000007,-16.962388485381787
-0.04270000000000018,-16.919947146385837
-0.04370000000000007,-16.835064468393938
-0.044700000000000184,-16.792623129397985
-0.045700000000000074,-16.792623129397985
-0.046700000000000186,-16.835064468393938
-0.047700000000000076,-16.835064468393938
-0.04870000000000019,-16.919947146385837
-0.04970000000000008,-16.962388485381787
-0.05070000000000019,-17.061418276372343
-0.05170000000000008,-17.103859615368293
-0.05270000000000019,-17.103859615368293
-0.05370000000000008,-17.103859615368293
-0.05470000000000019,-17.061418276372343
-0.05570000000000008,-17.018976937376394
-0.056700000000000195,-16.919947146385837
-0.057700000000000085,-16.877505807389888
-0.058700000000000196,-16.877505807389888
-0.059700000000000086,-16.877505807389888
-0.0607000000000002,-16.877505807389888
-0.06170000000000009,-16.962388485381787
-0.0627000000000002,-17.061418276372343
-0.06370000000000009,-17.103859615368293
-0.0647000000000002,-17.146300954364243
-0.06570000000000009,-17.188742293360193
-0.0667000000000002,-17.188742293360193
-0.0677000000000001,-17.146300954364243
-0.0687000000000002,-17.103859615368293
-0.0697000000000001,-17.061418276372343
-0.07070000000000021,-16.962388485381787
-0.0717000000000001,-16.962388485381787
-0.07270000000000021,-16.919947146385837
-0.0737000000000001,-16.962388485381787
-0.07470000000000021,-17.018976937376394
-0.0757000000000001,-17.061418276372343
-0.07670000000000021,-17.146300954364243
-0.0777000000000001,-17.188742293360193
-0.07870000000000021,-17.231183632356142
-0.0797000000000001,-17.231183632356142
-0.08070000000000022,-17.231183632356142
-0.0817000000000001,-17.146300954364243
-0.08270000000000022,-17.146300954364243
-0.08370000000000011,-17.061418276372343
-0.08470000000000022,-17.018976937376394
-0.08570000000000011,-16.962388485381787
-0.08670000000000022,-17.018976937376394
-0.08770000000000011,-17.061418276372343
-0.08870000000000022,-17.103859615368293
-0.08970000000000011,-17.146300954364243
-0.09070000000000022,-17.231183632356142
-0.09170000000000011,-17.2736249713521
-0.09270000000000023,-17.316066310348052
-0.09370000000000012,-17.2736249713521
-0.09470000000000023,-17.231183632356142
-0.09570000000000012,-17.188742293360193
-0.09670000000000023,-17.103859615368293
-0.09770000000000012,-17.061418276372343
-0.09870000000000023,-17.061418276372343
-0.09970000000000012,-17.018976937376394
-0.10070000000000023,-17.061418276372343
-0.10170000000000012,-17.103859615368293
-0.10270000000000024,-17.188742293360193
-0.10370000000000013,-17.2736249713521
-0.10470000000000024,-17.2736249713521
-0.10570000000000013,-17.358507649344002
-0.10670000000000024,-17.358507649344002
-0.10770000000000013,-17.358507649344002
-0.10870000000000024,-17.2736249713521
-0.10970000000000013,-17.231183632356142
-0.11070000000000024,-17.188742293360193
-0.11170000000000013,-17.188742293360193
-0.11270000000000002,-17.146300954364243
-0.11370000000000013,-17.188742293360193
-0.11470000000000002,-17.188742293360193
-0.11570000000000014,-17.2736249713521
-0.11670000000000003,-17.316066310348052
-0.11770000000000014,-17.40094898833995
-0.11870000000000003,-17.4433903273359
-0.11970000000000014,-17.48583166633185
-0.12070000000000003,-17.4433903273359
-0.12170000000000014,-17.40094898833995
-0.12270000000000003,-17.358507649344002
-0.12370000000000014,-17.2736249713521
-0.12470000000000003,-17.2736249713521
-0.12570000000000014,-17.231183632356142
-0.12670000000000003,-17.2736249713521
-0.12770000000000015,-17.316066310348052
-0.12870000000000004,-17.358507649344002
-0.12970000000000015,-17.40094898833995
-0.13070000000000004,-17.48583166633185
-0.13170000000000015,-17.542420118326454
-0.13270000000000004,-17.584861457322408
-0.13370000000000015,-17.584861457322408
-0.13470000000000004,-17.542420118326454
-0.13570000000000015,-17.48583166633185
-0.13670000000000004,-17.4433903273359
-0.13770000000000016,-17.40094898833995
-0.13870000000000005,-17.358507649344002
-0.13970000000000016,-17.358507649344002
-0.14070000000000005,-17.40094898833995
-0.14170000000000016,-17.48583166633185
-0.14270000000000005,-17.584861457322408
-0.14370000000000016,-17.669744135314307
-0.14470000000000005,-17.71218547431026
-0.14570000000000016,-17.75462681330621
-0.14670000000000005,-17.797068152302163
-0.14770000000000016,-17.75462681330621
-0.14870000000000005,-17.71218547431026
-0.14970000000000017,-17.669744135314307
-0.15070000000000006,-17.627302796318357
-0.15170000000000017,-17.627302796318357
-0.15270000000000006,-17.627302796318357
-0.15370000000000017,-17.669744135314307
-0.15470000000000006,-17.71218547431026
-0.15570000000000017,-17.797068152302163
-0.15670000000000006,-17.924392169290012
-0.15770000000000017,-18.009274847281915
-0.15870000000000006,-18.06586329927652
-0.15970000000000018,-18.10830463827247
-0.16070000000000007,-18.10830463827247
-0.16170000000000018,-18.06586329927652
-0.16270000000000007,-18.009274847281915
-0.16370000000000018,-17.966833508285966
-0.16470000000000007,-17.966833508285966
-0.16570000000000018,-17.966833508285966
-0.16670000000000007,-18.009274847281915
-0.16770000000000018,-18.06586329927652
-0.16870000000000007,-18.15074597726842
-0.16970000000000018,-18.23562865526032
-0.17070000000000007,-18.362952672248177
-0.17170000000000019,-18.44783535024008
-0.17270000000000008,-18.49027668923603
-0.1737000000000002,-18.53271802823198
-0.17470000000000008,-18.49027668923603
-0.1757000000000002,-18.49027668923603
-0.17670000000000008,-18.44783535024008
-0.1777000000000002,-18.40539401124413
-0.17870000000000008,-18.44783535024008
-0.1797000000000002,-18.44783535024008
-0.18070000000000008,-18.53271802823198
-0.1817000000000002,-18.631747819222536
-0.18270000000000008,-18.759071836210385
-0.1837000000000002,-18.88639585319824
-0.1847000000000001,-18.97127853119014
-0.1857000000000002,-19.056161209182044
-0.1867000000000001,-19.112749661176647
-0.1877000000000002,-19.112749661176647
-0.1887000000000001,-19.112749661176647
-0.1897000000000002,-19.155191000172596
-0.1907000000000001,-19.112749661176647
-0.1917000000000001,-19.155191000172596
-0.19269999999999998,-19.155191000172596
-0.1937000000000001,-19.2400736781645
-0.19469999999999998,-19.3249563561564
-0.1957000000000001,-19.452280373144255
-0.19669999999999999,-19.579604390132108
-0.1977000000000001,-19.763516859114564
-0.1987,-19.848399537106463
-0.1997000000000001,-19.93328221509837
-0.2007,-19.97572355409432
-0.2017000000000001,-19.97572355409432
-0.2027,-20.01816489309027
-0.2037000000000001,-20.01816489309027
-0.2047,-20.01816489309027
-0.2057000000000001,-20.10304757108217
-0.2067,-20.202077362072725
-0.2077000000000001,-20.329401379060574
-0.2087,-20.499166735044383
-0.2097000000000001,-20.626490752032236
-0.2107,-20.810403221014692
-0.2117000000000001,-20.980168576998494
-0.2127,-21.107492593986347
-0.2137000000000001,-21.149933932982297
-0.2147,-21.149933932982297
-0.2157000000000001,-21.248963723972853
-0.2167,-21.248963723972853
-0.21770000000000012,-21.248963723972853
-0.2187,-21.333846401964752
-0.21970000000000012,-21.418729079956652
-0.2207,-21.58849443594046
-0.22170000000000012,-21.814848243918867
-0.2227,-22.069496277894572
-0.22370000000000012,-22.295850085872978
-0.2247,-22.508056780852733
-0.22570000000000012,-22.72026347583249
-0.2267,-22.861734605818995
-0.22770000000000012,-23.031499961802798
-0.22870000000000001,-23.15882397879065
-0.22970000000000013,-23.24370665678255
-0.23070000000000002,-23.342736447773106
-0.23170000000000013,-23.427619125765005
-0.23270000000000002,-23.55494314275286
-0.23370000000000013,-23.724708498736668
-0.23470000000000002,-23.86617962872317
-0.23570000000000013,-24.078386323702922
-0.23670000000000002,-24.290593018682678
-0.2376999999999999,-24.516946826661083
-0.23870000000000002,-24.729153521640843
-0.2396999999999999,-24.9130659906233
-0.24070000000000003,-25.0828313466071
-0.24169999999999991,-25.252596702590903
-0.24270000000000003,-25.39406783257741
-0.24369999999999992,-25.521391849565262
-0.24470000000000003,-25.691157205549064
-0.24569999999999992,-25.86092256153287
-0.24670000000000003,-26.087276369511276
-0.24769999999999992,-26.38436574248293
-0.24870000000000003,-26.65316088945729
-0.24969999999999992,-26.9643973754276
-0.25070000000000003,-27.34636942639116
-0.2516999999999999,-27.615164573365515
-0.25270000000000004,-27.912253946337174
-0.2536999999999999,-28.18104909331153
-0.25470000000000004,-28.393255788291288
-0.2556999999999999,-28.577168257273744
-0.25670000000000004,-28.789374952253496
-0.25769999999999993,-29.001581647233255
-0.25870000000000004,-29.27037679420761
-0.25969999999999993,-29.482583489187363
-0.26070000000000004,-29.793819975157668
-0.26169999999999993,-30.189939139119886
-0.26270000000000004,-30.529469851087494
-0.26369999999999993,-30.88314767605375
-0.26470000000000005,-31.23682550102001
-0.26569999999999994,-31.618797551983565
-0.26670000000000005,-31.930034037953877
-0.26769999999999994,-32.24127052392419
-0.26870000000000005,-32.49591855789989
-0.26969999999999994,-32.764713704874254
-0.27070000000000005,-32.97692039985401
-0.27169999999999994,-33.330598224820264
-0.27270000000000005,-33.627687597791926
-0.27369999999999994,-34.02380676175414
-0.27470000000000006,-34.41992592571634
-0.27569999999999995,-34.8018979766799
-0.27670000000000006,-35.282899818634014
-0.27769999999999995,-35.721460321592176
-0.27870000000000006,-36.11757948555439
-0.27969999999999995,-36.5136986495166
-0.28070000000000006,-36.89567070048016
-0.28169999999999995,-37.249348525446415
-0.28270000000000006,-37.60302635041268
-0.28369999999999995,-37.90011572338433
-0.28470000000000006,-38.29623488734655
-0.28569999999999995,-38.6499127123128
-0.28670000000000007,-39.08847321527096
-0.28769999999999996,-39.47044526623452
-0.28870000000000007,-39.95144710818864
-0.28969999999999996,-40.43244895014274
-0.29070000000000007,-40.95589213109281
-0.29169999999999996,-41.43689397304693
-0.29270000000000007,-41.91789581500104
-0.29369999999999996,-42.3564563179592
-0.2947000000000001,-42.752575481921404
-0.29569999999999996,-43.17698887188092
-0.2967000000000001,-43.657990713835034
-0.29769999999999996,-44.096551216793195
-0.2987000000000001,-44.535111719751356
-0.29969999999999997,-45.05855490070142
-0.3007000000000001,-45.624439420647434
-0.30169999999999997,-46.19032394059345
-0.3027000000000001,-46.79864979953541
-0.30369999999999997,-47.40697565847737
-0.3047000000000001,-47.987007291422046
-0.30569999999999997,-48.55289181136806
-0.3067000000000001,-49.118776331314066
-0.3077,-49.642219512264134
-0.3087000000000001,-50.1656626932142
-0.3097,-50.64666453516831
-0.3107000000000001,-51.17010771611838
-0.3117,-51.73599223606439
-0.3127000000000001,-52.30187675601041
-0.3137,-52.95264395394832
-0.3147000000000001,-53.56096981289029
-0.3157,-54.26832546282281
-0.3167000000000001,-54.919092660760725
-0.3177,-55.6971838756865
-0.3187000000000001,-56.404539525619015
-0.3197,-57.05530672355693
-0.3207000000000001,-57.70607392149485
-0.3217,-58.27195844144086
-0.3227000000000001,-58.880284300382826
-0.3237,-59.44616882032884
-0.3247000000000001,-60.06864179226946
-0.3257,-60.71940899020737
-0.3267000000000001,-61.37017618814529
-0.3277,-62.11997317707376
-0.3287000000000001,-62.855623053003576
-0.3297,-63.59127292893339
-0.3307000000000001,-64.42595259585376
-0.3317,-65.16160247178358
-0.3327000000000001,-65.91139946071206
-0.3337,-66.64704933664189
-0.3347000000000001,-67.34025787357575
-0.3357,-68.04761352350828
-0.3367000000000001,-68.74082206044213
-0.3377,-69.43403059737601
-0.3387000000000001,-70.14138624730852
-0.3397,-70.87703612323833
-0.3407000000000001,-71.7117157901587
-0.3417,-72.53224834408043
-0.3427000000000001,-73.3669280110008
-0.3437,-74.24404901691713
-0.3447000000000001,-75.1070229098348
-0.3457,-75.94170257675518
-0.3467000000000001,-76.7622351306769
-0.3477,-77.55447345860131
-0.3487000000000001,-78.33256467352709
-0.3497,-79.1248030014515
-0.3507000000000001,-79.90289421637728
-0.3517,-80.73757388329766
-0.3527000000000001,-81.57225355021802
-0.3537,-82.43522744313569
-0.3547000000000001,-83.39723112704392
-0.3557,-84.31679347195619
-0.35670000000000013,-85.23635581686847
-0.3577,-86.22665372677399
-0.35870000000000013,-87.14621607168625
-0.3597,-88.06577841659853
-0.36070000000000013,-88.9853407615108
-0.3617,-89.84831465442848
-0.3626999999999999,-90.7254356603448
-0.3637,-91.56011532726518
-0.3646999999999999,-92.42308922018285
-0.3657,-93.38509290409107
-0.3666999999999999,-94.30465524900335
-0.3677,-95.22421759391563
-0.3686999999999999,-96.21451550382113
-0.36970000000000003,-97.26140186572127
-0.3706999999999999,-98.26584688862545
-0.37170000000000003,-99.27029191152963
-0.3726999999999999,-100.23229559543785
-0.37370000000000003,-101.19429927934607
-0.3746999999999999,-102.11386162425833
-0.37570000000000003,-102.97683551717601
-0.3766999999999999,-103.93883920108425
-0.37770000000000004,-104.81596020700057
-0.3786999999999999,-105.7779638909088
-0.37970000000000004,-106.73996757481702
-0.3806999999999999,-107.73026548472255
-0.38170000000000004,-108.77715184662266
-0.38269999999999993,-109.8806266605174
-0.38370000000000004,-110.92751302241753
-0.38469999999999993,-111.96025227131899
-0.38570000000000004,-113.00713863321914
-0.38669999999999993,-112.66760792125153
-0.38570000000000004,-110.09283335549715
-0.38469999999999993,-107.87173661470905
-0.38370000000000004,-105.86284656890071
-0.38269999999999993,-104.02372187907615
-0.38170000000000004,-102.36850965823406
-0.3806999999999999,-100.79818011538387
-0.37970000000000004,-99.35517458952152
-0.3786999999999999,-98.05364019364569
-0.37770000000000004,-96.73795868477121
-0.3766999999999999,-95.47886562789132
-0.37570000000000003,-94.34709658799929
-0.3746999999999999,-93.13044487011537
-0.37370000000000003,-91.98452871722468
-0.3726999999999999,-90.76787699934074
-0.37170000000000003,-89.50878394246087
-0.3706999999999999,-88.32042645057423
-0.36970000000000003,-87.14621607168625
-0.3686999999999999,-85.97200569279828
-0.3677,-84.7977953139103
-0.3666999999999999,-83.66602627401826
-0.3657,-82.56255146012353
-0.3646999999999999,-81.57225355021802
-0.3637,-80.56780852731384
-0.3626999999999999,-79.60580484340561
-0.3617,-78.55891848150549
-0.36070000000000013,-77.55447345860131
-0.3597,-76.42270441870929
-0.35870000000000013,-75.33337671781321
-0.3577,-74.24404901691713
-0.35670000000000013,-73.197162655017
-0.3557,-72.05124650212633
-0.3547000000000001,-71.0043601402262
-0.3537,-69.91503243933012
-0.3527000000000001,-68.91058741642594
-0.3517,-67.96273084551636
-0.3507000000000001,-66.9582858226122
-0.3497,-66.03872347769992
-0.3487000000000001,-65.11916113278764
-0.3477,-64.15715744887942
-0.3467000000000001,-63.251742216965795
-0.3457,-62.24729719406162
-0.3447000000000001,-61.28529351015339
-0.3437,-60.28084848724921
-0.3427000000000001,-59.23396212534908
-0.3417,-58.31439978043681
-0.3407000000000001,-57.352396096528594
-0.3397,-56.404539525619015
-0.3387000000000001,-55.484977180706736
-0.3377,-54.60785617479041
-0.3367000000000001,-53.7873236208687
-0.3357,-52.91020261495237
-0.3347000000000001,-51.990640270040096
-0.3337,-51.127666377122424
-0.3327000000000001,-50.20810403221015
-0.3317,-49.28854168729788
-0.3307000000000001,-48.32653800338966
-0.3297,-47.36453431948143
-0.3287000000000001,-46.45911908756781
-0.3277,-45.581998081651484
-0.3267000000000001,-44.704877075735155
-0.3257,-43.88434452181344
-0.3247000000000001,-43.09210619388902
-0.3237,-42.3564563179592
-0.3227000000000001,-41.606659329030734
-0.3217,-40.828568114104954
-0.3207000000000001,-40.092918238175145
-0.3197,-39.258238571254765
-0.3187000000000001,-38.42355890433439
-0.3177,-37.645467689408626
-0.3167000000000001,-36.81078802248826
-0.3157,-35.94781412957058
-0.3147000000000001,-35.11313446265021
-0.3137,-34.33504324772444
-0.3127000000000001,-33.54280491980002
-0.3117,-32.84959638286615
-0.3107000000000001,-32.09979939393769
-0.3097,-31.40659085700382
-0.3087000000000001,-30.71338232006995
-0.3077,-30.00602667013743
-0.3067000000000001,-29.27037679420761
-0.30569999999999997,-28.478138466283188
-0.3047000000000001,-27.700047251357418
-0.30369999999999997,-26.9643973754276
-0.3027000000000001,-26.129717708507226
-0.30169999999999997,-25.39406783257741
-0.3007000000000001,-24.64427084364894
-0.29969999999999997,-23.993503645711023
-0.2987000000000001,-23.342736447773106
-0.29769999999999996,-22.72026347583249
-0.2967000000000001,-22.069496277894572
-0.29569999999999996,-21.461170418952605
-0.2947000000000001,-20.85284456001064
-0.29369999999999996,-20.202077362072725
-0.29270000000000007,-19.537163051136158
-0.29169999999999996,-18.843954514202288
-0.29070000000000007,-18.15074597726842
-0.28969999999999996,-17.4433903273359
-0.28870000000000007,-16.792623129397985
-0.28769999999999996,-16.141855931460068
-0.28670000000000007,-15.533530072518102
-0.28569999999999995,-14.967645552572087
-0.28470000000000006,-14.401761032626075
-0.28369999999999995,-13.828802956180734
-0.28270000000000006,-13.349215825526485
-0.28169999999999995,-12.781916594280606
-0.28070000000000006,-12.302329463626359
-0.27969999999999995,-11.647318131788847
-0.27870000000000006,-11.037577561547016
-0.27769999999999995,-10.470278330301136
-0.27670000000000006,-9.902979099055257
-0.27569999999999995,-9.205526428221793
-0.27470000000000006,-8.68208324727173
-0.27369999999999994,-8.070927965730034
-0.27270000000000005,-7.591340835075788
-0.27169999999999994,-7.111753704421539
-0.27070000000000005,-6.632166573767292
-0.26969999999999994,-6.238876832404812
-0.26870000000000005,-5.759289701750564
-0.26769999999999994,-5.279702571096316
