Potential V vs RHE, Current mA cm-2
0.013299999999999867,-0.4384190318281749
0.012299999999999978,-2.2706116362833835
0.011299999999999866,-3.840941179133574
0.010299999999999976,-5.279702571096316
0.009299999999999864,-6.500598422879844
0.008299999999999974,-7.591340835075788
0.007299999999999862,-8.55051509638428
0.006299999999999972,-9.423391968401008
0.00529999999999986,-10.208556739826104
0.0042999999999999705,-10.949865460955383
0.0032999999999998586,-11.604876792792895
0.0022999999999999687,-12.214617363034726
0.0012999999999998568,-12.825772644576423
0.00029999999999996696,-13.3930718758223
-0.000700000000000145,-13.916515056772363
-0.0017000000000000348,-14.401761032626075
-0.0027000000000001467,-14.868615761581536
-0.0037000000000000366,-15.222293586547794
-0.0047000000000001485,-15.618412750510005
-0.005700000000000038,-15.830619445489761
-0.00670000000000015,-16.099414592464115
-0.00770000000000004,-16.269179948447924
-0.008700000000000152,-16.438945304431726
-0.009700000000000042,-16.580416434418233
-0.010700000000000154,-16.70774045140608
-0.011700000000000044,-16.835064468393938
-0.012700000000000156,-17.018976937376394
-0.013700000000000045,-17.146300954364243
-0.014700000000000157,-17.316066310348052
-0.015700000000000047,-17.48583166633185
-0.01670000000000016,-17.71218547431026
-0.01770000000000005,-17.839509491298113
-0.01870000000000016,-17.966833508285966
-0.01970000000000005,-18.10830463827247
-0.020700000000000163,-18.15074597726842
-0.021700000000000053,-18.19318731626437
-0.022700000000000164,-18.23562865526032
-0.023700000000000054,-18.23562865526032
-0.024700000000000166,-18.23562865526032
-0.025700000000000056,-18.23562865526032
-0.026700000000000168,-18.23562865526032
-0.027700000000000058,-18.27806999425627
-0.02870000000000017,-18.320511333252224
-0.02970000000000006,-18.44783535024008
-0.03070000000000017,-18.53271802823198
-0.03170000000000006,-18.589306480226583
-0.03270000000000017,-18.716630497214435
-0.03370000000000006,-18.80151317520634
-0.034700000000000175,-18.843954514202288
-0.035700000000000065,-18.843954514202288
-0.03670000000000018,-18.843954514202288
-0.03770000000000007,-18.80151317520634
-0.03870000000000018,-18.80151317520634
-0.03970000000000007,-18.716630497214435
-0.04070000000000018,-18.716630497214435
-0.04170000000000007,-18.716630497214435
-0.04270000000000018,-18.716630497214435
-0.04370000000000007,-18.759071836210385
-0.044700000000000184,-18.80151317520634
-0.045700000000000074,-18.88639585319824
-0.046700000000000186,-18.97127853119014
-0.047700000000000076,-19.01371987018609
-0.04870000000000019,-19.056161209182044
-0.04970000000000008,-19.155191000172596
-0.05070000000000019,-19.112749661176647
-0.05170000000000008,-19.112749661176647
-0.05270000000000019,-19.056161209182044
-0.05370000000000008,-19.056161209182044
-0.05470000000000019,-18.97127853119014
-0.05570000000000008,-18.92883719219419
-0.056700000000000195,-18.92883719219419
-0.057700000000000085,-18.92883719219419
-0.058700000000000196,-18.92883719219419
-0.059700000000000086,-19.01371987018609
-0.0607000000000002,-19.056161209182044
-0.06170000000000009,-19.155191000172596
-0.0627000000000002,-19.2400736781645
-0.06370000000000009,-19.2400736781645
-0.0647000000000002,-19.28251501716045
-0.06570000000000009,-19.2400736781645
-0.0667000000000002,-19.197632339168546
-0.0677000000000001,-19.155191000172596
-0.0687000000000002,-19.112749661176647
-0.0697000000000001,-19.01371987018609
-0.07070000000000021,-19.01371987018609
-0.0717000000000001,-18.97127853119014
-0.07270000000000021,-18.97127853119014
-0.0737000000000001,-18.97127853119014
-0.07470000000000021,-19.056161209182044
-0.0757000000000001,-19.112749661176647
-0.07670000000000021,-19.155191000172596
-0.0777000000000001,-19.2400736781645
-0.07870000000000021,-19.28251501716045
-0.0797000000000001,-19.28251501716045
-0.08070000000000022,-19.28251501716045
-0.0817000000000001,-19.28251501716045
-0.08270000000000022,-19.2400736781645
-0.08370000000000011,-19.197632339168546
-0.08470000000000022,-19.112749661176647
-0.08570000000000011,-19.056161209182044
-0.08670000000000022,-19.056161209182044
-0.08770000000000011,-19.01371987018609
-0.08870000000000022,-19.056161209182044
-0.08970000000000011,-19.155191000172596
-0.09070000000000022,-19.197632339168546
-0.09170000000000011,-19.2400736781645
-0.09270000000000023,-19.3249563561564
-0.09370000000000012,-19.367397695152352
-0.09470000000000023,-19.409839034148305
-0.09570000000000012,-19.3249563561564
-0.09670000000000023,-19.3249563561564
-0.09770000000000012,-19.3249563561564
-0.09870000000000023,-19.2400736781645
-0.09970000000000012,-19.197632339168546
-0.10070000000000023,-19.155191000172596
-0.10170000000000012,-19.112749661176647
-0.10270000000000024,-19.112749661176647
-0.10370000000000013,-19.155191000172596
-0.10470000000000024,-19.2400736781645
-0.10570000000000013,-19.28251501716045
-0.10670000000000024,-19.3249563561564
-0.10770000000000013,-19.452280373144255
-0.10870000000000024,-19.452280373144255
-0.10970000000000013,-19.49472171214021
-0.11070000000000024,-19.49472171214021
-0.11170000000000013,-19.452280373144255
-0.11270000000000002,-19.452280373144255
-0.11370000000000013,-19.367397695152352
-0.11470000000000002,-19.28251501716045
-0.11570000000000014,-19.2400736781645
-0.11670000000000003,-19.197632339168546
-0.11770000000000014,-19.2400736781645
-0.11870000000000003,-19.2400736781645
-0.11970000000000014,-19.28251501716045
-0.12070000000000003,-19.3249563561564
-0.12170000000000014,-19.409839034148305
-0.12270000000000003,-19.49472171214021
-0.12370000000000014,-19.537163051136158
-0.12470000000000003,-19.579604390132108
-0.12570000000000014,-19.537163051136158
-0.12670000000000003,-19.537163051136158
-0.12770000000000015,-19.49472171214021
-0.12870000000000004,-19.49472171214021
-0.12970000000000015,-19.409839034148305
-0.13070000000000004,-19.367397695152352
-0.13170000000000015,-19.367397695152352
-0.13270000000000004,-19.367397695152352
-0.13370000000000015,-19.367397695152352
-0.13470000000000004,-19.452280373144255
-0.13570000000000015,-19.49472171214021
-0.13670000000000004,-19.579604390132108
-0.13770000000000016,-19.678634181122664
-0.13870000000000005,-19.721075520118614
-0.13970000000000016,-19.805958198110513
-0.14070000000000005,-19.763516859114564
-0.14170000000000016,-19.721075520118614
-0.14270000000000005,-19.721075520118614
-0.14370000000000016,-19.678634181122664
-0.14470000000000005,-19.636192842126707
-0.14570000000000016,-19.636192842126707
-0.14670000000000005,-19.579604390132108
-0.14770000000000016,-19.636192842126707
-0.14870000000000005,-19.678634181122664
-0.14970000000000017,-19.721075520118614
-0.15070000000000006,-19.805958198110513
-0.15170000000000017,-19.848399537106463
-0.15270000000000006,-19.93328221509837
-0.15370000000000017,-19.97572355409432
-0.15470000000000006,-20.01816489309027
-0.15570000000000017,-20.01816489309027
-0.15670000000000006,-19.97572355409432
-0.15770000000000017,-19.97572355409432
-0.15870000000000006,-19.93328221509837
-0.15970000000000018,-19.890840876102416
-0.16070000000000007,-19.890840876102416
-0.16170000000000018,-19.890840876102416
-0.16270000000000007,-19.890840876102416
-0.16370000000000018,-19.93328221509837
-0.16470000000000007,-20.06060623208622
-0.16570000000000018,-20.159636023076775
-0.16670000000000007,-20.244518701068674
-0.16770000000000018,-20.329401379060574
-0.16870000000000007,-20.414284057052477
-0.16970000000000018,-20.414284057052477
-0.17070000000000007,-20.456725396048434
-0.17170000000000019,-20.456725396048434
-0.17270000000000008,-20.456725396048434
-0.1737000000000002,-20.414284057052477
-0.17470000000000008,-20.371842718056527
-0.1757000000000002,-20.371842718056527
-0.17670000000000008,-20.371842718056527
-0.1777000000000002,-20.371842718056527
-0.17870000000000008,-20.456725396048434
-0.1797000000000002,-20.541608074040333
-0.18070000000000008,-20.626490752032236
-0.1817000000000002,-20.72552054302279
-0.18270000000000008,-20.810403221014692
-0.1837000000000002,-20.89528589900659
-0.1847000000000001,-20.980168576998494
-0.1857000000000002,-21.022609915994444
-0.1867000000000001,-21.022609915994444
-0.1877000000000002,-21.065051254990397
-0.1887000000000001,-21.065051254990397
-0.1897000000000002,-21.022609915994444
-0.1907000000000001,-21.065051254990397
-0.1917000000000001,-21.107492593986347
-0.19269999999999998,-21.149933932982297
-0.1937000000000001,-21.248963723972853
-0.19469999999999998,-21.333846401964752
-0.1957000000000001,-21.461170418952605
-0.19669999999999999,-21.58849443594046
-0.1977000000000001,-21.729965565926964
-0.1987,-21.857289582914817
-0.1997000000000001,-21.94217226090672
-0.2007,-21.94217226090672
-0.2017000000000001,-22.027054938898623
-0.2027,-22.027054938898623
-0.2037000000000001,-22.069496277894572
-0.2047,-22.069496277894572
-0.2057000000000001,-22.111937616890522
-0.2067,-22.15437895588647
-0.2077000000000001,-22.196820294882425
-0.2087,-22.33829142486893
-0.2097000000000001,-22.46561544185678
-0.2107,-22.63538079784059
-0.2117000000000001,-22.819293266823045
-0.2127,-22.989058622806844
-0.2137000000000001,-23.1163826397947
-0.2147,-23.24370665678255
-0.2157000000000001,-23.342736447773106
-0.2167,-23.427619125765005
-0.21770000000000012,-23.47006046476096
-0.2187,-23.51250180375691
-0.21970000000000012,-23.55494314275286
-0.2207,-23.639825820744765
-0.22170000000000012,-23.724708498736668
-0.2227,-23.86617962872317
-0.22370000000000012,-23.993503645711023
-0.2247,-24.16326900169483
-0.22570000000000012,-24.389622809673234
-0.2267,-24.559388165657033
-0.22770000000000012,-24.771594860636792
-0.22870000000000001,-24.95550732961925
-0.22970000000000013,-25.12527268560305
-0.23070000000000002,-25.252596702590903
-0.23170000000000013,-25.39406783257741
-0.23270000000000002,-25.521391849565262
-0.23370000000000013,-25.60627452755716
-0.23470000000000002,-25.691157205549064
-0.23570000000000013,-25.77603988354097
-0.23670000000000002,-25.91751101352747
-0.2376999999999999,-26.129717708507226
-0.23870000000000002,-26.29948306449103
-0.2396999999999999,-26.568278211465387
-0.24070000000000003,-26.738043567449193
-0.24169999999999991,-27.00683871442355
-0.24270000000000003,-27.261486748399253
-0.24369999999999992,-27.43125210438306
-0.24470000000000003,-27.65760591236147
-0.24569999999999992,-27.78492992934932
-0.24670000000000003,-27.954695285333123
-0.24769999999999992,-28.09616641531963
-0.24870000000000003,-28.265931771303435
-0.24969999999999992,-28.393255788291288
-0.25070000000000003,-28.619609596269694
-0.2516999999999999,-28.789374952253496
-0.25270000000000004,-29.001581647233255
-0.2536999999999999,-29.31281813320356
-0.25470000000000004,-29.62405461917387
-0.2556999999999999,-29.921143992145527
-0.25670000000000004,-30.274821817111786
-0.25769999999999993,-30.614352529079397
-0.25870000000000004,-30.968030354045652
-0.25969999999999993,-31.27926684001596
-0.26070000000000004,-31.533914873991666
-0.26169999999999993,-31.802710020966025
-0.26270000000000004,-32.09979939393769
-0.26369999999999993,-32.368594540912035
-0.26470000000000005,-32.58080123589179
-0.26569999999999994,-32.892037721862096
-0.26670000000000005,-33.14668575583781
-0.26769999999999994,-33.45792224180811
-0.26870000000000005,-33.81160006677438
-0.26969999999999994,-34.15113077874198
-0.27070000000000005,-34.5472499427042
-0.27169999999999994,-34.90092776767045
-0.27270000000000005,-35.32534115762997
-0.27369999999999994,-35.679018982596226
-0.27470000000000006,-36.03269680756248
-0.27569999999999995,-36.37222751953009
-0.27670000000000006,-36.6834640055004
-0.27769999999999995,-36.99470049147071
-0.27870000000000006,-37.291789864442364
-0.27969999999999995,-37.60302635041268
-0.28070000000000006,-37.94255706238028
-0.28169999999999995,-38.29623488734655
-0.28270000000000006,-38.6499127123128
-0.28369999999999995,-39.046031876275016
-0.28470000000000006,-39.47044526623452
-0.28569999999999995,-39.90900576919269
-0.28670000000000007,-40.3900076111468
-0.28769999999999996,-40.91345079209687
-0.28870000000000007,-41.39445263405098
-0.28969999999999996,-41.87545447600508
-0.29070000000000007,-42.2715736399673
-0.29169999999999996,-42.752575481921404
-0.29270000000000007,-43.134547532884966
-0.29369999999999996,-43.57310803584313
-0.2947000000000001,-43.96922719980534
-0.29569999999999996,-44.4077877027635
-0.2967000000000001,-44.88878954471762
-0.29769999999999996,-45.36979138667173
-0.2987000000000001,-45.85079322862584
-0.29969999999999997,-46.37423640957591
-0.3007000000000001,-46.94012092952192
-0.30169999999999997,-47.506005449467935
-0.3027000000000001,-48.114331308409895
-0.30369999999999997,-48.68021582835591
-0.3047000000000001,-49.24610034830193
-0.30569999999999997,-49.76954352925199
-0.3067000000000001,-50.29298671020206
-0.3077,-50.81642989115212
-0.3087000000000001,-51.33987307210218
-0.3097,-51.86331625305225
-0.3107000000000001,-52.42920077299826
-0.3117,-52.995085292944275
-0.3127000000000001,-53.56096981289029
-0.3137,-54.2117370108282
-0.3147000000000001,-54.876651321764776
-0.3157,-55.56985985869864
-0.3167000000000001,-56.22062705663656
-0.3177,-56.927982706569075
-0.3187000000000001,-57.57874990450699
-0.3197,-58.22951710244491
-0.3207000000000001,-58.83784296138688
-0.3217,-59.44616882032884
-0.3227000000000001,-60.02620045327351
-0.3237,-60.63452631221547
-0.3247000000000001,-61.242852171157445
-0.3257,-61.851178030099405
-0.3267000000000001,-62.459503889041365
-0.3277,-63.11027108697928
-0.3287000000000001,-63.860068075907755
-0.3297,-64.55327661284163
-0.3307000000000001,-65.34551494076604
-0.3317,-66.12360615569182
-0.3327000000000001,-66.9582858226122
-0.3337,-67.73637703753796
-0.3347000000000001,-68.48617402646643
-0.3357,-69.22182390239624
-0.3367000000000001,-69.91503243933012
-0.3377,-70.66482942825859
-0.3387000000000001,-71.35803796519245
-0.3397,-72.05124650212633
-0.3407000000000001,-72.80104349105478
-0.3417,-73.49425202798865
-0.3427000000000001,-74.32893169490903
-0.3437,-75.1070229098348
-0.3447000000000001,-75.94170257675518
-0.3457,-76.81882358267148
-0.3467000000000001,-77.63935613659322
-0.3477,-78.55891848150549
-0.3487000000000001,-79.37945103542721
-0.3497,-80.21413070234757
-0.3507000000000001,-81.04881036926795
-0.3517,-81.82690158419373
-0.3527000000000001,-82.6615812511141
-0.3537,-83.43967246603985
-0.3547000000000001,-84.13288100297372
-0.3557,-84.96756066989411
-0.35670000000000013,-85.80224033681448
-0.3577,-86.6227728907362
-0.35870000000000013,-87.54233523564847
-0.3597,-88.46189758056073
-0.36070000000000013,-89.36731281247435
-0.3617,-90.28687515738663
-0.3626999999999999,-91.24887884129487
-0.3637,-92.16844118620713
-0.3646999999999999,-92.98897374012887
-0.3657,-93.86609474604518
-0.3666999999999999,-94.7432157519615
-0.3677,-95.56374830588322
-0.3686999999999999,-96.44086931179956
-0.36970000000000003,-97.26140186572127
-0.3706999999999999,-98.13852287163759
-0.37170000000000003,-99.01564387755391
-0.3726999999999999,-99.93520622246619
-0.37370000000000003,-100.88306279337576
-0.3746999999999999,-101.92994915527588
-0.37570000000000003,-102.93439417818009
-0.3766999999999999,-103.93883920108425
-0.37770000000000004,-105.02816690198033
-0.3786999999999999,-106.0326119248845
-0.37970000000000004,-107.03705694778867
-0.3806999999999999,-108.04150197069285
-0.38170000000000004,-109.08838833259297
-0.38269999999999993,-110.09283335549715
-0.38370000000000004,-111.01239570040943
-0.38469999999999993,-111.96025227131899
-0.38570000000000004,-112.96469729422319
-0.38669999999999993,-112.66760792125153
-0.38570000000000004,-110.05039201650122
-0.38469999999999993,-107.87173661470905
-0.38370000000000004,-105.94772924689259
-0.38269999999999993,-104.12275167006669
-0.38170000000000004,-102.45339233622596
-0.3806999999999999,-100.92550413237171
-0.37970000000000004,-99.45420438051207
-0.3786999999999999,-98.01119885464975
-0.37770000000000004,-96.61063466778336
-0.3766999999999999,-95.26665893291157
-0.37570000000000003,-93.90853608504113
-0.3746999999999999,-92.6070016891653
-0.37370000000000003,-91.24887884129487
-0.3726999999999999,-90.03222712341093
-0.37170000000000003,-88.8438696315243
-0.3706999999999999,-87.58477657464444
-0.36970000000000003,-86.49544887374834
-0.3686999999999999,-85.36367983385631
-0.3677,-84.27435213296022
-0.3666999999999999,-83.22746577106011
-0.3657,-82.22302074815593
-0.3646999999999999,-81.1761343862558
-0.3637,-80.12924802435568
-0.3626999999999999,-78.99747898446365
-0.3617,-77.90815128356756
-0.36070000000000013,-76.81882358267148
-0.3597,-75.71534876877676
-0.35870000000000013,-74.58357972888473
-0.3577,-73.53669336698461
-0.35670000000000013,-72.48980700508447
-0.3557,-71.44292064318435
-0.3547000000000001,-70.48091695927613
-0.3537,-69.53306038836655
-0.3527000000000001,-68.57105670445833
-0.3517,-67.65149435954605
-0.3507000000000001,-66.73193201463377
-0.3497,-65.76992833072556
-0.3487000000000001,-64.82207175981598
-0.3477,-63.860068075907755
-0.3467000000000001,-62.89806439199953
-0.3457,-61.89361936909536
-0.3447000000000001,-60.889174346191176
-0.3437,-59.842287984291055
-0.3427000000000001,-58.880284300382826
-0.3417,-57.87583927747865
-0.3407000000000001,-56.927982706569075
-0.3397,-55.96597902266086
-0.3387000000000001,-55.046416677748574
-0.3377,-54.1268543328363
-0.3367000000000001,-53.26388043991864
-0.3357,-52.386759434002315
-0.3347000000000001,-51.509638428085985
-0.3337,-50.64666453516831
-0.3327000000000001,-49.72710219025603
-0.3317,-48.80753984534376
-0.3307000000000001,-47.8879775004315
-0.3297,-46.982562268517874
-0.3287000000000001,-46.02055858460964
-0.3277,-45.143437578693316
-0.3267000000000001,-44.28046368577565
-0.3257,-43.36090134086337
-0.3247000000000001,-42.568663012938956
-0.3237,-41.74813045901723
-0.3227000000000001,-40.99833347008877
-0.3217,-40.220242255162994
-0.3207000000000001,-39.47044526623452
-0.3197,-38.692354051308754
-0.3187000000000001,-37.94255706238028
-0.3177,-37.07958316946261
-0.3167000000000001,-36.28734484153819
-0.3157,-35.42437094862052
-0.3147000000000001,-34.58969128170015
-0.3137,-33.712570275783825
-0.3127000000000001,-32.892037721862096
-0.3117,-32.05735805494172
-0.3107000000000001,-31.27926684001596
-0.3097,-30.529469851087494
-0.3087000000000001,-29.836261314153624
-0.3077,-29.100611438223805
-0.3067000000000001,-28.435697127287238
-0.30569999999999997,-27.78492992934932
-0.3047000000000001,-27.049280053419505
-0.30369999999999997,-26.34192440348698
-0.3027000000000001,-25.60627452755716
-0.30169999999999997,-24.870624651627345
-0.3007000000000001,-24.120827662698876
-0.29969999999999997,-23.385177786769056
-0.2987000000000001,-22.592939458844636
-0.29769999999999996,-21.899730921910766
-0.2967000000000001,-21.149933932982297
-0.29569999999999996,-20.456725396048434
-0.2947000000000001,-19.805958198110513
-0.29369999999999996,-19.197632339168546
-0.29270000000000007,-18.631747819222536
-0.29169999999999996,-18.009274847281915
-0.29070000000000007,-17.4433903273359
-0.28969999999999996,-16.835064468393938
-0.28870000000000007,-16.22673860945197
-0.28769999999999996,-15.575971411514052
-0.28670000000000007,-14.925204213576137
-0.28569999999999995,-14.26028990263957
-0.28470000000000006,-13.610937416001518
-0.28369999999999995,-12.913484745168056
-0.28270000000000006,-12.302329463626359
-0.28169999999999995,-11.647318131788847
-0.28070000000000006,-11.037577561547016
-0.27969999999999995,-10.470278330301136
-0.27870000000000006,-9.946835149351072
-0.27769999999999995,-9.467248018696827
-0.27670000000000006,-8.899948787450944
-0.27569999999999995,-8.464217707092514
-0.27470000000000006,-7.940774526142452
-0.27369999999999994,-7.4173313451923875
-0.27270000000000005,-6.850032113946507
-0.27169999999999994,-6.326588932996443
-0.27070000000000005,-5.759289701750564
-0.26969999999999994,-5.149549131508733
-0.26870000000000005,-4.582249900262854
-0.26769999999999994,-4.014950669016974
-0.26670000000000005,-3.4915074880669104
