Potential V vs RHE, Current mA cm-2
0.013299999999999867,0.17231183632356148
0.012299999999999978,-0.8745745255765657
0.011299999999999866,-1.7033124050375041
0.010299999999999976,-2.4007650758709675
0.009299999999999864,-3.0119203574126634
0.008299999999999974,-3.5353635383627267
0.007299999999999862,-3.971094618721158
0.006299999999999972,-4.406825699079589
0.00529999999999986,-4.712403339850438
0.0042999999999999705,-5.0618370309171015
0.0032999999999998586,-5.411270721983764
0.0022999999999999687,-5.715433651454749
0.0012999999999998568,-5.977155241929781
0.00029999999999996696,-6.238876832404812
-0.000700000000000145,-6.500598422879844
-0.0017000000000000348,-6.6760226240631075
-0.0027000000000001467,-6.893888164242324
-0.0037000000000000366,-7.067897654125724
-0.0047000000000001485,-7.243321855308987
-0.005700000000000038,-7.4173313451923875
-0.00670000000000015,-7.591340835075788
-0.00770000000000004,-7.7653503249591855
-0.008700000000000152,-7.940774526142452
-0.009700000000000042,-8.11478401602585
-0.010700000000000154,-8.288793505909249
-0.011700000000000044,-8.464217707092514
-0.012700000000000156,-8.594371146680096
-0.013700000000000045,-8.725939297567548
-0.014700000000000157,-8.85609273715513
-0.015700000000000047,-8.987660888042578
-0.01670000000000016,-9.161670377925978
-0.01770000000000005,-9.335679867809377
-0.01870000000000016,-9.511104068992642
-0.01970000000000005,-9.685113558876042
-0.020700000000000163,-9.81668170976349
-0.021700000000000053,-9.946835149351072
-0.022700000000000164,-10.120844639234473
-0.023700000000000054,-10.25241279012192
-0.024700000000000166,-10.382566229709504
-0.025700000000000056,-10.557990430892769
-0.026700000000000168,-10.731999920776168
-0.027700000000000058,-10.906009410659568
-0.02870000000000017,-11.081433611842833
-0.02970000000000006,-11.255443101726232
-0.03070000000000017,-11.42945259160963
-0.03170000000000006,-11.56102074249708
-0.03270000000000017,-11.73503023238048
-0.03370000000000006,-11.86659838326793
-0.034700000000000175,-12.040607873151327
-0.035700000000000065,-12.214617363034726
-0.03670000000000018,-12.432482903213943
-0.03770000000000007,-12.607907104397206
-0.03870000000000018,-12.825772644576423
-0.03970000000000007,-12.99978213445982
-0.04070000000000018,-13.175206335643086
-0.04170000000000007,-13.349215825526485
-0.04270000000000018,-13.523225315409885
-0.04370000000000007,-13.698649516593148
-0.044700000000000184,-13.872659006476551
-0.045700000000000074,-14.046668496359947
-0.046700000000000186,-14.217848563643619
-0.047700000000000076,-14.401761032626075
-0.04870000000000019,-14.61396772760583
-0.04970000000000008,-14.826174422585586
-0.05070000000000019,-15.01008689156804
-0.05170000000000008,-15.222293586547794
-0.05270000000000019,-15.3920589425316
-0.05370000000000008,-15.575971411514052
-0.05470000000000019,-15.74573676749786
-0.05570000000000008,-15.91550212348166
-0.056700000000000195,-16.141855931460068
-0.057700000000000085,-16.354062626439823
-0.058700000000000196,-16.580416434418233
-0.059700000000000086,-16.792623129397985
-0.0607000000000002,-16.962388485381787
-0.06170000000000009,-17.146300954364243
-0.0627000000000002,-17.316066310348052
-0.06370000000000009,-17.48583166633185
-0.0647000000000002,-17.669744135314307
-0.06570000000000009,-17.839509491298113
-0.0667000000000002,-18.06586329927652
-0.0677000000000001,-18.27806999425627
-0.0687000000000002,-18.44783535024008
-0.0697000000000001,-18.674189158218486
-0.07070000000000021,-18.88639585319824
-0.0717000000000001,-19.056161209182044
-0.07270000000000021,-19.2400736781645
-0.0737000000000001,-19.409839034148305
-0.07470000000000021,-19.537163051136158
-0.0757000000000001,-19.763516859114564
-0.07670000000000021,-19.93328221509837
-0.0777000000000001,-20.159636023076775
-0.07870000000000021,-20.329401379060574
-0.0797000000000001,-20.541608074040333
-0.08070000000000022,-20.72552054302279
-0.0817000000000001,-20.89528589900659
-0.08270000000000022,-21.065051254990397
-0.08370000000000011,-21.248963723972853
-0.08470000000000022,-21.376287740960702
-0.08570000000000011,-21.58849443594046
-0.08670000000000022,-21.772406904922917
-0.08770000000000011,-21.94217226090672
-0.08870000000000022,-22.15437895588647
-0.08970000000000011,-22.33829142486893
-0.09070000000000022,-22.550498119848687
-0.09170000000000011,-22.67782213683654
-0.09270000000000023,-22.861734605818995
-0.09370000000000012,-23.031499961802798
-0.09470000000000023,-23.15882397879065
-0.09570000000000012,-23.300295108777156
-0.09670000000000023,-23.51250180375691
-0.09770000000000012,-23.682267159740714
-0.09870000000000023,-23.86617962872317
-0.09970000000000012,-24.035944984706973
-0.10070000000000023,-24.20571034069078
-0.10170000000000012,-24.389622809673234
-0.10270000000000024,-24.516946826661083
-0.10370000000000013,-24.686712182644893
-0.10470000000000024,-24.814036199632742
-0.10570000000000013,-24.95550732961925
-0.10670000000000024,-25.0828313466071
-0.10770000000000013,-25.295038041586857
-0.10870000000000024,-25.43650917157336
-0.10970000000000013,-25.60627452755716
-0.11070000000000024,-25.77603988354097
-0.11170000000000013,-25.91751101352747
-0.11270000000000002,-26.087276369511276
-0.11370000000000013,-26.21460038649913
-0.11470000000000002,-26.34192440348698
-0.11570000000000014,-26.483395533473487
-0.11670000000000003,-26.65316088945729
-0.11770000000000014,-26.822926245441096
-0.11870000000000003,-27.00683871442355
-0.11970000000000014,-27.134162731411404
-0.12070000000000003,-27.303928087395207
-0.12170000000000014,-27.43125210438306
-0.12270000000000003,-27.572723234369565
-0.12370000000000014,-27.700047251357418
-0.12470000000000003,-27.827371268345274
-0.12570000000000014,-27.954695285333123
-0.12670000000000003,-28.09616641531963
-0.12770000000000015,-28.265931771303435
-0.12870000000000004,-28.435697127287238
-0.12970000000000015,-28.577168257273744
-0.13070000000000004,-28.746933613257543
-0.13170000000000015,-28.8742576302454
-0.13270000000000004,-29.001581647233255
-0.13370000000000015,-29.14305277721976
-0.13470000000000004,-29.22793545521166
-0.13570000000000015,-29.35525947219951
-0.13670000000000004,-29.482583489187363
-0.13770000000000016,-29.66649595816982
-0.13870000000000005,-29.836261314153624
-0.13970000000000016,-29.96358533114148
-0.14070000000000005,-30.147497800123933
-0.14170000000000016,-30.274821817111786
-0.14270000000000005,-30.359704495103685
-0.14370000000000016,-30.487028512091538
-0.14470000000000005,-30.614352529079397
-0.14570000000000016,-30.7558236590659
-0.14670000000000005,-30.88314767605375
-0.14770000000000016,-31.010471693041605
-0.14870000000000005,-31.19438416202406
-0.14970000000000017,-31.36414951800786
-0.15070000000000006,-31.49147353499572
-0.15170000000000017,-31.661238890979522
-0.15270000000000006,-31.76026868197007
-0.15370000000000017,-31.887592698957924
-0.15470000000000006,-32.01491671594578
-0.15570000000000017,-32.14224073293363
-0.15670000000000006,-32.283711862920136
-0.15770000000000017,-32.45347721890394
-0.15870000000000006,-32.62324257488775
-0.15970000000000018,-32.764713704874254
-0.16070000000000007,-32.892037721862096
-0.16170000000000018,-33.01936173884996
-0.16270000000000007,-33.18912709483376
-0.16370000000000018,-33.288156885824314
-0.16470000000000007,-33.41548090281216
-0.16570000000000018,-33.54280491980002
-0.16670000000000007,-33.670128936787876
-0.16770000000000018,-33.85404140577033
-0.16870000000000007,-33.98136542275818
-0.16970000000000018,-34.15113077874198
-0.17070000000000007,-34.278454795729836
-0.17170000000000019,-34.41992592571634
-0.17270000000000008,-34.5472499427042
-0.1737000000000002,-34.632132620696105
-0.17470000000000008,-34.75945663768395
-0.1757000000000002,-34.90092776767045
-0.17670000000000008,-35.02825178465831
-0.1777000000000002,-35.198017140642115
-0.17870000000000008,-35.32534115762997
-0.1797000000000002,-35.50925362661242
-0.18070000000000008,-35.636577643600276
-0.1817000000000002,-35.763901660588125
-0.18270000000000008,-35.90537279057463
-0.1837000000000002,-35.99025546856653
-0.1847000000000001,-36.07513814655844
-0.1857000000000002,-36.20246216354629
-0.1867000000000001,-36.329786180534136
-0.1877000000000002,-36.47125731052064
-0.1887000000000001,-36.5985813275085
-0.1897000000000002,-36.725905344496354
-0.1907000000000001,-36.8532293614842
-0.1917000000000001,-36.95225915247476
-0.19269999999999998,-37.037141830466666
-0.1937000000000001,-37.164465847454515
-0.19469999999999998,-37.249348525446415
-0.1957000000000001,-37.376672542434264
-0.19669999999999999,-37.51814367242077
-0.1977000000000001,-37.645467689408626
-0.1987,-37.77279170639648
-0.1997000000000001,-37.85767438438838
-0.2007,-37.99914551437489
-0.2017000000000001,-38.08402819236679
-0.2027,-38.211352209354644
-0.2037000000000001,-38.29623488734655
-0.2047,-38.38111756533845
-0.2057000000000001,-38.46600024333035
-0.2067,-38.607471373316855
-0.2077000000000001,-38.692354051308754
-0.2087,-38.81967806829661
-0.2097000000000001,-38.94700208528445
-0.2107,-39.046031876275016
-0.2117000000000001,-39.130914554266916
-0.2127,-39.173355893262865
-0.2137000000000001,-39.21579723225882
-0.2147,-39.258238571254765
-0.2157000000000001,-39.34312124924667
-0.2167,-39.47044526623452
-0.21770000000000012,-39.51288660523048
-0.2187,-39.56947505722508
-0.21970000000000012,-39.654357735216976
-0.2207,-39.654357735216976
-0.22170000000000012,-39.696799074212926
-0.2227,-39.739240413208876
-0.22370000000000012,-39.739240413208876
-0.2247,-39.739240413208876
-0.22570000000000012,-39.696799074212926
-0.2267,-39.739240413208876
-0.22770000000000012,-39.78168175220483
-0.22870000000000001,-39.82412309120078
-0.22970000000000013,-39.82412309120078
-0.23070000000000002,-39.82412309120078
-0.23170000000000013,-39.82412309120078
-0.23270000000000002,-39.78168175220483
-0.23370000000000013,-39.78168175220483
-0.23470000000000002,-39.739240413208876
-0.23570000000000013,-39.696799074212926
-0.23670000000000002,-39.654357735216976
-0.2376999999999999,-39.654357735216976
-0.23870000000000002,-39.654357735216976
-0.2396999999999999,-39.61191639622103
-0.24070000000000003,-39.56947505722508
-0.24169999999999991,-39.51288660523048
-0.24270000000000003,-39.42800392723857
-0.24369999999999992,-39.34312124924667
-0.24470000000000003,-39.258238571254765
-0.24569999999999992,-39.173355893262865
-0.24670000000000003,-39.08847321527096
-0.24769999999999992,-38.98944342428042
-0.24870000000000003,-38.94700208528445
-0.24969999999999992,-38.86211940729255
-0.25070000000000003,-38.734795390304704
-0.2516999999999999,-38.607471373316855
-0.25270000000000004,-38.46600024333035
-0.2536999999999999,-38.29623488734655
-0.25470000000000004,-38.16891087035869
-0.2556999999999999,-37.99914551437489
-0.25670000000000004,-37.85767438438838
-0.25769999999999993,-37.73035036740053
-0.25870000000000004,-37.60302635041268
-0.25969999999999993,-37.51814367242077
-0.26070000000000004,-37.334231203438314
-0.26169999999999993,-37.164465847454515
-0.26270000000000004,-36.99470049147071
-0.26369999999999993,-36.768346683492304
-0.26470000000000005,-36.5985813275085
-0.26569999999999994,-36.4288159715247
-0.26670000000000005,-36.244903502542236
-0.26769999999999994,-36.11757948555439
-0.26870000000000005,-35.90537279057463
-0.26969999999999994,-35.721460321592176
-0.27070000000000005,-35.55169496560837
-0.27169999999999994,-35.32534115762997
-0.27270000000000005,-35.11313446265021
-0.27369999999999994,-34.85848642867451
-0.27470000000000006,-34.67457395969205
-0.27569999999999995,-34.462367264712285
-0.27670000000000006,-34.278454795729836
-0.27769999999999995,-34.10868943974604
-0.27870000000000006,-33.89648274476628
-0.27969999999999995,-33.670128936787876
-0.28070000000000006,-33.50036358080407
-0.28169999999999995,-33.231568433829715
-0.28270000000000006,-33.01936173884996
-0.28369999999999995,-32.807155043870196
-0.28470000000000006,-32.53835989689585
-0.28569999999999995,-32.32615320191609
-0.28670000000000007,-32.09979939393769
-0.28769999999999996,-31.887592698957924
-0.28870000000000007,-31.661238890979522
-0.28969999999999996,-31.449032195999767
-0.29070000000000007,-31.23682550102001
-0.29169999999999996,-31.010471693041605
-0.29270000000000007,-30.7558236590659
-0.29369999999999996,-30.487028512091538
-0.2947000000000001,-30.274821817111786
-0.29569999999999996,-30.04846800913338
-0.2967000000000001,-29.836261314153624
-0.29769999999999996,-29.62405461917387
-0.2987000000000001,-29.440142150191413
-0.29969999999999997,-29.27037679420761
-0.3007000000000001,-29.058170099227848
-0.30169999999999997,-28.831816291249446
-0.3027000000000001,-28.662050935265643
-0.30369999999999997,-28.435697127287238
-0.3047000000000001,-28.22349043230748
-0.30569999999999997,-28.05372507632368
-0.3067000000000001,-27.869812607341224
-0.3077,-27.700047251357418
-0.3087000000000001,-27.572723234369565
-0.3097,-27.38881076538711
-0.3107000000000001,-27.261486748399253
-0.3117,-27.091721392415455
-0.3127000000000001,-26.907808923433
-0.3137,-26.738043567449193
-0.3147000000000001,-26.61071955046134
-0.3157,-26.440954194477534
-0.3167000000000001,-26.29948306449103
-0.3177,-26.21460038649913
-0.3187000000000001,-26.129717708507226
-0.3197,-26.044835030515326
-0.3207000000000001,-25.959952352523427
-0.3217,-25.81848122253692
-0.3227000000000001,-25.691157205549064
-0.3237,-25.563833188561212
-0.3247000000000001,-25.43650917157336
-0.3257,-25.337479380582806
-0.3267000000000001,-25.295038041586857
-0.3277,-25.210155363594954
-0.3287000000000001,-25.167714024599
-0.3297,-25.12527268560305
-0.3307000000000001,-25.0828313466071
-0.3317,-24.997948668615198
-0.3327000000000001,-24.9130659906233
-0.3337,-24.814036199632742
-0.3347000000000001,-24.771594860636792
-0.3357,-24.686712182644893
-0.3367000000000001,-24.686712182644893
-0.3377,-24.64427084364894
-0.3387000000000001,-24.686712182644893
-0.3397,-24.686712182644893
-0.3407000000000001,-24.686712182644893
-0.3417,-24.64427084364894
-0.3427000000000001,-24.601829504652986
-0.3437,-24.601829504652986
-0.3447000000000001,-24.601829504652986
-0.3457,-24.559388165657033
-0.3467000000000001,-24.559388165657033
-0.3477,-24.601829504652986
-0.3487000000000001,-24.601829504652986
-0.3497,-24.64427084364894
-0.3507000000000001,-24.64427084364894
-0.3517,-24.64427084364894
-0.3527000000000001,-24.686712182644893
-0.3537,-24.686712182644893
-0.3547000000000001,-24.686712182644893
-0.3557,-24.686712182644893
-0.35670000000000013,-24.729153521640843
-0.3577,-24.771594860636792
-0.35870000000000013,-24.870624651627345
-0.3597,-24.9130659906233
-0.36070000000000013,-24.95550732961925
-0.3617,-24.997948668615198
-0.3626999999999999,-25.0828313466071
-0.3637,-25.0828313466071
-0.3646999999999999,-25.12527268560305
-0.3657,-25.167714024599
-0.3666999999999999,-25.252596702590903
-0.3677,-25.337479380582806
-0.3686999999999999,-25.43650917157336
-0.36970000000000003,-25.521391849565262
-0.3706999999999999,-25.60627452755716
-0.37170000000000003,-25.691157205549064
-0.3726999999999999,-25.73359854454502
-0.37370000000000003,-25.77603988354097
-0.3746999999999999,-25.86092256153287
-0.37570000000000003,-25.91751101352747
-0.3766999999999999,-26.002393691519377
-0.37770000000000004,-26.087276369511276
-0.3786999999999999,-26.21460038649913
-0.37970000000000004,-26.29948306449103
-0.3806999999999999,-26.440954194477534
-0.38170000000000004,-26.525836872469437
-0.38269999999999993,-26.61071955046134
-0.38370000000000004,-26.65316088945729
-0.38469999999999993,-26.738043567449193
-0.38570000000000004,-26.822926245441096
-0.38669999999999993,-26.9643973754276
-0.38770000000000004,-27.091721392415455
-0.38869999999999993,-27.219045409403304
-0.38970000000000005,-27.303928087395207
-0.39069999999999994,-27.43125210438306
-0.39170000000000005,-27.487840556377662
-0.39269999999999994,-27.615164573365515
-0.39370000000000005,-27.700047251357418
-0.39469999999999994,-27.78492992934932
-0.39570000000000005,-27.869812607341224
-0.39669999999999994,-28.011283737327723
-0.39770000000000005,-28.13860775431558
-0.39869999999999994,-28.265931771303435
-0.39970000000000006,-28.393255788291288
-0.40069999999999995,-28.478138466283188
-0.40170000000000006,-28.619609596269694
-0.40269999999999995,-28.704492274261593
-0.40370000000000006,-28.789374952253496
-0.40469999999999995,-28.831816291249446
-0.40570000000000006,-28.959140308237306
-0.40669999999999995,-29.100611438223805
-0.40770000000000006,-29.22793545521166
-0.40869999999999995,-29.35525947219951
-0.40970000000000006,-29.482583489187363
-0.41069999999999995,-29.62405461917387
-0.41170000000000007,-29.708937297165768
-0.41269999999999996,-29.793819975157668
-0.41370000000000007,-29.878702653149578
-0.41469999999999996,-30.00602667013743
-0.41570000000000007,-30.10505646112798
-0.41669999999999996,-30.232380478115836
-0.41770000000000007,-30.359704495103685
-0.41869999999999996,-30.487028512091538
-0.4197000000000001,-30.614352529079397
-0.42069999999999996,-30.7558236590659
-0.4217000000000001,-30.8407063370578
-0.42269999999999996,-30.968030354045652
-0.4237000000000001,-31.052913032037555
-0.42469999999999997,-31.137795710029454
-0.4257000000000001,-31.27926684001596
-0.42669999999999997,-31.36414951800786
-0.4277000000000001,-31.533914873991666
-0.42869999999999997,-31.661238890979522
-0.4297000000000001,-31.802710020966025
-0.43069999999999997,-31.972475376949827
-0.4317000000000001,-32.09979939393769
-0.4327,-32.184682071929586
-0.4337000000000001,-32.283711862920136
-0.4347,-32.368594540912035
-0.4357000000000001,-32.49591855789989
-0.4367,-32.66568391388369
-0.4377000000000001,-32.764713704874254
-0.4387,-32.93447906085806
-0.4397000000000001,-33.06180307784591
-0.4407,-33.18912709483376
-0.4417000000000001,-33.330598224820264
-0.4427,-33.45792224180811
-0.4437000000000001,-33.54280491980002
-0.4447,-33.670128936787876
-0.4457000000000001,-33.755011614779775
-0.4467,-33.89648274476628
-0.4477000000000001,-34.02380676175414
-0.4487,-34.236013456733886
-0.4497000000000001,-34.377484586720385
-0.4507,-34.50480860370825
-0.4517000000000001,-34.67457395969205
-0.4527,-34.8018979766799
-0.4537000000000001,-34.90092776767045
-0.4547,-35.02825178465831
-0.4557000000000001,-35.15557580164616
-0.4567,-35.32534115762997
-0.4577000000000001,-35.50925362661242
-0.4587,-35.679018982596226
-0.4597000000000001,-35.90537279057463
-0.4607,-36.11757948555439
-0.4617000000000001,-36.28734484153819
-0.4627,-36.5136986495166
-0.4637000000000001,-36.6834640055004
-0.4647,-36.89567070048016
-0.4657000000000001,-37.122024508458566
-0.4667,-37.376672542434264
-0.4677000000000001,-37.687909028404576
-0.4687,-37.99914551437489
-0.4697000000000001,-38.33867622634249
-0.4707,-38.6499127123128
-0.4717000000000001,-39.046031876275016
-0.4727,-39.42800392723857
-0.4737000000000001,-39.82412309120078
-0.4747,-40.26268359415894
-0.4757000000000001,-40.78612677510901
-0.4767,-41.30956995605907
-0.4777000000000001,-41.91789581500104
-0.4787,-42.568663012938956
-0.4797000000000001,-43.27601866287147
-0.4807,-44.011668538801295
-0.48170000000000013,-44.80390686672572
-0.4827,-45.624439420647434
-0.48370000000000013,-46.544001765559706
-0.4847,-47.506005449467935
-0.48570000000000013,-48.59533315036401
-0.4867,-48.93486386233162
-0.48570000000000013,-48.114331308409895
-0.4847,-47.71821214444768
-0.48370000000000013,-47.633329466455784
-0.4827,-47.67577080545174
-0.48170000000000013,-47.84553616143554
-0.4807,-48.156772647405845
-0.4797000000000001,-48.55289181136806
-0.4787,-48.93486386233162
-0.4777000000000001,-49.373424365289786
-0.4767,-49.85442620724389
-0.4757000000000001,-50.37786938819396
-0.4747,-50.85887123014807
-0.4737000000000001,-51.38231441109813
-0.4727,-51.82087491405629
-0.4717000000000001,-52.25943541701445
-0.4707,-52.64140746797801
-0.4697000000000001,-53.03752663194023
-0.4687,-53.433645795902436
-0.4677000000000001,-53.7873236208687
-0.4667,-54.16929567183226
-0.4657000000000001,-54.52297349679851
-0.4647,-54.834209982768826
