Potential V vs RHE, Current mA cm-2
0.013299999999999867,-0.04582249900262853
0.012299999999999978,-1.0054353208140816
0.011299999999999866,-1.6156003044458718
0.010299999999999976,-2.1390434853959355
0.009299999999999864,-2.618630616050183
0.008299999999999974,-3.1420737970002466
0.007299999999999862,-3.447651437771094
0.006299999999999972,-3.6655169779503103
0.00529999999999986,-3.6655169779503103
0.0042999999999999705,-3.7532290785419424
0.0032999999999998586,-3.927238568425342
0.0022999999999999687,-4.23281620919619
0.0012999999999998568,-4.494537799671222
0.00029999999999996696,-4.668547289554621
-0.000700000000000145,-4.712403339850438
-0.0017000000000000348,-4.756259390146253
-0.0027000000000001467,-4.800115440442069
-0.0037000000000000366,-4.9302688800296535
-0.0047000000000001485,-5.191990470504685
-0.005700000000000038,-5.411270721983764
-0.00670000000000015,-5.497568111275533
-0.00770000000000004,-5.497568111275533
-0.008700000000000152,-5.453712060979717
-0.009700000000000042,-5.5414241615713475
-0.010700000000000154,-5.759289701750564
-0.011700000000000044,-5.977155241929781
-0.012700000000000156,-6.152579443113044
-0.013700000000000045,-6.238876832404812
-0.014700000000000157,-6.238876832404812
-0.015700000000000047,-6.196435493408861
-0.01670000000000016,-6.326588932996443
-0.01770000000000005,-6.54445447317566
-0.01870000000000016,-6.806176063650692
-0.01970000000000005,-6.93774421453814
-0.020700000000000163,-6.981600264833956
-0.021700000000000053,-6.93774421453814
-0.022700000000000164,-7.024041603829907
-0.023700000000000054,-7.155609754717355
-0.024700000000000166,-7.461187395488204
-0.025700000000000056,-7.679052935667419
-0.026700000000000168,-7.809206375255003
-0.027700000000000058,-7.7653503249591855
-0.02870000000000017,-7.722908985963235
-0.02970000000000006,-7.809206375255003
-0.03070000000000017,-8.027071915434218
-0.03170000000000006,-8.288793505909249
-0.03270000000000017,-8.464217707092514
-0.03370000000000006,-8.55051509638428
-0.034700000000000175,-8.594371146680096
-0.035700000000000065,-8.638227196975913
-0.03670000000000018,-8.812236686859313
-0.03770000000000007,-9.11781432763016
-0.03870000000000018,-9.423391968401008
-0.03970000000000007,-9.59740145828441
-0.04070000000000018,-9.59740145828441
-0.04170000000000007,-9.55496011928846
-0.04270000000000018,-9.59740145828441
-0.04370000000000007,-9.81668170976349
-0.044700000000000184,-10.034547249942705
-0.045700000000000074,-10.296268840417738
-0.046700000000000186,-10.382566229709504
-0.047700000000000076,-10.42642228000532
-0.04870000000000019,-10.382566229709504
-0.04970000000000008,-10.514134380596953
-0.05070000000000019,-10.819712021367803
-0.05170000000000008,-11.1677310011346
-0.05270000000000019,-11.42945259160963
-0.05370000000000008,-11.604876792792895
-0.05470000000000019,-11.604876792792895
-0.05570000000000008,-11.604876792792895
-0.056700000000000195,-11.73503023238048
-0.057700000000000085,-11.952895772559694
-0.058700000000000196,-12.258473413330542
-0.059700000000000086,-12.432482903213943
-0.0607000000000002,-12.476338953509758
-0.06170000000000009,-12.520195003805576
-0.0627000000000002,-12.651763154693022
-0.06370000000000009,-12.913484745168056
-0.0647000000000002,-13.30535977523067
-0.06570000000000009,-13.610937416001518
-0.0667000000000002,-13.784946905884919
-0.0677000000000001,-13.872659006476551
-0.0687000000000002,-13.828802956180734
-0.0697000000000001,-13.872659006476551
-0.07070000000000021,-14.090524546655764
-0.0717000000000001,-14.345172580631472
-0.07270000000000021,-14.61396772760583
-0.0737000000000001,-14.741291744593681
-0.07470000000000021,-14.783733083589633
-0.0757000000000001,-14.868615761581536
-0.07670000000000021,-15.05252823056399
-0.0777000000000001,-15.349617603535648
-0.07870000000000021,-15.70329542850191
-0.0797000000000001,-15.91550212348166
-0.08070000000000022,-16.056973253468165
-0.0817000000000001,-16.099414592464115
-0.08270000000000022,-16.22673860945197
-0.08370000000000011,-16.396503965435777
-0.08470000000000022,-16.665299112410132
-0.08570000000000011,-16.919947146385837
-0.08670000000000022,-17.103859615368293
-0.08770000000000011,-17.103859615368293
-0.08870000000000022,-17.103859615368293
-0.08970000000000011,-17.231183632356142
-0.09070000000000022,-17.48583166633185
-0.09170000000000011,-17.839509491298113
-0.09270000000000023,-18.06586329927652
-0.09370000000000012,-18.23562865526032
-0.09470000000000023,-18.27806999425627
-0.09570000000000012,-18.320511333252224
-0.09670000000000023,-18.44783535024008
-0.09770000000000012,-18.716630497214435
-0.09870000000000023,-19.01371987018609
-0.09970000000000012,-19.155191000172596
-0.10070000000000023,-19.155191000172596
-0.10170000000000012,-19.112749661176647
-0.10270000000000024,-19.197632339168546
-0.10370000000000013,-19.49472171214021
-0.10470000000000024,-19.93328221509837
-0.10570000000000013,-20.286960040064624
-0.10670000000000024,-20.541608074040333
-0.10770000000000013,-20.626490752032236
-0.10870000000000024,-20.626490752032236
-0.10970000000000013,-20.683079204026836
-0.11070000000000024,-20.85284456001064
-0.11170000000000013,-21.107492593986347
-0.11270000000000002,-21.418729079956652
-0.11370000000000013,-21.58849443594046
-0.11470000000000002,-21.67337711393236
-0.11570000000000014,-21.729965565926964
-0.11670000000000003,-21.98461359990267
-0.11770000000000014,-22.33829142486893
-0.11870000000000003,-22.67782213683654
-0.11970000000000014,-22.904175944814945
-0.12070000000000003,-22.946617283810895
-0.12170000000000014,-22.946617283810895
-0.12270000000000003,-23.031499961802798
-0.12370000000000014,-23.2012653177866
-0.12470000000000003,-23.47006046476096
-0.12570000000000014,-23.724708498736668
-0.12670000000000003,-23.951062306715073
-0.12770000000000015,-24.035944984706973
-0.12870000000000004,-24.035944984706973
-0.12970000000000015,-24.16326900169483
-0.13070000000000004,-24.432064148669184
-0.13170000000000015,-24.814036199632742
-0.13270000000000004,-25.167714024599
-0.13370000000000015,-25.39406783257741
-0.13470000000000004,-25.478950510569312
-0.13570000000000015,-25.563833188561212
-0.13670000000000004,-25.73359854454502
-0.13770000000000016,-26.087276369511276
-0.13870000000000005,-26.38436574248293
-0.13970000000000016,-26.568278211465387
-0.14070000000000005,-26.568278211465387
-0.14170000000000016,-26.525836872469437
-0.14270000000000005,-26.568278211465387
-0.14370000000000016,-26.822926245441096
-0.14470000000000005,-27.176604070407354
-0.14570000000000016,-27.572723234369565
-0.14670000000000005,-27.912253946337174
-0.14770000000000016,-28.13860775431558
-0.14870000000000005,-28.265931771303435
-0.14970000000000017,-28.393255788291288
-0.15070000000000006,-28.662050935265643
-0.15170000000000017,-29.058170099227848
-0.15270000000000006,-29.39770081119546
-0.15370000000000017,-29.525024828183312
-0.15470000000000006,-29.525024828183312
-0.15570000000000017,-29.525024828183312
-0.15670000000000006,-29.708937297165768
-0.15770000000000017,-30.00602667013743
-0.15870000000000006,-30.402145834099635
-0.15970000000000018,-30.670940981073993
-0.16070000000000007,-30.88314767605375
-0.16170000000000018,-30.968030354045652
-0.16270000000000007,-31.137795710029454
-0.16370000000000018,-31.449032195999767
-0.16470000000000007,-31.887592698957924
-0.16570000000000018,-32.283711862920136
-0.16670000000000007,-32.53835989689585
-0.16770000000000018,-32.62324257488775
-0.16870000000000007,-32.66568391388369
-0.16970000000000018,-32.764713704874254
-0.17070000000000007,-33.06180307784591
-0.17170000000000019,-33.45792224180811
-0.17270000000000008,-33.81160006677438
-0.1737000000000002,-34.06624810075008
-0.17470000000000008,-34.15113077874198
-0.1757000000000002,-34.33504324772444
-0.17670000000000008,-34.5472499427042
-0.1777000000000002,-34.94336910666641
-0.17870000000000008,-35.38192960962457
-0.1797000000000002,-35.679018982596226
-0.18070000000000008,-35.848784338580025
-0.1817000000000002,-35.94781412957058
-0.18270000000000008,-36.07513814655844
-0.1837000000000002,-36.37222751953009
-0.1847000000000001,-36.768346683492304
-0.1857000000000002,-37.206907186450465
-0.1867000000000001,-37.47570233342482
-0.1877000000000002,-37.56058501141672
-0.1887000000000001,-37.60302635041268
-0.1897000000000002,-37.77279170639648
-0.1907000000000001,-38.04158685337084
-0.1917000000000001,-38.42355890433439
-0.19269999999999998,-38.777236729300654
-0.1937000000000001,-38.98944342428042
-0.19469999999999998,-39.173355893262865
-0.1957000000000001,-39.30067991025072
-0.19669999999999999,-39.51288660523048
-0.1977000000000001,-39.78168175220483
-0.1987,-40.135359577171094
-0.1997000000000001,-40.3900076111468
-0.2007,-40.65880275812115
-0.2017000000000001,-40.828568114104954
-0.2027,-41.04077480908471
-0.2037000000000001,-41.30956995605907
-0.2047,-41.56421799003478
-0.2057000000000001,-41.83301313700913
-0.2067,-42.00277849299294
-0.2077000000000001,-42.00277849299294
-0.2087,-41.96033715399699
-0.2097000000000001,-42.087661170984845
-0.2107,-42.568663012938956
-0.2117000000000001,-43.09210619388902
-0.2127,-43.57310803584313
-0.2137000000000001,-43.79946184382153
-0.2147,-43.84190318281749
-0.2157000000000001,-43.84190318281749
-0.2167,-43.88434452181344
-0.21770000000000012,-43.96922719980534
-0.2187,-44.181433894785094
-0.21970000000000012,-44.36534636376755
-0.2207,-44.4077877027635
-0.22170000000000012,-44.4077877027635
-0.2227,-44.4077877027635
-0.22370000000000012,-44.535111719751356
-0.2247,-44.80390686672572
-0.22570000000000012,-45.05855490070142
-0.2267,-45.22832025668522
-0.22770000000000012,-45.22832025668522
-0.22870000000000001,-45.143437578693316
-0.22970000000000013,-45.22832025668522
-0.23070000000000002,-45.45467406466363
-0.23170000000000013,-45.70932209863933
-0.23270000000000002,-45.85079322862584
-0.23370000000000013,-45.79420477663124
-0.23470000000000002,-45.70932209863933
-0.23570000000000013,-45.75176343763528
-0.23670000000000002,-45.89323456762179
-0.2376999999999999,-46.2327652795894
-0.23870000000000002,-46.501560426563756
-0.2396999999999999,-46.586443104555656
-0.24070000000000003,-46.45911908756781
-0.24169999999999991,-46.10544126260155
-0.24270000000000003,-45.85079322862584
-0.24369999999999992,-45.85079322862584
-0.24470000000000003,-45.93567590661774
-0.24569999999999992,-46.062999923605595
-0.24670000000000003,-46.147882601597495
-0.24769999999999992,-46.062999923605595
-0.24870000000000003,-46.062999923605595
-0.24969999999999992,-46.10544126260155
-0.25070000000000003,-46.27520661858535
-0.2516999999999999,-46.45911908756781
-0.25270000000000004,-46.586443104555656
-0.2536999999999999,-46.37423640957591
-0.25470000000000004,-45.93567590661774
-0.2556999999999999,-45.412232725667685
-0.25670000000000004,-44.97367222270952
-0.25769999999999993,-44.704877075735155
-0.25870000000000004,-44.66243573673921
-0.25969999999999993,-44.74731841473111
-0.26070000000000004,-44.80390686672572
-0.26169999999999993,-44.74731841473111
-0.26270000000000004,-44.66243573673921
-0.26369999999999993,-44.619994397743255
-0.26470000000000005,-44.577553058747306
-0.26569999999999994,-44.45022904175945
-0.26670000000000005,-44.138992555789144
-0.26769999999999994,-43.70043205283099
-0.26870000000000005,-43.17698887188092
-0.26969999999999994,-42.87989949890926
-0.27070000000000005,-42.71013414292546
-0.27169999999999994,-42.752575481921404
-0.27270000000000005,-42.71013414292546
-0.27369999999999994,-42.6111043519349
-0.27470000000000006,-42.31401497896325
-0.27569999999999995,-42.00277849299294
-0.27670000000000006,-41.74813045901723
-0.27769999999999995,-41.56421799003478
-0.27870000000000006,-41.39445263405098
-0.27969999999999995,-41.083216148080666
-0.28070000000000006,-40.65880275812115
-0.28169999999999995,-40.220242255162994
-0.28270000000000006,-39.86656443019674
-0.28369999999999995,-39.78168175220483
-0.28470000000000006,-39.739240413208876
-0.28569999999999995,-39.696799074212926
-0.28670000000000007,-39.61191639622103
-0.28769999999999996,-39.258238571254765
-0.28870000000000007,-38.81967806829661
-0.28969999999999996,-38.522588695324956
-0.29070000000000007,-38.29623488734655
-0.29169999999999996,-38.16891087035869
-0.29270000000000007,-38.04158685337084
-0.29369999999999996,-37.687909028404576
-0.2947000000000001,-37.291789864442364
-0.29569999999999996,-36.89567070048016
-0.2967000000000001,-36.725905344496354
-0.29769999999999996,-36.6834640055004
-0.2987000000000001,-36.64102266650445
-0.29969999999999997,-36.47125731052064
-0.3007000000000001,-36.20246216354629
-0.30169999999999997,-35.806342999584075
-0.3027000000000001,-35.50925362661242
-0.30369999999999997,-35.32534115762997
-0.3047000000000001,-35.240458479638065
-0.30569999999999997,-35.15557580164616
-0.3067000000000001,-34.94336910666641
-0.3077,-34.632132620696105
-0.3087000000000001,-34.236013456733886
-0.3097,-34.06624810075008
-0.3107000000000001,-34.06624810075008
-0.3117,-34.15113077874198
-0.3127000000000001,-34.10868943974604
-0.3137,-33.93892408376223
-0.3147000000000001,-33.58524625879597
-0.3157,-33.330598224820264
-0.3167000000000001,-33.14668575583781
-0.3177,-33.14668575583781
-0.3187000000000001,-33.18912709483376
-0.3197,-33.14668575583781
-0.3207000000000001,-32.97692039985401
-0.3217,-32.807155043870196
-0.3227000000000001,-32.66568391388369
-0.3237,-32.62324257488775
-0.3247000000000001,-32.70812525287965
-0.3257,-32.807155043870196
-0.3267000000000001,-32.807155043870196
-0.3277,-32.70812525287965
-0.3287000000000001,-32.62324257488775
-0.3297,-32.58080123589179
-0.3307000000000001,-32.58080123589179
-0.3317,-32.66568391388369
-0.3327000000000001,-32.764713704874254
-0.3337,-32.70812525287965
-0.3347000000000001,-32.66568391388369
-0.3357,-32.62324257488775
-0.3367000000000001,-32.66568391388369
-0.3377,-32.892037721862096
-0.3387000000000001,-33.14668575583781
-0.3397,-33.288156885824314
-0.3407000000000001,-33.231568433829715
-0.3417,-33.10424441684186
-0.3427000000000001,-33.10424441684186
-0.3437,-33.231568433829715
-0.3447000000000001,-33.54280491980002
-0.3457,-33.755011614779775
-0.3467000000000001,-33.93892408376223
-0.3477,-33.93892408376223
-0.3487000000000001,-33.98136542275818
-0.3497,-34.10868943974604
-0.3507000000000001,-34.377484586720385
-0.3517,-34.717015298688004
-0.3527000000000001,-34.98581044566235
-0.3537,-35.11313446265021
-0.3547000000000001,-35.198017140642115
-0.3557,-35.38192960962457
-0.35670000000000013,-35.636577643600276
-0.3577,-36.03269680756248
-0.35870000000000013,-36.37222751953009
-0.3597,-36.5985813275085
-0.36070000000000013,-36.64102266650445
-0.3617,-36.6834640055004
-0.3626999999999999,-36.725905344496354
-0.3637,-36.99470049147071
-0.3646999999999999,-37.334231203438314
-0.3657,-37.687909028404576
-0.3666999999999999,-37.90011572338433
-0.3677,-38.08402819236679
-0.3686999999999999,-38.16891087035869
-0.36970000000000003,-38.46600024333035
-0.3706999999999999,-38.94700208528445
-0.37170000000000003,-39.51288660523048
-0.3726999999999999,-39.99388844718459
-0.37370000000000003,-40.30512493315489
-0.3746999999999999,-40.3900076111468
-0.37570000000000003,-40.51733162813464
-0.3766999999999999,-40.828568114104954
-0.37770000000000004,-41.182245939071215
-0.3786999999999999,-41.56421799003478
-0.37970000000000004,-41.79057179801318
-0.3806999999999999,-41.87545447600508
-0.38170000000000004,-41.91789581500104
-0.38269999999999993,-42.186690961975394
-0.38370000000000004,-42.526221673943
-0.38469999999999993,-43.04966485489307
-0.38570000000000004,-43.61554937483908
-0.38669999999999993,-44.096551216793195
-0.38770000000000004,-44.36534636376755
-0.38869999999999993,-44.577553058747306
-0.38970000000000005,-44.84634820572166
-0.39069999999999994,-45.18587891768927
-0.39170000000000005,-45.581998081651484
-0.39269999999999994,-45.93567590661774
-0.39370000000000005,-46.062999923605595
-0.39469999999999994,-46.19032394059345
-0.39570000000000005,-46.45911908756781
-0.39669999999999994,-46.84109113853137
-0.39770000000000005,-47.36453431948143
-0.39869999999999994,-47.84553616143554
-0.39970000000000006,-48.1992139864018
-0.40069999999999995,-48.41142068138156
-0.40170000000000006,-48.59533315036401
-0.40269999999999995,-48.72265716735186
-0.40370000000000006,-49.03389365332217
-0.40469999999999995,-49.373424365289786
-0.40570000000000006,-49.81198486824794
-0.40669999999999995,-50.0807800152223
-0.40770000000000006,-50.335428049198
-0.40869999999999995,-50.50519340518181
-0.40970000000000006,-50.85887123014807
-0.41069999999999995,-51.21254905511432
-0.41170000000000007,-51.73599223606439
-0.41269999999999996,-52.075522948032
-0.41370000000000007,-52.30187675601041
-0.41469999999999996,-52.42920077299826
-0.41570000000000007,-52.55652478998611
-0.41669999999999996,-52.82531993696047
-0.41770000000000007,-53.22143910092268
-0.41869999999999996,-53.68829382987814
-0.4197000000000001,-53.999530315848446
-0.42069999999999996,-54.2117370108282
-0.4217000000000001,-54.31076680181876
-0.42269999999999996,-54.65029751378637
-0.4237000000000001,-55.17374069473642
-0.42469999999999997,-55.881096344668954
-0.4257000000000001,-56.404539525619015
-0.42669999999999997,-56.74407023758662
-0.4277000000000001,-56.97042404556503
-0.42869999999999997,-57.26751341853669
-0.4297000000000001,-57.79095659948675
-0.43069999999999997,-58.583194927411164
-0.4317000000000001,-59.31884480334099
-0.4327,-60.11108313126541
-0.4337000000000001,-60.761850329203334
-0.4347,-61.412617527141244
-0.4357000000000001,-62.11997317707376
-0.4367,-62.89806439199953
-0.4377000000000001,-63.860068075907755
-0.4387,-64.99183711579978
-0.4397000000000001,-66.12360615569182
-0.4407,-67.17049251759194
-0.4417000000000001,-68.30226155748396
-0.4427,-69.57550172736251
-0.4437000000000001,-71.1458312702127
-0.4447,-72.92836750804264
-0.4457000000000001,-74.72505085887124
-0.4467,-76.42270441870929
-0.4477000000000001,-78.07791663955136
-0.4487,-79.73312886039348
-0.4497000000000001,-81.61469488921396
-0.4507,-83.60943782202366
-0.4517000000000001,-85.70321054582392
-0.4527,-87.66965925263632
-0.4537000000000001,-89.55122528145681
-0.4547,-91.24887884129487
-0.4557000000000001,-92.94653240113291
-0.4567,-94.8280984299534
-0.4577000000000001,-96.92187115375367
-0.4587,-99.05808521654988
-0.4597000000000001,-101.23674061834203
-0.4607,-103.24563066415038
-0.4617000000000001,-105.11304957997223
-0.4627,-106.99461560879273
-0.4637000000000001,-108.91862297660917
-0.4647,-110.92751302241753
-0.4657000000000001,-112.83737327723534
-0.4667,-114.53502683707337
-0.4677000000000001,-116.06291504092759
-0.4687,-117.59080324478184
-0.4697000000000001,-119.16113278763203
-0.4707,-120.85878634747009
-0.4717000000000001,-122.61302835930273
-0.4727,-124.43800593612862
-0.4737000000000001,-126.09321815697072
-0.4747,-127.72013615181551
-0.4757000000000001,-129.19143590367514
-0.4767,-130.67688276853346
-0.4777000000000001,-132.11988829439576
-0.4787,-133.1667746562959
-0.4797000000000001,-134.34098503518388
-0.4807,-135.47275407507593
-0.48170000000000013,-136.8733182619423
-0.4827,-138.40120646579655
-0.48370000000000013,-139.9290946696508
-0.4847,-141.61260111649017
-0.48570000000000013,-143.0273124163552
-0.4867,-143.3102546763282
-0.48570000000000013,-142.03701450644968
-0.4847,-140.2686253816184
-0.48370000000000013,-138.8397669687547
-0.4827,-137.6089681378721
-0.48170000000000013,-136.51964043697603
-0.4807,-135.34543005808808
-0.4797000000000001,-134.17121967920008
-0.4787,-132.8555381703256
-0.4777000000000001,-131.55400377444977
-0.4767,-130.19588092657932
-0.4757000000000001,-129.0641118866873
-0.4747,-127.93234284679528
-0.4737000000000001,-126.75813246790726
-0.4727,-125.44245095903281
-0.4717000000000001,-124.09847522416102
-0.4707,-122.82523505428249
-0.4697000000000001,-121.77834869238235
-0.4687,-120.73146233048222
-0.4677000000000001,-119.68457596858211
-0.4667,-118.24157044271978
-0.4657000000000001,-116.94003604684394
-0.4647,-115.45458918198564
-0.4637000000000001,-114.19549612510575
