Apr. 30, 2025   20:44:52
Cyclic Voltammetry
File: c:/users/guazh/data/banditlqround7_x0exp1108_r5/2025-04-30-exp1200\exp1200-2025-04-30t20_31_55-h2koh\exp1200_cv_sr_50mvs_efin_-1600mv.bin
Data Source:  Experiment
Instrument Model:  CHI760E
Header: CV ran at 50 mVs
Note: 

Init E (V) = -1
High E (V) = -1
Low E (V) = -1.6
Final E (V) = -1
Init P/N = N
Scan Rate (V/s) = 0.05
Segment = 3
Sample Interval (V) = 0.001
Quiet Time (sec) = 2
Sensitivity (A/V) = 0.01
Comp R (ohm) = 1.1

Results:

Channel 1:
Segment 1:

Segment 2:

Segment 3:

Potential/V, Current/A

-1.000, 7.891e-6
-1.001, 1.625e-5
-1.002, 1.944e-5
-1.003, 2.184e-5
-1.004, 2.324e-5
-1.005, 2.291e-5
-1.006, 2.276e-5
-1.007, 2.454e-5
-1.008, 2.613e-5
-1.009, 2.676e-5
-1.010, 2.636e-5
-1.011, 2.590e-5
-1.012, 2.744e-5
-1.013, 2.890e-5
-1.014, 2.918e-5
-1.015, 2.871e-5
-1.016, 2.805e-5
-1.017, 2.937e-5
-1.018, 3.088e-5
-1.019, 3.107e-5
-1.020, 3.045e-5
-1.021, 2.972e-5
-1.022, 3.091e-5
-1.023, 3.243e-5
-1.024, 3.281e-5
-1.025, 3.169e-5
-1.026, 3.134e-5
-1.027, 3.218e-5
-1.028, 3.388e-5
-1.029, 3.375e-5
-1.030, 3.284e-5
-1.031, 3.244e-5
-1.032, 3.334e-5
-1.033, 3.460e-5
-1.034, 3.501e-5
-1.035, 3.363e-5
-1.036, 3.327e-5
-1.037, 3.435e-5
-1.038, 3.555e-5
-1.039, 3.589e-5
-1.040, 3.458e-5
-1.041, 3.395e-5
-1.042, 3.501e-5
-1.043, 3.625e-5
-1.044, 3.639e-5
-1.045, 3.524e-5
-1.046, 3.460e-5
-1.047, 3.562e-5
-1.048, 3.676e-5
-1.049, 3.698e-5
-1.050, 3.591e-5
-1.051, 3.524e-5
-1.052, 3.644e-5
-1.053, 3.740e-5
-1.054, 3.748e-5
-1.055, 3.656e-5
-1.056, 3.555e-5
-1.057, 3.663e-5
-1.058, 3.799e-5
-1.059, 3.785e-5
-1.060, 3.697e-5
-1.061, 3.609e-5
-1.062, 3.708e-5
-1.063, 3.858e-5
-1.064, 3.819e-5
-1.065, 3.729e-5
-1.066, 3.668e-5
-1.067, 3.736e-5
-1.068, 3.866e-5
-1.069, 3.879e-5
-1.070, 3.755e-5
-1.071, 3.706e-5
-1.072, 3.763e-5
-1.073, 3.892e-5
-1.074, 3.908e-5
-1.075, 3.815e-5
-1.076, 3.742e-5
-1.077, 3.815e-5
-1.078, 3.938e-5
-1.079, 3.952e-5
-1.080, 3.793e-5
-1.081, 3.757e-5
-1.082, 3.853e-5
-1.083, 3.943e-5
-1.084, 3.952e-5
-1.085, 3.838e-5
-1.086, 3.772e-5
-1.087, 3.863e-5
-1.088, 3.980e-5
-1.089, 3.970e-5
-1.090, 3.885e-5
-1.091, 3.794e-5
-1.092, 3.901e-5
-1.093, 4.004e-5
-1.094, 3.986e-5
-1.095, 3.900e-5
-1.096, 3.816e-5
-1.097, 3.914e-5
-1.098, 4.044e-5
-1.099, 4.010e-5
-1.100, 3.909e-5
-1.101, 3.854e-5
-1.102, 3.910e-5
-1.103, 4.062e-5
-1.104, 4.029e-5
-1.105, 3.920e-5
-1.106, 3.871e-5
-1.107, 3.945e-5
-1.108, 4.081e-5
-1.109, 4.058e-5
-1.110, 3.947e-5
-1.111, 3.906e-5
-1.112, 3.962e-5
-1.113, 4.092e-5
-1.114, 4.091e-5
-1.115, 3.967e-5
-1.116, 3.920e-5
-1.117, 4.002e-5
-1.118, 4.106e-5
-1.119, 4.128e-5
-1.120, 3.981e-5
-1.121, 3.930e-5
-1.122, 4.015e-5
-1.123, 4.134e-5
-1.124, 4.135e-5
-1.125, 4.018e-5
-1.126, 3.958e-5
-1.127, 4.068e-5
-1.128, 4.150e-5
-1.129, 4.148e-5
-1.130, 4.067e-5
-1.131, 3.972e-5
-1.132, 4.076e-5
-1.133, 4.185e-5
-1.134, 4.170e-5
-1.135, 4.079e-5
-1.136, 3.989e-5
-1.137, 4.093e-5
-1.138, 4.216e-5
-1.139, 4.208e-5
-1.140, 4.096e-5
-1.141, 4.031e-5
-1.142, 4.106e-5
-1.143, 4.253e-5
-1.144, 4.213e-5
-1.145, 4.112e-5
-1.146, 4.067e-5
-1.147, 4.130e-5
-1.148, 4.271e-5
-1.149, 4.252e-5
-1.150, 4.134e-5
-1.151, 4.093e-5
-1.152, 4.183e-5
-1.153, 4.299e-5
-1.154, 4.291e-5
-1.155, 4.158e-5
-1.156, 4.136e-5
-1.157, 4.202e-5
-1.158, 4.318e-5
-1.159, 4.330e-5
-1.160, 4.199e-5
-1.161, 4.148e-5
-1.162, 4.257e-5
-1.163, 4.357e-5
-1.164, 4.354e-5
-1.165, 4.240e-5
-1.166, 4.182e-5
-1.167, 4.305e-5
-1.168, 4.391e-5
-1.169, 4.392e-5
-1.170, 4.281e-5
-1.171, 4.222e-5
-1.172, 4.337e-5
-1.173, 4.442e-5
-1.174, 4.439e-5
-1.175, 4.345e-5
-1.176, 4.278e-5
-1.177, 4.390e-5
-1.178, 4.519e-5
-1.179, 4.477e-5
-1.180, 4.394e-5
-1.181, 4.329e-5
-1.182, 4.432e-5
-1.183, 4.564e-5
-1.184, 4.532e-5
-1.185, 4.422e-5
-1.186, 4.408e-5
-1.187, 4.481e-5
-1.188, 4.625e-5
-1.189, 4.594e-5
-1.190, 4.500e-5
-1.191, 4.474e-5
-1.192, 4.569e-5
-1.193, 4.684e-5
-1.194, 4.708e-5
-1.195, 4.580e-5
-1.196, 4.551e-5
-1.197, 4.654e-5
-1.198, 4.776e-5
-1.199, 4.788e-5
-1.200, 4.668e-5
-1.201, 4.627e-5
-1.202, 4.768e-5
-1.203, 4.874e-5
-1.204, 4.910e-5
-1.205, 4.788e-5
-1.206, 4.757e-5
-1.207, 4.872e-5
-1.208, 5.005e-5
-1.209, 5.015e-5
-1.210, 4.926e-5
-1.211, 4.864e-5
-1.212, 5.010e-5
-1.213, 5.132e-5
-1.214, 5.140e-5
-1.215, 5.067e-5
-1.216, 5.035e-5
-1.217, 5.159e-5
-1.218, 5.307e-5
-1.219, 5.306e-5
-1.220, 5.246e-5
-1.221, 5.229e-5
-1.222, 5.329e-5
-1.223, 5.522e-5
-1.224, 5.493e-5
-1.225, 5.416e-5
-1.226, 5.432e-5
-1.227, 5.551e-5
-1.228, 5.745e-5
-1.229, 5.780e-5
-1.230, 5.674e-5
-1.231, 5.698e-5
-1.232, 5.823e-5
-1.233, 5.984e-5
-1.234, 6.021e-5
-1.235, 5.965e-5
-1.236, 5.965e-5
-1.237, 6.117e-5
-1.238, 6.278e-5
-1.239, 6.342e-5
-1.240, 6.250e-5
-1.241, 6.288e-5
-1.242, 6.458e-5
-1.243, 6.610e-5
-1.244, 6.688e-5
-1.245, 6.641e-5
-1.246, 6.664e-5
-1.247, 6.845e-5
-1.248, 7.030e-5
-1.249, 7.088e-5
-1.250, 7.067e-5
-1.251, 7.093e-5
-1.252, 7.289e-5
-1.253, 7.486e-5
-1.254, 7.568e-5
-1.255, 7.565e-5
-1.256, 7.597e-5
-1.257, 7.805e-5
-1.258, 8.026e-5
-1.259, 8.115e-5
-1.260, 8.109e-5
-1.261, 8.189e-5
-1.262, 8.386e-5
-1.263, 8.642e-5
-1.264, 8.734e-5
-1.265, 8.746e-5
-1.266, 8.856e-5
-1.267, 9.075e-5
-1.268, 9.322e-5
-1.269, 9.470e-5
-1.270, 9.475e-5
-1.271, 9.634e-5
-1.272, 9.842e-5
-1.273, 1.012e-4
-1.274, 1.030e-4
-1.275, 1.033e-4
-1.276, 1.049e-4
-1.277, 1.072e-4
-1.278, 1.102e-4
-1.279, 1.121e-4
-1.280, 1.132e-4
-1.281, 1.144e-4
-1.282, 1.175e-4
-1.283, 1.205e-4
-1.284, 1.226e-4
-1.285, 1.235e-4
-1.286, 1.254e-4
-1.287, 1.287e-4
-1.288, 1.320e-4
-1.289, 1.344e-4
-1.290, 1.359e-4
-1.291, 1.380e-4
-1.292, 1.416e-4
-1.293, 1.452e-4
-1.294, 1.479e-4
-1.295, 1.498e-4
-1.296, 1.522e-4
-1.297, 1.559e-4
-1.298, 1.601e-4
-1.299, 1.635e-4
-1.300, 1.653e-4
-1.301, 1.682e-4
-1.302, 1.724e-4
-1.303, 1.772e-4
-1.304, 1.802e-4
-1.305, 1.828e-4
-1.306, 1.861e-4
-1.307, 1.907e-4
-1.308, 1.960e-4
-1.309, 1.997e-4
-1.310, 2.025e-4
-1.311, 2.062e-4
-1.312, 2.110e-4
-1.313, 2.168e-4
-1.314, 2.210e-4
-1.315, 2.240e-4
-1.316, 2.283e-4
-1.317, 2.339e-4
-1.318, 2.398e-4
-1.319, 2.448e-4
-1.320, 2.479e-4
-1.321, 2.526e-4
-1.322, 2.591e-4
-1.323, 2.657e-4
-1.324, 2.705e-4
-1.325, 2.753e-4
-1.326, 2.801e-4
-1.327, 2.872e-4
-1.328, 2.941e-4
-1.329, 3.001e-4
-1.330, 3.048e-4
-1.331, 3.106e-4
-1.332, 3.181e-4
-1.333, 3.254e-4
-1.334, 3.325e-4
-1.335, 3.381e-4
-1.336, 3.439e-4
-1.337, 3.520e-4
-1.338, 3.606e-4
-1.339, 3.678e-4
-1.340, 3.738e-4
-1.341, 3.805e-4
-1.342, 3.893e-4
-1.343, 3.980e-4
-1.344, 4.056e-4
-1.345, 4.124e-4
-1.346, 4.199e-4
-1.347, 4.288e-4
-1.348, 4.380e-4
-1.349, 4.464e-4
-1.350, 4.539e-4
-1.351, 4.623e-4
-1.352, 4.722e-4
-1.353, 4.825e-4
-1.354, 4.909e-4
-1.355, 4.992e-4
-1.356, 5.079e-4
-1.357, 5.186e-4
-1.358, 5.285e-4
-1.359, 5.391e-4
-1.360, 5.477e-4
-1.361, 5.570e-4
-1.362, 5.683e-4
-1.363, 5.796e-4
-1.364, 5.902e-4
-1.365, 5.993e-4
-1.366, 6.090e-4
-1.367, 6.209e-4
-1.368, 6.325e-4
-1.369, 6.441e-4
-1.370, 6.541e-4
-1.371, 6.644e-4
-1.372, 6.767e-4
-1.373, 6.904e-4
-1.374, 7.011e-4
-1.375, 7.129e-4
-1.376, 7.239e-4
-1.377, 7.364e-4
-1.378, 7.498e-4
-1.379, 7.613e-4
-1.380, 7.732e-4
-1.381, 7.856e-4
-1.382, 7.993e-4
-1.383, 8.142e-4
-1.384, 8.269e-4
-1.385, 8.398e-4
-1.386, 8.521e-4
-1.387, 8.660e-4
-1.388, 8.817e-4
-1.389, 8.943e-4
-1.390, 9.070e-4
-1.391, 9.205e-4
-1.392, 9.353e-4
-1.393, 9.507e-4
-1.394, 9.649e-4
-1.395, 9.787e-4
-1.396, 9.920e-4
-1.397, 1.008e-3
-1.398, 1.024e-3
-1.399, 1.038e-3
-1.400, 1.053e-3
-1.401, 1.066e-3
-1.402, 1.083e-3
-1.403, 1.101e-3
-1.404, 1.118e-3
-1.405, 1.131e-3
-1.406, 1.147e-3
-1.407, 1.162e-3
-1.408, 1.180e-3
-1.409, 1.196e-3
-1.410, 1.210e-3
-1.411, 1.224e-3
-1.412, 1.243e-3
-1.413, 1.260e-3
-1.414, 1.278e-3
-1.415, 1.293e-3
-1.416, 1.311e-3
-1.417, 1.327e-3
-1.418, 1.348e-3
-1.419, 1.365e-3
-1.420, 1.381e-3
-1.421, 1.398e-3
-1.422, 1.417e-3
-1.423, 1.436e-3
-1.424, 1.454e-3
-1.425, 1.472e-3
-1.426, 1.490e-3
-1.427, 1.508e-3
-1.428, 1.528e-3
-1.429, 1.548e-3
-1.430, 1.565e-3
-1.431, 1.583e-3
-1.432, 1.604e-3
-1.433, 1.624e-3
-1.434, 1.646e-3
-1.435, 1.666e-3
-1.436, 1.684e-3
-1.437, 1.704e-3
-1.438, 1.725e-3
-1.439, 1.746e-3
-1.440, 1.765e-3
-1.441, 1.784e-3
-1.442, 1.807e-3
-1.443, 1.830e-3
-1.444, 1.847e-3
-1.445, 1.867e-3
-1.446, 1.891e-3
-1.447, 1.912e-3
-1.448, 1.934e-3
-1.449, 1.954e-3
-1.450, 1.976e-3
-1.451, 1.999e-3
-1.452, 2.025e-3
-1.453, 2.043e-3
-1.454, 2.063e-3
-1.455, 2.087e-3
-1.456, 2.108e-3
-1.457, 2.133e-3
-1.458, 2.156e-3
-1.459, 2.181e-3
-1.460, 2.200e-3
-1.461, 2.225e-3
-1.462, 2.254e-3
-1.463, 2.278e-3
-1.464, 2.300e-3
-1.465, 2.322e-3
-1.466, 2.346e-3
-1.467, 2.367e-3
-1.468, 2.392e-3
-1.469, 2.416e-3
-1.470, 2.439e-3
-1.471, 2.464e-3
-1.472, 2.491e-3
-1.473, 2.517e-3
-1.474, 2.541e-3
-1.475, 2.565e-3
-1.476, 2.589e-3
-1.477, 2.616e-3
-1.478, 2.641e-3
-1.479, 2.667e-3
-1.480, 2.692e-3
-1.481, 2.717e-3
-1.482, 2.744e-3
-1.483, 2.774e-3
-1.484, 2.801e-3
-1.485, 2.826e-3
-1.486, 2.851e-3
-1.487, 2.880e-3
-1.488, 2.907e-3
-1.489, 2.937e-3
-1.490, 2.967e-3
-1.491, 2.996e-3
-1.492, 3.026e-3
-1.493, 3.055e-3
-1.494, 3.086e-3
-1.495, 3.113e-3
-1.496, 3.138e-3
-1.497, 3.169e-3
-1.498, 3.203e-3
-1.499, 3.235e-3
-1.500, 3.253e-3
-1.501, 3.278e-3
-1.502, 3.310e-3
-1.503, 3.342e-3
-1.504, 3.373e-3
-1.505, 3.407e-3
-1.506, 3.437e-3
-1.507, 3.460e-3
-1.508, 3.492e-3
-1.509, 3.525e-3
-1.510, 3.558e-3
-1.511, 3.586e-3
-1.512, 3.615e-3
-1.513, 3.649e-3
-1.514, 3.682e-3
-1.515, 3.707e-3
-1.516, 3.736e-3
-1.517, 3.780e-3
-1.518, 3.804e-3
-1.519, 3.843e-3
-1.520, 3.879e-3
-1.521, 3.911e-3
-1.522, 3.952e-3
-1.523, 3.989e-3
-1.524, 4.011e-3
-1.525, 4.040e-3
-1.526, 4.072e-3
-1.527, 4.110e-3
-1.528, 4.155e-3
-1.529, 4.188e-3
-1.530, 4.220e-3
-1.531, 4.251e-3
-1.532, 4.283e-3
-1.533, 4.321e-3
-1.534, 4.358e-3
-1.535, 4.395e-3
-1.536, 4.423e-3
-1.537, 4.456e-3
-1.538, 4.494e-3
-1.539, 4.524e-3
-1.540, 4.561e-3
-1.541, 4.597e-3
-1.542, 4.633e-3
-1.543, 4.666e-3
-1.544, 4.716e-3
-1.545, 4.749e-3
-1.546, 4.783e-3
-1.547, 4.820e-3
-1.548, 4.860e-3
-1.549, 4.902e-3
-1.550, 4.936e-3
-1.551, 4.967e-3
-1.552, 5.001e-3
-1.553, 5.040e-3
-1.554, 5.088e-3
-1.555, 5.112e-3
-1.556, 5.153e-3
-1.557, 5.199e-3
-1.558, 5.244e-3
-1.559, 5.286e-3
-1.560, 5.325e-3
-1.561, 5.359e-3
-1.562, 5.393e-3
-1.563, 5.433e-3
-1.564, 5.482e-3
-1.565, 5.531e-3
-1.566, 5.565e-3
-1.567, 5.607e-3
-1.568, 5.666e-3
-1.569, 5.735e-3
-1.570, 5.785e-3
-1.571, 5.823e-3
-1.572, 5.858e-3
-1.573, 5.889e-3
-1.574, 5.933e-3
-1.575, 5.978e-3
-1.576, 6.006e-3
-1.577, 6.034e-3
-1.578, 6.067e-3
-1.579, 6.121e-3
-1.580, 6.161e-3
-1.581, 6.204e-3
-1.582, 6.246e-3
-1.583, 6.296e-3
-1.584, 6.330e-3
-1.585, 6.361e-3
-1.586, 6.421e-3
-1.587, 6.468e-3
-1.588, 6.502e-3
-1.589, 6.550e-3
-1.590, 6.579e-3
-1.591, 6.630e-3
-1.592, 6.688e-3
-1.593, 6.728e-3
-1.594, 6.767e-3
-1.595, 6.818e-3
-1.596, 6.866e-3
-1.597, 6.904e-3
-1.598, 6.946e-3
-1.599, 7.000e-3
-1.600, 6.981e-3
-1.599, 6.902e-3
-1.598, 6.831e-3
-1.597, 6.742e-3
-1.596, 6.673e-3
-1.595, 6.609e-3
-1.594, 6.544e-3
-1.593, 6.482e-3
-1.592, 6.421e-3
-1.591, 6.330e-3
-1.590, 6.235e-3
-1.589, 6.192e-3
-1.588, 6.127e-3
-1.587, 6.073e-3
-1.586, 6.003e-3
-1.585, 5.928e-3
-1.584, 5.877e-3
-1.583, 5.802e-3
-1.582, 5.743e-3
-1.581, 5.679e-3
-1.580, 5.634e-3
-1.579, 5.567e-3
-1.578, 5.514e-3
-1.577, 5.465e-3
-1.576, 5.405e-3
-1.575, 5.339e-3
-1.574, 5.282e-3
-1.573, 5.215e-3
-1.572, 5.166e-3
-1.571, 5.106e-3
-1.570, 5.047e-3
-1.569, 4.993e-3
-1.568, 4.943e-3
-1.567, 4.894e-3
-1.566, 4.837e-3
-1.565, 4.776e-3
-1.564, 4.727e-3
-1.563, 4.668e-3
-1.562, 4.610e-3
-1.561, 4.560e-3
-1.560, 4.512e-3
-1.559, 4.452e-3
-1.558, 4.412e-3
-1.557, 4.356e-3
-1.556, 4.322e-3
-1.555, 4.261e-3
-1.554, 4.211e-3
-1.553, 4.173e-3
-1.552, 4.122e-3
-1.551, 4.076e-3
-1.550, 4.034e-3
-1.549, 3.978e-3
-1.548, 3.934e-3
-1.547, 3.896e-3
-1.546, 3.855e-3
-1.545, 3.806e-3
-1.544, 3.768e-3
-1.543, 3.737e-3
-1.542, 3.702e-3
-1.541, 3.656e-3
-1.540, 3.607e-3
-1.539, 3.559e-3
-1.538, 3.518e-3
-1.537, 3.479e-3
-1.536, 3.435e-3
-1.535, 3.393e-3
-1.534, 3.348e-3
-1.533, 3.308e-3
-1.532, 3.277e-3
-1.531, 3.238e-3
-1.530, 3.203e-3
-1.529, 3.160e-3
-1.528, 3.127e-3
-1.527, 3.098e-3
-1.526, 3.061e-3
-1.525, 3.023e-3
-1.524, 2.987e-3
-1.523, 2.948e-3
-1.522, 2.921e-3
-1.521, 2.888e-3
-1.520, 2.851e-3
-1.519, 2.816e-3
-1.518, 2.788e-3
-1.517, 2.755e-3
-1.516, 2.722e-3
-1.515, 2.690e-3
-1.514, 2.656e-3
-1.513, 2.625e-3
-1.512, 2.595e-3
-1.511, 2.572e-3
-1.510, 2.543e-3
-1.509, 2.510e-3
-1.508, 2.481e-3
-1.507, 2.448e-3
-1.506, 2.418e-3
-1.505, 2.390e-3
-1.504, 2.363e-3
-1.503, 2.333e-3
-1.502, 2.302e-3
-1.501, 2.276e-3
-1.500, 2.248e-3
-1.499, 2.219e-3
-1.498, 2.193e-3
-1.497, 2.170e-3
-1.496, 2.143e-3
-1.495, 2.110e-3
-1.494, 2.084e-3
-1.493, 2.061e-3
-1.492, 2.036e-3
-1.491, 2.010e-3
-1.490, 1.981e-3
-1.489, 1.960e-3
-1.488, 1.939e-3
-1.487, 1.915e-3
-1.486, 1.887e-3
-1.485, 1.861e-3
-1.484, 1.839e-3
-1.483, 1.814e-3
-1.482, 1.793e-3
-1.481, 1.770e-3
-1.480, 1.745e-3
-1.479, 1.722e-3
-1.478, 1.701e-3
-1.477, 1.681e-3
-1.476, 1.662e-3
-1.475, 1.639e-3
-1.474, 1.618e-3
-1.473, 1.596e-3
-1.472, 1.576e-3
-1.471, 1.556e-3
-1.470, 1.535e-3
-1.469, 1.511e-3
-1.468, 1.491e-3
-1.467, 1.476e-3
-1.466, 1.460e-3
-1.465, 1.439e-3
-1.464, 1.419e-3
-1.463, 1.403e-3
-1.462, 1.383e-3
-1.461, 1.364e-3
-1.460, 1.345e-3
-1.459, 1.325e-3
-1.458, 1.308e-3
-1.457, 1.291e-3
-1.456, 1.275e-3
-1.455, 1.256e-3
-1.454, 1.239e-3
-1.453, 1.222e-3
-1.452, 1.207e-3
-1.451, 1.192e-3
-1.450, 1.170e-3
-1.449, 1.157e-3
-1.448, 1.142e-3
-1.447, 1.126e-3
-1.446, 1.110e-3
-1.445, 1.096e-3
-1.444, 1.079e-3
-1.443, 1.063e-3
-1.442, 1.052e-3
-1.441, 1.034e-3
-1.440, 1.018e-3
-1.439, 1.004e-3
-1.438, 9.898e-4
-1.437, 9.788e-4
-1.436, 9.644e-4
-1.435, 9.502e-4
-1.434, 9.349e-4
-1.433, 9.210e-4
-1.432, 9.082e-4
-1.431, 8.948e-4
-1.430, 8.813e-4
-1.429, 8.677e-4
-1.428, 8.547e-4
-1.427, 8.439e-4
-1.426, 8.297e-4
-1.425, 8.153e-4
-1.424, 8.021e-4
-1.423, 7.916e-4
-1.422, 7.810e-4
-1.421, 7.677e-4
-1.420, 7.554e-4
-1.419, 7.422e-4
-1.418, 7.309e-4
-1.417, 7.209e-4
-1.416, 7.089e-4
-1.415, 6.964e-4
-1.414, 6.840e-4
-1.413, 6.757e-4
-1.412, 6.653e-4
-1.411, 6.549e-4
-1.410, 6.431e-4
-1.409, 6.313e-4
-1.408, 6.207e-4
-1.407, 6.120e-4
-1.406, 6.021e-4
-1.405, 5.927e-4
-1.404, 5.814e-4
-1.403, 5.723e-4
-1.402, 5.633e-4
-1.401, 5.540e-4
-1.400, 5.432e-4
-1.399, 5.339e-4
-1.398, 5.246e-4
-1.397, 5.168e-4
-1.396, 5.078e-4
-1.395, 4.980e-4
-1.394, 4.875e-4
-1.393, 4.799e-4
-1.392, 4.724e-4
-1.391, 4.646e-4
-1.390, 4.557e-4
-1.389, 4.438e-4
-1.388, 4.391e-4
-1.387, 4.315e-4
-1.386, 4.232e-4
-1.385, 4.154e-4
-1.384, 4.063e-4
-1.383, 3.988e-4
-1.382, 3.918e-4
-1.381, 3.851e-4
-1.380, 3.774e-4
-1.379, 3.685e-4
-1.378, 3.613e-4
-1.377, 3.569e-4
-1.376, 3.496e-4
-1.375, 3.414e-4
-1.374, 3.335e-4
-1.373, 3.281e-4
-1.372, 3.211e-4
-1.371, 3.155e-4
-1.370, 3.083e-4
-1.369, 3.013e-4
-1.368, 2.952e-4
-1.367, 2.902e-4
-1.366, 2.839e-4
-1.365, 2.782e-4
-1.364, 2.707e-4
-1.363, 2.653e-4
-1.362, 2.605e-4
-1.361, 2.551e-4
-1.360, 2.487e-4
-1.359, 2.427e-4
-1.358, 2.374e-4
-1.357, 2.336e-4
-1.356, 2.288e-4
-1.355, 2.223e-4
-1.354, 2.161e-4
-1.353, 2.122e-4
-1.352, 2.088e-4
-1.351, 2.038e-4
-1.350, 1.982e-4
-1.349, 1.925e-4
-1.348, 1.885e-4
-1.347, 1.850e-4
-1.346, 1.809e-4
-1.345, 1.755e-4
-1.344, 1.701e-4
-1.343, 1.663e-4
-1.342, 1.633e-4
-1.341, 1.596e-4
-1.340, 1.543e-4
-1.339, 1.495e-4
-1.338, 1.463e-4
-1.337, 1.431e-4
-1.336, 1.400e-4
-1.335, 1.353e-4
-1.334, 1.300e-4
-1.333, 1.277e-4
-1.332, 1.251e-4
-1.331, 1.216e-4
-1.330, 1.172e-4
-1.329, 1.131e-4
-1.328, 1.107e-4
-1.327, 1.082e-4
-1.326, 1.053e-4
-1.325, 1.014e-4
-1.324, 9.753e-5
-1.323, 9.483e-5
-1.322, 9.304e-5
-1.321, 9.021e-5
-1.320, 8.637e-5
-1.319, 8.297e-5
-1.318, 8.047e-5
-1.317, 7.920e-5
-1.316, 7.646e-5
-1.315, 7.294e-5
-1.314, 6.973e-5
-1.313, 6.730e-5
-1.312, 6.632e-5
-1.311, 6.419e-5
-1.310, 6.075e-5
-1.309, 5.777e-5
-1.308, 5.591e-5
-1.307, 5.467e-5
-1.306, 5.284e-5
-1.305, 4.957e-5
-1.304, 4.667e-5
-1.303, 4.507e-5
-1.302, 4.409e-5
-1.301, 4.248e-5
-1.300, 3.954e-5
-1.299, 3.662e-5
-1.298, 3.520e-5
-1.297, 3.445e-5
-1.296, 3.312e-5
-1.295, 3.041e-5
-1.294, 2.745e-5
-1.293, 2.631e-5
-1.292, 2.577e-5
-1.291, 2.442e-5
-1.290, 2.184e-5
-1.289, 1.916e-5
-1.288, 1.833e-5
-1.287, 1.791e-5
-1.286, 1.644e-5
-1.285, 1.422e-5
-1.284, 1.196e-5
-1.283, 1.064e-5
-1.282, 1.084e-5
-1.281, 9.558e-6
-1.280, 7.042e-6
-1.279, 5.227e-6
-1.278, 4.161e-6
-1.277, 4.398e-6
-1.276, 3.550e-6
-1.275, 1.133e-6
-1.274, -5.742e-7
-1.273, -1.442e-6
-1.272, -1.156e-6
-1.271, -1.946e-6
-1.270, -4.047e-6
-1.269, -5.852e-6
-1.268, -6.484e-6
-1.267, -6.405e-6
-1.266, -6.809e-6
-1.265, -8.891e-6
-1.264, -1.051e-5
-1.263, -1.104e-5
-1.262, -1.086e-5
-1.261, -1.115e-5
-1.260, -1.300e-5
-1.259, -1.480e-5
-1.258, -1.508e-5
-1.257, -1.483e-5
-1.256, -1.503e-5
-1.255, -1.677e-5
-1.254, -1.851e-5
-1.253, -1.873e-5
-1.252, -1.816e-5
-1.251, -1.887e-5
-1.250, -2.006e-5
-1.249, -2.188e-5
-1.248, -2.198e-5
-1.247, -2.141e-5
-1.246, -2.190e-5
-1.245, -2.296e-5
-1.244, -2.467e-5
-1.243, -2.507e-5
-1.242, -2.422e-5
-1.241, -2.456e-5
-1.240, -2.596e-5
-1.239, -2.738e-5
-1.238, -2.770e-5
-1.237, -2.682e-5
-1.236, -2.688e-5
-1.235, -2.838e-5
-1.234, -2.960e-5
-1.233, -3.000e-5
-1.232, -2.900e-5
-1.231, -2.918e-5
-1.230, -3.055e-5
-1.229, -3.244e-5
-1.228, -3.211e-5
-1.227, -3.133e-5
-1.226, -3.124e-5
-1.225, -3.261e-5
-1.224, -3.385e-5
-1.223, -3.393e-5
-1.222, -3.309e-5
-1.221, -3.312e-5
-1.220, -3.429e-5
-1.219, -3.571e-5
-1.218, -3.570e-5
-1.217, -3.467e-5
-1.216, -3.434e-5
-1.215, -3.564e-5
-1.214, -3.745e-5
-1.213, -3.710e-5
-1.212, -3.634e-5
-1.211, -3.633e-5
-1.210, -3.723e-5
-1.209, -3.875e-5
-1.208, -3.843e-5
-1.207, -3.762e-5
-1.206, -3.773e-5
-1.205, -3.855e-5
-1.204, -4.010e-5
-1.203, -4.015e-5
-1.202, -3.899e-5
-1.201, -3.896e-5
-1.200, -3.991e-5
-1.199, -4.112e-5
-1.198, -4.128e-5
-1.197, -3.998e-5
-1.196, -4.006e-5
-1.195, -4.135e-5
-1.194, -4.240e-5
-1.193, -4.243e-5
-1.192, -4.131e-5
-1.191, -4.121e-5
-1.190, -4.244e-5
-1.189, -4.343e-5
-1.188, -4.343e-5
-1.187, -4.247e-5
-1.186, -4.207e-5
-1.185, -4.339e-5
-1.184, -4.454e-5
-1.183, -4.415e-5
-1.182, -4.359e-5
-1.181, -4.300e-5
-1.180, -4.417e-5
-1.179, -4.535e-5
-1.178, -4.565e-5
-1.177, -4.440e-5
-1.176, -4.412e-5
-1.175, -4.508e-5
-1.174, -4.633e-5
-1.173, -4.607e-5
-1.172, -4.507e-5
-1.171, -4.515e-5
-1.170, -4.587e-5
-1.169, -4.738e-5
-1.168, -4.696e-5
-1.167, -4.591e-5
-1.166, -4.622e-5
-1.165, -4.698e-5
-1.164, -4.810e-5
-1.163, -4.824e-5
-1.162, -4.671e-5
-1.161, -4.676e-5
-1.160, -4.785e-5
-1.159, -4.875e-5
-1.158, -4.903e-5
-1.157, -4.753e-5
-1.156, -4.743e-5
-1.155, -4.872e-5
-1.154, -4.968e-5
-1.153, -4.964e-5
-1.152, -4.865e-5
-1.151, -4.836e-5
-1.150, -4.945e-5
-1.149, -5.050e-5
-1.148, -5.028e-5
-1.147, -4.951e-5
-1.146, -4.909e-5
-1.145, -5.036e-5
-1.144, -5.139e-5
-1.143, -5.110e-5
-1.142, -5.033e-5
-1.141, -4.993e-5
-1.140, -5.106e-5
-1.139, -5.243e-5
-1.138, -5.204e-5
-1.137, -5.122e-5
-1.136, -5.058e-5
-1.135, -5.178e-5
-1.134, -5.325e-5
-1.133, -5.303e-5
-1.132, -5.194e-5
-1.131, -5.179e-5
-1.130, -5.261e-5
-1.129, -5.409e-5
-1.128, -5.392e-5
-1.127, -5.291e-5
-1.126, -5.268e-5
-1.125, -5.357e-5
-1.124, -5.471e-5
-1.123, -5.480e-5
-1.122, -5.373e-5
-1.121, -5.367e-5
-1.120, -5.466e-5
-1.119, -5.564e-5
-1.118, -5.602e-5
-1.117, -5.457e-5
-1.116, -5.443e-5
-1.115, -5.542e-5
-1.114, -5.668e-5
-1.113, -5.684e-5
-1.112, -5.534e-5
-1.111, -5.521e-5
-1.110, -5.654e-5
-1.109, -5.757e-5
-1.108, -5.762e-5
-1.107, -5.682e-5
-1.106, -5.624e-5
-1.105, -5.737e-5
-1.104, -5.834e-5
-1.103, -5.832e-5
-1.102, -5.776e-5
-1.101, -5.722e-5
-1.100, -5.846e-5
-1.099, -5.959e-5
-1.098, -5.952e-5
-1.097, -5.851e-5
-1.096, -5.810e-5
-1.095, -5.919e-5
-1.094, -6.049e-5
-1.093, -6.054e-5
-1.092, -5.943e-5
-1.091, -5.936e-5
-1.090, -6.031e-5
-1.089, -6.196e-5
-1.088, -6.160e-5
-1.087, -6.051e-5
-1.086, -6.032e-5
-1.085, -6.136e-5
-1.084, -6.265e-5
-1.083, -6.303e-5
-1.082, -6.168e-5
-1.081, -6.166e-5
-1.080, -6.245e-5
-1.079, -6.367e-5
-1.078, -6.401e-5
-1.077, -6.277e-5
-1.076, -6.275e-5
-1.075, -6.417e-5
-1.074, -6.536e-5
-1.073, -6.578e-5
-1.072, -6.426e-5
-1.071, -6.394e-5
-1.070, -6.527e-5
-1.069, -6.650e-5
-1.068, -6.625e-5
-1.067, -6.576e-5
-1.066, -6.527e-5
-1.065, -6.651e-5
-1.064, -6.762e-5
-1.063, -6.792e-5
-1.062, -6.706e-5
-1.061, -6.665e-5
-1.060, -6.778e-5
-1.059, -6.928e-5
-1.058, -6.927e-5
-1.057, -6.836e-5
-1.056, -6.791e-5
-1.055, -6.930e-5
-1.054, -7.089e-5
-1.053, -7.059e-5
-1.052, -6.968e-5
-1.051, -6.992e-5
-1.050, -7.055e-5
-1.049, -7.212e-5
-1.048, -7.222e-5
-1.047, -7.140e-5
-1.046, -7.126e-5
-1.045, -7.202e-5
-1.044, -7.342e-5
-1.043, -7.383e-5
-1.042, -7.263e-5
-1.041, -7.242e-5
-1.040, -7.349e-5
-1.039, -7.502e-5
-1.038, -7.566e-5
-1.037, -7.458e-5
-1.036, -7.400e-5
-1.035, -7.504e-5
-1.034, -7.613e-5
-1.033, -7.682e-5
-1.032, -7.561e-5
-1.031, -7.549e-5
-1.030, -7.652e-5
-1.029, -7.767e-5
-1.028, -7.808e-5
-1.027, -7.734e-5
-1.026, -7.701e-5
-1.025, -7.766e-5
-1.024, -7.973e-5
-1.023, -7.973e-5
-1.022, -7.907e-5
-1.021, -7.848e-5
-1.020, -7.949e-5
-1.019, -8.116e-5
-1.018, -8.147e-5
-1.017, -8.082e-5
-1.016, -8.031e-5
-1.015, -8.145e-5
-1.014, -8.319e-5
-1.013, -8.349e-5
-1.012, -8.277e-5
-1.011, -8.215e-5
-1.010, -8.333e-5
-1.009, -8.500e-5
-1.008, -8.503e-5
-1.007, -8.406e-5
-1.006, -8.391e-5
-1.005, -8.490e-5
-1.004, -8.638e-5
-1.003, -8.673e-5
-1.002, -8.570e-5
-1.001, -8.558e-5
