Potential V vs RHE, Current mA cm-2
0.013299999999999867,-7.4173313451923875
0.012299999999999978,-11.73503023238048
0.011299999999999866,-15.094969569559943
0.010299999999999976,-17.797068152302163
0.009299999999999864,-20.10304757108217
0.008299999999999974,-21.98461359990267
0.007299999999999862,-23.682267159740714
0.006299999999999972,-25.12527268560305
0.00529999999999986,-26.38436574248293
0.0042999999999999705,-27.487840556377662
0.0032999999999998586,-28.435697127287238
0.0022999999999999687,-29.22793545521166
0.0012999999999998568,-29.836261314153624
0.00029999999999996696,-30.402145834099635
-0.000700000000000145,-30.8407063370578
-0.0017000000000000348,-31.27926684001596
-0.0027000000000001467,-31.57635621298762
-0.0037000000000000366,-31.930034037953877
-0.0047000000000001485,-32.32615320191609
-0.005700000000000038,-32.66568391388369
-0.00670000000000015,-33.06180307784591
-0.00770000000000004,-33.41548090281216
-0.008700000000000152,-33.755011614779775
-0.009700000000000042,-34.10868943974604
-0.010700000000000154,-34.41992592571634
-0.011700000000000044,-34.717015298688004
-0.012700000000000156,-34.8018979766799
-0.013700000000000045,-34.98581044566235
-0.014700000000000157,-35.15557580164616
-0.015700000000000047,-35.240458479638065
-0.01670000000000016,-35.42437094862052
-0.01770000000000005,-35.55169496560837
-0.01870000000000016,-35.806342999584075
-0.01970000000000005,-36.16002082455034
-0.020700000000000163,-36.4288159715247
-0.021700000000000053,-36.725905344496354
-0.022700000000000164,-37.037141830466666
-0.023700000000000054,-37.206907186450465
-0.024700000000000166,-37.51814367242077
-0.025700000000000056,-37.645467689408626
-0.026700000000000168,-37.645467689408626
-0.027700000000000058,-37.81523304539243
-0.02870000000000017,-37.85767438438838
-0.02970000000000006,-37.99914551437489
-0.03070000000000017,-38.12646953136274
-0.03170000000000006,-38.29623488734655
-0.03270000000000017,-38.46600024333035
-0.03370000000000006,-38.734795390304704
-0.034700000000000175,-38.98944342428042
-0.035700000000000065,-39.30067991025072
-0.03670000000000018,-39.51288660523048
-0.03770000000000007,-39.739240413208876
-0.03870000000000018,-39.86656443019674
-0.03970000000000007,-39.95144710818864
-0.04070000000000018,-40.092918238175145
-0.04170000000000007,-40.220242255162994
-0.04270000000000018,-40.26268359415894
-0.04370000000000007,-40.4748902891387
-0.044700000000000184,-40.616361419125205
-0.045700000000000074,-40.78612677510901
-0.046700000000000186,-41.083216148080666
-0.047700000000000076,-41.30956995605907
-0.04870000000000019,-41.66324778102533
-0.04970000000000008,-41.91789581500104
-0.05070000000000019,-42.087661170984845
-0.05170000000000008,-42.31401497896325
-0.05270000000000019,-42.39889765695515
-0.05370000000000008,-42.526221673943
-0.05470000000000019,-42.653545690930855
-0.05570000000000008,-42.71013414292546
-0.056700000000000195,-42.87989949890926
-0.057700000000000085,-43.04966485489307
-0.058700000000000196,-43.27601866287147
-0.059700000000000086,-43.57310803584313
-0.0607000000000002,-43.88434452181344
-0.06170000000000009,-44.138992555789144
-0.0627000000000002,-44.535111719751356
-0.06370000000000009,-44.704877075735155
-0.0647000000000002,-44.93123088371356
-0.06570000000000009,-45.10099623969737
-0.0667000000000002,-45.18587891768927
-0.0677000000000001,-45.36979138667173
-0.0687000000000002,-45.45467406466363
-0.0697000000000001,-45.624439420647434
-0.07070000000000021,-45.79420477663124
-0.0717000000000001,-46.02055858460964
-0.07270000000000021,-46.3176479575813
-0.0737000000000001,-46.628884443551605
-0.07470000000000021,-46.88353247752732
-0.0757000000000001,-47.27965164148953
-0.07670000000000021,-47.54844678846388
-0.0777000000000001,-47.80309482243959
-0.07870000000000021,-47.987007291422046
-0.0797000000000001,-48.156772647405845
-0.08070000000000022,-48.32653800338966
-0.0817000000000001,-48.51045047237211
-0.08270000000000022,-48.68021582835591
-0.08370000000000011,-48.93486386233162
-0.08470000000000022,-49.118776331314066
-0.08570000000000011,-49.458307043281685
-0.08670000000000022,-49.81198486824794
-0.08770000000000011,-50.12322135421825
-0.08870000000000022,-50.50519340518181
-0.08970000000000011,-50.85887123014807
-0.09070000000000022,-51.071077925127824
-0.09170000000000011,-51.38231441109813
-0.09270000000000023,-51.55207976708194
-0.09370000000000012,-51.82087491405629
-0.09470000000000023,-51.990640270040096
-0.09570000000000012,-52.075522948032
-0.09670000000000023,-52.386759434002315
-0.09770000000000012,-52.64140746797801
-0.09870000000000023,-52.95264395394832
-0.09970000000000012,-53.348763117910536
-0.10070000000000023,-53.68829382987814
-0.10170000000000012,-54.08441299384035
-0.10270000000000024,-54.52297349679851
-0.10370000000000013,-54.834209982768826
-0.10470000000000024,-55.17374069473642
-0.10570000000000013,-55.442535841710786
-0.10670000000000024,-55.6971838756865
-0.10770000000000013,-55.881096344668954
-0.10870000000000024,-56.1781857176406
-0.10970000000000013,-56.404539525619015
-0.11070000000000024,-56.74407023758662
-0.11170000000000013,-57.097748062552874
-0.11270000000000002,-57.493867226515086
-0.11370000000000013,-57.8333979384827
-0.11470000000000002,-58.31439978043681
-0.11570000000000014,-58.83784296138688
-0.11670000000000003,-59.19152078635314
-0.11770000000000014,-59.587639950315335
-0.11870000000000003,-59.884729323287
-0.11970000000000014,-60.19596580925731
-0.12070000000000003,-60.45061384323302
-0.12170000000000014,-60.71940899020737
-0.12270000000000003,-60.93161568518713
-0.12370000000000014,-61.327734849149344
-0.12470000000000003,-61.6814126741156
-0.12570000000000014,-62.02094338608321
-0.12670000000000003,-62.544386567033264
-0.12770000000000015,-63.02538840898739
-0.12870000000000004,-63.46394891194555
-0.12970000000000015,-63.98739209289561
-0.13070000000000004,-64.34106991786187
-0.13170000000000015,-64.86451309881193
-0.13270000000000004,-65.16160247178358
-0.13370000000000015,-65.5577216357458
-0.13470000000000004,-65.91139946071206
-0.13570000000000015,-66.25093017267966
-0.13670000000000004,-66.64704933664189
-0.13770000000000016,-67.128051178596
-0.13870000000000005,-67.56661168155415
-0.13970000000000016,-68.13249620150016
-0.14070000000000005,-68.61349804345427
-0.14170000000000016,-69.13694122440434
-0.14270000000000005,-69.74526708334632
-0.14370000000000016,-70.18382758630447
-0.14470000000000005,-70.66482942825859
-0.14570000000000016,-71.10338993121674
-0.14670000000000005,-71.44292064318435
-0.14770000000000016,-71.83903980714656
-0.14870000000000005,-72.19271763211282
-0.14970000000000017,-72.63127813507097
-0.15070000000000006,-73.09813286402644
-0.15170000000000017,-73.57913470598055
-0.15270000000000006,-74.20160767792116
-0.15370000000000017,-74.76749219786718
-0.15470000000000006,-75.33337671781321
-0.15570000000000017,-75.98414391575112
-0.15670000000000006,-76.5924697746931
-0.15770000000000017,-77.0734716166472
-0.15870000000000006,-77.59691479759726
-0.15970000000000018,-78.03547530055542
-0.16070000000000007,-78.55891848150549
-0.16170000000000018,-78.9550376454677
-0.16270000000000007,-79.42189237442317
-0.16370000000000018,-79.94533555537322
-0.16470000000000007,-80.46877873632329
-0.16570000000000018,-81.09125170826391
-0.16670000000000007,-81.69957756720586
-0.16770000000000018,-82.26546208715187
-0.16870000000000007,-82.95867062408576
-0.16970000000000018,-83.60943782202366
-0.17070000000000007,-84.13288100297372
-0.17170000000000019,-84.75535397491434
-0.17270000000000008,-85.23635581686847
-0.1737000000000002,-85.75979899781852
-0.17470000000000008,-86.28324217876859
-0.1757000000000002,-86.66521422973216
-0.17670000000000008,-87.33012854066871
-0.1777000000000002,-87.93845439961068
-0.17870000000000008,-88.5043389195567
-0.1797000000000002,-89.23998879548651
-0.18070000000000008,-89.89075599342443
-0.1817000000000002,-90.59811164335694
-0.18270000000000008,-91.29132018029082
-0.1837000000000002,-91.89964603923279
-0.1847000000000001,-92.56456035016936
-0.1857000000000002,-93.08800353111941
-0.1867000000000001,-93.61144671206948
-0.1877000000000002,-94.17733123201549
-0.1887000000000001,-94.70077441296557
-0.1897000000000002,-95.30910027190752
-0.1907000000000001,-95.91742613084948
-0.1917000000000001,-96.52575198979144
-0.19269999999999998,-97.31799031771587
-0.1937000000000001,-98.01119885464975
-0.19469999999999998,-98.74684873057957
-0.1957000000000001,-99.62396973649588
-0.19669999999999999,-100.31717827342976
-0.1977000000000001,-101.06697526235823
-0.1987,-101.6753011213002
-0.1997000000000001,-102.36850965823406
-0.2007,-103.01927685617197
-0.2017000000000001,-103.64174982811258
-0.2027,-104.2076343480586
-0.2037000000000001,-104.94328422398843
-0.2047,-105.63649276092228
-0.2057000000000001,-106.34384841085482
-0.2067,-107.12193962578058
-0.2077000000000001,-107.87173661470905
-0.2087,-108.69226916863077
-0.2097000000000001,-109.4845074965552
-0.2107,-110.1352746944931
-0.2117000000000001,-110.87092457042293
-0.2127,-111.5358388813595
-0.2137000000000001,-112.14416474030146
-0.2147,-112.83737327723534
-0.2157000000000001,-113.48814047517324
-0.2167,-114.19549612510575
-0.21770000000000012,-114.88870466203963
-0.2187,-115.68094298996405
-0.21970000000000012,-116.41659286589388
-0.2207,-117.19468408081964
-0.22170000000000012,-117.98692240874406
-0.2227,-118.86404341466037
-0.22370000000000012,-119.55725195159425
-0.2247,-120.29290182752408
-0.22570000000000012,-120.95781613846064
-0.2267,-121.60858333639854
-0.22770000000000012,-122.17446785634456
-0.22870000000000001,-122.86767639327843
-0.22970000000000013,-123.532590704215
-0.23070000000000002,-124.22579924114888
-0.23170000000000013,-124.91900777808273
-0.23270000000000002,-125.79612878399907
-0.23370000000000013,-126.57421999892482
-0.23470000000000002,-127.4088996658452
-0.23570000000000013,-128.32846201075745
-0.23670000000000002,-129.0641118866873
-0.2376999999999999,-129.8563502146117
-0.23870000000000002,-130.50711741254963
-0.2396999999999999,-131.03056059349967
-0.24070000000000003,-131.68132779143764
-0.24169999999999991,-132.37453632837148
-0.24270000000000003,-133.08189197830401
-0.24369999999999992,-133.90242453222572
-0.24470000000000003,-134.73710419914607
-0.24569999999999992,-135.65666654405837
-0.24670000000000003,-136.60452311496792
-0.24769999999999992,-137.52408545988024
-0.24870000000000003,-138.52853048278442
-0.24969999999999992,-139.49053416669264
-0.25070000000000003,-140.41009651160488
-0.2516999999999999,-141.41454153450906
-0.25270000000000004,-142.17848563643616
-0.2536999999999999,-143.0273124163552
-0.25470000000000004,-143.87613919627424
-0.2556999999999999,-144.58349484620675
-0.25670000000000004,-145.43232162612577
-0.25769999999999993,-146.28114840604482
-0.25870000000000004,-147.1299751859638
-0.25969999999999993,-148.12027309586935
-0.26070000000000004,-149.1105710057749
-0.26169999999999993,-149.95939778569388
-0.26270000000000004,-150.8082245656129
-0.26369999999999993,-151.65705134553193
-0.26470000000000005,-152.50587812545095
-0.26569999999999994,-153.35470490536997
-0.26670000000000005,-154.0620605553025
-0.26769999999999994,-154.76941620523502
-0.26870000000000005,-155.33530072518104
-0.26969999999999994,-156.04265637511355
-0.27070000000000005,-156.75001202504606
-0.27169999999999994,-157.45736767497857
-0.27270000000000005,-158.3061944548976
-0.27369999999999994,-159.15502123481662
-0.27470000000000006,-159.86237688474912
-0.27569999999999995,-160.71120366466818
-0.27670000000000006,-161.41855931460069
-0.27769999999999995,-162.12591496453322
-0.27870000000000006,-162.8332706144657
-0.27969999999999995,-163.39915513441173
-0.28070000000000006,-164.10651078434424
-0.28169999999999995,-164.81386643427678
-0.28270000000000006,-165.3797509542228
-0.28369999999999995,-166.0871066041553
-0.28470000000000006,-166.79446225408785
-0.28569999999999995,-167.50181790402033
-0.28670000000000007,-168.35064468393938
-0.28769999999999996,-169.3409425938449
-0.28870000000000007,-170.18976937376394
-0.28969999999999996,-170.89712502369645
-0.29070000000000007,-171.74595180361547
-0.29169999999999996,-172.45330745354798
-0.29270000000000007,-173.16066310348046
-0.29369999999999996,-173.72654762342648
-0.2947000000000001,-174.43390327335902
-0.29569999999999996,-174.99978779330505
-0.2967000000000001,-175.56567231325104
-0.29769999999999996,-176.27302796318358
-0.2987000000000001,-176.98038361311612
-0.29969999999999997,-177.6877392630486
-0.3007000000000001,-178.3950949129811
-0.30169999999999997,-179.10245056291362
-0.3027000000000001,-179.95127734283267
-0.30369999999999997,-180.5171618627787
-0.3047000000000001,-181.36598864269772
-0.30569999999999997,-182.07334429263022
-0.3067000000000001,-182.63922881257625
-0.3077,-183.20511333252225
-0.3087000000000001,-183.77099785246824
-0.3097,-184.47835350240078
-0.3107000000000001,-185.0442380223468
-0.3117,-185.7515936722793
-0.3127000000000001,-186.45894932221185
-0.3137,-187.16630497214436
-0.3147000000000001,-187.87366062207687
-0.3157,-188.72248740199586
-0.3167000000000001,-189.42984305192843
-0.3177,-190.13719870186094
-0.3187000000000001,-190.84455435179345
-0.3197,-191.41043887173947
-0.3207000000000001,-192.11779452167198
-0.3217,-192.683679041618
-0.3227000000000001,-193.10809243157752
-0.3237,-193.81544808151003
-0.3247000000000001,-194.38133260145605
-0.3257,-195.08868825138856
-0.3267000000000001,-195.79604390132107
-0.3277,-196.50339955125358
-0.3287000000000001,-197.35222633117263
-0.3297,-197.91811085111863
-0.3307000000000001,-198.62546650105114
-0.3317,-199.19135102099716
-0.3327000000000001,-199.61576441095667
-0.3337,-200.18164893090267
-0.3347000000000001,-200.6060623208622
-0.3357,-201.03047571082172
-0.3367000000000001,-201.59636023076774
-0.3377,-202.02077362072723
-0.3387000000000001,-202.58665814067325
-0.3397,-203.15254266061928
-0.3407000000000001,-203.71842718056527
-0.3417,-204.42578283049778
-0.3427000000000001,-204.9916673504438
-0.3437,-205.69902300037634
-0.3447000000000001,-206.26490752032234
-0.3457,-206.68932091028185
-0.3467000000000001,-207.1137343002414
-0.3477,-207.67961882018741
-0.3487000000000001,-208.1040322101469
-0.3497,-208.52844560010638
-0.3507000000000001,-209.23580125003892
-0.3517,-209.8016857699849
-0.3527000000000001,-210.50904141991748
-0.3537,-211.21639706985
-0.3547000000000001,-212.065223849769
-0.3557,-212.914050629688
-0.35670000000000013,-213.62140627962054
-0.3577,-214.47023305953954
-0.35870000000000013,-215.31905983945856
-0.3597,-215.88494435940459
-0.36070000000000013,-216.59230000933712
-0.3617,-217.44112678925615
-0.3626999999999999,-218.14848243918865
-0.3637,-218.85583808912116
-0.3646999999999999,-219.8461359990267
-0.3657,-220.6949627789457
-0.3666999999999999,-221.68526068885126
-0.3677,-222.6755585987568
-0.3686999999999999,-223.6658565086623
-0.36970000000000003,-224.79762554855435
-0.3706999999999999,-225.64645232847332
-0.37170000000000003,-226.63675023837888
-0.3726999999999999,-227.4855770182979
-0.37370000000000003,-228.33440379821695
-0.3746999999999999,-229.18323057813595
-0.37570000000000003,-229.89058622806846
-0.3766999999999999,-230.880884137974
-0.37770000000000004,-231.8711820478795
-0.3786999999999999,-232.72000882779852
-0.37970000000000004,-233.85177786769057
-0.3806999999999999,-234.9835469075826
-0.38170000000000004,-235.97384481748813
-0.38269999999999993,-237.10561385738015
-0.38370000000000004,-238.0959117672857
-0.38469999999999993,-239.0862096771912
-0.38570000000000004,-240.0765075870967
-0.38669999999999993,-237.24708498736666
-0.38570000000000004,-229.04175944814943
-0.38469999999999993,-222.10967407881074
-0.38370000000000004,-215.88494435940459
-0.38269999999999993,-210.36757028993094
-0.38170000000000004,-205.41608074040332
-0.3806999999999999,-200.7475334508487
-0.37970000000000004,-196.3619284212671
-0.3786999999999999,-192.11779452167198
-0.37770000000000004,-188.15660288204987
-0.3766999999999999,-184.33688237241427
-0.37570000000000003,-180.5171618627787
-0.3746999999999999,-176.6974413531431
-0.37370000000000003,-173.16066310348046
-0.3726999999999999,-169.6238848538179
-0.37170000000000003,-166.0871066041553
-0.3706999999999999,-162.6917994844792
-0.36970000000000003,-159.29649236480313
-0.3686999999999999,-156.04265637511355
-0.3677,-152.93029151541046
-0.3666999999999999,-150.1008689156804
-0.3657,-147.1299751859638
-0.3646999999999999,-144.30055258623375
-0.3637,-141.47112998650366
-0.3626999999999999,-138.79732562975875
-0.3617,-135.99619725602597
-0.36070000000000013,-133.29409867328377
-0.3597,-130.63444142953747
-0.35870000000000013,-127.93234284679528
-0.3577,-125.272685603049
-0.35670000000000013,-122.69791103729463
-0.3557,-120.12313647154028
-0.3547000000000001,-117.71812726176971
-0.3537,-115.36970650399375
-0.3527000000000001,-112.96469729422319
-0.3517,-110.70115921443913
-0.3507000000000001,-108.56494515164292
-0.3497,-106.34384841085482
-0.3487000000000001,-104.16519300906265
-0.3477,-101.92994915527588
-0.3467000000000001,-99.70885241448778
-0.3457,-97.44531433470372
-0.3447000000000001,-95.30910027190752
-0.3437,-93.17288620911131
-0.3427000000000001,-91.07911348531105
-0.3417,-89.11266477849867
-0.3407000000000001,-87.18865741068221
-0.3397,-85.36367983385631
-0.3387000000000001,-83.48211380503581
-0.3377,-81.69957756720586
-0.3367000000000001,-79.81801153838538
-0.3357,-77.99303396155948
-0.3347000000000001,-76.06902659374302
-0.3337,-74.20160767792116
-0.3327000000000001,-72.23515897110877
-0.3317,-70.39603428128423
-0.3307000000000001,-68.48617402646643
-0.3297,-66.77437335362974
-0.3287000000000001,-65.03427845479574
-0.3277,-63.37906623395363
-0.3267000000000001,-61.80873669110345
-0.3257,-60.28084848724921
-0.3247000000000001,-58.75296028339497
-0.3237,-57.30995475753264
-0.3227000000000001,-55.6971838756865
-0.3217,-54.2117370108282
-0.3207000000000001,-52.59896612898206
-0.3197,-51.071077925127824
-0.3187000000000001,-49.458307043281685
-0.3177,-47.93041883942744
-0.3167000000000001,-46.45911908756781
-0.3157,-44.97367222270952
-0.3147000000000001,-43.657990713835034
-0.3137,-42.3564563179592
-0.3127000000000001,-41.139804600075266
-0.3117,-39.90900576919269
-0.3107000000000001,-38.734795390304704
-0.3097,-37.47570233342482
-0.3087000000000001,-36.28734484153819
-0.3077,-34.98581044566235
-0.3067000000000001,-33.712570275783825
-0.30569999999999997,-32.32615320191609
-0.3047000000000001,-31.010471693041605
-0.30369999999999997,-29.793819975157668
-0.3027000000000001,-28.577168257273744
-0.30169999999999997,-27.38881076538711
-0.3007000000000001,-26.34192440348698
-0.29969999999999997,-25.295038041586857
-0.2987000000000001,-24.290593018682678
-0.29769999999999996,-23.300295108777156
-0.2967000000000001,-22.295850085872978
-0.29569999999999996,-21.333846401964752
-0.2947000000000001,-20.202077362072725
-0.29369999999999996,-19.112749661176647
-0.29270000000000007,-18.06586329927652
-0.29169999999999996,-16.962388485381787
-0.29070000000000007,-15.91550212348166
-0.28969999999999996,-14.925204213576137
-0.28870000000000007,-13.960371107068182
-0.28769999999999996,-13.043638184755638
-0.28670000000000007,-12.214617363034726
-0.28569999999999995,-11.385596541313816
-0.28470000000000006,-10.601846481188586
-0.28369999999999995,-9.772825659467674
-0.28270000000000006,-8.943804837746763
-0.28169999999999995,-8.070927965730034
-0.28070000000000006,-7.155609754717355
-0.27969999999999995,-6.282732882700628
-0.27870000000000006,-5.323558621392133
-0.27769999999999995,-4.450681749375406
-0.27670000000000006,-3.623075638954359
-0.27569999999999995,-2.794054817233447
-0.27470000000000006,-2.052746096104168
-0.27369999999999994,-1.3980177065266295
-0.27270000000000005,-0.7001406223032067
-0.27169999999999994,-0.04582249900262853
-0.27070000000000005,0.6084673300719523
-0.26969999999999994,1.2626298351295453
-0.26870000000000005,1.9607898616129409
-0.26769999999999994,2.70209858274222
