May 6, 2025   00:04:10
Cyclic Voltammetry
File: c:/users/guazh/data/banditlqround7_x0exp1108_r5/2025-04-30-exp1253\exp1253-2025-05-05t23_56_41-h2koh\exp1253_cv_sr_500mvs_efin_-1400mv.bin
Data Source:  Experiment
Instrument Model:  CHI760E
Header: CV ran at 500 mVs
Note: 

Init E (V) = -1
High E (V) = -1
Low E (V) = -1.4
Final E (V) = -1
Init P/N = N
Scan Rate (V/s) = 0.5
Segment = 3
Sample Interval (V) = 0.001
Quiet Time (sec) = 2
Sensitivity (A/V) = 0.01
Comp R (ohm) = 0.6

Results:

Channel 1:
Segment 1:

Segment 2:

Segment 3:

Potential/V, Current/A

-1.000, 4.719e-4
-1.001, 7.339e-4
-1.002, 9.251e-4
-1.003, 1.067e-3
-1.004, 1.187e-3
-1.005, 1.277e-3
-1.006, 1.357e-3
-1.007, 1.412e-3
-1.008, 1.452e-3
-1.009, 1.483e-3
-1.010, 1.508e-3
-1.011, 1.536e-3
-1.012, 1.563e-3
-1.013, 1.594e-3
-1.014, 1.625e-3
-1.015, 1.650e-3
-1.016, 1.665e-3
-1.017, 1.671e-3
-1.018, 1.674e-3
-1.019, 1.687e-3
-1.020, 1.702e-3
-1.021, 1.724e-3
-1.022, 1.748e-3
-1.023, 1.764e-3
-1.024, 1.779e-3
-1.025, 1.779e-3
-1.026, 1.779e-3
-1.027, 1.782e-3
-1.028, 1.795e-3
-1.029, 1.810e-3
-1.030, 1.828e-3
-1.031, 1.850e-3
-1.032, 1.859e-3
-1.033, 1.865e-3
-1.034, 1.865e-3
-1.035, 1.869e-3
-1.036, 1.878e-3
-1.037, 1.893e-3
-1.038, 1.915e-3
-1.039, 1.936e-3
-1.040, 1.949e-3
-1.041, 1.958e-3
-1.042, 1.964e-3
-1.043, 1.967e-3
-1.044, 1.980e-3
-1.045, 1.992e-3
-1.046, 2.013e-3
-1.047, 2.032e-3
-1.048, 2.050e-3
-1.049, 2.060e-3
-1.050, 2.060e-3
-1.051, 2.060e-3
-1.052, 2.063e-3
-1.053, 2.069e-3
-1.054, 2.084e-3
-1.055, 2.103e-3
-1.056, 2.121e-3
-1.057, 2.134e-3
-1.058, 2.137e-3
-1.059, 2.134e-3
-1.060, 2.137e-3
-1.061, 2.140e-3
-1.062, 2.152e-3
-1.063, 2.171e-3
-1.064, 2.189e-3
-1.065, 2.208e-3
-1.066, 2.211e-3
-1.067, 2.217e-3
-1.068, 2.217e-3
-1.069, 2.226e-3
-1.070, 2.242e-3
-1.071, 2.263e-3
-1.072, 2.285e-3
-1.073, 2.306e-3
-1.074, 2.322e-3
-1.075, 2.325e-3
-1.076, 2.331e-3
-1.077, 2.334e-3
-1.078, 2.353e-3
-1.079, 2.371e-3
-1.080, 2.396e-3
-1.081, 2.420e-3
-1.082, 2.436e-3
-1.083, 2.448e-3
-1.084, 2.451e-3
-1.085, 2.454e-3
-1.086, 2.467e-3
-1.087, 2.485e-3
-1.088, 2.510e-3
-1.089, 2.534e-3
-1.090, 2.550e-3
-1.091, 2.559e-3
-1.092, 2.565e-3
-1.093, 2.565e-3
-1.094, 2.578e-3
-1.095, 2.596e-3
-1.096, 2.621e-3
-1.097, 2.649e-3
-1.098, 2.673e-3
-1.099, 2.692e-3
-1.100, 2.701e-3
-1.101, 2.707e-3
-1.102, 2.716e-3
-1.103, 2.735e-3
-1.104, 2.756e-3
-1.105, 2.784e-3
-1.106, 2.812e-3
-1.107, 2.830e-3
-1.108, 2.840e-3
-1.109, 2.846e-3
-1.110, 2.852e-3
-1.111, 2.861e-3
-1.112, 2.883e-3
-1.113, 2.911e-3
-1.114, 2.941e-3
-1.115, 2.966e-3
-1.116, 2.982e-3
-1.117, 2.991e-3
-1.118, 3.000e-3
-1.119, 3.015e-3
-1.120, 3.037e-3
-1.121, 3.071e-3
-1.122, 3.108e-3
-1.123, 3.142e-3
-1.124, 3.173e-3
-1.125, 3.194e-3
-1.126, 3.219e-3
-1.127, 3.237e-3
-1.128, 3.256e-3
-1.129, 3.290e-3
-1.130, 3.321e-3
-1.131, 3.358e-3
-1.132, 3.382e-3
-1.133, 3.404e-3
-1.134, 3.416e-3
-1.135, 3.422e-3
-1.136, 3.438e-3
-1.137, 3.459e-3
-1.138, 3.484e-3
-1.139, 3.509e-3
-1.140, 3.536e-3
-1.141, 3.549e-3
-1.142, 3.558e-3
-1.143, 3.564e-3
-1.144, 3.577e-3
-1.145, 3.601e-3
-1.146, 3.623e-3
-1.147, 3.651e-3
-1.148, 3.675e-3
-1.149, 3.697e-3
-1.150, 3.709e-3
-1.151, 3.721e-3
-1.152, 3.740e-3
-1.153, 3.768e-3
-1.154, 3.805e-3
-1.155, 3.845e-3
-1.156, 3.891e-3
-1.157, 3.925e-3
-1.158, 3.959e-3
-1.159, 3.977e-3
-1.160, 3.999e-3
-1.161, 4.027e-3
-1.162, 4.061e-3
-1.163, 4.101e-3
-1.164, 4.150e-3
-1.165, 4.184e-3
-1.166, 4.218e-3
-1.167, 4.243e-3
-1.168, 4.261e-3
-1.169, 4.292e-3
-1.170, 4.326e-3
-1.171, 4.366e-3
-1.172, 4.406e-3
-1.173, 4.443e-3
-1.174, 4.480e-3
-1.175, 4.505e-3
-1.176, 4.526e-3
-1.177, 4.554e-3
-1.178, 4.585e-3
-1.179, 4.625e-3
-1.180, 4.662e-3
-1.181, 4.705e-3
-1.182, 4.736e-3
-1.183, 4.757e-3
-1.184, 4.779e-3
-1.185, 4.797e-3
-1.186, 4.825e-3
-1.187, 4.862e-3
-1.188, 4.902e-3
-1.189, 4.945e-3
-1.190, 4.982e-3
-1.191, 5.007e-3
-1.192, 5.029e-3
-1.193, 5.053e-3
-1.194, 5.081e-3
-1.195, 5.115e-3
-1.196, 5.158e-3
-1.197, 5.208e-3
-1.198, 5.248e-3
-1.199, 5.282e-3
-1.200, 5.303e-3
-1.201, 5.331e-3
-1.202, 5.359e-3
-1.203, 5.389e-3
-1.204, 5.436e-3
-1.205, 5.476e-3
-1.206, 5.522e-3
-1.207, 5.565e-3
-1.208, 5.596e-3
-1.209, 5.624e-3
-1.210, 5.645e-3
-1.211, 5.682e-3
-1.212, 5.725e-3
-1.213, 5.769e-3
-1.214, 5.818e-3
-1.215, 5.861e-3
-1.216, 5.895e-3
-1.217, 5.926e-3
-1.218, 5.951e-3
-1.219, 5.981e-3
-1.220, 6.018e-3
-1.221, 6.065e-3
-1.222, 6.114e-3
-1.223, 6.163e-3
-1.224, 6.203e-3
-1.225, 6.240e-3
-1.226, 6.268e-3
-1.227, 6.302e-3
-1.228, 6.342e-3
-1.229, 6.391e-3
-1.230, 6.435e-3
-1.231, 6.481e-3
-1.232, 6.524e-3
-1.233, 6.558e-3
-1.234, 6.589e-3
-1.235, 6.620e-3
-1.236, 6.660e-3
-1.237, 6.703e-3
-1.238, 6.755e-3
-1.239, 6.808e-3
-1.240, 6.854e-3
-1.241, 6.894e-3
-1.242, 6.928e-3
-1.243, 6.956e-3
-1.244, 6.993e-3
-1.245, 7.023e-3
-1.246, 7.067e-3
-1.247, 7.116e-3
-1.248, 7.156e-3
-1.249, 7.196e-3
-1.250, 7.227e-3
-1.251, 7.255e-3
-1.252, 7.286e-3
-1.253, 7.316e-3
-1.254, 7.363e-3
-1.255, 7.409e-3
-1.256, 7.455e-3
-1.257, 7.495e-3
-1.258, 7.526e-3
-1.259, 7.554e-3
-1.260, 7.585e-3
-1.261, 7.622e-3
-1.262, 7.659e-3
-1.263, 7.696e-3
-1.264, 7.745e-3
-1.265, 7.794e-3
-1.266, 7.841e-3
-1.267, 7.881e-3
-1.268, 7.921e-3
-1.269, 7.964e-3
-1.270, 8.016e-3
-1.271, 8.066e-3
-1.272, 8.115e-3
-1.273, 8.158e-3
-1.274, 8.195e-3
-1.275, 8.223e-3
-1.276, 8.251e-3
-1.277, 8.278e-3
-1.278, 8.312e-3
-1.279, 8.349e-3
-1.280, 8.386e-3
-1.281, 8.423e-3
-1.282, 8.448e-3
-1.283, 8.463e-3
-1.284, 8.479e-3
-1.285, 8.491e-3
-1.286, 8.513e-3
-1.287, 8.550e-3
-1.288, 8.584e-3
-1.289, 8.627e-3
-1.290, 8.667e-3
-1.291, 8.704e-3
-1.292, 8.735e-3
-1.293, 8.759e-3
-1.294, 8.793e-3
-1.295, 8.836e-3
-1.296, 8.880e-3
-1.297, 8.929e-3
-1.298, 8.972e-3
-1.299, 9.006e-3
-1.300, 9.037e-3
-1.301, 9.064e-3
-1.302, 9.092e-3
-1.303, 9.129e-3
-1.304, 9.179e-3
-1.305, 9.231e-3
-1.306, 9.277e-3
-1.307, 9.314e-3
-1.308, 9.342e-3
-1.309, 9.364e-3
-1.310, 9.385e-3
-1.311, 9.413e-3
-1.312, 9.450e-3
-1.313, 9.487e-3
-1.314, 9.533e-3
-1.315, 9.567e-3
-1.316, 9.595e-3
-1.317, 9.610e-3
-1.318, 9.629e-3
-1.319, 9.653e-3
-1.320, 9.684e-3
-1.321, 9.721e-3
-1.322, 9.758e-3
-1.323, 9.792e-3
-1.324, 9.820e-3
-1.325, 9.835e-3
-1.326, 9.851e-3
-1.327, 9.866e-3
-1.328, 9.885e-3
-1.329, 9.928e-3
-1.330, 9.965e-3
-1.331, 1.001e-2
-1.332, 1.004e-2
-1.333, 1.007e-2
-1.334, 1.010e-2
-1.335, 1.012e-2
-1.336, 1.016e-2
-1.337, 1.020e-2
-1.338, 1.025e-2
-1.339, 1.030e-2
-1.340, 1.034e-2
-1.341, 1.037e-2
-1.342, 1.040e-2
-1.343, 1.043e-2
-1.344, 1.046e-2
-1.345, 1.051e-2
-1.346, 1.056e-2
-1.347, 1.061e-2
-1.348, 1.066e-2
-1.349, 1.070e-2
-1.350, 1.073e-2
-1.351, 1.076e-2
-1.352, 1.078e-2
-1.353, 1.082e-2
-1.354, 1.087e-2
-1.355, 1.092e-2
-1.356, 1.097e-2
-1.357, 1.101e-2
-1.358, 1.106e-2
-1.359, 1.110e-2
-1.360, 1.113e-2
-1.361, 1.118e-2
-1.362, 1.123e-2
-1.363, 1.128e-2
-1.364, 1.135e-2
-1.365, 1.141e-2
-1.366, 1.147e-2
-1.367, 1.151e-2
-1.368, 1.156e-2
-1.369, 1.161e-2
-1.370, 1.168e-2
-1.371, 1.175e-2
-1.372, 1.183e-2
-1.373, 1.189e-2
-1.374, 1.196e-2
-1.375, 1.202e-2
-1.376, 1.207e-2
-1.377, 1.213e-2
-1.378, 1.220e-2
-1.379, 1.228e-2
-1.380, 1.236e-2
-1.381, 1.244e-2
-1.382, 1.252e-2
-1.383, 1.259e-2
-1.384, 1.265e-2
-1.385, 1.272e-2
-1.386, 1.278e-2
-1.387, 1.285e-2
-1.388, 1.293e-2
-1.389, 1.300e-2
-1.390, 1.308e-2
-1.391, 1.314e-2
-1.392, 1.320e-2
-1.393, 1.325e-2
-1.394, 1.333e-2
-1.395, 1.341e-2
-1.396, 1.350e-2
-1.397, 1.360e-2
-1.398, 1.370e-2
-1.399, 1.380e-2
-1.400, 1.363e-2
-1.399, 1.310e-2
-1.398, 1.269e-2
-1.397, 1.234e-2
-1.396, 1.204e-2
-1.395, 1.177e-2
-1.394, 1.152e-2
-1.393, 1.128e-2
-1.392, 1.105e-2
-1.391, 1.082e-2
-1.390, 1.060e-2
-1.389, 1.040e-2
-1.388, 1.020e-2
-1.387, 1.002e-2
-1.386, 9.845e-3
-1.385, 9.666e-3
-1.384, 9.484e-3
-1.383, 9.296e-3
-1.382, 9.108e-3
-1.381, 8.941e-3
-1.380, 8.769e-3
-1.379, 8.617e-3
-1.378, 8.463e-3
-1.377, 8.309e-3
-1.376, 8.152e-3
-1.375, 7.982e-3
-1.374, 7.819e-3
-1.373, 7.656e-3
-1.372, 7.498e-3
-1.371, 7.356e-3
-1.370, 7.218e-3
-1.369, 7.085e-3
-1.368, 6.949e-3
-1.367, 6.808e-3
-1.366, 6.666e-3
-1.365, 6.527e-3
-1.364, 6.398e-3
-1.363, 6.271e-3
-1.362, 6.160e-3
-1.361, 6.049e-3
-1.360, 5.935e-3
-1.359, 5.812e-3
-1.358, 5.692e-3
-1.357, 5.565e-3
-1.356, 5.445e-3
-1.355, 5.331e-3
-1.354, 5.229e-3
-1.353, 5.127e-3
-1.352, 5.029e-3
-1.351, 4.924e-3
-1.350, 4.810e-3
-1.349, 4.696e-3
-1.348, 4.582e-3
-1.347, 4.483e-3
-1.346, 4.387e-3
-1.345, 4.298e-3
-1.344, 4.212e-3
-1.343, 4.119e-3
-1.342, 4.017e-3
-1.341, 3.919e-3
-1.340, 3.814e-3
-1.339, 3.725e-3
-1.338, 3.647e-3
-1.337, 3.567e-3
-1.336, 3.496e-3
-1.335, 3.416e-3
-1.334, 3.333e-3
-1.333, 3.241e-3
-1.332, 3.151e-3
-1.331, 3.065e-3
-1.330, 2.988e-3
-1.329, 2.920e-3
-1.328, 2.855e-3
-1.327, 2.784e-3
-1.326, 2.716e-3
-1.325, 2.636e-3
-1.324, 2.550e-3
-1.323, 2.473e-3
-1.322, 2.402e-3
-1.321, 2.337e-3
-1.320, 2.279e-3
-1.319, 2.220e-3
-1.318, 2.155e-3
-1.317, 2.084e-3
-1.316, 2.004e-3
-1.315, 1.930e-3
-1.314, 1.865e-3
-1.313, 1.804e-3
-1.312, 1.761e-3
-1.311, 1.711e-3
-1.310, 1.659e-3
-1.309, 1.597e-3
-1.308, 1.532e-3
-1.307, 1.465e-3
-1.306, 1.406e-3
-1.305, 1.351e-3
-1.304, 1.304e-3
-1.303, 1.261e-3
-1.302, 1.215e-3
-1.301, 1.169e-3
-1.300, 1.110e-3
-1.299, 1.051e-3
-1.298, 9.991e-4
-1.297, 9.436e-4
-1.296, 9.097e-4
-1.295, 8.665e-4
-1.294, 8.326e-4
-1.293, 7.894e-4
-1.292, 7.401e-4
-1.291, 6.877e-4
-1.290, 6.322e-4
-1.289, 5.859e-4
-1.288, 5.489e-4
-1.287, 5.120e-4
-1.286, 4.842e-4
-1.285, 4.534e-4
-1.284, 4.102e-4
-1.283, 3.670e-4
-1.282, 3.146e-4
-1.281, 2.715e-4
-1.280, 2.314e-4
-1.279, 2.006e-4
-1.278, 1.728e-4
-1.277, 1.451e-4
-1.276, 1.142e-4
-1.275, 7.107e-5
-1.274, 3.099e-5
-1.273, -1.526e-5
-1.272, -4.917e-5
-1.271, -7.692e-5
-1.270, -9.850e-5
-1.269, -1.201e-4
-1.268, -1.540e-4
-1.267, -1.848e-4
-1.266, -2.249e-4
-1.265, -2.681e-4
-1.264, -3.020e-4
-1.263, -3.328e-4
-1.262, -3.513e-4
-1.261, -3.698e-4
-1.260, -3.945e-4
-1.259, -4.284e-4
-1.258, -4.623e-4
-1.257, -5.024e-4
-1.256, -5.332e-4
-1.255, -5.641e-4
-1.254, -5.826e-4
-1.253, -5.980e-4
-1.252, -6.226e-4
-1.251, -6.473e-4
-1.250, -6.812e-4
-1.249, -7.182e-4
-1.248, -7.490e-4
-1.247, -7.768e-4
-1.246, -7.922e-4
-1.245, -8.076e-4
-1.244, -8.261e-4
-1.243, -8.446e-4
-1.242, -8.754e-4
-1.241, -9.124e-4
-1.240, -9.464e-4
-1.239, -9.741e-4
-1.238, -9.957e-4
-1.237, -1.011e-3
-1.236, -1.027e-3
-1.235, -1.045e-3
-1.234, -1.070e-3
-1.233, -1.101e-3
-1.232, -1.131e-3
-1.231, -1.159e-3
-1.230, -1.178e-3
-1.229, -1.205e-3
-1.228, -1.224e-3
-1.227, -1.233e-3
-1.226, -1.252e-3
-1.225, -1.276e-3
-1.224, -1.298e-3
-1.223, -1.322e-3
-1.222, -1.338e-3
-1.221, -1.347e-3
-1.220, -1.356e-3
-1.219, -1.359e-3
-1.218, -1.381e-3
-1.217, -1.403e-3
-1.216, -1.433e-3
-1.215, -1.467e-3
-1.214, -1.492e-3
-1.213, -1.511e-3
-1.212, -1.526e-3
-1.211, -1.538e-3
-1.210, -1.566e-3
-1.209, -1.600e-3
-1.208, -1.634e-3
-1.207, -1.674e-3
-1.206, -1.699e-3
-1.205, -1.717e-3
-1.204, -1.736e-3
-1.203, -1.745e-3
-1.202, -1.763e-3
-1.201, -1.785e-3
-1.200, -1.816e-3
-1.199, -1.853e-3
-1.198, -1.881e-3
-1.197, -1.902e-3
-1.196, -1.921e-3
-1.195, -1.930e-3
-1.194, -1.936e-3
-1.193, -1.955e-3
-1.192, -1.976e-3
-1.191, -2.007e-3
-1.190, -2.041e-3
-1.189, -2.059e-3
-1.188, -2.075e-3
-1.187, -2.081e-3
-1.186, -2.087e-3
-1.185, -2.099e-3
-1.184, -2.121e-3
-1.183, -2.152e-3
-1.182, -2.183e-3
-1.181, -2.207e-3
-1.180, -2.229e-3
-1.179, -2.238e-3
-1.178, -2.251e-3
-1.177, -2.269e-3
-1.176, -2.291e-3
-1.175, -2.325e-3
-1.174, -2.358e-3
-1.173, -2.386e-3
-1.172, -2.414e-3
-1.171, -2.423e-3
-1.170, -2.436e-3
-1.169, -2.448e-3
-1.168, -2.466e-3
-1.167, -2.494e-3
-1.166, -2.528e-3
-1.165, -2.556e-3
-1.164, -2.587e-3
-1.163, -2.602e-3
-1.162, -2.617e-3
-1.161, -2.630e-3
-1.160, -2.645e-3
-1.159, -2.667e-3
-1.158, -2.694e-3
-1.157, -2.731e-3
-1.156, -2.762e-3
-1.155, -2.781e-3
-1.154, -2.793e-3
-1.153, -2.802e-3
-1.152, -2.815e-3
-1.151, -2.830e-3
-1.150, -2.861e-3
-1.149, -2.892e-3
-1.148, -2.923e-3
-1.147, -2.947e-3
-1.146, -2.969e-3
-1.145, -2.984e-3
-1.144, -2.994e-3
-1.143, -3.015e-3
-1.142, -3.043e-3
-1.141, -3.074e-3
-1.140, -3.111e-3
-1.139, -3.135e-3
-1.138, -3.151e-3
-1.137, -3.169e-3
-1.136, -3.179e-3
-1.135, -3.200e-3
-1.134, -3.225e-3
-1.133, -3.256e-3
-1.132, -3.293e-3
-1.131, -3.317e-3
-1.130, -3.342e-3
-1.129, -3.357e-3
-1.128, -3.367e-3
-1.127, -3.379e-3
-1.126, -3.394e-3
-1.125, -3.419e-3
-1.124, -3.450e-3
-1.123, -3.481e-3
-1.122, -3.508e-3
-1.121, -3.521e-3
-1.120, -3.530e-3
-1.119, -3.542e-3
-1.118, -3.558e-3
-1.117, -3.579e-3
-1.116, -3.610e-3
-1.115, -3.641e-3
-1.114, -3.669e-3
-1.113, -3.687e-3
-1.112, -3.700e-3
-1.111, -3.709e-3
-1.110, -3.724e-3
-1.109, -3.749e-3
-1.108, -3.780e-3
-1.107, -3.811e-3
-1.106, -3.835e-3
-1.105, -3.860e-3
-1.104, -3.869e-3
-1.103, -3.881e-3
-1.102, -3.891e-3
-1.101, -3.912e-3
-1.100, -3.943e-3
-1.099, -3.974e-3
-1.098, -4.002e-3
-1.097, -4.023e-3
-1.096, -4.033e-3
-1.095, -4.045e-3
-1.094, -4.051e-3
-1.093, -4.063e-3
-1.092, -4.088e-3
-1.091, -4.119e-3
-1.090, -4.144e-3
-1.089, -4.165e-3
-1.088, -4.174e-3
-1.087, -4.184e-3
-1.086, -4.187e-3
-1.085, -4.202e-3
-1.084, -4.221e-3
-1.083, -4.239e-3
-1.082, -4.270e-3
-1.081, -4.288e-3
-1.080, -4.304e-3
-1.079, -4.313e-3
-1.078, -4.319e-3
-1.077, -4.325e-3
-1.076, -4.344e-3
-1.075, -4.369e-3
-1.074, -4.390e-3
-1.073, -4.412e-3
-1.072, -4.427e-3
-1.071, -4.430e-3
-1.070, -4.436e-3
-1.069, -4.436e-3
-1.068, -4.446e-3
-1.067, -4.461e-3
-1.066, -4.483e-3
-1.065, -4.504e-3
-1.064, -4.517e-3
-1.063, -4.523e-3
-1.062, -4.523e-3
-1.061, -4.520e-3
-1.060, -4.523e-3
-1.059, -4.532e-3
-1.058, -4.544e-3
-1.057, -4.563e-3
-1.056, -4.572e-3
-1.055, -4.578e-3
-1.054, -4.575e-3
-1.053, -4.569e-3
-1.052, -4.572e-3
-1.051, -4.569e-3
-1.050, -4.581e-3
-1.049, -4.597e-3
-1.048, -4.606e-3
-1.047, -4.612e-3
-1.046, -4.606e-3
-1.045, -4.597e-3
-1.044, -4.591e-3
-1.043, -4.584e-3
-1.042, -4.594e-3
-1.041, -4.603e-3
-1.040, -4.612e-3
-1.039, -4.618e-3
-1.038, -4.615e-3
-1.037, -4.606e-3
-1.036, -4.594e-3
-1.035, -4.588e-3
-1.034, -4.588e-3
-1.033, -4.594e-3
-1.032, -4.597e-3
-1.031, -4.600e-3
-1.030, -4.594e-3
-1.029, -4.578e-3
-1.028, -4.569e-3
-1.027, -4.560e-3
-1.026, -4.554e-3
-1.025, -4.560e-3
-1.024, -4.566e-3
-1.023, -4.566e-3
-1.022, -4.560e-3
-1.021, -4.544e-3
-1.020, -4.529e-3
-1.019, -4.510e-3
-1.018, -4.501e-3
-1.017, -4.498e-3
-1.016, -4.501e-3
-1.015, -4.504e-3
-1.014, -4.504e-3
-1.013, -4.492e-3
-1.012, -4.480e-3
-1.011, -4.458e-3
-1.010, -4.449e-3
-1.009, -4.443e-3
-1.008, -4.449e-3
-1.007, -4.455e-3
-1.006, -4.455e-3
-1.005, -4.446e-3
-1.004, -4.436e-3
-1.003, -4.418e-3
-1.002, -4.406e-3
-1.001, -4.399e-3
