Aug. 21, 2024   18:23:17
Cyclic Voltammetry
File: c:/users/guazh/data/20240813_batch_94_500/2024-08-15-exp152\exp152-2024-08-21t17_59_45-h2koh\exp152_cv_sr_500mvs_efin_-1800mv.bin
Data Source:  Experiment
Instrument Model:  CHI760E
Header: CV ran at 500 mVs
Note: 

Init E (V) = -1
High E (V) = -1
Low E (V) = -1.8
Final E (V) = -1
Init P/N = N
Scan Rate (V/s) = 0.5
Segment = 3
Sample Interval (V) = 0.001
Quiet Time (sec) = 2
Sensitivity (A/V) = 0.01
Comp R (ohm) = 1.5

Results:

Channel 1:
Segment 1:

Segment 2:

Segment 3:

Potential/V, Current/A

-1.000, 3.239e-6
-1.001, 6.322e-6
-1.002, 3.239e-6
-1.003, 3.239e-6
-1.004, 3.239e-6
-1.005, 6.322e-6
-1.006, 3.239e-6
-1.007, 3.239e-6
-1.008, 6.322e-6
-1.009, 3.239e-6
-1.010, 6.322e-6
-1.011, 6.322e-6
-1.012, 3.239e-6
-1.013, 6.322e-6
-1.014, 6.322e-6
-1.015, 6.322e-6
-1.016, 6.322e-6
-1.017, 6.322e-6
-1.018, 6.322e-6
-1.019, 6.322e-6
-1.020, 6.322e-6
-1.021, 6.322e-6
-1.022, 6.322e-6
-1.023, 6.322e-6
-1.024, 6.322e-6
-1.025, 6.322e-6
-1.026, 6.322e-6
-1.027, 6.322e-6
-1.028, 6.322e-6
-1.029, 6.322e-6
-1.030, 6.322e-6
-1.031, 6.322e-6
-1.032, 6.322e-6
-1.033, 6.322e-6
-1.034, 6.322e-6
-1.035, 6.322e-6
-1.036, 6.322e-6
-1.037, 9.405e-6
-1.038, 6.322e-6
-1.039, 6.322e-6
-1.040, 6.322e-6
-1.041, 6.322e-6
-1.042, 6.322e-6
-1.043, 6.322e-6
-1.044, 6.322e-6
-1.045, 6.322e-6
-1.046, 6.322e-6
-1.047, 9.405e-6
-1.048, 6.322e-6
-1.049, 6.322e-6
-1.050, 6.322e-6
-1.051, 6.322e-6
-1.052, 6.322e-6
-1.053, 6.322e-6
-1.054, 9.405e-6
-1.055, 6.322e-6
-1.056, 6.322e-6
-1.057, 6.322e-6
-1.058, 6.322e-6
-1.059, 6.322e-6
-1.060, 6.322e-6
-1.061, 6.322e-6
-1.062, 9.405e-6
-1.063, 6.322e-6
-1.064, 9.405e-6
-1.065, 6.322e-6
-1.066, 6.322e-6
-1.067, 9.405e-6
-1.068, 6.322e-6
-1.069, 6.322e-6
-1.070, 6.322e-6
-1.071, 6.322e-6
-1.072, 6.322e-6
-1.073, 6.322e-6
-1.074, 9.405e-6
-1.075, 6.322e-6
-1.076, 9.405e-6
-1.077, 6.322e-6
-1.078, 6.322e-6
-1.079, 9.405e-6
-1.080, 6.322e-6
-1.081, 9.405e-6
-1.082, 9.405e-6
-1.083, 6.322e-6
-1.084, 9.405e-6
-1.085, 6.322e-6
-1.086, 9.405e-6
-1.087, 6.322e-6
-1.088, 6.322e-6
-1.089, 9.405e-6
-1.090, 6.322e-6
-1.091, 9.405e-6
-1.092, 6.322e-6
-1.093, 9.405e-6
-1.094, 9.405e-6
-1.095, 9.405e-6
-1.096, 9.405e-6
-1.097, 6.322e-6
-1.098, 9.405e-6
-1.099, 9.405e-6
-1.100, 9.405e-6
-1.101, 9.405e-6
-1.102, 9.405e-6
-1.103, 9.405e-6
-1.104, 9.405e-6
-1.105, 6.322e-6
-1.106, 9.405e-6
-1.107, 6.322e-6
-1.108, 9.405e-6
-1.109, 9.405e-6
-1.110, 9.405e-6
-1.111, 9.405e-6
-1.112, 9.405e-6
-1.113, 9.405e-6
-1.114, 9.405e-6
-1.115, 9.405e-6
-1.116, 9.405e-6
-1.117, 9.405e-6
-1.118, 9.405e-6
-1.119, 9.405e-6
-1.120, 9.405e-6
-1.121, 9.405e-6
-1.122, 9.405e-6
-1.123, 9.405e-6
-1.124, 9.405e-6
-1.125, 9.405e-6
-1.126, 9.405e-6
-1.127, 9.405e-6
-1.128, 9.405e-6
-1.129, 9.405e-6
-1.130, 9.405e-6
-1.131, 9.405e-6
-1.132, 9.405e-6
-1.133, 9.405e-6
-1.134, 9.405e-6
-1.135, 9.405e-6
-1.136, 9.405e-6
-1.137, 9.405e-6
-1.138, 9.405e-6
-1.139, 9.405e-6
-1.140, 9.405e-6
-1.141, 9.405e-6
-1.142, 9.405e-6
-1.143, 9.405e-6
-1.144, 9.405e-6
-1.145, 1.249e-5
-1.146, 9.405e-6
-1.147, 9.405e-6
-1.148, 9.405e-6
-1.149, 9.405e-6
-1.150, 9.405e-6
-1.151, 9.405e-6
-1.152, 9.405e-6
-1.153, 9.405e-6
-1.154, 9.405e-6
-1.155, 9.405e-6
-1.156, 9.405e-6
-1.157, 1.249e-5
-1.158, 9.405e-6
-1.159, 9.405e-6
-1.160, 9.405e-6
-1.161, 9.405e-6
-1.162, 1.249e-5
-1.163, 9.405e-6
-1.164, 9.405e-6
-1.165, 1.249e-5
-1.166, 9.405e-6
-1.167, 1.249e-5
-1.168, 9.405e-6
-1.169, 1.249e-5
-1.170, 9.405e-6
-1.171, 9.405e-6
-1.172, 9.405e-6
-1.173, 9.405e-6
-1.174, 1.249e-5
-1.175, 9.405e-6
-1.176, 9.405e-6
-1.177, 1.249e-5
-1.178, 9.405e-6
-1.179, 9.405e-6
-1.180, 1.249e-5
-1.181, 9.405e-6
-1.182, 1.249e-5
-1.183, 9.405e-6
-1.184, 9.405e-6
-1.185, 1.249e-5
-1.186, 9.405e-6
-1.187, 1.249e-5
-1.188, 9.405e-6
-1.189, 1.249e-5
-1.190, 9.405e-6
-1.191, 1.249e-5
-1.192, 1.249e-5
-1.193, 9.405e-6
-1.194, 1.249e-5
-1.195, 1.249e-5
-1.196, 1.249e-5
-1.197, 1.249e-5
-1.198, 9.405e-6
-1.199, 1.249e-5
-1.200, 1.249e-5
-1.201, 1.249e-5
-1.202, 9.405e-6
-1.203, 9.405e-6
-1.204, 1.249e-5
-1.205, 9.405e-6
-1.206, 1.249e-5
-1.207, 1.249e-5
-1.208, 9.405e-6
-1.209, 1.249e-5
-1.210, 1.249e-5
-1.211, 1.249e-5
-1.212, 1.249e-5
-1.213, 1.249e-5
-1.214, 1.249e-5
-1.215, 9.405e-6
-1.216, 1.249e-5
-1.217, 1.249e-5
-1.218, 1.249e-5
-1.219, 1.249e-5
-1.220, 1.249e-5
-1.221, 1.249e-5
-1.222, 1.249e-5
-1.223, 1.249e-5
-1.224, 1.249e-5
-1.225, 1.249e-5
-1.226, 1.249e-5
-1.227, 1.249e-5
-1.228, 1.249e-5
-1.229, 1.249e-5
-1.230, 1.249e-5
-1.231, 1.249e-5
-1.232, 1.249e-5
-1.233, 1.249e-5
-1.234, 1.249e-5
-1.235, 1.249e-5
-1.236, 1.249e-5
-1.237, 1.249e-5
-1.238, 1.249e-5
-1.239, 1.249e-5
-1.240, 1.249e-5
-1.241, 1.557e-5
-1.242, 1.249e-5
-1.243, 1.249e-5
-1.244, 1.249e-5
-1.245, 1.249e-5
-1.246, 1.249e-5
-1.247, 1.249e-5
-1.248, 1.249e-5
-1.249, 1.249e-5
-1.250, 1.249e-5
-1.251, 1.249e-5
-1.252, 1.249e-5
-1.253, 1.249e-5
-1.254, 1.249e-5
-1.255, 1.249e-5
-1.256, 1.249e-5
-1.257, 1.249e-5
-1.258, 1.249e-5
-1.259, 1.249e-5
-1.260, 1.249e-5
-1.261, 1.249e-5
-1.262, 1.249e-5
-1.263, 1.249e-5
-1.264, 1.249e-5
-1.265, 1.557e-5
-1.266, 1.249e-5
-1.267, 1.249e-5
-1.268, 1.249e-5
-1.269, 1.249e-5
-1.270, 1.557e-5
-1.271, 1.249e-5
-1.272, 1.249e-5
-1.273, 1.249e-5
-1.274, 1.249e-5
-1.275, 1.557e-5
-1.276, 1.249e-5
-1.277, 1.249e-5
-1.278, 1.249e-5
-1.279, 1.249e-5
-1.280, 1.557e-5
-1.281, 1.249e-5
-1.282, 1.557e-5
-1.283, 1.557e-5
-1.284, 1.249e-5
-1.285, 1.557e-5
-1.286, 1.249e-5
-1.287, 1.557e-5
-1.288, 1.557e-5
-1.289, 1.557e-5
-1.290, 1.557e-5
-1.291, 1.557e-5
-1.292, 1.557e-5
-1.293, 1.249e-5
-1.294, 1.557e-5
-1.295, 1.557e-5
-1.296, 1.249e-5
-1.297, 1.557e-5
-1.298, 1.249e-5
-1.299, 1.557e-5
-1.300, 1.557e-5
-1.301, 1.249e-5
-1.302, 1.557e-5
-1.303, 1.557e-5
-1.304, 1.557e-5
-1.305, 1.557e-5
-1.306, 1.557e-5
-1.307, 1.557e-5
-1.308, 1.557e-5
-1.309, 1.557e-5
-1.310, 1.557e-5
-1.311, 1.557e-5
-1.312, 1.557e-5
-1.313, 1.557e-5
-1.314, 1.557e-5
-1.315, 1.557e-5
-1.316, 1.557e-5
-1.317, 1.557e-5
-1.318, 1.557e-5
-1.319, 1.557e-5
-1.320, 1.557e-5
-1.321, 1.557e-5
-1.322, 1.557e-5
-1.323, 1.557e-5
-1.324, 1.557e-5
-1.325, 1.557e-5
-1.326, 1.557e-5
-1.327, 1.557e-5
-1.328, 1.557e-5
-1.329, 1.557e-5
-1.330, 1.557e-5
-1.331, 1.557e-5
-1.332, 1.557e-5
-1.333, 1.557e-5
-1.334, 1.557e-5
-1.335, 1.557e-5
-1.336, 1.557e-5
-1.337, 1.865e-5
-1.338, 1.557e-5
-1.339, 1.557e-5
-1.340, 1.557e-5
-1.341, 1.557e-5
-1.342, 1.865e-5
-1.343, 1.557e-5
-1.344, 1.865e-5
-1.345, 1.557e-5
-1.346, 1.557e-5
-1.347, 1.557e-5
-1.348, 1.557e-5
-1.349, 1.865e-5
-1.350, 1.557e-5
-1.351, 1.865e-5
-1.352, 1.865e-5
-1.353, 1.865e-5
-1.354, 1.865e-5
-1.355, 1.557e-5
-1.356, 1.865e-5
-1.357, 1.865e-5
-1.358, 1.865e-5
-1.359, 1.865e-5
-1.360, 1.865e-5
-1.361, 1.865e-5
-1.362, 1.865e-5
-1.363, 1.865e-5
-1.364, 1.865e-5
-1.365, 1.557e-5
-1.366, 1.865e-5
-1.367, 1.865e-5
-1.368, 1.865e-5
-1.369, 1.865e-5
-1.370, 1.865e-5
-1.371, 1.865e-5
-1.372, 1.865e-5
-1.373, 1.865e-5
-1.374, 1.865e-5
-1.375, 1.865e-5
-1.376, 1.865e-5
-1.377, 1.865e-5
-1.378, 1.865e-5
-1.379, 1.865e-5
-1.380, 1.865e-5
-1.381, 1.865e-5
-1.382, 1.865e-5
-1.383, 2.174e-5
-1.384, 1.865e-5
-1.385, 1.865e-5
-1.386, 1.865e-5
-1.387, 1.865e-5
-1.388, 1.865e-5
-1.389, 1.865e-5
-1.390, 1.865e-5
-1.391, 2.174e-5
-1.392, 1.865e-5
-1.393, 2.174e-5
-1.394, 1.865e-5
-1.395, 2.174e-5
-1.396, 2.174e-5
-1.397, 2.174e-5
-1.398, 2.174e-5
-1.399, 2.174e-5
-1.400, 1.865e-5
-1.401, 2.174e-5
-1.402, 2.174e-5
-1.403, 2.174e-5
-1.404, 1.865e-5
-1.405, 2.174e-5
-1.406, 2.174e-5
-1.407, 2.174e-5
-1.408, 2.174e-5
-1.409, 2.174e-5
-1.410, 2.174e-5
-1.411, 2.174e-5
-1.412, 2.174e-5
-1.413, 2.174e-5
-1.414, 2.174e-5
-1.415, 2.174e-5
-1.416, 2.174e-5
-1.417, 2.174e-5
-1.418, 2.174e-5
-1.419, 2.174e-5
-1.420, 2.482e-5
-1.421, 2.174e-5
-1.422, 2.174e-5
-1.423, 2.174e-5
-1.424, 2.174e-5
-1.425, 2.482e-5
-1.426, 2.174e-5
-1.427, 2.174e-5
-1.428, 2.174e-5
-1.429, 2.174e-5
-1.430, 2.482e-5
-1.431, 2.174e-5
-1.432, 2.482e-5
-1.433, 2.482e-5
-1.434, 2.174e-5
-1.435, 2.482e-5
-1.436, 2.174e-5
-1.437, 2.482e-5
-1.438, 2.482e-5
-1.439, 2.482e-5
-1.440, 2.482e-5
-1.441, 2.482e-5
-1.442, 2.482e-5
-1.443, 2.482e-5
-1.444, 2.482e-5
-1.445, 2.482e-5
-1.446, 2.482e-5
-1.447, 2.482e-5
-1.448, 2.482e-5
-1.449, 2.482e-5
-1.450, 2.482e-5
-1.451, 2.482e-5
-1.452, 2.482e-5
-1.453, 2.482e-5
-1.454, 2.482e-5
-1.455, 2.482e-5
-1.456, 2.482e-5
-1.457, 2.790e-5
-1.458, 2.790e-5
-1.459, 2.790e-5
-1.460, 2.790e-5
-1.461, 2.790e-5
-1.462, 2.790e-5
-1.463, 2.790e-5
-1.464, 2.790e-5
-1.465, 2.790e-5
-1.466, 2.790e-5
-1.467, 2.790e-5
-1.468, 2.790e-5
-1.469, 2.790e-5
-1.470, 2.790e-5
-1.471, 2.790e-5
-1.472, 2.790e-5
-1.473, 2.790e-5
-1.474, 3.099e-5
-1.475, 2.790e-5
-1.476, 2.790e-5
-1.477, 2.790e-5
-1.478, 2.790e-5
-1.479, 3.099e-5
-1.480, 2.790e-5
-1.481, 3.099e-5
-1.482, 3.099e-5
-1.483, 2.790e-5
-1.484, 3.099e-5
-1.485, 3.099e-5
-1.486, 3.099e-5
-1.487, 3.099e-5
-1.488, 3.099e-5
-1.489, 3.099e-5
-1.490, 3.099e-5
-1.491, 3.099e-5
-1.492, 3.099e-5
-1.493, 3.099e-5
-1.494, 3.099e-5
-1.495, 3.099e-5
-1.496, 3.099e-5
-1.497, 3.099e-5
-1.498, 3.407e-5
-1.499, 3.407e-5
-1.500, 3.099e-5
-1.501, 3.407e-5
-1.502, 3.407e-5
-1.503, 3.407e-5
-1.504, 3.407e-5
-1.505, 3.407e-5
-1.506, 3.407e-5
-1.507, 3.407e-5
-1.508, 3.407e-5
-1.509, 3.407e-5
-1.510, 3.407e-5
-1.511, 3.407e-5
-1.512, 3.407e-5
-1.513, 3.407e-5
-1.514, 3.407e-5
-1.515, 3.407e-5
-1.516, 3.715e-5
-1.517, 3.407e-5
-1.518, 3.715e-5
-1.519, 3.715e-5
-1.520, 3.715e-5
-1.521, 3.715e-5
-1.522, 3.715e-5
-1.523, 3.715e-5
-1.524, 3.715e-5
-1.525, 3.715e-5
-1.526, 3.715e-5
-1.527, 3.715e-5
-1.528, 3.715e-5
-1.529, 3.715e-5
-1.530, 3.715e-5
-1.531, 4.024e-5
-1.532, 3.715e-5
-1.533, 4.024e-5
-1.534, 4.024e-5
-1.535, 4.024e-5
-1.536, 4.024e-5
-1.537, 4.024e-5
-1.538, 4.024e-5
-1.539, 4.024e-5
-1.540, 4.024e-5
-1.541, 4.332e-5
-1.542, 4.024e-5
-1.543, 4.024e-5
-1.544, 4.024e-5
-1.545, 4.332e-5
-1.546, 4.024e-5
-1.547, 4.024e-5
-1.548, 4.332e-5
-1.549, 4.332e-5
-1.550, 4.332e-5
-1.551, 4.332e-5
-1.552, 4.332e-5
-1.553, 4.332e-5
-1.554, 4.332e-5
-1.555, 4.332e-5
-1.556, 4.332e-5
-1.557, 4.640e-5
-1.558, 4.640e-5
-1.559, 4.332e-5
-1.560, 4.640e-5
-1.561, 4.640e-5
-1.562, 4.640e-5
-1.563, 4.640e-5
-1.564, 4.640e-5
-1.565, 4.640e-5
-1.566, 4.640e-5
-1.567, 4.949e-5
-1.568, 4.949e-5
-1.569, 4.949e-5
-1.570, 4.949e-5
-1.571, 4.949e-5
-1.572, 5.257e-5
-1.573, 4.949e-5
-1.574, 5.257e-5
-1.575, 5.257e-5
-1.576, 5.257e-5
-1.577, 5.257e-5
-1.578, 5.257e-5
-1.579, 5.257e-5
-1.580, 5.565e-5
-1.581, 5.257e-5
-1.582, 5.565e-5
-1.583, 5.565e-5
-1.584, 5.565e-5
-1.585, 5.565e-5
-1.586, 5.565e-5
-1.587, 5.873e-5
-1.588, 5.873e-5
-1.589, 5.873e-5
-1.590, 5.873e-5
-1.591, 5.873e-5
-1.592, 6.182e-5
-1.593, 5.873e-5
-1.594, 6.490e-5
-1.595, 6.490e-5
-1.596, 6.182e-5
-1.597, 6.490e-5
-1.598, 6.490e-5
-1.599, 6.798e-5
-1.600, 6.798e-5
-1.601, 6.798e-5
-1.602, 7.107e-5
-1.603, 6.798e-5
-1.604, 7.107e-5
-1.605, 7.107e-5
-1.606, 7.107e-5
-1.607, 7.415e-5
-1.608, 7.415e-5
-1.609, 7.723e-5
-1.610, 7.723e-5
-1.611, 7.723e-5
-1.612, 8.032e-5
-1.613, 8.032e-5
-1.614, 8.032e-5
-1.615, 8.340e-5
-1.616, 8.340e-5
-1.617, 8.648e-5
-1.618, 8.648e-5
-1.619, 8.957e-5
-1.620, 8.957e-5
-1.621, 8.957e-5
-1.622, 9.265e-5
-1.623, 9.265e-5
-1.624, 9.573e-5
-1.625, 9.573e-5
-1.626, 9.882e-5
-1.627, 1.019e-4
-1.628, 1.019e-4
-1.629, 1.050e-4
-1.630, 1.050e-4
-1.631, 1.111e-4
-1.632, 1.111e-4
-1.633, 1.142e-4
-1.634, 1.142e-4
-1.635, 1.173e-4
-1.636, 1.204e-4
-1.637, 1.235e-4
-1.638, 1.266e-4
-1.639, 1.266e-4
-1.640, 1.296e-4
-1.641, 1.358e-4
-1.642, 1.358e-4
-1.643, 1.420e-4
-1.644, 1.451e-4
-1.645, 1.451e-4
-1.646, 1.512e-4
-1.647, 1.543e-4
-1.648, 1.574e-4
-1.649, 1.636e-4
-1.650, 1.636e-4
-1.651, 1.697e-4
-1.652, 1.728e-4
-1.653, 1.790e-4
-1.654, 1.821e-4
-1.655, 1.851e-4
-1.656, 1.913e-4
-1.657, 1.944e-4
-1.658, 2.006e-4
-1.659, 2.067e-4
-1.660, 2.129e-4
-1.661, 2.160e-4
-1.662, 2.221e-4
-1.663, 2.283e-4
-1.664, 2.314e-4
-1.665, 2.406e-4
-1.666, 2.468e-4
-1.667, 2.499e-4
-1.668, 2.591e-4
-1.669, 2.653e-4
-1.670, 2.746e-4
-1.671, 2.807e-4
-1.672, 2.869e-4
-1.673, 2.961e-4
-1.674, 3.023e-4
-1.675, 3.115e-4
-1.676, 3.208e-4
-1.677, 3.300e-4
-1.678, 3.424e-4
-1.679, 3.516e-4
-1.680, 3.609e-4
-1.681, 3.701e-4
-1.682, 3.825e-4
-1.683, 3.948e-4
-1.684, 4.040e-4
-1.685, 4.164e-4
-1.686, 4.287e-4
-1.687, 4.441e-4
-1.688, 4.565e-4
-1.689, 4.688e-4
-1.690, 4.842e-4
-1.691, 4.996e-4
-1.692, 5.150e-4
-1.693, 5.305e-4
-1.694, 5.459e-4
-1.695, 5.644e-4
-1.696, 5.829e-4
-1.697, 6.014e-4
-1.698, 6.199e-4
-1.699, 6.384e-4
-1.700, 6.599e-4
-1.701, 6.784e-4
-1.702, 7.000e-4
-1.703, 7.216e-4
-1.704, 7.432e-4
-1.705, 7.709e-4
-1.706, 7.925e-4
-1.707, 8.203e-4
-1.708, 8.449e-4
-1.709, 8.727e-4
-1.710, 9.004e-4
-1.711, 9.282e-4
-1.712, 9.590e-4
-1.713, 9.868e-4
-1.714, 1.018e-3
-1.715, 1.051e-3
-1.716, 1.082e-3
-1.717, 1.116e-3
-1.718, 1.150e-3
-1.719, 1.187e-3
-1.720, 1.224e-3
-1.721, 1.258e-3
-1.722, 1.298e-3
-1.723, 1.335e-3
-1.724, 1.378e-3
-1.725, 1.418e-3
-1.726, 1.462e-3
-1.727, 1.508e-3
-1.728, 1.551e-3
-1.729, 1.600e-3
-1.730, 1.643e-3
-1.731, 1.696e-3
-1.732, 1.742e-3
-1.733, 1.791e-3
-1.734, 1.844e-3
-1.735, 1.896e-3
-1.736, 1.952e-3
-1.737, 2.004e-3
-1.738, 2.063e-3
-1.739, 2.118e-3
-1.740, 2.177e-3
-1.741, 2.235e-3
-1.742, 2.300e-3
-1.743, 2.359e-3
-1.744, 2.427e-3
-1.745, 2.491e-3
-1.746, 2.556e-3
-1.747, 2.627e-3
-1.748, 2.692e-3
-1.749, 2.763e-3
-1.750, 2.830e-3
-1.751, 2.904e-3
-1.752, 2.975e-3
-1.753, 3.046e-3
-1.754, 3.120e-3
-1.755, 3.197e-3
-1.756, 3.271e-3
-1.757, 3.351e-3
-1.758, 3.429e-3
-1.759, 3.512e-3
-1.760, 3.589e-3
-1.761, 3.675e-3
-1.762, 3.758e-3
-1.763, 3.842e-3
-1.764, 3.925e-3
-1.765, 4.011e-3
-1.766, 4.101e-3
-1.767, 4.187e-3
-1.768, 4.276e-3
-1.769, 4.366e-3
-1.770, 4.455e-3
-1.771, 4.545e-3
-1.772, 4.634e-3
-1.773, 4.723e-3
-1.774, 4.819e-3
-1.775, 4.915e-3
-1.776, 5.010e-3
-1.777, 5.109e-3
-1.778, 5.204e-3
-1.779, 5.306e-3
-1.780, 5.405e-3
-1.781, 5.500e-3
-1.782, 5.599e-3
-1.783, 5.701e-3
-1.784, 5.806e-3
-1.785, 5.910e-3
-1.786, 6.018e-3
-1.787, 6.123e-3
-1.788, 6.225e-3
-1.789, 6.330e-3
-1.790, 6.428e-3
-1.791, 6.533e-3
-1.792, 6.638e-3
-1.793, 6.743e-3
-1.794, 6.851e-3
-1.795, 6.956e-3
-1.796, 7.060e-3
-1.797, 7.168e-3
-1.798, 7.279e-3
-1.799, 7.381e-3
-1.800, 7.452e-3
-1.799, 7.443e-3
-1.798, 7.427e-3
-1.797, 7.409e-3
-1.796, 7.381e-3
-1.795, 7.350e-3
-1.794, 7.316e-3
-1.793, 7.279e-3
-1.792, 7.242e-3
-1.791, 7.202e-3
-1.790, 7.162e-3
-1.789, 7.125e-3
-1.788, 7.079e-3
-1.787, 7.033e-3
-1.786, 6.986e-3
-1.785, 6.937e-3
-1.784, 6.891e-3
-1.783, 6.842e-3
-1.782, 6.792e-3
-1.781, 6.743e-3
-1.780, 6.694e-3
-1.779, 6.638e-3
-1.778, 6.589e-3
-1.777, 6.536e-3
-1.776, 6.481e-3
-1.775, 6.432e-3
-1.774, 6.376e-3
-1.773, 6.327e-3
-1.772, 6.277e-3
-1.771, 6.222e-3
-1.770, 6.173e-3
-1.769, 6.114e-3
-1.768, 6.062e-3
-1.767, 6.006e-3
-1.766, 5.951e-3
-1.765, 5.901e-3
-1.764, 5.846e-3
-1.763, 5.793e-3
-1.762, 5.741e-3
-1.761, 5.682e-3
-1.760, 5.633e-3
-1.759, 5.574e-3
-1.758, 5.519e-3
-1.757, 5.460e-3
-1.756, 5.408e-3
-1.755, 5.359e-3
-1.754, 5.300e-3
-1.753, 5.248e-3
-1.752, 5.189e-3
-1.751, 5.134e-3
-1.750, 5.078e-3
-1.749, 5.023e-3
-1.748, 4.967e-3
-1.747, 4.915e-3
-1.746, 4.862e-3
-1.745, 4.810e-3
-1.744, 4.757e-3
-1.743, 4.705e-3
-1.742, 4.649e-3
-1.741, 4.597e-3
-1.740, 4.545e-3
-1.739, 4.492e-3
-1.738, 4.443e-3
-1.737, 4.391e-3
-1.736, 4.338e-3
-1.735, 4.283e-3
-1.734, 4.233e-3
-1.733, 4.181e-3
-1.732, 4.132e-3
-1.731, 4.082e-3
-1.730, 4.033e-3
-1.729, 3.984e-3
-1.728, 3.937e-3
-1.727, 3.885e-3
-1.726, 3.839e-3
-1.725, 3.786e-3
-1.724, 3.740e-3
-1.723, 3.691e-3
-1.722, 3.644e-3
-1.721, 3.595e-3
-1.720, 3.549e-3
-1.719, 3.496e-3
-1.718, 3.453e-3
-1.717, 3.404e-3
-1.716, 3.361e-3
-1.715, 3.314e-3
-1.714, 3.271e-3
-1.713, 3.228e-3
-1.712, 3.182e-3
-1.711, 3.139e-3
-1.710, 3.093e-3
-1.709, 3.049e-3
-1.708, 3.006e-3
-1.707, 2.963e-3
-1.706, 2.920e-3
-1.705, 2.877e-3
-1.704, 2.837e-3
-1.703, 2.793e-3
-1.702, 2.753e-3
-1.701, 2.716e-3
-1.700, 2.673e-3
-1.699, 2.636e-3
-1.698, 2.593e-3
-1.697, 2.556e-3
-1.696, 2.519e-3
-1.695, 2.479e-3
-1.694, 2.442e-3
-1.693, 2.402e-3
-1.692, 2.365e-3
-1.691, 2.328e-3
-1.690, 2.288e-3
-1.689, 2.254e-3
-1.688, 2.220e-3
-1.687, 2.180e-3
-1.686, 2.146e-3
-1.685, 2.115e-3
-1.684, 2.078e-3
-1.683, 2.044e-3
-1.682, 2.010e-3
-1.681, 1.976e-3
-1.680, 1.946e-3
-1.679, 1.915e-3
-1.678, 1.881e-3
-1.677, 1.850e-3
-1.676, 1.819e-3
-1.675, 1.785e-3
-1.674, 1.758e-3
-1.673, 1.724e-3
-1.672, 1.696e-3
-1.671, 1.665e-3
-1.670, 1.637e-3
-1.669, 1.606e-3
-1.668, 1.579e-3
-1.667, 1.554e-3
-1.666, 1.526e-3
-1.665, 1.495e-3
-1.664, 1.471e-3
-1.663, 1.443e-3
-1.662, 1.418e-3
-1.661, 1.391e-3
-1.660, 1.366e-3
-1.659, 1.341e-3
-1.658, 1.314e-3
-1.657, 1.292e-3
-1.656, 1.267e-3
-1.655, 1.243e-3
-1.654, 1.221e-3
-1.653, 1.199e-3
-1.652, 1.178e-3
-1.651, 1.153e-3
-1.650, 1.132e-3
-1.649, 1.110e-3
-1.648, 1.088e-3
-1.647, 1.067e-3
-1.646, 1.045e-3
-1.645, 1.027e-3
-1.644, 1.008e-3
-1.643, 9.868e-4
-1.642, 9.652e-4
-1.641, 9.467e-4
-1.640, 9.313e-4
-1.639, 9.128e-4
-1.638, 8.912e-4
-1.637, 8.727e-4
-1.636, 8.542e-4
-1.635, 8.388e-4
-1.634, 8.233e-4
-1.633, 8.048e-4
-1.632, 7.894e-4
-1.631, 7.709e-4
-1.630, 7.586e-4
-1.629, 7.401e-4
-1.628, 7.247e-4
-1.627, 7.093e-4
-1.626, 6.939e-4
-1.625, 6.815e-4
-1.624, 6.661e-4
-1.623, 6.538e-4
-1.622, 6.384e-4
-1.621, 6.229e-4
-1.620, 6.106e-4
-1.619, 5.983e-4
-1.618, 5.859e-4
-1.617, 5.736e-4
-1.616, 5.582e-4
-1.615, 5.489e-4
-1.614, 5.335e-4
-1.613, 5.243e-4
-1.612, 5.150e-4
-1.611, 5.027e-4
-1.610, 4.904e-4
-1.609, 4.780e-4
-1.608, 4.688e-4
-1.607, 4.565e-4
-1.606, 4.472e-4
-1.605, 4.410e-4
-1.604, 4.287e-4
-1.603, 4.195e-4
-1.602, 4.071e-4
-1.601, 4.010e-4
-1.600, 3.917e-4
-1.599, 3.825e-4
-1.598, 3.732e-4
-1.597, 3.640e-4
-1.596, 3.578e-4
-1.595, 3.485e-4
-1.594, 3.393e-4
-1.593, 3.331e-4
-1.592, 3.239e-4
-1.591, 3.177e-4
-1.590, 3.115e-4
-1.589, 3.023e-4
-1.588, 2.961e-4
-1.587, 2.900e-4
-1.586, 2.807e-4
-1.585, 2.746e-4
-1.584, 2.684e-4
-1.583, 2.622e-4
-1.582, 2.561e-4
-1.581, 2.499e-4
-1.580, 2.437e-4
-1.579, 2.376e-4
-1.578, 2.345e-4
-1.577, 2.283e-4
-1.576, 2.221e-4
-1.575, 2.160e-4
-1.574, 2.129e-4
-1.573, 2.067e-4
-1.572, 2.006e-4
-1.571, 1.975e-4
-1.570, 1.913e-4
-1.569, 1.882e-4
-1.568, 1.851e-4
-1.567, 1.790e-4
-1.566, 1.759e-4
-1.565, 1.697e-4
-1.564, 1.666e-4
-1.563, 1.636e-4
-1.562, 1.574e-4
-1.561, 1.543e-4
-1.560, 1.481e-4
-1.559, 1.481e-4
-1.558, 1.420e-4
-1.557, 1.389e-4
-1.556, 1.358e-4
-1.555, 1.327e-4
-1.554, 1.296e-4
-1.553, 1.266e-4
-1.552, 1.235e-4
-1.551, 1.204e-4
-1.550, 1.173e-4
-1.549, 1.142e-4
-1.548, 1.111e-4
-1.547, 1.081e-4
-1.546, 1.050e-4
-1.545, 1.019e-4
-1.544, 1.019e-4
-1.543, 9.882e-5
-1.542, 9.573e-5
-1.541, 9.265e-5
-1.540, 8.957e-5
-1.539, 8.957e-5
-1.538, 8.648e-5
-1.537, 8.340e-5
-1.536, 8.340e-5
-1.535, 8.032e-5
-1.534, 8.032e-5
-1.533, 7.723e-5
-1.532, 7.415e-5
-1.531, 7.107e-5
-1.530, 7.107e-5
-1.529, 7.107e-5
-1.528, 6.798e-5
-1.527, 6.490e-5
-1.526, 6.490e-5
-1.525, 6.182e-5
-1.524, 6.182e-5
-1.523, 5.873e-5
-1.522, 5.873e-5
-1.521, 5.565e-5
-1.520, 5.565e-5
-1.519, 5.565e-5
-1.518, 5.257e-5
-1.517, 5.257e-5
-1.516, 4.949e-5
-1.515, 4.949e-5
-1.514, 4.949e-5
-1.513, 4.640e-5
-1.512, 4.640e-5
-1.511, 4.332e-5
-1.510, 4.332e-5
-1.509, 4.332e-5
-1.508, 4.024e-5
-1.507, 4.024e-5
-1.506, 3.715e-5
-1.505, 3.715e-5
-1.504, 3.715e-5
-1.503, 3.715e-5
-1.502, 3.407e-5
-1.501, 3.407e-5
-1.500, 3.407e-5
-1.499, 3.407e-5
-1.498, 3.099e-5
-1.497, 3.099e-5
-1.496, 2.790e-5
-1.495, 2.790e-5
-1.494, 2.790e-5
-1.493, 2.790e-5
-1.492, 2.790e-5
-1.491, 2.482e-5
-1.490, 2.790e-5
-1.489, 2.482e-5
-1.488, 2.482e-5
-1.487, 2.482e-5
-1.486, 2.174e-5
-1.485, 2.482e-5
-1.484, 2.174e-5
-1.483, 2.174e-5
-1.482, 2.174e-5
-1.481, 1.865e-5
-1.480, 2.174e-5
-1.479, 1.865e-5
-1.478, 1.865e-5
-1.477, 1.865e-5
-1.476, 1.865e-5
-1.475, 1.865e-5
-1.474, 1.557e-5
-1.473, 1.865e-5
-1.472, 1.557e-5
-1.471, 1.557e-5
-1.470, 1.557e-5
-1.469, 1.557e-5
-1.468, 1.557e-5
-1.467, 1.557e-5
-1.466, 1.557e-5
-1.465, 1.557e-5
-1.464, 1.249e-5
-1.463, 1.249e-5
-1.462, 1.249e-5
-1.461, 1.249e-5
-1.460, 1.249e-5
-1.459, 1.249e-5
-1.458, 1.249e-5
-1.457, 1.249e-5
-1.456, 1.249e-5
-1.455, 1.249e-5
-1.454, 9.405e-6
-1.453, 9.405e-6
-1.452, 9.405e-6
-1.451, 9.405e-6
-1.450, 9.405e-6
-1.449, 9.405e-6
-1.448, 9.405e-6
-1.447, 9.405e-6
-1.446, 9.405e-6
-1.445, 9.405e-6
-1.444, 9.405e-6
-1.443, 9.405e-6
-1.442, 6.322e-6
-1.441, 6.322e-6
-1.440, 6.322e-6
-1.439, 6.322e-6
-1.438, 6.322e-6
-1.437, 6.322e-6
-1.436, 6.322e-6
-1.435, 6.322e-6
-1.434, 6.322e-6
-1.433, 6.322e-6
-1.432, 6.322e-6
-1.431, 6.322e-6
-1.430, 6.322e-6
-1.429, 6.322e-6
-1.428, 6.322e-6
-1.427, 3.239e-6
-1.426, 6.322e-6
-1.425, 6.322e-6
-1.424, 6.322e-6
-1.423, 3.239e-6
-1.422, 3.239e-6
-1.421, 6.322e-6
-1.420, 3.239e-6
-1.419, 3.239e-6
-1.418, 3.239e-6
-1.417, 3.239e-6
-1.416, 3.239e-6
-1.415, 3.239e-6
-1.414, 3.239e-6
-1.413, 3.239e-6
-1.412, 3.239e-6
-1.411, 3.239e-6
-1.410, 3.239e-6
-1.409, 3.239e-6
-1.408, 3.239e-6
-1.407, 3.239e-6
-1.406, 3.239e-6
-1.405, 3.239e-6
-1.404, 3.239e-6
-1.403, 3.239e-6
-1.402, 3.239e-6
-1.401, 3.239e-6
-1.400, 3.239e-6
-1.399, 3.239e-6
-1.398, 1.559e-7
-1.397, 3.239e-6
-1.396, 3.239e-6
-1.395, 1.559e-7
-1.394, 3.239e-6
-1.393, 1.559e-7
-1.392, 3.239e-6
-1.391, 3.239e-6
-1.390, 1.559e-7
-1.389, 3.239e-6
-1.388, 1.559e-7
-1.387, 1.559e-7
-1.386, 1.559e-7
-1.385, 1.559e-7
-1.384, 3.239e-6
-1.383, 1.559e-7
-1.382, 1.559e-7
-1.381, 1.559e-7
-1.380, 1.559e-7
-1.379, 1.559e-7
-1.378, 1.559e-7
-1.377, 1.559e-7
-1.376, 1.559e-7
-1.375, 1.559e-7
-1.374, 1.559e-7
-1.373, 1.559e-7
-1.372, 3.239e-6
-1.371, 1.559e-7
-1.370, 1.559e-7
-1.369, 1.559e-7
-1.368, 1.559e-7
-1.367, 1.559e-7
-1.366, 1.559e-7
-1.365, 1.559e-7
-1.364, 1.559e-7
-1.363, 1.559e-7
-1.362, 1.559e-7
-1.361, 1.559e-7
-1.360, 1.559e-7
-1.359, 1.559e-7
-1.358, 1.559e-7
-1.357, 1.559e-7
-1.356, 1.559e-7
-1.355, 1.559e-7
-1.354, 1.559e-7
-1.353, 1.559e-7
-1.352, 1.559e-7
-1.351, 1.559e-7
-1.350, 1.559e-7
-1.349, 1.559e-7
-1.348, 1.559e-7
-1.347, 1.559e-7
-1.346, -2.927e-6
-1.345, 1.559e-7
-1.344, 1.559e-7
-1.343, 1.559e-7
-1.342, 1.559e-7
-1.341, 1.559e-7
-1.340, 1.559e-7
-1.339, 1.559e-7
-1.338, 1.559e-7
-1.337, 1.559e-7
-1.336, 1.559e-7
-1.335, 1.559e-7
-1.334, -2.927e-6
-1.333, 1.559e-7
-1.332, 1.559e-7
-1.331, 1.559e-7
-1.330, 1.559e-7
-1.329, -2.927e-6
-1.328, 1.559e-7
-1.327, -2.927e-6
-1.326, 1.559e-7
-1.325, 1.559e-7
-1.324, -2.927e-6
-1.323, 1.559e-7
-1.322, 1.559e-7
-1.321, 1.559e-7
-1.320, -2.927e-6
-1.319, 1.559e-7
-1.318, 1.559e-7
-1.317, -2.927e-6
-1.316, 1.559e-7
-1.315, 1.559e-7
-1.314, 1.559e-7
-1.313, 1.559e-7
-1.312, -2.927e-6
-1.311, 1.559e-7
-1.310, -2.927e-6
-1.309, -2.927e-6
-1.308, -2.927e-6
-1.307, -2.927e-6
-1.306, 1.559e-7
-1.305, 1.559e-7
-1.304, 1.559e-7
-1.303, -2.927e-6
-1.302, -2.927e-6
-1.301, 1.559e-7
-1.300, -2.927e-6
-1.299, -2.927e-6
-1.298, -2.927e-6
-1.297, -2.927e-6
-1.296, -2.927e-6
-1.295, -2.927e-6
-1.294, 1.559e-7
-1.293, -2.927e-6
-1.292, -2.927e-6
-1.291, -2.927e-6
-1.290, -2.927e-6
-1.289, 1.559e-7
-1.288, -2.927e-6
-1.287, -2.927e-6
-1.286, -2.927e-6
-1.285, -2.927e-6
-1.284, 1.559e-7
-1.283, -2.927e-6
-1.282, -2.927e-6
-1.281, -2.927e-6
-1.280, -2.927e-6
-1.279, -2.927e-6
-1.278, -2.927e-6
-1.277, -2.927e-6
-1.276, -2.927e-6
-1.275, -2.927e-6
-1.274, -2.927e-6
-1.273, -2.927e-6
-1.272, -2.927e-6
-1.271, -2.927e-6
-1.270, -2.927e-6
-1.269, -2.927e-6
-1.268, -2.927e-6
-1.267, 1.559e-7
-1.266, -2.927e-6
-1.265, -2.927e-6
-1.264, -2.927e-6
-1.263, -2.927e-6
-1.262, -2.927e-6
-1.261, -2.927e-6
-1.260, -2.927e-6
-1.259, -2.927e-6
-1.258, -2.927e-6
-1.257, 1.559e-7
-1.256, -2.927e-6
-1.255, 1.559e-7
-1.254, -2.927e-6
-1.253, -2.927e-6
-1.252, -2.927e-6
-1.251, -2.927e-6
-1.250, -2.927e-6
-1.249, -2.927e-6
-1.248, -2.927e-6
-1.247, -2.927e-6
-1.246, -2.927e-6
-1.245, -2.927e-6
-1.244, -2.927e-6
-1.243, -2.927e-6
-1.242, -2.927e-6
-1.241, -2.927e-6
-1.240, -2.927e-6
-1.239, -2.927e-6
-1.238, -2.927e-6
-1.237, -2.927e-6
-1.236, -2.927e-6
-1.235, -2.927e-6
-1.234, -2.927e-6
-1.233, -2.927e-6
-1.232, -2.927e-6
-1.231, -2.927e-6
-1.230, -2.927e-6
-1.229, -2.927e-6
-1.228, -2.927e-6
-1.227, -2.927e-6
-1.226, -2.927e-6
-1.225, -2.927e-6
-1.224, -2.927e-6
-1.223, -2.927e-6
-1.222, -2.927e-6
-1.221, -2.927e-6
-1.220, -2.927e-6
-1.219, -2.927e-6
-1.218, -2.927e-6
-1.217, -2.927e-6
-1.216, -2.927e-6
-1.215, -2.927e-6
-1.214, -2.927e-6
-1.213, -2.927e-6
-1.212, -2.927e-6
-1.211, -2.927e-6
-1.210, -2.927e-6
-1.209, -2.927e-6
-1.208, -2.927e-6
-1.207, -2.927e-6
-1.206, -2.927e-6
-1.205, -2.927e-6
-1.204, -2.927e-6
-1.203, -2.927e-6
-1.202, -2.927e-6
-1.201, -2.927e-6
-1.200, -2.927e-6
-1.199, -2.927e-6
-1.198, -2.927e-6
-1.197, -2.927e-6
-1.196, -2.927e-6
-1.195, -2.927e-6
-1.194, -2.927e-6
-1.193, -2.927e-6
-1.192, -2.927e-6
-1.191, -2.927e-6
-1.190, -2.927e-6
-1.189, -2.927e-6
-1.188, -2.927e-6
-1.187, -2.927e-6
-1.186, -2.927e-6
-1.185, -2.927e-6
-1.184, -2.927e-6
-1.183, -2.927e-6
-1.182, -2.927e-6
-1.181, -2.927e-6
-1.180, -2.927e-6
-1.179, -2.927e-6
-1.178, -2.927e-6
-1.177, -2.927e-6
-1.176, -2.927e-6
-1.175, -2.927e-6
-1.174, -2.927e-6
-1.173, -2.927e-6
-1.172, -2.927e-6
-1.171, -2.927e-6
-1.170, -2.927e-6
-1.169, -2.927e-6
-1.168, -2.927e-6
-1.167, -2.927e-6
-1.166, -2.927e-6
-1.165, -2.927e-6
-1.164, -2.927e-6
-1.163, -2.927e-6
-1.162, -2.927e-6
-1.161, -2.927e-6
-1.160, -2.927e-6
-1.159, -2.927e-6
-1.158, -6.010e-6
-1.157, -2.927e-6
-1.156, -2.927e-6
-1.155, -2.927e-6
-1.154, -2.927e-6
-1.153, -2.927e-6
-1.152, -2.927e-6
-1.151, -2.927e-6
-1.150, -2.927e-6
-1.149, -2.927e-6
-1.148, -2.927e-6
-1.147, -2.927e-6
-1.146, -2.927e-6
-1.145, -2.927e-6
-1.144, -2.927e-6
-1.143, -2.927e-6
-1.142, -2.927e-6
-1.141, -2.927e-6
-1.140, -2.927e-6
-1.139, -2.927e-6
-1.138, -2.927e-6
-1.137, -2.927e-6
-1.136, -2.927e-6
-1.135, -2.927e-6
-1.134, -2.927e-6
-1.133, -2.927e-6
-1.132, -2.927e-6
-1.131, -2.927e-6
-1.130, -2.927e-6
-1.129, -2.927e-6
-1.128, -2.927e-6
-1.127, -2.927e-6
-1.126, -2.927e-6
-1.125, -2.927e-6
-1.124, -2.927e-6
-1.123, -2.927e-6
-1.122, -2.927e-6
-1.121, -2.927e-6
-1.120, -2.927e-6
-1.119, -2.927e-6
-1.118, -2.927e-6
-1.117, -2.927e-6
-1.116, -2.927e-6
-1.115, -2.927e-6
-1.114, -2.927e-6
-1.113, -2.927e-6
-1.112, -2.927e-6
-1.111, -2.927e-6
-1.110, -2.927e-6
-1.109, -6.010e-6
-1.108, -2.927e-6
-1.107, -2.927e-6
-1.106, -2.927e-6
-1.105, -2.927e-6
-1.104, -2.927e-6
-1.103, -2.927e-6
-1.102, -2.927e-6
-1.101, -2.927e-6
-1.100, -2.927e-6
-1.099, -2.927e-6
-1.098, -2.927e-6
-1.097, -2.927e-6
-1.096, -2.927e-6
-1.095, -2.927e-6
-1.094, -2.927e-6
-1.093, -2.927e-6
-1.092, -2.927e-6
-1.091, -2.927e-6
-1.090, -2.927e-6
-1.089, -2.927e-6
-1.088, -2.927e-6
-1.087, -2.927e-6
-1.086, -2.927e-6
-1.085, -2.927e-6
-1.084, -2.927e-6
-1.083, -2.927e-6
-1.082, -2.927e-6
-1.081, -2.927e-6
-1.080, -2.927e-6
-1.079, -2.927e-6
-1.078, -2.927e-6
-1.077, -6.010e-6
-1.076, -2.927e-6
-1.075, -2.927e-6
-1.074, -2.927e-6
-1.073, -2.927e-6
-1.072, -2.927e-6
-1.071, -2.927e-6
-1.070, -2.927e-6
-1.069, -2.927e-6
-1.068, -2.927e-6
-1.067, -2.927e-6
-1.066, -2.927e-6
-1.065, -6.010e-6
-1.064, -2.927e-6
-1.063, -2.927e-6
-1.062, -6.010e-6
-1.061, -2.927e-6
-1.060, -2.927e-6
-1.059, -2.927e-6
-1.058, -6.010e-6
-1.057, -2.927e-6
-1.056, -2.927e-6
-1.055, -6.010e-6
-1.054, -2.927e-6
-1.053, -6.010e-6
-1.052, -2.927e-6
-1.051, -2.927e-6
-1.050, -2.927e-6
-1.049, -2.927e-6
-1.048, -6.010e-6
-1.047, -2.927e-6
-1.046, -2.927e-6
-1.045, -6.010e-6
-1.044, -2.927e-6
-1.043, -2.927e-6
-1.042, -2.927e-6
-1.041, -2.927e-6
-1.040, -6.010e-6
-1.039, -2.927e-6
-1.038, -2.927e-6
-1.037, -2.927e-6
-1.036, -2.927e-6
-1.035, -6.010e-6
-1.034, -2.927e-6
-1.033, -6.010e-6
-1.032, -2.927e-6
-1.031, -2.927e-6
-1.030, -6.010e-6
-1.029, -2.927e-6
-1.028, -2.927e-6
-1.027, -2.927e-6
-1.026, -6.010e-6
-1.025, -2.927e-6
-1.024, -2.927e-6
-1.023, -6.010e-6
-1.022, -2.927e-6
-1.021, -6.010e-6
-1.020, -2.927e-6
-1.019, -6.010e-6
-1.018, -6.010e-6
-1.017, -2.927e-6
-1.016, -6.010e-6
-1.015, -2.927e-6
-1.014, -2.927e-6
-1.013, -6.010e-6
-1.012, -2.927e-6
-1.011, -2.927e-6
-1.010, -2.927e-6
-1.009, -2.927e-6
-1.008, -6.010e-6
-1.007, -2.927e-6
-1.006, -6.010e-6
-1.005, -2.927e-6
-1.004, -2.927e-6
-1.003, -6.010e-6
-1.002, -2.927e-6
-1.001, -2.927e-6
