Aug. 21, 2024   18:04:41
Cyclic Voltammetry
File: c:/users/guazh/data/20240813_batch_94_500/2024-08-15-exp152\exp152-2024-08-21t17_59_45-h2koh\exp152_cv_50mvs_efin_-1400mv.bin
Data Source:  Experiment
Instrument Model:  CHI760E
Header: CV ran at 50 mVs
Note: 

Init E (V) = -1
High E (V) = -1
Low E (V) = -1.4
Final E (V) = -1
Init P/N = N
Scan Rate (V/s) = 0.05
Segment = 7
Sample Interval (V) = 0.001
Quiet Time (sec) = 60
Sensitivity (A/V) = 0.001
Comp R (ohm) = 1.5

Results:

Channel 1:
Segment 1:

Segment 2:

Segment 3:

Segment 4:

Segment 5:

Segment 6:

Segment 7:

Potential/V, Current/A

-1.000, 1.522e-4
-1.001, 1.752e-4
-1.002, 1.952e-4
-1.003, 2.127e-4
-1.004, 2.284e-4
-1.005, 2.423e-4
-1.006, 2.552e-4
-1.007, 2.670e-4
-1.008, 2.782e-4
-1.009, 2.887e-4
-1.010, 2.992e-4
-1.011, 3.084e-4
-1.012, 3.179e-4
-1.013, 3.266e-4
-1.014, 3.357e-4
-1.015, 3.443e-4
-1.016, 3.524e-4
-1.017, 3.604e-4
-1.018, 3.693e-4
-1.019, 3.776e-4
-1.020, 3.856e-4
-1.021, 3.931e-4
-1.022, 4.006e-4
-1.023, 4.090e-4
-1.024, 4.166e-4
-1.025, 4.252e-4
-1.026, 4.330e-4
-1.027, 4.410e-4
-1.028, 4.490e-4
-1.029, 4.570e-4
-1.030, 4.656e-4
-1.031, 4.735e-4
-1.032, 4.817e-4
-1.033, 4.903e-4
-1.034, 4.991e-4
-1.035, 5.079e-4
-1.036, 5.166e-4
-1.037, 5.258e-4
-1.038, 5.350e-4
-1.039, 5.442e-4
-1.040, 5.536e-4
-1.041, 5.632e-4
-1.042, 5.730e-4
-1.043, 5.832e-4
-1.044, 5.932e-4
-1.045, 6.037e-4
-1.046, 6.138e-4
-1.047, 6.248e-4
-1.048, 6.355e-4
-1.049, 6.470e-4
-1.050, 6.580e-4
-1.051, 6.697e-4
-1.052, 6.805e-4
-1.053, 6.931e-4
-1.054, 7.042e-4
-1.055, 7.169e-4
-1.056, 7.292e-4
-1.057, 7.413e-4
-1.058, 7.535e-4
-1.059, 7.665e-4
-1.060, 7.794e-4
-1.061, 7.927e-4
-1.062, 8.055e-4
-1.063, 8.193e-4
-1.064, 8.338e-4
-1.065, 8.477e-4
-1.066, 8.610e-4
-1.067, 8.761e-4
-1.068, 8.916e-4
-1.069, 9.051e-4
-1.070, 9.189e-4
-1.071, 9.338e-4
-1.072, 9.481e-4
-1.073, 9.646e-4
-1.074, 9.803e-4
-1.075, 9.966e-4
-1.076, 1.013e-3
-1.077, 1.029e-3
-1.078, 1.046e-3
-1.079, 1.062e-3
-1.080, 1.079e-3
-1.081, 1.096e-3
-1.082, 1.113e-3
-1.083, 1.132e-3
-1.084, 1.151e-3
-1.085, 1.167e-3
-1.086, 1.186e-3
-1.087, 1.204e-3
-1.088, 1.222e-3
-1.089, 1.241e-3
-1.090, 1.261e-3
-1.091, 1.278e-3
-1.092, 1.298e-3
-1.093, 1.317e-3
-1.094, 1.337e-3
-1.095, 1.357e-3
-1.096, 1.375e-3
-1.097, 1.397e-3
-1.098, 1.417e-3
-1.099, 1.438e-3
-1.100, 1.459e-3
-1.101, 1.479e-3
-1.102, 1.502e-3
-1.103, 1.522e-3
-1.104, 1.545e-3
-1.105, 1.567e-3
-1.106, 1.589e-3
-1.107, 1.612e-3
-1.108, 1.635e-3
-1.109, 1.656e-3
-1.110, 1.681e-3
-1.111, 1.702e-3
-1.112, 1.727e-3
-1.113, 1.751e-3
-1.114, 1.773e-3
-1.115, 1.797e-3
-1.116, 1.820e-3
-1.117, 1.844e-3
-1.118, 1.869e-3
-1.119, 1.893e-3
-1.120, 1.917e-3
-1.121, 1.942e-3
-1.122, 1.964e-3
-1.123, 1.991e-3
-1.124, 2.013e-3
-1.125, 2.040e-3
-1.126, 2.064e-3
-1.127, 2.092e-3
-1.128, 2.117e-3
-1.129, 2.144e-3
-1.130, 2.169e-3
-1.131, 2.196e-3
-1.132, 2.223e-3
-1.133, 2.249e-3
-1.134, 2.271e-3
-1.135, 2.297e-3
-1.136, 2.324e-3
-1.137, 2.348e-3
-1.138, 2.377e-3
-1.139, 2.402e-3
-1.140, 2.429e-3
-1.141, 2.455e-3
-1.142, 2.480e-3
-1.143, 2.510e-3
-1.144, 2.533e-3
-1.145, 2.561e-3
-1.146, 2.586e-3
-1.147, 2.612e-3
-1.148, 2.643e-3
-1.149, 2.667e-3
-1.150, 2.696e-3
-1.151, 2.723e-3
-1.152, 2.749e-3
-1.153, 2.777e-3
-1.154, 2.803e-3
-1.155, 2.830e-3
-1.156, 2.858e-3
-1.157, 2.879e-3
-1.158, 2.911e-3
-1.159, 2.936e-3
-1.160, 2.961e-3
-1.161, 2.986e-3
-1.162, 3.012e-3
-1.163, 3.040e-3
-1.164, 3.063e-3
-1.165, 3.089e-3
-1.166, 3.113e-3
-1.167, 3.137e-3
-1.168, 3.162e-3
-1.169, 3.187e-3
-1.170, 3.208e-3
-1.171, 3.233e-3
-1.172, 3.250e-3
-1.173, 3.282e-3
-1.174, 3.304e-3
-1.175, 3.330e-3
-1.176, 3.356e-3
-1.177, 3.375e-3
-1.178, 3.400e-3
-1.179, 3.423e-3
-1.180, 3.447e-3
-1.181, 3.470e-3
-1.182, 3.494e-3
-1.183, 3.514e-3
-1.184, 3.540e-3
-1.185, 3.559e-3
-1.186, 3.583e-3
-1.187, 3.598e-3
-1.188, 3.620e-3
-1.189, 3.643e-3
-1.190, 3.664e-3
-1.191, 3.682e-3
-1.192, 3.705e-3
-1.193, 3.719e-3
-1.194, 3.742e-3
-1.195, 3.756e-3
-1.196, 3.776e-3
-1.197, 3.794e-3
-1.198, 3.813e-3
-1.199, 3.837e-3
-1.200, 3.851e-3
-1.201, 3.869e-3
-1.202, 3.885e-3
-1.203, 3.905e-3
-1.204, 3.921e-3
-1.205, 3.934e-3
-1.206, 3.947e-3
-1.207, 3.959e-3
-1.208, 3.977e-3
-1.209, 3.986e-3
-1.210, 4.004e-3
-1.211, 4.023e-3
-1.212, 4.033e-3
-1.213, 4.051e-3
-1.214, 4.059e-3
-1.215, 4.074e-3
-1.216, 4.084e-3
-1.217, 4.096e-3
-1.218, 4.111e-3
-1.219, 4.120e-3
-1.220, 4.135e-3
-1.221, 4.148e-3
-1.222, 4.158e-3
-1.223, 4.171e-3
-1.224, 4.181e-3
-1.225, 4.194e-3
-1.226, 4.205e-3
-1.227, 4.211e-3
-1.228, 4.224e-3
-1.229, 4.236e-3
-1.230, 4.242e-3
-1.231, 4.253e-3
-1.232, 4.253e-3
-1.233, 4.266e-3
-1.234, 4.276e-3
-1.235, 4.278e-3
-1.236, 4.284e-3
-1.237, 4.286e-3
-1.238, 4.289e-3
-1.239, 4.300e-3
-1.240, 4.302e-3
-1.241, 4.314e-3
-1.242, 4.305e-3
-1.243, 4.310e-3
-1.244, 4.312e-3
-1.245, 4.321e-3
-1.246, 4.327e-3
-1.247, 4.323e-3
-1.248, 4.332e-3
-1.249, 4.332e-3
-1.250, 4.336e-3
-1.251, 4.339e-3
-1.252, 4.336e-3
-1.253, 4.343e-3
-1.254, 4.342e-3
-1.255, 4.349e-3
-1.256, 4.356e-3
-1.257, 4.356e-3
-1.258, 4.356e-3
-1.259, 4.362e-3
-1.260, 4.358e-3
-1.261, 4.363e-3
-1.262, 4.362e-3
-1.263, 4.357e-3
-1.264, 4.364e-3
-1.265, 4.357e-3
-1.266, 4.362e-3
-1.267, 4.359e-3
-1.268, 4.359e-3
-1.269, 4.357e-3
-1.270, 4.358e-3
-1.271, 4.354e-3
-1.272, 4.356e-3
-1.273, 4.349e-3
-1.274, 4.355e-3
-1.275, 4.349e-3
-1.276, 4.352e-3
-1.277, 4.348e-3
-1.278, 4.346e-3
-1.279, 4.346e-3
-1.280, 4.340e-3
-1.281, 4.346e-3
-1.282, 4.346e-3
-1.283, 4.346e-3
-1.284, 4.346e-3
-1.285, 4.342e-3
-1.286, 4.338e-3
-1.287, 4.335e-3
-1.288, 4.328e-3
-1.289, 4.329e-3
-1.290, 4.325e-3
-1.291, 4.320e-3
-1.292, 4.319e-3
-1.293, 4.316e-3
-1.294, 4.310e-3
-1.295, 4.308e-3
-1.296, 4.300e-3
-1.297, 4.305e-3
-1.298, 4.302e-3
-1.299, 4.301e-3
-1.300, 4.300e-3
-1.301, 4.291e-3
-1.302, 4.293e-3
-1.303, 4.291e-3
-1.304, 4.290e-3
-1.305, 4.295e-3
-1.306, 4.287e-3
-1.307, 4.290e-3
-1.308, 4.290e-3
-1.309, 4.283e-3
-1.310, 4.285e-3
-1.311, 4.279e-3
-1.312, 4.279e-3
-1.313, 4.278e-3
-1.314, 4.270e-3
-1.315, 4.269e-3
-1.316, 4.267e-3
-1.317, 4.266e-3
-1.318, 4.266e-3
-1.319, 4.263e-3
-1.320, 4.258e-3
-1.321, 4.258e-3
-1.322, 4.251e-3
-1.323, 4.258e-3
-1.324, 4.249e-3
-1.325, 4.254e-3
-1.326, 4.240e-3
-1.327, 4.237e-3
-1.328, 4.236e-3
-1.329, 4.233e-3
-1.330, 4.240e-3
-1.331, 4.240e-3
-1.332, 4.245e-3
-1.333, 4.250e-3
-1.334, 4.258e-3
-1.335, 4.254e-3
-1.336, 4.261e-3
-1.337, 4.253e-3
-1.338, 4.246e-3
-1.339, 4.249e-3
-1.340, 4.252e-3
-1.341, 4.263e-3
-1.342, 4.260e-3
-1.343, 4.266e-3
-1.344, 4.266e-3
-1.345, 4.271e-3
-1.346, 4.275e-3
-1.347, 4.277e-3
-1.348, 4.282e-3
-1.349, 4.292e-3
-1.350, 4.300e-3
-1.351, 4.307e-3
-1.352, 4.314e-3
-1.353, 4.325e-3
-1.354, 4.327e-3
-1.355, 4.336e-3
-1.356, 4.338e-3
-1.357, 4.348e-3
-1.358, 4.360e-3
-1.359, 4.365e-3
-1.360, 4.382e-3
-1.361, 4.385e-3
-1.362, 4.389e-3
-1.363, 4.405e-3
-1.364, 4.411e-3
-1.365, 4.428e-3
-1.366, 4.445e-3
-1.367, 4.452e-3
-1.368, 4.467e-3
-1.369, 4.482e-3
-1.370, 4.489e-3
-1.371, 4.507e-3
-1.372, 4.519e-3
-1.373, 4.541e-3
-1.374, 4.554e-3
-1.375, 4.560e-3
-1.376, 4.579e-3
-1.377, 4.587e-3
-1.378, 4.579e-3
-1.379, 4.565e-3
-1.380, 4.560e-3
-1.381, 4.568e-3
-1.382, 4.557e-3
-1.383, 4.560e-3
-1.384, 4.552e-3
-1.385, 4.554e-3
-1.386, 4.543e-3
-1.387, 4.548e-3
-1.388, 4.560e-3
-1.389, 4.578e-3
-1.390, 4.572e-3
-1.391, 4.597e-3
-1.392, 4.614e-3
-1.393, 4.638e-3
-1.394, 4.658e-3
-1.395, 4.678e-3
-1.396, 4.696e-3
-1.397, 4.703e-3
-1.398, 4.722e-3
-1.399, 4.746e-3
-1.400, 4.726e-3
-1.399, 4.676e-3
-1.398, 4.612e-3
-1.397, 4.562e-3
-1.396, 4.507e-3
-1.395, 4.463e-3
-1.394, 4.421e-3
-1.393, 4.367e-3
-1.392, 4.319e-3
-1.391, 4.269e-3
-1.390, 4.202e-3
-1.389, 4.101e-3
-1.388, 4.060e-3
-1.387, 4.007e-3
-1.386, 3.959e-3
-1.385, 3.903e-3
-1.384, 3.850e-3
-1.383, 3.804e-3
-1.382, 3.759e-3
-1.381, 3.712e-3
-1.380, 3.668e-3
-1.379, 3.613e-3
-1.378, 3.567e-3
-1.377, 3.515e-3
-1.376, 3.461e-3
-1.375, 3.421e-3
-1.374, 3.372e-3
-1.373, 3.333e-3
-1.372, 3.288e-3
-1.371, 3.231e-3
-1.370, 3.199e-3
-1.369, 3.160e-3
-1.368, 3.127e-3
-1.367, 3.095e-3
-1.366, 3.060e-3
-1.365, 3.024e-3
-1.364, 2.994e-3
-1.363, 2.957e-3
-1.362, 2.918e-3
-1.361, 2.875e-3
-1.360, 2.840e-3
-1.359, 2.798e-3
-1.358, 2.751e-3
-1.357, 2.715e-3
-1.356, 2.678e-3
-1.355, 2.644e-3
-1.354, 2.608e-3
-1.353, 2.574e-3
-1.352, 2.526e-3
-1.351, 2.491e-3
-1.350, 2.459e-3
-1.349, 2.425e-3
-1.348, 2.390e-3
-1.347, 2.351e-3
-1.346, 2.321e-3
-1.345, 2.292e-3
-1.344, 2.260e-3
-1.343, 2.228e-3
-1.342, 2.190e-3
-1.341, 2.149e-3
-1.340, 2.116e-3
-1.339, 2.087e-3
-1.338, 2.059e-3
-1.337, 2.028e-3
-1.336, 2.003e-3
-1.335, 1.976e-3
-1.334, 1.946e-3
-1.333, 1.920e-3
-1.332, 1.890e-3
-1.331, 1.869e-3
-1.330, 1.843e-3
-1.329, 1.817e-3
-1.328, 1.783e-3
-1.327, 1.760e-3
-1.326, 1.730e-3
-1.325, 1.704e-3
-1.324, 1.674e-3
-1.323, 1.646e-3
-1.322, 1.620e-3
-1.321, 1.594e-3
-1.320, 1.565e-3
-1.319, 1.539e-3
-1.318, 1.515e-3
-1.317, 1.494e-3
-1.316, 1.468e-3
-1.315, 1.449e-3
-1.314, 1.424e-3
-1.313, 1.397e-3
-1.312, 1.374e-3
-1.311, 1.353e-3
-1.310, 1.333e-3
-1.309, 1.298e-3
-1.308, 1.267e-3
-1.307, 1.248e-3
-1.306, 1.226e-3
-1.305, 1.205e-3
-1.304, 1.178e-3
-1.303, 1.157e-3
-1.302, 1.140e-3
-1.301, 1.118e-3
-1.300, 1.098e-3
-1.299, 1.077e-3
-1.298, 1.056e-3
-1.297, 1.040e-3
-1.296, 1.021e-3
-1.295, 1.005e-3
-1.294, 9.871e-4
-1.293, 9.677e-4
-1.292, 9.485e-4
-1.291, 9.308e-4
-1.290, 9.110e-4
-1.289, 8.937e-4
-1.288, 8.729e-4
-1.287, 8.537e-4
-1.286, 8.354e-4
-1.285, 8.189e-4
-1.284, 8.009e-4
-1.283, 7.843e-4
-1.282, 7.658e-4
-1.281, 7.505e-4
-1.280, 7.318e-4
-1.279, 7.168e-4
-1.278, 7.015e-4
-1.277, 6.872e-4
-1.276, 6.723e-4
-1.275, 6.578e-4
-1.274, 6.416e-4
-1.273, 6.265e-4
-1.272, 6.120e-4
-1.271, 5.986e-4
-1.270, 5.839e-4
-1.269, 5.697e-4
-1.268, 5.565e-4
-1.267, 5.430e-4
-1.266, 5.292e-4
-1.265, 5.147e-4
-1.264, 5.002e-4
-1.263, 4.884e-4
-1.262, 4.758e-4
-1.261, 4.640e-4
-1.260, 4.514e-4
-1.259, 4.406e-4
-1.258, 4.271e-4
-1.257, 4.149e-4
-1.256, 4.032e-4
-1.255, 3.910e-4
-1.254, 3.789e-4
-1.253, 3.674e-4
-1.252, 3.557e-4
-1.251, 3.449e-4
-1.250, 3.337e-4
-1.249, 3.227e-4
-1.248, 3.099e-4
-1.247, 2.983e-4
-1.246, 2.877e-4
-1.245, 2.779e-4
-1.244, 2.674e-4
-1.243, 2.579e-4
-1.242, 2.493e-4
-1.241, 2.403e-4
-1.240, 2.306e-4
-1.239, 2.212e-4
-1.238, 2.124e-4
-1.237, 2.047e-4
-1.236, 1.975e-4
-1.235, 1.899e-4
-1.234, 1.818e-4
-1.233, 1.736e-4
-1.232, 1.662e-4
-1.231, 1.579e-4
-1.230, 1.489e-4
-1.229, 1.398e-4
-1.228, 1.326e-4
-1.227, 1.255e-4
-1.226, 1.185e-4
-1.225, 1.116e-4
-1.224, 1.042e-4
-1.223, 9.715e-5
-1.222, 8.993e-5
-1.221, 8.399e-5
-1.220, 7.757e-5
-1.219, 7.164e-5
-1.218, 6.584e-5
-1.217, 6.027e-5
-1.216, 5.500e-5
-1.215, 4.993e-5
-1.214, 4.428e-5
-1.213, 3.856e-5
-1.212, 3.332e-5
-1.211, 2.877e-5
-1.210, 2.442e-5
-1.209, 2.022e-5
-1.208, 1.663e-5
-1.207, 1.180e-5
-1.206, 8.025e-6
-1.205, 4.577e-6
-1.204, 8.059e-7
-1.203, -2.802e-6
-1.202, -6.193e-6
-1.201, -9.494e-6
-1.200, -1.287e-5
-1.199, -1.615e-5
-1.198, -1.895e-5
-1.197, -2.172e-5
-1.196, -2.506e-5
-1.195, -2.828e-5
-1.194, -3.147e-5
-1.193, -3.488e-5
-1.192, -3.826e-5
-1.191, -4.187e-5
-1.190, -4.557e-5
-1.189, -4.912e-5
-1.188, -5.271e-5
-1.187, -5.621e-5
-1.186, -5.979e-5
-1.185, -6.347e-5
-1.184, -6.677e-5
-1.183, -7.038e-5
-1.182, -7.392e-5
-1.181, -7.698e-5
-1.180, -8.059e-5
-1.179, -8.372e-5
-1.178, -8.685e-5
-1.177, -8.959e-5
-1.176, -9.193e-5
-1.175, -9.462e-5
-1.174, -9.655e-5
-1.173, -9.885e-5
-1.172, -1.019e-4
-1.171, -1.043e-4
-1.170, -1.066e-4
-1.169, -1.087e-4
-1.168, -1.098e-4
-1.167, -1.114e-4
-1.166, -1.132e-4
-1.165, -1.152e-4
-1.164, -1.175e-4
-1.163, -1.194e-4
-1.162, -1.216e-4
-1.161, -1.237e-4
-1.160, -1.254e-4
-1.159, -1.279e-4
-1.158, -1.302e-4
-1.157, -1.329e-4
-1.156, -1.363e-4
-1.155, -1.399e-4
-1.154, -1.445e-4
-1.153, -1.504e-4
-1.152, -1.569e-4
-1.151, -1.643e-4
-1.150, -1.715e-4
-1.149, -1.788e-4
-1.148, -1.854e-4
-1.147, -1.918e-4
-1.146, -1.981e-4
-1.145, -2.042e-4
-1.144, -2.093e-4
-1.143, -2.145e-4
-1.142, -2.185e-4
-1.141, -2.233e-4
-1.140, -2.275e-4
-1.139, -2.318e-4
-1.138, -2.352e-4
-1.137, -2.392e-4
-1.136, -2.425e-4
-1.135, -2.464e-4
-1.134, -2.501e-4
-1.133, -2.537e-4
-1.132, -2.575e-4
-1.131, -2.586e-4
-1.130, -2.622e-4
-1.129, -2.652e-4
-1.128, -2.688e-4
-1.127, -2.712e-4
-1.126, -2.738e-4
-1.125, -2.764e-4
-1.124, -2.796e-4
-1.123, -2.828e-4
-1.122, -2.852e-4
-1.121, -2.882e-4
-1.120, -2.907e-4
-1.119, -2.941e-4
-1.118, -2.969e-4
-1.117, -2.997e-4
-1.116, -3.023e-4
-1.115, -3.053e-4
-1.114, -3.066e-4
-1.113, -3.095e-4
-1.112, -3.125e-4
-1.111, -3.153e-4
-1.110, -3.183e-4
-1.109, -3.211e-4
-1.108, -3.240e-4
-1.107, -3.266e-4
-1.106, -3.296e-4
-1.105, -3.333e-4
-1.104, -3.371e-4
-1.103, -3.394e-4
-1.102, -3.416e-4
-1.101, -3.427e-4
-1.100, -3.452e-4
-1.099, -3.463e-4
-1.098, -3.485e-4
-1.097, -3.512e-4
-1.096, -3.544e-4
-1.095, -3.574e-4
-1.094, -3.599e-4
-1.093, -3.625e-4
-1.092, -3.644e-4
-1.091, -3.672e-4
-1.090, -3.701e-4
-1.089, -3.730e-4
-1.088, -3.762e-4
-1.087, -3.788e-4
-1.086, -3.818e-4
-1.085, -3.847e-4
-1.084, -3.872e-4
-1.083, -3.881e-4
-1.082, -3.912e-4
-1.081, -3.944e-4
-1.080, -3.974e-4
-1.079, -4.002e-4
-1.078, -4.032e-4
-1.077, -4.056e-4
-1.076, -4.089e-4
-1.075, -4.113e-4
-1.074, -4.144e-4
-1.073, -4.161e-4
-1.072, -4.179e-4
-1.071, -4.201e-4
-1.070, -4.224e-4
-1.069, -4.259e-4
-1.068, -4.288e-4
-1.067, -4.324e-4
-1.066, -4.340e-4
-1.065, -4.370e-4
-1.064, -4.373e-4
-1.063, -4.409e-4
-1.062, -4.438e-4
-1.061, -4.470e-4
-1.060, -4.505e-4
-1.059, -4.548e-4
-1.058, -4.573e-4
-1.057, -4.597e-4
-1.056, -4.653e-4
-1.055, -4.696e-4
-1.054, -4.718e-4
-1.053, -4.742e-4
-1.052, -4.761e-4
-1.051, -4.769e-4
-1.050, -4.814e-4
-1.049, -4.833e-4
-1.048, -4.865e-4
-1.047, -4.899e-4
-1.046, -4.928e-4
-1.045, -4.955e-4
-1.044, -4.976e-4
-1.043, -4.967e-4
-1.042, -5.021e-4
-1.041, -5.053e-4
-1.040, -5.090e-4
-1.039, -5.129e-4
-1.038, -5.170e-4
-1.037, -5.204e-4
-1.036, -5.225e-4
-1.035, -5.260e-4
-1.034, -5.286e-4
-1.033, -5.312e-4
-1.032, -5.338e-4
-1.031, -5.387e-4
-1.030, -5.428e-4
-1.029, -5.468e-4
-1.028, -5.502e-4
-1.027, -5.508e-4
-1.026, -5.544e-4
-1.025, -5.580e-4
-1.024, -5.617e-4
-1.023, -5.651e-4
-1.022, -5.687e-4
-1.021, -5.722e-4
-1.020, -5.765e-4
-1.019, -5.758e-4
-1.018, -5.762e-4
-1.017, -5.803e-4
-1.016, -5.850e-4
-1.015, -5.885e-4
-1.014, -5.919e-4
-1.013, -5.968e-4
-1.012, -6.003e-4
-1.011, -6.036e-4
-1.010, -6.045e-4
-1.009, -6.080e-4
-1.008, -6.107e-4
-1.007, -6.147e-4
-1.006, -6.164e-4
-1.005, -6.183e-4
-1.004, -6.234e-4
-1.003, -6.272e-4
-1.002, -6.314e-4
-1.001, -6.337e-4
-1.000, -6.150e-4
-1.001, -5.798e-4
-1.002, -5.527e-4
-1.003, -5.287e-4
-1.004, -5.043e-4
-1.005, -4.844e-4
-1.006, -4.651e-4
-1.007, -4.466e-4
-1.008, -4.307e-4
-1.009, -4.128e-4
-1.010, -3.964e-4
-1.011, -3.824e-4
-1.012, -3.671e-4
-1.013, -3.529e-4
-1.014, -3.396e-4
-1.015, -3.258e-4
-1.016, -3.136e-4
-1.017, -3.014e-4
-1.018, -2.900e-4
-1.019, -2.788e-4
-1.020, -2.671e-4
-1.021, -2.569e-4
-1.022, -2.461e-4
-1.023, -2.364e-4
-1.024, -2.260e-4
-1.025, -2.160e-4
-1.026, -2.063e-4
-1.027, -1.965e-4
-1.028, -1.867e-4
-1.029, -1.772e-4
-1.030, -1.677e-4
-1.031, -1.586e-4
-1.032, -1.490e-4
-1.033, -1.397e-4
-1.034, -1.301e-4
-1.035, -1.213e-4
-1.036, -1.115e-4
-1.037, -1.028e-4
-1.038, -9.419e-5
-1.039, -8.566e-5
-1.040, -7.704e-5
-1.041, -6.909e-5
-1.042, -6.131e-5
-1.043, -5.368e-5
-1.044, -4.612e-5
-1.045, -3.917e-5
-1.046, -3.238e-5
-1.047, -2.570e-5
-1.048, -1.955e-5
-1.049, -1.320e-5
-1.050, -7.191e-6
-1.051, -1.475e-6
-1.052, 4.160e-6
-1.053, 9.287e-6
-1.054, 1.419e-5
-1.055, 1.882e-5
-1.056, 2.281e-5
-1.057, 2.690e-5
-1.058, 3.096e-5
-1.059, 3.484e-5
-1.060, 3.856e-5
-1.061, 4.202e-5
-1.062, 4.596e-5
-1.063, 4.996e-5
-1.064, 5.373e-5
-1.065, 5.773e-5
-1.066, 6.144e-5
-1.067, 6.533e-5
-1.068, 6.943e-5
-1.069, 7.304e-5
-1.070, 7.689e-5
-1.071, 8.091e-5
-1.072, 8.475e-5
-1.073, 8.916e-5
-1.074, 9.338e-5
-1.075, 9.756e-5
-1.076, 1.015e-4
-1.077, 1.052e-4
-1.078, 1.088e-4
-1.079, 1.125e-4
-1.080, 1.157e-4
-1.081, 1.191e-4
-1.082, 1.226e-4
-1.083, 1.258e-4
-1.084, 1.292e-4
-1.085, 1.321e-4
-1.086, 1.349e-4
-1.087, 1.378e-4
-1.088, 1.405e-4
-1.089, 1.433e-4
-1.090, 1.461e-4
-1.091, 1.483e-4
-1.092, 1.512e-4
-1.093, 1.537e-4
-1.094, 1.562e-4
-1.095, 1.585e-4
-1.096, 1.607e-4
-1.097, 1.629e-4
-1.098, 1.654e-4
-1.099, 1.680e-4
-1.100, 1.704e-4
-1.101, 1.727e-4
-1.102, 1.746e-4
-1.103, 1.764e-4
-1.104, 1.785e-4
-1.105, 1.806e-4
-1.106, 1.827e-4
-1.107, 1.837e-4
-1.108, 1.863e-4
-1.109, 1.887e-4
-1.110, 1.908e-4
-1.111, 1.926e-4
-1.112, 1.938e-4
-1.113, 1.958e-4
-1.114, 1.977e-4
-1.115, 1.995e-4
-1.116, 2.017e-4
-1.117, 2.035e-4
-1.118, 2.060e-4
-1.119, 2.080e-4
-1.120, 2.093e-4
-1.121, 2.102e-4
-1.122, 2.120e-4
-1.123, 2.136e-4
-1.124, 2.157e-4
-1.125, 2.174e-4
-1.126, 2.188e-4
-1.127, 2.209e-4
-1.128, 2.230e-4
-1.129, 2.246e-4
-1.130, 2.261e-4
-1.131, 2.265e-4
-1.132, 2.279e-4
-1.133, 2.292e-4
-1.134, 2.309e-4
-1.135, 2.328e-4
-1.136, 2.348e-4
-1.137, 2.368e-4
-1.138, 2.383e-4
-1.139, 2.395e-4
-1.140, 2.411e-4
-1.141, 2.423e-4
-1.142, 2.442e-4
-1.143, 2.461e-4
-1.144, 2.481e-4
-1.145, 2.502e-4
-1.146, 2.521e-4
-1.147, 2.528e-4
-1.148, 2.545e-4
-1.149, 2.555e-4
-1.150, 2.571e-4
-1.151, 2.576e-4
-1.152, 2.585e-4
-1.153, 2.605e-4
-1.154, 2.622e-4
-1.155, 2.637e-4
-1.156, 2.653e-4
-1.157, 2.661e-4
-1.158, 2.680e-4
-1.159, 2.696e-4
-1.160, 2.716e-4
-1.161, 2.731e-4
-1.162, 2.748e-4
-1.163, 2.765e-4
-1.164, 2.780e-4
-1.165, 2.798e-4
-1.166, 2.814e-4
-1.167, 2.829e-4
-1.168, 2.845e-4
-1.169, 2.864e-4
-1.170, 2.873e-4
-1.171, 2.881e-4
-1.172, 2.901e-4
-1.173, 2.936e-4
-1.174, 2.963e-4
-1.175, 2.987e-4
-1.176, 2.986e-4
-1.177, 2.980e-4
-1.178, 2.979e-4
-1.179, 2.993e-4
-1.180, 3.011e-4
-1.181, 3.036e-4
-1.182, 3.063e-4
-1.183, 3.088e-4
-1.184, 3.114e-4
-1.185, 3.127e-4
-1.186, 3.144e-4
-1.187, 3.148e-4
-1.188, 3.170e-4
-1.189, 3.190e-4
-1.190, 3.218e-4
-1.191, 3.241e-4
-1.192, 3.271e-4
-1.193, 3.284e-4
-1.194, 3.312e-4
-1.195, 3.335e-4
-1.196, 3.353e-4
-1.197, 3.387e-4
-1.198, 3.424e-4
-1.199, 3.476e-4
-1.200, 3.505e-4
-1.201, 3.524e-4
-1.202, 3.528e-4
-1.203, 3.538e-4
-1.204, 3.553e-4
-1.205, 3.582e-4
-1.206, 3.618e-4
-1.207, 3.660e-4
-1.208, 3.694e-4
-1.209, 3.709e-4
-1.210, 3.721e-4
-1.211, 3.751e-4
-1.212, 3.768e-4
-1.213, 3.798e-4
-1.214, 3.814e-4
-1.215, 3.840e-4
-1.216, 3.861e-4
-1.217, 3.884e-4
-1.218, 3.916e-4
-1.219, 3.946e-4
-1.220, 3.974e-4
-1.221, 4.005e-4
-1.222, 4.014e-4
-1.223, 4.021e-4
-1.224, 4.046e-4
-1.225, 4.083e-4
-1.226, 4.115e-4
-1.227, 4.148e-4
-1.228, 4.200e-4
-1.229, 4.247e-4
-1.230, 4.274e-4
-1.231, 4.298e-4
-1.232, 4.317e-4
-1.233, 4.352e-4
-1.234, 4.385e-4
-1.235, 4.435e-4
-1.236, 4.481e-4
-1.237, 4.550e-4
-1.238, 4.569e-4
-1.239, 4.588e-4
-1.240, 4.617e-4
-1.241, 4.653e-4
-1.242, 4.694e-4
-1.243, 4.726e-4
-1.244, 4.771e-4
-1.245, 4.806e-4
-1.246, 4.838e-4
-1.247, 4.873e-4
-1.248, 4.913e-4
-1.249, 4.967e-4
-1.250, 5.006e-4
-1.251, 5.055e-4
-1.252, 5.102e-4
-1.253, 5.153e-4
-1.254, 5.203e-4
-1.255, 5.248e-4
-1.256, 5.302e-4
-1.257, 5.352e-4
-1.258, 5.390e-4
-1.259, 5.431e-4
-1.260, 5.502e-4
-1.261, 5.569e-4
-1.262, 5.615e-4
-1.263, 5.671e-4
-1.264, 5.730e-4
-1.265, 5.785e-4
-1.266, 5.842e-4
-1.267, 5.917e-4
-1.268, 5.974e-4
-1.269, 6.044e-4
-1.270, 6.102e-4
-1.271, 6.172e-4
-1.272, 6.237e-4
-1.273, 6.314e-4
-1.274, 6.374e-4
-1.275, 6.335e-4
-1.276, 6.425e-4
-1.277, 6.516e-4
-1.278, 6.601e-4
-1.279, 6.686e-4
-1.280, 6.775e-4
-1.281, 6.855e-4
-1.282, 6.946e-4
-1.283, 7.022e-4
-1.284, 7.114e-4
-1.285, 7.206e-4
-1.286, 7.331e-4
-1.287, 7.403e-4
-1.288, 7.371e-4
-1.289, 7.374e-4
-1.290, 7.438e-4
-1.291, 7.507e-4
-1.292, 7.582e-4
-1.293, 7.668e-4
-1.294, 7.752e-4
-1.295, 7.845e-4
-1.296, 7.945e-4
-1.297, 8.051e-4
-1.298, 8.172e-4
-1.299, 8.271e-4
-1.300, 8.384e-4
-1.301, 8.489e-4
-1.302, 8.612e-4
-1.303, 8.728e-4
-1.304, 8.840e-4
-1.305, 8.862e-4
-1.306, 8.912e-4
-1.307, 9.041e-4
-1.308, 9.181e-4
-1.309, 9.335e-4
-1.310, 9.468e-4
-1.311, 9.620e-4
-1.312, 9.738e-4
-1.313, 9.880e-4
-1.314, 1.001e-3
-1.315, 1.019e-3
-1.316, 1.031e-3
-1.317, 1.042e-3
-1.318, 1.055e-3
-1.319, 1.061e-3
-1.320, 1.079e-3
-1.321, 1.095e-3
-1.322, 1.113e-3
-1.323, 1.126e-3
-1.324, 1.136e-3
-1.325, 1.148e-3
-1.326, 1.163e-3
-1.327, 1.185e-3
-1.328, 1.193e-3
-1.329, 1.212e-3
-1.330, 1.231e-3
-1.331, 1.240e-3
-1.332, 1.259e-3
-1.333, 1.280e-3
-1.334, 1.300e-3
-1.335, 1.313e-3
-1.336, 1.314e-3
-1.337, 1.340e-3
-1.338, 1.364e-3
-1.339, 1.387e-3
-1.340, 1.408e-3
-1.341, 1.414e-3
-1.342, 1.426e-3
-1.343, 1.453e-3
-1.344, 1.477e-3
-1.345, 1.496e-3
-1.346, 1.514e-3
-1.347, 1.526e-3
-1.348, 1.548e-3
-1.349, 1.563e-3
-1.350, 1.592e-3
-1.351, 1.617e-3
-1.352, 1.622e-3
-1.353, 1.639e-3
-1.354, 1.663e-3
-1.355, 1.688e-3
-1.356, 1.703e-3
-1.357, 1.725e-3
-1.358, 1.745e-3
-1.359, 1.771e-3
-1.360, 1.792e-3
-1.361, 1.806e-3
-1.362, 1.833e-3
-1.363, 1.855e-3
-1.364, 1.872e-3
-1.365, 1.897e-3
-1.366, 1.919e-3
-1.367, 1.951e-3
-1.368, 1.965e-3
-1.369, 1.994e-3
-1.370, 2.010e-3
-1.371, 2.033e-3
-1.372, 2.055e-3
-1.373, 2.087e-3
-1.374, 2.102e-3
-1.375, 2.127e-3
-1.376, 2.148e-3
-1.377, 2.171e-3
-1.378, 2.198e-3
-1.379, 2.219e-3
-1.380, 2.249e-3
-1.381, 2.267e-3
-1.382, 2.291e-3
-1.383, 2.319e-3
-1.384, 2.336e-3
-1.385, 2.366e-3
-1.386, 2.383e-3
-1.387, 2.406e-3
-1.388, 2.436e-3
-1.389, 2.458e-3
-1.390, 2.477e-3
-1.391, 2.496e-3
-1.392, 2.522e-3
-1.393, 2.551e-3
-1.394, 2.573e-3
-1.395, 2.596e-3
-1.396, 2.621e-3
-1.397, 2.645e-3
-1.398, 2.664e-3
-1.399, 2.697e-3
-1.400, 2.684e-3
-1.399, 2.646e-3
-1.398, 2.621e-3
-1.397, 2.596e-3
-1.396, 2.578e-3
-1.395, 2.546e-3
-1.394, 2.527e-3
-1.393, 2.505e-3
-1.392, 2.477e-3
-1.391, 2.447e-3
-1.390, 2.419e-3
-1.389, 2.381e-3
-1.388, 2.353e-3
-1.387, 2.325e-3
-1.386, 2.297e-3
-1.385, 2.279e-3
-1.384, 2.259e-3
-1.383, 2.220e-3
-1.382, 2.201e-3
-1.381, 2.176e-3
-1.380, 2.153e-3
-1.379, 2.121e-3
-1.378, 2.104e-3
-1.377, 2.080e-3
-1.376, 2.051e-3
-1.375, 2.027e-3
-1.374, 2.002e-3
-1.373, 1.978e-3
-1.372, 1.962e-3
-1.371, 1.935e-3
-1.370, 1.916e-3
-1.369, 1.891e-3
-1.368, 1.871e-3
-1.367, 1.847e-3
-1.366, 1.824e-3
-1.365, 1.799e-3
-1.364, 1.778e-3
-1.363, 1.759e-3
-1.362, 1.737e-3
-1.361, 1.702e-3
-1.360, 1.670e-3
-1.359, 1.653e-3
-1.358, 1.632e-3
-1.357, 1.611e-3
-1.356, 1.589e-3
-1.355, 1.563e-3
-1.354, 1.548e-3
-1.353, 1.526e-3
-1.352, 1.504e-3
-1.351, 1.483e-3
-1.350, 1.464e-3
-1.349, 1.443e-3
-1.348, 1.424e-3
-1.347, 1.405e-3
-1.346, 1.390e-3
-1.345, 1.367e-3
-1.344, 1.352e-3
-1.343, 1.332e-3
-1.342, 1.313e-3
-1.341, 1.295e-3
-1.340, 1.277e-3
-1.339, 1.259e-3
-1.338, 1.242e-3
-1.337, 1.226e-3
-1.336, 1.209e-3
-1.335, 1.190e-3
-1.334, 1.174e-3
-1.333, 1.156e-3
-1.332, 1.140e-3
-1.331, 1.122e-3
-1.330, 1.105e-3
-1.329, 1.086e-3
-1.328, 1.071e-3
-1.327, 1.051e-3
-1.326, 1.034e-3
-1.325, 1.019e-3
-1.324, 1.003e-3
-1.323, 9.868e-4
-1.322, 9.693e-4
-1.321, 9.518e-4
-1.320, 9.359e-4
-1.319, 9.194e-4
-1.318, 9.041e-4
-1.317, 8.898e-4
-1.316, 8.725e-4
-1.315, 8.569e-4
-1.314, 8.433e-4
-1.313, 8.282e-4
-1.312, 8.127e-4
-1.311, 7.986e-4
-1.310, 7.848e-4
-1.309, 7.707e-4
-1.308, 7.552e-4
-1.307, 7.418e-4
-1.306, 7.276e-4
-1.305, 7.131e-4
-1.304, 6.975e-4
-1.303, 6.845e-4
-1.302, 6.718e-4
-1.301, 6.570e-4
-1.300, 6.435e-4
-1.299, 6.310e-4
-1.298, 6.178e-4
-1.297, 6.033e-4
-1.296, 5.892e-4
-1.295, 5.754e-4
-1.294, 5.635e-4
-1.293, 5.511e-4
-1.292, 5.393e-4
-1.291, 5.266e-4
-1.290, 5.145e-4
-1.289, 5.011e-4
-1.288, 4.913e-4
-1.287, 4.797e-4
-1.286, 4.668e-4
-1.285, 4.544e-4
-1.284, 4.414e-4
-1.283, 4.270e-4
-1.282, 4.144e-4
-1.281, 4.031e-4
-1.280, 3.922e-4
-1.279, 3.800e-4
-1.278, 3.708e-4
-1.277, 3.593e-4
-1.276, 3.490e-4
-1.275, 3.379e-4
-1.274, 3.284e-4
-1.273, 3.189e-4
-1.272, 3.090e-4
-1.271, 2.993e-4
-1.270, 2.866e-4
-1.269, 2.764e-4
-1.268, 2.657e-4
-1.267, 2.559e-4
-1.266, 2.466e-4
-1.265, 2.387e-4
-1.264, 2.306e-4
-1.263, 2.220e-4
-1.262, 2.135e-4
-1.261, 2.056e-4
-1.260, 1.974e-4
-1.259, 1.896e-4
-1.258, 1.821e-4
-1.257, 1.744e-4
-1.256, 1.669e-4
-1.255, 1.596e-4
-1.254, 1.524e-4
-1.253, 1.452e-4
-1.252, 1.381e-4
-1.251, 1.312e-4
-1.250, 1.243e-4
-1.249, 1.176e-4
-1.248, 1.114e-4
-1.247, 1.053e-4
-1.246, 9.886e-5
-1.245, 9.277e-5
-1.244, 8.654e-5
-1.243, 8.066e-5
-1.242, 7.513e-5
-1.241, 6.951e-5
-1.240, 6.393e-5
-1.239, 5.848e-5
-1.238, 5.312e-5
-1.237, 4.823e-5
-1.236, 4.318e-5
-1.235, 3.813e-5
-1.234, 3.340e-5
-1.233, 2.889e-5
-1.232, 2.464e-5
-1.231, 2.043e-5
-1.230, 1.628e-5
-1.229, 1.186e-5
-1.228, 8.241e-6
-1.227, 4.706e-6
-1.226, 1.307e-6
-1.225, -2.169e-6
-1.224, -5.444e-6
-1.223, -8.511e-6
-1.222, -1.163e-5
-1.221, -1.464e-5
-1.220, -1.772e-5
-1.219, -2.074e-5
-1.218, -2.346e-5
-1.217, -2.620e-5
-1.216, -2.843e-5
-1.215, -3.108e-5
-1.214, -3.363e-5
-1.213, -3.573e-5
-1.212, -3.803e-5
-1.211, -4.026e-5
-1.210, -4.263e-5
-1.209, -4.517e-5
-1.208, -4.712e-5
-1.207, -4.935e-5
-1.206, -5.171e-5
-1.205, -5.390e-5
-1.204, -5.613e-5
-1.203, -5.834e-5
-1.202, -6.042e-5
-1.201, -6.288e-5
-1.200, -6.478e-5
-1.199, -6.670e-5
-1.198, -6.878e-5
-1.197, -7.094e-5
-1.196, -7.349e-5
-1.195, -7.545e-5
-1.194, -7.741e-5
-1.193, -7.893e-5
-1.192, -8.052e-5
-1.191, -8.209e-5
-1.190, -8.420e-5
-1.189, -8.639e-5
-1.188, -8.861e-5
-1.187, -9.079e-5
-1.186, -9.298e-5
-1.185, -9.538e-5
-1.184, -9.836e-5
-1.183, -1.019e-4
-1.182, -1.067e-4
-1.181, -1.115e-4
-1.180, -1.168e-4
-1.179, -1.222e-4
-1.178, -1.273e-4
-1.177, -1.315e-4
-1.176, -1.355e-4
-1.175, -1.386e-4
-1.174, -1.415e-4
-1.173, -1.444e-4
-1.172, -1.471e-4
-1.171, -1.496e-4
-1.170, -1.521e-4
-1.169, -1.545e-4
-1.168, -1.565e-4
-1.167, -1.585e-4
-1.166, -1.603e-4
-1.165, -1.621e-4
-1.164, -1.640e-4
-1.163, -1.658e-4
-1.162, -1.673e-4
-1.161, -1.690e-4
-1.160, -1.704e-4
-1.159, -1.720e-4
-1.158, -1.735e-4
-1.157, -1.753e-4
-1.156, -1.772e-4
-1.155, -1.780e-4
-1.154, -1.793e-4
-1.153, -1.810e-4
-1.152, -1.829e-4
-1.151, -1.848e-4
-1.150, -1.861e-4
-1.149, -1.871e-4
-1.148, -1.878e-4
-1.147, -1.880e-4
-1.146, -1.888e-4
-1.145, -1.904e-4
-1.144, -1.920e-4
-1.143, -1.941e-4
-1.142, -1.959e-4
-1.141, -1.973e-4
-1.140, -1.979e-4
-1.139, -1.990e-4
-1.138, -2.004e-4
-1.137, -2.016e-4
-1.136, -2.029e-4
-1.135, -2.046e-4
-1.134, -2.063e-4
-1.133, -2.077e-4
-1.132, -2.084e-4
-1.131, -2.090e-4
-1.130, -2.103e-4
-1.129, -2.119e-4
-1.128, -2.130e-4
-1.127, -2.144e-4
-1.126, -2.162e-4
-1.125, -2.174e-4
-1.124, -2.186e-4
-1.123, -2.196e-4
-1.122, -2.209e-4
-1.121, -2.214e-4
-1.120, -2.223e-4
-1.119, -2.239e-4
-1.118, -2.253e-4
-1.117, -2.260e-4
-1.116, -2.275e-4
-1.115, -2.286e-4
-1.114, -2.297e-4
-1.113, -2.310e-4
-1.112, -2.320e-4
-1.111, -2.336e-4
-1.110, -2.342e-4
-1.109, -2.357e-4
-1.108, -2.367e-4
-1.107, -2.377e-4
-1.106, -2.388e-4
-1.105, -2.407e-4
-1.104, -2.415e-4
-1.103, -2.427e-4
-1.102, -2.442e-4
-1.101, -2.456e-4
-1.100, -2.476e-4
-1.099, -2.489e-4
-1.098, -2.501e-4
-1.097, -2.507e-4
-1.096, -2.522e-4
-1.095, -2.536e-4
-1.094, -2.545e-4
-1.093, -2.549e-4
-1.092, -2.556e-4
-1.091, -2.565e-4
-1.090, -2.582e-4
-1.089, -2.594e-4
-1.088, -2.612e-4
-1.087, -2.627e-4
-1.086, -2.634e-4
-1.085, -2.647e-4
-1.084, -2.654e-4
-1.083, -2.676e-4
-1.082, -2.687e-4
-1.081, -2.702e-4
-1.080, -2.719e-4
-1.079, -2.742e-4
-1.078, -2.753e-4
-1.077, -2.755e-4
-1.076, -2.767e-4
-1.075, -2.782e-4
-1.074, -2.796e-4
-1.073, -2.812e-4
-1.072, -2.821e-4
-1.071, -2.832e-4
-1.070, -2.846e-4
-1.069, -2.856e-4
-1.068, -2.864e-4
-1.067, -2.876e-4
-1.066, -2.881e-4
-1.065, -2.897e-4
-1.064, -2.910e-4
-1.063, -2.919e-4
-1.062, -2.933e-4
-1.061, -2.946e-4
-1.060, -2.955e-4
-1.059, -2.966e-4
-1.058, -2.977e-4
-1.057, -2.984e-4
-1.056, -2.997e-4
-1.055, -3.007e-4
-1.054, -3.019e-4
-1.053, -3.027e-4
-1.052, -3.035e-4
-1.051, -3.047e-4
-1.050, -3.061e-4
-1.049, -3.063e-4
-1.048, -3.074e-4
-1.047, -3.087e-4
-1.046, -3.104e-4
-1.045, -3.111e-4
-1.044, -3.123e-4
-1.043, -3.126e-4
-1.042, -3.135e-4
-1.041, -3.136e-4
-1.040, -3.149e-4
-1.039, -3.162e-4
-1.038, -3.178e-4
-1.037, -3.188e-4
-1.036, -3.194e-4
-1.035, -3.209e-4
-1.034, -3.214e-4
-1.033, -3.228e-4
-1.032, -3.236e-4
-1.031, -3.245e-4
-1.030, -3.230e-4
-1.029, -3.237e-4
-1.028, -3.250e-4
-1.027, -3.275e-4
-1.026, -3.290e-4
-1.025, -3.291e-4
-1.024, -3.302e-4
-1.023, -3.310e-4
-1.022, -3.313e-4
-1.021, -3.318e-4
-1.020, -3.329e-4
-1.019, -3.342e-4
-1.018, -3.358e-4
-1.017, -3.370e-4
-1.016, -3.375e-4
-1.015, -3.379e-4
-1.014, -3.391e-4
-1.013, -3.396e-4
-1.012, -3.409e-4
-1.011, -3.420e-4
-1.010, -3.432e-4
-1.009, -3.433e-4
-1.008, -3.446e-4
-1.007, -3.449e-4
-1.006, -3.449e-4
-1.005, -3.450e-4
-1.004, -3.453e-4
-1.003, -3.462e-4
-1.002, -3.465e-4
-1.001, -3.465e-4
-1.000, -3.259e-4
-1.001, -2.934e-4
-1.002, -2.694e-4
-1.003, -2.502e-4
-1.004, -2.331e-4
-1.005, -2.176e-4
-1.006, -2.032e-4
-1.007, -1.900e-4
-1.008, -1.776e-4
-1.009, -1.661e-4
-1.010, -1.556e-4
-1.011, -1.452e-4
-1.012, -1.355e-4
-1.013, -1.261e-4
-1.014, -1.173e-4
-1.015, -1.091e-4
-1.016, -1.012e-4
-1.017, -9.354e-5
-1.018, -8.635e-5
-1.019, -7.953e-5
-1.020, -7.299e-5
-1.021, -6.669e-5
-1.022, -6.044e-5
-1.023, -5.465e-5
-1.024, -4.920e-5
-1.025, -4.415e-5
-1.026, -3.930e-5
-1.027, -3.451e-5
-1.028, -2.999e-5
-1.029, -2.584e-5
-1.030, -2.190e-5
-1.031, -1.799e-5
-1.032, -1.436e-5
-1.033, -1.068e-5
-1.034, -7.277e-6
-1.035, -4.173e-6
-1.036, -1.056e-6
-1.037, 1.937e-6
-1.038, 4.789e-6
-1.039, 7.519e-6
-1.040, 9.803e-6
-1.041, 1.229e-5
-1.042, 1.463e-5
-1.043, 1.696e-5
-1.044, 1.919e-5
-1.045, 2.115e-5
-1.046, 2.325e-5
-1.047, 2.545e-5
-1.048, 2.739e-5
-1.049, 2.950e-5
-1.050, 3.138e-5
-1.051, 3.337e-5
-1.052, 3.563e-5
-1.053, 3.763e-5
-1.054, 3.974e-5
-1.055, 4.176e-5
-1.056, 4.385e-5
-1.057, 4.610e-5
-1.058, 4.815e-5
-1.059, 5.032e-5
-1.060, 5.241e-5
-1.061, 5.434e-5
-1.062, 5.656e-5
-1.063, 5.870e-5
-1.064, 6.070e-5
-1.065, 6.250e-5
-1.066, 6.435e-5
-1.067, 6.618e-5
-1.068, 6.808e-5
-1.069, 6.978e-5
-1.070, 7.139e-5
-1.071, 7.296e-5
-1.072, 7.467e-5
-1.073, 7.641e-5
-1.074, 7.817e-5
-1.075, 7.962e-5
-1.076, 8.116e-5
-1.077, 8.258e-5
-1.078, 8.409e-5
-1.079, 8.574e-5
-1.080, 8.675e-5
-1.081, 8.808e-5
-1.082, 8.945e-5
-1.083, 9.065e-5
-1.084, 9.194e-5
-1.085, 9.296e-5
-1.086, 9.414e-5
-1.087, 9.554e-5
-1.088, 9.665e-5
-1.089, 9.776e-5
-1.090, 9.876e-5
-1.091, 9.987e-5
-1.092, 1.010e-4
-1.093, 1.020e-4
-1.094, 1.031e-4
-1.095, 1.041e-4
-1.096, 1.052e-4
-1.097, 1.065e-4
-1.098, 1.081e-4
-1.099, 1.086e-4
-1.100, 1.094e-4
-1.101, 1.104e-4
-1.102, 1.113e-4
-1.103, 1.123e-4
-1.104, 1.131e-4
-1.105, 1.142e-4
-1.106, 1.147e-4
-1.107, 1.157e-4
-1.108, 1.167e-4
-1.109, 1.172e-4
-1.110, 1.180e-4
-1.111, 1.186e-4
-1.112, 1.196e-4
-1.113, 1.208e-4
-1.114, 1.216e-4
-1.115, 1.222e-4
-1.116, 1.229e-4
-1.117, 1.237e-4
-1.118, 1.247e-4
-1.119, 1.254e-4
-1.120, 1.261e-4
-1.121, 1.269e-4
-1.122, 1.278e-4
-1.123, 1.286e-4
-1.124, 1.294e-4
-1.125, 1.302e-4
-1.126, 1.313e-4
-1.127, 1.323e-4
-1.128, 1.330e-4
-1.129, 1.337e-4
-1.130, 1.340e-4
-1.131, 1.348e-4
-1.132, 1.358e-4
-1.133, 1.367e-4
-1.134, 1.371e-4
-1.135, 1.379e-4
-1.136, 1.384e-4
-1.137, 1.393e-4
-1.138, 1.401e-4
-1.139, 1.412e-4
-1.140, 1.419e-4
-1.141, 1.425e-4
-1.142, 1.435e-4
-1.143, 1.444e-4
-1.144, 1.448e-4
-1.145, 1.459e-4
-1.146, 1.465e-4
-1.147, 1.473e-4
-1.148, 1.481e-4
-1.149, 1.490e-4
-1.150, 1.499e-4
-1.151, 1.506e-4
-1.152, 1.514e-4
-1.153, 1.523e-4
-1.154, 1.531e-4
-1.155, 1.539e-4
-1.156, 1.546e-4
-1.157, 1.555e-4
-1.158, 1.566e-4
-1.159, 1.576e-4
-1.160, 1.583e-4
-1.161, 1.591e-4
-1.162, 1.600e-4
-1.163, 1.610e-4
-1.164, 1.617e-4
-1.165, 1.622e-4
-1.166, 1.634e-4
-1.167, 1.643e-4
-1.168, 1.652e-4
-1.169, 1.659e-4
-1.170, 1.665e-4
-1.171, 1.675e-4
-1.172, 1.683e-4
-1.173, 1.694e-4
-1.174, 1.705e-4
-1.175, 1.713e-4
-1.176, 1.720e-4
-1.177, 1.733e-4
-1.178, 1.742e-4
-1.179, 1.749e-4
-1.180, 1.762e-4
-1.181, 1.773e-4
-1.182, 1.783e-4
-1.183, 1.792e-4
-1.184, 1.802e-4
-1.185, 1.811e-4
-1.186, 1.818e-4
-1.187, 1.827e-4
-1.188, 1.840e-4
-1.189, 1.850e-4
-1.190, 1.862e-4
-1.191, 1.872e-4
-1.192, 1.888e-4
-1.193, 1.897e-4
-1.194, 1.911e-4
-1.195, 1.919e-4
-1.196, 1.928e-4
-1.197, 1.936e-4
-1.198, 1.948e-4
-1.199, 1.961e-4
-1.200, 1.973e-4
-1.201, 1.985e-4
-1.202, 2.002e-4
-1.203, 2.014e-4
-1.204, 2.031e-4
-1.205, 2.042e-4
-1.206, 2.058e-4
-1.207, 2.077e-4
-1.208, 2.091e-4
-1.209, 2.112e-4
-1.210, 2.124e-4
-1.211, 2.141e-4
-1.212, 2.162e-4
-1.213, 2.175e-4
-1.214, 2.198e-4
-1.215, 2.215e-4
-1.216, 2.236e-4
-1.217, 2.253e-4
-1.218, 2.270e-4
-1.219, 2.289e-4
-1.220, 2.308e-4
-1.221, 2.325e-4
-1.222, 2.345e-4
-1.223, 2.368e-4
-1.224, 2.387e-4
-1.225, 2.409e-4
-1.226, 2.422e-4
-1.227, 2.444e-4
-1.228, 2.469e-4
-1.229, 2.493e-4
-1.230, 2.516e-4
-1.231, 2.542e-4
-1.232, 2.560e-4
-1.233, 2.587e-4
-1.234, 2.610e-4
-1.235, 2.633e-4
-1.236, 2.658e-4
-1.237, 2.688e-4
-1.238, 2.716e-4
-1.239, 2.736e-4
-1.240, 2.769e-4
-1.241, 2.797e-4
-1.242, 2.822e-4
-1.243, 2.851e-4
-1.244, 2.884e-4
-1.245, 2.917e-4
-1.246, 2.940e-4
-1.247, 2.971e-4
-1.248, 3.009e-4
-1.249, 3.046e-4
-1.250, 3.076e-4
-1.251, 3.112e-4
-1.252, 3.144e-4
-1.253, 3.177e-4
-1.254, 3.218e-4
-1.255, 3.252e-4
-1.256, 3.293e-4
-1.257, 3.332e-4
-1.258, 3.367e-4
-1.259, 3.411e-4
-1.260, 3.455e-4
-1.261, 3.496e-4
-1.262, 3.544e-4
-1.263, 3.583e-4
-1.264, 3.625e-4
-1.265, 3.672e-4
-1.266, 3.737e-4
-1.267, 3.775e-4
-1.268, 3.842e-4
-1.269, 3.873e-4
-1.270, 3.914e-4
-1.271, 3.950e-4
-1.272, 4.004e-4
-1.273, 4.061e-4
-1.274, 4.120e-4
-1.275, 4.179e-4
-1.276, 4.248e-4
-1.277, 4.299e-4
-1.278, 4.316e-4
-1.279, 4.383e-4
-1.280, 4.452e-4
-1.281, 4.507e-4
-1.282, 4.575e-4
-1.283, 4.655e-4
-1.284, 4.722e-4
-1.285, 4.787e-4
-1.286, 4.853e-4
-1.287, 4.929e-4
-1.288, 5.001e-4
-1.289, 5.069e-4
-1.290, 5.159e-4
-1.291, 5.233e-4
-1.292, 5.318e-4
-1.293, 5.391e-4
-1.294, 5.467e-4
-1.295, 5.539e-4
-1.296, 5.632e-4
-1.297, 5.707e-4
-1.298, 5.801e-4
-1.299, 5.879e-4
-1.300, 5.971e-4
-1.301, 6.057e-4
-1.302, 6.152e-4
-1.303, 6.238e-4
-1.304, 6.342e-4
-1.305, 6.407e-4
-1.306, 6.462e-4
-1.307, 6.587e-4
-1.308, 6.705e-4
-1.309, 6.805e-4
-1.310, 6.906e-4
-1.311, 7.025e-4
-1.312, 7.112e-4
-1.313, 7.206e-4
-1.314, 7.297e-4
-1.315, 7.393e-4
-1.316, 7.501e-4
-1.317, 7.644e-4
-1.318, 7.686e-4
-1.319, 7.796e-4
-1.320, 7.933e-4
-1.321, 8.065e-4
-1.322, 8.189e-4
-1.323, 8.308e-4
-1.324, 8.423e-4
-1.325, 8.538e-4
-1.326, 8.679e-4
-1.327, 8.757e-4
-1.328, 8.852e-4
-1.329, 9.017e-4
-1.330, 9.167e-4
-1.331, 9.318e-4
-1.332, 9.440e-4
-1.333, 9.581e-4
-1.334, 9.716e-4
-1.335, 9.774e-4
-1.336, 9.904e-4
-1.337, 1.009e-3
-1.338, 1.023e-3
-1.339, 1.040e-3
-1.340, 1.052e-3
-1.341, 1.061e-3
-1.342, 1.074e-3
-1.343, 1.093e-3
-1.344, 1.110e-3
-1.345, 1.125e-3
-1.346, 1.135e-3
-1.347, 1.146e-3
-1.348, 1.167e-3
-1.349, 1.181e-3
-1.350, 1.198e-3
-1.351, 1.208e-3
-1.352, 1.228e-3
-1.353, 1.245e-3
-1.354, 1.257e-3
-1.355, 1.270e-3
-1.356, 1.287e-3
-1.357, 1.307e-3
-1.358, 1.323e-3
-1.359, 1.334e-3
-1.360, 1.354e-3
-1.361, 1.376e-3
-1.362, 1.392e-3
-1.363, 1.408e-3
-1.364, 1.423e-3
-1.365, 1.443e-3
-1.366, 1.452e-3
-1.367, 1.474e-3
-1.368, 1.495e-3
-1.369, 1.505e-3
-1.370, 1.527e-3
-1.371, 1.545e-3
-1.372, 1.561e-3
-1.373, 1.584e-3
-1.374, 1.600e-3
-1.375, 1.615e-3
-1.376, 1.640e-3
-1.377, 1.653e-3
-1.378, 1.687e-3
-1.379, 1.692e-3
-1.380, 1.715e-3
-1.381, 1.729e-3
-1.382, 1.752e-3
-1.383, 1.768e-3
-1.384, 1.784e-3
-1.385, 1.804e-3
-1.386, 1.826e-3
-1.387, 1.845e-3
-1.388, 1.869e-3
-1.389, 1.885e-3
-1.390, 1.907e-3
-1.391, 1.929e-3
-1.392, 1.944e-3
-1.393, 1.967e-3
-1.394, 1.979e-3
-1.395, 1.993e-3
-1.396, 2.009e-3
-1.397, 2.027e-3
-1.398, 2.062e-3
-1.399, 2.074e-3
-1.400, 2.070e-3
-1.399, 2.039e-3
-1.398, 2.018e-3
-1.397, 2.004e-3
-1.396, 1.986e-3
-1.395, 1.975e-3
-1.394, 1.963e-3
-1.393, 1.938e-3
-1.392, 1.919e-3
-1.391, 1.900e-3
-1.390, 1.875e-3
-1.389, 1.858e-3
-1.388, 1.844e-3
-1.387, 1.828e-3
-1.386, 1.810e-3
-1.385, 1.780e-3
-1.384, 1.761e-3
-1.383, 1.748e-3
-1.382, 1.733e-3
-1.381, 1.716e-3
-1.380, 1.699e-3
-1.379, 1.686e-3
-1.378, 1.668e-3
-1.377, 1.648e-3
-1.376, 1.623e-3
-1.375, 1.604e-3
-1.374, 1.590e-3
-1.373, 1.574e-3
-1.372, 1.557e-3
-1.371, 1.539e-3
-1.370, 1.521e-3
-1.369, 1.505e-3
-1.368, 1.487e-3
-1.367, 1.464e-3
-1.366, 1.442e-3
-1.365, 1.427e-3
-1.364, 1.414e-3
-1.363, 1.398e-3
-1.362, 1.378e-3
-1.361, 1.363e-3
-1.360, 1.347e-3
-1.359, 1.332e-3
-1.358, 1.320e-3
-1.357, 1.304e-3
-1.356, 1.285e-3
-1.355, 1.271e-3
-1.354, 1.256e-3
-1.353, 1.239e-3
-1.352, 1.221e-3
-1.351, 1.209e-3
-1.350, 1.192e-3
-1.349, 1.172e-3
-1.348, 1.155e-3
-1.347, 1.139e-3
-1.346, 1.124e-3
-1.345, 1.109e-3
-1.344, 1.092e-3
-1.343, 1.078e-3
-1.342, 1.064e-3
-1.341, 1.048e-3
-1.340, 1.032e-3
-1.339, 1.021e-3
-1.338, 1.009e-3
-1.337, 9.939e-4
-1.336, 9.817e-4
-1.335, 9.671e-4
-1.334, 9.502e-4
-1.333, 9.409e-4
-1.332, 9.249e-4
-1.331, 9.095e-4
-1.330, 8.909e-4
-1.329, 8.787e-4
-1.328, 8.664e-4
-1.327, 8.542e-4
-1.326, 8.409e-4
-1.325, 8.249e-4
-1.324, 8.118e-4
-1.323, 7.984e-4
-1.322, 7.847e-4
-1.321, 7.728e-4
-1.320, 7.607e-4
-1.319, 7.475e-4
-1.318, 7.352e-4
-1.317, 7.226e-4
-1.316, 7.086e-4
-1.315, 6.951e-4
-1.314, 6.790e-4
-1.313, 6.678e-4
-1.312, 6.544e-4
-1.311, 6.422e-4
-1.310, 6.287e-4
-1.309, 6.189e-4
-1.308, 6.070e-4
-1.307, 5.948e-4
-1.306, 5.816e-4
-1.305, 5.709e-4
-1.304, 5.622e-4
-1.303, 5.522e-4
-1.302, 5.379e-4
-1.301, 5.260e-4
-1.300, 5.137e-4
-1.299, 5.018e-4
-1.298, 4.908e-4
-1.297, 4.837e-4
-1.296, 4.732e-4
-1.295, 4.642e-4
-1.294, 4.512e-4
-1.293, 4.417e-4
-1.292, 4.304e-4
-1.291, 4.211e-4
-1.290, 4.100e-4
-1.289, 4.011e-4
-1.288, 3.921e-4
-1.287, 3.821e-4
-1.286, 3.725e-4
-1.285, 3.631e-4
-1.284, 3.546e-4
-1.283, 3.464e-4
-1.282, 3.374e-4
-1.281, 3.293e-4
-1.280, 3.203e-4
-1.279, 3.121e-4
-1.278, 3.026e-4
-1.277, 2.930e-4
-1.276, 2.856e-4
-1.275, 2.766e-4
-1.274, 2.681e-4
-1.273, 2.601e-4
-1.272, 2.522e-4
-1.271, 2.447e-4
-1.270, 2.367e-4
-1.269, 2.290e-4
-1.268, 2.212e-4
-1.267, 2.146e-4
-1.266, 2.069e-4
-1.265, 1.988e-4
-1.264, 1.920e-4
-1.263, 1.852e-4
-1.262, 1.787e-4
-1.261, 1.719e-4
-1.260, 1.645e-4
-1.259, 1.577e-4
-1.258, 1.508e-4
-1.257, 1.444e-4
-1.256, 1.383e-4
-1.255, 1.319e-4
-1.254, 1.250e-4
-1.253, 1.189e-4
-1.252, 1.136e-4
-1.251, 1.080e-4
-1.250, 1.021e-4
-1.249, 9.638e-5
-1.248, 9.106e-5
-1.247, 8.569e-5
-1.246, 8.028e-5
-1.245, 7.478e-5
-1.244, 6.976e-5
-1.243, 6.496e-5
-1.242, 5.998e-5
-1.241, 5.525e-5
-1.240, 5.059e-5
-1.239, 4.599e-5
-1.238, 4.161e-5
-1.237, 3.734e-5
-1.236, 3.310e-5
-1.235, 2.891e-5
-1.234, 2.497e-5
-1.233, 2.105e-5
-1.232, 1.752e-5
-1.231, 1.397e-5
-1.230, 1.041e-5
-1.229, 6.724e-6
-1.228, 3.517e-6
-1.227, 5.355e-7
-1.226, -2.351e-6
-1.225, -5.444e-6
-1.224, -8.175e-6
-1.223, -1.098e-5
-1.222, -1.369e-5
-1.221, -1.624e-5
-1.220, -1.894e-5
-1.219, -2.154e-5
-1.218, -2.379e-5
-1.217, -2.631e-5
-1.216, -2.843e-5
-1.215, -3.085e-5
-1.214, -3.300e-5
-1.213, -3.521e-5
-1.212, -3.720e-5
-1.211, -3.923e-5
-1.210, -4.136e-5
-1.209, -4.321e-5
-1.208, -4.508e-5
-1.207, -4.720e-5
-1.206, -4.901e-5
-1.205, -5.085e-5
-1.204, -5.284e-5
-1.203, -5.471e-5
-1.202, -5.668e-5
-1.201, -5.848e-5
-1.200, -6.047e-5
-1.199, -6.248e-5
-1.198, -6.429e-5
-1.197, -6.630e-5
-1.196, -6.813e-5
-1.195, -6.981e-5
-1.194, -7.119e-5
-1.193, -7.190e-5
-1.192, -7.251e-5
-1.191, -7.444e-5
-1.190, -7.640e-5
-1.189, -7.754e-5
-1.188, -7.949e-5
-1.187, -8.109e-5
-1.186, -8.324e-5
-1.185, -8.591e-5
-1.184, -8.834e-5
-1.183, -9.165e-5
-1.182, -9.525e-5
-1.181, -9.928e-5
-1.180, -1.033e-4
-1.179, -1.074e-4
-1.178, -1.112e-4
-1.177, -1.150e-4
-1.176, -1.184e-4
-1.175, -1.214e-4
-1.174, -1.243e-4
-1.173, -1.268e-4
-1.172, -1.288e-4
-1.171, -1.301e-4
-1.170, -1.318e-4
-1.169, -1.338e-4
-1.168, -1.357e-4
-1.167, -1.368e-4
-1.166, -1.383e-4
-1.165, -1.401e-4
-1.164, -1.417e-4
-1.163, -1.433e-4
-1.162, -1.438e-4
-1.161, -1.450e-4
-1.160, -1.465e-4
-1.159, -1.479e-4
-1.158, -1.492e-4
-1.157, -1.500e-4
-1.156, -1.513e-4
-1.155, -1.524e-4
-1.154, -1.534e-4
-1.153, -1.547e-4
-1.152, -1.541e-4
-1.151, -1.548e-4
-1.150, -1.561e-4
-1.149, -1.567e-4
-1.148, -1.586e-4
-1.147, -1.605e-4
-1.146, -1.611e-4
-1.145, -1.612e-4
-1.144, -1.570e-4
-1.143, -1.581e-4
-1.142, -1.597e-4
-1.141, -1.612e-4
-1.140, -1.627e-4
-1.139, -1.643e-4
-1.138, -1.652e-4
-1.137, -1.657e-4
-1.136, -1.657e-4
-1.135, -1.670e-4
-1.134, -1.681e-4
-1.133, -1.687e-4
-1.132, -1.685e-4
-1.131, -1.683e-4
-1.130, -1.707e-4
-1.129, -1.719e-4
-1.128, -1.724e-4
-1.127, -1.721e-4
-1.126, -1.727e-4
-1.125, -1.734e-4
-1.124, -1.745e-4
-1.123, -1.757e-4
-1.122, -1.760e-4
-1.121, -1.767e-4
-1.120, -1.765e-4
-1.119, -1.770e-4
-1.118, -1.784e-4
-1.117, -1.790e-4
-1.116, -1.801e-4
-1.115, -1.812e-4
-1.114, -1.819e-4
-1.113, -1.831e-4
-1.112, -1.854e-4
-1.111, -1.837e-4
-1.110, -1.832e-4
-1.109, -1.838e-4
-1.108, -1.840e-4
-1.107, -1.843e-4
-1.106, -1.852e-4
-1.105, -1.860e-4
-1.104, -1.861e-4
-1.103, -1.860e-4
-1.102, -1.863e-4
-1.101, -1.868e-4
-1.100, -1.877e-4
-1.099, -1.885e-4
-1.098, -1.885e-4
-1.097, -1.893e-4
-1.096, -1.892e-4
-1.095, -1.897e-4
-1.094, -1.897e-4
-1.093, -1.904e-4
-1.092, -1.908e-4
-1.091, -1.913e-4
-1.090, -1.921e-4
-1.089, -1.937e-4
-1.088, -1.928e-4
-1.087, -1.919e-4
-1.086, -1.929e-4
-1.085, -1.934e-4
-1.084, -1.941e-4
-1.083, -1.945e-4
-1.082, -1.951e-4
-1.081, -1.956e-4
-1.080, -1.961e-4
-1.079, -1.966e-4
-1.078, -1.955e-4
-1.077, -1.954e-4
-1.076, -1.963e-4
-1.075, -1.965e-4
-1.074, -1.968e-4
-1.073, -1.989e-4
-1.072, -1.988e-4
-1.071, -1.994e-4
-1.070, -2.005e-4
-1.069, -2.011e-4
-1.068, -2.020e-4
-1.067, -2.008e-4
-1.066, -2.011e-4
-1.065, -2.026e-4
-1.064, -2.028e-4
-1.063, -2.033e-4
-1.062, -2.034e-4
-1.061, -2.037e-4
-1.060, -2.042e-4
-1.059, -2.045e-4
-1.058, -2.040e-4
-1.057, -2.038e-4
-1.056, -2.036e-4
-1.055, -2.038e-4
-1.054, -2.032e-4
-1.053, -2.036e-4
-1.052, -2.039e-4
-1.051, -2.043e-4
-1.050, -2.035e-4
-1.049, -2.038e-4
-1.048, -2.040e-4
-1.047, -2.039e-4
-1.046, -2.043e-4
-1.045, -2.049e-4
-1.044, -2.051e-4
-1.043, -2.055e-4
-1.042, -2.053e-4
-1.041, -2.050e-4
-1.040, -2.060e-4
-1.039, -2.066e-4
-1.038, -2.072e-4
-1.037, -2.072e-4
-1.036, -2.075e-4
-1.035, -2.086e-4
-1.034, -2.083e-4
-1.033, -2.072e-4
-1.032, -2.075e-4
-1.031, -2.081e-4
-1.030, -2.095e-4
-1.029, -2.081e-4
-1.028, -2.079e-4
-1.027, -2.073e-4
-1.026, -2.067e-4
-1.025, -2.072e-4
-1.024, -2.074e-4
-1.023, -2.083e-4
-1.022, -2.091e-4
-1.021, -2.093e-4
-1.020, -2.096e-4
-1.019, -2.088e-4
-1.018, -2.092e-4
-1.017, -2.095e-4
-1.016, -2.124e-4
-1.015, -2.122e-4
-1.014, -2.084e-4
-1.013, -2.070e-4
-1.012, -2.076e-4
-1.011, -2.084e-4
-1.010, -2.090e-4
-1.009, -2.093e-4
-1.008, -2.099e-4
-1.007, -2.118e-4
-1.006, -2.119e-4
-1.005, -2.128e-4
-1.004, -2.126e-4
-1.003, -2.130e-4
-1.002, -2.136e-4
-1.001, -2.141e-4
