Apr. 5, 2025   00:15:25
Linear Sweep Voltammetry
File: c:/users/guazh/data/banditlqround7_x0exp994_r5/2025-03-28-exp984\regeneratedgce-2025-04-05t00_10_47-lsvinkoh\regeneratedgce_lsv_50mvs_efin_-1900mv.bin
Data Source:  Experiment
Instrument Model:  CHI760E
Header: LSV ran at 50 mVs with Efin at -1900mV
Note: 

Init E (V) = -0.6
Final E (V) = -1.9
Scan Rate (V/s) = 0.05
Sample Interval (V) = 0.001
Quiet Time (sec) = 2
Sensitivity (A/V) = 1e-4
Comp R (ohm) = 2.0

Results:

Channel 1:

Potential/V, Current/A

-0.600, 9.203e-8
-0.601, 2.191e-7
-0.602, 2.523e-7
-0.603, 2.697e-7
-0.604, 2.834e-7
-0.605, 2.920e-7
-0.606, 3.016e-7
-0.607, 3.098e-7
-0.608, 3.182e-7
-0.609, 3.269e-7
-0.610, 3.310e-7
-0.611, 3.384e-7
-0.612, 3.444e-7
-0.613, 3.511e-7
-0.614, 3.589e-7
-0.615, 3.640e-7
-0.616, 3.686e-7
-0.617, 3.732e-7
-0.618, 3.784e-7
-0.619, 3.846e-7
-0.620, 3.882e-7
-0.621, 3.927e-7
-0.622, 3.980e-7
-0.623, 4.044e-7
-0.624, 4.089e-7
-0.625, 4.131e-7
-0.626, 4.160e-7
-0.627, 4.213e-7
-0.628, 4.262e-7
-0.629, 4.298e-7
-0.630, 4.356e-7
-0.631, 4.380e-7
-0.632, 4.410e-7
-0.633, 4.472e-7
-0.634, 4.506e-7
-0.635, 4.533e-7
-0.636, 4.583e-7
-0.637, 4.608e-7
-0.638, 4.658e-7
-0.639, 4.707e-7
-0.640, 4.730e-7
-0.641, 4.775e-7
-0.642, 4.770e-7
-0.643, 4.845e-7
-0.644, 4.880e-7
-0.645, 4.892e-7
-0.646, 4.950e-7
-0.647, 4.971e-7
-0.648, 5.026e-7
-0.649, 5.066e-7
-0.650, 5.075e-7
-0.651, 5.104e-7
-0.652, 5.141e-7
-0.653, 5.187e-7
-0.654, 5.235e-7
-0.655, 5.243e-7
-0.656, 5.268e-7
-0.657, 5.305e-7
-0.658, 5.353e-7
-0.659, 5.396e-7
-0.660, 5.417e-7
-0.661, 5.451e-7
-0.662, 5.480e-7
-0.663, 5.511e-7
-0.664, 5.555e-7
-0.665, 5.585e-7
-0.666, 5.626e-7
-0.667, 5.634e-7
-0.668, 5.675e-7
-0.669, 5.717e-7
-0.670, 5.733e-7
-0.671, 5.762e-7
-0.672, 5.784e-7
-0.673, 5.846e-7
-0.674, 5.859e-7
-0.675, 5.883e-7
-0.676, 5.916e-7
-0.677, 5.927e-7
-0.678, 5.982e-7
-0.679, 6.008e-7
-0.680, 6.028e-7
-0.681, 6.062e-7
-0.682, 6.080e-7
-0.683, 6.117e-7
-0.684, 6.158e-7
-0.685, 6.171e-7
-0.686, 6.200e-7
-0.687, 6.223e-7
-0.688, 6.273e-7
-0.689, 6.309e-7
-0.690, 6.306e-7
-0.691, 6.349e-7
-0.692, 6.375e-7
-0.693, 6.421e-7
-0.694, 6.450e-7
-0.695, 6.467e-7
-0.696, 6.488e-7
-0.697, 6.511e-7
-0.698, 6.548e-7
-0.699, 6.591e-7
-0.700, 6.616e-7
-0.701, 6.619e-7
-0.702, 6.659e-7
-0.703, 6.685e-7
-0.704, 6.723e-7
-0.705, 6.745e-7
-0.706, 6.764e-7
-0.707, 6.783e-7
-0.708, 6.817e-7
-0.709, 6.854e-7
-0.710, 6.884e-7
-0.711, 6.900e-7
-0.712, 6.920e-7
-0.713, 6.966e-7
-0.714, 6.993e-7
-0.715, 7.008e-7
-0.716, 7.034e-7
-0.717, 7.055e-7
-0.718, 7.104e-7
-0.719, 7.125e-7
-0.720, 7.149e-7
-0.721, 7.167e-7
-0.722, 7.179e-7
-0.723, 7.224e-7
-0.724, 7.263e-7
-0.725, 7.260e-7
-0.726, 7.302e-7
-0.727, 7.312e-7
-0.728, 7.353e-7
-0.729, 7.389e-7
-0.730, 7.397e-7
-0.731, 7.430e-7
-0.732, 7.447e-7
-0.733, 7.463e-7
-0.734, 7.504e-7
-0.735, 7.521e-7
-0.736, 7.552e-7
-0.737, 7.578e-7
-0.738, 7.604e-7
-0.739, 7.637e-7
-0.740, 7.657e-7
-0.741, 7.678e-7
-0.742, 7.714e-7
-0.743, 7.745e-7
-0.744, 7.782e-7
-0.745, 7.802e-7
-0.746, 7.809e-7
-0.747, 7.832e-7
-0.748, 7.884e-7
-0.749, 7.900e-7
-0.750, 7.932e-7
-0.751, 7.942e-7
-0.752, 7.957e-7
-0.753, 8.011e-7
-0.754, 8.035e-7
-0.755, 8.053e-7
-0.756, 8.083e-7
-0.757, 8.087e-7
-0.758, 8.134e-7
-0.759, 8.174e-7
-0.760, 8.189e-7
-0.761, 8.225e-7
-0.762, 8.234e-7
-0.763, 8.262e-7
-0.764, 8.300e-7
-0.765, 8.307e-7
-0.766, 8.334e-7
-0.767, 8.352e-7
-0.768, 8.421e-7
-0.769, 8.452e-7
-0.770, 8.450e-7
-0.771, 8.474e-7
-0.772, 8.496e-7
-0.773, 8.523e-7
-0.774, 8.566e-7
-0.775, 8.576e-7
-0.776, 8.594e-7
-0.777, 8.616e-7
-0.778, 8.652e-7
-0.779, 8.682e-7
-0.780, 8.702e-7
-0.781, 8.722e-7
-0.782, 8.745e-7
-0.783, 8.781e-7
-0.784, 8.812e-7
-0.785, 8.829e-7
-0.786, 8.838e-7
-0.787, 8.866e-7
-0.788, 8.908e-7
-0.789, 8.927e-7
-0.790, 8.951e-7
-0.791, 8.967e-7
-0.792, 8.991e-7
-0.793, 9.035e-7
-0.794, 9.084e-7
-0.795, 9.088e-7
-0.796, 9.115e-7
-0.797, 9.112e-7
-0.798, 9.167e-7
-0.799, 9.185e-7
-0.800, 9.209e-7
-0.801, 9.244e-7
-0.802, 9.258e-7
-0.803, 9.308e-7
-0.804, 9.336e-7
-0.805, 9.338e-7
-0.806, 9.363e-7
-0.807, 9.382e-7
-0.808, 9.425e-7
-0.809, 9.449e-7
-0.810, 9.469e-7
-0.811, 9.492e-7
-0.812, 9.516e-7
-0.813, 9.552e-7
-0.814, 9.577e-7
-0.815, 9.591e-7
-0.816, 9.626e-7
-0.817, 9.638e-7
-0.818, 9.684e-7
-0.819, 9.750e-7
-0.820, 9.771e-7
-0.821, 9.768e-7
-0.822, 9.803e-7
-0.823, 9.828e-7
-0.824, 9.859e-7
-0.825, 9.880e-7
-0.826, 9.896e-7
-0.827, 9.925e-7
-0.828, 9.962e-7
-0.829, 9.994e-7
-0.830, 1.001e-6
-0.831, 1.003e-6
-0.832, 1.006e-6
-0.833, 1.010e-6
-0.834, 1.013e-6
-0.835, 1.014e-6
-0.836, 1.016e-6
-0.837, 1.018e-6
-0.838, 1.022e-6
-0.839, 1.025e-6
-0.840, 1.027e-6
-0.841, 1.030e-6
-0.842, 1.032e-6
-0.843, 1.035e-6
-0.844, 1.039e-6
-0.845, 1.041e-6
-0.846, 1.044e-6
-0.847, 1.046e-6
-0.848, 1.050e-6
-0.849, 1.053e-6
-0.850, 1.054e-6
-0.851, 1.056e-6
-0.852, 1.059e-6
-0.853, 1.062e-6
-0.854, 1.068e-6
-0.855, 1.069e-6
-0.856, 1.072e-6
-0.857, 1.075e-6
-0.858, 1.078e-6
-0.859, 1.082e-6
-0.860, 1.082e-6
-0.861, 1.084e-6
-0.862, 1.087e-6
-0.863, 1.091e-6
-0.864, 1.094e-6
-0.865, 1.097e-6
-0.866, 1.098e-6
-0.867, 1.101e-6
-0.868, 1.104e-6
-0.869, 1.108e-6
-0.870, 1.111e-6
-0.871, 1.114e-6
-0.872, 1.114e-6
-0.873, 1.117e-6
-0.874, 1.121e-6
-0.875, 1.123e-6
-0.876, 1.126e-6
-0.877, 1.128e-6
-0.878, 1.132e-6
-0.879, 1.135e-6
-0.880, 1.136e-6
-0.881, 1.140e-6
-0.882, 1.141e-6
-0.883, 1.146e-6
-0.884, 1.151e-6
-0.885, 1.151e-6
-0.886, 1.155e-6
-0.887, 1.156e-6
-0.888, 1.161e-6
-0.889, 1.164e-6
-0.890, 1.165e-6
-0.891, 1.169e-6
-0.892, 1.171e-6
-0.893, 1.175e-6
-0.894, 1.179e-6
-0.895, 1.182e-6
-0.896, 1.185e-6
-0.897, 1.189e-6
-0.898, 1.191e-6
-0.899, 1.195e-6
-0.900, 1.197e-6
-0.901, 1.198e-6
-0.902, 1.203e-6
-0.903, 1.207e-6
-0.904, 1.209e-6
-0.905, 1.213e-6
-0.906, 1.213e-6
-0.907, 1.216e-6
-0.908, 1.221e-6
-0.909, 1.224e-6
-0.910, 1.226e-6
-0.911, 1.230e-6
-0.912, 1.232e-6
-0.913, 1.238e-6
-0.914, 1.240e-6
-0.915, 1.242e-6
-0.916, 1.246e-6
-0.917, 1.247e-6
-0.918, 1.252e-6
-0.919, 1.255e-6
-0.920, 1.258e-6
-0.921, 1.261e-6
-0.922, 1.264e-6
-0.923, 1.268e-6
-0.924, 1.272e-6
-0.925, 1.274e-6
-0.926, 1.277e-6
-0.927, 1.279e-6
-0.928, 1.283e-6
-0.929, 1.288e-6
-0.930, 1.289e-6
-0.931, 1.292e-6
-0.932, 1.295e-6
-0.933, 1.300e-6
-0.934, 1.304e-6
-0.935, 1.307e-6
-0.936, 1.309e-6
-0.937, 1.312e-6
-0.938, 1.317e-6
-0.939, 1.320e-6
-0.940, 1.323e-6
-0.941, 1.325e-6
-0.942, 1.331e-6
-0.943, 1.334e-6
-0.944, 1.339e-6
-0.945, 1.342e-6
-0.946, 1.344e-6
-0.947, 1.348e-6
-0.948, 1.353e-6
-0.949, 1.356e-6
-0.950, 1.358e-6
-0.951, 1.362e-6
-0.952, 1.365e-6
-0.953, 1.370e-6
-0.954, 1.373e-6
-0.955, 1.376e-6
-0.956, 1.378e-6
-0.957, 1.382e-6
-0.958, 1.388e-6
-0.959, 1.392e-6
-0.960, 1.396e-6
-0.961, 1.399e-6
-0.962, 1.401e-6
-0.963, 1.406e-6
-0.964, 1.410e-6
-0.965, 1.414e-6
-0.966, 1.417e-6
-0.967, 1.421e-6
-0.968, 1.425e-6
-0.969, 1.429e-6
-0.970, 1.431e-6
-0.971, 1.435e-6
-0.972, 1.437e-6
-0.973, 1.445e-6
-0.974, 1.449e-6
-0.975, 1.450e-6
-0.976, 1.456e-6
-0.977, 1.458e-6
-0.978, 1.462e-6
-0.979, 1.466e-6
-0.980, 1.470e-6
-0.981, 1.473e-6
-0.982, 1.477e-6
-0.983, 1.481e-6
-0.984, 1.485e-6
-0.985, 1.489e-6
-0.986, 1.492e-6
-0.987, 1.496e-6
-0.988, 1.501e-6
-0.989, 1.505e-6
-0.990, 1.508e-6
-0.991, 1.511e-6
-0.992, 1.514e-6
-0.993, 1.521e-6
-0.994, 1.525e-6
-0.995, 1.528e-6
-0.996, 1.533e-6
-0.997, 1.535e-6
-0.998, 1.543e-6
-0.999, 1.547e-6
-1.000, 1.551e-6
-1.001, 1.555e-6
-1.002, 1.557e-6
-1.003, 1.564e-6
-1.004, 1.567e-6
-1.005, 1.571e-6
-1.006, 1.576e-6
-1.007, 1.579e-6
-1.008, 1.585e-6
-1.009, 1.591e-6
-1.010, 1.593e-6
-1.011, 1.598e-6
-1.012, 1.602e-6
-1.013, 1.606e-6
-1.014, 1.612e-6
-1.015, 1.615e-6
-1.016, 1.619e-6
-1.017, 1.623e-6
-1.018, 1.629e-6
-1.019, 1.633e-6
-1.020, 1.636e-6
-1.021, 1.640e-6
-1.022, 1.645e-6
-1.023, 1.650e-6
-1.024, 1.656e-6
-1.025, 1.661e-6
-1.026, 1.663e-6
-1.027, 1.668e-6
-1.028, 1.674e-6
-1.029, 1.677e-6
-1.030, 1.682e-6
-1.031, 1.687e-6
-1.032, 1.689e-6
-1.033, 1.696e-6
-1.034, 1.702e-6
-1.035, 1.706e-6
-1.036, 1.710e-6
-1.037, 1.715e-6
-1.038, 1.720e-6
-1.039, 1.723e-6
-1.040, 1.727e-6
-1.041, 1.731e-6
-1.042, 1.735e-6
-1.043, 1.741e-6
-1.044, 1.746e-6
-1.045, 1.749e-6
-1.046, 1.754e-6
-1.047, 1.757e-6
-1.048, 1.762e-6
-1.049, 1.767e-6
-1.050, 1.771e-6
-1.051, 1.776e-6
-1.052, 1.780e-6
-1.053, 1.786e-6
-1.054, 1.790e-6
-1.055, 1.792e-6
-1.056, 1.797e-6
-1.057, 1.801e-6
-1.058, 1.807e-6
-1.059, 1.812e-6
-1.060, 1.816e-6
-1.061, 1.818e-6
-1.062, 1.824e-6
-1.063, 1.830e-6
-1.064, 1.835e-6
-1.065, 1.837e-6
-1.066, 1.842e-6
-1.067, 1.847e-6
-1.068, 1.854e-6
-1.069, 1.859e-6
-1.070, 1.863e-6
-1.071, 1.867e-6
-1.072, 1.870e-6
-1.073, 1.876e-6
-1.074, 1.879e-6
-1.075, 1.884e-6
-1.076, 1.888e-6
-1.077, 1.890e-6
-1.078, 1.897e-6
-1.079, 1.902e-6
-1.080, 1.906e-6
-1.081, 1.908e-6
-1.082, 1.912e-6
-1.083, 1.918e-6
-1.084, 1.923e-6
-1.085, 1.926e-6
-1.086, 1.930e-6
-1.087, 1.933e-6
-1.088, 1.939e-6
-1.089, 1.945e-6
-1.090, 1.947e-6
-1.091, 1.950e-6
-1.092, 1.956e-6
-1.093, 1.961e-6
-1.094, 1.966e-6
-1.095, 1.969e-6
-1.096, 1.972e-6
-1.097, 1.977e-6
-1.098, 1.982e-6
-1.099, 1.986e-6
-1.100, 1.989e-6
-1.101, 1.994e-6
-1.102, 1.999e-6
-1.103, 2.003e-6
-1.104, 2.009e-6
-1.105, 2.012e-6
-1.106, 2.015e-6
-1.107, 2.020e-6
-1.108, 2.027e-6
-1.109, 2.032e-6
-1.110, 2.036e-6
-1.111, 2.039e-6
-1.112, 2.042e-6
-1.113, 2.049e-6
-1.114, 2.053e-6
-1.115, 2.056e-6
-1.116, 2.060e-6
-1.117, 2.064e-6
-1.118, 2.070e-6
-1.119, 2.074e-6
-1.120, 2.077e-6
-1.121, 2.080e-6
-1.122, 2.084e-6
-1.123, 2.092e-6
-1.124, 2.094e-6
-1.125, 2.097e-6
-1.126, 2.103e-6
-1.127, 2.107e-6
-1.128, 2.111e-6
-1.129, 2.117e-6
-1.130, 2.119e-6
-1.131, 2.123e-6
-1.132, 2.127e-6
-1.133, 2.132e-6
-1.134, 2.136e-6
-1.135, 2.139e-6
-1.136, 2.142e-6
-1.137, 2.146e-6
-1.138, 2.150e-6
-1.139, 2.156e-6
-1.140, 2.159e-6
-1.141, 2.162e-6
-1.142, 2.167e-6
-1.143, 2.173e-6
-1.144, 2.178e-6
-1.145, 2.180e-6
-1.146, 2.182e-6
-1.147, 2.187e-6
-1.148, 2.192e-6
-1.149, 2.196e-6
-1.150, 2.199e-6
-1.151, 2.201e-6
-1.152, 2.207e-6
-1.153, 2.211e-6
-1.154, 2.215e-6
-1.155, 2.217e-6
-1.156, 2.221e-6
-1.157, 2.223e-6
-1.158, 2.230e-6
-1.159, 2.233e-6
-1.160, 2.236e-6
-1.161, 2.239e-6
-1.162, 2.242e-6
-1.163, 2.248e-6
-1.164, 2.251e-6
-1.165, 2.255e-6
-1.166, 2.259e-6
-1.167, 2.261e-6
-1.168, 2.266e-6
-1.169, 2.270e-6
-1.170, 2.271e-6
-1.171, 2.275e-6
-1.172, 2.279e-6
-1.173, 2.282e-6
-1.174, 2.288e-6
-1.175, 2.289e-6
-1.176, 2.293e-6
-1.177, 2.297e-6
-1.178, 2.305e-6
-1.179, 2.307e-6
-1.180, 2.309e-6
-1.181, 2.311e-6
-1.182, 2.315e-6
-1.183, 2.318e-6
-1.184, 2.323e-6
-1.185, 2.326e-6
-1.186, 2.327e-6
-1.187, 2.331e-6
-1.188, 2.336e-6
-1.189, 2.339e-6
-1.190, 2.343e-6
-1.191, 2.346e-6
-1.192, 2.349e-6
-1.193, 2.355e-6
-1.194, 2.356e-6
-1.195, 2.359e-6
-1.196, 2.363e-6
-1.197, 2.366e-6
-1.198, 2.372e-6
-1.199, 2.374e-6
-1.200, 2.376e-6
-1.201, 2.380e-6
-1.202, 2.381e-6
-1.203, 2.386e-6
-1.204, 2.390e-6
-1.205, 2.391e-6
-1.206, 2.395e-6
-1.207, 2.399e-6
-1.208, 2.403e-6
-1.209, 2.407e-6
-1.210, 2.408e-6
-1.211, 2.410e-6
-1.212, 2.413e-6
-1.213, 2.417e-6
-1.214, 2.422e-6
-1.215, 2.423e-6
-1.216, 2.426e-6
-1.217, 2.428e-6
-1.218, 2.432e-6
-1.219, 2.436e-6
-1.220, 2.437e-6
-1.221, 2.441e-6
-1.222, 2.444e-6
-1.223, 2.447e-6
-1.224, 2.450e-6
-1.225, 2.453e-6
-1.226, 2.453e-6
-1.227, 2.456e-6
-1.228, 2.460e-6
-1.229, 2.470e-6
-1.230, 2.468e-6
-1.231, 2.469e-6
-1.232, 2.472e-6
-1.233, 2.476e-6
-1.234, 2.478e-6
-1.235, 2.480e-6
-1.236, 2.483e-6
-1.237, 2.485e-6
-1.238, 2.491e-6
-1.239, 2.494e-6
-1.240, 2.495e-6
-1.241, 2.496e-6
-1.242, 2.499e-6
-1.243, 2.503e-6
-1.244, 2.506e-6
-1.245, 2.508e-6
-1.246, 2.511e-6
-1.247, 2.514e-6
-1.248, 2.518e-6
-1.249, 2.522e-6
-1.250, 2.522e-6
-1.251, 2.528e-6
-1.252, 2.531e-6
-1.253, 2.536e-6
-1.254, 2.540e-6
-1.255, 2.542e-6
-1.256, 2.544e-6
-1.257, 2.546e-6
-1.258, 2.548e-6
-1.259, 2.553e-6
-1.260, 2.556e-6
-1.261, 2.561e-6
-1.262, 2.565e-6
-1.263, 2.570e-6
-1.264, 2.574e-6
-1.265, 2.576e-6
-1.266, 2.577e-6
-1.267, 2.582e-6
-1.268, 2.587e-6
-1.269, 2.589e-6
-1.270, 2.593e-6
-1.271, 2.596e-6
-1.272, 2.599e-6
-1.273, 2.606e-6
-1.274, 2.610e-6
-1.275, 2.612e-6
-1.276, 2.616e-6
-1.277, 2.619e-6
-1.278, 2.625e-6
-1.279, 2.631e-6
-1.280, 2.636e-6
-1.281, 2.640e-6
-1.282, 2.643e-6
-1.283, 2.648e-6
-1.284, 2.653e-6
-1.285, 2.655e-6
-1.286, 2.661e-6
-1.287, 2.665e-6
-1.288, 2.671e-6
-1.289, 2.677e-6
-1.290, 2.679e-6
-1.291, 2.685e-6
-1.292, 2.691e-6
-1.293, 2.698e-6
-1.294, 2.704e-6
-1.295, 2.708e-6
-1.296, 2.712e-6
-1.297, 2.718e-6
-1.298, 2.722e-6
-1.299, 2.729e-6
-1.300, 2.734e-6
-1.301, 2.737e-6
-1.302, 2.745e-6
-1.303, 2.753e-6
-1.304, 2.758e-6
-1.305, 2.765e-6
-1.306, 2.769e-6
-1.307, 2.775e-6
-1.308, 2.781e-6
-1.309, 2.787e-6
-1.310, 2.794e-6
-1.311, 2.800e-6
-1.312, 2.805e-6
-1.313, 2.815e-6
-1.314, 2.820e-6
-1.315, 2.825e-6
-1.316, 2.832e-6
-1.317, 2.837e-6
-1.318, 2.846e-6
-1.319, 2.851e-6
-1.320, 2.856e-6
-1.321, 2.864e-6
-1.322, 2.869e-6
-1.323, 2.879e-6
-1.324, 2.886e-6
-1.325, 2.889e-6
-1.326, 2.897e-6
-1.327, 2.902e-6
-1.328, 2.910e-6
-1.329, 2.918e-6
-1.330, 2.922e-6
-1.331, 2.929e-6
-1.332, 2.937e-6
-1.333, 2.944e-6
-1.334, 2.952e-6
-1.335, 2.957e-6
-1.336, 2.963e-6
-1.337, 2.969e-6
-1.338, 2.977e-6
-1.339, 2.984e-6
-1.340, 2.989e-6
-1.341, 2.995e-6
-1.342, 3.001e-6
-1.343, 3.009e-6
-1.344, 3.016e-6
-1.345, 3.021e-6
-1.346, 3.026e-6
-1.347, 3.034e-6
-1.348, 3.042e-6
-1.349, 3.048e-6
-1.350, 3.056e-6
-1.351, 3.061e-6
-1.352, 3.068e-6
-1.353, 3.076e-6
-1.354, 3.082e-6
-1.355, 3.087e-6
-1.356, 3.093e-6
-1.357, 3.098e-6
-1.358, 3.108e-6
-1.359, 3.115e-6
-1.360, 3.118e-6
-1.361, 3.124e-6
-1.362, 3.131e-6
-1.363, 3.141e-6
-1.364, 3.149e-6
-1.365, 3.154e-6
-1.366, 3.163e-6
-1.367, 3.168e-6
-1.368, 3.175e-6
-1.369, 3.182e-6
-1.370, 3.184e-6
-1.371, 3.191e-6
-1.372, 3.198e-6
-1.373, 3.204e-6
-1.374, 3.213e-6
-1.375, 3.217e-6
-1.376, 3.224e-6
-1.377, 3.232e-6
-1.378, 3.237e-6
-1.379, 3.244e-6
-1.380, 3.249e-6
-1.381, 3.254e-6
-1.382, 3.263e-6
-1.383, 3.272e-6
-1.384, 3.277e-6
-1.385, 3.284e-6
-1.386, 3.286e-6
-1.387, 3.294e-6
-1.388, 3.302e-6
-1.389, 3.309e-6
-1.390, 3.315e-6
-1.391, 3.320e-6
-1.392, 3.326e-6
-1.393, 3.334e-6
-1.394, 3.341e-6
-1.395, 3.347e-6
-1.396, 3.352e-6
-1.397, 3.358e-6
-1.398, 3.366e-6
-1.399, 3.372e-6
-1.400, 3.377e-6
-1.401, 3.385e-6
-1.402, 3.391e-6
-1.403, 3.400e-6
-1.404, 3.406e-6
-1.405, 3.410e-6
-1.406, 3.417e-6
-1.407, 3.422e-6
-1.408, 3.430e-6
-1.409, 3.438e-6
-1.410, 3.442e-6
-1.411, 3.449e-6
-1.412, 3.457e-6
-1.413, 3.464e-6
-1.414, 3.472e-6
-1.415, 3.475e-6
-1.416, 3.479e-6
-1.417, 3.485e-6
-1.418, 3.491e-6
-1.419, 3.499e-6
-1.420, 3.504e-6
-1.421, 3.509e-6
-1.422, 3.517e-6
-1.423, 3.523e-6
-1.424, 3.530e-6
-1.425, 3.535e-6
-1.426, 3.539e-6
-1.427, 3.547e-6
-1.428, 3.555e-6
-1.429, 3.561e-6
-1.430, 3.568e-6
-1.431, 3.573e-6
-1.432, 3.578e-6
-1.433, 3.590e-6
-1.434, 3.597e-6
-1.435, 3.604e-6
-1.436, 3.609e-6
-1.437, 3.617e-6
-1.438, 3.627e-6
-1.439, 3.634e-6
-1.440, 3.638e-6
-1.441, 3.645e-6
-1.442, 3.650e-6
-1.443, 3.661e-6
-1.444, 3.669e-6
-1.445, 3.675e-6
-1.446, 3.684e-6
-1.447, 3.691e-6
-1.448, 3.702e-6
-1.449, 3.713e-6
-1.450, 3.719e-6
-1.451, 3.728e-6
-1.452, 3.736e-6
-1.453, 3.746e-6
-1.454, 3.755e-6
-1.455, 3.761e-6
-1.456, 3.770e-6
-1.457, 3.780e-6
-1.458, 3.791e-6
-1.459, 3.803e-6
-1.460, 3.811e-6
-1.461, 3.820e-6
-1.462, 3.829e-6
-1.463, 3.839e-6
-1.464, 3.850e-6
-1.465, 3.862e-6
-1.466, 3.870e-6
-1.467, 3.882e-6
-1.468, 3.894e-6
-1.469, 3.905e-6
-1.470, 3.915e-6
-1.471, 3.924e-6
-1.472, 3.937e-6
-1.473, 3.951e-6
-1.474, 3.962e-6
-1.475, 3.975e-6
-1.476, 3.986e-6
-1.477, 3.998e-6
-1.478, 4.013e-6
-1.479, 4.028e-6
-1.480, 4.039e-6
-1.481, 4.052e-6
-1.482, 4.065e-6
-1.483, 4.080e-6
-1.484, 4.094e-6
-1.485, 4.111e-6
-1.486, 4.124e-6
-1.487, 4.137e-6
-1.488, 4.155e-6
-1.489, 4.171e-6
-1.490, 4.183e-6
-1.491, 4.198e-6
-1.492, 4.214e-6
-1.493, 4.231e-6
-1.494, 4.249e-6
-1.495, 4.263e-6
-1.496, 4.282e-6
-1.497, 4.301e-6
-1.498, 4.322e-6
-1.499, 4.343e-6
-1.500, 4.361e-6
-1.501, 4.378e-6
-1.502, 4.398e-6
-1.503, 4.419e-6
-1.504, 4.441e-6
-1.505, 4.460e-6
-1.506, 4.479e-6
-1.507, 4.502e-6
-1.508, 4.527e-6
-1.509, 4.549e-6
-1.510, 4.571e-6
-1.511, 4.593e-6
-1.512, 4.614e-6
-1.513, 4.641e-6
-1.514, 4.664e-6
-1.515, 4.688e-6
-1.516, 4.714e-6
-1.517, 4.735e-6
-1.518, 4.766e-6
-1.519, 4.792e-6
-1.520, 4.817e-6
-1.521, 4.843e-6
-1.522, 4.869e-6
-1.523, 4.900e-6
-1.524, 4.927e-6
-1.525, 4.953e-6
-1.526, 4.983e-6
-1.527, 5.013e-6
-1.528, 5.045e-6
-1.529, 5.077e-6
-1.530, 5.105e-6
-1.531, 5.136e-6
-1.532, 5.170e-6
-1.533, 5.203e-6
-1.534, 5.240e-6
-1.535, 5.273e-6
-1.536, 5.307e-6
-1.537, 5.342e-6
-1.538, 5.378e-6
-1.539, 5.414e-6
-1.540, 5.447e-6
-1.541, 5.484e-6
-1.542, 5.524e-6
-1.543, 5.564e-6
-1.544, 5.605e-6
-1.545, 5.644e-6
-1.546, 5.681e-6
-1.547, 5.726e-6
-1.548, 5.769e-6
-1.549, 5.814e-6
-1.550, 5.856e-6
-1.551, 5.895e-6
-1.552, 5.939e-6
-1.553, 5.984e-6
-1.554, 6.031e-6
-1.555, 6.079e-6
-1.556, 6.126e-6
-1.557, 6.172e-6
-1.558, 6.222e-6
-1.559, 6.270e-6
-1.560, 6.320e-6
-1.561, 6.373e-6
-1.562, 6.426e-6
-1.563, 6.481e-6
-1.564, 6.536e-6
-1.565, 6.589e-6
-1.566, 6.645e-6
-1.567, 6.701e-6
-1.568, 6.761e-6
-1.569, 6.823e-6
-1.570, 6.878e-6
-1.571, 6.937e-6
-1.572, 6.999e-6
-1.573, 7.061e-6
-1.574, 7.128e-6
-1.575, 7.190e-6
-1.576, 7.255e-6
-1.577, 7.319e-6
-1.578, 7.387e-6
-1.579, 7.457e-6
-1.580, 7.527e-6
-1.581, 7.596e-6
-1.582, 7.671e-6
-1.583, 7.746e-6
-1.584, 7.822e-6
-1.585, 7.897e-6
-1.586, 7.971e-6
-1.587, 8.053e-6
-1.588, 8.135e-6
-1.589, 8.217e-6
-1.590, 8.303e-6
-1.591, 8.384e-6
-1.592, 8.468e-6
-1.593, 8.559e-6
-1.594, 8.644e-6
-1.595, 8.731e-6
-1.596, 8.821e-6
-1.597, 8.910e-6
-1.598, 9.008e-6
-1.599, 9.104e-6
-1.600, 9.199e-6
-1.601, 9.300e-6
-1.602, 9.396e-6
-1.603, 9.501e-6
-1.604, 9.607e-6
-1.605, 9.709e-6
-1.606, 9.819e-6
-1.607, 9.926e-6
-1.608, 1.004e-5
-1.609, 1.015e-5
-1.610, 1.026e-5
-1.611, 1.038e-5
-1.612, 1.050e-5
-1.613, 1.062e-5
-1.614, 1.075e-5
-1.615, 1.087e-5
-1.616, 1.100e-5
-1.617, 1.113e-5
-1.618, 1.126e-5
-1.619, 1.141e-5
-1.620, 1.154e-5
-1.621, 1.168e-5
-1.622, 1.183e-5
-1.623, 1.198e-5
-1.624, 1.212e-5
-1.625, 1.227e-5
-1.626, 1.242e-5
-1.627, 1.258e-5
-1.628, 1.274e-5
-1.629, 1.291e-5
-1.630, 1.308e-5
-1.631, 1.325e-5
-1.632, 1.342e-5
-1.633, 1.361e-5
-1.634, 1.378e-5
-1.635, 1.395e-5
-1.636, 1.413e-5
-1.637, 1.432e-5
-1.638, 1.450e-5
-1.639, 1.469e-5
-1.640, 1.487e-5
-1.641, 1.508e-5
-1.642, 1.529e-5
-1.643, 1.551e-5
-1.644, 1.574e-5
-1.645, 1.596e-5
-1.646, 1.620e-5
-1.647, 1.643e-5
-1.648, 1.666e-5
-1.649, 1.689e-5
-1.650, 1.713e-5
-1.651, 1.739e-5
-1.652, 1.765e-5
-1.653, 1.792e-5
-1.654, 1.819e-5
-1.655, 1.847e-5
-1.656, 1.876e-5
-1.657, 1.906e-5
-1.658, 1.937e-5
-1.659, 1.969e-5
-1.660, 1.999e-5
-1.661, 2.031e-5
-1.662, 2.064e-5
-1.663, 2.098e-5
-1.664, 2.131e-5
-1.665, 2.166e-5
-1.666, 2.200e-5
-1.667, 2.236e-5
-1.668, 2.274e-5
-1.669, 2.313e-5
-1.670, 2.353e-5
-1.671, 2.393e-5
-1.672, 2.434e-5
-1.673, 2.477e-5
-1.674, 2.521e-5
-1.675, 2.563e-5
-1.676, 2.601e-5
-1.677, 2.640e-5
-1.678, 2.682e-5
-1.679, 2.730e-5
-1.680, 2.779e-5
-1.681, 2.826e-5
-1.682, 2.877e-5
-1.683, 2.927e-5
-1.684, 2.982e-5
-1.685, 3.037e-5
-1.686, 3.091e-5
-1.687, 3.149e-5
-1.688, 3.205e-5
-1.689, 3.265e-5
-1.690, 3.330e-5
-1.691, 3.391e-5
-1.692, 3.455e-5
-1.693, 3.522e-5
-1.694, 3.585e-5
-1.695, 3.653e-5
-1.696, 3.723e-5
-1.697, 3.792e-5
-1.698, 3.860e-5
-1.699, 3.919e-5
-1.700, 3.992e-5
-1.701, 4.065e-5
-1.702, 4.143e-5
-1.703, 4.223e-5
-1.704, 4.304e-5
-1.705, 4.383e-5
-1.706, 4.468e-5
-1.707, 4.554e-5
-1.708, 4.640e-5
-1.709, 4.727e-5
-1.710, 4.821e-5
-1.711, 4.913e-5
-1.712, 5.009e-5
-1.713, 5.107e-5
-1.714, 5.206e-5
-1.715, 5.306e-5
-1.716, 5.408e-5
-1.717, 5.509e-5
-1.718, 5.612e-5
-1.719, 5.721e-5
-1.720, 5.832e-5
-1.721, 5.943e-5
-1.722, 6.053e-5
-1.723, 6.170e-5
-1.724, 6.289e-5
-1.725, 6.410e-5
-1.726, 6.532e-5
-1.727, 6.663e-5
-1.728, 6.791e-5
-1.729, 6.924e-5
-1.730, 7.060e-5
-1.731, 7.200e-5
-1.732, 7.340e-5
-1.733, 7.488e-5
-1.734, 7.625e-5
-1.735, 7.772e-5
-1.736, 7.920e-5
-1.737, 8.074e-5
-1.738, 8.232e-5
-1.739, 8.393e-5
-1.740, 8.558e-5
-1.741, 8.721e-5
-1.742, 8.883e-5
-1.743, 9.050e-5
-1.744, 9.225e-5
-1.745, 9.409e-5
-1.746, 9.591e-5
-1.747, 9.780e-5
-1.748, 9.969e-5
-1.749, 1.016e-4
-1.750, 1.034e-4
-1.751, 1.054e-4
-1.752, 1.073e-4
-1.753, 1.094e-4
-1.754, 1.116e-4
-1.755, 1.137e-4
-1.756, 1.158e-4
-1.757, 1.180e-4
-1.758, 1.203e-4
-1.759, 1.226e-4
-1.760, 1.249e-4
-1.761, 1.273e-4
-1.762, 1.298e-4
-1.763, 1.322e-4
-1.764, 1.348e-4
-1.765, 1.373e-4
-1.766, 1.400e-4
-1.767, 1.427e-4
-1.768, 1.455e-4
-1.769, 1.483e-4
-1.770, 1.512e-4
-1.771, 1.541e-4
-1.772, 1.571e-4
-1.773, 1.601e-4
-1.774, 1.632e-4
-1.775, 1.664e-4
-1.776, 1.696e-4
-1.777, 1.729e-4
-1.778, 1.763e-4
-1.779, 1.797e-4
-1.780, 1.832e-4
-1.781, 1.869e-4
-1.782, 1.906e-4
-1.783, 1.943e-4
-1.784, 1.981e-4
-1.785, 2.018e-4
-1.786, 2.056e-4
-1.787, 2.094e-4
-1.788, 2.134e-4
-1.789, 2.175e-4
-1.790, 2.217e-4
-1.791, 2.257e-4
-1.792, 2.299e-4
-1.793, 2.341e-4
-1.794, 2.385e-4
-1.795, 2.430e-4
-1.796, 2.477e-4
-1.797, 2.524e-4
-1.798, 2.570e-4
-1.799, 2.618e-4
-1.800, 2.668e-4
-1.801, 2.719e-4
-1.802, 2.772e-4
-1.803, 2.825e-4
-1.804, 2.878e-4
-1.805, 2.932e-4
-1.806, 2.987e-4
-1.807, 3.044e-4
-1.808, 3.102e-4
-1.809, 3.162e-4
-1.810, 3.224e-4
-1.811, 3.287e-4
-1.812, 3.351e-4
-1.813, 3.415e-4
-1.814, 3.481e-4
-1.815, 3.548e-4
-1.816, 3.617e-4
-1.817, 3.687e-4
-1.818, 3.760e-4
-1.819, 3.833e-4
-1.820, 3.907e-4
-1.821, 3.980e-4
-1.822, 4.057e-4
-1.823, 4.134e-4
-1.824, 4.213e-4
-1.825, 4.294e-4
-1.826, 4.376e-4
-1.827, 4.457e-4
-1.828, 4.540e-4
-1.829, 4.627e-4
-1.830, 4.714e-4
-1.831, 4.804e-4
-1.832, 4.895e-4
-1.833, 4.987e-4
-1.834, 5.077e-4
-1.835, 5.168e-4
-1.836, 5.263e-4
-1.837, 5.361e-4
-1.838, 5.458e-4
-1.839, 5.558e-4
-1.840, 5.663e-4
-1.841, 5.765e-4
-1.842, 5.870e-4
-1.843, 5.978e-4
-1.844, 6.087e-4
-1.845, 6.200e-4
-1.846, 6.313e-4
-1.847, 6.429e-4
-1.848, 6.548e-4
-1.849, 6.667e-4
-1.850, 6.788e-4
-1.851, 6.911e-4
-1.852, 7.036e-4
-1.853, 7.163e-4
-1.854, 7.291e-4
-1.855, 7.420e-4
-1.856, 7.553e-4
-1.857, 7.691e-4
-1.858, 7.829e-4
-1.859, 7.966e-4
-1.860, 8.108e-4
-1.861, 8.249e-4
-1.862, 8.394e-4
-1.863, 8.541e-4
-1.864, 8.690e-4
-1.865, 8.842e-4
-1.866, 8.993e-4
-1.867, 9.150e-4
-1.868, 9.311e-4
-1.869, 9.472e-4
-1.870, 9.635e-4
-1.871, 9.799e-4
-1.872, 9.966e-4
-1.873, 1.010e-3
-1.874, 1.011e-3
-1.875, 1.011e-3
-1.876, 1.011e-3
-1.877, 1.011e-3
-1.878, 1.011e-3
-1.879, 1.011e-3
-1.880, 1.011e-3
-1.881, 1.011e-3
-1.882, 1.011e-3
-1.883, 1.011e-3
-1.884, 1.011e-3
-1.885, 1.011e-3
-1.886, 1.011e-3
-1.887, 1.011e-3
-1.888, 1.011e-3
-1.889, 1.011e-3
-1.890, 1.011e-3
-1.891, 1.011e-3
-1.892, 1.011e-3
-1.893, 1.011e-3
-1.894, 1.011e-3
-1.895, 1.011e-3
-1.896, 1.011e-3
-1.897, 1.011e-3
-1.898, 1.011e-3
-1.899, 1.011e-3
