Dec. 18, 2024   13:53:29
Cyclic Voltammetry
File: c:/users/guazh/data/banditlqround7_x0exp667_r5/2024-12-16-exp691\exp691-2024-12-18t13_44_41-arkoh\exp691_cv_sr_800mvs_efin_-1400mv.bin
Data Source:  Experiment
Instrument Model:  CHI760E
Header: CV ran at 800 mVs
Note: 

Init E (V) = -1
High E (V) = -1
Low E (V) = -1.4
Final E (V) = -1
Init P/N = N
Scan Rate (V/s) = 0.8
Segment = 3
Sample Interval (V) = 0.001
Quiet Time (sec) = 2
Sensitivity (A/V) = 0.01
Comp R (ohm) = 1.1

Results:

Channel 1:
Segment 1:

Segment 2:

Segment 3:

Potential/V, Current/A

-1.000, -5.764e-4
-1.001, -4.469e-4
-1.002, -3.267e-4
-1.003, -2.095e-4
-1.004, -9.850e-5
-1.005, 1.557e-5
-1.006, 1.235e-4
-1.007, 2.314e-4
-1.008, 3.393e-4
-1.009, 4.472e-4
-1.010, 5.551e-4
-1.011, 6.569e-4
-1.012, 7.555e-4
-1.013, 8.511e-4
-1.014, 9.405e-4
-1.015, 1.030e-3
-1.016, 1.116e-3
-1.017, 1.199e-3
-1.018, 1.283e-3
-1.019, 1.369e-3
-1.020, 1.452e-3
-1.021, 1.539e-3
-1.022, 1.628e-3
-1.023, 1.711e-3
-1.024, 1.798e-3
-1.025, 1.878e-3
-1.026, 1.958e-3
-1.027, 2.032e-3
-1.028, 2.106e-3
-1.029, 2.177e-3
-1.030, 2.245e-3
-1.031, 2.312e-3
-1.032, 2.383e-3
-1.033, 2.454e-3
-1.034, 2.528e-3
-1.035, 2.599e-3
-1.036, 2.676e-3
-1.037, 2.747e-3
-1.038, 2.818e-3
-1.039, 2.889e-3
-1.040, 2.954e-3
-1.041, 3.015e-3
-1.042, 3.077e-3
-1.043, 3.139e-3
-1.044, 3.200e-3
-1.045, 3.262e-3
-1.046, 3.321e-3
-1.047, 3.385e-3
-1.048, 3.450e-3
-1.049, 3.521e-3
-1.050, 3.586e-3
-1.051, 3.651e-3
-1.052, 3.715e-3
-1.053, 3.774e-3
-1.054, 3.836e-3
-1.055, 3.891e-3
-1.056, 3.947e-3
-1.057, 4.002e-3
-1.058, 4.058e-3
-1.059, 4.113e-3
-1.060, 4.175e-3
-1.061, 4.236e-3
-1.062, 4.298e-3
-1.063, 4.360e-3
-1.064, 4.421e-3
-1.065, 4.483e-3
-1.066, 4.542e-3
-1.067, 4.600e-3
-1.068, 4.649e-3
-1.069, 4.705e-3
-1.070, 4.757e-3
-1.071, 4.813e-3
-1.072, 4.865e-3
-1.073, 4.921e-3
-1.074, 4.979e-3
-1.075, 5.041e-3
-1.076, 5.103e-3
-1.077, 5.164e-3
-1.078, 5.226e-3
-1.079, 5.282e-3
-1.080, 5.337e-3
-1.081, 5.386e-3
-1.082, 5.439e-3
-1.083, 5.491e-3
-1.084, 5.541e-3
-1.085, 5.593e-3
-1.086, 5.648e-3
-1.087, 5.704e-3
-1.088, 5.762e-3
-1.089, 5.824e-3
-1.090, 5.886e-3
-1.091, 5.944e-3
-1.092, 6.003e-3
-1.093, 6.055e-3
-1.094, 6.111e-3
-1.095, 6.163e-3
-1.096, 6.213e-3
-1.097, 6.262e-3
-1.098, 6.314e-3
-1.099, 6.370e-3
-1.100, 6.428e-3
-1.101, 6.484e-3
-1.102, 6.546e-3
-1.103, 6.604e-3
-1.104, 6.666e-3
-1.105, 6.728e-3
-1.106, 6.783e-3
-1.107, 6.838e-3
-1.108, 6.894e-3
-1.109, 6.943e-3
-1.110, 6.993e-3
-1.111, 7.048e-3
-1.112, 7.101e-3
-1.113, 7.159e-3
-1.114, 7.218e-3
-1.115, 7.279e-3
-1.116, 7.338e-3
-1.117, 7.403e-3
-1.118, 7.461e-3
-1.119, 7.520e-3
-1.120, 7.572e-3
-1.121, 7.628e-3
-1.122, 7.683e-3
-1.123, 7.736e-3
-1.124, 7.788e-3
-1.125, 7.844e-3
-1.126, 7.899e-3
-1.127, 7.958e-3
-1.128, 8.016e-3
-1.129, 8.078e-3
-1.130, 8.143e-3
-1.131, 8.204e-3
-1.132, 8.263e-3
-1.133, 8.321e-3
-1.134, 8.377e-3
-1.135, 8.432e-3
-1.136, 8.485e-3
-1.137, 8.537e-3
-1.138, 8.593e-3
-1.139, 8.648e-3
-1.140, 8.707e-3
-1.141, 8.765e-3
-1.142, 8.830e-3
-1.143, 8.895e-3
-1.144, 8.957e-3
-1.145, 9.018e-3
-1.146, 9.080e-3
-1.147, 9.135e-3
-1.148, 9.191e-3
-1.149, 9.243e-3
-1.150, 9.296e-3
-1.151, 9.348e-3
-1.152, 9.404e-3
-1.153, 9.462e-3
-1.154, 9.524e-3
-1.155, 9.586e-3
-1.156, 9.650e-3
-1.157, 9.715e-3
-1.158, 9.777e-3
-1.159, 9.835e-3
-1.160, 9.894e-3
-1.161, 9.946e-3
-1.162, 1.000e-2
-1.163, 1.005e-2
-1.164, 1.010e-2
-1.165, 1.016e-2
-1.166, 1.022e-2
-1.167, 1.028e-2
-1.168, 1.034e-2
-1.169, 1.041e-2
-1.170, 1.047e-2
-1.171, 1.054e-2
-1.172, 1.060e-2
-1.173, 1.066e-2
-1.174, 1.073e-2
-1.175, 1.078e-2
-1.176, 1.083e-2
-1.177, 1.088e-2
-1.178, 1.094e-2
-1.179, 1.098e-2
-1.180, 1.104e-2
-1.181, 1.110e-2
-1.182, 1.116e-2
-1.183, 1.124e-2
-1.184, 1.130e-2
-1.185, 1.137e-2
-1.186, 1.144e-2
-1.187, 1.150e-2
-1.188, 1.156e-2
-1.189, 1.162e-2
-1.190, 1.167e-2
-1.191, 1.173e-2
-1.192, 1.178e-2
-1.193, 1.184e-2
-1.194, 1.190e-2
-1.195, 1.196e-2
-1.196, 1.202e-2
-1.197, 1.209e-2
-1.198, 1.214e-2
-1.199, 1.221e-2
-1.200, 1.226e-2
-1.201, 1.231e-2
-1.202, 1.237e-2
-1.203, 1.243e-2
-1.204, 1.248e-2
-1.205, 1.254e-2
-1.206, 1.259e-2
-1.207, 1.265e-2
-1.208, 1.271e-2
-1.209, 1.277e-2
-1.210, 1.283e-2
-1.211, 1.289e-2
-1.212, 1.295e-2
-1.213, 1.300e-2
-1.214, 1.305e-2
-1.215, 1.311e-2
-1.216, 1.316e-2
-1.217, 1.322e-2
-1.218, 1.327e-2
-1.219, 1.333e-2
-1.220, 1.338e-2
-1.221, 1.344e-2
-1.222, 1.349e-2
-1.223, 1.355e-2
-1.224, 1.362e-2
-1.225, 1.368e-2
-1.226, 1.374e-2
-1.227, 1.380e-2
-1.228, 1.385e-2
-1.229, 1.391e-2
-1.230, 1.397e-2
-1.231, 1.403e-2
-1.232, 1.408e-2
-1.233, 1.415e-2
-1.234, 1.421e-2
-1.235, 1.427e-2
-1.236, 1.433e-2
-1.237, 1.440e-2
-1.238, 1.446e-2
-1.239, 1.452e-2
-1.240, 1.458e-2
-1.241, 1.463e-2
-1.242, 1.468e-2
-1.243, 1.474e-2
-1.244, 1.479e-2
-1.245, 1.485e-2
-1.246, 1.490e-2
-1.247, 1.496e-2
-1.248, 1.503e-2
-1.249, 1.509e-2
-1.250, 1.515e-2
-1.251, 1.521e-2
-1.252, 1.527e-2
-1.253, 1.533e-2
-1.254, 1.539e-2
-1.255, 1.545e-2
-1.256, 1.551e-2
-1.257, 1.556e-2
-1.258, 1.562e-2
-1.259, 1.568e-2
-1.260, 1.574e-2
-1.261, 1.580e-2
-1.262, 1.586e-2
-1.263, 1.592e-2
-1.264, 1.599e-2
-1.265, 1.605e-2
-1.266, 1.612e-2
-1.267, 1.618e-2
-1.268, 1.624e-2
-1.269, 1.629e-2
-1.270, 1.634e-2
-1.271, 1.640e-2
-1.272, 1.645e-2
-1.273, 1.652e-2
-1.274, 1.657e-2
-1.275, 1.664e-2
-1.276, 1.670e-2
-1.277, 1.677e-2
-1.278, 1.683e-2
-1.279, 1.689e-2
-1.280, 1.695e-2
-1.281, 1.701e-2
-1.282, 1.706e-2
-1.283, 1.711e-2
-1.284, 1.717e-2
-1.285, 1.722e-2
-1.286, 1.728e-2
-1.287, 1.734e-2
-1.288, 1.740e-2
-1.289, 1.747e-2
-1.290, 1.754e-2
-1.291, 1.760e-2
-1.292, 1.766e-2
-1.293, 1.771e-2
-1.294, 1.777e-2
-1.295, 1.782e-2
-1.296, 1.788e-2
-1.297, 1.793e-2
-1.298, 1.798e-2
-1.299, 1.803e-2
-1.300, 1.809e-2
-1.301, 1.815e-2
-1.302, 1.821e-2
-1.303, 1.827e-2
-1.304, 1.833e-2
-1.305, 1.838e-2
-1.306, 1.844e-2
-1.307, 1.850e-2
-1.308, 1.855e-2
-1.309, 1.860e-2
-1.310, 1.865e-2
-1.311, 1.871e-2
-1.312, 1.876e-2
-1.313, 1.882e-2
-1.314, 1.887e-2
-1.315, 1.893e-2
-1.316, 1.899e-2
-1.317, 1.905e-2
-1.318, 1.911e-2
-1.319, 1.917e-2
-1.320, 1.923e-2
-1.321, 1.928e-2
-1.322, 1.933e-2
-1.323, 1.938e-2
-1.324, 1.944e-2
-1.325, 1.949e-2
-1.326, 1.954e-2
-1.327, 1.960e-2
-1.328, 1.965e-2
-1.329, 1.971e-2
-1.330, 1.978e-2
-1.331, 1.983e-2
-1.332, 1.989e-2
-1.333, 1.994e-2
-1.334, 1.999e-2
-1.335, 2.005e-2
-1.336, 2.010e-2
-1.337, 2.015e-2
-1.338, 2.020e-2
-1.339, 2.025e-2
-1.340, 2.030e-2
-1.341, 2.036e-2
-1.342, 2.042e-2
-1.343, 2.048e-2
-1.344, 2.055e-2
-1.345, 2.060e-2
-1.346, 2.066e-2
-1.347, 2.072e-2
-1.348, 2.077e-2
-1.349, 2.082e-2
-1.350, 2.087e-2
-1.351, 2.092e-2
-1.352, 2.097e-2
-1.353, 2.103e-2
-1.354, 2.108e-2
-1.355, 2.114e-2
-1.356, 2.121e-2
-1.357, 2.127e-2
-1.358, 2.134e-2
-1.359, 2.140e-2
-1.360, 2.145e-2
-1.361, 2.150e-2
-1.362, 2.156e-2
-1.363, 2.161e-2
-1.364, 2.166e-2
-1.365, 2.171e-2
-1.366, 2.177e-2
-1.367, 2.183e-2
-1.368, 2.189e-2
-1.369, 2.195e-2
-1.370, 2.202e-2
-1.371, 2.208e-2
-1.372, 2.214e-2
-1.373, 2.219e-2
-1.374, 2.224e-2
-1.375, 2.230e-2
-1.376, 2.235e-2
-1.377, 2.239e-2
-1.378, 2.245e-2
-1.379, 2.250e-2
-1.380, 2.257e-2
-1.381, 2.262e-2
-1.382, 2.268e-2
-1.383, 2.274e-2
-1.384, 2.280e-2
-1.385, 2.286e-2
-1.386, 2.292e-2
-1.387, 2.298e-2
-1.388, 2.303e-2
-1.389, 2.309e-2
-1.390, 2.314e-2
-1.391, 2.320e-2
-1.392, 2.325e-2
-1.393, 2.331e-2
-1.394, 2.336e-2
-1.395, 2.342e-2
-1.396, 2.348e-2
-1.397, 2.354e-2
-1.398, 2.360e-2
-1.399, 2.365e-2
-1.400, 2.361e-2
-1.399, 2.339e-2
-1.398, 2.317e-2
-1.397, 2.296e-2
-1.396, 2.275e-2
-1.395, 2.255e-2
-1.394, 2.234e-2
-1.393, 2.214e-2
-1.392, 2.194e-2
-1.391, 2.175e-2
-1.390, 2.156e-2
-1.389, 2.138e-2
-1.388, 2.119e-2
-1.387, 2.100e-2
-1.386, 2.081e-2
-1.385, 2.062e-2
-1.384, 2.043e-2
-1.383, 2.022e-2
-1.382, 2.003e-2
-1.381, 1.985e-2
-1.380, 1.967e-2
-1.379, 1.949e-2
-1.378, 1.931e-2
-1.377, 1.914e-2
-1.376, 1.896e-2
-1.375, 1.879e-2
-1.374, 1.861e-2
-1.373, 1.843e-2
-1.372, 1.825e-2
-1.371, 1.807e-2
-1.370, 1.789e-2
-1.369, 1.772e-2
-1.368, 1.755e-2
-1.367, 1.738e-2
-1.366, 1.721e-2
-1.365, 1.704e-2
-1.364, 1.688e-2
-1.363, 1.671e-2
-1.362, 1.654e-2
-1.361, 1.637e-2
-1.360, 1.621e-2
-1.359, 1.604e-2
-1.358, 1.588e-2
-1.357, 1.572e-2
-1.356, 1.556e-2
-1.355, 1.539e-2
-1.354, 1.523e-2
-1.353, 1.507e-2
-1.352, 1.491e-2
-1.351, 1.477e-2
-1.350, 1.462e-2
-1.349, 1.448e-2
-1.348, 1.432e-2
-1.347, 1.417e-2
-1.346, 1.401e-2
-1.345, 1.386e-2
-1.344, 1.370e-2
-1.343, 1.354e-2
-1.342, 1.338e-2
-1.341, 1.322e-2
-1.340, 1.306e-2
-1.339, 1.292e-2
-1.338, 1.277e-2
-1.337, 1.262e-2
-1.336, 1.248e-2
-1.335, 1.234e-2
-1.334, 1.219e-2
-1.333, 1.205e-2
-1.332, 1.189e-2
-1.331, 1.174e-2
-1.330, 1.160e-2
-1.329, 1.145e-2
-1.328, 1.130e-2
-1.327, 1.116e-2
-1.326, 1.101e-2
-1.325, 1.087e-2
-1.324, 1.074e-2
-1.323, 1.060e-2
-1.322, 1.046e-2
-1.321, 1.033e-2
-1.320, 1.019e-2
-1.319, 1.004e-2
-1.318, 9.900e-3
-1.317, 9.758e-3
-1.316, 9.613e-3
-1.315, 9.471e-3
-1.314, 9.333e-3
-1.313, 9.200e-3
-1.312, 9.071e-3
-1.311, 8.938e-3
-1.310, 8.809e-3
-1.309, 8.679e-3
-1.308, 8.547e-3
-1.307, 8.411e-3
-1.306, 8.278e-3
-1.305, 8.143e-3
-1.304, 8.010e-3
-1.303, 7.874e-3
-1.302, 7.742e-3
-1.301, 7.606e-3
-1.300, 7.480e-3
-1.299, 7.353e-3
-1.298, 7.230e-3
-1.297, 7.110e-3
-1.296, 6.990e-3
-1.295, 6.869e-3
-1.294, 6.749e-3
-1.293, 6.623e-3
-1.292, 6.496e-3
-1.291, 6.367e-3
-1.290, 6.231e-3
-1.289, 6.105e-3
-1.288, 5.981e-3
-1.287, 5.861e-3
-1.286, 5.744e-3
-1.285, 5.624e-3
-1.284, 5.510e-3
-1.283, 5.399e-3
-1.282, 5.282e-3
-1.281, 5.164e-3
-1.280, 5.044e-3
-1.279, 4.921e-3
-1.278, 4.801e-3
-1.277, 4.680e-3
-1.276, 4.557e-3
-1.275, 4.440e-3
-1.274, 4.323e-3
-1.273, 4.209e-3
-1.272, 4.098e-3
-1.271, 3.990e-3
-1.270, 3.882e-3
-1.269, 3.774e-3
-1.268, 3.663e-3
-1.267, 3.552e-3
-1.266, 3.438e-3
-1.265, 3.324e-3
-1.264, 3.210e-3
-1.263, 3.093e-3
-1.262, 2.978e-3
-1.261, 2.871e-3
-1.260, 2.763e-3
-1.259, 2.658e-3
-1.258, 2.556e-3
-1.257, 2.451e-3
-1.256, 2.349e-3
-1.255, 2.248e-3
-1.254, 2.143e-3
-1.253, 2.038e-3
-1.252, 1.930e-3
-1.251, 1.822e-3
-1.250, 1.711e-3
-1.249, 1.606e-3
-1.248, 1.499e-3
-1.247, 1.397e-3
-1.246, 1.298e-3
-1.245, 1.199e-3
-1.244, 1.104e-3
-1.243, 1.011e-3
-1.242, 9.158e-4
-1.241, 8.203e-4
-1.240, 7.216e-4
-1.239, 6.199e-4
-1.238, 5.181e-4
-1.237, 4.164e-4
-1.236, 3.177e-4
-1.235, 2.160e-4
-1.234, 1.204e-4
-1.233, 2.482e-5
-1.232, -6.767e-5
-1.231, -1.571e-4
-1.230, -2.434e-4
-1.229, -3.390e-4
-1.228, -4.315e-4
-1.227, -5.240e-4
-1.226, -6.165e-4
-1.225, -7.120e-4
-1.224, -8.076e-4
-1.223, -9.063e-4
-1.222, -9.988e-4
-1.221, -1.094e-3
-1.220, -1.181e-3
-1.219, -1.267e-3
-1.218, -1.353e-3
-1.217, -1.437e-3
-1.216, -1.523e-3
-1.215, -1.606e-3
-1.214, -1.692e-3
-1.213, -1.776e-3
-1.212, -1.871e-3
-1.211, -1.958e-3
-1.210, -2.050e-3
-1.209, -2.140e-3
-1.208, -2.229e-3
-1.207, -2.312e-3
-1.206, -2.399e-3
-1.205, -2.479e-3
-1.204, -2.559e-3
-1.203, -2.636e-3
-1.202, -2.719e-3
-1.201, -2.796e-3
-1.200, -2.879e-3
-1.199, -2.966e-3
-1.198, -3.052e-3
-1.197, -3.138e-3
-1.196, -3.222e-3
-1.195, -3.308e-3
-1.194, -3.388e-3
-1.193, -3.468e-3
-1.192, -3.542e-3
-1.191, -3.619e-3
-1.190, -3.693e-3
-1.189, -3.767e-3
-1.188, -3.841e-3
-1.187, -3.922e-3
-1.186, -4.002e-3
-1.185, -4.082e-3
-1.184, -4.162e-3
-1.183, -4.248e-3
-1.182, -4.325e-3
-1.181, -4.406e-3
-1.180, -4.480e-3
-1.179, -4.551e-3
-1.178, -4.625e-3
-1.177, -4.695e-3
-1.176, -4.766e-3
-1.175, -4.834e-3
-1.174, -4.908e-3
-1.173, -4.982e-3
-1.172, -5.059e-3
-1.171, -5.133e-3
-1.170, -5.213e-3
-1.169, -5.290e-3
-1.168, -5.364e-3
-1.167, -5.435e-3
-1.166, -5.506e-3
-1.165, -5.574e-3
-1.164, -5.642e-3
-1.163, -5.704e-3
-1.162, -5.771e-3
-1.161, -5.842e-3
-1.160, -5.913e-3
-1.159, -5.987e-3
-1.158, -6.061e-3
-1.157, -6.135e-3
-1.156, -6.209e-3
-1.155, -6.280e-3
-1.154, -6.351e-3
-1.153, -6.419e-3
-1.152, -6.487e-3
-1.151, -6.551e-3
-1.150, -6.613e-3
-1.149, -6.678e-3
-1.148, -6.743e-3
-1.147, -6.810e-3
-1.146, -6.878e-3
-1.145, -6.949e-3
-1.144, -7.020e-3
-1.143, -7.097e-3
-1.142, -7.165e-3
-1.141, -7.233e-3
-1.140, -7.298e-3
-1.139, -7.362e-3
-1.138, -7.424e-3
-1.137, -7.486e-3
-1.136, -7.547e-3
-1.135, -7.609e-3
-1.134, -7.674e-3
-1.133, -7.738e-3
-1.132, -7.806e-3
-1.131, -7.877e-3
-1.130, -7.945e-3
-1.129, -8.013e-3
-1.128, -8.081e-3
-1.127, -8.142e-3
-1.126, -8.207e-3
-1.125, -8.269e-3
-1.124, -8.327e-3
-1.123, -8.386e-3
-1.122, -8.448e-3
-1.121, -8.506e-3
-1.120, -8.568e-3
-1.119, -8.636e-3
-1.118, -8.700e-3
-1.117, -8.768e-3
-1.116, -8.836e-3
-1.115, -8.901e-3
-1.114, -8.962e-3
-1.113, -9.024e-3
-1.112, -9.083e-3
-1.111, -9.141e-3
-1.110, -9.197e-3
-1.109, -9.252e-3
-1.108, -9.314e-3
-1.107, -9.376e-3
-1.106, -9.437e-3
-1.105, -9.502e-3
-1.104, -9.567e-3
-1.103, -9.635e-3
-1.102, -9.696e-3
-1.101, -9.758e-3
-1.100, -9.816e-3
-1.099, -9.869e-3
-1.098, -9.924e-3
-1.097, -9.980e-3
-1.096, -1.004e-2
-1.095, -1.009e-2
-1.094, -1.015e-2
-1.093, -1.021e-2
-1.092, -1.027e-2
-1.091, -1.033e-2
-1.090, -1.040e-2
-1.089, -1.046e-2
-1.088, -1.052e-2
-1.087, -1.058e-2
-1.086, -1.063e-2
-1.085, -1.069e-2
-1.084, -1.074e-2
-1.083, -1.079e-2
-1.082, -1.085e-2
-1.081, -1.090e-2
-1.080, -1.095e-2
-1.079, -1.102e-2
-1.078, -1.107e-2
-1.077, -1.113e-2
-1.076, -1.119e-2
-1.075, -1.125e-2
-1.074, -1.131e-2
-1.073, -1.135e-2
-1.072, -1.140e-2
-1.071, -1.145e-2
-1.070, -1.149e-2
-1.069, -1.155e-2
-1.068, -1.160e-2
-1.067, -1.166e-2
-1.066, -1.172e-2
-1.065, -1.179e-2
-1.064, -1.185e-2
-1.063, -1.192e-2
-1.062, -1.198e-2
-1.061, -1.205e-2
-1.060, -1.210e-2
-1.059, -1.215e-2
-1.058, -1.219e-2
-1.057, -1.223e-2
-1.056, -1.227e-2
-1.055, -1.232e-2
-1.054, -1.237e-2
-1.053, -1.242e-2
-1.052, -1.248e-2
-1.051, -1.254e-2
-1.050, -1.260e-2
-1.049, -1.266e-2
-1.048, -1.272e-2
-1.047, -1.277e-2
-1.046, -1.281e-2
-1.045, -1.286e-2
-1.044, -1.291e-2
-1.043, -1.295e-2
-1.042, -1.300e-2
-1.041, -1.304e-2
-1.040, -1.310e-2
-1.039, -1.315e-2
-1.038, -1.320e-2
-1.037, -1.326e-2
-1.036, -1.332e-2
-1.035, -1.337e-2
-1.034, -1.342e-2
-1.033, -1.347e-2
-1.032, -1.351e-2
-1.031, -1.356e-2
-1.030, -1.360e-2
-1.029, -1.365e-2
-1.028, -1.369e-2
-1.027, -1.374e-2
-1.026, -1.379e-2
-1.025, -1.384e-2
-1.024, -1.389e-2
-1.023, -1.395e-2
-1.022, -1.400e-2
-1.021, -1.405e-2
-1.020, -1.410e-2
-1.019, -1.415e-2
-1.018, -1.420e-2
-1.017, -1.425e-2
-1.016, -1.430e-2
-1.015, -1.435e-2
-1.014, -1.439e-2
-1.013, -1.444e-2
-1.012, -1.449e-2
-1.011, -1.455e-2
-1.010, -1.460e-2
-1.009, -1.465e-2
-1.008, -1.470e-2
-1.007, -1.474e-2
-1.006, -1.479e-2
-1.005, -1.483e-2
-1.004, -1.487e-2
-1.003, -1.491e-2
-1.002, -1.495e-2
-1.001, -1.499e-2
