Potential V vs RHE, Current mA cm-2
0.013299999999999867,10.25241279012192
0.012299999999999978,8.727354008867412
0.011299999999999866,7.055165252426939
0.010299999999999976,5.581036077967569
0.009299999999999864,4.494537799671222
0.008299999999999974,3.208565228093903
0.007299999999999862,1.8759071836210386
0.006299999999999972,0.942622139100074
0.00529999999999986,-0.009184305758723818
0.0042999999999999705,-1.2358917915620962
0.0032999999999998586,-2.150361175794856
0.0022999999999999687,-2.8916698969241352
0.0012999999999998568,-3.9385562588242617
0.00029999999999996696,-4.863777448935997
-0.000700000000000145,-5.486250420876612
-0.0017000000000000348,-6.342150757294959
-0.0027000000000001467,-7.28293377170521
-0.0037000000000000366,-7.879941940248254
-0.0047000000000001485,-8.52787971558644
-0.005700000000000038,-9.450271483098444
-0.00670000000000015,-10.101038681036362
-0.00770000000000004,-10.59477292468926
-0.008700000000000152,-11.419549612510576
-0.009700000000000042,-12.14246708674161
-0.010700000000000154,-12.590930568798825
-0.011700000000000044,-13.261503724934855
-0.012700000000000156,-14.033936094661165
-0.013700000000000045,-14.472496597619326
-0.014700000000000157,-14.98179266557074
-0.015700000000000047,-15.74573676749786
-0.01670000000000016,-16.269179948447924
-0.01770000000000005,-16.665299112410132
-0.01870000000000016,-17.3302134233467
-0.01970000000000005,-17.952686395287316
-0.020700000000000163,-18.263922881257624
-0.021700000000000053,-18.843954514202288
-0.022700000000000164,-19.523015938137508
-0.023700000000000054,-19.876693763103766
-0.024700000000000166,-20.301107153063278
-0.025700000000000056,-21.008462802995794
-0.026700000000000168,-21.447023305953955
-0.027700000000000058,-21.758259791924264
-0.02870000000000017,-22.39487987686353
-0.02970000000000006,-22.960764396809545
-0.03070000000000017,-23.229559543783903
-0.03170000000000006,-23.738855611735314
-0.03270000000000017,-24.36132858367593
-0.03370000000000006,-24.65841795664759
-0.034700000000000175,-25.026242894612498
-0.035700000000000065,-25.691157205549064
-0.03670000000000018,-26.087276369511276
-0.03770000000000007,-26.34192440348698
-0.03870000000000018,-26.95025026242895
-0.03970000000000007,-27.473693443379013
-0.04070000000000018,-27.714194364356068
-0.04170000000000007,-28.209343319308836
-0.04270000000000018,-28.8459634042481
-0.04370000000000007,-29.128905664221104
-0.044700000000000184,-29.496730602186016
-0.045700000000000074,-30.147497800123933
-0.046700000000000186,-30.54361696408614
-0.047700000000000076,-30.79826499806185
-0.04870000000000019,-31.392443744005163
-0.04970000000000008,-31.94418115095253
-0.05070000000000019,-32.184682071929586
-0.05170000000000008,-32.67983102688235
-0.05270000000000019,-33.274009772825664
-0.05370000000000008,-33.57109914579732
-0.05470000000000019,-33.93892408376223
-0.05570000000000008,-34.5755441687015
-0.056700000000000195,-34.9716633326637
-0.057700000000000085,-35.240458479638065
-0.058700000000000196,-35.82049011258273
-0.059700000000000086,-36.35808040653144
-0.0607000000000002,-36.570287101511205
-0.06170000000000009,-37.07958316946261
-0.0627000000000002,-37.702056141403226
-0.06370000000000009,-37.95670417537893
-0.0647000000000002,-38.31038200034519
-0.06570000000000009,-38.94700208528445
-0.0667000000000002,-39.30067991025072
-0.0677000000000001,-39.58362217022373
-0.0687000000000002,-40.177800916167044
-0.0697000000000001,-40.701244097117105
-0.07070000000000021,-40.95589213109281
-0.0717000000000001,-41.43689397304693
-0.07270000000000021,-42.04521983198889
-0.0737000000000001,-42.3564563179592
-0.07470000000000021,-42.78086970791871
-0.0757000000000001,-43.40334267985933
-0.07670000000000021,-43.72872627882828
-0.0777000000000001,-43.98337431280399
-0.07870000000000021,-44.54925883275
-0.0797000000000001,-45.086849126698716
-0.08070000000000022,-45.35564427367308
-0.0817000000000001,-45.85079322862584
-0.08270000000000022,-46.4874133135651
-0.08370000000000011,-46.79864979953541
-0.08470000000000022,-47.13818051150302
-0.08570000000000011,-47.78894770944093
-0.08670000000000022,-48.1992139864018
-0.08770000000000011,-48.46800913337616
-0.08870000000000022,-49.062187879319474
-0.08970000000000011,-49.61392528626684
-0.09070000000000022,-49.86857332024254
-0.09170000000000011,-50.37786938819396
-0.09270000000000023,-51.014489473133224
-0.09370000000000012,-51.31157884610488
-0.09470000000000023,-51.63696244507384
-0.09570000000000012,-52.31602386900906
-0.09670000000000023,-52.74043725896857
-0.09770000000000012,-52.95264395394832
-0.09870000000000023,-53.546822699891635
-0.09970000000000012,-54.11270721983765
-0.10070000000000023,-54.38150236681201
-0.10170000000000012,-54.84835709576747
-0.10270000000000024,-55.49912429370539
-0.10370000000000013,-55.8103607796757
-0.10470000000000024,-56.164038604641945
-0.10570000000000013,-56.82895291557852
-0.10670000000000024,-57.22507207954074
-0.10770000000000013,-57.493867226515086
-0.10870000000000024,-58.116340198455696
-0.10970000000000013,-58.69637183140037
-0.11070000000000024,-58.965166978374725
-0.11170000000000013,-59.44616882032884
-0.11270000000000002,-60.09693601826676
-0.11370000000000013,-60.39402539123842
-0.11470000000000002,-60.74770321620468
-0.11570000000000014,-61.4267646401399
-0.11670000000000003,-61.80873669110345
-0.11770000000000014,-62.02094338608321
-0.11870000000000003,-62.65756347102247
-0.11970000000000014,-63.16685953897389
-0.12070000000000003,-63.364919120955
-0.12170000000000014,-63.8459209629091
-0.12270000000000003,-64.45424682185109
-0.12370000000000014,-64.76548330782138
-0.12470000000000003,-65.11916113278764
-0.12570000000000014,-65.7274869917296
-0.12670000000000003,-66.08116481669586
-0.12770000000000015,-66.33581285067157
-0.12870000000000004,-66.9582858226122
-0.12970000000000015,-67.51002322955955
-0.13070000000000004,-67.73637703753796
-0.13170000000000015,-68.21737887949207
-0.13270000000000004,-68.83985185143268
-0.13370000000000015,-69.13694122440434
-0.13470000000000004,-69.4906190493706
-0.13570000000000015,-70.12723913430986
-0.13670000000000004,-70.53750541127073
-0.13770000000000016,-70.79215344524643
-0.13870000000000005,-71.28730240019921
-0.13970000000000016,-71.81074558114926
-0.14070000000000005,-72.07954072812362
-0.14170000000000016,-72.57468968307639
-0.14270000000000005,-73.23960399401295
-0.14370000000000016,-73.5649875929819
-0.14470000000000005,-73.94695964394546
-0.14570000000000016,-74.59772684188339
-0.14670000000000005,-74.9938460058456
-0.14770000000000016,-75.2767882658186
-0.14870000000000005,-75.88511412476056
-0.14970000000000017,-76.42270441870929
-0.15070000000000006,-76.64905822668769
-0.15170000000000017,-77.1017658426445
-0.15270000000000006,-77.73838592758376
-0.15370000000000017,-78.04962241355408
-0.15470000000000006,-78.38915312552167
-0.15570000000000017,-79.02577321046095
-0.15670000000000006,-79.4643337134191
-0.15770000000000017,-79.71898174739482
-0.15870000000000006,-80.29901338033947
-0.15970000000000018,-80.8083094482909
-0.16070000000000007,-81.02051614327065
-0.16170000000000018,-81.45907664622881
-0.16270000000000007,-82.05325539217212
-0.16370000000000018,-82.32205053914649
-0.16470000000000007,-82.59084568612084
-0.16570000000000018,-83.22746577106011
-0.16670000000000007,-83.63773204802096
-0.16770000000000018,-83.83579163000208
-0.16870000000000007,-84.38752903694943
-0.16970000000000018,-84.99585489589141
-0.17070000000000007,-85.2222087038698
-0.17170000000000019,-85.66076920682796
-0.17270000000000008,-86.32568351776455
-0.1737000000000002,-86.63692000373486
-0.17470000000000008,-86.97645071570246
-0.1757000000000002,-87.59892368764307
-0.17670000000000008,-88.03748419060125
-0.1777000000000002,-88.27798511157829
-0.17870000000000008,-88.85801674452296
-0.1797000000000002,-89.42390126446898
-0.18070000000000008,-89.67854929844468
-0.1817000000000002,-90.24443381839069
-0.18270000000000008,-90.8669067903313
-0.1837000000000002,-91.19229038930027
-0.1847000000000001,-91.60255666626112
-0.1857000000000002,-92.23917675120039
-0.1867000000000001,-92.5504132371707
-0.1877000000000002,-93.00312085312751
-0.1887000000000001,-93.73877072905732
-0.1897000000000002,-93.99341876303303
-0.1907000000000001,-94.24806679700876
-0.1917000000000001,-94.58759750897636
-0.19269999999999998,-95.06859935093047
-0.1937000000000001,-95.59204253188052
-0.19469999999999998,-96.01645592184003
-0.1957000000000001,-96.49745776379415
-0.19669999999999999,-96.93601826675231
-0.1977000000000001,-97.30384320471723
-0.1987,-97.88387483766188
-0.1997000000000001,-98.3931709056133
-0.2007,-98.59123048759442
-0.2017000000000001,-99.10052655554581
-0.2027,-99.822029318477
-0.2037000000000001,-100.26058982143515
-0.2047,-100.7274445503906
-0.2057000000000001,-101.40650597432582
-0.2067,-101.85921359028264
-0.2077000000000001,-102.17045007625295
-0.2087,-102.79292304819357
-0.2097000000000001,-103.45783735913014
-0.2107,-103.79736807109774
-0.2117000000000001,-104.30666413904916
-0.2127,-104.98572556298437
-0.2137000000000001,-105.24037359696008
-0.2147,-105.608198534925
-0.2157000000000001,-106.2023772808683
-0.2167,-106.55605510583456
-0.21770000000000012,-106.82485025280893
-0.2187,-107.4614703377482
-0.21970000000000012,-107.99906063169689
-0.2207,-108.23956155267396
-0.22170000000000012,-108.66397494263347
-0.2227,-109.27230080157544
-0.22370000000000012,-109.55524306154844
-0.2247,-109.90892088651471
-0.22570000000000012,-110.68701210144046
-0.2267,-111.08313126540267
-0.22770000000000012,-111.38022063837434
-0.22870000000000001,-112.05928206230955
-0.22970000000000013,-112.63931369525422
-0.23070000000000002,-112.97884440722183
-0.23170000000000013,-113.54472892716784
-0.23270000000000002,-114.25208457710036
-0.23370000000000013,-114.66235085406122
-0.23470000000000002,-115.10091135701937
-0.23570000000000013,-115.82241411995055
-0.23670000000000002,-116.31756307490332
-0.2376999999999999,-116.64294667387229
-0.23870000000000002,-117.36444943680344
-0.2396999999999999,-118.0576579737373
-0.24070000000000003,-118.38304157270628
-0.24169999999999991,-118.94892609265229
-0.24270000000000003,-119.7411644205767
-0.24369999999999992,-120.06654801954566
-0.24470000000000003,-120.51925563550247
-0.24569999999999992,-121.26905262443094
-0.24670000000000003,-121.66517178839315
-0.24769999999999992,-121.97640827436345
-0.24870000000000003,-122.66961681129733
-0.24969999999999992,-123.23550133124336
-0.25070000000000003,-123.43356091322445
-0.2516999999999999,-123.91456275517855
-0.25270000000000004,-124.60777129211242
-0.2536999999999999,-124.9331548910814
-0.25470000000000004,-125.28683271604763
-0.2556999999999999,-125.96589413998288
-0.25670000000000004,-126.43274886893832
-0.25769999999999993,-126.72983824191
-0.25870000000000004,-127.32401698785328
-0.25969999999999993,-127.94648995979391
-0.26070000000000004,-128.2435793327656
-0.26169999999999993,-128.73872828771835
-0.26270000000000004,-129.41778971165354
-0.26369999999999993,-129.70073197162657
-0.26470000000000005,-130.05440979659284
-0.26569999999999994,-130.79005967252263
-0.26670000000000005,-131.2569144014781
-0.26769999999999994,-131.53985666145113
-0.26870000000000005,-132.20477097238768
-0.26969999999999994,-132.84139105732694
-0.27070000000000005,-133.15262754329726
-0.27169999999999994,-133.63362938525137
-0.27270000000000005,-134.32683792218523
-0.27369999999999994,-134.63807440815555
-0.27470000000000006,-134.9917522331218
-0.27569999999999995,-135.670813657057
-0.27670000000000006,-136.12352127301384
-0.27769999999999995,-136.43475775898415
-0.27870000000000006,-137.05723073092477
-0.27969999999999995,-137.70799792886265
-0.28070000000000006,-138.019234414833
-0.28169999999999995,-138.45779491779115
-0.28270000000000006,-139.12270922872773
-0.28369999999999995,-139.46223994069533
-0.28470000000000006,-139.78762353966425
-0.28569999999999995,-140.45253785060083
-0.28670000000000007,-140.93353969255494
-0.28769999999999996,-141.2306290655266
-0.28870000000000007,-141.75407224647665
-0.28969999999999996,-142.31995676642268
-0.29070000000000007,-142.6028990263957
-0.29169999999999996,-143.16878354634173
-0.29270000000000007,-143.87613919627424
-0.29369999999999996,-144.01761032626072
-0.2947000000000001,-144.30055258623375
-0.29569999999999996,-145.00790823616626
-0.2967000000000001,-145.29085049613926
-0.29769999999999996,-145.43232162612577
-0.2987000000000001,-146.1396772760583
-0.29969999999999997,-146.7055617960043
-0.3007000000000001,-146.8470329259908
-0.30169999999999997,-147.4129174459368
-0.3027000000000001,-148.12027309586935
-0.30369999999999997,-148.40321535584232
-0.3047000000000001,-148.68615761581535
-0.30569999999999997,-149.39351326574788
-0.3067000000000001,-149.8179266557074
-0.3077,-149.95939778569388
-0.3087000000000001,-150.5252823056399
-0.3097,-151.09116682558593
-0.3107000000000001,-151.37410908555893
-0.3117,-151.7985224755184
-0.3127000000000001,-152.22293586547795
-0.3137,-152.50587812545095
-0.3147000000000001,-153.07176264539694
-0.3157,-153.49617603535648
-0.3167000000000001,-153.77911829532948
-0.3177,-153.920589425316
-0.3187000000000001,-154.486473945262
-0.3197,-154.9108873352215
-0.3207000000000001,-154.9108873352215
-0.3217,-155.19382959519453
-0.3227000000000001,-155.75971411514055
-0.3237,-155.90118524512707
-0.3247000000000001,-156.18412750510007
-0.3257,-156.60854089505958
-0.3267000000000001,-156.89148315503257
-0.3277,-157.03295428501906
-0.3287000000000001,-157.45736767497857
-0.3297,-158.1647233249111
-0.3307000000000001,-158.3061944548976
-0.3317,-158.5891367148706
-0.3327000000000001,-159.15502123481662
-0.3337,-159.29649236480313
-0.3347000000000001,-159.43796349478964
-0.3357,-159.57943462477613
-0.3367000000000001,-159.72090575476264
-0.3377,-159.72090575476264
-0.3387000000000001,-160.14531914472215
-0.3397,-160.5697325346817
-0.3407000000000001,-160.71120366466818
-0.3417,-161.1356170546277
-0.3427000000000001,-161.70150157457368
-0.3437,-161.84297270456022
-0.3447000000000001,-161.9844438345467
-0.3457,-162.12591496453322
-0.3467000000000001,-162.40885722450622
-0.3477,-162.40885722450622
-0.3487000000000001,-162.6917994844792
-0.3497,-163.11621287443873
-0.3507000000000001,-163.11621287443873
-0.3517,-163.25768400442522
-0.3527000000000001,-163.68209739438475
-0.3537,-163.68209739438475
-0.3547000000000001,-163.68209739438475
-0.3557,-163.96503965435775
-0.35670000000000013,-164.24798191433075
-0.3577,-164.38945304431726
-0.35870000000000013,-165.09680869424977
-0.3597,-165.6626932141958
-0.36070000000000013,-165.6626932141958
-0.3617,-165.6626932141958
-0.3626999999999999,-165.8041643441823
-0.3637,-165.94563547416882
-0.3646999999999999,-165.94563547416882
-0.3657,-166.3700488641283
-0.3666999999999999,-166.51151999411482
-0.3677,-166.51151999411482
-0.3686999999999999,-166.93593338407433
-0.36970000000000003,-167.21887564404733
-0.3706999999999999,-167.21887564404733
-0.37170000000000003,-167.36034677403384
-0.3726999999999999,-167.6432890340068
-0.37370000000000003,-167.50181790402033
-0.3746999999999999,-167.6432890340068
-0.37570000000000003,-167.78476016399335
-0.3766999999999999,-167.92623129397984
-0.37770000000000004,-167.92623129397984
-0.3786999999999999,-168.06770242396635
-0.37970000000000004,-168.35064468393938
-0.3806999999999999,-168.35064468393938
-0.38170000000000004,-168.49211581392586
-0.38269999999999993,-168.91652920388537
-0.38370000000000004,-168.91652920388537
-0.38469999999999993,-169.0580003338719
-0.38570000000000004,-169.48241372383137
-0.38669999999999993,-167.92623129397984
-0.38570000000000004,-164.38945304431726
-0.38469999999999993,-161.41855931460069
-0.38370000000000004,-158.4476655848841
-0.38269999999999993,-155.19382959519453
-0.38170000000000004,-152.36440699546444
-0.3806999999999999,-149.8179266557074
-0.37970000000000004,-146.9885040559773
-0.3786999999999999,-144.30055258623375
-0.37770000000000004,-141.89554337646317
-0.3766999999999999,-139.29247458471153
-0.37570000000000003,-136.5903760019693
-0.3746999999999999,-134.22780813119468
-0.37370000000000003,-131.92182871241468
-0.3726999999999999,-129.38949548565625
-0.37170000000000003,-126.99863338888434
-0.3706999999999999,-124.86241932608814
-0.36970000000000003,-122.35838032532703
-0.3686999999999999,-119.88263555056322
-0.3677,-117.84545127875757
-0.3666999999999999,-115.62435453796945
-0.3657,-113.24763955419618
-0.3646999999999999,-111.3094850733811
-0.3637,-109.34303636656868
-0.3626999999999999,-107.09364539978327
-0.3617,-105.15549091896818
-0.36070000000000013,-103.37295468113824
-0.3597,-101.25088773134068
-0.35870000000000013,-99.19955634653638
-0.3577,-97.55849123869294
-0.35670000000000013,-95.67692520987244
-0.3557,-93.71047650306002
-0.3547000000000001,-92.15429407320849
-0.3537,-90.42834628737315
-0.3527000000000001,-88.3345735635729
-0.3517,-86.58033155174023
-0.3507000000000001,-85.08073757388331
-0.3497,-83.29820133605335
-0.3487000000000001,-81.54395932422072
-0.3477,-80.04436534636378
-0.3467000000000001,-78.47403580351359
-0.3457,-76.69149956568363
-0.3447000000000001,-75.26264115281995
-0.3437,-73.86207696595356
-0.3427000000000001,-72.17857051911416
-0.3417,-70.77800633224777
-0.3407000000000001,-69.87259110033416
-0.3397,-67.96273084551636
-0.3387000000000001,-66.36410707666887
-0.3377,-65.04842556779438
-0.3367000000000001,-63.59127292893339
-0.3357,-62.03509049908186
-0.3347000000000001,-60.74770321620468
-0.3337,-59.502757272323436
-0.3327000000000001,-58.00316329446651
-0.3317,-56.64504044659606
-0.3307000000000001,-55.51327140670405
-0.3297,-54.09856010683901
-0.3287000000000001,-52.65555458097666
-0.3277,-51.566226880080585
-0.3267000000000001,-50.2788395972034
-0.3257,-48.79339273234511
-0.3247000000000001,-47.66162369245309
-0.3237,-46.558148878558356
-0.3227000000000001,-45.157584691691966
-0.3217,-43.96922719980534
-0.3207000000000001,-42.99307640289846
-0.3197,-41.719836233019926
-0.3187000000000001,-40.4465960631414
-0.3177,-39.52703371822913
-0.3167000000000001,-38.42355890433439
-0.3157,-37.093730282461266
-0.3147000000000001,-36.18831505054764
-0.3137,-35.268752705635364
-0.3127000000000001,-33.98136542275818
-0.3117,-32.90618483486075
-0.3107000000000001,-32.07150516794038
-0.3097,-30.897294789052403
-0.3087000000000001,-29.72308441016442
-0.3077,-28.88840474324405
-0.3067000000000001,-27.912253946337174
-0.30569999999999997,-26.709749341451893
-0.3047000000000001,-25.832628335535567
-0.30369999999999997,-25.054537120609798
-0.3027000000000001,-23.908620967719123
-0.30169999999999997,-22.91832305781359
-0.3007000000000001,-22.196820294882425
-0.29969999999999997,-21.1782281589796
-0.2987000000000001,-20.13134179707947
-0.29769999999999996,-19.409839034148305
-0.2967000000000001,-18.518570915233333
-0.29569999999999996,-17.4433903273359
-0.2947000000000001,-16.693593338407435
-0.29369999999999996,-15.957943462477614
-0.29270000000000007,-14.896909987578834
-0.29169999999999996,-14.01837427036265
-0.29070000000000007,-13.401560143621493
-0.28969999999999996,-12.425409346714618
-0.28870000000000007,-11.460576240206661
-0.28769999999999996,-10.845176824765371
-0.28670000000000007,-10.02747369344338
-0.28569999999999995,-9.020199247939473
-0.28470000000000006,-8.348211380503582
-0.28369999999999995,-7.703103027765124
-0.28270000000000006,-6.719878674358924
-0.28169999999999995,-5.938958036833425
-0.28070000000000006,-5.385805918586194
-0.27969999999999995,-4.5044407787702765
-0.27870000000000006,-3.6358080406531443
-0.27769999999999995,-3.113779571002946
-0.27670000000000006,-2.3753002724733965
-0.27569999999999995,-1.409193925795563
-0.27470000000000006,-0.8201081405317618
-0.27369999999999994,-0.22904175944814942
-0.27270000000000005,0.6837299712247723
-0.27169999999999994,1.4073548011057386
-0.27070000000000005,1.895713141819149
-0.26969999999999994,2.709172139241545
-0.26870000000000005,3.515557580164616
-0.26769999999999994,4.0050476899179195
-0.26670000000000005,4.688353247752731
