Dec. 18, 2024   13:51:57
Cyclic Voltammetry
File: c:/users/guazh/data/banditlqround7_x0exp667_r5/2024-12-16-exp691\exp691-2024-12-18t13_44_41-arkoh\exp691_cv_sr_400mvs_efin_-1400mv.bin
Data Source:  Experiment
Instrument Model:  CHI760E
Header: CV ran at 400 mVs
Note: 

Init E (V) = -1
High E (V) = -1
Low E (V) = -1.4
Final E (V) = -1
Init P/N = N
Scan Rate (V/s) = 0.4
Segment = 3
Sample Interval (V) = 0.001
Quiet Time (sec) = 2
Sensitivity (A/V) = 0.01
Comp R (ohm) = 1.1

Results:

Channel 1:
Segment 1:

Segment 2:

Segment 3:

Potential/V, Current/A

-1.000, -7.675e-4
-1.001, -6.442e-4
-1.002, -5.209e-4
-1.003, -3.976e-4
-1.004, -2.835e-4
-1.005, -1.848e-4
-1.006, -9.542e-5
-1.007, -6.010e-6
-1.008, 8.340e-5
-1.009, 1.790e-4
-1.010, 2.776e-4
-1.011, 3.640e-4
-1.012, 4.410e-4
-1.013, 5.120e-4
-1.014, 5.829e-4
-1.015, 6.599e-4
-1.016, 7.432e-4
-1.017, 8.233e-4
-1.018, 8.943e-4
-1.019, 9.559e-4
-1.020, 1.014e-3
-1.021, 1.076e-3
-1.022, 1.147e-3
-1.023, 1.221e-3
-1.024, 1.289e-3
-1.025, 1.347e-3
-1.026, 1.400e-3
-1.027, 1.452e-3
-1.028, 1.511e-3
-1.029, 1.573e-3
-1.030, 1.640e-3
-1.031, 1.699e-3
-1.032, 1.748e-3
-1.033, 1.795e-3
-1.034, 1.841e-3
-1.035, 1.896e-3
-1.036, 1.958e-3
-1.037, 2.017e-3
-1.038, 2.069e-3
-1.039, 2.112e-3
-1.040, 2.152e-3
-1.041, 2.198e-3
-1.042, 2.251e-3
-1.043, 2.309e-3
-1.044, 2.368e-3
-1.045, 2.414e-3
-1.046, 2.454e-3
-1.047, 2.494e-3
-1.048, 2.541e-3
-1.049, 2.593e-3
-1.050, 2.649e-3
-1.051, 2.698e-3
-1.052, 2.738e-3
-1.053, 2.775e-3
-1.054, 2.812e-3
-1.055, 2.858e-3
-1.056, 2.911e-3
-1.057, 2.966e-3
-1.058, 3.009e-3
-1.059, 3.046e-3
-1.060, 3.083e-3
-1.061, 3.123e-3
-1.062, 3.173e-3
-1.063, 3.228e-3
-1.064, 3.278e-3
-1.065, 3.318e-3
-1.066, 3.355e-3
-1.067, 3.388e-3
-1.068, 3.435e-3
-1.069, 3.487e-3
-1.070, 3.540e-3
-1.071, 3.586e-3
-1.072, 3.620e-3
-1.073, 3.651e-3
-1.074, 3.681e-3
-1.075, 3.728e-3
-1.076, 3.780e-3
-1.077, 3.832e-3
-1.078, 3.882e-3
-1.079, 3.919e-3
-1.080, 3.953e-3
-1.081, 3.993e-3
-1.082, 4.042e-3
-1.083, 4.091e-3
-1.084, 4.138e-3
-1.085, 4.175e-3
-1.086, 4.212e-3
-1.087, 4.246e-3
-1.088, 4.292e-3
-1.089, 4.344e-3
-1.090, 4.394e-3
-1.091, 4.443e-3
-1.092, 4.480e-3
-1.093, 4.514e-3
-1.094, 4.551e-3
-1.095, 4.597e-3
-1.096, 4.653e-3
-1.097, 4.708e-3
-1.098, 4.754e-3
-1.099, 4.794e-3
-1.100, 4.825e-3
-1.101, 4.865e-3
-1.102, 4.915e-3
-1.103, 4.970e-3
-1.104, 5.023e-3
-1.105, 5.066e-3
-1.106, 5.100e-3
-1.107, 5.137e-3
-1.108, 5.183e-3
-1.109, 5.235e-3
-1.110, 5.294e-3
-1.111, 5.343e-3
-1.112, 5.380e-3
-1.113, 5.420e-3
-1.114, 5.457e-3
-1.115, 5.504e-3
-1.116, 5.559e-3
-1.117, 5.611e-3
-1.118, 5.664e-3
-1.119, 5.704e-3
-1.120, 5.741e-3
-1.121, 5.781e-3
-1.122, 5.830e-3
-1.123, 5.883e-3
-1.124, 5.935e-3
-1.125, 5.981e-3
-1.126, 6.018e-3
-1.127, 6.055e-3
-1.128, 6.102e-3
-1.129, 6.154e-3
-1.130, 6.213e-3
-1.131, 6.262e-3
-1.132, 6.302e-3
-1.133, 6.339e-3
-1.134, 6.382e-3
-1.135, 6.428e-3
-1.136, 6.484e-3
-1.137, 6.539e-3
-1.138, 6.586e-3
-1.139, 6.623e-3
-1.140, 6.660e-3
-1.141, 6.703e-3
-1.142, 6.755e-3
-1.143, 6.811e-3
-1.144, 6.860e-3
-1.145, 6.903e-3
-1.146, 6.940e-3
-1.147, 6.977e-3
-1.148, 7.023e-3
-1.149, 7.076e-3
-1.150, 7.134e-3
-1.151, 7.187e-3
-1.152, 7.227e-3
-1.153, 7.264e-3
-1.154, 7.301e-3
-1.155, 7.347e-3
-1.156, 7.397e-3
-1.157, 7.449e-3
-1.158, 7.495e-3
-1.159, 7.535e-3
-1.160, 7.569e-3
-1.161, 7.612e-3
-1.162, 7.668e-3
-1.163, 7.726e-3
-1.164, 7.782e-3
-1.165, 7.825e-3
-1.166, 7.862e-3
-1.167, 7.899e-3
-1.168, 7.942e-3
-1.169, 7.995e-3
-1.170, 8.053e-3
-1.171, 8.103e-3
-1.172, 8.143e-3
-1.173, 8.180e-3
-1.174, 8.223e-3
-1.175, 8.278e-3
-1.176, 8.334e-3
-1.177, 8.389e-3
-1.178, 8.436e-3
-1.179, 8.476e-3
-1.180, 8.513e-3
-1.181, 8.556e-3
-1.182, 8.602e-3
-1.183, 8.654e-3
-1.184, 8.707e-3
-1.185, 8.756e-3
-1.186, 8.793e-3
-1.187, 8.833e-3
-1.188, 8.880e-3
-1.189, 8.929e-3
-1.190, 8.991e-3
-1.191, 9.046e-3
-1.192, 9.089e-3
-1.193, 9.123e-3
-1.194, 9.157e-3
-1.195, 9.203e-3
-1.196, 9.265e-3
-1.197, 9.317e-3
-1.198, 9.364e-3
-1.199, 9.404e-3
-1.200, 9.434e-3
-1.201, 9.478e-3
-1.202, 9.530e-3
-1.203, 9.582e-3
-1.204, 9.638e-3
-1.205, 9.681e-3
-1.206, 9.718e-3
-1.207, 9.752e-3
-1.208, 9.789e-3
-1.209, 9.838e-3
-1.210, 9.888e-3
-1.211, 9.934e-3
-1.212, 9.971e-3
-1.213, 1.000e-2
-1.214, 1.005e-2
-1.215, 1.010e-2
-1.216, 1.015e-2
-1.217, 1.021e-2
-1.218, 1.027e-2
-1.219, 1.031e-2
-1.220, 1.034e-2
-1.221, 1.039e-2
-1.222, 1.044e-2
-1.223, 1.050e-2
-1.224, 1.056e-2
-1.225, 1.060e-2
-1.226, 1.063e-2
-1.227, 1.067e-2
-1.228, 1.072e-2
-1.229, 1.078e-2
-1.230, 1.083e-2
-1.231, 1.087e-2
-1.232, 1.091e-2
-1.233, 1.093e-2
-1.234, 1.097e-2
-1.235, 1.102e-2
-1.236, 1.108e-2
-1.237, 1.114e-2
-1.238, 1.119e-2
-1.239, 1.122e-2
-1.240, 1.125e-2
-1.241, 1.129e-2
-1.242, 1.135e-2
-1.243, 1.140e-2
-1.244, 1.145e-2
-1.245, 1.149e-2
-1.246, 1.153e-2
-1.247, 1.157e-2
-1.248, 1.161e-2
-1.249, 1.166e-2
-1.250, 1.171e-2
-1.251, 1.176e-2
-1.252, 1.180e-2
-1.253, 1.184e-2
-1.254, 1.189e-2
-1.255, 1.193e-2
-1.256, 1.199e-2
-1.257, 1.204e-2
-1.258, 1.208e-2
-1.259, 1.212e-2
-1.260, 1.215e-2
-1.261, 1.219e-2
-1.262, 1.224e-2
-1.263, 1.228e-2
-1.264, 1.232e-2
-1.265, 1.237e-2
-1.266, 1.241e-2
-1.267, 1.245e-2
-1.268, 1.249e-2
-1.269, 1.254e-2
-1.270, 1.259e-2
-1.271, 1.264e-2
-1.272, 1.268e-2
-1.273, 1.271e-2
-1.274, 1.275e-2
-1.275, 1.280e-2
-1.276, 1.286e-2
-1.277, 1.291e-2
-1.278, 1.296e-2
-1.279, 1.300e-2
-1.280, 1.303e-2
-1.281, 1.307e-2
-1.282, 1.312e-2
-1.283, 1.317e-2
-1.284, 1.323e-2
-1.285, 1.327e-2
-1.286, 1.331e-2
-1.287, 1.334e-2
-1.288, 1.339e-2
-1.289, 1.345e-2
-1.290, 1.350e-2
-1.291, 1.356e-2
-1.292, 1.360e-2
-1.293, 1.363e-2
-1.294, 1.366e-2
-1.295, 1.371e-2
-1.296, 1.377e-2
-1.297, 1.382e-2
-1.298, 1.386e-2
-1.299, 1.390e-2
-1.300, 1.393e-2
-1.301, 1.397e-2
-1.302, 1.402e-2
-1.303, 1.407e-2
-1.304, 1.413e-2
-1.305, 1.417e-2
-1.306, 1.420e-2
-1.307, 1.424e-2
-1.308, 1.429e-2
-1.309, 1.434e-2
-1.310, 1.440e-2
-1.311, 1.444e-2
-1.312, 1.447e-2
-1.313, 1.451e-2
-1.314, 1.456e-2
-1.315, 1.461e-2
-1.316, 1.466e-2
-1.317, 1.472e-2
-1.318, 1.477e-2
-1.319, 1.481e-2
-1.320, 1.484e-2
-1.321, 1.489e-2
-1.322, 1.493e-2
-1.323, 1.499e-2
-1.324, 1.504e-2
-1.325, 1.508e-2
-1.326, 1.511e-2
-1.327, 1.515e-2
-1.328, 1.519e-2
-1.329, 1.524e-2
-1.330, 1.530e-2
-1.331, 1.535e-2
-1.332, 1.539e-2
-1.333, 1.543e-2
-1.334, 1.547e-2
-1.335, 1.551e-2
-1.336, 1.555e-2
-1.337, 1.560e-2
-1.338, 1.564e-2
-1.339, 1.567e-2
-1.340, 1.570e-2
-1.341, 1.573e-2
-1.342, 1.577e-2
-1.343, 1.582e-2
-1.344, 1.588e-2
-1.345, 1.592e-2
-1.346, 1.596e-2
-1.347, 1.599e-2
-1.348, 1.603e-2
-1.349, 1.608e-2
-1.350, 1.613e-2
-1.351, 1.618e-2
-1.352, 1.621e-2
-1.353, 1.625e-2
-1.354, 1.628e-2
-1.355, 1.633e-2
-1.356, 1.637e-2
-1.357, 1.643e-2
-1.358, 1.647e-2
-1.359, 1.651e-2
-1.360, 1.654e-2
-1.361, 1.660e-2
-1.362, 1.663e-2
-1.363, 1.666e-2
-1.364, 1.670e-2
-1.365, 1.675e-2
-1.366, 1.680e-2
-1.367, 1.684e-2
-1.368, 1.687e-2
-1.369, 1.690e-2
-1.370, 1.694e-2
-1.371, 1.697e-2
-1.372, 1.700e-2
-1.373, 1.703e-2
-1.374, 1.706e-2
-1.375, 1.709e-2
-1.376, 1.714e-2
-1.377, 1.719e-2
-1.378, 1.723e-2
-1.379, 1.725e-2
-1.380, 1.727e-2
-1.381, 1.730e-2
-1.382, 1.734e-2
-1.383, 1.738e-2
-1.384, 1.743e-2
-1.385, 1.746e-2
-1.386, 1.748e-2
-1.387, 1.751e-2
-1.388, 1.754e-2
-1.389, 1.759e-2
-1.390, 1.764e-2
-1.391, 1.768e-2
-1.392, 1.770e-2
-1.393, 1.772e-2
-1.394, 1.776e-2
-1.395, 1.779e-2
-1.396, 1.783e-2
-1.397, 1.787e-2
-1.398, 1.790e-2
-1.399, 1.793e-2
-1.400, 1.785e-2
-1.399, 1.761e-2
-1.398, 1.739e-2
-1.397, 1.717e-2
-1.396, 1.696e-2
-1.395, 1.674e-2
-1.394, 1.652e-2
-1.393, 1.630e-2
-1.392, 1.609e-2
-1.391, 1.590e-2
-1.390, 1.571e-2
-1.389, 1.552e-2
-1.388, 1.532e-2
-1.387, 1.510e-2
-1.386, 1.490e-2
-1.385, 1.471e-2
-1.384, 1.453e-2
-1.383, 1.435e-2
-1.382, 1.416e-2
-1.381, 1.395e-2
-1.380, 1.375e-2
-1.379, 1.357e-2
-1.378, 1.339e-2
-1.377, 1.322e-2
-1.376, 1.306e-2
-1.375, 1.288e-2
-1.374, 1.270e-2
-1.373, 1.251e-2
-1.372, 1.233e-2
-1.371, 1.216e-2
-1.370, 1.200e-2
-1.369, 1.183e-2
-1.368, 1.165e-2
-1.367, 1.148e-2
-1.366, 1.130e-2
-1.365, 1.114e-2
-1.364, 1.098e-2
-1.363, 1.084e-2
-1.362, 1.069e-2
-1.361, 1.053e-2
-1.360, 1.036e-2
-1.359, 1.019e-2
-1.358, 1.004e-2
-1.357, 9.897e-3
-1.356, 9.749e-3
-1.355, 9.595e-3
-1.354, 9.434e-3
-1.353, 9.274e-3
-1.352, 9.126e-3
-1.351, 8.987e-3
-1.350, 8.852e-3
-1.349, 8.713e-3
-1.348, 8.565e-3
-1.347, 8.411e-3
-1.346, 8.260e-3
-1.345, 8.115e-3
-1.344, 7.982e-3
-1.343, 7.853e-3
-1.342, 7.720e-3
-1.341, 7.578e-3
-1.340, 7.434e-3
-1.339, 7.298e-3
-1.338, 7.171e-3
-1.337, 7.048e-3
-1.336, 6.928e-3
-1.335, 6.792e-3
-1.334, 6.657e-3
-1.333, 6.521e-3
-1.332, 6.395e-3
-1.331, 6.271e-3
-1.330, 6.154e-3
-1.329, 6.031e-3
-1.328, 5.901e-3
-1.327, 5.769e-3
-1.326, 5.642e-3
-1.325, 5.519e-3
-1.324, 5.405e-3
-1.323, 5.291e-3
-1.322, 5.177e-3
-1.321, 5.053e-3
-1.320, 4.927e-3
-1.319, 4.807e-3
-1.318, 4.693e-3
-1.317, 4.585e-3
-1.316, 4.477e-3
-1.315, 4.366e-3
-1.314, 4.246e-3
-1.313, 4.128e-3
-1.312, 4.014e-3
-1.311, 3.906e-3
-1.310, 3.808e-3
-1.309, 3.706e-3
-1.308, 3.595e-3
-1.307, 3.481e-3
-1.306, 3.370e-3
-1.305, 3.265e-3
-1.304, 3.167e-3
-1.303, 3.074e-3
-1.302, 2.978e-3
-1.301, 2.874e-3
-1.300, 2.766e-3
-1.299, 2.658e-3
-1.298, 2.562e-3
-1.297, 2.473e-3
-1.296, 2.386e-3
-1.295, 2.288e-3
-1.294, 2.186e-3
-1.293, 2.084e-3
-1.292, 1.986e-3
-1.291, 1.896e-3
-1.290, 1.816e-3
-1.289, 1.733e-3
-1.288, 1.637e-3
-1.287, 1.536e-3
-1.286, 1.437e-3
-1.285, 1.351e-3
-1.284, 1.270e-3
-1.283, 1.190e-3
-1.282, 1.107e-3
-1.281, 1.018e-3
-1.280, 9.189e-4
-1.279, 8.295e-4
-1.278, 7.494e-4
-1.277, 6.754e-4
-1.276, 5.983e-4
-1.275, 5.150e-4
-1.274, 4.256e-4
-1.273, 3.362e-4
-1.272, 2.561e-4
-1.271, 1.821e-4
-1.270, 1.142e-4
-1.269, 4.024e-5
-1.268, -4.301e-5
-1.267, -1.293e-4
-1.266, -2.126e-4
-1.265, -2.866e-4
-1.264, -3.513e-4
-1.263, -4.191e-4
-1.262, -4.901e-4
-1.261, -5.671e-4
-1.260, -6.535e-4
-1.259, -7.305e-4
-1.258, -7.984e-4
-1.257, -8.631e-4
-1.256, -9.248e-4
-1.255, -9.988e-4
-1.254, -1.079e-3
-1.253, -1.156e-3
-1.252, -1.227e-3
-1.251, -1.289e-3
-1.250, -1.347e-3
-1.249, -1.409e-3
-1.248, -1.483e-3
-1.247, -1.557e-3
-1.246, -1.631e-3
-1.245, -1.696e-3
-1.244, -1.754e-3
-1.243, -1.810e-3
-1.242, -1.871e-3
-1.241, -1.939e-3
-1.240, -2.013e-3
-1.239, -2.081e-3
-1.238, -2.143e-3
-1.237, -2.198e-3
-1.236, -2.254e-3
-1.235, -2.315e-3
-1.234, -2.386e-3
-1.233, -2.457e-3
-1.232, -2.522e-3
-1.231, -2.577e-3
-1.230, -2.627e-3
-1.229, -2.685e-3
-1.228, -2.750e-3
-1.227, -2.815e-3
-1.226, -2.879e-3
-1.225, -2.938e-3
-1.224, -2.987e-3
-1.223, -3.040e-3
-1.222, -3.095e-3
-1.221, -3.160e-3
-1.220, -3.228e-3
-1.219, -3.286e-3
-1.218, -3.339e-3
-1.217, -3.385e-3
-1.216, -3.434e-3
-1.215, -3.490e-3
-1.214, -3.552e-3
-1.213, -3.613e-3
-1.212, -3.675e-3
-1.211, -3.721e-3
-1.210, -3.764e-3
-1.209, -3.817e-3
-1.208, -3.875e-3
-1.207, -3.943e-3
-1.206, -4.005e-3
-1.205, -4.054e-3
-1.204, -4.100e-3
-1.203, -4.144e-3
-1.202, -4.193e-3
-1.201, -4.251e-3
-1.200, -4.313e-3
-1.199, -4.369e-3
-1.198, -4.418e-3
-1.197, -4.464e-3
-1.196, -4.510e-3
-1.195, -4.563e-3
-1.194, -4.625e-3
-1.193, -4.686e-3
-1.192, -4.742e-3
-1.191, -4.785e-3
-1.190, -4.825e-3
-1.189, -4.871e-3
-1.188, -4.930e-3
-1.187, -4.991e-3
-1.186, -5.050e-3
-1.185, -5.099e-3
-1.184, -5.139e-3
-1.183, -5.183e-3
-1.182, -5.229e-3
-1.181, -5.284e-3
-1.180, -5.346e-3
-1.179, -5.405e-3
-1.178, -5.451e-3
-1.177, -5.494e-3
-1.176, -5.537e-3
-1.175, -5.590e-3
-1.174, -5.648e-3
-1.173, -5.704e-3
-1.172, -5.756e-3
-1.171, -5.799e-3
-1.170, -5.839e-3
-1.169, -5.886e-3
-1.168, -5.938e-3
-1.167, -5.996e-3
-1.166, -6.055e-3
-1.165, -6.098e-3
-1.164, -6.141e-3
-1.163, -6.181e-3
-1.162, -6.228e-3
-1.161, -6.283e-3
-1.160, -6.342e-3
-1.159, -6.397e-3
-1.158, -6.440e-3
-1.157, -6.481e-3
-1.156, -6.521e-3
-1.155, -6.573e-3
-1.154, -6.629e-3
-1.153, -6.681e-3
-1.152, -6.727e-3
-1.151, -6.777e-3
-1.150, -6.817e-3
-1.149, -6.863e-3
-1.148, -6.915e-3
-1.147, -6.971e-3
-1.146, -7.032e-3
-1.145, -7.076e-3
-1.144, -7.119e-3
-1.143, -7.162e-3
-1.142, -7.205e-3
-1.141, -7.257e-3
-1.140, -7.316e-3
-1.139, -7.365e-3
-1.138, -7.418e-3
-1.137, -7.458e-3
-1.136, -7.495e-3
-1.135, -7.541e-3
-1.134, -7.587e-3
-1.133, -7.640e-3
-1.132, -7.686e-3
-1.131, -7.726e-3
-1.130, -7.769e-3
-1.129, -7.809e-3
-1.128, -7.853e-3
-1.127, -7.902e-3
-1.126, -7.954e-3
-1.125, -8.004e-3
-1.124, -8.047e-3
-1.123, -8.084e-3
-1.122, -8.124e-3
-1.121, -8.176e-3
-1.120, -8.232e-3
-1.119, -8.287e-3
-1.118, -8.327e-3
-1.117, -8.361e-3
-1.116, -8.398e-3
-1.115, -8.441e-3
-1.114, -8.497e-3
-1.113, -8.555e-3
-1.112, -8.602e-3
-1.111, -8.645e-3
-1.110, -8.679e-3
-1.109, -8.716e-3
-1.108, -8.765e-3
-1.107, -8.821e-3
-1.106, -8.873e-3
-1.105, -8.919e-3
-1.104, -8.956e-3
-1.103, -8.990e-3
-1.102, -9.036e-3
-1.101, -9.086e-3
-1.100, -9.138e-3
-1.099, -9.184e-3
-1.098, -9.221e-3
-1.097, -9.255e-3
-1.096, -9.286e-3
-1.095, -9.329e-3
-1.094, -9.379e-3
-1.093, -9.428e-3
-1.092, -9.474e-3
-1.091, -9.505e-3
-1.090, -9.533e-3
-1.089, -9.573e-3
-1.088, -9.619e-3
-1.087, -9.672e-3
-1.086, -9.718e-3
-1.085, -9.755e-3
-1.084, -9.789e-3
-1.083, -9.820e-3
-1.082, -9.857e-3
-1.081, -9.903e-3
-1.080, -9.949e-3
-1.079, -9.995e-3
-1.078, -1.003e-2
-1.077, -1.006e-2
-1.076, -1.009e-2
-1.075, -1.013e-2
-1.074, -1.018e-2
-1.073, -1.023e-2
-1.072, -1.027e-2
-1.071, -1.031e-2
-1.070, -1.034e-2
-1.069, -1.037e-2
-1.068, -1.042e-2
-1.067, -1.047e-2
-1.066, -1.052e-2
-1.065, -1.055e-2
-1.064, -1.059e-2
-1.063, -1.062e-2
-1.062, -1.066e-2
-1.061, -1.070e-2
-1.060, -1.075e-2
-1.059, -1.079e-2
-1.058, -1.083e-2
-1.057, -1.086e-2
-1.056, -1.089e-2
-1.055, -1.092e-2
-1.054, -1.097e-2
-1.053, -1.101e-2
-1.052, -1.105e-2
-1.051, -1.108e-2
-1.050, -1.111e-2
-1.049, -1.114e-2
-1.048, -1.118e-2
-1.047, -1.123e-2
-1.046, -1.127e-2
-1.045, -1.131e-2
-1.044, -1.133e-2
-1.043, -1.136e-2
-1.042, -1.140e-2
-1.041, -1.144e-2
-1.040, -1.149e-2
-1.039, -1.153e-2
-1.038, -1.156e-2
-1.037, -1.159e-2
-1.036, -1.161e-2
-1.035, -1.165e-2
-1.034, -1.169e-2
-1.033, -1.174e-2
-1.032, -1.177e-2
-1.031, -1.180e-2
-1.030, -1.181e-2
-1.029, -1.184e-2
-1.028, -1.188e-2
-1.027, -1.192e-2
-1.026, -1.196e-2
-1.025, -1.198e-2
-1.024, -1.201e-2
-1.023, -1.204e-2
-1.022, -1.208e-2
-1.021, -1.213e-2
-1.020, -1.217e-2
-1.019, -1.220e-2
-1.018, -1.222e-2
-1.017, -1.222e-2
-1.016, -1.224e-2
-1.015, -1.226e-2
-1.014, -1.230e-2
-1.013, -1.234e-2
-1.012, -1.237e-2
-1.011, -1.239e-2
-1.010, -1.242e-2
-1.009, -1.245e-2
-1.008, -1.248e-2
-1.007, -1.253e-2
-1.006, -1.257e-2
-1.005, -1.260e-2
-1.004, -1.262e-2
-1.003, -1.264e-2
-1.002, -1.267e-2
-1.001, -1.270e-2
