Sept. 26, 2024   06:03:12
Cyclic Voltammetry
File: c:/users/guazh/data/20240922_batch_417_500/2024-09-22-exp451\exp451-2024-09-26t05_42_37-h2koh\exp451_cv_sr_800mvs_efin_-1700mv.bin
Data Source:  Experiment
Instrument Model:  CHI760E
Header: CV ran at 800 mVs
Note: 

Init E (V) = -1
High E (V) = -1
Low E (V) = -1.7
Final E (V) = -1
Init P/N = N
Scan Rate (V/s) = 0.8
Segment = 3
Sample Interval (V) = 0.001
Quiet Time (sec) = 2
Sensitivity (A/V) = 0.01
Comp R (ohm) = 2.9

Results:

Channel 1:
Segment 1:

Segment 2:

Segment 3:

Potential/V, Current/A

-1.000, 2.790e-5
-1.001, 9.573e-5
-1.002, 1.512e-4
-1.003, 1.975e-4
-1.004, 2.345e-4
-1.005, 2.653e-4
-1.006, 2.961e-4
-1.007, 3.208e-4
-1.008, 3.424e-4
-1.009, 3.640e-4
-1.010, 3.794e-4
-1.011, 3.917e-4
-1.012, 4.040e-4
-1.013, 4.133e-4
-1.014, 4.225e-4
-1.015, 4.287e-4
-1.016, 4.349e-4
-1.017, 4.410e-4
-1.018, 4.441e-4
-1.019, 4.503e-4
-1.020, 4.565e-4
-1.021, 4.595e-4
-1.022, 4.626e-4
-1.023, 4.657e-4
-1.024, 4.719e-4
-1.025, 4.780e-4
-1.026, 4.750e-4
-1.027, 4.780e-4
-1.028, 4.780e-4
-1.029, 4.811e-4
-1.030, 4.811e-4
-1.031, 4.811e-4
-1.032, 4.811e-4
-1.033, 4.842e-4
-1.034, 4.873e-4
-1.035, 4.873e-4
-1.036, 4.873e-4
-1.037, 4.904e-4
-1.038, 4.935e-4
-1.039, 4.904e-4
-1.040, 4.904e-4
-1.041, 4.873e-4
-1.042, 4.904e-4
-1.043, 4.904e-4
-1.044, 4.904e-4
-1.045, 4.873e-4
-1.046, 4.904e-4
-1.047, 4.904e-4
-1.048, 4.935e-4
-1.049, 4.935e-4
-1.050, 4.965e-4
-1.051, 4.935e-4
-1.052, 4.965e-4
-1.053, 4.965e-4
-1.054, 4.965e-4
-1.055, 4.935e-4
-1.056, 4.935e-4
-1.057, 4.904e-4
-1.058, 4.904e-4
-1.059, 4.935e-4
-1.060, 4.904e-4
-1.061, 4.904e-4
-1.062, 4.904e-4
-1.063, 4.935e-4
-1.064, 4.935e-4
-1.065, 4.965e-4
-1.066, 4.935e-4
-1.067, 4.965e-4
-1.068, 4.935e-4
-1.069, 4.935e-4
-1.070, 4.904e-4
-1.071, 4.904e-4
-1.072, 4.904e-4
-1.073, 4.935e-4
-1.074, 4.935e-4
-1.075, 4.965e-4
-1.076, 4.996e-4
-1.077, 4.996e-4
-1.078, 4.996e-4
-1.079, 4.965e-4
-1.080, 4.965e-4
-1.081, 4.965e-4
-1.082, 4.935e-4
-1.083, 4.935e-4
-1.084, 4.935e-4
-1.085, 4.935e-4
-1.086, 4.935e-4
-1.087, 4.965e-4
-1.088, 4.965e-4
-1.089, 4.996e-4
-1.090, 4.996e-4
-1.091, 4.996e-4
-1.092, 4.965e-4
-1.093, 4.965e-4
-1.094, 4.965e-4
-1.095, 4.965e-4
-1.096, 4.935e-4
-1.097, 4.935e-4
-1.098, 4.965e-4
-1.099, 4.996e-4
-1.100, 4.965e-4
-1.101, 4.965e-4
-1.102, 4.965e-4
-1.103, 4.965e-4
-1.104, 4.965e-4
-1.105, 4.965e-4
-1.106, 4.965e-4
-1.107, 4.996e-4
-1.108, 4.965e-4
-1.109, 4.965e-4
-1.110, 4.965e-4
-1.111, 4.996e-4
-1.112, 4.965e-4
-1.113, 4.965e-4
-1.114, 4.935e-4
-1.115, 4.965e-4
-1.116, 4.996e-4
-1.117, 4.996e-4
-1.118, 4.996e-4
-1.119, 4.996e-4
-1.120, 4.996e-4
-1.121, 4.996e-4
-1.122, 4.996e-4
-1.123, 4.996e-4
-1.124, 4.996e-4
-1.125, 4.965e-4
-1.126, 4.965e-4
-1.127, 4.935e-4
-1.128, 4.965e-4
-1.129, 4.996e-4
-1.130, 4.996e-4
-1.131, 4.996e-4
-1.132, 4.996e-4
-1.133, 5.027e-4
-1.134, 5.027e-4
-1.135, 4.996e-4
-1.136, 4.996e-4
-1.137, 4.996e-4
-1.138, 4.996e-4
-1.139, 5.027e-4
-1.140, 5.027e-4
-1.141, 5.027e-4
-1.142, 5.058e-4
-1.143, 5.058e-4
-1.144, 5.058e-4
-1.145, 5.089e-4
-1.146, 5.089e-4
-1.147, 5.089e-4
-1.148, 5.058e-4
-1.149, 5.058e-4
-1.150, 5.058e-4
-1.151, 5.089e-4
-1.152, 5.089e-4
-1.153, 5.089e-4
-1.154, 5.089e-4
-1.155, 5.120e-4
-1.156, 5.150e-4
-1.157, 5.150e-4
-1.158, 5.150e-4
-1.159, 5.150e-4
-1.160, 5.150e-4
-1.161, 5.150e-4
-1.162, 5.120e-4
-1.163, 5.150e-4
-1.164, 5.181e-4
-1.165, 5.150e-4
-1.166, 5.181e-4
-1.167, 5.181e-4
-1.168, 5.212e-4
-1.169, 5.243e-4
-1.170, 5.243e-4
-1.171, 5.274e-4
-1.172, 5.274e-4
-1.173, 5.274e-4
-1.174, 5.274e-4
-1.175, 5.274e-4
-1.176, 5.274e-4
-1.177, 5.274e-4
-1.178, 5.274e-4
-1.179, 5.305e-4
-1.180, 5.305e-4
-1.181, 5.335e-4
-1.182, 5.335e-4
-1.183, 5.335e-4
-1.184, 5.366e-4
-1.185, 5.397e-4
-1.186, 5.397e-4
-1.187, 5.397e-4
-1.188, 5.397e-4
-1.189, 5.397e-4
-1.190, 5.397e-4
-1.191, 5.397e-4
-1.192, 5.366e-4
-1.193, 5.428e-4
-1.194, 5.428e-4
-1.195, 5.459e-4
-1.196, 5.489e-4
-1.197, 5.489e-4
-1.198, 5.520e-4
-1.199, 5.489e-4
-1.200, 5.489e-4
-1.201, 5.459e-4
-1.202, 5.489e-4
-1.203, 5.520e-4
-1.204, 5.520e-4
-1.205, 5.520e-4
-1.206, 5.520e-4
-1.207, 5.551e-4
-1.208, 5.551e-4
-1.209, 5.582e-4
-1.210, 5.613e-4
-1.211, 5.613e-4
-1.212, 5.613e-4
-1.213, 5.613e-4
-1.214, 5.613e-4
-1.215, 5.644e-4
-1.216, 5.613e-4
-1.217, 5.644e-4
-1.218, 5.644e-4
-1.219, 5.674e-4
-1.220, 5.674e-4
-1.221, 5.736e-4
-1.222, 5.705e-4
-1.223, 5.736e-4
-1.224, 5.736e-4
-1.225, 5.767e-4
-1.226, 5.736e-4
-1.227, 5.767e-4
-1.228, 5.798e-4
-1.229, 5.829e-4
-1.230, 5.798e-4
-1.231, 5.829e-4
-1.232, 5.829e-4
-1.233, 5.890e-4
-1.234, 5.890e-4
-1.235, 5.890e-4
-1.236, 5.921e-4
-1.237, 5.952e-4
-1.238, 5.983e-4
-1.239, 5.952e-4
-1.240, 5.952e-4
-1.241, 5.983e-4
-1.242, 6.014e-4
-1.243, 6.014e-4
-1.244, 6.014e-4
-1.245, 6.014e-4
-1.246, 6.075e-4
-1.247, 6.075e-4
-1.248, 6.106e-4
-1.249, 6.106e-4
-1.250, 6.137e-4
-1.251, 6.137e-4
-1.252, 6.168e-4
-1.253, 6.168e-4
-1.254, 6.199e-4
-1.255, 6.199e-4
-1.256, 6.199e-4
-1.257, 6.199e-4
-1.258, 6.229e-4
-1.259, 6.260e-4
-1.260, 6.291e-4
-1.261, 6.291e-4
-1.262, 6.322e-4
-1.263, 6.322e-4
-1.264, 6.384e-4
-1.265, 6.384e-4
-1.266, 6.384e-4
-1.267, 6.414e-4
-1.268, 6.414e-4
-1.269, 6.414e-4
-1.270, 6.414e-4
-1.271, 6.445e-4
-1.272, 6.476e-4
-1.273, 6.507e-4
-1.274, 6.507e-4
-1.275, 6.507e-4
-1.276, 6.569e-4
-1.277, 6.569e-4
-1.278, 6.599e-4
-1.279, 6.599e-4
-1.280, 6.630e-4
-1.281, 6.661e-4
-1.282, 6.661e-4
-1.283, 6.692e-4
-1.284, 6.692e-4
-1.285, 6.661e-4
-1.286, 6.692e-4
-1.287, 6.723e-4
-1.288, 6.754e-4
-1.289, 6.784e-4
-1.290, 6.815e-4
-1.291, 6.815e-4
-1.292, 6.846e-4
-1.293, 6.877e-4
-1.294, 6.908e-4
-1.295, 6.877e-4
-1.296, 6.877e-4
-1.297, 6.877e-4
-1.298, 6.908e-4
-1.299, 6.939e-4
-1.300, 6.939e-4
-1.301, 6.969e-4
-1.302, 7.000e-4
-1.303, 7.031e-4
-1.304, 7.031e-4
-1.305, 7.093e-4
-1.306, 7.093e-4
-1.307, 7.093e-4
-1.308, 7.093e-4
-1.309, 7.062e-4
-1.310, 7.062e-4
-1.311, 7.093e-4
-1.312, 7.093e-4
-1.313, 7.154e-4
-1.314, 7.154e-4
-1.315, 7.185e-4
-1.316, 7.247e-4
-1.317, 7.247e-4
-1.318, 7.247e-4
-1.319, 7.247e-4
-1.320, 7.247e-4
-1.321, 7.247e-4
-1.322, 7.247e-4
-1.323, 7.278e-4
-1.324, 7.309e-4
-1.325, 7.309e-4
-1.326, 7.339e-4
-1.327, 7.370e-4
-1.328, 7.432e-4
-1.329, 7.432e-4
-1.330, 7.463e-4
-1.331, 7.463e-4
-1.332, 7.463e-4
-1.333, 7.494e-4
-1.334, 7.494e-4
-1.335, 7.494e-4
-1.336, 7.524e-4
-1.337, 7.524e-4
-1.338, 7.524e-4
-1.339, 7.555e-4
-1.340, 7.586e-4
-1.341, 7.555e-4
-1.342, 7.586e-4
-1.343, 7.555e-4
-1.344, 7.586e-4
-1.345, 7.648e-4
-1.346, 7.648e-4
-1.347, 7.648e-4
-1.348, 7.648e-4
-1.349, 7.648e-4
-1.350, 7.679e-4
-1.351, 7.709e-4
-1.352, 7.709e-4
-1.353, 7.740e-4
-1.354, 7.771e-4
-1.355, 7.802e-4
-1.356, 7.833e-4
-1.357, 7.863e-4
-1.358, 7.894e-4
-1.359, 7.894e-4
-1.360, 7.925e-4
-1.361, 7.894e-4
-1.362, 7.925e-4
-1.363, 7.925e-4
-1.364, 7.956e-4
-1.365, 7.956e-4
-1.366, 7.987e-4
-1.367, 7.987e-4
-1.368, 8.018e-4
-1.369, 8.048e-4
-1.370, 8.079e-4
-1.371, 8.110e-4
-1.372, 8.141e-4
-1.373, 8.141e-4
-1.374, 8.172e-4
-1.375, 8.141e-4
-1.376, 8.203e-4
-1.377, 8.203e-4
-1.378, 8.233e-4
-1.379, 8.264e-4
-1.380, 8.295e-4
-1.381, 8.326e-4
-1.382, 8.357e-4
-1.383, 8.357e-4
-1.384, 8.357e-4
-1.385, 8.418e-4
-1.386, 8.418e-4
-1.387, 8.449e-4
-1.388, 8.449e-4
-1.389, 8.480e-4
-1.390, 8.480e-4
-1.391, 8.511e-4
-1.392, 8.511e-4
-1.393, 8.542e-4
-1.394, 8.542e-4
-1.395, 8.573e-4
-1.396, 8.634e-4
-1.397, 8.665e-4
-1.398, 8.696e-4
-1.399, 8.665e-4
-1.400, 8.696e-4
-1.401, 8.665e-4
-1.402, 8.696e-4
-1.403, 8.727e-4
-1.404, 8.727e-4
-1.405, 8.727e-4
-1.406, 8.788e-4
-1.407, 8.819e-4
-1.408, 8.819e-4
-1.409, 8.850e-4
-1.410, 8.881e-4
-1.411, 8.912e-4
-1.412, 8.943e-4
-1.413, 8.943e-4
-1.414, 8.973e-4
-1.415, 8.973e-4
-1.416, 8.973e-4
-1.417, 9.004e-4
-1.418, 9.004e-4
-1.419, 9.004e-4
-1.420, 9.035e-4
-1.421, 9.066e-4
-1.422, 9.097e-4
-1.423, 9.128e-4
-1.424, 9.158e-4
-1.425, 9.220e-4
-1.426, 9.220e-4
-1.427, 9.220e-4
-1.428, 9.251e-4
-1.429, 9.251e-4
-1.430, 9.251e-4
-1.431, 9.282e-4
-1.432, 9.282e-4
-1.433, 9.313e-4
-1.434, 9.313e-4
-1.435, 9.343e-4
-1.436, 9.405e-4
-1.437, 9.467e-4
-1.438, 9.467e-4
-1.439, 9.467e-4
-1.440, 9.467e-4
-1.441, 9.498e-4
-1.442, 9.528e-4
-1.443, 9.528e-4
-1.444, 9.559e-4
-1.445, 9.559e-4
-1.446, 9.590e-4
-1.447, 9.621e-4
-1.448, 9.652e-4
-1.449, 9.683e-4
-1.450, 9.713e-4
-1.451, 9.744e-4
-1.452, 9.744e-4
-1.453, 9.775e-4
-1.454, 9.806e-4
-1.455, 9.837e-4
-1.456, 9.806e-4
-1.457, 9.868e-4
-1.458, 9.898e-4
-1.459, 9.929e-4
-1.460, 9.960e-4
-1.461, 9.960e-4
-1.462, 1.002e-3
-1.463, 1.005e-3
-1.464, 1.011e-3
-1.465, 1.014e-3
-1.466, 1.014e-3
-1.467, 1.021e-3
-1.468, 1.021e-3
-1.469, 1.024e-3
-1.470, 1.024e-3
-1.471, 1.030e-3
-1.472, 1.030e-3
-1.473, 1.033e-3
-1.474, 1.036e-3
-1.475, 1.042e-3
-1.476, 1.048e-3
-1.477, 1.051e-3
-1.478, 1.061e-3
-1.479, 1.058e-3
-1.480, 1.064e-3
-1.481, 1.067e-3
-1.482, 1.067e-3
-1.483, 1.073e-3
-1.484, 1.076e-3
-1.485, 1.082e-3
-1.486, 1.088e-3
-1.487, 1.092e-3
-1.488, 1.098e-3
-1.489, 1.104e-3
-1.490, 1.107e-3
-1.491, 1.110e-3
-1.492, 1.116e-3
-1.493, 1.119e-3
-1.494, 1.125e-3
-1.495, 1.129e-3
-1.496, 1.132e-3
-1.497, 1.135e-3
-1.498, 1.141e-3
-1.499, 1.147e-3
-1.500, 1.147e-3
-1.501, 1.153e-3
-1.502, 1.159e-3
-1.503, 1.162e-3
-1.504, 1.166e-3
-1.505, 1.175e-3
-1.506, 1.178e-3
-1.507, 1.184e-3
-1.508, 1.184e-3
-1.509, 1.190e-3
-1.510, 1.193e-3
-1.511, 1.196e-3
-1.512, 1.199e-3
-1.513, 1.203e-3
-1.514, 1.209e-3
-1.515, 1.218e-3
-1.516, 1.227e-3
-1.517, 1.230e-3
-1.518, 1.240e-3
-1.519, 1.243e-3
-1.520, 1.249e-3
-1.521, 1.252e-3
-1.522, 1.252e-3
-1.523, 1.258e-3
-1.524, 1.264e-3
-1.525, 1.267e-3
-1.526, 1.277e-3
-1.527, 1.283e-3
-1.528, 1.292e-3
-1.529, 1.301e-3
-1.530, 1.307e-3
-1.531, 1.310e-3
-1.532, 1.317e-3
-1.533, 1.320e-3
-1.534, 1.326e-3
-1.535, 1.329e-3
-1.536, 1.335e-3
-1.537, 1.341e-3
-1.538, 1.347e-3
-1.539, 1.357e-3
-1.540, 1.363e-3
-1.541, 1.369e-3
-1.542, 1.375e-3
-1.543, 1.381e-3
-1.544, 1.388e-3
-1.545, 1.394e-3
-1.546, 1.394e-3
-1.547, 1.400e-3
-1.548, 1.403e-3
-1.549, 1.409e-3
-1.550, 1.418e-3
-1.551, 1.425e-3
-1.552, 1.431e-3
-1.553, 1.440e-3
-1.554, 1.446e-3
-1.555, 1.455e-3
-1.556, 1.462e-3
-1.557, 1.474e-3
-1.558, 1.480e-3
-1.559, 1.489e-3
-1.560, 1.499e-3
-1.561, 1.505e-3
-1.562, 1.511e-3
-1.563, 1.523e-3
-1.564, 1.532e-3
-1.565, 1.536e-3
-1.566, 1.545e-3
-1.567, 1.557e-3
-1.568, 1.563e-3
-1.569, 1.573e-3
-1.570, 1.582e-3
-1.571, 1.591e-3
-1.572, 1.603e-3
-1.573, 1.610e-3
-1.574, 1.619e-3
-1.575, 1.625e-3
-1.576, 1.634e-3
-1.577, 1.640e-3
-1.578, 1.650e-3
-1.579, 1.659e-3
-1.580, 1.671e-3
-1.581, 1.684e-3
-1.582, 1.693e-3
-1.583, 1.699e-3
-1.584, 1.711e-3
-1.585, 1.721e-3
-1.586, 1.730e-3
-1.587, 1.736e-3
-1.588, 1.745e-3
-1.589, 1.754e-3
-1.590, 1.767e-3
-1.591, 1.776e-3
-1.592, 1.785e-3
-1.593, 1.795e-3
-1.594, 1.807e-3
-1.595, 1.816e-3
-1.596, 1.828e-3
-1.597, 1.841e-3
-1.598, 1.853e-3
-1.599, 1.862e-3
-1.600, 1.869e-3
-1.601, 1.878e-3
-1.602, 1.890e-3
-1.603, 1.902e-3
-1.604, 1.912e-3
-1.605, 1.921e-3
-1.606, 1.936e-3
-1.607, 1.955e-3
-1.608, 1.967e-3
-1.609, 1.983e-3
-1.610, 1.998e-3
-1.611, 2.010e-3
-1.612, 2.023e-3
-1.613, 2.032e-3
-1.614, 2.044e-3
-1.615, 2.057e-3
-1.616, 2.066e-3
-1.617, 2.081e-3
-1.618, 2.094e-3
-1.619, 2.112e-3
-1.620, 2.124e-3
-1.621, 2.140e-3
-1.622, 2.158e-3
-1.623, 2.171e-3
-1.624, 2.186e-3
-1.625, 2.201e-3
-1.626, 2.214e-3
-1.627, 2.226e-3
-1.628, 2.238e-3
-1.629, 2.251e-3
-1.630, 2.263e-3
-1.631, 2.282e-3
-1.632, 2.297e-3
-1.633, 2.312e-3
-1.634, 2.331e-3
-1.635, 2.349e-3
-1.636, 2.365e-3
-1.637, 2.383e-3
-1.638, 2.405e-3
-1.639, 2.420e-3
-1.640, 2.430e-3
-1.641, 2.448e-3
-1.642, 2.464e-3
-1.643, 2.479e-3
-1.644, 2.497e-3
-1.645, 2.516e-3
-1.646, 2.538e-3
-1.647, 2.556e-3
-1.648, 2.578e-3
-1.649, 2.599e-3
-1.650, 2.618e-3
-1.651, 2.636e-3
-1.652, 2.658e-3
-1.653, 2.676e-3
-1.654, 2.695e-3
-1.655, 2.713e-3
-1.656, 2.732e-3
-1.657, 2.750e-3
-1.658, 2.772e-3
-1.659, 2.800e-3
-1.660, 2.824e-3
-1.661, 2.852e-3
-1.662, 2.874e-3
-1.663, 2.895e-3
-1.664, 2.917e-3
-1.665, 2.938e-3
-1.666, 2.957e-3
-1.667, 2.975e-3
-1.668, 3.000e-3
-1.669, 3.025e-3
-1.670, 3.056e-3
-1.671, 3.086e-3
-1.672, 3.114e-3
-1.673, 3.145e-3
-1.674, 3.170e-3
-1.675, 3.194e-3
-1.676, 3.222e-3
-1.677, 3.250e-3
-1.678, 3.271e-3
-1.679, 3.293e-3
-1.680, 3.324e-3
-1.681, 3.351e-3
-1.682, 3.376e-3
-1.683, 3.401e-3
-1.684, 3.425e-3
-1.685, 3.453e-3
-1.686, 3.481e-3
-1.687, 3.509e-3
-1.688, 3.543e-3
-1.689, 3.577e-3
-1.690, 3.607e-3
-1.691, 3.635e-3
-1.692, 3.666e-3
-1.693, 3.700e-3
-1.694, 3.731e-3
-1.695, 3.765e-3
-1.696, 3.795e-3
-1.697, 3.832e-3
-1.698, 3.863e-3
-1.699, 3.900e-3
-1.700, 3.873e-3
-1.699, 3.762e-3
-1.698, 3.672e-3
-1.697, 3.592e-3
-1.696, 3.527e-3
-1.695, 3.472e-3
-1.694, 3.416e-3
-1.693, 3.370e-3
-1.692, 3.321e-3
-1.691, 3.278e-3
-1.690, 3.234e-3
-1.689, 3.191e-3
-1.688, 3.148e-3
-1.687, 3.108e-3
-1.686, 3.065e-3
-1.685, 3.025e-3
-1.684, 2.985e-3
-1.683, 2.948e-3
-1.682, 2.911e-3
-1.681, 2.877e-3
-1.680, 2.840e-3
-1.679, 2.803e-3
-1.678, 2.766e-3
-1.677, 2.732e-3
-1.676, 2.692e-3
-1.675, 2.652e-3
-1.674, 2.618e-3
-1.673, 2.581e-3
-1.672, 2.550e-3
-1.671, 2.516e-3
-1.670, 2.485e-3
-1.669, 2.448e-3
-1.668, 2.417e-3
-1.667, 2.386e-3
-1.666, 2.353e-3
-1.665, 2.319e-3
-1.664, 2.285e-3
-1.663, 2.254e-3
-1.662, 2.220e-3
-1.661, 2.186e-3
-1.660, 2.155e-3
-1.659, 2.128e-3
-1.658, 2.094e-3
-1.657, 2.063e-3
-1.656, 2.035e-3
-1.655, 2.010e-3
-1.654, 1.983e-3
-1.653, 1.952e-3
-1.652, 1.918e-3
-1.651, 1.887e-3
-1.650, 1.853e-3
-1.649, 1.819e-3
-1.648, 1.791e-3
-1.647, 1.764e-3
-1.646, 1.736e-3
-1.645, 1.714e-3
-1.644, 1.687e-3
-1.643, 1.662e-3
-1.642, 1.640e-3
-1.641, 1.613e-3
-1.640, 1.588e-3
-1.639, 1.557e-3
-1.638, 1.529e-3
-1.637, 1.508e-3
-1.636, 1.480e-3
-1.635, 1.455e-3
-1.634, 1.434e-3
-1.633, 1.412e-3
-1.632, 1.394e-3
-1.631, 1.369e-3
-1.630, 1.347e-3
-1.629, 1.326e-3
-1.628, 1.301e-3
-1.627, 1.277e-3
-1.626, 1.252e-3
-1.625, 1.230e-3
-1.624, 1.209e-3
-1.623, 1.184e-3
-1.622, 1.159e-3
-1.621, 1.144e-3
-1.620, 1.122e-3
-1.619, 1.104e-3
-1.618, 1.085e-3
-1.617, 1.064e-3
-1.616, 1.045e-3
-1.615, 1.027e-3
-1.614, 1.002e-3
-1.613, 9.806e-4
-1.612, 9.590e-4
-1.611, 9.374e-4
-1.610, 9.189e-4
-1.609, 9.004e-4
-1.608, 8.819e-4
-1.607, 8.665e-4
-1.606, 8.480e-4
-1.605, 8.357e-4
-1.604, 8.203e-4
-1.603, 7.987e-4
-1.602, 7.833e-4
-1.601, 7.555e-4
-1.600, 7.370e-4
-1.599, 7.154e-4
-1.598, 7.000e-4
-1.597, 6.846e-4
-1.596, 6.661e-4
-1.595, 6.507e-4
-1.594, 6.384e-4
-1.593, 6.229e-4
-1.592, 6.075e-4
-1.591, 5.921e-4
-1.590, 5.767e-4
-1.589, 5.644e-4
-1.588, 5.489e-4
-1.587, 5.305e-4
-1.586, 5.181e-4
-1.585, 5.027e-4
-1.584, 4.873e-4
-1.583, 4.688e-4
-1.582, 4.534e-4
-1.581, 4.441e-4
-1.580, 4.287e-4
-1.579, 4.164e-4
-1.578, 4.010e-4
-1.577, 3.886e-4
-1.576, 3.763e-4
-1.575, 3.640e-4
-1.574, 3.485e-4
-1.573, 3.362e-4
-1.572, 3.208e-4
-1.571, 3.085e-4
-1.570, 2.931e-4
-1.569, 2.838e-4
-1.568, 2.746e-4
-1.567, 2.591e-4
-1.566, 2.468e-4
-1.565, 2.376e-4
-1.564, 2.252e-4
-1.563, 2.160e-4
-1.562, 2.067e-4
-1.561, 1.913e-4
-1.560, 1.821e-4
-1.559, 1.697e-4
-1.558, 1.574e-4
-1.557, 1.481e-4
-1.556, 1.358e-4
-1.555, 1.266e-4
-1.554, 1.173e-4
-1.553, 1.050e-4
-1.552, 9.882e-5
-1.551, 8.957e-5
-1.550, 8.032e-5
-1.549, 7.107e-5
-1.548, 6.182e-5
-1.547, 4.949e-5
-1.546, 4.332e-5
-1.545, 3.099e-5
-1.544, 2.174e-5
-1.543, 9.405e-6
-1.542, 1.559e-7
-1.541, -2.927e-6
-1.540, -1.526e-5
-1.539, -2.143e-5
-1.538, -3.068e-5
-1.537, -3.684e-5
-1.536, -4.609e-5
-1.535, -5.226e-5
-1.534, -6.151e-5
-1.533, -7.076e-5
-1.532, -7.692e-5
-1.531, -8.925e-5
-1.530, -9.542e-5
-1.529, -1.047e-4
-1.528, -1.108e-4
-1.527, -1.170e-4
-1.526, -1.263e-4
-1.525, -1.324e-4
-1.524, -1.386e-4
-1.523, -1.417e-4
-1.522, -1.509e-4
-1.521, -1.602e-4
-1.520, -1.632e-4
-1.519, -1.725e-4
-1.518, -1.817e-4
-1.517, -1.879e-4
-1.516, -1.941e-4
-1.515, -2.002e-4
-1.514, -2.064e-4
-1.513, -2.126e-4
-1.512, -2.157e-4
-1.511, -2.218e-4
-1.510, -2.280e-4
-1.509, -2.342e-4
-1.508, -2.403e-4
-1.507, -2.465e-4
-1.506, -2.527e-4
-1.505, -2.588e-4
-1.504, -2.681e-4
-1.503, -2.712e-4
-1.502, -2.773e-4
-1.501, -2.835e-4
-1.500, -2.897e-4
-1.499, -2.927e-4
-1.498, -2.958e-4
-1.497, -3.020e-4
-1.496, -3.082e-4
-1.495, -3.112e-4
-1.494, -3.174e-4
-1.493, -3.205e-4
-1.492, -3.297e-4
-1.491, -3.359e-4
-1.490, -3.390e-4
-1.489, -3.452e-4
-1.488, -3.482e-4
-1.487, -3.544e-4
-1.486, -3.606e-4
-1.485, -3.637e-4
-1.484, -3.667e-4
-1.483, -3.729e-4
-1.482, -3.729e-4
-1.481, -3.791e-4
-1.480, -3.821e-4
-1.479, -3.914e-4
-1.478, -3.976e-4
-1.477, -3.976e-4
-1.476, -4.037e-4
-1.475, -4.068e-4
-1.474, -4.099e-4
-1.473, -4.161e-4
-1.472, -4.161e-4
-1.471, -4.222e-4
-1.470, -4.253e-4
-1.469, -4.284e-4
-1.468, -4.315e-4
-1.467, -4.376e-4
-1.466, -4.407e-4
-1.465, -4.469e-4
-1.464, -4.500e-4
-1.463, -4.561e-4
-1.462, -4.592e-4
-1.461, -4.623e-4
-1.460, -4.685e-4
-1.459, -4.685e-4
-1.458, -4.716e-4
-1.457, -4.777e-4
-1.456, -4.808e-4
-1.455, -4.808e-4
-1.454, -4.870e-4
-1.453, -4.931e-4
-1.452, -4.993e-4
-1.451, -4.993e-4
-1.450, -5.055e-4
-1.449, -5.086e-4
-1.448, -5.116e-4
-1.447, -5.147e-4
-1.446, -5.178e-4
-1.445, -5.209e-4
-1.444, -5.240e-4
-1.443, -5.240e-4
-1.442, -5.271e-4
-1.441, -5.332e-4
-1.440, -5.363e-4
-1.439, -5.425e-4
-1.438, -5.456e-4
-1.437, -5.486e-4
-1.436, -5.548e-4
-1.435, -5.579e-4
-1.434, -5.610e-4
-1.433, -5.610e-4
-1.432, -5.610e-4
-1.431, -5.671e-4
-1.430, -5.702e-4
-1.429, -5.733e-4
-1.428, -5.764e-4
-1.427, -5.795e-4
-1.426, -5.795e-4
-1.425, -5.856e-4
-1.424, -5.887e-4
-1.423, -5.918e-4
-1.422, -5.949e-4
-1.421, -5.980e-4
-1.420, -6.011e-4
-1.419, -6.011e-4
-1.418, -6.041e-4
-1.417, -6.103e-4
-1.416, -6.103e-4
-1.415, -6.103e-4
-1.414, -6.165e-4
-1.413, -6.195e-4
-1.412, -6.257e-4
-1.411, -6.288e-4
-1.410, -6.288e-4
-1.409, -6.350e-4
-1.408, -6.380e-4
-1.407, -6.380e-4
-1.406, -6.442e-4
-1.405, -6.442e-4
-1.404, -6.473e-4
-1.403, -6.473e-4
-1.402, -6.473e-4
-1.401, -6.535e-4
-1.400, -6.565e-4
-1.399, -6.596e-4
-1.398, -6.627e-4
-1.397, -6.658e-4
-1.396, -6.720e-4
-1.395, -6.750e-4
-1.394, -6.750e-4
-1.393, -6.781e-4
-1.392, -6.781e-4
-1.391, -6.812e-4
-1.390, -6.843e-4
-1.389, -6.843e-4
-1.388, -6.874e-4
-1.387, -6.905e-4
-1.386, -6.935e-4
-1.385, -6.966e-4
-1.384, -6.966e-4
-1.383, -6.997e-4
-1.382, -7.028e-4
-1.381, -7.059e-4
-1.380, -7.090e-4
-1.379, -7.090e-4
-1.378, -7.151e-4
-1.377, -7.151e-4
-1.376, -7.182e-4
-1.375, -7.182e-4
-1.374, -7.244e-4
-1.373, -7.275e-4
-1.372, -7.305e-4
-1.371, -7.305e-4
-1.370, -7.367e-4
-1.369, -7.367e-4
-1.368, -7.367e-4
-1.367, -7.398e-4
-1.366, -7.429e-4
-1.365, -7.460e-4
-1.364, -7.460e-4
-1.363, -7.460e-4
-1.362, -7.460e-4
-1.361, -7.490e-4
-1.360, -7.521e-4
-1.359, -7.552e-4
-1.358, -7.552e-4
-1.357, -7.583e-4
-1.356, -7.614e-4
-1.355, -7.645e-4
-1.354, -7.645e-4
-1.353, -7.645e-4
-1.352, -7.675e-4
-1.351, -7.675e-4
-1.350, -7.706e-4
-1.349, -7.706e-4
-1.348, -7.737e-4
-1.347, -7.799e-4
-1.346, -7.768e-4
-1.345, -7.799e-4
-1.344, -7.860e-4
-1.343, -7.891e-4
-1.342, -7.891e-4
-1.341, -7.891e-4
-1.340, -7.891e-4
-1.339, -7.891e-4
-1.338, -7.922e-4
-1.337, -7.922e-4
-1.336, -7.922e-4
-1.335, -7.953e-4
-1.334, -7.984e-4
-1.333, -7.984e-4
-1.332, -8.015e-4
-1.331, -8.045e-4
-1.330, -8.107e-4
-1.329, -8.107e-4
-1.328, -8.107e-4
-1.327, -8.107e-4
-1.326, -8.138e-4
-1.325, -8.169e-4
-1.324, -8.169e-4
-1.323, -8.169e-4
-1.322, -8.169e-4
-1.321, -8.200e-4
-1.320, -8.200e-4
-1.319, -8.200e-4
-1.318, -8.200e-4
-1.317, -8.230e-4
-1.316, -8.261e-4
-1.315, -8.230e-4
-1.314, -8.261e-4
-1.313, -8.261e-4
-1.312, -8.261e-4
-1.311, -8.261e-4
-1.310, -8.230e-4
-1.309, -8.261e-4
-1.308, -8.292e-4
-1.307, -8.292e-4
-1.306, -8.292e-4
-1.305, -8.292e-4
-1.304, -8.323e-4
-1.303, -8.354e-4
-1.302, -8.354e-4
-1.301, -8.323e-4
-1.300, -8.354e-4
-1.299, -8.354e-4
-1.298, -8.354e-4
-1.297, -8.354e-4
-1.296, -8.354e-4
-1.295, -8.354e-4
-1.294, -8.354e-4
-1.293, -8.354e-4
-1.292, -8.385e-4
-1.291, -8.385e-4
-1.290, -8.385e-4
-1.289, -8.385e-4
-1.288, -8.415e-4
-1.287, -8.415e-4
-1.286, -8.446e-4
-1.285, -8.415e-4
-1.284, -8.385e-4
-1.283, -8.385e-4
-1.282, -8.385e-4
-1.281, -8.385e-4
-1.280, -8.385e-4
-1.279, -8.385e-4
-1.278, -8.415e-4
-1.277, -8.415e-4
-1.276, -8.446e-4
-1.275, -8.446e-4
-1.274, -8.446e-4
-1.273, -8.446e-4
-1.272, -8.415e-4
-1.271, -8.385e-4
-1.270, -8.385e-4
-1.269, -8.385e-4
-1.268, -8.385e-4
-1.267, -8.385e-4
-1.266, -8.385e-4
-1.265, -8.415e-4
-1.264, -8.415e-4
-1.263, -8.415e-4
-1.262, -8.415e-4
-1.261, -8.415e-4
-1.260, -8.415e-4
-1.259, -8.354e-4
-1.258, -8.323e-4
-1.257, -8.354e-4
-1.256, -8.354e-4
-1.255, -8.354e-4
-1.254, -8.354e-4
-1.253, -8.354e-4
-1.252, -8.385e-4
-1.251, -8.385e-4
-1.250, -8.385e-4
-1.249, -8.354e-4
-1.248, -8.385e-4
-1.247, -8.385e-4
-1.246, -8.385e-4
-1.245, -8.385e-4
-1.244, -8.385e-4
-1.243, -8.385e-4
-1.242, -8.354e-4
-1.241, -8.385e-4
-1.240, -8.354e-4
-1.239, -8.385e-4
-1.238, -8.385e-4
-1.237, -8.354e-4
-1.236, -8.385e-4
-1.235, -8.385e-4
-1.234, -8.385e-4
-1.233, -8.385e-4
-1.232, -8.323e-4
-1.231, -8.323e-4
-1.230, -8.323e-4
-1.229, -8.323e-4
-1.228, -8.354e-4
-1.227, -8.354e-4
-1.226, -8.354e-4
-1.225, -8.354e-4
-1.224, -8.354e-4
-1.223, -8.385e-4
-1.222, -8.354e-4
-1.221, -8.354e-4
-1.220, -8.354e-4
-1.219, -8.323e-4
-1.218, -8.323e-4
-1.217, -8.354e-4
-1.216, -8.323e-4
-1.215, -8.323e-4
-1.214, -8.323e-4
-1.213, -8.354e-4
-1.212, -8.385e-4
-1.211, -8.385e-4
-1.210, -8.385e-4
-1.209, -8.385e-4
-1.208, -8.385e-4
-1.207, -8.385e-4
-1.206, -8.354e-4
-1.205, -8.323e-4
-1.204, -8.292e-4
-1.203, -8.292e-4
-1.202, -8.292e-4
-1.201, -8.292e-4
-1.200, -8.292e-4
-1.199, -8.323e-4
-1.198, -8.292e-4
-1.197, -8.292e-4
-1.196, -8.292e-4
-1.195, -8.323e-4
-1.194, -8.292e-4
-1.193, -8.292e-4
-1.192, -8.261e-4
-1.191, -8.261e-4
-1.190, -8.261e-4
-1.189, -8.230e-4
-1.188, -8.230e-4
-1.187, -8.261e-4
-1.186, -8.261e-4
-1.185, -8.261e-4
-1.184, -8.261e-4
-1.183, -8.261e-4
-1.182, -8.292e-4
-1.181, -8.261e-4
-1.180, -8.261e-4
-1.179, -8.230e-4
-1.178, -8.261e-4
-1.177, -8.261e-4
-1.176, -8.230e-4
-1.175, -8.200e-4
-1.174, -8.230e-4
-1.173, -8.230e-4
-1.172, -8.230e-4
-1.171, -8.230e-4
-1.170, -8.200e-4
-1.169, -8.200e-4
-1.168, -8.200e-4
-1.167, -8.169e-4
-1.166, -8.200e-4
-1.165, -8.200e-4
-1.164, -8.169e-4
-1.163, -8.138e-4
-1.162, -8.107e-4
-1.161, -8.138e-4
-1.160, -8.138e-4
-1.159, -8.138e-4
-1.158, -8.138e-4
-1.157, -8.107e-4
-1.156, -8.138e-4
-1.155, -8.138e-4
-1.154, -8.107e-4
-1.153, -8.107e-4
-1.152, -8.076e-4
-1.151, -8.076e-4
-1.150, -8.045e-4
-1.149, -8.015e-4
-1.148, -8.045e-4
-1.147, -8.045e-4
-1.146, -8.015e-4
-1.145, -8.045e-4
-1.144, -8.045e-4
-1.143, -8.045e-4
-1.142, -8.045e-4
-1.141, -8.015e-4
-1.140, -7.984e-4
-1.139, -7.984e-4
-1.138, -7.984e-4
-1.137, -7.953e-4
-1.136, -7.953e-4
-1.135, -7.953e-4
-1.134, -7.984e-4
-1.133, -7.953e-4
-1.132, -7.953e-4
-1.131, -7.953e-4
-1.130, -7.984e-4
-1.129, -7.953e-4
-1.128, -7.922e-4
-1.127, -7.922e-4
-1.126, -7.953e-4
-1.125, -7.891e-4
-1.124, -7.891e-4
-1.123, -7.860e-4
-1.122, -7.860e-4
-1.121, -7.891e-4
-1.120, -7.860e-4
-1.119, -7.860e-4
-1.118, -7.860e-4
-1.117, -7.860e-4
-1.116, -7.891e-4
-1.115, -7.860e-4
-1.114, -7.860e-4
-1.113, -7.860e-4
-1.112, -7.830e-4
-1.111, -7.799e-4
-1.110, -7.799e-4
-1.109, -7.768e-4
-1.108, -7.799e-4
-1.107, -7.799e-4
-1.106, -7.799e-4
-1.105, -7.799e-4
-1.104, -7.830e-4
-1.103, -7.830e-4
-1.102, -7.799e-4
-1.101, -7.768e-4
-1.100, -7.799e-4
-1.099, -7.768e-4
-1.098, -7.768e-4
-1.097, -7.768e-4
-1.096, -7.768e-4
-1.095, -7.768e-4
-1.094, -7.768e-4
-1.093, -7.768e-4
-1.092, -7.768e-4
-1.091, -7.768e-4
-1.090, -7.768e-4
-1.089, -7.737e-4
-1.088, -7.737e-4
-1.087, -7.768e-4
-1.086, -7.768e-4
-1.085, -7.768e-4
-1.084, -7.737e-4
-1.083, -7.737e-4
-1.082, -7.706e-4
-1.081, -7.737e-4
-1.080, -7.706e-4
-1.079, -7.706e-4
-1.078, -7.706e-4
-1.077, -7.706e-4
-1.076, -7.737e-4
-1.075, -7.768e-4
-1.074, -7.737e-4
-1.073, -7.737e-4
-1.072, -7.706e-4
-1.071, -7.706e-4
-1.070, -7.675e-4
-1.069, -7.675e-4
-1.068, -7.675e-4
-1.067, -7.675e-4
-1.066, -7.675e-4
-1.065, -7.706e-4
-1.064, -7.706e-4
-1.063, -7.706e-4
-1.062, -7.737e-4
-1.061, -7.706e-4
-1.060, -7.706e-4
-1.059, -7.675e-4
-1.058, -7.645e-4
-1.057, -7.645e-4
-1.056, -7.645e-4
-1.055, -7.645e-4
-1.054, -7.645e-4
-1.053, -7.675e-4
-1.052, -7.706e-4
-1.051, -7.706e-4
-1.050, -7.706e-4
-1.049, -7.706e-4
-1.048, -7.706e-4
-1.047, -7.675e-4
-1.046, -7.675e-4
-1.045, -7.645e-4
-1.044, -7.675e-4
-1.043, -7.675e-4
-1.042, -7.675e-4
-1.041, -7.706e-4
-1.040, -7.706e-4
-1.039, -7.737e-4
-1.038, -7.737e-4
-1.037, -7.737e-4
-1.036, -7.737e-4
-1.035, -7.768e-4
-1.034, -7.737e-4
-1.033, -7.737e-4
-1.032, -7.706e-4
-1.031, -7.706e-4
-1.030, -7.737e-4
-1.029, -7.706e-4
-1.028, -7.706e-4
-1.027, -7.706e-4
-1.026, -7.706e-4
-1.025, -7.737e-4
-1.024, -7.737e-4
-1.023, -7.799e-4
-1.022, -7.830e-4
-1.021, -7.830e-4
-1.020, -7.830e-4
-1.019, -7.799e-4
-1.018, -7.768e-4
-1.017, -7.799e-4
-1.016, -7.799e-4
-1.015, -7.768e-4
-1.014, -7.799e-4
-1.013, -7.830e-4
-1.012, -7.860e-4
-1.011, -7.860e-4
-1.010, -7.891e-4
-1.009, -7.891e-4
-1.008, -7.891e-4
-1.007, -7.922e-4
-1.006, -7.891e-4
-1.005, -7.891e-4
-1.004, -7.922e-4
-1.003, -7.922e-4
-1.002, -7.922e-4
-1.001, -7.922e-4
