Potential V vs RHE, Current mA cm-2
0.013299999999999867,-0.3947044526623452
0.012299999999999978,-1.3980177065266295
0.011299999999999866,-2.226755585987568
0.010299999999999976,-2.924208256821031
0.009299999999999864,-3.5353635383627267
0.008299999999999974,-4.014950669016974
0.007299999999999862,-4.450681749375406
0.006299999999999972,-4.843971490737885
0.00529999999999986,-5.149549131508733
0.0042999999999999705,-5.453712060979717
0.0032999999999998586,-5.672992312458796
0.0022999999999999687,-5.9347139029338285
0.0012999999999998568,-6.108723392817228
0.00029999999999996696,-6.282732882700628
-0.000700000000000145,-6.414301033588076
-0.0017000000000000348,-6.588310523471475
-0.0027000000000001467,-6.6760226240631075
-0.0037000000000000366,-6.762320013354876
-0.0047000000000001485,-6.93774421453814
-0.005700000000000038,-7.024041603829907
-0.00670000000000015,-7.067897654125724
-0.00770000000000004,-7.155609754717355
-0.008700000000000152,-7.243321855308987
-0.009700000000000042,-7.243321855308987
-0.010700000000000154,-7.28576319430494
-0.011700000000000044,-7.329619244600755
-0.012700000000000156,-7.37347529489657
-0.013700000000000045,-7.37347529489657
-0.014700000000000157,-7.4173313451923875
-0.015700000000000047,-7.461187395488204
-0.01670000000000016,-7.50504344578402
-0.01770000000000005,-7.5474847847799715
-0.01870000000000016,-7.5474847847799715
-0.01970000000000005,-7.591340835075788
-0.020700000000000163,-7.635196885371603
-0.021700000000000053,-7.591340835075788
-0.022700000000000164,-7.635196885371603
-0.023700000000000054,-7.635196885371603
-0.024700000000000166,-7.635196885371603
-0.025700000000000056,-7.635196885371603
-0.026700000000000168,-7.635196885371603
-0.027700000000000058,-7.635196885371603
-0.02870000000000017,-7.635196885371603
-0.02970000000000006,-7.635196885371603
-0.03070000000000017,-7.679052935667419
-0.03170000000000006,-7.722908985963235
-0.03270000000000017,-7.722908985963235
-0.03370000000000006,-7.722908985963235
-0.034700000000000175,-7.7653503249591855
-0.035700000000000065,-7.7653503249591855
-0.03670000000000018,-7.7653503249591855
-0.03770000000000007,-7.7653503249591855
-0.03870000000000018,-7.7653503249591855
-0.03970000000000007,-7.722908985963235
-0.04070000000000018,-7.722908985963235
-0.04170000000000007,-7.679052935667419
-0.04270000000000018,-7.722908985963235
-0.04370000000000007,-7.679052935667419
-0.044700000000000184,-7.722908985963235
-0.045700000000000074,-7.7653503249591855
-0.046700000000000186,-7.7653503249591855
-0.047700000000000076,-7.7653503249591855
-0.04870000000000019,-7.7653503249591855
-0.04970000000000008,-7.7653503249591855
-0.05070000000000019,-7.7653503249591855
-0.05170000000000008,-7.722908985963235
-0.05270000000000019,-7.722908985963235
-0.05370000000000008,-7.722908985963235
-0.05470000000000019,-7.722908985963235
-0.05570000000000008,-7.679052935667419
-0.056700000000000195,-7.722908985963235
-0.057700000000000085,-7.722908985963235
-0.058700000000000196,-7.679052935667419
-0.059700000000000086,-7.7653503249591855
-0.0607000000000002,-7.722908985963235
-0.06170000000000009,-7.7653503249591855
-0.0627000000000002,-7.7653503249591855
-0.06370000000000009,-7.7653503249591855
-0.0647000000000002,-7.7653503249591855
-0.06570000000000009,-7.7653503249591855
-0.0667000000000002,-7.722908985963235
-0.0677000000000001,-7.7653503249591855
-0.0687000000000002,-7.7653503249591855
-0.0697000000000001,-7.722908985963235
-0.07070000000000021,-7.722908985963235
-0.0717000000000001,-7.722908985963235
-0.07270000000000021,-7.722908985963235
-0.0737000000000001,-7.722908985963235
-0.07470000000000021,-7.722908985963235
-0.0757000000000001,-7.722908985963235
-0.07670000000000021,-7.7653503249591855
-0.0777000000000001,-7.722908985963235
-0.07870000000000021,-7.7653503249591855
-0.0797000000000001,-7.7653503249591855
-0.08070000000000022,-7.809206375255003
-0.0817000000000001,-7.722908985963235
-0.08270000000000022,-7.7653503249591855
-0.08370000000000011,-7.7653503249591855
-0.08470000000000022,-7.7653503249591855
-0.08570000000000011,-7.679052935667419
-0.08670000000000022,-7.679052935667419
-0.08770000000000011,-7.679052935667419
-0.08870000000000022,-7.679052935667419
-0.08970000000000011,-7.679052935667419
-0.09070000000000022,-7.722908985963235
-0.09170000000000011,-7.7653503249591855
-0.09270000000000023,-7.7653503249591855
-0.09370000000000012,-7.7653503249591855
-0.09470000000000023,-7.809206375255003
-0.09570000000000012,-7.809206375255003
-0.09670000000000023,-7.809206375255003
-0.09770000000000012,-7.809206375255003
-0.09870000000000023,-7.809206375255003
-0.09970000000000012,-7.809206375255003
-0.10070000000000023,-7.7653503249591855
-0.10170000000000012,-7.7653503249591855
-0.10270000000000024,-7.809206375255003
-0.10370000000000013,-7.809206375255003
-0.10470000000000024,-7.809206375255003
-0.10570000000000013,-7.853062425550818
-0.10670000000000024,-7.853062425550818
-0.10770000000000013,-7.853062425550818
-0.10870000000000024,-7.853062425550818
-0.10970000000000013,-7.896918475846635
-0.11070000000000024,-7.896918475846635
-0.11170000000000013,-7.853062425550818
-0.11270000000000002,-7.853062425550818
-0.11370000000000013,-7.896918475846635
-0.11470000000000002,-7.853062425550818
-0.11570000000000014,-7.853062425550818
-0.11670000000000003,-7.853062425550818
-0.11770000000000014,-7.853062425550818
-0.11870000000000003,-7.853062425550818
-0.11970000000000014,-7.896918475846635
-0.12070000000000003,-7.896918475846635
-0.12170000000000014,-7.940774526142452
-0.12270000000000003,-7.940774526142452
-0.12370000000000014,-7.940774526142452
-0.12470000000000003,-7.984630576438266
-0.12570000000000014,-7.984630576438266
-0.12670000000000003,-7.940774526142452
-0.12770000000000015,-7.984630576438266
-0.12870000000000004,-7.984630576438266
-0.12970000000000015,-7.940774526142452
-0.13070000000000004,-7.940774526142452
-0.13170000000000015,-7.940774526142452
-0.13270000000000004,-7.984630576438266
-0.13370000000000015,-7.940774526142452
-0.13470000000000004,-7.984630576438266
-0.13570000000000015,-7.984630576438266
-0.13670000000000004,-8.027071915434218
-0.13770000000000016,-8.027071915434218
-0.13870000000000005,-8.027071915434218
-0.13970000000000016,-8.11478401602585
-0.14070000000000005,-8.070927965730034
-0.14170000000000016,-8.070927965730034
-0.14270000000000005,-8.070927965730034
-0.14370000000000016,-8.070927965730034
-0.14470000000000005,-8.070927965730034
-0.14570000000000016,-8.070927965730034
-0.14670000000000005,-8.070927965730034
-0.14770000000000016,-8.070927965730034
-0.14870000000000005,-8.070927965730034
-0.14970000000000017,-8.070927965730034
-0.15070000000000006,-8.11478401602585
-0.15170000000000017,-8.158640066321666
-0.15270000000000006,-8.158640066321666
-0.15370000000000017,-8.202496116617484
-0.15470000000000006,-8.202496116617484
-0.15570000000000017,-8.202496116617484
-0.15670000000000006,-8.202496116617484
-0.15770000000000017,-8.202496116617484
-0.15870000000000006,-8.246352166913299
-0.15970000000000018,-8.202496116617484
-0.16070000000000007,-8.246352166913299
-0.16170000000000018,-8.202496116617484
-0.16270000000000007,-8.246352166913299
-0.16370000000000018,-8.246352166913299
-0.16470000000000007,-8.288793505909249
-0.16570000000000018,-8.288793505909249
-0.16670000000000007,-8.332649556205066
-0.16770000000000018,-8.332649556205066
-0.16870000000000007,-8.332649556205066
-0.16970000000000018,-8.376505606500881
-0.17070000000000007,-8.4203616567967
-0.17170000000000019,-8.4203616567967
-0.17270000000000008,-8.4203616567967
-0.1737000000000002,-8.464217707092514
-0.17470000000000008,-8.4203616567967
-0.1757000000000002,-8.4203616567967
-0.17670000000000008,-8.4203616567967
-0.1777000000000002,-8.4203616567967
-0.17870000000000008,-8.464217707092514
-0.1797000000000002,-8.464217707092514
-0.18070000000000008,-8.464217707092514
-0.1817000000000002,-8.508073757388331
-0.18270000000000008,-8.55051509638428
-0.1837000000000002,-8.508073757388331
-0.1847000000000001,-8.55051509638428
-0.1857000000000002,-8.594371146680096
-0.1867000000000001,-8.55051509638428
-0.1877000000000002,-8.594371146680096
-0.1887000000000001,-8.638227196975913
-0.1897000000000002,-8.638227196975913
-0.1907000000000001,-8.594371146680096
-0.1917000000000001,-8.638227196975913
-0.19269999999999998,-8.638227196975913
-0.1937000000000001,-8.638227196975913
-0.19469999999999998,-8.68208324727173
-0.1957000000000001,-8.68208324727173
-0.19669999999999999,-8.769795347863363
-0.1977000000000001,-8.725939297567548
-0.1987,-8.769795347863363
-0.1997000000000001,-8.812236686859313
-0.2007,-8.812236686859313
-0.2017000000000001,-8.812236686859313
-0.2027,-8.85609273715513
-0.2037000000000001,-8.85609273715513
-0.2047,-8.899948787450944
-0.2057000000000001,-8.85609273715513
-0.2067,-8.85609273715513
-0.2077000000000001,-8.899948787450944
-0.2087,-8.899948787450944
-0.2097000000000001,-8.943804837746763
-0.2107,-8.943804837746763
-0.2117000000000001,-8.987660888042578
-0.2127,-9.031516938338395
-0.2137000000000001,-9.031516938338395
-0.2147,-9.073958277334345
-0.2157000000000001,-9.161670377925978
-0.2167,-9.161670377925978
-0.21770000000000012,-9.205526428221793
-0.2187,-9.205526428221793
-0.21970000000000012,-9.24938247851761
-0.2207,-9.205526428221793
-0.22170000000000012,-9.24938247851761
-0.2227,-9.293238528813426
-0.22370000000000012,-9.293238528813426
-0.2247,-9.335679867809377
-0.22570000000000012,-9.335679867809377
-0.2267,-9.379535918105192
-0.22770000000000012,-9.423391968401008
-0.22870000000000001,-9.423391968401008
-0.22970000000000013,-9.467248018696827
-0.23070000000000002,-9.511104068992642
-0.23170000000000013,-9.467248018696827
-0.23270000000000002,-9.511104068992642
-0.23370000000000013,-9.55496011928846
-0.23470000000000002,-9.55496011928846
-0.23570000000000013,-9.55496011928846
-0.23670000000000002,-9.59740145828441
-0.2376999999999999,-9.59740145828441
-0.23870000000000002,-9.59740145828441
-0.2396999999999999,-9.685113558876042
-0.24070000000000003,-9.685113558876042
-0.24169999999999991,-9.772825659467674
-0.24270000000000003,-9.728969609171857
-0.24369999999999992,-9.772825659467674
-0.24470000000000003,-9.81668170976349
-0.24569999999999992,-9.85912304875944
-0.24670000000000003,-9.85912304875944
-0.24769999999999992,-9.902979099055257
-0.24870000000000003,-9.946835149351072
-0.24969999999999992,-9.946835149351072
-0.25070000000000003,-9.946835149351072
-0.2516999999999999,-9.946835149351072
-0.25270000000000004,-9.946835149351072
-0.2536999999999999,-9.99069119964689
-0.25470000000000004,-9.99069119964689
-0.2556999999999999,-10.034547249942705
-0.25670000000000004,-10.120844639234473
-0.25769999999999993,-10.078403300238522
-0.25870000000000004,-10.078403300238522
-0.25969999999999993,-10.164700689530287
-0.26070000000000004,-10.208556739826104
-0.26169999999999993,-10.208556739826104
-0.26270000000000004,-10.25241279012192
-0.26369999999999993,-10.296268840417738
-0.26470000000000005,-10.296268840417738
-0.26569999999999994,-10.296268840417738
-0.26670000000000005,-10.296268840417738
-0.26769999999999994,-10.382566229709504
-0.26870000000000005,-10.340124890713554
-0.26969999999999994,-10.382566229709504
-0.27070000000000005,-10.42642228000532
-0.27169999999999994,-10.42642228000532
-0.27270000000000005,-10.514134380596953
-0.27369999999999994,-10.514134380596953
-0.27470000000000006,-10.557990430892769
-0.27569999999999995,-10.601846481188586
-0.27670000000000006,-10.644287820184536
-0.27769999999999995,-10.688143870480351
-0.27870000000000006,-10.731999920776168
-0.27969999999999995,-10.731999920776168
-0.28070000000000006,-10.731999920776168
-0.28169999999999995,-10.775855971071984
-0.28270000000000006,-10.775855971071984
-0.28369999999999995,-10.775855971071984
-0.28470000000000006,-10.819712021367803
-0.28569999999999995,-10.863568071663616
-0.28670000000000007,-10.906009410659568
-0.28769999999999996,-10.949865460955383
-0.28870000000000007,-10.993721511251199
-0.28969999999999996,-11.037577561547016
-0.29070000000000007,-11.081433611842833
-0.29169999999999996,-11.081433611842833
-0.29270000000000007,-11.123874950838783
-0.29369999999999996,-11.123874950838783
-0.2947000000000001,-11.081433611842833
-0.29569999999999996,-11.081433611842833
-0.2967000000000001,-11.081433611842833
-0.29769999999999996,-11.123874950838783
-0.2987000000000001,-11.123874950838783
-0.29969999999999997,-11.1677310011346
-0.3007000000000001,-11.211587051430415
-0.30169999999999997,-11.255443101726232
-0.3027000000000001,-11.255443101726232
-0.30369999999999997,-11.299299152022046
-0.3047000000000001,-11.385596541313816
-0.30569999999999997,-11.385596541313816
-0.3067000000000001,-11.385596541313816
-0.3077,-11.42945259160963
-0.3087000000000001,-11.473308641905447
-0.3097,-11.473308641905447
-0.3107000000000001,-11.473308641905447
-0.3117,-11.473308641905447
-0.3127000000000001,-11.517164692201263
-0.3137,-11.517164692201263
-0.3147000000000001,-11.56102074249708
-0.3157,-11.647318131788847
-0.3167000000000001,-11.691174182084664
-0.3177,-11.691174182084664
-0.3187000000000001,-11.73503023238048
-0.3197,-11.778886282676295
-0.3207000000000001,-11.82274233297211
-0.3217,-11.82274233297211
-0.3227000000000001,-11.86659838326793
-0.3237,-11.909039722263879
-0.3247000000000001,-11.909039722263879
-0.3257,-11.909039722263879
-0.3267000000000001,-11.952895772559694
-0.3277,-11.996751822855511
-0.3287000000000001,-11.996751822855511
-0.3297,-12.084463923447142
-0.3307000000000001,-12.12831997374296
-0.3317,-12.170761312738911
-0.3327000000000001,-12.170761312738911
-0.3337,-12.170761312738911
-0.3347000000000001,-12.214617363034726
-0.3357,-12.258473413330542
-0.3367000000000001,-12.214617363034726
-0.3377,-12.258473413330542
-0.3387000000000001,-12.302329463626359
-0.3397,-12.302329463626359
-0.3407000000000001,-12.302329463626359
-0.3417,-12.346185513922174
-0.3427000000000001,-12.346185513922174
-0.3437,-12.390041564217992
-0.3447000000000001,-12.390041564217992
-0.3457,-12.432482903213943
-0.3467000000000001,-12.476338953509758
-0.3477,-12.476338953509758
-0.3487000000000001,-12.520195003805576
-0.3497,-12.56405105410139
-0.3507000000000001,-12.56405105410139
-0.3517,-12.56405105410139
-0.3527000000000001,-12.607907104397206
-0.3537,-12.607907104397206
-0.3547000000000001,-12.651763154693022
-0.3557,-12.651763154693022
-0.35670000000000013,-12.694204493688973
-0.3577,-12.694204493688973
-0.35870000000000013,-12.73806054398479
-0.3597,-12.781916594280606
-0.36070000000000013,-12.781916594280606
-0.3617,-12.869628694872238
-0.3626999999999999,-12.825772644576423
-0.3637,-12.913484745168056
-0.3646999999999999,-12.955926084164007
-0.3657,-12.955926084164007
-0.3666999999999999,-12.955926084164007
-0.3677,-13.043638184755638
-0.3686999999999999,-13.087494235051453
-0.36970000000000003,-13.087494235051453
-0.3706999999999999,-13.13135028534727
-0.37170000000000003,-13.13135028534727
-0.3726999999999999,-13.175206335643086
-0.37370000000000003,-13.175206335643086
-0.3746999999999999,-13.217647674639037
-0.37570000000000003,-13.261503724934855
-0.3766999999999999,-13.30535977523067
-0.37770000000000004,-13.30535977523067
-0.3786999999999999,-13.30535977523067
-0.37970000000000004,-13.3930718758223
-0.3806999999999999,-13.3930718758223
-0.38170000000000004,-13.3930718758223
-0.38269999999999993,-13.3930718758223
-0.38370000000000004,-13.3930718758223
-0.38469999999999993,-13.3930718758223
-0.38570000000000004,-13.3930718758223
-0.38669999999999993,-13.436927926118118
-0.38770000000000004,-13.47936926511407
-0.38869999999999993,-13.47936926511407
-0.38970000000000005,-13.567081365705702
-0.39069999999999994,-13.567081365705702
-0.39170000000000005,-13.654793466297335
-0.39269999999999994,-13.654793466297335
-0.39370000000000005,-13.698649516593148
-0.39469999999999994,-13.784946905884919
-0.39570000000000005,-13.828802956180734
-0.39669999999999994,-13.828802956180734
-0.39770000000000005,-13.872659006476551
-0.39869999999999994,-13.916515056772363
-0.39970000000000006,-13.916515056772363
-0.40069999999999995,-13.916515056772363
-0.40170000000000006,-13.960371107068182
-0.40269999999999995,-14.002812446064135
-0.40370000000000006,-13.960371107068182
-0.40469999999999995,-14.046668496359947
-0.40570000000000006,-14.046668496359947
-0.40669999999999995,-14.13438059695158
-0.40770000000000006,-14.175407224647667
-0.40869999999999995,-14.217848563643619
-0.40970000000000006,-14.26028990263957
-0.41069999999999995,-14.30273124163552
-0.41170000000000007,-14.30273124163552
-0.41269999999999996,-14.345172580631472
-0.41370000000000007,-14.345172580631472
-0.41469999999999996,-14.345172580631472
-0.41570000000000007,-14.401761032626075
-0.41669999999999996,-14.401761032626075
-0.41770000000000007,-14.444202371622024
-0.41869999999999996,-14.486643710617974
-0.4197000000000001,-14.529085049613924
-0.42069999999999996,-14.65640906660178
-0.4217000000000001,-14.783733083589633
-0.42269999999999996,-14.783733083589633
-0.4237000000000001,-14.826174422585586
-0.42469999999999997,-14.868615761581536
-0.4257000000000001,-14.868615761581536
-0.42669999999999997,-14.868615761581536
-0.4277000000000001,-14.925204213576137
-0.42869999999999997,-14.967645552572087
-0.4297000000000001,-14.967645552572087
-0.43069999999999997,-14.967645552572087
-0.4317000000000001,-15.01008689156804
-0.4327,-15.05252823056399
-0.4337000000000001,-15.05252823056399
-0.4347,-15.094969569559943
-0.4357000000000001,-15.137410908555893
-0.4367,-15.179852247551842
-0.4377000000000001,-15.179852247551842
-0.4387,-15.222293586547794
-0.4397000000000001,-15.264734925543747
-0.4407,-15.307176264539699
-0.4417000000000001,-15.349617603535648
-0.4427,-15.349617603535648
-0.4437000000000001,-15.448647394526201
-0.4447,-15.3920589425316
-0.4457000000000001,-15.3920589425316
-0.4467,-15.448647394526201
-0.4477000000000001,-15.448647394526201
-0.4487,-15.491088733522153
-0.4497000000000001,-15.575971411514052
-0.4507,-15.575971411514052
-0.4517000000000001,-15.70329542850191
-0.4527,-15.70329542850191
-0.4537000000000001,-15.74573676749786
-0.4547,-15.830619445489761
-0.4557000000000001,-15.91550212348166
-0.4567,-15.91550212348166
-0.4577000000000001,-16.014531914472215
-0.4587,-16.056973253468165
-0.4597000000000001,-16.099414592464115
-0.4607,-16.099414592464115
-0.4617000000000001,-16.184297270456018
-0.4627,-16.22673860945197
-0.4637000000000001,-16.22673860945197
-0.4647,-16.311621287443874
-0.4657000000000001,-16.311621287443874
-0.4667,-16.396503965435777
-0.4677000000000001,-16.438945304431726
-0.4687,-16.53797509542228
-0.4697000000000001,-16.622857773414182
-0.4707,-16.665299112410132
-0.4717000000000001,-16.70774045140608
-0.4727,-16.750181790402035
-0.4737000000000001,-16.792623129397985
-0.4747,-16.877505807389888
-0.4757000000000001,-16.877505807389888
-0.4767,-16.919947146385837
-0.4777000000000001,-16.962388485381787
-0.4787,-17.061418276372343
-0.4797000000000001,-17.103859615368293
-0.4807,-17.188742293360193
-0.48170000000000013,-17.2736249713521
-0.4827,-17.316066310348052
-0.48370000000000013,-17.358507649344002
-0.4847,-17.48583166633185
-0.48570000000000013,-17.542420118326454
-0.4867,-17.584861457322408
-0.4876999999999999,-17.669744135314307
-0.4887,-17.71218547431026
-0.4896999999999999,-17.75462681330621
-0.4907,-17.797068152302163
-0.4916999999999999,-17.839509491298113
-0.4927,-17.924392169290012
-0.4936999999999999,-17.924392169290012
-0.49470000000000003,-18.009274847281915
-0.4956999999999999,-18.10830463827247
-0.49670000000000003,-18.19318731626437
-0.4976999999999999,-18.27806999425627
-0.49870000000000003,-18.362952672248177
-0.4996999999999999,-18.44783535024008
-0.5007,-18.589306480226583
-0.5016999999999999,-18.631747819222536
-0.5027,-18.759071836210385
-0.5036999999999999,-18.843954514202288
-0.5047,-18.92883719219419
-0.5056999999999999,-18.97127853119014
-0.5067,-19.056161209182044
-0.5076999999999999,-19.155191000172596
-0.5087,-19.2400736781645
