July 11, 2024   10:52:05
Cyclic Voltammetry
File: c:/users/guazh/data/20240709_batch67/2024-07-10-exp10\exp10-2024-07-11t10_31_30-arkoh\exp10_cv_50mvs_efin_-1800mv.bin
Data Source:  Experiment
Instrument Model:  CHI760E
Header: CV ran at 50 mVs
Note: 

Init E (V) = -1
High E (V) = -1
Low E (V) = -1.8
Final E (V) = -1
Init P/N = N
Scan Rate (V/s) = 0.05
Segment = 7
Sample Interval (V) = 0.001
Quiet Time (sec) = 60
Sensitivity (A/V) = 0.001
Comp R (ohm) = 1.6

Results:

Channel 1:
Segment 1:

Segment 2:

Segment 3:

Segment 4:

Segment 5:

Segment 6:

Segment 7:

Potential/V, Current/A

-1.000, 7.577e-8
-1.001, 4.223e-8
-1.002, 7.774e-8
-1.003, 2.070e-7
-1.004, 2.445e-7
-1.005, 2.149e-7
-1.006, 2.948e-7
-1.007, 2.198e-7
-1.008, 2.030e-7
-1.009, 3.145e-7
-1.010, 2.859e-7
-1.011, 3.264e-7
-1.012, 3.402e-7
-1.013, 2.524e-7
-1.014, 3.984e-7
-1.015, 3.846e-7
-1.016, 2.474e-7
-1.017, 3.372e-7
-1.018, 3.984e-7
-1.019, 3.865e-7
-1.020, 3.787e-7
-1.021, 3.323e-7
-1.022, 3.757e-7
-1.023, 3.422e-7
-1.024, 4.605e-7
-1.025, 3.994e-7
-1.026, 3.777e-7
-1.027, 3.895e-7
-1.028, 3.885e-7
-1.029, 5.286e-7
-1.030, 4.457e-7
-1.031, 3.609e-7
-1.032, 4.576e-7
-1.033, 5.118e-7
-1.034, 5.316e-7
-1.035, 4.457e-7
-1.036, 4.882e-7
-1.037, 4.911e-7
-1.038, 5.779e-7
-1.039, 5.927e-7
-1.040, 4.832e-7
-1.041, 5.760e-7
-1.042, 5.296e-7
-1.043, 5.918e-7
-1.044, 5.878e-7
-1.045, 6.391e-7
-1.046, 5.345e-7
-1.047, 5.099e-7
-1.048, 6.135e-7
-1.049, 6.411e-7
-1.050, 5.474e-7
-1.051, 4.872e-7
-1.052, 6.105e-7
-1.053, 5.375e-7
-1.054, 6.016e-7
-1.055, 5.789e-7
-1.056, 6.145e-7
-1.057, 6.322e-7
-1.058, 5.750e-7
-1.059, 5.720e-7
-1.060, 6.569e-7
-1.061, 5.997e-7
-1.062, 6.154e-7
-1.063, 6.727e-7
-1.064, 6.322e-7
-1.065, 6.539e-7
-1.066, 6.440e-7
-1.067, 7.309e-7
-1.068, 6.273e-7
-1.069, 6.204e-7
-1.070, 7.575e-7
-1.071, 6.421e-7
-1.072, 7.397e-7
-1.073, 7.023e-7
-1.074, 6.421e-7
-1.075, 7.102e-7
-1.076, 7.230e-7
-1.077, 6.411e-7
-1.078, 6.815e-7
-1.079, 7.516e-7
-1.080, 8.068e-7
-1.081, 7.042e-7
-1.082, 7.240e-7
-1.083, 6.855e-7
-1.084, 7.693e-7
-1.085, 7.920e-7
-1.086, 8.404e-7
-1.087, 7.644e-7
-1.088, 7.980e-7
-1.089, 8.137e-7
-1.090, 7.960e-7
-1.091, 7.437e-7
-1.092, 7.664e-7
-1.093, 8.167e-7
-1.094, 8.729e-7
-1.095, 8.917e-7
-1.096, 7.920e-7
-1.097, 8.157e-7
-1.098, 8.542e-7
-1.099, 9.311e-7
-1.100, 8.581e-7
-1.101, 9.006e-7
-1.102, 8.098e-7
-1.103, 9.351e-7
-1.104, 8.789e-7
-1.105, 8.759e-7
-1.106, 8.601e-7
-1.107, 8.946e-7
-1.108, 8.927e-7
-1.109, 9.746e-7
-1.110, 1.017e-6
-1.111, 9.233e-7
-1.112, 8.157e-7
-1.113, 8.927e-7
-1.114, 1.068e-6
-1.115, 9.459e-7
-1.116, 9.450e-7
-1.117, 9.588e-7
-1.118, 1.019e-6
-1.119, 1.057e-6
-1.120, 9.677e-7
-1.121, 9.943e-7
-1.122, 1.001e-6
-1.123, 1.032e-6
-1.124, 1.060e-6
-1.125, 1.057e-6
-1.126, 1.011e-6
-1.127, 1.033e-6
-1.128, 1.059e-6
-1.129, 1.141e-6
-1.130, 1.081e-6
-1.131, 1.067e-6
-1.132, 1.137e-6
-1.133, 1.106e-6
-1.134, 1.093e-6
-1.135, 1.115e-6
-1.136, 1.082e-6
-1.137, 1.135e-6
-1.138, 1.194e-6
-1.139, 1.111e-6
-1.140, 1.164e-6
-1.141, 1.102e-6
-1.142, 1.137e-6
-1.143, 1.100e-6
-1.144, 1.075e-6
-1.145, 1.126e-6
-1.146, 1.185e-6
-1.147, 1.213e-6
-1.148, 1.140e-6
-1.149, 1.188e-6
-1.150, 1.200e-6
-1.151, 1.160e-6
-1.152, 1.221e-6
-1.153, 1.216e-6
-1.154, 1.219e-6
-1.155, 1.292e-6
-1.156, 1.206e-6
-1.157, 1.248e-6
-1.158, 1.290e-6
-1.159, 1.334e-6
-1.160, 1.337e-6
-1.161, 1.275e-6
-1.162, 1.235e-6
-1.163, 1.282e-6
-1.164, 1.362e-6
-1.165, 1.244e-6
-1.166, 1.293e-6
-1.167, 1.318e-6
-1.168, 1.338e-6
-1.169, 1.374e-6
-1.170, 1.220e-6
-1.171, 1.248e-6
-1.172, 1.364e-6
-1.173, 1.424e-6
-1.174, 1.496e-6
-1.175, 1.343e-6
-1.176, 1.335e-6
-1.177, 1.454e-6
-1.178, 1.366e-6
-1.179, 1.436e-6
-1.180, 1.324e-6
-1.181, 1.421e-6
-1.182, 1.400e-6
-1.183, 1.495e-6
-1.184, 1.470e-6
-1.185, 1.439e-6
-1.186, 1.409e-6
-1.187, 1.438e-6
-1.188, 1.531e-6
-1.189, 1.457e-6
-1.190, 1.545e-6
-1.191, 1.572e-6
-1.192, 1.584e-6
-1.193, 1.556e-6
-1.194, 1.561e-6
-1.195, 1.567e-6
-1.196, 1.607e-6
-1.197, 1.528e-6
-1.198, 1.598e-6
-1.199, 1.570e-6
-1.200, 1.673e-6
-1.201, 1.580e-6
-1.202, 1.603e-6
-1.203, 1.675e-6
-1.204, 1.657e-6
-1.205, 1.662e-6
-1.206, 1.613e-6
-1.207, 1.648e-6
-1.208, 1.712e-6
-1.209, 1.788e-6
-1.210, 1.775e-6
-1.211, 1.679e-6
-1.212, 1.717e-6
-1.213, 1.761e-6
-1.214, 1.808e-6
-1.215, 1.818e-6
-1.216, 1.822e-6
-1.217, 1.816e-6
-1.218, 1.810e-6
-1.219, 1.927e-6
-1.220, 1.782e-6
-1.221, 1.861e-6
-1.222, 1.918e-6
-1.223, 1.896e-6
-1.224, 1.960e-6
-1.225, 1.937e-6
-1.226, 1.963e-6
-1.227, 1.916e-6
-1.228, 2.032e-6
-1.229, 2.097e-6
-1.230, 2.047e-6
-1.231, 2.079e-6
-1.232, 2.072e-6
-1.233, 2.088e-6
-1.234, 2.153e-6
-1.235, 2.169e-6
-1.236, 2.098e-6
-1.237, 2.225e-6
-1.238, 2.304e-6
-1.239, 2.213e-6
-1.240, 2.220e-6
-1.241, 2.240e-6
-1.242, 2.378e-6
-1.243, 2.311e-6
-1.244, 2.376e-6
-1.245, 2.469e-6
-1.246, 2.332e-6
-1.247, 2.441e-6
-1.248, 2.495e-6
-1.249, 2.500e-6
-1.250, 2.572e-6
-1.251, 2.646e-6
-1.252, 2.576e-6
-1.253, 2.682e-6
-1.254, 2.666e-6
-1.255, 2.779e-6
-1.256, 2.738e-6
-1.257, 2.749e-6
-1.258, 2.878e-6
-1.259, 2.920e-6
-1.260, 2.934e-6
-1.261, 2.900e-6
-1.262, 3.049e-6
-1.263, 3.084e-6
-1.264, 3.171e-6
-1.265, 3.144e-6
-1.266, 3.208e-6
-1.267, 3.222e-6
-1.268, 3.348e-6
-1.269, 3.445e-6
-1.270, 3.421e-6
-1.271, 3.481e-6
-1.272, 3.520e-6
-1.273, 3.656e-6
-1.274, 3.789e-6
-1.275, 3.744e-6
-1.276, 3.797e-6
-1.277, 3.923e-6
-1.278, 4.036e-6
-1.279, 4.144e-6
-1.280, 4.135e-6
-1.281, 4.248e-6
-1.282, 4.353e-6
-1.283, 4.442e-6
-1.284, 4.535e-6
-1.285, 4.585e-6
-1.286, 4.732e-6
-1.287, 4.836e-6
-1.288, 5.060e-6
-1.289, 5.120e-6
-1.290, 5.264e-6
-1.291, 5.294e-6
-1.292, 5.387e-6
-1.293, 5.616e-6
-1.294, 5.764e-6
-1.295, 5.776e-6
-1.296, 5.938e-6
-1.297, 6.170e-6
-1.298, 6.292e-6
-1.299, 6.464e-6
-1.300, 6.617e-6
-1.301, 6.764e-6
-1.302, 6.944e-6
-1.303, 7.157e-6
-1.304, 7.281e-6
-1.305, 7.526e-6
-1.306, 7.712e-6
-1.307, 7.830e-6
-1.308, 8.151e-6
-1.309, 8.330e-6
-1.310, 8.556e-6
-1.311, 8.790e-6
-1.312, 8.997e-6
-1.313, 9.262e-6
-1.314, 9.523e-6
-1.315, 9.817e-6
-1.316, 9.978e-6
-1.317, 1.025e-5
-1.318, 1.055e-5
-1.319, 1.092e-5
-1.320, 1.111e-5
-1.321, 1.147e-5
-1.322, 1.170e-5
-1.323, 1.216e-5
-1.324, 1.244e-5
-1.325, 1.271e-5
-1.326, 1.310e-5
-1.327, 1.348e-5
-1.328, 1.384e-5
-1.329, 1.425e-5
-1.330, 1.455e-5
-1.331, 1.500e-5
-1.332, 1.542e-5
-1.333, 1.589e-5
-1.334, 1.629e-5
-1.335, 1.670e-5
-1.336, 1.712e-5
-1.337, 1.760e-5
-1.338, 1.807e-5
-1.339, 1.857e-5
-1.340, 1.906e-5
-1.341, 1.956e-5
-1.342, 2.012e-5
-1.343, 2.065e-5
-1.344, 2.123e-5
-1.345, 2.180e-5
-1.346, 2.229e-5
-1.347, 2.286e-5
-1.348, 2.351e-5
-1.349, 2.413e-5
-1.350, 2.480e-5
-1.351, 2.542e-5
-1.352, 2.601e-5
-1.353, 2.672e-5
-1.354, 2.738e-5
-1.355, 2.819e-5
-1.356, 2.889e-5
-1.357, 2.954e-5
-1.358, 3.031e-5
-1.359, 3.111e-5
-1.360, 3.189e-5
-1.361, 3.262e-5
-1.362, 3.340e-5
-1.363, 3.432e-5
-1.364, 3.526e-5
-1.365, 3.602e-5
-1.366, 3.682e-5
-1.367, 3.770e-5
-1.368, 3.873e-5
-1.369, 3.971e-5
-1.370, 4.053e-5
-1.371, 4.157e-5
-1.372, 4.248e-5
-1.373, 4.357e-5
-1.374, 4.462e-5
-1.375, 4.558e-5
-1.376, 4.664e-5
-1.377, 4.771e-5
-1.378, 4.879e-5
-1.379, 4.998e-5
-1.380, 5.103e-5
-1.381, 5.219e-5
-1.382, 5.336e-5
-1.383, 5.463e-5
-1.384, 5.588e-5
-1.385, 5.706e-5
-1.386, 5.834e-5
-1.387, 5.956e-5
-1.388, 6.094e-5
-1.389, 6.227e-5
-1.390, 6.364e-5
-1.391, 6.498e-5
-1.392, 6.631e-5
-1.393, 6.773e-5
-1.394, 6.918e-5
-1.395, 7.066e-5
-1.396, 7.213e-5
-1.397, 7.349e-5
-1.398, 7.504e-5
-1.399, 7.660e-5
-1.400, 7.812e-5
-1.401, 7.971e-5
-1.402, 8.130e-5
-1.403, 8.296e-5
-1.404, 8.465e-5
-1.405, 8.634e-5
-1.406, 8.801e-5
-1.407, 8.962e-5
-1.408, 9.140e-5
-1.409, 9.324e-5
-1.410, 9.506e-5
-1.411, 9.680e-5
-1.412, 9.856e-5
-1.413, 1.003e-4
-1.414, 1.022e-4
-1.415, 1.041e-4
-1.416, 1.060e-4
-1.417, 1.078e-4
-1.418, 1.099e-4
-1.419, 1.121e-4
-1.420, 1.141e-4
-1.421, 1.160e-4
-1.422, 1.181e-4
-1.423, 1.204e-4
-1.424, 1.226e-4
-1.425, 1.246e-4
-1.426, 1.266e-4
-1.427, 1.291e-4
-1.428, 1.315e-4
-1.429, 1.339e-4
-1.430, 1.361e-4
-1.431, 1.384e-4
-1.432, 1.407e-4
-1.433, 1.428e-4
-1.434, 1.454e-4
-1.435, 1.476e-4
-1.436, 1.499e-4
-1.437, 1.522e-4
-1.438, 1.545e-4
-1.439, 1.569e-4
-1.440, 1.595e-4
-1.441, 1.620e-4
-1.442, 1.644e-4
-1.443, 1.669e-4
-1.444, 1.695e-4
-1.445, 1.721e-4
-1.446, 1.745e-4
-1.447, 1.769e-4
-1.448, 1.797e-4
-1.449, 1.824e-4
-1.450, 1.851e-4
-1.451, 1.877e-4
-1.452, 1.904e-4
-1.453, 1.933e-4
-1.454, 1.964e-4
-1.455, 1.993e-4
-1.456, 2.022e-4
-1.457, 2.054e-4
-1.458, 2.083e-4
-1.459, 2.114e-4
-1.460, 2.145e-4
-1.461, 2.173e-4
-1.462, 2.203e-4
-1.463, 2.235e-4
-1.464, 2.269e-4
-1.465, 2.301e-4
-1.466, 2.332e-4
-1.467, 2.364e-4
-1.468, 2.395e-4
-1.469, 2.426e-4
-1.470, 2.458e-4
-1.471, 2.491e-4
-1.472, 2.524e-4
-1.473, 2.550e-4
-1.474, 2.583e-4
-1.475, 2.616e-4
-1.476, 2.649e-4
-1.477, 2.685e-4
-1.478, 2.717e-4
-1.479, 2.754e-4
-1.480, 2.788e-4
-1.481, 2.821e-4
-1.482, 2.857e-4
-1.483, 2.892e-4
-1.484, 2.931e-4
-1.485, 2.971e-4
-1.486, 3.005e-4
-1.487, 3.041e-4
-1.488, 3.074e-4
-1.489, 3.111e-4
-1.490, 3.147e-4
-1.491, 3.180e-4
-1.492, 3.213e-4
-1.493, 3.251e-4
-1.494, 3.286e-4
-1.495, 3.324e-4
-1.496, 3.360e-4
-1.497, 3.400e-4
-1.498, 3.441e-4
-1.499, 3.480e-4
-1.500, 3.517e-4
-1.501, 3.554e-4
-1.502, 3.584e-4
-1.503, 3.618e-4
-1.504, 3.655e-4
-1.505, 3.689e-4
-1.506, 3.727e-4
-1.507, 3.762e-4
-1.508, 3.792e-4
-1.509, 3.833e-4
-1.510, 3.870e-4
-1.511, 3.903e-4
-1.512, 3.936e-4
-1.513, 3.973e-4
-1.514, 4.014e-4
-1.515, 4.059e-4
-1.516, 4.089e-4
-1.517, 4.129e-4
-1.518, 4.164e-4
-1.519, 4.204e-4
-1.520, 4.246e-4
-1.521, 4.284e-4
-1.522, 4.319e-4
-1.523, 4.368e-4
-1.524, 4.412e-4
-1.525, 4.446e-4
-1.526, 4.485e-4
-1.527, 4.525e-4
-1.528, 4.570e-4
-1.529, 4.609e-4
-1.530, 4.645e-4
-1.531, 4.677e-4
-1.532, 4.718e-4
-1.533, 4.762e-4
-1.534, 4.806e-4
-1.535, 4.853e-4
-1.536, 4.887e-4
-1.537, 4.921e-4
-1.538, 4.954e-4
-1.539, 4.997e-4
-1.540, 5.037e-4
-1.541, 5.077e-4
-1.542, 5.114e-4
-1.543, 5.170e-4
-1.544, 5.211e-4
-1.545, 5.241e-4
-1.546, 5.285e-4
-1.547, 5.340e-4
-1.548, 5.370e-4
-1.549, 5.413e-4
-1.550, 5.457e-4
-1.551, 5.509e-4
-1.552, 5.556e-4
-1.553, 5.599e-4
-1.554, 5.641e-4
-1.555, 5.695e-4
-1.556, 5.751e-4
-1.557, 5.779e-4
-1.558, 5.820e-4
-1.559, 5.877e-4
-1.560, 5.913e-4
-1.561, 5.927e-4
-1.562, 5.980e-4
-1.563, 6.011e-4
-1.564, 6.062e-4
-1.565, 6.120e-4
-1.566, 6.164e-4
-1.567, 6.219e-4
-1.568, 6.270e-4
-1.569, 6.311e-4
-1.570, 6.365e-4
-1.571, 6.416e-4
-1.572, 6.453e-4
-1.573, 6.503e-4
-1.574, 6.566e-4
-1.575, 6.601e-4
-1.576, 6.643e-4
-1.577, 6.689e-4
-1.578, 6.737e-4
-1.579, 6.792e-4
-1.580, 6.830e-4
-1.581, 6.868e-4
-1.582, 6.909e-4
-1.583, 6.956e-4
-1.584, 7.014e-4
-1.585, 7.035e-4
-1.586, 7.004e-4
-1.587, 6.999e-4
-1.588, 7.049e-4
-1.589, 7.072e-4
-1.590, 7.133e-4
-1.591, 7.217e-4
-1.592, 7.265e-4
-1.593, 7.328e-4
-1.594, 7.368e-4
-1.595, 7.428e-4
-1.596, 7.498e-4
-1.597, 7.547e-4
-1.598, 7.618e-4
-1.599, 7.665e-4
-1.600, 7.726e-4
-1.601, 7.780e-4
-1.602, 7.811e-4
-1.603, 7.878e-4
-1.604, 7.943e-4
-1.605, 8.002e-4
-1.606, 8.098e-4
-1.607, 8.142e-4
-1.608, 8.217e-4
-1.609, 8.284e-4
-1.610, 8.330e-4
-1.611, 8.388e-4
-1.612, 8.425e-4
-1.613, 8.521e-4
-1.614, 8.567e-4
-1.615, 8.623e-4
-1.616, 8.691e-4
-1.617, 8.793e-4
-1.618, 8.830e-4
-1.619, 8.885e-4
-1.620, 8.966e-4
-1.621, 9.040e-4
-1.622, 9.116e-4
-1.623, 9.161e-4
-1.624, 9.224e-4
-1.625, 9.319e-4
-1.626, 9.382e-4
-1.627, 9.459e-4
-1.628, 9.484e-4
-1.629, 9.571e-4
-1.630, 9.628e-4
-1.631, 9.694e-4
-1.632, 9.755e-4
-1.633, 9.839e-4
-1.634, 9.937e-4
-1.635, 1.001e-3
-1.636, 1.009e-3
-1.637, 1.017e-3
-1.638, 1.025e-3
-1.639, 1.032e-3
-1.640, 1.041e-3
-1.641, 1.045e-3
-1.642, 1.053e-3
-1.643, 1.055e-3
-1.644, 1.055e-3
-1.645, 1.060e-3
-1.646, 1.066e-3
-1.647, 1.072e-3
-1.648, 1.081e-3
-1.649, 1.088e-3
-1.650, 1.097e-3
-1.651, 1.107e-3
-1.652, 1.117e-3
-1.653, 1.124e-3
-1.654, 1.133e-3
-1.655, 1.143e-3
-1.656, 1.146e-3
-1.657, 1.153e-3
-1.658, 1.161e-3
-1.659, 1.173e-3
-1.660, 1.178e-3
-1.661, 1.186e-3
-1.662, 1.190e-3
-1.663, 1.198e-3
-1.664, 1.206e-3
-1.665, 1.214e-3
-1.666, 1.220e-3
-1.667, 1.224e-3
-1.668, 1.231e-3
-1.669, 1.241e-3
-1.670, 1.245e-3
-1.671, 1.253e-3
-1.672, 1.257e-3
-1.673, 1.265e-3
-1.674, 1.275e-3
-1.675, 1.284e-3
-1.676, 1.297e-3
-1.677, 1.306e-3
-1.678, 1.314e-3
-1.679, 1.322e-3
-1.680, 1.332e-3
-1.681, 1.340e-3
-1.682, 1.349e-3
-1.683, 1.359e-3
-1.684, 1.369e-3
-1.685, 1.379e-3
-1.686, 1.394e-3
-1.687, 1.408e-3
-1.688, 1.417e-3
-1.689, 1.429e-3
-1.690, 1.438e-3
-1.691, 1.451e-3
-1.692, 1.464e-3
-1.693, 1.477e-3
-1.694, 1.490e-3
-1.695, 1.499e-3
-1.696, 1.511e-3
-1.697, 1.523e-3
-1.698, 1.532e-3
-1.699, 1.537e-3
-1.700, 1.546e-3
-1.701, 1.553e-3
-1.702, 1.566e-3
-1.703, 1.581e-3
-1.704, 1.588e-3
-1.705, 1.600e-3
-1.706, 1.615e-3
-1.707, 1.623e-3
-1.708, 1.639e-3
-1.709, 1.644e-3
-1.710, 1.652e-3
-1.711, 1.663e-3
-1.712, 1.675e-3
-1.713, 1.687e-3
-1.714, 1.696e-3
-1.715, 1.715e-3
-1.716, 1.725e-3
-1.717, 1.735e-3
-1.718, 1.740e-3
-1.719, 1.747e-3
-1.720, 1.756e-3
-1.721, 1.762e-3
-1.722, 1.773e-3
-1.723, 1.789e-3
-1.724, 1.796e-3
-1.725, 1.808e-3
-1.726, 1.812e-3
-1.727, 1.820e-3
-1.728, 1.829e-3
-1.729, 1.841e-3
-1.730, 1.857e-3
-1.731, 1.872e-3
-1.732, 1.884e-3
-1.733, 1.896e-3
-1.734, 1.910e-3
-1.735, 1.928e-3
-1.736, 1.937e-3
-1.737, 1.946e-3
-1.738, 1.964e-3
-1.739, 1.978e-3
-1.740, 1.992e-3
-1.741, 2.013e-3
-1.742, 2.026e-3
-1.743, 2.038e-3
-1.744, 2.049e-3
-1.745, 2.054e-3
-1.746, 2.073e-3
-1.747, 2.081e-3
-1.748, 2.100e-3
-1.749, 2.108e-3
-1.750, 2.130e-3
-1.751, 2.138e-3
-1.752, 2.156e-3
-1.753, 2.170e-3
-1.754, 2.180e-3
-1.755, 2.198e-3
-1.756, 2.222e-3
-1.757, 2.239e-3
-1.758, 2.252e-3
-1.759, 2.274e-3
-1.760, 2.293e-3
-1.761, 2.312e-3
-1.762, 2.326e-3
-1.763, 2.350e-3
-1.764, 2.376e-3
-1.765, 2.396e-3
-1.766, 2.420e-3
-1.767, 2.431e-3
-1.768, 2.445e-3
-1.769, 2.461e-3
-1.770, 2.484e-3
-1.771, 2.527e-3
-1.772, 2.552e-3
-1.773, 2.571e-3
-1.774, 2.578e-3
-1.775, 2.603e-3
-1.776, 2.615e-3
-1.777, 2.642e-3
-1.778, 2.669e-3
-1.779, 2.702e-3
-1.780, 2.720e-3
-1.781, 2.735e-3
-1.782, 2.745e-3
-1.783, 2.755e-3
-1.784, 2.777e-3
-1.785, 2.794e-3
-1.786, 2.809e-3
-1.787, 2.820e-3
-1.788, 2.839e-3
-1.789, 2.856e-3
-1.790, 2.875e-3
-1.791, 2.885e-3
-1.792, 2.911e-3
-1.793, 2.934e-3
-1.794, 2.967e-3
-1.795, 2.987e-3
-1.796, 3.010e-3
-1.797, 3.027e-3
-1.798, 3.040e-3
-1.799, 3.064e-3
-1.800, 3.075e-3
-1.799, 3.073e-3
-1.798, 3.063e-3
-1.797, 3.049e-3
-1.796, 3.023e-3
-1.795, 3.001e-3
-1.794, 2.981e-3
-1.793, 2.965e-3
-1.792, 2.943e-3
-1.791, 2.918e-3
-1.790, 2.901e-3
-1.789, 2.875e-3
-1.788, 2.853e-3
-1.787, 2.838e-3
-1.786, 2.829e-3
-1.785, 2.815e-3
-1.784, 2.796e-3
-1.783, 2.774e-3
-1.782, 2.756e-3
-1.781, 2.730e-3
-1.780, 2.741e-3
-1.779, 2.711e-3
-1.778, 2.701e-3
-1.777, 2.700e-3
-1.776, 2.686e-3
-1.775, 2.680e-3
-1.774, 2.666e-3
-1.773, 2.655e-3
-1.772, 2.635e-3
-1.771, 2.622e-3
-1.770, 2.618e-3
-1.769, 2.602e-3
-1.768, 2.600e-3
-1.767, 2.579e-3
-1.766, 2.568e-3
-1.765, 2.541e-3
-1.764, 2.523e-3
-1.763, 2.512e-3
-1.762, 2.498e-3
-1.761, 2.490e-3
-1.760, 2.481e-3
-1.759, 2.460e-3
-1.758, 2.436e-3
-1.757, 2.423e-3
-1.756, 2.397e-3
-1.755, 2.397e-3
-1.754, 2.374e-3
-1.753, 2.356e-3
-1.752, 2.355e-3
-1.751, 2.339e-3
-1.750, 2.344e-3
-1.749, 2.324e-3
-1.748, 2.315e-3
-1.747, 2.297e-3
-1.746, 2.279e-3
-1.745, 2.259e-3
-1.744, 2.246e-3
-1.743, 2.228e-3
-1.742, 2.221e-3
-1.741, 2.203e-3
-1.740, 2.189e-3
-1.739, 2.174e-3
-1.738, 2.157e-3
-1.737, 2.135e-3
-1.736, 2.107e-3
-1.735, 2.112e-3
-1.734, 2.093e-3
-1.733, 2.068e-3
-1.732, 2.052e-3
-1.731, 2.034e-3
-1.730, 2.019e-3
-1.729, 2.005e-3
-1.728, 1.994e-3
-1.727, 1.983e-3
-1.726, 1.982e-3
-1.725, 1.968e-3
-1.724, 1.958e-3
-1.723, 1.948e-3
-1.722, 1.930e-3
-1.721, 1.912e-3
-1.720, 1.904e-3
-1.719, 1.882e-3
-1.718, 1.867e-3
-1.717, 1.843e-3
-1.716, 1.829e-3
-1.715, 1.817e-3
-1.714, 1.802e-3
-1.713, 1.789e-3
-1.712, 1.780e-3
-1.711, 1.770e-3
-1.710, 1.760e-3
-1.709, 1.758e-3
-1.708, 1.745e-3
-1.707, 1.731e-3
-1.706, 1.713e-3
-1.705, 1.701e-3
-1.704, 1.685e-3
-1.703, 1.670e-3
-1.702, 1.656e-3
-1.701, 1.646e-3
-1.700, 1.636e-3
-1.699, 1.623e-3
-1.698, 1.612e-3
-1.697, 1.597e-3
-1.696, 1.586e-3
-1.695, 1.569e-3
-1.694, 1.557e-3
-1.693, 1.543e-3
-1.692, 1.528e-3
-1.691, 1.520e-3
-1.690, 1.506e-3
-1.689, 1.490e-3
-1.688, 1.476e-3
-1.687, 1.468e-3
-1.686, 1.454e-3
-1.685, 1.441e-3
-1.684, 1.428e-3
-1.683, 1.419e-3
-1.682, 1.405e-3
-1.681, 1.398e-3
-1.680, 1.388e-3
-1.679, 1.377e-3
-1.678, 1.361e-3
-1.677, 1.341e-3
-1.676, 1.350e-3
-1.675, 1.337e-3
-1.674, 1.327e-3
-1.673, 1.317e-3
-1.672, 1.305e-3
-1.671, 1.295e-3
-1.670, 1.284e-3
-1.669, 1.271e-3
-1.668, 1.260e-3
-1.667, 1.248e-3
-1.666, 1.235e-3
-1.665, 1.220e-3
-1.664, 1.205e-3
-1.663, 1.197e-3
-1.662, 1.183e-3
-1.661, 1.171e-3
-1.660, 1.165e-3
-1.659, 1.153e-3
-1.658, 1.141e-3
-1.657, 1.129e-3
-1.656, 1.117e-3
-1.655, 1.106e-3
-1.654, 1.099e-3
-1.653, 1.093e-3
-1.652, 1.088e-3
-1.651, 1.081e-3
-1.650, 1.075e-3
-1.649, 1.068e-3
-1.648, 1.058e-3
-1.647, 1.051e-3
-1.646, 1.045e-3
-1.645, 1.032e-3
-1.644, 1.022e-3
-1.643, 1.012e-3
-1.642, 9.989e-4
-1.641, 9.909e-4
-1.640, 9.792e-4
-1.639, 9.656e-4
-1.638, 9.572e-4
-1.637, 9.479e-4
-1.636, 9.418e-4
-1.635, 9.339e-4
-1.634, 9.285e-4
-1.633, 9.184e-4
-1.632, 9.109e-4
-1.631, 9.050e-4
-1.630, 8.945e-4
-1.629, 8.859e-4
-1.628, 8.767e-4
-1.627, 8.675e-4
-1.626, 8.583e-4
-1.625, 8.494e-4
-1.624, 8.413e-4
-1.623, 8.313e-4
-1.622, 8.238e-4
-1.621, 8.152e-4
-1.620, 8.129e-4
-1.619, 8.061e-4
-1.618, 7.982e-4
-1.617, 7.901e-4
-1.616, 7.799e-4
-1.615, 7.685e-4
-1.614, 7.632e-4
-1.613, 7.543e-4
-1.612, 7.454e-4
-1.611, 7.365e-4
-1.610, 7.296e-4
-1.609, 7.247e-4
-1.608, 7.202e-4
-1.607, 7.140e-4
-1.606, 7.089e-4
-1.605, 7.000e-4
-1.604, 6.940e-4
-1.603, 6.873e-4
-1.602, 6.816e-4
-1.601, 6.747e-4
-1.600, 6.672e-4
-1.599, 6.608e-4
-1.598, 6.535e-4
-1.597, 6.476e-4
-1.596, 6.394e-4
-1.595, 6.325e-4
-1.594, 6.261e-4
-1.593, 6.204e-4
-1.592, 6.140e-4
-1.591, 6.063e-4
-1.590, 5.995e-4
-1.589, 5.943e-4
-1.588, 5.878e-4
-1.587, 5.807e-4
-1.586, 5.744e-4
-1.585, 5.693e-4
-1.584, 5.639e-4
-1.583, 5.569e-4
-1.582, 5.509e-4
-1.581, 5.471e-4
-1.580, 5.390e-4
-1.579, 5.324e-4
-1.578, 5.263e-4
-1.577, 5.197e-4
-1.576, 5.148e-4
-1.575, 5.080e-4
-1.574, 5.002e-4
-1.573, 4.952e-4
-1.572, 4.903e-4
-1.571, 4.842e-4
-1.570, 4.794e-4
-1.569, 4.722e-4
-1.568, 4.681e-4
-1.567, 4.636e-4
-1.566, 4.585e-4
-1.565, 4.536e-4
-1.564, 4.479e-4
-1.563, 4.431e-4
-1.562, 4.383e-4
-1.561, 4.326e-4
-1.560, 4.285e-4
-1.559, 4.233e-4
-1.558, 4.170e-4
-1.557, 4.122e-4
-1.556, 4.066e-4
-1.555, 4.013e-4
-1.554, 3.959e-4
-1.553, 3.904e-4
-1.552, 3.857e-4
-1.551, 3.811e-4
-1.550, 3.769e-4
-1.549, 3.711e-4
-1.548, 3.660e-4
-1.547, 3.613e-4
-1.546, 3.558e-4
-1.545, 3.515e-4
-1.544, 3.473e-4
-1.543, 3.419e-4
-1.542, 3.378e-4
-1.541, 3.329e-4
-1.540, 3.290e-4
-1.539, 3.247e-4
-1.538, 3.199e-4
-1.537, 3.162e-4
-1.536, 3.132e-4
-1.535, 3.077e-4
-1.534, 3.043e-4
-1.533, 2.997e-4
-1.532, 2.960e-4
-1.531, 2.927e-4
-1.530, 2.879e-4
-1.529, 2.842e-4
-1.528, 2.802e-4
-1.527, 2.765e-4
-1.526, 2.720e-4
-1.525, 2.683e-4
-1.524, 2.638e-4
-1.523, 2.599e-4
-1.522, 2.564e-4
-1.521, 2.531e-4
-1.520, 2.487e-4
-1.519, 2.451e-4
-1.518, 2.417e-4
-1.517, 2.384e-4
-1.516, 2.343e-4
-1.515, 2.304e-4
-1.514, 2.271e-4
-1.513, 2.234e-4
-1.512, 2.198e-4
-1.511, 2.158e-4
-1.510, 2.123e-4
-1.509, 2.087e-4
-1.508, 2.057e-4
-1.507, 2.020e-4
-1.506, 1.989e-4
-1.505, 1.958e-4
-1.504, 1.924e-4
-1.503, 1.897e-4
-1.502, 1.860e-4
-1.501, 1.831e-4
-1.500, 1.798e-4
-1.499, 1.765e-4
-1.498, 1.739e-4
-1.497, 1.709e-4
-1.496, 1.681e-4
-1.495, 1.655e-4
-1.494, 1.621e-4
-1.493, 1.597e-4
-1.492, 1.567e-4
-1.491, 1.541e-4
-1.490, 1.517e-4
-1.489, 1.486e-4
-1.488, 1.463e-4
-1.487, 1.436e-4
-1.486, 1.407e-4
-1.485, 1.383e-4
-1.484, 1.362e-4
-1.483, 1.336e-4
-1.482, 1.315e-4
-1.481, 1.288e-4
-1.480, 1.262e-4
-1.479, 1.237e-4
-1.478, 1.214e-4
-1.477, 1.189e-4
-1.476, 1.171e-4
-1.475, 1.148e-4
-1.474, 1.123e-4
-1.473, 1.101e-4
-1.472, 1.081e-4
-1.471, 1.059e-4
-1.470, 1.036e-4
-1.469, 1.017e-4
-1.468, 9.937e-5
-1.467, 9.742e-5
-1.466, 9.577e-5
-1.465, 9.366e-5
-1.464, 9.170e-5
-1.463, 8.983e-5
-1.462, 8.825e-5
-1.461, 8.640e-5
-1.460, 8.468e-5
-1.459, 8.296e-5
-1.458, 8.139e-5
-1.457, 7.968e-5
-1.456, 7.810e-5
-1.455, 7.657e-5
-1.454, 7.491e-5
-1.453, 7.343e-5
-1.452, 7.220e-5
-1.451, 7.064e-5
-1.450, 6.899e-5
-1.449, 6.756e-5
-1.448, 6.595e-5
-1.447, 6.485e-5
-1.446, 6.341e-5
-1.445, 6.203e-5
-1.444, 6.073e-5
-1.443, 5.933e-5
-1.442, 5.801e-5
-1.441, 5.680e-5
-1.440, 5.544e-5
-1.439, 5.415e-5
-1.438, 5.295e-5
-1.437, 5.181e-5
-1.436, 5.074e-5
-1.435, 4.972e-5
-1.434, 4.849e-5
-1.433, 4.732e-5
-1.432, 4.626e-5
-1.431, 4.537e-5
-1.430, 4.442e-5
-1.429, 4.341e-5
-1.428, 4.232e-5
-1.427, 4.135e-5
-1.426, 4.047e-5
-1.425, 3.951e-5
-1.424, 3.839e-5
-1.423, 3.757e-5
-1.422, 3.676e-5
-1.421, 3.592e-5
-1.420, 3.507e-5
-1.419, 3.409e-5
-1.418, 3.333e-5
-1.417, 3.248e-5
-1.416, 3.176e-5
-1.415, 3.102e-5
-1.414, 3.027e-5
-1.413, 2.954e-5
-1.412, 2.879e-5
-1.411, 2.815e-5
-1.410, 2.742e-5
-1.409, 2.675e-5
-1.408, 2.613e-5
-1.407, 2.541e-5
-1.406, 2.479e-5
-1.405, 2.411e-5
-1.404, 2.347e-5
-1.403, 2.298e-5
-1.402, 2.242e-5
-1.401, 2.180e-5
-1.400, 2.123e-5
-1.399, 2.067e-5
-1.398, 2.026e-5
-1.397, 1.973e-5
-1.396, 1.924e-5
-1.395, 1.875e-5
-1.394, 1.824e-5
-1.393, 1.774e-5
-1.392, 1.731e-5
-1.391, 1.687e-5
-1.390, 1.644e-5
-1.389, 1.595e-5
-1.388, 1.557e-5
-1.387, 1.518e-5
-1.386, 1.476e-5
-1.385, 1.435e-5
-1.384, 1.392e-5
-1.383, 1.356e-5
-1.382, 1.326e-5
-1.381, 1.289e-5
-1.380, 1.251e-5
-1.379, 1.216e-5
-1.378, 1.180e-5
-1.377, 1.153e-5
-1.376, 1.122e-5
-1.375, 1.093e-5
-1.374, 1.056e-5
-1.373, 1.033e-5
-1.372, 1.001e-5
-1.371, 9.762e-6
-1.370, 9.434e-6
-1.369, 9.150e-6
-1.368, 8.937e-6
-1.367, 8.695e-6
-1.366, 8.501e-6
-1.365, 8.162e-6
-1.364, 7.908e-6
-1.363, 7.683e-6
-1.362, 7.575e-6
-1.361, 7.313e-6
-1.360, 7.080e-6
-1.359, 6.797e-6
-1.358, 6.685e-6
-1.357, 6.468e-6
-1.356, 6.276e-6
-1.355, 6.112e-6
-1.354, 5.887e-6
-1.353, 5.720e-6
-1.352, 5.621e-6
-1.351, 5.456e-6
-1.350, 5.204e-6
-1.349, 5.040e-6
-1.348, 4.937e-6
-1.347, 4.771e-6
-1.346, 4.560e-6
-1.345, 4.469e-6
-1.344, 4.276e-6
-1.343, 4.201e-6
-1.342, 4.085e-6
-1.341, 3.925e-6
-1.340, 3.772e-6
-1.339, 3.647e-6
-1.338, 3.572e-6
-1.337, 3.437e-6
-1.336, 3.337e-6
-1.335, 3.215e-6
-1.334, 3.082e-6
-1.333, 2.980e-6
-1.332, 2.951e-6
-1.331, 2.806e-6
-1.330, 2.648e-6
-1.329, 2.577e-6
-1.328, 2.504e-6
-1.327, 2.474e-6
-1.326, 2.406e-6
-1.325, 2.211e-6
-1.324, 2.117e-6
-1.323, 2.112e-6
-1.322, 2.057e-6
-1.321, 1.995e-6
-1.320, 1.859e-6
-1.319, 1.770e-6
-1.318, 1.740e-6
-1.317, 1.746e-6
-1.316, 1.590e-6
-1.315, 1.525e-6
-1.314, 1.448e-6
-1.313, 1.428e-6
-1.312, 1.424e-6
-1.311, 1.265e-6
-1.310, 1.217e-6
-1.309, 1.147e-6
-1.308, 1.119e-6
-1.307, 1.079e-6
-1.306, 1.054e-6
-1.305, 9.706e-7
-1.304, 9.450e-7
-1.303, 9.410e-7
-1.302, 8.532e-7
-1.301, 7.792e-7
-1.300, 7.358e-7
-1.299, 7.161e-7
-1.298, 6.638e-7
-1.297, 6.440e-7
-1.296, 6.253e-7
-1.295, 5.513e-7
-1.294, 5.444e-7
-1.293, 4.911e-7
-1.292, 4.556e-7
-1.291, 4.398e-7
-1.290, 3.994e-7
-1.289, 3.234e-7
-1.288, 3.283e-7
-1.287, 3.116e-7
-1.286, 3.145e-7
-1.285, 2.159e-7
-1.284, 1.606e-7
-1.283, 1.567e-7
-1.282, 1.961e-7
-1.281, 1.547e-7
-1.280, 9.748e-8
-1.279, 4.124e-8
-1.278, 9.649e-8
-1.277, 7.774e-8
-1.276, 1.657e-8
-1.275, -3.670e-8
-1.274, -3.473e-8
-1.273, -1.204e-8
-1.272, -6.334e-8
-1.271, -9.787e-8
-1.270, -1.294e-7
-1.269, -1.403e-7
-1.268, -1.067e-7
-1.267, -1.156e-7
-1.266, -1.946e-7
-1.265, -1.985e-7
-1.264, -2.123e-7
-1.263, -1.778e-7
-1.262, -1.867e-7
-1.261, -2.922e-7
-1.260, -2.863e-7
-1.259, -2.834e-7
-1.258, -2.774e-7
-1.257, -2.735e-7
-1.256, -3.445e-7
-1.255, -3.672e-7
-1.254, -3.218e-7
-1.253, -3.307e-7
-1.252, -3.564e-7
-1.251, -3.652e-7
-1.250, -4.086e-7
-1.249, -3.731e-7
-1.248, -3.790e-7
-1.247, -4.452e-7
-1.246, -3.800e-7
-1.245, -3.860e-7
-1.244, -4.264e-7
-1.243, -4.274e-7
-1.242, -4.846e-7
-1.241, -4.432e-7
-1.240, -4.866e-7
-1.239, -4.876e-7
-1.238, -5.162e-7
-1.237, -4.787e-7
-1.236, -4.738e-7
-1.235, -5.182e-7
-1.234, -5.448e-7
-1.233, -5.409e-7
-1.232, -5.330e-7
-1.231, -5.191e-7
-1.230, -5.685e-7
-1.229, -5.991e-7
-1.228, -5.142e-7
-1.227, -5.478e-7
-1.226, -5.843e-7
-1.225, -6.148e-7
-1.224, -6.079e-7
-1.223, -5.813e-7
-1.222, -5.458e-7
-1.221, -6.099e-7
-1.220, -6.454e-7
-1.219, -6.129e-7
-1.218, -6.060e-7
-1.217, -5.596e-7
-1.216, -6.444e-7
-1.215, -6.800e-7
-1.214, -6.869e-7
-1.213, -5.971e-7
-1.212, -5.754e-7
-1.211, -6.849e-7
-1.210, -7.105e-7
-1.209, -6.632e-7
-1.208, -6.553e-7
-1.207, -6.504e-7
-1.206, -7.115e-7
-1.205, -6.967e-7
-1.204, -6.642e-7
-1.203, -6.760e-7
-1.202, -7.175e-7
-1.201, -7.194e-7
-1.200, -7.826e-7
-1.199, -6.711e-7
-1.198, -7.096e-7
-1.197, -6.977e-7
-1.196, -6.731e-7
-1.195, -7.342e-7
-1.194, -7.559e-7
-1.193, -6.918e-7
-1.192, -7.036e-7
-1.191, -7.175e-7
-1.190, -7.323e-7
-1.189, -7.431e-7
-1.188, -7.688e-7
-1.187, -6.918e-7
-1.186, -7.273e-7
-1.185, -7.618e-7
-1.184, -7.816e-7
-1.183, -7.224e-7
-1.182, -7.579e-7
-1.181, -7.717e-7
-1.180, -7.964e-7
-1.179, -6.908e-7
-1.178, -7.569e-7
-1.177, -7.234e-7
-1.176, -7.885e-7
-1.175, -8.072e-7
-1.174, -7.618e-7
-1.173, -7.520e-7
-1.172, -7.549e-7
-1.171, -7.766e-7
-1.170, -8.122e-7
-1.169, -7.668e-7
-1.168, -7.638e-7
-1.167, -7.480e-7
-1.166, -7.845e-7
-1.165, -7.944e-7
-1.164, -7.717e-7
-1.163, -7.461e-7
-1.162, -8.132e-7
-1.161, -7.382e-7
-1.160, -7.806e-7
-1.159, -7.500e-7
-1.158, -7.323e-7
-1.157, -7.303e-7
-1.156, -8.181e-7
-1.155, -7.747e-7
-1.154, -7.727e-7
-1.153, -7.816e-7
-1.152, -7.875e-7
-1.151, -7.678e-7
-1.150, -8.013e-7
-1.149, -8.398e-7
-1.148, -7.727e-7
-1.147, -8.358e-7
-1.146, -7.510e-7
-1.145, -8.240e-7
-1.144, -8.220e-7
-1.143, -8.280e-7
-1.142, -7.431e-7
-1.141, -7.885e-7
-1.140, -8.398e-7
-1.139, -8.329e-7
-1.138, -8.161e-7
-1.137, -7.678e-7
-1.136, -8.230e-7
-1.135, -8.220e-7
-1.134, -8.763e-7
-1.133, -7.816e-7
-1.132, -7.895e-7
-1.131, -8.349e-7
-1.130, -8.230e-7
-1.129, -8.388e-7
-1.128, -7.737e-7
-1.127, -8.339e-7
-1.126, -8.645e-7
-1.125, -8.358e-7
-1.124, -8.388e-7
-1.123, -8.299e-7
-1.122, -7.974e-7
-1.121, -9.000e-7
-1.120, -8.753e-7
-1.119, -7.944e-7
-1.118, -8.062e-7
-1.117, -8.151e-7
-1.116, -8.625e-7
-1.115, -8.506e-7
-1.114, -8.714e-7
-1.113, -8.378e-7
-1.112, -8.497e-7
-1.111, -8.358e-7
-1.110, -8.842e-7
-1.109, -8.497e-7
-1.108, -8.645e-7
-1.107, -8.723e-7
-1.106, -8.704e-7
-1.105, -8.566e-7
-1.104, -8.487e-7
-1.103, -8.437e-7
-1.102, -8.881e-7
-1.101, -9.098e-7
-1.100, -8.487e-7
-1.099, -8.960e-7
-1.098, -8.437e-7
-1.097, -8.566e-7
-1.096, -8.970e-7
-1.095, -8.664e-7
-1.094, -8.921e-7
-1.093, -8.960e-7
-1.092, -8.447e-7
-1.091, -8.773e-7
-1.090, -8.921e-7
-1.089, -9.631e-7
-1.088, -8.605e-7
-1.087, -8.408e-7
-1.086, -8.871e-7
-1.085, -8.921e-7
-1.084, -8.911e-7
-1.083, -8.437e-7
-1.082, -8.645e-7
-1.081, -9.227e-7
-1.080, -8.881e-7
-1.079, -9.671e-7
-1.078, -8.911e-7
-1.077, -8.329e-7
-1.076, -9.079e-7
-1.075, -9.217e-7
-1.074, -9.217e-7
-1.073, -8.950e-7
-1.072, -8.526e-7
-1.071, -8.941e-7
-1.070, -9.019e-7
-1.069, -8.950e-7
-1.068, -8.990e-7
-1.067, -8.398e-7
-1.066, -8.980e-7
-1.065, -9.049e-7
-1.064, -8.802e-7
-1.063, -8.299e-7
-1.062, -8.368e-7
-1.061, -9.463e-7
-1.060, -9.286e-7
-1.059, -8.132e-7
-1.058, -8.378e-7
-1.057, -8.506e-7
-1.056, -9.394e-7
-1.055, -9.256e-7
-1.054, -9.128e-7
-1.053, -8.694e-7
-1.052, -9.019e-7
-1.051, -9.237e-7
-1.050, -9.592e-7
-1.049, -8.921e-7
-1.048, -8.793e-7
-1.047, -8.664e-7
-1.046, -9.404e-7
-1.045, -8.960e-7
-1.044, -8.388e-7
-1.043, -8.941e-7
-1.042, -9.059e-7
-1.041, -9.335e-7
-1.040, -9.039e-7
-1.039, -9.286e-7
-1.038, -8.901e-7
-1.037, -9.207e-7
-1.036, -9.414e-7
-1.035, -9.296e-7
-1.034, -8.773e-7
-1.033, -8.773e-7
-1.032, -9.000e-7
-1.031, -8.793e-7
-1.030, -9.375e-7
-1.029, -9.335e-7
-1.028, -8.960e-7
-1.027, -8.941e-7
-1.026, -8.891e-7
-1.025, -9.000e-7
-1.024, -9.493e-7
-1.023, -9.128e-7
-1.022, -9.089e-7
-1.021, -9.286e-7
-1.020, -9.246e-7
-1.019, -9.473e-7
-1.018, -9.414e-7
-1.017, -9.019e-7
-1.016, -9.424e-7
-1.015, -9.266e-7
-1.014, -9.542e-7
-1.013, -9.365e-7
-1.012, -9.227e-7
-1.011, -9.276e-7
-1.010, -9.779e-7
-1.009, -9.503e-7
-1.008, -9.365e-7
-1.007, -9.118e-7
-1.006, -9.355e-7
-1.005, -9.700e-7
-1.004, -9.286e-7
-1.003, -9.424e-7
-1.002, -9.394e-7
-1.001, -9.296e-7
-1.000, -7.421e-7
-1.001, -6.731e-7
-1.002, -6.000e-7
-1.003, -5.379e-7
-1.004, -5.458e-7
-1.005, -4.373e-7
-1.006, -4.086e-7
-1.007, -3.869e-7
-1.008, -3.514e-7
-1.009, -3.475e-7
-1.010, -2.616e-7
-1.011, -3.287e-7
-1.012, -2.222e-7
-1.013, -2.330e-7
-1.014, -2.271e-7
-1.015, -2.172e-7
-1.016, -2.242e-7
-1.017, -1.137e-7
-1.018, -1.235e-7
-1.019, -1.433e-7
-1.020, -6.235e-8
-1.021, -1.048e-7
-1.022, -7.912e-8
-1.023, -6.235e-8
-1.024, -2.289e-8
-1.025, -7.222e-8
-1.026, -5.446e-8
-1.027, -4.459e-8
-1.028, 5.801e-8
-1.029, -1.184e-9
-1.030, 7.873e-8
-1.031, 4.736e-9
-1.032, 1.014e-7
-1.033, 1.083e-7
-1.034, 8.169e-8
-1.035, 1.004e-7
-1.036, 1.182e-7
-1.037, 1.281e-7
-1.038, 1.448e-7
-1.039, 1.350e-7
-1.040, 1.843e-7
-1.041, 1.517e-7
-1.042, 1.685e-7
-1.043, 1.813e-7
-1.044, 1.616e-7
-1.045, 1.784e-7
-1.046, 1.912e-7
-1.047, 2.583e-7
-1.048, 2.603e-7
-1.049, 2.514e-7
-1.050, 2.879e-7
-1.051, 2.415e-7
-1.052, 2.711e-7
-1.053, 2.257e-7
-1.054, 2.938e-7
-1.055, 2.820e-7
-1.056, 2.968e-7
-1.057, 3.264e-7
-1.058, 2.978e-7
-1.059, 3.412e-7
-1.060, 3.875e-7
-1.061, 2.997e-7
-1.062, 3.885e-7
-1.063, 3.382e-7
-1.064, 3.974e-7
-1.065, 3.885e-7
-1.066, 3.816e-7
-1.067, 3.836e-7
-1.068, 4.201e-7
-1.069, 3.974e-7
-1.070, 3.915e-7
-1.071, 4.102e-7
-1.072, 4.526e-7
-1.073, 4.763e-7
-1.074, 4.270e-7
-1.075, 4.655e-7
-1.076, 4.684e-7
-1.077, 5.237e-7
-1.078, 4.448e-7
-1.079, 4.724e-7
-1.080, 4.635e-7
-1.081, 4.379e-7
-1.082, 5.365e-7
-1.083, 5.355e-7
-1.084, 4.832e-7
-1.085, 4.665e-7
-1.086, 4.980e-7
-1.087, 5.474e-7
-1.088, 5.592e-7
-1.089, 4.882e-7
-1.090, 4.734e-7
-1.091, 5.691e-7
-1.092, 5.987e-7
-1.093, 5.197e-7
-1.094, 5.868e-7
-1.095, 5.375e-7
-1.096, 6.046e-7
-1.097, 6.214e-7
-1.098, 5.898e-7
-1.099, 5.434e-7
-1.100, 5.493e-7
-1.101, 5.868e-7
-1.102, 6.342e-7
-1.103, 5.424e-7
-1.104, 5.661e-7
-1.105, 6.648e-7
-1.106, 6.588e-7
-1.107, 6.243e-7
-1.108, 6.016e-7
-1.109, 6.184e-7
-1.110, 6.371e-7
-1.111, 6.411e-7
-1.112, 6.559e-7
-1.113, 6.648e-7
-1.114, 6.016e-7
-1.115, 6.371e-7
-1.116, 6.480e-7
-1.117, 6.894e-7
-1.118, 6.954e-7
-1.119, 6.480e-7
-1.120, 6.549e-7
-1.121, 6.835e-7
-1.122, 7.279e-7
-1.123, 6.697e-7
-1.124, 7.269e-7
-1.125, 6.736e-7
-1.126, 7.220e-7
-1.127, 7.664e-7
-1.128, 7.220e-7
-1.129, 7.397e-7
-1.130, 7.634e-7
-1.131, 7.240e-7
-1.132, 7.348e-7
-1.133, 7.476e-7
-1.134, 7.437e-7
-1.135, 7.585e-7
-1.136, 7.279e-7
-1.137, 7.664e-7
-1.138, 7.634e-7
-1.139, 7.615e-7
-1.140, 7.309e-7
-1.141, 7.575e-7
-1.142, 8.128e-7
-1.143, 8.285e-7
-1.144, 7.496e-7
-1.145, 7.674e-7
-1.146, 8.187e-7
-1.147, 8.374e-7
-1.148, 8.216e-7
-1.149, 8.187e-7
-1.150, 7.950e-7
-1.151, 8.216e-7
-1.152, 8.098e-7
-1.153, 8.128e-7
-1.154, 8.493e-7
-1.155, 7.812e-7
-1.156, 8.285e-7
-1.157, 9.006e-7
-1.158, 8.552e-7
-1.159, 8.424e-7
-1.160, 7.871e-7
-1.161, 8.542e-7
-1.162, 9.262e-7
-1.163, 9.065e-7
-1.164, 8.325e-7
-1.165, 8.611e-7
-1.166, 9.203e-7
-1.167, 9.341e-7
-1.168, 9.006e-7
-1.169, 8.838e-7
-1.170, 8.631e-7
-1.171, 9.075e-7
-1.172, 9.607e-7
-1.173, 9.252e-7
-1.174, 9.193e-7
-1.175, 9.223e-7
-1.176, 1.034e-6
-1.177, 9.973e-7
-1.178, 9.085e-7
-1.179, 9.430e-7
-1.180, 9.815e-7
-1.181, 9.815e-7
-1.182, 1.018e-6
-1.183, 9.933e-7
-1.184, 9.519e-7
-1.185, 9.884e-7
-1.186, 1.019e-6
-1.187, 9.973e-7
-1.188, 1.011e-6
-1.189, 1.031e-6
-1.190, 1.008e-6
-1.191, 1.025e-6
-1.192, 1.102e-6
-1.193, 1.070e-6
-1.194, 1.097e-6
-1.195, 1.056e-6
-1.196, 1.055e-6
-1.197, 1.109e-6
-1.198, 1.078e-6
-1.199, 1.100e-6
-1.200, 1.084e-6
-1.201, 1.098e-6
-1.202, 1.100e-6
-1.203, 1.068e-6
-1.204, 1.155e-6
-1.205, 1.112e-6
-1.206, 1.126e-6
-1.207, 1.170e-6
-1.208, 1.119e-6
-1.209, 1.121e-6
-1.210, 1.166e-6
-1.211, 1.183e-6
-1.212, 1.201e-6
-1.213, 1.153e-6
-1.214, 1.122e-6
-1.215, 1.200e-6
-1.216, 1.144e-6
-1.217, 1.217e-6
-1.218, 1.232e-6
-1.219, 1.184e-6
-1.220, 1.189e-6
-1.221, 1.196e-6
-1.222, 1.192e-6
-1.223, 1.261e-6
-1.224, 1.282e-6
-1.225, 1.220e-6
-1.226, 1.176e-6
-1.227, 1.252e-6
-1.228, 1.279e-6
-1.229, 1.284e-6
-1.230, 1.289e-6
-1.231, 1.256e-6
-1.232, 1.339e-6
-1.233, 1.315e-6
-1.234, 1.276e-6
-1.235, 1.359e-6
-1.236, 1.324e-6
-1.237, 1.359e-6
-1.238, 1.373e-6
-1.239, 1.298e-6
-1.240, 1.349e-6
-1.241, 1.378e-6
-1.242, 1.383e-6
-1.243, 1.345e-6
-1.244, 1.415e-6
-1.245, 1.432e-6
-1.246, 1.421e-6
-1.247, 1.420e-6
-1.248, 1.409e-6
-1.249, 1.420e-6
-1.250, 1.466e-6
-1.251, 1.496e-6
-1.252, 1.518e-6
-1.253, 1.458e-6
-1.254, 1.485e-6
-1.255, 1.502e-6
-1.256, 1.560e-6
-1.257, 1.575e-6
-1.258, 1.533e-6
-1.259, 1.569e-6
-1.260, 1.556e-6
-1.261, 1.614e-6
-1.262, 1.660e-6
-1.263, 1.614e-6
-1.264, 1.599e-6
-1.265, 1.579e-6
-1.266, 1.688e-6
-1.267, 1.719e-6
-1.268, 1.682e-6
-1.269, 1.687e-6
-1.270, 1.734e-6
-1.271, 1.734e-6
-1.272, 1.803e-6
-1.273, 1.808e-6
-1.274, 1.738e-6
-1.275, 1.796e-6
-1.276, 1.883e-6
-1.277, 1.918e-6
-1.278, 1.933e-6
-1.279, 1.889e-6
-1.280, 1.959e-6
-1.281, 1.994e-6
-1.282, 2.075e-6
-1.283, 2.025e-6
-1.284, 2.099e-6
-1.285, 2.053e-6
-1.286, 2.132e-6
-1.287, 2.182e-6
-1.288, 2.201e-6
-1.289, 2.208e-6
-1.290, 2.223e-6
-1.291, 2.292e-6
-1.292, 2.279e-6
-1.293, 2.391e-6
-1.294, 2.378e-6
-1.295, 2.407e-6
-1.296, 2.425e-6
-1.297, 2.490e-6
-1.298, 2.595e-6
-1.299, 2.611e-6
-1.300, 2.601e-6
-1.301, 2.671e-6
-1.302, 2.734e-6
-1.303, 2.795e-6
-1.304, 2.796e-6
-1.305, 2.855e-6
-1.306, 2.938e-6
-1.307, 2.976e-6
-1.308, 3.063e-6
-1.309, 3.062e-6
-1.310, 3.128e-6
-1.311, 3.248e-6
-1.312, 3.254e-6
-1.313, 3.341e-6
-1.314, 3.434e-6
-1.315, 3.480e-6
-1.316, 3.591e-6
-1.317, 3.686e-6
-1.318, 3.705e-6
-1.319, 3.771e-6
-1.320, 3.876e-6
-1.321, 3.918e-6
-1.322, 4.114e-6
-1.323, 4.136e-6
-1.324, 4.249e-6
-1.325, 4.277e-6
-1.326, 4.482e-6
-1.327, 4.611e-6
-1.328, 4.619e-6
-1.329, 4.767e-6
-1.330, 4.811e-6
-1.331, 5.057e-6
-1.332, 5.162e-6
-1.333, 5.253e-6
-1.334, 5.407e-6
-1.335, 5.500e-6
-1.336, 5.712e-6
-1.337, 5.847e-6
-1.338, 5.936e-6
-1.339, 6.101e-6
-1.340, 6.252e-6
-1.341, 6.431e-6
-1.342, 6.613e-6
-1.343, 6.715e-6
-1.344, 6.946e-6
-1.345, 7.140e-6
-1.346, 7.300e-6
-1.347, 7.557e-6
-1.348, 7.715e-6
-1.349, 7.918e-6
-1.350, 8.116e-6
-1.351, 8.331e-6
-1.352, 8.599e-6
-1.353, 8.792e-6
-1.354, 8.985e-6
-1.355, 9.232e-6
-1.356, 9.535e-6
-1.357, 9.831e-6
-1.358, 1.002e-5
-1.359, 1.031e-5
-1.360, 1.062e-5
-1.361, 1.090e-5
-1.362, 1.120e-5
-1.363, 1.149e-5
-1.364, 1.180e-5
-1.365, 1.218e-5
-1.366, 1.250e-5
-1.367, 1.279e-5
-1.368, 1.314e-5
-1.369, 1.349e-5
-1.370, 1.390e-5
-1.371, 1.431e-5
-1.372, 1.469e-5
-1.373, 1.506e-5
-1.374, 1.541e-5
-1.375, 1.590e-5
-1.376, 1.633e-5
-1.377, 1.680e-5
-1.378, 1.722e-5
-1.379, 1.767e-5
-1.380, 1.815e-5
-1.381, 1.867e-5
-1.382, 1.922e-5
-1.383, 1.973e-5
-1.384, 2.023e-5
-1.385, 2.076e-5
-1.386, 2.128e-5
-1.387, 2.188e-5
-1.388, 2.255e-5
-1.389, 2.305e-5
-1.390, 2.372e-5
-1.391, 2.437e-5
-1.392, 2.501e-5
-1.393, 2.574e-5
-1.394, 2.632e-5
-1.395, 2.695e-5
-1.396, 2.772e-5
-1.397, 2.845e-5
-1.398, 2.923e-5
-1.399, 2.996e-5
-1.400, 3.066e-5
-1.401, 3.146e-5
-1.402, 3.233e-5
-1.403, 3.321e-5
-1.404, 3.395e-5
-1.405, 3.477e-5
-1.406, 3.570e-5
-1.407, 3.659e-5
-1.408, 3.752e-5
-1.409, 3.840e-5
-1.410, 3.935e-5
-1.411, 4.034e-5
-1.412, 4.140e-5
-1.413, 4.250e-5
-1.414, 4.339e-5
-1.415, 4.441e-5
-1.416, 4.555e-5
-1.417, 4.672e-5
-1.418, 4.787e-5
-1.419, 4.894e-5
-1.420, 5.008e-5
-1.421, 5.130e-5
-1.422, 5.262e-5
-1.423, 5.379e-5
-1.424, 5.493e-5
-1.425, 5.624e-5
-1.426, 5.765e-5
-1.427, 5.903e-5
-1.428, 6.029e-5
-1.429, 6.166e-5
-1.430, 6.308e-5
-1.431, 6.443e-5
-1.432, 6.590e-5
-1.433, 6.739e-5
-1.434, 6.892e-5
-1.435, 7.056e-5
-1.436, 7.198e-5
-1.437, 7.356e-5
-1.438, 7.518e-5
-1.439, 7.674e-5
-1.440, 7.831e-5
-1.441, 8.012e-5
-1.442, 8.175e-5
-1.443, 8.352e-5
-1.444, 8.523e-5
-1.445, 8.698e-5
-1.446, 8.885e-5
-1.447, 9.077e-5
-1.448, 9.255e-5
-1.449, 9.440e-5
-1.450, 9.637e-5
-1.451, 9.834e-5
-1.452, 1.003e-4
-1.453, 1.022e-4
-1.454, 1.041e-4
-1.455, 1.061e-4
-1.456, 1.085e-4
-1.457, 1.107e-4
-1.458, 1.125e-4
-1.459, 1.147e-4
-1.460, 1.168e-4
-1.461, 1.190e-4
-1.462, 1.213e-4
-1.463, 1.237e-4
-1.464, 1.260e-4
-1.465, 1.278e-4
-1.466, 1.300e-4
-1.467, 1.322e-4
-1.468, 1.347e-4
-1.469, 1.368e-4
-1.470, 1.391e-4
-1.471, 1.415e-4
-1.472, 1.440e-4
-1.473, 1.466e-4
-1.474, 1.495e-4
-1.475, 1.517e-4
-1.476, 1.541e-4
-1.477, 1.567e-4
-1.478, 1.597e-4
-1.479, 1.621e-4
-1.480, 1.647e-4
-1.481, 1.674e-4
-1.482, 1.707e-4
-1.483, 1.730e-4
-1.484, 1.758e-4
-1.485, 1.785e-4
-1.486, 1.812e-4
-1.487, 1.844e-4
-1.488, 1.874e-4
-1.489, 1.896e-4
-1.490, 1.925e-4
-1.491, 1.961e-4
-1.492, 1.990e-4
-1.493, 2.016e-4
-1.494, 2.041e-4
-1.495, 2.075e-4
-1.496, 2.112e-4
-1.497, 2.141e-4
-1.498, 2.177e-4
-1.499, 2.205e-4
-1.500, 2.240e-4
-1.501, 2.271e-4
-1.502, 2.306e-4
-1.503, 2.337e-4
-1.504, 2.370e-4
-1.505, 2.397e-4
-1.506, 2.433e-4
-1.507, 2.469e-4
-1.508, 2.503e-4
-1.509, 2.536e-4
-1.510, 2.567e-4
-1.511, 2.604e-4
-1.512, 2.639e-4
-1.513, 2.672e-4
-1.514, 2.710e-4
-1.515, 2.740e-4
-1.516, 2.775e-4
-1.517, 2.814e-4
-1.518, 2.844e-4
-1.519, 2.877e-4
-1.520, 2.918e-4
-1.521, 2.947e-4
-1.522, 2.988e-4
-1.523, 3.031e-4
-1.524, 3.066e-4
-1.525, 3.100e-4
-1.526, 3.150e-4
-1.527, 3.184e-4
-1.528, 3.225e-4
-1.529, 3.264e-4
-1.530, 3.294e-4
-1.531, 3.342e-4
-1.532, 3.371e-4
-1.533, 3.413e-4
-1.534, 3.447e-4
-1.535, 3.487e-4
-1.536, 3.529e-4
-1.537, 3.573e-4
-1.538, 3.614e-4
-1.539, 3.654e-4
-1.540, 3.697e-4
-1.541, 3.741e-4
-1.542, 3.792e-4
-1.543, 3.820e-4
-1.544, 3.863e-4
-1.545, 3.903e-4
-1.546, 3.941e-4
-1.547, 3.988e-4
-1.548, 4.016e-4
-1.549, 4.057e-4
-1.550, 4.098e-4
-1.551, 4.144e-4
-1.552, 4.179e-4
-1.553, 4.242e-4
-1.554, 4.276e-4
-1.555, 4.318e-4
-1.556, 4.360e-4
-1.557, 4.407e-4
-1.558, 4.451e-4
-1.559, 4.489e-4
-1.560, 4.529e-4
-1.561, 4.557e-4
-1.562, 4.610e-4
-1.563, 4.650e-4
-1.564, 4.692e-4
-1.565, 4.725e-4
-1.566, 4.782e-4
-1.567, 4.827e-4
-1.568, 4.877e-4
-1.569, 4.925e-4
-1.570, 4.989e-4
-1.571, 5.032e-4
-1.572, 5.083e-4
-1.573, 5.133e-4
-1.574, 5.168e-4
-1.575, 5.231e-4
-1.576, 5.286e-4
-1.577, 5.343e-4
-1.578, 5.403e-4
-1.579, 5.438e-4
-1.580, 5.481e-4
-1.581, 5.524e-4
-1.582, 5.586e-4
-1.583, 5.635e-4
-1.584, 5.687e-4
-1.585, 5.748e-4
-1.586, 5.804e-4
-1.587, 5.892e-4
-1.588, 5.909e-4
-1.589, 5.962e-4
-1.590, 6.019e-4
-1.591, 6.068e-4
-1.592, 6.122e-4
-1.593, 6.178e-4
-1.594, 6.226e-4
-1.595, 6.305e-4
-1.596, 6.310e-4
-1.597, 6.384e-4
-1.598, 6.452e-4
-1.599, 6.512e-4
-1.600, 6.561e-4
-1.601, 6.607e-4
-1.602, 6.661e-4
-1.603, 6.707e-4
-1.604, 6.761e-4
-1.605, 6.830e-4
-1.606, 6.882e-4
-1.607, 6.941e-4
-1.608, 7.025e-4
-1.609, 7.089e-4
-1.610, 7.149e-4
-1.611, 7.214e-4
-1.612, 7.278e-4
-1.613, 7.355e-4
-1.614, 7.427e-4
-1.615, 7.480e-4
-1.616, 7.535e-4
-1.617, 7.605e-4
-1.618, 7.655e-4
-1.619, 7.702e-4
-1.620, 7.758e-4
-1.621, 7.829e-4
-1.622, 7.890e-4
-1.623, 7.955e-4
-1.624, 8.019e-4
-1.625, 8.110e-4
-1.626, 8.132e-4
-1.627, 8.205e-4
-1.628, 8.276e-4
-1.629, 8.359e-4
-1.630, 8.408e-4
-1.631, 8.475e-4
-1.632, 8.544e-4
-1.633, 8.608e-4
-1.634, 8.669e-4
-1.635, 8.747e-4
-1.636, 8.810e-4
-1.637, 8.865e-4
-1.638, 8.939e-4
-1.639, 9.022e-4
-1.640, 9.120e-4
-1.641, 9.170e-4
-1.642, 9.239e-4
-1.643, 9.346e-4
-1.644, 9.424e-4
-1.645, 9.487e-4
-1.646, 9.562e-4
-1.647, 9.626e-4
-1.648, 9.678e-4
-1.649, 9.753e-4
-1.650, 9.805e-4
-1.651, 9.883e-4
-1.652, 9.966e-4
-1.653, 1.000e-3
-1.654, 1.007e-3
-1.655, 1.016e-3
-1.656, 1.026e-3
-1.657, 1.035e-3
-1.658, 1.042e-3
-1.659, 1.052e-3
-1.660, 1.063e-3
-1.661, 1.071e-3
-1.662, 1.078e-3
-1.663, 1.080e-3
-1.664, 1.086e-3
-1.665, 1.105e-3
-1.666, 1.113e-3
-1.667, 1.116e-3
-1.668, 1.124e-3
-1.669, 1.136e-3
-1.670, 1.140e-3
-1.671, 1.145e-3
-1.672, 1.153e-3
-1.673, 1.162e-3
-1.674, 1.174e-3
-1.675, 1.188e-3
-1.676, 1.193e-3
-1.677, 1.199e-3
-1.678, 1.210e-3
-1.679, 1.215e-3
-1.680, 1.228e-3
-1.681, 1.239e-3
-1.682, 1.244e-3
-1.683, 1.255e-3
-1.684, 1.266e-3
-1.685, 1.276e-3
-1.686, 1.282e-3
-1.687, 1.297e-3
-1.688, 1.310e-3
-1.689, 1.316e-3
-1.690, 1.319e-3
-1.691, 1.322e-3
-1.692, 1.332e-3
-1.693, 1.343e-3
-1.694, 1.358e-3
-1.695, 1.367e-3
-1.696, 1.378e-3
-1.697, 1.388e-3
-1.698, 1.393e-3
-1.699, 1.401e-3
-1.700, 1.409e-3
-1.701, 1.421e-3
-1.702, 1.435e-3
-1.703, 1.442e-3
-1.704, 1.455e-3
-1.705, 1.463e-3
-1.706, 1.478e-3
-1.707, 1.494e-3
-1.708, 1.506e-3
-1.709, 1.517e-3
-1.710, 1.528e-3
-1.711, 1.539e-3
-1.712, 1.546e-3
-1.713, 1.559e-3
-1.714, 1.568e-3
-1.715, 1.579e-3
-1.716, 1.589e-3
-1.717, 1.602e-3
-1.718, 1.613e-3
-1.719, 1.624e-3
-1.720, 1.632e-3
-1.721, 1.647e-3
-1.722, 1.660e-3
-1.723, 1.668e-3
-1.724, 1.684e-3
-1.725, 1.699e-3
-1.726, 1.713e-3
-1.727, 1.722e-3
-1.728, 1.733e-3
-1.729, 1.742e-3
-1.730, 1.748e-3
-1.731, 1.770e-3
-1.732, 1.784e-3
-1.733, 1.799e-3
-1.734, 1.816e-3
-1.735, 1.826e-3
-1.736, 1.836e-3
-1.737, 1.854e-3
-1.738, 1.858e-3
-1.739, 1.869e-3
-1.740, 1.878e-3
-1.741, 1.890e-3
-1.742, 1.897e-3
-1.743, 1.915e-3
-1.744, 1.929e-3
-1.745, 1.944e-3
-1.746, 1.958e-3
-1.747, 1.977e-3
-1.748, 2.002e-3
-1.749, 2.018e-3
-1.750, 2.033e-3
-1.751, 2.049e-3
-1.752, 2.068e-3
-1.753, 2.092e-3
-1.754, 2.104e-3
-1.755, 2.121e-3
-1.756, 2.134e-3
-1.757, 2.151e-3
-1.758, 2.166e-3
-1.759, 2.183e-3
-1.760, 2.195e-3
-1.761, 2.207e-3
-1.762, 2.223e-3
-1.763, 2.233e-3
-1.764, 2.246e-3
-1.765, 2.257e-3
-1.766, 2.272e-3
-1.767, 2.299e-3
-1.768, 2.324e-3
-1.769, 2.331e-3
-1.770, 2.354e-3
-1.771, 2.367e-3
-1.772, 2.373e-3
-1.773, 2.389e-3
-1.774, 2.398e-3
-1.775, 2.423e-3
-1.776, 2.435e-3
-1.777, 2.446e-3
-1.778, 2.465e-3
-1.779, 2.479e-3
-1.780, 2.493e-3
-1.781, 2.504e-3
-1.782, 2.519e-3
-1.783, 2.533e-3
-1.784, 2.555e-3
-1.785, 2.575e-3
-1.786, 2.606e-3
-1.787, 2.628e-3
-1.788, 2.642e-3
-1.789, 2.659e-3
-1.790, 2.674e-3
-1.791, 2.699e-3
-1.792, 2.716e-3
-1.793, 2.742e-3
-1.794, 2.758e-3
-1.795, 2.765e-3
-1.796, 2.781e-3
-1.797, 2.801e-3
-1.798, 2.819e-3
-1.799, 2.837e-3
-1.800, 2.853e-3
-1.799, 2.847e-3
-1.798, 2.841e-3
-1.797, 2.837e-3
-1.796, 2.825e-3
-1.795, 2.815e-3
-1.794, 2.814e-3
-1.793, 2.815e-3
-1.792, 2.800e-3
-1.791, 2.811e-3
-1.790, 2.800e-3
-1.789, 2.783e-3
-1.788, 2.764e-3
-1.787, 2.740e-3
-1.786, 2.714e-3
-1.785, 2.702e-3
-1.784, 2.676e-3
-1.783, 2.657e-3
-1.782, 2.650e-3
-1.781, 2.640e-3
-1.780, 2.617e-3
-1.779, 2.605e-3
-1.778, 2.586e-3
-1.777, 2.569e-3
-1.776, 2.557e-3
-1.775, 2.542e-3
-1.774, 2.531e-3
-1.773, 2.521e-3
-1.772, 2.503e-3
-1.771, 2.491e-3
-1.770, 2.475e-3
-1.769, 2.467e-3
-1.768, 2.444e-3
-1.767, 2.421e-3
-1.766, 2.414e-3
-1.765, 2.397e-3
-1.764, 2.380e-3
-1.763, 2.371e-3
-1.762, 2.349e-3
-1.761, 2.333e-3
-1.760, 2.314e-3
-1.759, 2.306e-3
-1.758, 2.290e-3
-1.757, 2.264e-3
-1.756, 2.240e-3
-1.755, 2.236e-3
-1.754, 2.209e-3
-1.753, 2.215e-3
-1.752, 2.209e-3
-1.751, 2.190e-3
-1.750, 2.168e-3
-1.749, 2.149e-3
-1.748, 2.190e-3
-1.747, 2.164e-3
-1.746, 2.142e-3
-1.745, 2.131e-3
-1.744, 2.110e-3
-1.743, 2.093e-3
-1.742, 2.083e-3
-1.741, 2.085e-3
-1.740, 2.073e-3
-1.739, 2.062e-3
-1.738, 2.051e-3
-1.737, 2.047e-3
-1.736, 2.028e-3
-1.735, 2.010e-3
-1.734, 1.997e-3
-1.733, 1.979e-3
-1.732, 1.952e-3
-1.731, 1.935e-3
-1.730, 1.917e-3
-1.729, 1.914e-3
-1.728, 1.894e-3
-1.727, 1.873e-3
-1.726, 1.861e-3
-1.725, 1.835e-3
-1.724, 1.811e-3
-1.723, 1.785e-3
-1.722, 1.758e-3
-1.721, 1.753e-3
-1.720, 1.741e-3
-1.719, 1.732e-3
-1.718, 1.721e-3
-1.717, 1.712e-3
-1.716, 1.703e-3
-1.715, 1.695e-3
-1.714, 1.689e-3
-1.713, 1.680e-3
-1.712, 1.665e-3
-1.711, 1.656e-3
-1.710, 1.648e-3
-1.709, 1.645e-3
-1.708, 1.633e-3
-1.707, 1.627e-3
-1.706, 1.613e-3
-1.705, 1.602e-3
-1.704, 1.590e-3
-1.703, 1.573e-3
-1.702, 1.558e-3
-1.701, 1.544e-3
-1.700, 1.530e-3
-1.699, 1.517e-3
-1.698, 1.508e-3
-1.697, 1.493e-3
-1.696, 1.480e-3
-1.695, 1.468e-3
-1.694, 1.458e-3
-1.693, 1.449e-3
-1.692, 1.434e-3
-1.691, 1.424e-3
-1.690, 1.413e-3
-1.689, 1.399e-3
-1.688, 1.388e-3
-1.687, 1.378e-3
-1.686, 1.361e-3
-1.685, 1.350e-3
-1.684, 1.342e-3
-1.683, 1.332e-3
-1.682, 1.317e-3
-1.681, 1.308e-3
-1.680, 1.295e-3
-1.679, 1.282e-3
-1.678, 1.270e-3
-1.677, 1.264e-3
-1.676, 1.254e-3
-1.675, 1.242e-3
-1.674, 1.230e-3
-1.673, 1.220e-3
-1.672, 1.210e-3
-1.671, 1.203e-3
-1.670, 1.193e-3
-1.669, 1.191e-3
-1.668, 1.185e-3
-1.667, 1.171e-3
-1.666, 1.159e-3
-1.665, 1.152e-3
-1.664, 1.143e-3
-1.663, 1.135e-3
-1.662, 1.125e-3
-1.661, 1.118e-3
-1.660, 1.112e-3
-1.659, 1.102e-3
-1.658, 1.094e-3
-1.657, 1.083e-3
-1.656, 1.073e-3
-1.655, 1.065e-3
-1.654, 1.056e-3
-1.653, 1.048e-3
-1.652, 1.044e-3
-1.651, 1.038e-3
-1.650, 1.033e-3
-1.649, 1.020e-3
-1.648, 1.011e-3
-1.647, 1.013e-3
-1.646, 1.008e-3
-1.645, 1.003e-3
-1.644, 9.945e-4
-1.643, 9.845e-4
-1.642, 9.770e-4
-1.641, 9.719e-4
-1.640, 9.616e-4
-1.639, 9.546e-4
-1.638, 9.440e-4
-1.637, 9.343e-4
-1.636, 9.230e-4
-1.635, 9.136e-4
-1.634, 9.039e-4
-1.633, 8.952e-4
-1.632, 8.868e-4
-1.631, 8.759e-4
-1.630, 8.667e-4
-1.629, 8.582e-4
-1.628, 8.497e-4
-1.627, 8.426e-4
-1.626, 8.326e-4
-1.625, 8.258e-4
-1.624, 8.192e-4
-1.623, 8.106e-4
-1.622, 8.032e-4
-1.621, 7.951e-4
-1.620, 7.908e-4
-1.619, 7.818e-4
-1.618, 7.723e-4
-1.617, 7.630e-4
-1.616, 7.555e-4
-1.615, 7.520e-4
-1.614, 7.436e-4
-1.613, 7.358e-4
-1.612, 7.283e-4
-1.611, 7.232e-4
-1.610, 7.157e-4
-1.609, 7.086e-4
-1.608, 7.012e-4
-1.607, 6.923e-4
-1.606, 6.831e-4
-1.605, 6.754e-4
-1.604, 6.669e-4
-1.603, 6.577e-4
-1.602, 6.461e-4
-1.601, 6.357e-4
-1.600, 6.274e-4
-1.599, 6.206e-4
-1.598, 6.155e-4
-1.597, 6.100e-4
-1.596, 6.053e-4
-1.595, 5.990e-4
-1.594, 5.939e-4
-1.593, 5.877e-4
-1.592, 5.824e-4
-1.591, 5.764e-4
-1.590, 5.717e-4
-1.589, 5.651e-4
-1.588, 5.597e-4
-1.587, 5.524e-4
-1.586, 5.462e-4
-1.585, 5.394e-4
-1.584, 5.347e-4
-1.583, 5.275e-4
-1.582, 5.215e-4
-1.581, 5.152e-4
-1.580, 5.096e-4
-1.579, 5.050e-4
-1.578, 5.005e-4
-1.577, 4.944e-4
-1.576, 4.896e-4
-1.575, 4.844e-4
-1.574, 4.773e-4
-1.573, 4.724e-4
-1.572, 4.665e-4
-1.571, 4.605e-4
-1.570, 4.550e-4
-1.569, 4.507e-4
-1.568, 4.441e-4
-1.567, 4.388e-4
-1.566, 4.330e-4
-1.565, 4.271e-4
-1.564, 4.221e-4
-1.563, 4.163e-4
-1.562, 4.113e-4
-1.561, 4.049e-4
-1.560, 3.995e-4
-1.559, 3.945e-4
-1.558, 3.891e-4
-1.557, 3.840e-4
-1.556, 3.784e-4
-1.555, 3.741e-4
-1.554, 3.690e-4
-1.553, 3.641e-4
-1.552, 3.595e-4
-1.551, 3.539e-4
-1.550, 3.503e-4
-1.549, 3.445e-4
-1.548, 3.396e-4
-1.547, 3.354e-4
-1.546, 3.301e-4
-1.545, 3.255e-4
-1.544, 3.213e-4
-1.543, 3.162e-4
-1.542, 3.106e-4
-1.541, 3.071e-4
-1.540, 3.022e-4
-1.539, 2.976e-4
-1.538, 2.934e-4
-1.537, 2.886e-4
-1.536, 2.841e-4
-1.535, 2.807e-4
-1.534, 2.763e-4
-1.533, 2.721e-4
-1.532, 2.679e-4
-1.531, 2.638e-4
-1.530, 2.593e-4
-1.529, 2.559e-4
-1.528, 2.520e-4
-1.527, 2.483e-4
-1.526, 2.444e-4
-1.525, 2.410e-4
-1.524, 2.366e-4
-1.523, 2.328e-4
-1.522, 2.287e-4
-1.521, 2.255e-4
-1.520, 2.218e-4
-1.519, 2.173e-4
-1.518, 2.137e-4
-1.517, 2.100e-4
-1.516, 2.067e-4
-1.515, 2.034e-4
-1.514, 2.000e-4
-1.513, 1.966e-4
-1.512, 1.935e-4
-1.511, 1.898e-4
-1.510, 1.870e-4
-1.509, 1.833e-4
-1.508, 1.806e-4
-1.507, 1.773e-4
-1.506, 1.743e-4
-1.505, 1.712e-4
-1.504, 1.687e-4
-1.503, 1.653e-4
-1.502, 1.629e-4
-1.501, 1.596e-4
-1.500, 1.571e-4
-1.499, 1.544e-4
-1.498, 1.515e-4
-1.497, 1.488e-4
-1.496, 1.459e-4
-1.495, 1.432e-4
-1.494, 1.404e-4
-1.493, 1.381e-4
-1.492, 1.349e-4
-1.491, 1.325e-4
-1.490, 1.304e-4
-1.489, 1.278e-4
-1.488, 1.255e-4
-1.487, 1.230e-4
-1.486, 1.206e-4
-1.485, 1.181e-4
-1.484, 1.159e-4
-1.483, 1.135e-4
-1.482, 1.109e-4
-1.481, 1.090e-4
-1.480, 1.064e-4
-1.479, 1.044e-4
-1.478, 1.027e-4
-1.477, 1.005e-4
-1.476, 9.843e-5
-1.475, 9.656e-5
-1.474, 9.465e-5
-1.473, 9.243e-5
-1.472, 9.076e-5
-1.471, 8.876e-5
-1.470, 8.704e-5
-1.469, 8.537e-5
-1.468, 8.349e-5
-1.467, 8.161e-5
-1.466, 7.973e-5
-1.465, 7.800e-5
-1.464, 7.628e-5
-1.463, 7.466e-5
-1.462, 7.307e-5
-1.461, 7.129e-5
-1.460, 6.980e-5
-1.459, 6.837e-5
-1.458, 6.690e-5
-1.457, 6.540e-5
-1.456, 6.381e-5
-1.455, 6.250e-5
-1.454, 6.095e-5
-1.453, 5.960e-5
-1.452, 5.822e-5
-1.451, 5.690e-5
-1.450, 5.568e-5
-1.449, 5.437e-5
-1.448, 5.311e-5
-1.447, 5.195e-5
-1.446, 5.073e-5
-1.445, 4.953e-5
-1.444, 4.841e-5
-1.443, 4.728e-5
-1.442, 4.620e-5
-1.441, 4.516e-5
-1.440, 4.402e-5
-1.439, 4.294e-5
-1.438, 4.196e-5
-1.437, 4.103e-5
-1.436, 3.997e-5
-1.435, 3.903e-5
-1.434, 3.817e-5
-1.433, 3.714e-5
-1.432, 3.621e-5
-1.431, 3.528e-5
-1.430, 3.444e-5
-1.429, 3.364e-5
-1.428, 3.280e-5
-1.427, 3.191e-5
-1.426, 3.116e-5
-1.425, 3.043e-5
-1.424, 2.967e-5
-1.423, 2.892e-5
-1.422, 2.809e-5
-1.421, 2.745e-5
-1.420, 2.679e-5
-1.419, 2.623e-5
-1.418, 2.544e-5
-1.417, 2.479e-5
-1.416, 2.418e-5
-1.415, 2.359e-5
-1.414, 2.294e-5
-1.413, 2.232e-5
-1.412, 2.164e-5
-1.411, 2.115e-5
-1.410, 2.063e-5
-1.409, 2.008e-5
-1.408, 1.953e-5
-1.407, 1.898e-5
-1.406, 1.853e-5
-1.405, 1.808e-5
-1.404, 1.751e-5
-1.403, 1.702e-5
-1.402, 1.662e-5
-1.401, 1.610e-5
-1.400, 1.577e-5
-1.399, 1.534e-5
-1.398, 1.485e-5
-1.397, 1.445e-5
-1.396, 1.402e-5
-1.395, 1.365e-5
-1.394, 1.329e-5
-1.393, 1.295e-5
-1.392, 1.255e-5
-1.391, 1.227e-5
-1.390, 1.190e-5
-1.389, 1.159e-5
-1.388, 1.124e-5
-1.387, 1.088e-5
-1.386, 1.063e-5
-1.385, 1.036e-5
-1.384, 1.001e-5
-1.383, 9.754e-6
-1.382, 9.427e-6
-1.381, 9.199e-6
-1.380, 8.961e-6
-1.379, 8.664e-6
-1.378, 8.430e-6
-1.377, 8.141e-6
-1.376, 7.967e-6
-1.375, 7.772e-6
-1.374, 7.509e-6
-1.373, 7.310e-6
-1.372, 7.027e-6
-1.371, 6.897e-6
-1.370, 6.714e-6
-1.369, 6.434e-6
-1.368, 6.258e-6
-1.367, 6.081e-6
-1.366, 5.850e-6
-1.365, 5.782e-6
-1.364, 5.591e-6
-1.363, 5.322e-6
-1.362, 5.201e-6
-1.361, 5.067e-6
-1.360, 4.942e-6
-1.359, 4.807e-6
-1.358, 4.587e-6
-1.357, 4.401e-6
-1.356, 4.344e-6
-1.355, 4.169e-6
-1.354, 4.102e-6
-1.353, 3.921e-6
-1.352, 3.753e-6
-1.351, 3.714e-6
-1.350, 3.588e-6
-1.349, 3.437e-6
-1.348, 3.282e-6
-1.347, 3.132e-6
-1.346, 3.160e-6
-1.345, 3.043e-6
-1.344, 2.855e-6
-1.343, 2.821e-6
-1.342, 2.635e-6
-1.341, 2.646e-6
-1.340, 2.599e-6
-1.339, 2.394e-6
-1.338, 2.291e-6
-1.337, 2.240e-6
-1.336, 2.162e-6
-1.335, 2.109e-6
-1.334, 1.987e-6
-1.333, 1.929e-6
-1.332, 1.855e-6
-1.331, 1.779e-6
-1.330, 1.790e-6
-1.329, 1.673e-6
-1.328, 1.602e-6
-1.327, 1.537e-6
-1.326, 1.434e-6
-1.325, 1.466e-6
-1.324, 1.333e-6
-1.323, 1.259e-6
-1.322, 1.240e-6
-1.321, 1.199e-6
-1.320, 1.201e-6
-1.319, 1.061e-6
-1.318, 1.002e-6
-1.317, 1.016e-6
-1.316, 9.006e-7
-1.315, 8.946e-7
-1.314, 8.581e-7
-1.313, 7.397e-7
-1.312, 7.970e-7
-1.311, 7.180e-7
-1.310, 7.082e-7
-1.309, 6.529e-7
-1.308, 5.533e-7
-1.307, 5.789e-7
-1.306, 5.197e-7
-1.305, 5.030e-7
-1.304, 4.674e-7
-1.303, 3.925e-7
-1.302, 3.974e-7
-1.301, 3.747e-7
-1.300, 3.461e-7
-1.299, 3.422e-7
-1.298, 2.257e-7
-1.297, 2.356e-7
-1.296, 2.040e-7
-1.295, 2.198e-7
-1.294, 1.636e-7
-1.293, 1.300e-7
-1.292, 8.860e-8
-1.291, 9.945e-8
-1.290, 9.550e-8
-1.289, 8.169e-8
-1.288, 4.321e-8
-1.287, -6.117e-9
-1.286, -4.144e-9
-1.285, -1.302e-8
-1.284, -3.177e-8
-1.283, -4.854e-8
-1.282, -1.097e-7
-1.281, -9.688e-8
-1.280, -7.025e-8
-1.279, -1.334e-7
-1.278, -1.275e-7
-1.277, -1.719e-7
-1.276, -1.837e-7
-1.275, -1.117e-7
-1.274, -2.330e-7
-1.273, -2.676e-7
-1.272, -2.202e-7
-1.271, -2.715e-7
-1.270, -1.867e-7
-1.269, -3.031e-7
-1.268, -2.518e-7
-1.267, -3.149e-7
-1.266, -3.465e-7
-1.265, -2.705e-7
-1.264, -3.830e-7
-1.263, -3.090e-7
-1.262, -3.504e-7
-1.261, -3.741e-7
-1.260, -3.504e-7
-1.259, -3.475e-7
-1.258, -4.106e-7
-1.257, -3.662e-7
-1.256, -4.205e-7
-1.255, -3.860e-7
-1.254, -4.234e-7
-1.253, -4.501e-7
-1.252, -4.156e-7
-1.251, -4.550e-7
-1.250, -4.363e-7
-1.249, -4.412e-7
-1.248, -5.280e-7
-1.247, -4.876e-7
-1.246, -5.004e-7
-1.245, -4.570e-7
-1.244, -4.688e-7
-1.243, -5.547e-7
-1.242, -5.231e-7
-1.241, -5.379e-7
-1.240, -5.280e-7
-1.239, -5.024e-7
-1.238, -5.852e-7
-1.237, -5.754e-7
-1.236, -5.517e-7
-1.235, -5.783e-7
-1.234, -5.191e-7
-1.233, -5.823e-7
-1.232, -5.754e-7
-1.231, -5.172e-7
-1.230, -5.852e-7
-1.229, -5.527e-7
-1.228, -6.731e-7
-1.227, -6.119e-7
-1.226, -5.754e-7
-1.225, -6.474e-7
-1.224, -6.168e-7
-1.223, -6.573e-7
-1.222, -6.652e-7
-1.221, -6.464e-7
-1.220, -6.612e-7
-1.219, -6.523e-7
-1.218, -6.612e-7
-1.217, -6.957e-7
-1.216, -6.474e-7
-1.215, -6.553e-7
-1.214, -7.165e-7
-1.213, -6.642e-7
-1.212, -6.849e-7
-1.211, -6.839e-7
-1.210, -6.760e-7
-1.209, -7.135e-7
-1.208, -6.671e-7
-1.207, -7.342e-7
-1.206, -6.809e-7
-1.205, -6.859e-7
-1.204, -7.273e-7
-1.203, -7.086e-7
-1.202, -7.056e-7
-1.201, -7.155e-7
-1.200, -6.494e-7
-1.199, -7.342e-7
-1.198, -7.273e-7
-1.197, -7.549e-7
-1.196, -6.997e-7
-1.195, -6.454e-7
-1.194, -7.875e-7
-1.193, -7.273e-7
-1.192, -7.707e-7
-1.191, -7.313e-7
-1.190, -6.553e-7
-1.189, -7.845e-7
-1.188, -7.490e-7
-1.187, -7.905e-7
-1.186, -6.948e-7
-1.185, -7.145e-7
-1.184, -8.013e-7
-1.183, -7.362e-7
-1.182, -8.082e-7
-1.181, -7.776e-7
-1.180, -6.928e-7
-1.179, -7.737e-7
-1.178, -7.707e-7
-1.177, -7.461e-7
-1.176, -7.569e-7
-1.175, -7.204e-7
-1.174, -7.944e-7
-1.173, -7.855e-7
-1.172, -7.845e-7
-1.171, -6.987e-7
-1.170, -7.490e-7
-1.169, -7.964e-7
-1.168, -8.329e-7
-1.167, -8.062e-7
-1.166, -7.855e-7
-1.165, -7.204e-7
-1.164, -7.540e-7
-1.163, -7.638e-7
-1.162, -8.329e-7
-1.161, -7.648e-7
-1.160, -7.362e-7
-1.159, -8.043e-7
-1.158, -7.924e-7
-1.157, -8.161e-7
-1.156, -7.786e-7
-1.155, -7.204e-7
-1.154, -8.358e-7
-1.153, -7.924e-7
-1.152, -8.240e-7
-1.151, -8.260e-7
-1.150, -7.234e-7
-1.149, -8.092e-7
-1.148, -7.668e-7
-1.147, -7.924e-7
-1.146, -8.072e-7
-1.145, -7.540e-7
-1.144, -8.171e-7
-1.143, -8.072e-7
-1.142, -8.191e-7
-1.141, -8.388e-7
-1.140, -6.879e-7
-1.139, -8.674e-7
-1.138, -7.974e-7
-1.137, -8.388e-7
-1.136, -8.062e-7
-1.135, -7.549e-7
-1.134, -8.447e-7
-1.133, -8.408e-7
-1.132, -8.654e-7
-1.131, -7.717e-7
-1.130, -7.184e-7
-1.129, -8.053e-7
-1.128, -8.102e-7
-1.127, -8.092e-7
-1.126, -8.526e-7
-1.125, -7.332e-7
-1.124, -8.911e-7
-1.123, -8.684e-7
-1.122, -8.201e-7
-1.121, -8.615e-7
-1.120, -7.727e-7
-1.119, -8.891e-7
-1.118, -8.309e-7
-1.117, -8.605e-7
-1.116, -8.299e-7
-1.115, -7.944e-7
-1.114, -8.319e-7
-1.113, -8.556e-7
-1.112, -7.855e-7
-1.111, -8.280e-7
-1.110, -8.329e-7
-1.109, -8.467e-7
-1.108, -8.881e-7
-1.107, -8.556e-7
-1.106, -8.043e-7
-1.105, -8.013e-7
-1.104, -8.220e-7
-1.103, -8.753e-7
-1.102, -8.201e-7
-1.101, -8.635e-7
-1.100, -8.763e-7
-1.099, -8.467e-7
-1.098, -9.286e-7
-1.097, -8.408e-7
-1.096, -8.250e-7
-1.095, -8.645e-7
-1.094, -8.536e-7
-1.093, -9.019e-7
-1.092, -8.260e-7
-1.091, -8.250e-7
-1.090, -8.605e-7
-1.089, -8.694e-7
-1.088, -9.444e-7
-1.087, -8.704e-7
-1.086, -8.358e-7
-1.085, -8.408e-7
-1.084, -8.585e-7
-1.083, -8.802e-7
-1.082, -8.733e-7
-1.081, -8.418e-7
-1.080, -8.901e-7
-1.079, -8.704e-7
-1.078, -8.516e-7
-1.077, -9.414e-7
-1.076, -8.556e-7
-1.075, -8.852e-7
-1.074, -8.970e-7
-1.073, -8.881e-7
-1.072, -8.822e-7
-1.071, -8.437e-7
-1.070, -9.158e-7
-1.069, -8.674e-7
-1.068, -8.546e-7
-1.067, -8.585e-7
-1.066, -8.210e-7
-1.065, -9.029e-7
-1.064, -8.871e-7
-1.063, -8.921e-7
-1.062, -8.694e-7
-1.061, -8.289e-7
-1.060, -8.674e-7
-1.059, -8.950e-7
-1.058, -8.812e-7
-1.057, -9.246e-7
-1.056, -8.210e-7
-1.055, -8.753e-7
-1.054, -8.950e-7
-1.053, -9.167e-7
-1.052, -8.773e-7
-1.051, -8.349e-7
-1.050, -9.108e-7
-1.049, -9.217e-7
-1.048, -9.148e-7
-1.047, -9.039e-7
-1.046, -8.911e-7
-1.045, -8.911e-7
-1.044, -9.286e-7
-1.043, -8.704e-7
-1.042, -9.809e-7
-1.041, -8.645e-7
-1.040, -9.079e-7
-1.039, -9.098e-7
-1.038, -8.802e-7
-1.037, -9.177e-7
-1.036, -8.684e-7
-1.035, -9.069e-7
-1.034, -9.562e-7
-1.033, -9.207e-7
-1.032, -9.671e-7
-1.031, -9.108e-7
-1.030, -8.487e-7
-1.029, -9.365e-7
-1.028, -9.552e-7
-1.027, -9.049e-7
-1.026, -8.704e-7
-1.025, -9.000e-7
-1.024, -9.759e-7
-1.023, -9.207e-7
-1.022, -9.454e-7
-1.021, -9.158e-7
-1.020, -8.812e-7
-1.019, -9.631e-7
-1.018, -9.700e-7
-1.017, -9.463e-7
-1.016, -9.335e-7
-1.015, -9.089e-7
-1.014, -9.858e-7
-1.013, -9.532e-7
-1.012, -9.207e-7
-1.011, -9.306e-7
-1.010, -9.621e-7
-1.009, -9.503e-7
-1.008, -9.710e-7
-1.007, -9.315e-7
-1.006, -9.404e-7
-1.005, -9.069e-7
-1.004, -9.651e-7
-1.003, -9.888e-7
-1.002, -9.089e-7
-1.001, -9.562e-7
-1.000, -7.914e-7
-1.001, -6.188e-7
-1.002, -6.188e-7
-1.003, -4.994e-7
-1.004, -4.817e-7
-1.005, -4.570e-7
-1.006, -3.968e-7
-1.007, -4.017e-7
-1.008, -3.258e-7
-1.009, -2.409e-7
-1.010, -3.238e-7
-1.011, -2.320e-7
-1.012, -2.646e-7
-1.013, -2.064e-7
-1.014, -1.886e-7
-1.015, -1.511e-7
-1.016, -1.659e-7
-1.017, -1.452e-7
-1.018, -1.521e-7
-1.019, -5.545e-8
-1.020, -1.166e-7
-1.021, -9.294e-8
-1.022, -7.814e-8
-1.023, -1.097e-7
-1.024, 1.066e-8
-1.025, -1.006e-8
-1.026, -1.204e-8
-1.027, 4.519e-8
-1.028, 2.762e-9
-1.029, 7.972e-8
-1.030, 7.676e-8
-1.031, 7.873e-8
-1.032, 8.169e-8
-1.033, 1.320e-7
-1.034, 8.169e-8
-1.035, 1.123e-7
-1.036, 9.846e-8
-1.037, 1.152e-7
-1.038, 1.705e-7
-1.039, 1.803e-7
-1.040, 1.951e-7
-1.041, 1.448e-7
-1.042, 1.350e-7
-1.043, 2.011e-7
-1.044, 2.386e-7
-1.045, 2.672e-7
-1.046, 2.090e-7
-1.047, 1.803e-7
-1.048, 2.455e-7
-1.049, 3.017e-7
-1.050, 2.672e-7
-1.051, 2.760e-7
-1.052, 2.613e-7
-1.053, 2.987e-7
-1.054, 3.787e-7
-1.055, 2.899e-7
-1.056, 3.086e-7
-1.057, 3.303e-7
-1.058, 2.691e-7
-1.059, 3.915e-7
-1.060, 3.244e-7
-1.061, 3.145e-7
-1.062, 3.826e-7
-1.063, 3.264e-7
-1.064, 4.280e-7
-1.065, 3.540e-7
-1.066, 3.333e-7
-1.067, 4.477e-7
-1.068, 3.747e-7
-1.069, 4.319e-7
-1.070, 4.073e-7
-1.071, 4.073e-7
-1.072, 4.783e-7
-1.073, 3.974e-7
-1.074, 4.674e-7
-1.075, 4.635e-7
-1.076, 4.467e-7
-1.077, 4.240e-7
-1.078, 4.892e-7
-1.079, 4.497e-7
-1.080, 4.803e-7
-1.081, 4.655e-7
-1.082, 5.099e-7
-1.083, 5.109e-7
-1.084, 4.882e-7
-1.085, 5.326e-7
-1.086, 5.040e-7
-1.087, 4.260e-7
-1.088, 5.474e-7
-1.089, 5.572e-7
-1.090, 4.941e-7
-1.091, 5.779e-7
-1.092, 4.882e-7
-1.093, 5.829e-7
-1.094, 5.937e-7
-1.095, 5.266e-7
-1.096, 5.878e-7
-1.097, 5.414e-7
-1.098, 5.543e-7
-1.099, 6.381e-7
-1.100, 5.720e-7
-1.101, 6.391e-7
-1.102, 5.730e-7
-1.103, 6.016e-7
-1.104, 6.815e-7
-1.105, 5.710e-7
-1.106, 6.519e-7
-1.107, 6.480e-7
-1.108, 5.641e-7
-1.109, 7.180e-7
-1.110, 6.135e-7
-1.111, 6.036e-7
-1.112, 6.786e-7
-1.113, 6.322e-7
-1.114, 7.023e-7
-1.115, 6.450e-7
-1.116, 6.411e-7
-1.117, 7.062e-7
-1.118, 6.371e-7
-1.119, 7.417e-7
-1.120, 7.062e-7
-1.121, 6.746e-7
-1.122, 6.825e-7
-1.123, 6.746e-7
-1.124, 6.776e-7
-1.125, 7.654e-7
-1.126, 6.973e-7
-1.127, 7.151e-7
-1.128, 7.506e-7
-1.129, 7.634e-7
-1.130, 7.516e-7
-1.131, 7.111e-7
-1.132, 7.388e-7
-1.133, 7.615e-7
-1.134, 7.220e-7
-1.135, 7.733e-7
-1.136, 7.348e-7
-1.137, 7.042e-7
-1.138, 8.118e-7
-1.139, 8.098e-7
-1.140, 7.901e-7
-1.141, 7.605e-7
-1.142, 7.516e-7
-1.143, 8.029e-7
-1.144, 8.808e-7
-1.145, 7.772e-7
-1.146, 8.236e-7
-1.147, 8.157e-7
-1.148, 7.920e-7
-1.149, 9.035e-7
-1.150, 7.822e-7
-1.151, 7.950e-7
-1.152, 8.749e-7
-1.153, 8.404e-7
-1.154, 8.552e-7
-1.155, 8.354e-7
-1.156, 8.108e-7
-1.157, 8.720e-7
-1.158, 8.276e-7
-1.159, 8.848e-7
-1.160, 9.016e-7
-1.161, 8.868e-7
-1.162, 8.779e-7
-1.163, 9.538e-7
-1.164, 9.163e-7
-1.165, 9.272e-7
-1.166, 9.193e-7
-1.167, 8.946e-7
-1.168, 9.933e-7
-1.169, 9.233e-7
-1.170, 9.805e-7
-1.171, 9.479e-7
-1.172, 8.532e-7
-1.173, 9.677e-7
-1.174, 9.538e-7
-1.175, 9.331e-7
-1.176, 9.242e-7
-1.177, 9.025e-7
-1.178, 9.913e-7
-1.179, 1.027e-6
-1.180, 9.519e-7
-1.181, 9.825e-7
-1.182, 9.755e-7
-1.183, 1.011e-6
-1.184, 1.047e-6
-1.185, 9.677e-7
-1.186, 9.933e-7
-1.187, 1.009e-6
-1.188, 9.894e-7
-1.189, 1.088e-6
-1.190, 1.008e-6
-1.191, 1.046e-6
-1.192, 1.042e-6
-1.193, 1.018e-6
-1.194, 1.098e-6
-1.195, 1.045e-6
-1.196, 1.044e-6
-1.197, 1.090e-6
-1.198, 1.011e-6
-1.199, 1.165e-6
-1.200, 1.074e-6
-1.201, 1.055e-6
-1.202, 1.147e-6
-1.203, 1.089e-6
-1.204, 1.090e-6
-1.205, 1.136e-6
-1.206, 1.068e-6
-1.207, 1.084e-6
-1.208, 1.120e-6
-1.209, 1.146e-6
-1.210, 1.164e-6
-1.211, 1.053e-6
-1.212, 1.139e-6
-1.213, 1.159e-6
-1.214, 1.099e-6
-1.215, 1.169e-6
-1.216, 1.151e-6
-1.217, 1.156e-6
-1.218, 1.188e-6
-1.219, 1.157e-6
-1.220, 1.181e-6
-1.221, 1.146e-6
-1.222, 1.179e-6
-1.223, 1.225e-6
-1.224, 1.206e-6
-1.225, 1.148e-6
-1.226, 1.210e-6
-1.227, 1.186e-6
-1.228, 1.253e-6
-1.229, 1.283e-6
-1.230, 1.224e-6
-1.231, 1.266e-6
-1.232, 1.244e-6
-1.233, 1.242e-6
-1.234, 1.305e-6
-1.235, 1.258e-6
-1.236, 1.261e-6
-1.237, 1.261e-6
-1.238, 1.273e-6
-1.239, 1.345e-6
-1.240, 1.306e-6
-1.241, 1.287e-6
-1.242, 1.332e-6
-1.243, 1.272e-6
-1.244, 1.391e-6
-1.245, 1.364e-6
-1.246, 1.326e-6
-1.247, 1.349e-6
-1.248, 1.365e-6
-1.249, 1.384e-6
-1.250, 1.424e-6
-1.251, 1.379e-6
-1.252, 1.405e-6
-1.253, 1.399e-6
-1.254, 1.483e-6
-1.255, 1.492e-6
-1.256, 1.430e-6
-1.257, 1.485e-6
-1.258, 1.508e-6
-1.259, 1.492e-6
-1.260, 1.532e-6
-1.261, 1.453e-6
-1.262, 1.530e-6
-1.263, 1.564e-6
-1.264, 1.546e-6
-1.265, 1.572e-6
-1.266, 1.601e-6
-1.267, 1.575e-6
-1.268, 1.653e-6
-1.269, 1.612e-6
-1.270, 1.641e-6
-1.271, 1.660e-6
-1.272, 1.609e-6
-1.273, 1.664e-6
-1.274, 1.720e-6
-1.275, 1.707e-6
-1.276, 1.744e-6
-1.277, 1.715e-6
-1.278, 1.709e-6
-1.279, 1.817e-6
-1.280, 1.797e-6
-1.281, 1.846e-6
-1.282, 1.805e-6
-1.283, 1.853e-6
-1.284, 1.996e-6
-1.285, 1.918e-6
-1.286, 1.954e-6
-1.287, 1.992e-6
-1.288, 1.974e-6
-1.289, 2.082e-6
-1.290, 2.041e-6
-1.291, 2.026e-6
-1.292, 2.115e-6
-1.293, 2.092e-6
-1.294, 2.182e-6
-1.295, 2.219e-6
-1.296, 2.199e-6
-1.297, 2.272e-6
-1.298, 2.301e-6
-1.299, 2.322e-6
-1.300, 2.345e-6
-1.301, 2.361e-6
-1.302, 2.406e-6
-1.303, 2.511e-6
-1.304, 2.505e-6
-1.305, 2.555e-6
-1.306, 2.605e-6
-1.307, 2.616e-6
-1.308, 2.677e-6
-1.309, 2.764e-6
-1.310, 2.711e-6
-1.311, 2.844e-6
-1.312, 2.853e-6
-1.313, 2.980e-6
-1.314, 3.030e-6
-1.315, 3.035e-6
-1.316, 3.141e-6
-1.317, 3.104e-6
-1.318, 3.218e-6
-1.319, 3.409e-6
-1.320, 3.345e-6
-1.321, 3.445e-6
-1.322, 3.498e-6
-1.323, 3.539e-6
-1.324, 3.691e-6
-1.325, 3.747e-6
-1.326, 3.771e-6
-1.327, 3.892e-6
-1.328, 3.962e-6
-1.329, 4.106e-6
-1.330, 4.194e-6
-1.331, 4.220e-6
-1.332, 4.364e-6
-1.333, 4.405e-6
-1.334, 4.530e-6
-1.335, 4.635e-6
-1.336, 4.770e-6
-1.337, 4.880e-6
-1.338, 5.027e-6
-1.339, 5.111e-6
-1.340, 5.274e-6
-1.341, 5.349e-6
-1.342, 5.428e-6
-1.343, 5.702e-6
-1.344, 5.833e-6
-1.345, 5.955e-6
-1.346, 6.074e-6
-1.347, 6.218e-6
-1.348, 6.399e-6
-1.349, 6.608e-6
-1.350, 6.758e-6
-1.351, 6.903e-6
-1.352, 7.090e-6
-1.353, 7.300e-6
-1.354, 7.505e-6
-1.355, 7.650e-6
-1.356, 7.917e-6
-1.357, 8.073e-6
-1.358, 8.323e-6
-1.359, 8.594e-6
-1.360, 8.741e-6
-1.361, 8.984e-6
-1.362, 9.225e-6
-1.363, 9.518e-6
-1.364, 9.842e-6
-1.365, 1.010e-5
-1.366, 1.029e-5
-1.367, 1.060e-5
-1.368, 1.083e-5
-1.369, 1.118e-5
-1.370, 1.152e-5
-1.371, 1.179e-5
-1.372, 1.215e-5
-1.373, 1.250e-5
-1.374, 1.284e-5
-1.375, 1.315e-5
-1.376, 1.353e-5
-1.377, 1.389e-5
-1.378, 1.431e-5
-1.379, 1.469e-5
-1.380, 1.511e-5
-1.381, 1.550e-5
-1.382, 1.588e-5
-1.383, 1.644e-5
-1.384, 1.684e-5
-1.385, 1.731e-5
-1.386, 1.783e-5
-1.387, 1.818e-5
-1.388, 1.880e-5
-1.389, 1.935e-5
-1.390, 1.980e-5
-1.391, 2.033e-5
-1.392, 2.086e-5
-1.393, 2.149e-5
-1.394, 2.212e-5
-1.395, 2.268e-5
-1.396, 2.330e-5
-1.397, 2.391e-5
-1.398, 2.452e-5
-1.399, 2.531e-5
-1.400, 2.587e-5
-1.401, 2.662e-5
-1.402, 2.730e-5
-1.403, 2.802e-5
-1.404, 2.883e-5
-1.405, 2.951e-5
-1.406, 3.022e-5
-1.407, 3.103e-5
-1.408, 3.186e-5
-1.409, 3.274e-5
-1.410, 3.364e-5
-1.411, 3.443e-5
-1.412, 3.538e-5
-1.413, 3.627e-5
-1.414, 3.723e-5
-1.415, 3.820e-5
-1.416, 3.915e-5
-1.417, 4.011e-5
-1.418, 4.120e-5
-1.419, 4.229e-5
-1.420, 4.333e-5
-1.421, 4.437e-5
-1.422, 4.543e-5
-1.423, 4.665e-5
-1.424, 4.779e-5
-1.425, 4.894e-5
-1.426, 5.017e-5
-1.427, 5.133e-5
-1.428, 5.274e-5
-1.429, 5.408e-5
-1.430, 5.524e-5
-1.431, 5.658e-5
-1.432, 5.789e-5
-1.433, 5.934e-5
-1.434, 6.082e-5
-1.435, 6.224e-5
-1.436, 6.373e-5
-1.437, 6.520e-5
-1.438, 6.676e-5
-1.439, 6.839e-5
-1.440, 6.998e-5
-1.441, 7.149e-5
-1.442, 7.305e-5
-1.443, 7.474e-5
-1.444, 7.648e-5
-1.445, 7.826e-5
-1.446, 7.983e-5
-1.447, 8.163e-5
-1.448, 8.356e-5
-1.449, 8.553e-5
-1.450, 8.728e-5
-1.451, 8.902e-5
-1.452, 9.102e-5
-1.453, 9.297e-5
-1.454, 9.510e-5
-1.455, 9.708e-5
-1.456, 9.928e-5
-1.457, 1.013e-4
-1.458, 1.032e-4
-1.459, 1.053e-4
-1.460, 1.077e-4
-1.461, 1.098e-4
-1.462, 1.121e-4
-1.463, 1.145e-4
-1.464, 1.168e-4
-1.465, 1.189e-4
-1.466, 1.212e-4
-1.467, 1.235e-4
-1.468, 1.260e-4
-1.469, 1.285e-4
-1.470, 1.308e-4
-1.471, 1.331e-4
-1.472, 1.356e-4
-1.473, 1.381e-4
-1.474, 1.404e-4
-1.475, 1.429e-4
-1.476, 1.453e-4
-1.477, 1.477e-4
-1.478, 1.505e-4
-1.479, 1.534e-4
-1.480, 1.560e-4
-1.481, 1.586e-4
-1.482, 1.614e-4
-1.483, 1.644e-4
-1.484, 1.672e-4
-1.485, 1.703e-4
-1.486, 1.733e-4
-1.487, 1.757e-4
-1.488, 1.782e-4
-1.489, 1.816e-4
-1.490, 1.843e-4
-1.491, 1.870e-4
-1.492, 1.900e-4
-1.493, 1.933e-4
-1.494, 1.968e-4
-1.495, 1.997e-4
-1.496, 2.026e-4
-1.497, 2.057e-4
-1.498, 2.094e-4
-1.499, 2.124e-4
-1.500, 2.156e-4
-1.501, 2.190e-4
-1.502, 2.223e-4
-1.503, 2.258e-4
-1.504, 2.290e-4
-1.505, 2.328e-4
-1.506, 2.364e-4
-1.507, 2.396e-4
-1.508, 2.434e-4
-1.509, 2.476e-4
-1.510, 2.506e-4
-1.511, 2.545e-4
-1.512, 2.584e-4
-1.513, 2.631e-4
-1.514, 2.664e-4
-1.515, 2.700e-4
-1.516, 2.742e-4
-1.517, 2.776e-4
-1.518, 2.805e-4
-1.519, 2.852e-4
-1.520, 2.883e-4
-1.521, 2.924e-4
-1.522, 2.970e-4
-1.523, 3.006e-4
-1.524, 3.044e-4
-1.525, 3.085e-4
-1.526, 3.122e-4
-1.527, 3.166e-4
-1.528, 3.208e-4
-1.529, 3.242e-4
-1.530, 3.282e-4
-1.531, 3.329e-4
-1.532, 3.365e-4
-1.533, 3.405e-4
-1.534, 3.442e-4
-1.535, 3.481e-4
-1.536, 3.528e-4
-1.537, 3.566e-4
-1.538, 3.601e-4
-1.539, 3.646e-4
-1.540, 3.688e-4
-1.541, 3.745e-4
-1.542, 3.782e-4
-1.543, 3.829e-4
-1.544, 3.870e-4
-1.545, 3.915e-4
-1.546, 3.962e-4
-1.547, 4.000e-4
-1.548, 4.050e-4
-1.549, 4.111e-4
-1.550, 4.153e-4
-1.551, 4.174e-4
-1.552, 4.222e-4
-1.553, 4.278e-4
-1.554, 4.327e-4
-1.555, 4.375e-4
-1.556, 4.411e-4
-1.557, 4.460e-4
-1.558, 4.498e-4
-1.559, 4.549e-4
-1.560, 4.595e-4
-1.561, 4.633e-4
-1.562, 4.674e-4
-1.563, 4.705e-4
-1.564, 4.749e-4
-1.565, 4.794e-4
-1.566, 4.840e-4
-1.567, 4.890e-4
-1.568, 4.944e-4
-1.569, 4.981e-4
-1.570, 5.046e-4
-1.571, 5.096e-4
-1.572, 5.147e-4
-1.573, 5.199e-4
-1.574, 5.238e-4
-1.575, 5.294e-4
-1.576, 5.338e-4
-1.577, 5.395e-4
-1.578, 5.451e-4
-1.579, 5.492e-4
-1.580, 5.541e-4
-1.581, 5.602e-4
-1.582, 5.651e-4
-1.583, 5.701e-4
-1.584, 5.747e-4
-1.585, 5.785e-4
-1.586, 5.827e-4
-1.587, 5.890e-4
-1.588, 5.943e-4
-1.589, 5.995e-4
-1.590, 6.046e-4
-1.591, 6.119e-4
-1.592, 6.176e-4
-1.593, 6.241e-4
-1.594, 6.291e-4
-1.595, 6.344e-4
-1.596, 6.401e-4
-1.597, 6.465e-4
-1.598, 6.511e-4
-1.599, 6.584e-4
-1.600, 6.665e-4
-1.601, 6.703e-4
-1.602, 6.752e-4
-1.603, 6.808e-4
-1.604, 6.872e-4
-1.605, 6.921e-4
-1.606, 6.956e-4
-1.607, 7.007e-4
-1.608, 7.065e-4
-1.609, 7.143e-4
-1.610, 7.233e-4
-1.611, 7.293e-4
-1.612, 7.345e-4
-1.613, 7.444e-4
-1.614, 7.507e-4
-1.615, 7.571e-4
-1.616, 7.622e-4
-1.617, 7.689e-4
-1.618, 7.744e-4
-1.619, 7.814e-4
-1.620, 7.874e-4
-1.621, 7.939e-4
-1.622, 8.001e-4
-1.623, 8.056e-4
-1.624, 8.104e-4
-1.625, 8.153e-4
-1.626, 8.218e-4
-1.627, 8.270e-4
-1.628, 8.324e-4
-1.629, 8.376e-4
-1.630, 8.438e-4
-1.631, 8.517e-4
-1.632, 8.574e-4
-1.633, 8.682e-4
-1.634, 8.742e-4
-1.635, 8.793e-4
-1.636, 8.846e-4
-1.637, 8.902e-4
-1.638, 8.977e-4
-1.639, 9.045e-4
-1.640, 9.105e-4
-1.641, 9.164e-4
-1.642, 9.273e-4
-1.643, 9.326e-4
-1.644, 9.381e-4
-1.645, 9.438e-4
-1.646, 9.480e-4
-1.647, 9.546e-4
-1.648, 9.623e-4
-1.649, 9.680e-4
-1.650, 9.750e-4
-1.651, 9.813e-4
-1.652, 9.920e-4
-1.653, 1.001e-3
-1.654, 1.010e-3
-1.655, 1.018e-3
-1.656, 1.025e-3
-1.657, 1.032e-3
-1.658, 1.042e-3
-1.659, 1.050e-3
-1.660, 1.060e-3
-1.661, 1.068e-3
-1.662, 1.077e-3
-1.663, 1.085e-3
-1.664, 1.091e-3
-1.665, 1.100e-3
-1.666, 1.108e-3
-1.667, 1.116e-3
-1.668, 1.125e-3
-1.669, 1.137e-3
-1.670, 1.145e-3
-1.671, 1.151e-3
-1.672, 1.160e-3
-1.673, 1.166e-3
-1.674, 1.177e-3
-1.675, 1.188e-3
-1.676, 1.193e-3
-1.677, 1.205e-3
-1.678, 1.212e-3
-1.679, 1.219e-3
-1.680, 1.236e-3
-1.681, 1.250e-3
-1.682, 1.260e-3
-1.683, 1.268e-3
-1.684, 1.277e-3
-1.685, 1.289e-3
-1.686, 1.294e-3
-1.687, 1.300e-3
-1.688, 1.312e-3
-1.689, 1.322e-3
-1.690, 1.329e-3
-1.691, 1.338e-3
-1.692, 1.348e-3
-1.693, 1.363e-3
-1.694, 1.374e-3
-1.695, 1.390e-3
-1.696, 1.400e-3
-1.697, 1.410e-3
-1.698, 1.423e-3
-1.699, 1.437e-3
-1.700, 1.442e-3
-1.701, 1.452e-3
-1.702, 1.462e-3
-1.703, 1.472e-3
-1.704, 1.487e-3
-1.705, 1.496e-3
-1.706, 1.506e-3
-1.707, 1.519e-3
-1.708, 1.534e-3
-1.709, 1.545e-3
-1.710, 1.553e-3
-1.711, 1.561e-3
-1.712, 1.572e-3
-1.713, 1.581e-3
-1.714, 1.593e-3
-1.715, 1.598e-3
-1.716, 1.619e-3
-1.717, 1.626e-3
-1.718, 1.631e-3
-1.719, 1.642e-3
-1.720, 1.651e-3
-1.721, 1.655e-3
-1.722, 1.659e-3
-1.723, 1.671e-3
-1.724, 1.688e-3
-1.725, 1.703e-3
-1.726, 1.713e-3
-1.727, 1.725e-3
-1.728, 1.738e-3
-1.729, 1.752e-3
-1.730, 1.769e-3
-1.731, 1.785e-3
-1.732, 1.795e-3
-1.733, 1.809e-3
-1.734, 1.826e-3
-1.735, 1.840e-3
-1.736, 1.858e-3
-1.737, 1.869e-3
-1.738, 1.878e-3
-1.739, 1.887e-3
-1.740, 1.896e-3
-1.741, 1.916e-3
-1.742, 1.931e-3
-1.743, 1.953e-3
-1.744, 1.968e-3
-1.745, 1.979e-3
-1.746, 1.992e-3
-1.747, 2.020e-3
-1.748, 2.031e-3
-1.749, 2.041e-3
-1.750, 2.054e-3
-1.751, 2.065e-3
-1.752, 2.081e-3
-1.753, 2.097e-3
-1.754, 2.143e-3
-1.755, 2.142e-3
-1.756, 2.153e-3
-1.757, 2.176e-3
-1.758, 2.196e-3
-1.759, 2.206e-3
-1.760, 2.215e-3
-1.761, 2.226e-3
-1.762, 2.237e-3
-1.763, 2.257e-3
-1.764, 2.279e-3
-1.765, 2.313e-3
-1.766, 2.319e-3
-1.767, 2.333e-3
-1.768, 2.348e-3
-1.769, 2.360e-3
-1.770, 2.372e-3
-1.771, 2.375e-3
-1.772, 2.385e-3
-1.773, 2.395e-3
-1.774, 2.416e-3
-1.775, 2.429e-3
-1.776, 2.445e-3
-1.777, 2.461e-3
-1.778, 2.477e-3
-1.779, 2.503e-3
-1.780, 2.523e-3
-1.781, 2.531e-3
-1.782, 2.547e-3
-1.783, 2.553e-3
-1.784, 2.565e-3
-1.785, 2.578e-3
-1.786, 2.613e-3
-1.787, 2.611e-3
-1.788, 2.637e-3
-1.789, 2.639e-3
-1.790, 2.650e-3
-1.791, 2.665e-3
-1.792, 2.672e-3
-1.793, 2.687e-3
-1.794, 2.718e-3
-1.795, 2.748e-3
-1.796, 2.764e-3
-1.797, 2.788e-3
-1.798, 2.808e-3
-1.799, 2.848e-3
-1.800, 2.877e-3
-1.799, 2.857e-3
-1.798, 2.841e-3
-1.797, 2.826e-3
-1.796, 2.798e-3
-1.795, 2.798e-3
-1.794, 2.782e-3
-1.793, 2.779e-3
-1.792, 2.770e-3
-1.791, 2.757e-3
-1.790, 2.746e-3
-1.789, 2.733e-3
-1.788, 2.716e-3
-1.787, 2.717e-3
-1.786, 2.706e-3
-1.785, 2.696e-3
-1.784, 2.695e-3
-1.783, 2.690e-3
-1.782, 2.685e-3
-1.781, 2.672e-3
-1.780, 2.661e-3
-1.779, 2.643e-3
-1.778, 2.622e-3
-1.777, 2.617e-3
-1.776, 2.597e-3
-1.775, 2.587e-3
-1.774, 2.570e-3
-1.773, 2.545e-3
-1.772, 2.525e-3
-1.771, 2.518e-3
-1.770, 2.508e-3
-1.769, 2.493e-3
-1.768, 2.467e-3
-1.767, 2.446e-3
-1.766, 2.424e-3
-1.765, 2.406e-3
-1.764, 2.385e-3
-1.763, 2.388e-3
-1.762, 2.362e-3
-1.761, 2.349e-3
-1.760, 2.331e-3
-1.759, 2.321e-3
-1.758, 2.294e-3
-1.757, 2.271e-3
-1.756, 2.260e-3
-1.755, 2.233e-3
-1.754, 2.213e-3
-1.753, 2.202e-3
-1.752, 2.184e-3
-1.751, 2.157e-3
-1.750, 2.130e-3
-1.749, 2.109e-3
-1.748, 2.087e-3
-1.747, 2.074e-3
-1.746, 2.084e-3
-1.745, 2.069e-3
-1.744, 2.054e-3
-1.743, 2.047e-3
-1.742, 2.055e-3
-1.741, 2.032e-3
-1.740, 2.008e-3
-1.739, 1.981e-3
-1.738, 1.958e-3
-1.737, 1.937e-3
-1.736, 1.938e-3
-1.735, 1.934e-3
-1.734, 1.921e-3
-1.733, 1.912e-3
-1.732, 1.901e-3
-1.731, 1.893e-3
-1.730, 1.881e-3
-1.729, 1.874e-3
-1.728, 1.858e-3
-1.727, 1.854e-3
-1.726, 1.851e-3
-1.725, 1.850e-3
-1.724, 1.834e-3
-1.723, 1.820e-3
-1.722, 1.803e-3
-1.721, 1.803e-3
-1.720, 1.782e-3
-1.719, 1.776e-3
-1.718, 1.762e-3
-1.717, 1.744e-3
-1.716, 1.729e-3
-1.715, 1.715e-3
-1.714, 1.700e-3
-1.713, 1.682e-3
-1.712, 1.664e-3
-1.711, 1.652e-3
-1.710, 1.636e-3
-1.709, 1.620e-3
-1.708, 1.624e-3
-1.707, 1.613e-3
-1.706, 1.596e-3
-1.705, 1.586e-3
-1.704, 1.576e-3
-1.703, 1.565e-3
-1.702, 1.551e-3
-1.701, 1.543e-3
-1.700, 1.528e-3
-1.699, 1.515e-3
-1.698, 1.506e-3
-1.697, 1.493e-3
-1.696, 1.483e-3
-1.695, 1.473e-3
-1.694, 1.459e-3
-1.693, 1.443e-3
-1.692, 1.427e-3
-1.691, 1.418e-3
-1.690, 1.407e-3
-1.689, 1.406e-3
-1.688, 1.393e-3
-1.687, 1.388e-3
-1.686, 1.394e-3
-1.685, 1.370e-3
-1.684, 1.354e-3
-1.683, 1.341e-3
-1.682, 1.330e-3
-1.681, 1.320e-3
-1.680, 1.307e-3
-1.679, 1.293e-3
-1.678, 1.278e-3
-1.677, 1.263e-3
-1.676, 1.251e-3
-1.675, 1.243e-3
-1.674, 1.237e-3
-1.673, 1.229e-3
-1.672, 1.220e-3
-1.671, 1.212e-3
-1.670, 1.206e-3
-1.669, 1.193e-3
-1.668, 1.182e-3
-1.667, 1.171e-3
-1.666, 1.160e-3
-1.665, 1.151e-3
-1.664, 1.143e-3
-1.663, 1.135e-3
-1.662, 1.128e-3
-1.661, 1.121e-3
-1.660, 1.111e-3
-1.659, 1.096e-3
-1.658, 1.080e-3
-1.657, 1.066e-3
-1.656, 1.057e-3
-1.655, 1.045e-3
-1.654, 1.035e-3
-1.653, 1.023e-3
-1.652, 1.011e-3
-1.651, 1.004e-3
-1.650, 9.926e-4
-1.649, 9.860e-4
-1.648, 9.777e-4
-1.647, 9.682e-4
-1.646, 9.596e-4
-1.645, 9.507e-4
-1.644, 9.435e-4
-1.643, 9.351e-4
-1.642, 9.261e-4
-1.641, 9.201e-4
-1.640, 9.153e-4
-1.639, 9.095e-4
-1.638, 9.049e-4
-1.637, 9.002e-4
-1.636, 8.930e-4
-1.635, 8.847e-4
-1.634, 8.781e-4
-1.633, 8.710e-4
-1.632, 8.647e-4
-1.631, 8.563e-4
-1.630, 8.484e-4
-1.629, 8.399e-4
-1.628, 8.325e-4
-1.627, 8.238e-4
-1.626, 8.173e-4
-1.625, 8.075e-4
-1.624, 7.990e-4
-1.623, 7.922e-4
-1.622, 7.856e-4
-1.621, 7.817e-4
-1.620, 7.726e-4
-1.619, 7.636e-4
-1.618, 7.541e-4
-1.617, 7.454e-4
-1.616, 7.365e-4
-1.615, 7.277e-4
-1.614, 7.202e-4
-1.613, 7.159e-4
-1.612, 7.093e-4
-1.611, 7.017e-4
-1.610, 6.982e-4
-1.609, 6.893e-4
-1.608, 6.809e-4
-1.607, 6.718e-4
-1.606, 6.622e-4
-1.605, 6.532e-4
-1.604, 6.461e-4
-1.603, 6.394e-4
-1.602, 6.337e-4
-1.601, 6.261e-4
-1.600, 6.197e-4
-1.599, 6.115e-4
-1.598, 6.052e-4
-1.597, 5.983e-4
-1.596, 5.930e-4
-1.595, 5.853e-4
-1.594, 5.766e-4
-1.593, 5.705e-4
-1.592, 5.635e-4
-1.591, 5.572e-4
-1.590, 5.526e-4
-1.589, 5.497e-4
-1.588, 5.430e-4
-1.587, 5.360e-4
-1.586, 5.300e-4
-1.585, 5.225e-4
-1.584, 5.167e-4
-1.583, 5.106e-4
-1.582, 5.044e-4
-1.581, 4.993e-4
-1.580, 4.928e-4
-1.579, 4.864e-4
-1.578, 4.806e-4
-1.577, 4.749e-4
-1.576, 4.705e-4
-1.575, 4.640e-4
-1.574, 4.575e-4
-1.573, 4.520e-4
-1.572, 4.462e-4
-1.571, 4.407e-4
-1.570, 4.352e-4
-1.569, 4.296e-4
-1.568, 4.247e-4
-1.567, 4.181e-4
-1.566, 4.125e-4
-1.565, 4.061e-4
-1.564, 4.010e-4
-1.563, 3.960e-4
-1.562, 3.913e-4
-1.561, 3.869e-4
-1.560, 3.827e-4
-1.559, 3.762e-4
-1.558, 3.709e-4
-1.557, 3.658e-4
-1.556, 3.609e-4
-1.555, 3.554e-4
-1.554, 3.502e-4
-1.553, 3.452e-4
-1.552, 3.396e-4
-1.551, 3.358e-4
-1.550, 3.316e-4
-1.549, 3.273e-4
-1.548, 3.235e-4
-1.547, 3.188e-4
-1.546, 3.142e-4
-1.545, 3.098e-4
-1.544, 3.049e-4
-1.543, 3.006e-4
-1.542, 2.962e-4
-1.541, 2.916e-4
-1.540, 2.877e-4
-1.539, 2.831e-4
-1.538, 2.784e-4
-1.537, 2.744e-4
-1.536, 2.700e-4
-1.535, 2.658e-4
-1.534, 2.609e-4
-1.533, 2.574e-4
-1.532, 2.529e-4
-1.531, 2.489e-4
-1.530, 2.448e-4
-1.529, 2.405e-4
-1.528, 2.367e-4
-1.527, 2.330e-4
-1.526, 2.295e-4
-1.525, 2.253e-4
-1.524, 2.215e-4
-1.523, 2.179e-4
-1.522, 2.147e-4
-1.521, 2.115e-4
-1.520, 2.078e-4
-1.519, 2.044e-4
-1.518, 2.013e-4
-1.517, 1.976e-4
-1.516, 1.945e-4
-1.515, 1.912e-4
-1.514, 1.876e-4
-1.513, 1.847e-4
-1.512, 1.816e-4
-1.511, 1.784e-4
-1.510, 1.750e-4
-1.509, 1.721e-4
-1.508, 1.691e-4
-1.507, 1.662e-4
-1.506, 1.628e-4
-1.505, 1.595e-4
-1.504, 1.568e-4
-1.503, 1.540e-4
-1.502, 1.512e-4
-1.501, 1.482e-4
-1.500, 1.453e-4
-1.499, 1.427e-4
-1.498, 1.400e-4
-1.497, 1.375e-4
-1.496, 1.350e-4
-1.495, 1.326e-4
-1.494, 1.301e-4
-1.493, 1.273e-4
-1.492, 1.253e-4
-1.491, 1.227e-4
-1.490, 1.198e-4
-1.489, 1.175e-4
-1.488, 1.151e-4
-1.487, 1.128e-4
-1.486, 1.107e-4
-1.485, 1.083e-4
-1.484, 1.062e-4
-1.483, 1.043e-4
-1.482, 1.020e-4
-1.481, 9.977e-5
-1.480, 9.768e-5
-1.479, 9.552e-5
-1.478, 9.355e-5
-1.477, 9.172e-5
-1.476, 8.978e-5
-1.475, 8.801e-5
-1.474, 8.608e-5
-1.473, 8.420e-5
-1.472, 8.239e-5
-1.471, 8.062e-5
-1.470, 7.886e-5
-1.469, 7.681e-5
-1.468, 7.511e-5
-1.467, 7.354e-5
-1.466, 7.192e-5
-1.465, 7.016e-5
-1.464, 6.870e-5
-1.463, 6.724e-5
-1.462, 6.580e-5
-1.461, 6.422e-5
-1.460, 6.265e-5
-1.459, 6.128e-5
-1.458, 5.996e-5
-1.457, 5.852e-5
-1.456, 5.724e-5
-1.455, 5.586e-5
-1.454, 5.440e-5
-1.453, 5.309e-5
-1.452, 5.107e-5
-1.451, 4.982e-5
-1.450, 4.861e-5
-1.449, 4.742e-5
-1.448, 4.633e-5
-1.447, 4.524e-5
-1.446, 4.407e-5
-1.445, 4.288e-5
-1.444, 4.178e-5
-1.443, 4.082e-5
-1.442, 3.989e-5
-1.441, 3.893e-5
-1.440, 3.788e-5
-1.439, 3.689e-5
-1.438, 3.593e-5
-1.437, 3.509e-5
-1.436, 3.421e-5
-1.435, 3.327e-5
-1.434, 3.239e-5
-1.433, 3.157e-5
-1.432, 3.076e-5
-1.431, 2.998e-5
-1.430, 2.914e-5
-1.429, 2.829e-5
-1.428, 2.763e-5
-1.427, 2.686e-5
-1.426, 2.614e-5
-1.425, 2.545e-5
-1.424, 2.472e-5
-1.423, 2.409e-5
-1.422, 2.356e-5
-1.421, 2.290e-5
-1.420, 2.231e-5
-1.419, 2.168e-5
-1.418, 2.108e-5
-1.417, 2.058e-5
-1.416, 2.004e-5
-1.415, 1.941e-5
-1.414, 1.897e-5
-1.413, 1.843e-5
-1.412, 1.795e-5
-1.411, 1.750e-5
-1.410, 1.698e-5
-1.409, 1.648e-5
-1.408, 1.605e-5
-1.407, 1.564e-5
-1.406, 1.520e-5
-1.405, 1.472e-5
-1.404, 1.430e-5
-1.403, 1.398e-5
-1.402, 1.363e-5
-1.401, 1.327e-5
-1.400, 1.287e-5
-1.399, 1.249e-5
-1.398, 1.219e-5
-1.397, 1.189e-5
-1.396, 1.151e-5
-1.395, 1.119e-5
-1.394, 1.088e-5
-1.393, 1.053e-5
-1.392, 1.030e-5
-1.391, 9.956e-6
-1.390, 9.631e-6
-1.389, 9.398e-6
-1.388, 9.100e-6
-1.387, 8.828e-6
-1.386, 8.633e-6
-1.385, 8.305e-6
-1.384, 8.142e-6
-1.383, 7.912e-6
-1.382, 7.634e-6
-1.381, 7.498e-6
-1.380, 7.161e-6
-1.379, 6.956e-6
-1.378, 6.853e-6
-1.377, 6.620e-6
-1.376, 6.332e-6
-1.375, 6.165e-6
-1.374, 5.985e-6
-1.373, 5.786e-6
-1.372, 5.699e-6
-1.371, 5.486e-6
-1.370, 5.248e-6
-1.369, 5.127e-6
-1.368, 4.941e-6
-1.367, 4.845e-6
-1.366, 4.634e-6
-1.365, 4.472e-6
-1.364, 4.362e-6
-1.363, 4.234e-6
-1.362, 4.119e-6
-1.361, 4.002e-6
-1.360, 3.752e-6
-1.359, 3.727e-6
-1.358, 3.617e-6
-1.357, 3.437e-6
-1.356, 3.365e-6
-1.355, 3.211e-6
-1.354, 3.119e-6
-1.353, 3.064e-6
-1.352, 2.948e-6
-1.351, 2.828e-6
-1.350, 2.695e-6
-1.349, 2.553e-6
-1.348, 2.531e-6
-1.347, 2.522e-6
-1.346, 2.335e-6
-1.345, 2.278e-6
-1.344, 2.190e-6
-1.343, 2.096e-6
-1.342, 2.091e-6
-1.341, 1.942e-6
-1.340, 1.863e-6
-1.339, 1.807e-6
-1.338, 1.771e-6
-1.337, 1.683e-6
-1.336, 1.655e-6
-1.335, 1.537e-6
-1.334, 1.419e-6
-1.333, 1.420e-6
-1.332, 1.427e-6
-1.331, 1.329e-6
-1.330, 1.232e-6
-1.329, 1.189e-6
-1.328, 1.122e-6
-1.327, 1.141e-6
-1.326, 1.027e-6
-1.325, 9.509e-7
-1.324, 9.588e-7
-1.323, 8.828e-7
-1.322, 9.351e-7
-1.321, 8.276e-7
-1.320, 7.289e-7
-1.319, 7.506e-7
-1.318, 6.658e-7
-1.317, 6.697e-7
-1.316, 6.006e-7
-1.315, 5.681e-7
-1.314, 5.908e-7
-1.313, 4.892e-7
-1.312, 4.132e-7
-1.311, 4.418e-7
-1.310, 3.865e-7
-1.309, 3.698e-7
-1.308, 3.925e-7
-1.307, 3.599e-7
-1.306, 2.889e-7
-1.305, 2.563e-7
-1.304, 2.001e-7
-1.303, 2.465e-7
-1.302, 2.257e-7
-1.301, 1.123e-7
-1.300, 1.458e-7
-1.299, 9.550e-8
-1.298, 6.788e-8
-1.297, 1.498e-7
-1.296, -1.500e-8
-1.295, -6.117e-9
-1.294, 5.900e-8
-1.293, -2.585e-8
-1.292, 1.460e-8
-1.291, -7.912e-8
-1.290, -8.899e-8
-1.289, -1.107e-7
-1.288, -1.048e-7
-1.287, -1.156e-7
-1.286, -9.392e-8
-1.285, -1.946e-7
-1.284, -1.452e-7
-1.283, -1.886e-7
-1.282, -1.975e-7
-1.281, -2.192e-7
-1.280, -2.893e-7
-1.279, -2.143e-7
-1.278, -2.577e-7
-1.277, -2.824e-7
-1.276, -3.041e-7
-1.275, -2.686e-7
-1.274, -3.800e-7
-1.273, -3.406e-7
-1.272, -3.208e-7
-1.271, -3.356e-7
-1.270, -3.347e-7
-1.269, -3.800e-7
-1.268, -3.633e-7
-1.267, -3.218e-7
-1.266, -4.254e-7
-1.265, -3.850e-7
-1.264, -4.402e-7
-1.263, -4.215e-7
-1.262, -3.771e-7
-1.261, -4.540e-7
-1.260, -4.550e-7
-1.259, -4.442e-7
-1.258, -4.807e-7
-1.257, -3.909e-7
-1.256, -4.511e-7
-1.255, -5.103e-7
-1.254, -4.570e-7
-1.253, -5.349e-7
-1.252, -4.757e-7
-1.251, -4.886e-7
-1.250, -5.507e-7
-1.249, -4.708e-7
-1.248, -4.965e-7
-1.247, -5.270e-7
-1.246, -5.201e-7
-1.245, -5.843e-7
-1.244, -5.251e-7
-1.243, -5.310e-7
-1.242, -5.931e-7
-1.241, -5.300e-7
-1.240, -6.227e-7
-1.239, -5.655e-7
-1.238, -5.438e-7
-1.237, -5.823e-7
-1.236, -5.024e-7
-1.235, -6.464e-7
-1.234, -6.050e-7
-1.233, -5.576e-7
-1.232, -6.040e-7
-1.231, -5.764e-7
-1.230, -6.454e-7
-1.229, -6.257e-7
-1.228, -5.744e-7
-1.227, -6.346e-7
-1.226, -6.188e-7
-1.225, -6.612e-7
-1.224, -6.563e-7
-1.223, -6.533e-7
-1.222, -6.691e-7
-1.221, -6.642e-7
-1.220, -6.543e-7
-1.219, -6.918e-7
-1.218, -6.612e-7
-1.217, -5.931e-7
-1.216, -7.115e-7
-1.215, -6.573e-7
-1.214, -6.938e-7
-1.213, -6.849e-7
-1.212, -6.326e-7
-1.211, -7.155e-7
-1.210, -7.066e-7
-1.209, -6.740e-7
-1.208, -6.790e-7
-1.207, -6.869e-7
-1.206, -6.879e-7
-1.205, -7.135e-7
-1.204, -6.869e-7
-1.203, -6.957e-7
-1.202, -6.573e-7
-1.201, -6.731e-7
-1.200, -7.688e-7
-1.199, -7.283e-7
-1.198, -7.007e-7
-1.197, -7.214e-7
-1.196, -7.175e-7
-1.195, -6.977e-7
-1.194, -7.342e-7
-1.193, -6.780e-7
-1.192, -7.184e-7
-1.191, -7.688e-7
-1.190, -7.323e-7
-1.189, -7.549e-7
-1.188, -7.105e-7
-1.187, -6.987e-7
-1.186, -7.579e-7
-1.185, -7.401e-7
-1.184, -7.688e-7
-1.183, -7.204e-7
-1.182, -6.809e-7
-1.181, -7.569e-7
-1.180, -8.023e-7
-1.179, -7.431e-7
-1.178, -7.944e-7
-1.177, -7.638e-7
-1.176, -7.678e-7
-1.175, -8.023e-7
-1.174, -7.658e-7
-1.173, -7.323e-7
-1.172, -7.214e-7
-1.171, -7.569e-7
-1.170, -7.865e-7
-1.169, -7.648e-7
-1.168, -7.717e-7
-1.167, -7.628e-7
-1.166, -7.263e-7
-1.165, -8.368e-7
-1.164, -7.974e-7
-1.163, -7.609e-7
-1.162, -7.905e-7
-1.161, -7.826e-7
-1.160, -7.638e-7
-1.159, -7.944e-7
-1.158, -7.451e-7
-1.157, -8.092e-7
-1.156, -7.421e-7
-1.155, -7.974e-7
-1.154, -8.605e-7
-1.153, -7.293e-7
-1.152, -7.895e-7
-1.151, -7.836e-7
-1.150, -7.885e-7
-1.149, -8.437e-7
-1.148, -7.599e-7
-1.147, -7.323e-7
-1.146, -7.895e-7
-1.145, -8.161e-7
-1.144, -8.289e-7
-1.143, -8.132e-7
-1.142, -7.668e-7
-1.141, -8.339e-7
-1.140, -8.033e-7
-1.139, -8.418e-7
-1.138, -7.924e-7
-1.137, -7.540e-7
-1.136, -8.980e-7
-1.135, -8.427e-7
-1.134, -8.625e-7
-1.133, -7.855e-7
-1.132, -7.490e-7
-1.131, -8.714e-7
-1.130, -7.964e-7
-1.129, -8.309e-7
-1.128, -8.151e-7
-1.127, -7.332e-7
-1.126, -7.855e-7
-1.125, -8.723e-7
-1.124, -8.102e-7
-1.123, -8.220e-7
-1.122, -7.707e-7
-1.121, -7.934e-7
-1.120, -8.526e-7
-1.119, -7.826e-7
-1.118, -8.072e-7
-1.117, -8.003e-7
-1.116, -8.289e-7
-1.115, -8.457e-7
-1.114, -8.210e-7
-1.113, -8.289e-7
-1.112, -8.427e-7
-1.111, -8.122e-7
-1.110, -8.871e-7
-1.109, -8.053e-7
-1.108, -7.974e-7
-1.107, -8.694e-7
-1.106, -8.506e-7
-1.105, -8.388e-7
-1.104, -8.753e-7
-1.103, -8.467e-7
-1.102, -8.250e-7
-1.101, -8.092e-7
-1.100, -8.477e-7
-1.099, -8.921e-7
-1.098, -7.836e-7
-1.097, -8.398e-7
-1.096, -7.648e-7
-1.095, -8.645e-7
-1.094, -8.664e-7
-1.093, -7.974e-7
-1.092, -8.516e-7
-1.091, -8.605e-7
-1.090, -8.477e-7
-1.089, -9.187e-7
-1.088, -8.072e-7
-1.087, -8.881e-7
-1.086, -8.980e-7
-1.085, -8.161e-7
-1.084, -8.842e-7
-1.083, -8.457e-7
-1.082, -8.329e-7
-1.081, -8.674e-7
-1.080, -7.974e-7
-1.079, -8.635e-7
-1.078, -8.654e-7
-1.077, -8.230e-7
-1.076, -9.355e-7
-1.075, -8.595e-7
-1.074, -8.891e-7
-1.073, -8.733e-7
-1.072, -8.299e-7
-1.071, -9.167e-7
-1.070, -8.773e-7
-1.069, -8.941e-7
-1.068, -8.556e-7
-1.067, -8.437e-7
-1.066, -8.595e-7
-1.065, -9.148e-7
-1.064, -8.822e-7
-1.063, -8.615e-7
-1.062, -8.358e-7
-1.061, -8.832e-7
-1.060, -8.802e-7
-1.059, -8.990e-7
-1.058, -8.783e-7
-1.057, -8.299e-7
-1.056, -8.743e-7
-1.055, -9.463e-7
-1.054, -8.289e-7
-1.053, -8.497e-7
-1.052, -8.743e-7
-1.051, -8.871e-7
-1.050, -9.434e-7
-1.049, -8.862e-7
-1.048, -8.625e-7
-1.047, -9.167e-7
-1.046, -8.605e-7
-1.045, -9.424e-7
-1.044, -8.950e-7
-1.043, -8.743e-7
-1.042, -8.862e-7
-1.041, -9.069e-7
-1.040, -9.059e-7
-1.039, -9.207e-7
-1.038, -8.891e-7
-1.037, -8.506e-7
-1.036, -8.585e-7
-1.035, -9.207e-7
-1.034, -8.842e-7
-1.033, -8.852e-7
-1.032, -8.714e-7
-1.031, -8.753e-7
-1.030, -1.015e-6
-1.029, -9.227e-7
-1.028, -8.635e-7
-1.027, -9.641e-7
-1.026, -9.010e-7
-1.025, -9.888e-7
-1.024, -9.276e-7
-1.023, -8.862e-7
-1.022, -9.513e-7
-1.021, -9.523e-7
-1.020, -9.710e-7
-1.019, -9.118e-7
-1.018, -9.315e-7
-1.017, -9.779e-7
-1.016, -9.552e-7
-1.015, -9.513e-7
-1.014, -9.177e-7
-1.013, -9.108e-7
-1.012, -9.345e-7
-1.011, -9.572e-7
-1.010, -9.621e-7
-1.009, -9.631e-7
-1.008, -9.769e-7
-1.007, -9.276e-7
-1.006, -9.513e-7
-1.005, -9.286e-7
-1.004, -9.454e-7
-1.003, -8.970e-7
-1.002, -9.562e-7
-1.001, -9.611e-7
