Mar. 14, 2025   11:20:38
Cyclic Voltammetry
File: c:/users/guazh/data/banditlqround7_x0exp891_r5/2025-03-03-exp892\exp892-2025-03-14t11_08_18-h2koh\exp892_cv_50mvs_efin_-1600mv.bin
Data Source:  Experiment
Instrument Model:  CHI760E
Header: CV ran at 50 mVs
Note: 

Init E (V) = -1
High E (V) = -1
Low E (V) = -1.6
Final E (V) = -1
Init P/N = N
Scan Rate (V/s) = 0.05
Segment = 7
Sample Interval (V) = 0.001
Quiet Time (sec) = 60
Sensitivity (A/V) = 0.001
Comp R (ohm) = 1.9

Results:

Channel 1:
Segment 1:

Segment 2:

Segment 3:

Segment 4:

Segment 5:

Segment 6:

Segment 7:

Potential/V, Current/A

-1.000, 1.069e-6
-1.001, 1.283e-6
-1.002, 1.392e-6
-1.003, 1.393e-6
-1.004, 1.419e-6
-1.005, 1.383e-6
-1.006, 1.389e-6
-1.007, 1.453e-6
-1.008, 1.480e-6
-1.009, 1.460e-6
-1.010, 1.462e-6
-1.011, 1.439e-6
-1.012, 1.508e-6
-1.013, 1.537e-6
-1.014, 1.513e-6
-1.015, 1.529e-6
-1.016, 1.499e-6
-1.017, 1.536e-6
-1.018, 1.607e-6
-1.019, 1.576e-6
-1.020, 1.554e-6
-1.021, 1.548e-6
-1.022, 1.580e-6
-1.023, 1.617e-6
-1.024, 1.612e-6
-1.025, 1.578e-6
-1.026, 1.605e-6
-1.027, 1.629e-6
-1.028, 1.667e-6
-1.029, 1.668e-6
-1.030, 1.638e-6
-1.031, 1.638e-6
-1.032, 1.667e-6
-1.033, 1.696e-6
-1.034, 1.717e-6
-1.035, 1.664e-6
-1.036, 1.662e-6
-1.037, 1.714e-6
-1.038, 1.743e-6
-1.039, 1.742e-6
-1.040, 1.696e-6
-1.041, 1.709e-6
-1.042, 1.755e-6
-1.043, 1.801e-6
-1.044, 1.789e-6
-1.045, 1.755e-6
-1.046, 1.747e-6
-1.047, 1.821e-6
-1.048, 1.834e-6
-1.049, 1.827e-6
-1.050, 1.815e-6
-1.051, 1.776e-6
-1.052, 1.832e-6
-1.053, 1.874e-6
-1.054, 1.864e-6
-1.055, 1.837e-6
-1.056, 1.825e-6
-1.057, 1.857e-6
-1.058, 1.927e-6
-1.059, 1.896e-6
-1.060, 1.873e-6
-1.061, 1.861e-6
-1.062, 1.893e-6
-1.063, 1.940e-6
-1.064, 1.954e-6
-1.065, 1.909e-6
-1.066, 1.912e-6
-1.067, 1.948e-6
-1.068, 1.989e-6
-1.069, 1.995e-6
-1.070, 1.941e-6
-1.071, 1.946e-6
-1.072, 1.972e-6
-1.073, 2.020e-6
-1.074, 2.015e-6
-1.075, 2.000e-6
-1.076, 2.000e-6
-1.077, 2.027e-6
-1.078, 2.053e-6
-1.079, 2.078e-6
-1.080, 2.020e-6
-1.081, 2.029e-6
-1.082, 2.070e-6
-1.083, 2.104e-6
-1.084, 2.122e-6
-1.085, 2.089e-6
-1.086, 2.055e-6
-1.087, 2.106e-6
-1.088, 2.153e-6
-1.089, 2.137e-6
-1.090, 2.139e-6
-1.091, 2.101e-6
-1.092, 2.132e-6
-1.093, 2.200e-6
-1.094, 2.188e-6
-1.095, 2.178e-6
-1.096, 2.145e-6
-1.097, 2.166e-6
-1.098, 2.224e-6
-1.099, 2.235e-6
-1.100, 2.218e-6
-1.101, 2.227e-6
-1.102, 2.218e-6
-1.103, 2.296e-6
-1.104, 2.276e-6
-1.105, 2.246e-6
-1.106, 2.228e-6
-1.107, 2.263e-6
-1.108, 2.308e-6
-1.109, 2.318e-6
-1.110, 2.294e-6
-1.111, 2.282e-6
-1.112, 2.302e-6
-1.113, 2.350e-6
-1.114, 2.367e-6
-1.115, 2.317e-6
-1.116, 2.320e-6
-1.117, 2.351e-6
-1.118, 2.396e-6
-1.119, 2.412e-6
-1.120, 2.386e-6
-1.121, 2.363e-6
-1.122, 2.414e-6
-1.123, 2.451e-6
-1.124, 2.434e-6
-1.125, 2.425e-6
-1.126, 2.408e-6
-1.127, 2.454e-6
-1.128, 2.488e-6
-1.129, 2.466e-6
-1.130, 2.470e-6
-1.131, 2.442e-6
-1.132, 2.481e-6
-1.133, 2.524e-6
-1.134, 2.543e-6
-1.135, 2.508e-6
-1.136, 2.500e-6
-1.137, 2.527e-6
-1.138, 2.583e-6
-1.139, 2.577e-6
-1.140, 2.559e-6
-1.141, 2.547e-6
-1.142, 2.567e-6
-1.143, 2.628e-6
-1.144, 2.625e-6
-1.145, 2.596e-6
-1.146, 2.604e-6
-1.147, 2.613e-6
-1.148, 2.663e-6
-1.149, 2.684e-6
-1.150, 2.673e-6
-1.151, 2.661e-6
-1.152, 2.671e-6
-1.153, 2.722e-6
-1.154, 2.751e-6
-1.155, 2.710e-6
-1.156, 2.690e-6
-1.157, 2.725e-6
-1.158, 2.776e-6
-1.159, 2.791e-6
-1.160, 2.752e-6
-1.161, 2.740e-6
-1.162, 2.771e-6
-1.163, 2.832e-6
-1.164, 2.828e-6
-1.165, 2.827e-6
-1.166, 2.802e-6
-1.167, 2.852e-6
-1.168, 2.889e-6
-1.169, 2.893e-6
-1.170, 2.886e-6
-1.171, 2.855e-6
-1.172, 2.893e-6
-1.173, 2.954e-6
-1.174, 2.966e-6
-1.175, 2.948e-6
-1.176, 2.917e-6
-1.177, 2.954e-6
-1.178, 3.022e-6
-1.179, 3.040e-6
-1.180, 2.999e-6
-1.181, 2.995e-6
-1.182, 3.023e-6
-1.183, 3.087e-6
-1.184, 3.086e-6
-1.185, 3.078e-6
-1.186, 3.073e-6
-1.187, 3.085e-6
-1.188, 3.149e-6
-1.189, 3.188e-6
-1.190, 3.170e-6
-1.191, 3.174e-6
-1.192, 3.177e-6
-1.193, 3.228e-6
-1.194, 3.273e-6
-1.195, 3.230e-6
-1.196, 3.243e-6
-1.197, 3.267e-6
-1.198, 3.301e-6
-1.199, 3.359e-6
-1.200, 3.324e-6
-1.201, 3.325e-6
-1.202, 3.341e-6
-1.203, 3.405e-6
-1.204, 3.447e-6
-1.205, 3.408e-6
-1.206, 3.419e-6
-1.207, 3.469e-6
-1.208, 3.523e-6
-1.209, 3.549e-6
-1.210, 3.536e-6
-1.211, 3.533e-6
-1.212, 3.560e-6
-1.213, 3.611e-6
-1.214, 3.652e-6
-1.215, 3.651e-6
-1.216, 3.625e-6
-1.217, 3.664e-6
-1.218, 3.739e-6
-1.219, 3.792e-6
-1.220, 3.768e-6
-1.221, 3.771e-6
-1.222, 3.802e-6
-1.223, 3.862e-6
-1.224, 3.904e-6
-1.225, 3.902e-6
-1.226, 3.894e-6
-1.227, 3.929e-6
-1.228, 4.009e-6
-1.229, 4.073e-6
-1.230, 4.041e-6
-1.231, 4.063e-6
-1.232, 4.102e-6
-1.233, 4.154e-6
-1.234, 4.216e-6
-1.235, 4.192e-6
-1.236, 4.217e-6
-1.237, 4.238e-6
-1.238, 4.305e-6
-1.239, 4.385e-6
-1.240, 4.381e-6
-1.241, 4.370e-6
-1.242, 4.432e-6
-1.243, 4.485e-6
-1.244, 4.565e-6
-1.245, 4.552e-6
-1.246, 4.550e-6
-1.247, 4.620e-6
-1.248, 4.696e-6
-1.249, 4.744e-6
-1.250, 4.763e-6
-1.251, 4.751e-6
-1.252, 4.802e-6
-1.253, 4.912e-6
-1.254, 4.958e-6
-1.255, 4.986e-6
-1.256, 4.980e-6
-1.257, 5.051e-6
-1.258, 5.133e-6
-1.259, 5.182e-6
-1.260, 5.227e-6
-1.261, 5.225e-6
-1.262, 5.251e-6
-1.263, 5.347e-6
-1.264, 5.441e-6
-1.265, 5.440e-6
-1.266, 5.498e-6
-1.267, 5.541e-6
-1.268, 5.628e-6
-1.269, 5.719e-6
-1.270, 5.764e-6
-1.271, 5.786e-6
-1.272, 5.824e-6
-1.273, 5.905e-6
-1.274, 6.005e-6
-1.275, 6.025e-6
-1.276, 6.081e-6
-1.277, 6.150e-6
-1.278, 6.227e-6
-1.279, 6.338e-6
-1.280, 6.381e-6
-1.281, 6.407e-6
-1.282, 6.487e-6
-1.283, 6.572e-6
-1.284, 6.682e-6
-1.285, 6.733e-6
-1.286, 6.768e-6
-1.287, 6.859e-6
-1.288, 6.948e-6
-1.289, 7.066e-6
-1.290, 7.134e-6
-1.291, 7.167e-6
-1.292, 7.242e-6
-1.293, 7.365e-6
-1.294, 7.488e-6
-1.295, 7.546e-6
-1.296, 7.603e-6
-1.297, 7.694e-6
-1.298, 7.809e-6
-1.299, 7.924e-6
-1.300, 7.995e-6
-1.301, 8.059e-6
-1.302, 8.130e-6
-1.303, 8.296e-6
-1.304, 8.429e-6
-1.305, 8.491e-6
-1.306, 8.596e-6
-1.307, 8.687e-6
-1.308, 8.819e-6
-1.309, 8.960e-6
-1.310, 9.055e-6
-1.311, 9.133e-6
-1.312, 9.243e-6
-1.313, 9.390e-6
-1.314, 9.546e-6
-1.315, 9.654e-6
-1.316, 9.746e-6
-1.317, 9.868e-6
-1.318, 1.002e-5
-1.319, 1.019e-5
-1.320, 1.031e-5
-1.321, 1.042e-5
-1.322, 1.057e-5
-1.323, 1.072e-5
-1.324, 1.090e-5
-1.325, 1.104e-5
-1.326, 1.113e-5
-1.327, 1.128e-5
-1.328, 1.147e-5
-1.329, 1.166e-5
-1.330, 1.181e-5
-1.331, 1.195e-5
-1.332, 1.210e-5
-1.333, 1.230e-5
-1.334, 1.250e-5
-1.335, 1.266e-5
-1.336, 1.279e-5
-1.337, 1.297e-5
-1.338, 1.320e-5
-1.339, 1.341e-5
-1.340, 1.356e-5
-1.341, 1.373e-5
-1.342, 1.389e-5
-1.343, 1.416e-5
-1.344, 1.439e-5
-1.345, 1.459e-5
-1.346, 1.475e-5
-1.347, 1.493e-5
-1.348, 1.518e-5
-1.349, 1.544e-5
-1.350, 1.566e-5
-1.351, 1.586e-5
-1.352, 1.606e-5
-1.353, 1.632e-5
-1.354, 1.659e-5
-1.355, 1.681e-5
-1.356, 1.702e-5
-1.357, 1.724e-5
-1.358, 1.752e-5
-1.359, 1.782e-5
-1.360, 1.806e-5
-1.361, 1.829e-5
-1.362, 1.854e-5
-1.363, 1.884e-5
-1.364, 1.916e-5
-1.365, 1.940e-5
-1.366, 1.964e-5
-1.367, 1.993e-5
-1.368, 2.022e-5
-1.369, 2.053e-5
-1.370, 2.084e-5
-1.371, 2.113e-5
-1.372, 2.139e-5
-1.373, 2.172e-5
-1.374, 2.204e-5
-1.375, 2.238e-5
-1.376, 2.264e-5
-1.377, 2.297e-5
-1.378, 2.332e-5
-1.379, 2.366e-5
-1.380, 2.398e-5
-1.381, 2.430e-5
-1.382, 2.460e-5
-1.383, 2.501e-5
-1.384, 2.535e-5
-1.385, 2.571e-5
-1.386, 2.608e-5
-1.387, 2.641e-5
-1.388, 2.681e-5
-1.389, 2.720e-5
-1.390, 2.757e-5
-1.391, 2.792e-5
-1.392, 2.830e-5
-1.393, 2.870e-5
-1.394, 2.918e-5
-1.395, 2.956e-5
-1.396, 2.993e-5
-1.397, 3.033e-5
-1.398, 3.078e-5
-1.399, 3.127e-5
-1.400, 3.162e-5
-1.401, 3.207e-5
-1.402, 3.249e-5
-1.403, 3.294e-5
-1.404, 3.343e-5
-1.405, 3.386e-5
-1.406, 3.429e-5
-1.407, 3.474e-5
-1.408, 3.521e-5
-1.409, 3.575e-5
-1.410, 3.626e-5
-1.411, 3.667e-5
-1.412, 3.710e-5
-1.413, 3.757e-5
-1.414, 3.812e-5
-1.415, 3.861e-5
-1.416, 3.913e-5
-1.417, 3.961e-5
-1.418, 4.009e-5
-1.419, 4.065e-5
-1.420, 4.114e-5
-1.421, 4.164e-5
-1.422, 4.217e-5
-1.423, 4.268e-5
-1.424, 4.328e-5
-1.425, 4.380e-5
-1.426, 4.436e-5
-1.427, 4.490e-5
-1.428, 4.547e-5
-1.429, 4.610e-5
-1.430, 4.666e-5
-1.431, 4.727e-5
-1.432, 4.779e-5
-1.433, 4.844e-5
-1.434, 4.913e-5
-1.435, 4.971e-5
-1.436, 5.030e-5
-1.437, 5.087e-5
-1.438, 5.151e-5
-1.439, 5.219e-5
-1.440, 5.285e-5
-1.441, 5.348e-5
-1.442, 5.402e-5
-1.443, 5.469e-5
-1.444, 5.540e-5
-1.445, 5.609e-5
-1.446, 5.676e-5
-1.447, 5.743e-5
-1.448, 5.808e-5
-1.449, 5.881e-5
-1.450, 5.946e-5
-1.451, 6.013e-5
-1.452, 6.082e-5
-1.453, 6.153e-5
-1.454, 6.229e-5
-1.455, 6.302e-5
-1.456, 6.366e-5
-1.457, 6.443e-5
-1.458, 6.518e-5
-1.459, 6.591e-5
-1.460, 6.678e-5
-1.461, 6.745e-5
-1.462, 6.824e-5
-1.463, 6.902e-5
-1.464, 6.981e-5
-1.465, 7.064e-5
-1.466, 7.138e-5
-1.467, 7.217e-5
-1.468, 7.299e-5
-1.469, 7.391e-5
-1.470, 7.468e-5
-1.471, 7.545e-5
-1.472, 7.626e-5
-1.473, 7.717e-5
-1.474, 7.808e-5
-1.475, 7.898e-5
-1.476, 7.985e-5
-1.477, 8.070e-5
-1.478, 8.163e-5
-1.479, 8.266e-5
-1.480, 8.358e-5
-1.481, 8.451e-5
-1.482, 8.543e-5
-1.483, 8.629e-5
-1.484, 8.723e-5
-1.485, 8.821e-5
-1.486, 8.919e-5
-1.487, 9.021e-5
-1.488, 9.121e-5
-1.489, 9.221e-5
-1.490, 9.332e-5
-1.491, 9.433e-5
-1.492, 9.537e-5
-1.493, 9.645e-5
-1.494, 9.747e-5
-1.495, 9.865e-5
-1.496, 9.966e-5
-1.497, 1.008e-4
-1.498, 1.019e-4
-1.499, 1.031e-4
-1.500, 1.044e-4
-1.501, 1.055e-4
-1.502, 1.067e-4
-1.503, 1.080e-4
-1.504, 1.093e-4
-1.505, 1.105e-4
-1.506, 1.117e-4
-1.507, 1.129e-4
-1.508, 1.142e-4
-1.509, 1.154e-4
-1.510, 1.166e-4
-1.511, 1.180e-4
-1.512, 1.192e-4
-1.513, 1.204e-4
-1.514, 1.219e-4
-1.515, 1.233e-4
-1.516, 1.247e-4
-1.517, 1.261e-4
-1.518, 1.275e-4
-1.519, 1.291e-4
-1.520, 1.306e-4
-1.521, 1.321e-4
-1.522, 1.334e-4
-1.523, 1.349e-4
-1.524, 1.365e-4
-1.525, 1.380e-4
-1.526, 1.395e-4
-1.527, 1.409e-4
-1.528, 1.424e-4
-1.529, 1.440e-4
-1.530, 1.458e-4
-1.531, 1.474e-4
-1.532, 1.489e-4
-1.533, 1.507e-4
-1.534, 1.524e-4
-1.535, 1.541e-4
-1.536, 1.558e-4
-1.537, 1.576e-4
-1.538, 1.595e-4
-1.539, 1.613e-4
-1.540, 1.632e-4
-1.541, 1.652e-4
-1.542, 1.672e-4
-1.543, 1.692e-4
-1.544, 1.712e-4
-1.545, 1.730e-4
-1.546, 1.751e-4
-1.547, 1.770e-4
-1.548, 1.791e-4
-1.549, 1.812e-4
-1.550, 1.833e-4
-1.551, 1.852e-4
-1.552, 1.873e-4
-1.553, 1.898e-4
-1.554, 1.921e-4
-1.555, 1.946e-4
-1.556, 1.967e-4
-1.557, 1.990e-4
-1.558, 2.015e-4
-1.559, 2.040e-4
-1.560, 2.061e-4
-1.561, 2.088e-4
-1.562, 2.116e-4
-1.563, 2.141e-4
-1.564, 2.163e-4
-1.565, 2.187e-4
-1.566, 2.212e-4
-1.567, 2.234e-4
-1.568, 2.260e-4
-1.569, 2.287e-4
-1.570, 2.312e-4
-1.571, 2.341e-4
-1.572, 2.372e-4
-1.573, 2.404e-4
-1.574, 2.429e-4
-1.575, 2.457e-4
-1.576, 2.483e-4
-1.577, 2.509e-4
-1.578, 2.543e-4
-1.579, 2.572e-4
-1.580, 2.599e-4
-1.581, 2.633e-4
-1.582, 2.668e-4
-1.583, 2.706e-4
-1.584, 2.738e-4
-1.585, 2.772e-4
-1.586, 2.805e-4
-1.587, 2.839e-4
-1.588, 2.873e-4
-1.589, 2.911e-4
-1.590, 2.949e-4
-1.591, 2.988e-4
-1.592, 3.020e-4
-1.593, 3.058e-4
-1.594, 3.097e-4
-1.595, 3.134e-4
-1.596, 3.179e-4
-1.597, 3.215e-4
-1.598, 3.258e-4
-1.599, 3.303e-4
-1.600, 3.303e-4
-1.599, 3.275e-4
-1.598, 3.255e-4
-1.597, 3.240e-4
-1.596, 3.223e-4
-1.595, 3.201e-4
-1.594, 3.181e-4
-1.593, 3.160e-4
-1.592, 3.138e-4
-1.591, 3.119e-4
-1.590, 3.097e-4
-1.589, 3.073e-4
-1.588, 3.048e-4
-1.587, 3.022e-4
-1.586, 2.998e-4
-1.585, 2.977e-4
-1.584, 2.953e-4
-1.583, 2.931e-4
-1.582, 2.903e-4
-1.581, 2.880e-4
-1.580, 2.854e-4
-1.579, 2.829e-4
-1.578, 2.806e-4
-1.577, 2.788e-4
-1.576, 2.768e-4
-1.575, 2.746e-4
-1.574, 2.724e-4
-1.573, 2.701e-4
-1.572, 2.674e-4
-1.571, 2.656e-4
-1.570, 2.635e-4
-1.569, 2.618e-4
-1.568, 2.598e-4
-1.567, 2.579e-4
-1.566, 2.563e-4
-1.565, 2.542e-4
-1.564, 2.523e-4
-1.563, 2.502e-4
-1.562, 2.479e-4
-1.561, 2.451e-4
-1.560, 2.421e-4
-1.559, 2.402e-4
-1.558, 2.381e-4
-1.557, 2.363e-4
-1.556, 2.346e-4
-1.555, 2.330e-4
-1.554, 2.315e-4
-1.553, 2.297e-4
-1.552, 2.281e-4
-1.551, 2.262e-4
-1.550, 2.244e-4
-1.549, 2.226e-4
-1.548, 2.210e-4
-1.547, 2.191e-4
-1.546, 2.174e-4
-1.545, 2.157e-4
-1.544, 2.139e-4
-1.543, 2.123e-4
-1.542, 2.108e-4
-1.541, 2.090e-4
-1.540, 2.078e-4
-1.539, 2.062e-4
-1.538, 2.048e-4
-1.537, 2.031e-4
-1.536, 2.016e-4
-1.535, 2.003e-4
-1.534, 1.989e-4
-1.533, 1.973e-4
-1.532, 1.958e-4
-1.531, 1.943e-4
-1.530, 1.931e-4
-1.529, 1.916e-4
-1.528, 1.899e-4
-1.527, 1.884e-4
-1.526, 1.869e-4
-1.525, 1.857e-4
-1.524, 1.841e-4
-1.523, 1.825e-4
-1.522, 1.812e-4
-1.521, 1.798e-4
-1.520, 1.782e-4
-1.519, 1.768e-4
-1.518, 1.756e-4
-1.517, 1.742e-4
-1.516, 1.729e-4
-1.515, 1.715e-4
-1.514, 1.701e-4
-1.513, 1.687e-4
-1.512, 1.672e-4
-1.511, 1.659e-4
-1.510, 1.645e-4
-1.509, 1.632e-4
-1.508, 1.618e-4
-1.507, 1.607e-4
-1.506, 1.595e-4
-1.505, 1.579e-4
-1.504, 1.568e-4
-1.503, 1.555e-4
-1.502, 1.545e-4
-1.501, 1.531e-4
-1.500, 1.519e-4
-1.499, 1.504e-4
-1.498, 1.490e-4
-1.497, 1.474e-4
-1.496, 1.462e-4
-1.495, 1.449e-4
-1.494, 1.436e-4
-1.493, 1.426e-4
-1.492, 1.413e-4
-1.491, 1.403e-4
-1.490, 1.393e-4
-1.489, 1.380e-4
-1.488, 1.369e-4
-1.487, 1.358e-4
-1.486, 1.346e-4
-1.485, 1.335e-4
-1.484, 1.323e-4
-1.483, 1.312e-4
-1.482, 1.301e-4
-1.481, 1.292e-4
-1.480, 1.281e-4
-1.479, 1.268e-4
-1.478, 1.256e-4
-1.477, 1.242e-4
-1.476, 1.232e-4
-1.475, 1.222e-4
-1.474, 1.212e-4
-1.473, 1.201e-4
-1.472, 1.191e-4
-1.471, 1.177e-4
-1.470, 1.167e-4
-1.469, 1.158e-4
-1.468, 1.146e-4
-1.467, 1.136e-4
-1.466, 1.126e-4
-1.465, 1.117e-4
-1.464, 1.105e-4
-1.463, 1.096e-4
-1.462, 1.085e-4
-1.461, 1.074e-4
-1.460, 1.066e-4
-1.459, 1.055e-4
-1.458, 1.045e-4
-1.457, 1.035e-4
-1.456, 1.025e-4
-1.455, 1.017e-4
-1.454, 1.008e-4
-1.453, 9.982e-5
-1.452, 9.884e-5
-1.451, 9.786e-5
-1.450, 9.713e-5
-1.449, 9.601e-5
-1.448, 9.508e-5
-1.447, 9.416e-5
-1.446, 9.318e-5
-1.445, 9.231e-5
-1.444, 9.142e-5
-1.443, 9.053e-5
-1.442, 8.955e-5
-1.441, 8.859e-5
-1.440, 8.766e-5
-1.439, 8.687e-5
-1.438, 8.580e-5
-1.437, 8.500e-5
-1.436, 8.405e-5
-1.435, 8.320e-5
-1.434, 8.240e-5
-1.433, 8.142e-5
-1.432, 8.049e-5
-1.431, 7.959e-5
-1.430, 7.861e-5
-1.429, 7.766e-5
-1.428, 7.691e-5
-1.427, 7.596e-5
-1.426, 7.502e-5
-1.425, 7.430e-5
-1.424, 7.357e-5
-1.423, 7.260e-5
-1.422, 7.183e-5
-1.421, 7.096e-5
-1.420, 7.015e-5
-1.419, 6.935e-5
-1.418, 6.852e-5
-1.417, 6.771e-5
-1.416, 6.694e-5
-1.415, 6.615e-5
-1.414, 6.543e-5
-1.413, 6.465e-5
-1.412, 6.382e-5
-1.411, 6.316e-5
-1.410, 6.240e-5
-1.409, 6.158e-5
-1.408, 6.082e-5
-1.407, 6.004e-5
-1.406, 5.933e-5
-1.405, 5.858e-5
-1.404, 5.798e-5
-1.403, 5.721e-5
-1.402, 5.634e-5
-1.401, 5.566e-5
-1.400, 5.503e-5
-1.399, 5.423e-5
-1.398, 5.354e-5
-1.397, 5.277e-5
-1.396, 5.212e-5
-1.395, 5.135e-5
-1.394, 5.075e-5
-1.393, 5.016e-5
-1.392, 4.936e-5
-1.391, 4.865e-5
-1.390, 4.804e-5
-1.389, 4.741e-5
-1.388, 4.680e-5
-1.387, 4.605e-5
-1.386, 4.529e-5
-1.385, 4.480e-5
-1.384, 4.422e-5
-1.383, 4.353e-5
-1.382, 4.285e-5
-1.381, 4.224e-5
-1.380, 4.169e-5
-1.379, 4.114e-5
-1.378, 4.057e-5
-1.377, 3.994e-5
-1.376, 3.938e-5
-1.375, 3.882e-5
-1.374, 3.825e-5
-1.373, 3.773e-5
-1.372, 3.716e-5
-1.371, 3.661e-5
-1.370, 3.610e-5
-1.369, 3.553e-5
-1.368, 3.499e-5
-1.367, 3.441e-5
-1.366, 3.384e-5
-1.365, 3.345e-5
-1.364, 3.294e-5
-1.363, 3.239e-5
-1.362, 3.181e-5
-1.361, 3.130e-5
-1.360, 3.081e-5
-1.359, 3.032e-5
-1.358, 2.980e-5
-1.357, 2.932e-5
-1.356, 2.875e-5
-1.355, 2.829e-5
-1.354, 2.784e-5
-1.353, 2.740e-5
-1.352, 2.687e-5
-1.351, 2.641e-5
-1.350, 2.600e-5
-1.349, 2.561e-5
-1.348, 2.519e-5
-1.347, 2.469e-5
-1.346, 2.423e-5
-1.345, 2.381e-5
-1.344, 2.336e-5
-1.343, 2.299e-5
-1.342, 2.254e-5
-1.341, 2.215e-5
-1.340, 2.178e-5
-1.339, 2.147e-5
-1.338, 2.097e-5
-1.337, 2.053e-5
-1.336, 2.018e-5
-1.335, 1.982e-5
-1.334, 1.949e-5
-1.333, 1.910e-5
-1.332, 1.867e-5
-1.331, 1.832e-5
-1.330, 1.797e-5
-1.329, 1.765e-5
-1.328, 1.731e-5
-1.327, 1.694e-5
-1.326, 1.666e-5
-1.325, 1.630e-5
-1.324, 1.599e-5
-1.323, 1.565e-5
-1.322, 1.529e-5
-1.321, 1.495e-5
-1.320, 1.471e-5
-1.319, 1.445e-5
-1.318, 1.409e-5
-1.317, 1.381e-5
-1.316, 1.351e-5
-1.315, 1.325e-5
-1.314, 1.296e-5
-1.313, 1.267e-5
-1.312, 1.240e-5
-1.311, 1.209e-5
-1.310, 1.184e-5
-1.309, 1.165e-5
-1.308, 1.137e-5
-1.307, 1.112e-5
-1.306, 1.087e-5
-1.305, 1.058e-5
-1.304, 1.035e-5
-1.303, 1.012e-5
-1.302, 9.868e-6
-1.301, 9.644e-6
-1.300, 9.428e-6
-1.299, 9.231e-6
-1.298, 8.995e-6
-1.297, 8.755e-6
-1.296, 8.522e-6
-1.295, 8.345e-6
-1.294, 8.201e-6
-1.293, 8.097e-6
-1.292, 7.744e-6
-1.291, 7.510e-6
-1.290, 7.329e-6
-1.289, 7.142e-6
-1.288, 6.963e-6
-1.287, 6.768e-6
-1.286, 6.568e-6
-1.285, 6.409e-6
-1.284, 6.285e-6
-1.283, 6.111e-6
-1.282, 5.927e-6
-1.281, 5.670e-6
-1.280, 5.525e-6
-1.279, 5.415e-6
-1.278, 5.284e-6
-1.277, 5.105e-6
-1.276, 4.915e-6
-1.275, 4.750e-6
-1.274, 4.666e-6
-1.273, 4.526e-6
-1.272, 4.351e-6
-1.271, 4.179e-6
-1.270, 4.055e-6
-1.269, 3.958e-6
-1.268, 3.813e-6
-1.267, 3.603e-6
-1.266, 3.531e-6
-1.265, 3.419e-6
-1.264, 3.332e-6
-1.263, 3.200e-6
-1.262, 3.022e-6
-1.261, 2.898e-6
-1.260, 2.823e-6
-1.259, 2.720e-6
-1.258, 2.591e-6
-1.257, 2.456e-6
-1.256, 2.361e-6
-1.255, 2.274e-6
-1.254, 2.212e-6
-1.253, 2.106e-6
-1.252, 1.965e-6
-1.251, 1.862e-6
-1.250, 1.788e-6
-1.249, 1.702e-6
-1.248, 1.609e-6
-1.247, 1.499e-6
-1.246, 1.400e-6
-1.245, 1.336e-6
-1.244, 1.264e-6
-1.243, 1.173e-6
-1.242, 1.089e-6
-1.241, 9.706e-7
-1.240, 9.104e-7
-1.239, 8.759e-7
-1.238, 7.871e-7
-1.237, 7.052e-7
-1.236, 6.125e-7
-1.235, 5.602e-7
-1.234, 5.276e-7
-1.233, 4.319e-7
-1.232, 3.550e-7
-1.231, 2.899e-7
-1.230, 2.228e-7
-1.229, 1.350e-7
-1.228, 9.846e-8
-1.227, 2.052e-8
-1.226, -3.571e-8
-1.225, -1.018e-7
-1.224, -1.156e-7
-1.223, -1.650e-7
-1.222, -2.538e-7
-1.221, -3.189e-7
-1.220, -3.731e-7
-1.219, -3.781e-7
-1.218, -4.284e-7
-1.217, -5.093e-7
-1.216, -5.695e-7
-1.215, -6.109e-7
-1.214, -6.464e-7
-1.213, -6.632e-7
-1.212, -7.214e-7
-1.211, -8.033e-7
-1.210, -8.339e-7
-1.209, -8.516e-7
-1.208, -8.852e-7
-1.207, -9.355e-7
-1.206, -1.021e-6
-1.205, -1.019e-6
-1.204, -1.040e-6
-1.203, -1.090e-6
-1.202, -1.138e-6
-1.201, -1.217e-6
-1.200, -1.221e-6
-1.199, -1.227e-6
-1.198, -1.249e-6
-1.197, -1.284e-6
-1.196, -1.372e-6
-1.195, -1.352e-6
-1.194, -1.361e-6
-1.193, -1.417e-6
-1.192, -1.445e-6
-1.191, -1.503e-6
-1.190, -1.535e-6
-1.189, -1.520e-6
-1.188, -1.532e-6
-1.187, -1.573e-6
-1.186, -1.632e-6
-1.185, -1.677e-6
-1.184, -1.637e-6
-1.183, -1.652e-6
-1.182, -1.701e-6
-1.181, -1.758e-6
-1.180, -1.758e-6
-1.179, -1.747e-6
-1.178, -1.786e-6
-1.177, -1.821e-6
-1.176, -1.856e-6
-1.175, -1.878e-6
-1.174, -1.859e-6
-1.173, -1.893e-6
-1.172, -1.930e-6
-1.171, -1.967e-6
-1.170, -1.972e-6
-1.169, -1.943e-6
-1.168, -1.961e-6
-1.167, -2.005e-6
-1.166, -2.056e-6
-1.165, -2.057e-6
-1.164, -2.046e-6
-1.163, -2.069e-6
-1.162, -2.094e-6
-1.161, -2.141e-6
-1.160, -2.110e-6
-1.159, -2.110e-6
-1.158, -2.135e-6
-1.157, -2.159e-6
-1.156, -2.194e-6
-1.155, -2.224e-6
-1.154, -2.186e-6
-1.153, -2.198e-6
-1.152, -2.247e-6
-1.151, -2.271e-6
-1.150, -2.283e-6
-1.149, -2.232e-6
-1.148, -2.255e-6
-1.147, -2.300e-6
-1.146, -2.303e-6
-1.145, -2.315e-6
-1.144, -2.278e-6
-1.143, -2.282e-6
-1.142, -2.332e-6
-1.141, -2.363e-6
-1.140, -2.356e-6
-1.139, -2.369e-6
-1.138, -2.337e-6
-1.137, -2.390e-6
-1.136, -2.409e-6
-1.135, -2.412e-6
-1.134, -2.375e-6
-1.133, -2.370e-6
-1.132, -2.398e-6
-1.131, -2.458e-6
-1.130, -2.446e-6
-1.129, -2.440e-6
-1.128, -2.432e-6
-1.127, -2.419e-6
-1.126, -2.485e-6
-1.125, -2.490e-6
-1.124, -2.472e-6
-1.123, -2.461e-6
-1.122, -2.474e-6
-1.121, -2.499e-6
-1.120, -2.500e-6
-1.119, -2.469e-6
-1.118, -2.481e-6
-1.117, -2.517e-6
-1.116, -2.546e-6
-1.115, -2.541e-6
-1.114, -2.503e-6
-1.113, -2.503e-6
-1.112, -2.543e-6
-1.111, -2.565e-6
-1.110, -2.592e-6
-1.109, -2.546e-6
-1.108, -2.526e-6
-1.107, -2.560e-6
-1.106, -2.595e-6
-1.105, -2.609e-6
-1.104, -2.564e-6
-1.103, -2.545e-6
-1.102, -2.597e-6
-1.101, -2.626e-6
-1.100, -2.639e-6
-1.099, -2.616e-6
-1.098, -2.578e-6
-1.097, -2.598e-6
-1.096, -2.625e-6
-1.095, -2.634e-6
-1.094, -2.634e-6
-1.093, -2.621e-6
-1.092, -2.639e-6
-1.091, -2.662e-6
-1.090, -2.671e-6
-1.089, -2.660e-6
-1.088, -2.622e-6
-1.087, -2.621e-6
-1.086, -2.649e-6
-1.085, -2.657e-6
-1.084, -2.633e-6
-1.083, -2.638e-6
-1.082, -2.653e-6
-1.081, -2.670e-6
-1.080, -2.665e-6
-1.079, -2.659e-6
-1.078, -2.654e-6
-1.077, -2.656e-6
-1.076, -2.681e-6
-1.075, -2.716e-6
-1.074, -2.683e-6
-1.073, -2.670e-6
-1.072, -2.669e-6
-1.071, -2.679e-6
-1.070, -2.681e-6
-1.069, -2.687e-6
-1.068, -2.675e-6
-1.067, -2.693e-6
-1.066, -2.699e-6
-1.065, -2.708e-6
-1.064, -2.683e-6
-1.063, -2.659e-6
-1.062, -2.679e-6
-1.061, -2.683e-6
-1.060, -2.705e-6
-1.059, -2.704e-6
-1.058, -2.676e-6
-1.057, -2.700e-6
-1.056, -2.718e-6
-1.055, -2.718e-6
-1.054, -2.712e-6
-1.053, -2.678e-6
-1.052, -2.685e-6
-1.051, -2.707e-6
-1.050, -2.705e-6
-1.049, -2.700e-6
-1.048, -2.685e-6
-1.047, -2.711e-6
-1.046, -2.728e-6
-1.045, -2.745e-6
-1.044, -2.691e-6
-1.043, -2.667e-6
-1.042, -2.683e-6
-1.041, -2.735e-6
-1.040, -2.720e-6
-1.039, -2.702e-6
-1.038, -2.705e-6
-1.037, -2.716e-6
-1.036, -2.736e-6
-1.035, -2.753e-6
-1.034, -2.702e-6
-1.033, -2.673e-6
-1.032, -2.704e-6
-1.031, -2.718e-6
-1.030, -2.743e-6
-1.029, -2.715e-6
-1.028, -2.687e-6
-1.027, -2.715e-6
-1.026, -2.719e-6
-1.025, -2.732e-6
-1.024, -2.726e-6
-1.023, -2.715e-6
-1.022, -2.721e-6
-1.021, -2.758e-6
-1.020, -2.762e-6
-1.019, -2.739e-6
-1.018, -2.698e-6
-1.017, -2.720e-6
-1.016, -2.724e-6
-1.015, -2.712e-6
-1.014, -2.701e-6
-1.013, -2.672e-6
-1.012, -2.702e-6
-1.011, -2.737e-6
-1.010, -2.750e-6
-1.009, -2.724e-6
-1.008, -2.701e-6
-1.007, -2.720e-6
-1.006, -2.725e-6
-1.005, -2.736e-6
-1.004, -2.697e-6
-1.003, -2.691e-6
-1.002, -2.702e-6
-1.001, -2.734e-6
-1.000, -1.098e-6
-1.001, -5.468e-7
-1.002, -3.781e-7
-1.003, -3.297e-7
-1.004, -2.834e-7
-1.005, -2.616e-7
-1.006, -1.768e-7
-1.007, -1.304e-7
-1.008, -1.196e-7
-1.009, -1.028e-7
-1.010, -8.899e-8
-1.011, -3.275e-8
-1.012, 3.039e-8
-1.013, 6.689e-8
-1.014, 6.788e-8
-1.015, 8.465e-8
-1.016, 1.182e-7
-1.017, 1.725e-7
-1.018, 1.863e-7
-1.019, 1.892e-7
-1.020, 2.040e-7
-1.021, 2.336e-7
-1.022, 3.037e-7
-1.023, 3.303e-7
-1.024, 3.106e-7
-1.025, 3.135e-7
-1.026, 3.678e-7
-1.027, 3.856e-7
-1.028, 4.073e-7
-1.029, 3.964e-7
-1.030, 4.053e-7
-1.031, 4.526e-7
-1.032, 4.625e-7
-1.033, 4.911e-7
-1.034, 5.237e-7
-1.035, 4.961e-7
-1.036, 5.276e-7
-1.037, 5.720e-7
-1.038, 5.819e-7
-1.039, 5.878e-7
-1.040, 5.701e-7
-1.041, 5.987e-7
-1.042, 6.579e-7
-1.043, 6.421e-7
-1.044, 6.450e-7
-1.045, 6.460e-7
-1.046, 6.815e-7
-1.047, 7.397e-7
-1.048, 7.506e-7
-1.049, 7.289e-7
-1.050, 7.348e-7
-1.051, 7.348e-7
-1.052, 8.157e-7
-1.053, 8.009e-7
-1.054, 8.039e-7
-1.055, 8.118e-7
-1.056, 8.325e-7
-1.057, 8.877e-7
-1.058, 8.818e-7
-1.059, 8.660e-7
-1.060, 8.473e-7
-1.061, 8.710e-7
-1.062, 9.302e-7
-1.063, 9.568e-7
-1.064, 9.331e-7
-1.065, 9.183e-7
-1.066, 9.499e-7
-1.067, 9.953e-7
-1.068, 1.009e-6
-1.069, 1.018e-6
-1.070, 1.000e-6
-1.071, 1.035e-6
-1.072, 1.064e-6
-1.073, 1.048e-6
-1.074, 1.043e-6
-1.075, 1.033e-6
-1.076, 1.075e-6
-1.077, 1.121e-6
-1.078, 1.149e-6
-1.079, 1.130e-6
-1.080, 1.119e-6
-1.081, 1.127e-6
-1.082, 1.161e-6
-1.083, 1.187e-6
-1.084, 1.179e-6
-1.085, 1.149e-6
-1.086, 1.192e-6
-1.087, 1.257e-6
-1.088, 1.252e-6
-1.089, 1.229e-6
-1.090, 1.210e-6
-1.091, 1.231e-6
-1.092, 1.289e-6
-1.093, 1.302e-6
-1.094, 1.265e-6
-1.095, 1.258e-6
-1.096, 1.283e-6
-1.097, 1.330e-6
-1.098, 1.356e-6
-1.099, 1.345e-6
-1.100, 1.318e-6
-1.101, 1.365e-6
-1.102, 1.399e-6
-1.103, 1.407e-6
-1.104, 1.365e-6
-1.105, 1.362e-6
-1.106, 1.409e-6
-1.107, 1.452e-6
-1.108, 1.477e-6
-1.109, 1.449e-6
-1.110, 1.433e-6
-1.111, 1.456e-6
-1.112, 1.483e-6
-1.113, 1.491e-6
-1.114, 1.502e-6
-1.115, 1.491e-6
-1.116, 1.515e-6
-1.117, 1.578e-6
-1.118, 1.587e-6
-1.119, 1.577e-6
-1.120, 1.544e-6
-1.121, 1.579e-6
-1.122, 1.610e-6
-1.123, 1.619e-6
-1.124, 1.613e-6
-1.125, 1.609e-6
-1.126, 1.628e-6
-1.127, 1.691e-6
-1.128, 1.700e-6
-1.129, 1.653e-6
-1.130, 1.667e-6
-1.131, 1.680e-6
-1.132, 1.749e-6
-1.133, 1.764e-6
-1.134, 1.749e-6
-1.135, 1.749e-6
-1.136, 1.785e-6
-1.137, 1.790e-6
-1.138, 1.810e-6
-1.139, 1.784e-6
-1.140, 1.791e-6
-1.141, 1.806e-6
-1.142, 1.856e-6
-1.143, 1.883e-6
-1.144, 1.873e-6
-1.145, 1.847e-6
-1.146, 1.898e-6
-1.147, 1.919e-6
-1.148, 1.925e-6
-1.149, 1.908e-6
-1.150, 1.909e-6
-1.151, 1.935e-6
-1.152, 1.950e-6
-1.153, 2.003e-6
-1.154, 2.002e-6
-1.155, 1.987e-6
-1.156, 2.008e-6
-1.157, 2.032e-6
-1.158, 2.063e-6
-1.159, 2.054e-6
-1.160, 2.039e-6
-1.161, 2.061e-6
-1.162, 2.119e-6
-1.163, 2.141e-6
-1.164, 2.123e-6
-1.165, 2.139e-6
-1.166, 2.142e-6
-1.167, 2.172e-6
-1.168, 2.192e-6
-1.169, 2.191e-6
-1.170, 2.221e-6
-1.171, 2.232e-6
-1.172, 2.277e-6
-1.173, 2.280e-6
-1.174, 2.263e-6
-1.175, 2.281e-6
-1.176, 2.298e-6
-1.177, 2.336e-6
-1.178, 2.384e-6
-1.179, 2.356e-6
-1.180, 2.365e-6
-1.181, 2.378e-6
-1.182, 2.428e-6
-1.183, 2.466e-6
-1.184, 2.455e-6
-1.185, 2.459e-6
-1.186, 2.491e-6
-1.187, 2.546e-6
-1.188, 2.566e-6
-1.189, 2.558e-6
-1.190, 2.567e-6
-1.191, 2.596e-6
-1.192, 2.632e-6
-1.193, 2.672e-6
-1.194, 2.695e-6
-1.195, 2.679e-6
-1.196, 2.689e-6
-1.197, 2.741e-6
-1.198, 2.787e-6
-1.199, 2.799e-6
-1.200, 2.785e-6
-1.201, 2.821e-6
-1.202, 2.873e-6
-1.203, 2.927e-6
-1.204, 2.925e-6
-1.205, 2.922e-6
-1.206, 2.934e-6
-1.207, 2.998e-6
-1.208, 3.029e-6
-1.209, 3.041e-6
-1.210, 3.078e-6
-1.211, 3.073e-6
-1.212, 3.133e-6
-1.213, 3.182e-6
-1.214, 3.188e-6
-1.215, 3.224e-6
-1.216, 3.229e-6
-1.217, 3.284e-6
-1.218, 3.336e-6
-1.219, 3.352e-6
-1.220, 3.379e-6
-1.221, 3.397e-6
-1.222, 3.454e-6
-1.223, 3.503e-6
-1.224, 3.528e-6
-1.225, 3.554e-6
-1.226, 3.570e-6
-1.227, 3.643e-6
-1.228, 3.711e-6
-1.229, 3.741e-6
-1.230, 3.757e-6
-1.231, 3.776e-6
-1.232, 3.851e-6
-1.233, 3.903e-6
-1.234, 3.939e-6
-1.235, 3.966e-6
-1.236, 4.006e-6
-1.237, 4.061e-6
-1.238, 4.130e-6
-1.239, 4.163e-6
-1.240, 4.177e-6
-1.241, 4.225e-6
-1.242, 4.296e-6
-1.243, 4.362e-6
-1.244, 4.396e-6
-1.245, 4.430e-6
-1.246, 4.481e-6
-1.247, 4.544e-6
-1.248, 4.618e-6
-1.249, 4.657e-6
-1.250, 4.692e-6
-1.251, 4.747e-6
-1.252, 4.820e-6
-1.253, 4.899e-6
-1.254, 4.953e-6
-1.255, 4.990e-6
-1.256, 5.026e-6
-1.257, 5.122e-6
-1.258, 5.189e-6
-1.259, 5.237e-6
-1.260, 5.297e-6
-1.261, 5.350e-6
-1.262, 5.425e-6
-1.263, 5.536e-6
-1.264, 5.596e-6
-1.265, 5.630e-6
-1.266, 5.685e-6
-1.267, 5.776e-6
-1.268, 5.872e-6
-1.269, 5.941e-6
-1.270, 5.984e-6
-1.271, 6.077e-6
-1.272, 6.148e-6
-1.273, 6.267e-6
-1.274, 6.332e-6
-1.275, 6.371e-6
-1.276, 6.459e-6
-1.277, 6.545e-6
-1.278, 6.643e-6
-1.279, 6.743e-6
-1.280, 6.803e-6
-1.281, 6.884e-6
-1.282, 7.002e-6
-1.283, 7.086e-6
-1.284, 7.181e-6
-1.285, 7.252e-6
-1.286, 7.329e-6
-1.287, 7.457e-6
-1.288, 7.543e-6
-1.289, 7.655e-6
-1.290, 7.727e-6
-1.291, 7.841e-6
-1.292, 7.963e-6
-1.293, 8.090e-6
-1.294, 8.182e-6
-1.295, 8.265e-6
-1.296, 8.363e-6
-1.297, 8.495e-6
-1.298, 8.661e-6
-1.299, 8.748e-6
-1.300, 8.836e-6
-1.301, 8.948e-6
-1.302, 9.101e-6
-1.303, 9.252e-6
-1.304, 9.345e-6
-1.305, 9.463e-6
-1.306, 9.589e-6
-1.307, 9.720e-6
-1.308, 9.864e-6
-1.309, 1.001e-5
-1.310, 1.014e-5
-1.311, 1.027e-5
-1.312, 1.041e-5
-1.313, 1.057e-5
-1.314, 1.071e-5
-1.315, 1.079e-5
-1.316, 1.096e-5
-1.317, 1.112e-5
-1.318, 1.127e-5
-1.319, 1.143e-5
-1.320, 1.158e-5
-1.321, 1.174e-5
-1.322, 1.188e-5
-1.323, 1.207e-5
-1.324, 1.225e-5
-1.325, 1.238e-5
-1.326, 1.253e-5
-1.327, 1.271e-5
-1.328, 1.290e-5
-1.329, 1.309e-5
-1.330, 1.326e-5
-1.331, 1.343e-5
-1.332, 1.359e-5
-1.333, 1.379e-5
-1.334, 1.397e-5
-1.335, 1.409e-5
-1.336, 1.429e-5
-1.337, 1.452e-5
-1.338, 1.473e-5
-1.339, 1.495e-5
-1.340, 1.514e-5
-1.341, 1.529e-5
-1.342, 1.551e-5
-1.343, 1.575e-5
-1.344, 1.595e-5
-1.345, 1.616e-5
-1.346, 1.636e-5
-1.347, 1.659e-5
-1.348, 1.683e-5
-1.349, 1.703e-5
-1.350, 1.723e-5
-1.351, 1.744e-5
-1.352, 1.769e-5
-1.353, 1.796e-5
-1.354, 1.821e-5
-1.355, 1.840e-5
-1.356, 1.864e-5
-1.357, 1.890e-5
-1.358, 1.915e-5
-1.359, 1.948e-5
-1.360, 1.964e-5
-1.361, 1.989e-5
-1.362, 2.016e-5
-1.363, 2.045e-5
-1.364, 2.069e-5
-1.365, 2.093e-5
-1.366, 2.117e-5
-1.367, 2.145e-5
-1.368, 2.176e-5
-1.369, 2.204e-5
-1.370, 2.230e-5
-1.371, 2.257e-5
-1.372, 2.284e-5
-1.373, 2.314e-5
-1.374, 2.343e-5
-1.375, 2.371e-5
-1.376, 2.398e-5
-1.377, 2.430e-5
-1.378, 2.466e-5
-1.379, 2.492e-5
-1.380, 2.520e-5
-1.381, 2.552e-5
-1.382, 2.583e-5
-1.383, 2.616e-5
-1.384, 2.649e-5
-1.385, 2.678e-5
-1.386, 2.708e-5
-1.387, 2.741e-5
-1.388, 2.776e-5
-1.389, 2.815e-5
-1.390, 2.845e-5
-1.391, 2.877e-5
-1.392, 2.911e-5
-1.393, 2.949e-5
-1.394, 2.981e-5
-1.395, 3.016e-5
-1.396, 3.051e-5
-1.397, 3.087e-5
-1.398, 3.123e-5
-1.399, 3.160e-5
-1.400, 3.199e-5
-1.401, 3.236e-5
-1.402, 3.269e-5
-1.403, 3.312e-5
-1.404, 3.350e-5
-1.405, 3.384e-5
-1.406, 3.419e-5
-1.407, 3.464e-5
-1.408, 3.506e-5
-1.409, 3.541e-5
-1.410, 3.579e-5
-1.411, 3.615e-5
-1.412, 3.650e-5
-1.413, 3.697e-5
-1.414, 3.738e-5
-1.415, 3.782e-5
-1.416, 3.819e-5
-1.417, 3.872e-5
-1.418, 3.911e-5
-1.419, 3.947e-5
-1.420, 3.974e-5
-1.421, 4.003e-5
-1.422, 4.037e-5
-1.423, 4.090e-5
-1.424, 4.125e-5
-1.425, 4.169e-5
-1.426, 4.216e-5
-1.427, 4.264e-5
-1.428, 4.311e-5
-1.429, 4.353e-5
-1.430, 4.397e-5
-1.431, 4.441e-5
-1.432, 4.487e-5
-1.433, 4.536e-5
-1.434, 4.582e-5
-1.435, 4.633e-5
-1.436, 4.692e-5
-1.437, 4.729e-5
-1.438, 4.785e-5
-1.439, 4.821e-5
-1.440, 4.871e-5
-1.441, 4.918e-5
-1.442, 4.975e-5
-1.443, 5.019e-5
-1.444, 5.075e-5
-1.445, 5.118e-5
-1.446, 5.172e-5
-1.447, 5.227e-5
-1.448, 5.281e-5
-1.449, 5.343e-5
-1.450, 5.388e-5
-1.451, 5.435e-5
-1.452, 5.475e-5
-1.453, 5.532e-5
-1.454, 5.587e-5
-1.455, 5.636e-5
-1.456, 5.697e-5
-1.457, 5.749e-5
-1.458, 5.813e-5
-1.459, 5.868e-5
-1.460, 5.924e-5
-1.461, 5.984e-5
-1.462, 6.022e-5
-1.463, 6.074e-5
-1.464, 6.140e-5
-1.465, 6.190e-5
-1.466, 6.249e-5
-1.467, 6.310e-5
-1.468, 6.367e-5
-1.469, 6.426e-5
-1.470, 6.485e-5
-1.471, 6.552e-5
-1.472, 6.604e-5
-1.473, 6.674e-5
-1.474, 6.742e-5
-1.475, 6.799e-5
-1.476, 6.864e-5
-1.477, 6.927e-5
-1.478, 6.998e-5
-1.479, 7.068e-5
-1.480, 7.136e-5
-1.481, 7.191e-5
-1.482, 7.262e-5
-1.483, 7.315e-5
-1.484, 7.392e-5
-1.485, 7.450e-5
-1.486, 7.511e-5
-1.487, 7.586e-5
-1.488, 7.659e-5
-1.489, 7.737e-5
-1.490, 7.790e-5
-1.491, 7.848e-5
-1.492, 7.916e-5
-1.493, 7.988e-5
-1.494, 8.063e-5
-1.495, 8.139e-5
-1.496, 8.223e-5
-1.497, 8.326e-5
-1.498, 8.384e-5
-1.499, 8.408e-5
-1.500, 8.468e-5
-1.501, 8.548e-5
-1.502, 8.618e-5
-1.503, 8.692e-5
-1.504, 8.772e-5
-1.505, 8.856e-5
-1.506, 8.933e-5
-1.507, 9.003e-5
-1.508, 9.104e-5
-1.509, 9.195e-5
-1.510, 9.283e-5
-1.511, 9.364e-5
-1.512, 9.453e-5
-1.513, 9.547e-5
-1.514, 9.640e-5
-1.515, 9.734e-5
-1.516, 9.807e-5
-1.517, 9.909e-5
-1.518, 9.994e-5
-1.519, 1.008e-4
-1.520, 1.017e-4
-1.521, 1.027e-4
-1.522, 1.037e-4
-1.523, 1.045e-4
-1.524, 1.055e-4
-1.525, 1.065e-4
-1.526, 1.071e-4
-1.527, 1.082e-4
-1.528, 1.094e-4
-1.529, 1.106e-4
-1.530, 1.111e-4
-1.531, 1.121e-4
-1.532, 1.132e-4
-1.533, 1.143e-4
-1.534, 1.155e-4
-1.535, 1.164e-4
-1.536, 1.172e-4
-1.537, 1.182e-4
-1.538, 1.193e-4
-1.539, 1.205e-4
-1.540, 1.219e-4
-1.541, 1.231e-4
-1.542, 1.239e-4
-1.543, 1.251e-4
-1.544, 1.264e-4
-1.545, 1.277e-4
-1.546, 1.289e-4
-1.547, 1.302e-4
-1.548, 1.313e-4
-1.549, 1.325e-4
-1.550, 1.337e-4
-1.551, 1.351e-4
-1.552, 1.365e-4
-1.553, 1.377e-4
-1.554, 1.391e-4
-1.555, 1.406e-4
-1.556, 1.422e-4
-1.557, 1.436e-4
-1.558, 1.450e-4
-1.559, 1.463e-4
-1.560, 1.478e-4
-1.561, 1.493e-4
-1.562, 1.515e-4
-1.563, 1.524e-4
-1.564, 1.531e-4
-1.565, 1.536e-4
-1.566, 1.551e-4
-1.567, 1.566e-4
-1.568, 1.580e-4
-1.569, 1.601e-4
-1.570, 1.617e-4
-1.571, 1.635e-4
-1.572, 1.649e-4
-1.573, 1.670e-4
-1.574, 1.688e-4
-1.575, 1.707e-4
-1.576, 1.726e-4
-1.577, 1.743e-4
-1.578, 1.763e-4
-1.579, 1.777e-4
-1.580, 1.791e-4
-1.581, 1.807e-4
-1.582, 1.829e-4
-1.583, 1.850e-4
-1.584, 1.870e-4
-1.585, 1.891e-4
-1.586, 1.911e-4
-1.587, 1.932e-4
-1.588, 1.956e-4
-1.589, 1.978e-4
-1.590, 2.003e-4
-1.591, 2.030e-4
-1.592, 2.052e-4
-1.593, 2.076e-4
-1.594, 2.100e-4
-1.595, 2.122e-4
-1.596, 2.144e-4
-1.597, 2.169e-4
-1.598, 2.197e-4
-1.599, 2.223e-4
-1.600, 2.220e-4
-1.599, 2.204e-4
-1.598, 2.187e-4
-1.597, 2.171e-4
-1.596, 2.161e-4
-1.595, 2.146e-4
-1.594, 2.130e-4
-1.593, 2.111e-4
-1.592, 2.095e-4
-1.591, 2.079e-4
-1.590, 2.066e-4
-1.589, 2.052e-4
-1.588, 2.035e-4
-1.587, 2.020e-4
-1.586, 2.006e-4
-1.585, 1.992e-4
-1.584, 1.977e-4
-1.583, 1.959e-4
-1.582, 1.944e-4
-1.581, 1.932e-4
-1.580, 1.919e-4
-1.579, 1.905e-4
-1.578, 1.895e-4
-1.577, 1.881e-4
-1.576, 1.861e-4
-1.575, 1.835e-4
-1.574, 1.814e-4
-1.573, 1.797e-4
-1.572, 1.773e-4
-1.571, 1.759e-4
-1.570, 1.745e-4
-1.569, 1.735e-4
-1.568, 1.726e-4
-1.567, 1.716e-4
-1.566, 1.701e-4
-1.565, 1.691e-4
-1.564, 1.675e-4
-1.563, 1.665e-4
-1.562, 1.653e-4
-1.561, 1.640e-4
-1.560, 1.629e-4
-1.559, 1.620e-4
-1.558, 1.608e-4
-1.557, 1.596e-4
-1.556, 1.585e-4
-1.555, 1.573e-4
-1.554, 1.562e-4
-1.553, 1.551e-4
-1.552, 1.540e-4
-1.551, 1.528e-4
-1.550, 1.518e-4
-1.549, 1.510e-4
-1.548, 1.502e-4
-1.547, 1.491e-4
-1.546, 1.478e-4
-1.545, 1.464e-4
-1.544, 1.453e-4
-1.543, 1.445e-4
-1.542, 1.436e-4
-1.541, 1.427e-4
-1.540, 1.415e-4
-1.539, 1.404e-4
-1.538, 1.394e-4
-1.537, 1.383e-4
-1.536, 1.373e-4
-1.535, 1.365e-4
-1.534, 1.356e-4
-1.533, 1.346e-4
-1.532, 1.335e-4
-1.531, 1.323e-4
-1.530, 1.314e-4
-1.529, 1.307e-4
-1.528, 1.296e-4
-1.527, 1.285e-4
-1.526, 1.275e-4
-1.525, 1.264e-4
-1.524, 1.254e-4
-1.523, 1.246e-4
-1.522, 1.237e-4
-1.521, 1.227e-4
-1.520, 1.218e-4
-1.519, 1.208e-4
-1.518, 1.200e-4
-1.517, 1.190e-4
-1.516, 1.181e-4
-1.515, 1.173e-4
-1.514, 1.161e-4
-1.513, 1.151e-4
-1.512, 1.141e-4
-1.511, 1.135e-4
-1.510, 1.126e-4
-1.509, 1.119e-4
-1.508, 1.109e-4
-1.507, 1.100e-4
-1.506, 1.089e-4
-1.505, 1.081e-4
-1.504, 1.073e-4
-1.503, 1.061e-4
-1.502, 1.054e-4
-1.501, 1.046e-4
-1.500, 1.036e-4
-1.499, 1.033e-4
-1.498, 1.021e-4
-1.497, 1.013e-4
-1.496, 1.004e-4
-1.495, 9.968e-5
-1.494, 9.894e-5
-1.493, 9.821e-5
-1.492, 9.752e-5
-1.491, 9.649e-5
-1.490, 9.569e-5
-1.489, 9.498e-5
-1.488, 9.420e-5
-1.487, 9.340e-5
-1.486, 9.258e-5
-1.485, 9.204e-5
-1.484, 9.110e-5
-1.483, 9.019e-5
-1.482, 8.923e-5
-1.481, 8.844e-5
-1.480, 8.735e-5
-1.479, 8.665e-5
-1.478, 8.574e-5
-1.477, 8.497e-5
-1.476, 8.439e-5
-1.475, 8.380e-5
-1.474, 8.317e-5
-1.473, 8.255e-5
-1.472, 8.164e-5
-1.471, 8.061e-5
-1.470, 7.968e-5
-1.469, 7.932e-5
-1.468, 7.881e-5
-1.467, 7.777e-5
-1.466, 7.702e-5
-1.465, 7.638e-5
-1.464, 7.573e-5
-1.463, 7.518e-5
-1.462, 7.443e-5
-1.461, 7.363e-5
-1.460, 7.306e-5
-1.459, 7.228e-5
-1.458, 7.155e-5
-1.457, 7.089e-5
-1.456, 7.034e-5
-1.455, 6.960e-5
-1.454, 6.894e-5
-1.453, 6.838e-5
-1.452, 6.768e-5
-1.451, 6.704e-5
-1.450, 6.640e-5
-1.449, 6.582e-5
-1.448, 6.504e-5
-1.447, 6.421e-5
-1.446, 6.352e-5
-1.445, 6.294e-5
-1.444, 6.232e-5
-1.443, 6.179e-5
-1.442, 6.108e-5
-1.441, 6.050e-5
-1.440, 5.988e-5
-1.439, 5.923e-5
-1.438, 5.850e-5
-1.437, 5.785e-5
-1.436, 5.738e-5
-1.435, 5.676e-5
-1.434, 5.612e-5
-1.433, 5.552e-5
-1.432, 5.486e-5
-1.431, 5.417e-5
-1.430, 5.363e-5
-1.429, 5.311e-5
-1.428, 5.265e-5
-1.427, 5.212e-5
-1.426, 5.152e-5
-1.425, 5.083e-5
-1.424, 5.011e-5
-1.423, 4.942e-5
-1.422, 4.897e-5
-1.421, 4.847e-5
-1.420, 4.782e-5
-1.419, 4.727e-5
-1.418, 4.663e-5
-1.417, 4.621e-5
-1.416, 4.567e-5
-1.415, 4.508e-5
-1.414, 4.453e-5
-1.413, 4.400e-5
-1.412, 4.358e-5
-1.411, 4.308e-5
-1.410, 4.244e-5
-1.409, 4.189e-5
-1.408, 4.136e-5
-1.407, 4.091e-5
-1.406, 4.036e-5
-1.405, 3.987e-5
-1.404, 3.927e-5
-1.403, 3.890e-5
-1.402, 3.839e-5
-1.401, 3.780e-5
-1.400, 3.740e-5
-1.399, 3.693e-5
-1.398, 3.646e-5
-1.397, 3.608e-5
-1.396, 3.553e-5
-1.395, 3.502e-5
-1.394, 3.452e-5
-1.393, 3.410e-5
-1.392, 3.360e-5
-1.391, 3.320e-5
-1.390, 3.280e-5
-1.389, 3.237e-5
-1.388, 3.187e-5
-1.387, 3.141e-5
-1.386, 3.102e-5
-1.385, 3.064e-5
-1.384, 3.013e-5
-1.383, 2.971e-5
-1.382, 2.933e-5
-1.381, 2.900e-5
-1.380, 2.858e-5
-1.379, 2.807e-5
-1.378, 2.769e-5
-1.377, 2.725e-5
-1.376, 2.691e-5
-1.375, 2.651e-5
-1.374, 2.615e-5
-1.373, 2.579e-5
-1.372, 2.535e-5
-1.371, 2.502e-5
-1.370, 2.463e-5
-1.369, 2.426e-5
-1.368, 2.382e-5
-1.367, 2.348e-5
-1.366, 2.316e-5
-1.365, 2.286e-5
-1.364, 2.251e-5
-1.363, 2.214e-5
-1.362, 2.182e-5
-1.361, 2.148e-5
-1.360, 2.116e-5
-1.359, 2.073e-5
-1.358, 2.045e-5
-1.357, 2.017e-5
-1.356, 1.988e-5
-1.355, 1.953e-5
-1.354, 1.922e-5
-1.353, 1.884e-5
-1.352, 1.859e-5
-1.351, 1.834e-5
-1.350, 1.803e-5
-1.349, 1.767e-5
-1.348, 1.738e-5
-1.347, 1.706e-5
-1.346, 1.682e-5
-1.345, 1.657e-5
-1.344, 1.631e-5
-1.343, 1.596e-5
-1.342, 1.564e-5
-1.341, 1.541e-5
-1.340, 1.512e-5
-1.339, 1.487e-5
-1.338, 1.460e-5
-1.337, 1.431e-5
-1.336, 1.409e-5
-1.335, 1.386e-5
-1.334, 1.364e-5
-1.333, 1.338e-5
-1.332, 1.309e-5
-1.331, 1.285e-5
-1.330, 1.265e-5
-1.329, 1.240e-5
-1.328, 1.218e-5
-1.327, 1.193e-5
-1.326, 1.171e-5
-1.325, 1.148e-5
-1.324, 1.126e-5
-1.323, 1.102e-5
-1.322, 1.077e-5
-1.321, 1.061e-5
-1.320, 1.040e-5
-1.319, 1.020e-5
-1.318, 9.980e-6
-1.317, 9.790e-6
-1.316, 9.569e-6
-1.315, 9.373e-6
-1.314, 9.202e-6
-1.313, 8.995e-6
-1.312, 8.810e-6
-1.311, 8.655e-6
-1.310, 8.457e-6
-1.309, 8.270e-6
-1.308, 8.060e-6
-1.307, 7.856e-6
-1.306, 7.707e-6
-1.305, 7.566e-6
-1.304, 7.408e-6
-1.303, 7.225e-6
-1.302, 7.041e-6
-1.301, 6.881e-6
-1.300, 6.744e-6
-1.299, 6.591e-6
-1.298, 6.426e-6
-1.297, 6.249e-6
-1.296, 6.124e-6
-1.295, 5.987e-6
-1.294, 5.815e-6
-1.293, 5.693e-6
-1.292, 5.558e-6
-1.291, 5.388e-6
-1.290, 5.305e-6
-1.289, 5.125e-6
-1.288, 4.984e-6
-1.287, 4.857e-6
-1.286, 4.724e-6
-1.285, 4.624e-6
-1.284, 4.503e-6
-1.283, 4.360e-6
-1.282, 4.239e-6
-1.281, 4.113e-6
-1.280, 4.025e-6
-1.279, 3.900e-6
-1.278, 3.781e-6
-1.277, 3.647e-6
-1.276, 3.555e-6
-1.275, 3.452e-6
-1.274, 3.355e-6
-1.273, 3.217e-6
-1.272, 3.131e-6
-1.271, 3.034e-6
-1.270, 2.955e-6
-1.269, 2.879e-6
-1.268, 2.734e-6
-1.267, 2.617e-6
-1.266, 2.544e-6
-1.265, 2.498e-6
-1.264, 2.377e-6
-1.263, 2.275e-6
-1.262, 2.188e-6
-1.261, 2.121e-6
-1.260, 2.060e-6
-1.259, 1.972e-6
-1.258, 1.868e-6
-1.257, 1.763e-6
-1.256, 1.723e-6
-1.255, 1.657e-6
-1.254, 1.557e-6
-1.253, 1.481e-6
-1.252, 1.403e-6
-1.251, 1.339e-6
-1.250, 1.291e-6
-1.249, 1.219e-6
-1.248, 1.144e-6
-1.247, 1.062e-6
-1.246, 1.019e-6
-1.245, 9.834e-7
-1.244, 9.213e-7
-1.243, 8.128e-7
-1.242, 7.615e-7
-1.241, 6.983e-7
-1.240, 6.697e-7
-1.239, 6.075e-7
-1.238, 5.197e-7
-1.237, 4.487e-7
-1.236, 4.300e-7
-1.235, 3.796e-7
-1.234, 3.274e-7
-1.233, 2.583e-7
-1.232, 2.050e-7
-1.231, 1.833e-7
-1.230, 1.290e-7
-1.229, 6.294e-8
-1.228, -1.973e-10
-1.227, -5.347e-8
-1.226, -7.617e-8
-1.225, -1.038e-7
-1.224, -1.521e-7
-1.223, -2.143e-7
-1.222, -2.784e-7
-1.221, -2.912e-7
-1.220, -2.942e-7
-1.219, -3.593e-7
-1.218, -4.008e-7
-1.217, -4.817e-7
-1.216, -4.807e-7
-1.215, -4.994e-7
-1.214, -5.566e-7
-1.213, -5.991e-7
-1.212, -6.405e-7
-1.211, -6.612e-7
-1.210, -6.731e-7
-1.209, -7.392e-7
-1.208, -7.717e-7
-1.207, -8.023e-7
-1.206, -8.270e-7
-1.205, -8.132e-7
-1.204, -8.704e-7
-1.203, -9.217e-7
-1.202, -9.710e-7
-1.201, -9.700e-7
-1.200, -9.562e-7
-1.199, -9.967e-7
-1.198, -1.061e-6
-1.197, -1.088e-6
-1.196, -1.099e-6
-1.195, -1.101e-6
-1.194, -1.120e-6
-1.193, -1.200e-6
-1.192, -1.202e-6
-1.191, -1.225e-6
-1.190, -1.228e-6
-1.189, -1.246e-6
-1.188, -1.288e-6
-1.187, -1.317e-6
-1.186, -1.329e-6
-1.185, -1.335e-6
-1.184, -1.355e-6
-1.183, -1.401e-6
-1.182, -1.431e-6
-1.181, -1.412e-6
-1.180, -1.412e-6
-1.179, -1.455e-6
-1.178, -1.497e-6
-1.177, -1.524e-6
-1.176, -1.524e-6
-1.175, -1.508e-6
-1.174, -1.542e-6
-1.173, -1.579e-6
-1.172, -1.597e-6
-1.171, -1.605e-6
-1.170, -1.597e-6
-1.169, -1.625e-6
-1.168, -1.663e-6
-1.167, -1.686e-6
-1.166, -1.679e-6
-1.165, -1.669e-6
-1.164, -1.687e-6
-1.163, -1.729e-6
-1.162, -1.725e-6
-1.161, -1.751e-6
-1.160, -1.729e-6
-1.159, -1.731e-6
-1.158, -1.778e-6
-1.157, -1.799e-6
-1.156, -1.786e-6
-1.155, -1.806e-6
-1.154, -1.793e-6
-1.153, -1.863e-6
-1.152, -1.869e-6
-1.151, -1.857e-6
-1.150, -1.859e-6
-1.149, -1.846e-6
-1.148, -1.889e-6
-1.147, -1.915e-6
-1.146, -1.925e-6
-1.145, -1.917e-6
-1.144, -1.889e-6
-1.143, -1.942e-6
-1.142, -1.960e-6
-1.141, -1.948e-6
-1.140, -1.943e-6
-1.139, -1.958e-6
-1.138, -1.990e-6
-1.137, -2.009e-6
-1.136, -1.970e-6
-1.135, -1.968e-6
-1.134, -2.000e-6
-1.133, -1.997e-6
-1.132, -2.029e-6
-1.131, -2.027e-6
-1.130, -2.025e-6
-1.129, -2.041e-6
-1.128, -2.077e-6
-1.127, -2.094e-6
-1.126, -2.095e-6
-1.125, -2.063e-6
-1.124, -2.075e-6
-1.123, -2.099e-6
-1.122, -2.117e-6
-1.121, -2.105e-6
-1.120, -2.089e-6
-1.119, -2.095e-6
-1.118, -2.140e-6
-1.117, -2.143e-6
-1.116, -2.147e-6
-1.115, -2.140e-6
-1.114, -2.141e-6
-1.113, -2.174e-6
-1.112, -2.167e-6
-1.111, -2.181e-6
-1.110, -2.161e-6
-1.109, -2.143e-6
-1.108, -2.190e-6
-1.107, -2.215e-6
-1.106, -2.187e-6
-1.105, -2.198e-6
-1.104, -2.164e-6
-1.103, -2.192e-6
-1.102, -2.233e-6
-1.101, -2.231e-6
-1.100, -2.202e-6
-1.099, -2.217e-6
-1.098, -2.248e-6
-1.097, -2.240e-6
-1.096, -2.250e-6
-1.095, -2.217e-6
-1.094, -2.258e-6
-1.093, -2.268e-6
-1.092, -2.270e-6
-1.091, -2.264e-6
-1.090, -2.235e-6
-1.089, -2.269e-6
-1.088, -2.281e-6
-1.087, -2.307e-6
-1.086, -2.313e-6
-1.085, -2.265e-6
-1.084, -2.288e-6
-1.083, -2.306e-6
-1.082, -2.336e-6
-1.081, -2.321e-6
-1.080, -2.272e-6
-1.079, -2.303e-6
-1.078, -2.306e-6
-1.077, -2.341e-6
-1.076, -2.344e-6
-1.075, -2.334e-6
-1.074, -2.310e-6
-1.073, -2.320e-6
-1.072, -2.377e-6
-1.071, -2.355e-6
-1.070, -2.333e-6
-1.069, -2.321e-6
-1.068, -2.343e-6
-1.067, -2.360e-6
-1.066, -2.362e-6
-1.065, -2.345e-6
-1.064, -2.352e-6
-1.063, -2.371e-6
-1.062, -2.407e-6
-1.061, -2.398e-6
-1.060, -2.345e-6
-1.059, -2.356e-6
-1.058, -2.377e-6
-1.057, -2.402e-6
-1.056, -2.402e-6
-1.055, -2.377e-6
-1.054, -2.388e-6
-1.053, -2.389e-6
-1.052, -2.423e-6
-1.051, -2.405e-6
-1.050, -2.384e-6
-1.049, -2.392e-6
-1.048, -2.407e-6
-1.047, -2.431e-6
-1.046, -2.413e-6
-1.045, -2.408e-6
-1.044, -2.417e-6
-1.043, -2.425e-6
-1.042, -2.441e-6
-1.041, -2.443e-6
-1.040, -2.420e-6
-1.039, -2.419e-6
-1.038, -2.437e-6
-1.037, -2.464e-6
-1.036, -2.454e-6
-1.035, -2.450e-6
-1.034, -2.422e-6
-1.033, -2.451e-6
-1.032, -2.473e-6
-1.031, -2.462e-6
-1.030, -2.442e-6
-1.029, -2.435e-6
-1.028, -2.467e-6
-1.027, -2.475e-6
-1.026, -2.465e-6
-1.025, -2.467e-6
-1.024, -2.462e-6
-1.023, -2.503e-6
-1.022, -2.526e-6
-1.021, -2.499e-6
-1.020, -2.454e-6
-1.019, -2.487e-6
-1.018, -2.491e-6
-1.017, -2.520e-6
-1.016, -2.513e-6
-1.015, -2.480e-6
-1.014, -2.501e-6
-1.013, -2.501e-6
-1.012, -2.522e-6
-1.011, -2.543e-6
-1.010, -2.487e-6
-1.009, -2.506e-6
-1.008, -2.520e-6
-1.007, -2.531e-6
-1.006, -2.543e-6
-1.005, -2.493e-6
-1.004, -2.522e-6
-1.003, -2.524e-6
-1.002, -2.560e-6
-1.001, -2.545e-6
-1.000, -1.035e-6
-1.001, -4.304e-7
-1.002, -3.041e-7
-1.003, -2.616e-7
-1.004, -1.936e-7
-1.005, -1.166e-7
-1.006, -7.912e-8
-1.007, -4.459e-8
-1.008, -3.374e-8
-1.009, 1.066e-8
-1.010, 8.366e-8
-1.011, 1.054e-7
-1.012, 1.024e-7
-1.013, 1.172e-7
-1.014, 1.567e-7
-1.015, 2.149e-7
-1.016, 2.277e-7
-1.017, 2.395e-7
-1.018, 2.415e-7
-1.019, 2.800e-7
-1.020, 3.086e-7
-1.021, 3.451e-7
-1.022, 3.402e-7
-1.023, 3.491e-7
-1.024, 3.796e-7
-1.025, 4.408e-7
-1.026, 4.546e-7
-1.027, 4.497e-7
-1.028, 4.596e-7
-1.029, 4.674e-7
-1.030, 5.227e-7
-1.031, 5.513e-7
-1.032, 5.405e-7
-1.033, 5.345e-7
-1.034, 5.681e-7
-1.035, 5.789e-7
-1.036, 6.243e-7
-1.037, 6.223e-7
-1.038, 6.085e-7
-1.039, 6.470e-7
-1.040, 6.756e-7
-1.041, 6.884e-7
-1.042, 6.914e-7
-1.043, 6.904e-7
-1.044, 7.013e-7
-1.045, 7.467e-7
-1.046, 7.575e-7
-1.047, 7.595e-7
-1.048, 7.417e-7
-1.049, 7.841e-7
-1.050, 8.108e-7
-1.051, 8.502e-7
-1.052, 8.256e-7
-1.053, 8.147e-7
-1.054, 8.522e-7
-1.055, 8.789e-7
-1.056, 8.848e-7
-1.057, 9.006e-7
-1.058, 8.927e-7
-1.059, 8.956e-7
-1.060, 9.430e-7
-1.061, 9.637e-7
-1.062, 9.499e-7
-1.063, 9.538e-7
-1.064, 9.617e-7
-1.065, 9.903e-7
-1.066, 1.009e-6
-1.067, 1.000e-6
-1.068, 1.021e-6
-1.069, 1.024e-6
-1.070, 1.047e-6
-1.071, 1.085e-6
-1.072, 1.061e-6
-1.073, 1.064e-6
-1.074, 1.078e-6
-1.075, 1.112e-6
-1.076, 1.127e-6
-1.077, 1.127e-6
-1.078, 1.115e-6
-1.079, 1.127e-6
-1.080, 1.164e-6
-1.081, 1.189e-6
-1.082, 1.174e-6
-1.083, 1.168e-6
-1.084, 1.188e-6
-1.085, 1.213e-6
-1.086, 1.232e-6
-1.087, 1.235e-6
-1.088, 1.218e-6
-1.089, 1.229e-6
-1.090, 1.273e-6
-1.091, 1.277e-6
-1.092, 1.286e-6
-1.093, 1.266e-6
-1.094, 1.279e-6
-1.095, 1.334e-6
-1.096, 1.338e-6
-1.097, 1.325e-6
-1.098, 1.346e-6
-1.099, 1.333e-6
-1.100, 1.375e-6
-1.101, 1.408e-6
-1.102, 1.390e-6
-1.103, 1.396e-6
-1.104, 1.393e-6
-1.105, 1.432e-6
-1.106, 1.452e-6
-1.107, 1.432e-6
-1.108, 1.445e-6
-1.109, 1.431e-6
-1.110, 1.473e-6
-1.111, 1.500e-6
-1.112, 1.479e-6
-1.113, 1.483e-6
-1.114, 1.507e-6
-1.115, 1.527e-6
-1.116, 1.560e-6
-1.117, 1.543e-6
-1.118, 1.543e-6
-1.119, 1.533e-6
-1.120, 1.587e-6
-1.121, 1.606e-6
-1.122, 1.599e-6
-1.123, 1.586e-6
-1.124, 1.585e-6
-1.125, 1.634e-6
-1.126, 1.656e-6
-1.127, 1.661e-6
-1.128, 1.641e-6
-1.129, 1.651e-6
-1.130, 1.684e-6
-1.131, 1.710e-6
-1.132, 1.701e-6
-1.133, 1.681e-6
-1.134, 1.723e-6
-1.135, 1.742e-6
-1.136, 1.773e-6
-1.137, 1.746e-6
-1.138, 1.753e-6
-1.139, 1.754e-6
-1.140, 1.808e-6
-1.141, 1.825e-6
-1.142, 1.825e-6
-1.143, 1.827e-6
-1.144, 1.823e-6
-1.145, 1.840e-6
-1.146, 1.903e-6
-1.147, 1.881e-6
-1.148, 1.872e-6
-1.149, 1.871e-6
-1.150, 1.921e-6
-1.151, 1.947e-6
-1.152, 1.939e-6
-1.153, 1.925e-6
-1.154, 1.941e-6
-1.155, 1.978e-6
-1.156, 1.997e-6
-1.157, 1.994e-6
-1.158, 2.006e-6
-1.159, 2.011e-6
-1.160, 2.040e-6
-1.161, 2.082e-6
-1.162, 2.078e-6
-1.163, 2.061e-6
-1.164, 2.050e-6
-1.165, 2.100e-6
-1.166, 2.116e-6
-1.167, 2.142e-6
-1.168, 2.132e-6
-1.169, 2.147e-6
-1.170, 2.204e-6
-1.171, 2.207e-6
-1.172, 2.209e-6
-1.173, 2.205e-6
-1.174, 2.238e-6
-1.175, 2.274e-6
-1.176, 2.282e-6
-1.177, 2.294e-6
-1.178, 2.310e-6
-1.179, 2.312e-6
-1.180, 2.336e-6
-1.181, 2.385e-6
-1.182, 2.379e-6
-1.183, 2.391e-6
-1.184, 2.386e-6
-1.185, 2.442e-6
-1.186, 2.451e-6
-1.187, 2.474e-6
-1.188, 2.473e-6
-1.189, 2.483e-6
-1.190, 2.516e-6
-1.191, 2.572e-6
-1.192, 2.556e-6
-1.193, 2.589e-6
-1.194, 2.598e-6
-1.195, 2.629e-6
-1.196, 2.681e-6
-1.197, 2.706e-6
-1.198, 2.675e-6
-1.199, 2.716e-6
-1.200, 2.747e-6
-1.201, 2.780e-6
-1.202, 2.822e-6
-1.203, 2.796e-6
-1.204, 2.807e-6
-1.205, 2.849e-6
-1.206, 2.905e-6
-1.207, 2.934e-6
-1.208, 2.917e-6
-1.209, 2.936e-6
-1.210, 3.006e-6
-1.211, 3.043e-6
-1.212, 3.054e-6
-1.213, 3.069e-6
-1.214, 3.088e-6
-1.215, 3.145e-6
-1.216, 3.178e-6
-1.217, 3.195e-6
-1.218, 3.217e-6
-1.219, 3.251e-6
-1.220, 3.304e-6
-1.221, 3.343e-6
-1.222, 3.369e-6
-1.223, 3.377e-6
-1.224, 3.404e-6
-1.225, 3.459e-6
-1.226, 3.499e-6
-1.227, 3.537e-6
-1.228, 3.566e-6
-1.229, 3.624e-6
-1.230, 3.663e-6
-1.231, 3.731e-6
-1.232, 3.729e-6
-1.233, 3.747e-6
-1.234, 3.801e-6
-1.235, 3.851e-6
-1.236, 3.902e-6
-1.237, 3.948e-6
-1.238, 3.946e-6
-1.239, 4.005e-6
-1.240, 4.055e-6
-1.241, 4.133e-6
-1.242, 4.160e-6
-1.243, 4.172e-6
-1.244, 4.239e-6
-1.245, 4.281e-6
-1.246, 4.334e-6
-1.247, 4.400e-6
-1.248, 4.439e-6
-1.249, 4.463e-6
-1.250, 4.521e-6
-1.251, 4.611e-6
-1.252, 4.636e-6
-1.253, 4.709e-6
-1.254, 4.766e-6
-1.255, 4.821e-6
-1.256, 4.885e-6
-1.257, 4.948e-6
-1.258, 4.984e-6
-1.259, 4.999e-6
-1.260, 5.089e-6
-1.261, 5.183e-6
-1.262, 5.229e-6
-1.263, 5.265e-6
-1.264, 5.316e-6
-1.265, 5.427e-6
-1.266, 5.520e-6
-1.267, 5.552e-6
-1.268, 5.636e-6
-1.269, 5.673e-6
-1.270, 5.755e-6
-1.271, 5.858e-6
-1.272, 5.927e-6
-1.273, 5.948e-6
-1.274, 6.049e-6
-1.275, 6.108e-6
-1.276, 6.209e-6
-1.277, 6.288e-6
-1.278, 6.334e-6
-1.279, 6.443e-6
-1.280, 6.544e-6
-1.281, 6.645e-6
-1.282, 6.771e-6
-1.283, 6.761e-6
-1.284, 6.858e-6
-1.285, 6.940e-6
-1.286, 7.083e-6
-1.287, 7.150e-6
-1.288, 7.172e-6
-1.289, 7.265e-6
-1.290, 7.375e-6
-1.291, 7.517e-6
-1.292, 7.626e-6
-1.293, 7.683e-6
-1.294, 7.767e-6
-1.295, 7.894e-6
-1.296, 8.021e-6
-1.297, 8.094e-6
-1.298, 8.177e-6
-1.299, 8.255e-6
-1.300, 8.388e-6
-1.301, 8.504e-6
-1.302, 8.599e-6
-1.303, 8.698e-6
-1.304, 8.790e-6
-1.305, 8.955e-6
-1.306, 9.072e-6
-1.307, 9.167e-6
-1.308, 9.283e-6
-1.309, 9.409e-6
-1.310, 9.513e-6
-1.311, 9.665e-6
-1.312, 9.797e-6
-1.313, 9.887e-6
-1.314, 1.004e-5
-1.315, 1.018e-5
-1.316, 1.036e-5
-1.317, 1.046e-5
-1.318, 1.053e-5
-1.319, 1.064e-5
-1.320, 1.083e-5
-1.321, 1.095e-5
-1.322, 1.111e-5
-1.323, 1.124e-5
-1.324, 1.135e-5
-1.325, 1.152e-5
-1.326, 1.171e-5
-1.327, 1.183e-5
-1.328, 1.197e-5
-1.329, 1.209e-5
-1.330, 1.227e-5
-1.331, 1.245e-5
-1.332, 1.263e-5
-1.333, 1.275e-5
-1.334, 1.288e-5
-1.335, 1.308e-5
-1.336, 1.322e-5
-1.337, 1.340e-5
-1.338, 1.357e-5
-1.339, 1.369e-5
-1.340, 1.390e-5
-1.341, 1.409e-5
-1.342, 1.428e-5
-1.343, 1.443e-5
-1.344, 1.460e-5
-1.345, 1.477e-5
-1.346, 1.500e-5
-1.347, 1.516e-5
-1.348, 1.535e-5
-1.349, 1.547e-5
-1.350, 1.569e-5
-1.351, 1.589e-5
-1.352, 1.609e-5
-1.353, 1.631e-5
-1.354, 1.648e-5
-1.355, 1.673e-5
-1.356, 1.689e-5
-1.357, 1.708e-5
-1.358, 1.728e-5
-1.359, 1.747e-5
-1.360, 1.768e-5
-1.361, 1.799e-5
-1.362, 1.819e-5
-1.363, 1.834e-5
-1.364, 1.854e-5
-1.365, 1.881e-5
-1.366, 1.909e-5
-1.367, 1.922e-5
-1.368, 1.941e-5
-1.369, 1.964e-5
-1.370, 1.992e-5
-1.371, 2.011e-5
-1.372, 2.039e-5
-1.373, 2.066e-5
-1.374, 2.089e-5
-1.375, 2.110e-5
-1.376, 2.138e-5
-1.377, 2.164e-5
-1.378, 2.183e-5
-1.379, 2.208e-5
-1.380, 2.235e-5
-1.381, 2.264e-5
-1.382, 2.294e-5
-1.383, 2.323e-5
-1.384, 2.350e-5
-1.385, 2.368e-5
-1.386, 2.397e-5
-1.387, 2.420e-5
-1.388, 2.444e-5
-1.389, 2.475e-5
-1.390, 2.513e-5
-1.391, 2.544e-5
-1.392, 2.565e-5
-1.393, 2.592e-5
-1.394, 2.617e-5
-1.395, 2.645e-5
-1.396, 2.675e-5
-1.397, 2.711e-5
-1.398, 2.745e-5
-1.399, 2.778e-5
-1.400, 2.811e-5
-1.401, 2.841e-5
-1.402, 2.869e-5
-1.403, 2.893e-5
-1.404, 2.922e-5
-1.405, 2.965e-5
-1.406, 2.998e-5
-1.407, 3.024e-5
-1.408, 3.048e-5
-1.409, 3.082e-5
-1.410, 3.141e-5
-1.411, 3.164e-5
-1.412, 3.200e-5
-1.413, 3.234e-5
-1.414, 3.249e-5
-1.415, 3.291e-5
-1.416, 3.327e-5
-1.417, 3.366e-5
-1.418, 3.405e-5
-1.419, 3.440e-5
-1.420, 3.474e-5
-1.421, 3.512e-5
-1.422, 3.561e-5
-1.423, 3.591e-5
-1.424, 3.614e-5
-1.425, 3.638e-5
-1.426, 3.692e-5
-1.427, 3.734e-5
-1.428, 3.772e-5
-1.429, 3.804e-5
-1.430, 3.857e-5
-1.431, 3.898e-5
-1.432, 3.934e-5
-1.433, 3.975e-5
-1.434, 4.016e-5
-1.435, 4.051e-5
-1.436, 4.082e-5
-1.437, 4.127e-5
-1.438, 4.157e-5
-1.439, 4.201e-5
-1.440, 4.260e-5
-1.441, 4.298e-5
-1.442, 4.344e-5
-1.443, 4.373e-5
-1.444, 4.410e-5
-1.445, 4.467e-5
-1.446, 4.518e-5
-1.447, 4.559e-5
-1.448, 4.596e-5
-1.449, 4.649e-5
-1.450, 4.701e-5
-1.451, 4.731e-5
-1.452, 4.785e-5
-1.453, 4.819e-5
-1.454, 4.861e-5
-1.455, 4.897e-5
-1.456, 4.944e-5
-1.457, 4.989e-5
-1.458, 5.043e-5
-1.459, 5.107e-5
-1.460, 5.166e-5
-1.461, 5.175e-5
-1.462, 5.227e-5
-1.463, 5.288e-5
-1.464, 5.326e-5
-1.465, 5.374e-5
-1.466, 5.424e-5
-1.467, 5.475e-5
-1.468, 5.517e-5
-1.469, 5.556e-5
-1.470, 5.631e-5
-1.471, 5.697e-5
-1.472, 5.722e-5
-1.473, 5.765e-5
-1.474, 5.821e-5
-1.475, 5.879e-5
-1.476, 5.933e-5
-1.477, 6.002e-5
-1.478, 6.075e-5
-1.479, 6.116e-5
-1.480, 6.144e-5
-1.481, 6.198e-5
-1.482, 6.258e-5
-1.483, 6.300e-5
-1.484, 6.358e-5
-1.485, 6.422e-5
-1.486, 6.486e-5
-1.487, 6.556e-5
-1.488, 6.605e-5
-1.489, 6.649e-5
-1.490, 6.721e-5
-1.491, 6.794e-5
-1.492, 6.824e-5
-1.493, 6.898e-5
-1.494, 6.973e-5
-1.495, 7.020e-5
-1.496, 7.098e-5
-1.497, 7.147e-5
-1.498, 7.200e-5
-1.499, 7.261e-5
-1.500, 7.338e-5
-1.501, 7.414e-5
-1.502, 7.475e-5
-1.503, 7.525e-5
-1.504, 7.583e-5
-1.505, 7.686e-5
-1.506, 7.741e-5
-1.507, 7.814e-5
-1.508, 7.875e-5
-1.509, 7.938e-5
-1.510, 8.014e-5
-1.511, 8.083e-5
-1.512, 8.146e-5
-1.513, 8.217e-5
-1.514, 8.296e-5
-1.515, 8.369e-5
-1.516, 8.471e-5
-1.517, 8.538e-5
-1.518, 8.624e-5
-1.519, 8.690e-5
-1.520, 8.729e-5
-1.521, 8.794e-5
-1.522, 8.880e-5
-1.523, 8.958e-5
-1.524, 9.035e-5
-1.525, 9.124e-5
-1.526, 9.205e-5
-1.527, 9.270e-5
-1.528, 9.380e-5
-1.529, 9.472e-5
-1.530, 9.593e-5
-1.531, 9.656e-5
-1.532, 9.701e-5
-1.533, 9.755e-5
-1.534, 9.856e-5
-1.535, 9.967e-5
-1.536, 1.007e-4
-1.537, 1.009e-4
-1.538, 1.020e-4
-1.539, 1.029e-4
-1.540, 1.038e-4
-1.541, 1.048e-4
-1.542, 1.058e-4
-1.543, 1.070e-4
-1.544, 1.080e-4
-1.545, 1.092e-4
-1.546, 1.101e-4
-1.547, 1.111e-4
-1.548, 1.122e-4
-1.549, 1.135e-4
-1.550, 1.144e-4
-1.551, 1.159e-4
-1.552, 1.167e-4
-1.553, 1.174e-4
-1.554, 1.184e-4
-1.555, 1.197e-4
-1.556, 1.211e-4
-1.557, 1.220e-4
-1.558, 1.231e-4
-1.559, 1.245e-4
-1.560, 1.257e-4
-1.561, 1.263e-4
-1.562, 1.276e-4
-1.563, 1.288e-4
-1.564, 1.301e-4
-1.565, 1.314e-4
-1.566, 1.330e-4
-1.567, 1.340e-4
-1.568, 1.353e-4
-1.569, 1.368e-4
-1.570, 1.380e-4
-1.571, 1.395e-4
-1.572, 1.407e-4
-1.573, 1.423e-4
-1.574, 1.440e-4
-1.575, 1.455e-4
-1.576, 1.467e-4
-1.577, 1.480e-4
-1.578, 1.498e-4
-1.579, 1.510e-4
-1.580, 1.522e-4
-1.581, 1.536e-4
-1.582, 1.553e-4
-1.583, 1.569e-4
-1.584, 1.597e-4
-1.585, 1.620e-4
-1.586, 1.621e-4
-1.587, 1.630e-4
-1.588, 1.640e-4
-1.589, 1.662e-4
-1.590, 1.678e-4
-1.591, 1.696e-4
-1.592, 1.709e-4
-1.593, 1.726e-4
-1.594, 1.744e-4
-1.595, 1.768e-4
-1.596, 1.791e-4
-1.597, 1.809e-4
-1.598, 1.830e-4
-1.599, 1.854e-4
-1.600, 1.852e-4
-1.599, 1.833e-4
-1.598, 1.820e-4
-1.597, 1.807e-4
-1.596, 1.794e-4
-1.595, 1.784e-4
-1.594, 1.768e-4
-1.593, 1.755e-4
-1.592, 1.747e-4
-1.591, 1.732e-4
-1.590, 1.715e-4
-1.589, 1.703e-4
-1.588, 1.692e-4
-1.587, 1.680e-4
-1.586, 1.667e-4
-1.585, 1.655e-4
-1.584, 1.639e-4
-1.583, 1.628e-4
-1.582, 1.616e-4
-1.581, 1.598e-4
-1.580, 1.586e-4
-1.579, 1.574e-4
-1.578, 1.560e-4
-1.577, 1.550e-4
-1.576, 1.535e-4
-1.575, 1.527e-4
-1.574, 1.510e-4
-1.573, 1.498e-4
-1.572, 1.488e-4
-1.571, 1.479e-4
-1.570, 1.466e-4
-1.569, 1.451e-4
-1.568, 1.441e-4
-1.567, 1.430e-4
-1.566, 1.420e-4
-1.565, 1.410e-4
-1.564, 1.411e-4
-1.563, 1.401e-4
-1.562, 1.381e-4
-1.561, 1.358e-4
-1.560, 1.343e-4
-1.559, 1.335e-4
-1.558, 1.327e-4
-1.557, 1.316e-4
-1.556, 1.306e-4
-1.555, 1.295e-4
-1.554, 1.280e-4
-1.553, 1.270e-4
-1.552, 1.262e-4
-1.551, 1.248e-4
-1.550, 1.238e-4
-1.549, 1.231e-4
-1.548, 1.222e-4
-1.547, 1.213e-4
-1.546, 1.206e-4
-1.545, 1.198e-4
-1.544, 1.185e-4
-1.543, 1.176e-4
-1.542, 1.169e-4
-1.541, 1.160e-4
-1.540, 1.152e-4
-1.539, 1.143e-4
-1.538, 1.134e-4
-1.537, 1.127e-4
-1.536, 1.120e-4
-1.535, 1.115e-4
-1.534, 1.106e-4
-1.533, 1.095e-4
-1.532, 1.087e-4
-1.531, 1.076e-4
-1.530, 1.069e-4
-1.529, 1.062e-4
-1.528, 1.052e-4
-1.527, 1.044e-4
-1.526, 1.036e-4
-1.525, 1.028e-4
-1.524, 1.023e-4
-1.523, 1.015e-4
-1.522, 1.006e-4
-1.521, 9.957e-5
-1.520, 9.880e-5
-1.519, 9.820e-5
-1.518, 9.740e-5
-1.517, 9.681e-5
-1.516, 9.607e-5
-1.515, 9.510e-5
-1.514, 9.430e-5
-1.513, 9.366e-5
-1.512, 9.283e-5
-1.511, 9.232e-5
-1.510, 9.154e-5
-1.509, 9.061e-5
-1.508, 9.001e-5
-1.507, 8.924e-5
-1.506, 8.857e-5
-1.505, 8.770e-5
-1.504, 8.707e-5
-1.503, 8.654e-5
-1.502, 8.567e-5
-1.501, 8.491e-5
-1.500, 8.436e-5
-1.499, 8.359e-5
-1.498, 8.299e-5
-1.497, 8.211e-5
-1.496, 8.142e-5
-1.495, 8.093e-5
-1.494, 7.997e-5
-1.493, 7.885e-5
-1.492, 7.820e-5
-1.491, 7.768e-5
-1.490, 7.711e-5
-1.489, 7.639e-5
-1.488, 7.573e-5
-1.487, 7.514e-5
-1.486, 7.446e-5
-1.485, 7.385e-5
-1.484, 7.318e-5
-1.483, 7.265e-5
-1.482, 7.204e-5
-1.481, 7.145e-5
-1.480, 7.080e-5
-1.479, 7.017e-5
-1.478, 6.947e-5
-1.477, 6.885e-5
-1.476, 6.818e-5
-1.475, 6.755e-5
-1.474, 6.706e-5
-1.473, 6.643e-5
-1.472, 6.580e-5
-1.471, 6.512e-5
-1.470, 6.456e-5
-1.469, 6.447e-5
-1.468, 6.400e-5
-1.467, 6.276e-5
-1.466, 6.175e-5
-1.465, 6.126e-5
-1.464, 6.074e-5
-1.463, 5.990e-5
-1.462, 5.935e-5
-1.461, 5.895e-5
-1.460, 5.836e-5
-1.459, 5.789e-5
-1.458, 5.727e-5
-1.457, 5.669e-5
-1.456, 5.597e-5
-1.455, 5.533e-5
-1.454, 5.510e-5
-1.453, 5.468e-5
-1.452, 5.380e-5
-1.451, 5.321e-5
-1.450, 5.280e-5
-1.449, 5.226e-5
-1.448, 5.173e-5
-1.447, 5.101e-5
-1.446, 5.061e-5
-1.445, 5.007e-5
-1.444, 4.956e-5
-1.443, 4.905e-5
-1.442, 4.845e-5
-1.441, 4.795e-5
-1.440, 4.724e-5
-1.439, 4.689e-5
-1.438, 4.642e-5
-1.437, 4.600e-5
-1.436, 4.533e-5
-1.435, 4.478e-5
-1.434, 4.419e-5
-1.433, 4.384e-5
-1.432, 4.347e-5
-1.431, 4.298e-5
-1.430, 4.242e-5
-1.429, 4.192e-5
-1.428, 4.159e-5
-1.427, 4.106e-5
-1.426, 4.054e-5
-1.425, 4.011e-5
-1.424, 3.972e-5
-1.423, 3.921e-5
-1.422, 3.863e-5
-1.421, 3.825e-5
-1.420, 3.771e-5
-1.419, 3.719e-5
-1.418, 3.680e-5
-1.417, 3.639e-5
-1.416, 3.592e-5
-1.415, 3.547e-5
-1.414, 3.497e-5
-1.413, 3.463e-5
-1.412, 3.424e-5
-1.411, 3.378e-5
-1.410, 3.333e-5
-1.409, 3.295e-5
-1.408, 3.258e-5
-1.407, 3.219e-5
-1.406, 3.178e-5
-1.405, 3.131e-5
-1.404, 3.091e-5
-1.403, 3.057e-5
-1.402, 3.022e-5
-1.401, 2.980e-5
-1.400, 2.937e-5
-1.399, 2.897e-5
-1.398, 2.864e-5
-1.397, 2.826e-5
-1.396, 2.786e-5
-1.395, 2.753e-5
-1.394, 2.723e-5
-1.393, 2.689e-5
-1.392, 2.644e-5
-1.391, 2.613e-5
-1.390, 2.577e-5
-1.389, 2.541e-5
-1.388, 2.512e-5
-1.387, 2.481e-5
-1.386, 2.442e-5
-1.385, 2.404e-5
-1.384, 2.368e-5
-1.383, 2.342e-5
-1.382, 2.309e-5
-1.381, 2.278e-5
-1.380, 2.242e-5
-1.379, 2.208e-5
-1.378, 2.180e-5
-1.377, 2.156e-5
-1.376, 2.129e-5
-1.375, 2.089e-5
-1.374, 2.051e-5
-1.373, 2.027e-5
-1.372, 1.996e-5
-1.371, 1.965e-5
-1.370, 1.934e-5
-1.369, 1.909e-5
-1.368, 1.892e-5
-1.367, 1.859e-5
-1.366, 1.832e-5
-1.365, 1.802e-5
-1.364, 1.778e-5
-1.363, 1.750e-5
-1.362, 1.718e-5
-1.361, 1.697e-5
-1.360, 1.666e-5
-1.359, 1.640e-5
-1.358, 1.620e-5
-1.357, 1.600e-5
-1.356, 1.570e-5
-1.355, 1.547e-5
-1.354, 1.517e-5
-1.353, 1.490e-5
-1.352, 1.468e-5
-1.351, 1.446e-5
-1.350, 1.423e-5
-1.349, 1.400e-5
-1.348, 1.382e-5
-1.347, 1.358e-5
-1.346, 1.341e-5
-1.345, 1.306e-5
-1.344, 1.285e-5
-1.343, 1.261e-5
-1.342, 1.239e-5
-1.341, 1.228e-5
-1.340, 1.204e-5
-1.339, 1.187e-5
-1.338, 1.165e-5
-1.337, 1.141e-5
-1.336, 1.124e-5
-1.335, 1.104e-5
-1.334, 1.084e-5
-1.333, 1.065e-5
-1.332, 1.048e-5
-1.331, 1.026e-5
-1.330, 1.005e-5
-1.329, 9.842e-6
-1.328, 9.716e-6
-1.327, 9.502e-6
-1.326, 9.313e-6
-1.325, 9.147e-6
-1.324, 8.961e-6
-1.323, 8.731e-6
-1.322, 8.614e-6
-1.321, 8.462e-6
-1.320, 8.310e-6
-1.319, 8.116e-6
-1.318, 7.950e-6
-1.317, 7.823e-6
-1.316, 7.627e-6
-1.315, 7.477e-6
-1.314, 7.326e-6
-1.313, 7.197e-6
-1.312, 7.052e-6
-1.311, 6.915e-6
-1.310, 6.726e-6
-1.309, 6.616e-6
-1.308, 6.441e-6
-1.307, 6.285e-6
-1.306, 6.178e-6
-1.305, 6.081e-6
-1.304, 5.933e-6
-1.303, 5.746e-6
-1.302, 5.656e-6
-1.301, 5.519e-6
-1.300, 5.408e-6
-1.299, 5.261e-6
-1.298, 5.190e-6
-1.297, 5.066e-6
-1.296, 4.925e-6
-1.295, 4.812e-6
-1.294, 4.675e-6
-1.293, 4.584e-6
-1.292, 4.497e-6
-1.291, 4.341e-6
-1.290, 4.239e-6
-1.289, 4.129e-6
-1.288, 4.030e-6
-1.287, 3.959e-6
-1.286, 3.816e-6
-1.285, 3.721e-6
-1.284, 3.623e-6
-1.283, 3.564e-6
-1.282, 3.460e-6
-1.281, 3.368e-6
-1.280, 3.239e-6
-1.279, 3.119e-6
-1.278, 3.055e-6
-1.277, 2.991e-6
-1.276, 2.879e-6
-1.275, 2.789e-6
-1.274, 2.718e-6
-1.273, 2.641e-6
-1.272, 2.567e-6
-1.271, 2.498e-6
-1.270, 2.351e-6
-1.269, 2.297e-6
-1.268, 2.240e-6
-1.267, 2.150e-6
-1.266, 2.079e-6
-1.265, 1.970e-6
-1.264, 1.906e-6
-1.263, 1.866e-6
-1.262, 1.796e-6
-1.261, 1.704e-6
-1.260, 1.633e-6
-1.259, 1.533e-6
-1.258, 1.515e-6
-1.257, 1.435e-6
-1.256, 1.384e-6
-1.255, 1.296e-6
-1.254, 1.228e-6
-1.253, 1.193e-6
-1.252, 1.151e-6
-1.251, 1.056e-6
-1.250, 1.008e-6
-1.249, 9.242e-7
-1.248, 9.104e-7
-1.247, 8.641e-7
-1.246, 8.029e-7
-1.245, 7.190e-7
-1.244, 6.658e-7
-1.243, 6.263e-7
-1.242, 6.056e-7
-1.241, 5.227e-7
-1.240, 4.744e-7
-1.239, 4.250e-7
-1.238, 3.935e-7
-1.237, 3.333e-7
-1.236, 2.899e-7
-1.235, 2.307e-7
-1.234, 1.892e-7
-1.233, 1.547e-7
-1.232, 1.340e-7
-1.231, 7.873e-8
-1.230, 3.749e-9
-1.229, -5.545e-8
-1.228, -6.729e-8
-1.227, -8.998e-8
-1.226, -1.502e-7
-1.225, -1.965e-7
-1.224, -2.271e-7
-1.223, -2.567e-7
-1.222, -2.814e-7
-1.221, -3.120e-7
-1.220, -3.534e-7
-1.219, -4.106e-7
-1.218, -4.185e-7
-1.217, -4.432e-7
-1.216, -4.965e-7
-1.215, -5.191e-7
-1.214, -5.724e-7
-1.213, -5.862e-7
-1.212, -5.931e-7
-1.211, -6.464e-7
-1.210, -6.888e-7
-1.209, -7.313e-7
-1.208, -7.303e-7
-1.207, -7.342e-7
-1.206, -8.013e-7
-1.205, -8.062e-7
-1.204, -8.477e-7
-1.203, -8.753e-7
-1.202, -8.832e-7
-1.201, -9.335e-7
-1.200, -9.513e-7
-1.199, -9.690e-7
-1.198, -9.858e-7
-1.197, -9.907e-7
-1.196, -1.035e-6
-1.195, -1.062e-6
-1.194, -1.093e-6
-1.193, -1.093e-6
-1.192, -1.103e-6
-1.191, -1.128e-6
-1.190, -1.188e-6
-1.189, -1.190e-6
-1.188, -1.181e-6
-1.187, -1.226e-6
-1.186, -1.220e-6
-1.185, -1.262e-6
-1.184, -1.274e-6
-1.183, -1.297e-6
-1.182, -1.300e-6
-1.181, -1.303e-6
-1.180, -1.338e-6
-1.179, -1.375e-6
-1.178, -1.389e-6
-1.177, -1.362e-6
-1.176, -1.409e-6
-1.175, -1.450e-6
-1.174, -1.439e-6
-1.173, -1.437e-6
-1.172, -1.454e-6
-1.171, -1.477e-6
-1.170, -1.493e-6
-1.169, -1.528e-6
-1.168, -1.513e-6
-1.167, -1.509e-6
-1.166, -1.539e-6
-1.165, -1.589e-6
-1.164, -1.592e-6
-1.163, -1.600e-6
-1.162, -1.594e-6
-1.161, -1.604e-6
-1.160, -1.637e-6
-1.159, -1.649e-6
-1.158, -1.659e-6
-1.157, -1.649e-6
-1.156, -1.643e-6
-1.155, -1.700e-6
-1.154, -1.692e-6
-1.153, -1.705e-6
-1.152, -1.686e-6
-1.151, -1.718e-6
-1.150, -1.749e-6
-1.149, -1.748e-6
-1.148, -1.763e-6
-1.147, -1.744e-6
-1.146, -1.754e-6
-1.145, -1.816e-6
-1.144, -1.816e-6
-1.143, -1.802e-6
-1.142, -1.787e-6
-1.141, -1.793e-6
-1.140, -1.835e-6
-1.139, -1.841e-6
-1.138, -1.836e-6
-1.137, -1.838e-6
-1.136, -1.847e-6
-1.135, -1.878e-6
-1.134, -1.891e-6
-1.133, -1.889e-6
-1.132, -1.882e-6
-1.131, -1.899e-6
-1.130, -1.908e-6
-1.129, -1.923e-6
-1.128, -1.922e-6
-1.127, -1.902e-6
-1.126, -1.947e-6
-1.125, -1.953e-6
-1.124, -1.946e-6
-1.123, -1.981e-6
-1.122, -1.968e-6
-1.121, -1.969e-6
-1.120, -1.971e-6
-1.119, -2.007e-6
-1.118, -2.003e-6
-1.117, -1.947e-6
-1.116, -1.968e-6
-1.115, -1.997e-6
-1.114, -2.023e-6
-1.113, -2.031e-6
-1.112, -2.006e-6
-1.111, -2.029e-6
-1.110, -2.072e-6
-1.109, -2.064e-6
-1.108, -2.042e-6
-1.107, -2.045e-6
-1.106, -2.047e-6
-1.105, -2.073e-6
-1.104, -2.105e-6
-1.103, -2.083e-6
-1.102, -2.070e-6
-1.101, -2.076e-6
-1.100, -2.106e-6
-1.099, -2.123e-6
-1.098, -2.120e-6
-1.097, -2.095e-6
-1.096, -2.098e-6
-1.095, -2.106e-6
-1.094, -2.112e-6
-1.093, -2.131e-6
-1.092, -2.112e-6
-1.091, -2.131e-6
-1.090, -2.138e-6
-1.089, -2.165e-6
-1.088, -2.166e-6
-1.087, -2.133e-6
-1.086, -2.144e-6
-1.085, -2.165e-6
-1.084, -2.200e-6
-1.083, -2.184e-6
-1.082, -2.186e-6
-1.081, -2.179e-6
-1.080, -2.180e-6
-1.079, -2.211e-6
-1.078, -2.190e-6
-1.077, -2.177e-6
-1.076, -2.194e-6
-1.075, -2.223e-6
-1.074, -2.229e-6
-1.073, -2.242e-6
-1.072, -2.223e-6
-1.071, -2.230e-6
-1.070, -2.237e-6
-1.069, -2.252e-6
-1.068, -2.221e-6
-1.067, -2.211e-6
-1.066, -2.251e-6
-1.065, -2.254e-6
-1.064, -2.277e-6
-1.063, -2.271e-6
-1.062, -2.255e-6
-1.061, -2.249e-6
-1.060, -2.276e-6
-1.059, -2.305e-6
-1.058, -2.299e-6
-1.057, -2.301e-6
-1.056, -2.272e-6
-1.055, -2.301e-6
-1.054, -2.303e-6
-1.053, -2.302e-6
-1.052, -2.291e-6
-1.051, -2.292e-6
-1.050, -2.309e-6
-1.049, -2.333e-6
-1.048, -2.310e-6
-1.047, -2.304e-6
-1.046, -2.308e-6
-1.045, -2.326e-6
-1.044, -2.344e-6
-1.043, -2.327e-6
-1.042, -2.304e-6
-1.041, -2.320e-6
-1.040, -2.338e-6
-1.039, -2.352e-6
-1.038, -2.353e-6
-1.037, -2.316e-6
-1.036, -2.333e-6
-1.035, -2.385e-6
-1.034, -2.379e-6
-1.033, -2.388e-6
-1.032, -2.350e-6
-1.031, -2.337e-6
-1.030, -2.387e-6
-1.029, -2.401e-6
-1.028, -2.371e-6
-1.027, -2.371e-6
-1.026, -2.378e-6
-1.025, -2.402e-6
-1.024, -2.413e-6
-1.023, -2.409e-6
-1.022, -2.379e-6
-1.021, -2.359e-6
-1.020, -2.406e-6
-1.019, -2.435e-6
-1.018, -2.432e-6
-1.017, -2.403e-6
-1.016, -2.413e-6
-1.015, -2.414e-6
-1.014, -2.444e-6
-1.013, -2.434e-6
-1.012, -2.406e-6
-1.011, -2.416e-6
-1.010, -2.437e-6
-1.009, -2.464e-6
-1.008, -2.454e-6
-1.007, -2.425e-6
-1.006, -2.449e-6
-1.005, -2.436e-6
-1.004, -2.456e-6
-1.003, -2.461e-6
-1.002, -2.443e-6
-1.001, -2.452e-6
