Jan. 9, 2025   15:05:29
Chronoamperometry
File: c:/users/guazh/data/banditlqround7_x0exp772_r5/2025-01-08-exp809\pre-regen-2025-01-09t14_41_35-lsvinphos\ca_2025-01-09t15_02_23.bin
Data Source:  Experiment
Instrument Model:  CHI760E
Header: CA
Note: 

Init E (V) = 1
High E (V) = 1
Low E (V) = -1.5
Init P/N = N
Step = 181
Pulse Width (sec) = 1
Sample Interval (s) = 0.1
Quiet Time (sec) = 2
Sensitivity (A/V) = 0.001

Results:

Channel 1:
Forward:
Slp = 7.427e-3
Int = -2.434e-3
Cor = 0.93776

Reverse:
Slp = -9.971e-3
Int = -1.454e-3
Cor = -0.95239

Time/sec, Current/A

1.000e-1, 1.011e-2
2.000e-1, 1.011e-2
3.000e-1, 1.009e-2
4.000e-1, 9.593e-3
5.000e-1, 8.924e-3
6.000e-1, 8.027e-3
7.000e-1, 6.986e-3
8.000e-1, 5.890e-3
9.000e-1, 4.882e-3
1.000e+0, 3.966e-3
1.100e+0, -8.777e-3
1.200e+0, -1.010e-2
1.300e+0, -9.985e-3
1.400e+0, -9.168e-3
1.500e+0, -8.190e-3
1.600e+0, -7.231e-3
1.700e+0, -6.292e-3
1.800e+0, -5.035e-3
1.900e+0, -4.078e-3
2.000e+0, -3.585e-3
2.100e+0, 8.747e-3
2.200e+0, 9.180e-3
2.300e+0, 8.025e-3
2.400e+0, 6.735e-3
2.500e+0, 5.831e-3
2.600e+0, 5.292e-3
2.700e+0, 4.762e-3
2.800e+0, 4.238e-3
2.900e+0, 3.797e-3
3.000e+0, 3.425e-3
3.100e+0, -8.812e-3
3.200e+0, -1.010e-2
3.300e+0, -9.732e-3
3.400e+0, -8.376e-3
3.500e+0, -7.105e-3
3.600e+0, -6.076e-3
3.700e+0, -4.176e-3
3.800e+0, -3.064e-3
3.900e+0, -2.646e-3
4.000e+0, -2.385e-3
4.100e+0, 8.035e-3
4.200e+0, 7.423e-3
4.300e+0, 7.112e-3
4.400e+0, 6.209e-3
4.500e+0, 5.191e-3
4.600e+0, 4.589e-3
4.700e+0, 4.096e-3
4.800e+0, 3.633e-3
4.900e+0, 3.194e-3
5.000e+0, 2.831e-3
5.100e+0, -8.880e-3
5.200e+0, -1.009e-2
5.300e+0, -9.155e-3
5.400e+0, -7.375e-3
5.500e+0, -5.942e-3
5.600e+0, -3.657e-3
5.700e+0, -2.456e-3
5.800e+0, -2.153e-3
5.900e+0, -1.973e-3
6.000e+0, -1.844e-3
6.100e+0, 7.046e-3
6.200e+0, 5.986e-3
6.300e+0, 5.969e-3
6.400e+0, 5.653e-3
6.500e+0, 4.799e-3
6.600e+0, 4.108e-3
6.700e+0, 3.592e-3
6.800e+0, 3.121e-3
6.900e+0, 2.722e-3
7.000e+0, 2.410e-3
7.100e+0, -8.926e-3
7.200e+0, -9.944e-3
7.300e+0, -8.327e-3
7.400e+0, -6.309e-3
7.500e+0, -3.731e-3
7.600e+0, -2.082e-3
7.700e+0, -1.747e-3
7.800e+0, -1.577e-3
7.900e+0, -1.468e-3
8.000e+0, -1.392e-3
8.100e+0, 6.270e-3
8.200e+0, 5.058e-3
8.300e+0, 5.014e-3
8.400e+0, 4.892e-3
8.500e+0, 4.343e-3
8.600e+0, 3.602e-3
8.700e+0, 2.996e-3
8.800e+0, 2.598e-3
8.900e+0, 2.268e-3
9.000e+0, 2.045e-3
9.100e+0, -8.962e-3
9.200e+0, -9.501e-3
9.300e+0, -7.102e-3
9.400e+0, -4.257e-3
9.500e+0, -1.919e-3
9.600e+0, -1.487e-3
9.700e+0, -1.302e-3
9.800e+0, -1.194e-3
9.900e+0, -1.125e-3
1.000e+1, -1.076e-3
1.010e+1, 5.610e-3
1.020e+1, 4.386e-3
1.030e+1, 4.175e-3
1.040e+1, 4.085e-3
1.050e+1, 3.700e-3
1.060e+1, 3.122e-3
1.070e+1, 2.595e-3
1.080e+1, 2.136e-3
1.090e+1, 1.865e-3
1.100e+1, 1.713e-3
1.110e+1, -8.999e-3
1.120e+1, -8.522e-3
1.130e+1, -5.326e-3
1.140e+1, -2.096e-3
1.150e+1, -1.365e-3
1.160e+1, -1.137e-3
1.170e+1, -1.023e-3
1.180e+1, -9.568e-4
1.190e+1, -9.127e-4
1.200e+1, -8.795e-4
1.210e+1, 5.085e-3
1.220e+1, 3.946e-3
1.230e+1, 3.445e-3
1.240e+1, 3.279e-3
1.250e+1, 3.043e-3
1.260e+1, 2.606e-3
1.270e+1, 2.130e-3
1.280e+1, 1.708e-3
1.290e+1, 1.500e-3
1.300e+1, 1.418e-3
1.310e+1, -8.871e-3
1.320e+1, -7.084e-3
1.330e+1, -3.091e-3
1.340e+1, -1.438e-3
1.350e+1, -1.089e-3
1.360e+1, -9.449e-4
1.370e+1, -8.694e-4
1.380e+1, -8.227e-4
1.390e+1, -7.891e-4
1.400e+1, -7.627e-4
1.410e+1, 4.621e-3
1.420e+1, 3.401e-3
1.430e+1, 2.882e-3
1.440e+1, 2.714e-3
1.450e+1, 2.479e-3
1.460e+1, 2.143e-3
1.470e+1, 1.733e-3
1.480e+1, 1.400e-3
1.490e+1, 1.237e-3
1.500e+1, 1.158e-3
1.510e+1, -8.430e-3
1.520e+1, -5.409e-3
1.530e+1, -1.925e-3
1.540e+1, -1.137e-3
1.550e+1, -9.167e-4
1.560e+1, -8.208e-4
1.570e+1, -7.662e-4
1.580e+1, -7.303e-4
1.590e+1, -7.015e-4
1.600e+1, -6.784e-4
1.610e+1, 4.230e-3
1.620e+1, 2.977e-3
1.630e+1, 2.497e-3
1.640e+1, 2.285e-3
1.650e+1, 2.017e-3
1.660e+1, 1.658e-3
1.670e+1, 1.347e-3
1.680e+1, 1.116e-3
1.690e+1, 1.024e-3
1.700e+1, 9.748e-4
1.710e+1, -7.818e-3
1.720e+1, -3.956e-3
1.730e+1, -1.442e-3
1.740e+1, -9.594e-4
1.750e+1, -8.034e-4
1.760e+1, -7.309e-4
1.770e+1, -6.865e-4
1.780e+1, -6.546e-4
1.790e+1, -6.296e-4
1.800e+1, -6.070e-4
1.810e+1, 3.869e-3
1.820e+1, 2.658e-3
1.830e+1, 2.175e-3
1.840e+1, 1.897e-3
1.850e+1, 1.557e-3
1.860e+1, 1.284e-3
1.870e+1, 1.099e-3
1.880e+1, 9.582e-4
1.890e+1, 8.889e-4
1.900e+1, 8.441e-4
1.910e+1, -7.162e-3
1.920e+1, -2.972e-3
1.930e+1, -1.200e-3
1.940e+1, -8.439e-4
1.950e+1, -7.092e-4
1.960e+1, -6.359e-4
1.970e+1, -5.906e-4
1.980e+1, -5.584e-4
1.990e+1, -5.326e-4
2.000e+1, -5.122e-4
2.010e+1, 3.550e-3
2.020e+1, 2.388e-3
2.030e+1, 1.909e-3
2.040e+1, 1.580e-3
2.050e+1, 1.298e-3
2.060e+1, 1.078e-3
2.070e+1, 9.268e-4
2.080e+1, 8.332e-4
2.090e+1, 7.800e-4
2.100e+1, 7.437e-4
2.110e+1, -6.482e-3
2.120e+1, -2.340e-3
2.130e+1, -1.034e-3
2.140e+1, -7.381e-4
2.150e+1, -6.213e-4
2.160e+1, -5.543e-4
2.170e+1, -5.121e-4
2.180e+1, -4.813e-4
2.190e+1, -4.591e-4
2.200e+1, -4.403e-4
2.210e+1, 3.431e-3
2.220e+1, 2.173e-3
2.230e+1, 1.590e-3
2.240e+1, 1.317e-3
2.250e+1, 1.105e-3
2.260e+1, 9.338e-4
2.270e+1, 8.151e-4
2.280e+1, 7.378e-4
2.290e+1, 6.979e-4
2.300e+1, 6.694e-4
2.310e+1, -5.821e-3
2.320e+1, -1.852e-3
2.330e+1, -8.672e-4
2.340e+1, -6.348e-4
2.350e+1, -5.352e-4
2.360e+1, -4.771e-4
2.370e+1, -4.389e-4
2.380e+1, -4.099e-4
2.390e+1, -3.853e-4
2.400e+1, -3.648e-4
2.410e+1, 3.266e-3
2.420e+1, 1.961e-3
2.430e+1, 1.346e-3
2.440e+1, 1.087e-3
2.450e+1, 9.146e-4
2.460e+1, 7.866e-4
2.470e+1, 7.080e-4
2.480e+1, 6.602e-4
2.490e+1, 6.287e-4
2.500e+1, 6.068e-4
2.510e+1, -5.292e-3
2.520e+1, -1.559e-3
2.530e+1, -7.481e-4
2.540e+1, -5.449e-4
2.550e+1, -4.554e-4
2.560e+1, -4.019e-4
2.570e+1, -3.629e-4
2.580e+1, -3.343e-4
2.590e+1, -3.120e-4
2.600e+1, -2.941e-4
2.610e+1, 3.072e-3
2.620e+1, 1.750e-3
2.630e+1, 1.152e-3
2.640e+1, 9.120e-4
2.650e+1, 7.888e-4
2.660e+1, 6.946e-4
2.670e+1, 6.394e-4
2.680e+1, 6.030e-4
2.690e+1, 5.773e-4
2.700e+1, 5.613e-4
2.710e+1, -4.833e-3
2.720e+1, -1.334e-3
2.730e+1, -6.711e-4
2.740e+1, -4.892e-4
2.750e+1, -4.008e-4
2.760e+1, -3.430e-4
2.770e+1, -3.024e-4
2.780e+1, -2.729e-4
2.790e+1, -2.517e-4
2.800e+1, -2.350e-4
2.810e+1, 2.978e-3
2.820e+1, 1.661e-3
2.830e+1, 1.025e-3
2.840e+1, 7.875e-4
2.850e+1, 6.779e-4
2.860e+1, 6.145e-4
2.870e+1, 5.729e-4
2.880e+1, 5.488e-4
2.890e+1, 5.318e-4
2.900e+1, 5.161e-4
2.910e+1, -4.419e-3
2.920e+1, -1.192e-3
2.930e+1, -6.200e-4
2.940e+1, -4.489e-4
2.950e+1, -3.601e-4
2.960e+1, -3.058e-4
2.970e+1, -2.664e-4
2.980e+1, -2.382e-4
2.990e+1, -2.175e-4
3.000e+1, -2.017e-4
3.010e+1, 2.911e-3
3.020e+1, 1.621e-3
3.030e+1, 9.474e-4
3.040e+1, 6.953e-4
3.050e+1, 6.080e-4
3.060e+1, 5.595e-4
3.070e+1, 5.279e-4
3.080e+1, 5.109e-4
3.090e+1, 4.968e-4
3.100e+1, 4.828e-4
3.110e+1, -4.159e-3
3.120e+1, -1.103e-3
3.130e+1, -5.843e-4
3.140e+1, -4.184e-4
3.150e+1, -3.341e-4
3.160e+1, -2.817e-4
3.170e+1, -2.439e-4
3.180e+1, -2.163e-4
3.190e+1, -1.965e-4
3.200e+1, -1.809e-4
3.210e+1, 2.828e-3
3.220e+1, 1.596e-3
3.230e+1, 9.126e-4
3.240e+1, 6.573e-4
3.250e+1, 5.651e-4
3.260e+1, 5.235e-4
3.270e+1, 4.980e-4
3.280e+1, 4.830e-4
3.290e+1, 4.731e-4
3.300e+1, 4.649e-4
3.310e+1, -3.996e-3
3.320e+1, -1.063e-3
3.330e+1, -5.685e-4
3.340e+1, -4.069e-4
3.350e+1, -3.192e-4
3.360e+1, -2.655e-4
3.370e+1, -2.294e-4
3.380e+1, -2.040e-4
3.390e+1, -1.850e-4
3.400e+1, -1.696e-4
3.410e+1, 2.815e-3
3.420e+1, 1.609e-3
3.430e+1, 9.063e-4
3.440e+1, 6.172e-4
3.450e+1, 5.276e-4
3.460e+1, 4.906e-4
3.470e+1, 4.698e-4
3.480e+1, 4.568e-4
3.490e+1, 4.485e-4
3.500e+1, 4.425e-4
3.510e+1, -3.836e-3
3.520e+1, -1.014e-3
3.530e+1, -5.440e-4
3.540e+1, -3.883e-4
3.550e+1, -3.072e-4
3.560e+1, -2.529e-4
3.570e+1, -2.186e-4
3.580e+1, -1.933e-4
3.590e+1, -1.744e-4
3.600e+1, -1.595e-4
3.610e+1, 2.759e-3
3.620e+1, 1.614e-3
3.630e+1, 8.930e-4
3.640e+1, 5.801e-4
3.650e+1, 4.995e-4
3.660e+1, 4.675e-4
3.670e+1, 4.476e-4
3.680e+1, 4.329e-4
3.690e+1, 4.248e-4
3.700e+1, 4.194e-4
3.710e+1, -3.725e-3
3.720e+1, -1.009e-3
3.730e+1, -5.527e-4
3.740e+1, -3.922e-4
3.750e+1, -3.096e-4
3.760e+1, -2.545e-4
3.770e+1, -2.179e-4
3.780e+1, -1.911e-4
3.790e+1, -1.693e-4
3.800e+1, -1.544e-4
3.810e+1, 2.753e-3
3.820e+1, 1.627e-3
3.830e+1, 9.000e-4
3.840e+1, 5.815e-4
3.850e+1, 4.824e-4
3.860e+1, 4.470e-4
3.870e+1, 4.303e-4
3.880e+1, 4.185e-4
3.890e+1, 4.099e-4
3.900e+1, 4.044e-4
3.910e+1, -3.613e-3
3.920e+1, -9.624e-4
3.930e+1, -5.321e-4
3.940e+1, -3.812e-4
3.950e+1, -2.996e-4
3.960e+1, -2.453e-4
3.970e+1, -2.107e-4
3.980e+1, -1.842e-4
3.990e+1, -1.646e-4
4.000e+1, -1.493e-4
4.010e+1, 2.750e-3
4.020e+1, 1.601e-3
4.030e+1, 8.727e-4
4.040e+1, 5.482e-4
4.050e+1, 4.625e-4
4.060e+1, 4.384e-4
4.070e+1, 4.180e-4
4.080e+1, 4.064e-4
4.090e+1, 3.986e-4
4.100e+1, 3.946e-4
4.110e+1, -3.556e-3
4.120e+1, -9.682e-4
4.130e+1, -5.427e-4
4.140e+1, -3.811e-4
4.150e+1, -2.912e-4
4.160e+1, -2.384e-4
4.170e+1, -2.055e-4
4.180e+1, -1.802e-4
4.190e+1, -1.611e-4
4.200e+1, -1.460e-4
4.210e+1, 2.718e-3
4.220e+1, 1.632e-3
4.230e+1, 9.042e-4
4.240e+1, 5.426e-4
4.250e+1, 4.504e-4
4.260e+1, 4.232e-4
4.270e+1, 4.021e-4
4.280e+1, 3.912e-4
4.290e+1, 3.857e-4
4.300e+1, 3.816e-4
4.310e+1, -3.478e-3
4.320e+1, -9.541e-4
4.330e+1, -5.413e-4
4.340e+1, -3.801e-4
4.350e+1, -2.968e-4
4.360e+1, -2.429e-4
4.370e+1, -2.072e-4
4.380e+1, -1.781e-4
4.390e+1, -1.575e-4
4.400e+1, -1.403e-4
4.410e+1, 2.681e-3
4.420e+1, 1.641e-3
4.430e+1, 9.115e-4
4.440e+1, 5.381e-4
4.450e+1, 4.390e-4
4.460e+1, 4.062e-4
4.470e+1, 3.865e-4
4.480e+1, 3.763e-4
4.490e+1, 3.694e-4
4.500e+1, 3.647e-4
4.510e+1, -3.403e-3
4.520e+1, -9.350e-4
4.530e+1, -5.324e-4
4.540e+1, -3.785e-4
4.550e+1, -2.918e-4
4.560e+1, -2.375e-4
4.570e+1, -1.990e-4
4.580e+1, -1.731e-4
4.590e+1, -1.521e-4
4.600e+1, -1.359e-4
4.610e+1, 2.688e-3
4.620e+1, 1.642e-3
4.630e+1, 8.893e-4
4.640e+1, 5.349e-4
4.650e+1, 4.326e-4
4.660e+1, 3.996e-4
4.670e+1, 3.799e-4
4.680e+1, 3.692e-4
4.690e+1, 3.619e-4
4.700e+1, 3.587e-4
4.710e+1, -3.352e-3
4.720e+1, -9.439e-4
4.730e+1, -5.373e-4
4.740e+1, -3.714e-4
4.750e+1, -2.860e-4
4.760e+1, -2.327e-4
4.770e+1, -1.962e-4
4.780e+1, -1.683e-4
4.790e+1, -1.470e-4
4.800e+1, -1.325e-4
4.810e+1, 2.666e-3
4.820e+1, 1.645e-3
4.830e+1, 9.053e-4
4.840e+1, 5.165e-4
4.850e+1, 4.186e-4
4.860e+1, 3.860e-4
4.870e+1, 3.678e-4
4.880e+1, 3.583e-4
4.890e+1, 3.533e-4
4.900e+1, 3.489e-4
4.910e+1, -3.299e-3
4.920e+1, -9.373e-4
4.930e+1, -5.470e-4
4.940e+1, -3.919e-4
4.950e+1, -3.091e-4
4.960e+1, -2.563e-4
4.970e+1, -2.141e-4
4.980e+1, -1.842e-4
4.990e+1, -1.629e-4
5.000e+1, -1.471e-4
5.010e+1, 2.703e-3
5.020e+1, 1.655e-3
5.030e+1, 9.321e-4
5.040e+1, 5.393e-4
5.050e+1, 4.194e-4
5.060e+1, 3.809e-4
5.070e+1, 3.619e-4
5.080e+1, 3.516e-4
5.090e+1, 3.438e-4
5.100e+1, 3.398e-4
5.110e+1, -3.278e-3
5.120e+1, -9.500e-4
5.130e+1, -5.494e-4
5.140e+1, -3.881e-4
5.150e+1, -2.988e-4
5.160e+1, -2.403e-4
5.170e+1, -2.030e-4
5.180e+1, -1.740e-4
5.190e+1, -1.519e-4
5.200e+1, -1.378e-4
5.210e+1, 2.726e-3
5.220e+1, 1.645e-3
5.230e+1, 9.162e-4
5.240e+1, 5.205e-4
5.250e+1, 4.088e-4
5.260e+1, 3.758e-4
5.270e+1, 3.565e-4
5.280e+1, 3.452e-4
5.290e+1, 3.385e-4
5.300e+1, 3.354e-4
5.310e+1, -3.271e-3
5.320e+1, -9.636e-4
5.330e+1, -5.498e-4
5.340e+1, -3.860e-4
5.350e+1, -2.946e-4
5.360e+1, -2.350e-4
5.370e+1, -1.977e-4
5.380e+1, -1.711e-4
5.390e+1, -1.512e-4
5.400e+1, -1.333e-4
5.410e+1, 2.715e-3
5.420e+1, 1.628e-3
5.430e+1, 9.165e-4
5.440e+1, 5.243e-4
5.450e+1, 4.043e-4
5.460e+1, 3.684e-4
5.470e+1, 3.485e-4
5.480e+1, 3.391e-4
5.490e+1, 3.316e-4
5.500e+1, 3.281e-4
5.510e+1, -3.237e-3
5.520e+1, -9.575e-4
5.530e+1, -5.548e-4
5.540e+1, -3.819e-4
5.550e+1, -2.922e-4
5.560e+1, -2.394e-4
5.570e+1, -1.973e-4
5.580e+1, -1.681e-4
5.590e+1, -1.470e-4
5.600e+1, -1.290e-4
5.610e+1, 2.683e-3
5.620e+1, 1.648e-3
5.630e+1, 9.307e-4
5.640e+1, 5.094e-4
5.650e+1, 3.967e-4
5.660e+1, 3.624e-4
5.670e+1, 3.438e-4
5.680e+1, 3.334e-4
5.690e+1, 3.273e-4
5.700e+1, 3.232e-4
5.710e+1, -3.237e-3
5.720e+1, -9.819e-4
5.730e+1, -5.731e-4
5.740e+1, -4.027e-4
5.750e+1, -3.060e-4
5.760e+1, -2.460e-4
5.770e+1, -2.084e-4
5.780e+1, -1.783e-4
5.790e+1, -1.576e-4
5.800e+1, -1.400e-4
5.810e+1, 2.745e-3
5.820e+1, 1.678e-3
5.830e+1, 9.428e-4
5.840e+1, 5.133e-4
5.850e+1, 3.884e-4
5.860e+1, 3.538e-4
5.870e+1, 3.368e-4
5.880e+1, 3.272e-4
5.890e+1, 3.213e-4
5.900e+1, 3.166e-4
5.910e+1, -3.238e-3
5.920e+1, -9.653e-4
5.930e+1, -5.555e-4
5.940e+1, -3.824e-4
5.950e+1, -2.929e-4
5.960e+1, -2.425e-4
5.970e+1, -2.033e-4
5.980e+1, -1.734e-4
5.990e+1, -1.532e-4
6.000e+1, -1.355e-4
6.010e+1, 2.722e-3
6.020e+1, 1.682e-3
6.030e+1, 9.332e-4
6.040e+1, 5.099e-4
6.050e+1, 3.790e-4
6.060e+1, 3.488e-4
6.070e+1, 3.326e-4
6.080e+1, 3.241e-4
6.090e+1, 3.182e-4
6.100e+1, 3.145e-4
6.110e+1, -3.251e-3
6.120e+1, -9.867e-4
6.130e+1, -5.655e-4
6.140e+1, -3.896e-4
6.150e+1, -3.001e-4
6.160e+1, -2.404e-4
6.170e+1, -2.017e-4
6.180e+1, -1.714e-4
6.190e+1, -1.533e-4
6.200e+1, -1.384e-4
6.210e+1, 2.776e-3
6.220e+1, 1.683e-3
6.230e+1, 9.306e-4
6.240e+1, 4.986e-4
6.250e+1, 3.745e-4
6.260e+1, 3.450e-4
6.270e+1, 3.328e-4
6.280e+1, 3.217e-4
6.290e+1, 3.152e-4
6.300e+1, 3.124e-4
6.310e+1, -3.242e-3
6.320e+1, -9.886e-4
6.330e+1, -5.720e-4
6.340e+1, -3.971e-4
6.350e+1, -3.057e-4
6.360e+1, -2.468e-4
6.370e+1, -2.078e-4
6.380e+1, -1.834e-4
6.390e+1, -1.619e-4
6.400e+1, -1.441e-4
6.410e+1, 2.791e-3
6.420e+1, 1.689e-3
6.430e+1, 9.505e-4
6.440e+1, 5.004e-4
6.450e+1, 3.772e-4
6.460e+1, 3.457e-4
6.470e+1, 3.289e-4
6.480e+1, 3.186e-4
6.490e+1, 3.129e-4
6.500e+1, 3.104e-4
6.510e+1, -3.270e-3
6.520e+1, -1.017e-3
6.530e+1, -6.030e-4
6.540e+1, -4.188e-4
6.550e+1, -3.203e-4
6.560e+1, -2.541e-4
6.570e+1, -2.108e-4
6.580e+1, -1.774e-4
6.590e+1, -1.524e-4
6.600e+1, -1.336e-4
6.610e+1, 2.736e-3
6.620e+1, 1.708e-3
6.630e+1, 9.978e-4
6.640e+1, 5.256e-4
6.650e+1, 3.821e-4
6.660e+1, 3.457e-4
6.670e+1, 3.287e-4
6.680e+1, 3.187e-4
6.690e+1, 3.121e-4
6.700e+1, 3.078e-4
6.710e+1, -3.257e-3
6.720e+1, -1.010e-3
6.730e+1, -5.911e-4
6.740e+1, -4.128e-4
6.750e+1, -3.128e-4
6.760e+1, -2.516e-4
6.770e+1, -2.108e-4
6.780e+1, -1.783e-4
6.790e+1, -1.502e-4
6.800e+1, -1.324e-4
6.810e+1, 2.769e-3
6.820e+1, 1.686e-3
6.830e+1, 9.713e-4
6.840e+1, 5.311e-4
6.850e+1, 3.754e-4
6.860e+1, 3.434e-4
6.870e+1, 3.256e-4
6.880e+1, 3.153e-4
6.890e+1, 3.104e-4
6.900e+1, 3.056e-4
6.910e+1, -3.278e-3
6.920e+1, -9.964e-4
6.930e+1, -5.785e-4
6.940e+1, -3.915e-4
6.950e+1, -2.982e-4
6.960e+1, -2.375e-4
6.970e+1, -2.013e-4
6.980e+1, -1.735e-4
6.990e+1, -1.514e-4
7.000e+1, -1.360e-4
7.010e+1, 2.776e-3
7.020e+1, 1.679e-3
7.030e+1, 9.597e-4
7.040e+1, 5.048e-4
7.050e+1, 3.708e-4
7.060e+1, 3.391e-4
7.070e+1, 3.225e-4
7.080e+1, 3.111e-4
7.090e+1, 3.056e-4
7.100e+1, 3.020e-4
7.110e+1, -3.264e-3
7.120e+1, -9.994e-4
7.130e+1, -5.887e-4
7.140e+1, -4.046e-4
7.150e+1, -2.999e-4
7.160e+1, -2.408e-4
7.170e+1, -2.021e-4
7.180e+1, -1.725e-4
7.190e+1, -1.509e-4
7.200e+1, -1.329e-4
7.210e+1, 2.754e-3
7.220e+1, 1.677e-3
7.230e+1, 9.711e-4
7.240e+1, 5.181e-4
7.250e+1, 3.676e-4
7.260e+1, 3.354e-4
7.270e+1, 3.193e-4
7.280e+1, 3.091e-4
7.290e+1, 3.038e-4
7.300e+1, 3.007e-4
7.310e+1, -3.286e-3
7.320e+1, -1.000e-3
7.330e+1, -5.843e-4
7.340e+1, -4.029e-4
7.350e+1, -2.996e-4
7.360e+1, -2.362e-4
7.370e+1, -1.912e-4
7.380e+1, -1.616e-4
7.390e+1, -1.416e-4
7.400e+1, -1.282e-4
7.410e+1, 2.791e-3
7.420e+1, 1.678e-3
7.430e+1, 9.315e-4
7.440e+1, 4.893e-4
7.450e+1, 3.653e-4
7.460e+1, 3.324e-4
7.470e+1, 3.157e-4
7.480e+1, 3.074e-4
7.490e+1, 3.020e-4
7.500e+1, 2.990e-4
7.510e+1, -3.310e-3
7.520e+1, -1.023e-3
7.530e+1, -5.895e-4
7.540e+1, -4.023e-4
7.550e+1, -2.990e-4
7.560e+1, -2.330e-4
7.570e+1, -1.954e-4
7.580e+1, -1.699e-4
7.590e+1, -1.500e-4
7.600e+1, -1.306e-4
7.610e+1, 2.711e-3
7.620e+1, 1.679e-3
7.630e+1, 9.502e-4
7.640e+1, 5.289e-4
7.650e+1, 3.724e-4
7.660e+1, 3.362e-4
7.670e+1, 3.177e-4
7.680e+1, 3.064e-4
7.690e+1, 2.999e-4
7.700e+1, 2.954e-4
7.710e+1, -3.285e-3
7.720e+1, -9.871e-4
7.730e+1, -5.662e-4
7.740e+1, -3.904e-4
7.750e+1, -2.933e-4
7.760e+1, -2.358e-4
7.770e+1, -1.974e-4
7.780e+1, -1.703e-4
7.790e+1, -1.486e-4
7.800e+1, -1.335e-4
7.810e+1, 2.751e-3
7.820e+1, 1.698e-3
7.830e+1, 9.289e-4
7.840e+1, 5.138e-4
7.850e+1, 3.582e-4
7.860e+1, 3.279e-4
7.870e+1, 3.113e-4
7.880e+1, 3.013e-4
7.890e+1, 2.963e-4
7.900e+1, 2.930e-4
7.910e+1, -3.259e-3
7.920e+1, -9.949e-4
7.930e+1, -5.796e-4
7.940e+1, -4.036e-4
7.950e+1, -3.108e-4
7.960e+1, -2.491e-4
7.970e+1, -2.074e-4
7.980e+1, -1.774e-4
7.990e+1, -1.553e-4
8.000e+1, -1.367e-4
8.010e+1, 2.780e-3
8.020e+1, 1.713e-3
8.030e+1, 9.631e-4
8.040e+1, 5.110e-4
8.050e+1, 3.599e-4
8.060e+1, 3.287e-4
8.070e+1, 3.126e-4
8.080e+1, 3.019e-4
8.090e+1, 2.951e-4
8.100e+1, 2.918e-4
8.110e+1, -3.282e-3
8.120e+1, -1.002e-3
8.130e+1, -5.893e-4
8.140e+1, -4.031e-4
8.150e+1, -3.009e-4
8.160e+1, -2.408e-4
8.170e+1, -2.000e-4
8.180e+1, -1.700e-4
8.190e+1, -1.476e-4
8.200e+1, -1.313e-4
8.210e+1, 2.755e-3
8.220e+1, 1.697e-3
8.230e+1, 9.397e-4
8.240e+1, 5.133e-4
8.250e+1, 3.643e-4
8.260e+1, 3.285e-4
8.270e+1, 3.109e-4
8.280e+1, 3.007e-4
8.290e+1, 2.945e-4
8.300e+1, 2.901e-4
8.310e+1, -3.258e-3
8.320e+1, -9.718e-4
8.330e+1, -5.565e-4
8.340e+1, -3.809e-4
8.350e+1, -2.865e-4
8.360e+1, -2.335e-4
8.370e+1, -1.927e-4
8.380e+1, -1.645e-4
8.390e+1, -1.435e-4
8.400e+1, -1.267e-4
8.410e+1, 2.747e-3
8.420e+1, 1.678e-3
8.430e+1, 9.253e-4
8.440e+1, 4.801e-4
8.450e+1, 3.527e-4
8.460e+1, 3.233e-4
8.470e+1, 3.078e-4
8.480e+1, 2.989e-4
8.490e+1, 2.933e-4
8.500e+1, 2.906e-4
8.510e+1, -3.277e-3
8.520e+1, -9.774e-4
8.530e+1, -5.636e-4
8.540e+1, -3.916e-4
8.550e+1, -2.926e-4
8.560e+1, -2.346e-4
8.570e+1, -1.936e-4
8.580e+1, -1.643e-4
8.590e+1, -1.438e-4
8.600e+1, -1.270e-4
8.610e+1, 2.773e-3
8.620e+1, 1.695e-3
8.630e+1, 9.288e-4
8.640e+1, 4.861e-4
8.650e+1, 3.504e-4
8.660e+1, 3.208e-4
8.670e+1, 3.057e-4
8.680e+1, 2.969e-4
8.690e+1, 2.917e-4
8.700e+1, 2.886e-4
8.710e+1, -3.285e-3
8.720e+1, -9.890e-4
8.730e+1, -5.731e-4
8.740e+1, -3.902e-4
8.750e+1, -2.954e-4
8.760e+1, -2.331e-4
8.770e+1, -1.932e-4
8.780e+1, -1.634e-4
8.790e+1, -1.387e-4
8.800e+1, -1.218e-4
8.810e+1, 2.711e-3
8.820e+1, 1.711e-3
8.830e+1, 9.394e-4
8.840e+1, 4.924e-4
8.850e+1, 3.536e-4
8.860e+1, 3.228e-4
8.870e+1, 3.063e-4
8.880e+1, 2.971e-4
8.890e+1, 2.923e-4
8.900e+1, 2.889e-4
8.910e+1, -3.316e-3
8.920e+1, -1.004e-3
8.930e+1, -5.729e-4
8.940e+1, -3.960e-4
8.950e+1, -3.002e-4
8.960e+1, -2.412e-4
8.970e+1, -2.018e-4
8.980e+1, -1.719e-4
8.990e+1, -1.492e-4
9.000e+1, -1.316e-4
9.010e+1, 2.732e-3
9.020e+1, 1.708e-3
9.030e+1, 9.472e-4
9.040e+1, 5.307e-4
9.050e+1, 3.614e-4
9.060e+1, 3.238e-4
9.070e+1, 3.064e-4
9.080e+1, 2.971e-4
9.090e+1, 2.912e-4
9.100e+1, 2.879e-4
9.110e+1, -3.316e-3
9.120e+1, -9.953e-4
9.130e+1, -5.684e-4
9.140e+1, -3.912e-4
9.150e+1, -2.921e-4
9.160e+1, -2.280e-4
9.170e+1, -1.882e-4
9.180e+1, -1.577e-4
9.190e+1, -1.365e-4
9.200e+1, -1.219e-4
9.210e+1, 2.710e-3
9.220e+1, 1.681e-3
9.230e+1, 9.440e-4
9.240e+1, 4.952e-4
9.250e+1, 3.579e-4
9.260e+1, 3.243e-4
9.270e+1, 3.076e-4
9.280e+1, 2.978e-4
9.290e+1, 2.929e-4
9.300e+1, 2.893e-4
9.310e+1, -3.294e-3
9.320e+1, -9.867e-4
9.330e+1, -5.639e-4
9.340e+1, -3.836e-4
9.350e+1, -2.808e-4
9.360e+1, -2.209e-4
9.370e+1, -1.835e-4
9.380e+1, -1.569e-4
9.390e+1, -1.347e-4
9.400e+1, -1.183e-4
9.410e+1, 2.702e-3
9.420e+1, 1.665e-3
9.430e+1, 9.335e-4
9.440e+1, 5.070e-4
9.450e+1, 3.654e-4
9.460e+1, 3.327e-4
9.470e+1, 3.148e-4
9.480e+1, 3.050e-4
9.490e+1, 2.992e-4
9.500e+1, 2.953e-4
9.510e+1, -3.342e-3
9.520e+1, -1.002e-3
9.530e+1, -5.785e-4
9.540e+1, -3.843e-4
9.550e+1, -2.743e-4
9.560e+1, -2.116e-4
9.570e+1, -1.727e-4
9.580e+1, -1.459e-4
9.590e+1, -1.254e-4
9.600e+1, -1.119e-4
9.610e+1, 2.714e-3
9.620e+1, 1.695e-3
9.630e+1, 9.243e-4
9.640e+1, 5.121e-4
9.650e+1, 3.703e-4
9.660e+1, 3.350e-4
9.670e+1, 3.172e-4
9.680e+1, 3.067e-4
9.690e+1, 3.007e-4
9.700e+1, 2.966e-4
9.710e+1, -3.336e-3
9.720e+1, -9.986e-4
9.730e+1, -5.690e-4
9.740e+1, -3.835e-4
9.750e+1, -2.813e-4
9.760e+1, -2.162e-4
9.770e+1, -1.770e-4
9.780e+1, -1.513e-4
9.790e+1, -1.290e-4
9.800e+1, -1.123e-4
9.810e+1, 2.707e-3
9.820e+1, 1.682e-3
9.830e+1, 9.229e-4
9.840e+1, 5.144e-4
9.850e+1, 3.682e-4
9.860e+1, 3.310e-4
9.870e+1, 3.135e-4
9.880e+1, 3.026e-4
9.890e+1, 2.967e-4
9.900e+1, 2.925e-4
9.910e+1, -3.360e-3
9.920e+1, -1.009e-3
9.930e+1, -5.767e-4
9.940e+1, -3.893e-4
9.950e+1, -2.824e-4
9.960e+1, -2.219e-4
9.970e+1, -1.789e-4
9.980e+1, -1.503e-4
9.990e+1, -1.274e-4
1.000e+2, -1.120e-4
1.001e+2, 2.708e-3
1.002e+2, 1.704e-3
1.003e+2, 9.413e-4
1.004e+2, 5.059e-4
1.005e+2, 3.583e-4
1.006e+2, 3.249e-4
1.007e+2, 3.069e-4
1.008e+2, 2.973e-4
1.009e+2, 2.914e-4
1.010e+2, 2.888e-4
1.011e+2, -3.332e-3
1.012e+2, -9.908e-4
1.013e+2, -5.641e-4
1.014e+2, -3.818e-4
1.015e+2, -2.782e-4
1.016e+2, -2.193e-4
1.017e+2, -1.825e-4
1.018e+2, -1.523e-4
1.019e+2, -1.315e-4
1.020e+2, -1.147e-4
1.021e+2, 2.741e-3
1.022e+2, 1.662e-3
1.023e+2, 9.099e-4
1.024e+2, 5.006e-4
1.025e+2, 3.558e-4
1.026e+2, 3.234e-4
1.027e+2, 3.076e-4
1.028e+2, 2.977e-4
1.029e+2, 2.921e-4
1.030e+2, 2.888e-4
1.031e+2, -3.351e-3
1.032e+2, -9.979e-4
1.033e+2, -5.628e-4
1.034e+2, -3.807e-4
1.035e+2, -2.842e-4
1.036e+2, -2.246e-4
1.037e+2, -1.798e-4
1.038e+2, -1.524e-4
1.039e+2, -1.320e-4
1.040e+2, -1.169e-4
1.041e+2, 2.693e-3
1.042e+2, 1.681e-3
1.043e+2, 9.480e-4
1.044e+2, 5.283e-4
1.045e+2, 3.580e-4
1.046e+2, 3.220e-4
1.047e+2, 3.061e-4
1.048e+2, 2.962e-4
1.049e+2, 2.910e-4
1.050e+2, 2.879e-4
1.051e+2, -3.322e-3
1.052e+2, -9.579e-4
1.053e+2, -5.441e-4
1.054e+2, -3.735e-4
1.055e+2, -2.730e-4
1.056e+2, -2.099e-4
1.057e+2, -1.771e-4
1.058e+2, -1.521e-4
1.059e+2, -1.310e-4
1.060e+2, -1.148e-4
1.061e+2, 2.702e-3
1.062e+2, 1.684e-3
1.063e+2, 9.247e-4
1.064e+2, 4.677e-4
1.065e+2, 3.453e-4
1.066e+2, 3.164e-4
1.067e+2, 3.021e-4
1.068e+2, 2.942e-4
1.069e+2, 2.885e-4
1.070e+2, 2.854e-4
1.071e+2, -3.358e-3
1.072e+2, -9.579e-4
1.073e+2, -5.339e-4
1.074e+2, -3.680e-4
1.075e+2, -2.760e-4
1.076e+2, -2.150e-4
1.077e+2, -1.775e-4
1.078e+2, -1.525e-4
1.079e+2, -1.332e-4
1.080e+2, -1.188e-4
1.081e+2, 2.700e-3
1.082e+2, 1.674e-3
1.083e+2, 9.357e-4
1.084e+2, 4.806e-4
1.085e+2, 3.483e-4
1.086e+2, 3.169e-4
1.087e+2, 3.022e-4
1.088e+2, 2.942e-4
1.089e+2, 2.893e-4
1.090e+2, 2.863e-4
1.091e+2, -3.376e-3
1.092e+2, -9.833e-4
1.093e+2, -5.516e-4
1.094e+2, -3.711e-4
1.095e+2, -2.711e-4
1.096e+2, -2.077e-4
1.097e+2, -1.689e-4
1.098e+2, -1.429e-4
1.099e+2, -1.234e-4
1.100e+2, -1.098e-4
1.101e+2, 2.662e-3
1.102e+2, 1.664e-3
1.103e+2, 9.321e-4
1.104e+2, 4.952e-4
1.105e+2, 3.545e-4
1.106e+2, 3.204e-4
1.107e+2, 3.047e-4
1.108e+2, 2.955e-4
1.109e+2, 2.903e-4
1.110e+2, 2.861e-4
1.111e+2, -3.366e-3
1.112e+2, -9.691e-4
1.113e+2, -5.400e-4
1.114e+2, -3.660e-4
1.115e+2, -2.669e-4
1.116e+2, -2.083e-4
1.117e+2, -1.715e-4
1.118e+2, -1.449e-4
1.119e+2, -1.260e-4
1.120e+2, -1.107e-4
1.121e+2, 2.666e-3
1.122e+2, 1.674e-3
1.123e+2, 9.214e-4
1.124e+2, 4.843e-4
1.125e+2, 3.507e-4
1.126e+2, 3.187e-4
1.127e+2, 3.032e-4
1.128e+2, 2.944e-4
1.129e+2, 2.889e-4
1.130e+2, 2.858e-4
1.131e+2, -3.380e-3
1.132e+2, -9.793e-4
1.133e+2, -5.475e-4
1.134e+2, -3.686e-4
1.135e+2, -2.701e-4
1.136e+2, -2.096e-4
1.137e+2, -1.716e-4
1.138e+2, -1.435e-4
1.139e+2, -1.225e-4
1.140e+2, -1.071e-4
1.141e+2, 2.672e-3
1.142e+2, 1.663e-3
1.143e+2, 9.174e-4
1.144e+2, 5.049e-4
1.145e+2, 3.538e-4
1.146e+2, 3.197e-4
1.147e+2, 3.030e-4
1.148e+2, 2.941e-4
1.149e+2, 2.891e-4
1.150e+2, 2.855e-4
1.151e+2, -3.370e-3
1.152e+2, -9.528e-4
1.153e+2, -5.226e-4
1.154e+2, -3.517e-4
1.155e+2, -2.631e-4
1.156e+2, -2.061e-4
1.157e+2, -1.681e-4
1.158e+2, -1.422e-4
1.159e+2, -1.239e-4
1.160e+2, -1.104e-4
1.161e+2, 2.684e-3
1.162e+2, 1.662e-3
1.163e+2, 9.176e-4
1.164e+2, 4.657e-4
1.165e+2, 3.463e-4
1.166e+2, 3.171e-4
1.167e+2, 3.025e-4
1.168e+2, 2.940e-4
1.169e+2, 2.895e-4
1.170e+2, 2.860e-4
1.171e+2, -3.401e-3
1.172e+2, -9.820e-4
1.173e+2, -5.368e-4
1.174e+2, -3.551e-4
1.175e+2, -2.662e-4
1.176e+2, -2.080e-4
1.177e+2, -1.714e-4
1.178e+2, -1.457e-4
1.179e+2, -1.262e-4
1.180e+2, -1.129e-4
1.181e+2, 2.661e-3
1.182e+2, 1.671e-3
1.183e+2, 9.398e-4
1.184e+2, 4.930e-4
1.185e+2, 3.526e-4
1.186e+2, 3.194e-4
1.187e+2, 3.033e-4
1.188e+2, 2.941e-4
1.189e+2, 2.888e-4
1.190e+2, 2.856e-4
1.191e+2, -3.398e-3
1.192e+2, -9.735e-4
1.193e+2, -5.313e-4
1.194e+2, -3.562e-4
1.195e+2, -2.617e-4
1.196e+2, -2.013e-4
1.197e+2, -1.637e-4
1.198e+2, -1.371e-4
1.199e+2, -1.198e-4
1.200e+2, -1.060e-4
1.201e+2, 2.643e-3
1.202e+2, 1.640e-3
1.203e+2, 9.298e-4
1.204e+2, 4.984e-4
1.205e+2, 3.560e-4
1.206e+2, 3.212e-4
1.207e+2, 3.047e-4
1.208e+2, 2.964e-4
1.209e+2, 2.910e-4
1.210e+2, 2.874e-4
1.211e+2, -3.394e-3
1.212e+2, -9.613e-4
1.213e+2, -5.245e-4
1.214e+2, -3.481e-4
1.215e+2, -2.560e-4
1.216e+2, -2.027e-4
1.217e+2, -1.652e-4
1.218e+2, -1.407e-4
1.219e+2, -1.223e-4
1.220e+2, -1.078e-4
1.221e+2, 2.671e-3
1.222e+2, 1.645e-3
1.223e+2, 9.242e-4
1.224e+2, 4.797e-4
1.225e+2, 3.502e-4
1.226e+2, 3.185e-4
1.227e+2, 3.036e-4
1.228e+2, 2.943e-4
1.229e+2, 2.897e-4
1.230e+2, 2.863e-4
1.231e+2, -3.380e-3
1.232e+2, -9.564e-4
1.233e+2, -5.359e-4
1.234e+2, -3.549e-4
1.235e+2, -2.557e-4
1.236e+2, -2.021e-4
1.237e+2, -1.662e-4
1.238e+2, -1.415e-4
1.239e+2, -1.233e-4
1.240e+2, -1.100e-4
1.241e+2, 2.697e-3
1.242e+2, 1.657e-3
1.243e+2, 9.046e-4
1.244e+2, 4.736e-4
1.245e+2, 3.472e-4
1.246e+2, 3.167e-4
1.247e+2, 3.022e-4
1.248e+2, 2.938e-4
1.249e+2, 2.889e-4
1.250e+2, 2.863e-4
1.251e+2, -3.389e-3
1.252e+2, -9.558e-4
1.253e+2, -5.300e-4
1.254e+2, -3.579e-4
1.255e+2, -2.649e-4
1.256e+2, -2.100e-4
1.257e+2, -1.721e-4
1.258e+2, -1.425e-4
1.259e+2, -1.215e-4
1.260e+2, -1.079e-4
1.261e+2, 2.648e-3
1.262e+2, 1.661e-3
1.263e+2, 9.474e-4
1.264e+2, 4.971e-4
1.265e+2, 3.501e-4
1.266e+2, 3.163e-4
1.267e+2, 3.012e-4
1.268e+2, 2.933e-4
1.269e+2, 2.883e-4
1.270e+2, 2.845e-4
1.271e+2, -3.410e-3
1.272e+2, -9.491e-4
1.273e+2, -5.230e-4
1.274e+2, -3.526e-4
1.275e+2, -2.637e-4
1.276e+2, -2.067e-4
1.277e+2, -1.667e-4
1.278e+2, -1.402e-4
1.279e+2, -1.225e-4
1.280e+2, -1.056e-4
1.281e+2, 2.673e-3
1.282e+2, 1.654e-3
1.283e+2, 9.314e-4
1.284e+2, 4.776e-4
1.285e+2, 3.466e-4
1.286e+2, 3.148e-4
1.287e+2, 2.992e-4
1.288e+2, 2.927e-4
1.289e+2, 2.872e-4
1.290e+2, 2.843e-4
1.291e+2, -3.416e-3
1.292e+2, -9.525e-4
1.293e+2, -5.141e-4
1.294e+2, -3.427e-4
1.295e+2, -2.494e-4
1.296e+2, -1.973e-4
1.297e+2, -1.609e-4
1.298e+2, -1.348e-4
1.299e+2, -1.187e-4
1.300e+2, -1.052e-4
1.301e+2, 2.654e-3
1.302e+2, 1.651e-3
1.303e+2, 9.138e-4
1.304e+2, 4.703e-4
1.305e+2, 3.482e-4
1.306e+2, 3.174e-4
1.307e+2, 3.027e-4
1.308e+2, 2.936e-4
1.309e+2, 2.882e-4
1.310e+2, 2.852e-4
1.311e+2, -3.368e-3
1.312e+2, -9.149e-4
1.313e+2, -5.096e-4
1.314e+2, -3.446e-4
1.315e+2, -2.529e-4
1.316e+2, -2.005e-4
1.317e+2, -1.675e-4
1.318e+2, -1.425e-4
1.319e+2, -1.231e-4
1.320e+2, -1.089e-4
1.321e+2, 2.712e-3
1.322e+2, 1.665e-3
1.323e+2, 8.872e-4
1.324e+2, 4.424e-4
1.325e+2, 3.379e-4
1.326e+2, 3.115e-4
1.327e+2, 2.991e-4
1.328e+2, 2.916e-4
1.329e+2, 2.869e-4
1.330e+2, 2.843e-4
1.331e+2, -3.400e-3
1.332e+2, -9.297e-4
1.333e+2, -5.105e-4
1.334e+2, -3.425e-4
1.335e+2, -2.571e-4
1.336e+2, -2.051e-4
1.337e+2, -1.673e-4
1.338e+2, -1.387e-4
1.339e+2, -1.243e-4
1.340e+2, -1.089e-4
1.341e+2, 2.680e-3
1.342e+2, 1.636e-3
1.343e+2, 9.199e-4
1.344e+2, 4.703e-4
1.345e+2, 3.457e-4
1.346e+2, 3.152e-4
1.347e+2, 2.999e-4
1.348e+2, 2.916e-4
1.349e+2, 2.865e-4
1.350e+2, 2.835e-4
1.351e+2, -3.408e-3
1.352e+2, -9.371e-4
1.353e+2, -5.212e-4
1.354e+2, -3.559e-4
1.355e+2, -2.669e-4
1.356e+2, -2.092e-4
1.357e+2, -1.723e-4
1.358e+2, -1.470e-4
1.359e+2, -1.266e-4
1.360e+2, -1.111e-4
1.361e+2, 2.645e-3
1.362e+2, 1.661e-3
1.363e+2, 9.479e-4
1.364e+2, 4.951e-4
1.365e+2, 3.506e-4
1.366e+2, 3.167e-4
1.367e+2, 3.019e-4
1.368e+2, 2.929e-4
1.369e+2, 2.880e-4
1.370e+2, 2.851e-4
1.371e+2, -3.429e-3
1.372e+2, -9.493e-4
1.373e+2, -5.275e-4
1.374e+2, -3.521e-4
1.375e+2, -2.551e-4
1.376e+2, -1.998e-4
1.377e+2, -1.631e-4
1.378e+2, -1.370e-4
1.379e+2, -1.191e-4
1.380e+2, -1.052e-4
1.381e+2, 2.638e-3
1.382e+2, 1.635e-3
1.383e+2, 9.228e-4
1.384e+2, 4.870e-4
1.385e+2, 3.519e-4
1.386e+2, 3.179e-4
1.387e+2, 3.016e-4
1.388e+2, 2.929e-4
1.389e+2, 2.877e-4
1.390e+2, 2.842e-4
1.391e+2, -3.414e-3
1.392e+2, -9.340e-4
1.393e+2, -5.218e-4
1.394e+2, -3.573e-4
1.395e+2, -2.647e-4
1.396e+2, -2.019e-4
1.397e+2, -1.671e-4
1.398e+2, -1.405e-4
1.399e+2, -1.222e-4
1.400e+2, -1.064e-4
1.401e+2, 2.636e-3
1.402e+2, 1.644e-3
1.403e+2, 9.337e-4
1.404e+2, 5.010e-4
1.405e+2, 3.491e-4
1.406e+2, 3.138e-4
1.407e+2, 2.990e-4
1.408e+2, 2.912e-4
1.409e+2, 2.867e-4
1.410e+2, 2.830e-4
1.411e+2, -3.393e-3
1.412e+2, -9.284e-4
1.413e+2, -5.111e-4
1.414e+2, -3.431e-4
1.415e+2, -2.558e-4
1.416e+2, -2.047e-4
1.417e+2, -1.697e-4
1.418e+2, -1.443e-4
1.419e+2, -1.232e-4
1.420e+2, -1.089e-4
1.421e+2, 2.652e-3
1.422e+2, 1.650e-3
1.423e+2, 9.322e-4
1.424e+2, 4.733e-4
1.425e+2, 3.458e-4
1.426e+2, 3.140e-4
1.427e+2, 3.002e-4
1.428e+2, 2.918e-4
1.429e+2, 2.876e-4
1.430e+2, 2.843e-4
1.431e+2, -3.427e-3
1.432e+2, -9.513e-4
1.433e+2, -5.183e-4
1.434e+2, -3.377e-4
1.435e+2, -2.498e-4
1.436e+2, -1.972e-4
1.437e+2, -1.615e-4
1.438e+2, -1.383e-4
1.439e+2, -1.179e-4
1.440e+2, -1.024e-4
1.441e+2, 2.625e-3
1.442e+2, 1.649e-3
1.443e+2, 9.131e-4
1.444e+2, 4.834e-4
1.445e+2, 3.507e-4
1.446e+2, 3.169e-4
1.447e+2, 3.034e-4
1.448e+2, 2.941e-4
1.449e+2, 2.886e-4
1.450e+2, 2.853e-4
1.451e+2, -3.428e-3
1.452e+2, -9.320e-4
1.453e+2, -5.094e-4
1.454e+2, -3.361e-4
1.455e+2, -2.472e-4
1.456e+2, -1.952e-4
1.457e+2, -1.572e-4
1.458e+2, -1.352e-4
1.459e+2, -1.166e-4
1.460e+2, -1.017e-4
1.461e+2, 2.651e-3
1.462e+2, 1.647e-3
1.463e+2, 8.999e-4
1.464e+2, 4.637e-4
1.465e+2, 3.449e-4
1.466e+2, 3.137e-4
1.467e+2, 2.994e-4
1.468e+2, 2.918e-4
1.469e+2, 2.870e-4
1.470e+2, 2.840e-4
1.471e+2, -3.397e-3
1.472e+2, -9.245e-4
1.473e+2, -5.103e-4
1.474e+2, -3.467e-4
1.475e+2, -2.596e-4
1.476e+2, -2.053e-4
1.477e+2, -1.674e-4
1.478e+2, -1.446e-4
1.479e+2, -1.259e-4
1.480e+2, -1.114e-4
1.481e+2, 2.693e-3
1.482e+2, 1.650e-3
1.483e+2, 9.250e-4
1.484e+2, 4.761e-4
1.485e+2, 3.407e-4
1.486e+2, 3.103e-4
1.487e+2, 2.976e-4
1.488e+2, 2.901e-4
1.489e+2, 2.851e-4
1.490e+2, 2.817e-4
1.491e+2, -3.437e-3
1.492e+2, -9.369e-4
1.493e+2, -5.137e-4
1.494e+2, -3.425e-4
1.495e+2, -2.514e-4
1.496e+2, -1.971e-4
1.497e+2, -1.615e-4
1.498e+2, -1.334e-4
1.499e+2, -1.141e-4
1.500e+2, -1.017e-4
1.501e+2, 2.668e-3
1.502e+2, 1.641e-3
1.503e+2, 9.038e-4
1.504e+2, 4.696e-4
1.505e+2, 3.464e-4
1.506e+2, 3.141e-4
1.507e+2, 3.000e-4
1.508e+2, 2.924e-4
1.509e+2, 2.876e-4
1.510e+2, 2.842e-4
1.511e+2, -3.412e-3
1.512e+2, -9.107e-4
1.513e+2, -5.060e-4
1.514e+2, -3.382e-4
1.515e+2, -2.492e-4
1.516e+2, -1.928e-4
1.517e+2, -1.574e-4
1.518e+2, -1.332e-4
1.519e+2, -1.150e-4
1.520e+2, -1.025e-4
1.521e+2, 2.680e-3
1.522e+2, 1.629e-3
1.523e+2, 8.904e-4
1.524e+2, 4.590e-4
1.525e+2, 3.418e-4
1.526e+2, 3.117e-4
1.527e+2, 2.977e-4
1.528e+2, 2.907e-4
1.529e+2, 2.859e-4
1.530e+2, 2.826e-4
1.531e+2, -3.406e-3
1.532e+2, -9.146e-4
1.533e+2, -5.041e-4
1.534e+2, -3.327e-4
1.535e+2, -2.367e-4
1.536e+2, -1.871e-4
1.537e+2, -1.546e-4
1.538e+2, -1.305e-4
1.539e+2, -1.123e-4
1.540e+2, -9.876e-5
1.541e+2, 2.701e-3
1.542e+2, 1.621e-3
1.543e+2, 8.672e-4
1.544e+2, 4.418e-4
1.545e+2, 3.371e-4
1.546e+2, 3.105e-4
1.547e+2, 2.983e-4
1.548e+2, 2.913e-4
1.549e+2, 2.868e-4
1.550e+2, 2.835e-4
1.551e+2, -3.430e-3
1.552e+2, -9.129e-4
1.553e+2, -4.877e-4
1.554e+2, -3.206e-4
1.555e+2, -2.360e-4
1.556e+2, -1.811e-4
1.557e+2, -1.487e-4
1.558e+2, -1.266e-4
1.559e+2, -1.103e-4
1.560e+2, -9.689e-5
1.561e+2, 2.663e-3
1.562e+2, 1.628e-3
1.563e+2, 8.790e-4
1.564e+2, 4.452e-4
1.565e+2, 3.391e-4
1.566e+2, 3.111e-4
1.567e+2, 2.982e-4
1.568e+2, 2.915e-4
1.569e+2, 2.873e-4
1.570e+2, 2.845e-4
1.571e+2, -3.440e-3
1.572e+2, -9.203e-4
1.573e+2, -4.887e-4
1.574e+2, -3.148e-4
1.575e+2, -2.291e-4
1.576e+2, -1.812e-4
1.577e+2, -1.505e-4
1.578e+2, -1.284e-4
1.579e+2, -1.118e-4
1.580e+2, -9.935e-5
1.581e+2, 2.623e-3
1.582e+2, 1.607e-3
1.583e+2, 8.792e-4
1.584e+2, 4.622e-4
1.585e+2, 3.423e-4
1.586e+2, 3.118e-4
1.587e+2, 2.992e-4
1.588e+2, 2.914e-4
1.589e+2, 2.862e-4
1.590e+2, 2.828e-4
1.591e+2, -3.438e-3
1.592e+2, -9.089e-4
1.593e+2, -4.940e-4
1.594e+2, -3.262e-4
1.595e+2, -2.339e-4
1.596e+2, -1.813e-4
1.597e+2, -1.503e-4
1.598e+2, -1.290e-4
1.599e+2, -1.124e-4
1.600e+2, -9.961e-5
1.601e+2, 2.668e-3
1.602e+2, 1.636e-3
1.603e+2, 8.748e-4
1.604e+2, 4.482e-4
1.605e+2, 3.391e-4
1.606e+2, 3.100e-4
1.607e+2, 2.978e-4
1.608e+2, 2.903e-4
1.609e+2, 2.857e-4
1.610e+2, 2.829e-4
1.611e+2, -3.449e-3
1.612e+2, -9.212e-4
1.613e+2, -4.979e-4
1.614e+2, -3.232e-4
1.615e+2, -2.321e-4
1.616e+2, -1.812e-4
1.617e+2, -1.505e-4
1.618e+2, -1.266e-4
1.619e+2, -1.083e-4
1.620e+2, -9.489e-5
1.621e+2, 2.660e-3
1.622e+2, 1.617e-3
1.623e+2, 8.710e-4
1.624e+2, 4.492e-4
1.625e+2, 3.423e-4
1.626e+2, 3.132e-4
1.627e+2, 2.989e-4
1.628e+2, 2.912e-4
1.629e+2, 2.870e-4
1.630e+2, 2.837e-4
1.631e+2, -3.434e-3
1.632e+2, -8.974e-4
1.633e+2, -4.797e-4
1.634e+2, -3.219e-4
1.635e+2, -2.371e-4
1.636e+2, -1.851e-4
1.637e+2, -1.515e-4
1.638e+2, -1.275e-4
1.639e+2, -1.105e-4
1.640e+2, -9.742e-5
1.641e+2, 2.684e-3
1.642e+2, 1.621e-3
1.643e+2, 8.591e-4
1.644e+2, 4.404e-4
1.645e+2, 3.380e-4
1.646e+2, 3.104e-4
1.647e+2, 2.981e-4
1.648e+2, 2.909e-4
1.649e+2, 2.860e-4
1.650e+2, 2.835e-4
1.651e+2, -3.441e-3
1.652e+2, -9.120e-4
1.653e+2, -4.873e-4
1.654e+2, -3.203e-4
1.655e+2, -2.353e-4
1.656e+2, -1.816e-4
1.657e+2, -1.454e-4
1.658e+2, -1.236e-4
1.659e+2, -1.070e-4
1.660e+2, -9.563e-5
1.661e+2, 2.659e-3
1.662e+2, 1.616e-3
1.663e+2, 8.630e-4
1.664e+2, 4.415e-4
1.665e+2, 3.360e-4
1.666e+2, 3.095e-4
1.667e+2, 2.968e-4
1.668e+2, 2.899e-4
1.669e+2, 2.849e-4
1.670e+2, 2.822e-4
1.671e+2, -3.451e-3
1.672e+2, -9.079e-4
1.673e+2, -4.826e-4
1.674e+2, -3.241e-4
1.675e+2, -2.367e-4
1.676e+2, -1.857e-4
1.677e+2, -1.526e-4
1.678e+2, -1.281e-4
1.679e+2, -1.114e-4
1.680e+2, -9.903e-5
1.681e+2, 2.676e-3
1.682e+2, 1.636e-3
1.683e+2, 8.827e-4
1.684e+2, 4.462e-4
1.685e+2, 3.370e-4
1.686e+2, 3.083e-4
1.687e+2, 2.959e-4
1.688e+2, 2.888e-4
1.689e+2, 2.844e-4
1.690e+2, 2.815e-4
1.691e+2, -3.451e-3
1.692e+2, -8.939e-4
1.693e+2, -4.757e-4
1.694e+2, -3.185e-4
1.695e+2, -2.342e-4
1.696e+2, -1.816e-4
1.697e+2, -1.494e-4
1.698e+2, -1.237e-4
1.699e+2, -1.069e-4
1.700e+2, -9.421e-5
1.701e+2, 2.671e-3
1.702e+2, 1.633e-3
1.703e+2, 8.662e-4
1.704e+2, 4.318e-4
1.705e+2, 3.329e-4
1.706e+2, 3.068e-4
1.707e+2, 2.951e-4
1.708e+2, 2.884e-4
1.709e+2, 2.846e-4
1.710e+2, 2.818e-4
1.711e+2, -3.446e-3
1.712e+2, -8.850e-4
1.713e+2, -4.716e-4
1.714e+2, -3.161e-4
1.715e+2, -2.340e-4
1.716e+2, -1.877e-4
1.717e+2, -1.543e-4
1.718e+2, -1.331e-4
1.719e+2, -1.169e-4
1.720e+2, -1.035e-4
1.721e+2, 2.688e-3
1.722e+2, 1.640e-3
1.723e+2, 8.824e-4
1.724e+2, 4.354e-4
1.725e+2, 3.317e-4
1.726e+2, 3.048e-4
1.727e+2, 2.942e-4
1.728e+2, 2.875e-4
1.729e+2, 2.830e-4
1.730e+2, 2.805e-4
1.731e+2, -3.442e-3
1.732e+2, -8.858e-4
1.733e+2, -4.724e-4
1.734e+2, -3.151e-4
1.735e+2, -2.349e-4
1.736e+2, -1.840e-4
1.737e+2, -1.532e-4
1.738e+2, -1.312e-4
1.739e+2, -1.134e-4
1.740e+2, -1.000e-4
1.741e+2, 2.725e-3
1.742e+2, 1.636e-3
1.743e+2, 8.402e-4
1.744e+2, 4.252e-4
1.745e+2, 3.315e-4
1.746e+2, 3.065e-4
1.747e+2, 2.957e-4
1.748e+2, 2.882e-4
1.749e+2, 2.845e-4
1.750e+2, 2.818e-4
1.751e+2, -3.439e-3
1.752e+2, -8.802e-4
1.753e+2, -4.707e-4
1.754e+2, -3.151e-4
1.755e+2, -2.340e-4
1.756e+2, -1.868e-4
1.757e+2, -1.545e-4
1.758e+2, -1.319e-4
1.759e+2, -1.152e-4
1.760e+2, -1.012e-4
1.761e+2, 2.682e-3
1.762e+2, 1.626e-3
1.763e+2, 8.585e-4
1.764e+2, 4.318e-4
1.765e+2, 3.346e-4
1.766e+2, 3.074e-4
1.767e+2, 2.952e-4
1.768e+2, 2.880e-4
1.769e+2, 2.844e-4
1.770e+2, 2.814e-4
1.771e+2, -3.430e-3
1.772e+2, -8.810e-4
1.773e+2, -4.759e-4
1.774e+2, -3.197e-4
1.775e+2, -2.367e-4
1.776e+2, -1.852e-4
1.777e+2, -1.509e-4
1.778e+2, -1.276e-4
1.779e+2, -1.092e-4
1.780e+2, -9.823e-5
1.781e+2, 2.726e-3
1.782e+2, 1.615e-3
1.783e+2, 8.353e-4
1.784e+2, 4.261e-4
1.785e+2, 3.359e-4
1.786e+2, 3.086e-4
1.787e+2, 2.970e-4
1.788e+2, 2.897e-4
1.789e+2, 2.853e-4
1.790e+2, 2.826e-4
1.791e+2, -3.459e-3
1.792e+2, -9.002e-4
1.793e+2, -4.792e-4
1.794e+2, -3.193e-4
1.795e+2, -2.379e-4
1.796e+2, -1.890e-4
1.797e+2, -1.529e-4
1.798e+2, -1.303e-4
1.799e+2, -1.138e-4
1.800e+2, -1.008e-4
1.801e+2, 2.651e-3
1.802e+2, 1.630e-3
1.803e+2, 8.668e-4
1.804e+2, 4.527e-4
1.805e+2, 3.391e-4
1.806e+2, 3.100e-4
1.807e+2, 2.972e-4
1.808e+2, 2.896e-4
1.809e+2, 2.851e-4
1.810e+2, 2.820e-4
