July 1, 2026   04:49:18
Cyclic Voltammetry
File: c:/users/guazh/data/20260623_doe_duplica2/2026-06-24-exp56\exp56-2026-07-01t04_17_07-h2koh\exp56_cv_sr_300mvs_efin_-2000mv.bin
Data Source:  Experiment
Instrument Model:  CHI760E
Header: CV ran at 300 mVs
Note: 

Init E (V) = -1
High E (V) = -1
Low E (V) = -2
Final E (V) = -1
Init P/N = N
Scan Rate (V/s) = 0.3
Segment = 3
Sample Interval (V) = 0.001
Quiet Time (sec) = 2
Sensitivity (A/V) = 0.01
Comp R (ohm) = 2.1

Results:

Channel 1:
Segment 1:

Segment 2:

Segment 3:

Potential/V, Current/A

-1.000, 1.559e-7
-1.001, 1.559e-7
-1.002, 1.559e-7
-1.003, 1.559e-7
-1.004, 1.559e-7
-1.005, 1.559e-7
-1.006, 1.559e-7
-1.007, 1.559e-7
-1.008, 1.559e-7
-1.009, 1.559e-7
-1.010, 1.559e-7
-1.011, 1.559e-7
-1.012, 1.559e-7
-1.013, 1.559e-7
-1.014, 1.559e-7
-1.015, 3.239e-6
-1.016, 1.559e-7
-1.017, 3.239e-6
-1.018, 1.559e-7
-1.019, 1.559e-7
-1.020, 1.559e-7
-1.021, 1.559e-7
-1.022, 1.559e-7
-1.023, 1.559e-7
-1.024, 3.239e-6
-1.025, 1.559e-7
-1.026, 3.239e-6
-1.027, 3.239e-6
-1.028, 1.559e-7
-1.029, 1.559e-7
-1.030, 3.239e-6
-1.031, 3.239e-6
-1.032, 3.239e-6
-1.033, 3.239e-6
-1.034, 3.239e-6
-1.035, 3.239e-6
-1.036, 3.239e-6
-1.037, 1.559e-7
-1.038, 1.559e-7
-1.039, 3.239e-6
-1.040, 3.239e-6
-1.041, 3.239e-6
-1.042, 3.239e-6
-1.043, 3.239e-6
-1.044, 3.239e-6
-1.045, 3.239e-6
-1.046, 3.239e-6
-1.047, 1.559e-7
-1.048, 3.239e-6
-1.049, 3.239e-6
-1.050, 3.239e-6
-1.051, 3.239e-6
-1.052, 3.239e-6
-1.053, 3.239e-6
-1.054, 3.239e-6
-1.055, 3.239e-6
-1.056, 3.239e-6
-1.057, 3.239e-6
-1.058, 3.239e-6
-1.059, 3.239e-6
-1.060, 3.239e-6
-1.061, 3.239e-6
-1.062, 1.559e-7
-1.063, 3.239e-6
-1.064, 3.239e-6
-1.065, 3.239e-6
-1.066, 3.239e-6
-1.067, 3.239e-6
-1.068, 3.239e-6
-1.069, 3.239e-6
-1.070, 3.239e-6
-1.071, 3.239e-6
-1.072, 3.239e-6
-1.073, 3.239e-6
-1.074, 3.239e-6
-1.075, 3.239e-6
-1.076, 3.239e-6
-1.077, 3.239e-6
-1.078, 3.239e-6
-1.079, 3.239e-6
-1.080, 3.239e-6
-1.081, 3.239e-6
-1.082, 3.239e-6
-1.083, 3.239e-6
-1.084, 3.239e-6
-1.085, 3.239e-6
-1.086, 3.239e-6
-1.087, 3.239e-6
-1.088, 3.239e-6
-1.089, 3.239e-6
-1.090, 3.239e-6
-1.091, 3.239e-6
-1.092, 3.239e-6
-1.093, 3.239e-6
-1.094, 3.239e-6
-1.095, 3.239e-6
-1.096, 3.239e-6
-1.097, 3.239e-6
-1.098, 3.239e-6
-1.099, 3.239e-6
-1.100, 3.239e-6
-1.101, 3.239e-6
-1.102, 3.239e-6
-1.103, 3.239e-6
-1.104, 3.239e-6
-1.105, 3.239e-6
-1.106, 3.239e-6
-1.107, 3.239e-6
-1.108, 3.239e-6
-1.109, 3.239e-6
-1.110, 3.239e-6
-1.111, 3.239e-6
-1.112, 3.239e-6
-1.113, 3.239e-6
-1.114, 3.239e-6
-1.115, 3.239e-6
-1.116, 3.239e-6
-1.117, 3.239e-6
-1.118, 3.239e-6
-1.119, 3.239e-6
-1.120, 3.239e-6
-1.121, 3.239e-6
-1.122, 3.239e-6
-1.123, 3.239e-6
-1.124, 3.239e-6
-1.125, 3.239e-6
-1.126, 3.239e-6
-1.127, 3.239e-6
-1.128, 3.239e-6
-1.129, 6.322e-6
-1.130, 3.239e-6
-1.131, 3.239e-6
-1.132, 3.239e-6
-1.133, 3.239e-6
-1.134, 3.239e-6
-1.135, 3.239e-6
-1.136, 3.239e-6
-1.137, 3.239e-6
-1.138, 3.239e-6
-1.139, 3.239e-6
-1.140, 3.239e-6
-1.141, 3.239e-6
-1.142, 3.239e-6
-1.143, 3.239e-6
-1.144, 3.239e-6
-1.145, 3.239e-6
-1.146, 3.239e-6
-1.147, 3.239e-6
-1.148, 3.239e-6
-1.149, 3.239e-6
-1.150, 3.239e-6
-1.151, 3.239e-6
-1.152, 3.239e-6
-1.153, 3.239e-6
-1.154, 3.239e-6
-1.155, 3.239e-6
-1.156, 6.322e-6
-1.157, 3.239e-6
-1.158, 3.239e-6
-1.159, 3.239e-6
-1.160, 3.239e-6
-1.161, 3.239e-6
-1.162, 3.239e-6
-1.163, 3.239e-6
-1.164, 3.239e-6
-1.165, 6.322e-6
-1.166, 3.239e-6
-1.167, 3.239e-6
-1.168, 3.239e-6
-1.169, 3.239e-6
-1.170, 3.239e-6
-1.171, 3.239e-6
-1.172, 3.239e-6
-1.173, 3.239e-6
-1.174, 3.239e-6
-1.175, 3.239e-6
-1.176, 6.322e-6
-1.177, 3.239e-6
-1.178, 3.239e-6
-1.179, 3.239e-6
-1.180, 6.322e-6
-1.181, 3.239e-6
-1.182, 3.239e-6
-1.183, 3.239e-6
-1.184, 6.322e-6
-1.185, 3.239e-6
-1.186, 6.322e-6
-1.187, 3.239e-6
-1.188, 6.322e-6
-1.189, 3.239e-6
-1.190, 6.322e-6
-1.191, 6.322e-6
-1.192, 3.239e-6
-1.193, 3.239e-6
-1.194, 3.239e-6
-1.195, 3.239e-6
-1.196, 6.322e-6
-1.197, 3.239e-6
-1.198, 3.239e-6
-1.199, 3.239e-6
-1.200, 6.322e-6
-1.201, 6.322e-6
-1.202, 6.322e-6
-1.203, 3.239e-6
-1.204, 6.322e-6
-1.205, 6.322e-6
-1.206, 6.322e-6
-1.207, 3.239e-6
-1.208, 6.322e-6
-1.209, 6.322e-6
-1.210, 3.239e-6
-1.211, 3.239e-6
-1.212, 6.322e-6
-1.213, 3.239e-6
-1.214, 3.239e-6
-1.215, 6.322e-6
-1.216, 6.322e-6
-1.217, 6.322e-6
-1.218, 6.322e-6
-1.219, 6.322e-6
-1.220, 6.322e-6
-1.221, 6.322e-6
-1.222, 6.322e-6
-1.223, 6.322e-6
-1.224, 6.322e-6
-1.225, 6.322e-6
-1.226, 6.322e-6
-1.227, 6.322e-6
-1.228, 6.322e-6
-1.229, 6.322e-6
-1.230, 6.322e-6
-1.231, 6.322e-6
-1.232, 6.322e-6
-1.233, 6.322e-6
-1.234, 6.322e-6
-1.235, 6.322e-6
-1.236, 6.322e-6
-1.237, 3.239e-6
-1.238, 6.322e-6
-1.239, 6.322e-6
-1.240, 6.322e-6
-1.241, 6.322e-6
-1.242, 6.322e-6
-1.243, 6.322e-6
-1.244, 6.322e-6
-1.245, 6.322e-6
-1.246, 6.322e-6
-1.247, 6.322e-6
-1.248, 6.322e-6
-1.249, 6.322e-6
-1.250, 6.322e-6
-1.251, 6.322e-6
-1.252, 6.322e-6
-1.253, 6.322e-6
-1.254, 6.322e-6
-1.255, 6.322e-6
-1.256, 6.322e-6
-1.257, 6.322e-6
-1.258, 6.322e-6
-1.259, 6.322e-6
-1.260, 6.322e-6
-1.261, 6.322e-6
-1.262, 6.322e-6
-1.263, 6.322e-6
-1.264, 6.322e-6
-1.265, 6.322e-6
-1.266, 6.322e-6
-1.267, 6.322e-6
-1.268, 6.322e-6
-1.269, 6.322e-6
-1.270, 6.322e-6
-1.271, 6.322e-6
-1.272, 6.322e-6
-1.273, 6.322e-6
-1.274, 6.322e-6
-1.275, 6.322e-6
-1.276, 6.322e-6
-1.277, 6.322e-6
-1.278, 6.322e-6
-1.279, 6.322e-6
-1.280, 6.322e-6
-1.281, 6.322e-6
-1.282, 6.322e-6
-1.283, 6.322e-6
-1.284, 6.322e-6
-1.285, 6.322e-6
-1.286, 6.322e-6
-1.287, 6.322e-6
-1.288, 6.322e-6
-1.289, 6.322e-6
-1.290, 6.322e-6
-1.291, 6.322e-6
-1.292, 6.322e-6
-1.293, 6.322e-6
-1.294, 6.322e-6
-1.295, 6.322e-6
-1.296, 6.322e-6
-1.297, 6.322e-6
-1.298, 6.322e-6
-1.299, 6.322e-6
-1.300, 6.322e-6
-1.301, 6.322e-6
-1.302, 6.322e-6
-1.303, 6.322e-6
-1.304, 6.322e-6
-1.305, 6.322e-6
-1.306, 6.322e-6
-1.307, 6.322e-6
-1.308, 6.322e-6
-1.309, 6.322e-6
-1.310, 6.322e-6
-1.311, 6.322e-6
-1.312, 6.322e-6
-1.313, 6.322e-6
-1.314, 6.322e-6
-1.315, 6.322e-6
-1.316, 6.322e-6
-1.317, 6.322e-6
-1.318, 6.322e-6
-1.319, 6.322e-6
-1.320, 6.322e-6
-1.321, 6.322e-6
-1.322, 6.322e-6
-1.323, 6.322e-6
-1.324, 6.322e-6
-1.325, 6.322e-6
-1.326, 6.322e-6
-1.327, 6.322e-6
-1.328, 6.322e-6
-1.329, 6.322e-6
-1.330, 6.322e-6
-1.331, 6.322e-6
-1.332, 6.322e-6
-1.333, 6.322e-6
-1.334, 6.322e-6
-1.335, 6.322e-6
-1.336, 9.405e-6
-1.337, 6.322e-6
-1.338, 6.322e-6
-1.339, 6.322e-6
-1.340, 6.322e-6
-1.341, 6.322e-6
-1.342, 6.322e-6
-1.343, 6.322e-6
-1.344, 6.322e-6
-1.345, 6.322e-6
-1.346, 6.322e-6
-1.347, 6.322e-6
-1.348, 9.405e-6
-1.349, 6.322e-6
-1.350, 6.322e-6
-1.351, 9.405e-6
-1.352, 6.322e-6
-1.353, 6.322e-6
-1.354, 6.322e-6
-1.355, 6.322e-6
-1.356, 6.322e-6
-1.357, 9.405e-6
-1.358, 6.322e-6
-1.359, 9.405e-6
-1.360, 9.405e-6
-1.361, 9.405e-6
-1.362, 9.405e-6
-1.363, 6.322e-6
-1.364, 9.405e-6
-1.365, 6.322e-6
-1.366, 9.405e-6
-1.367, 9.405e-6
-1.368, 6.322e-6
-1.369, 9.405e-6
-1.370, 6.322e-6
-1.371, 9.405e-6
-1.372, 6.322e-6
-1.373, 6.322e-6
-1.374, 9.405e-6
-1.375, 6.322e-6
-1.376, 9.405e-6
-1.377, 6.322e-6
-1.378, 6.322e-6
-1.379, 9.405e-6
-1.380, 6.322e-6
-1.381, 9.405e-6
-1.382, 9.405e-6
-1.383, 9.405e-6
-1.384, 9.405e-6
-1.385, 9.405e-6
-1.386, 9.405e-6
-1.387, 9.405e-6
-1.388, 9.405e-6
-1.389, 9.405e-6
-1.390, 9.405e-6
-1.391, 9.405e-6
-1.392, 9.405e-6
-1.393, 9.405e-6
-1.394, 9.405e-6
-1.395, 9.405e-6
-1.396, 9.405e-6
-1.397, 9.405e-6
-1.398, 9.405e-6
-1.399, 9.405e-6
-1.400, 9.405e-6
-1.401, 9.405e-6
-1.402, 9.405e-6
-1.403, 9.405e-6
-1.404, 9.405e-6
-1.405, 9.405e-6
-1.406, 9.405e-6
-1.407, 9.405e-6
-1.408, 9.405e-6
-1.409, 9.405e-6
-1.410, 9.405e-6
-1.411, 9.405e-6
-1.412, 9.405e-6
-1.413, 9.405e-6
-1.414, 9.405e-6
-1.415, 9.405e-6
-1.416, 9.405e-6
-1.417, 9.405e-6
-1.418, 9.405e-6
-1.419, 9.405e-6
-1.420, 9.405e-6
-1.421, 9.405e-6
-1.422, 9.405e-6
-1.423, 9.405e-6
-1.424, 9.405e-6
-1.425, 9.405e-6
-1.426, 9.405e-6
-1.427, 9.405e-6
-1.428, 9.405e-6
-1.429, 9.405e-6
-1.430, 9.405e-6
-1.431, 9.405e-6
-1.432, 9.405e-6
-1.433, 9.405e-6
-1.434, 9.405e-6
-1.435, 9.405e-6
-1.436, 9.405e-6
-1.437, 9.405e-6
-1.438, 9.405e-6
-1.439, 9.405e-6
-1.440, 9.405e-6
-1.441, 9.405e-6
-1.442, 9.405e-6
-1.443, 9.405e-6
-1.444, 9.405e-6
-1.445, 9.405e-6
-1.446, 9.405e-6
-1.447, 9.405e-6
-1.448, 9.405e-6
-1.449, 9.405e-6
-1.450, 9.405e-6
-1.451, 9.405e-6
-1.452, 9.405e-6
-1.453, 9.405e-6
-1.454, 1.249e-5
-1.455, 9.405e-6
-1.456, 9.405e-6
-1.457, 9.405e-6
-1.458, 9.405e-6
-1.459, 9.405e-6
-1.460, 9.405e-6
-1.461, 9.405e-6
-1.462, 9.405e-6
-1.463, 9.405e-6
-1.464, 9.405e-6
-1.465, 9.405e-6
-1.466, 9.405e-6
-1.467, 9.405e-6
-1.468, 9.405e-6
-1.469, 9.405e-6
-1.470, 9.405e-6
-1.471, 9.405e-6
-1.472, 9.405e-6
-1.473, 9.405e-6
-1.474, 9.405e-6
-1.475, 9.405e-6
-1.476, 1.249e-5
-1.477, 9.405e-6
-1.478, 9.405e-6
-1.479, 9.405e-6
-1.480, 9.405e-6
-1.481, 9.405e-6
-1.482, 9.405e-6
-1.483, 1.249e-5
-1.484, 9.405e-6
-1.485, 1.249e-5
-1.486, 1.249e-5
-1.487, 1.249e-5
-1.488, 9.405e-6
-1.489, 1.249e-5
-1.490, 1.249e-5
-1.491, 1.249e-5
-1.492, 9.405e-6
-1.493, 1.249e-5
-1.494, 1.249e-5
-1.495, 1.249e-5
-1.496, 1.249e-5
-1.497, 9.405e-6
-1.498, 9.405e-6
-1.499, 1.249e-5
-1.500, 1.249e-5
-1.501, 1.249e-5
-1.502, 1.249e-5
-1.503, 1.249e-5
-1.504, 1.249e-5
-1.505, 1.249e-5
-1.506, 9.405e-6
-1.507, 9.405e-6
-1.508, 1.249e-5
-1.509, 1.249e-5
-1.510, 1.249e-5
-1.511, 1.249e-5
-1.512, 1.249e-5
-1.513, 1.249e-5
-1.514, 1.249e-5
-1.515, 1.249e-5
-1.516, 1.249e-5
-1.517, 1.249e-5
-1.518, 1.249e-5
-1.519, 1.249e-5
-1.520, 1.249e-5
-1.521, 1.249e-5
-1.522, 1.249e-5
-1.523, 1.249e-5
-1.524, 1.249e-5
-1.525, 1.249e-5
-1.526, 1.249e-5
-1.527, 1.249e-5
-1.528, 1.249e-5
-1.529, 1.249e-5
-1.530, 1.249e-5
-1.531, 1.249e-5
-1.532, 1.249e-5
-1.533, 1.249e-5
-1.534, 1.249e-5
-1.535, 1.249e-5
-1.536, 1.249e-5
-1.537, 1.249e-5
-1.538, 1.249e-5
-1.539, 1.249e-5
-1.540, 1.249e-5
-1.541, 1.249e-5
-1.542, 1.249e-5
-1.543, 1.249e-5
-1.544, 1.249e-5
-1.545, 1.249e-5
-1.546, 1.249e-5
-1.547, 1.249e-5
-1.548, 1.249e-5
-1.549, 1.249e-5
-1.550, 1.249e-5
-1.551, 1.557e-5
-1.552, 1.557e-5
-1.553, 1.557e-5
-1.554, 1.557e-5
-1.555, 1.249e-5
-1.556, 1.557e-5
-1.557, 1.557e-5
-1.558, 1.557e-5
-1.559, 1.557e-5
-1.560, 1.249e-5
-1.561, 1.557e-5
-1.562, 1.557e-5
-1.563, 1.249e-5
-1.564, 1.557e-5
-1.565, 1.557e-5
-1.566, 1.557e-5
-1.567, 1.557e-5
-1.568, 1.557e-5
-1.569, 1.557e-5
-1.570, 1.557e-5
-1.571, 1.557e-5
-1.572, 1.557e-5
-1.573, 1.557e-5
-1.574, 1.557e-5
-1.575, 1.557e-5
-1.576, 1.557e-5
-1.577, 1.557e-5
-1.578, 1.557e-5
-1.579, 1.557e-5
-1.580, 1.557e-5
-1.581, 1.557e-5
-1.582, 1.557e-5
-1.583, 1.557e-5
-1.584, 1.865e-5
-1.585, 1.557e-5
-1.586, 1.865e-5
-1.587, 1.865e-5
-1.588, 1.865e-5
-1.589, 1.865e-5
-1.590, 1.557e-5
-1.591, 1.865e-5
-1.592, 1.865e-5
-1.593, 1.865e-5
-1.594, 1.865e-5
-1.595, 1.865e-5
-1.596, 1.865e-5
-1.597, 1.865e-5
-1.598, 1.865e-5
-1.599, 1.865e-5
-1.600, 1.865e-5
-1.601, 1.865e-5
-1.602, 1.865e-5
-1.603, 1.865e-5
-1.604, 1.865e-5
-1.605, 1.865e-5
-1.606, 1.865e-5
-1.607, 1.865e-5
-1.608, 2.174e-5
-1.609, 1.865e-5
-1.610, 1.865e-5
-1.611, 2.174e-5
-1.612, 1.865e-5
-1.613, 2.174e-5
-1.614, 2.174e-5
-1.615, 2.174e-5
-1.616, 2.174e-5
-1.617, 2.174e-5
-1.618, 2.174e-5
-1.619, 2.174e-5
-1.620, 2.174e-5
-1.621, 2.174e-5
-1.622, 2.174e-5
-1.623, 2.174e-5
-1.624, 2.174e-5
-1.625, 2.174e-5
-1.626, 2.482e-5
-1.627, 2.482e-5
-1.628, 2.174e-5
-1.629, 2.482e-5
-1.630, 2.482e-5
-1.631, 2.482e-5
-1.632, 2.482e-5
-1.633, 2.482e-5
-1.634, 2.482e-5
-1.635, 2.482e-5
-1.636, 2.482e-5
-1.637, 2.482e-5
-1.638, 2.482e-5
-1.639, 2.482e-5
-1.640, 2.482e-5
-1.641, 2.790e-5
-1.642, 2.482e-5
-1.643, 2.790e-5
-1.644, 2.790e-5
-1.645, 2.790e-5
-1.646, 2.790e-5
-1.647, 2.790e-5
-1.648, 2.790e-5
-1.649, 2.790e-5
-1.650, 2.790e-5
-1.651, 2.790e-5
-1.652, 2.790e-5
-1.653, 3.099e-5
-1.654, 3.099e-5
-1.655, 3.099e-5
-1.656, 3.099e-5
-1.657, 3.099e-5
-1.658, 3.099e-5
-1.659, 3.099e-5
-1.660, 3.099e-5
-1.661, 3.099e-5
-1.662, 3.099e-5
-1.663, 3.407e-5
-1.664, 3.407e-5
-1.665, 3.407e-5
-1.666, 3.407e-5
-1.667, 3.407e-5
-1.668, 3.407e-5
-1.669, 3.407e-5
-1.670, 3.407e-5
-1.671, 3.407e-5
-1.672, 3.715e-5
-1.673, 3.715e-5
-1.674, 3.715e-5
-1.675, 3.715e-5
-1.676, 3.715e-5
-1.677, 3.715e-5
-1.678, 4.024e-5
-1.679, 4.024e-5
-1.680, 4.024e-5
-1.681, 4.024e-5
-1.682, 4.024e-5
-1.683, 4.024e-5
-1.684, 4.024e-5
-1.685, 4.332e-5
-1.686, 4.332e-5
-1.687, 4.332e-5
-1.688, 4.332e-5
-1.689, 4.332e-5
-1.690, 4.332e-5
-1.691, 4.640e-5
-1.692, 4.640e-5
-1.693, 4.640e-5
-1.694, 4.640e-5
-1.695, 4.640e-5
-1.696, 4.640e-5
-1.697, 4.949e-5
-1.698, 4.949e-5
-1.699, 4.949e-5
-1.700, 4.949e-5
-1.701, 4.949e-5
-1.702, 4.949e-5
-1.703, 5.257e-5
-1.704, 5.257e-5
-1.705, 5.257e-5
-1.706, 5.257e-5
-1.707, 5.565e-5
-1.708, 5.565e-5
-1.709, 5.565e-5
-1.710, 5.873e-5
-1.711, 5.873e-5
-1.712, 5.873e-5
-1.713, 5.873e-5
-1.714, 6.182e-5
-1.715, 6.182e-5
-1.716, 6.182e-5
-1.717, 6.182e-5
-1.718, 6.490e-5
-1.719, 6.490e-5
-1.720, 6.490e-5
-1.721, 6.490e-5
-1.722, 6.490e-5
-1.723, 6.798e-5
-1.724, 6.798e-5
-1.725, 7.107e-5
-1.726, 7.107e-5
-1.727, 7.107e-5
-1.728, 7.415e-5
-1.729, 7.415e-5
-1.730, 7.415e-5
-1.731, 7.415e-5
-1.732, 7.723e-5
-1.733, 7.723e-5
-1.734, 7.723e-5
-1.735, 8.032e-5
-1.736, 8.032e-5
-1.737, 8.032e-5
-1.738, 8.340e-5
-1.739, 8.340e-5
-1.740, 8.648e-5
-1.741, 8.648e-5
-1.742, 8.648e-5
-1.743, 8.957e-5
-1.744, 8.957e-5
-1.745, 9.265e-5
-1.746, 9.265e-5
-1.747, 9.573e-5
-1.748, 9.573e-5
-1.749, 9.882e-5
-1.750, 9.882e-5
-1.751, 1.019e-4
-1.752, 1.019e-4
-1.753, 1.050e-4
-1.754, 1.050e-4
-1.755, 1.081e-4
-1.756, 1.081e-4
-1.757, 1.081e-4
-1.758, 1.111e-4
-1.759, 1.142e-4
-1.760, 1.142e-4
-1.761, 1.173e-4
-1.762, 1.173e-4
-1.763, 1.204e-4
-1.764, 1.204e-4
-1.765, 1.235e-4
-1.766, 1.266e-4
-1.767, 1.296e-4
-1.768, 1.296e-4
-1.769, 1.327e-4
-1.770, 1.327e-4
-1.771, 1.358e-4
-1.772, 1.389e-4
-1.773, 1.420e-4
-1.774, 1.451e-4
-1.775, 1.451e-4
-1.776, 1.481e-4
-1.777, 1.512e-4
-1.778, 1.512e-4
-1.779, 1.543e-4
-1.780, 1.574e-4
-1.781, 1.605e-4
-1.782, 1.605e-4
-1.783, 1.636e-4
-1.784, 1.666e-4
-1.785, 1.697e-4
-1.786, 1.728e-4
-1.787, 1.759e-4
-1.788, 1.790e-4
-1.789, 1.821e-4
-1.790, 1.851e-4
-1.791, 1.882e-4
-1.792, 1.913e-4
-1.793, 1.944e-4
-1.794, 1.975e-4
-1.795, 2.006e-4
-1.796, 2.067e-4
-1.797, 2.098e-4
-1.798, 2.129e-4
-1.799, 2.160e-4
-1.800, 2.191e-4
-1.801, 2.252e-4
-1.802, 2.283e-4
-1.803, 2.314e-4
-1.804, 2.345e-4
-1.805, 2.406e-4
-1.806, 2.437e-4
-1.807, 2.468e-4
-1.808, 2.530e-4
-1.809, 2.561e-4
-1.810, 2.622e-4
-1.811, 2.653e-4
-1.812, 2.715e-4
-1.813, 2.746e-4
-1.814, 2.807e-4
-1.815, 2.838e-4
-1.816, 2.900e-4
-1.817, 2.961e-4
-1.818, 2.992e-4
-1.819, 3.054e-4
-1.820, 3.115e-4
-1.821, 3.177e-4
-1.822, 3.239e-4
-1.823, 3.300e-4
-1.824, 3.362e-4
-1.825, 3.393e-4
-1.826, 3.485e-4
-1.827, 3.547e-4
-1.828, 3.609e-4
-1.829, 3.670e-4
-1.830, 3.732e-4
-1.831, 3.825e-4
-1.832, 3.886e-4
-1.833, 3.948e-4
-1.834, 4.010e-4
-1.835, 4.071e-4
-1.836, 4.164e-4
-1.837, 4.225e-4
-1.838, 4.318e-4
-1.839, 4.380e-4
-1.840, 4.472e-4
-1.841, 4.565e-4
-1.842, 4.626e-4
-1.843, 4.719e-4
-1.844, 4.811e-4
-1.845, 4.904e-4
-1.846, 4.996e-4
-1.847, 5.058e-4
-1.848, 5.181e-4
-1.849, 5.274e-4
-1.850, 5.366e-4
-1.851, 5.459e-4
-1.852, 5.551e-4
-1.853, 5.674e-4
-1.854, 5.767e-4
-1.855, 5.859e-4
-1.856, 5.983e-4
-1.857, 6.075e-4
-1.858, 6.199e-4
-1.859, 6.291e-4
-1.860, 6.414e-4
-1.861, 6.538e-4
-1.862, 6.661e-4
-1.863, 6.784e-4
-1.864, 6.908e-4
-1.865, 7.031e-4
-1.866, 7.154e-4
-1.867, 7.247e-4
-1.868, 7.401e-4
-1.869, 7.524e-4
-1.870, 7.679e-4
-1.871, 7.802e-4
-1.872, 7.925e-4
-1.873, 8.079e-4
-1.874, 8.233e-4
-1.875, 8.357e-4
-1.876, 8.511e-4
-1.877, 8.665e-4
-1.878, 8.819e-4
-1.879, 8.973e-4
-1.880, 9.128e-4
-1.881, 9.282e-4
-1.882, 9.436e-4
-1.883, 9.590e-4
-1.884, 9.744e-4
-1.885, 9.898e-4
-1.886, 1.008e-3
-1.887, 1.024e-3
-1.888, 1.039e-3
-1.889, 1.061e-3
-1.890, 1.076e-3
-1.891, 1.095e-3
-1.892, 1.113e-3
-1.893, 1.132e-3
-1.894, 1.150e-3
-1.895, 1.169e-3
-1.896, 1.187e-3
-1.897, 1.206e-3
-1.898, 1.224e-3
-1.899, 1.243e-3
-1.900, 1.264e-3
-1.901, 1.283e-3
-1.902, 1.304e-3
-1.903, 1.326e-3
-1.904, 1.344e-3
-1.905, 1.366e-3
-1.906, 1.388e-3
-1.907, 1.409e-3
-1.908, 1.431e-3
-1.909, 1.452e-3
-1.910, 1.474e-3
-1.911, 1.499e-3
-1.912, 1.520e-3
-1.913, 1.542e-3
-1.914, 1.566e-3
-1.915, 1.588e-3
-1.916, 1.613e-3
-1.917, 1.637e-3
-1.918, 1.662e-3
-1.919, 1.687e-3
-1.920, 1.708e-3
-1.921, 1.736e-3
-1.922, 1.761e-3
-1.923, 1.785e-3
-1.924, 1.810e-3
-1.925, 1.835e-3
-1.926, 1.862e-3
-1.927, 1.890e-3
-1.928, 1.918e-3
-1.929, 1.946e-3
-1.930, 1.970e-3
-1.931, 1.998e-3
-1.932, 2.026e-3
-1.933, 2.054e-3
-1.934, 2.081e-3
-1.935, 2.112e-3
-1.936, 2.140e-3
-1.937, 2.168e-3
-1.938, 2.195e-3
-1.939, 2.226e-3
-1.940, 2.254e-3
-1.941, 2.285e-3
-1.942, 2.316e-3
-1.943, 2.343e-3
-1.944, 2.377e-3
-1.945, 2.405e-3
-1.946, 2.439e-3
-1.947, 2.470e-3
-1.948, 2.497e-3
-1.949, 2.531e-3
-1.950, 2.562e-3
-1.951, 2.596e-3
-1.952, 2.627e-3
-1.953, 2.661e-3
-1.954, 2.692e-3
-1.955, 2.726e-3
-1.956, 2.760e-3
-1.957, 2.790e-3
-1.958, 2.824e-3
-1.959, 2.858e-3
-1.960, 2.892e-3
-1.961, 2.929e-3
-1.962, 2.963e-3
-1.963, 3.000e-3
-1.964, 3.034e-3
-1.965, 3.068e-3
-1.966, 3.105e-3
-1.967, 3.142e-3
-1.968, 3.176e-3
-1.969, 3.216e-3
-1.970, 3.250e-3
-1.971, 3.290e-3
-1.972, 3.327e-3
-1.973, 3.364e-3
-1.974, 3.401e-3
-1.975, 3.438e-3
-1.976, 3.478e-3
-1.977, 3.515e-3
-1.978, 3.555e-3
-1.979, 3.595e-3
-1.980, 3.632e-3
-1.981, 3.672e-3
-1.982, 3.712e-3
-1.983, 3.752e-3
-1.984, 3.792e-3
-1.985, 3.832e-3
-1.986, 3.876e-3
-1.987, 3.916e-3
-1.988, 3.956e-3
-1.989, 3.996e-3
-1.990, 4.039e-3
-1.991, 4.079e-3
-1.992, 4.122e-3
-1.993, 4.165e-3
-1.994, 4.209e-3
-1.995, 4.249e-3
-1.996, 4.292e-3
-1.997, 4.335e-3
-1.998, 4.378e-3
-1.999, 4.421e-3
-2.000, 4.440e-3
-1.999, 4.412e-3
-1.998, 4.381e-3
-1.997, 4.350e-3
-1.996, 4.323e-3
-1.995, 4.292e-3
-1.994, 4.261e-3
-1.993, 4.230e-3
-1.992, 4.199e-3
-1.991, 4.172e-3
-1.990, 4.141e-3
-1.989, 4.107e-3
-1.988, 4.076e-3
-1.987, 4.045e-3
-1.986, 4.011e-3
-1.985, 3.980e-3
-1.984, 3.950e-3
-1.983, 3.916e-3
-1.982, 3.885e-3
-1.981, 3.854e-3
-1.980, 3.823e-3
-1.979, 3.792e-3
-1.978, 3.762e-3
-1.977, 3.731e-3
-1.976, 3.700e-3
-1.975, 3.666e-3
-1.974, 3.638e-3
-1.973, 3.607e-3
-1.972, 3.577e-3
-1.971, 3.546e-3
-1.970, 3.515e-3
-1.969, 3.487e-3
-1.968, 3.456e-3
-1.967, 3.425e-3
-1.966, 3.395e-3
-1.965, 3.364e-3
-1.964, 3.336e-3
-1.963, 3.305e-3
-1.962, 3.278e-3
-1.961, 3.247e-3
-1.960, 3.219e-3
-1.959, 3.188e-3
-1.958, 3.157e-3
-1.957, 3.130e-3
-1.956, 3.102e-3
-1.955, 3.074e-3
-1.954, 3.046e-3
-1.953, 3.015e-3
-1.952, 2.991e-3
-1.951, 2.966e-3
-1.950, 2.938e-3
-1.949, 2.911e-3
-1.948, 2.883e-3
-1.947, 2.858e-3
-1.946, 2.830e-3
-1.945, 2.803e-3
-1.944, 2.778e-3
-1.943, 2.750e-3
-1.942, 2.726e-3
-1.941, 2.698e-3
-1.940, 2.670e-3
-1.939, 2.645e-3
-1.938, 2.618e-3
-1.937, 2.596e-3
-1.936, 2.571e-3
-1.935, 2.544e-3
-1.934, 2.519e-3
-1.933, 2.491e-3
-1.932, 2.467e-3
-1.931, 2.442e-3
-1.930, 2.417e-3
-1.929, 2.393e-3
-1.928, 2.368e-3
-1.927, 2.346e-3
-1.926, 2.322e-3
-1.925, 2.297e-3
-1.924, 2.272e-3
-1.923, 2.248e-3
-1.922, 2.226e-3
-1.921, 2.201e-3
-1.920, 2.180e-3
-1.919, 2.155e-3
-1.918, 2.134e-3
-1.917, 2.112e-3
-1.916, 2.091e-3
-1.915, 2.066e-3
-1.914, 2.044e-3
-1.913, 2.023e-3
-1.912, 2.001e-3
-1.911, 1.980e-3
-1.910, 1.955e-3
-1.909, 1.936e-3
-1.908, 1.915e-3
-1.907, 1.893e-3
-1.906, 1.875e-3
-1.905, 1.853e-3
-1.904, 1.832e-3
-1.903, 1.813e-3
-1.902, 1.791e-3
-1.901, 1.773e-3
-1.900, 1.751e-3
-1.899, 1.730e-3
-1.898, 1.711e-3
-1.897, 1.693e-3
-1.896, 1.674e-3
-1.895, 1.656e-3
-1.894, 1.637e-3
-1.893, 1.616e-3
-1.892, 1.597e-3
-1.891, 1.579e-3
-1.890, 1.560e-3
-1.889, 1.542e-3
-1.888, 1.523e-3
-1.887, 1.508e-3
-1.886, 1.489e-3
-1.885, 1.474e-3
-1.884, 1.455e-3
-1.883, 1.437e-3
-1.882, 1.421e-3
-1.881, 1.403e-3
-1.880, 1.388e-3
-1.879, 1.375e-3
-1.878, 1.357e-3
-1.877, 1.341e-3
-1.876, 1.323e-3
-1.875, 1.307e-3
-1.874, 1.292e-3
-1.873, 1.277e-3
-1.872, 1.261e-3
-1.871, 1.246e-3
-1.870, 1.230e-3
-1.869, 1.215e-3
-1.868, 1.199e-3
-1.867, 1.187e-3
-1.866, 1.172e-3
-1.865, 1.156e-3
-1.864, 1.141e-3
-1.863, 1.129e-3
-1.862, 1.113e-3
-1.861, 1.101e-3
-1.860, 1.085e-3
-1.859, 1.073e-3
-1.858, 1.058e-3
-1.857, 1.045e-3
-1.856, 1.033e-3
-1.855, 1.021e-3
-1.854, 1.005e-3
-1.853, 9.929e-4
-1.852, 9.806e-4
-1.851, 9.683e-4
-1.850, 9.559e-4
-1.849, 9.436e-4
-1.848, 9.313e-4
-1.847, 9.189e-4
-1.846, 9.066e-4
-1.845, 8.943e-4
-1.844, 8.819e-4
-1.843, 8.696e-4
-1.842, 8.573e-4
-1.841, 8.480e-4
-1.840, 8.357e-4
-1.839, 8.264e-4
-1.838, 8.141e-4
-1.837, 8.048e-4
-1.836, 7.925e-4
-1.835, 7.802e-4
-1.834, 7.709e-4
-1.833, 7.586e-4
-1.832, 7.494e-4
-1.831, 7.401e-4
-1.830, 7.278e-4
-1.829, 7.185e-4
-1.828, 7.093e-4
-1.827, 7.000e-4
-1.826, 6.908e-4
-1.825, 6.815e-4
-1.824, 6.723e-4
-1.823, 6.630e-4
-1.822, 6.538e-4
-1.821, 6.445e-4
-1.820, 6.353e-4
-1.819, 6.260e-4
-1.818, 6.168e-4
-1.817, 6.106e-4
-1.816, 6.014e-4
-1.815, 5.921e-4
-1.814, 5.829e-4
-1.813, 5.767e-4
-1.812, 5.674e-4
-1.811, 5.582e-4
-1.810, 5.520e-4
-1.809, 5.428e-4
-1.808, 5.366e-4
-1.807, 5.274e-4
-1.806, 5.212e-4
-1.805, 5.120e-4
-1.804, 5.058e-4
-1.803, 4.996e-4
-1.802, 4.904e-4
-1.801, 4.842e-4
-1.800, 4.750e-4
-1.799, 4.688e-4
-1.798, 4.626e-4
-1.797, 4.565e-4
-1.796, 4.503e-4
-1.795, 4.410e-4
-1.794, 4.349e-4
-1.793, 4.287e-4
-1.792, 4.225e-4
-1.791, 4.164e-4
-1.790, 4.102e-4
-1.789, 4.040e-4
-1.788, 3.979e-4
-1.787, 3.948e-4
-1.786, 3.886e-4
-1.785, 3.825e-4
-1.784, 3.763e-4
-1.783, 3.701e-4
-1.782, 3.640e-4
-1.781, 3.609e-4
-1.780, 3.516e-4
-1.779, 3.485e-4
-1.778, 3.424e-4
-1.777, 3.362e-4
-1.776, 3.331e-4
-1.775, 3.270e-4
-1.774, 3.239e-4
-1.773, 3.177e-4
-1.772, 3.115e-4
-1.771, 3.085e-4
-1.770, 3.023e-4
-1.769, 2.992e-4
-1.768, 2.931e-4
-1.767, 2.900e-4
-1.766, 2.869e-4
-1.765, 2.807e-4
-1.764, 2.776e-4
-1.763, 2.715e-4
-1.762, 2.684e-4
-1.761, 2.622e-4
-1.760, 2.591e-4
-1.759, 2.561e-4
-1.758, 2.530e-4
-1.757, 2.468e-4
-1.756, 2.437e-4
-1.755, 2.406e-4
-1.754, 2.376e-4
-1.753, 2.345e-4
-1.752, 2.283e-4
-1.751, 2.252e-4
-1.750, 2.221e-4
-1.749, 2.191e-4
-1.748, 2.160e-4
-1.747, 2.098e-4
-1.746, 2.098e-4
-1.745, 2.067e-4
-1.744, 2.006e-4
-1.743, 1.975e-4
-1.742, 1.944e-4
-1.741, 1.944e-4
-1.740, 1.882e-4
-1.739, 1.851e-4
-1.738, 1.821e-4
-1.737, 1.821e-4
-1.736, 1.790e-4
-1.735, 1.759e-4
-1.734, 1.728e-4
-1.733, 1.697e-4
-1.732, 1.666e-4
-1.731, 1.636e-4
-1.730, 1.605e-4
-1.729, 1.574e-4
-1.728, 1.574e-4
-1.727, 1.543e-4
-1.726, 1.512e-4
-1.725, 1.481e-4
-1.724, 1.451e-4
-1.723, 1.451e-4
-1.722, 1.420e-4
-1.721, 1.389e-4
-1.720, 1.389e-4
-1.719, 1.358e-4
-1.718, 1.327e-4
-1.717, 1.296e-4
-1.716, 1.296e-4
-1.715, 1.266e-4
-1.714, 1.235e-4
-1.713, 1.204e-4
-1.712, 1.204e-4
-1.711, 1.173e-4
-1.710, 1.173e-4
-1.709, 1.142e-4
-1.708, 1.142e-4
-1.707, 1.111e-4
-1.706, 1.081e-4
-1.705, 1.081e-4
-1.704, 1.050e-4
-1.703, 1.050e-4
-1.702, 1.019e-4
-1.701, 9.882e-5
-1.700, 9.882e-5
-1.699, 9.573e-5
-1.698, 9.573e-5
-1.697, 9.265e-5
-1.696, 9.265e-5
-1.695, 8.957e-5
-1.694, 8.957e-5
-1.693, 8.648e-5
-1.692, 8.648e-5
-1.691, 8.648e-5
-1.690, 8.340e-5
-1.689, 8.340e-5
-1.688, 8.032e-5
-1.687, 8.032e-5
-1.686, 7.723e-5
-1.685, 7.723e-5
-1.684, 7.415e-5
-1.683, 7.415e-5
-1.682, 7.415e-5
-1.681, 7.107e-5
-1.680, 7.107e-5
-1.679, 7.107e-5
-1.678, 6.798e-5
-1.677, 6.798e-5
-1.676, 6.490e-5
-1.675, 6.490e-5
-1.674, 6.490e-5
-1.673, 6.182e-5
-1.672, 6.182e-5
-1.671, 5.873e-5
-1.670, 5.873e-5
-1.669, 5.873e-5
-1.668, 5.565e-5
-1.667, 5.565e-5
-1.666, 5.565e-5
-1.665, 5.257e-5
-1.664, 5.257e-5
-1.663, 5.257e-5
-1.662, 5.257e-5
-1.661, 4.949e-5
-1.660, 4.949e-5
-1.659, 4.949e-5
-1.658, 4.640e-5
-1.657, 4.640e-5
-1.656, 4.640e-5
-1.655, 4.640e-5
-1.654, 4.640e-5
-1.653, 4.332e-5
-1.652, 4.332e-5
-1.651, 4.332e-5
-1.650, 4.332e-5
-1.649, 4.024e-5
-1.648, 4.024e-5
-1.647, 4.024e-5
-1.646, 4.024e-5
-1.645, 4.024e-5
-1.644, 3.715e-5
-1.643, 3.715e-5
-1.642, 3.715e-5
-1.641, 3.407e-5
-1.640, 3.407e-5
-1.639, 3.407e-5
-1.638, 3.407e-5
-1.637, 3.407e-5
-1.636, 3.407e-5
-1.635, 3.099e-5
-1.634, 3.099e-5
-1.633, 3.099e-5
-1.632, 3.099e-5
-1.631, 2.790e-5
-1.630, 2.790e-5
-1.629, 2.790e-5
-1.628, 2.790e-5
-1.627, 2.790e-5
-1.626, 2.790e-5
-1.625, 2.790e-5
-1.624, 2.482e-5
-1.623, 2.482e-5
-1.622, 2.482e-5
-1.621, 2.482e-5
-1.620, 2.482e-5
-1.619, 2.174e-5
-1.618, 2.174e-5
-1.617, 2.174e-5
-1.616, 2.174e-5
-1.615, 2.174e-5
-1.614, 2.174e-5
-1.613, 2.174e-5
-1.612, 1.865e-5
-1.611, 2.174e-5
-1.610, 1.865e-5
-1.609, 1.865e-5
-1.608, 1.865e-5
-1.607, 1.865e-5
-1.606, 1.865e-5
-1.605, 1.865e-5
-1.604, 1.865e-5
-1.603, 1.865e-5
-1.602, 1.557e-5
-1.601, 1.557e-5
-1.600, 1.865e-5
-1.599, 1.557e-5
-1.598, 1.557e-5
-1.597, 1.557e-5
-1.596, 1.557e-5
-1.595, 1.557e-5
-1.594, 1.249e-5
-1.593, 1.557e-5
-1.592, 1.249e-5
-1.591, 1.249e-5
-1.590, 1.249e-5
-1.589, 1.249e-5
-1.588, 1.249e-5
-1.587, 1.249e-5
-1.586, 1.249e-5
-1.585, 1.249e-5
-1.584, 1.249e-5
-1.583, 1.249e-5
-1.582, 9.405e-6
-1.581, 9.405e-6
-1.580, 9.405e-6
-1.579, 9.405e-6
-1.578, 9.405e-6
-1.577, 9.405e-6
-1.576, 9.405e-6
-1.575, 9.405e-6
-1.574, 9.405e-6
-1.573, 9.405e-6
-1.572, 9.405e-6
-1.571, 9.405e-6
-1.570, 9.405e-6
-1.569, 9.405e-6
-1.568, 9.405e-6
-1.567, 9.405e-6
-1.566, 9.405e-6
-1.565, 6.322e-6
-1.564, 9.405e-6
-1.563, 9.405e-6
-1.562, 6.322e-6
-1.561, 6.322e-6
-1.560, 6.322e-6
-1.559, 6.322e-6
-1.558, 6.322e-6
-1.557, 6.322e-6
-1.556, 6.322e-6
-1.555, 6.322e-6
-1.554, 6.322e-6
-1.553, 6.322e-6
-1.552, 6.322e-6
-1.551, 6.322e-6
-1.550, 6.322e-6
-1.549, 6.322e-6
-1.548, 6.322e-6
-1.547, 3.239e-6
-1.546, 6.322e-6
-1.545, 3.239e-6
-1.544, 6.322e-6
-1.543, 3.239e-6
-1.542, 3.239e-6
-1.541, 3.239e-6
-1.540, 3.239e-6
-1.539, 3.239e-6
-1.538, 3.239e-6
-1.537, 3.239e-6
-1.536, 3.239e-6
-1.535, 3.239e-6
-1.534, 3.239e-6
-1.533, 3.239e-6
-1.532, 3.239e-6
-1.531, 3.239e-6
-1.530, 3.239e-6
-1.529, 3.239e-6
-1.528, 3.239e-6
-1.527, 3.239e-6
-1.526, 3.239e-6
-1.525, 3.239e-6
-1.524, 3.239e-6
-1.523, 3.239e-6
-1.522, 3.239e-6
-1.521, 3.239e-6
-1.520, 3.239e-6
-1.519, 3.239e-6
-1.518, 3.239e-6
-1.517, 3.239e-6
-1.516, 3.239e-6
-1.515, 3.239e-6
-1.514, 3.239e-6
-1.513, 3.239e-6
-1.512, 3.239e-6
-1.511, 3.239e-6
-1.510, 3.239e-6
-1.509, 1.559e-7
-1.508, 1.559e-7
-1.507, 1.559e-7
-1.506, 3.239e-6
-1.505, 3.239e-6
-1.504, 3.239e-6
-1.503, 3.239e-6
-1.502, 3.239e-6
-1.501, 1.559e-7
-1.500, 3.239e-6
-1.499, 1.559e-7
-1.498, 1.559e-7
-1.497, 1.559e-7
-1.496, 1.559e-7
-1.495, 1.559e-7
-1.494, 1.559e-7
-1.493, 1.559e-7
-1.492, 1.559e-7
-1.491, 1.559e-7
-1.490, 1.559e-7
-1.489, 1.559e-7
-1.488, 1.559e-7
-1.487, 1.559e-7
-1.486, 1.559e-7
-1.485, 1.559e-7
-1.484, 1.559e-7
-1.483, 1.559e-7
-1.482, 1.559e-7
-1.481, 1.559e-7
-1.480, 1.559e-7
-1.479, 1.559e-7
-1.478, 1.559e-7
-1.477, 1.559e-7
-1.476, 1.559e-7
-1.475, 1.559e-7
-1.474, 1.559e-7
-1.473, 1.559e-7
-1.472, 1.559e-7
-1.471, 1.559e-7
-1.470, 1.559e-7
-1.469, 1.559e-7
-1.468, 1.559e-7
-1.467, 1.559e-7
-1.466, 1.559e-7
-1.465, 1.559e-7
-1.464, 1.559e-7
-1.463, 1.559e-7
-1.462, 1.559e-7
-1.461, 1.559e-7
-1.460, 1.559e-7
-1.459, 1.559e-7
-1.458, 1.559e-7
-1.457, 1.559e-7
-1.456, 1.559e-7
-1.455, -2.927e-6
-1.454, 1.559e-7
-1.453, 1.559e-7
-1.452, 1.559e-7
-1.451, 1.559e-7
-1.450, 1.559e-7
-1.449, 1.559e-7
-1.448, 1.559e-7
-1.447, 1.559e-7
-1.446, 1.559e-7
-1.445, -2.927e-6
-1.444, 1.559e-7
-1.443, -2.927e-6
-1.442, -2.927e-6
-1.441, 1.559e-7
-1.440, 1.559e-7
-1.439, 1.559e-7
-1.438, 1.559e-7
-1.437, 1.559e-7
-1.436, 1.559e-7
-1.435, -2.927e-6
-1.434, -2.927e-6
-1.433, -2.927e-6
-1.432, 1.559e-7
-1.431, 1.559e-7
-1.430, 1.559e-7
-1.429, 1.559e-7
-1.428, 1.559e-7
-1.427, 1.559e-7
-1.426, 1.559e-7
-1.425, 1.559e-7
-1.424, 1.559e-7
-1.423, 1.559e-7
-1.422, -2.927e-6
-1.421, -2.927e-6
-1.420, -2.927e-6
-1.419, -2.927e-6
-1.418, -2.927e-6
-1.417, -2.927e-6
-1.416, -2.927e-6
-1.415, 1.559e-7
-1.414, 1.559e-7
-1.413, -2.927e-6
-1.412, -2.927e-6
-1.411, 1.559e-7
-1.410, -2.927e-6
-1.409, -2.927e-6
-1.408, -2.927e-6
-1.407, -2.927e-6
-1.406, -2.927e-6
-1.405, 1.559e-7
-1.404, -2.927e-6
-1.403, -2.927e-6
-1.402, -2.927e-6
-1.401, -2.927e-6
-1.400, -2.927e-6
-1.399, 1.559e-7
-1.398, -2.927e-6
-1.397, -2.927e-6
-1.396, -2.927e-6
-1.395, -2.927e-6
-1.394, -2.927e-6
-1.393, -2.927e-6
-1.392, -2.927e-6
-1.391, -2.927e-6
-1.390, -2.927e-6
-1.389, -2.927e-6
-1.388, -2.927e-6
-1.387, -2.927e-6
-1.386, -2.927e-6
-1.385, 1.559e-7
-1.384, -2.927e-6
-1.383, -2.927e-6
-1.382, -2.927e-6
-1.381, -2.927e-6
-1.380, -2.927e-6
-1.379, -2.927e-6
-1.378, -2.927e-6
-1.377, -2.927e-6
-1.376, -2.927e-6
-1.375, -2.927e-6
-1.374, -2.927e-6
-1.373, -2.927e-6
-1.372, -2.927e-6
-1.371, -2.927e-6
-1.370, -2.927e-6
-1.369, -2.927e-6
-1.368, -2.927e-6
-1.367, -2.927e-6
-1.366, -2.927e-6
-1.365, -2.927e-6
-1.364, -2.927e-6
-1.363, -2.927e-6
-1.362, -2.927e-6
-1.361, -2.927e-6
-1.360, -2.927e-6
-1.359, -2.927e-6
-1.358, -2.927e-6
-1.357, -2.927e-6
-1.356, -2.927e-6
-1.355, -2.927e-6
-1.354, -2.927e-6
-1.353, -2.927e-6
-1.352, -2.927e-6
-1.351, -2.927e-6
-1.350, -2.927e-6
-1.349, -2.927e-6
-1.348, -2.927e-6
-1.347, -2.927e-6
-1.346, -2.927e-6
-1.345, -2.927e-6
-1.344, -2.927e-6
-1.343, -2.927e-6
-1.342, -2.927e-6
-1.341, -2.927e-6
-1.340, -2.927e-6
-1.339, -2.927e-6
-1.338, -2.927e-6
-1.337, -2.927e-6
-1.336, -2.927e-6
-1.335, -2.927e-6
-1.334, -2.927e-6
-1.333, -2.927e-6
-1.332, -2.927e-6
-1.331, -2.927e-6
-1.330, -2.927e-6
-1.329, -2.927e-6
-1.328, -2.927e-6
-1.327, -2.927e-6
-1.326, -2.927e-6
-1.325, -2.927e-6
-1.324, -2.927e-6
-1.323, -2.927e-6
-1.322, -2.927e-6
-1.321, -2.927e-6
-1.320, -2.927e-6
-1.319, -2.927e-6
-1.318, -2.927e-6
-1.317, -2.927e-6
-1.316, -2.927e-6
-1.315, -2.927e-6
-1.314, -2.927e-6
-1.313, -2.927e-6
-1.312, -2.927e-6
-1.311, -2.927e-6
-1.310, -2.927e-6
-1.309, -2.927e-6
-1.308, -2.927e-6
-1.307, -2.927e-6
-1.306, -2.927e-6
-1.305, -2.927e-6
-1.304, -2.927e-6
-1.303, -2.927e-6
-1.302, -2.927e-6
-1.301, -2.927e-6
-1.300, -2.927e-6
-1.299, -2.927e-6
-1.298, -2.927e-6
-1.297, -2.927e-6
-1.296, -2.927e-6
-1.295, -2.927e-6
-1.294, -2.927e-6
-1.293, -2.927e-6
-1.292, -2.927e-6
-1.291, -2.927e-6
-1.290, -2.927e-6
-1.289, -2.927e-6
-1.288, -2.927e-6
-1.287, -2.927e-6
-1.286, -2.927e-6
-1.285, -2.927e-6
-1.284, -2.927e-6
-1.283, -2.927e-6
-1.282, -2.927e-6
-1.281, -2.927e-6
-1.280, -2.927e-6
-1.279, -2.927e-6
-1.278, -2.927e-6
-1.277, -2.927e-6
-1.276, -2.927e-6
-1.275, -2.927e-6
-1.274, -2.927e-6
-1.273, -2.927e-6
-1.272, -2.927e-6
-1.271, -2.927e-6
-1.270, -2.927e-6
-1.269, -2.927e-6
-1.268, -2.927e-6
-1.267, -2.927e-6
-1.266, -2.927e-6
-1.265, -2.927e-6
-1.264, -2.927e-6
-1.263, -2.927e-6
-1.262, -2.927e-6
-1.261, -2.927e-6
-1.260, -2.927e-6
-1.259, -2.927e-6
-1.258, -2.927e-6
-1.257, -2.927e-6
-1.256, -2.927e-6
-1.255, -2.927e-6
-1.254, -2.927e-6
-1.253, -2.927e-6
-1.252, -2.927e-6
-1.251, -2.927e-6
-1.250, -2.927e-6
-1.249, -2.927e-6
-1.248, -2.927e-6
-1.247, -2.927e-6
-1.246, -2.927e-6
-1.245, -2.927e-6
-1.244, -2.927e-6
-1.243, -2.927e-6
-1.242, -2.927e-6
-1.241, -2.927e-6
-1.240, -2.927e-6
-1.239, -2.927e-6
-1.238, -2.927e-6
-1.237, -6.010e-6
-1.236, -2.927e-6
-1.235, -2.927e-6
-1.234, -2.927e-6
-1.233, -2.927e-6
-1.232, -2.927e-6
-1.231, -2.927e-6
-1.230, -2.927e-6
-1.229, -2.927e-6
-1.228, -2.927e-6
-1.227, -2.927e-6
-1.226, -2.927e-6
-1.225, -6.010e-6
-1.224, -2.927e-6
-1.223, -2.927e-6
-1.222, -2.927e-6
-1.221, -2.927e-6
-1.220, -2.927e-6
-1.219, -2.927e-6
-1.218, -2.927e-6
-1.217, -2.927e-6
-1.216, -2.927e-6
-1.215, -2.927e-6
-1.214, -2.927e-6
-1.213, -2.927e-6
-1.212, -2.927e-6
-1.211, -2.927e-6
-1.210, -6.010e-6
-1.209, -2.927e-6
-1.208, -2.927e-6
-1.207, -2.927e-6
-1.206, -2.927e-6
-1.205, -2.927e-6
-1.204, -2.927e-6
-1.203, -2.927e-6
-1.202, -2.927e-6
-1.201, -2.927e-6
-1.200, -6.010e-6
-1.199, -6.010e-6
-1.198, -2.927e-6
-1.197, -2.927e-6
-1.196, -2.927e-6
-1.195, -2.927e-6
-1.194, -2.927e-6
-1.193, -2.927e-6
-1.192, -2.927e-6
-1.191, -2.927e-6
-1.190, -2.927e-6
-1.189, -2.927e-6
-1.188, -2.927e-6
-1.187, -6.010e-6
-1.186, -2.927e-6
-1.185, -2.927e-6
-1.184, -6.010e-6
-1.183, -6.010e-6
-1.182, -2.927e-6
-1.181, -2.927e-6
-1.180, -2.927e-6
-1.179, -2.927e-6
-1.178, -2.927e-6
-1.177, -6.010e-6
-1.176, -2.927e-6
-1.175, -2.927e-6
-1.174, -2.927e-6
-1.173, -6.010e-6
-1.172, -6.010e-6
-1.171, -2.927e-6
-1.170, -2.927e-6
-1.169, -2.927e-6
-1.168, -6.010e-6
-1.167, -2.927e-6
-1.166, -2.927e-6
-1.165, -6.010e-6
-1.164, -2.927e-6
-1.163, -2.927e-6
-1.162, -2.927e-6
-1.161, -2.927e-6
-1.160, -6.010e-6
-1.159, -2.927e-6
-1.158, -2.927e-6
-1.157, -2.927e-6
-1.156, -2.927e-6
-1.155, -2.927e-6
-1.154, -2.927e-6
-1.153, -6.010e-6
-1.152, -2.927e-6
-1.151, -2.927e-6
-1.150, -6.010e-6
-1.149, -2.927e-6
-1.148, -6.010e-6
-1.147, -2.927e-6
-1.146, -2.927e-6
-1.145, -2.927e-6
-1.144, -6.010e-6
-1.143, -2.927e-6
-1.142, -6.010e-6
-1.141, -6.010e-6
-1.140, -2.927e-6
-1.139, -6.010e-6
-1.138, -6.010e-6
-1.137, -2.927e-6
-1.136, -6.010e-6
-1.135, -6.010e-6
-1.134, -6.010e-6
-1.133, -2.927e-6
-1.132, -6.010e-6
-1.131, -2.927e-6
-1.130, -6.010e-6
-1.129, -6.010e-6
-1.128, -6.010e-6
-1.127, -2.927e-6
-1.126, -6.010e-6
-1.125, -2.927e-6
-1.124, -6.010e-6
-1.123, -6.010e-6
-1.122, -2.927e-6
-1.121, -2.927e-6
-1.120, -6.010e-6
-1.119, -6.010e-6
-1.118, -6.010e-6
-1.117, -2.927e-6
-1.116, -6.010e-6
-1.115, -2.927e-6
-1.114, -2.927e-6
-1.113, -2.927e-6
-1.112, -6.010e-6
-1.111, -2.927e-6
-1.110, -6.010e-6
-1.109, -6.010e-6
-1.108, -6.010e-6
-1.107, -6.010e-6
-1.106, -6.010e-6
-1.105, -2.927e-6
-1.104, -6.010e-6
-1.103, -6.010e-6
-1.102, -6.010e-6
-1.101, -2.927e-6
-1.100, -6.010e-6
-1.099, -6.010e-6
-1.098, -6.010e-6
-1.097, -6.010e-6
-1.096, -6.010e-6
-1.095, -2.927e-6
-1.094, -6.010e-6
-1.093, -6.010e-6
-1.092, -2.927e-6
-1.091, -2.927e-6
-1.090, -6.010e-6
-1.089, -6.010e-6
-1.088, -6.010e-6
-1.087, -6.010e-6
-1.086, -6.010e-6
-1.085, -6.010e-6
-1.084, -6.010e-6
-1.083, -6.010e-6
-1.082, -6.010e-6
-1.081, -6.010e-6
-1.080, -6.010e-6
-1.079, -6.010e-6
-1.078, -6.010e-6
-1.077, -6.010e-6
-1.076, -6.010e-6
-1.075, -6.010e-6
-1.074, -6.010e-6
-1.073, -6.010e-6
-1.072, -6.010e-6
-1.071, -6.010e-6
-1.070, -6.010e-6
-1.069, -6.010e-6
-1.068, -6.010e-6
-1.067, -6.010e-6
-1.066, -6.010e-6
-1.065, -6.010e-6
-1.064, -6.010e-6
-1.063, -6.010e-6
-1.062, -6.010e-6
-1.061, -6.010e-6
-1.060, -6.010e-6
-1.059, -6.010e-6
-1.058, -6.010e-6
-1.057, -6.010e-6
-1.056, -6.010e-6
-1.055, -6.010e-6
-1.054, -6.010e-6
-1.053, -6.010e-6
-1.052, -6.010e-6
-1.051, -6.010e-6
-1.050, -6.010e-6
-1.049, -6.010e-6
-1.048, -6.010e-6
-1.047, -6.010e-6
-1.046, -6.010e-6
-1.045, -6.010e-6
-1.044, -6.010e-6
-1.043, -6.010e-6
-1.042, -6.010e-6
-1.041, -6.010e-6
-1.040, -6.010e-6
-1.039, -6.010e-6
-1.038, -6.010e-6
-1.037, -6.010e-6
-1.036, -6.010e-6
-1.035, -6.010e-6
-1.034, -6.010e-6
-1.033, -6.010e-6
-1.032, -6.010e-6
-1.031, -6.010e-6
-1.030, -6.010e-6
-1.029, -6.010e-6
-1.028, -6.010e-6
-1.027, -6.010e-6
-1.026, -6.010e-6
-1.025, -6.010e-6
-1.024, -6.010e-6
-1.023, -6.010e-6
-1.022, -6.010e-6
-1.021, -6.010e-6
-1.020, -6.010e-6
-1.019, -6.010e-6
-1.018, -6.010e-6
-1.017, -6.010e-6
-1.016, -6.010e-6
-1.015, -6.010e-6
-1.014, -6.010e-6
-1.013, -6.010e-6
-1.012, -6.010e-6
-1.011, -6.010e-6
-1.010, -6.010e-6
-1.009, -6.010e-6
-1.008, -6.010e-6
-1.007, -6.010e-6
-1.006, -6.010e-6
-1.005, -6.010e-6
-1.004, -6.010e-6
-1.003, -6.010e-6
-1.002, -6.010e-6
-1.001, -6.010e-6
