Dec. 13, 2024   17:43:41
Cyclic Voltammetry
File: c:/users/guazh/data/banditlqround7_x0exp59_r20/2024-12-09-exp650\exp650-2024-12-13t17_31_20-h2koh\exp650_cv_sr_700mvs_efin_-1500mv.bin
Data Source:  Experiment
Instrument Model:  CHI760E
Header: CV ran at 700 mVs
Note: 

Init E (V) = -1
High E (V) = -1
Low E (V) = -1.5
Final E (V) = -1
Init P/N = N
Scan Rate (V/s) = 0.7
Segment = 3
Sample Interval (V) = 0.001
Quiet Time (sec) = 2
Sensitivity (A/V) = 0.01
Comp R (ohm) = 1.3

Results:

Channel 1:
Segment 1:

Segment 2:

Segment 3:

Potential/V, Current/A

-1.000, -3.575e-4
-1.001, -2.342e-4
-1.002, -1.170e-4
-1.003, -9.093e-6
-1.004, 9.882e-5
-1.005, 2.006e-4
-1.006, 2.900e-4
-1.007, 3.825e-4
-1.008, 4.626e-4
-1.009, 5.489e-4
-1.010, 6.291e-4
-1.011, 7.093e-4
-1.012, 7.925e-4
-1.013, 8.696e-4
-1.014, 9.498e-4
-1.015, 1.024e-3
-1.016, 1.095e-3
-1.017, 1.162e-3
-1.018, 1.221e-3
-1.019, 1.283e-3
-1.020, 1.338e-3
-1.021, 1.397e-3
-1.022, 1.455e-3
-1.023, 1.514e-3
-1.024, 1.576e-3
-1.025, 1.637e-3
-1.026, 1.693e-3
-1.027, 1.748e-3
-1.028, 1.804e-3
-1.029, 1.850e-3
-1.030, 1.899e-3
-1.031, 1.949e-3
-1.032, 1.995e-3
-1.033, 2.041e-3
-1.034, 2.091e-3
-1.035, 2.140e-3
-1.036, 2.192e-3
-1.037, 2.242e-3
-1.038, 2.294e-3
-1.039, 2.340e-3
-1.040, 2.386e-3
-1.041, 2.430e-3
-1.042, 2.470e-3
-1.043, 2.513e-3
-1.044, 2.550e-3
-1.045, 2.590e-3
-1.046, 2.630e-3
-1.047, 2.673e-3
-1.048, 2.716e-3
-1.049, 2.763e-3
-1.050, 2.806e-3
-1.051, 2.849e-3
-1.052, 2.886e-3
-1.053, 2.926e-3
-1.054, 2.963e-3
-1.055, 2.997e-3
-1.056, 3.037e-3
-1.057, 3.074e-3
-1.058, 3.114e-3
-1.059, 3.160e-3
-1.060, 3.207e-3
-1.061, 3.256e-3
-1.062, 3.302e-3
-1.063, 3.348e-3
-1.064, 3.392e-3
-1.065, 3.432e-3
-1.066, 3.466e-3
-1.067, 3.503e-3
-1.068, 3.540e-3
-1.069, 3.577e-3
-1.070, 3.614e-3
-1.071, 3.654e-3
-1.072, 3.697e-3
-1.073, 3.740e-3
-1.074, 3.783e-3
-1.075, 3.823e-3
-1.076, 3.863e-3
-1.077, 3.903e-3
-1.078, 3.940e-3
-1.079, 3.980e-3
-1.080, 4.021e-3
-1.081, 4.064e-3
-1.082, 4.110e-3
-1.083, 4.156e-3
-1.084, 4.206e-3
-1.085, 4.252e-3
-1.086, 4.301e-3
-1.087, 4.341e-3
-1.088, 4.378e-3
-1.089, 4.418e-3
-1.090, 4.452e-3
-1.091, 4.492e-3
-1.092, 4.529e-3
-1.093, 4.572e-3
-1.094, 4.616e-3
-1.095, 4.659e-3
-1.096, 4.708e-3
-1.097, 4.754e-3
-1.098, 4.797e-3
-1.099, 4.841e-3
-1.100, 4.881e-3
-1.101, 4.921e-3
-1.102, 4.958e-3
-1.103, 5.001e-3
-1.104, 5.044e-3
-1.105, 5.093e-3
-1.106, 5.143e-3
-1.107, 5.189e-3
-1.108, 5.241e-3
-1.109, 5.288e-3
-1.110, 5.334e-3
-1.111, 5.377e-3
-1.112, 5.417e-3
-1.113, 5.457e-3
-1.114, 5.491e-3
-1.115, 5.528e-3
-1.116, 5.568e-3
-1.117, 5.605e-3
-1.118, 5.648e-3
-1.119, 5.692e-3
-1.120, 5.735e-3
-1.121, 5.778e-3
-1.122, 5.821e-3
-1.123, 5.861e-3
-1.124, 5.904e-3
-1.125, 5.944e-3
-1.126, 5.988e-3
-1.127, 6.034e-3
-1.128, 6.083e-3
-1.129, 6.136e-3
-1.130, 6.188e-3
-1.131, 6.240e-3
-1.132, 6.290e-3
-1.133, 6.336e-3
-1.134, 6.379e-3
-1.135, 6.416e-3
-1.136, 6.456e-3
-1.137, 6.496e-3
-1.138, 6.539e-3
-1.139, 6.586e-3
-1.140, 6.638e-3
-1.141, 6.687e-3
-1.142, 6.740e-3
-1.143, 6.792e-3
-1.144, 6.842e-3
-1.145, 6.888e-3
-1.146, 6.934e-3
-1.147, 6.974e-3
-1.148, 7.008e-3
-1.149, 7.042e-3
-1.150, 7.073e-3
-1.151, 7.110e-3
-1.152, 7.144e-3
-1.153, 7.184e-3
-1.154, 7.227e-3
-1.155, 7.270e-3
-1.156, 7.319e-3
-1.157, 7.363e-3
-1.158, 7.406e-3
-1.159, 7.452e-3
-1.160, 7.495e-3
-1.161, 7.541e-3
-1.162, 7.591e-3
-1.163, 7.646e-3
-1.164, 7.699e-3
-1.165, 7.757e-3
-1.166, 7.816e-3
-1.167, 7.871e-3
-1.168, 7.924e-3
-1.169, 7.970e-3
-1.170, 8.013e-3
-1.171, 8.056e-3
-1.172, 8.093e-3
-1.173, 8.130e-3
-1.174, 8.167e-3
-1.175, 8.207e-3
-1.176, 8.244e-3
-1.177, 8.288e-3
-1.178, 8.325e-3
-1.179, 8.368e-3
-1.180, 8.411e-3
-1.181, 8.451e-3
-1.182, 8.491e-3
-1.183, 8.528e-3
-1.184, 8.568e-3
-1.185, 8.608e-3
-1.186, 8.654e-3
-1.187, 8.704e-3
-1.188, 8.753e-3
-1.189, 8.809e-3
-1.190, 8.864e-3
-1.191, 8.920e-3
-1.192, 8.972e-3
-1.193, 9.024e-3
-1.194, 9.068e-3
-1.195, 9.111e-3
-1.196, 9.154e-3
-1.197, 9.194e-3
-1.198, 9.240e-3
-1.199, 9.283e-3
-1.200, 9.327e-3
-1.201, 9.373e-3
-1.202, 9.413e-3
-1.203, 9.453e-3
-1.204, 9.493e-3
-1.205, 9.527e-3
-1.206, 9.567e-3
-1.207, 9.604e-3
-1.208, 9.650e-3
-1.209, 9.697e-3
-1.210, 9.743e-3
-1.211, 9.795e-3
-1.212, 9.848e-3
-1.213, 9.903e-3
-1.214, 9.956e-3
-1.215, 1.001e-2
-1.216, 1.006e-2
-1.217, 1.011e-2
-1.218, 1.016e-2
-1.219, 1.021e-2
-1.220, 1.025e-2
-1.221, 1.030e-2
-1.222, 1.035e-2
-1.223, 1.039e-2
-1.224, 1.044e-2
-1.225, 1.048e-2
-1.226, 1.052e-2
-1.227, 1.056e-2
-1.228, 1.059e-2
-1.229, 1.063e-2
-1.230, 1.066e-2
-1.231, 1.070e-2
-1.232, 1.074e-2
-1.233, 1.080e-2
-1.234, 1.085e-2
-1.235, 1.091e-2
-1.236, 1.098e-2
-1.237, 1.104e-2
-1.238, 1.110e-2
-1.239, 1.115e-2
-1.240, 1.120e-2
-1.241, 1.126e-2
-1.242, 1.131e-2
-1.243, 1.137e-2
-1.244, 1.142e-2
-1.245, 1.146e-2
-1.246, 1.150e-2
-1.247, 1.154e-2
-1.248, 1.157e-2
-1.249, 1.161e-2
-1.250, 1.164e-2
-1.251, 1.167e-2
-1.252, 1.171e-2
-1.253, 1.175e-2
-1.254, 1.179e-2
-1.255, 1.183e-2
-1.256, 1.188e-2
-1.257, 1.195e-2
-1.258, 1.201e-2
-1.259, 1.208e-2
-1.260, 1.215e-2
-1.261, 1.222e-2
-1.262, 1.227e-2
-1.263, 1.230e-2
-1.264, 1.233e-2
-1.265, 1.235e-2
-1.266, 1.238e-2
-1.267, 1.241e-2
-1.268, 1.245e-2
-1.269, 1.250e-2
-1.270, 1.255e-2
-1.271, 1.262e-2
-1.272, 1.267e-2
-1.273, 1.272e-2
-1.274, 1.277e-2
-1.275, 1.281e-2
-1.276, 1.285e-2
-1.277, 1.290e-2
-1.278, 1.295e-2
-1.279, 1.300e-2
-1.280, 1.306e-2
-1.281, 1.312e-2
-1.282, 1.317e-2
-1.283, 1.321e-2
-1.284, 1.325e-2
-1.285, 1.327e-2
-1.286, 1.329e-2
-1.287, 1.330e-2
-1.288, 1.330e-2
-1.289, 1.331e-2
-1.290, 1.331e-2
-1.291, 1.331e-2
-1.292, 1.332e-2
-1.293, 1.333e-2
-1.294, 1.336e-2
-1.295, 1.340e-2
-1.296, 1.345e-2
-1.297, 1.352e-2
-1.298, 1.359e-2
-1.299, 1.367e-2
-1.300, 1.375e-2
-1.301, 1.383e-2
-1.302, 1.391e-2
-1.303, 1.399e-2
-1.304, 1.407e-2
-1.305, 1.416e-2
-1.306, 1.423e-2
-1.307, 1.430e-2
-1.308, 1.436e-2
-1.309, 1.441e-2
-1.310, 1.446e-2
-1.311, 1.450e-2
-1.312, 1.453e-2
-1.313, 1.456e-2
-1.314, 1.459e-2
-1.315, 1.462e-2
-1.316, 1.465e-2
-1.317, 1.469e-2
-1.318, 1.473e-2
-1.319, 1.477e-2
-1.320, 1.481e-2
-1.321, 1.484e-2
-1.322, 1.488e-2
-1.323, 1.491e-2
-1.324, 1.496e-2
-1.325, 1.500e-2
-1.326, 1.506e-2
-1.327, 1.513e-2
-1.328, 1.520e-2
-1.329, 1.527e-2
-1.330, 1.534e-2
-1.331, 1.542e-2
-1.332, 1.549e-2
-1.333, 1.556e-2
-1.334, 1.564e-2
-1.335, 1.571e-2
-1.336, 1.577e-2
-1.337, 1.583e-2
-1.338, 1.589e-2
-1.339, 1.594e-2
-1.340, 1.599e-2
-1.341, 1.603e-2
-1.342, 1.608e-2
-1.343, 1.614e-2
-1.344, 1.619e-2
-1.345, 1.624e-2
-1.346, 1.628e-2
-1.347, 1.632e-2
-1.348, 1.637e-2
-1.349, 1.641e-2
-1.350, 1.646e-2
-1.351, 1.652e-2
-1.352, 1.658e-2
-1.353, 1.666e-2
-1.354, 1.673e-2
-1.355, 1.679e-2
-1.356, 1.686e-2
-1.357, 1.693e-2
-1.358, 1.698e-2
-1.359, 1.703e-2
-1.360, 1.709e-2
-1.361, 1.715e-2
-1.362, 1.720e-2
-1.363, 1.724e-2
-1.364, 1.729e-2
-1.365, 1.732e-2
-1.366, 1.735e-2
-1.367, 1.738e-2
-1.368, 1.740e-2
-1.369, 1.744e-2
-1.370, 1.747e-2
-1.371, 1.750e-2
-1.372, 1.753e-2
-1.373, 1.756e-2
-1.374, 1.760e-2
-1.375, 1.764e-2
-1.376, 1.768e-2
-1.377, 1.772e-2
-1.378, 1.777e-2
-1.379, 1.783e-2
-1.380, 1.788e-2
-1.381, 1.794e-2
-1.382, 1.801e-2
-1.383, 1.808e-2
-1.384, 1.814e-2
-1.385, 1.822e-2
-1.386, 1.828e-2
-1.387, 1.834e-2
-1.388, 1.840e-2
-1.389, 1.845e-2
-1.390, 1.849e-2
-1.391, 1.853e-2
-1.392, 1.857e-2
-1.393, 1.861e-2
-1.394, 1.864e-2
-1.395, 1.868e-2
-1.396, 1.872e-2
-1.397, 1.876e-2
-1.398, 1.880e-2
-1.399, 1.883e-2
-1.400, 1.887e-2
-1.401, 1.891e-2
-1.402, 1.894e-2
-1.403, 1.897e-2
-1.404, 1.900e-2
-1.405, 1.904e-2
-1.406, 1.908e-2
-1.407, 1.913e-2
-1.408, 1.918e-2
-1.409, 1.924e-2
-1.410, 1.929e-2
-1.411, 1.936e-2
-1.412, 1.941e-2
-1.413, 1.945e-2
-1.414, 1.951e-2
-1.415, 1.956e-2
-1.416, 1.961e-2
-1.417, 1.965e-2
-1.418, 1.970e-2
-1.419, 1.975e-2
-1.420, 1.980e-2
-1.421, 1.985e-2
-1.422, 1.990e-2
-1.423, 1.995e-2
-1.424, 2.000e-2
-1.425, 2.004e-2
-1.426, 2.007e-2
-1.427, 2.011e-2
-1.428, 2.014e-2
-1.429, 2.016e-2
-1.430, 2.019e-2
-1.431, 2.021e-2
-1.432, 2.025e-2
-1.433, 2.029e-2
-1.434, 2.034e-2
-1.435, 2.037e-2
-1.436, 2.041e-2
-1.437, 2.044e-2
-1.438, 2.046e-2
-1.439, 2.048e-2
-1.440, 2.050e-2
-1.441, 2.052e-2
-1.442, 2.055e-2
-1.443, 2.058e-2
-1.444, 2.063e-2
-1.445, 2.068e-2
-1.446, 2.075e-2
-1.447, 2.081e-2
-1.448, 2.088e-2
-1.449, 2.093e-2
-1.450, 2.097e-2
-1.451, 2.100e-2
-1.452, 2.102e-2
-1.453, 2.103e-2
-1.454, 2.104e-2
-1.455, 2.105e-2
-1.456, 2.108e-2
-1.457, 2.110e-2
-1.458, 2.113e-2
-1.459, 2.116e-2
-1.460, 2.118e-2
-1.461, 2.119e-2
-1.462, 2.119e-2
-1.463, 2.119e-2
-1.464, 2.120e-2
-1.465, 2.120e-2
-1.466, 2.119e-2
-1.467, 2.118e-2
-1.468, 2.118e-2
-1.469, 2.117e-2
-1.470, 2.117e-2
-1.471, 2.117e-2
-1.472, 2.118e-2
-1.473, 2.121e-2
-1.474, 2.124e-2
-1.475, 2.127e-2
-1.476, 2.130e-2
-1.477, 2.133e-2
-1.478, 2.135e-2
-1.479, 2.137e-2
-1.480, 2.138e-2
-1.481, 2.138e-2
-1.482, 2.137e-2
-1.483, 2.136e-2
-1.484, 2.134e-2
-1.485, 2.132e-2
-1.486, 2.130e-2
-1.487, 2.127e-2
-1.488, 2.125e-2
-1.489, 2.123e-2
-1.490, 2.121e-2
-1.491, 2.118e-2
-1.492, 2.116e-2
-1.493, 2.114e-2
-1.494, 2.111e-2
-1.495, 2.109e-2
-1.496, 2.106e-2
-1.497, 2.104e-2
-1.498, 2.102e-2
-1.499, 2.101e-2
-1.500, 2.090e-2
-1.499, 2.064e-2
-1.498, 2.040e-2
-1.497, 2.015e-2
-1.496, 1.991e-2
-1.495, 1.966e-2
-1.494, 1.941e-2
-1.493, 1.916e-2
-1.492, 1.891e-2
-1.491, 1.865e-2
-1.490, 1.839e-2
-1.489, 1.814e-2
-1.488, 1.788e-2
-1.487, 1.763e-2
-1.486, 1.737e-2
-1.485, 1.713e-2
-1.484, 1.689e-2
-1.483, 1.665e-2
-1.482, 1.642e-2
-1.481, 1.618e-2
-1.480, 1.596e-2
-1.479, 1.573e-2
-1.478, 1.550e-2
-1.477, 1.528e-2
-1.476, 1.507e-2
-1.475, 1.487e-2
-1.474, 1.467e-2
-1.473, 1.447e-2
-1.472, 1.427e-2
-1.471, 1.407e-2
-1.470, 1.386e-2
-1.469, 1.366e-2
-1.468, 1.345e-2
-1.467, 1.325e-2
-1.466, 1.305e-2
-1.465, 1.286e-2
-1.464, 1.267e-2
-1.463, 1.249e-2
-1.462, 1.232e-2
-1.461, 1.215e-2
-1.460, 1.198e-2
-1.459, 1.181e-2
-1.458, 1.164e-2
-1.457, 1.147e-2
-1.456, 1.129e-2
-1.455, 1.111e-2
-1.454, 1.092e-2
-1.453, 1.074e-2
-1.452, 1.056e-2
-1.451, 1.038e-2
-1.450, 1.021e-2
-1.449, 1.005e-2
-1.448, 9.900e-3
-1.447, 9.740e-3
-1.446, 9.573e-3
-1.445, 9.407e-3
-1.444, 9.237e-3
-1.443, 9.068e-3
-1.442, 8.898e-3
-1.441, 8.728e-3
-1.440, 8.562e-3
-1.439, 8.399e-3
-1.438, 8.238e-3
-1.437, 8.084e-3
-1.436, 7.930e-3
-1.435, 7.779e-3
-1.434, 7.631e-3
-1.433, 7.483e-3
-1.432, 7.338e-3
-1.431, 7.199e-3
-1.430, 7.057e-3
-1.429, 6.922e-3
-1.428, 6.783e-3
-1.427, 6.647e-3
-1.426, 6.509e-3
-1.425, 6.367e-3
-1.424, 6.228e-3
-1.423, 6.086e-3
-1.422, 5.947e-3
-1.421, 5.806e-3
-1.420, 5.661e-3
-1.419, 5.522e-3
-1.418, 5.380e-3
-1.417, 5.251e-3
-1.416, 5.121e-3
-1.415, 4.995e-3
-1.414, 4.875e-3
-1.413, 4.751e-3
-1.412, 4.634e-3
-1.411, 4.514e-3
-1.410, 4.394e-3
-1.409, 4.276e-3
-1.408, 4.162e-3
-1.407, 4.048e-3
-1.406, 3.937e-3
-1.405, 3.832e-3
-1.404, 3.728e-3
-1.403, 3.629e-3
-1.402, 3.527e-3
-1.401, 3.425e-3
-1.400, 3.321e-3
-1.399, 3.213e-3
-1.398, 3.105e-3
-1.397, 2.994e-3
-1.396, 2.886e-3
-1.395, 2.781e-3
-1.394, 2.679e-3
-1.393, 2.578e-3
-1.392, 2.479e-3
-1.391, 2.383e-3
-1.390, 2.288e-3
-1.389, 2.195e-3
-1.388, 2.100e-3
-1.387, 2.004e-3
-1.386, 1.912e-3
-1.385, 1.816e-3
-1.384, 1.724e-3
-1.383, 1.634e-3
-1.382, 1.545e-3
-1.381, 1.462e-3
-1.380, 1.378e-3
-1.379, 1.304e-3
-1.378, 1.221e-3
-1.377, 1.141e-3
-1.376, 1.058e-3
-1.375, 9.713e-4
-1.374, 8.881e-4
-1.373, 7.987e-4
-1.372, 7.154e-4
-1.371, 6.353e-4
-1.370, 5.582e-4
-1.369, 4.842e-4
-1.368, 4.133e-4
-1.367, 3.393e-4
-1.366, 2.684e-4
-1.365, 1.975e-4
-1.364, 1.204e-4
-1.363, 4.640e-5
-1.362, -3.068e-5
-1.361, -1.047e-4
-1.360, -1.756e-4
-1.359, -2.465e-4
-1.358, -3.112e-4
-1.357, -3.760e-4
-1.356, -4.407e-4
-1.355, -5.024e-4
-1.354, -5.671e-4
-1.353, -6.319e-4
-1.352, -6.997e-4
-1.351, -7.675e-4
-1.350, -8.385e-4
-1.349, -9.063e-4
-1.348, -9.710e-4
-1.347, -1.030e-3
-1.346, -1.088e-3
-1.345, -1.144e-3
-1.344, -1.196e-3
-1.343, -1.255e-3
-1.342, -1.310e-3
-1.341, -1.369e-3
-1.340, -1.427e-3
-1.339, -1.489e-3
-1.338, -1.551e-3
-1.337, -1.609e-3
-1.336, -1.665e-3
-1.335, -1.717e-3
-1.334, -1.766e-3
-1.333, -1.819e-3
-1.332, -1.865e-3
-1.331, -1.914e-3
-1.330, -1.961e-3
-1.329, -2.013e-3
-1.328, -2.066e-3
-1.327, -2.118e-3
-1.326, -2.173e-3
-1.325, -2.226e-3
-1.324, -2.275e-3
-1.323, -2.321e-3
-1.322, -2.371e-3
-1.321, -2.414e-3
-1.320, -2.460e-3
-1.319, -2.503e-3
-1.318, -2.550e-3
-1.317, -2.599e-3
-1.316, -2.648e-3
-1.315, -2.701e-3
-1.314, -2.747e-3
-1.313, -2.799e-3
-1.312, -2.842e-3
-1.311, -2.886e-3
-1.310, -2.926e-3
-1.309, -2.963e-3
-1.308, -3.006e-3
-1.307, -3.043e-3
-1.306, -3.083e-3
-1.305, -3.126e-3
-1.304, -3.166e-3
-1.303, -3.209e-3
-1.302, -3.249e-3
-1.301, -3.286e-3
-1.300, -3.323e-3
-1.299, -3.357e-3
-1.298, -3.394e-3
-1.297, -3.431e-3
-1.296, -3.465e-3
-1.295, -3.502e-3
-1.294, -3.542e-3
-1.293, -3.586e-3
-1.292, -3.629e-3
-1.291, -3.675e-3
-1.290, -3.718e-3
-1.289, -3.758e-3
-1.288, -3.798e-3
-1.287, -3.835e-3
-1.286, -3.866e-3
-1.285, -3.897e-3
-1.284, -3.928e-3
-1.283, -3.962e-3
-1.282, -3.996e-3
-1.281, -4.029e-3
-1.280, -4.070e-3
-1.279, -4.103e-3
-1.278, -4.137e-3
-1.277, -4.165e-3
-1.276, -4.193e-3
-1.275, -4.221e-3
-1.274, -4.248e-3
-1.273, -4.285e-3
-1.272, -4.319e-3
-1.271, -4.359e-3
-1.270, -4.393e-3
-1.269, -4.430e-3
-1.268, -4.470e-3
-1.267, -4.504e-3
-1.266, -4.535e-3
-1.265, -4.566e-3
-1.264, -4.603e-3
-1.263, -4.634e-3
-1.262, -4.665e-3
-1.261, -4.695e-3
-1.260, -4.729e-3
-1.259, -4.757e-3
-1.258, -4.785e-3
-1.257, -4.809e-3
-1.256, -4.831e-3
-1.255, -4.856e-3
-1.254, -4.874e-3
-1.253, -4.893e-3
-1.252, -4.908e-3
-1.251, -4.924e-3
-1.250, -4.942e-3
-1.249, -4.964e-3
-1.248, -4.991e-3
-1.247, -5.022e-3
-1.246, -5.056e-3
-1.245, -5.093e-3
-1.244, -5.130e-3
-1.243, -5.173e-3
-1.242, -5.210e-3
-1.241, -5.250e-3
-1.240, -5.287e-3
-1.239, -5.327e-3
-1.238, -5.371e-3
-1.237, -5.417e-3
-1.236, -5.466e-3
-1.235, -5.516e-3
-1.234, -5.559e-3
-1.233, -5.602e-3
-1.232, -5.639e-3
-1.231, -5.673e-3
-1.230, -5.701e-3
-1.229, -5.725e-3
-1.228, -5.750e-3
-1.227, -5.771e-3
-1.226, -5.790e-3
-1.225, -5.812e-3
-1.224, -5.836e-3
-1.223, -5.861e-3
-1.222, -5.889e-3
-1.221, -5.913e-3
-1.220, -5.941e-3
-1.219, -5.966e-3
-1.218, -5.990e-3
-1.217, -6.015e-3
-1.216, -6.046e-3
-1.215, -6.080e-3
-1.214, -6.117e-3
-1.213, -6.163e-3
-1.212, -6.209e-3
-1.211, -6.255e-3
-1.210, -6.305e-3
-1.209, -6.348e-3
-1.208, -6.394e-3
-1.207, -6.431e-3
-1.206, -6.468e-3
-1.205, -6.502e-3
-1.204, -6.533e-3
-1.203, -6.567e-3
-1.202, -6.598e-3
-1.201, -6.635e-3
-1.200, -6.669e-3
-1.199, -6.706e-3
-1.198, -6.740e-3
-1.197, -6.777e-3
-1.196, -6.814e-3
-1.195, -6.847e-3
-1.194, -6.878e-3
-1.193, -6.912e-3
-1.192, -6.940e-3
-1.191, -6.974e-3
-1.190, -7.008e-3
-1.189, -7.045e-3
-1.188, -7.088e-3
-1.187, -7.137e-3
-1.186, -7.190e-3
-1.185, -7.239e-3
-1.184, -7.288e-3
-1.183, -7.335e-3
-1.182, -7.381e-3
-1.181, -7.421e-3
-1.180, -7.464e-3
-1.179, -7.504e-3
-1.178, -7.553e-3
-1.177, -7.609e-3
-1.176, -7.655e-3
-1.175, -7.705e-3
-1.174, -7.751e-3
-1.173, -7.794e-3
-1.172, -7.834e-3
-1.171, -7.871e-3
-1.170, -7.905e-3
-1.169, -7.936e-3
-1.168, -7.970e-3
-1.167, -8.007e-3
-1.166, -8.044e-3
-1.165, -8.087e-3
-1.164, -8.130e-3
-1.163, -8.173e-3
-1.162, -8.216e-3
-1.161, -8.263e-3
-1.160, -8.303e-3
-1.159, -8.346e-3
-1.158, -8.383e-3
-1.157, -8.423e-3
-1.156, -8.463e-3
-1.155, -8.503e-3
-1.154, -8.543e-3
-1.153, -8.589e-3
-1.152, -8.642e-3
-1.151, -8.697e-3
-1.150, -8.759e-3
-1.149, -8.818e-3
-1.148, -8.876e-3
-1.147, -8.929e-3
-1.146, -8.984e-3
-1.145, -9.040e-3
-1.144, -9.095e-3
-1.143, -9.154e-3
-1.142, -9.212e-3
-1.141, -9.268e-3
-1.140, -9.320e-3
-1.139, -9.366e-3
-1.138, -9.409e-3
-1.137, -9.450e-3
-1.136, -9.487e-3
-1.135, -9.527e-3
-1.134, -9.564e-3
-1.133, -9.607e-3
-1.132, -9.647e-3
-1.131, -9.690e-3
-1.130, -9.736e-3
-1.129, -9.779e-3
-1.128, -9.823e-3
-1.127, -9.866e-3
-1.126, -9.906e-3
-1.125, -9.949e-3
-1.124, -9.995e-3
-1.123, -1.004e-2
-1.122, -1.008e-2
-1.121, -1.012e-2
-1.120, -1.017e-2
-1.119, -1.022e-2
-1.118, -1.028e-2
-1.117, -1.034e-2
-1.116, -1.041e-2
-1.115, -1.047e-2
-1.114, -1.053e-2
-1.113, -1.058e-2
-1.112, -1.063e-2
-1.111, -1.068e-2
-1.110, -1.073e-2
-1.109, -1.077e-2
-1.108, -1.082e-2
-1.107, -1.087e-2
-1.106, -1.093e-2
-1.105, -1.099e-2
-1.104, -1.107e-2
-1.103, -1.115e-2
-1.102, -1.122e-2
-1.101, -1.130e-2
-1.100, -1.137e-2
-1.099, -1.143e-2
-1.098, -1.148e-2
-1.097, -1.153e-2
-1.096, -1.157e-2
-1.095, -1.161e-2
-1.094, -1.168e-2
-1.093, -1.183e-2
-1.092, -1.189e-2
-1.091, -1.193e-2
-1.090, -1.197e-2
-1.089, -1.203e-2
-1.088, -1.209e-2
-1.087, -1.215e-2
-1.086, -1.219e-2
-1.085, -1.222e-2
-1.084, -1.226e-2
-1.083, -1.230e-2
-1.082, -1.233e-2
-1.081, -1.235e-2
-1.080, -1.237e-2
-1.079, -1.238e-2
-1.078, -1.241e-2
-1.077, -1.244e-2
-1.076, -1.248e-2
-1.075, -1.253e-2
-1.074, -1.259e-2
-1.073, -1.266e-2
-1.072, -1.273e-2
-1.071, -1.280e-2
-1.070, -1.287e-2
-1.069, -1.292e-2
-1.068, -1.297e-2
-1.067, -1.300e-2
-1.066, -1.303e-2
-1.065, -1.305e-2
-1.064, -1.307e-2
-1.063, -1.308e-2
-1.062, -1.310e-2
-1.061, -1.312e-2
-1.060, -1.314e-2
-1.059, -1.317e-2
-1.058, -1.321e-2
-1.057, -1.325e-2
-1.056, -1.330e-2
-1.055, -1.334e-2
-1.054, -1.340e-2
-1.053, -1.346e-2
-1.052, -1.354e-2
-1.051, -1.361e-2
-1.050, -1.369e-2
-1.049, -1.377e-2
-1.048, -1.385e-2
-1.047, -1.393e-2
-1.046, -1.400e-2
-1.045, -1.407e-2
-1.044, -1.414e-2
-1.043, -1.420e-2
-1.042, -1.425e-2
-1.041, -1.429e-2
-1.040, -1.433e-2
-1.039, -1.436e-2
-1.038, -1.439e-2
-1.037, -1.441e-2
-1.036, -1.444e-2
-1.035, -1.448e-2
-1.034, -1.451e-2
-1.033, -1.454e-2
-1.032, -1.457e-2
-1.031, -1.460e-2
-1.030, -1.462e-2
-1.029, -1.464e-2
-1.028, -1.468e-2
-1.027, -1.471e-2
-1.026, -1.476e-2
-1.025, -1.483e-2
-1.024, -1.489e-2
-1.023, -1.496e-2
-1.022, -1.503e-2
-1.021, -1.509e-2
-1.020, -1.514e-2
-1.019, -1.519e-2
-1.018, -1.523e-2
-1.017, -1.527e-2
-1.016, -1.531e-2
-1.015, -1.534e-2
-1.014, -1.538e-2
-1.013, -1.541e-2
-1.012, -1.544e-2
-1.011, -1.547e-2
-1.010, -1.550e-2
-1.009, -1.552e-2
-1.008, -1.555e-2
-1.007, -1.558e-2
-1.006, -1.561e-2
-1.005, -1.565e-2
-1.004, -1.569e-2
-1.003, -1.574e-2
-1.002, -1.578e-2
-1.001, -1.582e-2
