Potential V vs RHE, Current mA cm-2
0.013299999999999867,4.051733162813465
0.012299999999999978,2.5478950510569307
0.011299999999999866,1.3153985666145112
0.010299999999999976,-0.053150703535929426
0.009299999999999864,-1.1886404341466037
0.008299999999999974,-1.9989870667092968
0.007299999999999862,-2.9864555540150928
0.006299999999999972,-3.9470445266234524
0.00529999999999986,-4.570932209863933
0.0042999999999999705,-5.262726035497936
0.0032999999999998586,-6.1058939702174975
0.0022999999999999687,-6.6760226240631075
0.0012999999999998568,-7.161268599916816
0.00029999999999996696,-7.870038961149199
-0.000700000000000145,-8.445826460194269
-0.0017000000000000348,-8.776868904362688
-0.0027000000000001467,-9.335679867809377
-0.0037000000000000366,-9.911467366854446
-0.0047000000000001485,-10.173188957329478
-0.005700000000000038,-10.562234564792364
-0.00670000000000015,-11.183292825433115
-0.00770000000000004,-11.532726516499778
-0.008700000000000152,-11.826986466871707
-0.009700000000000042,-12.351844359121635
-0.010700000000000154,-12.74371938918425
-0.011700000000000044,-12.910655322568324
-0.012700000000000156,-13.315262754329725
-0.013700000000000045,-13.799094018883569
-0.014700000000000157,-14.0325213833613
-0.015700000000000047,-14.345172580631472
-0.01670000000000016,-14.840321535584234
-0.01770000000000005,-15.10911668255859
-0.01870000000000016,-15.321323377538347
-0.01970000000000005,-15.78817810649381
-0.020700000000000163,-16.127708818461418
-0.021700000000000053,-16.269179948447924
-0.022700000000000164,-16.665299112410132
-0.023700000000000054,-17.103859615368293
-0.024700000000000166,-17.231183632356142
-0.025700000000000056,-17.45753744033455
-0.026700000000000168,-17.896097943292716
-0.027700000000000058,-18.122451751271118
-0.02870000000000017,-18.306364220253574
-0.02970000000000006,-18.759071836210385
-0.03070000000000017,-19.084455435179343
-0.03170000000000006,-19.211779452167196
-0.03270000000000017,-19.60789861612941
-0.03370000000000006,-20.03231200608892
-0.034700000000000175,-20.159636023076775
-0.035700000000000065,-20.38598983105518
-0.03670000000000018,-20.838697447011988
-0.03770000000000007,-21.093345480987697
-0.03870000000000018,-21.30555217596745
-0.03970000000000007,-21.744112678925614
-0.04070000000000018,-22.111937616890522
-0.04170000000000007,-22.267555859875678
-0.04270000000000018,-22.63538079784059
-0.04370000000000007,-23.017352848804148
-0.044700000000000184,-23.1163826397947
-0.045700000000000074,-23.41347201276636
-0.046700000000000186,-23.93691519371642
-0.047700000000000076,-24.191563227692125
-0.04870000000000019,-24.389622809673234
-0.04970000000000008,-24.814036199632742
-0.05070000000000019,-25.06868423360845
-0.05170000000000008,-25.1394197986017
-0.05270000000000019,-25.49309762356796
-0.05370000000000008,-25.959952352523427
-0.05470000000000019,-26.15801193450453
-0.05570000000000008,-26.455101307476184
-0.056700000000000195,-27.00683871442355
-0.057700000000000085,-27.219045409403304
-0.058700000000000196,-27.275633861397907
-0.059700000000000086,-27.62931168636417
-0.0607000000000002,-27.940548172334477
-0.06170000000000009,-28.082019302320973
-0.0627000000000002,-28.548874031276437
-0.06370000000000009,-29.072317212226505
-0.0647000000000002,-29.27037679420761
-0.06570000000000009,-29.55331905418062
-0.0667000000000002,-29.991879557138777
-0.0677000000000001,-30.21823336511718
-0.0687000000000002,-30.387998721100992
-0.0697000000000001,-30.812412111060496
-0.07070000000000021,-31.095354371033505
-0.0717000000000001,-31.19438416202406
-0.07270000000000021,-31.604650438984915
-0.0737000000000001,-32.05735805494172
-0.07470000000000021,-32.19882918492823
-0.0757000000000001,-32.41103587990799
-0.07670000000000021,-32.84959638286615
-0.0777000000000001,-33.06180307784591
-0.07870000000000021,-33.25986265982701
-0.0797000000000001,-33.698423162785176
-0.08070000000000022,-34.03795387475279
-0.0817000000000001,-34.16527789174064
-0.08270000000000022,-34.4906614907096
-0.08370000000000011,-34.8867806546718
-0.08470000000000022,-34.99995755866101
-0.08570000000000011,-35.240458479638065
-0.08670000000000022,-35.707313208593526
-0.08770000000000011,-35.94781412957058
-0.08870000000000022,-36.07513814655844
-0.08970000000000011,-36.48540442351929
-0.09070000000000022,-36.81078802248826
-0.09170000000000011,-36.95225915247476
-0.09270000000000023,-37.32008409043967
-0.09370000000000012,-37.702056141403226
-0.09470000000000023,-37.84352727138973
-0.09570000000000012,-38.06988107936814
-0.09670000000000023,-38.480147356329
-0.09770000000000012,-38.72064827730605
-0.09870000000000023,-38.91870785928716
-0.09970000000000012,-39.38556258824262
-0.10070000000000023,-39.78168175220483
-0.10170000000000012,-39.88071154319538
-0.10270000000000024,-40.20609514216434
-0.10370000000000013,-40.559772967130606
-0.10470000000000024,-40.602214306126555
-0.10570000000000013,-40.800273888107654
-0.10670000000000024,-41.29542284306042
-0.10770000000000013,-41.56421799003478
-0.10870000000000024,-41.73398334601858
-0.10970000000000013,-42.115955396982145
-0.11070000000000024,-42.3564563179592
-0.11170000000000013,-42.4130447699538
-0.11270000000000002,-42.752575481921404
-0.11370000000000013,-43.148694645883616
-0.11470000000000002,-43.24772443687417
-0.11570000000000014,-43.41748979285798
-0.11670000000000003,-43.81360895682018
-0.11770000000000014,-44.025815651799945
-0.11870000000000003,-44.195581007783744
-0.11970000000000014,-44.591700171745956
-0.12070000000000003,-44.88878954471762
-0.12170000000000014,-44.95952510971087
-0.12270000000000003,-45.29905582167847
-0.12370000000000014,-45.72346921163799
-0.12470000000000003,-45.83664611562718
-0.12570000000000014,-45.99226435861234
-0.12670000000000003,-46.4025306355732
-0.12770000000000015,-46.628884443551605
-0.12870000000000004,-46.82694402553272
-0.12970000000000015,-47.29379875448818
-0.13070000000000004,-47.619182353457134
-0.13170000000000015,-47.70406503144903
-0.13270000000000004,-48.04359574341665
-0.13370000000000015,-48.41142068138156
-0.13470000000000004,-48.524597585370756
-0.13570000000000015,-48.77924561934647
-0.13670000000000004,-49.27439457429922
-0.13770000000000016,-49.557336834272235
-0.13870000000000005,-49.72710219025603
-0.13970000000000016,-50.15151558021555
-0.14070000000000005,-50.448604953187214
-0.14170000000000016,-50.51934051818046
-0.14270000000000005,-50.84472411714942
-0.14370000000000016,-51.24084328111163
-0.14470000000000005,-51.36816729809948
-0.14570000000000016,-51.594521106077885
-0.14670000000000005,-52.033081609036046
-0.14770000000000016,-52.33017098200771
-0.14870000000000005,-52.57067190298476
-0.14970000000000017,-53.023379518941574
-0.15070000000000006,-53.348763117910536
-0.15170000000000017,-53.419498682903786
-0.15270000000000006,-53.7307351688741
-0.15370000000000017,-54.2117370108282
-0.15470000000000006,-54.45223793180526
-0.15570000000000017,-54.791768643772876
-0.15670000000000006,-55.34350605072023
-0.15770000000000017,-55.612301197694585
-0.15870000000000006,-55.838655005673
-0.15970000000000018,-56.29136262162981
-0.16070000000000007,-56.61674622059877
-0.16170000000000018,-57.012865384560975
-0.16270000000000007,-57.57874990450699
-0.16370000000000018,-58.14463442445301
-0.16470000000000007,-58.37098823243142
-0.16570000000000018,-58.73881317039633
-0.16670000000000007,-59.51690438532209
-0.16770000000000018,-59.72911108030185
-0.16870000000000007,-59.72911108030185
-0.16970000000000018,-60.02620045327351
-0.17070000000000007,-60.18181869625866
-0.17170000000000019,-60.47890806923032
-0.17270000000000008,-61.11552815416958
-0.1737000000000002,-61.66726556111695
-0.17470000000000008,-61.66726556111695
-0.1757000000000002,-61.709706900112906
-0.17670000000000008,-62.28973853305756
-0.1777000000000002,-62.572680793030564
-0.17870000000000008,-62.700004810018434
-0.1797000000000002,-63.3366248949577
-0.18070000000000008,-64.0439805448902
-0.1817000000000002,-64.60986506483623
-0.18270000000000008,-65.18989669778088
-0.1837000000000002,-65.61431008774039
-0.1847000000000001,-65.7274869917296
-0.1857000000000002,-65.9821350257053
-0.1867000000000001,-66.54801954565133
-0.1877000000000002,-66.94413870961354
-0.1887000000000001,-67.36855209957304
-0.1897000000000002,-68.07590774950557
-0.1907000000000001,-68.59935093045563
-0.1917000000000001,-68.86814607742998
-0.19269999999999998,-69.36329503238275
-0.1937000000000001,-69.9433266653274
-0.19469999999999998,-70.29700449029367
-0.1957000000000001,-70.74971210625048
-0.19669999999999999,-71.3721850781911
-0.1977000000000001,-71.6551273381641
-0.1987,-71.93806959813712
-0.1997000000000001,-72.57468968307639
-0.2007,-73.0556915250305
-0.2017000000000001,-73.40936934999675
-0.2027,-74.03184232193736
-0.2037000000000001,-74.66846240687663
-0.2047,-75.02214023184291
-0.2057000000000001,-75.47484784779972
-0.2067,-76.16805638473357
-0.2077000000000001,-76.64905822668769
-0.2087,-77.0734716166472
-0.2097000000000001,-77.66765036259052
-0.2107,-78.13450509154598
-0.2117000000000001,-78.45988869051493
-0.2127,-79.0399203234596
-0.2137000000000001,-79.54921639141102
-0.2147,-79.78971731238806
-0.2157000000000001,-80.01607112036648
-0.2167,-80.61024986630979
-0.21770000000000012,-81.26101706424771
-0.2187,-81.89763714918698
-0.21970000000000012,-82.60499279911949
-0.2207,-82.93037639808846
-0.22170000000000012,-82.9162292850898
-0.2227,-83.22746577106011
-0.22370000000000012,-83.87823296899803
-0.2247,-84.44411748894404
-0.22570000000000012,-85.09488468688197
-0.2267,-85.90127012780503
-0.22770000000000012,-86.52374309974564
-0.22870000000000001,-86.99059782870111
-0.22970000000000013,-87.58477657464444
-0.23070000000000002,-87.92430728661203
-0.23170000000000013,-88.00918996460392
-0.23270000000000002,-88.49019180655806
-0.23370000000000013,-89.31072436047977
-0.23470000000000002,-90.04637423640959
-0.23570000000000013,-90.82446545133537
-0.23670000000000002,-91.50352687527057
-0.2376999999999999,-91.68743934425302
-0.23870000000000002,-91.75817490924628
-0.2396999999999999,-92.36650076818825
-0.24070000000000003,-93.21532754810727
-0.24169999999999991,-93.93683031103843
-0.24270000000000003,-94.71492152596421
-0.24369999999999992,-95.21007048091697
-0.24470000000000003,-95.36568872390212
-0.24569999999999992,-95.81839633985894
-0.24670000000000003,-96.4833106507955
-0.24769999999999992,-96.78040002376716
-0.24870000000000003,-96.97845960574826
-0.24969999999999992,-97.55849123869294
-0.25070000000000003,-98.1102286456403
-0.2516999999999999,-98.49220069660386
-0.25270000000000004,-99.17126212053905
-0.2536999999999999,-99.92105910946754
-0.25470000000000004,-100.28888404743245
-0.2556999999999999,-100.670856098396
-0.25670000000000004,-101.42065308732448
-0.25769999999999993,-102.08556739826105
-0.25870000000000004,-102.63730480520842
-0.25969999999999993,-103.24563066415038
-0.26070000000000004,-103.6983382801072
-0.26169999999999993,-103.95298631408289
-0.26270000000000004,-104.39154681704106
-0.26369999999999993,-104.88669577199381
-0.26470000000000005,-105.19793225796413
-0.26569999999999994,-105.8062581169061
-0.26670000000000005,-106.64093778382647
-0.26769999999999994,-107.20682230377247
-0.26870000000000005,-107.58879435473604
-0.26969999999999994,-108.01320774469555
-0.27070000000000005,-108.2820028916699
-0.27169999999999994,-108.5932393776402
-0.27270000000000005,-109.42791904456058
-0.27369999999999994,-110.22015737248502
-0.27470000000000006,-110.40406984146746
-0.27569999999999995,-110.40406984146746
-0.27670000000000006,-110.94166013541617
-0.27769999999999995,-111.4792504293649
-0.27870000000000006,-111.90366381932441
-0.27969999999999995,-112.63931369525422
-0.28070000000000006,-113.13446265020698
-0.28169999999999995,-113.14860976320564
-0.28270000000000006,-113.62961160515974
-0.28369999999999995,-114.33696725509228
-0.28470000000000006,-114.52087972407472
-0.28569999999999995,-114.56332106307066
-0.28670000000000007,-114.77552775805043
-0.28769999999999996,-115.3555593909951
-0.28870000000000007,-116.23268039691139
-0.28969999999999996,-116.99662449883853
-0.29070000000000007,-117.40689077579941
-0.29169999999999996,-117.42103788879804
-0.29270000000000007,-117.63324458377778
-0.29369999999999996,-118.0010695217427
-0.2947000000000001,-118.07180508673595
-0.29569999999999996,-118.48207136369683
-0.2967000000000001,-119.38748659561045
-0.29769999999999996,-119.71287019457942
-0.2987000000000001,-119.7977528725713
-0.29969999999999997,-120.25046048852812
-0.3007000000000001,-120.56169697449842
-0.30169999999999997,-120.58999120049573
-0.3027000000000001,-120.87293346046872
-0.30369999999999997,-121.226611285435
-0.3047000000000001,-121.41052375441744
-0.30569999999999997,-121.70761312738911
-0.3067000000000001,-122.06129095235536
-0.3077,-122.0471438393567
-0.3087000000000001,-121.94811404836615
-0.3097,-122.11787940434998
-0.3107000000000001,-122.45741011631759
-0.3117,-122.71205815029327
-0.3127000000000001,-123.1647657662501
-0.3137,-123.71650317319745
-0.3147000000000001,-123.77309162519205
-0.3157,-123.75894451219342
-0.3167000000000001,-123.95700409417452
-0.3177,-123.84382719018531
-0.3187000000000001,-123.78723873819072
-0.3197,-124.05603388516508
-0.3207000000000001,-124.21165212815022
-0.3217,-124.26824058014482
-0.3227000000000001,-124.72094819610162
-0.3237,-124.94730200408004
-0.3247000000000001,-124.989743343076
-0.3257,-124.9331548910814
-0.3267000000000001,-124.53703572711918
-0.3277,-124.08432811116235
-0.3287000000000001,-124.14091656315696
-0.3297,-124.89071355208544
-0.3307000000000001,-125.24439137705171
-0.3317,-124.76338953509759
-0.3327000000000001,-124.55118284011782
-0.3337,-124.52288861412055
-0.3347000000000001,-124.07018099816372
-0.3357,-123.73065028619611
-0.3367000000000001,-123.39111957422851
-0.3377,-122.9950004102663
-0.3387000000000001,-122.81108794128383
-0.3397,-122.92426484527306
-0.3407000000000001,-122.92426484527306
-0.3417,-122.38667455132433
-0.3427000000000001,-122.00470250036076
-0.3437,-121.55199488440397
-0.3447000000000001,-120.87293346046872
-0.3457,-120.54754986149979
-0.3467000000000001,-120.68902099148629
-0.3477,-120.66072676548897
-0.3487000000000001,-120.25046048852812
-0.3497,-119.86848843756455
-0.3507000000000001,-119.35919236961315
-0.3517,-118.42548291170223
-0.3527000000000001,-117.81715705276027
-0.3537,-117.56250901878454
-0.3547000000000001,-117.180536967821
-0.3557,-117.08150717683044
-0.35670000000000013,-117.15224274182368
-0.3577,-116.64294667387229
-0.35870000000000013,-115.68094298996405
-0.3597,-114.78967487104907
-0.36070000000000013,-113.89840675213411
-0.3617,-112.97884440722183
-0.3626999999999999,-112.49784256526772
-0.3637,-112.13001762730282
-0.3646999999999999,-111.32363218637973
-0.3657,-110.50309963245802
-0.3666999999999999,-109.97965645150795
-0.3677,-109.04594699359701
-0.3686999999999999,-108.06979619669015
-0.36970000000000003,-107.67367703272794
-0.3706999999999999,-107.12193962578058
-0.37170000000000003,-106.17408305487102
-0.3726999999999999,-105.38184472694657
-0.37370000000000003,-104.56131217302486
-0.3746999999999999,-103.61345560211528
-0.37570000000000003,-102.87780572618546
-0.3766999999999999,-102.3543625452354
-0.37770000000000004,-101.54797710431234
-0.3786999999999999,-100.5010907424122
-0.37970000000000004,-99.56738128450128
-0.3806999999999999,-98.66196605258766
-0.38170000000000004,-97.69996236867944
-0.38269999999999993,-97.07748939673881
-0.38370000000000004,-96.73795868477121
-0.38469999999999993,-96.11548571283059
-0.38570000000000004,-95.28080604591021
-0.38669999999999993,-94.44612637898985
-0.38770000000000004,-93.28606311310051
-0.38869999999999993,-92.26747097719769
-0.38970000000000005,-91.85720470023682
-0.39069999999999994,-91.47523264927328
-0.39170000000000005,-90.79617122533804
-0.39269999999999994,-90.42834628737315
-0.39370000000000005,-89.98978578441499
-0.39469999999999994,-89.01363498750811
-0.39570000000000005,-88.15066109459043
-0.39669999999999994,-87.72624770463094
-0.39770000000000005,-87.11792184568897
-0.39869999999999994,-86.49544887374834
-0.39970000000000006,-86.29738929176723
-0.40069999999999995,-86.24080083977263
-0.40170000000000006,-85.95785857979962
-0.40269999999999995,-85.46270962484687
-0.40370000000000006,-84.99585489589141
-0.40469999999999995,-84.44411748894404
-0.40570000000000006,-84.18946945496833
-0.40669999999999995,-84.38752903694943
-0.40770000000000006,-84.34508769795349
-0.40869999999999995,-84.24605790696293
-0.40970000000000006,-84.38752903694943
-0.41069999999999995,-84.27435213296022
-0.41170000000000007,-83.70846761301424
-0.41269999999999996,-83.18502443206415
-0.41370000000000007,-83.14258309306821
-0.41469999999999996,-83.25575999705741
-0.41570000000000007,-83.52455514403178
-0.41669999999999996,-83.92067430799398
-0.41770000000000007,-83.84993874300073
-0.41869999999999996,-83.60943782202366
-0.4197000000000001,-83.65187916101961
-0.42069999999999996,-83.73676183901152
-0.4217000000000001,-83.70846761301424
-0.42269999999999996,-83.94896853399128
-0.4237000000000001,-84.26020501996159
-0.42469999999999997,-84.30264635895755
-0.4257000000000001,-84.31679347195619
-0.42669999999999997,-84.47241171494134
-0.4277000000000001,-84.55729439293323
-0.42869999999999997,-84.64217707092514
-0.4297000000000001,-85.03829623488735
-0.43069999999999997,-85.40612117285227
-0.4317000000000001,-85.46270962484687
-0.4327,-85.77394611081716
-0.4337000000000001,-86.21250661377533
-0.4347,-86.31153640476589
-0.4357000000000001,-86.4813017607497
-0.4367,-86.9623036027038
-0.4377000000000001,-87.18865741068221
-0.4387,-87.37256987966467
-0.4397000000000001,-87.86771883461743
-0.4407,-88.34872067657155
-0.4417000000000001,-88.5609273715513
-0.4427,-88.94289942251486
-0.4437000000000001,-89.36731281247435
-0.4447,-89.53707816845818
-0.4457000000000001,-89.86246176742712
-0.4467,-90.47078762636909
-0.4477000000000001,-90.76787699934074
-0.4487,-90.89520101632861
-0.4497000000000001,-91.39034997128137
-0.4507,-91.75817490924628
-0.4517000000000001,-91.84305758723818
-0.4527,-92.18258829920579
-0.4537000000000001,-92.6070016891653
-0.4547,-92.76261993215046
-0.4557000000000001,-92.91823817513561
-0.4567,-93.46997558208298
-0.4577000000000001,-93.92268319803979
-0.4587,-94.16318411901683
-0.4597000000000001,-94.64418596097094
-0.4607,-94.98371667293856
-0.4617000000000001,-95.04030512493317
-0.4627,-95.40813006289807
-0.4637000000000001,-95.775955000863
-0.4647,-95.88913190485218
-0.4657000000000001,-96.10133859983195
-0.4667,-96.52575198979144
-0.4677000000000001,-96.92187115375367
-0.4687,-97.34628454371318
-0.4697000000000001,-97.88387483766188
-0.4707,-98.23755266262813
-0.4717000000000001,-98.35072956661735
-0.4727,-98.81758429557281
-0.4737000000000001,-99.38346881551882
-0.4747,-99.70885241448778
-0.4757000000000001,-100.09082446545133
-0.4767,-100.62841475940007
-0.4777000000000001,-100.99623969736497
-0.4787,-101.25088773134068
-0.4797000000000001,-101.6753011213002
-0.4807,-101.85921359028264
-0.48170000000000013,-101.84506647728399
-0.4827,-102.3543625452354
-0.48370000000000013,-102.99098263017467
-0.4847,-103.42954313313282
-0.48570000000000013,-103.92469208808559
-0.4867,-102.84951150018817
-0.48570000000000013,-99.80788220547834
-0.4847,-96.99260671874691
-0.48370000000000013,-94.77150997795881
-0.4827,-93.17288620911131
-0.48170000000000013,-91.41864419727867
-0.4807,-89.70684352444198
-0.4797000000000001,-88.19310243358639
-0.4787,-86.04274125779153
-0.4777000000000001,-83.32649556205067
-0.4767,-80.8366036742882
-0.4757000000000001,-78.84186074147848
-0.4747,-77.76668015358106
-0.4737000000000001,-77.00273605165394
-0.4727,-76.19635061073087
-0.4717000000000001,-74.92311044085234
-0.4707,-73.29619244600755
-0.4697000000000001,-71.72586290315735
-0.4687,-70.22626892530042
-0.4677000000000001,-69.26426524139221
-0.4667,-68.83985185143268
-0.4657000000000001,-67.96273084551636
-0.4647,-66.81681469262568
-0.4637000000000001,-65.62845720073905
-0.4627,-64.29862857886593
