Aug. 30, 2024   07:42:49
Linear Sweep Voltammetry
File: c:/users/guazh/data/20240829_batch_215_500/2024-08-29-exp218\post-regen1-2024-08-30t07_39_39-lsvinphos\post-regen1_lsv_50mvs_efin_-2300mv.bin
Data Source:  Experiment
Instrument Model:  CHI760E
Header: LSV ran at 50 mVs with Efin at -2300mV
Note: 

Init E (V) = -0.6
Final E (V) = -2.3
Scan Rate (V/s) = 0.05
Sample Interval (V) = 0.001
Quiet Time (sec) = 2
Sensitivity (A/V) = 1e-4
Comp R (ohm) = 7.3

Results:

Channel 1:
Ep = -2.152V
ip = 5.295e-4A
Ah = 7.975e-4C

Potential/V, Current/A

-0.600, 2.233e-6
-0.601, 2.311e-6
-0.602, 2.353e-6
-0.603, 2.383e-6
-0.604, 2.410e-6
-0.605, 2.434e-6
-0.606, 2.456e-6
-0.607, 2.478e-6
-0.608, 2.499e-6
-0.609, 2.523e-6
-0.610, 2.543e-6
-0.611, 2.564e-6
-0.612, 2.586e-6
-0.613, 2.607e-6
-0.614, 2.630e-6
-0.615, 2.651e-6
-0.616, 2.672e-6
-0.617, 2.692e-6
-0.618, 2.711e-6
-0.619, 2.733e-6
-0.620, 2.753e-6
-0.621, 2.774e-6
-0.622, 2.795e-6
-0.623, 2.816e-6
-0.624, 2.838e-6
-0.625, 2.858e-6
-0.626, 2.879e-6
-0.627, 2.901e-6
-0.628, 2.922e-6
-0.629, 2.943e-6
-0.630, 2.964e-6
-0.631, 2.986e-6
-0.632, 3.006e-6
-0.633, 3.030e-6
-0.634, 3.053e-6
-0.635, 3.072e-6
-0.636, 3.096e-6
-0.637, 3.118e-6
-0.638, 3.141e-6
-0.639, 3.163e-6
-0.640, 3.186e-6
-0.641, 3.210e-6
-0.642, 3.230e-6
-0.643, 3.254e-6
-0.644, 3.277e-6
-0.645, 3.299e-6
-0.646, 3.323e-6
-0.647, 3.347e-6
-0.648, 3.371e-6
-0.649, 3.396e-6
-0.650, 3.418e-6
-0.651, 3.442e-6
-0.652, 3.466e-6
-0.653, 3.491e-6
-0.654, 3.516e-6
-0.655, 3.538e-6
-0.656, 3.563e-6
-0.657, 3.588e-6
-0.658, 3.613e-6
-0.659, 3.639e-6
-0.660, 3.663e-6
-0.661, 3.689e-6
-0.662, 3.715e-6
-0.663, 3.740e-6
-0.664, 3.767e-6
-0.665, 3.792e-6
-0.666, 3.820e-6
-0.667, 3.845e-6
-0.668, 3.873e-6
-0.669, 3.899e-6
-0.670, 3.924e-6
-0.671, 3.950e-6
-0.672, 3.977e-6
-0.673, 4.005e-6
-0.674, 4.032e-6
-0.675, 4.058e-6
-0.676, 4.084e-6
-0.677, 4.112e-6
-0.678, 4.139e-6
-0.679, 4.168e-6
-0.680, 4.193e-6
-0.681, 4.221e-6
-0.682, 4.247e-6
-0.683, 4.276e-6
-0.684, 4.304e-6
-0.685, 4.331e-6
-0.686, 4.361e-6
-0.687, 4.388e-6
-0.688, 4.416e-6
-0.689, 4.446e-6
-0.690, 4.474e-6
-0.691, 4.505e-6
-0.692, 4.536e-6
-0.693, 4.565e-6
-0.694, 4.595e-6
-0.695, 4.623e-6
-0.696, 4.652e-6
-0.697, 4.682e-6
-0.698, 4.713e-6
-0.699, 4.742e-6
-0.700, 4.772e-6
-0.701, 4.801e-6
-0.702, 4.832e-6
-0.703, 4.861e-6
-0.704, 4.892e-6
-0.705, 4.920e-6
-0.706, 4.952e-6
-0.707, 4.981e-6
-0.708, 5.013e-6
-0.709, 5.044e-6
-0.710, 5.075e-6
-0.711, 5.107e-6
-0.712, 5.135e-6
-0.713, 5.166e-6
-0.714, 5.197e-6
-0.715, 5.227e-6
-0.716, 5.259e-6
-0.717, 5.290e-6
-0.718, 5.321e-6
-0.719, 5.351e-6
-0.720, 5.382e-6
-0.721, 5.414e-6
-0.722, 5.442e-6
-0.723, 5.475e-6
-0.724, 5.506e-6
-0.725, 5.535e-6
-0.726, 5.568e-6
-0.727, 5.598e-6
-0.728, 5.630e-6
-0.729, 5.659e-6
-0.730, 5.689e-6
-0.731, 5.721e-6
-0.732, 5.751e-6
-0.733, 5.783e-6
-0.734, 5.813e-6
-0.735, 5.844e-6
-0.736, 5.875e-6
-0.737, 5.903e-6
-0.738, 5.930e-6
-0.739, 5.960e-6
-0.740, 5.989e-6
-0.741, 6.019e-6
-0.742, 6.049e-6
-0.743, 6.078e-6
-0.744, 6.109e-6
-0.745, 6.138e-6
-0.746, 6.166e-6
-0.747, 6.193e-6
-0.748, 6.221e-6
-0.749, 6.248e-6
-0.750, 6.277e-6
-0.751, 6.305e-6
-0.752, 6.332e-6
-0.753, 6.362e-6
-0.754, 6.389e-6
-0.755, 6.417e-6
-0.756, 6.446e-6
-0.757, 6.471e-6
-0.758, 6.499e-6
-0.759, 6.525e-6
-0.760, 6.552e-6
-0.761, 6.579e-6
-0.762, 6.603e-6
-0.763, 6.630e-6
-0.764, 6.655e-6
-0.765, 6.680e-6
-0.766, 6.706e-6
-0.767, 6.729e-6
-0.768, 6.754e-6
-0.769, 6.779e-6
-0.770, 6.802e-6
-0.771, 6.827e-6
-0.772, 6.850e-6
-0.773, 6.871e-6
-0.774, 6.893e-6
-0.775, 6.913e-6
-0.776, 6.935e-6
-0.777, 6.957e-6
-0.778, 6.978e-6
-0.779, 6.999e-6
-0.780, 7.018e-6
-0.781, 7.038e-6
-0.782, 7.057e-6
-0.783, 7.077e-6
-0.784, 7.095e-6
-0.785, 7.113e-6
-0.786, 7.131e-6
-0.787, 7.150e-6
-0.788, 7.167e-6
-0.789, 7.183e-6
-0.790, 7.199e-6
-0.791, 7.215e-6
-0.792, 7.231e-6
-0.793, 7.246e-6
-0.794, 7.260e-6
-0.795, 7.274e-6
-0.796, 7.288e-6
-0.797, 7.301e-6
-0.798, 7.316e-6
-0.799, 7.328e-6
-0.800, 7.339e-6
-0.801, 7.351e-6
-0.802, 7.362e-6
-0.803, 7.373e-6
-0.804, 7.384e-6
-0.805, 7.392e-6
-0.806, 7.403e-6
-0.807, 7.413e-6
-0.808, 7.422e-6
-0.809, 7.431e-6
-0.810, 7.437e-6
-0.811, 7.446e-6
-0.812, 7.453e-6
-0.813, 7.461e-6
-0.814, 7.468e-6
-0.815, 7.473e-6
-0.816, 7.480e-6
-0.817, 7.485e-6
-0.818, 7.488e-6
-0.819, 7.497e-6
-0.820, 7.504e-6
-0.821, 7.506e-6
-0.822, 7.510e-6
-0.823, 7.511e-6
-0.824, 7.514e-6
-0.825, 7.517e-6
-0.826, 7.519e-6
-0.827, 7.520e-6
-0.828, 7.521e-6
-0.829, 7.521e-6
-0.830, 7.522e-6
-0.831, 7.522e-6
-0.832, 7.522e-6
-0.833, 7.522e-6
-0.834, 7.520e-6
-0.835, 7.519e-6
-0.836, 7.518e-6
-0.837, 7.516e-6
-0.838, 7.514e-6
-0.839, 7.510e-6
-0.840, 7.508e-6
-0.841, 7.505e-6
-0.842, 7.501e-6
-0.843, 7.499e-6
-0.844, 7.493e-6
-0.845, 7.490e-6
-0.846, 7.486e-6
-0.847, 7.480e-6
-0.848, 7.476e-6
-0.849, 7.470e-6
-0.850, 7.463e-6
-0.851, 7.458e-6
-0.852, 7.451e-6
-0.853, 7.446e-6
-0.854, 7.439e-6
-0.855, 7.432e-6
-0.856, 7.425e-6
-0.857, 7.419e-6
-0.858, 7.412e-6
-0.859, 7.404e-6
-0.860, 7.396e-6
-0.861, 7.389e-6
-0.862, 7.380e-6
-0.863, 7.371e-6
-0.864, 7.364e-6
-0.865, 7.354e-6
-0.866, 7.346e-6
-0.867, 7.338e-6
-0.868, 7.330e-6
-0.869, 7.318e-6
-0.870, 7.311e-6
-0.871, 7.304e-6
-0.872, 7.293e-6
-0.873, 7.284e-6
-0.874, 7.272e-6
-0.875, 7.263e-6
-0.876, 7.254e-6
-0.877, 7.243e-6
-0.878, 7.234e-6
-0.879, 7.224e-6
-0.880, 7.213e-6
-0.881, 7.202e-6
-0.882, 7.191e-6
-0.883, 7.182e-6
-0.884, 7.172e-6
-0.885, 7.159e-6
-0.886, 7.148e-6
-0.887, 7.137e-6
-0.888, 7.127e-6
-0.889, 7.115e-6
-0.890, 7.105e-6
-0.891, 7.092e-6
-0.892, 7.082e-6
-0.893, 7.072e-6
-0.894, 7.059e-6
-0.895, 7.047e-6
-0.896, 7.037e-6
-0.897, 7.026e-6
-0.898, 7.015e-6
-0.899, 7.004e-6
-0.900, 6.992e-6
-0.901, 6.980e-6
-0.902, 6.968e-6
-0.903, 6.958e-6
-0.904, 6.946e-6
-0.905, 6.935e-6
-0.906, 6.924e-6
-0.907, 6.912e-6
-0.908, 6.901e-6
-0.909, 6.891e-6
-0.910, 6.881e-6
-0.911, 6.868e-6
-0.912, 6.858e-6
-0.913, 6.847e-6
-0.914, 6.834e-6
-0.915, 6.825e-6
-0.916, 6.813e-6
-0.917, 6.801e-6
-0.918, 6.791e-6
-0.919, 6.778e-6
-0.920, 6.768e-6
-0.921, 6.757e-6
-0.922, 6.747e-6
-0.923, 6.735e-6
-0.924, 6.724e-6
-0.925, 6.713e-6
-0.926, 6.702e-6
-0.927, 6.691e-6
-0.928, 6.682e-6
-0.929, 6.670e-6
-0.930, 6.659e-6
-0.931, 6.649e-6
-0.932, 6.637e-6
-0.933, 6.628e-6
-0.934, 6.617e-6
-0.935, 6.607e-6
-0.936, 6.596e-6
-0.937, 6.586e-6
-0.938, 6.576e-6
-0.939, 6.566e-6
-0.940, 6.555e-6
-0.941, 6.544e-6
-0.942, 6.534e-6
-0.943, 6.524e-6
-0.944, 6.514e-6
-0.945, 6.505e-6
-0.946, 6.495e-6
-0.947, 6.486e-6
-0.948, 6.477e-6
-0.949, 6.466e-6
-0.950, 6.456e-6
-0.951, 6.447e-6
-0.952, 6.437e-6
-0.953, 6.429e-6
-0.954, 6.419e-6
-0.955, 6.410e-6
-0.956, 6.400e-6
-0.957, 6.390e-6
-0.958, 6.381e-6
-0.959, 6.370e-6
-0.960, 6.364e-6
-0.961, 6.355e-6
-0.962, 6.345e-6
-0.963, 6.337e-6
-0.964, 6.327e-6
-0.965, 6.318e-6
-0.966, 6.310e-6
-0.967, 6.301e-6
-0.968, 6.292e-6
-0.969, 6.284e-6
-0.970, 6.275e-6
-0.971, 6.267e-6
-0.972, 6.259e-6
-0.973, 6.253e-6
-0.974, 6.244e-6
-0.975, 6.236e-6
-0.976, 6.227e-6
-0.977, 6.220e-6
-0.978, 6.212e-6
-0.979, 6.205e-6
-0.980, 6.198e-6
-0.981, 6.189e-6
-0.982, 6.182e-6
-0.983, 6.175e-6
-0.984, 6.166e-6
-0.985, 6.160e-6
-0.986, 6.152e-6
-0.987, 6.145e-6
-0.988, 6.139e-6
-0.989, 6.129e-6
-0.990, 6.123e-6
-0.991, 6.114e-6
-0.992, 6.108e-6
-0.993, 6.102e-6
-0.994, 6.093e-6
-0.995, 6.086e-6
-0.996, 6.079e-6
-0.997, 6.071e-6
-0.998, 6.066e-6
-0.999, 6.059e-6
-1.000, 6.051e-6
-1.001, 6.046e-6
-1.002, 6.038e-6
-1.003, 6.032e-6
-1.004, 6.024e-6
-1.005, 6.018e-6
-1.006, 6.011e-6
-1.007, 6.004e-6
-1.008, 5.998e-6
-1.009, 5.990e-6
-1.010, 5.985e-6
-1.011, 5.979e-6
-1.012, 5.972e-6
-1.013, 5.966e-6
-1.014, 5.959e-6
-1.015, 5.954e-6
-1.016, 5.948e-6
-1.017, 5.942e-6
-1.018, 5.936e-6
-1.019, 5.930e-6
-1.020, 5.925e-6
-1.021, 5.919e-6
-1.022, 5.914e-6
-1.023, 5.908e-6
-1.024, 5.904e-6
-1.025, 5.900e-6
-1.026, 5.894e-6
-1.027, 5.889e-6
-1.028, 5.884e-6
-1.029, 5.876e-6
-1.030, 5.874e-6
-1.031, 5.866e-6
-1.032, 5.861e-6
-1.033, 5.857e-6
-1.034, 5.850e-6
-1.035, 5.847e-6
-1.036, 5.842e-6
-1.037, 5.836e-6
-1.038, 5.832e-6
-1.039, 5.825e-6
-1.040, 5.821e-6
-1.041, 5.816e-6
-1.042, 5.811e-6
-1.043, 5.806e-6
-1.044, 5.801e-6
-1.045, 5.797e-6
-1.046, 5.792e-6
-1.047, 5.788e-6
-1.048, 5.783e-6
-1.049, 5.778e-6
-1.050, 5.774e-6
-1.051, 5.768e-6
-1.052, 5.764e-6
-1.053, 5.759e-6
-1.054, 5.755e-6
-1.055, 5.751e-6
-1.056, 5.746e-6
-1.057, 5.741e-6
-1.058, 5.735e-6
-1.059, 5.732e-6
-1.060, 5.728e-6
-1.061, 5.722e-6
-1.062, 5.719e-6
-1.063, 5.715e-6
-1.064, 5.711e-6
-1.065, 5.708e-6
-1.066, 5.702e-6
-1.067, 5.699e-6
-1.068, 5.696e-6
-1.069, 5.692e-6
-1.070, 5.688e-6
-1.071, 5.683e-6
-1.072, 5.680e-6
-1.073, 5.676e-6
-1.074, 5.672e-6
-1.075, 5.671e-6
-1.076, 5.668e-6
-1.077, 5.663e-6
-1.078, 5.661e-6
-1.079, 5.656e-6
-1.080, 5.653e-6
-1.081, 5.650e-6
-1.082, 5.647e-6
-1.083, 5.643e-6
-1.084, 5.640e-6
-1.085, 5.638e-6
-1.086, 5.633e-6
-1.087, 5.630e-6
-1.088, 5.628e-6
-1.089, 5.625e-6
-1.090, 5.622e-6
-1.091, 5.619e-6
-1.092, 5.616e-6
-1.093, 5.613e-6
-1.094, 5.610e-6
-1.095, 5.609e-6
-1.096, 5.605e-6
-1.097, 5.603e-6
-1.098, 5.600e-6
-1.099, 5.595e-6
-1.100, 5.594e-6
-1.101, 5.592e-6
-1.102, 5.591e-6
-1.103, 5.587e-6
-1.104, 5.584e-6
-1.105, 5.582e-6
-1.106, 5.579e-6
-1.107, 5.577e-6
-1.108, 5.574e-6
-1.109, 5.572e-6
-1.110, 5.570e-6
-1.111, 5.568e-6
-1.112, 5.566e-6
-1.113, 5.564e-6
-1.114, 5.562e-6
-1.115, 5.560e-6
-1.116, 5.558e-6
-1.117, 5.555e-6
-1.118, 5.553e-6
-1.119, 5.550e-6
-1.120, 5.550e-6
-1.121, 5.548e-6
-1.122, 5.546e-6
-1.123, 5.544e-6
-1.124, 5.542e-6
-1.125, 5.541e-6
-1.126, 5.539e-6
-1.127, 5.538e-6
-1.128, 5.536e-6
-1.129, 5.534e-6
-1.130, 5.532e-6
-1.131, 5.530e-6
-1.132, 5.530e-6
-1.133, 5.528e-6
-1.134, 5.527e-6
-1.135, 5.525e-6
-1.136, 5.524e-6
-1.137, 5.524e-6
-1.138, 5.520e-6
-1.139, 5.520e-6
-1.140, 5.520e-6
-1.141, 5.518e-6
-1.142, 5.517e-6
-1.143, 5.517e-6
-1.144, 5.514e-6
-1.145, 5.513e-6
-1.146, 5.511e-6
-1.147, 5.511e-6
-1.148, 5.509e-6
-1.149, 5.508e-6
-1.150, 5.507e-6
-1.151, 5.507e-6
-1.152, 5.507e-6
-1.153, 5.507e-6
-1.154, 5.505e-6
-1.155, 5.504e-6
-1.156, 5.504e-6
-1.157, 5.503e-6
-1.158, 5.503e-6
-1.159, 5.501e-6
-1.160, 5.501e-6
-1.161, 5.500e-6
-1.162, 5.500e-6
-1.163, 5.500e-6
-1.164, 5.498e-6
-1.165, 5.498e-6
-1.166, 5.499e-6
-1.167, 5.497e-6
-1.168, 5.497e-6
-1.169, 5.497e-6
-1.170, 5.496e-6
-1.171, 5.496e-6
-1.172, 5.497e-6
-1.173, 5.496e-6
-1.174, 5.497e-6
-1.175, 5.496e-6
-1.176, 5.496e-6
-1.177, 5.496e-6
-1.178, 5.498e-6
-1.179, 5.497e-6
-1.180, 5.498e-6
-1.181, 5.496e-6
-1.182, 5.498e-6
-1.183, 5.497e-6
-1.184, 5.497e-6
-1.185, 5.499e-6
-1.186, 5.498e-6
-1.187, 5.499e-6
-1.188, 5.500e-6
-1.189, 5.500e-6
-1.190, 5.501e-6
-1.191, 5.501e-6
-1.192, 5.501e-6
-1.193, 5.501e-6
-1.194, 5.502e-6
-1.195, 5.503e-6
-1.196, 5.503e-6
-1.197, 5.504e-6
-1.198, 5.503e-6
-1.199, 5.504e-6
-1.200, 5.506e-6
-1.201, 5.508e-6
-1.202, 5.509e-6
-1.203, 5.510e-6
-1.204, 5.511e-6
-1.205, 5.510e-6
-1.206, 5.512e-6
-1.207, 5.514e-6
-1.208, 5.514e-6
-1.209, 5.513e-6
-1.210, 5.515e-6
-1.211, 5.517e-6
-1.212, 5.518e-6
-1.213, 5.519e-6
-1.214, 5.520e-6
-1.215, 5.522e-6
-1.216, 5.524e-6
-1.217, 5.525e-6
-1.218, 5.527e-6
-1.219, 5.528e-6
-1.220, 5.529e-6
-1.221, 5.530e-6
-1.222, 5.533e-6
-1.223, 5.533e-6
-1.224, 5.535e-6
-1.225, 5.538e-6
-1.226, 5.538e-6
-1.227, 5.541e-6
-1.228, 5.542e-6
-1.229, 5.548e-6
-1.230, 5.549e-6
-1.231, 5.550e-6
-1.232, 5.552e-6
-1.233, 5.553e-6
-1.234, 5.555e-6
-1.235, 5.557e-6
-1.236, 5.559e-6
-1.237, 5.563e-6
-1.238, 5.564e-6
-1.239, 5.566e-6
-1.240, 5.568e-6
-1.241, 5.572e-6
-1.242, 5.574e-6
-1.243, 5.576e-6
-1.244, 5.578e-6
-1.245, 5.581e-6
-1.246, 5.584e-6
-1.247, 5.586e-6
-1.248, 5.588e-6
-1.249, 5.591e-6
-1.250, 5.592e-6
-1.251, 5.596e-6
-1.252, 5.599e-6
-1.253, 5.600e-6
-1.254, 5.606e-6
-1.255, 5.609e-6
-1.256, 5.611e-6
-1.257, 5.614e-6
-1.258, 5.616e-6
-1.259, 5.618e-6
-1.260, 5.621e-6
-1.261, 5.624e-6
-1.262, 5.629e-6
-1.263, 5.632e-6
-1.264, 5.635e-6
-1.265, 5.638e-6
-1.266, 5.640e-6
-1.267, 5.645e-6
-1.268, 5.647e-6
-1.269, 5.651e-6
-1.270, 5.655e-6
-1.271, 5.658e-6
-1.272, 5.662e-6
-1.273, 5.665e-6
-1.274, 5.669e-6
-1.275, 5.673e-6
-1.276, 5.677e-6
-1.277, 5.680e-6
-1.278, 5.684e-6
-1.279, 5.688e-6
-1.280, 5.693e-6
-1.281, 5.699e-6
-1.282, 5.702e-6
-1.283, 5.704e-6
-1.284, 5.710e-6
-1.285, 5.714e-6
-1.286, 5.718e-6
-1.287, 5.724e-6
-1.288, 5.726e-6
-1.289, 5.732e-6
-1.290, 5.736e-6
-1.291, 5.740e-6
-1.292, 5.746e-6
-1.293, 5.750e-6
-1.294, 5.755e-6
-1.295, 5.759e-6
-1.296, 5.764e-6
-1.297, 5.769e-6
-1.298, 5.773e-6
-1.299, 5.780e-6
-1.300, 5.784e-6
-1.301, 5.789e-6
-1.302, 5.795e-6
-1.303, 5.800e-6
-1.304, 5.805e-6
-1.305, 5.810e-6
-1.306, 5.815e-6
-1.307, 5.821e-6
-1.308, 5.826e-6
-1.309, 5.832e-6
-1.310, 5.837e-6
-1.311, 5.841e-6
-1.312, 5.849e-6
-1.313, 5.853e-6
-1.314, 5.858e-6
-1.315, 5.865e-6
-1.316, 5.869e-6
-1.317, 5.875e-6
-1.318, 5.881e-6
-1.319, 5.886e-6
-1.320, 5.891e-6
-1.321, 5.896e-6
-1.322, 5.902e-6
-1.323, 5.908e-6
-1.324, 5.915e-6
-1.325, 5.919e-6
-1.326, 5.925e-6
-1.327, 5.932e-6
-1.328, 5.937e-6
-1.329, 5.944e-6
-1.330, 5.949e-6
-1.331, 5.957e-6
-1.332, 5.964e-6
-1.333, 5.970e-6
-1.334, 5.978e-6
-1.335, 5.983e-6
-1.336, 5.990e-6
-1.337, 5.998e-6
-1.338, 6.004e-6
-1.339, 6.012e-6
-1.340, 6.018e-6
-1.341, 6.025e-6
-1.342, 6.033e-6
-1.343, 6.040e-6
-1.344, 6.048e-6
-1.345, 6.055e-6
-1.346, 6.063e-6
-1.347, 6.071e-6
-1.348, 6.078e-6
-1.349, 6.084e-6
-1.350, 6.092e-6
-1.351, 6.101e-6
-1.352, 6.109e-6
-1.353, 6.117e-6
-1.354, 6.123e-6
-1.355, 6.131e-6
-1.356, 6.140e-6
-1.357, 6.149e-6
-1.358, 6.157e-6
-1.359, 6.166e-6
-1.360, 6.173e-6
-1.361, 6.181e-6
-1.362, 6.189e-6
-1.363, 6.196e-6
-1.364, 6.205e-6
-1.365, 6.212e-6
-1.366, 6.222e-6
-1.367, 6.229e-6
-1.368, 6.238e-6
-1.369, 6.247e-6
-1.370, 6.256e-6
-1.371, 6.265e-6
-1.372, 6.274e-6
-1.373, 6.282e-6
-1.374, 6.292e-6
-1.375, 6.301e-6
-1.376, 6.311e-6
-1.377, 6.322e-6
-1.378, 6.329e-6
-1.379, 6.340e-6
-1.380, 6.349e-6
-1.381, 6.359e-6
-1.382, 6.370e-6
-1.383, 6.380e-6
-1.384, 6.391e-6
-1.385, 6.401e-6
-1.386, 6.411e-6
-1.387, 6.421e-6
-1.388, 6.429e-6
-1.389, 6.441e-6
-1.390, 6.453e-6
-1.391, 6.463e-6
-1.392, 6.474e-6
-1.393, 6.484e-6
-1.394, 6.496e-6
-1.395, 6.505e-6
-1.396, 6.517e-6
-1.397, 6.529e-6
-1.398, 6.540e-6
-1.399, 6.551e-6
-1.400, 6.563e-6
-1.401, 6.574e-6
-1.402, 6.585e-6
-1.403, 6.596e-6
-1.404, 6.609e-6
-1.405, 6.620e-6
-1.406, 6.632e-6
-1.407, 6.644e-6
-1.408, 6.657e-6
-1.409, 6.669e-6
-1.410, 6.681e-6
-1.411, 6.694e-6
-1.412, 6.705e-6
-1.413, 6.718e-6
-1.414, 6.731e-6
-1.415, 6.742e-6
-1.416, 6.756e-6
-1.417, 6.769e-6
-1.418, 6.783e-6
-1.419, 6.795e-6
-1.420, 6.807e-6
-1.421, 6.823e-6
-1.422, 6.836e-6
-1.423, 6.847e-6
-1.424, 6.860e-6
-1.425, 6.874e-6
-1.426, 6.887e-6
-1.427, 6.903e-6
-1.428, 6.916e-6
-1.429, 6.930e-6
-1.430, 6.943e-6
-1.431, 6.957e-6
-1.432, 6.973e-6
-1.433, 6.987e-6
-1.434, 7.004e-6
-1.435, 7.017e-6
-1.436, 7.031e-6
-1.437, 7.046e-6
-1.438, 7.061e-6
-1.439, 7.075e-6
-1.440, 7.091e-6
-1.441, 7.108e-6
-1.442, 7.122e-6
-1.443, 7.138e-6
-1.444, 7.153e-6
-1.445, 7.168e-6
-1.446, 7.187e-6
-1.447, 7.202e-6
-1.448, 7.217e-6
-1.449, 7.233e-6
-1.450, 7.248e-6
-1.451, 7.265e-6
-1.452, 7.281e-6
-1.453, 7.297e-6
-1.454, 7.315e-6
-1.455, 7.331e-6
-1.456, 7.348e-6
-1.457, 7.364e-6
-1.458, 7.381e-6
-1.459, 7.401e-6
-1.460, 7.418e-6
-1.461, 7.435e-6
-1.462, 7.453e-6
-1.463, 7.472e-6
-1.464, 7.492e-6
-1.465, 7.508e-6
-1.466, 7.527e-6
-1.467, 7.545e-6
-1.468, 7.562e-6
-1.469, 7.581e-6
-1.470, 7.601e-6
-1.471, 7.620e-6
-1.472, 7.638e-6
-1.473, 7.659e-6
-1.474, 7.679e-6
-1.475, 7.698e-6
-1.476, 7.718e-6
-1.477, 7.739e-6
-1.478, 7.758e-6
-1.479, 7.778e-6
-1.480, 7.797e-6
-1.481, 7.819e-6
-1.482, 7.839e-6
-1.483, 7.859e-6
-1.484, 7.882e-6
-1.485, 7.906e-6
-1.486, 7.928e-6
-1.487, 7.946e-6
-1.488, 7.969e-6
-1.489, 7.991e-6
-1.490, 8.010e-6
-1.491, 8.032e-6
-1.492, 8.054e-6
-1.493, 8.076e-6
-1.494, 8.100e-6
-1.495, 8.121e-6
-1.496, 8.145e-6
-1.497, 8.168e-6
-1.498, 8.191e-6
-1.499, 8.216e-6
-1.500, 8.240e-6
-1.501, 8.264e-6
-1.502, 8.289e-6
-1.503, 8.311e-6
-1.504, 8.334e-6
-1.505, 8.358e-6
-1.506, 8.381e-6
-1.507, 8.404e-6
-1.508, 8.429e-6
-1.509, 8.453e-6
-1.510, 8.479e-6
-1.511, 8.506e-6
-1.512, 8.531e-6
-1.513, 8.555e-6
-1.514, 8.579e-6
-1.515, 8.604e-6
-1.516, 8.627e-6
-1.517, 8.652e-6
-1.518, 8.678e-6
-1.519, 8.704e-6
-1.520, 8.729e-6
-1.521, 8.756e-6
-1.522, 8.783e-6
-1.523, 8.810e-6
-1.524, 8.837e-6
-1.525, 8.861e-6
-1.526, 8.887e-6
-1.527, 8.911e-6
-1.528, 8.940e-6
-1.529, 8.966e-6
-1.530, 8.994e-6
-1.531, 9.023e-6
-1.532, 9.050e-6
-1.533, 9.077e-6
-1.534, 9.105e-6
-1.535, 9.131e-6
-1.536, 9.161e-6
-1.537, 9.190e-6
-1.538, 9.218e-6
-1.539, 9.246e-6
-1.540, 9.276e-6
-1.541, 9.304e-6
-1.542, 9.333e-6
-1.543, 9.361e-6
-1.544, 9.389e-6
-1.545, 9.417e-6
-1.546, 9.447e-6
-1.547, 9.477e-6
-1.548, 9.507e-6
-1.549, 9.537e-6
-1.550, 9.567e-6
-1.551, 9.597e-6
-1.552, 9.625e-6
-1.553, 9.655e-6
-1.554, 9.685e-6
-1.555, 9.716e-6
-1.556, 9.749e-6
-1.557, 9.779e-6
-1.558, 9.810e-6
-1.559, 9.841e-6
-1.560, 9.873e-6
-1.561, 9.905e-6
-1.562, 9.934e-6
-1.563, 9.967e-6
-1.564, 1.000e-5
-1.565, 1.003e-5
-1.566, 1.006e-5
-1.567, 1.009e-5
-1.568, 1.012e-5
-1.569, 1.016e-5
-1.570, 1.019e-5
-1.571, 1.022e-5
-1.572, 1.025e-5
-1.573, 1.028e-5
-1.574, 1.032e-5
-1.575, 1.035e-5
-1.576, 1.038e-5
-1.577, 1.042e-5
-1.578, 1.045e-5
-1.579, 1.048e-5
-1.580, 1.052e-5
-1.581, 1.055e-5
-1.582, 1.058e-5
-1.583, 1.062e-5
-1.584, 1.065e-5
-1.585, 1.069e-5
-1.586, 1.072e-5
-1.587, 1.076e-5
-1.588, 1.080e-5
-1.589, 1.083e-5
-1.590, 1.087e-5
-1.591, 1.090e-5
-1.592, 1.094e-5
-1.593, 1.097e-5
-1.594, 1.101e-5
-1.595, 1.104e-5
-1.596, 1.108e-5
-1.597, 1.111e-5
-1.598, 1.115e-5
-1.599, 1.119e-5
-1.600, 1.123e-5
-1.601, 1.126e-5
-1.602, 1.130e-5
-1.603, 1.134e-5
-1.604, 1.138e-5
-1.605, 1.141e-5
-1.606, 1.145e-5
-1.607, 1.149e-5
-1.608, 1.153e-5
-1.609, 1.157e-5
-1.610, 1.161e-5
-1.611, 1.165e-5
-1.612, 1.169e-5
-1.613, 1.173e-5
-1.614, 1.177e-5
-1.615, 1.181e-5
-1.616, 1.185e-5
-1.617, 1.189e-5
-1.618, 1.193e-5
-1.619, 1.197e-5
-1.620, 1.201e-5
-1.621, 1.205e-5
-1.622, 1.208e-5
-1.623, 1.212e-5
-1.624, 1.216e-5
-1.625, 1.220e-5
-1.626, 1.225e-5
-1.627, 1.229e-5
-1.628, 1.233e-5
-1.629, 1.238e-5
-1.630, 1.242e-5
-1.631, 1.246e-5
-1.632, 1.251e-5
-1.633, 1.256e-5
-1.634, 1.260e-5
-1.635, 1.265e-5
-1.636, 1.269e-5
-1.637, 1.274e-5
-1.638, 1.279e-5
-1.639, 1.285e-5
-1.640, 1.289e-5
-1.641, 1.294e-5
-1.642, 1.298e-5
-1.643, 1.303e-5
-1.644, 1.309e-5
-1.645, 1.313e-5
-1.646, 1.318e-5
-1.647, 1.323e-5
-1.648, 1.328e-5
-1.649, 1.334e-5
-1.650, 1.339e-5
-1.651, 1.344e-5
-1.652, 1.349e-5
-1.653, 1.355e-5
-1.654, 1.360e-5
-1.655, 1.366e-5
-1.656, 1.371e-5
-1.657, 1.377e-5
-1.658, 1.383e-5
-1.659, 1.388e-5
-1.660, 1.394e-5
-1.661, 1.400e-5
-1.662, 1.405e-5
-1.663, 1.411e-5
-1.664, 1.416e-5
-1.665, 1.423e-5
-1.666, 1.428e-5
-1.667, 1.435e-5
-1.668, 1.441e-5
-1.669, 1.447e-5
-1.670, 1.453e-5
-1.671, 1.460e-5
-1.672, 1.466e-5
-1.673, 1.473e-5
-1.674, 1.479e-5
-1.675, 1.486e-5
-1.676, 1.492e-5
-1.677, 1.499e-5
-1.678, 1.506e-5
-1.679, 1.513e-5
-1.680, 1.521e-5
-1.681, 1.528e-5
-1.682, 1.535e-5
-1.683, 1.542e-5
-1.684, 1.550e-5
-1.685, 1.557e-5
-1.686, 1.565e-5
-1.687, 1.572e-5
-1.688, 1.580e-5
-1.689, 1.588e-5
-1.690, 1.597e-5
-1.691, 1.605e-5
-1.692, 1.613e-5
-1.693, 1.621e-5
-1.694, 1.629e-5
-1.695, 1.637e-5
-1.696, 1.646e-5
-1.697, 1.655e-5
-1.698, 1.663e-5
-1.699, 1.672e-5
-1.700, 1.681e-5
-1.701, 1.690e-5
-1.702, 1.699e-5
-1.703, 1.709e-5
-1.704, 1.718e-5
-1.705, 1.727e-5
-1.706, 1.737e-5
-1.707, 1.747e-5
-1.708, 1.757e-5
-1.709, 1.767e-5
-1.710, 1.777e-5
-1.711, 1.787e-5
-1.712, 1.798e-5
-1.713, 1.808e-5
-1.714, 1.818e-5
-1.715, 1.829e-5
-1.716, 1.840e-5
-1.717, 1.851e-5
-1.718, 1.863e-5
-1.719, 1.874e-5
-1.720, 1.885e-5
-1.721, 1.897e-5
-1.722, 1.908e-5
-1.723, 1.920e-5
-1.724, 1.932e-5
-1.725, 1.945e-5
-1.726, 1.957e-5
-1.727, 1.970e-5
-1.728, 1.983e-5
-1.729, 1.996e-5
-1.730, 2.008e-5
-1.731, 2.022e-5
-1.732, 2.035e-5
-1.733, 2.049e-5
-1.734, 2.063e-5
-1.735, 2.077e-5
-1.736, 2.091e-5
-1.737, 2.105e-5
-1.738, 2.120e-5
-1.739, 2.135e-5
-1.740, 2.150e-5
-1.741, 2.166e-5
-1.742, 2.181e-5
-1.743, 2.197e-5
-1.744, 2.212e-5
-1.745, 2.228e-5
-1.746, 2.244e-5
-1.747, 2.261e-5
-1.748, 2.279e-5
-1.749, 2.296e-5
-1.750, 2.313e-5
-1.751, 2.331e-5
-1.752, 2.349e-5
-1.753, 2.367e-5
-1.754, 2.385e-5
-1.755, 2.405e-5
-1.756, 2.425e-5
-1.757, 2.443e-5
-1.758, 2.462e-5
-1.759, 2.482e-5
-1.760, 2.502e-5
-1.761, 2.522e-5
-1.762, 2.543e-5
-1.763, 2.564e-5
-1.764, 2.585e-5
-1.765, 2.606e-5
-1.766, 2.628e-5
-1.767, 2.651e-5
-1.768, 2.673e-5
-1.769, 2.696e-5
-1.770, 2.719e-5
-1.771, 2.743e-5
-1.772, 2.767e-5
-1.773, 2.790e-5
-1.774, 2.814e-5
-1.775, 2.840e-5
-1.776, 2.865e-5
-1.777, 2.890e-5
-1.778, 2.916e-5
-1.779, 2.942e-5
-1.780, 2.968e-5
-1.781, 2.995e-5
-1.782, 3.022e-5
-1.783, 3.049e-5
-1.784, 3.076e-5
-1.785, 3.102e-5
-1.786, 3.131e-5
-1.787, 3.161e-5
-1.788, 3.191e-5
-1.789, 3.222e-5
-1.790, 3.253e-5
-1.791, 3.282e-5
-1.792, 3.315e-5
-1.793, 3.347e-5
-1.794, 3.380e-5
-1.795, 3.413e-5
-1.796, 3.445e-5
-1.797, 3.480e-5
-1.798, 3.514e-5
-1.799, 3.550e-5
-1.800, 3.587e-5
-1.801, 3.624e-5
-1.802, 3.660e-5
-1.803, 3.696e-5
-1.804, 3.733e-5
-1.805, 3.770e-5
-1.806, 3.809e-5
-1.807, 3.847e-5
-1.808, 3.886e-5
-1.809, 3.926e-5
-1.810, 3.966e-5
-1.811, 4.008e-5
-1.812, 4.053e-5
-1.813, 4.095e-5
-1.814, 4.138e-5
-1.815, 4.181e-5
-1.816, 4.225e-5
-1.817, 4.270e-5
-1.818, 4.316e-5
-1.819, 4.359e-5
-1.820, 4.402e-5
-1.821, 4.450e-5
-1.822, 4.498e-5
-1.823, 4.547e-5
-1.824, 4.598e-5
-1.825, 4.649e-5
-1.826, 4.700e-5
-1.827, 4.752e-5
-1.828, 4.804e-5
-1.829, 4.856e-5
-1.830, 4.907e-5
-1.831, 4.961e-5
-1.832, 5.016e-5
-1.833, 5.072e-5
-1.834, 5.127e-5
-1.835, 5.181e-5
-1.836, 5.238e-5
-1.837, 5.296e-5
-1.838, 5.355e-5
-1.839, 5.418e-5
-1.840, 5.481e-5
-1.841, 5.542e-5
-1.842, 5.604e-5
-1.843, 5.666e-5
-1.844, 5.728e-5
-1.845, 5.791e-5
-1.846, 5.854e-5
-1.847, 5.917e-5
-1.848, 5.984e-5
-1.849, 6.054e-5
-1.850, 6.122e-5
-1.851, 6.189e-5
-1.852, 6.257e-5
-1.853, 6.326e-5
-1.854, 6.395e-5
-1.855, 6.469e-5
-1.856, 6.558e-5
-1.857, 6.637e-5
-1.858, 6.715e-5
-1.859, 6.793e-5
-1.860, 6.868e-5
-1.861, 6.941e-5
-1.862, 7.016e-5
-1.863, 7.090e-5
-1.864, 7.172e-5
-1.865, 7.273e-5
-1.866, 7.365e-5
-1.867, 7.454e-5
-1.868, 7.541e-5
-1.869, 7.620e-5
-1.870, 7.701e-5
-1.871, 7.789e-5
-1.872, 7.878e-5
-1.873, 7.968e-5
-1.874, 8.062e-5
-1.875, 8.174e-5
-1.876, 8.279e-5
-1.877, 8.371e-5
-1.878, 8.461e-5
-1.879, 8.548e-5
-1.880, 8.640e-5
-1.881, 8.738e-5
-1.882, 8.851e-5
-1.883, 8.976e-5
-1.884, 9.084e-5
-1.885, 9.177e-5
-1.886, 9.268e-5
-1.887, 9.358e-5
-1.888, 9.462e-5
-1.889, 9.573e-5
-1.890, 9.688e-5
-1.891, 9.798e-5
-1.892, 9.906e-5
-1.893, 1.003e-4
-1.894, 1.015e-4
-1.895, 1.026e-4
-1.896, 1.037e-4
-1.897, 1.048e-4
-1.898, 1.059e-4
-1.899, 1.071e-4
-1.900, 1.083e-4
-1.901, 1.096e-4
-1.902, 1.109e-4
-1.903, 1.122e-4
-1.904, 1.134e-4
-1.905, 1.147e-4
-1.906, 1.160e-4
-1.907, 1.173e-4
-1.908, 1.186e-4
-1.909, 1.200e-4
-1.910, 1.214e-4
-1.911, 1.228e-4
-1.912, 1.242e-4
-1.913, 1.256e-4
-1.914, 1.271e-4
-1.915, 1.285e-4
-1.916, 1.299e-4
-1.917, 1.312e-4
-1.918, 1.328e-4
-1.919, 1.344e-4
-1.920, 1.359e-4
-1.921, 1.373e-4
-1.922, 1.386e-4
-1.923, 1.400e-4
-1.924, 1.414e-4
-1.925, 1.429e-4
-1.926, 1.445e-4
-1.927, 1.460e-4
-1.928, 1.476e-4
-1.929, 1.491e-4
-1.930, 1.507e-4
-1.931, 1.523e-4
-1.932, 1.539e-4
-1.933, 1.556e-4
-1.934, 1.573e-4
-1.935, 1.590e-4
-1.936, 1.607e-4
-1.937, 1.624e-4
-1.938, 1.643e-4
-1.939, 1.662e-4
-1.940, 1.680e-4
-1.941, 1.697e-4
-1.942, 1.715e-4
-1.943, 1.734e-4
-1.944, 1.751e-4
-1.945, 1.771e-4
-1.946, 1.793e-4
-1.947, 1.813e-4
-1.948, 1.834e-4
-1.949, 1.855e-4
-1.950, 1.875e-4
-1.951, 1.895e-4
-1.952, 1.916e-4
-1.953, 1.934e-4
-1.954, 1.955e-4
-1.955, 1.977e-4
-1.956, 1.997e-4
-1.957, 2.019e-4
-1.958, 2.039e-4
-1.959, 2.061e-4
-1.960, 2.083e-4
-1.961, 2.104e-4
-1.962, 2.128e-4
-1.963, 2.152e-4
-1.964, 2.173e-4
-1.965, 2.194e-4
-1.966, 2.215e-4
-1.967, 2.237e-4
-1.968, 2.261e-4
-1.969, 2.285e-4
-1.970, 2.309e-4
-1.971, 2.332e-4
-1.972, 2.356e-4
-1.973, 2.379e-4
-1.974, 2.402e-4
-1.975, 2.428e-4
-1.976, 2.451e-4
-1.977, 2.479e-4
-1.978, 2.508e-4
-1.979, 2.535e-4
-1.980, 2.558e-4
-1.981, 2.583e-4
-1.982, 2.608e-4
-1.983, 2.631e-4
-1.984, 2.660e-4
-1.985, 2.687e-4
-1.986, 2.712e-4
-1.987, 2.741e-4
-1.988, 2.769e-4
-1.989, 2.794e-4
-1.990, 2.828e-4
-1.991, 2.863e-4
-1.992, 2.889e-4
-1.993, 2.919e-4
-1.994, 2.942e-4
-1.995, 2.972e-4
-1.996, 3.004e-4
-1.997, 3.034e-4
-1.998, 3.063e-4
-1.999, 3.090e-4
-2.000, 3.120e-4
-2.001, 3.153e-4
-2.002, 3.185e-4
-2.003, 3.215e-4
-2.004, 3.249e-4
-2.005, 3.279e-4
-2.006, 3.305e-4
-2.007, 3.337e-4
-2.008, 3.366e-4
-2.009, 3.404e-4
-2.010, 3.433e-4
-2.011, 3.460e-4
-2.012, 3.490e-4
-2.013, 3.522e-4
-2.014, 3.557e-4
-2.015, 3.585e-4
-2.016, 3.620e-4
-2.017, 3.654e-4
-2.018, 3.684e-4
-2.019, 3.720e-4
-2.020, 3.756e-4
-2.021, 3.793e-4
-2.022, 3.822e-4
-2.023, 3.857e-4
-2.024, 3.892e-4
-2.025, 3.930e-4
-2.026, 3.968e-4
-2.027, 4.002e-4
-2.028, 4.036e-4
-2.029, 4.076e-4
-2.030, 4.108e-4
-2.031, 4.144e-4
-2.032, 4.178e-4
-2.033, 4.215e-4
-2.034, 4.252e-4
-2.035, 4.286e-4
-2.036, 4.317e-4
-2.037, 4.357e-4
-2.038, 4.396e-4
-2.039, 4.435e-4
-2.040, 4.469e-4
-2.041, 4.504e-4
-2.042, 4.542e-4
-2.043, 4.583e-4
-2.044, 4.620e-4
-2.045, 4.663e-4
-2.046, 4.706e-4
-2.047, 4.742e-4
-2.048, 4.779e-4
-2.049, 4.818e-4
-2.050, 4.859e-4
-2.051, 4.899e-4
-2.052, 4.936e-4
-2.053, 4.981e-4
-2.054, 5.024e-4
-2.055, 5.061e-4
-2.056, 5.105e-4
-2.057, 5.155e-4
-2.058, 5.199e-4
-2.059, 5.230e-4
-2.060, 5.274e-4
-2.061, 5.318e-4
-2.062, 5.360e-4
-2.063, 5.406e-4
-2.064, 5.447e-4
-2.065, 5.493e-4
-2.066, 5.530e-4
-2.067, 5.573e-4
-2.068, 5.618e-4
-2.069, 5.658e-4
-2.070, 5.697e-4
-2.071, 5.742e-4
-2.072, 5.790e-4
-2.073, 5.834e-4
-2.074, 5.882e-4
-2.075, 5.926e-4
-2.076, 5.967e-4
-2.077, 6.016e-4
-2.078, 6.060e-4
-2.079, 6.112e-4
-2.080, 6.160e-4
-2.081, 6.197e-4
-2.082, 6.243e-4
-2.083, 6.290e-4
-2.084, 6.340e-4
-2.085, 6.387e-4
-2.086, 6.430e-4
-2.087, 6.478e-4
-2.088, 6.523e-4
-2.089, 6.577e-4
-2.090, 6.624e-4
-2.091, 6.676e-4
-2.092, 6.724e-4
-2.093, 6.778e-4
-2.094, 6.837e-4
-2.095, 6.887e-4
-2.096, 6.930e-4
-2.097, 6.979e-4
-2.098, 7.023e-4
-2.099, 7.075e-4
-2.100, 7.128e-4
-2.101, 7.182e-4
-2.102, 7.233e-4
-2.103, 7.289e-4
-2.104, 7.345e-4
-2.105, 7.397e-4
-2.106, 7.440e-4
-2.107, 7.495e-4
-2.108, 7.547e-4
-2.109, 7.607e-4
-2.110, 7.662e-4
-2.111, 7.710e-4
-2.112, 7.761e-4
-2.113, 7.822e-4
-2.114, 7.882e-4
-2.115, 7.944e-4
-2.116, 7.995e-4
-2.117, 8.051e-4
-2.118, 8.104e-4
-2.119, 8.149e-4
-2.120, 8.209e-4
-2.121, 8.270e-4
-2.122, 8.328e-4
-2.123, 8.387e-4
-2.124, 8.442e-4
-2.125, 8.502e-4
-2.126, 8.559e-4
-2.127, 8.612e-4
-2.128, 8.672e-4
-2.129, 8.727e-4
-2.130, 8.787e-4
-2.131, 8.849e-4
-2.132, 8.909e-4
-2.133, 8.964e-4
-2.134, 9.024e-4
-2.135, 9.092e-4
-2.136, 9.144e-4
-2.137, 9.199e-4
-2.138, 9.264e-4
-2.139, 9.329e-4
-2.140, 9.388e-4
-2.141, 9.455e-4
-2.142, 9.511e-4
-2.143, 9.584e-4
-2.144, 9.651e-4
-2.145, 9.718e-4
-2.146, 9.777e-4
-2.147, 9.834e-4
-2.148, 9.902e-4
-2.149, 9.975e-4
-2.150, 1.004e-3
-2.151, 1.010e-3
-2.152, 1.011e-3
-2.153, 1.011e-3
-2.154, 1.011e-3
-2.155, 1.011e-3
-2.156, 1.011e-3
-2.157, 1.011e-3
-2.158, 1.011e-3
-2.159, 1.011e-3
-2.160, 1.011e-3
-2.161, 1.011e-3
-2.162, 1.011e-3
-2.163, 1.011e-3
-2.164, 1.011e-3
-2.165, 1.011e-3
-2.166, 1.011e-3
-2.167, 1.011e-3
-2.168, 1.011e-3
-2.169, 1.011e-3
-2.170, 1.011e-3
-2.171, 1.011e-3
-2.172, 1.011e-3
-2.173, 1.011e-3
-2.174, 1.011e-3
-2.175, 1.011e-3
-2.176, 1.011e-3
-2.177, 1.011e-3
-2.178, 1.011e-3
-2.179, 1.011e-3
-2.180, 1.011e-3
-2.181, 1.011e-3
-2.182, 1.011e-3
-2.183, 1.011e-3
-2.184, 1.011e-3
-2.185, 1.011e-3
-2.186, 1.011e-3
-2.187, 1.011e-3
-2.188, 1.011e-3
-2.189, 1.011e-3
-2.190, 1.011e-3
-2.191, 1.011e-3
-2.192, 1.011e-3
-2.193, 1.011e-3
-2.194, 1.011e-3
-2.195, 1.011e-3
-2.196, 1.011e-3
-2.197, 1.011e-3
-2.198, 1.011e-3
-2.199, 1.011e-3
-2.200, 1.011e-3
-2.201, 1.011e-3
-2.202, 1.011e-3
-2.203, 1.011e-3
-2.204, 1.011e-3
-2.205, 1.011e-3
-2.206, 1.011e-3
-2.207, 1.011e-3
-2.208, 1.011e-3
-2.209, 1.011e-3
-2.210, 1.011e-3
-2.211, 1.011e-3
-2.212, 1.011e-3
-2.213, 1.011e-3
-2.214, 1.011e-3
-2.215, 1.011e-3
-2.216, 1.011e-3
-2.217, 1.011e-3
-2.218, 1.011e-3
-2.219, 1.011e-3
-2.220, 1.011e-3
-2.221, 1.011e-3
-2.222, 1.011e-3
-2.223, 1.011e-3
-2.224, 1.011e-3
-2.225, 1.011e-3
-2.226, 1.011e-3
-2.227, 1.011e-3
-2.228, 1.011e-3
-2.229, 1.011e-3
-2.230, 1.011e-3
-2.231, 1.011e-3
-2.232, 1.011e-3
-2.233, 1.011e-3
-2.234, 1.011e-3
-2.235, 1.011e-3
-2.236, 1.011e-3
-2.237, 1.011e-3
-2.238, 1.011e-3
-2.239, 1.011e-3
-2.240, 1.011e-3
-2.241, 1.011e-3
-2.242, 1.011e-3
-2.243, 1.011e-3
-2.244, 1.011e-3
-2.245, 1.011e-3
-2.246, 1.011e-3
-2.247, 1.011e-3
-2.248, 1.011e-3
-2.249, 1.011e-3
-2.250, 1.011e-3
-2.251, 1.011e-3
-2.252, 1.011e-3
-2.253, 1.011e-3
-2.254, 1.011e-3
-2.255, 1.011e-3
-2.256, 1.011e-3
-2.257, 1.011e-3
-2.258, 1.011e-3
-2.259, 1.011e-3
-2.260, 1.011e-3
-2.261, 1.011e-3
-2.262, 1.011e-3
-2.263, 1.011e-3
-2.264, 1.011e-3
-2.265, 1.011e-3
-2.266, 1.011e-3
-2.267, 1.011e-3
-2.268, 1.011e-3
-2.269, 1.011e-3
-2.270, 1.011e-3
-2.271, 1.011e-3
-2.272, 1.011e-3
-2.273, 1.011e-3
-2.274, 1.011e-3
-2.275, 1.011e-3
-2.276, 1.011e-3
-2.277, 1.011e-3
-2.278, 1.011e-3
-2.279, 1.011e-3
-2.280, 1.011e-3
-2.281, 1.011e-3
-2.282, 1.011e-3
-2.283, 1.011e-3
-2.284, 1.011e-3
-2.285, 1.011e-3
-2.286, 1.011e-3
-2.287, 1.011e-3
-2.288, 1.011e-3
-2.289, 1.011e-3
-2.290, 1.011e-3
-2.291, 1.011e-3
-2.292, 1.011e-3
-2.293, 1.011e-3
-2.294, 1.011e-3
-2.295, 1.011e-3
-2.296, 1.011e-3
-2.297, 1.011e-3
-2.298, 1.011e-3
-2.299, 1.011e-3
