Potential V vs RHE, Current mA cm-2
0.05339999999999995,-0.03606099103355979
0.05239999999999995,-0.037320084090439666
0.051399999999999946,-0.03801329262737353
0.050399999999999945,-0.038522588695324954
0.049399999999999944,-0.03890456074628851
0.04839999999999994,-0.03930067991025072
0.04739999999999994,-0.039696799074212925
0.04639999999999994,-0.04006462401217784
0.04539999999999994,-0.04043244895014275
0.04439999999999994,-0.04075783254911171
0.04339999999999994,-0.04108321614808067
0.04239999999999994,-0.04143689397304692
0.04139999999999994,-0.04179057179801319
0.040399999999999936,-0.04210180828398349
0.039399999999999935,-0.04242719188295245
0.038399999999999934,-0.04275257548192141
0.03739999999999993,-0.04307795908089037
0.03639999999999993,-0.04343163690585663
0.03539999999999993,-0.043757020504825585
0.03439999999999993,-0.044054109877797246
0.03339999999999993,-0.0443794934767662
0.03239999999999993,-0.04471902418873381
0.03139999999999993,-0.04505855490070142
0.030399999999999927,-0.04538393849967037
0.029399999999999926,-0.045681027872642034
0.028399999999999925,-0.04599226435861234
0.027399999999999924,-0.046303500844582644
0.026399999999999924,-0.04667132578254756
0.025399999999999923,-0.04702500360751381
0.024399999999999922,-0.047336240093484125
0.02339999999999992,-0.047689917918450384
0.02239999999999992,-0.048029448630418
0.02139999999999992,-0.04838312645538425
0.020399999999999918,-0.048736804280350515
0.019399999999999917,-0.04906218787931948
0.018399999999999916,-0.04943001281728438
0.017399999999999916,-0.04976954352925199
0.016399999999999915,-0.05012322135421825
0.015399999999999914,-0.050491046292183164
0.014399999999999913,-0.050844724117149416
0.013399999999999912,-0.05121254905511433
0.012399999999999911,-0.051580373993079236
0.01139999999999991,-0.05197649315704145
0.01039999999999991,-0.05235846520800501
0.009399999999999908,-0.05271214303297127
0.008399999999999908,-0.05307996797093617
0.007399999999999907,-0.05347608713489838
0.006399999999999906,-0.053886353411859246
0.005399999999999905,-0.054268325462822814
0.004399999999999904,-0.05465029751378637
0.003399999999999903,-0.05504641667774857
0.002399999999999902,-0.055428388728712134
0.0013999999999999013,-0.055838655005673
0.00039999999999990044,-0.056248921282633854
-0.0006000000000001005,-0.05661674622059877
-0.0016000000000001013,-0.05702701249755963
-0.0026000000000001022,-0.05742313166152184
-0.003600000000000103,-0.05784754505148135
-0.004600000000000104,-0.05825781132844222
-0.005600000000000105,-0.058668077605403074
-0.006600000000000106,-0.059050049656366635
-0.007600000000000107,-0.05944616882032884
-0.008600000000000108,-0.059870582210288355
-0.009600000000000108,-0.06026670137425057
-0.01060000000000011,-0.06069111476421007
-0.01160000000000011,-0.06111552815416958
-0.012600000000000111,-0.061554088657127755
-0.013600000000000112,-0.062006796273084565
-0.014600000000000113,-0.06244535677604271
-0.015600000000000114,-0.06286977016600223
-0.016600000000000115,-0.06329418355596174
-0.017600000000000116,-0.06371859694592126
-0.018600000000000116,-0.06421374590087402
-0.019600000000000117,-0.06466645351683083
-0.020600000000000118,-0.06506257268079305
-0.02160000000000012,-0.06551528029674986
-0.02260000000000012,-0.065953840799708
-0.02360000000000012,-0.06642069552866348
-0.024600000000000122,-0.06687340314462027
-0.025600000000000123,-0.06728366942158114
-0.026600000000000124,-0.06773637703753796
-0.027600000000000124,-0.06821737887949207
-0.028600000000000125,-0.06867008649544887
-0.029600000000000126,-0.06913694122440435
-0.030600000000000127,-0.06956135461436386
-0.03160000000000013,-0.07001406223032067
-0.03260000000000013,-0.07048091695927614
-0.03360000000000013,-0.07096191880123023
-0.03460000000000002,-0.07141462641718704
-0.03560000000000002,-0.07188148114614251
-0.03660000000000002,-0.07232004164910069
-0.03760000000000002,-0.07280104349105479
-0.03860000000000002,-0.0732820453330089
-0.039600000000000024,-0.07374890006196436
-0.040600000000000025,-0.07421575479091982
-0.041600000000000026,-0.07466846240687663
-0.04260000000000003,-0.07512117002283344
-0.04360000000000003,-0.0756446132037835
-0.04460000000000003,-0.07609732081974033
-0.04560000000000003,-0.07653588132269848
-0.04660000000000003,-0.07698858893865529
-0.04760000000000003,-0.07748373789360806
-0.04860000000000003,-0.07797888684856082
-0.04960000000000003,-0.07844574157751628
-0.050600000000000034,-0.0789267434194704
-0.051600000000000035,-0.07937945103542722
-0.052600000000000036,-0.07984630576438266
-0.053600000000000037,-0.08032730760633679
-0.05460000000000004,-0.08079416233529225
-0.05560000000000004,-0.08126101706424771
-0.05660000000000004,-0.08175616601920047
-0.05760000000000004,-0.08222302074815592
-0.05860000000000004,-0.08274646392910599
-0.05960000000000004,-0.08319917154506282
-0.06060000000000004,-0.08362358493502231
-0.061600000000000044,-0.08406214543798048
-0.06260000000000004,-0.08452900016693596
-0.06360000000000005,-0.08503829623488735
-0.06460000000000005,-0.08550515096384281
-0.06560000000000005,-0.08595785857979962
-0.06660000000000005,-0.08643886042175375
-0.06760000000000005,-0.08689156803771056
-0.06860000000000005,-0.08735842276666603
-0.06960000000000005,-0.08779698326962418
-0.07060000000000005,-0.08823554377258234
-0.07160000000000005,-0.0886741042755405
-0.07260000000000005,-0.08914095900449596
-0.07360000000000005,-0.08963610795944872
-0.07460000000000006,-0.09010296268840419
-0.07560000000000006,-0.090555670304361
-0.07660000000000006,-0.09100837792031781
-0.07760000000000006,-0.09146108553627462
-0.07860000000000006,-0.09192794026523009
-0.07960000000000006,-0.0923806478811869
-0.08060000000000006,-0.09283335549714371
-0.08160000000000006,-0.09327191600010187
-0.08260000000000006,-0.09375291784205599
-0.08360000000000006,-0.09421977257101144
-0.08460000000000006,-0.09464418596097096
-0.08560000000000006,-0.09508274646392911
-0.08660000000000007,-0.09550715985388863
-0.08760000000000007,-0.09594572035684679
-0.08860000000000007,-0.09644086931179956
-0.08960000000000007,-0.09686528270175906
-0.09060000000000007,-0.09727554897871993
-0.09160000000000007,-0.09768581525568078
-0.09260000000000007,-0.09811022864564029
-0.09360000000000007,-0.09856293626159711
-0.09460000000000007,-0.09895905542555931
-0.09560000000000007,-0.09935517458952153
-0.09660000000000007,-0.09977958797948104
-0.09760000000000008,-0.10020400136944055
-0.09860000000000008,-0.10064256187239871
-0.09960000000000008,-0.10103868103636092
-0.10060000000000008,-0.10142065308732448
-0.10160000000000008,-0.10183091936428534
-0.10260000000000008,-0.10222703852824755
-0.10360000000000008,-0.10262315769220977
-0.10460000000000008,-0.10300512974317333
-0.10560000000000008,-0.10337295468113822
-0.10660000000000008,-0.10374077961910314
-0.10760000000000008,-0.1041227516700667
-0.10860000000000009,-0.10451887083402892
-0.10960000000000009,-0.10487254865899517
-0.11060000000000009,-0.10521207937096277
-0.11160000000000009,-0.10557990430892769
-0.11260000000000009,-0.10596187635989125
-0.11360000000000009,-0.10634384841085481
-0.11460000000000009,-0.10671167334881972
-0.11560000000000009,-0.10705120406078733
-0.11660000000000009,-0.10737658765975629
-0.1176000000000001,-0.10773026548472255
-0.1186000000000001,-0.1080839433096888
-0.1196000000000001,-0.10839517979565912
-0.1206000000000001,-0.10872056339462807
-0.1216000000000001,-0.10903179988059837
-0.1226000000000001,-0.10937133059256597
-0.1236000000000001,-0.10971086130453359
-0.1246000000000001,-0.11000795067750524
-0.1256000000000001,-0.11030504005047691
-0.1266000000000001,-0.11057383519745125
-0.1276000000000001,-0.11089921879642024
-0.1286000000000001,-0.11123874950838784
-0.1296000000000001,-0.1114792504293649
-0.1306000000000001,-0.11174804557633926
-0.1316000000000001,-0.1120168407233136
-0.1326000000000001,-0.11229978298328659
-0.1336000000000001,-0.11259687235625826
-0.1346000000000001,-0.11286566750323263
-0.1356000000000001,-0.11310616842420969
-0.1366000000000001,-0.1133325222321881
-0.1376000000000001,-0.1135871702661638
-0.1386000000000001,-0.11385596541313814
-0.1396000000000001,-0.1140964663341152
-0.1406000000000001,-0.11430867302909498
-0.14160000000000011,-0.11453502683707338
-0.14260000000000012,-0.11476138064505177
-0.14360000000000012,-0.11498773445303019
-0.14460000000000012,-0.11519994114800992
-0.14560000000000012,-0.11539800072999104
-0.14660000000000012,-0.11558191319897348
-0.14760000000000012,-0.11582241411995055
-0.14860000000000012,-0.11604876792792895
-0.14960000000000012,-0.11623268039691143
-0.15060000000000012,-0.11641659286589387
-0.15160000000000012,-0.11658635822187767
-0.15260000000000012,-0.11679856491685743
-0.15360000000000013,-0.11696833027284123
-0.15460000000000013,-0.11712394851582639
-0.15560000000000013,-0.11727956675881154
-0.15660000000000013,-0.11743518500179671
-0.15760000000000013,-0.1176049503577805
-0.15860000000000013,-0.11777471571376431
-0.15960000000000002,-0.11790203973075215
-0.16060000000000002,-0.11802936374774001
-0.16160000000000002,-0.11814254065172922
-0.16260000000000002,-0.11828401178171571
-0.16360000000000002,-0.11842548291170223
-0.16460000000000002,-0.11852451270269278
-0.16560000000000002,-0.11866598383267928
-0.16660000000000003,-0.11880745496266579
-0.16760000000000003,-0.11889233764065768
-0.16860000000000003,-0.11900551454464689
-0.16960000000000003,-0.11909039722263878
-0.17060000000000003,-0.11918942701362933
-0.17160000000000003,-0.11924601546562394
-0.17260000000000003,-0.11935919236961315
-0.17360000000000003,-0.11945822216060371
-0.17460000000000003,-0.11952895772559695
-0.17560000000000003,-0.11958554617759155
-0.17660000000000003,-0.11964213462958616
-0.17760000000000004,-0.11972701730757807
-0.17860000000000004,-0.11981189998556994
-0.17960000000000004,-0.11988263555056322
-0.18060000000000004,-0.11991092977656051
-0.18160000000000004,-0.1199675182285551
-0.18260000000000004,-0.12002410668054972
-0.18360000000000004,-0.12008069513254432
-0.18460000000000004,-0.12010898935854163
-0.18560000000000004,-0.12015143069753757
-0.18660000000000004,-0.12016557781053622
-0.18760000000000004,-0.12022216626253084
-0.18860000000000005,-0.12026460760152678
-0.18960000000000005,-0.12029290182752407
-0.19060000000000005,-0.12029290182752407
-0.19160000000000005,-0.12033534316652002
-0.19260000000000005,-0.12034949027951866
-0.19360000000000005,-0.12040607873151328
-0.19460000000000005,-0.12040607873151328
-0.19560000000000005,-0.12042022584451192
-0.19660000000000005,-0.12039193161851462
-0.19760000000000005,-0.12043437295751057
-0.19860000000000005,-0.12046266718350787
-0.19960000000000006,-0.12046266718350787
-0.20060000000000006,-0.12044852007050923
-0.20160000000000006,-0.12042022584451192
-0.20260000000000006,-0.12044852007050923
-0.20360000000000006,-0.12046266718350787
-0.20460000000000006,-0.12046266718350787
-0.20560000000000006,-0.12043437295751057
-0.20660000000000006,-0.12042022584451192
-0.20760000000000006,-0.12042022584451192
-0.20860000000000006,-0.12044852007050923
-0.20960000000000006,-0.12039193161851462
-0.21060000000000006,-0.12039193161851462
-0.21160000000000007,-0.12036363739251733
-0.21260000000000007,-0.12036363739251733
-0.21360000000000007,-0.12037778450551596
-0.21460000000000007,-0.12033534316652002
-0.21560000000000007,-0.12030704894052272
-0.21660000000000007,-0.12030704894052272
-0.21760000000000007,-0.12032119605352137
-0.21860000000000007,-0.12030704894052272
-0.21960000000000007,-0.12026460760152678
-0.22060000000000007,-0.12023631337552945
-0.22160000000000007,-0.12020801914953216
-0.22260000000000008,-0.1201938720365335
-0.22360000000000008,-0.12020801914953216
-0.22460000000000008,-0.12016557781053622
-0.22560000000000008,-0.12010898935854163
-0.22660000000000008,-0.12009484224554295
-0.22760000000000008,-0.12009484224554295
-0.22860000000000008,-0.12009484224554295
-0.22960000000000008,-0.12005240090654701
-0.23060000000000008,-0.12000995956755106
-0.23160000000000008,-0.1199675182285551
-0.23260000000000008,-0.11998166534155377
-0.23360000000000009,-0.1199675182285551
-0.2346000000000001,-0.11992507688955915
-0.2356000000000001,-0.11991092977656051
-0.2366000000000001,-0.11985434132456589
-0.2376000000000001,-0.11986848843756456
-0.2386000000000001,-0.11986848843756456
-0.2396000000000001,-0.1198260470985686
-0.2406000000000001,-0.1197977528725713
-0.2416000000000001,-0.11976945864657401
-0.2426000000000001,-0.11978360575957266
-0.2436000000000001,-0.1197977528725713
-0.2446000000000001,-0.11976945864657401
-0.2456000000000001,-0.11974116442057671
-0.2466000000000001,-0.1197128701945794
-0.2476000000000001,-0.1197128701945794
-0.2486000000000001,-0.11974116442057671
-0.2496000000000001,-0.11969872308158076
-0.2506000000000001,-0.1196845759685821
-0.2516000000000001,-0.11967042885558345
-0.2526000000000001,-0.11967042885558345
-0.2536000000000001,-0.11969872308158076
-0.2546000000000001,-0.11967042885558345
-0.2556000000000001,-0.11967042885558345
-0.2566000000000001,-0.1196562817425848
-0.2576000000000001,-0.11967042885558345
-0.2586000000000001,-0.11969872308158076
-0.2596000000000001,-0.1196845759685821
-0.2606000000000001,-0.11967042885558345
-0.2616000000000001,-0.11969872308158076
-0.2626000000000001,-0.11972701730757807
-0.2636000000000001,-0.11974116442057671
-0.2646000000000001,-0.11976945864657401
-0.2656000000000001,-0.11974116442057671
-0.2666000000000001,-0.11975531153357535
-0.2676000000000001,-0.11981189998556994
-0.2686000000000001,-0.1198260470985686
-0.2696000000000001,-0.1198260470985686
-0.2706000000000001,-0.11986848843756456
-0.2716000000000001,-0.11988263555056322
-0.2726000000000001,-0.11993922400255783
-0.2736000000000001,-0.11998166534155377
-0.2746000000000001,-0.1199958124545524
-0.2756000000000001,-0.12002410668054972
-0.2766000000000001,-0.12005240090654701
-0.2776000000000001,-0.12012313647154027
-0.2786000000000001,-0.12017972492353488
-0.2796000000000001,-0.1201938720365335
-0.2806000000000001,-0.12023631337552945
-0.28160000000000013,-0.12030704894052272
-0.28260000000000013,-0.12037778450551596
-0.28360000000000013,-0.12044852007050923
-0.2846,-0.12047681429650652
-0.2856,-0.12054754986149978
-0.2866,-0.12058999120049572
-0.2876,-0.12070316810448493
-0.2886,-0.12077390366947817
-0.2896,-0.12084463923447143
-0.2906,-0.12090122768646602
-0.2916,-0.12098611036445794
-0.2926,-0.1210851401554485
-0.2936,-0.12119831705943768
-0.29460000000000003,-0.1212549055114323
-0.29560000000000003,-0.12133978818942417
-0.29660000000000003,-0.1214529650934134
-0.29760000000000003,-0.12156614199740261
-0.29860000000000003,-0.12166517178839317
-0.29960000000000003,-0.12175005446638507
-0.30060000000000003,-0.12184908425737562
-0.30160000000000003,-0.1219622611613648
-0.30260000000000004,-0.12208958517835267
-0.30360000000000004,-0.12220276208234186
-0.30460000000000004,-0.12231593898633109
-0.30560000000000004,-0.12244326300331891
-0.30660000000000004,-0.12258473413330541
-0.30760000000000004,-0.12275449948928924
-0.30860000000000004,-0.12289597061927575
-0.30960000000000004,-0.12303744174926225
-0.31060000000000004,-0.12317891287924874
-0.31160000000000004,-0.12332038400923526
-0.31260000000000004,-0.12351844359121636
-0.31360000000000005,-0.12367406183420152
-0.31460000000000005,-0.1238438271901853
-0.31560000000000005,-0.12401359254616913
-0.31660000000000005,-0.12416921078915429
-0.31760000000000005,-0.12439556459713268
-0.31860000000000005,-0.12457947706611515
-0.31960000000000005,-0.12479168376109491
-0.32060000000000005,-0.12497559623007734
-0.32160000000000005,-0.12514536158606115
-0.32260000000000005,-0.12537171539403955
-0.32360000000000005,-0.12556977497602065
-0.32460000000000006,-0.12573954033200446
-0.32560000000000006,-0.12596589413998285
-0.32660000000000006,-0.12616395372196398
-0.32760000000000006,-0.126404454642941
-0.32860000000000006,-0.12664495556391808
-0.32960000000000006,-0.12685716225889784
-0.33060000000000006,-0.1270693689538776
-0.33160000000000006,-0.12732401698785328
-0.33260000000000006,-0.12759281213482765
-0.33360000000000006,-0.12783331305580473
-0.33460000000000006,-0.12807381397678178
-0.33560000000000006,-0.12832846201075748
-0.33660000000000007,-0.12855481581873587
-0.33760000000000007,-0.12882361096571027
-0.33860000000000007,-0.12907825899968592
-0.33960000000000007,-0.129318759920663
-0.34060000000000007,-0.1295734079546387
-0.34160000000000007,-0.12984220310161304
-0.34260000000000007,-0.1301251453615861
-0.34360000000000007,-0.1304080876215591
-0.3446000000000001,-0.13067688276853343
-0.3456000000000001,-0.13094567791550782
-0.3466000000000001,-0.13121447306248216
-0.34759999999999996,-0.13152570954845244
-0.3486000000000001,-0.13178035758242818
-0.34959999999999997,-0.13206329984240117
-0.3506000000000001,-0.1322896536503796
-0.35159999999999997,-0.13255844879735396
-0.3526000000000001,-0.1328555381703256
-0.35359999999999997,-0.13309603909130266
-0.3546000000000001,-0.133364834238277
-0.35559999999999997,-0.1335911880462554
-0.3566000000000001,-0.13385998319322978
-0.3576,-0.13417121967920007
-0.3586000000000001,-0.13444001482617443
-0.3596,-0.1346805157471515
-0.3606000000000001,-0.13493516378112722
-0.3616,-0.13520395892810155
-0.3626000000000001,-0.13548690118807455
-0.3636,-0.1357274021090516
-0.3646000000000001,-0.13596790303002868
-0.3656,-0.13623669817700304
-0.3666000000000001,-0.13647719909798006
-0.3676,-0.1367318471319558
-0.3686000000000001,-0.13697234805293285
-0.3696,-0.13719870186091124
-0.3706000000000001,-0.13749579123388292
-0.3716,-0.13775043926785863
-0.3726000000000001,-0.13800508730183433
-0.3736,-0.13824558822281138
-0.3746000000000001,-0.13845779491779114
-0.3756,-0.1386982958387682
-0.3766000000000001,-0.1389529438727439
-0.3776,-0.13922173901971824
-0.3786000000000001,-0.13944809282769668
-0.3796,-0.13967444663567508
-0.3806000000000001,-0.1399008004436535
-0.3816,-0.14015544847762917
-0.3826000000000001,-0.14042424362460354
-0.3836,-0.1406647445455806
-0.3846000000000001,-0.1409193925795563
-0.3856,-0.1411457463875347
-0.3866000000000001,-0.14138624730851176
-0.3876,-0.14161260111649018
-0.3886000000000001,-0.14189554337646318
-0.3896,-0.1421784856364362
-0.3906000000000001,-0.1423199567664227
-0.3916,-0.1426028990263957
-0.3926000000000001,-0.1428858412863687
-0.3936,-0.14316878354634172
-0.3946000000000001,-0.1434517258063147
-0.3956,-0.1435931969363012
-0.3966000000000001,-0.14387613919627423
-0.3976,-0.14415908145624726
-0.3986000000000001,-0.14444202371622025
-0.3996,-0.14472496597619325
-0.4006000000000001,-0.14500790823616627
-0.4016,-0.14529085049613927
-0.4026000000000001,-0.14557379275611226
-0.4036,-0.1458567350160853
-0.4046000000000001,-0.14613967727605828
-0.4056,-0.14642261953603128
-0.40660000000000013,-0.1467055617960043
-0.4076,-0.14698850405597733
-0.40860000000000013,-0.14741291744593682
-0.4096,-0.14769585970590982
-0.41060000000000013,-0.14797880196588284
-0.4116,-0.14826174422585583
-0.41260000000000013,-0.14868615761581536
-0.4136,-0.14896909987578838
-0.41460000000000014,-0.14925204213576138
-0.4156,-0.1496764555257209
-0.41660000000000014,-0.1499593977856939
-0.4176,-0.1503838111756534
-0.41860000000000014,-0.1506667534356264
-0.41960000000000003,-0.1510911668255859
-0.42060000000000014,-0.1513741090855589
-0.42160000000000003,-0.15179852247551845
-0.42260000000000014,-0.15222293586547794
-0.42360000000000003,-0.15264734925543746
-0.42460000000000014,-0.15293029151541046
-0.42560000000000003,-0.15335470490536995
-0.42660000000000015,-0.15377911829532948
-0.42760000000000004,-0.154203531685289
-0.42860000000000015,-0.15448647394526202
-0.42960000000000004,-0.15491088733522151
-0.43060000000000015,-0.155335300725181
-0.43160000000000004,-0.15575971411514053
-0.43260000000000015,-0.15618412750510002
-0.43360000000000004,-0.15660854089505957
-0.43460000000000015,-0.15703295428501907
-0.43560000000000004,-0.1574573676749786
-0.43660000000000015,-0.15788178106493808
