Potential V vs RHE, Current mA cm-2
0.013299999999999867,42.00277849299294
0.012299999999999978,40.10706535117379
0.011299999999999866,38.39526467833709
0.010299999999999976,36.8249351354869
0.009299999999999864,35.268752705635364
0.008299999999999974,33.99551253575683
0.007299999999999862,32.65153680088505
0.006299999999999972,31.350002405009217
0.00529999999999986,30.147497800123933
0.0042999999999999705,28.8176691782508
0.0032999999999998586,27.615164573365515
0.0022999999999999687,26.356071516485635
0.0012999999999998568,25.1394197986017
0.00029999999999996696,24.050092097705623
-0.000700000000000145,22.904175944814945
-0.0017000000000000348,21.857289582914817
-0.0027000000000001467,20.76796188201874
-0.0037000000000000366,19.70692840711996
-0.0047000000000001485,18.730777610213085
-0.005700000000000038,17.683891248312957
-0.00670000000000015,16.736034677403385
-0.00770000000000004,15.759883880496508
-0.008700000000000152,14.769585970590983
-0.009700000000000042,13.872659006476551
-0.010700000000000154,12.888019941770485
-0.011700000000000044,12.017972492353486
-0.012700000000000156,11.081433611842833
-0.013700000000000045,10.15904184433083
-0.014700000000000157,9.315873909611268
-0.015700000000000047,8.417532234196969
-0.01670000000000016,7.605487948074437
-0.01770000000000005,6.738269921257169
-0.01870000000000016,5.886613718738418
-0.01970000000000005,5.108522503812647
-0.020700000000000163,4.254036878694166
-0.021700000000000053,3.4971663332663705
-0.022700000000000164,2.6766337793446495
-0.023700000000000054,1.884395451420229
-0.024700000000000166,1.1501602867902747
-0.025700000000000056,0.32411035879907985
-0.026700000000000168,-0.3913091455426691
-0.027700000000000058,-1.1781715705276026
-0.02870000000000017,-1.9367397695152353
-0.02970000000000006,-2.641265996848024
-0.03070000000000017,-3.4292601908728493
-0.03170000000000006,-4.105492192208336
-0.03270000000000017,-4.852459758537076
-0.03370000000000006,-5.600842036165679
-0.034700000000000175,-6.277074037501167
-0.035700000000000065,-7.0297004490293675
-0.03670000000000018,-7.655002843569713
-0.03770000000000007,-8.329820133605336
-0.03870000000000018,-8.996149155841769
-0.03970000000000007,-9.63701337468063
-0.04070000000000018,-10.354272003712204
-0.04170000000000007,-11.003624490350255
-0.04270000000000018,-11.702491872483584
-0.04370000000000007,-12.402773965916776
-0.044700000000000184,-13.015343958758336
-0.045700000000000074,-13.70147893919288
-0.046700000000000186,-14.288584128636872
-0.047700000000000076,-14.939351326574789
-0.04870000000000019,-15.632559863508657
-0.04970000000000008,-16.24088572245062
-0.05070000000000019,-16.93409425938449
-0.05170000000000008,-17.499978779330505
-0.05270000000000019,-18.13659886426977
-0.05370000000000008,-18.77321894920904
-0.05470000000000019,-19.381544808151002
-0.05570000000000008,-20.01816489309027
-0.056700000000000195,-20.584049413036283
-0.057700000000000085,-21.2348166109742
-0.058700000000000196,-21.857289582914817
-0.059700000000000086,-22.38073276386488
-0.0607000000000002,-22.989058622806844
-0.06170000000000009,-23.526648916755562
-0.0627000000000002,-24.149121888696175
-0.06370000000000009,-24.799889086634096
-0.0647000000000002,-25.43650917157336
-0.06570000000000009,-26.101423482509926
-0.0667000000000002,-26.65316088945729
-0.0677000000000001,-27.289780974396557
-0.0687000000000002,-27.968842398331773
-0.0697000000000001,-28.56302114427509
-0.07070000000000021,-29.242082568210304
-0.0717000000000001,-29.793819975157668
-0.07270000000000021,-30.402145834099635
-0.0737000000000001,-30.982177467044306
-0.07470000000000021,-31.505620647994366
-0.0757000000000001,-32.11394650693633
-0.07670000000000021,-32.6090954618891
-0.0777000000000001,-33.21742132083106
-0.07870000000000021,-33.81160006677438
-0.0797000000000001,-34.33504324772444
-0.08070000000000022,-34.9716633326637
-0.0817000000000001,-35.53754785260972
-0.08270000000000022,-36.07513814655844
-0.08370000000000011,-36.69761111849905
-0.08470000000000022,-37.36252542943562
-0.08570000000000011,-38.02743974037218
-0.08670000000000022,-38.55088292132225
-0.08770000000000011,-39.10262032826961
-0.08870000000000022,-39.66850484821563
-0.08970000000000011,-40.220242255162994
-0.09070000000000022,-40.84271522710361
-0.09170000000000011,-41.36615840805367
-0.09270000000000023,-41.96033715399699
-0.09370000000000012,-42.483780334947056
-0.09470000000000023,-42.97892928989981
-0.09570000000000012,-43.544813809845834
-0.09670000000000023,-44.110698329791845
-0.09770000000000012,-44.690729962736505
-0.09870000000000023,-45.32735004767578
-0.09970000000000012,-45.90738168062044
-0.10070000000000023,-46.529854652561056
-0.10170000000000012,-46.99670938151652
-0.10270000000000024,-47.534299675465235
-0.10370000000000013,-48.18506687340315
-0.10470000000000024,-48.80753984534376
-0.10570000000000013,-49.472454156280335
-0.10670000000000024,-49.967603111233096
-0.10770000000000013,-50.56178185717641
-0.10870000000000024,-51.19840194211567
-0.10970000000000013,-51.679403784069784
-0.11070000000000024,-52.2735825300131
-0.11170000000000013,-52.75458437196722
-0.11270000000000002,-53.405351569905136
-0.11370000000000013,-54.070265880841696
-0.11470000000000002,-54.551267722795814
-0.11570000000000014,-55.18788780773508
-0.11670000000000003,-55.7254781016838
-0.11770000000000014,-56.30550973462846
-0.11870000000000003,-56.857247141575826
-0.11970000000000014,-57.493867226515086
-0.12070000000000003,-58.13048731145436
-0.12170000000000014,-58.59734204040982
-0.12270000000000003,-59.09249099536258
-0.12370000000000014,-59.68666974130589
-0.12470000000000003,-60.35158405224246
-0.12570000000000014,-61.17211660616418
-0.12670000000000003,-62.24729719406162
-0.12770000000000015,-62.92635861799682
-0.12870000000000004,-63.56297870293609
-0.12970000000000015,-63.902509414903705
-0.13070000000000004,-64.29862857886593
-0.13170000000000015,-64.87866021181057
-0.13270000000000004,-65.7274869917296
-0.13370000000000015,-66.43484264166212
-0.13470000000000004,-66.76022624063107
-0.13570000000000015,-67.24122808258521
-0.13670000000000004,-67.7505241505366
-0.13770000000000016,-68.31640867048262
-0.13870000000000005,-68.96717586842054
-0.13970000000000016,-69.53306038836655
-0.14070000000000005,-70.28285737729502
-0.14170000000000016,-70.77800633224777
-0.14270000000000005,-71.42877353018571
-0.14370000000000016,-71.8814811461425
-0.14470000000000005,-72.39077721409393
-0.14570000000000016,-73.06983863802915
-0.14670000000000005,-73.57913470598055
-0.14770000000000016,-73.98940098294142
-0.14870000000000005,-74.49869705089283
-0.14970000000000017,-74.95140466684964
-0.15070000000000006,-75.77193722077136
-0.15170000000000017,-76.47929287070389
-0.15270000000000006,-77.20079563363505
-0.15370000000000017,-77.92229839656622
-0.15470000000000006,-78.55891848150549
-0.15570000000000017,-79.39359814842585
-0.15670000000000006,-80.15754225035298
-0.15770000000000017,-80.8931921262828
-0.15870000000000006,-81.65713622820991
-0.15970000000000018,-82.09569673116808
-0.16070000000000007,-82.54840434712489
-0.16170000000000018,-82.98696485008304
-0.16270000000000007,-83.70846761301424
-0.16370000000000018,-84.26020501996159
-0.16470000000000007,-84.78364820091166
-0.16570000000000018,-85.34953272085767
-0.16670000000000007,-86.01444703179425
-0.16770000000000018,-86.6793613427308
-0.16870000000000007,-87.24524586267681
-0.16970000000000018,-87.79698326962418
-0.17070000000000007,-88.4194562415648
-0.17170000000000019,-89.08437055250135
-0.17270000000000008,-89.87660888042578
-0.1737000000000002,-90.6405529823529
-0.17470000000000008,-91.12155482430701
-0.1757000000000002,-91.74402779624764
-0.17670000000000008,-92.35235365518959
-0.1777000000000002,-92.9748266271302
-0.17870000000000008,-93.66803516406408
-0.1797000000000002,-94.12074278002089
-0.18070000000000008,-94.6300388479723
-0.1817000000000002,-95.02615801193451
-0.18270000000000008,-95.62033675787784
-0.1837000000000002,-96.72381157177257
-0.1847000000000001,-97.89802195066054
-0.1857000000000002,-98.81758429557281
-0.1867000000000001,-99.41176304151614
-0.1877000000000002,-99.9635004484635
-0.1887000000000001,-100.60012053340276
-0.1897000000000002,-101.19429927934607
-0.1907000000000001,-102.04312605926509
-0.1917000000000001,-102.63730480520842
-0.19269999999999998,-103.7266325061045
-0.1937000000000001,-104.02372187907615
-0.19469999999999998,-104.32081125204782
-0.1957000000000001,-104.98572556298437
-0.19669999999999999,-105.46672740493848
-0.1977000000000001,-105.91943502089529
-0.1987,-106.3721426368521
-0.1997000000000001,-106.81070313981027
-0.2007,-107.34829343375898
-0.2017000000000001,-107.84344238871174
-0.2027,-108.4517682476537
-0.2037000000000001,-109.78159686952685
-0.2047,-110.89921879642023
-0.2057000000000001,-111.46510331636625
-0.2067,-111.98854649731629
-0.2077000000000001,-112.59687235625829
-0.2087,-113.36081645818538
-0.2097000000000001,-114.0681721081179
-0.2107,-114.90285177503829
-0.2117000000000001,-115.39800072999103
-0.2127,-116.06291504092759
-0.2137000000000001,-116.74197646486284
-0.2147,-117.23712541981558
-0.2157000000000001,-117.91618684375081
-0.2167,-118.60939538068469
-0.21770000000000012,-119.35919236961315
-0.2187,-120.49096140950518
-0.21970000000000012,-121.28319973742961
-0.2207,-121.59443622339991
-0.22170000000000012,-122.06129095235536
-0.2227,-122.91011773227437
-0.22370000000000012,-123.2779426702393
-0.2247,-123.54673781721365
-0.22570000000000012,-124.40971171013132
-0.2267,-125.42830384603415
-0.22770000000000012,-126.43274886893832
-0.22870000000000001,-127.012780501883
-0.22970000000000013,-127.60695924782631
-0.23070000000000002,-128.69628694872236
-0.23170000000000013,-129.2338772426711
-0.23270000000000002,-129.8280559886144
-0.23370000000000013,-130.29491071756988
-0.23470000000000002,-130.84664812451723
-0.23570000000000013,-131.5964451134457
-0.23670000000000002,-132.33209498937555
-0.2376999999999999,-133.20921599529186
-0.23870000000000002,-134.00145432321628
-0.2396999999999999,-134.5107503911677
-0.24070000000000003,-135.23225315409883
-0.24169999999999991,-136.02449148202328
-0.24270000000000003,-136.8733182619423
-0.24369999999999992,-137.3260258778991
-0.24470000000000003,-137.6089681378721
-0.24569999999999992,-138.62756027377495
-0.24670000000000003,-139.87250621765617
-0.24769999999999992,-141.0325694835455
-0.24870000000000003,-141.89554337646317
-0.24969999999999992,-142.31995676642268
-0.25070000000000003,-143.0273124163552
-0.2516999999999999,-143.73466806628772
-0.25270000000000004,-144.44202371622026
-0.2536999999999999,-145.00790823616626
-0.25470000000000004,-145.57379275611228
-0.2556999999999999,-146.28114840604482
-0.25670000000000004,-146.8470329259908
-0.25769999999999993,-147.6958597059098
-0.25870000000000004,-148.40321535584232
-0.25969999999999993,-149.25204213576137
-0.26070000000000004,-149.6764555257209
-0.26169999999999993,-150.1008689156804
-0.26270000000000004,-150.66675343562642
-0.26369999999999993,-151.5155802155454
-0.26470000000000005,-152.50587812545095
-0.26569999999999994,-153.63764716534297
-0.26670000000000005,-154.3450028152755
-0.26769999999999994,-154.486473945262
-0.26870000000000005,-155.75971411514055
-0.26969999999999994,-156.89148315503257
-0.27070000000000005,-157.88178106493808
-0.27169999999999994,-158.3061944548976
-0.27270000000000005,-158.73060784485713
-0.27369999999999994,-159.29649236480313
-0.27470000000000006,-159.57943462477613
-0.27569999999999995,-160.00384801473567
-0.27670000000000006,-160.71120366466818
-0.27769999999999995,-161.70150157457368
-0.27870000000000006,-162.40885722450622
-0.27969999999999995,-162.97474174445222
-0.28070000000000006,-163.39915513441173
-0.28169999999999995,-164.10651078434424
-0.28270000000000006,-164.9553375642633
-0.28369999999999995,-165.8041643441823
-0.28470000000000006,-166.22857773414182
-0.28569999999999995,-166.3700488641283
-0.28670000000000007,-166.65299112410133
-0.28769999999999996,-167.36034677403384
-0.28870000000000007,-168.35064468393938
-0.28969999999999996,-169.0580003338719
-0.29070000000000007,-169.6238848538179
-0.29169999999999996,-170.18976937376394
-0.29270000000000007,-170.89712502369645
-0.29369999999999996,-171.74595180361547
-0.2947000000000001,-172.45330745354798
-0.29569999999999996,-173.302134233467
-0.2967000000000001,-173.72654762342648
-0.29769999999999996,-174.71684553333202
-0.2987000000000001,-175.42420118326456
-0.29969999999999997,-175.70714344323756
-0.3007000000000001,-176.27302796318358
-0.30169999999999997,-176.55597022315658
-0.3027000000000001,-177.1218547431026
-0.30369999999999997,-177.4047970030756
-0.3047000000000001,-177.54626813306209
-0.30569999999999997,-177.9706815230216
-0.3067000000000001,-178.67803717295413
-0.3077,-179.52686395287316
-0.3087000000000001,-180.94157525273818
-0.3097,-182.35628655260325
-0.3107000000000001,-182.92217107254925
-0.3117,-182.78069994256273
-0.3127000000000001,-182.49775768258974
-0.3137,-182.35628655260325
-0.3147000000000001,-183.20511333252225
-0.3157,-184.33688237241427
-0.3167000000000001,-184.7612957623738
-0.3177,-185.0442380223468
-0.3187000000000001,-185.46865141230631
-0.3197,-185.7515936722793
-0.3207000000000001,-185.89306480226583
-0.3217,-186.88336271217133
-0.3227000000000001,-188.29807401203638
-0.3237,-189.1469007919554
-0.3247000000000001,-189.42984305192843
-0.3257,-189.2883719219419
-0.3267000000000001,-189.57131418191491
-0.3277,-189.8542564418879
-0.3287000000000001,-190.27866983184742
-0.3297,-190.27866983184742
-0.3307000000000001,-190.70308322180696
-0.3317,-190.98602548177996
-0.3327000000000001,-191.41043887173947
-0.3337,-191.9763233916855
-0.3347000000000001,-192.82515017160452
-0.3357,-193.10809243157752
-0.3367000000000001,-193.10809243157752
-0.3377,-193.10809243157752
-0.3387000000000001,-193.3910346915505
-0.3397,-193.81544808151003
-0.3407000000000001,-193.81544808151003
-0.3417,-193.9569192114965
-0.3427000000000001,-194.66427486142905
-0.3437,-194.66427486142905
-0.3447000000000001,-194.80574599141553
-0.3457,-195.08868825138856
-0.3467000000000001,-194.80574599141553
-0.3477,-195.23015938137505
-0.3487000000000001,-195.51310164134807
-0.3497,-195.93751503130758
-0.3507000000000001,-196.0789861612941
-0.3517,-196.0789861612941
-0.3527000000000001,-196.0789861612941
-0.3537,-196.2204572912806
-0.3547000000000001,-196.2204572912806
-0.3557,-196.7863418112266
-0.35670000000000013,-197.63516859114563
-0.3577,-198.76693763103765
-0.35870000000000013,-199.47429328097016
-0.3597,-200.18164893090267
-0.36070000000000013,-200.18164893090267
-0.3617,-200.18164893090267
-0.3626999999999999,-199.75723554094319
-0.3637,-199.04987989101065
-0.3646999999999999,-198.90840876102413
-0.3657,-199.19135102099716
-0.3666999999999999,-199.19135102099716
-0.3677,-199.47429328097016
-0.3686999999999999,-199.89870667092967
-0.36970000000000003,-200.3231200608892
-0.3706999999999999,-200.6060623208622
-0.37170000000000003,-200.18164893090267
-0.3726999999999999,-200.4645911908757
-0.37370000000000003,-200.6060623208622
-0.3746999999999999,-201.03047571082172
-0.37570000000000003,-201.03047571082172
-0.3766999999999999,-201.17194684080823
-0.37770000000000004,-200.88900458083523
-0.3786999999999999,-201.03047571082172
-0.37970000000000004,-201.31341797079472
-0.3806999999999999,-201.31341797079472
-0.38170000000000004,-202.02077362072723
-0.38269999999999993,-203.15254266061928
-0.38370000000000004,-203.71842718056527
-0.38469999999999993,-203.85989831055176
-0.38570000000000004,-203.29401379060576
-0.38669999999999993,-201.31341797079472
-0.38570000000000004,-197.49369746115914
-0.38469999999999993,-194.09839034148303
-0.38370000000000004,-191.268967741753
-0.38269999999999993,-188.58101627200938
-0.38170000000000004,-185.89306480226583
-0.3806999999999999,-183.20511333252225
-0.37970000000000004,-179.95127734283267
-0.3786999999999999,-176.6974413531431
-0.37770000000000004,-173.72654762342648
-0.3766999999999999,-170.18976937376394
-0.37570000000000003,-167.36034677403384
-0.3746999999999999,-165.5212220842093
-0.37370000000000003,-163.68209739438475
-0.3726999999999999,-161.2770881846142
-0.37170000000000003,-158.5891367148706
-0.3706999999999999,-156.04265637511355
-0.36970000000000003,-153.35470490536997
-0.3686999999999999,-150.5252823056399
-0.3677,-147.97880196588284
-0.3666999999999999,-145.7152638860988
-0.3657,-143.73466806628772
-0.3646999999999999,-142.17848563643616
-0.3637,-140.04227157363997
-0.3626999999999999,-137.976793075837
-0.3617,-135.65666654405837
-0.36070000000000013,-133.35068712527837
-0.3597,-131.04470770649834
-0.35870000000000013,-128.86605230470622
-0.3577,-126.85716225889782
-0.35670000000000013,-124.9331548910814
-0.3557,-122.92426484527306
-0.3547000000000001,-120.88708057346739
-0.3537,-119.07625010964013
-0.3527000000000001,-117.3503023238048
-0.3517,-115.42629495598834
-0.3507000000000001,-113.3325222321881
-0.3497,-111.3377792993784
-0.3487000000000001,-109.20156523658218
-0.3477,-107.4331761117509
-0.3467000000000001,-105.73552255191284
-0.3457,-104.10860455706805
-0.3447000000000001,-102.31192120623945
-0.3437,-100.37376672542435
-0.3427000000000001,-98.87417274756741
-0.3417,-97.43116722170507
-0.3407000000000001,-95.91742613084948
-0.3397,-94.19147834501413
-0.3387000000000001,-92.47967767217744
-0.3377,-90.92349524232591
-0.3367000000000001,-89.23998879548651
-0.3357,-87.57062946164578
-0.3347000000000001,-85.85882878880908
-0.3337,-84.34508769795349
-0.3327000000000001,-82.98696485008304
-0.3317,-81.51566509822342
-0.3307000000000001,-80.00192400736783
-0.3297,-78.37500601252303
-0.3287000000000001,-76.79052935667418
-0.3277,-75.51728918679565
-0.3267000000000001,-74.11672499992927
-0.3257,-72.84348483005074
-0.3247000000000001,-71.61268599916815
-0.3237,-70.14138624730852
-0.3227000000000001,-68.78326339943808
-0.3217,-67.34025787357575
-0.3207000000000001,-66.0670177036972
-0.3197,-64.77963042082003
-0.3187000000000001,-63.30833066896038
-0.3177,-61.9926491600859
-0.3167000000000001,-60.66282053821277
-0.3157,-59.46031593332749
-0.3147000000000001,-58.27195844144086
-0.3137,-56.88554136757313
-0.3127000000000001,-55.626448310693235
-0.3117,-54.38150236681201
-0.3107000000000001,-53.20729198792403
-0.3097,-51.990640270040096
-0.3087000000000001,-50.73154721316022
-0.3077,-49.642219512264134
-0.3067000000000001,-48.43971490737886
-0.30569999999999997,-47.25135741549222
-0.3047000000000001,-46.048852810606945
-0.30369999999999997,-44.81805397972436
-0.3027000000000001,-43.77116761782423
-0.30169999999999997,-42.667692803929505
-0.3007000000000001,-41.677394894023976
-0.29969999999999997,-40.729538323114404
-0.2987000000000001,-39.739240413208876
-0.29769999999999996,-38.805530955297954
-0.2967000000000001,-37.801085932393775
-0.29569999999999996,-36.754199570493654
-0.2947000000000001,-35.650724756598926
-0.29369999999999996,-34.50480860370825
-0.29270000000000007,-33.344745337818914
-0.29169999999999996,-32.354447427913385
-0.29070000000000007,-31.350002405009217
-0.28969999999999996,-30.274821817111786
-0.28870000000000007,-29.114758551222454
-0.28769999999999996,-28.12446064131693
-0.28670000000000007,-27.0209858274222
-0.28569999999999995,-26.002393691519377
-0.28470000000000006,-25.04039000761115
-0.28369999999999995,-24.120827662698876
-0.28270000000000006,-23.328589334774456
-0.28169999999999995,-22.39487987686353
-0.28070000000000006,-21.503611757948562
-0.27969999999999995,-20.612343639033586
-0.27870000000000006,-19.60789861612941
-0.27769999999999995,-18.77321894920904
-0.27670000000000006,-17.853656604296763
-0.27569999999999995,-17.00482982437774
-0.27470000000000006,-16.184297270456018
-0.27369999999999994,-15.222293586547794
-0.27270000000000005,-14.401761032626075
-0.27169999999999994,-13.509078202411235
-0.27070000000000005,-12.62063950609599
-0.26969999999999994,-11.828401178171571
-0.26870000000000005,-10.941377193156194
-0.26769999999999994,-10.191580204227723
-0.26670000000000005,-9.315873909611268
