Apr. 6, 2025   22:03:22
Cyclic Voltammetry
File: c:/users/guazh/data/banditlqround7_x0exp994_r5/2025-03-28-exp1003\exp1003-2025-04-06t21_55_13-h2koh\exp1003_cv_sr_700mvs_efin_-1400mv.bin
Data Source:  Experiment
Instrument Model:  CHI760E
Header: CV ran at 700 mVs
Note: 

Init E (V) = -1
High E (V) = -1
Low E (V) = -1.4
Final E (V) = -1
Init P/N = N
Scan Rate (V/s) = 0.7
Segment = 3
Sample Interval (V) = 0.001
Quiet Time (sec) = 2
Sensitivity (A/V) = 0.01
Comp R (ohm) = 1.9

Results:

Channel 1:
Segment 1:

Segment 2:

Segment 3:

Potential/V, Current/A

-1.000, -2.118e-3
-1.001, -1.982e-3
-1.002, -1.856e-3
-1.003, -1.733e-3
-1.004, -1.612e-3
-1.005, -1.492e-3
-1.006, -1.375e-3
-1.007, -1.258e-3
-1.008, -1.144e-3
-1.009, -1.030e-3
-1.010, -9.186e-4
-1.011, -8.107e-4
-1.012, -7.028e-4
-1.013, -6.011e-4
-1.014, -4.962e-4
-1.015, -3.976e-4
-1.016, -2.989e-4
-1.017, -1.972e-4
-1.018, -9.850e-5
-1.019, 1.559e-7
-1.020, 9.882e-5
-1.021, 1.975e-4
-1.022, 2.961e-4
-1.023, 3.917e-4
-1.024, 4.873e-4
-1.025, 5.798e-4
-1.026, 6.692e-4
-1.027, 7.586e-4
-1.028, 8.480e-4
-1.029, 9.374e-4
-1.030, 1.027e-3
-1.031, 1.116e-3
-1.032, 1.206e-3
-1.033, 1.298e-3
-1.034, 1.384e-3
-1.035, 1.471e-3
-1.036, 1.557e-3
-1.037, 1.640e-3
-1.038, 1.724e-3
-1.039, 1.807e-3
-1.040, 1.890e-3
-1.041, 1.973e-3
-1.042, 2.054e-3
-1.043, 2.140e-3
-1.044, 2.223e-3
-1.045, 2.306e-3
-1.046, 2.390e-3
-1.047, 2.470e-3
-1.048, 2.550e-3
-1.049, 2.630e-3
-1.050, 2.707e-3
-1.051, 2.784e-3
-1.052, 2.861e-3
-1.053, 2.938e-3
-1.054, 3.019e-3
-1.055, 3.099e-3
-1.056, 3.179e-3
-1.057, 3.256e-3
-1.058, 3.336e-3
-1.059, 3.410e-3
-1.060, 3.487e-3
-1.061, 3.561e-3
-1.062, 3.632e-3
-1.063, 3.709e-3
-1.064, 3.780e-3
-1.065, 3.857e-3
-1.066, 3.934e-3
-1.067, 4.011e-3
-1.068, 4.088e-3
-1.069, 4.165e-3
-1.070, 4.239e-3
-1.071, 4.310e-3
-1.072, 4.378e-3
-1.073, 4.449e-3
-1.074, 4.520e-3
-1.075, 4.591e-3
-1.076, 4.668e-3
-1.077, 4.739e-3
-1.078, 4.813e-3
-1.079, 4.887e-3
-1.080, 4.958e-3
-1.081, 5.032e-3
-1.082, 5.103e-3
-1.083, 5.171e-3
-1.084, 5.241e-3
-1.085, 5.309e-3
-1.086, 5.377e-3
-1.087, 5.448e-3
-1.088, 5.519e-3
-1.089, 5.593e-3
-1.090, 5.661e-3
-1.091, 5.735e-3
-1.092, 5.806e-3
-1.093, 5.877e-3
-1.094, 5.947e-3
-1.095, 6.015e-3
-1.096, 6.083e-3
-1.097, 6.151e-3
-1.098, 6.222e-3
-1.099, 6.293e-3
-1.100, 6.364e-3
-1.101, 6.435e-3
-1.102, 6.506e-3
-1.103, 6.576e-3
-1.104, 6.647e-3
-1.105, 6.718e-3
-1.106, 6.786e-3
-1.107, 6.854e-3
-1.108, 6.925e-3
-1.109, 6.993e-3
-1.110, 7.060e-3
-1.111, 7.131e-3
-1.112, 7.205e-3
-1.113, 7.276e-3
-1.114, 7.347e-3
-1.115, 7.418e-3
-1.116, 7.486e-3
-1.117, 7.554e-3
-1.118, 7.625e-3
-1.119, 7.699e-3
-1.120, 7.770e-3
-1.121, 7.844e-3
-1.122, 7.911e-3
-1.123, 7.985e-3
-1.124, 8.059e-3
-1.125, 8.130e-3
-1.126, 8.204e-3
-1.127, 8.275e-3
-1.128, 8.343e-3
-1.129, 8.414e-3
-1.130, 8.485e-3
-1.131, 8.556e-3
-1.132, 8.630e-3
-1.133, 8.704e-3
-1.134, 8.775e-3
-1.135, 8.846e-3
-1.136, 8.917e-3
-1.137, 8.991e-3
-1.138, 9.058e-3
-1.139, 9.129e-3
-1.140, 9.200e-3
-1.141, 9.268e-3
-1.142, 9.339e-3
-1.143, 9.410e-3
-1.144, 9.478e-3
-1.145, 9.545e-3
-1.146, 9.616e-3
-1.147, 9.687e-3
-1.148, 9.758e-3
-1.149, 9.829e-3
-1.150, 9.900e-3
-1.151, 9.971e-3
-1.152, 1.004e-2
-1.153, 1.011e-2
-1.154, 1.019e-2
-1.155, 1.026e-2
-1.156, 1.033e-2
-1.157, 1.040e-2
-1.158, 1.048e-2
-1.159, 1.055e-2
-1.160, 1.062e-2
-1.161, 1.070e-2
-1.162, 1.078e-2
-1.163, 1.085e-2
-1.164, 1.092e-2
-1.165, 1.099e-2
-1.166, 1.107e-2
-1.167, 1.114e-2
-1.168, 1.121e-2
-1.169, 1.128e-2
-1.170, 1.136e-2
-1.171, 1.144e-2
-1.172, 1.151e-2
-1.173, 1.159e-2
-1.174, 1.166e-2
-1.175, 1.173e-2
-1.176, 1.181e-2
-1.177, 1.189e-2
-1.178, 1.196e-2
-1.179, 1.203e-2
-1.180, 1.210e-2
-1.181, 1.217e-2
-1.182, 1.224e-2
-1.183, 1.232e-2
-1.184, 1.239e-2
-1.185, 1.247e-2
-1.186, 1.255e-2
-1.187, 1.263e-2
-1.188, 1.270e-2
-1.189, 1.277e-2
-1.190, 1.284e-2
-1.191, 1.291e-2
-1.192, 1.298e-2
-1.193, 1.305e-2
-1.194, 1.312e-2
-1.195, 1.320e-2
-1.196, 1.327e-2
-1.197, 1.334e-2
-1.198, 1.341e-2
-1.199, 1.348e-2
-1.200, 1.355e-2
-1.201, 1.362e-2
-1.202, 1.369e-2
-1.203, 1.376e-2
-1.204, 1.383e-2
-1.205, 1.390e-2
-1.206, 1.398e-2
-1.207, 1.405e-2
-1.208, 1.412e-2
-1.209, 1.419e-2
-1.210, 1.426e-2
-1.211, 1.433e-2
-1.212, 1.440e-2
-1.213, 1.447e-2
-1.214, 1.454e-2
-1.215, 1.461e-2
-1.216, 1.469e-2
-1.217, 1.477e-2
-1.218, 1.484e-2
-1.219, 1.492e-2
-1.220, 1.499e-2
-1.221, 1.507e-2
-1.222, 1.514e-2
-1.223, 1.520e-2
-1.224, 1.527e-2
-1.225, 1.534e-2
-1.226, 1.540e-2
-1.227, 1.547e-2
-1.228, 1.555e-2
-1.229, 1.562e-2
-1.230, 1.569e-2
-1.231, 1.577e-2
-1.232, 1.584e-2
-1.233, 1.592e-2
-1.234, 1.600e-2
-1.235, 1.607e-2
-1.236, 1.615e-2
-1.237, 1.622e-2
-1.238, 1.629e-2
-1.239, 1.636e-2
-1.240, 1.642e-2
-1.241, 1.649e-2
-1.242, 1.656e-2
-1.243, 1.664e-2
-1.244, 1.672e-2
-1.245, 1.680e-2
-1.246, 1.687e-2
-1.247, 1.696e-2
-1.248, 1.704e-2
-1.249, 1.712e-2
-1.250, 1.720e-2
-1.251, 1.729e-2
-1.252, 1.737e-2
-1.253, 1.744e-2
-1.254, 1.752e-2
-1.255, 1.760e-2
-1.256, 1.768e-2
-1.257, 1.776e-2
-1.258, 1.783e-2
-1.259, 1.790e-2
-1.260, 1.798e-2
-1.261, 1.805e-2
-1.262, 1.814e-2
-1.263, 1.821e-2
-1.264, 1.828e-2
-1.265, 1.835e-2
-1.266, 1.841e-2
-1.267, 1.847e-2
-1.268, 1.853e-2
-1.269, 1.859e-2
-1.270, 1.865e-2
-1.271, 1.872e-2
-1.272, 1.879e-2
-1.273, 1.886e-2
-1.274, 1.894e-2
-1.275, 1.902e-2
-1.276, 1.910e-2
-1.277, 1.918e-2
-1.278, 1.927e-2
-1.279, 1.935e-2
-1.280, 1.945e-2
-1.281, 1.953e-2
-1.282, 1.961e-2
-1.283, 1.970e-2
-1.284, 1.978e-2
-1.285, 1.986e-2
-1.286, 1.994e-2
-1.287, 2.001e-2
-1.288, 2.009e-2
-1.289, 2.016e-2
-1.290, 2.025e-2
-1.291, 2.034e-2
-1.292, 2.043e-2
-1.293, 2.051e-2
-1.294, 2.058e-2
-1.295, 2.065e-2
-1.296, 2.072e-2
-1.297, 2.079e-2
-1.298, 2.087e-2
-1.299, 2.094e-2
-1.300, 2.101e-2
-1.301, 2.109e-2
-1.302, 2.117e-2
-1.303, 2.124e-2
-1.304, 2.130e-2
-1.305, 2.136e-2
-1.306, 2.141e-2
-1.307, 2.147e-2
-1.308, 2.155e-2
-1.309, 2.162e-2
-1.310, 2.170e-2
-1.311, 2.177e-2
-1.312, 2.185e-2
-1.313, 2.192e-2
-1.314, 2.200e-2
-1.315, 2.207e-2
-1.316, 2.216e-2
-1.317, 2.223e-2
-1.318, 2.230e-2
-1.319, 2.237e-2
-1.320, 2.245e-2
-1.321, 2.252e-2
-1.322, 2.260e-2
-1.323, 2.268e-2
-1.324, 2.276e-2
-1.325, 2.285e-2
-1.326, 2.294e-2
-1.327, 2.304e-2
-1.328, 2.314e-2
-1.329, 2.322e-2
-1.330, 2.329e-2
-1.331, 2.336e-2
-1.332, 2.344e-2
-1.333, 2.351e-2
-1.334, 2.359e-2
-1.335, 2.366e-2
-1.336, 2.374e-2
-1.337, 2.381e-2
-1.338, 2.388e-2
-1.339, 2.395e-2
-1.340, 2.401e-2
-1.341, 2.408e-2
-1.342, 2.414e-2
-1.343, 2.421e-2
-1.344, 2.429e-2
-1.345, 2.437e-2
-1.346, 2.446e-2
-1.347, 2.454e-2
-1.348, 2.462e-2
-1.349, 2.470e-2
-1.350, 2.478e-2
-1.351, 2.486e-2
-1.352, 2.494e-2
-1.353, 2.503e-2
-1.354, 2.511e-2
-1.355, 2.519e-2
-1.356, 2.528e-2
-1.357, 2.536e-2
-1.358, 2.544e-2
-1.359, 2.552e-2
-1.360, 2.559e-2
-1.361, 2.567e-2
-1.362, 2.574e-2
-1.363, 2.582e-2
-1.364, 2.591e-2
-1.365, 2.600e-2
-1.366, 2.608e-2
-1.367, 2.615e-2
-1.368, 2.623e-2
-1.369, 2.630e-2
-1.370, 2.637e-2
-1.371, 2.643e-2
-1.372, 2.651e-2
-1.373, 2.658e-2
-1.374, 2.666e-2
-1.375, 2.674e-2
-1.376, 2.681e-2
-1.377, 2.689e-2
-1.378, 2.697e-2
-1.379, 2.705e-2
-1.380, 2.713e-2
-1.381, 2.721e-2
-1.382, 2.729e-2
-1.383, 2.737e-2
-1.384, 2.743e-2
-1.385, 2.751e-2
-1.386, 2.758e-2
-1.387, 2.766e-2
-1.388, 2.774e-2
-1.389, 2.782e-2
-1.390, 2.790e-2
-1.391, 2.798e-2
-1.392, 2.806e-2
-1.393, 2.815e-2
-1.394, 2.824e-2
-1.395, 2.832e-2
-1.396, 2.840e-2
-1.397, 2.848e-2
-1.398, 2.857e-2
-1.399, 2.866e-2
-1.400, 2.865e-2
-1.399, 2.845e-2
-1.398, 2.825e-2
-1.397, 2.806e-2
-1.396, 2.787e-2
-1.395, 2.770e-2
-1.394, 2.752e-2
-1.393, 2.733e-2
-1.392, 2.714e-2
-1.391, 2.697e-2
-1.390, 2.680e-2
-1.389, 2.662e-2
-1.388, 2.645e-2
-1.387, 2.627e-2
-1.386, 2.610e-2
-1.385, 2.593e-2
-1.384, 2.576e-2
-1.383, 2.558e-2
-1.382, 2.540e-2
-1.381, 2.521e-2
-1.380, 2.503e-2
-1.379, 2.484e-2
-1.378, 2.466e-2
-1.377, 2.447e-2
-1.376, 2.430e-2
-1.375, 2.413e-2
-1.374, 2.396e-2
-1.373, 2.380e-2
-1.372, 2.364e-2
-1.371, 2.349e-2
-1.370, 2.334e-2
-1.369, 2.318e-2
-1.368, 2.302e-2
-1.367, 2.285e-2
-1.366, 2.269e-2
-1.365, 2.253e-2
-1.364, 2.237e-2
-1.363, 2.220e-2
-1.362, 2.205e-2
-1.361, 2.189e-2
-1.360, 2.175e-2
-1.359, 2.160e-2
-1.358, 2.146e-2
-1.357, 2.132e-2
-1.356, 2.117e-2
-1.355, 2.101e-2
-1.354, 2.086e-2
-1.353, 2.070e-2
-1.352, 2.055e-2
-1.351, 2.039e-2
-1.350, 2.023e-2
-1.349, 2.008e-2
-1.348, 1.992e-2
-1.347, 1.977e-2
-1.346, 1.961e-2
-1.345, 1.947e-2
-1.344, 1.932e-2
-1.343, 1.917e-2
-1.342, 1.903e-2
-1.341, 1.889e-2
-1.340, 1.875e-2
-1.339, 1.861e-2
-1.338, 1.846e-2
-1.337, 1.832e-2
-1.336, 1.818e-2
-1.335, 1.804e-2
-1.334, 1.791e-2
-1.333, 1.777e-2
-1.332, 1.762e-2
-1.331, 1.747e-2
-1.330, 1.732e-2
-1.329, 1.718e-2
-1.328, 1.704e-2
-1.327, 1.689e-2
-1.326, 1.675e-2
-1.325, 1.662e-2
-1.324, 1.648e-2
-1.323, 1.635e-2
-1.322, 1.620e-2
-1.321, 1.607e-2
-1.320, 1.592e-2
-1.319, 1.578e-2
-1.318, 1.563e-2
-1.317, 1.549e-2
-1.316, 1.535e-2
-1.315, 1.522e-2
-1.314, 1.508e-2
-1.313, 1.494e-2
-1.312, 1.481e-2
-1.311, 1.468e-2
-1.310, 1.455e-2
-1.309, 1.441e-2
-1.308, 1.428e-2
-1.307, 1.414e-2
-1.306, 1.400e-2
-1.305, 1.387e-2
-1.304, 1.374e-2
-1.303, 1.361e-2
-1.302, 1.347e-2
-1.301, 1.335e-2
-1.300, 1.321e-2
-1.299, 1.309e-2
-1.298, 1.296e-2
-1.297, 1.284e-2
-1.296, 1.270e-2
-1.295, 1.257e-2
-1.294, 1.244e-2
-1.293, 1.231e-2
-1.292, 1.219e-2
-1.291, 1.206e-2
-1.290, 1.193e-2
-1.289, 1.181e-2
-1.288, 1.168e-2
-1.287, 1.155e-2
-1.286, 1.142e-2
-1.285, 1.130e-2
-1.284, 1.117e-2
-1.283, 1.104e-2
-1.282, 1.091e-2
-1.281, 1.079e-2
-1.280, 1.066e-2
-1.279, 1.054e-2
-1.278, 1.042e-2
-1.277, 1.030e-2
-1.276, 1.017e-2
-1.275, 1.005e-2
-1.274, 9.931e-3
-1.273, 9.808e-3
-1.272, 9.681e-3
-1.271, 9.552e-3
-1.270, 9.425e-3
-1.269, 9.305e-3
-1.268, 9.182e-3
-1.267, 9.064e-3
-1.266, 8.944e-3
-1.265, 8.824e-3
-1.264, 8.704e-3
-1.263, 8.580e-3
-1.262, 8.457e-3
-1.261, 8.337e-3
-1.260, 8.214e-3
-1.259, 8.090e-3
-1.258, 7.964e-3
-1.257, 7.841e-3
-1.256, 7.726e-3
-1.255, 7.612e-3
-1.254, 7.498e-3
-1.253, 7.384e-3
-1.252, 7.264e-3
-1.251, 7.144e-3
-1.250, 7.023e-3
-1.249, 6.903e-3
-1.248, 6.780e-3
-1.247, 6.660e-3
-1.246, 6.539e-3
-1.245, 6.416e-3
-1.244, 6.299e-3
-1.243, 6.182e-3
-1.242, 6.068e-3
-1.241, 5.951e-3
-1.240, 5.836e-3
-1.239, 5.719e-3
-1.238, 5.605e-3
-1.237, 5.491e-3
-1.236, 5.374e-3
-1.235, 5.260e-3
-1.234, 5.149e-3
-1.233, 5.038e-3
-1.232, 4.930e-3
-1.231, 4.819e-3
-1.230, 4.708e-3
-1.229, 4.594e-3
-1.228, 4.483e-3
-1.227, 4.375e-3
-1.226, 4.261e-3
-1.225, 4.150e-3
-1.224, 4.039e-3
-1.223, 3.928e-3
-1.222, 3.820e-3
-1.221, 3.715e-3
-1.220, 3.607e-3
-1.219, 3.506e-3
-1.218, 3.398e-3
-1.217, 3.290e-3
-1.216, 3.182e-3
-1.215, 3.071e-3
-1.214, 2.963e-3
-1.213, 2.852e-3
-1.212, 2.744e-3
-1.211, 2.636e-3
-1.210, 2.531e-3
-1.209, 2.423e-3
-1.208, 2.319e-3
-1.207, 2.214e-3
-1.206, 2.109e-3
-1.205, 2.004e-3
-1.204, 1.896e-3
-1.203, 1.791e-3
-1.202, 1.684e-3
-1.201, 1.576e-3
-1.200, 1.468e-3
-1.199, 1.366e-3
-1.198, 1.258e-3
-1.197, 1.159e-3
-1.196, 1.058e-3
-1.195, 9.559e-4
-1.194, 8.511e-4
-1.193, 7.494e-4
-1.192, 6.445e-4
-1.191, 5.397e-4
-1.190, 4.349e-4
-1.189, 3.331e-4
-1.188, 2.283e-4
-1.187, 1.296e-4
-1.186, 3.099e-5
-1.185, -7.076e-5
-1.184, -1.663e-4
-1.183, -2.681e-4
-1.182, -3.667e-4
-1.181, -4.654e-4
-1.180, -5.702e-4
-1.179, -6.720e-4
-1.178, -7.737e-4
-1.177, -8.785e-4
-1.176, -9.741e-4
-1.175, -1.073e-3
-1.174, -1.168e-3
-1.173, -1.267e-3
-1.172, -1.363e-3
-1.171, -1.455e-3
-1.170, -1.551e-3
-1.169, -1.649e-3
-1.168, -1.748e-3
-1.167, -1.847e-3
-1.166, -1.945e-3
-1.165, -2.041e-3
-1.164, -2.136e-3
-1.163, -2.229e-3
-1.162, -2.325e-3
-1.161, -2.417e-3
-1.160, -2.509e-3
-1.159, -2.605e-3
-1.158, -2.698e-3
-1.157, -2.793e-3
-1.156, -2.886e-3
-1.155, -2.984e-3
-1.154, -3.077e-3
-1.153, -3.175e-3
-1.152, -3.268e-3
-1.151, -3.360e-3
-1.150, -3.453e-3
-1.149, -3.542e-3
-1.148, -3.635e-3
-1.147, -3.724e-3
-1.146, -3.820e-3
-1.145, -3.912e-3
-1.144, -4.008e-3
-1.143, -4.107e-3
-1.142, -4.202e-3
-1.141, -4.298e-3
-1.140, -4.387e-3
-1.139, -4.477e-3
-1.138, -4.566e-3
-1.137, -4.658e-3
-1.136, -4.751e-3
-1.135, -4.843e-3
-1.134, -4.933e-3
-1.133, -5.022e-3
-1.132, -5.112e-3
-1.131, -5.201e-3
-1.130, -5.290e-3
-1.129, -5.380e-3
-1.128, -5.469e-3
-1.127, -5.559e-3
-1.126, -5.645e-3
-1.125, -5.731e-3
-1.124, -5.821e-3
-1.123, -5.910e-3
-1.122, -6.000e-3
-1.121, -6.086e-3
-1.120, -6.175e-3
-1.119, -6.265e-3
-1.118, -6.357e-3
-1.117, -6.440e-3
-1.116, -6.527e-3
-1.115, -6.613e-3
-1.114, -6.696e-3
-1.113, -6.783e-3
-1.112, -6.869e-3
-1.111, -6.955e-3
-1.110, -7.042e-3
-1.109, -7.128e-3
-1.108, -7.214e-3
-1.107, -7.301e-3
-1.106, -7.387e-3
-1.105, -7.470e-3
-1.104, -7.550e-3
-1.103, -7.637e-3
-1.102, -7.720e-3
-1.101, -7.803e-3
-1.100, -7.893e-3
-1.099, -7.979e-3
-1.098, -8.065e-3
-1.097, -8.155e-3
-1.096, -8.247e-3
-1.095, -8.337e-3
-1.094, -8.426e-3
-1.093, -8.506e-3
-1.092, -8.577e-3
-1.091, -8.651e-3
-1.090, -8.734e-3
-1.089, -8.821e-3
-1.088, -8.913e-3
-1.087, -9.003e-3
-1.086, -9.098e-3
-1.085, -9.194e-3
-1.084, -9.289e-3
-1.083, -9.382e-3
-1.082, -9.465e-3
-1.081, -9.539e-3
-1.080, -9.604e-3
-1.079, -9.672e-3
-1.078, -9.742e-3
-1.077, -9.816e-3
-1.076, -9.890e-3
-1.075, -9.971e-3
-1.074, -1.005e-2
-1.073, -1.013e-2
-1.072, -1.022e-2
-1.071, -1.031e-2
-1.070, -1.041e-2
-1.069, -1.049e-2
-1.068, -1.058e-2
-1.067, -1.066e-2
-1.066, -1.074e-2
-1.065, -1.081e-2
-1.064, -1.089e-2
-1.063, -1.098e-2
-1.062, -1.107e-2
-1.061, -1.114e-2
-1.060, -1.121e-2
-1.059, -1.126e-2
-1.058, -1.132e-2
-1.057, -1.140e-2
-1.056, -1.147e-2
-1.055, -1.156e-2
-1.054, -1.164e-2
-1.053, -1.173e-2
-1.052, -1.182e-2
-1.051, -1.190e-2
-1.050, -1.197e-2
-1.049, -1.203e-2
-1.048, -1.209e-2
-1.047, -1.214e-2
-1.046, -1.220e-2
-1.045, -1.226e-2
-1.044, -1.234e-2
-1.043, -1.243e-2
-1.042, -1.250e-2
-1.041, -1.257e-2
-1.040, -1.263e-2
-1.039, -1.270e-2
-1.038, -1.277e-2
-1.037, -1.283e-2
-1.036, -1.289e-2
-1.035, -1.296e-2
-1.034, -1.304e-2
-1.033, -1.311e-2
-1.032, -1.318e-2
-1.031, -1.325e-2
-1.030, -1.333e-2
-1.029, -1.340e-2
-1.028, -1.348e-2
-1.027, -1.354e-2
-1.026, -1.361e-2
-1.025, -1.369e-2
-1.024, -1.377e-2
-1.023, -1.384e-2
-1.022, -1.392e-2
-1.021, -1.399e-2
-1.020, -1.406e-2
-1.019, -1.412e-2
-1.018, -1.420e-2
-1.017, -1.428e-2
-1.016, -1.437e-2
-1.015, -1.445e-2
-1.014, -1.452e-2
-1.013, -1.458e-2
-1.012, -1.465e-2
-1.011, -1.471e-2
-1.010, -1.477e-2
-1.009, -1.483e-2
-1.008, -1.490e-2
-1.007, -1.497e-2
-1.006, -1.505e-2
-1.005, -1.513e-2
-1.004, -1.521e-2
-1.003, -1.529e-2
-1.002, -1.537e-2
-1.001, -1.545e-2
