Potential V vs RHE, Current mA cm-2
0.013299999999999867,-0.3511313446265021
0.012299999999999978,-1.3107300193249565
0.011299999999999866,-2.008890045808352
0.010299999999999976,-2.532333226758415
0.009299999999999864,-2.8803522065252145
0.008299999999999974,-3.1420737970002466
0.007299999999999862,-3.317497998183511
0.006299999999999972,-3.447651437771094
0.00529999999999986,-3.579219588658543
0.0042999999999999705,-3.6655169779503103
0.0032999999999998586,-3.7532290785419424
0.0022999999999999687,-3.7970851288377587
0.0012999999999998568,-3.840941179133574
0.00029999999999996696,-3.884797229429391
-0.000700000000000145,-3.927238568425342
-0.0017000000000000348,-3.971094618721158
-0.0027000000000001467,-3.927238568425342
-0.0037000000000000366,-3.971094618721158
-0.0047000000000001485,-3.971094618721158
-0.005700000000000038,-3.971094618721158
-0.00670000000000015,-4.014950669016974
-0.00770000000000004,-4.014950669016974
-0.008700000000000152,-4.0588067193127895
-0.009700000000000042,-4.0588067193127895
-0.010700000000000154,-4.0588067193127895
-0.011700000000000044,-4.102662769608606
-0.012700000000000156,-4.146518819904423
-0.013700000000000045,-4.102662769608606
-0.014700000000000157,-4.102662769608606
-0.015700000000000047,-4.102662769608606
-0.01670000000000016,-4.102662769608606
-0.01770000000000005,-4.146518819904423
-0.01870000000000016,-4.146518819904423
-0.01970000000000005,-4.146518819904423
-0.020700000000000163,-4.1889601589003735
-0.021700000000000053,-4.1889601589003735
-0.022700000000000164,-4.1889601589003735
-0.023700000000000054,-4.23281620919619
-0.024700000000000166,-4.23281620919619
-0.025700000000000056,-4.1889601589003735
-0.026700000000000168,-4.23281620919619
-0.027700000000000058,-4.23281620919619
-0.02870000000000017,-4.23281620919619
-0.02970000000000006,-4.23281620919619
-0.03070000000000017,-4.23281620919619
-0.03170000000000006,-4.23281620919619
-0.03270000000000017,-4.23281620919619
-0.03370000000000006,-4.276672259492005
-0.034700000000000175,-4.276672259492005
-0.035700000000000065,-4.3205283097878215
-0.03670000000000018,-4.3205283097878215
-0.03770000000000007,-4.276672259492005
-0.03870000000000018,-4.276672259492005
-0.03970000000000007,-4.276672259492005
-0.04070000000000018,-4.3205283097878215
-0.04170000000000007,-4.276672259492005
-0.04270000000000018,-4.3205283097878215
-0.04370000000000007,-4.3205283097878215
-0.044700000000000184,-4.364384360083638
-0.045700000000000074,-4.364384360083638
-0.046700000000000186,-4.364384360083638
-0.047700000000000076,-4.364384360083638
-0.04870000000000019,-4.364384360083638
-0.04970000000000008,-4.364384360083638
-0.05070000000000019,-4.364384360083638
-0.05170000000000008,-4.364384360083638
-0.05270000000000019,-4.364384360083638
-0.05370000000000008,-4.364384360083638
-0.05470000000000019,-4.364384360083638
-0.05570000000000008,-4.364384360083638
-0.056700000000000195,-4.406825699079589
-0.057700000000000085,-4.406825699079589
-0.058700000000000196,-4.406825699079589
-0.059700000000000086,-4.406825699079589
-0.0607000000000002,-4.406825699079589
-0.06170000000000009,-4.406825699079589
-0.0627000000000002,-4.450681749375406
-0.06370000000000009,-4.406825699079589
-0.0647000000000002,-4.406825699079589
-0.06570000000000009,-4.406825699079589
-0.0667000000000002,-4.406825699079589
-0.0677000000000001,-4.450681749375406
-0.0687000000000002,-4.450681749375406
-0.0697000000000001,-4.450681749375406
-0.07070000000000021,-4.450681749375406
-0.0717000000000001,-4.450681749375406
-0.07270000000000021,-4.450681749375406
-0.0737000000000001,-4.406825699079589
-0.07470000000000021,-4.450681749375406
-0.0757000000000001,-4.406825699079589
-0.07670000000000021,-4.450681749375406
-0.0777000000000001,-4.450681749375406
-0.07870000000000021,-4.450681749375406
-0.0797000000000001,-4.494537799671222
-0.08070000000000022,-4.494537799671222
-0.0817000000000001,-4.494537799671222
-0.08270000000000022,-4.494537799671222
-0.08370000000000011,-4.494537799671222
-0.08470000000000022,-4.494537799671222
-0.08570000000000011,-4.450681749375406
-0.08670000000000022,-4.494537799671222
-0.08770000000000011,-4.450681749375406
-0.08870000000000022,-4.494537799671222
-0.08970000000000011,-4.494537799671222
-0.09070000000000022,-4.538393849967037
-0.09170000000000011,-4.494537799671222
-0.09270000000000023,-4.538393849967037
-0.09370000000000012,-4.538393849967037
-0.09470000000000023,-4.538393849967037
-0.09570000000000012,-4.538393849967037
-0.09670000000000023,-4.538393849967037
-0.09770000000000012,-4.538393849967037
-0.09870000000000023,-4.494537799671222
-0.09970000000000012,-4.494537799671222
-0.10070000000000023,-4.494537799671222
-0.10170000000000012,-4.538393849967037
-0.10270000000000024,-4.538393849967037
-0.10370000000000013,-4.538393849967037
-0.10470000000000024,-4.582249900262854
-0.10570000000000013,-4.582249900262854
-0.10670000000000024,-4.582249900262854
-0.10770000000000013,-4.582249900262854
-0.10870000000000024,-4.538393849967037
-0.10970000000000013,-4.538393849967037
-0.11070000000000024,-4.538393849967037
-0.11170000000000013,-4.582249900262854
-0.11270000000000002,-4.582249900262854
-0.11370000000000013,-4.582249900262854
-0.11470000000000002,-4.582249900262854
-0.11570000000000014,-4.626105950558669
-0.11670000000000003,-4.582249900262854
-0.11770000000000014,-4.626105950558669
-0.11870000000000003,-4.626105950558669
-0.11970000000000014,-4.626105950558669
-0.12070000000000003,-4.626105950558669
-0.12170000000000014,-4.626105950558669
-0.12270000000000003,-4.582249900262854
-0.12370000000000014,-4.626105950558669
-0.12470000000000003,-4.626105950558669
-0.12570000000000014,-4.626105950558669
-0.12670000000000003,-4.668547289554621
-0.12770000000000015,-4.668547289554621
-0.12870000000000004,-4.668547289554621
-0.12970000000000015,-4.712403339850438
-0.13070000000000004,-4.668547289554621
-0.13170000000000015,-4.668547289554621
-0.13270000000000004,-4.668547289554621
-0.13370000000000015,-4.668547289554621
-0.13470000000000004,-4.712403339850438
-0.13570000000000015,-4.668547289554621
-0.13670000000000004,-4.712403339850438
-0.13770000000000016,-4.712403339850438
-0.13870000000000005,-4.756259390146253
-0.13970000000000016,-4.756259390146253
-0.14070000000000005,-4.800115440442069
-0.14170000000000016,-4.800115440442069
-0.14270000000000005,-4.756259390146253
-0.14370000000000016,-4.756259390146253
-0.14470000000000005,-4.756259390146253
-0.14570000000000016,-4.800115440442069
-0.14670000000000005,-4.800115440442069
-0.14770000000000016,-4.843971490737885
-0.14870000000000005,-4.843971490737885
-0.14970000000000017,-4.843971490737885
-0.15070000000000006,-4.887827541033701
-0.15170000000000017,-4.887827541033701
-0.15270000000000006,-4.9302688800296535
-0.15370000000000017,-4.887827541033701
-0.15470000000000006,-4.887827541033701
-0.15570000000000017,-4.9302688800296535
-0.15670000000000006,-4.9302688800296535
-0.15770000000000017,-4.9302688800296535
-0.15870000000000006,-4.9302688800296535
-0.15970000000000018,-4.974124930325469
-0.16070000000000007,-4.974124930325469
-0.16170000000000018,-5.017980980621284
-0.16270000000000007,-5.0618370309171015
-0.16370000000000018,-5.105693081212917
-0.16470000000000007,-5.105693081212917
-0.16570000000000018,-5.105693081212917
-0.16670000000000007,-5.149549131508733
-0.16770000000000018,-5.149549131508733
-0.16870000000000007,-5.149549131508733
-0.16970000000000018,-5.149549131508733
-0.17070000000000007,-5.191990470504685
-0.17170000000000019,-5.191990470504685
-0.17270000000000008,-5.235846520800501
-0.1737000000000002,-5.279702571096316
-0.17470000000000008,-5.279702571096316
-0.1757000000000002,-5.323558621392133
-0.17670000000000008,-5.323558621392133
-0.1777000000000002,-5.367414671687949
-0.17870000000000008,-5.367414671687949
-0.1797000000000002,-5.411270721983764
-0.18070000000000008,-5.411270721983764
-0.1817000000000002,-5.453712060979717
-0.18270000000000008,-5.497568111275533
-0.1837000000000002,-5.5414241615713475
-0.1847000000000001,-5.585280211867165
-0.1857000000000002,-5.585280211867165
-0.1867000000000001,-5.629136262162981
-0.1877000000000002,-5.672992312458796
-0.1887000000000001,-5.672992312458796
-0.1897000000000002,-5.715433651454749
-0.1907000000000001,-5.759289701750564
-0.1917000000000001,-5.759289701750564
-0.19269999999999998,-5.80314575204638
-0.1937000000000001,-5.80314575204638
-0.19469999999999998,-5.890857852638012
-0.1957000000000001,-5.9347139029338285
-0.19669999999999999,-5.977155241929781
-0.1977000000000001,-6.021011292225596
-0.1987,-6.064867342521412
-0.1997000000000001,-6.108723392817228
-0.2007,-6.152579443113044
-0.2017000000000001,-6.196435493408861
-0.2027,-6.238876832404812
-0.2037000000000001,-6.238876832404812
-0.2047,-6.326588932996443
-0.2057000000000001,-6.326588932996443
-0.2067,-6.414301033588076
-0.2077000000000001,-6.458157083883892
-0.2087,-6.54445447317566
-0.2097000000000001,-6.588310523471475
-0.2107,-6.632166573767292
-0.2117000000000001,-6.6760226240631075
-0.2127,-6.762320013354876
-0.2137000000000001,-6.806176063650692
-0.2147,-6.850032113946507
-0.2157000000000001,-6.93774421453814
-0.2167,-6.981600264833956
-0.21770000000000012,-7.067897654125724
-0.2187,-7.155609754717355
-0.21970000000000012,-7.199465805013171
-0.2207,-7.28576319430494
-0.22170000000000012,-7.329619244600755
-0.2227,-7.461187395488204
-0.22370000000000012,-7.50504344578402
-0.2247,-7.5474847847799715
-0.22570000000000012,-7.635196885371603
-0.2267,-7.679052935667419
-0.22770000000000012,-7.809206375255003
-0.22870000000000001,-7.853062425550818
-0.22970000000000013,-7.984630576438266
-0.23070000000000002,-8.070927965730034
-0.23170000000000013,-8.158640066321666
-0.23270000000000002,-8.246352166913299
-0.23370000000000013,-8.332649556205066
-0.23470000000000002,-8.4203616567967
-0.23570000000000013,-8.508073757388331
-0.23670000000000002,-8.638227196975913
-0.2376999999999999,-8.68208324727173
-0.23870000000000002,-8.812236686859313
-0.2396999999999999,-8.85609273715513
-0.24070000000000003,-8.987660888042578
-0.24169999999999991,-9.11781432763016
-0.24270000000000003,-9.24938247851761
-0.24369999999999992,-9.335679867809377
-0.24470000000000003,-9.467248018696827
-0.24569999999999992,-9.55496011928846
-0.24670000000000003,-9.685113558876042
-0.24769999999999992,-9.81668170976349
-0.24870000000000003,-9.902979099055257
-0.24969999999999992,-9.99069119964689
-0.25070000000000003,-10.120844639234473
-0.2516999999999999,-10.25241279012192
-0.25270000000000004,-10.42642228000532
-0.2536999999999999,-10.557990430892769
-0.25470000000000004,-10.688143870480351
-0.2556999999999999,-10.863568071663616
-0.25670000000000004,-10.993721511251199
-0.25769999999999993,-11.1677310011346
-0.25870000000000004,-11.255443101726232
-0.25969999999999993,-11.385596541313816
-0.26070000000000004,-11.56102074249708
-0.26169999999999993,-11.691174182084664
-0.26270000000000004,-11.86659838326793
-0.26369999999999993,-11.996751822855511
-0.26470000000000005,-12.170761312738911
-0.26569999999999994,-12.302329463626359
-0.26670000000000005,-12.520195003805576
-0.26769999999999994,-12.694204493688973
-0.26870000000000005,-12.869628694872238
-0.26969999999999994,-13.043638184755638
-0.27070000000000005,-13.217647674639037
-0.27169999999999994,-13.3930718758223
-0.27270000000000005,-13.567081365705702
-0.27369999999999994,-13.741090855589102
-0.27470000000000006,-13.916515056772363
-0.27569999999999995,-14.090524546655764
-0.27670000000000006,-14.26028990263957
-0.27769999999999995,-14.486643710617974
-0.27870000000000006,-14.69885040559773
-0.27969999999999995,-14.925204213576137
-0.28070000000000006,-15.094969569559943
-0.28169999999999995,-15.307176264539699
-0.28270000000000006,-15.491088733522153
-0.28369999999999995,-15.660854089505953
-0.28470000000000006,-15.87306078448571
-0.28569999999999995,-16.099414592464115
-0.28670000000000007,-16.354062626439823
-0.28769999999999996,-16.580416434418233
-0.28870000000000007,-16.792623129397985
-0.28969999999999996,-17.018976937376394
-0.29070000000000007,-17.2736249713521
-0.29169999999999996,-17.48583166633185
-0.29270000000000007,-17.75462681330621
-0.29369999999999996,-17.966833508285966
-0.2947000000000001,-18.19318731626437
-0.29569999999999996,-18.44783535024008
-0.2967000000000001,-18.716630497214435
-0.29769999999999996,-18.97127853119014
-0.2987000000000001,-19.197632339168546
-0.29969999999999997,-19.49472171214021
-0.3007000000000001,-19.763516859114564
-0.30169999999999997,-20.01816489309027
-0.3027000000000001,-20.329401379060574
-0.30369999999999997,-20.584049413036283
-0.3047000000000001,-20.89528589900659
-0.30569999999999997,-21.107492593986347
-0.3067000000000001,-21.418729079956652
-0.3077,-21.729965565926964
-0.3087000000000001,-21.98461359990267
-0.3097,-22.295850085872978
-0.3107000000000001,-22.550498119848687
-0.3117,-22.904175944814945
-0.3127000000000001,-23.2012653177866
-0.3137,-23.55494314275286
-0.3147000000000001,-23.86617962872317
-0.3157,-24.16326900169483
-0.3167000000000001,-24.432064148669184
-0.3177,-24.771594860636792
-0.3187000000000001,-25.0828313466071
-0.3197,-25.39406783257741
-0.3207000000000001,-25.73359854454502
-0.3217,-26.044835030515326
-0.3227000000000001,-26.440954194477534
-0.3237,-26.738043567449193
-0.3247000000000001,-27.091721392415455
-0.3257,-27.487840556377662
-0.3267000000000001,-27.78492992934932
-0.3277,-28.18104909331153
-0.3287000000000001,-28.53472691827779
-0.3297,-28.8742576302454
-0.3307000000000001,-29.22793545521166
-0.3317,-29.581613280177915
-0.3327000000000001,-29.96358533114148
-0.3337,-30.359704495103685
-0.3347000000000001,-30.71338232006995
-0.3357,-31.095354371033505
-0.3367000000000001,-31.49147353499572
-0.3377,-31.930034037953877
-0.3387000000000001,-32.32615320191609
-0.3397,-32.70812525287965
-0.3407000000000001,-33.10424441684186
-0.3417,-33.50036358080407
-0.3427000000000001,-33.93892408376223
-0.3437,-34.377484586720385
-0.3447000000000001,-34.75945663768395
-0.3457,-35.15557580164616
-0.3467000000000001,-35.594136304604326
-0.3477,-36.07513814655844
-0.3487000000000001,-36.5136986495166
-0.3497,-36.89567070048016
-0.3507000000000001,-37.334231203438314
-0.3517,-37.77279170639648
-0.3527000000000001,-38.253793548350586
-0.3537,-38.692354051308754
-0.3547000000000001,-39.130914554266916
-0.3557,-39.61191639622103
-0.35670000000000013,-40.03632978618054
-0.3577,-40.51733162813464
-0.35870000000000013,-40.99833347008877
-0.3597,-41.47933531204288
-0.36070000000000013,-41.91789581500104
-0.3617,-42.4413389959511
-0.3626999999999999,-42.96478217690117
-0.3637,-43.44578401885527
-0.3646999999999999,-43.92678586080939
-0.3657,-44.4077877027635
-0.3666999999999999,-44.88878954471762
-0.3677,-45.412232725667685
-0.3686999999999999,-45.93567590661774
-0.36970000000000003,-46.501560426563756
-0.3706999999999999,-46.982562268517874
-0.37170000000000003,-47.506005449467935
-0.3726999999999999,-48.029448630417996
-0.37370000000000003,-48.55289181136806
-0.3746999999999999,-49.118776331314066
-0.37570000000000003,-49.642219512264134
-0.3766999999999999,-50.20810403221015
-0.37770000000000004,-50.68910587416426
-0.3786999999999999,-51.21254905511432
-0.37970000000000004,-51.77843357506035
-0.3806999999999999,-52.34431809500636
-0.38170000000000004,-52.91020261495237
-0.38269999999999993,-53.476087134898386
-0.38370000000000004,-54.0419716548444
-0.38469999999999993,-54.56541483579447
-0.38570000000000004,-55.21618203373238
-0.38669999999999993,-54.919092660760725
-0.38570000000000004,-53.433645795902436
-0.38469999999999993,-52.2169940780185
-0.38370000000000004,-51.25499039411028
-0.38269999999999993,-50.37786938819396
-0.38170000000000004,-49.557336834272235
-0.3806999999999999,-48.80753984534376
-0.37970000000000004,-48.114331308409895
-0.3786999999999999,-47.40697565847737
-0.37770000000000004,-46.713767121543505
-0.3766999999999999,-46.062999923605595
-0.37570000000000003,-45.412232725667685
-0.3746999999999999,-44.66243573673921
-0.37370000000000003,-44.011668538801295
-0.3726999999999999,-43.36090134086337
-0.37170000000000003,-42.71013414292546
-0.3706999999999999,-42.087661170984845
-0.36970000000000003,-41.43689397304693
-0.3686999999999999,-40.828568114104954
-0.3677,-40.177800916167044
-0.3666999999999999,-39.61191639622103
-0.3657,-38.98944342428042
-0.3646999999999999,-38.42355890433439
-0.3637,-37.81523304539243
-0.3626999999999999,-37.206907186450465
-0.3617,-36.64102266650445
-0.36070000000000013,-36.07513814655844
-0.3597,-35.50925362661242
-0.35870000000000013,-34.90092776767045
-0.3577,-34.33504324772444
-0.35670000000000013,-33.81160006677438
-0.3557,-33.288156885824314
-0.3547000000000001,-32.70812525287965
-0.3537,-32.184682071929586
-0.3527000000000001,-31.661238890979522
-0.3517,-31.137795710029454
-0.3507000000000001,-30.614352529079397
-0.3497,-30.04846800913338
-0.3487000000000001,-29.581613280177915
-0.3477,-29.058170099227848
-0.3467000000000001,-28.577168257273744
-0.3457,-28.05372507632368
-0.3447000000000001,-27.572723234369565
-0.3437,-27.091721392415455
-0.3427000000000001,-26.61071955046134
-0.3417,-26.17215904750318
-0.3407000000000001,-25.691157205549064
-0.3397,-25.167714024599
-0.3387000000000001,-24.729153521640843
-0.3377,-24.24815167968673
-0.3367000000000001,-23.767149837732617
-0.3357,-23.342736447773106
-0.3347000000000001,-22.861734605818995
-0.3337,-22.42317410286083
-0.3327000000000001,-22.027054938898623
-0.3317,-21.58849443594046
-0.3307000000000001,-21.2065223849769
-0.3297,-20.76796188201874
-0.3287000000000001,-20.371842718056527
-0.3277,-19.890840876102416
-0.3267000000000001,-19.49472171214021
-0.3257,-19.112749661176647
-0.3247000000000001,-18.674189158218486
-0.3237,-18.27806999425627
-0.3227000000000001,-17.881950830294063
-0.3217,-17.542420118326454
-0.3207000000000001,-17.146300954364243
-0.3197,-16.792623129397985
-0.3187000000000001,-16.396503965435777
-0.3177,-16.056973253468165
-0.3167000000000001,-15.660854089505953
-0.3157,-15.307176264539699
-0.3147000000000001,-14.925204213576137
-0.3137,-14.57152638860988
-0.3127000000000001,-14.217848563643619
-0.3117,-13.916515056772363
-0.3107000000000001,-13.567081365705702
-0.3097,-13.261503724934855
-0.3087000000000001,-12.913484745168056
-0.3077,-12.607907104397206
-0.3067000000000001,-12.302329463626359
-0.30569999999999997,-11.996751822855511
-0.3047000000000001,-11.647318131788847
-0.30369999999999997,-11.343155202317865
-0.3027000000000001,-10.993721511251199
-0.30169999999999997,-10.688143870480351
-0.3007000000000001,-10.382566229709504
-0.29969999999999997,-10.120844639234473
-0.2987000000000001,-9.85912304875944
-0.29769999999999996,-9.55496011928846
-0.2967000000000001,-9.293238528813426
-0.29569999999999996,-9.031516938338395
-0.2947000000000001,-8.769795347863363
-0.29369999999999996,-8.464217707092514
-0.29270000000000007,-8.202496116617484
-0.29169999999999996,-7.940774526142452
-0.29070000000000007,-7.679052935667419
-0.28969999999999996,-7.4173313451923875
-0.28870000000000007,-7.155609754717355
-0.28769999999999996,-6.93774421453814
-0.28670000000000007,-6.6760226240631075
-0.28569999999999995,-6.458157083883892
-0.28470000000000006,-6.238876832404812
-0.28369999999999995,-5.977155241929781
-0.28270000000000006,-5.759289701750564
-0.28169999999999995,-5.5414241615713475
-0.28070000000000006,-5.323558621392133
-0.27969999999999995,-5.0618370309171015
-0.27870000000000006,-4.843971490737885
-0.27769999999999995,-4.626105950558669
-0.27670000000000006,-4.450681749375406
-0.27569999999999995,-4.23281620919619
-0.27470000000000006,-4.0588067193127895
-0.27369999999999994,-3.840941179133574
-0.27270000000000005,-3.6655169779503103
-0.27169999999999994,-3.4915074880669104
-0.27070000000000005,-3.273641947887695
-0.26969999999999994,-3.0996324580042955
-0.26870000000000005,-2.924208256821031
-0.26769999999999994,-2.706342716641815
-0.26670000000000005,-2.4884771764625997
-0.26569999999999994,-2.3569090255751513
-0.26470000000000005,-2.1828995356917518
