Potential V vs RHE, Current mA cm-2
0.05339999999999995,-0.02772834147735472
0.05239999999999995,-0.028746933613257548
0.051399999999999946,-0.029369406585198165
0.050399999999999945,-0.029850408427152274
0.049399999999999944,-0.030274821817111785
0.04839999999999994,-0.030642646755076695
0.04739999999999994,-0.03099632458004295
0.04639999999999994,-0.03132170817901191
0.04539999999999994,-0.03166123889097952
0.04439999999999994,-0.03200076960294713
0.04339999999999994,-0.03229785897591879
0.04239999999999994,-0.0326090954618891
0.04139999999999994,-0.0329203319478594
0.040399999999999936,-0.03324571554682836
0.039399999999999935,-0.03359939337179463
0.038399999999999934,-0.033924776970763584
0.03739999999999993,-0.03422186634373524
0.03639999999999993,-0.03453310282970555
0.03539999999999993,-0.03481604508967855
0.03439999999999993,-0.035127281575648865
0.03339999999999993,-0.03542437094862052
0.03239999999999993,-0.03572146032159217
0.03139999999999993,-0.036018549694563834
0.030399999999999927,-0.03634393329353279
0.029399999999999926,-0.0366834640055004
0.028399999999999925,-0.03699470049147071
0.027399999999999924,-0.037291789864442364
0.026399999999999924,-0.037603026350412676
0.025399999999999923,-0.03794255706238028
0.024399999999999922,-0.03825379354835059
0.02339999999999992,-0.0385650300343209
0.02239999999999992,-0.03886211940729256
0.02139999999999992,-0.03918750300626152
0.020399999999999918,-0.039527033718229125
0.019399999999999917,-0.03988071154319539
0.018399999999999916,-0.04017780091616704
0.017399999999999916,-0.04048903740213735
0.016399999999999915,-0.040814421001106306
0.015399999999999914,-0.04115395171307392
0.014399999999999913,-0.04152177665103883
0.013399999999999912,-0.04184716025000779
0.012399999999999911,-0.042186690961975394
0.01139999999999991,-0.0424696332219484
0.01039999999999991,-0.042823311046914656
0.009399999999999908,-0.043205283097878217
0.008399999999999908,-0.04353066669684717
0.007399999999999907,-0.043870197408814794
0.006399999999999906,-0.0442097281207824
0.005399999999999905,-0.04456340594574865
0.004399999999999904,-0.044945377996712214
0.003399999999999903,-0.04528490870867982
0.002399999999999902,-0.045624439420647436
0.0013999999999999013,-0.04594982301961639
0.00039999999999990044,-0.046331795070579954
-0.0006000000000001005,-0.046699620008544857
-0.0016000000000001013,-0.04706744494650977
-0.0026000000000001022,-0.04743526988447468
-0.003600000000000103,-0.04778894770944094
-0.004600000000000104,-0.048170919760404496
-0.005600000000000105,-0.04856703892436671
-0.006600000000000106,-0.048920716749332974
-0.007600000000000107,-0.049288541687297883
-0.008600000000000108,-0.04965636662526278
-0.009600000000000108,-0.050024191563227696
-0.01060000000000011,-0.05042031072718991
-0.01160000000000011,-0.05081642989115212
-0.012600000000000111,-0.05119840194211568
-0.013600000000000112,-0.05160866821907654
-0.014600000000000113,-0.05197649315704145
-0.015600000000000114,-0.05240090654700096
-0.016600000000000115,-0.052782878597964523
-0.017600000000000116,-0.05316485064892808
-0.018600000000000116,-0.053546822699891646
-0.019600000000000117,-0.05394294186385385
-0.020600000000000118,-0.054367355253813365
-0.02160000000000012,-0.05477762153077422
-0.02260000000000012,-0.05515959358173778
-0.02360000000000012,-0.055541565632701344
-0.024600000000000122,-0.05595183190966221
-0.025600000000000123,-0.05637624529962171
-0.026600000000000124,-0.05678651157658257
-0.027600000000000124,-0.057182630740544776
-0.028600000000000125,-0.05757874990450699
-0.029600000000000126,-0.058003163294466496
-0.030600000000000127,-0.05845587091042332
-0.03160000000000013,-0.05886613718738417
-0.03260000000000013,-0.059248109238347745
-0.03360000000000013,-0.05965837551530859
-0.03460000000000002,-0.06005449467927081
-0.03560000000000002,-0.060521349408226274
-0.03660000000000002,-0.060903321459189835
-0.03760000000000002,-0.06134188196214799
-0.03860000000000002,-0.061752148239108844
-0.039600000000000024,-0.06217656162906836
-0.040600000000000025,-0.06265756347102248
-0.041600000000000026,-0.06308197686098199
-0.04260000000000003,-0.06349224313794286
-0.04360000000000003,-0.06393080364090101
-0.04460000000000003,-0.06438351125685782
-0.04560000000000003,-0.06485036598581327
-0.04660000000000003,-0.06527477937577279
-0.04760000000000003,-0.0656991927657323
-0.04860000000000003,-0.06613775326869047
-0.04960000000000003,-0.06657631377164863
-0.050600000000000034,-0.06705731561360274
-0.051600000000000035,-0.06751002322955955
-0.052600000000000036,-0.06789199528052312
-0.053600000000000037,-0.06835885000947857
-0.05460000000000004,-0.06879741051243674
-0.05560000000000004,-0.06927841235439085
-0.05660000000000004,-0.06973111997034764
-0.05760000000000004,-0.07014138624730852
-0.05860000000000004,-0.07060824097626398
-0.05960000000000004,-0.07107509570521944
-0.06060000000000004,-0.07155609754717356
-0.061600000000000044,-0.07199465805013172
-0.06260000000000004,-0.07241907144009123
-0.06360000000000005,-0.0728859261690467
-0.06460000000000005,-0.0733103395590062
-0.06560000000000005,-0.07377719428796166
-0.06660000000000005,-0.07424404901691713
-0.06760000000000005,-0.07469675663287394
-0.06860000000000005,-0.0751353171358321
-0.06960000000000005,-0.07558802475178891
-0.07060000000000005,-0.07605487948074438
-0.07160000000000005,-0.07647929287070389
-0.07260000000000005,-0.0769037062606634
-0.07360000000000005,-0.07737056098961885
-0.07460000000000006,-0.07780912149257702
-0.07560000000000006,-0.07829012333453113
-0.07660000000000006,-0.07874283095048794
-0.07760000000000006,-0.0791813914534461
-0.07860000000000006,-0.07961995195640426
-0.07960000000000006,-0.08004436534636378
-0.08060000000000006,-0.08052536718831789
-0.08160000000000006,-0.08094978057827738
-0.08260000000000006,-0.08140248819423422
-0.08360000000000006,-0.08184104869719236
-0.08460000000000006,-0.08227960920015054
-0.08560000000000006,-0.08273231681610735
-0.08660000000000007,-0.0831708773190655
-0.08760000000000007,-0.08355284937002906
-0.08860000000000007,-0.08396311564698994
-0.08960000000000007,-0.08437338192395079
-0.09060000000000007,-0.0848260895399076
-0.09160000000000007,-0.08526465004286575
-0.09260000000000007,-0.08564662209382931
-0.09360000000000007,-0.08607103548378882
-0.09460000000000007,-0.08649544887374834
-0.09560000000000007,-0.08691986226370785
-0.09660000000000007,-0.08734427565366736
-0.09760000000000008,-0.08769795347863363
-0.09860000000000008,-0.08809407264259583
-0.09960000000000008,-0.0885043389195567
-0.10060000000000008,-0.08891460519651756
-0.10160000000000008,-0.08935316569947571
-0.10260000000000008,-0.08974928486343793
-0.10360000000000008,-0.09013125691440148
-0.10460000000000008,-0.09052737607836371
-0.10560000000000008,-0.09093764235532456
-0.10660000000000008,-0.09133376151928675
-0.10760000000000008,-0.09171573357025031
-0.10860000000000009,-0.09206941139521659
-0.10960000000000009,-0.09245138344618015
-0.11060000000000009,-0.09286164972314101
-0.11160000000000009,-0.09324362177410456
-0.11260000000000009,-0.09361144671206949
-0.11360000000000009,-0.09397927165003438
-0.11460000000000009,-0.09436124370099794
-0.11560000000000009,-0.09475736286496016
-0.11660000000000009,-0.0951110406899264
-0.1176000000000001,-0.09545057140189403
-0.1186000000000001,-0.09580424922686027
-0.1196000000000001,-0.09614377993882789
-0.1206000000000001,-0.0965116048767928
-0.1216000000000001,-0.09686528270175906
-0.1226000000000001,-0.09719066630072802
-0.1236000000000001,-0.09748775567369967
-0.1246000000000001,-0.09779899215966999
-0.1256000000000001,-0.09815266998463625
-0.1266000000000001,-0.0984780535836052
-0.1276000000000001,-0.09877514295657686
-0.1286000000000001,-0.09907223232954852
-0.1296000000000001,-0.09936932170252018
-0.1306000000000001,-0.09970885241448779
-0.1316000000000001,-0.10002008890045809
-0.1326000000000001,-0.10031717827342976
-0.1336000000000001,-0.10060012053340277
-0.1346000000000001,-0.10086891568037712
-0.1356000000000001,-0.10115185794035012
-0.1366000000000001,-0.10143480020032314
-0.1376000000000001,-0.10170359534729749
-0.1386000000000001,-0.10197239049427186
-0.1396000000000001,-0.10222703852824755
-0.1406000000000001,-0.10246753944922461
-0.14160000000000011,-0.10273633459619896
-0.14260000000000012,-0.10296268840417737
-0.14360000000000012,-0.10317489509915713
-0.14460000000000012,-0.10341539602013419
-0.14560000000000012,-0.10365589694111124
-0.14660000000000012,-0.10386810363609099
-0.14760000000000012,-0.1040944574440694
-0.14860000000000012,-0.1042925170260505
-0.14960000000000012,-0.10450472372103026
-0.15060000000000012,-0.10471693041601002
-0.15160000000000012,-0.10490084288499248
-0.15260000000000012,-0.10509890246697358
-0.15360000000000013,-0.10526866782295738
-0.15460000000000013,-0.10546672740493848
-0.15560000000000013,-0.10567893409991824
-0.15660000000000013,-0.1058628465689007
-0.15760000000000013,-0.10601846481188584
-0.15860000000000013,-0.10618823016786964
-0.15960000000000002,-0.10631555418485751
-0.16060000000000002,-0.10648531954084133
-0.16160000000000002,-0.10664093778382645
-0.16260000000000002,-0.10676826180081432
-0.16360000000000002,-0.10692388004379948
-0.16460000000000002,-0.10703705694778867
-0.16560000000000002,-0.10723511652976979
-0.16660000000000003,-0.10740488188575359
-0.16760000000000003,-0.10748976456374548
-0.16860000000000003,-0.10760294146773468
-0.16960000000000003,-0.10767367703272793
-0.17060000000000003,-0.10778685393671714
-0.17160000000000003,-0.1078858837277077
-0.17260000000000003,-0.10795661929270095
-0.17360000000000003,-0.10804150197069286
-0.17460000000000003,-0.10812638464868475
-0.17560000000000003,-0.10821126732667666
-0.17660000000000003,-0.10828200289166989
-0.17760000000000004,-0.1083102971176672
-0.17860000000000004,-0.10838103268266046
-0.17960000000000004,-0.10842347402165642
-0.18060000000000004,-0.10849420958664967
-0.18160000000000004,-0.10853665092564563
-0.18260000000000004,-0.10857909226464157
-0.18360000000000004,-0.10860738649063886
-0.18460000000000004,-0.10863568071663617
-0.18560000000000004,-0.10864982782963481
-0.18660000000000004,-0.10867812205563213
-0.18760000000000004,-0.10867812205563213
-0.18860000000000005,-0.10869226916863078
-0.18960000000000005,-0.10869226916863078
-0.19060000000000005,-0.10870641628162941
-0.19160000000000005,-0.10874885762062536
-0.19260000000000005,-0.10873471050762673
-0.19360000000000005,-0.10870641628162941
-0.19460000000000005,-0.10872056339462807
-0.19560000000000005,-0.10874885762062536
-0.19660000000000005,-0.10872056339462807
-0.19760000000000005,-0.10869226916863078
-0.19860000000000005,-0.10867812205563213
-0.19960000000000006,-0.10864982782963481
-0.20060000000000006,-0.10864982782963481
-0.20160000000000006,-0.10860738649063886
-0.20260000000000006,-0.10856494515164292
-0.20360000000000006,-0.10855079803864424
-0.20460000000000006,-0.10849420958664967
-0.20560000000000006,-0.10846591536065237
-0.20660000000000006,-0.10843762113465506
-0.20760000000000006,-0.10838103268266046
-0.20860000000000006,-0.1083102971176672
-0.20960000000000006,-0.10826785577867125
-0.21060000000000006,-0.10821126732667666
-0.21160000000000007,-0.10819712021367801
-0.21260000000000007,-0.10811223753568612
-0.21360000000000007,-0.10804150197069286
-0.21460000000000007,-0.10791417795370499
-0.21560000000000007,-0.10784344238871174
-0.21660000000000007,-0.10778685393671714
-0.21760000000000007,-0.10775855971071985
-0.21860000000000007,-0.1076878241457266
-0.21960000000000007,-0.10761708858073335
-0.22060000000000007,-0.10756050012873873
-0.22160000000000007,-0.10748976456374548
-0.22260000000000008,-0.10739073477275493
-0.22360000000000008,-0.10730585209476304
-0.22460000000000008,-0.10720682230377249
-0.22560000000000008,-0.10715023385177787
-0.22660000000000008,-0.10707949828678462
-0.22760000000000008,-0.10698046849579408
-0.22860000000000008,-0.10690973293080082
-0.22960000000000008,-0.10682485025280893
-0.23060000000000008,-0.10675411468781566
-0.23160000000000008,-0.10669752623582107
-0.23260000000000008,-0.10655605510583457
-0.23360000000000009,-0.10641458397584806
-0.2346000000000001,-0.10631555418485751
-0.2356000000000001,-0.10621652439386696
-0.2366000000000001,-0.10613164171587507
-0.2376000000000001,-0.1060326119248845
-0.2386000000000001,-0.10593358213389395
-0.2396000000000001,-0.10582040522990475
-0.2406000000000001,-0.10576381677791014
-0.2416000000000001,-0.10569308121291689
-0.2426000000000001,-0.10559405142192634
-0.2436000000000001,-0.10549502163093578
-0.2446000000000001,-0.10539599183994523
-0.2456000000000001,-0.10531110916195333
-0.2466000000000001,-0.10524037359696008
-0.2476000000000001,-0.10511304957997222
-0.2486000000000001,-0.10504231401497897
-0.2496000000000001,-0.10497157844998573
-0.2506000000000001,-0.10487254865899517
-0.2516000000000001,-0.10480181309400192
-0.2526000000000001,-0.10467448907701406
-0.2536000000000001,-0.10458960639902216
-0.2546000000000001,-0.10449057660803161
-0.2556000000000001,-0.10439154681704105
-0.2566000000000001,-0.10430666413904917
-0.2576000000000001,-0.1042076343480586
-0.2586000000000001,-0.10410860455706805
-0.2596000000000001,-0.10399542765307884
-0.2606000000000001,-0.10393883920108424
-0.2616000000000001,-0.10389639786208829
-0.2626000000000001,-0.10378322095809908
-0.2636000000000001,-0.10365589694111124
-0.2646000000000001,-0.10358516137611798
-0.2656000000000001,-0.10351442581112473
-0.2666000000000001,-0.10342954313313284
-0.2676000000000001,-0.10334466045514094
-0.2686000000000001,-0.1032739248901477
-0.2696000000000001,-0.10318904221215577
-0.2706000000000001,-0.10314660087315983
-0.2716000000000001,-0.10311830664716252
-0.2726000000000001,-0.10299098263017467
-0.2736000000000001,-0.10287780572618546
-0.2746000000000001,-0.10282121727419087
-0.2756000000000001,-0.10280707016119221
-0.2766000000000001,-0.10275048170919761
-0.2776000000000001,-0.10260901057921111
-0.2786000000000001,-0.10248168656222324
-0.2796000000000001,-0.10241095099723
-0.2806000000000001,-0.10239680388423136
-0.28160000000000013,-0.1023826567712327
-0.28260000000000013,-0.1022977740932408
-0.28360000000000013,-0.1021845971892516
-0.2846,-0.10208556739826105
-0.2856,-0.1020148318332678
-0.2866,-0.1020148318332678
-0.2876,-0.1019299491552759
-0.2886,-0.10185921359028265
-0.2896,-0.10173188957329479
-0.2906,-0.10167530112130019
-0.2916,-0.10163285978230424
-0.2926,-0.10151968287831505
-0.2936,-0.10143480020032314
-0.29460000000000003,-0.10133577040933257
-0.29560000000000003,-0.10127918195733798
-0.29660000000000003,-0.10125088773134068
-0.29760000000000003,-0.10113771082735147
-0.29860000000000003,-0.10103868103636092
-0.29960000000000003,-0.10095379835836901
-0.30060000000000003,-0.10092550413237171
-0.30160000000000003,-0.10084062145437982
-0.30260000000000004,-0.10079818011538387
-0.30360000000000004,-0.10072744455039061
-0.30460000000000004,-0.10068500321139465
-0.30560000000000004,-0.1005859734204041
-0.30660000000000004,-0.10057182630740545
-0.30760000000000004,-0.10052938496840952
-0.30860000000000004,-0.10043035517741895
-0.30960000000000004,-0.10037376672542435
-0.31060000000000004,-0.10031717827342976
-0.31160000000000004,-0.10023229559543784
-0.31260000000000004,-0.10016156003044459
-0.31360000000000005,-0.10010497157845
-0.31460000000000005,-0.1000766773524527
-0.31560000000000005,-0.10003423601345675
-0.31660000000000005,-0.09993520622246618
-0.31760000000000005,-0.0999069119964689
-0.31860000000000005,-0.09982202931847699
-0.31960000000000005,-0.0997654408664824
-0.32060000000000005,-0.0997654408664824
-0.32160000000000005,-0.09965226396249319
-0.32260000000000005,-0.0995673812845013
-0.32360000000000005,-0.09953908705850398
-0.32460000000000006,-0.09949664571950805
-0.32560000000000006,-0.09949664571950805
-0.32660000000000006,-0.09945420438051207
-0.32760000000000006,-0.09939761592851748
-0.32860000000000006,-0.09931273325052556
-0.32960000000000006,-0.09927029191152963
-0.33060000000000006,-0.09924199768553231
-0.33160000000000006,-0.09919955634653636
-0.33260000000000006,-0.09914296789454177
-0.33360000000000006,-0.09904393810355122
-0.33460000000000006,-0.09900149676455527
-0.33560000000000006,-0.09900149676455527
-0.33660000000000007,-0.09900149676455527
-0.33760000000000007,-0.09900149676455527
-0.33860000000000007,-0.09897320253855796
-0.33960000000000007,-0.09887417274756742
-0.34060000000000007,-0.0988175842955728
-0.34160000000000007,-0.09883173140857146
-0.34260000000000007,-0.09871855450458226
-0.34360000000000007,-0.09864781893958902
-0.3446000000000001,-0.09857708337459577
-0.3456000000000001,-0.09861952471359171
-0.3466000000000001,-0.09860537760059306
-0.34759999999999996,-0.09856293626159711
-0.3486000000000001,-0.09854878914859845
-0.34959999999999997,-0.09849220069660385
-0.3506000000000001,-0.09849220069660385
-0.35159999999999997,-0.09849220069660385
-0.3526000000000001,-0.09852049492260115
-0.35359999999999997,-0.0985346420355998
-0.3546000000000001,-0.09850634780960252
-0.35559999999999997,-0.09849220069660385
-0.3566000000000001,-0.09849220069660385
-0.3576,-0.09843561224460926
-0.3586000000000001,-0.0984214651316106
-0.3596,-0.09840731801861195
-0.3606000000000001,-0.09840731801861195
-0.3616,-0.09839317090561331
-0.3626000000000001,-0.09837902379261465
-0.3636,-0.09839317090561331
-0.3646000000000001,-0.0983365824536187
-0.3656,-0.0983365824536187
-0.3666000000000001,-0.09840731801861195
-0.3676,-0.09837902379261465
-0.3686000000000001,-0.0983082882276214
-0.3696,-0.0983082882276214
-0.3706000000000001,-0.0984497593576079
-0.3716,-0.0984497593576079
-0.3726000000000001,-0.098364876679616
-0.3736,-0.0984214651316106
-0.3746000000000001,-0.09843561224460926
-0.3756,-0.0984780535836052
-0.3766000000000001,-0.09852049492260115
-0.3776,-0.09852049492260115
-0.3786000000000001,-0.09857708337459577
-0.3796,-0.09849220069660385
-0.3806000000000001,-0.09843561224460926
-0.3816,-0.09846390647060656
-0.3826000000000001,-0.09850634780960252
-0.3836,-0.09850634780960252
-0.3846000000000001,-0.09856293626159711
-0.3856,-0.09857708337459577
-0.3866000000000001,-0.09863367182659036
-0.3876,-0.09864781893958902
-0.3886000000000001,-0.09869026027858496
-0.3896,-0.09871855450458226
-0.3906000000000001,-0.0987044073915836
-0.3916,-0.09874684873057955
-0.3926000000000001,-0.09880343718257417
-0.3936,-0.09884587852157012
-0.3946000000000001,-0.09893076119956201
-0.3956,-0.09895905542555931
-0.3966000000000001,-0.09912882078154311
-0.3976,-0.09921370345953502
-0.3986000000000001,-0.09914296789454177
-0.3996,-0.09908637944254717
-0.4006000000000001,-0.09912882078154311
-0.4016,-0.09921370345953502
-0.4026000000000001,-0.09929858613752693
-0.4036,-0.09935517458952153
-0.4046000000000001,-0.09938346881551882
-0.4056,-0.09945420438051207
-0.40660000000000013,-0.09955323417150262
-0.4076,-0.09958152839749992
-0.40860000000000013,-0.09979373509247969
-0.4096,-0.09986447065747293
-0.41060000000000013,-0.09996350044846349
-0.4116,-0.10006253023945405
-0.41260000000000013,-0.1001332658044473
-0.4136,-0.10020400136944055
-0.41460000000000014,-0.100387913838423
-0.4156,-0.1004727965164149
-0.41660000000000014,-0.10052938496840952
-0.4176,-0.10068500321139465
-0.41860000000000014,-0.10079818011538387
-0.41960000000000003,-0.10089720990637441
-0.42060000000000014,-0.10103868103636092
-0.42160000000000003,-0.10123674061834202
-0.42260000000000014,-0.10140650597432584
-0.42360000000000003,-0.10154797710431233
-0.42460000000000014,-0.10167530112130019
-0.42560000000000003,-0.10166115400830154
-0.42660000000000015,-0.10174603668629344
-0.42760000000000004,-0.10188750781627993
-0.42860000000000015,-0.1020431260592651
-0.42960000000000004,-0.1022128914152489
-0.43060000000000015,-0.10236850965823405
-0.43160000000000004,-0.10255242212721652
-0.43260000000000015,-0.10267974614420436
-0.43360000000000004,-0.10282121727419087
-0.43460000000000015,-0.10297683551717601
-0.43560000000000004,-0.10313245376016117
