Potential V vs RHE, Current mA cm-2
0.013299999999999867,32.4676243319026
0.012299999999999978,30.487028512091538
0.011299999999999866,28.718639387260247
0.010299999999999976,27.1058685054141
0.009299999999999864,25.57798030155986
0.008299999999999974,24.149121888696175
0.007299999999999862,22.706116362833843
0.006299999999999972,21.362140627962056
0.00529999999999986,20.07475334508487
0.0042999999999999705,18.88639585319824
0.0032999999999998586,17.74047970030756
0.0022999999999999687,16.56626932141958
0.0012999999999998568,15.406206055530248
0.00029999999999996696,14.316878354634172
-0.000700000000000145,13.275650837933506
-0.0017000000000000348,12.251399856831219
-0.0027000000000001467,11.238466566127851
-0.0037000000000000366,10.217045007625295
-0.0047000000000001485,9.26070016891653
-0.005700000000000038,8.363773204802097
-0.00670000000000015,7.486652198885773
-0.00770000000000004,6.608116481669587
-0.008700000000000152,5.705530672355693
-0.009700000000000042,4.863777448935997
-0.010700000000000154,4.05314787411333
-0.011700000000000044,3.2623242574887747
-0.012700000000000156,2.4700859295643536
-0.013700000000000045,1.6806770242396636
-0.014700000000000157,0.9112155482430702
-0.015700000000000047,0.21135786819983648
-0.01670000000000016,-0.48949010975330265
-0.01770000000000005,-1.2020801914953216
-0.01870000000000016,-1.9126896774175295
-0.01970000000000005,-2.5988246578520724
-0.020700000000000163,-3.2212976297926885
-0.021700000000000053,-3.8395264678337093
-0.022700000000000164,-4.480390686672571
-0.023700000000000054,-5.1212549055114325
-0.024700000000000166,-5.739483743552454
-0.025700000000000056,-6.305368263498468
-0.026700000000000168,-6.852861536546238
-0.027700000000000058,-7.427234324291442
-0.02870000000000017,-8.036974894533273
-0.02970000000000006,-8.604274125779153
-0.03070000000000017,-9.109326059830972
-0.03170000000000006,-9.607304437383464
-0.03270000000000017,-10.139235886132717
-0.03370000000000006,-10.675411468781567
-0.034700000000000175,-11.18753695933271
-0.035700000000000065,-11.661465244787498
-0.03670000000000018,-12.11417286074431
-0.03770000000000007,-12.585271723599366
-0.03870000000000018,-13.079005967252264
-0.03970000000000007,-13.54444598490786
-0.04070000000000018,-13.973103508766966
-0.04170000000000007,-14.444202371622024
-0.04270000000000018,-14.925204213576137
-0.04370000000000007,-15.3920589425316
-0.044700000000000184,-15.844766558488407
-0.045700000000000074,-16.22673860945197
-0.046700000000000186,-16.622857773414182
-0.047700000000000076,-17.03312405037504
-0.04870000000000019,-17.471684553333205
-0.04970000000000008,-17.910245056291366
-0.05070000000000019,-18.263922881257624
-0.05170000000000008,-18.57515936722793
-0.05270000000000019,-18.95713141819149
-0.05370000000000008,-19.381544808151002
-0.05470000000000019,-19.805958198110513
-0.05570000000000008,-20.17378313607542
-0.056700000000000195,-20.569902300037633
-0.057700000000000085,-20.980168576998494
-0.058700000000000196,-21.376287740960702
-0.059700000000000086,-21.758259791924264
-0.0607000000000002,-22.140231842887825
-0.06170000000000009,-22.550498119848687
-0.0627000000000002,-22.91832305781359
-0.06370000000000009,-23.328589334774456
-0.0647000000000002,-23.710561385738018
-0.06570000000000009,-24.050092097705623
-0.0667000000000002,-24.36132858367593
-0.0677000000000001,-24.729153521640843
-0.0687000000000002,-25.12527268560305
-0.0697000000000001,-25.49309762356796
-0.07070000000000021,-25.832628335535567
-0.0717000000000001,-26.129717708507226
-0.07270000000000021,-26.497542646472137
-0.0737000000000001,-26.907808923433
-0.07470000000000021,-27.289780974396557
-0.0757000000000001,-27.65760591236147
-0.07670000000000021,-28.011283737327723
-0.0777000000000001,-28.364961562293985
-0.07870000000000021,-28.732786500258893
-0.0797000000000001,-29.029875873230555
-0.08070000000000022,-29.32696524620221
-0.0817000000000001,-29.62405461917387
-0.08270000000000022,-29.991879557138777
-0.08370000000000011,-30.402145834099635
-0.08470000000000022,-30.727529433068593
-0.08570000000000011,-31.08120725803486
-0.08670000000000022,-31.392443744005163
-0.08770000000000011,-31.731974455972775
-0.08870000000000022,-32.170534958930936
-0.08970000000000011,-32.53835989689585
-0.09070000000000022,-32.821302156868846
-0.09170000000000011,-33.14668575583781
-0.09270000000000023,-33.48621646780542
-0.09370000000000012,-33.85404140577033
-0.09470000000000023,-34.221866343735236
-0.09570000000000012,-34.50480860370825
-0.09670000000000023,-34.84433931567585
-0.09770000000000012,-35.183870027643465
-0.09870000000000023,-35.49510651361377
-0.09970000000000012,-35.87707856457733
-0.10070000000000023,-36.17416793754898
-0.10170000000000012,-36.47125731052064
-0.10270000000000024,-36.81078802248826
-0.10370000000000013,-37.221054299449115
-0.10470000000000024,-37.617173463411326
-0.10570000000000013,-37.94255706238028
-0.10670000000000024,-38.22549932235329
-0.10770000000000013,-38.5650300343209
-0.10870000000000024,-38.90456074628851
-0.10970000000000013,-39.21579723225882
-0.11070000000000024,-39.52703371822913
-0.11170000000000013,-39.85241731719808
-0.11270000000000002,-40.234389368161644
-0.11370000000000013,-40.616361419125205
-0.11470000000000002,-40.92759790509552
-0.11570000000000014,-41.23883439106582
-0.11670000000000003,-41.55007087703613
-0.11770000000000014,-41.87545447600508
-0.11870000000000003,-42.243279413969994
-0.11970000000000014,-42.582810125937606
-0.12070000000000003,-42.93648795090387
-0.12170000000000014,-43.41748979285798
-0.12270000000000003,-43.84190318281749
-0.12370000000000014,-44.153139668787794
-0.12470000000000003,-44.39364058976485
-0.12570000000000014,-44.648288623740555
-0.12670000000000003,-45.12929046569467
-0.12770000000000015,-45.497115403659585
-0.12870000000000004,-45.85079322862584
-0.12970000000000015,-46.162029714596144
-0.13070000000000004,-46.43082486157051
-0.13170000000000015,-46.78450268653676
-0.13270000000000004,-47.16647473750032
-0.13370000000000015,-47.590888127459834
-0.13470000000000004,-48.04359574341665
-0.13570000000000015,-48.35483222938696
-0.13670000000000004,-48.55289181136806
-0.13770000000000016,-48.86412829733837
-0.13870000000000005,-49.24610034830193
-0.13970000000000016,-49.58563106026953
-0.14070000000000005,-49.9110146592385
-0.14170000000000016,-50.22225114520881
-0.14270000000000005,-50.51934051818046
-0.14370000000000016,-50.957901021138625
-0.14470000000000005,-51.31157884610488
-0.14570000000000016,-51.60866821907654
-0.14670000000000005,-51.8491691400536
-0.14770000000000016,-52.1038171740293
-0.14870000000000005,-52.42920077299826
-0.14970000000000017,-52.81117282396182
-0.15070000000000006,-53.10826219693348
-0.15170000000000017,-53.362910230909186
-0.15270000000000006,-53.75902939487139
-0.15370000000000017,-54.18344278483091
-0.15470000000000006,-54.551267722795814
-0.15570000000000017,-54.86250420876612
-0.15670000000000006,-55.14544646873913
-0.15770000000000017,-55.456682954709436
-0.15870000000000006,-55.82450789267435
-0.15970000000000018,-56.1781857176406
-0.16070000000000007,-56.560157768604164
-0.16170000000000018,-57.012865384560975
-0.16270000000000007,-57.352396096528594
-0.16370000000000018,-57.73436814749215
-0.16470000000000007,-58.05975174646111
-0.16570000000000018,-58.32854689343546
-0.16670000000000007,-58.62563626640712
-0.16770000000000018,-58.97931409137338
-0.16870000000000007,-59.375433255335594
-0.16970000000000018,-59.7432581933005
-0.17070000000000007,-60.08278890526811
-0.17170000000000019,-60.39402539123842
-0.17270000000000008,-60.73355610320602
-0.1737000000000002,-61.12967526716824
-0.17470000000000008,-61.61067710912235
-0.1757000000000002,-61.89361936909536
-0.17670000000000008,-62.21900296806431
-0.1777000000000002,-62.700004810018434
-0.17870000000000008,-63.05368263498469
-0.1797000000000002,-63.350772007956344
-0.18070000000000008,-63.71859694592126
-0.1817000000000002,-64.02983343189156
-0.18270000000000008,-64.39765836985646
-0.1837000000000002,-64.79377753381868
-0.1847000000000001,-65.17574958478224
-0.1857000000000002,-65.5860158617431
-0.1867000000000001,-65.9255465737107
-0.1877000000000002,-66.27922439867696
-0.1887000000000001,-66.68949067563783
-0.1897000000000002,-67.3261107605771
-0.1907000000000001,-67.56661168155415
-0.1917000000000001,-67.9485837325177
-0.19269999999999998,-68.38714423547587
-0.1937000000000001,-69.0096172074165
-0.19469999999999998,-69.50476616236925
-0.1957000000000001,-69.84429687433686
-0.19669999999999999,-70.16968047330582
-0.1977000000000001,-70.55165252426939
-0.1987,-70.89118323623698
-0.1997000000000001,-71.30144951319785
-0.2007,-71.74001001615602
-0.2017000000000001,-72.16442340611552
-0.2027,-72.56054257007773
-0.2037000000000001,-72.90007328204534
-0.2047,-73.23960399401295
-0.2057000000000001,-73.57913470598055
-0.2067,-73.91866541794816
-0.2077000000000001,-74.32893169490903
-0.2087,-74.78163931086584
-0.2097000000000001,-75.19190558782671
-0.2107,-75.54558341279296
-0.2117000000000001,-76.01243814174842
-0.2127,-76.38026307971333
-0.2137000000000001,-76.71979379168094
-0.2147,-76.94614759965934
-0.2157000000000001,-77.17250140763775
-0.2167,-77.66765036259052
-0.21770000000000012,-78.13450509154598
-0.2187,-78.60135982050144
-0.21970000000000012,-79.02577321046095
-0.2207,-79.47848082641775
-0.22170000000000012,-79.70483463439616
-0.2227,-80.18583647635029
-0.22370000000000012,-80.72342677029899
-0.2247,-81.04881036926795
-0.22570000000000012,-81.50151798522475
-0.2267,-81.94007848818292
-0.22770000000000012,-82.39278610413973
-0.22870000000000001,-83.08599464107361
-0.22970000000000013,-83.59529070902502
-0.23070000000000002,-83.97726275998858
-0.23170000000000013,-84.31679347195619
-0.23270000000000002,-84.7129126359184
-0.23370000000000013,-85.1939144778725
-0.23470000000000002,-85.66076920682796
-0.23570000000000013,-85.98615280579692
-0.23670000000000002,-86.39641908275779
-0.2376999999999999,-86.84912669871461
-0.23870000000000002,-87.31598142767007
-0.2396999999999999,-87.79698326962418
-0.24070000000000003,-88.23554377258235
-0.24169999999999991,-88.7872811795297
-0.24270000000000003,-89.33901858647707
-0.24369999999999992,-89.80587331543254
-0.24470000000000003,-90.17369825339743
-0.24569999999999992,-90.5839645303583
-0.24670000000000003,-91.00837792031781
-0.24769999999999992,-91.41864419727867
-0.24870000000000003,-91.80061624824224
-0.24969999999999992,-92.08355850821525
-0.25070000000000003,-92.36650076818825
-0.2516999999999999,-92.62114880216394
-0.25270000000000004,-93.01726796612617
-0.2536999999999999,-93.82365340704924
-0.25470000000000004,-94.33294947500065
-0.2556999999999999,-94.6583330739696
-0.25670000000000004,-94.81395131695474
-0.25769999999999993,-95.13933491592371
-0.25870000000000004,-95.57789541888187
-0.25969999999999993,-95.94572035684679
-0.26070000000000004,-96.3984279728036
-0.26169999999999993,-96.78040002376716
-0.26270000000000004,-97.16237207473071
-0.26369999999999993,-97.58678546469022
-0.26470000000000005,-97.84143349866595
-0.26569999999999994,-98.2234055496295
-0.26670000000000005,-98.71855450458226
-0.26769999999999994,-99.11467366854447
-0.26870000000000005,-99.49664571950804
-0.26969999999999994,-99.92105910946754
-0.27070000000000005,-100.20400136944055
-0.27169999999999994,-100.5576791944068
-0.27270000000000005,-100.92550413237171
-0.27369999999999994,-101.29332907033663
-0.27470000000000006,-101.64700689530288
-0.27569999999999995,-101.94409626827454
-0.27670000000000006,-102.36850965823406
-0.27769999999999995,-102.75048170919762
-0.27870000000000006,-103.13245376016117
-0.27969999999999995,-103.54272003712204
-0.28070000000000006,-103.93883920108425
-0.28169999999999995,-104.41984104303836
-0.28270000000000006,-104.88669577199381
-0.28369999999999995,-105.22622648396143
-0.28470000000000006,-105.49502163093578
-0.28569999999999995,-105.84869945590204
-0.28670000000000007,-106.13164171587505
-0.28769999999999996,-106.47117242784265
-0.28870000000000007,-106.88143870480351
-0.28969999999999996,-107.19267519077383
-0.29070000000000007,-107.50391167674414
-0.29169999999999996,-107.8292952757131
-0.29270000000000007,-108.19712021367802
-0.29369999999999996,-108.4517682476537
-0.2947000000000001,-108.96106431560513
-0.29569999999999996,-109.3147421405714
-0.2967000000000001,-109.58353728754575
-0.29769999999999996,-109.83818532152145
-0.2987000000000001,-110.1918631464877
-0.29969999999999997,-110.65871787544317
-0.3007000000000001,-111.09727837840134
-0.30169999999999997,-111.57828022035544
-0.3027000000000001,-112.15831185330009
-0.30369999999999997,-112.54028390426367
-0.3047000000000001,-112.86566750323264
-0.30569999999999997,-113.17690398920294
-0.3067000000000001,-113.48814047517324
-0.3077,-113.79937696114357
-0.3087000000000001,-113.94084809113006
-0.3097,-114.64820374106257
-0.3107000000000001,-114.83211621004502
-0.3117,-114.71893930605583
-0.3127000000000001,-115.10091135701937
-0.3137,-115.70923721596135
-0.3147000000000001,-116.40244575289522
-0.3157,-117.2088311938183
-0.3167000000000001,-117.42103788879804
-0.3177,-117.73227437476834
-0.3187000000000001,-118.10009931273325
-0.3197,-118.5386598156914
-0.3207000000000001,-119.06210299664149
-0.3217,-119.17527990063067
-0.3227000000000001,-119.4016337086091
-0.3237,-119.92507688955916
-0.3247000000000001,-120.40607873151326
-0.3257,-120.92952191246334
-0.3267000000000001,-121.49540643240935
-0.3277,-121.60858333639854
-0.3287000000000001,-121.79249580538101
-0.3297,-122.1320265173486
-0.3307000000000001,-122.61302835930273
-0.3317,-123.03744174926223
-0.3327000000000001,-123.4477080262231
-0.3337,-123.88626852918125
-0.3347000000000001,-124.31068191914078
-0.3357,-124.66435974410705
-0.3367000000000001,-124.90486066508409
-0.3377,-125.3292740550436
-0.3387000000000001,-125.85271723599364
-0.3397,-126.50348443393159
-0.3407000000000001,-127.2108400838641
-0.3417,-127.83331305580472
-0.3427000000000001,-128.31431489775883
-0.3437,-128.73872828771835
-0.3447000000000001,-129.13484745168054
-0.3457,-129.5451137286414
-0.3467000000000001,-129.89879155360765
-0.3477,-130.4363818475564
-0.3487000000000001,-130.93153080250914
-0.3497,-131.53985666145113
-0.3507000000000001,-131.95012293841197
-0.3517,-132.38868344137015
-0.3527000000000001,-132.8272439443283
-0.3537,-133.32239289928106
-0.3547000000000001,-133.78924762823652
-0.3557,-134.34098503518388
-0.35670000000000013,-134.97760512012314
-0.3577,-135.71325499605297
-0.35870000000000013,-136.40646353298683
-0.3597,-136.8733182619423
-0.36070000000000013,-137.2411431999072
-0.3617,-137.72214504186132
-0.3626999999999999,-138.61341316077628
-0.3637,-139.39150437570208
-0.3646999999999999,-140.01397734764268
-0.3657,-140.608156093586
-0.3666999999999999,-141.3721001955131
-0.3677,-142.03701450644968
-0.3686999999999999,-142.7443701563822
-0.36970000000000003,-143.3102546763282
-0.3706999999999999,-144.01761032626072
-0.37170000000000003,-144.86643710617977
-0.3726999999999999,-145.85673501608528
-0.37370000000000003,-146.7055617960043
-0.3746999999999999,-147.4129174459368
-0.37570000000000003,-148.12027309586935
-0.3766999999999999,-148.96909987578834
-0.37770000000000004,-149.6764555257209
-0.3786999999999999,-150.5252823056399
-0.37970000000000004,-151.23263795557244
-0.3806999999999999,-152.0814647354914
-0.38170000000000004,-152.93029151541046
-0.38269999999999993,-153.77911829532948
-0.38370000000000004,-154.6279450752485
-0.38469999999999993,-155.47677185516753
-0.38570000000000004,-156.32559863508658
-0.38669999999999993,-155.47677185516753
-0.38570000000000004,-152.64734925543743
-0.38469999999999993,-150.1008689156804
-0.38370000000000004,-147.6958597059098
-0.38269999999999993,-145.57379275611228
-0.38170000000000004,-143.4517258063147
-0.3806999999999999,-141.47112998650366
-0.37970000000000004,-139.53297550568857
-0.3786999999999999,-137.66555658986672
-0.37770000000000004,-135.81228478704352
-0.3766999999999999,-133.94486587122168
-0.37570000000000003,-132.1481825203931
-0.3746999999999999,-130.40808762155908
-0.37370000000000003,-128.54066870573723
-0.3726999999999999,-126.78642669390457
-0.37170000000000003,-125.15950869905981
-0.3706999999999999,-123.75894451219342
-0.36970000000000003,-122.25935053433648
-0.3686999999999999,-120.84463923447142
-0.3677,-119.1186914486361
-0.3666999999999999,-117.44933211479534
-0.3657,-115.94973813693841
-0.3646999999999999,-114.63405662806393
-0.3637,-113.12031553720833
-0.3626999999999999,-111.49339754236355
-0.3617,-109.9655093385093
-0.36070000000000013,-108.76300473362402
-0.3597,-107.40488188575358
-0.35870000000000013,-106.0609061508818
-0.3577,-104.66034196401542
-0.35670000000000013,-103.21733643815308
-0.3557,-101.85921359028264
-0.3547000000000001,-100.45864940341626
-0.3537,-99.00149676455526
-0.3527000000000001,-97.62922680368618
-0.3517,-96.27110395581576
-0.3507000000000001,-94.92712822094396
-0.3497,-93.68218227706274
-0.3487000000000001,-92.32405942919229
-0.3477,-90.81031833833671
-0.3467000000000001,-89.48048971646357
-0.3457,-88.32042645057423
-0.3447000000000001,-87.075480506693
-0.3437,-85.74565188481988
-0.3427000000000001,-84.27435213296022
-0.3417,-82.95867062408576
-0.3407000000000001,-81.65713622820991
-0.3397,-80.36974894533273
-0.3387000000000001,-79.05406743645825
-0.3377,-77.7242388145851
-0.3367000000000001,-76.38026307971333
-0.3357,-75.14946424883075
-0.3347000000000001,-73.8479298529549
-0.3337,-72.54639545707909
-0.3327000000000001,-71.11753704421541
-0.3317,-69.7735613093436
-0.3307000000000001,-68.59935093045563
-0.3297,-67.42514055156765
-0.3287000000000001,-66.26507728567832
-0.3277,-65.04842556779438
-0.3267000000000001,-64.02983343189156
-0.3257,-63.02538840898739
-0.3247000000000001,-61.9926491600859
-0.3237,-60.79014455520062
-0.3227000000000001,-59.417874594331536
-0.3217,-58.13048731145436
-0.3207000000000001,-57.23921919253939
-0.3197,-55.85280211867165
-0.3187000000000001,-54.919092660760725
-0.3177,-53.85805918586195
-0.3167000000000001,-52.79702571096317
-0.3157,-51.410608637095436
-0.3147000000000001,-50.30713382320071
-0.3137,-49.21780612230463
-0.3127000000000001,-48.029448630417996
-0.3117,-46.82694402553272
-0.3107000000000001,-45.681027872642034
-0.3097,-44.54925883275
-0.3087000000000001,-43.53066669684718
-0.3077,-42.37060343095784
-0.3067000000000001,-41.168098826072566
-0.30569999999999997,-40.12121246417244
-0.3047000000000001,-39.10262032826961
-0.30369999999999997,-37.88596861038568
-0.3027000000000001,-36.99470049147071
-0.30169999999999997,-35.778048773586775
-0.3007000000000001,-34.8018979766799
-0.29969999999999997,-33.93892408376223
-0.2987000000000001,-32.79300793087155
-0.29769999999999996,-31.930034037953877
-0.2967000000000001,-30.925589015049702
-0.29569999999999996,-29.822114201154974
-0.2947000000000001,-28.959140308237306
-0.29369999999999996,-27.954695285333123
-0.29270000000000007,-26.822926245441096
-0.29169999999999996,-25.988246578520723
-0.29070000000000007,-25.1394197986017
-0.28969999999999996,-24.078386323702922
-0.28870000000000007,-23.257853769781203
-0.28769999999999996,-22.38073276386488
-0.28670000000000007,-21.404581966958006
-0.28569999999999995,-20.569902300037633
-0.28470000000000006,-19.721075520118614
-0.28369999999999995,-18.78736606220769
-0.28270000000000006,-17.995127734283265
-0.28169999999999995,-17.146300954364243
-0.28070000000000006,-16.21259149645332
-0.27969999999999995,-15.363764716534297
-0.27870000000000006,-14.543232162612577
-0.27769999999999995,-13.67884355839504
-0.27670000000000006,-12.856896293173453
-0.27569999999999995,-12.094366902546199
-0.27470000000000006,-11.276663771224207
-0.27369999999999994,-10.405201610507346
-0.27270000000000005,-9.564863098387514
-0.27169999999999994,-8.868825138853914
-0.27070000000000005,-8.13741939682369
-0.26969999999999994,-7.357913470598056
-0.26870000000000005,-6.5769928330725556
-0.26769999999999994,-5.8229517102444905
-0.26670000000000005,-5.0292986710202054
-0.26569999999999994,-4.273842836892276
