Potential V vs RHE, Current mA cm-2
0.013299999999999867,-1.3107300193249565
0.012299999999999978,-4.494537799671222
0.011299999999999866,-6.588310523471475
0.010299999999999976,-8.070927965730034
0.009299999999999864,-9.11781432763016
0.008299999999999974,-9.85912304875944
0.007299999999999862,-10.42642228000532
0.006299999999999972,-10.775855971071984
0.00529999999999986,-11.081433611842833
0.0042999999999999705,-11.299299152022046
0.0032999999999998586,-11.473308641905447
0.0022999999999999687,-11.604876792792895
0.0012999999999998568,-11.82274233297211
0.00029999999999996696,-11.952895772559694
-0.000700000000000145,-12.084463923447142
-0.0017000000000000348,-12.170761312738911
-0.0027000000000001467,-12.302329463626359
-0.0037000000000000366,-12.346185513922174
-0.0047000000000001485,-12.390041564217992
-0.005700000000000038,-12.432482903213943
-0.00670000000000015,-12.390041564217992
-0.00770000000000004,-12.390041564217992
-0.008700000000000152,-12.390041564217992
-0.009700000000000042,-12.390041564217992
-0.010700000000000154,-12.346185513922174
-0.011700000000000044,-12.432482903213943
-0.012700000000000156,-12.432482903213943
-0.013700000000000045,-12.520195003805576
-0.014700000000000157,-12.56405105410139
-0.015700000000000047,-12.607907104397206
-0.01670000000000016,-12.694204493688973
-0.01770000000000005,-12.73806054398479
-0.01870000000000016,-12.73806054398479
-0.01970000000000005,-12.781916594280606
-0.020700000000000163,-12.781916594280606
-0.021700000000000053,-12.781916594280606
-0.022700000000000164,-12.73806054398479
-0.023700000000000054,-12.694204493688973
-0.024700000000000166,-12.651763154693022
-0.025700000000000056,-12.651763154693022
-0.026700000000000168,-12.694204493688973
-0.027700000000000058,-12.694204493688973
-0.02870000000000017,-12.73806054398479
-0.02970000000000006,-12.825772644576423
-0.03070000000000017,-12.869628694872238
-0.03170000000000006,-12.913484745168056
-0.03270000000000017,-12.955926084164007
-0.03370000000000006,-12.99978213445982
-0.034700000000000175,-12.955926084164007
-0.035700000000000065,-12.955926084164007
-0.03670000000000018,-12.955926084164007
-0.03770000000000007,-12.913484745168056
-0.03870000000000018,-12.869628694872238
-0.03970000000000007,-12.825772644576423
-0.04070000000000018,-12.825772644576423
-0.04170000000000007,-12.825772644576423
-0.04270000000000018,-12.825772644576423
-0.04370000000000007,-12.913484745168056
-0.044700000000000184,-12.955926084164007
-0.045700000000000074,-12.99978213445982
-0.046700000000000186,-13.043638184755638
-0.047700000000000076,-13.087494235051453
-0.04870000000000019,-13.13135028534727
-0.04970000000000008,-13.13135028534727
-0.05070000000000019,-13.087494235051453
-0.05170000000000008,-13.087494235051453
-0.05270000000000019,-13.043638184755638
-0.05370000000000008,-12.99978213445982
-0.05470000000000019,-12.99978213445982
-0.05570000000000008,-12.955926084164007
-0.056700000000000195,-12.99978213445982
-0.057700000000000085,-12.99978213445982
-0.058700000000000196,-12.955926084164007
-0.059700000000000086,-13.087494235051453
-0.0607000000000002,-13.13135028534727
-0.06170000000000009,-13.175206335643086
-0.0627000000000002,-13.30535977523067
-0.06370000000000009,-13.217647674639037
-0.0647000000000002,-13.217647674639037
-0.06570000000000009,-13.217647674639037
-0.0667000000000002,-13.175206335643086
-0.0677000000000001,-13.175206335643086
-0.0687000000000002,-13.087494235051453
-0.0697000000000001,-13.087494235051453
-0.07070000000000021,-13.087494235051453
-0.0717000000000001,-13.087494235051453
-0.07270000000000021,-13.043638184755638
-0.0737000000000001,-13.13135028534727
-0.07470000000000021,-13.175206335643086
-0.0757000000000001,-13.261503724934855
-0.07670000000000021,-13.261503724934855
-0.0777000000000001,-13.30535977523067
-0.07870000000000021,-13.30535977523067
-0.0797000000000001,-13.30535977523067
-0.08070000000000022,-13.30535977523067
-0.0817000000000001,-13.30535977523067
-0.08270000000000022,-13.261503724934855
-0.08370000000000011,-13.217647674639037
-0.08470000000000022,-13.175206335643086
-0.08570000000000011,-13.175206335643086
-0.08670000000000022,-13.175206335643086
-0.08770000000000011,-13.175206335643086
-0.08870000000000022,-13.217647674639037
-0.08970000000000011,-13.261503724934855
-0.09070000000000022,-13.30535977523067
-0.09170000000000011,-13.349215825526485
-0.09270000000000023,-13.436927926118118
-0.09370000000000012,-13.3930718758223
-0.09470000000000023,-13.47936926511407
-0.09570000000000012,-13.3930718758223
-0.09670000000000023,-13.3930718758223
-0.09770000000000012,-13.349215825526485
-0.09870000000000023,-13.30535977523067
-0.09970000000000012,-13.30535977523067
-0.10070000000000023,-13.261503724934855
-0.10170000000000012,-13.261503724934855
-0.10270000000000024,-13.30535977523067
-0.10370000000000013,-13.30535977523067
-0.10470000000000024,-13.349215825526485
-0.10570000000000013,-13.436927926118118
-0.10670000000000024,-13.436927926118118
-0.10770000000000013,-13.523225315409885
-0.10870000000000024,-13.523225315409885
-0.10970000000000013,-13.523225315409885
-0.11070000000000024,-13.523225315409885
-0.11170000000000013,-13.47936926511407
-0.11270000000000002,-13.47936926511407
-0.11370000000000013,-13.436927926118118
-0.11470000000000002,-13.3930718758223
-0.11570000000000014,-13.3930718758223
-0.11670000000000003,-13.3930718758223
-0.11770000000000014,-13.3930718758223
-0.11870000000000003,-13.47936926511407
-0.11970000000000014,-13.523225315409885
-0.12070000000000003,-13.567081365705702
-0.12170000000000014,-13.567081365705702
-0.12270000000000003,-13.654793466297335
-0.12370000000000014,-13.654793466297335
-0.12470000000000003,-13.698649516593148
-0.12570000000000014,-13.654793466297335
-0.12670000000000003,-13.654793466297335
-0.12770000000000015,-13.610937416001518
-0.12870000000000004,-13.567081365705702
-0.12970000000000015,-13.567081365705702
-0.13070000000000004,-13.47936926511407
-0.13170000000000015,-13.567081365705702
-0.13270000000000004,-13.47936926511407
-0.13370000000000015,-13.567081365705702
-0.13470000000000004,-13.610937416001518
-0.13570000000000015,-13.654793466297335
-0.13670000000000004,-13.698649516593148
-0.13770000000000016,-13.741090855589102
-0.13870000000000005,-13.784946905884919
-0.13970000000000016,-13.784946905884919
-0.14070000000000005,-13.741090855589102
-0.14170000000000016,-13.741090855589102
-0.14270000000000005,-13.698649516593148
-0.14370000000000016,-13.654793466297335
-0.14470000000000005,-13.610937416001518
-0.14570000000000016,-13.610937416001518
-0.14670000000000005,-13.610937416001518
-0.14770000000000016,-13.610937416001518
-0.14870000000000005,-13.654793466297335
-0.14970000000000017,-13.741090855589102
-0.15070000000000006,-13.741090855589102
-0.15170000000000017,-13.828802956180734
-0.15270000000000006,-13.872659006476551
-0.15370000000000017,-13.872659006476551
-0.15470000000000006,-13.872659006476551
-0.15570000000000017,-13.872659006476551
-0.15670000000000006,-13.828802956180734
-0.15770000000000017,-13.784946905884919
-0.15870000000000006,-13.784946905884919
-0.15970000000000018,-13.784946905884919
-0.16070000000000007,-13.741090855589102
-0.16170000000000018,-13.784946905884919
-0.16270000000000007,-13.741090855589102
-0.16370000000000018,-13.828802956180734
-0.16470000000000007,-13.960371107068182
-0.16570000000000018,-13.916515056772363
-0.16670000000000007,-14.002812446064135
-0.16770000000000018,-14.046668496359947
-0.16870000000000007,-14.046668496359947
-0.16970000000000018,-14.046668496359947
-0.17070000000000007,-14.002812446064135
-0.17170000000000019,-14.002812446064135
-0.17270000000000008,-13.960371107068182
-0.1737000000000002,-13.960371107068182
-0.17470000000000008,-13.916515056772363
-0.1757000000000002,-13.872659006476551
-0.17670000000000008,-13.916515056772363
-0.1777000000000002,-13.916515056772363
-0.17870000000000008,-13.916515056772363
-0.1797000000000002,-14.046668496359947
-0.18070000000000008,-14.046668496359947
-0.1817000000000002,-14.090524546655764
-0.18270000000000008,-14.217848563643619
-0.1837000000000002,-14.13438059695158
-0.1847000000000001,-14.217848563643619
-0.1857000000000002,-14.175407224647667
-0.1867000000000001,-14.175407224647667
-0.1877000000000002,-14.13438059695158
-0.1887000000000001,-14.13438059695158
-0.1897000000000002,-14.090524546655764
-0.1907000000000001,-14.046668496359947
-0.1917000000000001,-14.046668496359947
-0.19269999999999998,-14.090524546655764
-0.1937000000000001,-14.175407224647667
-0.19469999999999998,-14.175407224647667
-0.1957000000000001,-14.26028990263957
-0.19669999999999999,-14.30273124163552
-0.1977000000000001,-14.345172580631472
-0.1987,-14.345172580631472
-0.1997000000000001,-14.345172580631472
-0.2007,-14.401761032626075
-0.2017000000000001,-14.345172580631472
-0.2027,-14.30273124163552
-0.2037000000000001,-14.30273124163552
-0.2047,-14.26028990263957
-0.2057000000000001,-14.217848563643619
-0.2067,-14.26028990263957
-0.2077000000000001,-14.26028990263957
-0.2087,-14.345172580631472
-0.2097000000000001,-14.401761032626075
-0.2107,-14.444202371622024
-0.2117000000000001,-14.486643710617974
-0.2127,-14.57152638860988
-0.2137000000000001,-14.57152638860988
-0.2147,-14.57152638860988
-0.2157000000000001,-14.65640906660178
-0.2167,-14.61396772760583
-0.21770000000000012,-14.61396772760583
-0.2187,-14.529085049613924
-0.21970000000000012,-14.486643710617974
-0.2207,-14.444202371622024
-0.22170000000000012,-14.486643710617974
-0.2227,-14.529085049613924
-0.22370000000000012,-14.529085049613924
-0.2247,-14.61396772760583
-0.22570000000000012,-14.65640906660178
-0.2267,-14.69885040559773
-0.22770000000000012,-14.783733083589633
-0.22870000000000001,-14.783733083589633
-0.22970000000000013,-14.783733083589633
-0.23070000000000002,-14.826174422585586
-0.23170000000000013,-14.783733083589633
-0.23270000000000002,-14.741291744593681
-0.23370000000000013,-14.69885040559773
-0.23470000000000002,-14.69885040559773
-0.23570000000000013,-14.69885040559773
-0.23670000000000002,-14.69885040559773
-0.2376999999999999,-14.741291744593681
-0.23870000000000002,-14.826174422585586
-0.2396999999999999,-14.868615761581536
-0.24070000000000003,-14.967645552572087
-0.24169999999999991,-14.967645552572087
-0.24270000000000003,-15.094969569559943
-0.24369999999999992,-15.094969569559943
-0.24470000000000003,-15.094969569559943
-0.24569999999999992,-15.094969569559943
-0.24670000000000003,-15.094969569559943
-0.24769999999999992,-15.05252823056399
-0.24870000000000003,-15.05252823056399
-0.24969999999999992,-15.05252823056399
-0.25070000000000003,-15.05252823056399
-0.2516999999999999,-15.094969569559943
-0.25270000000000004,-15.05252823056399
-0.2536999999999999,-15.137410908555893
-0.25470000000000004,-15.222293586547794
-0.2556999999999999,-15.307176264539699
-0.25670000000000004,-15.349617603535648
-0.25769999999999993,-15.491088733522153
-0.25870000000000004,-15.491088733522153
-0.25969999999999993,-15.491088733522153
-0.26070000000000004,-15.533530072518102
-0.26169999999999993,-15.491088733522153
-0.26270000000000004,-15.491088733522153
-0.26369999999999993,-15.491088733522153
-0.26470000000000005,-15.533530072518102
-0.26569999999999994,-15.491088733522153
-0.26670000000000005,-15.575971411514052
-0.26769999999999994,-15.575971411514052
-0.26870000000000005,-15.660854089505953
-0.26969999999999994,-15.70329542850191
-0.27070000000000005,-15.78817810649381
-0.27169999999999994,-15.78817810649381
-0.27270000000000005,-15.91550212348166
-0.27369999999999994,-15.972090575476265
-0.27470000000000006,-16.014531914472215
-0.27569999999999995,-16.014531914472215
-0.27670000000000006,-16.014531914472215
-0.27769999999999995,-16.014531914472215
-0.27870000000000006,-16.014531914472215
-0.27969999999999995,-16.014531914472215
-0.28070000000000006,-16.014531914472215
-0.28169999999999995,-16.099414592464115
-0.28270000000000006,-16.099414592464115
-0.28369999999999995,-16.22673860945197
-0.28470000000000006,-16.311621287443874
-0.28569999999999995,-16.354062626439823
-0.28670000000000007,-16.495533756426326
-0.28769999999999996,-16.53797509542228
-0.28870000000000007,-16.622857773414182
-0.28969999999999996,-16.665299112410132
-0.29070000000000007,-16.665299112410132
-0.29169999999999996,-16.750181790402035
-0.29270000000000007,-16.70774045140608
-0.29369999999999996,-16.70774045140608
-0.2947000000000001,-16.70774045140608
-0.29569999999999996,-16.750181790402035
-0.2967000000000001,-16.835064468393938
-0.29769999999999996,-16.835064468393938
-0.2987000000000001,-16.962388485381787
-0.29969999999999997,-17.061418276372343
-0.3007000000000001,-17.146300954364243
-0.30169999999999997,-17.231183632356142
-0.3027000000000001,-17.358507649344002
-0.30369999999999997,-17.358507649344002
-0.3047000000000001,-17.48583166633185
-0.30569999999999997,-17.542420118326454
-0.3067000000000001,-17.584861457322408
-0.3077,-17.627302796318357
-0.3087000000000001,-17.627302796318357
-0.3097,-17.627302796318357
-0.3107000000000001,-17.669744135314307
-0.3117,-17.75462681330621
-0.3127000000000001,-17.839509491298113
-0.3137,-17.966833508285966
-0.3147000000000001,-18.06586329927652
-0.3157,-18.19318731626437
-0.3167000000000001,-18.320511333252224
-0.3177,-18.44783535024008
-0.3187000000000001,-18.53271802823198
-0.3197,-18.589306480226583
-0.3207000000000001,-18.674189158218486
-0.3217,-18.759071836210385
-0.3227000000000001,-18.759071836210385
-0.3237,-18.80151317520634
-0.3247000000000001,-18.843954514202288
-0.3257,-18.92883719219419
-0.3267000000000001,-19.056161209182044
-0.3277,-19.112749661176647
-0.3287000000000001,-19.2400736781645
-0.3297,-19.452280373144255
-0.3307000000000001,-19.579604390132108
-0.3317,-19.678634181122664
-0.3327000000000001,-19.848399537106463
-0.3337,-19.97572355409432
-0.3347000000000001,-20.06060623208622
-0.3357,-20.159636023076775
-0.3367000000000001,-20.244518701068674
-0.3377,-20.329401379060574
-0.3387000000000001,-20.371842718056527
-0.3397,-20.499166735044383
-0.3407000000000001,-20.541608074040333
-0.3417,-20.72552054302279
-0.3427000000000001,-20.810403221014692
-0.3437,-20.980168576998494
-0.3447000000000001,-21.149933932982297
-0.3457,-21.376287740960702
-0.3467000000000001,-21.503611757948562
-0.3477,-21.772406904922917
-0.3487000000000001,-21.857289582914817
-0.3497,-21.98461359990267
-0.3507000000000001,-22.111937616890522
-0.3517,-22.253408746877028
-0.3527000000000001,-22.33829142486893
-0.3537,-22.42317410286083
-0.3547000000000001,-22.550498119848687
-0.3557,-22.67782213683654
-0.35670000000000013,-22.819293266823045
-0.3577,-22.989058622806844
-0.35870000000000013,-23.24370665678255
-0.3597,-23.427619125765005
-0.36070000000000013,-23.639825820744765
-0.3617,-23.823738289727217
-0.3626999999999999,-24.078386323702922
-0.3637,-24.290593018682678
-0.3646999999999999,-24.432064148669184
-0.3657,-24.601829504652986
-0.3666999999999999,-24.771594860636792
-0.3677,-24.870624651627345
-0.3686999999999999,-25.04039000761115
-0.36970000000000003,-25.252596702590903
-0.3706999999999999,-25.337479380582806
-0.37170000000000003,-25.60627452755716
-0.3726999999999999,-25.77603988354097
-0.37370000000000003,-26.002393691519377
-0.3746999999999999,-26.29948306449103
-0.37570000000000003,-26.525836872469437
-0.3766999999999999,-26.780484906445146
-0.37770000000000004,-27.049280053419505
-0.3786999999999999,-27.303928087395207
-0.37970000000000004,-27.530281895373616
-0.3806999999999999,-27.742488590353368
-0.38170000000000004,-27.912253946337174
-0.38269999999999993,-28.13860775431558
-0.38370000000000004,-28.350814449295335
-0.38469999999999993,-28.53472691827779
-0.38570000000000004,-28.746933613257543
-0.38669999999999993,-28.959140308237306
-0.38770000000000004,-29.27037679420761
-0.38869999999999993,-29.525024828183312
-0.38970000000000005,-29.836261314153624
-0.39069999999999994,-30.189939139119886
-0.39170000000000005,-30.444587173095588
-0.39269999999999994,-30.79826499806185
-0.39370000000000005,-31.095354371033505
-0.39469999999999994,-31.321708179011907
-0.39570000000000005,-31.57635621298762
-0.39669999999999994,-31.802710020966025
-0.39770000000000005,-32.05735805494172
-0.39869999999999994,-32.32615320191609
-0.39970000000000006,-32.53835989689585
-0.40069999999999995,-32.84959638286615
-0.40170000000000006,-33.14668575583781
-0.40269999999999995,-33.45792224180811
-0.40370000000000006,-33.81160006677438
-0.40469999999999995,-34.193572117737936
-0.40570000000000006,-34.5472499427042
-0.40669999999999995,-34.94336910666641
-0.40770000000000006,-35.32534115762997
-0.40869999999999995,-35.679018982596226
-0.40970000000000006,-35.99025546856653
-0.41069999999999995,-36.28734484153819
-0.41170000000000007,-36.55613998851254
-0.41269999999999996,-36.8532293614842
-0.41370000000000007,-37.164465847454515
-0.41469999999999996,-37.47570233342482
-0.41570000000000007,-37.81523304539243
-0.41669999999999996,-38.16891087035869
-0.41770000000000007,-38.5650300343209
-0.41869999999999996,-38.94700208528445
-0.4197000000000001,-39.38556258824262
-0.42069999999999996,-39.78168175220483
-0.4217000000000001,-40.220242255162994
-0.42269999999999996,-40.65880275812115
-0.4237000000000001,-40.99833347008877
-0.42469999999999997,-41.39445263405098
-0.4257000000000001,-41.83301313700913
-0.42669999999999997,-42.130102509980794
-0.4277000000000001,-42.526221673943
-0.42869999999999997,-42.87989949890926
-0.4297000000000001,-43.27601866287147
-0.43069999999999997,-43.61554937483908
-0.4317000000000001,-44.054109877797245
-0.4327,-44.4926703807554
-0.4337000000000001,-44.97367222270952
-0.4347,-45.45467406466363
-0.4357000000000001,-45.93567590661774
-0.4367,-46.41667774857186
-0.4377000000000001,-46.94012092952192
-0.4387,-47.36453431948143
-0.4397000000000001,-47.84553616143554
-0.4407,-48.2840966643937
-0.4417000000000001,-48.72265716735186
-0.4427,-49.16121767031002
-0.4437000000000001,-49.642219512264134
-0.4447,-50.0807800152223
-0.4457000000000001,-50.50519340518181
-0.4467,-50.943753908139975
-0.4477000000000001,-51.509638428085985
-0.4487,-52.033081609036046
-0.4497000000000001,-52.59896612898206
-0.4507,-53.22143910092268
-0.4517000000000001,-53.74488228187274
-0.4527,-54.35320814081471
-0.4537000000000001,-54.876651321764776
-0.4547,-55.442535841710786
-0.4557000000000001,-55.96597902266086
-0.4567,-56.489422203610914
-0.4577000000000001,-57.012865384560975
-0.4587,-57.493867226515086
-0.4597000000000001,-58.05975174646111
-0.4607,-58.583194927411164
-0.4617000000000001,-59.10663810836124
-0.4627,-59.67252262830725
-0.4637000000000001,-60.32328982624517
-0.4647,-60.93161568518713
-0.4657000000000001,-61.5965299961237
-0.4667,-62.16241451606972
-0.4677000000000001,-62.89806439199953
-0.4687,-63.46394891194555
-0.4697000000000001,-64.0722747708875
-0.4707,-64.68060062982947
-0.4717000000000001,-65.34551494076604
-0.4727,-65.91139946071206
-0.4737000000000001,-66.47728398065809
-0.4747,-67.04316850060408
-0.4757000000000001,-67.693935698542
-0.4767,-68.34470289647993
-0.4777000000000001,-68.96717586842054
-0.4787,-69.6603844053544
-0.4797000000000001,-70.35359294228827
-0.4807,-71.10338993121674
-0.48170000000000013,-71.83903980714656
-0.4827,-72.53224834408043
-0.48370000000000013,-73.197162655017
-0.4847,-73.8479298529549
-0.48570000000000013,-74.54113838988879
-0.4867,-75.19190558782671
-0.4876999999999999,-75.8992612377592
-0.4887,-76.55002843569714
-0.4896999999999999,-77.28567831162695
-0.4907,-77.95059262256353
-0.4916999999999999,-78.72868383748929
-0.4927,-79.47848082641775
-0.4936999999999999,-80.25657204134353
-0.49470000000000003,-81.09125170826391
-0.4956999999999999,-81.82690158419373
-0.49670000000000003,-82.6615812511141
-0.4976999999999999,-83.52455514403178
-0.49870000000000003,-84.27435213296022
-0.4996999999999999,-85.09488468688197
-0.5007,-85.88712301480638
-0.5016999999999999,-86.66521422973216
-0.5027,-87.45745255765657
-0.5036999999999999,-88.23554377258235
-0.5047,-89.02778210050676
