Sept. 13, 2024   15:20:38
Linear Sweep Voltammetry
File: c:/users/guazh/data/20240903_batch_252_500/2024-09-03-exp343\1acid_3ac-2024-09-13t15_17_27-lsvinphos\1acid_3ac_lsv_50mvs_efin_-2300mv.bin
Data Source:  Experiment
Instrument Model:  CHI760E
Header: LSV ran at 50 mVs with Efin at -2300mV
Note: 

Init E (V) = -0.6
Final E (V) = -2.3
Scan Rate (V/s) = 0.05
Sample Interval (V) = 0.001
Quiet Time (sec) = 2
Sensitivity (A/V) = 1e-4
Comp R (ohm) = 10.5

Results:

Channel 1:
Ep = -1.760V
ip = 5.171e-4A
Ah = 7.835e-4C

Potential/V, Current/A

-0.600, 6.006e-5
-0.601, 6.052e-5
-0.602, 6.083e-5
-0.603, 6.085e-5
-0.604, 6.070e-5
-0.605, 6.074e-5
-0.606, 6.064e-5
-0.607, 6.054e-5
-0.608, 6.051e-5
-0.609, 6.036e-5
-0.610, 6.029e-5
-0.611, 6.023e-5
-0.612, 6.011e-5
-0.613, 6.000e-5
-0.614, 5.987e-5
-0.615, 5.986e-5
-0.616, 5.978e-5
-0.617, 5.962e-5
-0.618, 5.952e-5
-0.619, 5.936e-5
-0.620, 5.931e-5
-0.621, 5.920e-5
-0.622, 5.910e-5
-0.623, 5.902e-5
-0.624, 5.892e-5
-0.625, 5.887e-5
-0.626, 5.876e-5
-0.627, 5.861e-5
-0.628, 5.849e-5
-0.629, 5.835e-5
-0.630, 5.826e-5
-0.631, 5.818e-5
-0.632, 5.809e-5
-0.633, 5.798e-5
-0.634, 5.796e-5
-0.635, 5.787e-5
-0.636, 5.777e-5
-0.637, 5.764e-5
-0.638, 5.753e-5
-0.639, 5.742e-5
-0.640, 5.731e-5
-0.641, 5.722e-5
-0.642, 5.712e-5
-0.643, 5.705e-5
-0.644, 5.696e-5
-0.645, 5.688e-5
-0.646, 5.682e-5
-0.647, 5.668e-5
-0.648, 5.656e-5
-0.649, 5.647e-5
-0.650, 5.639e-5
-0.651, 5.633e-5
-0.652, 5.622e-5
-0.653, 5.617e-5
-0.654, 5.608e-5
-0.655, 5.603e-5
-0.656, 5.589e-5
-0.657, 5.580e-5
-0.658, 5.573e-5
-0.659, 5.563e-5
-0.660, 5.550e-5
-0.661, 5.544e-5
-0.662, 5.535e-5
-0.663, 5.523e-5
-0.664, 5.512e-5
-0.665, 5.507e-5
-0.666, 5.498e-5
-0.667, 5.489e-5
-0.668, 5.483e-5
-0.669, 5.476e-5
-0.670, 5.468e-5
-0.671, 5.456e-5
-0.672, 5.451e-5
-0.673, 5.441e-5
-0.674, 5.434e-5
-0.675, 5.427e-5
-0.676, 5.418e-5
-0.677, 5.411e-5
-0.678, 5.402e-5
-0.679, 5.393e-5
-0.680, 5.387e-5
-0.681, 5.382e-5
-0.682, 5.374e-5
-0.683, 5.366e-5
-0.684, 5.356e-5
-0.685, 5.350e-5
-0.686, 5.347e-5
-0.687, 5.339e-5
-0.688, 5.333e-5
-0.689, 5.321e-5
-0.690, 5.314e-5
-0.691, 5.307e-5
-0.692, 5.301e-5
-0.693, 5.295e-5
-0.694, 5.287e-5
-0.695, 5.278e-5
-0.696, 5.272e-5
-0.697, 5.268e-5
-0.698, 5.257e-5
-0.699, 5.250e-5
-0.700, 5.240e-5
-0.701, 5.235e-5
-0.702, 5.231e-5
-0.703, 5.224e-5
-0.704, 5.218e-5
-0.705, 5.208e-5
-0.706, 5.201e-5
-0.707, 5.197e-5
-0.708, 5.190e-5
-0.709, 5.183e-5
-0.710, 5.176e-5
-0.711, 5.170e-5
-0.712, 5.165e-5
-0.713, 5.157e-5
-0.714, 5.149e-5
-0.715, 5.142e-5
-0.716, 5.134e-5
-0.717, 5.129e-5
-0.718, 5.124e-5
-0.719, 5.117e-5
-0.720, 5.111e-5
-0.721, 5.107e-5
-0.722, 5.101e-5
-0.723, 5.091e-5
-0.724, 5.088e-5
-0.725, 5.081e-5
-0.726, 5.074e-5
-0.727, 5.071e-5
-0.728, 5.064e-5
-0.729, 5.060e-5
-0.730, 5.053e-5
-0.731, 5.048e-5
-0.732, 5.042e-5
-0.733, 5.036e-5
-0.734, 5.029e-5
-0.735, 5.026e-5
-0.736, 5.021e-5
-0.737, 5.016e-5
-0.738, 5.012e-5
-0.739, 5.003e-5
-0.740, 4.997e-5
-0.741, 4.992e-5
-0.742, 4.987e-5
-0.743, 4.981e-5
-0.744, 4.977e-5
-0.745, 4.971e-5
-0.746, 4.966e-5
-0.747, 4.962e-5
-0.748, 4.956e-5
-0.749, 4.951e-5
-0.750, 4.946e-5
-0.751, 4.941e-5
-0.752, 4.935e-5
-0.753, 4.929e-5
-0.754, 4.924e-5
-0.755, 4.920e-5
-0.756, 4.914e-5
-0.757, 4.907e-5
-0.758, 4.901e-5
-0.759, 4.898e-5
-0.760, 4.894e-5
-0.761, 4.886e-5
-0.762, 4.881e-5
-0.763, 4.878e-5
-0.764, 4.873e-5
-0.765, 4.867e-5
-0.766, 4.862e-5
-0.767, 4.857e-5
-0.768, 4.854e-5
-0.769, 4.850e-5
-0.770, 4.844e-5
-0.771, 4.838e-5
-0.772, 4.834e-5
-0.773, 4.827e-5
-0.774, 4.824e-5
-0.775, 4.822e-5
-0.776, 4.817e-5
-0.777, 4.810e-5
-0.778, 4.804e-5
-0.779, 4.796e-5
-0.780, 4.791e-5
-0.781, 4.790e-5
-0.782, 4.788e-5
-0.783, 4.780e-5
-0.784, 4.774e-5
-0.785, 4.774e-5
-0.786, 4.768e-5
-0.787, 4.764e-5
-0.788, 4.756e-5
-0.789, 4.751e-5
-0.790, 4.747e-5
-0.791, 4.743e-5
-0.792, 4.739e-5
-0.793, 4.733e-5
-0.794, 4.725e-5
-0.795, 4.722e-5
-0.796, 4.715e-5
-0.797, 4.713e-5
-0.798, 4.708e-5
-0.799, 4.704e-5
-0.800, 4.699e-5
-0.801, 4.693e-5
-0.802, 4.689e-5
-0.803, 4.686e-5
-0.804, 4.676e-5
-0.805, 4.673e-5
-0.806, 4.669e-5
-0.807, 4.668e-5
-0.808, 4.661e-5
-0.809, 4.657e-5
-0.810, 4.654e-5
-0.811, 4.648e-5
-0.812, 4.642e-5
-0.813, 4.638e-5
-0.814, 4.635e-5
-0.815, 4.632e-5
-0.816, 4.627e-5
-0.817, 4.622e-5
-0.818, 4.616e-5
-0.819, 4.615e-5
-0.820, 4.612e-5
-0.821, 4.606e-5
-0.822, 4.602e-5
-0.823, 4.598e-5
-0.824, 4.594e-5
-0.825, 4.589e-5
-0.826, 4.585e-5
-0.827, 4.582e-5
-0.828, 4.579e-5
-0.829, 4.575e-5
-0.830, 4.570e-5
-0.831, 4.567e-5
-0.832, 4.563e-5
-0.833, 4.561e-5
-0.834, 4.557e-5
-0.835, 4.552e-5
-0.836, 4.547e-5
-0.837, 4.544e-5
-0.838, 4.544e-5
-0.839, 4.539e-5
-0.840, 4.535e-5
-0.841, 4.531e-5
-0.842, 4.528e-5
-0.843, 4.526e-5
-0.844, 4.522e-5
-0.845, 4.518e-5
-0.846, 4.518e-5
-0.847, 4.514e-5
-0.848, 4.511e-5
-0.849, 4.505e-5
-0.850, 4.502e-5
-0.851, 4.502e-5
-0.852, 4.497e-5
-0.853, 4.496e-5
-0.854, 4.491e-5
-0.855, 4.488e-5
-0.856, 4.486e-5
-0.857, 4.482e-5
-0.858, 4.479e-5
-0.859, 4.475e-5
-0.860, 4.472e-5
-0.861, 4.470e-5
-0.862, 4.468e-5
-0.863, 4.465e-5
-0.864, 4.463e-5
-0.865, 4.461e-5
-0.866, 4.456e-5
-0.867, 4.457e-5
-0.868, 4.454e-5
-0.869, 4.451e-5
-0.870, 4.448e-5
-0.871, 4.445e-5
-0.872, 4.443e-5
-0.873, 4.440e-5
-0.874, 4.438e-5
-0.875, 4.435e-5
-0.876, 4.435e-5
-0.877, 4.432e-5
-0.878, 4.430e-5
-0.879, 4.427e-5
-0.880, 4.424e-5
-0.881, 4.423e-5
-0.882, 4.421e-5
-0.883, 4.419e-5
-0.884, 4.418e-5
-0.885, 4.414e-5
-0.886, 4.414e-5
-0.887, 4.410e-5
-0.888, 4.410e-5
-0.889, 4.408e-5
-0.890, 4.408e-5
-0.891, 4.404e-5
-0.892, 4.402e-5
-0.893, 4.401e-5
-0.894, 4.397e-5
-0.895, 4.394e-5
-0.896, 4.393e-5
-0.897, 4.393e-5
-0.898, 4.391e-5
-0.899, 4.388e-5
-0.900, 4.388e-5
-0.901, 4.388e-5
-0.902, 4.387e-5
-0.903, 4.384e-5
-0.904, 4.382e-5
-0.905, 4.382e-5
-0.906, 4.381e-5
-0.907, 4.379e-5
-0.908, 4.377e-5
-0.909, 4.377e-5
-0.910, 4.377e-5
-0.911, 4.376e-5
-0.912, 4.372e-5
-0.913, 4.373e-5
-0.914, 4.372e-5
-0.915, 4.370e-5
-0.916, 4.370e-5
-0.917, 4.370e-5
-0.918, 4.371e-5
-0.919, 4.369e-5
-0.920, 4.368e-5
-0.921, 4.368e-5
-0.922, 4.369e-5
-0.923, 4.369e-5
-0.924, 4.370e-5
-0.925, 4.370e-5
-0.926, 4.369e-5
-0.927, 4.368e-5
-0.928, 4.369e-5
-0.929, 4.371e-5
-0.930, 4.372e-5
-0.931, 4.374e-5
-0.932, 4.374e-5
-0.933, 4.376e-5
-0.934, 4.376e-5
-0.935, 4.376e-5
-0.936, 4.380e-5
-0.937, 4.382e-5
-0.938, 4.383e-5
-0.939, 4.385e-5
-0.940, 4.387e-5
-0.941, 4.389e-5
-0.942, 4.393e-5
-0.943, 4.395e-5
-0.944, 4.397e-5
-0.945, 4.402e-5
-0.946, 4.405e-5
-0.947, 4.409e-5
-0.948, 4.413e-5
-0.949, 4.416e-5
-0.950, 4.425e-5
-0.951, 4.431e-5
-0.952, 4.431e-5
-0.953, 4.433e-5
-0.954, 4.441e-5
-0.955, 4.447e-5
-0.956, 4.453e-5
-0.957, 4.455e-5
-0.958, 4.462e-5
-0.959, 4.469e-5
-0.960, 4.476e-5
-0.961, 4.484e-5
-0.962, 4.493e-5
-0.963, 4.499e-5
-0.964, 4.506e-5
-0.965, 4.516e-5
-0.966, 4.527e-5
-0.967, 4.536e-5
-0.968, 4.543e-5
-0.969, 4.553e-5
-0.970, 4.563e-5
-0.971, 4.575e-5
-0.972, 4.584e-5
-0.973, 4.595e-5
-0.974, 4.604e-5
-0.975, 4.614e-5
-0.976, 4.626e-5
-0.977, 4.638e-5
-0.978, 4.650e-5
-0.979, 4.665e-5
-0.980, 4.679e-5
-0.981, 4.691e-5
-0.982, 4.703e-5
-0.983, 4.716e-5
-0.984, 4.730e-5
-0.985, 4.745e-5
-0.986, 4.761e-5
-0.987, 4.776e-5
-0.988, 4.791e-5
-0.989, 4.804e-5
-0.990, 4.819e-5
-0.991, 4.835e-5
-0.992, 4.852e-5
-0.993, 4.870e-5
-0.994, 4.885e-5
-0.995, 4.901e-5
-0.996, 4.918e-5
-0.997, 4.937e-5
-0.998, 4.952e-5
-0.999, 4.968e-5
-1.000, 4.986e-5
-1.001, 5.005e-5
-1.002, 5.024e-5
-1.003, 5.041e-5
-1.004, 5.060e-5
-1.005, 5.079e-5
-1.006, 5.097e-5
-1.007, 5.115e-5
-1.008, 5.137e-5
-1.009, 5.158e-5
-1.010, 5.177e-5
-1.011, 5.195e-5
-1.012, 5.214e-5
-1.013, 5.234e-5
-1.014, 5.254e-5
-1.015, 5.274e-5
-1.016, 5.294e-5
-1.017, 5.315e-5
-1.018, 5.336e-5
-1.019, 5.360e-5
-1.020, 5.380e-5
-1.021, 5.404e-5
-1.022, 5.426e-5
-1.023, 5.447e-5
-1.024, 5.470e-5
-1.025, 5.494e-5
-1.026, 5.517e-5
-1.027, 5.543e-5
-1.028, 5.564e-5
-1.029, 5.587e-5
-1.030, 5.612e-5
-1.031, 5.636e-5
-1.032, 5.660e-5
-1.033, 5.684e-5
-1.034, 5.708e-5
-1.035, 5.735e-5
-1.036, 5.760e-5
-1.037, 5.787e-5
-1.038, 5.815e-5
-1.039, 5.843e-5
-1.040, 5.870e-5
-1.041, 5.899e-5
-1.042, 5.926e-5
-1.043, 5.954e-5
-1.044, 5.982e-5
-1.045, 6.012e-5
-1.046, 6.042e-5
-1.047, 6.071e-5
-1.048, 6.100e-5
-1.049, 6.130e-5
-1.050, 6.162e-5
-1.051, 6.194e-5
-1.052, 6.226e-5
-1.053, 6.257e-5
-1.054, 6.291e-5
-1.055, 6.321e-5
-1.056, 6.356e-5
-1.057, 6.390e-5
-1.058, 6.426e-5
-1.059, 6.459e-5
-1.060, 6.494e-5
-1.061, 6.530e-5
-1.062, 6.566e-5
-1.063, 6.602e-5
-1.064, 6.640e-5
-1.065, 6.678e-5
-1.066, 6.716e-5
-1.067, 6.755e-5
-1.068, 6.795e-5
-1.069, 6.834e-5
-1.070, 6.875e-5
-1.071, 6.914e-5
-1.072, 6.955e-5
-1.073, 6.998e-5
-1.074, 7.041e-5
-1.075, 7.085e-5
-1.076, 7.131e-5
-1.077, 7.176e-5
-1.078, 7.220e-5
-1.079, 7.267e-5
-1.080, 7.312e-5
-1.081, 7.359e-5
-1.082, 7.405e-5
-1.083, 7.454e-5
-1.084, 7.502e-5
-1.085, 7.550e-5
-1.086, 7.601e-5
-1.087, 7.652e-5
-1.088, 7.702e-5
-1.089, 7.754e-5
-1.090, 7.806e-5
-1.091, 7.861e-5
-1.092, 7.914e-5
-1.093, 7.970e-5
-1.094, 8.025e-5
-1.095, 8.081e-5
-1.096, 8.136e-5
-1.097, 8.193e-5
-1.098, 8.253e-5
-1.099, 8.312e-5
-1.100, 8.371e-5
-1.101, 8.431e-5
-1.102, 8.491e-5
-1.103, 8.552e-5
-1.104, 8.615e-5
-1.105, 8.678e-5
-1.106, 8.743e-5
-1.107, 8.808e-5
-1.108, 8.872e-5
-1.109, 8.936e-5
-1.110, 9.000e-5
-1.111, 9.066e-5
-1.112, 9.133e-5
-1.113, 9.199e-5
-1.114, 9.265e-5
-1.115, 9.333e-5
-1.116, 9.402e-5
-1.117, 9.471e-5
-1.118, 9.542e-5
-1.119, 9.612e-5
-1.120, 9.680e-5
-1.121, 9.750e-5
-1.122, 9.824e-5
-1.123, 9.897e-5
-1.124, 9.967e-5
-1.125, 1.004e-4
-1.126, 1.011e-4
-1.127, 1.018e-4
-1.128, 1.025e-4
-1.129, 1.032e-4
-1.130, 1.039e-4
-1.131, 1.047e-4
-1.132, 1.054e-4
-1.133, 1.061e-4
-1.134, 1.068e-4
-1.135, 1.075e-4
-1.136, 1.082e-4
-1.137, 1.089e-4
-1.138, 1.096e-4
-1.139, 1.103e-4
-1.140, 1.110e-4
-1.141, 1.117e-4
-1.142, 1.124e-4
-1.143, 1.130e-4
-1.144, 1.137e-4
-1.145, 1.144e-4
-1.146, 1.151e-4
-1.147, 1.157e-4
-1.148, 1.164e-4
-1.149, 1.170e-4
-1.150, 1.176e-4
-1.151, 1.182e-4
-1.152, 1.189e-4
-1.153, 1.195e-4
-1.154, 1.201e-4
-1.155, 1.207e-4
-1.156, 1.212e-4
-1.157, 1.218e-4
-1.158, 1.223e-4
-1.159, 1.229e-4
-1.160, 1.234e-4
-1.161, 1.240e-4
-1.162, 1.245e-4
-1.163, 1.250e-4
-1.164, 1.256e-4
-1.165, 1.261e-4
-1.166, 1.265e-4
-1.167, 1.270e-4
-1.168, 1.275e-4
-1.169, 1.279e-4
-1.170, 1.283e-4
-1.171, 1.288e-4
-1.172, 1.293e-4
-1.173, 1.297e-4
-1.174, 1.301e-4
-1.175, 1.305e-4
-1.176, 1.309e-4
-1.177, 1.314e-4
-1.178, 1.318e-4
-1.179, 1.322e-4
-1.180, 1.325e-4
-1.181, 1.329e-4
-1.182, 1.333e-4
-1.183, 1.336e-4
-1.184, 1.340e-4
-1.185, 1.344e-4
-1.186, 1.348e-4
-1.187, 1.351e-4
-1.188, 1.355e-4
-1.189, 1.358e-4
-1.190, 1.362e-4
-1.191, 1.365e-4
-1.192, 1.368e-4
-1.193, 1.372e-4
-1.194, 1.375e-4
-1.195, 1.378e-4
-1.196, 1.381e-4
-1.197, 1.384e-4
-1.198, 1.387e-4
-1.199, 1.390e-4
-1.200, 1.394e-4
-1.201, 1.397e-4
-1.202, 1.400e-4
-1.203, 1.403e-4
-1.204, 1.406e-4
-1.205, 1.409e-4
-1.206, 1.412e-4
-1.207, 1.416e-4
-1.208, 1.418e-4
-1.209, 1.421e-4
-1.210, 1.425e-4
-1.211, 1.428e-4
-1.212, 1.431e-4
-1.213, 1.434e-4
-1.214, 1.437e-4
-1.215, 1.440e-4
-1.216, 1.443e-4
-1.217, 1.446e-4
-1.218, 1.449e-4
-1.219, 1.452e-4
-1.220, 1.455e-4
-1.221, 1.459e-4
-1.222, 1.462e-4
-1.223, 1.464e-4
-1.224, 1.467e-4
-1.225, 1.470e-4
-1.226, 1.473e-4
-1.227, 1.476e-4
-1.228, 1.479e-4
-1.229, 1.483e-4
-1.230, 1.486e-4
-1.231, 1.489e-4
-1.232, 1.492e-4
-1.233, 1.495e-4
-1.234, 1.498e-4
-1.235, 1.501e-4
-1.236, 1.504e-4
-1.237, 1.508e-4
-1.238, 1.512e-4
-1.239, 1.515e-4
-1.240, 1.519e-4
-1.241, 1.522e-4
-1.242, 1.525e-4
-1.243, 1.528e-4
-1.244, 1.531e-4
-1.245, 1.535e-4
-1.246, 1.538e-4
-1.247, 1.541e-4
-1.248, 1.545e-4
-1.249, 1.548e-4
-1.250, 1.552e-4
-1.251, 1.556e-4
-1.252, 1.560e-4
-1.253, 1.563e-4
-1.254, 1.565e-4
-1.255, 1.569e-4
-1.256, 1.572e-4
-1.257, 1.576e-4
-1.258, 1.580e-4
-1.259, 1.584e-4
-1.260, 1.588e-4
-1.261, 1.591e-4
-1.262, 1.594e-4
-1.263, 1.598e-4
-1.264, 1.602e-4
-1.265, 1.606e-4
-1.266, 1.610e-4
-1.267, 1.614e-4
-1.268, 1.618e-4
-1.269, 1.622e-4
-1.270, 1.625e-4
-1.271, 1.629e-4
-1.272, 1.634e-4
-1.273, 1.638e-4
-1.274, 1.641e-4
-1.275, 1.645e-4
-1.276, 1.648e-4
-1.277, 1.652e-4
-1.278, 1.656e-4
-1.279, 1.660e-4
-1.280, 1.663e-4
-1.281, 1.667e-4
-1.282, 1.671e-4
-1.283, 1.675e-4
-1.284, 1.678e-4
-1.285, 1.682e-4
-1.286, 1.687e-4
-1.287, 1.690e-4
-1.288, 1.693e-4
-1.289, 1.696e-4
-1.290, 1.700e-4
-1.291, 1.704e-4
-1.292, 1.708e-4
-1.293, 1.712e-4
-1.294, 1.717e-4
-1.295, 1.723e-4
-1.296, 1.727e-4
-1.297, 1.731e-4
-1.298, 1.734e-4
-1.299, 1.738e-4
-1.300, 1.742e-4
-1.301, 1.747e-4
-1.302, 1.752e-4
-1.303, 1.755e-4
-1.304, 1.760e-4
-1.305, 1.764e-4
-1.306, 1.767e-4
-1.307, 1.772e-4
-1.308, 1.775e-4
-1.309, 1.777e-4
-1.310, 1.782e-4
-1.311, 1.788e-4
-1.312, 1.793e-4
-1.313, 1.796e-4
-1.314, 1.800e-4
-1.315, 1.805e-4
-1.316, 1.810e-4
-1.317, 1.814e-4
-1.318, 1.817e-4
-1.319, 1.820e-4
-1.320, 1.825e-4
-1.321, 1.827e-4
-1.322, 1.830e-4
-1.323, 1.835e-4
-1.324, 1.839e-4
-1.325, 1.845e-4
-1.326, 1.850e-4
-1.327, 1.853e-4
-1.328, 1.855e-4
-1.329, 1.857e-4
-1.330, 1.858e-4
-1.331, 1.862e-4
-1.332, 1.867e-4
-1.333, 1.874e-4
-1.334, 1.876e-4
-1.335, 1.880e-4
-1.336, 1.884e-4
-1.337, 1.887e-4
-1.338, 1.890e-4
-1.339, 1.893e-4
-1.340, 1.896e-4
-1.341, 1.900e-4
-1.342, 1.903e-4
-1.343, 1.906e-4
-1.344, 1.912e-4
-1.345, 1.916e-4
-1.346, 1.920e-4
-1.347, 1.922e-4
-1.348, 1.925e-4
-1.349, 1.929e-4
-1.350, 1.932e-4
-1.351, 1.937e-4
-1.352, 1.940e-4
-1.353, 1.943e-4
-1.354, 1.946e-4
-1.355, 1.949e-4
-1.356, 1.953e-4
-1.357, 1.956e-4
-1.358, 1.959e-4
-1.359, 1.960e-4
-1.360, 1.961e-4
-1.361, 1.963e-4
-1.362, 1.965e-4
-1.363, 1.966e-4
-1.364, 1.967e-4
-1.365, 1.972e-4
-1.366, 1.976e-4
-1.367, 1.978e-4
-1.368, 1.980e-4
-1.369, 1.981e-4
-1.370, 1.984e-4
-1.371, 1.987e-4
-1.372, 1.989e-4
-1.373, 1.992e-4
-1.374, 1.994e-4
-1.375, 1.997e-4
-1.376, 1.999e-4
-1.377, 1.998e-4
-1.378, 1.997e-4
-1.379, 1.996e-4
-1.380, 1.996e-4
-1.381, 1.997e-4
-1.382, 1.998e-4
-1.383, 2.000e-4
-1.384, 2.001e-4
-1.385, 2.002e-4
-1.386, 2.002e-4
-1.387, 2.004e-4
-1.388, 2.007e-4
-1.389, 2.007e-4
-1.390, 2.006e-4
-1.391, 2.005e-4
-1.392, 2.005e-4
-1.393, 2.005e-4
-1.394, 2.006e-4
-1.395, 2.003e-4
-1.396, 2.000e-4
-1.397, 2.001e-4
-1.398, 2.003e-4
-1.399, 2.004e-4
-1.400, 2.002e-4
-1.401, 2.001e-4
-1.402, 2.002e-4
-1.403, 2.005e-4
-1.404, 2.003e-4
-1.405, 2.002e-4
-1.406, 2.004e-4
-1.407, 2.004e-4
-1.408, 2.002e-4
-1.409, 2.002e-4
-1.410, 2.001e-4
-1.411, 2.001e-4
-1.412, 2.003e-4
-1.413, 2.006e-4
-1.414, 2.004e-4
-1.415, 2.004e-4
-1.416, 2.006e-4
-1.417, 2.004e-4
-1.418, 2.000e-4
-1.419, 1.998e-4
-1.420, 1.996e-4
-1.421, 1.996e-4
-1.422, 1.995e-4
-1.423, 1.995e-4
-1.424, 1.997e-4
-1.425, 1.995e-4
-1.426, 1.992e-4
-1.427, 1.989e-4
-1.428, 1.988e-4
-1.429, 1.989e-4
-1.430, 1.989e-4
-1.431, 1.990e-4
-1.432, 1.991e-4
-1.433, 1.991e-4
-1.434, 1.992e-4
-1.435, 1.989e-4
-1.436, 1.991e-4
-1.437, 1.994e-4
-1.438, 1.993e-4
-1.439, 1.997e-4
-1.440, 1.995e-4
-1.441, 1.991e-4
-1.442, 1.988e-4
-1.443, 1.986e-4
-1.444, 1.989e-4
-1.445, 1.989e-4
-1.446, 1.991e-4
-1.447, 1.991e-4
-1.448, 1.992e-4
-1.449, 1.993e-4
-1.450, 1.995e-4
-1.451, 1.995e-4
-1.452, 1.996e-4
-1.453, 1.994e-4
-1.454, 1.996e-4
-1.455, 1.999e-4
-1.456, 2.002e-4
-1.457, 2.007e-4
-1.458, 2.009e-4
-1.459, 2.011e-4
-1.460, 2.011e-4
-1.461, 2.011e-4
-1.462, 2.012e-4
-1.463, 2.016e-4
-1.464, 2.021e-4
-1.465, 2.023e-4
-1.466, 2.026e-4
-1.467, 2.029e-4
-1.468, 2.028e-4
-1.469, 2.032e-4
-1.470, 2.038e-4
-1.471, 2.041e-4
-1.472, 2.041e-4
-1.473, 2.043e-4
-1.474, 2.044e-4
-1.475, 2.045e-4
-1.476, 2.050e-4
-1.477, 2.055e-4
-1.478, 2.057e-4
-1.479, 2.058e-4
-1.480, 2.062e-4
-1.481, 2.065e-4
-1.482, 2.069e-4
-1.483, 2.077e-4
-1.484, 2.078e-4
-1.485, 2.080e-4
-1.486, 2.084e-4
-1.487, 2.087e-4
-1.488, 2.091e-4
-1.489, 2.096e-4
-1.490, 2.103e-4
-1.491, 2.110e-4
-1.492, 2.116e-4
-1.493, 2.123e-4
-1.494, 2.125e-4
-1.495, 2.129e-4
-1.496, 2.138e-4
-1.497, 2.150e-4
-1.498, 2.157e-4
-1.499, 2.164e-4
-1.500, 2.169e-4
-1.501, 2.173e-4
-1.502, 2.177e-4
-1.503, 2.181e-4
-1.504, 2.186e-4
-1.505, 2.193e-4
-1.506, 2.201e-4
-1.507, 2.206e-4
-1.508, 2.210e-4
-1.509, 2.218e-4
-1.510, 2.225e-4
-1.511, 2.235e-4
-1.512, 2.242e-4
-1.513, 2.250e-4
-1.514, 2.257e-4
-1.515, 2.263e-4
-1.516, 2.271e-4
-1.517, 2.278e-4
-1.518, 2.284e-4
-1.519, 2.295e-4
-1.520, 2.308e-4
-1.521, 2.322e-4
-1.522, 2.332e-4
-1.523, 2.340e-4
-1.524, 2.348e-4
-1.525, 2.359e-4
-1.526, 2.369e-4
-1.527, 2.378e-4
-1.528, 2.387e-4
-1.529, 2.401e-4
-1.530, 2.411e-4
-1.531, 2.422e-4
-1.532, 2.436e-4
-1.533, 2.454e-4
-1.534, 2.468e-4
-1.535, 2.481e-4
-1.536, 2.491e-4
-1.537, 2.505e-4
-1.538, 2.519e-4
-1.539, 2.530e-4
-1.540, 2.538e-4
-1.541, 2.549e-4
-1.542, 2.556e-4
-1.543, 2.564e-4
-1.544, 2.578e-4
-1.545, 2.593e-4
-1.546, 2.609e-4
-1.547, 2.621e-4
-1.548, 2.635e-4
-1.549, 2.650e-4
-1.550, 2.665e-4
-1.551, 2.674e-4
-1.552, 2.688e-4
-1.553, 2.702e-4
-1.554, 2.719e-4
-1.555, 2.741e-4
-1.556, 2.759e-4
-1.557, 2.769e-4
-1.558, 2.782e-4
-1.559, 2.796e-4
-1.560, 2.810e-4
-1.561, 2.829e-4
-1.562, 2.846e-4
-1.563, 2.863e-4
-1.564, 2.878e-4
-1.565, 2.899e-4
-1.566, 2.921e-4
-1.567, 2.939e-4
-1.568, 2.956e-4
-1.569, 2.975e-4
-1.570, 2.995e-4
-1.571, 3.016e-4
-1.572, 3.034e-4
-1.573, 3.058e-4
-1.574, 3.082e-4
-1.575, 3.108e-4
-1.576, 3.127e-4
-1.577, 3.146e-4
-1.578, 3.157e-4
-1.579, 3.164e-4
-1.580, 3.183e-4
-1.581, 3.201e-4
-1.582, 3.220e-4
-1.583, 3.239e-4
-1.584, 3.257e-4
-1.585, 3.275e-4
-1.586, 3.293e-4
-1.587, 3.319e-4
-1.588, 3.346e-4
-1.589, 3.363e-4
-1.590, 3.384e-4
-1.591, 3.403e-4
-1.592, 3.421e-4
-1.593, 3.441e-4
-1.594, 3.465e-4
-1.595, 3.485e-4
-1.596, 3.511e-4
-1.597, 3.532e-4
-1.598, 3.552e-4
-1.599, 3.575e-4
-1.600, 3.603e-4
-1.601, 3.629e-4
-1.602, 3.657e-4
-1.603, 3.680e-4
-1.604, 3.707e-4
-1.605, 3.731e-4
-1.606, 3.751e-4
-1.607, 3.772e-4
-1.608, 3.800e-4
-1.609, 3.828e-4
-1.610, 3.854e-4
-1.611, 3.879e-4
-1.612, 3.907e-4
-1.613, 3.938e-4
-1.614, 3.964e-4
-1.615, 3.993e-4
-1.616, 4.024e-4
-1.617, 4.051e-4
-1.618, 4.069e-4
-1.619, 4.088e-4
-1.620, 4.115e-4
-1.621, 4.146e-4
-1.622, 4.171e-4
-1.623, 4.200e-4
-1.624, 4.235e-4
-1.625, 4.266e-4
-1.626, 4.292e-4
-1.627, 4.322e-4
-1.628, 4.352e-4
-1.629, 4.387e-4
-1.630, 4.417e-4
-1.631, 4.445e-4
-1.632, 4.473e-4
-1.633, 4.503e-4
-1.634, 4.527e-4
-1.635, 4.558e-4
-1.636, 4.595e-4
-1.637, 4.628e-4
-1.638, 4.655e-4
-1.639, 4.689e-4
-1.640, 4.730e-4
-1.641, 4.764e-4
-1.642, 4.797e-4
-1.643, 4.830e-4
-1.644, 4.860e-4
-1.645, 4.897e-4
-1.646, 4.931e-4
-1.647, 4.957e-4
-1.648, 4.983e-4
-1.649, 5.011e-4
-1.650, 5.038e-4
-1.651, 5.069e-4
-1.652, 5.107e-4
-1.653, 5.143e-4
-1.654, 5.177e-4
-1.655, 5.213e-4
-1.656, 5.249e-4
-1.657, 5.285e-4
-1.658, 5.322e-4
-1.659, 5.358e-4
-1.660, 5.397e-4
-1.661, 5.434e-4
-1.662, 5.472e-4
-1.663, 5.508e-4
-1.664, 5.544e-4
-1.665, 5.585e-4
-1.666, 5.627e-4
-1.667, 5.670e-4
-1.668, 5.711e-4
-1.669, 5.749e-4
-1.670, 5.789e-4
-1.671, 5.831e-4
-1.672, 5.876e-4
-1.673, 5.915e-4
-1.674, 5.955e-4
-1.675, 6.001e-4
-1.676, 6.039e-4
-1.677, 6.079e-4
-1.678, 6.124e-4
-1.679, 6.165e-4
-1.680, 6.205e-4
-1.681, 6.247e-4
-1.682, 6.285e-4
-1.683, 6.323e-4
-1.684, 6.365e-4
-1.685, 6.414e-4
-1.686, 6.460e-4
-1.687, 6.501e-4
-1.688, 6.547e-4
-1.689, 6.588e-4
-1.690, 6.623e-4
-1.691, 6.663e-4
-1.692, 6.710e-4
-1.693, 6.756e-4
-1.694, 6.801e-4
-1.695, 6.850e-4
-1.696, 6.895e-4
-1.697, 6.942e-4
-1.698, 6.985e-4
-1.699, 7.029e-4
-1.700, 7.077e-4
-1.701, 7.128e-4
-1.702, 7.178e-4
-1.703, 7.221e-4
-1.704, 7.276e-4
-1.705, 7.325e-4
-1.706, 7.368e-4
-1.707, 7.409e-4
-1.708, 7.457e-4
-1.709, 7.503e-4
-1.710, 7.553e-4
-1.711, 7.595e-4
-1.712, 7.639e-4
-1.713, 7.687e-4
-1.714, 7.731e-4
-1.715, 7.782e-4
-1.716, 7.830e-4
-1.717, 7.875e-4
-1.718, 7.926e-4
-1.719, 7.975e-4
-1.720, 8.023e-4
-1.721, 8.071e-4
-1.722, 8.121e-4
-1.723, 8.174e-4
-1.724, 8.225e-4
-1.725, 8.278e-4
-1.726, 8.326e-4
-1.727, 8.377e-4
-1.728, 8.425e-4
-1.729, 8.471e-4
-1.730, 8.519e-4
-1.731, 8.571e-4
-1.732, 8.625e-4
-1.733, 8.679e-4
-1.734, 8.732e-4
-1.735, 8.780e-4
-1.736, 8.831e-4
-1.737, 8.887e-4
-1.738, 8.949e-4
-1.739, 9.008e-4
-1.740, 9.065e-4
-1.741, 9.116e-4
-1.742, 9.166e-4
-1.743, 9.220e-4
-1.744, 9.270e-4
-1.745, 9.322e-4
-1.746, 9.375e-4
-1.747, 9.431e-4
-1.748, 9.490e-4
-1.749, 9.550e-4
-1.750, 9.603e-4
-1.751, 9.661e-4
-1.752, 9.716e-4
-1.753, 9.767e-4
-1.754, 9.820e-4
-1.755, 9.876e-4
-1.756, 9.933e-4
-1.757, 9.996e-4
-1.758, 1.005e-3
-1.759, 1.010e-3
-1.760, 1.011e-3
-1.761, 1.011e-3
-1.762, 1.011e-3
-1.763, 1.011e-3
-1.764, 1.011e-3
-1.765, 1.011e-3
-1.766, 1.011e-3
-1.767, 1.011e-3
-1.768, 1.011e-3
-1.769, 1.011e-3
-1.770, 1.011e-3
-1.771, 1.011e-3
-1.772, 1.011e-3
-1.773, 1.011e-3
-1.774, 1.011e-3
-1.775, 1.011e-3
-1.776, 1.011e-3
-1.777, 1.011e-3
-1.778, 1.011e-3
-1.779, 1.011e-3
-1.780, 1.011e-3
-1.781, 1.011e-3
-1.782, 1.011e-3
-1.783, 1.011e-3
-1.784, 1.011e-3
-1.785, 1.011e-3
-1.786, 1.011e-3
-1.787, 1.011e-3
-1.788, 1.011e-3
-1.789, 1.011e-3
-1.790, 1.011e-3
-1.791, 1.011e-3
-1.792, 1.011e-3
-1.793, 1.011e-3
-1.794, 1.011e-3
-1.795, 1.011e-3
-1.796, 1.011e-3
-1.797, 1.011e-3
-1.798, 1.011e-3
-1.799, 1.011e-3
-1.800, 1.011e-3
-1.801, 1.011e-3
-1.802, 1.011e-3
-1.803, 1.011e-3
-1.804, 1.011e-3
-1.805, 1.011e-3
-1.806, 1.011e-3
-1.807, 1.011e-3
-1.808, 1.011e-3
-1.809, 1.011e-3
-1.810, 1.011e-3
-1.811, 1.011e-3
-1.812, 1.011e-3
-1.813, 1.011e-3
-1.814, 1.011e-3
-1.815, 1.011e-3
-1.816, 1.011e-3
-1.817, 1.011e-3
-1.818, 1.011e-3
-1.819, 1.011e-3
-1.820, 1.011e-3
-1.821, 1.011e-3
-1.822, 1.011e-3
-1.823, 1.011e-3
-1.824, 1.011e-3
-1.825, 1.011e-3
-1.826, 1.011e-3
-1.827, 1.011e-3
-1.828, 1.011e-3
-1.829, 1.011e-3
-1.830, 1.011e-3
-1.831, 1.011e-3
-1.832, 1.011e-3
-1.833, 1.011e-3
-1.834, 1.011e-3
-1.835, 1.011e-3
-1.836, 1.011e-3
-1.837, 1.011e-3
-1.838, 1.011e-3
-1.839, 1.011e-3
-1.840, 1.011e-3
-1.841, 1.011e-3
-1.842, 1.011e-3
-1.843, 1.011e-3
-1.844, 1.011e-3
-1.845, 1.011e-3
-1.846, 1.011e-3
-1.847, 1.011e-3
-1.848, 1.011e-3
-1.849, 1.011e-3
-1.850, 1.011e-3
-1.851, 1.011e-3
-1.852, 1.011e-3
-1.853, 1.011e-3
-1.854, 1.011e-3
-1.855, 1.011e-3
-1.856, 1.011e-3
-1.857, 1.011e-3
-1.858, 1.011e-3
-1.859, 1.011e-3
-1.860, 1.011e-3
-1.861, 1.011e-3
-1.862, 1.011e-3
-1.863, 1.011e-3
-1.864, 1.011e-3
-1.865, 1.011e-3
-1.866, 1.011e-3
-1.867, 1.011e-3
-1.868, 1.011e-3
-1.869, 1.011e-3
-1.870, 1.011e-3
-1.871, 1.011e-3
-1.872, 1.011e-3
-1.873, 1.011e-3
-1.874, 1.011e-3
-1.875, 1.011e-3
-1.876, 1.011e-3
-1.877, 1.011e-3
-1.878, 1.011e-3
-1.879, 1.011e-3
-1.880, 1.011e-3
-1.881, 1.011e-3
-1.882, 1.011e-3
-1.883, 1.011e-3
-1.884, 1.011e-3
-1.885, 1.011e-3
-1.886, 1.011e-3
-1.887, 1.011e-3
-1.888, 1.011e-3
-1.889, 1.011e-3
-1.890, 1.011e-3
-1.891, 1.011e-3
-1.892, 1.011e-3
-1.893, 1.011e-3
-1.894, 1.011e-3
-1.895, 1.011e-3
-1.896, 1.011e-3
-1.897, 1.011e-3
-1.898, 1.011e-3
-1.899, 1.011e-3
-1.900, 1.011e-3
-1.901, 1.011e-3
-1.902, 1.011e-3
-1.903, 1.011e-3
-1.904, 1.011e-3
-1.905, 1.011e-3
-1.906, 1.011e-3
-1.907, 1.011e-3
-1.908, 1.011e-3
-1.909, 1.011e-3
-1.910, 1.011e-3
-1.911, 1.011e-3
-1.912, 1.011e-3
-1.913, 1.011e-3
-1.914, 1.011e-3
-1.915, 1.011e-3
-1.916, 1.011e-3
-1.917, 1.011e-3
-1.918, 1.011e-3
-1.919, 1.011e-3
-1.920, 1.011e-3
-1.921, 1.011e-3
-1.922, 1.011e-3
-1.923, 1.011e-3
-1.924, 1.011e-3
-1.925, 1.011e-3
-1.926, 1.011e-3
-1.927, 1.011e-3
-1.928, 1.011e-3
-1.929, 1.011e-3
-1.930, 1.011e-3
-1.931, 1.011e-3
-1.932, 1.011e-3
-1.933, 1.011e-3
-1.934, 1.011e-3
-1.935, 1.011e-3
-1.936, 1.011e-3
-1.937, 1.011e-3
-1.938, 1.011e-3
-1.939, 1.011e-3
-1.940, 1.011e-3
-1.941, 1.011e-3
-1.942, 1.011e-3
-1.943, 1.011e-3
-1.944, 1.011e-3
-1.945, 1.011e-3
-1.946, 1.011e-3
-1.947, 1.011e-3
-1.948, 1.011e-3
-1.949, 1.011e-3
-1.950, 1.011e-3
-1.951, 1.011e-3
-1.952, 1.011e-3
-1.953, 1.011e-3
-1.954, 1.011e-3
-1.955, 1.011e-3
-1.956, 1.011e-3
-1.957, 1.011e-3
-1.958, 1.011e-3
-1.959, 1.011e-3
-1.960, 1.011e-3
-1.961, 1.011e-3
-1.962, 1.011e-3
-1.963, 1.011e-3
-1.964, 1.011e-3
-1.965, 1.011e-3
-1.966, 1.011e-3
-1.967, 1.011e-3
-1.968, 1.011e-3
-1.969, 1.011e-3
-1.970, 1.011e-3
-1.971, 1.011e-3
-1.972, 1.011e-3
-1.973, 1.011e-3
-1.974, 1.011e-3
-1.975, 1.011e-3
-1.976, 1.011e-3
-1.977, 1.011e-3
-1.978, 1.011e-3
-1.979, 1.011e-3
-1.980, 1.011e-3
-1.981, 1.011e-3
-1.982, 1.011e-3
-1.983, 1.011e-3
-1.984, 1.011e-3
-1.985, 1.011e-3
-1.986, 1.011e-3
-1.987, 1.011e-3
-1.988, 1.011e-3
-1.989, 1.011e-3
-1.990, 1.011e-3
-1.991, 1.011e-3
-1.992, 1.011e-3
-1.993, 1.011e-3
-1.994, 1.011e-3
-1.995, 1.011e-3
-1.996, 1.011e-3
-1.997, 1.011e-3
-1.998, 1.011e-3
-1.999, 1.011e-3
-2.000, 1.011e-3
-2.001, 1.011e-3
-2.002, 1.011e-3
-2.003, 1.011e-3
-2.004, 1.011e-3
-2.005, 1.011e-3
-2.006, 1.011e-3
-2.007, 1.011e-3
-2.008, 1.011e-3
-2.009, 1.011e-3
-2.010, 1.011e-3
-2.011, 1.011e-3
-2.012, 1.011e-3
-2.013, 1.011e-3
-2.014, 1.011e-3
-2.015, 1.011e-3
-2.016, 1.011e-3
-2.017, 1.011e-3
-2.018, 1.011e-3
-2.019, 1.011e-3
-2.020, 1.011e-3
-2.021, 1.011e-3
-2.022, 1.011e-3
-2.023, 1.011e-3
-2.024, 1.011e-3
-2.025, 1.011e-3
-2.026, 1.011e-3
-2.027, 1.011e-3
-2.028, 1.011e-3
-2.029, 1.011e-3
-2.030, 1.011e-3
-2.031, 1.011e-3
-2.032, 1.011e-3
-2.033, 1.011e-3
-2.034, 1.011e-3
-2.035, 1.011e-3
-2.036, 1.011e-3
-2.037, 1.011e-3
-2.038, 1.011e-3
-2.039, 1.011e-3
-2.040, 1.011e-3
-2.041, 1.011e-3
-2.042, 1.011e-3
-2.043, 1.011e-3
-2.044, 1.011e-3
-2.045, 1.011e-3
-2.046, 1.011e-3
-2.047, 1.011e-3
-2.048, 1.011e-3
-2.049, 1.011e-3
-2.050, 1.011e-3
-2.051, 1.011e-3
-2.052, 1.011e-3
-2.053, 1.011e-3
-2.054, 1.011e-3
-2.055, 1.011e-3
-2.056, 1.011e-3
-2.057, 1.011e-3
-2.058, 1.011e-3
-2.059, 1.011e-3
-2.060, 1.011e-3
-2.061, 1.011e-3
-2.062, 1.011e-3
-2.063, 1.011e-3
-2.064, 1.011e-3
-2.065, 1.011e-3
-2.066, 1.011e-3
-2.067, 1.011e-3
-2.068, 1.011e-3
-2.069, 1.011e-3
-2.070, 1.011e-3
-2.071, 1.011e-3
-2.072, 1.011e-3
-2.073, 1.011e-3
-2.074, 1.011e-3
-2.075, 1.011e-3
-2.076, 1.011e-3
-2.077, 1.011e-3
-2.078, 1.011e-3
-2.079, 1.011e-3
-2.080, 1.011e-3
-2.081, 1.011e-3
-2.082, 1.011e-3
-2.083, 1.011e-3
-2.084, 1.011e-3
-2.085, 1.011e-3
-2.086, 1.011e-3
-2.087, 1.011e-3
-2.088, 1.011e-3
-2.089, 1.011e-3
-2.090, 1.011e-3
-2.091, 1.011e-3
-2.092, 1.011e-3
-2.093, 1.011e-3
-2.094, 1.011e-3
-2.095, 1.011e-3
-2.096, 1.011e-3
-2.097, 1.011e-3
-2.098, 1.011e-3
-2.099, 1.011e-3
-2.100, 1.011e-3
-2.101, 1.011e-3
-2.102, 1.011e-3
-2.103, 1.011e-3
-2.104, 1.011e-3
-2.105, 1.011e-3
-2.106, 1.011e-3
-2.107, 1.011e-3
-2.108, 1.011e-3
-2.109, 1.011e-3
-2.110, 1.011e-3
-2.111, 1.011e-3
-2.112, 1.011e-3
-2.113, 1.011e-3
-2.114, 1.011e-3
-2.115, 1.011e-3
-2.116, 1.011e-3
-2.117, 1.011e-3
-2.118, 1.011e-3
-2.119, 1.011e-3
-2.120, 1.011e-3
-2.121, 1.011e-3
-2.122, 1.011e-3
-2.123, 1.011e-3
-2.124, 1.011e-3
-2.125, 1.011e-3
-2.126, 1.011e-3
-2.127, 1.011e-3
-2.128, 1.011e-3
-2.129, 1.011e-3
-2.130, 1.011e-3
-2.131, 1.011e-3
-2.132, 1.011e-3
-2.133, 1.011e-3
-2.134, 1.011e-3
-2.135, 1.011e-3
-2.136, 1.011e-3
-2.137, 1.011e-3
-2.138, 1.011e-3
-2.139, 1.011e-3
-2.140, 1.011e-3
-2.141, 1.011e-3
-2.142, 1.011e-3
-2.143, 1.011e-3
-2.144, 1.011e-3
-2.145, 1.011e-3
-2.146, 1.011e-3
-2.147, 1.011e-3
-2.148, 1.011e-3
-2.149, 1.011e-3
-2.150, 1.011e-3
-2.151, 1.011e-3
-2.152, 1.011e-3
-2.153, 1.011e-3
-2.154, 1.011e-3
-2.155, 1.011e-3
-2.156, 1.011e-3
-2.157, 1.011e-3
-2.158, 1.011e-3
-2.159, 1.011e-3
-2.160, 1.011e-3
-2.161, 1.011e-3
-2.162, 1.011e-3
-2.163, 1.011e-3
-2.164, 1.011e-3
-2.165, 1.011e-3
-2.166, 1.011e-3
-2.167, 1.011e-3
-2.168, 1.011e-3
-2.169, 1.011e-3
-2.170, 1.011e-3
-2.171, 1.011e-3
-2.172, 1.011e-3
-2.173, 1.011e-3
-2.174, 1.011e-3
-2.175, 1.011e-3
-2.176, 1.011e-3
-2.177, 1.011e-3
-2.178, 1.011e-3
-2.179, 1.011e-3
-2.180, 1.011e-3
-2.181, 1.011e-3
-2.182, 1.011e-3
-2.183, 1.011e-3
-2.184, 1.011e-3
-2.185, 1.011e-3
-2.186, 1.011e-3
-2.187, 1.011e-3
-2.188, 1.011e-3
-2.189, 1.011e-3
-2.190, 1.011e-3
-2.191, 1.011e-3
-2.192, 1.011e-3
-2.193, 1.011e-3
-2.194, 1.011e-3
-2.195, 1.011e-3
-2.196, 1.011e-3
-2.197, 1.011e-3
-2.198, 1.011e-3
-2.199, 1.011e-3
-2.200, 1.011e-3
-2.201, 1.011e-3
-2.202, 1.011e-3
-2.203, 1.011e-3
-2.204, 1.011e-3
-2.205, 1.011e-3
-2.206, 1.011e-3
-2.207, 1.011e-3
-2.208, 1.011e-3
-2.209, 1.011e-3
-2.210, 1.011e-3
-2.211, 1.011e-3
-2.212, 1.011e-3
-2.213, 1.011e-3
-2.214, 1.011e-3
-2.215, 1.011e-3
-2.216, 1.011e-3
-2.217, 1.011e-3
-2.218, 1.011e-3
-2.219, 1.011e-3
-2.220, 1.011e-3
-2.221, 1.011e-3
-2.222, 1.011e-3
-2.223, 1.011e-3
-2.224, 1.011e-3
-2.225, 1.011e-3
-2.226, 1.011e-3
-2.227, 1.011e-3
-2.228, 1.011e-3
-2.229, 1.011e-3
-2.230, 1.011e-3
-2.231, 1.011e-3
-2.232, 1.011e-3
-2.233, 1.011e-3
-2.234, 1.011e-3
-2.235, 1.011e-3
-2.236, 1.011e-3
-2.237, 1.011e-3
-2.238, 1.011e-3
-2.239, 1.011e-3
-2.240, 1.011e-3
-2.241, 1.011e-3
-2.242, 1.011e-3
-2.243, 1.011e-3
-2.244, 1.011e-3
-2.245, 1.011e-3
-2.246, 1.011e-3
-2.247, 1.011e-3
-2.248, 1.011e-3
-2.249, 1.011e-3
-2.250, 1.011e-3
-2.251, 1.011e-3
-2.252, 1.011e-3
-2.253, 1.011e-3
-2.254, 1.011e-3
-2.255, 1.011e-3
-2.256, 1.011e-3
-2.257, 1.011e-3
-2.258, 1.011e-3
-2.259, 1.011e-3
-2.260, 1.011e-3
-2.261, 1.011e-3
-2.262, 1.011e-3
-2.263, 1.011e-3
-2.264, 1.011e-3
-2.265, 1.011e-3
-2.266, 1.011e-3
-2.267, 1.011e-3
-2.268, 1.011e-3
-2.269, 1.011e-3
-2.270, 1.011e-3
-2.271, 1.011e-3
-2.272, 1.011e-3
-2.273, 1.011e-3
-2.274, 1.011e-3
-2.275, 1.011e-3
-2.276, 1.011e-3
-2.277, 1.011e-3
-2.278, 1.011e-3
-2.279, 1.011e-3
-2.280, 1.011e-3
-2.281, 1.011e-3
-2.282, 1.011e-3
-2.283, 1.011e-3
-2.284, 1.011e-3
-2.285, 1.011e-3
-2.286, 1.011e-3
-2.287, 1.011e-3
-2.288, 1.011e-3
-2.289, 1.011e-3
-2.290, 1.011e-3
-2.291, 1.011e-3
-2.292, 1.011e-3
-2.293, 1.011e-3
-2.294, 1.011e-3
-2.295, 1.011e-3
-2.296, 1.011e-3
-2.297, 1.011e-3
-2.298, 1.011e-3
-2.299, 1.011e-3
