Dec. 29, 2024   05:19:36
Cyclic Voltammetry
File: c:/users/guazh/data/banditlqround7_x0exp136_r20/2024-12-24-exp774\exp774-2024-12-29t05_01_14-arkoh\exp774_cv_sr_200mvs_efin_-1700mv.bin
Data Source:  Experiment
Instrument Model:  CHI760E
Header: CV ran at 200 mVs
Note: 

Init E (V) = -1
High E (V) = -1
Low E (V) = -1.7
Final E (V) = -1
Init P/N = N
Scan Rate (V/s) = 0.2
Segment = 3
Sample Interval (V) = 0.001
Quiet Time (sec) = 2
Sensitivity (A/V) = 0.01
Comp R (ohm) = 1.4

Results:

Channel 1:
Segment 1:

Segment 2:

Segment 3:

Potential/V, Current/A

-1.000, 1.753e-5
-1.001, 2.569e-5
-1.002, 2.206e-5
-1.003, 2.774e-5
-1.004, 3.368e-5
-1.005, 2.730e-5
-1.006, 2.898e-5
-1.007, 3.710e-5
-1.008, 3.328e-5
-1.009, 3.001e-5
-1.010, 3.850e-5
-1.011, 3.790e-5
-1.012, 3.210e-5
-1.013, 3.741e-5
-1.014, 4.197e-5
-1.015, 3.545e-5
-1.016, 3.653e-5
-1.017, 4.389e-5
-1.018, 4.002e-5
-1.019, 3.623e-5
-1.020, 4.428e-5
-1.021, 4.354e-5
-1.022, 3.758e-5
-1.023, 4.266e-5
-1.024, 4.744e-5
-1.025, 4.008e-5
-1.026, 4.142e-5
-1.027, 4.872e-5
-1.028, 4.415e-5
-1.029, 4.029e-5
-1.030, 4.842e-5
-1.031, 4.778e-5
-1.032, 4.143e-5
-1.033, 4.647e-5
-1.034, 5.091e-5
-1.035, 4.356e-5
-1.036, 4.519e-5
-1.037, 5.199e-5
-1.038, 4.715e-5
-1.039, 4.367e-5
-1.040, 5.138e-5
-1.041, 5.042e-5
-1.042, 4.446e-5
-1.043, 4.913e-5
-1.044, 5.363e-5
-1.045, 4.581e-5
-1.046, 4.744e-5
-1.047, 5.464e-5
-1.048, 4.926e-5
-1.049, 4.586e-5
-1.050, 5.398e-5
-1.051, 5.228e-5
-1.052, 4.659e-5
-1.053, 5.153e-5
-1.054, 5.516e-5
-1.055, 4.817e-5
-1.056, 4.917e-5
-1.057, 5.583e-5
-1.058, 5.127e-5
-1.059, 4.719e-5
-1.060, 5.533e-5
-1.061, 5.380e-5
-1.062, 4.744e-5
-1.063, 5.286e-5
-1.064, 5.648e-5
-1.065, 4.896e-5
-1.066, 5.048e-5
-1.067, 5.709e-5
-1.068, 5.226e-5
-1.069, 4.841e-5
-1.070, 5.612e-5
-1.071, 5.477e-5
-1.072, 4.867e-5
-1.073, 5.346e-5
-1.074, 5.724e-5
-1.075, 4.945e-5
-1.076, 5.069e-5
-1.077, 5.740e-5
-1.078, 5.226e-5
-1.079, 4.864e-5
-1.080, 5.636e-5
-1.081, 5.472e-5
-1.082, 4.856e-5
-1.083, 5.334e-5
-1.084, 5.699e-5
-1.085, 4.929e-5
-1.086, 5.031e-5
-1.087, 5.739e-5
-1.088, 5.188e-5
-1.089, 4.834e-5
-1.090, 5.615e-5
-1.091, 5.394e-5
-1.092, 4.790e-5
-1.093, 5.315e-5
-1.094, 5.630e-5
-1.095, 4.853e-5
-1.096, 4.982e-5
-1.097, 5.656e-5
-1.098, 5.122e-5
-1.099, 4.746e-5
-1.100, 5.523e-5
-1.101, 5.317e-5
-1.102, 4.644e-5
-1.103, 5.234e-5
-1.104, 5.496e-5
-1.105, 4.763e-5
-1.106, 4.900e-5
-1.107, 5.492e-5
-1.108, 4.983e-5
-1.109, 4.607e-5
-1.110, 5.367e-5
-1.111, 5.211e-5
-1.112, 4.543e-5
-1.113, 5.057e-5
-1.114, 5.399e-5
-1.115, 4.601e-5
-1.116, 4.766e-5
-1.117, 5.384e-5
-1.118, 4.813e-5
-1.119, 4.477e-5
-1.120, 5.220e-5
-1.121, 5.008e-5
-1.122, 4.415e-5
-1.123, 4.908e-5
-1.124, 5.209e-5
-1.125, 4.451e-5
-1.126, 4.583e-5
-1.127, 5.213e-5
-1.128, 4.653e-5
-1.129, 4.336e-5
-1.130, 5.048e-5
-1.131, 4.839e-5
-1.132, 4.238e-5
-1.133, 4.772e-5
-1.134, 5.014e-5
-1.135, 4.273e-5
-1.136, 4.436e-5
-1.137, 5.025e-5
-1.138, 4.492e-5
-1.139, 4.144e-5
-1.140, 4.909e-5
-1.141, 4.646e-5
-1.142, 4.050e-5
-1.143, 4.624e-5
-1.144, 4.855e-5
-1.145, 4.101e-5
-1.146, 4.278e-5
-1.147, 4.859e-5
-1.148, 4.312e-5
-1.149, 4.005e-5
-1.150, 4.736e-5
-1.151, 4.500e-5
-1.152, 3.951e-5
-1.153, 4.442e-5
-1.154, 4.691e-5
-1.155, 3.951e-5
-1.156, 4.152e-5
-1.157, 4.685e-5
-1.158, 4.168e-5
-1.159, 3.920e-5
-1.160, 4.516e-5
-1.161, 4.310e-5
-1.162, 3.760e-5
-1.163, 4.274e-5
-1.164, 4.514e-5
-1.165, 3.803e-5
-1.166, 3.980e-5
-1.167, 4.540e-5
-1.168, 3.984e-5
-1.169, 3.702e-5
-1.170, 4.417e-5
-1.171, 4.162e-5
-1.172, 3.630e-5
-1.173, 4.132e-5
-1.174, 4.357e-5
-1.175, 3.676e-5
-1.176, 3.854e-5
-1.177, 4.391e-5
-1.178, 3.860e-5
-1.179, 3.572e-5
-1.180, 4.266e-5
-1.181, 3.999e-5
-1.182, 3.485e-5
-1.183, 4.004e-5
-1.184, 4.198e-5
-1.185, 3.482e-5
-1.186, 3.720e-5
-1.187, 4.224e-5
-1.188, 3.676e-5
-1.189, 3.446e-5
-1.190, 4.084e-5
-1.191, 3.877e-5
-1.192, 3.330e-5
-1.193, 3.841e-5
-1.194, 4.070e-5
-1.195, 3.395e-5
-1.196, 3.590e-5
-1.197, 4.082e-5
-1.198, 3.551e-5
-1.199, 3.361e-5
-1.200, 3.995e-5
-1.201, 3.734e-5
-1.202, 3.268e-5
-1.203, 3.739e-5
-1.204, 3.962e-5
-1.205, 3.315e-5
-1.206, 3.447e-5
-1.207, 3.979e-5
-1.208, 3.453e-5
-1.209, 3.231e-5
-1.210, 3.908e-5
-1.211, 3.612e-5
-1.212, 3.151e-5
-1.213, 3.653e-5
-1.214, 3.821e-5
-1.215, 3.195e-5
-1.216, 3.369e-5
-1.217, 3.870e-5
-1.218, 3.382e-5
-1.219, 3.175e-5
-1.220, 3.788e-5
-1.221, 3.553e-5
-1.222, 3.089e-5
-1.223, 3.584e-5
-1.224, 3.735e-5
-1.225, 3.126e-5
-1.226, 3.341e-5
-1.227, 3.811e-5
-1.228, 3.332e-5
-1.229, 3.143e-5
-1.230, 3.730e-5
-1.231, 3.508e-5
-1.232, 3.036e-5
-1.233, 3.547e-5
-1.234, 3.693e-5
-1.235, 3.097e-5
-1.236, 3.270e-5
-1.237, 3.786e-5
-1.238, 3.271e-5
-1.239, 3.116e-5
-1.240, 3.719e-5
-1.241, 3.452e-5
-1.242, 3.034e-5
-1.243, 3.482e-5
-1.244, 3.682e-5
-1.245, 3.077e-5
-1.246, 3.260e-5
-1.247, 3.763e-5
-1.248, 3.240e-5
-1.249, 3.027e-5
-1.250, 3.722e-5
-1.251, 3.457e-5
-1.252, 3.016e-5
-1.253, 3.508e-5
-1.254, 3.674e-5
-1.255, 3.077e-5
-1.256, 3.282e-5
-1.257, 3.725e-5
-1.258, 3.251e-5
-1.259, 3.066e-5
-1.260, 3.695e-5
-1.261, 3.450e-5
-1.262, 3.033e-5
-1.263, 3.529e-5
-1.264, 3.660e-5
-1.265, 3.061e-5
-1.266, 3.298e-5
-1.267, 3.762e-5
-1.268, 3.267e-5
-1.269, 3.117e-5
-1.270, 3.740e-5
-1.271, 3.501e-5
-1.272, 3.036e-5
-1.273, 3.566e-5
-1.274, 3.719e-5
-1.275, 3.105e-5
-1.276, 3.336e-5
-1.277, 3.835e-5
-1.278, 3.260e-5
-1.279, 3.160e-5
-1.280, 3.785e-5
-1.281, 3.540e-5
-1.282, 3.118e-5
-1.283, 3.584e-5
-1.284, 3.750e-5
-1.285, 3.181e-5
-1.286, 3.383e-5
-1.287, 3.890e-5
-1.288, 3.336e-5
-1.289, 3.197e-5
-1.290, 3.848e-5
-1.291, 3.587e-5
-1.292, 3.130e-5
-1.293, 3.702e-5
-1.294, 3.823e-5
-1.295, 3.217e-5
-1.296, 3.465e-5
-1.297, 3.943e-5
-1.298, 3.426e-5
-1.299, 3.274e-5
-1.300, 3.902e-5
-1.301, 3.638e-5
-1.302, 3.201e-5
-1.303, 3.749e-5
-1.304, 3.910e-5
-1.305, 3.303e-5
-1.306, 3.543e-5
-1.307, 4.006e-5
-1.308, 3.503e-5
-1.309, 3.375e-5
-1.310, 4.013e-5
-1.311, 3.723e-5
-1.312, 3.313e-5
-1.313, 3.833e-5
-1.314, 4.019e-5
-1.315, 3.383e-5
-1.316, 3.641e-5
-1.317, 4.106e-5
-1.318, 3.558e-5
-1.319, 3.481e-5
-1.320, 4.111e-5
-1.321, 3.822e-5
-1.322, 3.429e-5
-1.323, 3.974e-5
-1.324, 4.119e-5
-1.325, 3.487e-5
-1.326, 3.723e-5
-1.327, 4.246e-5
-1.328, 3.692e-5
-1.329, 3.584e-5
-1.330, 4.258e-5
-1.331, 3.951e-5
-1.332, 3.559e-5
-1.333, 4.125e-5
-1.334, 4.239e-5
-1.335, 3.630e-5
-1.336, 3.902e-5
-1.337, 4.397e-5
-1.338, 3.869e-5
-1.339, 3.702e-5
-1.340, 4.398e-5
-1.341, 4.130e-5
-1.342, 3.726e-5
-1.343, 4.269e-5
-1.344, 4.398e-5
-1.345, 3.788e-5
-1.346, 4.064e-5
-1.347, 4.575e-5
-1.348, 4.036e-5
-1.349, 3.910e-5
-1.350, 4.585e-5
-1.351, 4.330e-5
-1.352, 3.872e-5
-1.353, 4.458e-5
-1.354, 4.603e-5
-1.355, 3.997e-5
-1.356, 4.275e-5
-1.357, 4.782e-5
-1.358, 4.226e-5
-1.359, 4.148e-5
-1.360, 4.802e-5
-1.361, 4.519e-5
-1.362, 4.143e-5
-1.363, 4.717e-5
-1.364, 4.864e-5
-1.365, 4.235e-5
-1.366, 4.528e-5
-1.367, 5.071e-5
-1.368, 4.497e-5
-1.369, 4.398e-5
-1.370, 5.098e-5
-1.371, 4.821e-5
-1.372, 4.398e-5
-1.373, 5.015e-5
-1.374, 5.135e-5
-1.375, 4.563e-5
-1.376, 4.886e-5
-1.377, 5.371e-5
-1.378, 4.815e-5
-1.379, 4.770e-5
-1.380, 5.434e-5
-1.381, 5.194e-5
-1.382, 4.788e-5
-1.383, 5.415e-5
-1.384, 5.488e-5
-1.385, 4.946e-5
-1.386, 5.267e-5
-1.387, 5.737e-5
-1.388, 5.240e-5
-1.389, 5.230e-5
-1.390, 5.844e-5
-1.391, 5.640e-5
-1.392, 5.208e-5
-1.393, 5.862e-5
-1.394, 6.004e-5
-1.395, 5.456e-5
-1.396, 5.770e-5
-1.397, 6.303e-5
-1.398, 5.785e-5
-1.399, 5.788e-5
-1.400, 6.406e-5
-1.401, 6.201e-5
-1.402, 5.860e-5
-1.403, 6.490e-5
-1.404, 6.636e-5
-1.405, 6.118e-5
-1.406, 6.444e-5
-1.407, 7.006e-5
-1.408, 6.471e-5
-1.409, 6.464e-5
-1.410, 7.173e-5
-1.411, 6.946e-5
-1.412, 6.656e-5
-1.413, 7.284e-5
-1.414, 7.422e-5
-1.415, 6.965e-5
-1.416, 7.306e-5
-1.417, 7.862e-5
-1.418, 7.394e-5
-1.419, 7.468e-5
-1.420, 8.147e-5
-1.421, 7.985e-5
-1.422, 7.663e-5
-1.423, 8.379e-5
-1.424, 8.493e-5
-1.425, 8.074e-5
-1.426, 8.484e-5
-1.427, 9.021e-5
-1.428, 8.626e-5
-1.429, 8.699e-5
-1.430, 9.407e-5
-1.431, 9.313e-5
-1.432, 9.028e-5
-1.433, 9.730e-5
-1.434, 9.989e-5
-1.435, 9.616e-5
-1.436, 1.003e-4
-1.437, 1.061e-4
-1.438, 1.027e-4
-1.439, 1.043e-4
-1.440, 1.119e-4
-1.441, 1.108e-4
-1.442, 1.094e-4
-1.443, 1.166e-4
-1.444, 1.194e-4
-1.445, 1.166e-4
-1.446, 1.212e-4
-1.447, 1.279e-4
-1.448, 1.255e-4
-1.449, 1.277e-4
-1.450, 1.356e-4
-1.451, 1.356e-4
-1.452, 1.354e-4
-1.453, 1.437e-4
-1.454, 1.469e-4
-1.455, 1.453e-4
-1.456, 1.509e-4
-1.457, 1.581e-4
-1.458, 1.569e-4
-1.459, 1.602e-4
-1.460, 1.692e-4
-1.461, 1.711e-4
-1.462, 1.715e-4
-1.463, 1.809e-4
-1.464, 1.856e-4
-1.465, 1.858e-4
-1.466, 1.928e-4
-1.467, 2.011e-4
-1.468, 2.018e-4
-1.469, 2.069e-4
-1.470, 2.169e-4
-1.471, 2.209e-4
-1.472, 2.236e-4
-1.473, 2.340e-4
-1.474, 2.410e-4
-1.475, 2.432e-4
-1.476, 2.519e-4
-1.477, 2.629e-4
-1.478, 2.660e-4
-1.479, 2.733e-4
-1.480, 2.853e-4
-1.481, 2.921e-4
-1.482, 2.973e-4
-1.483, 3.099e-4
-1.484, 3.199e-4
-1.485, 3.254e-4
-1.486, 3.365e-4
-1.487, 3.504e-4
-1.488, 3.567e-4
-1.489, 3.661e-4
-1.490, 3.814e-4
-1.491, 3.913e-4
-1.492, 3.996e-4
-1.493, 4.152e-4
-1.494, 4.282e-4
-1.495, 4.368e-4
-1.496, 4.504e-4
-1.497, 4.679e-4
-1.498, 4.781e-4
-1.499, 4.905e-4
-1.500, 5.090e-4
-1.501, 5.230e-4
-1.502, 5.342e-4
-1.503, 5.532e-4
-1.504, 5.704e-4
-1.505, 5.827e-4
-1.506, 5.990e-4
-1.507, 6.201e-4
-1.508, 6.340e-4
-1.509, 6.494e-4
-1.510, 6.717e-4
-1.511, 6.902e-4
-1.512, 7.046e-4
-1.513, 7.271e-4
-1.514, 7.488e-4
-1.515, 7.652e-4
-1.516, 7.851e-4
-1.517, 8.109e-4
-1.518, 8.296e-4
-1.519, 8.489e-4
-1.520, 8.759e-4
-1.521, 9.002e-4
-1.522, 9.196e-4
-1.523, 9.466e-4
-1.524, 9.750e-4
-1.525, 9.961e-4
-1.526, 1.020e-3
-1.527, 1.052e-3
-1.528, 1.076e-3
-1.529, 1.098e-3
-1.530, 1.129e-3
-1.531, 1.157e-3
-1.532, 1.180e-3
-1.533, 1.212e-3
-1.534, 1.247e-3
-1.535, 1.274e-3
-1.536, 1.303e-3
-1.537, 1.340e-3
-1.538, 1.370e-3
-1.539, 1.397e-3
-1.540, 1.435e-3
-1.541, 1.471e-3
-1.542, 1.501e-3
-1.543, 1.540e-3
-1.544, 1.583e-3
-1.545, 1.616e-3
-1.546, 1.652e-3
-1.547, 1.696e-3
-1.548, 1.731e-3
-1.549, 1.764e-3
-1.550, 1.810e-3
-1.551, 1.857e-3
-1.552, 1.894e-3
-1.553, 1.940e-3
-1.554, 1.991e-3
-1.555, 2.031e-3
-1.556, 2.071e-3
-1.557, 2.123e-3
-1.558, 2.166e-3
-1.559, 2.207e-3
-1.560, 2.262e-3
-1.561, 2.315e-3
-1.562, 2.356e-3
-1.563, 2.408e-3
-1.564, 2.467e-3
-1.565, 2.512e-3
-1.566, 2.560e-3
-1.567, 2.624e-3
-1.568, 2.677e-3
-1.569, 2.724e-3
-1.570, 2.784e-3
-1.571, 2.844e-3
-1.572, 2.892e-3
-1.573, 2.951e-3
-1.574, 3.018e-3
-1.575, 3.072e-3
-1.576, 3.126e-3
-1.577, 3.196e-3
-1.578, 3.256e-3
-1.579, 3.310e-3
-1.580, 3.381e-3
-1.581, 3.451e-3
-1.582, 3.505e-3
-1.583, 3.571e-3
-1.584, 3.644e-3
-1.585, 3.703e-3
-1.586, 3.762e-3
-1.587, 3.839e-3
-1.588, 3.905e-3
-1.589, 3.963e-3
-1.590, 4.039e-3
-1.591, 4.114e-3
-1.592, 4.172e-3
-1.593, 4.245e-3
-1.594, 4.329e-3
-1.595, 4.393e-3
-1.596, 4.459e-3
-1.597, 4.543e-3
-1.598, 4.615e-3
-1.599, 4.678e-3
-1.600, 4.760e-3
-1.601, 4.842e-3
-1.602, 4.903e-3
-1.603, 4.963e-3
-1.604, 5.042e-3
-1.605, 5.140e-3
-1.606, 5.238e-3
-1.607, 5.329e-3
-1.608, 5.392e-3
-1.609, 5.435e-3
-1.610, 5.499e-3
-1.611, 5.571e-3
-1.612, 5.642e-3
-1.613, 5.740e-3
-1.614, 5.854e-3
-1.615, 5.940e-3
-1.616, 6.012e-3
-1.617, 6.099e-3
-1.618, 6.170e-3
-1.619, 6.235e-3
-1.620, 6.325e-3
-1.621, 6.415e-3
-1.622, 6.484e-3
-1.623, 6.572e-3
-1.624, 6.672e-3
-1.625, 6.751e-3
-1.626, 6.831e-3
-1.627, 6.936e-3
-1.628, 7.022e-3
-1.629, 7.095e-3
-1.630, 7.193e-3
-1.631, 7.287e-3
-1.632, 7.368e-3
-1.633, 7.461e-3
-1.634, 7.549e-3
-1.635, 7.618e-3
-1.636, 7.693e-3
-1.637, 7.802e-3
-1.638, 7.899e-3
-1.639, 7.979e-3
-1.640, 8.077e-3
-1.641, 8.171e-3
-1.642, 8.248e-3
-1.643, 8.342e-3
-1.644, 8.449e-3
-1.645, 8.527e-3
-1.646, 8.607e-3
-1.647, 8.709e-3
-1.648, 8.794e-3
-1.649, 8.868e-3
-1.650, 8.965e-3
-1.651, 9.063e-3
-1.652, 9.138e-3
-1.653, 9.233e-3
-1.654, 9.341e-3
-1.655, 9.423e-3
-1.656, 9.505e-3
-1.657, 9.608e-3
-1.658, 9.696e-3
-1.659, 9.769e-3
-1.660, 9.862e-3
-1.661, 9.959e-3
-1.662, 1.004e-2
-1.663, 1.014e-2
-1.664, 1.025e-2
-1.665, 1.033e-2
-1.666, 1.040e-2
-1.667, 1.050e-2
-1.668, 1.059e-2
-1.669, 1.067e-2
-1.670, 1.078e-2
-1.671, 1.088e-2
-1.672, 1.095e-2
-1.673, 1.104e-2
-1.674, 1.113e-2
-1.675, 1.119e-2
-1.676, 1.126e-2
-1.677, 1.137e-2
-1.678, 1.148e-2
-1.679, 1.157e-2
-1.680, 1.166e-2
-1.681, 1.175e-2
-1.682, 1.182e-2
-1.683, 1.191e-2
-1.684, 1.203e-2
-1.685, 1.211e-2
-1.686, 1.219e-2
-1.687, 1.228e-2
-1.688, 1.236e-2
-1.689, 1.243e-2
-1.690, 1.252e-2
-1.691, 1.263e-2
-1.692, 1.271e-2
-1.693, 1.280e-2
-1.694, 1.290e-2
-1.695, 1.296e-2
-1.696, 1.302e-2
-1.697, 1.312e-2
-1.698, 1.321e-2
-1.699, 1.329e-2
-1.700, 1.330e-2
-1.699, 1.321e-2
-1.698, 1.308e-2
-1.697, 1.297e-2
-1.696, 1.288e-2
-1.695, 1.276e-2
-1.694, 1.264e-2
-1.693, 1.255e-2
-1.692, 1.243e-2
-1.691, 1.230e-2
-1.690, 1.220e-2
-1.689, 1.212e-2
-1.688, 1.200e-2
-1.687, 1.189e-2
-1.686, 1.177e-2
-1.685, 1.164e-2
-1.684, 1.152e-2
-1.683, 1.145e-2
-1.682, 1.136e-2
-1.681, 1.127e-2
-1.680, 1.117e-2
-1.679, 1.108e-2
-1.678, 1.096e-2
-1.677, 1.086e-2
-1.676, 1.076e-2
-1.675, 1.065e-2
-1.674, 1.053e-2
-1.673, 1.044e-2
-1.672, 1.035e-2
-1.671, 1.024e-2
-1.670, 1.016e-2
-1.669, 1.006e-2
-1.668, 9.917e-3
-1.667, 9.803e-3
-1.666, 9.703e-3
-1.665, 9.572e-3
-1.664, 9.452e-3
-1.663, 9.406e-3
-1.662, 9.312e-3
-1.661, 9.230e-3
-1.660, 9.166e-3
-1.659, 9.082e-3
-1.658, 8.993e-3
-1.657, 8.918e-3
-1.656, 8.838e-3
-1.655, 8.717e-3
-1.654, 8.586e-3
-1.653, 8.491e-3
-1.652, 8.387e-3
-1.651, 8.282e-3
-1.650, 8.205e-3
-1.649, 8.123e-3
-1.648, 8.019e-3
-1.647, 7.927e-3
-1.646, 7.840e-3
-1.645, 7.734e-3
-1.644, 7.640e-3
-1.643, 7.568e-3
-1.642, 7.479e-3
-1.641, 7.391e-3
-1.640, 7.326e-3
-1.639, 7.252e-3
-1.638, 7.151e-3
-1.637, 7.061e-3
-1.636, 6.990e-3
-1.635, 6.901e-3
-1.634, 6.815e-3
-1.633, 6.750e-3
-1.632, 6.665e-3
-1.631, 6.576e-3
-1.630, 6.509e-3
-1.629, 6.437e-3
-1.628, 6.336e-3
-1.627, 6.250e-3
-1.626, 6.171e-3
-1.625, 6.078e-3
-1.624, 6.000e-3
-1.623, 5.943e-3
-1.622, 5.866e-3
-1.621, 5.773e-3
-1.620, 5.704e-3
-1.619, 5.638e-3
-1.618, 5.549e-3
-1.617, 5.475e-3
-1.616, 5.412e-3
-1.615, 5.326e-3
-1.614, 5.248e-3
-1.613, 5.186e-3
-1.612, 5.110e-3
-1.611, 5.027e-3
-1.610, 4.963e-3
-1.609, 4.896e-3
-1.608, 4.811e-3
-1.607, 4.740e-3
-1.606, 4.681e-3
-1.605, 4.607e-3
-1.604, 4.541e-3
-1.603, 4.490e-3
-1.602, 4.422e-3
-1.601, 4.344e-3
-1.600, 4.283e-3
-1.599, 4.219e-3
-1.598, 4.145e-3
-1.597, 4.085e-3
-1.596, 4.035e-3
-1.595, 3.968e-3
-1.594, 3.907e-3
-1.593, 3.852e-3
-1.592, 3.786e-3
-1.591, 3.713e-3
-1.590, 3.653e-3
-1.589, 3.591e-3
-1.588, 3.519e-3
-1.587, 3.464e-3
-1.586, 3.419e-3
-1.585, 3.357e-3
-1.584, 3.301e-3
-1.583, 3.256e-3
-1.582, 3.195e-3
-1.581, 3.130e-3
-1.580, 3.083e-3
-1.579, 3.033e-3
-1.578, 2.968e-3
-1.577, 2.913e-3
-1.576, 2.865e-3
-1.575, 2.807e-3
-1.574, 2.755e-3
-1.573, 2.713e-3
-1.572, 2.659e-3
-1.571, 2.600e-3
-1.570, 2.555e-3
-1.569, 2.508e-3
-1.568, 2.457e-3
-1.567, 2.415e-3
-1.566, 2.376e-3
-1.565, 2.326e-3
-1.564, 2.281e-3
-1.563, 2.245e-3
-1.562, 2.198e-3
-1.561, 2.147e-3
-1.560, 2.108e-3
-1.559, 2.066e-3
-1.558, 2.014e-3
-1.557, 1.974e-3
-1.556, 1.936e-3
-1.555, 1.889e-3
-1.554, 1.849e-3
-1.553, 1.818e-3
-1.552, 1.777e-3
-1.551, 1.734e-3
-1.550, 1.702e-3
-1.549, 1.666e-3
-1.548, 1.623e-3
-1.547, 1.589e-3
-1.546, 1.558e-3
-1.545, 1.519e-3
-1.544, 1.485e-3
-1.543, 1.456e-3
-1.542, 1.419e-3
-1.541, 1.385e-3
-1.540, 1.360e-3
-1.539, 1.331e-3
-1.538, 1.295e-3
-1.537, 1.268e-3
-1.536, 1.241e-3
-1.535, 1.208e-3
-1.534, 1.180e-3
-1.533, 1.157e-3
-1.532, 1.127e-3
-1.531, 1.097e-3
-1.530, 1.076e-3
-1.529, 1.050e-3
-1.528, 1.021e-3
-1.527, 9.996e-4
-1.526, 9.772e-4
-1.525, 9.497e-4
-1.524, 9.256e-4
-1.523, 9.069e-4
-1.522, 8.818e-4
-1.521, 8.576e-4
-1.520, 8.410e-4
-1.519, 8.188e-4
-1.518, 7.936e-4
-1.517, 7.776e-4
-1.516, 7.592e-4
-1.515, 7.357e-4
-1.514, 7.184e-4
-1.513, 7.033e-4
-1.512, 6.824e-4
-1.511, 6.634e-4
-1.510, 6.502e-4
-1.509, 6.323e-4
-1.508, 6.127e-4
-1.507, 6.004e-4
-1.506, 5.858e-4
-1.505, 5.667e-4
-1.504, 5.529e-4
-1.503, 5.413e-4
-1.502, 5.239e-4
-1.501, 5.091e-4
-1.500, 4.995e-4
-1.499, 4.844e-4
-1.498, 4.687e-4
-1.497, 4.597e-4
-1.496, 4.476e-4
-1.495, 4.318e-4
-1.494, 4.212e-4
-1.493, 4.130e-4
-1.492, 3.982e-4
-1.491, 3.866e-4
-1.490, 3.801e-4
-1.489, 3.675e-4
-1.488, 3.548e-4
-1.487, 3.487e-4
-1.486, 3.391e-4
-1.485, 3.255e-4
-1.484, 3.183e-4
-1.483, 3.116e-4
-1.482, 2.993e-4
-1.481, 2.904e-4
-1.480, 2.861e-4
-1.479, 2.758e-4
-1.478, 2.654e-4
-1.477, 2.616e-4
-1.476, 2.537e-4
-1.475, 2.428e-4
-1.474, 2.383e-4
-1.473, 2.333e-4
-1.472, 2.230e-4
-1.471, 2.168e-4
-1.470, 2.140e-4
-1.469, 2.053e-4
-1.468, 1.970e-4
-1.467, 1.951e-4
-1.466, 1.887e-4
-1.465, 1.797e-4
-1.464, 1.770e-4
-1.463, 1.737e-4
-1.462, 1.641e-4
-1.461, 1.594e-4
-1.460, 1.585e-4
-1.459, 1.509e-4
-1.458, 1.443e-4
-1.457, 1.436e-4
-1.456, 1.385e-4
-1.455, 1.308e-4
-1.454, 1.295e-4
-1.453, 1.272e-4
-1.452, 1.192e-4
-1.451, 1.160e-4
-1.450, 1.160e-4
-1.449, 1.093e-4
-1.448, 1.038e-4
-1.447, 1.047e-4
-1.446, 9.998e-5
-1.445, 9.346e-5
-1.444, 9.298e-5
-1.443, 9.167e-5
-1.442, 8.442e-5
-1.441, 8.234e-5
-1.440, 8.294e-5
-1.439, 7.734e-5
-1.438, 7.250e-5
-1.437, 7.436e-5
-1.436, 7.053e-5
-1.435, 6.445e-5
-1.434, 6.506e-5
-1.433, 6.474e-5
-1.432, 5.794e-5
-1.431, 5.642e-5
-1.430, 5.804e-5
-1.429, 5.267e-5
-1.428, 4.877e-5
-1.427, 5.131e-5
-1.426, 4.816e-5
-1.425, 4.244e-5
-1.424, 4.405e-5
-1.423, 4.407e-5
-1.422, 3.762e-5
-1.421, 3.700e-5
-1.420, 3.902e-5
-1.419, 3.365e-5
-1.418, 3.039e-5
-1.417, 3.361e-5
-1.416, 3.083e-5
-1.415, 2.524e-5
-1.414, 2.716e-5
-1.413, 2.763e-5
-1.412, 2.114e-5
-1.411, 2.103e-5
-1.410, 2.408e-5
-1.409, 1.883e-5
-1.408, 1.583e-5
-1.407, 1.969e-5
-1.406, 1.656e-5
-1.405, 1.173e-5
-1.404, 1.448e-5
-1.403, 1.495e-5
-1.402, 9.203e-6
-1.401, 9.045e-6
-1.400, 1.263e-5
-1.399, 7.397e-6
-1.398, 4.655e-6
-1.397, 8.907e-6
-1.396, 6.569e-6
-1.395, 1.429e-6
-1.394, 4.536e-6
-1.393, 5.405e-6
-1.392, -7.617e-7
-1.391, 1.657e-7
-1.390, 3.520e-6
-1.389, -1.215e-6
-1.388, -3.899e-6
-1.387, 8.662e-7
-1.386, -1.729e-6
-1.385, -6.464e-6
-1.384, -3.139e-6
-1.383, -2.449e-6
-1.382, -8.082e-6
-1.381, -6.977e-6
-1.380, -3.445e-6
-1.379, -8.427e-6
-1.378, -1.078e-5
-1.377, -5.734e-6
-1.376, -8.132e-6
-1.375, -1.272e-5
-1.374, -9.611e-6
-1.373, -7.579e-6
-1.372, -1.367e-5
-1.371, -1.303e-5
-1.370, -8.714e-6
-1.369, -1.376e-5
-1.368, -1.588e-5
-1.367, -1.064e-5
-1.366, -1.315e-5
-1.365, -1.779e-5
-1.364, -1.396e-5
-1.363, -1.239e-5
-1.362, -1.848e-5
-1.361, -1.717e-5
-1.360, -1.303e-5
-1.359, -1.800e-5
-1.358, -2.043e-5
-1.357, -1.487e-5
-1.356, -1.699e-5
-1.355, -2.203e-5
-1.354, -1.787e-5
-1.353, -1.608e-5
-1.352, -2.221e-5
-1.351, -2.109e-5
-1.350, -1.676e-5
-1.349, -2.112e-5
-1.348, -2.347e-5
-1.347, -1.809e-5
-1.346, -2.019e-5
-1.345, -2.521e-5
-1.344, -2.107e-5
-1.343, -1.904e-5
-1.342, -2.529e-5
-1.341, -2.392e-5
-1.340, -1.897e-5
-1.339, -2.430e-5
-1.338, -2.666e-5
-1.337, -2.077e-5
-1.336, -2.273e-5
-1.335, -2.777e-5
-1.334, -2.359e-5
-1.333, -2.155e-5
-1.332, -2.784e-5
-1.331, -2.676e-5
-1.330, -2.186e-5
-1.329, -2.682e-5
-1.328, -2.899e-5
-1.327, -2.282e-5
-1.326, -2.520e-5
-1.325, -3.016e-5
-1.324, -2.541e-5
-1.323, -2.360e-5
-1.322, -2.955e-5
-1.321, -2.880e-5
-1.320, -2.326e-5
-1.319, -2.894e-5
-1.318, -3.094e-5
-1.317, -2.466e-5
-1.316, -2.678e-5
-1.315, -3.208e-5
-1.314, -2.710e-5
-1.313, -2.527e-5
-1.312, -3.169e-5
-1.311, -2.999e-5
-1.310, -2.535e-5
-1.309, -3.035e-5
-1.308, -3.249e-5
-1.307, -2.639e-5
-1.306, -2.810e-5
-1.305, -3.377e-5
-1.304, -2.853e-5
-1.303, -2.676e-5
-1.302, -3.343e-5
-1.301, -3.149e-5
-1.300, -2.663e-5
-1.299, -3.153e-5
-1.298, -3.377e-5
-1.297, -2.744e-5
-1.296, -2.944e-5
-1.295, -3.482e-5
-1.294, -2.998e-5
-1.293, -2.789e-5
-1.292, -3.428e-5
-1.291, -3.263e-5
-1.290, -2.742e-5
-1.289, -3.267e-5
-1.288, -3.471e-5
-1.287, -2.815e-5
-1.286, -3.075e-5
-1.285, -3.516e-5
-1.284, -3.061e-5
-1.283, -2.856e-5
-1.282, -3.494e-5
-1.281, -3.307e-5
-1.280, -2.845e-5
-1.279, -3.344e-5
-1.278, -3.561e-5
-1.277, -2.872e-5
-1.276, -3.107e-5
-1.275, -3.601e-5
-1.274, -3.105e-5
-1.273, -2.923e-5
-1.272, -3.529e-5
-1.271, -3.374e-5
-1.270, -2.881e-5
-1.269, -3.380e-5
-1.268, -3.559e-5
-1.267, -2.948e-5
-1.266, -3.150e-5
-1.265, -3.638e-5
-1.264, -3.115e-5
-1.263, -2.927e-5
-1.262, -3.561e-5
-1.261, -3.372e-5
-1.260, -2.885e-5
-1.259, -3.397e-5
-1.258, -3.572e-5
-1.257, -2.942e-5
-1.256, -3.148e-5
-1.255, -3.639e-5
-1.254, -3.143e-5
-1.253, -2.948e-5
-1.252, -3.550e-5
-1.251, -3.368e-5
-1.250, -2.879e-5
-1.249, -3.414e-5
-1.248, -3.530e-5
-1.247, -2.932e-5
-1.246, -3.163e-5
-1.245, -3.617e-5
-1.244, -3.111e-5
-1.243, -2.951e-5
-1.242, -3.526e-5
-1.241, -3.345e-5
-1.240, -2.848e-5
-1.239, -3.359e-5
-1.238, -3.567e-5
-1.237, -2.904e-5
-1.236, -3.152e-5
-1.235, -3.583e-5
-1.234, -3.099e-5
-1.233, -2.911e-5
-1.232, -3.485e-5
-1.231, -3.279e-5
-1.230, -2.827e-5
-1.229, -3.389e-5
-1.228, -3.503e-5
-1.227, -2.896e-5
-1.226, -3.093e-5
-1.225, -3.547e-5
-1.224, -3.041e-5
-1.223, -2.903e-5
-1.222, -3.481e-5
-1.221, -3.242e-5
-1.220, -2.770e-5
-1.219, -3.300e-5
-1.218, -3.391e-5
-1.217, -2.811e-5
-1.216, -3.058e-5
-1.215, -3.494e-5
-1.214, -3.004e-5
-1.213, -2.830e-5
-1.212, -3.432e-5
-1.211, -3.216e-5
-1.210, -2.738e-5
-1.209, -3.253e-5
-1.208, -3.354e-5
-1.207, -2.781e-5
-1.206, -3.053e-5
-1.205, -3.437e-5
-1.204, -2.935e-5
-1.203, -2.845e-5
-1.202, -3.345e-5
-1.201, -3.177e-5
-1.200, -2.702e-5
-1.199, -3.224e-5
-1.198, -3.332e-5
-1.197, -2.745e-5
-1.196, -3.027e-5
-1.195, -3.404e-5
-1.194, -2.884e-5
-1.193, -2.804e-5
-1.192, -3.311e-5
-1.191, -3.118e-5
-1.190, -2.706e-5
-1.189, -3.193e-5
-1.188, -3.249e-5
-1.187, -2.734e-5
-1.186, -2.956e-5
-1.185, -3.387e-5
-1.184, -2.861e-5
-1.183, -2.770e-5
-1.182, -3.319e-5
-1.181, -3.055e-5
-1.180, -2.635e-5
-1.179, -3.146e-5
-1.178, -3.256e-5
-1.177, -2.711e-5
-1.176, -2.953e-5
-1.175, -3.316e-5
-1.174, -2.833e-5
-1.173, -2.754e-5
-1.172, -3.271e-5
-1.171, -3.063e-5
-1.170, -2.628e-5
-1.169, -3.171e-5
-1.168, -3.198e-5
-1.167, -2.670e-5
-1.166, -2.978e-5
-1.165, -3.299e-5
-1.164, -2.811e-5
-1.163, -2.762e-5
-1.162, -3.281e-5
-1.161, -3.082e-5
-1.160, -2.656e-5
-1.159, -3.149e-5
-1.158, -3.244e-5
-1.157, -2.694e-5
-1.156, -2.958e-5
-1.155, -3.370e-5
-1.154, -2.822e-5
-1.153, -2.827e-5
-1.152, -3.299e-5
-1.151, -3.083e-5
-1.150, -2.707e-5
-1.149, -3.190e-5
-1.148, -3.242e-5
-1.147, -2.761e-5
-1.146, -3.020e-5
-1.145, -3.389e-5
-1.144, -2.901e-5
-1.143, -2.843e-5
-1.142, -3.374e-5
-1.141, -3.139e-5
-1.140, -2.724e-5
-1.139, -3.292e-5
-1.138, -3.331e-5
-1.137, -2.820e-5
-1.136, -3.081e-5
-1.135, -3.432e-5
-1.134, -2.973e-5
-1.133, -2.932e-5
-1.132, -3.449e-5
-1.131, -3.216e-5
-1.130, -2.815e-5
-1.129, -3.382e-5
-1.128, -3.426e-5
-1.127, -2.905e-5
-1.126, -3.191e-5
-1.125, -3.566e-5
-1.124, -3.045e-5
-1.123, -3.072e-5
-1.122, -3.565e-5
-1.121, -3.364e-5
-1.120, -2.940e-5
-1.119, -3.464e-5
-1.118, -3.568e-5
-1.117, -3.029e-5
-1.116, -3.310e-5
-1.115, -3.706e-5
-1.114, -3.207e-5
-1.113, -3.202e-5
-1.112, -3.752e-5
-1.111, -3.501e-5
-1.110, -3.131e-5
-1.109, -3.660e-5
-1.108, -3.717e-5
-1.107, -3.229e-5
-1.106, -3.494e-5
-1.105, -3.950e-5
-1.104, -3.384e-5
-1.103, -3.371e-5
-1.102, -3.970e-5
-1.101, -3.718e-5
-1.100, -3.308e-5
-1.099, -3.860e-5
-1.098, -3.972e-5
-1.097, -3.410e-5
-1.096, -3.756e-5
-1.095, -4.141e-5
-1.094, -3.635e-5
-1.093, -3.598e-5
-1.092, -4.171e-5
-1.091, -3.987e-5
-1.090, -3.559e-5
-1.089, -4.150e-5
-1.088, -4.244e-5
-1.087, -3.686e-5
-1.086, -4.005e-5
-1.085, -4.472e-5
-1.084, -3.915e-5
-1.083, -3.922e-5
-1.082, -4.511e-5
-1.081, -4.297e-5
-1.080, -3.830e-5
-1.079, -4.478e-5
-1.078, -4.570e-5
-1.077, -3.985e-5
-1.076, -4.324e-5
-1.075, -4.864e-5
-1.074, -4.260e-5
-1.073, -4.264e-5
-1.072, -4.860e-5
-1.071, -4.677e-5
-1.070, -4.230e-5
-1.069, -4.831e-5
-1.068, -4.987e-5
-1.067, -4.394e-5
-1.066, -4.708e-5
-1.065, -5.251e-5
-1.064, -4.655e-5
-1.063, -4.640e-5
-1.062, -5.308e-5
-1.061, -5.091e-5
-1.060, -4.618e-5
-1.059, -5.320e-5
-1.058, -5.444e-5
-1.057, -4.841e-5
-1.056, -5.160e-5
-1.055, -5.706e-5
-1.054, -5.177e-5
-1.053, -5.106e-5
-1.052, -5.821e-5
-1.051, -5.616e-5
-1.050, -5.115e-5
-1.049, -5.864e-5
-1.048, -6.007e-5
-1.047, -5.369e-5
-1.046, -5.714e-5
-1.045, -6.274e-5
-1.044, -5.670e-5
-1.043, -5.661e-5
-1.042, -6.397e-5
-1.041, -6.216e-5
-1.040, -5.674e-5
-1.039, -6.395e-5
-1.038, -6.619e-5
-1.037, -5.975e-5
-1.036, -6.308e-5
-1.035, -6.955e-5
-1.034, -6.345e-5
-1.033, -6.320e-5
-1.032, -7.049e-5
-1.031, -6.877e-5
-1.030, -6.349e-5
-1.029, -7.081e-5
-1.028, -7.291e-5
-1.027, -6.676e-5
-1.026, -7.006e-5
-1.025, -7.722e-5
-1.024, -7.105e-5
-1.023, -7.025e-5
-1.022, -7.872e-5
-1.021, -7.649e-5
-1.020, -7.091e-5
-1.019, -7.897e-5
-1.018, -8.119e-5
-1.017, -7.434e-5
-1.016, -7.796e-5
-1.015, -8.484e-5
-1.014, -7.894e-5
-1.013, -7.816e-5
-1.012, -8.640e-5
-1.011, -8.498e-5
-1.010, -7.938e-5
-1.009, -8.755e-5
-1.008, -8.985e-5
-1.007, -8.263e-5
-1.006, -8.693e-5
-1.005, -9.364e-5
-1.004, -8.767e-5
-1.003, -8.703e-5
-1.002, -9.581e-5
-1.001, -9.437e-5
