Dec. 29, 2024   05:09:52
Cyclic Voltammetry
File: c:/users/guazh/data/banditlqround7_x0exp136_r20/2024-12-24-exp774\exp774-2024-12-29t05_01_14-arkoh\exp774_cv_50mvs_efin_-1500mv.bin
Data Source:  Experiment
Instrument Model:  CHI760E
Header: CV ran at 50 mVs
Note: 

Init E (V) = -1
High E (V) = -1
Low E (V) = -1.5
Final E (V) = -1
Init P/N = N
Scan Rate (V/s) = 0.05
Segment = 7
Sample Interval (V) = 0.001
Quiet Time (sec) = 60
Sensitivity (A/V) = 0.001
Comp R (ohm) = 1.4

Results:

Channel 1:
Segment 1:

Segment 2:

Segment 3:

Segment 4:

Segment 5:

Segment 6:

Segment 7:

Potential/V, Current/A

-1.000, 1.936e-6
-1.001, 3.119e-6
-1.002, 4.152e-6
-1.003, 4.153e-6
-1.004, 3.735e-6
-1.005, 3.545e-6
-1.006, 3.978e-6
-1.007, 4.766e-6
-1.008, 4.751e-6
-1.009, 4.218e-6
-1.010, 4.025e-6
-1.011, 4.409e-6
-1.012, 5.159e-6
-1.013, 5.142e-6
-1.014, 4.566e-6
-1.015, 4.325e-6
-1.016, 4.648e-6
-1.017, 5.388e-6
-1.018, 5.452e-6
-1.019, 4.758e-6
-1.020, 4.473e-6
-1.021, 4.884e-6
-1.022, 5.603e-6
-1.023, 5.635e-6
-1.024, 5.025e-6
-1.025, 4.629e-6
-1.026, 5.159e-6
-1.027, 5.813e-6
-1.028, 5.723e-6
-1.029, 5.157e-6
-1.030, 4.844e-6
-1.031, 5.285e-6
-1.032, 5.905e-6
-1.033, 5.823e-6
-1.034, 5.223e-6
-1.035, 4.952e-6
-1.036, 5.281e-6
-1.037, 6.084e-6
-1.038, 6.045e-6
-1.039, 5.468e-6
-1.040, 5.037e-6
-1.041, 5.401e-6
-1.042, 6.165e-6
-1.043, 6.067e-6
-1.044, 5.521e-6
-1.045, 5.110e-6
-1.046, 5.583e-6
-1.047, 6.337e-6
-1.048, 6.205e-6
-1.049, 5.547e-6
-1.050, 5.235e-6
-1.051, 5.636e-6
-1.052, 6.324e-6
-1.053, 6.272e-6
-1.054, 5.639e-6
-1.055, 5.254e-6
-1.056, 5.773e-6
-1.057, 6.454e-6
-1.058, 6.467e-6
-1.059, 5.774e-6
-1.060, 5.329e-6
-1.061, 5.818e-6
-1.062, 6.571e-6
-1.063, 6.569e-6
-1.064, 5.751e-6
-1.065, 5.452e-6
-1.066, 5.865e-6
-1.067, 6.639e-6
-1.068, 6.528e-6
-1.069, 5.939e-6
-1.070, 5.489e-6
-1.071, 6.046e-6
-1.072, 6.701e-6
-1.073, 6.611e-6
-1.074, 5.997e-6
-1.075, 5.684e-6
-1.076, 6.046e-6
-1.077, 6.750e-6
-1.078, 6.656e-6
-1.079, 5.987e-6
-1.080, 5.610e-6
-1.081, 6.043e-6
-1.082, 6.845e-6
-1.083, 6.675e-6
-1.084, 6.041e-6
-1.085, 5.614e-6
-1.086, 6.141e-6
-1.087, 6.870e-6
-1.088, 6.760e-6
-1.089, 6.064e-6
-1.090, 5.704e-6
-1.091, 6.178e-6
-1.092, 6.846e-6
-1.093, 6.811e-6
-1.094, 6.074e-6
-1.095, 5.680e-6
-1.096, 6.123e-6
-1.097, 6.939e-6
-1.098, 6.783e-6
-1.099, 6.135e-6
-1.100, 5.704e-6
-1.101, 6.159e-6
-1.102, 6.891e-6
-1.103, 6.780e-6
-1.104, 6.050e-6
-1.105, 5.646e-6
-1.106, 6.280e-6
-1.107, 6.841e-6
-1.108, 6.820e-6
-1.109, 6.160e-6
-1.110, 5.705e-6
-1.111, 6.195e-6
-1.112, 6.940e-6
-1.113, 6.720e-6
-1.114, 6.128e-6
-1.115, 5.633e-6
-1.116, 6.197e-6
-1.117, 6.919e-6
-1.118, 6.709e-6
-1.119, 6.097e-6
-1.120, 5.620e-6
-1.121, 6.142e-6
-1.122, 6.882e-6
-1.123, 6.733e-6
-1.124, 5.993e-6
-1.125, 5.627e-6
-1.126, 6.106e-6
-1.127, 6.892e-6
-1.128, 6.651e-6
-1.129, 6.020e-6
-1.130, 5.632e-6
-1.131, 6.160e-6
-1.132, 6.777e-6
-1.133, 6.646e-6
-1.134, 6.059e-6
-1.135, 5.598e-6
-1.136, 6.117e-6
-1.137, 6.822e-6
-1.138, 6.663e-6
-1.139, 5.973e-6
-1.140, 5.663e-6
-1.141, 6.075e-6
-1.142, 6.809e-6
-1.143, 6.637e-6
-1.144, 5.966e-6
-1.145, 5.533e-6
-1.146, 6.171e-6
-1.147, 6.764e-6
-1.148, 6.551e-6
-1.149, 6.015e-6
-1.150, 5.531e-6
-1.151, 6.108e-6
-1.152, 6.749e-6
-1.153, 6.508e-6
-1.154, 6.030e-6
-1.155, 5.507e-6
-1.156, 6.031e-6
-1.157, 6.795e-6
-1.158, 6.536e-6
-1.159, 6.009e-6
-1.160, 5.590e-6
-1.161, 6.028e-6
-1.162, 6.792e-6
-1.163, 6.516e-6
-1.164, 5.949e-6
-1.165, 5.581e-6
-1.166, 6.070e-6
-1.167, 6.832e-6
-1.168, 6.546e-6
-1.169, 6.036e-6
-1.170, 5.584e-6
-1.171, 6.049e-6
-1.172, 6.776e-6
-1.173, 6.537e-6
-1.174, 5.968e-6
-1.175, 5.633e-6
-1.176, 6.113e-6
-1.177, 6.743e-6
-1.178, 6.560e-6
-1.179, 6.001e-6
-1.180, 5.554e-6
-1.181, 6.170e-6
-1.182, 6.765e-6
-1.183, 6.561e-6
-1.184, 5.990e-6
-1.185, 5.580e-6
-1.186, 6.163e-6
-1.187, 6.789e-6
-1.188, 6.531e-6
-1.189, 6.049e-6
-1.190, 5.693e-6
-1.191, 6.138e-6
-1.192, 6.730e-6
-1.193, 6.568e-6
-1.194, 6.044e-6
-1.195, 5.616e-6
-1.196, 6.143e-6
-1.197, 6.772e-6
-1.198, 6.591e-6
-1.199, 6.153e-6
-1.200, 5.685e-6
-1.201, 6.122e-6
-1.202, 6.884e-6
-1.203, 6.573e-6
-1.204, 6.057e-6
-1.205, 5.704e-6
-1.206, 6.208e-6
-1.207, 6.890e-6
-1.208, 6.638e-6
-1.209, 6.082e-6
-1.210, 5.707e-6
-1.211, 6.248e-6
-1.212, 6.837e-6
-1.213, 6.648e-6
-1.214, 6.174e-6
-1.215, 5.802e-6
-1.216, 6.178e-6
-1.217, 6.912e-6
-1.218, 6.689e-6
-1.219, 6.221e-6
-1.220, 5.837e-6
-1.221, 6.307e-6
-1.222, 7.011e-6
-1.223, 6.774e-6
-1.224, 6.161e-6
-1.225, 5.902e-6
-1.226, 6.446e-6
-1.227, 7.055e-6
-1.228, 6.879e-6
-1.229, 6.385e-6
-1.230, 5.976e-6
-1.231, 6.559e-6
-1.232, 7.151e-6
-1.233, 6.966e-6
-1.234, 6.444e-6
-1.235, 6.062e-6
-1.236, 6.586e-6
-1.237, 7.319e-6
-1.238, 7.041e-6
-1.239, 6.573e-6
-1.240, 6.240e-6
-1.241, 6.764e-6
-1.242, 7.416e-6
-1.243, 7.214e-6
-1.244, 6.669e-6
-1.245, 6.397e-6
-1.246, 6.871e-6
-1.247, 7.575e-6
-1.248, 7.269e-6
-1.249, 6.872e-6
-1.250, 6.546e-6
-1.251, 7.019e-6
-1.252, 7.729e-6
-1.253, 7.514e-6
-1.254, 7.003e-6
-1.255, 6.787e-6
-1.256, 7.274e-6
-1.257, 7.888e-6
-1.258, 7.854e-6
-1.259, 7.229e-6
-1.260, 6.946e-6
-1.261, 7.547e-6
-1.262, 8.207e-6
-1.263, 8.092e-6
-1.264, 7.527e-6
-1.265, 7.312e-6
-1.266, 7.934e-6
-1.267, 8.498e-6
-1.268, 8.441e-6
-1.269, 7.912e-6
-1.270, 7.657e-6
-1.271, 8.203e-6
-1.272, 8.868e-6
-1.273, 8.734e-6
-1.274, 8.309e-6
-1.275, 8.038e-6
-1.276, 8.600e-6
-1.277, 9.396e-6
-1.278, 9.183e-6
-1.279, 8.719e-6
-1.280, 8.630e-6
-1.281, 9.148e-6
-1.282, 9.862e-6
-1.283, 9.737e-6
-1.284, 9.259e-6
-1.285, 9.109e-6
-1.286, 9.747e-6
-1.287, 1.048e-5
-1.288, 1.036e-5
-1.289, 9.890e-6
-1.290, 9.837e-6
-1.291, 1.041e-5
-1.292, 1.113e-5
-1.293, 1.113e-5
-1.294, 1.066e-5
-1.295, 1.061e-5
-1.296, 1.120e-5
-1.297, 1.194e-5
-1.298, 1.199e-5
-1.299, 1.148e-5
-1.300, 1.143e-5
-1.301, 1.219e-5
-1.302, 1.286e-5
-1.303, 1.297e-5
-1.304, 1.249e-5
-1.305, 1.243e-5
-1.306, 1.325e-5
-1.307, 1.398e-5
-1.308, 1.405e-5
-1.309, 1.367e-5
-1.310, 1.367e-5
-1.311, 1.442e-5
-1.312, 1.520e-5
-1.313, 1.535e-5
-1.314, 1.507e-5
-1.315, 1.499e-5
-1.316, 1.585e-5
-1.317, 1.666e-5
-1.318, 1.680e-5
-1.319, 1.652e-5
-1.320, 1.659e-5
-1.321, 1.744e-5
-1.322, 1.837e-5
-1.323, 1.849e-5
-1.324, 1.816e-5
-1.325, 1.840e-5
-1.326, 1.935e-5
-1.327, 2.019e-5
-1.328, 2.043e-5
-1.329, 2.017e-5
-1.330, 2.047e-5
-1.331, 2.129e-5
-1.332, 2.233e-5
-1.333, 2.266e-5
-1.334, 2.246e-5
-1.335, 2.274e-5
-1.336, 2.363e-5
-1.337, 2.470e-5
-1.338, 2.506e-5
-1.339, 2.497e-5
-1.340, 2.534e-5
-1.341, 2.644e-5
-1.342, 2.738e-5
-1.343, 2.794e-5
-1.344, 2.779e-5
-1.345, 2.822e-5
-1.346, 2.938e-5
-1.347, 3.045e-5
-1.348, 3.100e-5
-1.349, 3.109e-5
-1.350, 3.155e-5
-1.351, 3.272e-5
-1.352, 3.393e-5
-1.353, 3.447e-5
-1.354, 3.475e-5
-1.355, 3.530e-5
-1.356, 3.663e-5
-1.357, 3.789e-5
-1.358, 3.862e-5
-1.359, 3.893e-5
-1.360, 3.955e-5
-1.361, 4.096e-5
-1.362, 4.233e-5
-1.363, 4.318e-5
-1.364, 4.357e-5
-1.365, 4.434e-5
-1.366, 4.590e-5
-1.367, 4.742e-5
-1.368, 4.839e-5
-1.369, 4.887e-5
-1.370, 4.989e-5
-1.371, 5.150e-5
-1.372, 5.316e-5
-1.373, 5.429e-5
-1.374, 5.501e-5
-1.375, 5.617e-5
-1.376, 5.793e-5
-1.377, 5.977e-5
-1.378, 6.108e-5
-1.379, 6.189e-5
-1.380, 6.326e-5
-1.381, 6.528e-5
-1.382, 6.727e-5
-1.383, 6.875e-5
-1.384, 6.986e-5
-1.385, 7.136e-5
-1.386, 7.358e-5
-1.387, 7.583e-5
-1.388, 7.754e-5
-1.389, 7.885e-5
-1.390, 8.061e-5
-1.391, 8.302e-5
-1.392, 8.543e-5
-1.393, 8.757e-5
-1.394, 8.910e-5
-1.395, 9.103e-5
-1.396, 9.379e-5
-1.397, 9.659e-5
-1.398, 9.879e-5
-1.399, 1.007e-4
-1.400, 1.030e-4
-1.401, 1.060e-4
-1.402, 1.090e-4
-1.403, 1.116e-4
-1.404, 1.137e-4
-1.405, 1.163e-4
-1.406, 1.196e-4
-1.407, 1.230e-4
-1.408, 1.259e-4
-1.409, 1.284e-4
-1.410, 1.313e-4
-1.411, 1.349e-4
-1.412, 1.386e-4
-1.413, 1.419e-4
-1.414, 1.446e-4
-1.415, 1.480e-4
-1.416, 1.518e-4
-1.417, 1.560e-4
-1.418, 1.596e-4
-1.419, 1.627e-4
-1.420, 1.664e-4
-1.421, 1.706e-4
-1.422, 1.752e-4
-1.423, 1.791e-4
-1.424, 1.827e-4
-1.425, 1.867e-4
-1.426, 1.913e-4
-1.427, 1.962e-4
-1.428, 2.006e-4
-1.429, 2.044e-4
-1.430, 2.088e-4
-1.431, 2.138e-4
-1.432, 2.190e-4
-1.433, 2.237e-4
-1.434, 2.282e-4
-1.435, 2.329e-4
-1.436, 2.383e-4
-1.437, 2.439e-4
-1.438, 2.490e-4
-1.439, 2.538e-4
-1.440, 2.589e-4
-1.441, 2.648e-4
-1.442, 2.709e-4
-1.443, 2.763e-4
-1.444, 2.814e-4
-1.445, 2.870e-4
-1.446, 2.933e-4
-1.447, 2.997e-4
-1.448, 3.056e-4
-1.449, 3.111e-4
-1.450, 3.170e-4
-1.451, 3.238e-4
-1.452, 3.306e-4
-1.453, 3.370e-4
-1.454, 3.430e-4
-1.455, 3.493e-4
-1.456, 3.564e-4
-1.457, 3.636e-4
-1.458, 3.705e-4
-1.459, 3.770e-4
-1.460, 3.837e-4
-1.461, 3.912e-4
-1.462, 3.990e-4
-1.463, 4.063e-4
-1.464, 4.131e-4
-1.465, 4.203e-4
-1.466, 4.283e-4
-1.467, 4.365e-4
-1.468, 4.442e-4
-1.469, 4.516e-4
-1.470, 4.592e-4
-1.471, 4.676e-4
-1.472, 4.763e-4
-1.473, 4.845e-4
-1.474, 4.923e-4
-1.475, 5.004e-4
-1.476, 5.094e-4
-1.477, 5.186e-4
-1.478, 5.273e-4
-1.479, 5.358e-4
-1.480, 5.445e-4
-1.481, 5.540e-4
-1.482, 5.636e-4
-1.483, 5.729e-4
-1.484, 5.818e-4
-1.485, 5.910e-4
-1.486, 6.010e-4
-1.487, 6.110e-4
-1.488, 6.207e-4
-1.489, 6.301e-4
-1.490, 6.399e-4
-1.491, 6.505e-4
-1.492, 6.613e-4
-1.493, 6.718e-4
-1.494, 6.819e-4
-1.495, 6.922e-4
-1.496, 7.034e-4
-1.497, 7.148e-4
-1.498, 7.258e-4
-1.499, 7.363e-4
-1.500, 7.314e-4
-1.499, 7.153e-4
-1.498, 7.007e-4
-1.497, 6.860e-4
-1.496, 6.712e-4
-1.495, 6.568e-4
-1.494, 6.436e-4
-1.493, 6.311e-4
-1.492, 6.184e-4
-1.491, 6.054e-4
-1.490, 5.929e-4
-1.489, 5.815e-4
-1.488, 5.705e-4
-1.487, 5.592e-4
-1.486, 5.477e-4
-1.485, 5.364e-4
-1.484, 5.261e-4
-1.483, 5.164e-4
-1.482, 5.063e-4
-1.481, 4.957e-4
-1.480, 4.859e-4
-1.479, 4.768e-4
-1.478, 4.680e-4
-1.477, 4.589e-4
-1.476, 4.496e-4
-1.475, 4.405e-4
-1.474, 4.325e-4
-1.473, 4.245e-4
-1.472, 4.163e-4
-1.471, 4.077e-4
-1.470, 3.995e-4
-1.469, 3.923e-4
-1.468, 3.852e-4
-1.467, 3.777e-4
-1.466, 3.698e-4
-1.465, 3.623e-4
-1.464, 3.558e-4
-1.463, 3.495e-4
-1.462, 3.426e-4
-1.461, 3.355e-4
-1.460, 3.286e-4
-1.459, 3.227e-4
-1.458, 3.169e-4
-1.457, 3.106e-4
-1.456, 3.041e-4
-1.455, 2.979e-4
-1.454, 2.925e-4
-1.453, 2.872e-4
-1.452, 2.815e-4
-1.451, 2.754e-4
-1.450, 2.697e-4
-1.449, 2.649e-4
-1.448, 2.601e-4
-1.447, 2.548e-4
-1.446, 2.492e-4
-1.445, 2.440e-4
-1.444, 2.398e-4
-1.443, 2.352e-4
-1.442, 2.304e-4
-1.441, 2.251e-4
-1.440, 2.204e-4
-1.439, 2.164e-4
-1.438, 2.124e-4
-1.437, 2.079e-4
-1.436, 2.031e-4
-1.435, 1.988e-4
-1.434, 1.952e-4
-1.433, 1.915e-4
-1.432, 1.873e-4
-1.431, 1.829e-4
-1.430, 1.789e-4
-1.429, 1.757e-4
-1.428, 1.723e-4
-1.427, 1.685e-4
-1.426, 1.644e-4
-1.425, 1.607e-4
-1.424, 1.578e-4
-1.423, 1.548e-4
-1.422, 1.512e-4
-1.421, 1.474e-4
-1.420, 1.441e-4
-1.419, 1.415e-4
-1.418, 1.387e-4
-1.417, 1.354e-4
-1.416, 1.319e-4
-1.415, 1.289e-4
-1.414, 1.265e-4
-1.413, 1.240e-4
-1.412, 1.209e-4
-1.411, 1.176e-4
-1.410, 1.149e-4
-1.409, 1.128e-4
-1.408, 1.106e-4
-1.407, 1.078e-4
-1.406, 1.047e-4
-1.405, 1.022e-4
-1.404, 1.003e-4
-1.403, 9.826e-5
-1.402, 9.568e-5
-1.401, 9.296e-5
-1.400, 9.065e-5
-1.399, 8.906e-5
-1.398, 8.720e-5
-1.397, 8.475e-5
-1.396, 8.223e-5
-1.395, 8.019e-5
-1.394, 7.867e-5
-1.393, 7.702e-5
-1.392, 7.494e-5
-1.391, 7.248e-5
-1.390, 7.059e-5
-1.389, 6.936e-5
-1.388, 6.788e-5
-1.387, 6.591e-5
-1.386, 6.366e-5
-1.385, 6.200e-5
-1.384, 6.091e-5
-1.383, 5.962e-5
-1.382, 5.774e-5
-1.381, 5.567e-5
-1.380, 5.424e-5
-1.379, 5.326e-5
-1.378, 5.218e-5
-1.377, 5.037e-5
-1.376, 4.858e-5
-1.375, 4.718e-5
-1.374, 4.646e-5
-1.373, 4.543e-5
-1.372, 4.390e-5
-1.371, 4.211e-5
-1.370, 4.099e-5
-1.369, 4.029e-5
-1.368, 3.943e-5
-1.367, 3.799e-5
-1.366, 3.638e-5
-1.365, 3.536e-5
-1.364, 3.481e-5
-1.363, 3.408e-5
-1.362, 3.277e-5
-1.361, 3.128e-5
-1.360, 3.035e-5
-1.359, 2.996e-5
-1.358, 2.933e-5
-1.357, 2.810e-5
-1.356, 2.669e-5
-1.355, 2.590e-5
-1.354, 2.560e-5
-1.353, 2.513e-5
-1.352, 2.396e-5
-1.351, 2.263e-5
-1.350, 2.197e-5
-1.349, 2.175e-5
-1.348, 2.139e-5
-1.347, 2.032e-5
-1.346, 1.904e-5
-1.345, 1.847e-5
-1.344, 1.835e-5
-1.343, 1.804e-5
-1.342, 1.703e-5
-1.341, 1.596e-5
-1.340, 1.544e-5
-1.339, 1.534e-5
-1.338, 1.515e-5
-1.337, 1.418e-5
-1.336, 1.314e-5
-1.335, 1.277e-5
-1.334, 1.261e-5
-1.333, 1.260e-5
-1.332, 1.176e-5
-1.331, 1.068e-5
-1.330, 1.038e-5
-1.329, 1.042e-5
-1.328, 1.034e-5
-1.327, 9.508e-6
-1.326, 8.547e-6
-1.325, 8.339e-6
-1.324, 8.413e-6
-1.323, 8.312e-6
-1.322, 7.640e-6
-1.321, 6.712e-6
-1.320, 6.447e-6
-1.319, 6.621e-6
-1.318, 6.586e-6
-1.317, 5.984e-6
-1.316, 5.048e-6
-1.315, 4.873e-6
-1.314, 5.041e-6
-1.313, 5.129e-6
-1.312, 4.408e-6
-1.311, 3.682e-6
-1.310, 3.459e-6
-1.309, 3.700e-6
-1.308, 3.821e-6
-1.307, 3.187e-6
-1.306, 2.444e-6
-1.305, 2.227e-6
-1.304, 2.577e-6
-1.303, 2.716e-6
-1.302, 2.058e-6
-1.301, 1.239e-6
-1.300, 1.306e-6
-1.299, 1.552e-6
-1.298, 1.672e-6
-1.297, 1.076e-6
-1.296, 4.013e-7
-1.295, 3.994e-7
-1.294, 5.543e-7
-1.293, 8.118e-7
-1.292, 2.267e-7
-1.291, -4.797e-7
-1.290, -4.106e-7
-1.289, -1.225e-7
-1.288, 7.873e-8
-1.287, -4.511e-7
-1.286, -1.196e-6
-1.285, -1.055e-6
-1.284, -8.546e-7
-1.283, -5.793e-7
-1.282, -1.095e-6
-1.281, -1.807e-6
-1.280, -1.680e-6
-1.279, -1.346e-6
-1.278, -1.129e-6
-1.277, -1.615e-6
-1.276, -2.327e-6
-1.275, -2.201e-6
-1.274, -1.890e-6
-1.273, -1.587e-6
-1.272, -2.068e-6
-1.271, -2.722e-6
-1.270, -2.582e-6
-1.269, -2.221e-6
-1.268, -1.996e-6
-1.267, -2.560e-6
-1.266, -3.143e-6
-1.265, -3.057e-6
-1.264, -2.592e-6
-1.263, -2.360e-6
-1.262, -2.949e-6
-1.261, -3.453e-6
-1.260, -3.365e-6
-1.259, -2.951e-6
-1.258, -2.650e-6
-1.257, -3.202e-6
-1.256, -3.706e-6
-1.255, -3.575e-6
-1.254, -3.247e-6
-1.253, -2.905e-6
-1.252, -3.343e-6
-1.251, -3.988e-6
-1.250, -3.806e-6
-1.249, -3.425e-6
-1.248, -3.141e-6
-1.247, -3.601e-6
-1.246, -4.144e-6
-1.245, -3.952e-6
-1.244, -3.576e-6
-1.243, -3.296e-6
-1.242, -3.754e-6
-1.241, -4.369e-6
-1.240, -4.134e-6
-1.239, -3.720e-6
-1.238, -3.448e-6
-1.237, -3.850e-6
-1.236, -4.463e-6
-1.235, -4.218e-6
-1.234, -3.784e-6
-1.233, -3.606e-6
-1.232, -3.946e-6
-1.231, -4.565e-6
-1.230, -4.405e-6
-1.229, -3.975e-6
-1.228, -3.644e-6
-1.227, -4.150e-6
-1.226, -4.615e-6
-1.225, -4.461e-6
-1.224, -4.071e-6
-1.223, -3.712e-6
-1.222, -4.233e-6
-1.221, -4.670e-6
-1.220, -4.507e-6
-1.219, -4.148e-6
-1.218, -3.758e-6
-1.217, -4.243e-6
-1.216, -4.787e-6
-1.215, -4.618e-6
-1.214, -4.173e-6
-1.213, -3.882e-6
-1.212, -4.254e-6
-1.211, -4.780e-6
-1.210, -4.663e-6
-1.209, -4.186e-6
-1.208, -3.892e-6
-1.207, -4.283e-6
-1.206, -4.928e-6
-1.205, -4.691e-6
-1.204, -4.212e-6
-1.203, -4.016e-6
-1.202, -4.375e-6
-1.201, -4.962e-6
-1.200, -4.696e-6
-1.199, -4.230e-6
-1.198, -4.024e-6
-1.197, -4.447e-6
-1.196, -4.919e-6
-1.195, -4.796e-6
-1.194, -4.239e-6
-1.193, -4.036e-6
-1.192, -4.548e-6
-1.191, -4.906e-6
-1.190, -4.878e-6
-1.189, -4.225e-6
-1.188, -4.018e-6
-1.187, -4.507e-6
-1.186, -5.010e-6
-1.185, -4.868e-6
-1.184, -4.207e-6
-1.183, -4.010e-6
-1.182, -4.566e-6
-1.181, -4.965e-6
-1.180, -4.852e-6
-1.179, -4.268e-6
-1.178, -4.157e-6
-1.177, -4.564e-6
-1.176, -4.981e-6
-1.175, -4.823e-6
-1.174, -4.308e-6
-1.173, -4.100e-6
-1.172, -4.566e-6
-1.171, -5.043e-6
-1.170, -4.833e-6
-1.169, -4.311e-6
-1.168, -4.043e-6
-1.167, -4.591e-6
-1.166, -5.103e-6
-1.165, -4.907e-6
-1.164, -4.360e-6
-1.163, -4.134e-6
-1.162, -4.607e-6
-1.161, -5.099e-6
-1.160, -4.911e-6
-1.159, -4.323e-6
-1.158, -4.264e-6
-1.157, -4.597e-6
-1.156, -5.046e-6
-1.155, -4.993e-6
-1.154, -4.375e-6
-1.153, -4.134e-6
-1.152, -4.717e-6
-1.151, -5.063e-6
-1.150, -5.033e-6
-1.149, -4.385e-6
-1.148, -4.154e-6
-1.147, -4.744e-6
-1.146, -5.146e-6
-1.145, -5.003e-6
-1.144, -4.456e-6
-1.143, -4.265e-6
-1.142, -4.808e-6
-1.141, -5.134e-6
-1.140, -5.033e-6
-1.139, -4.509e-6
-1.138, -4.234e-6
-1.137, -4.857e-6
-1.136, -5.165e-6
-1.135, -5.049e-6
-1.134, -4.537e-6
-1.133, -4.278e-6
-1.132, -4.813e-6
-1.131, -5.243e-6
-1.130, -5.107e-6
-1.129, -4.485e-6
-1.128, -4.317e-6
-1.127, -4.905e-6
-1.126, -5.337e-6
-1.125, -5.142e-6
-1.124, -4.617e-6
-1.123, -4.429e-6
-1.122, -4.924e-6
-1.121, -5.371e-6
-1.120, -5.193e-6
-1.119, -4.626e-6
-1.118, -4.485e-6
-1.117, -5.004e-6
-1.116, -5.388e-6
-1.115, -5.310e-6
-1.114, -4.713e-6
-1.113, -4.539e-6
-1.112, -5.068e-6
-1.111, -5.549e-6
-1.110, -5.381e-6
-1.109, -4.791e-6
-1.108, -4.588e-6
-1.107, -5.178e-6
-1.106, -5.617e-6
-1.105, -5.420e-6
-1.104, -4.982e-6
-1.103, -4.674e-6
-1.102, -5.294e-6
-1.101, -5.738e-6
-1.100, -5.489e-6
-1.099, -4.982e-6
-1.098, -4.801e-6
-1.097, -5.367e-6
-1.096, -5.840e-6
-1.095, -5.597e-6
-1.094, -5.120e-6
-1.093, -4.896e-6
-1.092, -5.482e-6
-1.091, -5.995e-6
-1.090, -5.799e-6
-1.089, -5.231e-6
-1.088, -5.041e-6
-1.087, -5.560e-6
-1.086, -6.114e-6
-1.085, -5.878e-6
-1.084, -5.355e-6
-1.083, -5.268e-6
-1.082, -5.755e-6
-1.081, -6.275e-6
-1.080, -6.087e-6
-1.079, -5.450e-6
-1.078, -5.298e-6
-1.077, -6.005e-6
-1.076, -6.438e-6
-1.075, -6.289e-6
-1.074, -5.640e-6
-1.073, -5.588e-6
-1.072, -6.177e-6
-1.071, -6.633e-6
-1.070, -6.438e-6
-1.069, -5.909e-6
-1.068, -5.738e-6
-1.067, -6.455e-6
-1.066, -6.923e-6
-1.065, -6.698e-6
-1.064, -6.121e-6
-1.063, -5.968e-6
-1.062, -6.628e-6
-1.061, -7.177e-6
-1.060, -6.881e-6
-1.059, -6.403e-6
-1.058, -6.267e-6
-1.057, -6.973e-6
-1.056, -7.425e-6
-1.055, -7.258e-6
-1.054, -6.777e-6
-1.053, -6.566e-6
-1.052, -7.260e-6
-1.051, -7.806e-6
-1.050, -7.613e-6
-1.049, -7.053e-6
-1.048, -6.948e-6
-1.047, -7.698e-6
-1.046, -8.191e-6
-1.045, -8.004e-6
-1.044, -7.449e-6
-1.043, -7.319e-6
-1.042, -8.086e-6
-1.041, -8.672e-6
-1.040, -8.394e-6
-1.039, -7.891e-6
-1.038, -7.838e-6
-1.037, -8.512e-6
-1.036, -9.110e-6
-1.035, -8.951e-6
-1.034, -8.447e-6
-1.033, -8.407e-6
-1.032, -9.096e-6
-1.031, -9.666e-6
-1.030, -9.489e-6
-1.029, -9.018e-6
-1.028, -8.859e-6
-1.027, -9.723e-6
-1.026, -1.032e-5
-1.025, -1.021e-5
-1.024, -9.660e-6
-1.023, -9.591e-6
-1.022, -1.050e-5
-1.021, -1.095e-5
-1.020, -1.084e-5
-1.019, -1.043e-5
-1.018, -1.025e-5
-1.017, -1.114e-5
-1.016, -1.177e-5
-1.015, -1.165e-5
-1.014, -1.117e-5
-1.013, -1.107e-5
-1.012, -1.201e-5
-1.011, -1.266e-5
-1.010, -1.248e-5
-1.009, -1.209e-5
-1.008, -1.194e-5
-1.007, -1.289e-5
-1.006, -1.359e-5
-1.005, -1.349e-5
-1.004, -1.298e-5
-1.003, -1.291e-5
-1.002, -1.383e-5
-1.001, -1.460e-5
-1.000, -6.838e-6
-1.001, -3.400e-6
-1.002, -1.942e-6
-1.003, -1.828e-6
-1.004, -1.555e-6
-1.005, -6.060e-7
-1.006, 6.954e-7
-1.007, 1.387e-6
-1.008, 9.726e-7
-1.009, 9.311e-7
-1.010, 1.657e-6
-1.011, 2.531e-6
-1.012, 3.134e-6
-1.013, 2.601e-6
-1.014, 2.402e-6
-1.015, 2.994e-6
-1.016, 3.857e-6
-1.017, 4.152e-6
-1.018, 3.609e-6
-1.019, 3.325e-6
-1.020, 3.820e-6
-1.021, 4.618e-6
-1.022, 4.850e-6
-1.023, 4.287e-6
-1.024, 3.925e-6
-1.025, 4.396e-6
-1.026, 5.136e-6
-1.027, 5.292e-6
-1.028, 4.667e-6
-1.029, 4.357e-6
-1.030, 4.713e-6
-1.031, 5.486e-6
-1.032, 5.666e-6
-1.033, 4.908e-6
-1.034, 4.674e-6
-1.035, 5.021e-6
-1.036, 5.674e-6
-1.037, 5.845e-6
-1.038, 5.133e-6
-1.039, 4.871e-6
-1.040, 5.194e-6
-1.041, 5.859e-6
-1.042, 5.983e-6
-1.043, 5.271e-6
-1.044, 4.946e-6
-1.045, 5.324e-6
-1.046, 5.963e-6
-1.047, 6.114e-6
-1.048, 5.321e-6
-1.049, 5.021e-6
-1.050, 5.396e-6
-1.051, 5.940e-6
-1.052, 6.053e-6
-1.053, 5.297e-6
-1.054, 5.021e-6
-1.055, 5.437e-6
-1.056, 6.007e-6
-1.057, 5.956e-6
-1.058, 5.414e-6
-1.059, 5.100e-6
-1.060, 5.350e-6
-1.061, 5.996e-6
-1.062, 5.938e-6
-1.063, 5.318e-6
-1.064, 4.985e-6
-1.065, 5.302e-6
-1.066, 6.050e-6
-1.067, 5.910e-6
-1.068, 5.227e-6
-1.069, 5.011e-6
-1.070, 5.263e-6
-1.071, 5.934e-6
-1.072, 5.819e-6
-1.073, 5.179e-6
-1.074, 4.926e-6
-1.075, 5.226e-6
-1.076, 5.837e-6
-1.077, 5.834e-6
-1.078, 5.157e-6
-1.079, 4.875e-6
-1.080, 5.166e-6
-1.081, 5.796e-6
-1.082, 5.722e-6
-1.083, 5.064e-6
-1.084, 4.797e-6
-1.085, 5.161e-6
-1.086, 5.757e-6
-1.087, 5.644e-6
-1.088, 5.020e-6
-1.089, 4.783e-6
-1.090, 5.105e-6
-1.091, 5.689e-6
-1.092, 5.613e-6
-1.093, 4.949e-6
-1.094, 4.636e-6
-1.095, 5.036e-6
-1.096, 5.600e-6
-1.097, 5.456e-6
-1.098, 4.996e-6
-1.099, 4.598e-6
-1.100, 4.957e-6
-1.101, 5.620e-6
-1.102, 5.416e-6
-1.103, 4.888e-6
-1.104, 4.510e-6
-1.105, 4.920e-6
-1.106, 5.512e-6
-1.107, 5.383e-6
-1.108, 4.780e-6
-1.109, 4.481e-6
-1.110, 4.888e-6
-1.111, 5.483e-6
-1.112, 5.287e-6
-1.113, 4.738e-6
-1.114, 4.429e-6
-1.115, 4.827e-6
-1.116, 5.410e-6
-1.117, 5.300e-6
-1.118, 4.738e-6
-1.119, 4.397e-6
-1.120, 4.781e-6
-1.121, 5.357e-6
-1.122, 5.264e-6
-1.123, 4.688e-6
-1.124, 4.325e-6
-1.125, 4.819e-6
-1.126, 5.345e-6
-1.127, 5.174e-6
-1.128, 4.647e-6
-1.129, 4.336e-6
-1.130, 4.705e-6
-1.131, 5.306e-6
-1.132, 5.117e-6
-1.133, 4.657e-6
-1.134, 4.263e-6
-1.135, 4.693e-6
-1.136, 5.258e-6
-1.137, 5.083e-6
-1.138, 4.625e-6
-1.139, 4.228e-6
-1.140, 4.668e-6
-1.141, 5.346e-6
-1.142, 4.962e-6
-1.143, 4.598e-6
-1.144, 4.182e-6
-1.145, 4.679e-6
-1.146, 5.218e-6
-1.147, 4.944e-6
-1.148, 4.540e-6
-1.149, 4.276e-6
-1.150, 4.579e-6
-1.151, 5.237e-6
-1.152, 4.978e-6
-1.153, 4.505e-6
-1.154, 4.195e-6
-1.155, 4.688e-6
-1.156, 5.169e-6
-1.157, 4.990e-6
-1.158, 4.571e-6
-1.159, 4.179e-6
-1.160, 4.651e-6
-1.161, 5.191e-6
-1.162, 4.993e-6
-1.163, 4.523e-6
-1.164, 4.225e-6
-1.165, 4.688e-6
-1.166, 5.219e-6
-1.167, 5.001e-6
-1.168, 4.526e-6
-1.169, 4.234e-6
-1.170, 4.668e-6
-1.171, 5.182e-6
-1.172, 4.997e-6
-1.173, 4.526e-6
-1.174, 4.262e-6
-1.175, 4.642e-6
-1.176, 5.219e-6
-1.177, 5.012e-6
-1.178, 4.590e-6
-1.179, 4.281e-6
-1.180, 4.652e-6
-1.181, 5.229e-6
-1.182, 5.013e-6
-1.183, 4.574e-6
-1.184, 4.267e-6
-1.185, 4.714e-6
-1.186, 5.274e-6
-1.187, 5.052e-6
-1.188, 4.618e-6
-1.189, 4.283e-6
-1.190, 4.737e-6
-1.191, 5.347e-6
-1.192, 5.048e-6
-1.193, 4.605e-6
-1.194, 4.410e-6
-1.195, 4.736e-6
-1.196, 5.350e-6
-1.197, 5.150e-6
-1.198, 4.626e-6
-1.199, 4.405e-6
-1.200, 4.783e-6
-1.201, 5.342e-6
-1.202, 5.127e-6
-1.203, 4.697e-6
-1.204, 4.377e-6
-1.205, 4.873e-6
-1.206, 5.417e-6
-1.207, 5.195e-6
-1.208, 4.706e-6
-1.209, 4.487e-6
-1.210, 4.893e-6
-1.211, 5.461e-6
-1.212, 5.292e-6
-1.213, 4.815e-6
-1.214, 4.512e-6
-1.215, 5.005e-6
-1.216, 5.519e-6
-1.217, 5.337e-6
-1.218, 4.884e-6
-1.219, 4.554e-6
-1.220, 5.065e-6
-1.221, 5.668e-6
-1.222, 5.464e-6
-1.223, 4.949e-6
-1.224, 4.660e-6
-1.225, 5.114e-6
-1.226, 5.732e-6
-1.227, 5.542e-6
-1.228, 5.036e-6
-1.229, 4.870e-6
-1.230, 5.265e-6
-1.231, 5.818e-6
-1.232, 5.603e-6
-1.233, 5.060e-6
-1.234, 4.952e-6
-1.235, 5.366e-6
-1.236, 5.890e-6
-1.237, 5.773e-6
-1.238, 5.174e-6
-1.239, 5.056e-6
-1.240, 5.497e-6
-1.241, 6.018e-6
-1.242, 5.888e-6
-1.243, 5.261e-6
-1.244, 5.158e-6
-1.245, 5.705e-6
-1.246, 6.165e-6
-1.247, 6.037e-6
-1.248, 5.421e-6
-1.249, 5.319e-6
-1.250, 5.830e-6
-1.251, 6.278e-6
-1.252, 6.193e-6
-1.253, 5.724e-6
-1.254, 5.470e-6
-1.255, 5.994e-6
-1.256, 6.541e-6
-1.257, 6.366e-6
-1.258, 5.813e-6
-1.259, 5.757e-6
-1.260, 6.203e-6
-1.261, 6.750e-6
-1.262, 6.561e-6
-1.263, 6.020e-6
-1.264, 5.974e-6
-1.265, 6.351e-6
-1.266, 6.940e-6
-1.267, 6.829e-6
-1.268, 6.295e-6
-1.269, 6.219e-6
-1.270, 6.731e-6
-1.271, 7.331e-6
-1.272, 7.190e-6
-1.273, 6.598e-6
-1.274, 6.484e-6
-1.275, 7.073e-6
-1.276, 7.550e-6
-1.277, 7.470e-6
-1.278, 6.934e-6
-1.279, 6.862e-6
-1.280, 7.448e-6
-1.281, 7.973e-6
-1.282, 7.928e-6
-1.283, 7.344e-6
-1.284, 7.263e-6
-1.285, 7.911e-6
-1.286, 8.427e-6
-1.287, 8.313e-6
-1.288, 7.802e-6
-1.289, 7.721e-6
-1.290, 8.307e-6
-1.291, 8.905e-6
-1.292, 8.774e-6
-1.293, 8.325e-6
-1.294, 8.325e-6
-1.295, 8.871e-6
-1.296, 9.461e-6
-1.297, 9.365e-6
-1.298, 8.932e-6
-1.299, 8.829e-6
-1.300, 9.632e-6
-1.301, 1.009e-5
-1.302, 1.009e-5
-1.303, 9.611e-6
-1.304, 9.534e-6
-1.305, 1.027e-5
-1.306, 1.093e-5
-1.307, 1.073e-5
-1.308, 1.040e-5
-1.309, 1.036e-5
-1.310, 1.109e-5
-1.311, 1.178e-5
-1.312, 1.172e-5
-1.313, 1.128e-5
-1.314, 1.137e-5
-1.315, 1.201e-5
-1.316, 1.274e-5
-1.317, 1.271e-5
-1.318, 1.233e-5
-1.319, 1.251e-5
-1.320, 1.305e-5
-1.321, 1.390e-5
-1.322, 1.390e-5
-1.323, 1.350e-5
-1.324, 1.363e-5
-1.325, 1.451e-5
-1.326, 1.514e-5
-1.327, 1.515e-5
-1.328, 1.490e-5
-1.329, 1.500e-5
-1.330, 1.592e-5
-1.331, 1.659e-5
-1.332, 1.666e-5
-1.333, 1.642e-5
-1.334, 1.658e-5
-1.335, 1.751e-5
-1.336, 1.819e-5
-1.337, 1.835e-5
-1.338, 1.813e-5
-1.339, 1.838e-5
-1.340, 1.933e-5
-1.341, 2.005e-5
-1.342, 2.027e-5
-1.343, 2.013e-5
-1.344, 2.036e-5
-1.345, 2.136e-5
-1.346, 2.222e-5
-1.347, 2.242e-5
-1.348, 2.235e-5
-1.349, 2.258e-5
-1.350, 2.363e-5
-1.351, 2.465e-5
-1.352, 2.482e-5
-1.353, 2.478e-5
-1.354, 2.521e-5
-1.355, 2.633e-5
-1.356, 2.731e-5
-1.357, 2.772e-5
-1.358, 2.765e-5
-1.359, 2.814e-5
-1.360, 2.933e-5
-1.361, 3.034e-5
-1.362, 3.084e-5
-1.363, 3.086e-5
-1.364, 3.148e-5
-1.365, 3.270e-5
-1.366, 3.386e-5
-1.367, 3.440e-5
-1.368, 3.456e-5
-1.369, 3.524e-5
-1.370, 3.665e-5
-1.371, 3.780e-5
-1.372, 3.848e-5
-1.373, 3.882e-5
-1.374, 3.948e-5
-1.375, 4.107e-5
-1.376, 4.243e-5
-1.377, 4.309e-5
-1.378, 4.360e-5
-1.379, 4.453e-5
-1.380, 4.611e-5
-1.381, 4.757e-5
-1.382, 4.857e-5
-1.383, 4.911e-5
-1.384, 5.011e-5
-1.385, 5.188e-5
-1.386, 5.359e-5
-1.387, 5.460e-5
-1.388, 5.543e-5
-1.389, 5.662e-5
-1.390, 5.851e-5
-1.391, 6.038e-5
-1.392, 6.160e-5
-1.393, 6.267e-5
-1.394, 6.405e-5
-1.395, 6.624e-5
-1.396, 6.826e-5
-1.397, 6.973e-5
-1.398, 7.100e-5
-1.399, 7.254e-5
-1.400, 7.497e-5
-1.401, 7.722e-5
-1.402, 7.897e-5
-1.403, 8.051e-5
-1.404, 8.235e-5
-1.405, 8.499e-5
-1.406, 8.753e-5
-1.407, 8.956e-5
-1.408, 9.116e-5
-1.409, 9.348e-5
-1.410, 9.647e-5
-1.411, 9.925e-5
-1.412, 1.015e-4
-1.413, 1.036e-4
-1.414, 1.060e-4
-1.415, 1.093e-4
-1.416, 1.125e-4
-1.417, 1.151e-4
-1.418, 1.175e-4
-1.419, 1.203e-4
-1.420, 1.239e-4
-1.421, 1.274e-4
-1.422, 1.304e-4
-1.423, 1.331e-4
-1.424, 1.363e-4
-1.425, 1.403e-4
-1.426, 1.441e-4
-1.427, 1.474e-4
-1.428, 1.506e-4
-1.429, 1.541e-4
-1.430, 1.585e-4
-1.431, 1.627e-4
-1.432, 1.664e-4
-1.433, 1.700e-4
-1.434, 1.740e-4
-1.435, 1.787e-4
-1.436, 1.833e-4
-1.437, 1.875e-4
-1.438, 1.914e-4
-1.439, 1.958e-4
-1.440, 2.009e-4
-1.441, 2.059e-4
-1.442, 2.106e-4
-1.443, 2.148e-4
-1.444, 2.197e-4
-1.445, 2.252e-4
-1.446, 2.307e-4
-1.447, 2.358e-4
-1.448, 2.404e-4
-1.449, 2.457e-4
-1.450, 2.517e-4
-1.451, 2.576e-4
-1.452, 2.629e-4
-1.453, 2.682e-4
-1.454, 2.738e-4
-1.455, 2.802e-4
-1.456, 2.865e-4
-1.457, 2.924e-4
-1.458, 2.980e-4
-1.459, 3.040e-4
-1.460, 3.109e-4
-1.461, 3.176e-4
-1.462, 3.240e-4
-1.463, 3.300e-4
-1.464, 3.365e-4
-1.465, 3.438e-4
-1.466, 3.509e-4
-1.467, 3.577e-4
-1.468, 3.642e-4
-1.469, 3.710e-4
-1.470, 3.787e-4
-1.471, 3.864e-4
-1.472, 3.937e-4
-1.473, 4.005e-4
-1.474, 4.079e-4
-1.475, 4.160e-4
-1.476, 4.242e-4
-1.477, 4.320e-4
-1.478, 4.392e-4
-1.479, 4.471e-4
-1.480, 4.556e-4
-1.481, 4.642e-4
-1.482, 4.724e-4
-1.483, 4.803e-4
-1.484, 4.887e-4
-1.485, 4.978e-4
-1.486, 5.071e-4
-1.487, 5.160e-4
-1.488, 5.244e-4
-1.489, 5.333e-4
-1.490, 5.429e-4
-1.491, 5.526e-4
-1.492, 5.621e-4
-1.493, 5.710e-4
-1.494, 5.805e-4
-1.495, 5.908e-4
-1.496, 6.012e-4
-1.497, 6.113e-4
-1.498, 6.209e-4
-1.499, 6.310e-4
-1.500, 6.272e-4
-1.499, 6.134e-4
-1.498, 6.000e-4
-1.497, 5.864e-4
-1.496, 5.737e-4
-1.495, 5.618e-4
-1.494, 5.504e-4
-1.493, 5.388e-4
-1.492, 5.268e-4
-1.491, 5.155e-4
-1.490, 5.053e-4
-1.489, 4.951e-4
-1.488, 4.848e-4
-1.487, 4.741e-4
-1.486, 4.640e-4
-1.485, 4.548e-4
-1.484, 4.458e-4
-1.483, 4.365e-4
-1.482, 4.269e-4
-1.481, 4.180e-4
-1.480, 4.099e-4
-1.479, 4.020e-4
-1.478, 3.935e-4
-1.477, 3.850e-4
-1.476, 3.769e-4
-1.475, 3.696e-4
-1.474, 3.624e-4
-1.473, 3.548e-4
-1.472, 3.469e-4
-1.471, 3.397e-4
-1.470, 3.331e-4
-1.469, 3.267e-4
-1.468, 3.197e-4
-1.467, 3.125e-4
-1.466, 3.061e-4
-1.465, 3.002e-4
-1.464, 2.944e-4
-1.463, 2.880e-4
-1.462, 2.815e-4
-1.461, 2.755e-4
-1.460, 2.700e-4
-1.459, 2.648e-4
-1.458, 2.590e-4
-1.457, 2.531e-4
-1.456, 2.478e-4
-1.455, 2.429e-4
-1.454, 2.382e-4
-1.453, 2.330e-4
-1.452, 2.274e-4
-1.451, 2.226e-4
-1.450, 2.183e-4
-1.449, 2.140e-4
-1.448, 2.091e-4
-1.447, 2.041e-4
-1.446, 1.997e-4
-1.445, 1.959e-4
-1.444, 1.920e-4
-1.443, 1.876e-4
-1.442, 1.830e-4
-1.441, 1.790e-4
-1.440, 1.754e-4
-1.439, 1.721e-4
-1.438, 1.680e-4
-1.437, 1.638e-4
-1.436, 1.602e-4
-1.435, 1.570e-4
-1.434, 1.539e-4
-1.433, 1.502e-4
-1.432, 1.464e-4
-1.431, 1.430e-4
-1.430, 1.402e-4
-1.429, 1.374e-4
-1.428, 1.340e-4
-1.427, 1.303e-4
-1.426, 1.274e-4
-1.425, 1.249e-4
-1.424, 1.224e-4
-1.423, 1.193e-4
-1.422, 1.159e-4
-1.421, 1.133e-4
-1.420, 1.111e-4
-1.419, 1.088e-4
-1.418, 1.060e-4
-1.417, 1.028e-4
-1.416, 1.005e-4
-1.415, 9.847e-5
-1.414, 9.646e-5
-1.413, 9.381e-5
-1.412, 9.100e-5
-1.411, 8.886e-5
-1.410, 8.715e-5
-1.409, 8.539e-5
-1.408, 8.285e-5
-1.407, 8.040e-5
-1.406, 7.844e-5
-1.405, 7.690e-5
-1.404, 7.538e-5
-1.403, 7.304e-5
-1.402, 7.075e-5
-1.401, 6.902e-5
-1.400, 6.770e-5
-1.399, 6.626e-5
-1.398, 6.420e-5
-1.397, 6.210e-5
-1.396, 6.063e-5
-1.395, 5.940e-5
-1.394, 5.810e-5
-1.393, 5.624e-5
-1.392, 5.424e-5
-1.391, 5.297e-5
-1.390, 5.191e-5
-1.389, 5.093e-5
-1.388, 4.917e-5
-1.387, 4.725e-5
-1.386, 4.624e-5
-1.385, 4.525e-5
-1.384, 4.433e-5
-1.383, 4.278e-5
-1.382, 4.098e-5
-1.381, 4.006e-5
-1.380, 3.931e-5
-1.379, 3.851e-5
-1.378, 3.708e-5
-1.377, 3.546e-5
-1.376, 3.470e-5
-1.375, 3.390e-5
-1.374, 3.331e-5
-1.373, 3.192e-5
-1.372, 3.045e-5
-1.371, 2.982e-5
-1.370, 2.925e-5
-1.369, 2.872e-5
-1.368, 2.742e-5
-1.367, 2.615e-5
-1.366, 2.547e-5
-1.365, 2.511e-5
-1.364, 2.470e-5
-1.363, 2.344e-5
-1.362, 2.224e-5
-1.361, 2.168e-5
-1.360, 2.140e-5
-1.359, 2.107e-5
-1.358, 1.996e-5
-1.357, 1.876e-5
-1.356, 1.835e-5
-1.355, 1.804e-5
-1.354, 1.789e-5
-1.353, 1.684e-5
-1.352, 1.574e-5
-1.351, 1.537e-5
-1.350, 1.521e-5
-1.349, 1.499e-5
-1.348, 1.410e-5
-1.347, 1.307e-5
-1.346, 1.278e-5
-1.345, 1.271e-5
-1.344, 1.252e-5
-1.343, 1.164e-5
-1.342, 1.070e-5
-1.341, 1.050e-5
-1.340, 1.049e-5
-1.339, 1.033e-5
-1.338, 9.639e-6
-1.337, 8.672e-6
-1.336, 8.416e-6
-1.335, 8.462e-6
-1.334, 8.434e-6
-1.333, 7.678e-6
-1.332, 6.876e-6
-1.331, 6.631e-6
-1.330, 6.824e-6
-1.329, 6.714e-6
-1.328, 6.066e-6
-1.327, 5.208e-6
-1.326, 5.080e-6
-1.325, 5.338e-6
-1.324, 5.298e-6
-1.323, 4.582e-6
-1.322, 3.843e-6
-1.321, 3.711e-6
-1.320, 3.931e-6
-1.319, 4.062e-6
-1.318, 3.351e-6
-1.317, 2.571e-6
-1.316, 2.617e-6
-1.315, 2.746e-6
-1.314, 2.849e-6
-1.313, 2.229e-6
-1.312, 1.531e-6
-1.311, 1.526e-6
-1.310, 1.802e-6
-1.309, 1.883e-6
-1.308, 1.290e-6
-1.307, 5.227e-7
-1.306, 5.651e-7
-1.305, 8.996e-7
-1.304, 1.027e-6
-1.303, 4.615e-7
-1.302, -2.212e-7
-1.301, -1.807e-7
-1.300, 8.958e-8
-1.299, 2.090e-7
-1.298, -2.429e-7
-1.297, -8.980e-7
-1.296, -8.526e-7
-1.295, -5.566e-7
-1.294, -3.889e-7
-1.293, -8.990e-7
-1.292, -1.561e-6
-1.291, -1.520e-6
-1.290, -1.060e-6
-1.289, -9.730e-7
-1.288, -1.421e-6
-1.287, -2.108e-6
-1.286, -2.043e-6
-1.285, -1.636e-6
-1.284, -1.352e-6
-1.283, -1.931e-6
-1.282, -2.473e-6
-1.281, -2.463e-6
-1.280, -2.049e-6
-1.279, -1.857e-6
-1.278, -2.318e-6
-1.277, -2.950e-6
-1.276, -2.782e-6
-1.275, -2.479e-6
-1.274, -2.242e-6
-1.273, -2.754e-6
-1.272, -3.302e-6
-1.271, -3.171e-6
-1.270, -2.805e-6
-1.269, -2.506e-6
-1.268, -2.996e-6
-1.267, -3.636e-6
-1.266, -3.450e-6
-1.265, -3.050e-6
-1.264, -2.787e-6
-1.263, -3.295e-6
-1.262, -3.817e-6
-1.261, -3.713e-6
-1.260, -3.183e-6
-1.259, -3.015e-6
-1.258, -3.480e-6
-1.257, -4.100e-6
-1.256, -3.929e-6
-1.255, -3.352e-6
-1.254, -3.243e-6
-1.253, -3.690e-6
-1.252, -4.214e-6
-1.251, -4.077e-6
-1.250, -3.546e-6
-1.249, -3.343e-6
-1.248, -3.768e-6
-1.247, -4.354e-6
-1.246, -4.253e-6
-1.245, -3.696e-6
-1.244, -3.533e-6
-1.243, -4.016e-6
-1.242, -4.515e-6
-1.241, -4.353e-6
-1.240, -3.876e-6
-1.239, -3.575e-6
-1.238, -4.154e-6
-1.237, -4.612e-6
-1.236, -4.467e-6
-1.235, -3.865e-6
-1.234, -3.712e-6
-1.233, -4.170e-6
-1.232, -4.701e-6
-1.231, -4.518e-6
-1.230, -3.962e-6
-1.229, -3.855e-6
-1.228, -4.337e-6
-1.227, -4.693e-6
-1.226, -4.627e-6
-1.225, -4.062e-6
-1.224, -3.836e-6
-1.223, -4.320e-6
-1.222, -4.706e-6
-1.221, -4.734e-6
-1.220, -4.090e-6
-1.219, -3.932e-6
-1.218, -4.392e-6
-1.217, -4.901e-6
-1.216, -4.645e-6
-1.215, -4.078e-6
-1.214, -3.953e-6
-1.213, -4.350e-6
-1.212, -4.824e-6
-1.211, -4.735e-6
-1.210, -4.160e-6
-1.209, -3.968e-6
-1.208, -4.385e-6
-1.207, -4.819e-6
-1.206, -4.804e-6
-1.205, -4.170e-6
-1.204, -3.964e-6
-1.203, -4.499e-6
-1.202, -4.927e-6
-1.201, -4.774e-6
-1.200, -4.131e-6
-1.199, -4.007e-6
-1.198, -4.500e-6
-1.197, -4.906e-6
-1.196, -4.769e-6
-1.195, -4.241e-6
-1.194, -4.022e-6
-1.193, -4.502e-6
-1.192, -4.960e-6
-1.191, -4.779e-6
-1.190, -4.197e-6
-1.189, -4.021e-6
-1.188, -4.486e-6
-1.187, -4.966e-6
-1.186, -4.763e-6
-1.185, -4.288e-6
-1.184, -4.065e-6
-1.183, -4.520e-6
-1.182, -4.979e-6
-1.181, -4.758e-6
-1.180, -4.264e-6
-1.179, -4.076e-6
-1.178, -4.521e-6
-1.177, -4.992e-6
-1.176, -4.808e-6
-1.175, -4.224e-6
-1.174, -4.110e-6
-1.173, -4.499e-6
-1.172, -4.945e-6
-1.171, -4.841e-6
-1.170, -4.224e-6
-1.169, -4.111e-6
-1.168, -4.543e-6
-1.167, -4.951e-6
-1.166, -4.864e-6
-1.165, -4.278e-6
-1.164, -4.051e-6
-1.163, -4.629e-6
-1.162, -4.956e-6
-1.161, -4.894e-6
-1.160, -4.286e-6
-1.159, -4.083e-6
-1.158, -4.612e-6
-1.157, -5.000e-6
-1.156, -4.836e-6
-1.155, -4.246e-6
-1.154, -4.136e-6
-1.153, -4.678e-6
-1.152, -4.987e-6
-1.151, -4.904e-6
-1.150, -4.376e-6
-1.149, -4.097e-6
-1.148, -4.655e-6
-1.147, -5.069e-6
-1.146, -4.834e-6
-1.145, -4.411e-6
-1.144, -4.142e-6
-1.143, -4.594e-6
-1.142, -5.132e-6
-1.141, -4.920e-6
-1.140, -4.341e-6
-1.139, -4.196e-6
-1.138, -4.687e-6
-1.137, -5.145e-6
-1.136, -4.968e-6
-1.135, -4.422e-6
-1.134, -4.228e-6
-1.133, -4.723e-6
-1.132, -5.155e-6
-1.131, -4.995e-6
-1.130, -4.459e-6
-1.129, -4.329e-6
-1.128, -4.700e-6
-1.127, -5.198e-6
-1.126, -5.084e-6
-1.125, -4.508e-6
-1.124, -4.313e-6
-1.123, -4.861e-6
-1.122, -5.225e-6
-1.121, -5.104e-6
-1.120, -4.568e-6
-1.119, -4.337e-6
-1.118, -4.957e-6
-1.117, -5.289e-6
-1.116, -5.129e-6
-1.115, -4.644e-6
-1.114, -4.443e-6
-1.113, -5.064e-6
-1.112, -5.396e-6
-1.111, -5.214e-6
-1.110, -4.751e-6
-1.109, -4.508e-6
-1.108, -5.060e-6
-1.107, -5.503e-6
-1.106, -5.284e-6
-1.105, -4.847e-6
-1.104, -4.557e-6
-1.103, -5.192e-6
-1.102, -5.627e-6
-1.101, -5.448e-6
-1.100, -4.799e-6
-1.099, -4.704e-6
-1.098, -5.278e-6
-1.097, -5.702e-6
-1.096, -5.538e-6
-1.095, -4.987e-6
-1.094, -4.874e-6
-1.093, -5.383e-6
-1.092, -5.815e-6
-1.091, -5.668e-6
-1.090, -5.089e-6
-1.089, -4.941e-6
-1.088, -5.562e-6
-1.087, -5.952e-6
-1.086, -5.894e-6
-1.085, -5.240e-6
-1.084, -5.083e-6
-1.083, -5.694e-6
-1.082, -6.175e-6
-1.081, -6.023e-6
-1.080, -5.478e-6
-1.079, -5.261e-6
-1.078, -5.882e-6
-1.077, -6.243e-6
-1.076, -6.248e-6
-1.075, -5.669e-6
-1.074, -5.475e-6
-1.073, -6.145e-6
-1.072, -6.550e-6
-1.071, -6.426e-6
-1.070, -5.875e-6
-1.069, -5.678e-6
-1.068, -6.343e-6
-1.067, -6.848e-6
-1.066, -6.619e-6
-1.065, -6.164e-6
-1.064, -5.978e-6
-1.063, -6.526e-6
-1.062, -7.082e-6
-1.061, -6.925e-6
-1.060, -6.435e-6
-1.059, -6.272e-6
-1.058, -6.921e-6
-1.057, -7.429e-6
-1.056, -7.267e-6
-1.055, -6.748e-6
-1.054, -6.588e-6
-1.053, -7.227e-6
-1.052, -7.713e-6
-1.051, -7.629e-6
-1.050, -7.151e-6
-1.049, -6.919e-6
-1.048, -7.586e-6
-1.047, -8.222e-6
-1.046, -8.061e-6
-1.045, -7.486e-6
-1.044, -7.376e-6
-1.043, -8.072e-6
-1.042, -8.670e-6
-1.041, -8.525e-6
-1.040, -7.935e-6
-1.039, -7.823e-6
-1.038, -8.552e-6
-1.037, -9.159e-6
-1.036, -9.048e-6
-1.035, -8.549e-6
-1.034, -8.359e-6
-1.033, -9.074e-6
-1.032, -9.708e-6
-1.031, -9.628e-6
-1.030, -9.146e-6
-1.029, -8.954e-6
-1.028, -9.726e-6
-1.027, -1.043e-5
-1.026, -1.024e-5
-1.025, -9.825e-6
-1.024, -9.667e-6
-1.023, -1.044e-5
-1.022, -1.118e-5
-1.021, -1.105e-5
-1.020, -1.052e-5
-1.019, -1.041e-5
-1.018, -1.114e-5
-1.017, -1.201e-5
-1.016, -1.186e-5
-1.015, -1.130e-5
-1.014, -1.131e-5
-1.013, -1.205e-5
-1.012, -1.279e-5
-1.011, -1.284e-5
-1.010, -1.225e-5
-1.009, -1.216e-5
-1.008, -1.297e-5
-1.007, -1.380e-5
-1.006, -1.374e-5
-1.005, -1.324e-5
-1.004, -1.316e-5
-1.003, -1.407e-5
-1.002, -1.485e-5
-1.001, -1.484e-5
-1.000, -6.476e-6
-1.001, -3.437e-6
-1.002, -2.745e-6
-1.003, -2.472e-6
-1.004, -1.331e-6
-1.005, -2.684e-8
-1.006, 8.650e-7
-1.007, 6.628e-7
-1.008, 5.207e-7
-1.009, 1.171e-6
-1.010, 2.372e-6
-1.011, 2.843e-6
-1.012, 2.472e-6
-1.013, 2.252e-6
-1.014, 2.720e-6
-1.015, 3.662e-6
-1.016, 4.093e-6
-1.017, 3.650e-6
-1.018, 3.374e-6
-1.019, 3.662e-6
-1.020, 4.561e-6
-1.021, 4.978e-6
-1.022, 4.375e-6
-1.023, 4.098e-6
-1.024, 4.409e-6
-1.025, 5.136e-6
-1.026, 5.588e-6
-1.027, 4.868e-6
-1.028, 4.527e-6
-1.029, 4.902e-6
-1.030, 5.539e-6
-1.031, 5.956e-6
-1.032, 5.204e-6
-1.033, 4.810e-6
-1.034, 5.149e-6
-1.035, 5.782e-6
-1.036, 6.121e-6
-1.037, 5.507e-6
-1.038, 5.002e-6
-1.039, 5.335e-6
-1.040, 5.937e-6
-1.041, 6.221e-6
-1.042, 5.656e-6
-1.043, 5.112e-6
-1.044, 5.384e-6
-1.045, 6.103e-6
-1.046, 6.329e-6
-1.047, 5.655e-6
-1.048, 5.188e-6
-1.049, 5.475e-6
-1.050, 6.115e-6
-1.051, 6.303e-6
-1.052, 5.638e-6
-1.053, 5.221e-6
-1.054, 5.467e-6
-1.055, 6.183e-6
-1.056, 6.336e-6
-1.057, 5.618e-6
-1.058, 5.248e-6
-1.059, 5.432e-6
-1.060, 6.041e-6
-1.061, 6.293e-6
-1.062, 5.620e-6
-1.063, 5.141e-6
-1.064, 5.432e-6
-1.065, 6.003e-6
-1.066, 6.245e-6
-1.067, 5.539e-6
-1.068, 5.118e-6
-1.069, 5.300e-6
-1.070, 5.978e-6
-1.071, 6.201e-6
-1.072, 5.427e-6
-1.073, 5.004e-6
-1.074, 5.289e-6
-1.075, 5.901e-6
-1.076, 6.076e-6
-1.077, 5.410e-6
-1.078, 4.927e-6
-1.079, 5.203e-6
-1.080, 5.829e-6
-1.081, 5.941e-6
-1.082, 5.282e-6
-1.083, 4.854e-6
-1.084, 5.130e-6
-1.085, 5.780e-6
-1.086, 5.912e-6
-1.087, 5.184e-6
-1.088, 4.758e-6
-1.089, 5.057e-6
-1.090, 5.637e-6
-1.091, 5.780e-6
-1.092, 5.150e-6
-1.093, 4.721e-6
-1.094, 4.964e-6
-1.095, 5.606e-6
-1.096, 5.740e-6
-1.097, 5.018e-6
-1.098, 4.704e-6
-1.099, 4.933e-6
-1.100, 5.474e-6
-1.101, 5.704e-6
-1.102, 4.953e-6
-1.103, 4.556e-6
-1.104, 4.905e-6
-1.105, 5.412e-6
-1.106, 5.587e-6
-1.107, 4.896e-6
-1.108, 4.540e-6
-1.109, 4.753e-6
-1.110, 5.313e-6
-1.111, 5.564e-6
-1.112, 4.802e-6
-1.113, 4.367e-6
-1.114, 4.773e-6
-1.115, 5.299e-6
-1.116, 5.436e-6
-1.117, 4.816e-6
-1.118, 4.349e-6
-1.119, 4.718e-6
-1.120, 5.211e-6
-1.121, 5.395e-6
-1.122, 4.745e-6
-1.123, 4.327e-6
-1.124, 4.679e-6
-1.125, 5.240e-6
-1.126, 5.334e-6
-1.127, 4.722e-6
-1.128, 4.282e-6
-1.129, 4.571e-6
-1.130, 5.200e-6
-1.131, 5.302e-6
-1.132, 4.674e-6
-1.133, 4.268e-6
-1.134, 4.524e-6
-1.135, 5.168e-6
-1.136, 5.293e-6
-1.137, 4.611e-6
-1.138, 4.314e-6
-1.139, 4.492e-6
-1.140, 5.066e-6
-1.141, 5.231e-6
-1.142, 4.651e-6
-1.143, 4.312e-6
-1.144, 4.522e-6
-1.145, 5.095e-6
-1.146, 5.257e-6
-1.147, 4.552e-6
-1.148, 4.220e-6
-1.149, 4.519e-6
-1.150, 4.995e-6
-1.151, 5.259e-6
-1.152, 4.597e-6
-1.153, 4.226e-6
-1.154, 4.505e-6
-1.155, 4.983e-6
-1.156, 5.195e-6
-1.157, 4.577e-6
-1.158, 4.174e-6
-1.159, 4.490e-6
-1.160, 5.041e-6
-1.161, 5.151e-6
-1.162, 4.550e-6
-1.163, 4.273e-6
-1.164, 4.487e-6
-1.165, 5.021e-6
-1.166, 5.195e-6
-1.167, 4.609e-6
-1.168, 4.193e-6
-1.169, 4.511e-6
-1.170, 5.099e-6
-1.171, 5.191e-6
-1.172, 4.569e-6
-1.173, 4.210e-6
-1.174, 4.515e-6
-1.175, 5.038e-6
-1.176, 5.202e-6
-1.177, 4.557e-6
-1.178, 4.296e-6
-1.179, 4.517e-6
-1.180, 5.066e-6
-1.181, 5.248e-6
-1.182, 4.610e-6
-1.183, 4.285e-6
-1.184, 4.521e-6
-1.185, 5.069e-6
-1.186, 5.287e-6
-1.187, 4.630e-6
-1.188, 4.263e-6
-1.189, 4.509e-6
-1.190, 5.146e-6
-1.191, 5.262e-6
-1.192, 4.623e-6
-1.193, 4.275e-6
-1.194, 4.623e-6
-1.195, 5.072e-6
-1.196, 5.324e-6
-1.197, 4.762e-6
-1.198, 4.358e-6
-1.199, 4.696e-6
-1.200, 5.097e-6
-1.201, 5.346e-6
-1.202, 4.709e-6
-1.203, 4.381e-6
-1.204, 4.701e-6
-1.205, 5.242e-6
-1.206, 5.363e-6
-1.207, 4.806e-6
-1.208, 4.421e-6
-1.209, 4.651e-6
-1.210, 5.299e-6
-1.211, 5.460e-6
-1.212, 4.838e-6
-1.213, 4.514e-6
-1.214, 4.724e-6
-1.215, 5.329e-6
-1.216, 5.492e-6
-1.217, 4.876e-6
-1.218, 4.622e-6
-1.219, 4.793e-6
-1.220, 5.390e-6
-1.221, 5.572e-6
-1.222, 4.951e-6
-1.223, 4.591e-6
-1.224, 4.924e-6
-1.225, 5.402e-6
-1.226, 5.632e-6
-1.227, 4.976e-6
-1.228, 4.740e-6
-1.229, 5.053e-6
-1.230, 5.537e-6
-1.231, 5.805e-6
-1.232, 5.101e-6
-1.233, 4.728e-6
-1.234, 5.077e-6
-1.235, 5.612e-6
-1.236, 5.798e-6
-1.237, 5.253e-6
-1.238, 4.866e-6
-1.239, 5.174e-6
-1.240, 5.693e-6
-1.241, 5.933e-6
-1.242, 5.326e-6
-1.243, 4.985e-6
-1.244, 5.252e-6
-1.245, 5.900e-6
-1.246, 6.041e-6
-1.247, 5.466e-6
-1.248, 5.117e-6
-1.249, 5.378e-6
-1.250, 5.995e-6
-1.251, 6.174e-6
-1.252, 5.570e-6
-1.253, 5.283e-6
-1.254, 5.581e-6
-1.255, 6.190e-6
-1.256, 6.334e-6
-1.257, 5.658e-6
-1.258, 5.504e-6
-1.259, 5.702e-6
-1.260, 6.262e-6
-1.261, 6.550e-6
-1.262, 5.905e-6
-1.263, 5.638e-6
-1.264, 5.877e-6
-1.265, 6.484e-6
-1.266, 6.706e-6
-1.267, 6.136e-6
-1.268, 5.861e-6
-1.269, 6.177e-6
-1.270, 6.683e-6
-1.271, 7.001e-6
-1.272, 6.400e-6
-1.273, 6.065e-6
-1.274, 6.306e-6
-1.275, 7.033e-6
-1.276, 7.216e-6
-1.277, 6.667e-6
-1.278, 6.441e-6
-1.279, 6.739e-6
-1.280, 7.303e-6
-1.281, 7.503e-6
-1.282, 7.033e-6
-1.283, 6.655e-6
-1.284, 7.012e-6
-1.285, 7.672e-6
-1.286, 7.919e-6
-1.287, 7.383e-6
-1.288, 6.982e-6
-1.289, 7.452e-6
-1.290, 8.078e-6
-1.291, 8.293e-6
-1.292, 7.806e-6
-1.293, 7.529e-6
-1.294, 7.840e-6
-1.295, 8.559e-6
-1.296, 8.821e-6
-1.297, 8.240e-6
-1.298, 8.083e-6
-1.299, 8.320e-6
-1.300, 8.969e-6
-1.301, 9.388e-6
-1.302, 8.835e-6
-1.303, 8.642e-6
-1.304, 8.961e-6
-1.305, 9.661e-6
-1.306, 1.001e-5
-1.307, 9.499e-6
-1.308, 9.199e-6
-1.309, 9.683e-6
-1.310, 1.033e-5
-1.311, 1.071e-5
-1.312, 1.026e-5
-1.313, 9.973e-6
-1.314, 1.043e-5
-1.315, 1.118e-5
-1.316, 1.153e-5
-1.317, 1.110e-5
-1.318, 1.092e-5
-1.319, 1.129e-5
-1.320, 1.211e-5
-1.321, 1.243e-5
-1.322, 1.203e-5
-1.323, 1.186e-5
-1.324, 1.238e-5
-1.325, 1.312e-5
-1.326, 1.357e-5
-1.327, 1.321e-5
-1.328, 1.299e-5
-1.329, 1.351e-5
-1.330, 1.431e-5
-1.331, 1.476e-5
-1.332, 1.440e-5
-1.333, 1.429e-5
-1.334, 1.489e-5
-1.335, 1.566e-5
-1.336, 1.614e-5
-1.337, 1.584e-5
-1.338, 1.578e-5
-1.339, 1.626e-5
-1.340, 1.716e-5
-1.341, 1.772e-5
-1.342, 1.746e-5
-1.343, 1.746e-5
-1.344, 1.794e-5
-1.345, 1.890e-5
-1.346, 1.950e-5
-1.347, 1.932e-5
-1.348, 1.928e-5
-1.349, 1.988e-5
-1.350, 2.085e-5
-1.351, 2.152e-5
-1.352, 2.136e-5
-1.353, 2.130e-5
-1.354, 2.212e-5
-1.355, 2.308e-5
-1.356, 2.375e-5
-1.357, 2.370e-5
-1.358, 2.371e-5
-1.359, 2.451e-5
-1.360, 2.561e-5
-1.361, 2.639e-5
-1.362, 2.635e-5
-1.363, 2.648e-5
-1.364, 2.731e-5
-1.365, 2.848e-5
-1.366, 2.922e-5
-1.367, 2.941e-5
-1.368, 2.960e-5
-1.369, 3.046e-5
-1.370, 3.175e-5
-1.371, 3.257e-5
-1.372, 3.282e-5
-1.373, 3.320e-5
-1.374, 3.406e-5
-1.375, 3.547e-5
-1.376, 3.644e-5
-1.377, 3.667e-5
-1.378, 3.714e-5
-1.379, 3.822e-5
-1.380, 3.974e-5
-1.381, 4.078e-5
-1.382, 4.129e-5
-1.383, 4.186e-5
-1.384, 4.297e-5
-1.385, 4.454e-5
-1.386, 4.579e-5
-1.387, 4.632e-5
-1.388, 4.705e-5
-1.389, 4.836e-5
-1.390, 5.011e-5
-1.391, 5.155e-5
-1.392, 5.224e-5
-1.393, 5.309e-5
-1.394, 5.465e-5
-1.395, 5.659e-5
-1.396, 5.815e-5
-1.397, 5.904e-5
-1.398, 6.013e-5
-1.399, 6.182e-5
-1.400, 6.382e-5
-1.401, 6.572e-5
-1.402, 6.691e-5
-1.403, 6.816e-5
-1.404, 7.006e-5
-1.405, 7.236e-5
-1.406, 7.446e-5
-1.407, 7.591e-5
-1.408, 7.737e-5
-1.409, 7.952e-5
-1.410, 8.222e-5
-1.411, 8.439e-5
-1.412, 8.616e-5
-1.413, 8.800e-5
-1.414, 9.045e-5
-1.415, 9.330e-5
-1.416, 9.593e-5
-1.417, 9.789e-5
-1.418, 1.000e-4
-1.419, 1.027e-4
-1.420, 1.060e-4
-1.421, 1.089e-4
-1.422, 1.113e-4
-1.423, 1.137e-4
-1.424, 1.168e-4
-1.425, 1.203e-4
-1.426, 1.236e-4
-1.427, 1.263e-4
-1.428, 1.292e-4
-1.429, 1.326e-4
-1.430, 1.365e-4
-1.431, 1.402e-4
-1.432, 1.434e-4
-1.433, 1.466e-4
-1.434, 1.504e-4
-1.435, 1.546e-4
-1.436, 1.588e-4
-1.437, 1.623e-4
-1.438, 1.660e-4
-1.439, 1.701e-4
-1.440, 1.748e-4
-1.441, 1.794e-4
-1.442, 1.834e-4
-1.443, 1.874e-4
-1.444, 1.920e-4
-1.445, 1.972e-4
-1.446, 2.021e-4
-1.447, 2.065e-4
-1.448, 2.110e-4
-1.449, 2.161e-4
-1.450, 2.216e-4
-1.451, 2.271e-4
-1.452, 2.320e-4
-1.453, 2.368e-4
-1.454, 2.424e-4
-1.455, 2.483e-4
-1.456, 2.541e-4
-1.457, 2.594e-4
-1.458, 2.648e-4
-1.459, 2.707e-4
-1.460, 2.772e-4
-1.461, 2.836e-4
-1.462, 2.893e-4
-1.463, 2.950e-4
-1.464, 3.013e-4
-1.465, 3.082e-4
-1.466, 3.151e-4
-1.467, 3.212e-4
-1.468, 3.274e-4
-1.469, 3.342e-4
-1.470, 3.415e-4
-1.471, 3.488e-4
-1.472, 3.556e-4
-1.473, 3.623e-4
-1.474, 3.694e-4
-1.475, 3.772e-4
-1.476, 3.850e-4
-1.477, 3.920e-4
-1.478, 3.992e-4
-1.479, 4.068e-4
-1.480, 4.152e-4
-1.481, 4.235e-4
-1.482, 4.311e-4
-1.483, 4.386e-4
-1.484, 4.468e-4
-1.485, 4.557e-4
-1.486, 4.645e-4
-1.487, 4.727e-4
-1.488, 4.807e-4
-1.489, 4.894e-4
-1.490, 4.988e-4
-1.491, 5.082e-4
-1.492, 5.171e-4
-1.493, 5.258e-4
-1.494, 5.349e-4
-1.495, 5.449e-4
-1.496, 5.549e-4
-1.497, 5.643e-4
-1.498, 5.738e-4
-1.499, 5.835e-4
-1.500, 5.803e-4
-1.499, 5.675e-4
-1.498, 5.548e-4
-1.497, 5.421e-4
-1.496, 5.303e-4
-1.495, 5.193e-4
-1.494, 5.085e-4
-1.493, 4.974e-4
-1.492, 4.863e-4
-1.491, 4.759e-4
-1.490, 4.663e-4
-1.489, 4.567e-4
-1.488, 4.468e-4
-1.487, 4.366e-4
-1.486, 4.272e-4
-1.485, 4.186e-4
-1.484, 4.102e-4
-1.483, 4.013e-4
-1.482, 3.924e-4
-1.481, 3.840e-4
-1.480, 3.765e-4
-1.479, 3.688e-4
-1.478, 3.607e-4
-1.477, 3.526e-4
-1.476, 3.451e-4
-1.475, 3.383e-4
-1.474, 3.316e-4
-1.473, 3.242e-4
-1.472, 3.168e-4
-1.471, 3.102e-4
-1.470, 3.040e-4
-1.469, 2.980e-4
-1.468, 2.914e-4
-1.467, 2.847e-4
-1.466, 2.786e-4
-1.465, 2.731e-4
-1.464, 2.676e-4
-1.463, 2.616e-4
-1.462, 2.555e-4
-1.461, 2.501e-4
-1.460, 2.452e-4
-1.459, 2.401e-4
-1.458, 2.347e-4
-1.457, 2.291e-4
-1.456, 2.242e-4
-1.455, 2.197e-4
-1.454, 2.152e-4
-1.453, 2.103e-4
-1.452, 2.051e-4
-1.451, 2.007e-4
-1.450, 1.967e-4
-1.449, 1.926e-4
-1.448, 1.880e-4
-1.447, 1.832e-4
-1.446, 1.792e-4
-1.445, 1.757e-4
-1.444, 1.720e-4
-1.443, 1.678e-4
-1.442, 1.635e-4
-1.441, 1.599e-4
-1.440, 1.566e-4
-1.439, 1.534e-4
-1.438, 1.495e-4
-1.437, 1.456e-4
-1.436, 1.423e-4
-1.435, 1.394e-4
-1.434, 1.364e-4
-1.433, 1.330e-4
-1.432, 1.293e-4
-1.431, 1.264e-4
-1.430, 1.238e-4
-1.429, 1.212e-4
-1.428, 1.180e-4
-1.427, 1.146e-4
-1.426, 1.120e-4
-1.425, 1.097e-4
-1.424, 1.074e-4
-1.423, 1.045e-4
-1.422, 1.013e-4
-1.421, 9.898e-5
-1.420, 9.695e-5
-1.419, 9.482e-5
-1.418, 9.217e-5
-1.417, 8.937e-5
-1.416, 8.720e-5
-1.415, 8.542e-5
-1.414, 8.354e-5
-1.413, 8.105e-5
-1.412, 7.854e-5
-1.411, 7.655e-5
-1.410, 7.500e-5
-1.409, 7.338e-5
-1.408, 7.113e-5
-1.407, 6.880e-5
-1.406, 6.712e-5
-1.405, 6.571e-5
-1.404, 6.429e-5
-1.403, 6.216e-5
-1.402, 6.006e-5
-1.401, 5.857e-5
-1.400, 5.740e-5
-1.399, 5.619e-5
-1.398, 5.423e-5
-1.397, 5.233e-5
-1.396, 5.091e-5
-1.395, 4.994e-5
-1.394, 4.888e-5
-1.393, 4.714e-5
-1.392, 4.529e-5
-1.391, 4.416e-5
-1.390, 4.326e-5
-1.389, 4.238e-5
-1.388, 4.076e-5
-1.387, 3.905e-5
-1.386, 3.814e-5
-1.385, 3.729e-5
-1.384, 3.666e-5
-1.383, 3.520e-5
-1.382, 3.355e-5
-1.381, 3.276e-5
-1.380, 3.218e-5
-1.379, 3.155e-5
-1.378, 3.019e-5
-1.377, 2.874e-5
-1.376, 2.808e-5
-1.375, 2.763e-5
-1.374, 2.710e-5
-1.373, 2.582e-5
-1.372, 2.450e-5
-1.371, 2.386e-5
-1.370, 2.346e-5
-1.369, 2.314e-5
-1.368, 2.197e-5
-1.367, 2.070e-5
-1.366, 2.020e-5
-1.365, 1.996e-5
-1.364, 1.959e-5
-1.363, 1.853e-5
-1.362, 1.745e-5
-1.361, 1.698e-5
-1.360, 1.677e-5
-1.359, 1.653e-5
-1.358, 1.560e-5
-1.357, 1.450e-5
-1.356, 1.418e-5
-1.355, 1.402e-5
-1.354, 1.389e-5
-1.353, 1.298e-5
-1.352, 1.198e-5
-1.351, 1.168e-5
-1.350, 1.160e-5
-1.349, 1.159e-5
-1.348, 1.067e-5
-1.347, 9.710e-6
-1.346, 9.513e-6
-1.345, 9.523e-6
-1.344, 9.482e-6
-1.343, 8.728e-6
-1.342, 7.758e-6
-1.341, 7.593e-6
-1.340, 7.783e-6
-1.339, 7.667e-6
-1.338, 7.005e-6
-1.337, 6.115e-6
-1.336, 5.937e-6
-1.335, 6.095e-6
-1.334, 6.105e-6
-1.333, 5.404e-6
-1.332, 4.596e-6
-1.331, 4.448e-6
-1.330, 4.627e-6
-1.329, 4.722e-6
-1.328, 4.099e-6
-1.327, 3.274e-6
-1.326, 3.155e-6
-1.325, 3.439e-6
-1.324, 3.527e-6
-1.323, 2.883e-6
-1.322, 2.184e-6
-1.321, 2.003e-6
-1.320, 2.313e-6
-1.319, 2.553e-6
-1.318, 1.832e-6
-1.317, 1.096e-6
-1.316, 1.088e-6
-1.315, 1.340e-6
-1.314, 1.575e-6
-1.313, 9.529e-7
-1.312, 2.652e-7
-1.311, 1.951e-7
-1.310, 5.592e-7
-1.309, 7.180e-7
-1.308, 2.820e-7
-1.307, -5.399e-7
-1.306, -5.201e-7
-1.305, -2.518e-7
-1.304, 6.709e-9
-1.303, -5.428e-7
-1.302, -1.173e-6
-1.301, -1.221e-6
-1.300, -7.470e-7
-1.299, -6.287e-7
-1.298, -1.145e-6
-1.297, -1.743e-6
-1.296, -1.758e-6
-1.295, -1.310e-6
-1.294, -1.078e-6
-1.293, -1.582e-6
-1.292, -2.256e-6
-1.291, -2.264e-6
-1.290, -1.809e-6
-1.289, -1.583e-6
-1.288, -1.978e-6
-1.287, -2.642e-6
-1.286, -2.784e-6
-1.285, -2.275e-6
-1.284, -2.055e-6
-1.283, -2.469e-6
-1.282, -3.083e-6
-1.281, -3.121e-6
-1.280, -2.569e-6
-1.279, -2.270e-6
-1.278, -2.729e-6
-1.277, -3.323e-6
-1.276, -3.329e-6
-1.275, -2.921e-6
-1.274, -2.669e-6
-1.273, -3.051e-6
-1.272, -3.726e-6
-1.271, -3.599e-6
-1.270, -3.152e-6
-1.269, -2.857e-6
-1.268, -3.213e-6
-1.267, -3.844e-6
-1.266, -3.906e-6
-1.265, -3.333e-6
-1.264, -3.094e-6
-1.263, -3.445e-6
-1.262, -4.100e-6
-1.261, -4.061e-6
-1.260, -3.521e-6
-1.259, -3.356e-6
-1.258, -3.658e-6
-1.257, -4.225e-6
-1.256, -4.202e-6
-1.255, -3.609e-6
-1.254, -3.485e-6
-1.253, -3.759e-6
-1.252, -4.315e-6
-1.251, -4.368e-6
-1.250, -3.827e-6
-1.249, -3.559e-6
-1.248, -3.834e-6
-1.247, -4.478e-6
-1.246, -4.534e-6
-1.245, -3.847e-6
-1.244, -3.603e-6
-1.243, -4.025e-6
-1.242, -4.567e-6
-1.241, -4.630e-6
-1.240, -3.954e-6
-1.239, -3.716e-6
-1.238, -4.092e-6
-1.237, -4.609e-6
-1.236, -4.577e-6
-1.235, -4.153e-6
-1.234, -3.795e-6
-1.233, -4.094e-6
-1.232, -4.663e-6
-1.231, -4.678e-6
-1.230, -4.101e-6
-1.229, -3.922e-6
-1.228, -4.130e-6
-1.227, -4.706e-6
-1.226, -4.743e-6
-1.225, -4.211e-6
-1.224, -3.857e-6
-1.223, -4.156e-6
-1.222, -4.770e-6
-1.221, -4.838e-6
-1.220, -4.178e-6
-1.219, -3.873e-6
-1.218, -4.203e-6
-1.217, -4.818e-6
-1.216, -4.794e-6
-1.215, -4.202e-6
-1.214, -3.993e-6
-1.213, -4.182e-6
-1.212, -4.864e-6
-1.211, -4.923e-6
-1.210, -4.273e-6
-1.209, -3.943e-6
-1.208, -4.232e-6
-1.207, -4.742e-6
-1.206, -4.884e-6
-1.205, -4.293e-6
-1.204, -3.988e-6
-1.203, -4.235e-6
-1.202, -4.816e-6
-1.201, -4.924e-6
-1.200, -4.278e-6
-1.199, -3.973e-6
-1.198, -4.320e-6
-1.197, -4.778e-6
-1.196, -4.919e-6
-1.195, -4.338e-6
-1.194, -3.955e-6
-1.193, -4.258e-6
-1.192, -4.792e-6
-1.191, -4.943e-6
-1.190, -4.398e-6
-1.189, -4.001e-6
-1.188, -4.172e-6
-1.187, -4.887e-6
-1.186, -4.918e-6
-1.185, -4.311e-6
-1.184, -3.998e-6
-1.183, -4.315e-6
-1.182, -4.809e-6
-1.181, -4.959e-6
-1.180, -4.293e-6
-1.179, -4.031e-6
-1.178, -4.361e-6
-1.177, -4.841e-6
-1.176, -4.980e-6
-1.175, -4.348e-6
-1.174, -4.074e-6
-1.173, -4.241e-6
-1.172, -4.790e-6
-1.171, -5.033e-6
-1.170, -4.374e-6
-1.169, -4.086e-6
-1.168, -4.279e-6
-1.167, -4.809e-6
-1.166, -5.019e-6
-1.165, -4.431e-6
-1.164, -3.997e-6
-1.163, -4.319e-6
-1.162, -4.822e-6
-1.161, -5.014e-6
-1.160, -4.436e-6
-1.159, -4.071e-6
-1.158, -4.362e-6
-1.157, -4.910e-6
-1.156, -4.986e-6
-1.155, -4.473e-6
-1.154, -4.051e-6
-1.153, -4.337e-6
-1.152, -4.968e-6
-1.151, -4.989e-6
-1.150, -4.515e-6
-1.149, -4.091e-6
-1.148, -4.284e-6
-1.147, -4.926e-6
-1.146, -5.009e-6
-1.145, -4.555e-6
-1.144, -4.136e-6
-1.143, -4.308e-6
-1.142, -4.901e-6
-1.141, -5.079e-6
-1.140, -4.473e-6
-1.139, -4.139e-6
-1.138, -4.367e-6
-1.137, -5.004e-6
-1.136, -5.082e-6
-1.135, -4.545e-6
-1.134, -4.191e-6
-1.133, -4.448e-6
-1.132, -4.966e-6
-1.131, -5.106e-6
-1.130, -4.611e-6
-1.129, -4.208e-6
-1.128, -4.413e-6
-1.127, -5.042e-6
-1.126, -5.281e-6
-1.125, -4.614e-6
-1.124, -4.255e-6
-1.123, -4.547e-6
-1.122, -5.044e-6
-1.121, -5.238e-6
-1.120, -4.733e-6
-1.119, -4.278e-6
-1.118, -4.602e-6
-1.117, -5.159e-6
-1.116, -5.265e-6
-1.115, -4.845e-6
-1.114, -4.466e-6
-1.113, -4.657e-6
-1.112, -5.167e-6
-1.111, -5.378e-6
-1.110, -4.938e-6
-1.109, -4.496e-6
-1.108, -4.660e-6
-1.107, -5.322e-6
-1.106, -5.459e-6
-1.105, -5.001e-6
-1.104, -4.523e-6
-1.103, -4.767e-6
-1.102, -5.379e-6
-1.101, -5.591e-6
-1.100, -5.076e-6
-1.099, -4.703e-6
-1.098, -4.917e-6
-1.097, -5.507e-6
-1.096, -5.643e-6
-1.095, -5.167e-6
-1.094, -4.850e-6
-1.093, -4.984e-6
-1.092, -5.606e-6
-1.091, -5.863e-6
-1.090, -5.309e-6
-1.089, -4.892e-6
-1.088, -5.135e-6
-1.087, -5.762e-6
-1.086, -6.093e-6
-1.085, -5.511e-6
-1.084, -5.060e-6
-1.083, -5.295e-6
-1.082, -5.988e-6
-1.081, -6.205e-6
-1.080, -5.661e-6
-1.079, -5.268e-6
-1.078, -5.499e-6
-1.077, -6.114e-6
-1.076, -6.396e-6
-1.075, -5.999e-6
-1.074, -5.472e-6
-1.073, -5.738e-6
-1.072, -6.356e-6
-1.071, -6.623e-6
-1.070, -6.176e-6
-1.069, -5.719e-6
-1.068, -5.937e-6
-1.067, -6.710e-6
-1.066, -6.889e-6
-1.065, -6.425e-6
-1.064, -6.038e-6
-1.063, -6.209e-6
-1.062, -6.964e-6
-1.061, -7.211e-6
-1.060, -6.759e-6
-1.059, -6.376e-6
-1.058, -6.529e-6
-1.057, -7.305e-6
-1.056, -7.539e-6
-1.055, -7.074e-6
-1.054, -6.707e-6
-1.053, -6.871e-6
-1.052, -7.594e-6
-1.051, -7.984e-6
-1.050, -7.540e-6
-1.049, -7.151e-6
-1.048, -7.307e-6
-1.047, -8.002e-6
-1.046, -8.427e-6
-1.045, -8.003e-6
-1.044, -7.449e-6
-1.043, -7.820e-6
-1.042, -8.515e-6
-1.041, -8.828e-6
-1.040, -8.481e-6
-1.039, -8.026e-6
-1.038, -8.315e-6
-1.037, -9.019e-6
-1.036, -9.456e-6
-1.035, -9.124e-6
-1.034, -8.513e-6
-1.033, -8.849e-6
-1.032, -9.618e-6
-1.031, -1.005e-5
-1.030, -9.799e-6
-1.029, -9.178e-6
-1.028, -9.552e-6
-1.027, -1.029e-5
-1.026, -1.074e-5
-1.025, -1.052e-5
-1.024, -9.919e-6
-1.023, -1.023e-5
-1.022, -1.099e-5
-1.021, -1.156e-5
-1.020, -1.120e-5
-1.019, -1.070e-5
-1.018, -1.101e-5
-1.017, -1.186e-5
-1.016, -1.235e-5
-1.015, -1.205e-5
-1.014, -1.163e-5
-1.013, -1.187e-5
-1.012, -1.270e-5
-1.011, -1.334e-5
-1.010, -1.301e-5
-1.009, -1.254e-5
-1.008, -1.287e-5
-1.007, -1.367e-5
-1.006, -1.428e-5
-1.005, -1.404e-5
-1.004, -1.348e-5
-1.003, -1.396e-5
-1.002, -1.467e-5
-1.001, -1.545e-5
