Sept. 23, 2024   00:34:11
Cyclic Voltammetry
File: c:/users/guazh/data/20240922_batch_417_500/2024-09-22-exp421\exp421-2024-09-23t00_10_36-arkoh\exp421_cv_sr_500mvs_efin_-1800mv.bin
Data Source:  Experiment
Instrument Model:  CHI760E
Header: CV ran at 500 mVs
Note: 

Init E (V) = -1
High E (V) = -1
Low E (V) = -1.8
Final E (V) = -1
Init P/N = N
Scan Rate (V/s) = 0.5
Segment = 3
Sample Interval (V) = 0.001
Quiet Time (sec) = 2
Sensitivity (A/V) = 0.01
Comp R (ohm) = 2.2

Results:

Channel 1:
Segment 1:

Segment 2:

Segment 3:

Potential/V, Current/A

-1.000, 6.322e-6
-1.001, 6.322e-6
-1.002, 6.322e-6
-1.003, 6.322e-6
-1.004, 9.405e-6
-1.005, 9.405e-6
-1.006, 9.405e-6
-1.007, 9.405e-6
-1.008, 9.405e-6
-1.009, 9.405e-6
-1.010, 9.405e-6
-1.011, 9.405e-6
-1.012, 9.405e-6
-1.013, 9.405e-6
-1.014, 9.405e-6
-1.015, 9.405e-6
-1.016, 9.405e-6
-1.017, 9.405e-6
-1.018, 9.405e-6
-1.019, 9.405e-6
-1.020, 9.405e-6
-1.021, 9.405e-6
-1.022, 9.405e-6
-1.023, 9.405e-6
-1.024, 9.405e-6
-1.025, 9.405e-6
-1.026, 9.405e-6
-1.027, 9.405e-6
-1.028, 9.405e-6
-1.029, 9.405e-6
-1.030, 9.405e-6
-1.031, 9.405e-6
-1.032, 9.405e-6
-1.033, 9.405e-6
-1.034, 9.405e-6
-1.035, 9.405e-6
-1.036, 9.405e-6
-1.037, 9.405e-6
-1.038, 9.405e-6
-1.039, 9.405e-6
-1.040, 9.405e-6
-1.041, 9.405e-6
-1.042, 1.249e-5
-1.043, 9.405e-6
-1.044, 9.405e-6
-1.045, 9.405e-6
-1.046, 9.405e-6
-1.047, 1.249e-5
-1.048, 9.405e-6
-1.049, 9.405e-6
-1.050, 9.405e-6
-1.051, 9.405e-6
-1.052, 9.405e-6
-1.053, 9.405e-6
-1.054, 9.405e-6
-1.055, 9.405e-6
-1.056, 9.405e-6
-1.057, 1.249e-5
-1.058, 9.405e-6
-1.059, 1.249e-5
-1.060, 9.405e-6
-1.061, 9.405e-6
-1.062, 9.405e-6
-1.063, 1.249e-5
-1.064, 9.405e-6
-1.065, 1.249e-5
-1.066, 9.405e-6
-1.067, 9.405e-6
-1.068, 1.249e-5
-1.069, 9.405e-6
-1.070, 1.249e-5
-1.071, 1.249e-5
-1.072, 9.405e-6
-1.073, 1.249e-5
-1.074, 9.405e-6
-1.075, 1.249e-5
-1.076, 1.249e-5
-1.077, 9.405e-6
-1.078, 9.405e-6
-1.079, 1.249e-5
-1.080, 1.249e-5
-1.081, 9.405e-6
-1.082, 1.249e-5
-1.083, 1.249e-5
-1.084, 1.249e-5
-1.085, 1.249e-5
-1.086, 1.249e-5
-1.087, 1.249e-5
-1.088, 1.249e-5
-1.089, 1.249e-5
-1.090, 1.249e-5
-1.091, 1.249e-5
-1.092, 1.249e-5
-1.093, 1.249e-5
-1.094, 1.249e-5
-1.095, 1.249e-5
-1.096, 1.249e-5
-1.097, 1.249e-5
-1.098, 1.249e-5
-1.099, 1.249e-5
-1.100, 1.249e-5
-1.101, 1.249e-5
-1.102, 1.249e-5
-1.103, 1.249e-5
-1.104, 1.249e-5
-1.105, 1.249e-5
-1.106, 1.249e-5
-1.107, 1.249e-5
-1.108, 1.249e-5
-1.109, 1.249e-5
-1.110, 1.249e-5
-1.111, 1.249e-5
-1.112, 1.249e-5
-1.113, 1.249e-5
-1.114, 1.249e-5
-1.115, 1.249e-5
-1.116, 1.249e-5
-1.117, 1.249e-5
-1.118, 1.249e-5
-1.119, 1.249e-5
-1.120, 1.249e-5
-1.121, 1.249e-5
-1.122, 1.249e-5
-1.123, 1.249e-5
-1.124, 1.249e-5
-1.125, 1.249e-5
-1.126, 1.249e-5
-1.127, 1.249e-5
-1.128, 1.249e-5
-1.129, 1.249e-5
-1.130, 1.249e-5
-1.131, 1.249e-5
-1.132, 1.249e-5
-1.133, 1.249e-5
-1.134, 1.249e-5
-1.135, 1.249e-5
-1.136, 1.249e-5
-1.137, 1.249e-5
-1.138, 1.249e-5
-1.139, 1.249e-5
-1.140, 1.249e-5
-1.141, 1.249e-5
-1.142, 1.249e-5
-1.143, 1.249e-5
-1.144, 1.249e-5
-1.145, 1.249e-5
-1.146, 1.249e-5
-1.147, 1.249e-5
-1.148, 1.249e-5
-1.149, 1.249e-5
-1.150, 1.249e-5
-1.151, 1.249e-5
-1.152, 1.249e-5
-1.153, 1.557e-5
-1.154, 1.249e-5
-1.155, 1.249e-5
-1.156, 1.249e-5
-1.157, 1.557e-5
-1.158, 1.557e-5
-1.159, 1.557e-5
-1.160, 1.249e-5
-1.161, 1.249e-5
-1.162, 1.557e-5
-1.163, 1.557e-5
-1.164, 1.249e-5
-1.165, 1.557e-5
-1.166, 1.557e-5
-1.167, 1.557e-5
-1.168, 1.557e-5
-1.169, 1.557e-5
-1.170, 1.557e-5
-1.171, 1.557e-5
-1.172, 1.557e-5
-1.173, 1.249e-5
-1.174, 1.249e-5
-1.175, 1.557e-5
-1.176, 1.557e-5
-1.177, 1.557e-5
-1.178, 1.557e-5
-1.179, 1.557e-5
-1.180, 1.557e-5
-1.181, 1.557e-5
-1.182, 1.557e-5
-1.183, 1.557e-5
-1.184, 1.557e-5
-1.185, 1.557e-5
-1.186, 1.557e-5
-1.187, 1.557e-5
-1.188, 1.557e-5
-1.189, 1.557e-5
-1.190, 1.557e-5
-1.191, 1.557e-5
-1.192, 1.557e-5
-1.193, 1.557e-5
-1.194, 1.557e-5
-1.195, 1.557e-5
-1.196, 1.557e-5
-1.197, 1.557e-5
-1.198, 1.557e-5
-1.199, 1.557e-5
-1.200, 1.557e-5
-1.201, 1.557e-5
-1.202, 1.557e-5
-1.203, 1.557e-5
-1.204, 1.557e-5
-1.205, 1.557e-5
-1.206, 1.557e-5
-1.207, 1.557e-5
-1.208, 1.557e-5
-1.209, 1.557e-5
-1.210, 1.557e-5
-1.211, 1.557e-5
-1.212, 1.557e-5
-1.213, 1.557e-5
-1.214, 1.557e-5
-1.215, 1.557e-5
-1.216, 1.557e-5
-1.217, 1.865e-5
-1.218, 1.865e-5
-1.219, 1.865e-5
-1.220, 1.865e-5
-1.221, 1.865e-5
-1.222, 1.557e-5
-1.223, 1.865e-5
-1.224, 1.865e-5
-1.225, 1.865e-5
-1.226, 1.865e-5
-1.227, 1.865e-5
-1.228, 1.865e-5
-1.229, 1.865e-5
-1.230, 1.865e-5
-1.231, 1.865e-5
-1.232, 1.865e-5
-1.233, 1.865e-5
-1.234, 1.865e-5
-1.235, 1.865e-5
-1.236, 1.865e-5
-1.237, 1.865e-5
-1.238, 1.865e-5
-1.239, 1.865e-5
-1.240, 1.865e-5
-1.241, 1.865e-5
-1.242, 1.865e-5
-1.243, 1.865e-5
-1.244, 1.865e-5
-1.245, 2.174e-5
-1.246, 2.174e-5
-1.247, 2.174e-5
-1.248, 2.174e-5
-1.249, 2.174e-5
-1.250, 2.174e-5
-1.251, 2.174e-5
-1.252, 2.174e-5
-1.253, 2.174e-5
-1.254, 2.174e-5
-1.255, 2.174e-5
-1.256, 2.174e-5
-1.257, 2.174e-5
-1.258, 2.174e-5
-1.259, 2.482e-5
-1.260, 2.174e-5
-1.261, 2.174e-5
-1.262, 2.174e-5
-1.263, 2.482e-5
-1.264, 2.482e-5
-1.265, 2.174e-5
-1.266, 2.482e-5
-1.267, 2.482e-5
-1.268, 2.482e-5
-1.269, 2.482e-5
-1.270, 2.482e-5
-1.271, 2.482e-5
-1.272, 2.482e-5
-1.273, 2.482e-5
-1.274, 2.482e-5
-1.275, 2.790e-5
-1.276, 2.790e-5
-1.277, 2.790e-5
-1.278, 2.790e-5
-1.279, 2.790e-5
-1.280, 2.790e-5
-1.281, 2.790e-5
-1.282, 2.790e-5
-1.283, 2.790e-5
-1.284, 2.790e-5
-1.285, 2.790e-5
-1.286, 3.099e-5
-1.287, 2.790e-5
-1.288, 3.099e-5
-1.289, 3.099e-5
-1.290, 3.099e-5
-1.291, 3.099e-5
-1.292, 3.099e-5
-1.293, 3.099e-5
-1.294, 3.407e-5
-1.295, 3.099e-5
-1.296, 3.099e-5
-1.297, 3.407e-5
-1.298, 3.407e-5
-1.299, 3.407e-5
-1.300, 3.407e-5
-1.301, 3.407e-5
-1.302, 3.407e-5
-1.303, 3.407e-5
-1.304, 3.715e-5
-1.305, 3.715e-5
-1.306, 3.715e-5
-1.307, 3.715e-5
-1.308, 3.715e-5
-1.309, 4.024e-5
-1.310, 3.715e-5
-1.311, 3.715e-5
-1.312, 4.024e-5
-1.313, 4.024e-5
-1.314, 4.024e-5
-1.315, 4.024e-5
-1.316, 4.024e-5
-1.317, 4.332e-5
-1.318, 4.332e-5
-1.319, 4.332e-5
-1.320, 4.332e-5
-1.321, 4.640e-5
-1.322, 4.640e-5
-1.323, 4.640e-5
-1.324, 4.640e-5
-1.325, 4.640e-5
-1.326, 4.949e-5
-1.327, 4.949e-5
-1.328, 4.949e-5
-1.329, 4.949e-5
-1.330, 5.257e-5
-1.331, 5.257e-5
-1.332, 5.257e-5
-1.333, 5.257e-5
-1.334, 5.565e-5
-1.335, 5.565e-5
-1.336, 5.565e-5
-1.337, 5.565e-5
-1.338, 5.565e-5
-1.339, 5.873e-5
-1.340, 5.873e-5
-1.341, 5.873e-5
-1.342, 5.873e-5
-1.343, 6.182e-5
-1.344, 6.182e-5
-1.345, 6.182e-5
-1.346, 6.490e-5
-1.347, 6.490e-5
-1.348, 6.490e-5
-1.349, 6.490e-5
-1.350, 6.798e-5
-1.351, 6.798e-5
-1.352, 6.798e-5
-1.353, 7.107e-5
-1.354, 7.107e-5
-1.355, 7.415e-5
-1.356, 7.415e-5
-1.357, 7.415e-5
-1.358, 7.723e-5
-1.359, 7.723e-5
-1.360, 7.723e-5
-1.361, 7.723e-5
-1.362, 8.032e-5
-1.363, 8.032e-5
-1.364, 8.340e-5
-1.365, 8.340e-5
-1.366, 8.340e-5
-1.367, 8.648e-5
-1.368, 8.648e-5
-1.369, 8.957e-5
-1.370, 8.957e-5
-1.371, 9.265e-5
-1.372, 9.265e-5
-1.373, 9.265e-5
-1.374, 9.573e-5
-1.375, 9.573e-5
-1.376, 9.573e-5
-1.377, 9.882e-5
-1.378, 9.882e-5
-1.379, 1.019e-4
-1.380, 1.019e-4
-1.381, 1.050e-4
-1.382, 1.050e-4
-1.383, 1.050e-4
-1.384, 1.081e-4
-1.385, 1.081e-4
-1.386, 1.111e-4
-1.387, 1.111e-4
-1.388, 1.142e-4
-1.389, 1.142e-4
-1.390, 1.142e-4
-1.391, 1.173e-4
-1.392, 1.173e-4
-1.393, 1.204e-4
-1.394, 1.235e-4
-1.395, 1.235e-4
-1.396, 1.235e-4
-1.397, 1.266e-4
-1.398, 1.266e-4
-1.399, 1.296e-4
-1.400, 1.296e-4
-1.401, 1.296e-4
-1.402, 1.327e-4
-1.403, 1.358e-4
-1.404, 1.358e-4
-1.405, 1.389e-4
-1.406, 1.389e-4
-1.407, 1.389e-4
-1.408, 1.420e-4
-1.409, 1.451e-4
-1.410, 1.451e-4
-1.411, 1.481e-4
-1.412, 1.481e-4
-1.413, 1.512e-4
-1.414, 1.512e-4
-1.415, 1.543e-4
-1.416, 1.543e-4
-1.417, 1.574e-4
-1.418, 1.574e-4
-1.419, 1.574e-4
-1.420, 1.605e-4
-1.421, 1.636e-4
-1.422, 1.666e-4
-1.423, 1.666e-4
-1.424, 1.666e-4
-1.425, 1.697e-4
-1.426, 1.697e-4
-1.427, 1.728e-4
-1.428, 1.728e-4
-1.429, 1.759e-4
-1.430, 1.790e-4
-1.431, 1.790e-4
-1.432, 1.790e-4
-1.433, 1.821e-4
-1.434, 1.851e-4
-1.435, 1.851e-4
-1.436, 1.882e-4
-1.437, 1.882e-4
-1.438, 1.913e-4
-1.439, 1.913e-4
-1.440, 1.944e-4
-1.441, 1.944e-4
-1.442, 1.975e-4
-1.443, 1.975e-4
-1.444, 2.006e-4
-1.445, 2.006e-4
-1.446, 2.036e-4
-1.447, 2.036e-4
-1.448, 2.067e-4
-1.449, 2.098e-4
-1.450, 2.098e-4
-1.451, 2.098e-4
-1.452, 2.129e-4
-1.453, 2.160e-4
-1.454, 2.191e-4
-1.455, 2.191e-4
-1.456, 2.221e-4
-1.457, 2.221e-4
-1.458, 2.252e-4
-1.459, 2.252e-4
-1.460, 2.283e-4
-1.461, 2.283e-4
-1.462, 2.314e-4
-1.463, 2.314e-4
-1.464, 2.345e-4
-1.465, 2.376e-4
-1.466, 2.376e-4
-1.467, 2.406e-4
-1.468, 2.406e-4
-1.469, 2.437e-4
-1.470, 2.437e-4
-1.471, 2.468e-4
-1.472, 2.499e-4
-1.473, 2.499e-4
-1.474, 2.530e-4
-1.475, 2.561e-4
-1.476, 2.591e-4
-1.477, 2.591e-4
-1.478, 2.622e-4
-1.479, 2.622e-4
-1.480, 2.653e-4
-1.481, 2.684e-4
-1.482, 2.684e-4
-1.483, 2.715e-4
-1.484, 2.715e-4
-1.485, 2.746e-4
-1.486, 2.776e-4
-1.487, 2.807e-4
-1.488, 2.807e-4
-1.489, 2.838e-4
-1.490, 2.838e-4
-1.491, 2.869e-4
-1.492, 2.900e-4
-1.493, 2.931e-4
-1.494, 2.931e-4
-1.495, 2.961e-4
-1.496, 2.992e-4
-1.497, 2.992e-4
-1.498, 3.023e-4
-1.499, 3.054e-4
-1.500, 3.085e-4
-1.501, 3.115e-4
-1.502, 3.115e-4
-1.503, 3.146e-4
-1.504, 3.177e-4
-1.505, 3.208e-4
-1.506, 3.208e-4
-1.507, 3.239e-4
-1.508, 3.270e-4
-1.509, 3.300e-4
-1.510, 3.331e-4
-1.511, 3.331e-4
-1.512, 3.362e-4
-1.513, 3.393e-4
-1.514, 3.424e-4
-1.515, 3.455e-4
-1.516, 3.485e-4
-1.517, 3.516e-4
-1.518, 3.516e-4
-1.519, 3.547e-4
-1.520, 3.578e-4
-1.521, 3.609e-4
-1.522, 3.640e-4
-1.523, 3.670e-4
-1.524, 3.701e-4
-1.525, 3.732e-4
-1.526, 3.763e-4
-1.527, 3.794e-4
-1.528, 3.825e-4
-1.529, 3.825e-4
-1.530, 3.886e-4
-1.531, 3.917e-4
-1.532, 3.948e-4
-1.533, 3.948e-4
-1.534, 3.979e-4
-1.535, 4.010e-4
-1.536, 4.071e-4
-1.537, 4.102e-4
-1.538, 4.133e-4
-1.539, 4.164e-4
-1.540, 4.195e-4
-1.541, 4.225e-4
-1.542, 4.256e-4
-1.543, 4.287e-4
-1.544, 4.318e-4
-1.545, 4.380e-4
-1.546, 4.410e-4
-1.547, 4.441e-4
-1.548, 4.472e-4
-1.549, 4.503e-4
-1.550, 4.565e-4
-1.551, 4.595e-4
-1.552, 4.626e-4
-1.553, 4.657e-4
-1.554, 4.719e-4
-1.555, 4.750e-4
-1.556, 4.780e-4
-1.557, 4.842e-4
-1.558, 4.904e-4
-1.559, 4.935e-4
-1.560, 4.965e-4
-1.561, 5.027e-4
-1.562, 5.058e-4
-1.563, 5.120e-4
-1.564, 5.150e-4
-1.565, 5.212e-4
-1.566, 5.243e-4
-1.567, 5.305e-4
-1.568, 5.335e-4
-1.569, 5.397e-4
-1.570, 5.428e-4
-1.571, 5.489e-4
-1.572, 5.551e-4
-1.573, 5.613e-4
-1.574, 5.644e-4
-1.575, 5.705e-4
-1.576, 5.767e-4
-1.577, 5.829e-4
-1.578, 5.859e-4
-1.579, 5.921e-4
-1.580, 5.983e-4
-1.581, 6.044e-4
-1.582, 6.106e-4
-1.583, 6.168e-4
-1.584, 6.199e-4
-1.585, 6.260e-4
-1.586, 6.322e-4
-1.587, 6.384e-4
-1.588, 6.476e-4
-1.589, 6.538e-4
-1.590, 6.599e-4
-1.591, 6.661e-4
-1.592, 6.723e-4
-1.593, 6.784e-4
-1.594, 6.877e-4
-1.595, 6.939e-4
-1.596, 7.031e-4
-1.597, 7.093e-4
-1.598, 7.154e-4
-1.599, 7.216e-4
-1.600, 7.309e-4
-1.601, 7.370e-4
-1.602, 7.463e-4
-1.603, 7.524e-4
-1.604, 7.617e-4
-1.605, 7.679e-4
-1.606, 7.771e-4
-1.607, 7.863e-4
-1.608, 7.956e-4
-1.609, 8.018e-4
-1.610, 8.110e-4
-1.611, 8.203e-4
-1.612, 8.295e-4
-1.613, 8.388e-4
-1.614, 8.480e-4
-1.615, 8.573e-4
-1.616, 8.665e-4
-1.617, 8.758e-4
-1.618, 8.850e-4
-1.619, 8.943e-4
-1.620, 9.035e-4
-1.621, 9.128e-4
-1.622, 9.220e-4
-1.623, 9.343e-4
-1.624, 9.436e-4
-1.625, 9.528e-4
-1.626, 9.652e-4
-1.627, 9.744e-4
-1.628, 9.868e-4
-1.629, 9.960e-4
-1.630, 1.008e-3
-1.631, 1.018e-3
-1.632, 1.030e-3
-1.633, 1.042e-3
-1.634, 1.051e-3
-1.635, 1.064e-3
-1.636, 1.076e-3
-1.637, 1.085e-3
-1.638, 1.098e-3
-1.639, 1.113e-3
-1.640, 1.125e-3
-1.641, 1.138e-3
-1.642, 1.150e-3
-1.643, 1.159e-3
-1.644, 1.175e-3
-1.645, 1.187e-3
-1.646, 1.203e-3
-1.647, 1.215e-3
-1.648, 1.227e-3
-1.649, 1.240e-3
-1.650, 1.252e-3
-1.651, 1.264e-3
-1.652, 1.280e-3
-1.653, 1.295e-3
-1.654, 1.310e-3
-1.655, 1.326e-3
-1.656, 1.341e-3
-1.657, 1.357e-3
-1.658, 1.369e-3
-1.659, 1.388e-3
-1.660, 1.403e-3
-1.661, 1.415e-3
-1.662, 1.434e-3
-1.663, 1.446e-3
-1.664, 1.462e-3
-1.665, 1.477e-3
-1.666, 1.492e-3
-1.667, 1.508e-3
-1.668, 1.526e-3
-1.669, 1.542e-3
-1.670, 1.560e-3
-1.671, 1.579e-3
-1.672, 1.597e-3
-1.673, 1.613e-3
-1.674, 1.631e-3
-1.675, 1.647e-3
-1.676, 1.665e-3
-1.677, 1.684e-3
-1.678, 1.708e-3
-1.679, 1.727e-3
-1.680, 1.745e-3
-1.681, 1.761e-3
-1.682, 1.779e-3
-1.683, 1.795e-3
-1.684, 1.813e-3
-1.685, 1.832e-3
-1.686, 1.850e-3
-1.687, 1.872e-3
-1.688, 1.890e-3
-1.689, 1.912e-3
-1.690, 1.930e-3
-1.691, 1.952e-3
-1.692, 1.973e-3
-1.693, 1.995e-3
-1.694, 2.020e-3
-1.695, 2.041e-3
-1.696, 2.063e-3
-1.697, 2.084e-3
-1.698, 2.103e-3
-1.699, 2.124e-3
-1.700, 2.149e-3
-1.701, 2.171e-3
-1.702, 2.195e-3
-1.703, 2.214e-3
-1.704, 2.235e-3
-1.705, 2.254e-3
-1.706, 2.279e-3
-1.707, 2.303e-3
-1.708, 2.328e-3
-1.709, 2.356e-3
-1.710, 2.383e-3
-1.711, 2.408e-3
-1.712, 2.430e-3
-1.713, 2.451e-3
-1.714, 2.476e-3
-1.715, 2.501e-3
-1.716, 2.528e-3
-1.717, 2.556e-3
-1.718, 2.581e-3
-1.719, 2.602e-3
-1.720, 2.624e-3
-1.721, 2.649e-3
-1.722, 2.673e-3
-1.723, 2.698e-3
-1.724, 2.726e-3
-1.725, 2.756e-3
-1.726, 2.781e-3
-1.727, 2.806e-3
-1.728, 2.830e-3
-1.729, 2.858e-3
-1.730, 2.886e-3
-1.731, 2.914e-3
-1.732, 2.941e-3
-1.733, 2.969e-3
-1.734, 2.994e-3
-1.735, 3.019e-3
-1.736, 3.046e-3
-1.737, 3.074e-3
-1.738, 3.105e-3
-1.739, 3.136e-3
-1.740, 3.167e-3
-1.741, 3.194e-3
-1.742, 3.219e-3
-1.743, 3.244e-3
-1.744, 3.271e-3
-1.745, 3.302e-3
-1.746, 3.333e-3
-1.747, 3.367e-3
-1.748, 3.398e-3
-1.749, 3.429e-3
-1.750, 3.453e-3
-1.751, 3.481e-3
-1.752, 3.509e-3
-1.753, 3.540e-3
-1.754, 3.573e-3
-1.755, 3.604e-3
-1.756, 3.635e-3
-1.757, 3.666e-3
-1.758, 3.700e-3
-1.759, 3.731e-3
-1.760, 3.762e-3
-1.761, 3.789e-3
-1.762, 3.820e-3
-1.763, 3.854e-3
-1.764, 3.888e-3
-1.765, 3.925e-3
-1.766, 3.959e-3
-1.767, 3.990e-3
-1.768, 4.021e-3
-1.769, 4.048e-3
-1.770, 4.082e-3
-1.771, 4.116e-3
-1.772, 4.150e-3
-1.773, 4.181e-3
-1.774, 4.212e-3
-1.775, 4.243e-3
-1.776, 4.276e-3
-1.777, 4.310e-3
-1.778, 4.341e-3
-1.779, 4.369e-3
-1.780, 4.397e-3
-1.781, 4.431e-3
-1.782, 4.468e-3
-1.783, 4.501e-3
-1.784, 4.535e-3
-1.785, 4.569e-3
-1.786, 4.603e-3
-1.787, 4.637e-3
-1.788, 4.671e-3
-1.789, 4.705e-3
-1.790, 4.739e-3
-1.791, 4.773e-3
-1.792, 4.810e-3
-1.793, 4.847e-3
-1.794, 4.884e-3
-1.795, 4.921e-3
-1.796, 4.952e-3
-1.797, 4.982e-3
-1.798, 5.013e-3
-1.799, 5.050e-3
-1.800, 5.063e-3
-1.799, 5.041e-3
-1.798, 5.019e-3
-1.797, 4.998e-3
-1.796, 4.973e-3
-1.795, 4.942e-3
-1.794, 4.908e-3
-1.793, 4.881e-3
-1.792, 4.850e-3
-1.791, 4.828e-3
-1.790, 4.804e-3
-1.789, 4.776e-3
-1.788, 4.745e-3
-1.787, 4.714e-3
-1.786, 4.683e-3
-1.785, 4.653e-3
-1.784, 4.628e-3
-1.783, 4.603e-3
-1.782, 4.582e-3
-1.781, 4.551e-3
-1.780, 4.520e-3
-1.779, 4.492e-3
-1.778, 4.468e-3
-1.777, 4.440e-3
-1.776, 4.418e-3
-1.775, 4.397e-3
-1.774, 4.372e-3
-1.773, 4.341e-3
-1.772, 4.310e-3
-1.771, 4.280e-3
-1.770, 4.258e-3
-1.769, 4.230e-3
-1.768, 4.206e-3
-1.767, 4.181e-3
-1.766, 4.147e-3
-1.765, 4.116e-3
-1.764, 4.085e-3
-1.763, 4.054e-3
-1.762, 4.033e-3
-1.761, 4.011e-3
-1.760, 3.984e-3
-1.759, 3.953e-3
-1.758, 3.925e-3
-1.757, 3.894e-3
-1.756, 3.866e-3
-1.755, 3.836e-3
-1.754, 3.808e-3
-1.753, 3.777e-3
-1.752, 3.749e-3
-1.751, 3.721e-3
-1.750, 3.697e-3
-1.749, 3.669e-3
-1.748, 3.641e-3
-1.747, 3.614e-3
-1.746, 3.586e-3
-1.745, 3.558e-3
-1.744, 3.533e-3
-1.743, 3.512e-3
-1.742, 3.490e-3
-1.741, 3.469e-3
-1.740, 3.444e-3
-1.739, 3.416e-3
-1.738, 3.392e-3
-1.737, 3.364e-3
-1.736, 3.339e-3
-1.735, 3.314e-3
-1.734, 3.287e-3
-1.733, 3.262e-3
-1.732, 3.237e-3
-1.731, 3.210e-3
-1.730, 3.182e-3
-1.729, 3.157e-3
-1.728, 3.130e-3
-1.727, 3.102e-3
-1.726, 3.077e-3
-1.725, 3.056e-3
-1.724, 3.031e-3
-1.723, 3.009e-3
-1.722, 2.985e-3
-1.721, 2.957e-3
-1.720, 2.932e-3
-1.719, 2.908e-3
-1.718, 2.886e-3
-1.717, 2.864e-3
-1.716, 2.840e-3
-1.715, 2.815e-3
-1.714, 2.787e-3
-1.713, 2.760e-3
-1.712, 2.735e-3
-1.711, 2.710e-3
-1.710, 2.689e-3
-1.709, 2.667e-3
-1.708, 2.645e-3
-1.707, 2.621e-3
-1.706, 2.596e-3
-1.705, 2.575e-3
-1.704, 2.550e-3
-1.703, 2.531e-3
-1.702, 2.510e-3
-1.701, 2.485e-3
-1.700, 2.464e-3
-1.699, 2.439e-3
-1.698, 2.411e-3
-1.697, 2.390e-3
-1.696, 2.365e-3
-1.695, 2.343e-3
-1.694, 2.325e-3
-1.693, 2.306e-3
-1.692, 2.282e-3
-1.691, 2.257e-3
-1.690, 2.235e-3
-1.689, 2.214e-3
-1.688, 2.195e-3
-1.687, 2.177e-3
-1.686, 2.161e-3
-1.685, 2.143e-3
-1.684, 2.121e-3
-1.683, 2.103e-3
-1.682, 2.081e-3
-1.681, 2.063e-3
-1.680, 2.041e-3
-1.679, 2.023e-3
-1.678, 2.004e-3
-1.677, 1.986e-3
-1.676, 1.964e-3
-1.675, 1.946e-3
-1.674, 1.927e-3
-1.673, 1.909e-3
-1.672, 1.890e-3
-1.671, 1.875e-3
-1.670, 1.856e-3
-1.669, 1.838e-3
-1.668, 1.819e-3
-1.667, 1.801e-3
-1.666, 1.782e-3
-1.665, 1.767e-3
-1.664, 1.751e-3
-1.663, 1.736e-3
-1.662, 1.717e-3
-1.661, 1.699e-3
-1.660, 1.680e-3
-1.659, 1.662e-3
-1.658, 1.647e-3
-1.657, 1.631e-3
-1.656, 1.613e-3
-1.655, 1.594e-3
-1.654, 1.576e-3
-1.653, 1.560e-3
-1.652, 1.542e-3
-1.651, 1.526e-3
-1.650, 1.511e-3
-1.649, 1.492e-3
-1.648, 1.477e-3
-1.647, 1.462e-3
-1.646, 1.443e-3
-1.645, 1.428e-3
-1.644, 1.412e-3
-1.643, 1.400e-3
-1.642, 1.384e-3
-1.641, 1.369e-3
-1.640, 1.357e-3
-1.639, 1.341e-3
-1.638, 1.326e-3
-1.637, 1.307e-3
-1.636, 1.295e-3
-1.635, 1.280e-3
-1.634, 1.267e-3
-1.633, 1.252e-3
-1.632, 1.240e-3
-1.631, 1.224e-3
-1.630, 1.209e-3
-1.629, 1.196e-3
-1.628, 1.184e-3
-1.627, 1.172e-3
-1.626, 1.156e-3
-1.625, 1.144e-3
-1.624, 1.132e-3
-1.623, 1.119e-3
-1.622, 1.104e-3
-1.621, 1.092e-3
-1.620, 1.079e-3
-1.619, 1.067e-3
-1.618, 1.055e-3
-1.617, 1.042e-3
-1.616, 1.030e-3
-1.615, 1.018e-3
-1.614, 1.005e-3
-1.613, 9.929e-4
-1.612, 9.806e-4
-1.611, 9.713e-4
-1.610, 9.590e-4
-1.609, 9.467e-4
-1.608, 9.343e-4
-1.607, 9.251e-4
-1.606, 9.128e-4
-1.605, 9.004e-4
-1.604, 8.912e-4
-1.603, 8.819e-4
-1.602, 8.696e-4
-1.601, 8.573e-4
-1.600, 8.480e-4
-1.599, 8.357e-4
-1.598, 8.264e-4
-1.597, 8.172e-4
-1.596, 8.048e-4
-1.595, 7.956e-4
-1.594, 7.863e-4
-1.593, 7.740e-4
-1.592, 7.648e-4
-1.591, 7.555e-4
-1.590, 7.463e-4
-1.589, 7.370e-4
-1.588, 7.278e-4
-1.587, 7.185e-4
-1.586, 7.093e-4
-1.585, 7.000e-4
-1.584, 6.908e-4
-1.583, 6.815e-4
-1.582, 6.723e-4
-1.581, 6.630e-4
-1.580, 6.538e-4
-1.579, 6.476e-4
-1.578, 6.384e-4
-1.577, 6.291e-4
-1.576, 6.199e-4
-1.575, 6.137e-4
-1.574, 6.044e-4
-1.573, 5.983e-4
-1.572, 5.921e-4
-1.571, 5.829e-4
-1.570, 5.736e-4
-1.569, 5.674e-4
-1.568, 5.582e-4
-1.567, 5.520e-4
-1.566, 5.459e-4
-1.565, 5.366e-4
-1.564, 5.305e-4
-1.563, 5.212e-4
-1.562, 5.181e-4
-1.561, 5.089e-4
-1.560, 5.027e-4
-1.559, 4.965e-4
-1.558, 4.904e-4
-1.557, 4.811e-4
-1.556, 4.750e-4
-1.555, 4.688e-4
-1.554, 4.626e-4
-1.553, 4.565e-4
-1.552, 4.503e-4
-1.551, 4.441e-4
-1.550, 4.380e-4
-1.549, 4.318e-4
-1.548, 4.256e-4
-1.547, 4.195e-4
-1.546, 4.164e-4
-1.545, 4.071e-4
-1.544, 4.040e-4
-1.543, 3.979e-4
-1.542, 3.948e-4
-1.541, 3.886e-4
-1.540, 3.825e-4
-1.539, 3.763e-4
-1.538, 3.701e-4
-1.537, 3.640e-4
-1.536, 3.609e-4
-1.535, 3.547e-4
-1.534, 3.516e-4
-1.533, 3.455e-4
-1.532, 3.393e-4
-1.531, 3.362e-4
-1.530, 3.300e-4
-1.529, 3.270e-4
-1.528, 3.208e-4
-1.527, 3.177e-4
-1.526, 3.115e-4
-1.525, 3.085e-4
-1.524, 3.023e-4
-1.523, 2.992e-4
-1.522, 2.961e-4
-1.521, 2.931e-4
-1.520, 2.869e-4
-1.519, 2.838e-4
-1.518, 2.807e-4
-1.517, 2.746e-4
-1.516, 2.715e-4
-1.515, 2.684e-4
-1.514, 2.622e-4
-1.513, 2.591e-4
-1.512, 2.561e-4
-1.511, 2.530e-4
-1.510, 2.499e-4
-1.509, 2.468e-4
-1.508, 2.437e-4
-1.507, 2.376e-4
-1.506, 2.345e-4
-1.505, 2.314e-4
-1.504, 2.283e-4
-1.503, 2.252e-4
-1.502, 2.221e-4
-1.501, 2.191e-4
-1.500, 2.160e-4
-1.499, 2.129e-4
-1.498, 2.098e-4
-1.497, 2.067e-4
-1.496, 2.036e-4
-1.495, 2.006e-4
-1.494, 1.975e-4
-1.493, 1.975e-4
-1.492, 1.944e-4
-1.491, 1.913e-4
-1.490, 1.882e-4
-1.489, 1.851e-4
-1.488, 1.821e-4
-1.487, 1.790e-4
-1.486, 1.759e-4
-1.485, 1.759e-4
-1.484, 1.728e-4
-1.483, 1.697e-4
-1.482, 1.666e-4
-1.481, 1.636e-4
-1.480, 1.636e-4
-1.479, 1.605e-4
-1.478, 1.574e-4
-1.477, 1.574e-4
-1.476, 1.543e-4
-1.475, 1.543e-4
-1.474, 1.512e-4
-1.473, 1.481e-4
-1.472, 1.451e-4
-1.471, 1.420e-4
-1.470, 1.420e-4
-1.469, 1.389e-4
-1.468, 1.358e-4
-1.467, 1.358e-4
-1.466, 1.327e-4
-1.465, 1.327e-4
-1.464, 1.296e-4
-1.463, 1.266e-4
-1.462, 1.266e-4
-1.461, 1.235e-4
-1.460, 1.235e-4
-1.459, 1.204e-4
-1.458, 1.173e-4
-1.457, 1.173e-4
-1.456, 1.142e-4
-1.455, 1.142e-4
-1.454, 1.111e-4
-1.453, 1.111e-4
-1.452, 1.081e-4
-1.451, 1.081e-4
-1.450, 1.081e-4
-1.449, 1.019e-4
-1.448, 1.019e-4
-1.447, 1.019e-4
-1.446, 9.882e-5
-1.445, 9.882e-5
-1.444, 9.573e-5
-1.443, 9.573e-5
-1.442, 9.573e-5
-1.441, 9.265e-5
-1.440, 8.957e-5
-1.439, 8.957e-5
-1.438, 8.957e-5
-1.437, 8.648e-5
-1.436, 8.340e-5
-1.435, 8.340e-5
-1.434, 8.340e-5
-1.433, 8.340e-5
-1.432, 8.032e-5
-1.431, 8.032e-5
-1.430, 7.723e-5
-1.429, 7.723e-5
-1.428, 7.723e-5
-1.427, 7.415e-5
-1.426, 7.415e-5
-1.425, 7.415e-5
-1.424, 7.107e-5
-1.423, 7.107e-5
-1.422, 6.798e-5
-1.421, 6.798e-5
-1.420, 6.798e-5
-1.419, 6.798e-5
-1.418, 6.490e-5
-1.417, 6.490e-5
-1.416, 6.182e-5
-1.415, 6.182e-5
-1.414, 6.182e-5
-1.413, 5.873e-5
-1.412, 5.873e-5
-1.411, 5.873e-5
-1.410, 5.873e-5
-1.409, 5.565e-5
-1.408, 5.565e-5
-1.407, 5.257e-5
-1.406, 5.257e-5
-1.405, 5.257e-5
-1.404, 5.257e-5
-1.403, 4.949e-5
-1.402, 4.949e-5
-1.401, 4.949e-5
-1.400, 4.949e-5
-1.399, 4.640e-5
-1.398, 4.640e-5
-1.397, 4.640e-5
-1.396, 4.640e-5
-1.395, 4.332e-5
-1.394, 4.332e-5
-1.393, 4.024e-5
-1.392, 4.332e-5
-1.391, 4.024e-5
-1.390, 4.024e-5
-1.389, 3.715e-5
-1.388, 3.715e-5
-1.387, 3.715e-5
-1.386, 3.715e-5
-1.385, 3.715e-5
-1.384, 3.407e-5
-1.383, 3.407e-5
-1.382, 3.407e-5
-1.381, 3.407e-5
-1.380, 3.099e-5
-1.379, 3.407e-5
-1.378, 3.099e-5
-1.377, 3.099e-5
-1.376, 3.099e-5
-1.375, 3.099e-5
-1.374, 2.790e-5
-1.373, 2.790e-5
-1.372, 2.790e-5
-1.371, 2.790e-5
-1.370, 2.790e-5
-1.369, 2.482e-5
-1.368, 2.482e-5
-1.367, 2.482e-5
-1.366, 2.482e-5
-1.365, 2.482e-5
-1.364, 2.174e-5
-1.363, 2.174e-5
-1.362, 2.174e-5
-1.361, 2.174e-5
-1.360, 2.174e-5
-1.359, 2.174e-5
-1.358, 1.865e-5
-1.357, 1.865e-5
-1.356, 1.865e-5
-1.355, 1.865e-5
-1.354, 1.865e-5
-1.353, 1.557e-5
-1.352, 1.557e-5
-1.351, 1.557e-5
-1.350, 1.557e-5
-1.349, 1.557e-5
-1.348, 1.249e-5
-1.347, 1.557e-5
-1.346, 1.557e-5
-1.345, 1.249e-5
-1.344, 1.249e-5
-1.343, 1.249e-5
-1.342, 1.249e-5
-1.341, 1.249e-5
-1.340, 1.249e-5
-1.339, 1.249e-5
-1.338, 9.405e-6
-1.337, 9.405e-6
-1.336, 9.405e-6
-1.335, 9.405e-6
-1.334, 9.405e-6
-1.333, 9.405e-6
-1.332, 9.405e-6
-1.331, 6.322e-6
-1.330, 6.322e-6
-1.329, 6.322e-6
-1.328, 6.322e-6
-1.327, 6.322e-6
-1.326, 6.322e-6
-1.325, 6.322e-6
-1.324, 6.322e-6
-1.323, 6.322e-6
-1.322, 3.239e-6
-1.321, 6.322e-6
-1.320, 3.239e-6
-1.319, 6.322e-6
-1.318, 3.239e-6
-1.317, 3.239e-6
-1.316, 3.239e-6
-1.315, 3.239e-6
-1.314, 3.239e-6
-1.313, 3.239e-6
-1.312, 3.239e-6
-1.311, 1.559e-7
-1.310, 3.239e-6
-1.309, 1.559e-7
-1.308, 1.559e-7
-1.307, 1.559e-7
-1.306, 1.559e-7
-1.305, 1.559e-7
-1.304, 1.559e-7
-1.303, 1.559e-7
-1.302, 1.559e-7
-1.301, 1.559e-7
-1.300, 1.559e-7
-1.299, 1.559e-7
-1.298, -2.927e-6
-1.297, -2.927e-6
-1.296, 1.559e-7
-1.295, -2.927e-6
-1.294, -2.927e-6
-1.293, -2.927e-6
-1.292, -2.927e-6
-1.291, -2.927e-6
-1.290, -2.927e-6
-1.289, -2.927e-6
-1.288, -2.927e-6
-1.287, -2.927e-6
-1.286, -2.927e-6
-1.285, -2.927e-6
-1.284, -2.927e-6
-1.283, -2.927e-6
-1.282, -2.927e-6
-1.281, -2.927e-6
-1.280, -6.010e-6
-1.279, -6.010e-6
-1.278, -6.010e-6
-1.277, -6.010e-6
-1.276, -6.010e-6
-1.275, -6.010e-6
-1.274, -6.010e-6
-1.273, -6.010e-6
-1.272, -6.010e-6
-1.271, -6.010e-6
-1.270, -6.010e-6
-1.269, -6.010e-6
-1.268, -6.010e-6
-1.267, -6.010e-6
-1.266, -6.010e-6
-1.265, -6.010e-6
-1.264, -6.010e-6
-1.263, -6.010e-6
-1.262, -9.093e-6
-1.261, -6.010e-6
-1.260, -6.010e-6
-1.259, -6.010e-6
-1.258, -6.010e-6
-1.257, -9.093e-6
-1.256, -6.010e-6
-1.255, -6.010e-6
-1.254, -6.010e-6
-1.253, -9.093e-6
-1.252, -9.093e-6
-1.251, -9.093e-6
-1.250, -6.010e-6
-1.249, -9.093e-6
-1.248, -9.093e-6
-1.247, -9.093e-6
-1.246, -9.093e-6
-1.245, -6.010e-6
-1.244, -9.093e-6
-1.243, -9.093e-6
-1.242, -9.093e-6
-1.241, -9.093e-6
-1.240, -9.093e-6
-1.239, -9.093e-6
-1.238, -9.093e-6
-1.237, -9.093e-6
-1.236, -9.093e-6
-1.235, -9.093e-6
-1.234, -9.093e-6
-1.233, -9.093e-6
-1.232, -9.093e-6
-1.231, -9.093e-6
-1.230, -9.093e-6
-1.229, -9.093e-6
-1.228, -9.093e-6
-1.227, -9.093e-6
-1.226, -9.093e-6
-1.225, -9.093e-6
-1.224, -9.093e-6
-1.223, -9.093e-6
-1.222, -9.093e-6
-1.221, -9.093e-6
-1.220, -9.093e-6
-1.219, -9.093e-6
-1.218, -9.093e-6
-1.217, -9.093e-6
-1.216, -9.093e-6
-1.215, -9.093e-6
-1.214, -9.093e-6
-1.213, -1.218e-5
-1.212, -9.093e-6
-1.211, -1.218e-5
-1.210, -1.218e-5
-1.209, -9.093e-6
-1.208, -9.093e-6
-1.207, -1.218e-5
-1.206, -1.218e-5
-1.205, -9.093e-6
-1.204, -1.218e-5
-1.203, -9.093e-6
-1.202, -1.218e-5
-1.201, -1.218e-5
-1.200, -9.093e-6
-1.199, -1.218e-5
-1.198, -1.218e-5
-1.197, -1.218e-5
-1.196, -1.218e-5
-1.195, -9.093e-6
-1.194, -1.218e-5
-1.193, -1.218e-5
-1.192, -1.218e-5
-1.191, -1.218e-5
-1.190, -1.218e-5
-1.189, -1.218e-5
-1.188, -1.218e-5
-1.187, -1.218e-5
-1.186, -1.218e-5
-1.185, -1.218e-5
-1.184, -1.218e-5
-1.183, -1.218e-5
-1.182, -1.218e-5
-1.181, -1.218e-5
-1.180, -1.218e-5
-1.179, -1.218e-5
-1.178, -1.218e-5
-1.177, -1.218e-5
-1.176, -1.218e-5
-1.175, -1.218e-5
-1.174, -1.218e-5
-1.173, -1.218e-5
-1.172, -1.218e-5
-1.171, -1.218e-5
-1.170, -1.218e-5
-1.169, -1.218e-5
-1.168, -1.218e-5
-1.167, -1.218e-5
-1.166, -1.218e-5
-1.165, -1.218e-5
-1.164, -1.218e-5
-1.163, -1.218e-5
-1.162, -1.218e-5
-1.161, -1.218e-5
-1.160, -1.218e-5
-1.159, -1.218e-5
-1.158, -1.218e-5
-1.157, -1.218e-5
-1.156, -1.218e-5
-1.155, -1.218e-5
-1.154, -1.218e-5
-1.153, -1.218e-5
-1.152, -1.218e-5
-1.151, -1.218e-5
-1.150, -1.218e-5
-1.149, -1.218e-5
-1.148, -1.218e-5
-1.147, -1.218e-5
-1.146, -1.218e-5
-1.145, -1.218e-5
-1.144, -1.218e-5
-1.143, -1.218e-5
-1.142, -1.218e-5
-1.141, -1.218e-5
-1.140, -1.218e-5
-1.139, -1.218e-5
-1.138, -1.218e-5
-1.137, -1.218e-5
-1.136, -1.218e-5
-1.135, -1.218e-5
-1.134, -1.218e-5
-1.133, -1.218e-5
-1.132, -1.218e-5
-1.131, -1.218e-5
-1.130, -1.218e-5
-1.129, -1.218e-5
-1.128, -1.218e-5
-1.127, -1.218e-5
-1.126, -1.218e-5
-1.125, -1.218e-5
-1.124, -1.218e-5
-1.123, -1.526e-5
-1.122, -1.218e-5
-1.121, -1.218e-5
-1.120, -1.218e-5
-1.119, -1.526e-5
-1.118, -1.218e-5
-1.117, -1.218e-5
-1.116, -1.218e-5
-1.115, -1.526e-5
-1.114, -1.218e-5
-1.113, -1.218e-5
-1.112, -1.218e-5
-1.111, -1.218e-5
-1.110, -1.526e-5
-1.109, -1.218e-5
-1.108, -1.218e-5
-1.107, -1.218e-5
-1.106, -1.526e-5
-1.105, -1.526e-5
-1.104, -1.218e-5
-1.103, -1.218e-5
-1.102, -1.526e-5
-1.101, -1.526e-5
-1.100, -1.526e-5
-1.099, -1.526e-5
-1.098, -1.526e-5
-1.097, -1.526e-5
-1.096, -1.526e-5
-1.095, -1.218e-5
-1.094, -1.526e-5
-1.093, -1.526e-5
-1.092, -1.526e-5
-1.091, -1.526e-5
-1.090, -1.526e-5
-1.089, -1.526e-5
-1.088, -1.526e-5
-1.087, -1.526e-5
-1.086, -1.526e-5
-1.085, -1.526e-5
-1.084, -1.526e-5
-1.083, -1.526e-5
-1.082, -1.526e-5
-1.081, -1.526e-5
-1.080, -1.526e-5
-1.079, -1.526e-5
-1.078, -1.526e-5
-1.077, -1.526e-5
-1.076, -1.526e-5
-1.075, -1.526e-5
-1.074, -1.526e-5
-1.073, -1.526e-5
-1.072, -1.526e-5
-1.071, -1.526e-5
-1.070, -1.526e-5
-1.069, -1.526e-5
-1.068, -1.526e-5
-1.067, -1.526e-5
-1.066, -1.526e-5
-1.065, -1.526e-5
-1.064, -1.526e-5
-1.063, -1.526e-5
-1.062, -1.526e-5
-1.061, -1.526e-5
-1.060, -1.526e-5
-1.059, -1.526e-5
-1.058, -1.526e-5
-1.057, -1.526e-5
-1.056, -1.526e-5
-1.055, -1.526e-5
-1.054, -1.526e-5
-1.053, -1.526e-5
-1.052, -1.526e-5
-1.051, -1.526e-5
-1.050, -1.526e-5
-1.049, -1.526e-5
-1.048, -1.526e-5
-1.047, -1.526e-5
-1.046, -1.526e-5
-1.045, -1.526e-5
-1.044, -1.526e-5
-1.043, -1.526e-5
-1.042, -1.526e-5
-1.041, -1.526e-5
-1.040, -1.834e-5
-1.039, -1.526e-5
-1.038, -1.526e-5
-1.037, -1.526e-5
-1.036, -1.526e-5
-1.035, -1.526e-5
-1.034, -1.526e-5
-1.033, -1.834e-5
-1.032, -1.834e-5
-1.031, -1.834e-5
-1.030, -1.834e-5
-1.029, -1.834e-5
-1.028, -1.834e-5
-1.027, -1.834e-5
-1.026, -1.526e-5
-1.025, -1.526e-5
-1.024, -1.834e-5
-1.023, -1.834e-5
-1.022, -1.834e-5
-1.021, -1.834e-5
-1.020, -1.834e-5
-1.019, -1.834e-5
-1.018, -1.834e-5
-1.017, -1.526e-5
-1.016, -1.834e-5
-1.015, -1.834e-5
-1.014, -1.834e-5
-1.013, -1.834e-5
-1.012, -1.834e-5
-1.011, -1.834e-5
-1.010, -1.834e-5
-1.009, -1.834e-5
-1.008, -1.834e-5
-1.007, -1.834e-5
-1.006, -1.834e-5
-1.005, -1.834e-5
-1.004, -1.834e-5
-1.003, -1.834e-5
-1.002, -1.834e-5
-1.001, -1.834e-5
