Potential V vs RHE, Current mA cm-2
0.013299999999999867,-0.26384365742482935
0.012299999999999978,-2.4446211261667834
0.011299999999999866,-4.1889601589003735
0.010299999999999976,-5.672992312458796
0.009299999999999864,-6.893888164242324
0.008299999999999974,-7.853062425550818
0.007299999999999862,-8.725939297567548
0.006299999999999972,-9.423391968401008
0.00529999999999986,-10.034547249942705
0.0042999999999999705,-10.601846481188586
0.0032999999999998586,-11.123874950838783
0.0022999999999999687,-11.517164692201263
0.0012999999999998568,-11.86659838326793
0.00029999999999996696,-12.12831997374296
-0.000700000000000145,-12.432482903213943
-0.0017000000000000348,-12.651763154693022
-0.0027000000000001467,-12.913484745168056
-0.0037000000000000366,-13.13135028534727
-0.0047000000000001485,-13.30535977523067
-0.005700000000000038,-13.436927926118118
-0.00670000000000015,-13.567081365705702
-0.00770000000000004,-13.698649516593148
-0.008700000000000152,-13.828802956180734
-0.009700000000000042,-13.960371107068182
-0.010700000000000154,-14.090524546655764
-0.011700000000000044,-14.175407224647667
-0.012700000000000156,-14.217848563643619
-0.013700000000000045,-14.26028990263957
-0.014700000000000157,-14.345172580631472
-0.015700000000000047,-14.444202371622024
-0.01670000000000016,-14.57152638860988
-0.01770000000000005,-14.61396772760583
-0.01870000000000016,-14.65640906660178
-0.01970000000000005,-14.69885040559773
-0.020700000000000163,-14.69885040559773
-0.021700000000000053,-14.783733083589633
-0.022700000000000164,-14.826174422585586
-0.023700000000000054,-14.868615761581536
-0.024700000000000166,-14.925204213576137
-0.025700000000000056,-14.925204213576137
-0.026700000000000168,-14.925204213576137
-0.027700000000000058,-14.967645552572087
-0.02870000000000017,-14.967645552572087
-0.02970000000000006,-15.05252823056399
-0.03070000000000017,-15.094969569559943
-0.03170000000000006,-15.137410908555893
-0.03270000000000017,-15.137410908555893
-0.03370000000000006,-15.137410908555893
-0.034700000000000175,-15.179852247551842
-0.035700000000000065,-15.179852247551842
-0.03670000000000018,-15.264734925543747
-0.03770000000000007,-15.307176264539699
-0.03870000000000018,-15.307176264539699
-0.03970000000000007,-15.264734925543747
-0.04070000000000018,-15.307176264539699
-0.04170000000000007,-15.307176264539699
-0.04270000000000018,-15.349617603535648
-0.04370000000000007,-15.448647394526201
-0.044700000000000184,-15.3920589425316
-0.045700000000000074,-15.448647394526201
-0.046700000000000186,-15.3920589425316
-0.047700000000000076,-15.448647394526201
-0.04870000000000019,-15.491088733522153
-0.04970000000000008,-15.533530072518102
-0.05070000000000019,-15.533530072518102
-0.05170000000000008,-15.575971411514052
-0.05270000000000019,-15.575971411514052
-0.05370000000000008,-15.575971411514052
-0.05470000000000019,-15.575971411514052
-0.05570000000000008,-15.618412750510005
-0.056700000000000195,-15.660854089505953
-0.057700000000000085,-15.660854089505953
-0.058700000000000196,-15.660854089505953
-0.059700000000000086,-15.70329542850191
-0.0607000000000002,-15.660854089505953
-0.06170000000000009,-15.70329542850191
-0.0627000000000002,-15.74573676749786
-0.06370000000000009,-15.74573676749786
-0.0647000000000002,-15.74573676749786
-0.06570000000000009,-15.74573676749786
-0.0667000000000002,-15.70329542850191
-0.0677000000000001,-15.70329542850191
-0.0687000000000002,-15.70329542850191
-0.0697000000000001,-15.74573676749786
-0.07070000000000021,-15.74573676749786
-0.0717000000000001,-15.78817810649381
-0.07270000000000021,-15.74573676749786
-0.0737000000000001,-15.74573676749786
-0.07470000000000021,-15.74573676749786
-0.0757000000000001,-15.78817810649381
-0.07670000000000021,-15.78817810649381
-0.0777000000000001,-15.830619445489761
-0.07870000000000021,-15.78817810649381
-0.0797000000000001,-15.78817810649381
-0.08070000000000022,-15.78817810649381
-0.0817000000000001,-15.78817810649381
-0.08270000000000022,-15.78817810649381
-0.08370000000000011,-15.830619445489761
-0.08470000000000022,-15.830619445489761
-0.08570000000000011,-15.78817810649381
-0.08670000000000022,-15.74573676749786
-0.08770000000000011,-15.70329542850191
-0.08870000000000022,-15.74573676749786
-0.08970000000000011,-15.78817810649381
-0.09070000000000022,-15.78817810649381
-0.09170000000000011,-15.78817810649381
-0.09270000000000023,-15.78817810649381
-0.09370000000000012,-15.74573676749786
-0.09470000000000023,-15.74573676749786
-0.09570000000000012,-15.74573676749786
-0.09670000000000023,-15.830619445489761
-0.09770000000000012,-15.830619445489761
-0.09870000000000023,-15.78817810649381
-0.09970000000000012,-15.78817810649381
-0.10070000000000023,-15.74573676749786
-0.10170000000000012,-15.78817810649381
-0.10270000000000024,-15.830619445489761
-0.10370000000000013,-15.830619445489761
-0.10470000000000024,-15.830619445489761
-0.10570000000000013,-15.830619445489761
-0.10670000000000024,-15.830619445489761
-0.10770000000000013,-15.830619445489761
-0.10870000000000024,-15.830619445489761
-0.10970000000000013,-15.87306078448571
-0.11070000000000024,-15.87306078448571
-0.11170000000000013,-15.87306078448571
-0.11270000000000002,-15.830619445489761
-0.11370000000000013,-15.830619445489761
-0.11470000000000002,-15.830619445489761
-0.11570000000000014,-15.830619445489761
-0.11670000000000003,-15.87306078448571
-0.11770000000000014,-15.87306078448571
-0.11870000000000003,-15.87306078448571
-0.11970000000000014,-15.830619445489761
-0.12070000000000003,-15.830619445489761
-0.12170000000000014,-15.830619445489761
-0.12270000000000003,-15.87306078448571
-0.12370000000000014,-15.91550212348166
-0.12470000000000003,-15.91550212348166
-0.12570000000000014,-15.87306078448571
-0.12670000000000003,-15.87306078448571
-0.12770000000000015,-15.830619445489761
-0.12870000000000004,-15.87306078448571
-0.12970000000000015,-15.91550212348166
-0.13070000000000004,-15.91550212348166
-0.13170000000000015,-15.972090575476265
-0.13270000000000004,-15.972090575476265
-0.13370000000000015,-15.91550212348166
-0.13470000000000004,-15.91550212348166
-0.13570000000000015,-15.972090575476265
-0.13670000000000004,-16.014531914472215
-0.13770000000000016,-16.014531914472215
-0.13870000000000005,-16.014531914472215
-0.13970000000000016,-15.972090575476265
-0.14070000000000005,-15.972090575476265
-0.14170000000000016,-15.972090575476265
-0.14270000000000005,-16.014531914472215
-0.14370000000000016,-16.056973253468165
-0.14470000000000005,-16.056973253468165
-0.14570000000000016,-16.056973253468165
-0.14670000000000005,-16.014531914472215
-0.14770000000000016,-16.056973253468165
-0.14870000000000005,-16.056973253468165
-0.14970000000000017,-16.099414592464115
-0.15070000000000006,-16.141855931460068
-0.15170000000000017,-16.099414592464115
-0.15270000000000006,-16.099414592464115
-0.15370000000000017,-16.099414592464115
-0.15470000000000006,-16.141855931460068
-0.15570000000000017,-16.141855931460068
-0.15670000000000006,-16.184297270456018
-0.15770000000000017,-16.22673860945197
-0.15870000000000006,-16.22673860945197
-0.15970000000000018,-16.22673860945197
-0.16070000000000007,-16.269179948447924
-0.16170000000000018,-16.269179948447924
-0.16270000000000007,-16.311621287443874
-0.16370000000000018,-16.354062626439823
-0.16470000000000007,-16.396503965435777
-0.16570000000000018,-16.396503965435777
-0.16670000000000007,-16.354062626439823
-0.16770000000000018,-16.354062626439823
-0.16870000000000007,-16.396503965435777
-0.16970000000000018,-16.495533756426326
-0.17070000000000007,-16.53797509542228
-0.17170000000000019,-16.580416434418233
-0.17270000000000008,-16.580416434418233
-0.1737000000000002,-16.665299112410132
-0.17470000000000008,-16.70774045140608
-0.1757000000000002,-16.750181790402035
-0.17670000000000008,-16.835064468393938
-0.1777000000000002,-16.919947146385837
-0.17870000000000008,-16.962388485381787
-0.1797000000000002,-16.962388485381787
-0.18070000000000008,-16.962388485381787
-0.1817000000000002,-17.018976937376394
-0.18270000000000008,-17.018976937376394
-0.1837000000000002,-17.061418276372343
-0.1847000000000001,-17.061418276372343
-0.1857000000000002,-17.061418276372343
-0.1867000000000001,-17.103859615368293
-0.1877000000000002,-17.103859615368293
-0.1887000000000001,-17.146300954364243
-0.1897000000000002,-17.188742293360193
-0.1907000000000001,-17.2736249713521
-0.1917000000000001,-17.358507649344002
-0.19269999999999998,-17.358507649344002
-0.1937000000000001,-17.4433903273359
-0.19469999999999998,-17.48583166633185
-0.1957000000000001,-17.627302796318357
-0.19669999999999999,-17.669744135314307
-0.1977000000000001,-17.75462681330621
-0.1987,-17.797068152302163
-0.1997000000000001,-17.839509491298113
-0.2007,-17.881950830294063
-0.2017000000000001,-17.966833508285966
-0.2027,-18.06586329927652
-0.2037000000000001,-18.19318731626437
-0.2047,-18.27806999425627
-0.2057000000000001,-18.320511333252224
-0.2067,-18.362952672248177
-0.2077000000000001,-18.44783535024008
-0.2087,-18.53271802823198
-0.2097000000000001,-18.631747819222536
-0.2107,-18.716630497214435
-0.2117000000000001,-18.843954514202288
-0.2127,-18.88639585319824
-0.2137000000000001,-18.92883719219419
-0.2147,-19.01371987018609
-0.2157000000000001,-19.197632339168546
-0.2167,-19.3249563561564
-0.21770000000000012,-19.452280373144255
-0.2187,-19.49472171214021
-0.21970000000000012,-19.537163051136158
-0.2207,-19.636192842126707
-0.22170000000000012,-19.763516859114564
-0.2227,-19.890840876102416
-0.22370000000000012,-20.01816489309027
-0.2247,-20.159636023076775
-0.22570000000000012,-20.244518701068674
-0.2267,-20.329401379060574
-0.22770000000000012,-20.456725396048434
-0.22870000000000001,-20.584049413036283
-0.22970000000000013,-20.76796188201874
-0.23070000000000002,-20.89528589900659
-0.23170000000000013,-21.022609915994444
-0.23270000000000002,-21.149933932982297
-0.23370000000000013,-21.291405062968803
-0.23470000000000002,-21.418729079956652
-0.23570000000000013,-21.63093577493641
-0.23670000000000002,-21.772406904922917
-0.2376999999999999,-21.94217226090672
-0.23870000000000002,-22.111937616890522
-0.2396999999999999,-22.253408746877028
-0.24070000000000003,-22.38073276386488
-0.24169999999999991,-22.592939458844636
-0.24270000000000003,-22.776851927827092
-0.24369999999999992,-22.989058622806844
-0.24470000000000003,-23.15882397879065
-0.24569999999999992,-23.342736447773106
-0.24670000000000003,-23.51250180375691
-0.24769999999999992,-23.682267159740714
-0.24870000000000003,-23.951062306715073
-0.24969999999999992,-24.16326900169483
-0.25070000000000003,-24.389622809673234
-0.2516999999999999,-24.601829504652986
-0.25270000000000004,-24.771594860636792
-0.2536999999999999,-24.997948668615198
-0.25470000000000004,-25.210155363594954
-0.2556999999999999,-25.478950510569312
-0.25670000000000004,-25.77603988354097
-0.25769999999999993,-26.044835030515326
-0.25870000000000004,-26.257041725495082
-0.25969999999999993,-26.483395533473487
-0.26070000000000004,-26.69560222845324
-0.26169999999999993,-26.9643973754276
-0.26270000000000004,-27.261486748399253
-0.26369999999999993,-27.530281895373616
-0.26470000000000005,-27.827371268345274
-0.26569999999999994,-28.09616641531963
-0.26670000000000005,-28.350814449295335
-0.26769999999999994,-28.662050935265643
-0.26870000000000005,-29.001581647233255
-0.26969999999999994,-29.31281813320356
-0.27070000000000005,-29.66649595816982
-0.27169999999999994,-29.921143992145527
-0.27270000000000005,-30.232380478115836
-0.27369999999999994,-30.571911190083444
-0.27470000000000006,-30.925589015049702
-0.27569999999999995,-31.27926684001596
-0.27670000000000006,-31.618797551983565
-0.27769999999999995,-31.972475376949827
-0.27870000000000006,-32.368594540912035
-0.27969999999999995,-32.66568391388369
-0.28070000000000006,-33.06180307784591
-0.28169999999999995,-33.41548090281216
-0.28270000000000006,-33.85404140577033
-0.28369999999999995,-34.236013456733886
-0.28470000000000006,-34.632132620696105
-0.28569999999999995,-35.02825178465831
-0.28670000000000007,-35.46681228761647
-0.28769999999999996,-35.806342999584075
-0.28870000000000007,-36.28734484153819
-0.28969999999999996,-36.725905344496354
-0.29070000000000007,-37.206907186450465
-0.29169999999999996,-37.645467689408626
-0.29270000000000007,-38.08402819236679
-0.29369999999999996,-38.46600024333035
-0.2947000000000001,-38.98944342428042
-0.29569999999999996,-39.42800392723857
-0.2967000000000001,-39.95144710818864
-0.29769999999999996,-40.43244895014274
-0.2987000000000001,-40.91345079209687
-0.29969999999999997,-41.39445263405098
-0.3007000000000001,-41.91789581500104
-0.30169999999999997,-42.39889765695515
-0.3027000000000001,-42.96478217690117
-0.30369999999999997,-43.53066669684718
-0.3047000000000001,-44.054109877797245
-0.30569999999999997,-44.535111719751356
-0.3067000000000001,-45.10099623969737
-0.3077,-45.70932209863933
-0.3087000000000001,-46.27520661858535
-0.3097,-46.88353247752732
-0.3107000000000001,-47.506005449467935
-0.3117,-48.071889969413945
-0.3127000000000001,-48.63777448935996
-0.3137,-49.24610034830193
-0.3147000000000001,-49.85442620724389
-0.3157,-50.50519340518181
-0.3167000000000001,-51.127666377122424
-0.3177,-51.77843357506035
-0.3187000000000001,-52.386759434002315
-0.3197,-53.079967970936174
-0.3207000000000001,-53.74488228187274
-0.3217,-54.39564947981066
-0.3227000000000001,-55.088858016744524
-0.3237,-55.838655005673
-0.3247000000000001,-56.489422203610914
-0.3257,-57.182630740544774
-0.3267000000000001,-57.93242772947325
-0.3277,-58.62563626640712
-0.3287000000000001,-59.36128614233694
-0.3297,-60.11108313126541
-0.3307000000000001,-60.93161568518713
-0.3317,-61.72385401311155
-0.3327000000000001,-62.459503889041365
-0.3337,-63.20930087796983
-0.3347000000000001,-63.98739209289561
-0.3357,-64.82207175981598
-0.3367000000000001,-65.64260431373769
-0.3377,-66.47728398065809
-0.3387000000000001,-67.2978165345798
-0.3397,-68.0900548625042
-0.3407000000000001,-68.91058741642594
-0.3417,-69.78770842234226
-0.3427000000000001,-70.62238808926263
-0.3437,-71.48536198218031
-0.3447000000000001,-72.32004164910067
-0.3457,-73.15472131602105
-0.3467000000000001,-74.06013654793468
-0.3477,-75.06458157083884
-0.3487000000000001,-76.02658525474708
-0.3497,-76.98858893865528
-0.3507000000000001,-77.95059262256353
-0.3517,-78.91259630647174
-0.3527000000000001,-79.81801153838538
-0.3537,-80.7800152222936
-0.3547000000000001,-81.69957756720586
-0.3557,-82.6615812511141
-0.35670000000000013,-83.66602627401826
-0.3577,-84.6563241839238
-0.35870000000000013,-85.61832786783202
-0.3597,-86.58033155174023
-0.36070000000000013,-87.54233523564847
-0.3617,-88.5892215975486
-0.3626999999999999,-89.63610795944872
-0.3637,-90.68299432134886
-0.3646999999999999,-91.64499800525708
-0.3657,-92.6918843671572
-0.3666999999999999,-93.82365340704924
-0.3677,-94.91298110794531
-0.3686999999999999,-96.0871914868333
-0.36970000000000003,-97.21896052672531
-0.3706999999999999,-98.3082882276214
-0.37170000000000003,-99.49664571950804
-0.3726999999999999,-100.62841475940007
-0.37370000000000003,-101.76018379929208
-0.3746999999999999,-102.89195283918411
-0.37570000000000003,-104.02372187907615
-0.3766999999999999,-105.29696204895468
-0.37770000000000004,-106.55605510583456
-0.3786999999999999,-107.78685393671715
-0.37970000000000004,-109.04594699359701
-0.3806999999999999,-110.26259871148096
-0.38170000000000004,-111.57828022035544
-0.38269999999999993,-112.92225595522721
-0.38370000000000004,-114.23793746410173
-0.38469999999999993,-115.45458918198564
-0.38570000000000004,-116.62879956087362
-0.38669999999999993,-116.10535637992358
-0.38570000000000004,-112.96469729422319
-0.38469999999999993,-110.48895251945936
-0.38370000000000004,-108.35273845666316
-0.38269999999999993,-106.34384841085482
-0.38170000000000004,-104.5471650600262
-0.3806999999999999,-102.84951150018817
-0.37970000000000004,-101.23674061834203
-0.3786999999999999,-99.70885241448778
-0.37770000000000004,-98.2234055496295
-0.3766999999999999,-96.79454713676581
-0.37570000000000003,-95.43642428889537
-0.3746999999999999,-94.07830144102493
-0.37370000000000003,-92.73432570615316
-0.3726999999999999,-91.37620285828272
-0.37170000000000003,-90.03222712341093
-0.3706999999999999,-88.7589869535324
-0.36970000000000003,-87.45745255765657
-0.3686999999999999,-86.14177104878208
-0.3677,-84.8826779919022
-0.3666999999999999,-83.60943782202366
-0.3657,-82.35034476514379
-0.3646999999999999,-81.1761343862558
-0.3637,-80.00192400736783
-0.3626999999999999,-78.77112517648524
-0.3617,-77.55447345860131
-0.36070000000000013,-76.38026307971333
-0.3597,-75.19190558782671
-0.35870000000000013,-74.06013654793468
-0.3577,-72.92836750804264
-0.35670000000000013,-71.7965984681506
-0.3557,-70.66482942825859
-0.3547000000000001,-69.53306038836655
-0.3537,-68.34470289647993
-0.3527000000000001,-67.25537519558385
-0.3517,-66.16604749468777
-0.3507000000000001,-65.03427845479574
-0.3497,-63.98739209289561
-0.3487000000000001,-62.94050573099548
-0.3477,-61.851178030099405
-0.3467000000000001,-60.80429166819927
-0.3457,-59.67252262830725
-0.3447000000000001,-58.62563626640712
-0.3437,-57.62119124350295
-0.3427000000000001,-56.57430488160282
-0.3417,-55.56985985869864
-0.3407000000000001,-54.52297349679851
-0.3397,-53.476087134898386
-0.3387000000000001,-52.514083450990164
-0.3377,-51.509638428085985
-0.3367000000000001,-50.60422319617236
-0.3357,-49.642219512264134
-0.3347000000000001,-48.63777448935996
-0.3337,-47.67577080545174
-0.3327000000000001,-46.713767121543505
-0.3317,-45.75176343763528
-0.3307000000000001,-44.88878954471762
-0.3297,-43.96922719980534
-0.3287000000000001,-43.04966485489307
-0.3277,-42.186690961975394
-0.3267000000000001,-41.267128617063115
-0.3257,-40.3900076111468
-0.3247000000000001,-39.47044526623452
-0.3237,-38.6499127123128
-0.3227000000000001,-37.81523304539243
-0.3217,-36.95225915247476
-0.3207000000000001,-36.07513814655844
-0.3197,-35.198017140642115
-0.3187000000000001,-34.377484586720385
-0.3177,-33.54280491980002
-0.3167000000000001,-32.764713704874254
-0.3157,-31.930034037953877
-0.3147000000000001,-31.137795710029454
-0.3137,-30.317263156107735
-0.3127000000000001,-29.482583489187363
-0.3117,-28.704492274261593
-0.3107000000000001,-27.954695285333123
-0.3097,-27.219045409403304
-0.3087000000000001,-26.483395533473487
-0.3077,-25.691157205549064
-0.3067000000000001,-24.95550732961925
-0.30569999999999997,-24.20571034069078
-0.3047000000000001,-23.51250180375691
-0.30369999999999997,-22.819293266823045
-0.3027000000000001,-22.111937616890522
-0.30169999999999997,-21.418729079956652
-0.3007000000000001,-20.72552054302279
-0.29969999999999997,-20.01816489309027
-0.2987000000000001,-19.409839034148305
-0.29769999999999996,-18.759071836210385
-0.2967000000000001,-18.15074597726842
-0.29569999999999996,-17.542420118326454
-0.2947000000000001,-16.877505807389888
-0.29369999999999996,-16.22673860945197
-0.29270000000000007,-15.618412750510005
-0.29169999999999996,-15.01008689156804
-0.29070000000000007,-14.444202371622024
-0.28969999999999996,-13.872659006476551
-0.28870000000000007,-13.261503724934855
-0.28769999999999996,-12.651763154693022
-0.28670000000000007,-12.040607873151327
-0.28569999999999995,-11.473308641905447
-0.28470000000000006,-10.906009410659568
-0.28369999999999995,-10.382566229709504
-0.28270000000000006,-9.85912304875944
-0.28169999999999995,-9.335679867809377
-0.28070000000000006,-8.725939297567548
-0.27969999999999995,-8.202496116617484
-0.27870000000000006,-7.722908985963235
-0.27769999999999995,-7.243321855308987
-0.27670000000000006,-6.762320013354876
-0.27569999999999995,-6.282732882700628
-0.27470000000000006,-5.759289701750564
-0.27369999999999994,-5.279702571096316
-0.27270000000000005,-4.800115440442069
-0.27169999999999994,-4.3205283097878215
-0.27070000000000005,-3.884797229429391
-0.26969999999999994,-3.4915074880669104
-0.26870000000000005,-3.0119203574126634
-0.26769999999999994,-2.576189277054232
