Potential V vs RHE, Current mA cm-2
0.013299999999999867,-0.37263495638445066
0.012299999999999978,-1.6891652920388538
0.011299999999999866,-2.351250180375691
0.010299999999999976,-2.7742488590353367
0.009299999999999864,-3.0119203574126634
0.008299999999999974,-3.178856290796737
0.007299999999999862,-3.310424441684186
0.006299999999999972,-3.392477697076358
0.00529999999999986,-3.4985810445662353
0.0042999999999999705,-3.556584207860702
0.0032999999999998586,-3.6259050615540893
0.0022999999999999687,-3.690981781347881
0.0012999999999998568,-3.7122024508458558
0.00029999999999996696,-3.7772791706396474
-0.000700000000000145,-3.8055733966369485
-0.0017000000000000348,-3.8466000243330347
-0.0027000000000001467,-3.8833825181295256
-0.0037000000000000366,-3.9074326102272314
-0.0047000000000001485,-3.961191639622102
-0.005700000000000038,-3.965435773521698
-0.00670000000000015,-3.9979741334185936
-0.00770000000000004,-4.019194802916569
-0.008700000000000152,-4.030512493315489
-0.009700000000000042,-4.077197966211036
-0.010700000000000154,-4.098418635709011
-0.011700000000000044,-4.125298150406447
-0.012700000000000156,-4.146518819904423
-0.013700000000000045,-4.126712861706312
-0.014700000000000157,-4.174813045901724
-0.015700000000000047,-4.166324778102533
-0.01670000000000016,-4.2087661170984845
-0.01770000000000005,-4.229986786596459
-0.01870000000000016,-4.21018082839835
-0.01970000000000005,-4.25828101259376
-0.020700000000000163,-4.25545158999403
-0.021700000000000053,-4.2681839916928155
-0.022700000000000164,-4.296478217690116
-0.023700000000000054,-4.276672259492005
-0.024700000000000166,-4.3205283097878215
-0.025700000000000056,-4.297892928989982
-0.026700000000000168,-4.303551774189442
-0.027700000000000058,-4.3403342679859325
-0.02870000000000017,-4.321943021087687
-0.02970000000000006,-4.344578401885528
-0.03070000000000017,-4.3332607114866075
-0.03170000000000006,-4.348822535785122
-0.03270000000000017,-4.358725514884178
-0.03370000000000006,-4.351651958384853
-0.034700000000000175,-4.3926785860809385
-0.035700000000000065,-4.378531473082289
-0.03670000000000018,-4.391263874781075
-0.03770000000000007,-4.402581565179994
-0.03870000000000018,-4.396922719980535
-0.03970000000000007,-4.413899255578914
-0.04070000000000018,-4.40965512167932
-0.04170000000000007,-4.42380223467797
-0.04270000000000018,-4.428046368577565
-0.04370000000000007,-4.419558100778375
-0.044700000000000184,-4.461999439774326
-0.045700000000000074,-4.445022904175945
-0.046700000000000186,-4.450681749375406
-0.047700000000000076,-4.467658284973785
-0.04870000000000019,-4.4379493476766205
-0.04970000000000008,-4.4775612640728415
-0.05070000000000019,-4.461999439774326
-0.05170000000000008,-4.4775612640728415
-0.05270000000000019,-4.487464243171897
-0.05370000000000008,-4.46058472847446
-0.05470000000000019,-4.490293665771627
-0.05570000000000008,-4.470487707573516
-0.056700000000000195,-4.488878954471762
-0.057700000000000085,-4.493123088371357
-0.058700000000000196,-4.467658284973785
-0.059700000000000086,-4.4973672222709515
-0.0607000000000002,-4.483220109272302
-0.06170000000000009,-4.512929046569467
-0.0627000000000002,-4.524246736968387
-0.06370000000000009,-4.488878954471762
-0.0647000000000002,-4.520002603068792
-0.06570000000000009,-4.508684912669872
-0.0667000000000002,-4.531320293467712
-0.0677000000000001,-4.5369791386671725
-0.0687000000000002,-4.491708377071491
-0.0697000000000001,-4.510099623969737
-0.07070000000000021,-4.511514335269602
-0.0717000000000001,-4.527076159568118
-0.07270000000000021,-4.542637983866633
-0.0737000000000001,-4.521417314368658
-0.07470000000000021,-4.529905582167847
-0.0757000000000001,-4.512929046569467
-0.07670000000000021,-4.521417314368658
-0.0777000000000001,-4.534149716067443
-0.07870000000000021,-4.527076159568118
-0.0797000000000001,-4.541223272566767
-0.08070000000000022,-4.535564427367307
-0.0817000000000001,-4.555370385565419
-0.08270000000000022,-4.548296829066093
-0.08370000000000011,-4.535564427367307
-0.08470000000000022,-4.558199808165148
-0.08570000000000011,-4.546882117766228
-0.08670000000000022,-4.544052695166498
-0.08770000000000011,-4.555370385565419
-0.08870000000000022,-4.545467406466363
-0.08970000000000011,-4.568102787264204
-0.09070000000000022,-4.5497115403659585
-0.09170000000000011,-4.568102787264204
-0.09270000000000023,-4.572346921163798
-0.09370000000000012,-4.548296829066093
-0.09470000000000023,-4.582249900262854
-0.09570000000000012,-4.559614519465013
-0.09670000000000023,-4.569517498564068
-0.09770000000000012,-4.583664611562719
-0.09870000000000023,-4.555370385565419
-0.09970000000000012,-4.5893234567621795
-0.10070000000000023,-4.573761632463664
-0.10170000000000012,-4.587908745462314
-0.10270000000000024,-4.604885281060694
-0.10370000000000013,-4.570932209863933
-0.10470000000000024,-4.603470569760829
-0.10570000000000013,-4.582249900262854
-0.10670000000000024,-4.579420477663124
-0.10770000000000013,-4.597811724561368
-0.10870000000000024,-4.599226435861234
-0.10970000000000013,-4.623276527958939
-0.11070000000000024,-4.607714703660425
-0.11170000000000013,-4.604885281060694
-0.11270000000000002,-4.626105950558669
-0.11370000000000013,-4.610544126260154
-0.11470000000000002,-4.631764795758129
-0.11570000000000014,-4.619032394059345
-0.11670000000000003,-4.626105950558669
-0.11770000000000014,-4.64308248615705
-0.11870000000000003,-4.638838352257455
-0.11970000000000014,-4.6614737330552956
-0.12070000000000003,-4.650156042656376
-0.12170000000000014,-4.6614737330552956
-0.12270000000000003,-4.682694402553271
-0.12370000000000014,-4.6572295991557
-0.12470000000000003,-4.679864979953542
-0.12570000000000014,-4.669962000854486
-0.12670000000000003,-4.691182670352461
-0.12770000000000015,-4.709573917250707
-0.12870000000000004,-4.689767959052596
-0.12970000000000015,-4.723721030249357
-0.13070000000000004,-4.705329783351112
-0.13170000000000015,-4.7208916076496275
-0.13270000000000004,-4.747771122347063
-0.13370000000000015,-4.727965164148953
-0.13470000000000004,-4.774650637044499
-0.13570000000000015,-4.744941699747333
-0.13670000000000004,-4.752015256246658
-0.13770000000000016,-4.771821214444769
-0.13870000000000005,-4.763332946645578
-0.13970000000000016,-4.804359574341665
-0.14070000000000005,-4.790212461343015
-0.14170000000000016,-4.81709197604045
-0.14270000000000005,-4.835483222938696
-0.14370000000000016,-4.814262553440719
-0.14470000000000005,-4.852459758537076
-0.14570000000000016,-4.851045047237211
-0.14670000000000005,-4.862362737636131
-0.14770000000000016,-4.890656963633432
-0.14870000000000005,-4.8849981184339715
-0.14970000000000017,-4.913292344431272
-0.15070000000000006,-4.916121767031002
-0.15170000000000017,-4.923195323530328
-0.15270000000000006,-4.945830704328168
-0.15370000000000017,-4.945830704328168
-0.15470000000000006,-4.99393088852358
-0.15570000000000017,-5.001004445022905
-0.15670000000000006,-5.027883959720341
-0.15770000000000017,-5.0420310727189905
-0.15870000000000006,-5.046275206618586
-0.15970000000000018,-5.080228277815347
-0.16070000000000007,-5.071740010016156
-0.16170000000000018,-5.095790102113861
-0.16270000000000007,-5.1198401942115686
-0.16370000000000018,-5.138231441109813
-0.16470000000000007,-5.210381717402931
-0.16570000000000018,-5.21321114000266
-0.16670000000000007,-5.22735825300131
-0.16770000000000018,-5.247164211199421
-0.16870000000000007,-5.248578922499286
-0.16970000000000018,-5.309411508393483
-0.17070000000000007,-5.2980938179945625
-0.17170000000000019,-5.340535156990514
-0.17270000000000008,-5.3759029394871405
-0.1737000000000002,-5.380147073386734
-0.17470000000000008,-5.4423943705807964
-0.1757000000000002,-5.452297349679851
-0.17670000000000008,-5.497568111275533
-0.1777000000000002,-5.532935893772159
-0.17870000000000008,-5.545668295470944
-0.1797000000000002,-5.612159726564601
-0.18070000000000008,-5.630550973462847
-0.1817000000000002,-5.665918755959472
-0.18270000000000008,-5.722507207954074
-0.1837000000000002,-5.74938672265151
-0.1847000000000001,-5.814463442445301
-0.1857000000000002,-5.851245936241792
-0.1867000000000001,-5.903590254336798
-0.1877000000000002,-5.926225635134639
-0.1887000000000001,-5.941787459433154
-0.1897000000000002,-6.037987827823977
-0.1907000000000001,-6.067696765121143
-0.1917000000000001,-6.120041083216149
-0.19269999999999998,-6.180873669110345
-0.1937000000000001,-6.211997317707376
-0.19469999999999998,-6.2954652843994126
-0.1957000000000001,-6.337906623395364
-0.19669999999999999,-6.418545167487672
-0.1977000000000001,-6.4793777533818675
-0.1987,-6.526063226277413
-0.1997000000000001,-6.579822255672285
-0.2007,-6.6505578206655365
-0.2017000000000001,-6.739684632557035
-0.2027,-6.803346641050961
-0.2037000000000001,-6.862764515645292
-0.2047,-6.9646237292355755
-0.2057000000000001,-7.012723913430986
-0.2067,-7.1145831270212705
-0.2077000000000001,-7.192392248513847
-0.2087,-7.260298390907368
-0.2097000000000001,-7.380548851395897
-0.2107,-7.425819612991578
-0.2117000000000001,-7.526264115281995
-0.2127,-7.643685153170793
-0.2137000000000001,-7.722908985963235
-0.2147,-7.867209538549469
-0.2157000000000001,-7.963409906940291
-0.2167,-8.055366141431518
-0.21770000000000012,-8.165713622820993
-0.2187,-8.25484043471249
-0.21970000000000012,-8.379335029100613
-0.2207,-8.469876552291973
-0.22170000000000012,-8.566076920682798
-0.2227,-8.711792184568896
-0.22370000000000012,-8.80799255295972
-0.2247,-8.955122528145683
-0.22570000000000012,-9.079617122533806
-0.2267,-9.22674709771977
-0.22770000000000012,-9.362559382506815
-0.22870000000000001,-9.512518780292506
-0.22970000000000013,-9.672381157177256
-0.23070000000000002,-9.80536401936457
-0.23170000000000013,-9.953908705850399
-0.23270000000000002,-10.110941660135417
-0.23370000000000013,-10.266559903120571
-0.23470000000000002,-10.441984104303836
-0.23570000000000013,-10.593358213389395
-0.23670000000000002,-10.768782414572659
-0.2376999999999999,-10.939962481856329
-0.23870000000000002,-11.111142549139998
-0.2396999999999999,-11.319105110220159
-0.24070000000000003,-11.514335269601535
-0.24169999999999991,-11.722297830681693
-0.24270000000000003,-11.937333948261179
-0.24369999999999992,-12.104269881645255
-0.24470000000000003,-12.36174733822069
-0.24569999999999992,-12.527268560304899
-0.24670000000000003,-12.764940058682226
-0.24769999999999992,-12.96299964066333
-0.24870000000000003,-13.189353448641736
-0.24969999999999992,-13.442586771317579
-0.25070000000000003,-13.646305198498144
-0.2516999999999999,-13.89246496467466
-0.25270000000000004,-14.147112998650368
-0.2536999999999999,-14.373466806628771
-0.25470000000000004,-14.642261953603128
-0.2556999999999999,-14.854468648582884
-0.25670000000000004,-15.10911668255859
-0.25769999999999993,-15.4203531685289
-0.25870000000000004,-15.660854089505953
-0.25969999999999993,-15.986237688474914
-0.26070000000000004,-16.25503283544927
-0.26169999999999993,-16.56626932141958
-0.26270000000000004,-16.863358694391238
-0.26369999999999993,-17.132153841365596
-0.26470000000000005,-17.471684553333205
-0.26569999999999994,-17.797068152302163
-0.26670000000000005,-18.164893090267068
-0.26769999999999994,-18.47612957623738
-0.26870000000000005,-18.815660288204988
-0.26969999999999994,-19.197632339168546
-0.27070000000000005,-19.49472171214021
-0.27169999999999994,-19.834252424107817
-0.27270000000000005,-20.21622447507137
-0.27369999999999994,-20.555755187038983
-0.27470000000000006,-20.89528589900659
-0.27569999999999995,-21.277257949970153
-0.27670000000000006,-21.68752422693101
-0.27769999999999995,-22.083643390893226
-0.27870000000000006,-22.451468328858134
-0.27969999999999995,-22.861734605818995
-0.28070000000000006,-23.314442221775803
-0.28169999999999995,-23.753002724733967
-0.28270000000000006,-24.20571034069078
-0.28369999999999995,-24.601829504652986
-0.28470000000000006,-25.054537120609798
-0.28569999999999995,-25.46480339757066
-0.28670000000000007,-25.931658126526123
-0.28769999999999996,-26.440954194477534
-0.28870000000000007,-26.907808923433
-0.28969999999999996,-27.38881076538711
-0.29070000000000007,-27.883959720339874
-0.29169999999999996,-28.393255788291288
-0.29270000000000007,-28.93084608224
-0.29369999999999996,-29.35525947219951
-0.2947000000000001,-29.892849766148224
-0.29569999999999996,-30.37385160810234
-0.2967000000000001,-30.925589015049702
-0.29769999999999996,-31.519767760993016
-0.2987000000000001,-32.04321094194308
-0.29969999999999997,-32.56665412289314
-0.3007000000000001,-33.203274207832415
-0.30169999999999997,-33.85404140577033
-0.3027000000000001,-34.43407303871499
-0.30369999999999997,-34.95751621966506
-0.3047000000000001,-35.55169496560837
-0.30569999999999997,-36.17416793754898
-0.3067000000000001,-36.8249351354869
-0.3077,-37.54643789841808
-0.3087000000000001,-38.18305798335734
-0.3097,-38.791383842299304
-0.3107000000000001,-39.39970970124127
-0.3117,-39.96559422118728
-0.3127000000000001,-40.616361419125205
-0.3137,-41.281275730061765
-0.3147000000000001,-41.98863137999429
-0.3157,-42.72428125592411
-0.3167000000000001,-43.44578401885527
-0.3177,-44.138992555789144
-0.3187000000000001,-44.86049531872031
-0.3197,-45.581998081651484
-0.3207000000000001,-46.2610595055867
-0.3217,-46.96841515551922
-0.3227000000000001,-47.689917918450384
-0.3237,-48.51045047237211
-0.3247000000000001,-49.43001281728438
-0.3257,-50.1939569192115
-0.3267000000000001,-50.957901021138625
-0.3277,-51.73599223606439
-0.3287000000000001,-52.42920077299826
-0.3297,-53.30632177891458
-0.3307000000000001,-54.02782454184575
-0.3317,-54.933239773759375
-0.3327000000000001,-55.79621366667705
-0.3337,-56.75821735058527
-0.3347000000000001,-57.649485469500235
-0.3357,-58.47001802342197
-0.3367000000000001,-59.417874594331536
-0.3377,-60.23840714825326
-0.3387000000000001,-61.01649836317903
-0.3397,-61.907766482094
-0.3407000000000001,-62.78488748801033
-0.3417,-63.71859694592126
-0.3427000000000001,-64.62401217783489
-0.3437,-65.5011331837512
-0.3447000000000001,-66.39240130266617
-0.3457,-67.22708096958654
-0.3467000000000001,-68.10420197550286
-0.3477,-69.13694122440434
-0.3487000000000001,-70.09894490831257
-0.3497,-71.10338993121674
-0.3507000000000001,-72.19271763211282
-0.3517,-73.11227997702508
-0.3527000000000001,-74.04598943493602
-0.3537,-75.02214023184291
-0.3547000000000001,-75.95584968975382
-0.3557,-76.97444182565664
-0.35670000000000013,-78.00718107455812
-0.3577,-79.11065588845284
-0.35870000000000013,-80.28486626734085
-0.3597,-81.23272283825041
-0.36070000000000013,-82.27960920015053
-0.3617,-83.35478978804795
-0.3626999999999999,-84.27435213296022
-0.3637,-85.47685673784551
-0.3646999999999999,-86.6510671167335
-0.3657,-87.95260151260933
-0.3666999999999999,-88.97119364851217
-0.3677,-90.01808001041228
-0.3686999999999999,-91.19229038930027
-0.36970000000000003,-92.19673541220443
-0.3706999999999999,-93.17288620911131
-0.37170000000000003,-94.27636102300605
-0.3726999999999999,-95.45057140189402
-0.37370000000000003,-96.75210579776986
-0.3746999999999999,-97.89802195066054
-0.37570000000000003,-98.84587852157011
-0.3766999999999999,-100.07667735245269
-0.37770000000000004,-101.27918195733798
-0.3786999999999999,-102.53827501421786
-0.37970000000000004,-103.64174982811258
-0.3806999999999999,-104.78766598100327
-0.38170000000000004,-106.21652439386696
-0.38269999999999993,-107.4614703377482
-0.38370000000000004,-108.62153360363752
-0.38469999999999993,-109.937215112512
-0.38570000000000004,-111.15386683039593
-0.38669999999999993,-110.50309963245802
-0.38570000000000004,-108.5932393776402
-0.38469999999999993,-106.76826180081432
-0.38370000000000004,-105.28281493595603
-0.38269999999999993,-103.89639786208829
-0.38170000000000004,-102.53827501421786
-0.3806999999999999,-101.12356371435283
-0.37970000000000004,-99.83617643147564
-0.3786999999999999,-98.76099584357821
-0.37770000000000004,-97.57263835169158
-0.3766999999999999,-96.17207416482519
-0.37570000000000003,-94.85639265595071
-0.3746999999999999,-93.79535918105194
-0.37370000000000003,-92.67773725415857
-0.3726999999999999,-91.51767398826922
-0.37170000000000003,-90.31516938338393
-0.3706999999999999,-89.18340034349191
-0.36970000000000003,-87.92430728661203
-0.3686999999999999,-86.6227728907362
-0.3677,-85.37782694685497
-0.3666999999999999,-84.23191079396429
-0.3657,-83.10014175407225
-0.3646999999999999,-81.98251982717888
-0.3637,-80.85075078728684
-0.3626999999999999,-79.60580484340561
-0.3617,-78.48818291651223
-0.36070000000000013,-77.34226676362155
-0.3597,-76.16805638473357
-0.35870000000000013,-75.0504344578402
-0.3577,-73.97525386994278
-0.35670000000000013,-72.94251462104128
-0.3557,-71.83903980714656
-0.3547000000000001,-70.76385921924914
-0.3537,-69.8018555353409
-0.3527000000000001,-68.8115576254354
-0.3517,-67.63734724654739
-0.3507000000000001,-66.70363778863647
-0.3497,-65.60016297474175
-0.3487000000000001,-64.70889485582677
-0.3477,-63.69030271992394
-0.3467000000000001,-62.799034601008984
-0.3457,-61.87947225609671
-0.3447000000000001,-60.91746857218848
-0.3437,-59.95546488828025
-0.3427000000000001,-58.880284300382826
-0.3417,-57.91828061647461
-0.3407000000000001,-56.98457115856368
-0.3397,-56.03671458765411
-0.3387000000000001,-55.06056379074723
-0.3377,-54.1268543328363
-0.3367000000000001,-53.30632177891458
-0.3357,-52.42920077299826
-0.3347000000000001,-51.52378554108463
-0.3337,-50.60422319617236
-0.3327000000000001,-49.69880796425874
-0.3317,-48.77924561934647
-0.3307000000000001,-48.057742856415295
-0.3297,-47.20891607649628
-0.3287000000000001,-46.4025306355732
-0.3277,-45.497115403659585
-0.3267000000000001,-44.591700171745956
-0.3257,-43.81360895682018
-0.3247000000000001,-43.02137062889577
-0.3237,-42.31401497896325
-0.3227000000000001,-41.50762953804018
-0.3217,-40.78612677510901
-0.3207000000000001,-39.99388844718459
-0.3197,-39.244091458256115
-0.3187000000000001,-38.480147356329
-0.3177,-37.702056141403226
-0.3167000000000001,-36.92396492647745
-0.3157,-36.244903502542236
-0.3147000000000001,-35.594136304604326
-0.3137,-34.94336910666641
-0.3127000000000001,-34.16527789174064
-0.3117,-33.54280491980002
-0.3107000000000001,-32.892037721862096
-0.3097,-32.21297629792688
-0.3087000000000001,-31.590503325986273
-0.3077,-30.88314767605375
-0.3067000000000001,-30.246527591114486
-0.30569999999999997,-29.581613280177915
-0.3047000000000001,-28.91669896924135
-0.30369999999999997,-28.364961562293985
-0.3027000000000001,-27.714194364356068
-0.30169999999999997,-27.14830984441005
-0.3007000000000001,-26.58242532446404
-0.29969999999999997,-25.94580523952477
-0.2987000000000001,-25.36577360658011
-0.29769999999999996,-24.729153521640843
-0.2967000000000001,-24.16326900169483
-0.29569999999999996,-23.61153159474746
-0.2947000000000001,-23.017352848804148
-0.29369999999999996,-22.493909667854084
-0.29270000000000007,-21.885583808912116
-0.29169999999999996,-21.333846401964752
-0.29070000000000007,-20.85284456001064
-0.28969999999999996,-20.315254266061928
-0.28870000000000007,-19.834252424107817
-0.28769999999999996,-19.296662130159103
-0.28670000000000007,-18.77321894920904
-0.28569999999999995,-18.27806999425627
-0.28470000000000006,-17.797068152302163
-0.28369999999999995,-17.34436053634535
-0.28270000000000006,-16.877505807389888
-0.28169999999999995,-16.438945304431726
-0.28070000000000006,-16.000384801473565
-0.27969999999999995,-15.575971411514052
-0.27870000000000006,-15.137410908555893
-0.27769999999999995,-14.65640906660178
-0.27670000000000006,-14.231995676642269
-0.27569999999999995,-13.82172939968141
-0.27470000000000006,-13.402974854921357
-0.27369999999999994,-12.97431733106225
-0.27270000000000005,-12.534342116804225
-0.27169999999999994,-12.15944362233999
-0.27070000000000005,-11.754836190578589
-0.26969999999999994,-11.358717026616379
-0.26870000000000005,-10.99938035645066
-0.26769999999999994,-10.576381677791014
-0.26670000000000005,-10.20997145112597
-0.26569999999999994,-9.85629362615971
-0.26470000000000005,-9.513933491592372
