Aug. 30, 2024   20:24:27
Cyclic Voltammetry
File: c:/users/guazh/data/20240829_batch_215_500/2024-08-29-exp223\exp223-2024-08-30t20_09_35-arkoh\exp223_cv_sr_400mvs_efin_-1600mv.bin
Data Source:  Experiment
Instrument Model:  CHI760E
Header: CV ran at 400 mVs
Note: 

Init E (V) = -1
High E (V) = -1
Low E (V) = -1.6
Final E (V) = -1
Init P/N = N
Scan Rate (V/s) = 0.4
Segment = 3
Sample Interval (V) = 0.001
Quiet Time (sec) = 2
Sensitivity (A/V) = 0.01
Comp R (ohm) = 1.4

Results:

Channel 1:
Segment 1:
Segment 2:

Segment 3:

Potential/V, Current/A

-1.000, 1.557e-5
-1.001, 4.332e-5
-1.002, 4.949e-5
-1.003, 5.565e-5
-1.004, 5.873e-5
-1.005, 5.873e-5
-1.006, 6.182e-5
-1.007, 6.182e-5
-1.008, 6.490e-5
-1.009, 6.798e-5
-1.010, 6.798e-5
-1.011, 6.798e-5
-1.012, 6.798e-5
-1.013, 6.798e-5
-1.014, 7.107e-5
-1.015, 7.107e-5
-1.016, 7.107e-5
-1.017, 7.415e-5
-1.018, 7.415e-5
-1.019, 7.415e-5
-1.020, 7.415e-5
-1.021, 7.415e-5
-1.022, 7.723e-5
-1.023, 7.723e-5
-1.024, 7.723e-5
-1.025, 7.723e-5
-1.026, 7.723e-5
-1.027, 7.723e-5
-1.028, 7.723e-5
-1.029, 8.032e-5
-1.030, 8.032e-5
-1.031, 8.032e-5
-1.032, 8.032e-5
-1.033, 8.032e-5
-1.034, 8.032e-5
-1.035, 8.032e-5
-1.036, 8.032e-5
-1.037, 8.340e-5
-1.038, 8.032e-5
-1.039, 8.340e-5
-1.040, 8.340e-5
-1.041, 8.340e-5
-1.042, 8.340e-5
-1.043, 8.340e-5
-1.044, 8.340e-5
-1.045, 8.340e-5
-1.046, 8.340e-5
-1.047, 8.340e-5
-1.048, 8.648e-5
-1.049, 8.648e-5
-1.050, 8.648e-5
-1.051, 8.648e-5
-1.052, 8.340e-5
-1.053, 8.648e-5
-1.054, 8.648e-5
-1.055, 8.648e-5
-1.056, 8.648e-5
-1.057, 8.648e-5
-1.058, 8.648e-5
-1.059, 8.648e-5
-1.060, 8.648e-5
-1.061, 8.648e-5
-1.062, 8.957e-5
-1.063, 8.957e-5
-1.064, 8.957e-5
-1.065, 8.648e-5
-1.066, 8.957e-5
-1.067, 8.648e-5
-1.068, 8.957e-5
-1.069, 8.957e-5
-1.070, 8.957e-5
-1.071, 8.957e-5
-1.072, 8.957e-5
-1.073, 8.957e-5
-1.074, 8.957e-5
-1.075, 8.957e-5
-1.076, 8.957e-5
-1.077, 8.957e-5
-1.078, 8.957e-5
-1.079, 8.957e-5
-1.080, 8.957e-5
-1.081, 8.957e-5
-1.082, 8.957e-5
-1.083, 8.957e-5
-1.084, 8.957e-5
-1.085, 8.957e-5
-1.086, 8.957e-5
-1.087, 8.957e-5
-1.088, 9.265e-5
-1.089, 8.957e-5
-1.090, 8.957e-5
-1.091, 8.957e-5
-1.092, 8.957e-5
-1.093, 8.957e-5
-1.094, 9.265e-5
-1.095, 9.265e-5
-1.096, 8.957e-5
-1.097, 8.957e-5
-1.098, 9.265e-5
-1.099, 8.957e-5
-1.100, 8.957e-5
-1.101, 8.957e-5
-1.102, 9.265e-5
-1.103, 8.957e-5
-1.104, 8.957e-5
-1.105, 8.957e-5
-1.106, 8.957e-5
-1.107, 8.957e-5
-1.108, 9.265e-5
-1.109, 9.265e-5
-1.110, 8.957e-5
-1.111, 9.265e-5
-1.112, 8.957e-5
-1.113, 9.265e-5
-1.114, 9.265e-5
-1.115, 9.265e-5
-1.116, 9.265e-5
-1.117, 9.265e-5
-1.118, 9.265e-5
-1.119, 9.265e-5
-1.120, 9.265e-5
-1.121, 9.265e-5
-1.122, 9.265e-5
-1.123, 9.265e-5
-1.124, 8.957e-5
-1.125, 8.957e-5
-1.126, 9.265e-5
-1.127, 9.265e-5
-1.128, 8.957e-5
-1.129, 9.265e-5
-1.130, 9.265e-5
-1.131, 9.265e-5
-1.132, 9.265e-5
-1.133, 9.265e-5
-1.134, 9.265e-5
-1.135, 9.265e-5
-1.136, 9.265e-5
-1.137, 9.265e-5
-1.138, 9.265e-5
-1.139, 8.957e-5
-1.140, 8.957e-5
-1.141, 9.265e-5
-1.142, 9.265e-5
-1.143, 9.265e-5
-1.144, 9.265e-5
-1.145, 9.265e-5
-1.146, 9.265e-5
-1.147, 9.265e-5
-1.148, 9.265e-5
-1.149, 9.265e-5
-1.150, 9.265e-5
-1.151, 9.265e-5
-1.152, 9.265e-5
-1.153, 9.265e-5
-1.154, 9.265e-5
-1.155, 9.265e-5
-1.156, 9.265e-5
-1.157, 9.265e-5
-1.158, 9.265e-5
-1.159, 9.265e-5
-1.160, 9.265e-5
-1.161, 9.265e-5
-1.162, 9.265e-5
-1.163, 9.265e-5
-1.164, 9.265e-5
-1.165, 9.265e-5
-1.166, 9.265e-5
-1.167, 9.265e-5
-1.168, 9.265e-5
-1.169, 9.265e-5
-1.170, 9.265e-5
-1.171, 9.265e-5
-1.172, 9.265e-5
-1.173, 9.265e-5
-1.174, 9.265e-5
-1.175, 9.265e-5
-1.176, 9.265e-5
-1.177, 9.265e-5
-1.178, 9.265e-5
-1.179, 9.265e-5
-1.180, 9.265e-5
-1.181, 9.265e-5
-1.182, 9.265e-5
-1.183, 9.265e-5
-1.184, 9.265e-5
-1.185, 9.265e-5
-1.186, 9.265e-5
-1.187, 9.265e-5
-1.188, 9.265e-5
-1.189, 9.265e-5
-1.190, 9.265e-5
-1.191, 9.265e-5
-1.192, 9.265e-5
-1.193, 9.265e-5
-1.194, 8.957e-5
-1.195, 9.265e-5
-1.196, 9.265e-5
-1.197, 9.265e-5
-1.198, 9.265e-5
-1.199, 9.265e-5
-1.200, 9.265e-5
-1.201, 9.265e-5
-1.202, 9.265e-5
-1.203, 9.265e-5
-1.204, 9.265e-5
-1.205, 8.957e-5
-1.206, 9.265e-5
-1.207, 8.957e-5
-1.208, 9.265e-5
-1.209, 8.957e-5
-1.210, 9.265e-5
-1.211, 9.265e-5
-1.212, 8.957e-5
-1.213, 9.265e-5
-1.214, 9.265e-5
-1.215, 9.265e-5
-1.216, 9.265e-5
-1.217, 9.265e-5
-1.218, 9.265e-5
-1.219, 8.957e-5
-1.220, 9.265e-5
-1.221, 8.957e-5
-1.222, 9.265e-5
-1.223, 8.957e-5
-1.224, 8.957e-5
-1.225, 8.957e-5
-1.226, 8.957e-5
-1.227, 8.957e-5
-1.228, 8.957e-5
-1.229, 9.265e-5
-1.230, 8.957e-5
-1.231, 9.265e-5
-1.232, 8.957e-5
-1.233, 8.957e-5
-1.234, 8.957e-5
-1.235, 8.957e-5
-1.236, 9.265e-5
-1.237, 8.957e-5
-1.238, 8.957e-5
-1.239, 8.957e-5
-1.240, 8.957e-5
-1.241, 8.957e-5
-1.242, 8.957e-5
-1.243, 8.957e-5
-1.244, 8.957e-5
-1.245, 8.957e-5
-1.246, 8.957e-5
-1.247, 8.957e-5
-1.248, 8.957e-5
-1.249, 8.957e-5
-1.250, 8.957e-5
-1.251, 8.957e-5
-1.252, 8.957e-5
-1.253, 8.957e-5
-1.254, 8.957e-5
-1.255, 8.957e-5
-1.256, 8.957e-5
-1.257, 8.957e-5
-1.258, 8.957e-5
-1.259, 8.957e-5
-1.260, 8.957e-5
-1.261, 8.957e-5
-1.262, 8.957e-5
-1.263, 8.957e-5
-1.264, 8.957e-5
-1.265, 8.957e-5
-1.266, 8.957e-5
-1.267, 8.957e-5
-1.268, 8.957e-5
-1.269, 8.957e-5
-1.270, 8.957e-5
-1.271, 8.957e-5
-1.272, 8.957e-5
-1.273, 8.957e-5
-1.274, 8.957e-5
-1.275, 8.957e-5
-1.276, 8.957e-5
-1.277, 8.957e-5
-1.278, 8.957e-5
-1.279, 8.957e-5
-1.280, 8.957e-5
-1.281, 8.957e-5
-1.282, 8.957e-5
-1.283, 8.957e-5
-1.284, 8.957e-5
-1.285, 8.957e-5
-1.286, 8.957e-5
-1.287, 9.265e-5
-1.288, 8.957e-5
-1.289, 9.265e-5
-1.290, 8.957e-5
-1.291, 8.957e-5
-1.292, 9.265e-5
-1.293, 9.265e-5
-1.294, 9.265e-5
-1.295, 9.265e-5
-1.296, 9.265e-5
-1.297, 9.265e-5
-1.298, 9.265e-5
-1.299, 9.265e-5
-1.300, 9.265e-5
-1.301, 9.265e-5
-1.302, 9.265e-5
-1.303, 9.265e-5
-1.304, 9.265e-5
-1.305, 9.265e-5
-1.306, 9.265e-5
-1.307, 9.265e-5
-1.308, 9.265e-5
-1.309, 9.265e-5
-1.310, 9.265e-5
-1.311, 9.265e-5
-1.312, 9.265e-5
-1.313, 9.573e-5
-1.314, 9.265e-5
-1.315, 9.265e-5
-1.316, 9.573e-5
-1.317, 9.573e-5
-1.318, 9.265e-5
-1.319, 9.573e-5
-1.320, 9.573e-5
-1.321, 9.573e-5
-1.322, 9.573e-5
-1.323, 9.573e-5
-1.324, 9.573e-5
-1.325, 9.573e-5
-1.326, 9.573e-5
-1.327, 9.882e-5
-1.328, 9.882e-5
-1.329, 9.882e-5
-1.330, 9.882e-5
-1.331, 9.882e-5
-1.332, 9.882e-5
-1.333, 9.882e-5
-1.334, 9.882e-5
-1.335, 1.019e-4
-1.336, 1.019e-4
-1.337, 1.019e-4
-1.338, 1.019e-4
-1.339, 1.019e-4
-1.340, 1.019e-4
-1.341, 1.019e-4
-1.342, 1.050e-4
-1.343, 1.050e-4
-1.344, 1.050e-4
-1.345, 1.050e-4
-1.346, 1.050e-4
-1.347, 1.050e-4
-1.348, 1.050e-4
-1.349, 1.050e-4
-1.350, 1.081e-4
-1.351, 1.081e-4
-1.352, 1.081e-4
-1.353, 1.111e-4
-1.354, 1.111e-4
-1.355, 1.111e-4
-1.356, 1.111e-4
-1.357, 1.111e-4
-1.358, 1.142e-4
-1.359, 1.142e-4
-1.360, 1.142e-4
-1.361, 1.142e-4
-1.362, 1.173e-4
-1.363, 1.173e-4
-1.364, 1.173e-4
-1.365, 1.173e-4
-1.366, 1.204e-4
-1.367, 1.204e-4
-1.368, 1.235e-4
-1.369, 1.235e-4
-1.370, 1.235e-4
-1.371, 1.266e-4
-1.372, 1.266e-4
-1.373, 1.266e-4
-1.374, 1.266e-4
-1.375, 1.296e-4
-1.376, 1.296e-4
-1.377, 1.327e-4
-1.378, 1.327e-4
-1.379, 1.327e-4
-1.380, 1.358e-4
-1.381, 1.389e-4
-1.382, 1.389e-4
-1.383, 1.420e-4
-1.384, 1.420e-4
-1.385, 1.451e-4
-1.386, 1.451e-4
-1.387, 1.481e-4
-1.388, 1.481e-4
-1.389, 1.512e-4
-1.390, 1.512e-4
-1.391, 1.543e-4
-1.392, 1.543e-4
-1.393, 1.574e-4
-1.394, 1.605e-4
-1.395, 1.605e-4
-1.396, 1.636e-4
-1.397, 1.666e-4
-1.398, 1.666e-4
-1.399, 1.697e-4
-1.400, 1.728e-4
-1.401, 1.759e-4
-1.402, 1.759e-4
-1.403, 1.790e-4
-1.404, 1.821e-4
-1.405, 1.851e-4
-1.406, 1.851e-4
-1.407, 1.882e-4
-1.408, 1.913e-4
-1.409, 1.944e-4
-1.410, 1.975e-4
-1.411, 2.006e-4
-1.412, 2.036e-4
-1.413, 2.067e-4
-1.414, 2.098e-4
-1.415, 2.129e-4
-1.416, 2.191e-4
-1.417, 2.191e-4
-1.418, 2.252e-4
-1.419, 2.283e-4
-1.420, 2.314e-4
-1.421, 2.345e-4
-1.422, 2.376e-4
-1.423, 2.437e-4
-1.424, 2.468e-4
-1.425, 2.499e-4
-1.426, 2.530e-4
-1.427, 2.591e-4
-1.428, 2.622e-4
-1.429, 2.684e-4
-1.430, 2.715e-4
-1.431, 2.746e-4
-1.432, 2.807e-4
-1.433, 2.869e-4
-1.434, 2.931e-4
-1.435, 2.961e-4
-1.436, 3.054e-4
-1.437, 3.085e-4
-1.438, 3.146e-4
-1.439, 3.208e-4
-1.440, 3.270e-4
-1.441, 3.300e-4
-1.442, 3.393e-4
-1.443, 3.455e-4
-1.444, 3.516e-4
-1.445, 3.578e-4
-1.446, 3.640e-4
-1.447, 3.732e-4
-1.448, 3.794e-4
-1.449, 3.886e-4
-1.450, 3.917e-4
-1.451, 4.010e-4
-1.452, 4.102e-4
-1.453, 4.164e-4
-1.454, 4.256e-4
-1.455, 4.349e-4
-1.456, 4.441e-4
-1.457, 4.534e-4
-1.458, 4.595e-4
-1.459, 4.688e-4
-1.460, 4.780e-4
-1.461, 4.873e-4
-1.462, 4.996e-4
-1.463, 5.089e-4
-1.464, 5.181e-4
-1.465, 5.305e-4
-1.466, 5.397e-4
-1.467, 5.520e-4
-1.468, 5.644e-4
-1.469, 5.767e-4
-1.470, 5.859e-4
-1.471, 5.983e-4
-1.472, 6.137e-4
-1.473, 6.260e-4
-1.474, 6.384e-4
-1.475, 6.507e-4
-1.476, 6.661e-4
-1.477, 6.815e-4
-1.478, 6.939e-4
-1.479, 7.093e-4
-1.480, 7.247e-4
-1.481, 7.401e-4
-1.482, 7.555e-4
-1.483, 7.740e-4
-1.484, 7.894e-4
-1.485, 8.079e-4
-1.486, 8.233e-4
-1.487, 8.449e-4
-1.488, 8.603e-4
-1.489, 8.788e-4
-1.490, 9.004e-4
-1.491, 9.189e-4
-1.492, 9.405e-4
-1.493, 9.621e-4
-1.494, 9.837e-4
-1.495, 1.005e-3
-1.496, 1.027e-3
-1.497, 1.051e-3
-1.498, 1.073e-3
-1.499, 1.098e-3
-1.500, 1.122e-3
-1.501, 1.147e-3
-1.502, 1.175e-3
-1.503, 1.199e-3
-1.504, 1.224e-3
-1.505, 1.252e-3
-1.506, 1.280e-3
-1.507, 1.307e-3
-1.508, 1.335e-3
-1.509, 1.366e-3
-1.510, 1.394e-3
-1.511, 1.428e-3
-1.512, 1.455e-3
-1.513, 1.489e-3
-1.514, 1.520e-3
-1.515, 1.554e-3
-1.516, 1.588e-3
-1.517, 1.622e-3
-1.518, 1.656e-3
-1.519, 1.693e-3
-1.520, 1.730e-3
-1.521, 1.764e-3
-1.522, 1.804e-3
-1.523, 1.841e-3
-1.524, 1.878e-3
-1.525, 1.915e-3
-1.526, 1.955e-3
-1.527, 1.992e-3
-1.528, 2.029e-3
-1.529, 2.072e-3
-1.530, 2.112e-3
-1.531, 2.149e-3
-1.532, 2.195e-3
-1.533, 2.235e-3
-1.534, 2.282e-3
-1.535, 2.325e-3
-1.536, 2.368e-3
-1.537, 2.411e-3
-1.538, 2.448e-3
-1.539, 2.494e-3
-1.540, 2.541e-3
-1.541, 2.587e-3
-1.542, 2.630e-3
-1.543, 2.676e-3
-1.544, 2.719e-3
-1.545, 2.766e-3
-1.546, 2.809e-3
-1.547, 2.849e-3
-1.548, 2.895e-3
-1.549, 2.945e-3
-1.550, 2.991e-3
-1.551, 3.037e-3
-1.552, 3.086e-3
-1.553, 3.130e-3
-1.554, 3.179e-3
-1.555, 3.231e-3
-1.556, 3.281e-3
-1.557, 3.324e-3
-1.558, 3.376e-3
-1.559, 3.425e-3
-1.560, 3.472e-3
-1.561, 3.524e-3
-1.562, 3.573e-3
-1.563, 3.623e-3
-1.564, 3.672e-3
-1.565, 3.715e-3
-1.566, 3.762e-3
-1.567, 3.811e-3
-1.568, 3.860e-3
-1.569, 3.910e-3
-1.570, 3.959e-3
-1.571, 4.008e-3
-1.572, 4.058e-3
-1.573, 4.113e-3
-1.574, 4.169e-3
-1.575, 4.221e-3
-1.576, 4.280e-3
-1.577, 4.332e-3
-1.578, 4.381e-3
-1.579, 4.437e-3
-1.580, 4.492e-3
-1.581, 4.548e-3
-1.582, 4.603e-3
-1.583, 4.659e-3
-1.584, 4.708e-3
-1.585, 4.760e-3
-1.586, 4.816e-3
-1.587, 4.875e-3
-1.588, 4.930e-3
-1.589, 4.989e-3
-1.590, 5.044e-3
-1.591, 5.097e-3
-1.592, 5.152e-3
-1.593, 5.208e-3
-1.594, 5.263e-3
-1.595, 5.319e-3
-1.596, 5.377e-3
-1.597, 5.439e-3
-1.598, 5.494e-3
-1.599, 5.556e-3
-1.600, 5.568e-3
-1.599, 5.513e-3
-1.598, 5.463e-3
-1.597, 5.417e-3
-1.596, 5.365e-3
-1.595, 5.309e-3
-1.594, 5.257e-3
-1.593, 5.201e-3
-1.592, 5.146e-3
-1.591, 5.093e-3
-1.590, 5.047e-3
-1.589, 4.998e-3
-1.588, 4.952e-3
-1.587, 4.902e-3
-1.586, 4.859e-3
-1.585, 4.807e-3
-1.584, 4.754e-3
-1.583, 4.705e-3
-1.582, 4.656e-3
-1.581, 4.606e-3
-1.580, 4.563e-3
-1.579, 4.517e-3
-1.578, 4.468e-3
-1.577, 4.421e-3
-1.576, 4.372e-3
-1.575, 4.320e-3
-1.574, 4.273e-3
-1.573, 4.224e-3
-1.572, 4.178e-3
-1.571, 4.135e-3
-1.570, 4.082e-3
-1.569, 4.033e-3
-1.568, 3.987e-3
-1.567, 3.937e-3
-1.566, 3.894e-3
-1.565, 3.851e-3
-1.564, 3.808e-3
-1.563, 3.762e-3
-1.562, 3.718e-3
-1.561, 3.669e-3
-1.560, 3.626e-3
-1.559, 3.586e-3
-1.558, 3.543e-3
-1.557, 3.496e-3
-1.556, 3.453e-3
-1.555, 3.410e-3
-1.554, 3.364e-3
-1.553, 3.321e-3
-1.552, 3.284e-3
-1.551, 3.244e-3
-1.550, 3.197e-3
-1.549, 3.157e-3
-1.548, 3.120e-3
-1.547, 3.080e-3
-1.546, 3.040e-3
-1.545, 3.000e-3
-1.544, 2.957e-3
-1.543, 2.914e-3
-1.542, 2.877e-3
-1.541, 2.840e-3
-1.540, 2.800e-3
-1.539, 2.763e-3
-1.538, 2.726e-3
-1.537, 2.686e-3
-1.536, 2.649e-3
-1.535, 2.608e-3
-1.534, 2.575e-3
-1.533, 2.541e-3
-1.532, 2.507e-3
-1.531, 2.473e-3
-1.530, 2.436e-3
-1.529, 2.399e-3
-1.528, 2.365e-3
-1.527, 2.328e-3
-1.526, 2.291e-3
-1.525, 2.260e-3
-1.524, 2.223e-3
-1.523, 2.192e-3
-1.522, 2.158e-3
-1.521, 2.118e-3
-1.520, 2.084e-3
-1.519, 2.050e-3
-1.518, 2.020e-3
-1.517, 1.986e-3
-1.516, 1.952e-3
-1.515, 1.921e-3
-1.514, 1.890e-3
-1.513, 1.859e-3
-1.512, 1.832e-3
-1.511, 1.801e-3
-1.510, 1.770e-3
-1.509, 1.742e-3
-1.508, 1.711e-3
-1.507, 1.680e-3
-1.506, 1.650e-3
-1.505, 1.619e-3
-1.504, 1.594e-3
-1.503, 1.566e-3
-1.502, 1.536e-3
-1.501, 1.508e-3
-1.500, 1.480e-3
-1.499, 1.455e-3
-1.498, 1.428e-3
-1.497, 1.400e-3
-1.496, 1.375e-3
-1.495, 1.351e-3
-1.494, 1.326e-3
-1.493, 1.301e-3
-1.492, 1.277e-3
-1.491, 1.252e-3
-1.490, 1.230e-3
-1.489, 1.206e-3
-1.488, 1.184e-3
-1.487, 1.162e-3
-1.486, 1.138e-3
-1.485, 1.116e-3
-1.484, 1.095e-3
-1.483, 1.073e-3
-1.482, 1.048e-3
-1.481, 1.030e-3
-1.480, 1.008e-3
-1.479, 9.868e-4
-1.478, 9.652e-4
-1.477, 9.467e-4
-1.476, 9.282e-4
-1.475, 9.066e-4
-1.474, 8.881e-4
-1.473, 8.696e-4
-1.472, 8.511e-4
-1.471, 8.357e-4
-1.470, 8.141e-4
-1.469, 7.956e-4
-1.468, 7.771e-4
-1.467, 7.617e-4
-1.466, 7.432e-4
-1.465, 7.278e-4
-1.464, 7.124e-4
-1.463, 6.969e-4
-1.462, 6.784e-4
-1.461, 6.661e-4
-1.460, 6.476e-4
-1.459, 6.322e-4
-1.458, 6.199e-4
-1.457, 6.044e-4
-1.456, 5.890e-4
-1.455, 5.767e-4
-1.454, 5.613e-4
-1.453, 5.489e-4
-1.452, 5.366e-4
-1.451, 5.243e-4
-1.450, 5.120e-4
-1.449, 4.996e-4
-1.448, 4.873e-4
-1.447, 4.750e-4
-1.446, 4.626e-4
-1.445, 4.534e-4
-1.444, 4.410e-4
-1.443, 4.287e-4
-1.442, 4.195e-4
-1.441, 4.071e-4
-1.440, 3.979e-4
-1.439, 3.886e-4
-1.438, 3.794e-4
-1.437, 3.701e-4
-1.436, 3.578e-4
-1.435, 3.485e-4
-1.434, 3.393e-4
-1.433, 3.331e-4
-1.432, 3.239e-4
-1.431, 3.146e-4
-1.430, 3.054e-4
-1.429, 2.961e-4
-1.428, 2.900e-4
-1.427, 2.807e-4
-1.426, 2.746e-4
-1.425, 2.653e-4
-1.424, 2.591e-4
-1.423, 2.530e-4
-1.422, 2.437e-4
-1.421, 2.376e-4
-1.420, 2.314e-4
-1.419, 2.252e-4
-1.418, 2.191e-4
-1.417, 2.129e-4
-1.416, 2.067e-4
-1.415, 2.006e-4
-1.414, 1.944e-4
-1.413, 1.882e-4
-1.412, 1.821e-4
-1.411, 1.759e-4
-1.410, 1.728e-4
-1.409, 1.666e-4
-1.408, 1.605e-4
-1.407, 1.574e-4
-1.406, 1.512e-4
-1.405, 1.481e-4
-1.404, 1.420e-4
-1.403, 1.358e-4
-1.402, 1.327e-4
-1.401, 1.266e-4
-1.400, 1.235e-4
-1.399, 1.204e-4
-1.398, 1.173e-4
-1.397, 1.111e-4
-1.396, 1.081e-4
-1.395, 1.050e-4
-1.394, 1.019e-4
-1.393, 9.573e-5
-1.392, 9.573e-5
-1.391, 8.957e-5
-1.390, 8.648e-5
-1.389, 8.340e-5
-1.388, 8.032e-5
-1.387, 7.723e-5
-1.386, 7.415e-5
-1.385, 7.107e-5
-1.384, 6.798e-5
-1.383, 6.490e-5
-1.382, 6.182e-5
-1.381, 5.873e-5
-1.380, 5.565e-5
-1.379, 5.565e-5
-1.378, 5.257e-5
-1.377, 4.949e-5
-1.376, 4.640e-5
-1.375, 4.332e-5
-1.374, 4.332e-5
-1.373, 3.715e-5
-1.372, 3.715e-5
-1.371, 3.715e-5
-1.370, 3.407e-5
-1.369, 3.099e-5
-1.368, 2.790e-5
-1.367, 2.790e-5
-1.366, 2.482e-5
-1.365, 2.482e-5
-1.364, 2.174e-5
-1.363, 1.865e-5
-1.362, 1.865e-5
-1.361, 1.557e-5
-1.360, 1.557e-5
-1.359, 1.249e-5
-1.358, 1.249e-5
-1.357, 9.405e-6
-1.356, 6.322e-6
-1.355, 6.322e-6
-1.354, 6.322e-6
-1.353, 3.239e-6
-1.352, 3.239e-6
-1.351, 1.559e-7
-1.350, 1.559e-7
-1.349, 1.559e-7
-1.348, -2.927e-6
-1.347, -2.927e-6
-1.346, -6.010e-6
-1.345, -6.010e-6
-1.344, -6.010e-6
-1.343, -9.093e-6
-1.342, -9.093e-6
-1.341, -9.093e-6
-1.340, -1.218e-5
-1.339, -1.218e-5
-1.338, -1.218e-5
-1.337, -1.218e-5
-1.336, -1.526e-5
-1.335, -1.526e-5
-1.334, -1.834e-5
-1.333, -1.834e-5
-1.332, -1.834e-5
-1.331, -1.834e-5
-1.330, -1.834e-5
-1.329, -2.143e-5
-1.328, -2.143e-5
-1.327, -2.143e-5
-1.326, -2.143e-5
-1.325, -2.451e-5
-1.324, -2.451e-5
-1.323, -2.451e-5
-1.322, -2.759e-5
-1.321, -2.759e-5
-1.320, -2.759e-5
-1.319, -2.759e-5
-1.318, -3.068e-5
-1.317, -3.068e-5
-1.316, -3.068e-5
-1.315, -3.068e-5
-1.314, -3.068e-5
-1.313, -3.376e-5
-1.312, -3.068e-5
-1.311, -3.376e-5
-1.310, -3.376e-5
-1.309, -3.376e-5
-1.308, -3.376e-5
-1.307, -3.376e-5
-1.306, -3.376e-5
-1.305, -3.376e-5
-1.304, -3.376e-5
-1.303, -3.684e-5
-1.302, -3.684e-5
-1.301, -3.684e-5
-1.300, -3.684e-5
-1.299, -3.992e-5
-1.298, -3.684e-5
-1.297, -3.684e-5
-1.296, -3.992e-5
-1.295, -3.992e-5
-1.294, -3.992e-5
-1.293, -3.992e-5
-1.292, -3.992e-5
-1.291, -3.992e-5
-1.290, -3.992e-5
-1.289, -4.301e-5
-1.288, -4.301e-5
-1.287, -4.301e-5
-1.286, -4.301e-5
-1.285, -4.301e-5
-1.284, -4.301e-5
-1.283, -4.301e-5
-1.282, -4.609e-5
-1.281, -4.301e-5
-1.280, -4.609e-5
-1.279, -4.609e-5
-1.278, -4.609e-5
-1.277, -4.609e-5
-1.276, -4.609e-5
-1.275, -4.609e-5
-1.274, -4.609e-5
-1.273, -4.609e-5
-1.272, -4.609e-5
-1.271, -4.609e-5
-1.270, -4.609e-5
-1.269, -4.917e-5
-1.268, -4.917e-5
-1.267, -4.609e-5
-1.266, -4.917e-5
-1.265, -4.917e-5
-1.264, -4.917e-5
-1.263, -4.917e-5
-1.262, -4.917e-5
-1.261, -4.917e-5
-1.260, -4.917e-5
-1.259, -4.917e-5
-1.258, -4.917e-5
-1.257, -4.917e-5
-1.256, -5.226e-5
-1.255, -5.226e-5
-1.254, -5.226e-5
-1.253, -5.226e-5
-1.252, -4.917e-5
-1.251, -5.226e-5
-1.250, -5.226e-5
-1.249, -5.226e-5
-1.248, -5.226e-5
-1.247, -5.226e-5
-1.246, -5.226e-5
-1.245, -5.226e-5
-1.244, -5.226e-5
-1.243, -5.226e-5
-1.242, -5.534e-5
-1.241, -5.226e-5
-1.240, -5.534e-5
-1.239, -5.534e-5
-1.238, -5.226e-5
-1.237, -5.534e-5
-1.236, -5.534e-5
-1.235, -5.534e-5
-1.234, -5.534e-5
-1.233, -5.534e-5
-1.232, -5.534e-5
-1.231, -5.534e-5
-1.230, -5.534e-5
-1.229, -5.534e-5
-1.228, -5.534e-5
-1.227, -5.534e-5
-1.226, -5.534e-5
-1.225, -5.534e-5
-1.224, -5.534e-5
-1.223, -5.534e-5
-1.222, -5.842e-5
-1.221, -5.842e-5
-1.220, -5.842e-5
-1.219, -5.842e-5
-1.218, -5.534e-5
-1.217, -5.842e-5
-1.216, -5.842e-5
-1.215, -5.842e-5
-1.214, -5.842e-5
-1.213, -5.842e-5
-1.212, -5.842e-5
-1.211, -5.842e-5
-1.210, -5.842e-5
-1.209, -6.151e-5
-1.208, -5.842e-5
-1.207, -5.842e-5
-1.206, -5.842e-5
-1.205, -5.842e-5
-1.204, -5.842e-5
-1.203, -5.842e-5
-1.202, -5.842e-5
-1.201, -5.842e-5
-1.200, -5.842e-5
-1.199, -5.842e-5
-1.198, -6.151e-5
-1.197, -6.151e-5
-1.196, -6.151e-5
-1.195, -6.151e-5
-1.194, -6.151e-5
-1.193, -6.151e-5
-1.192, -6.151e-5
-1.191, -6.151e-5
-1.190, -6.151e-5
-1.189, -6.151e-5
-1.188, -6.151e-5
-1.187, -6.151e-5
-1.186, -6.151e-5
-1.185, -6.151e-5
-1.184, -6.151e-5
-1.183, -6.151e-5
-1.182, -6.459e-5
-1.181, -6.151e-5
-1.180, -6.151e-5
-1.179, -6.151e-5
-1.178, -6.459e-5
-1.177, -6.459e-5
-1.176, -6.459e-5
-1.175, -6.459e-5
-1.174, -6.459e-5
-1.173, -6.459e-5
-1.172, -6.459e-5
-1.171, -6.459e-5
-1.170, -6.459e-5
-1.169, -6.459e-5
-1.168, -6.459e-5
-1.167, -6.459e-5
-1.166, -6.459e-5
-1.165, -6.459e-5
-1.164, -6.459e-5
-1.163, -6.767e-5
-1.162, -6.459e-5
-1.161, -6.767e-5
-1.160, -6.767e-5
-1.159, -6.767e-5
-1.158, -6.767e-5
-1.157, -6.767e-5
-1.156, -6.767e-5
-1.155, -6.767e-5
-1.154, -6.767e-5
-1.153, -6.767e-5
-1.152, -6.767e-5
-1.151, -6.767e-5
-1.150, -6.767e-5
-1.149, -6.767e-5
-1.148, -6.767e-5
-1.147, -6.767e-5
-1.146, -6.767e-5
-1.145, -6.767e-5
-1.144, -6.767e-5
-1.143, -7.076e-5
-1.142, -7.076e-5
-1.141, -7.076e-5
-1.140, -7.076e-5
-1.139, -7.076e-5
-1.138, -7.076e-5
-1.137, -7.076e-5
-1.136, -7.076e-5
-1.135, -7.076e-5
-1.134, -7.076e-5
-1.133, -7.076e-5
-1.132, -7.076e-5
-1.131, -7.076e-5
-1.130, -7.076e-5
-1.129, -7.384e-5
-1.128, -7.076e-5
-1.127, -7.384e-5
-1.126, -7.384e-5
-1.125, -7.384e-5
-1.124, -7.384e-5
-1.123, -7.384e-5
-1.122, -7.384e-5
-1.121, -7.384e-5
-1.120, -7.384e-5
-1.119, -7.384e-5
-1.118, -7.384e-5
-1.117, -7.384e-5
-1.116, -7.692e-5
-1.115, -7.692e-5
-1.114, -7.692e-5
-1.113, -7.692e-5
-1.112, -7.692e-5
-1.111, -7.692e-5
-1.110, -7.692e-5
-1.109, -7.692e-5
-1.108, -8.000e-5
-1.107, -8.000e-5
-1.106, -8.000e-5
-1.105, -8.000e-5
-1.104, -7.692e-5
-1.103, -8.000e-5
-1.102, -8.000e-5
-1.101, -8.000e-5
-1.100, -8.000e-5
-1.099, -8.000e-5
-1.098, -8.000e-5
-1.097, -8.000e-5
-1.096, -8.000e-5
-1.095, -8.309e-5
-1.094, -8.309e-5
-1.093, -8.309e-5
-1.092, -8.309e-5
-1.091, -8.309e-5
-1.090, -8.309e-5
-1.089, -8.309e-5
-1.088, -8.309e-5
-1.087, -8.617e-5
-1.086, -8.617e-5
-1.085, -8.617e-5
-1.084, -8.617e-5
-1.083, -8.617e-5
-1.082, -8.617e-5
-1.081, -8.617e-5
-1.080, -8.617e-5
-1.079, -8.925e-5
-1.078, -8.925e-5
-1.077, -8.925e-5
-1.076, -8.925e-5
-1.075, -8.925e-5
-1.074, -8.925e-5
-1.073, -8.925e-5
-1.072, -8.925e-5
-1.071, -9.234e-5
-1.070, -9.234e-5
-1.069, -9.234e-5
-1.068, -9.234e-5
-1.067, -9.234e-5
-1.066, -9.234e-5
-1.065, -9.234e-5
-1.064, -9.542e-5
-1.063, -9.542e-5
-1.062, -9.542e-5
-1.061, -9.542e-5
-1.060, -9.850e-5
-1.059, -9.850e-5
-1.058, -9.850e-5
-1.057, -9.850e-5
-1.056, -9.850e-5
-1.055, -9.850e-5
-1.054, -1.016e-4
-1.053, -1.016e-4
-1.052, -1.016e-4
-1.051, -1.016e-4
-1.050, -1.016e-4
-1.049, -1.047e-4
-1.048, -1.047e-4
-1.047, -1.047e-4
-1.046, -1.047e-4
-1.045, -1.047e-4
-1.044, -1.078e-4
-1.043, -1.078e-4
-1.042, -1.078e-4
-1.041, -1.078e-4
-1.040, -1.108e-4
-1.039, -1.108e-4
-1.038, -1.108e-4
-1.037, -1.108e-4
-1.036, -1.139e-4
-1.035, -1.139e-4
-1.034, -1.139e-4
-1.033, -1.170e-4
-1.032, -1.170e-4
-1.031, -1.170e-4
-1.030, -1.170e-4
-1.029, -1.170e-4
-1.028, -1.201e-4
-1.027, -1.201e-4
-1.026, -1.201e-4
-1.025, -1.232e-4
-1.024, -1.232e-4
-1.023, -1.232e-4
-1.022, -1.263e-4
-1.021, -1.263e-4
-1.020, -1.263e-4
-1.019, -1.293e-4
-1.018, -1.293e-4
-1.017, -1.293e-4
-1.016, -1.293e-4
-1.015, -1.324e-4
-1.014, -1.324e-4
-1.013, -1.355e-4
-1.012, -1.355e-4
-1.011, -1.355e-4
-1.010, -1.355e-4
-1.009, -1.386e-4
-1.008, -1.417e-4
-1.007, -1.417e-4
-1.006, -1.417e-4
-1.005, -1.448e-4
-1.004, -1.448e-4
-1.003, -1.448e-4
-1.002, -1.478e-4
-1.001, -1.478e-4
