Sept. 23, 2024   11:14:06
Cyclic Voltammetry
File: c:/users/guazh/data/20240922_batch_417_500/2024-09-22-exp425\exp425-2024-09-23t10_57_34-arkoh\exp425_cv_sr_700mvs_efin_-1800mv.bin
Data Source:  Experiment
Instrument Model:  CHI760E
Header: CV ran at 700 mVs
Note: 

Init E (V) = -1
High E (V) = -1
Low E (V) = -1.8
Final E (V) = -1
Init P/N = N
Scan Rate (V/s) = 0.7
Segment = 3
Sample Interval (V) = 0.001
Quiet Time (sec) = 2
Sensitivity (A/V) = 0.01
Comp R (ohm) = 2.7

Results:

Channel 1:
Segment 1:

Segment 2:

Segment 3:

Potential/V, Current/A

-1.000, 1.559e-7
-1.001, 3.239e-6
-1.002, 3.239e-6
-1.003, 1.559e-7
-1.004, 3.239e-6
-1.005, 3.239e-6
-1.006, 3.239e-6
-1.007, 3.239e-6
-1.008, 3.239e-6
-1.009, 3.239e-6
-1.010, 3.239e-6
-1.011, 3.239e-6
-1.012, 3.239e-6
-1.013, 3.239e-6
-1.014, 3.239e-6
-1.015, 3.239e-6
-1.016, 3.239e-6
-1.017, 3.239e-6
-1.018, 3.239e-6
-1.019, 3.239e-6
-1.020, 3.239e-6
-1.021, 3.239e-6
-1.022, 3.239e-6
-1.023, 3.239e-6
-1.024, 3.239e-6
-1.025, 3.239e-6
-1.026, 3.239e-6
-1.027, 3.239e-6
-1.028, 3.239e-6
-1.029, 3.239e-6
-1.030, 3.239e-6
-1.031, 3.239e-6
-1.032, 3.239e-6
-1.033, 3.239e-6
-1.034, 3.239e-6
-1.035, 3.239e-6
-1.036, 3.239e-6
-1.037, 3.239e-6
-1.038, 3.239e-6
-1.039, 3.239e-6
-1.040, 3.239e-6
-1.041, 3.239e-6
-1.042, 3.239e-6
-1.043, 3.239e-6
-1.044, 3.239e-6
-1.045, 3.239e-6
-1.046, 3.239e-6
-1.047, 3.239e-6
-1.048, 3.239e-6
-1.049, 3.239e-6
-1.050, 3.239e-6
-1.051, 3.239e-6
-1.052, 6.322e-6
-1.053, 3.239e-6
-1.054, 3.239e-6
-1.055, 3.239e-6
-1.056, 3.239e-6
-1.057, 3.239e-6
-1.058, 3.239e-6
-1.059, 3.239e-6
-1.060, 3.239e-6
-1.061, 3.239e-6
-1.062, 3.239e-6
-1.063, 3.239e-6
-1.064, 3.239e-6
-1.065, 3.239e-6
-1.066, 6.322e-6
-1.067, 3.239e-6
-1.068, 3.239e-6
-1.069, 3.239e-6
-1.070, 3.239e-6
-1.071, 3.239e-6
-1.072, 3.239e-6
-1.073, 6.322e-6
-1.074, 3.239e-6
-1.075, 3.239e-6
-1.076, 3.239e-6
-1.077, 3.239e-6
-1.078, 3.239e-6
-1.079, 3.239e-6
-1.080, 3.239e-6
-1.081, 3.239e-6
-1.082, 3.239e-6
-1.083, 3.239e-6
-1.084, 3.239e-6
-1.085, 3.239e-6
-1.086, 3.239e-6
-1.087, 6.322e-6
-1.088, 3.239e-6
-1.089, 3.239e-6
-1.090, 3.239e-6
-1.091, 3.239e-6
-1.092, 3.239e-6
-1.093, 6.322e-6
-1.094, 3.239e-6
-1.095, 3.239e-6
-1.096, 3.239e-6
-1.097, 6.322e-6
-1.098, 6.322e-6
-1.099, 6.322e-6
-1.100, 6.322e-6
-1.101, 6.322e-6
-1.102, 3.239e-6
-1.103, 3.239e-6
-1.104, 6.322e-6
-1.105, 6.322e-6
-1.106, 6.322e-6
-1.107, 3.239e-6
-1.108, 3.239e-6
-1.109, 6.322e-6
-1.110, 6.322e-6
-1.111, 6.322e-6
-1.112, 6.322e-6
-1.113, 6.322e-6
-1.114, 6.322e-6
-1.115, 6.322e-6
-1.116, 6.322e-6
-1.117, 6.322e-6
-1.118, 6.322e-6
-1.119, 3.239e-6
-1.120, 6.322e-6
-1.121, 3.239e-6
-1.122, 6.322e-6
-1.123, 6.322e-6
-1.124, 6.322e-6
-1.125, 6.322e-6
-1.126, 3.239e-6
-1.127, 6.322e-6
-1.128, 6.322e-6
-1.129, 6.322e-6
-1.130, 6.322e-6
-1.131, 6.322e-6
-1.132, 6.322e-6
-1.133, 6.322e-6
-1.134, 6.322e-6
-1.135, 6.322e-6
-1.136, 6.322e-6
-1.137, 6.322e-6
-1.138, 3.239e-6
-1.139, 6.322e-6
-1.140, 6.322e-6
-1.141, 6.322e-6
-1.142, 6.322e-6
-1.143, 6.322e-6
-1.144, 6.322e-6
-1.145, 6.322e-6
-1.146, 6.322e-6
-1.147, 6.322e-6
-1.148, 6.322e-6
-1.149, 6.322e-6
-1.150, 6.322e-6
-1.151, 6.322e-6
-1.152, 6.322e-6
-1.153, 6.322e-6
-1.154, 6.322e-6
-1.155, 6.322e-6
-1.156, 6.322e-6
-1.157, 6.322e-6
-1.158, 6.322e-6
-1.159, 6.322e-6
-1.160, 6.322e-6
-1.161, 6.322e-6
-1.162, 6.322e-6
-1.163, 6.322e-6
-1.164, 6.322e-6
-1.165, 6.322e-6
-1.166, 6.322e-6
-1.167, 6.322e-6
-1.168, 6.322e-6
-1.169, 6.322e-6
-1.170, 6.322e-6
-1.171, 6.322e-6
-1.172, 6.322e-6
-1.173, 6.322e-6
-1.174, 6.322e-6
-1.175, 6.322e-6
-1.176, 6.322e-6
-1.177, 6.322e-6
-1.178, 6.322e-6
-1.179, 6.322e-6
-1.180, 6.322e-6
-1.181, 6.322e-6
-1.182, 6.322e-6
-1.183, 6.322e-6
-1.184, 6.322e-6
-1.185, 6.322e-6
-1.186, 6.322e-6
-1.187, 6.322e-6
-1.188, 6.322e-6
-1.189, 6.322e-6
-1.190, 6.322e-6
-1.191, 6.322e-6
-1.192, 9.405e-6
-1.193, 6.322e-6
-1.194, 6.322e-6
-1.195, 6.322e-6
-1.196, 6.322e-6
-1.197, 6.322e-6
-1.198, 9.405e-6
-1.199, 6.322e-6
-1.200, 9.405e-6
-1.201, 6.322e-6
-1.202, 6.322e-6
-1.203, 6.322e-6
-1.204, 6.322e-6
-1.205, 6.322e-6
-1.206, 9.405e-6
-1.207, 6.322e-6
-1.208, 6.322e-6
-1.209, 9.405e-6
-1.210, 6.322e-6
-1.211, 9.405e-6
-1.212, 9.405e-6
-1.213, 6.322e-6
-1.214, 6.322e-6
-1.215, 6.322e-6
-1.216, 9.405e-6
-1.217, 9.405e-6
-1.218, 9.405e-6
-1.219, 6.322e-6
-1.220, 6.322e-6
-1.221, 9.405e-6
-1.222, 6.322e-6
-1.223, 9.405e-6
-1.224, 6.322e-6
-1.225, 9.405e-6
-1.226, 9.405e-6
-1.227, 9.405e-6
-1.228, 6.322e-6
-1.229, 9.405e-6
-1.230, 9.405e-6
-1.231, 6.322e-6
-1.232, 9.405e-6
-1.233, 6.322e-6
-1.234, 9.405e-6
-1.235, 6.322e-6
-1.236, 9.405e-6
-1.237, 9.405e-6
-1.238, 9.405e-6
-1.239, 9.405e-6
-1.240, 9.405e-6
-1.241, 9.405e-6
-1.242, 9.405e-6
-1.243, 9.405e-6
-1.244, 9.405e-6
-1.245, 9.405e-6
-1.246, 9.405e-6
-1.247, 9.405e-6
-1.248, 9.405e-6
-1.249, 9.405e-6
-1.250, 9.405e-6
-1.251, 9.405e-6
-1.252, 9.405e-6
-1.253, 9.405e-6
-1.254, 9.405e-6
-1.255, 9.405e-6
-1.256, 9.405e-6
-1.257, 9.405e-6
-1.258, 9.405e-6
-1.259, 9.405e-6
-1.260, 9.405e-6
-1.261, 9.405e-6
-1.262, 9.405e-6
-1.263, 9.405e-6
-1.264, 9.405e-6
-1.265, 9.405e-6
-1.266, 9.405e-6
-1.267, 9.405e-6
-1.268, 9.405e-6
-1.269, 9.405e-6
-1.270, 9.405e-6
-1.271, 9.405e-6
-1.272, 9.405e-6
-1.273, 9.405e-6
-1.274, 9.405e-6
-1.275, 9.405e-6
-1.276, 9.405e-6
-1.277, 9.405e-6
-1.278, 9.405e-6
-1.279, 9.405e-6
-1.280, 9.405e-6
-1.281, 9.405e-6
-1.282, 9.405e-6
-1.283, 9.405e-6
-1.284, 9.405e-6
-1.285, 9.405e-6
-1.286, 9.405e-6
-1.287, 9.405e-6
-1.288, 9.405e-6
-1.289, 9.405e-6
-1.290, 9.405e-6
-1.291, 9.405e-6
-1.292, 9.405e-6
-1.293, 9.405e-6
-1.294, 9.405e-6
-1.295, 9.405e-6
-1.296, 9.405e-6
-1.297, 9.405e-6
-1.298, 9.405e-6
-1.299, 9.405e-6
-1.300, 9.405e-6
-1.301, 9.405e-6
-1.302, 9.405e-6
-1.303, 9.405e-6
-1.304, 9.405e-6
-1.305, 9.405e-6
-1.306, 9.405e-6
-1.307, 9.405e-6
-1.308, 9.405e-6
-1.309, 9.405e-6
-1.310, 9.405e-6
-1.311, 9.405e-6
-1.312, 9.405e-6
-1.313, 9.405e-6
-1.314, 1.249e-5
-1.315, 9.405e-6
-1.316, 9.405e-6
-1.317, 9.405e-6
-1.318, 9.405e-6
-1.319, 1.249e-5
-1.320, 1.249e-5
-1.321, 9.405e-6
-1.322, 9.405e-6
-1.323, 9.405e-6
-1.324, 9.405e-6
-1.325, 1.249e-5
-1.326, 1.249e-5
-1.327, 1.249e-5
-1.328, 1.249e-5
-1.329, 9.405e-6
-1.330, 1.249e-5
-1.331, 1.249e-5
-1.332, 1.249e-5
-1.333, 9.405e-6
-1.334, 1.249e-5
-1.335, 9.405e-6
-1.336, 1.249e-5
-1.337, 1.249e-5
-1.338, 1.249e-5
-1.339, 1.249e-5
-1.340, 1.249e-5
-1.341, 1.249e-5
-1.342, 9.405e-6
-1.343, 1.249e-5
-1.344, 1.249e-5
-1.345, 1.249e-5
-1.346, 1.249e-5
-1.347, 9.405e-6
-1.348, 1.249e-5
-1.349, 1.249e-5
-1.350, 1.249e-5
-1.351, 1.249e-5
-1.352, 1.249e-5
-1.353, 1.249e-5
-1.354, 9.405e-6
-1.355, 1.249e-5
-1.356, 1.249e-5
-1.357, 1.249e-5
-1.358, 1.249e-5
-1.359, 1.249e-5
-1.360, 1.249e-5
-1.361, 1.249e-5
-1.362, 1.249e-5
-1.363, 1.249e-5
-1.364, 1.249e-5
-1.365, 1.249e-5
-1.366, 1.249e-5
-1.367, 1.249e-5
-1.368, 1.249e-5
-1.369, 1.249e-5
-1.370, 1.249e-5
-1.371, 1.249e-5
-1.372, 1.249e-5
-1.373, 1.249e-5
-1.374, 1.249e-5
-1.375, 1.249e-5
-1.376, 1.249e-5
-1.377, 1.249e-5
-1.378, 1.249e-5
-1.379, 1.249e-5
-1.380, 1.249e-5
-1.381, 1.249e-5
-1.382, 1.249e-5
-1.383, 1.249e-5
-1.384, 1.249e-5
-1.385, 1.249e-5
-1.386, 1.249e-5
-1.387, 1.249e-5
-1.388, 1.249e-5
-1.389, 1.249e-5
-1.390, 1.249e-5
-1.391, 1.249e-5
-1.392, 1.249e-5
-1.393, 1.249e-5
-1.394, 1.249e-5
-1.395, 1.249e-5
-1.396, 1.557e-5
-1.397, 1.249e-5
-1.398, 1.249e-5
-1.399, 1.249e-5
-1.400, 1.249e-5
-1.401, 1.249e-5
-1.402, 1.249e-5
-1.403, 1.557e-5
-1.404, 1.249e-5
-1.405, 1.557e-5
-1.406, 1.249e-5
-1.407, 1.557e-5
-1.408, 1.249e-5
-1.409, 1.249e-5
-1.410, 1.249e-5
-1.411, 1.557e-5
-1.412, 1.557e-5
-1.413, 1.557e-5
-1.414, 1.557e-5
-1.415, 1.249e-5
-1.416, 1.557e-5
-1.417, 1.557e-5
-1.418, 1.557e-5
-1.419, 1.557e-5
-1.420, 1.557e-5
-1.421, 1.557e-5
-1.422, 1.249e-5
-1.423, 1.557e-5
-1.424, 1.557e-5
-1.425, 1.557e-5
-1.426, 1.557e-5
-1.427, 1.557e-5
-1.428, 1.557e-5
-1.429, 1.557e-5
-1.430, 1.557e-5
-1.431, 1.557e-5
-1.432, 1.557e-5
-1.433, 1.557e-5
-1.434, 1.557e-5
-1.435, 1.557e-5
-1.436, 1.557e-5
-1.437, 1.557e-5
-1.438, 1.557e-5
-1.439, 1.557e-5
-1.440, 1.557e-5
-1.441, 1.557e-5
-1.442, 1.557e-5
-1.443, 1.557e-5
-1.444, 1.557e-5
-1.445, 1.557e-5
-1.446, 1.557e-5
-1.447, 1.557e-5
-1.448, 1.557e-5
-1.449, 1.557e-5
-1.450, 1.557e-5
-1.451, 1.557e-5
-1.452, 1.557e-5
-1.453, 1.557e-5
-1.454, 1.557e-5
-1.455, 1.557e-5
-1.456, 1.557e-5
-1.457, 1.865e-5
-1.458, 1.557e-5
-1.459, 1.557e-5
-1.460, 1.557e-5
-1.461, 1.557e-5
-1.462, 1.865e-5
-1.463, 1.557e-5
-1.464, 1.865e-5
-1.465, 1.557e-5
-1.466, 1.865e-5
-1.467, 1.557e-5
-1.468, 1.557e-5
-1.469, 1.865e-5
-1.470, 1.557e-5
-1.471, 1.865e-5
-1.472, 1.865e-5
-1.473, 1.865e-5
-1.474, 1.557e-5
-1.475, 1.865e-5
-1.476, 1.865e-5
-1.477, 1.865e-5
-1.478, 1.865e-5
-1.479, 1.865e-5
-1.480, 1.865e-5
-1.481, 1.865e-5
-1.482, 1.865e-5
-1.483, 1.865e-5
-1.484, 1.865e-5
-1.485, 1.865e-5
-1.486, 1.865e-5
-1.487, 1.865e-5
-1.488, 1.865e-5
-1.489, 1.865e-5
-1.490, 1.865e-5
-1.491, 1.865e-5
-1.492, 1.865e-5
-1.493, 1.865e-5
-1.494, 1.865e-5
-1.495, 1.865e-5
-1.496, 2.174e-5
-1.497, 1.865e-5
-1.498, 1.865e-5
-1.499, 1.865e-5
-1.500, 2.174e-5
-1.501, 1.865e-5
-1.502, 1.865e-5
-1.503, 1.865e-5
-1.504, 1.865e-5
-1.505, 1.865e-5
-1.506, 2.174e-5
-1.507, 2.174e-5
-1.508, 2.174e-5
-1.509, 2.174e-5
-1.510, 2.174e-5
-1.511, 2.174e-5
-1.512, 2.174e-5
-1.513, 2.174e-5
-1.514, 2.174e-5
-1.515, 2.174e-5
-1.516, 2.174e-5
-1.517, 2.174e-5
-1.518, 2.174e-5
-1.519, 2.174e-5
-1.520, 2.174e-5
-1.521, 2.174e-5
-1.522, 2.174e-5
-1.523, 2.174e-5
-1.524, 2.174e-5
-1.525, 2.174e-5
-1.526, 2.174e-5
-1.527, 2.174e-5
-1.528, 2.174e-5
-1.529, 2.174e-5
-1.530, 2.174e-5
-1.531, 2.174e-5
-1.532, 2.174e-5
-1.533, 2.482e-5
-1.534, 2.482e-5
-1.535, 2.174e-5
-1.536, 2.482e-5
-1.537, 2.482e-5
-1.538, 2.482e-5
-1.539, 2.482e-5
-1.540, 2.482e-5
-1.541, 2.482e-5
-1.542, 2.482e-5
-1.543, 2.482e-5
-1.544, 2.482e-5
-1.545, 2.482e-5
-1.546, 2.482e-5
-1.547, 2.482e-5
-1.548, 2.482e-5
-1.549, 2.482e-5
-1.550, 2.482e-5
-1.551, 2.482e-5
-1.552, 2.790e-5
-1.553, 2.790e-5
-1.554, 2.482e-5
-1.555, 2.790e-5
-1.556, 2.790e-5
-1.557, 2.790e-5
-1.558, 2.790e-5
-1.559, 2.790e-5
-1.560, 2.790e-5
-1.561, 2.790e-5
-1.562, 2.790e-5
-1.563, 2.790e-5
-1.564, 2.790e-5
-1.565, 2.790e-5
-1.566, 3.099e-5
-1.567, 2.790e-5
-1.568, 3.099e-5
-1.569, 3.099e-5
-1.570, 3.099e-5
-1.571, 3.099e-5
-1.572, 3.099e-5
-1.573, 3.099e-5
-1.574, 3.099e-5
-1.575, 3.099e-5
-1.576, 3.099e-5
-1.577, 3.407e-5
-1.578, 3.407e-5
-1.579, 3.099e-5
-1.580, 3.407e-5
-1.581, 3.407e-5
-1.582, 3.407e-5
-1.583, 3.407e-5
-1.584, 3.407e-5
-1.585, 3.407e-5
-1.586, 3.407e-5
-1.587, 3.715e-5
-1.588, 3.715e-5
-1.589, 3.715e-5
-1.590, 3.715e-5
-1.591, 3.715e-5
-1.592, 3.715e-5
-1.593, 3.715e-5
-1.594, 4.024e-5
-1.595, 4.024e-5
-1.596, 4.024e-5
-1.597, 4.024e-5
-1.598, 4.024e-5
-1.599, 4.024e-5
-1.600, 4.332e-5
-1.601, 4.332e-5
-1.602, 4.332e-5
-1.603, 4.332e-5
-1.604, 4.332e-5
-1.605, 4.332e-5
-1.606, 4.640e-5
-1.607, 4.640e-5
-1.608, 4.640e-5
-1.609, 4.640e-5
-1.610, 4.640e-5
-1.611, 4.640e-5
-1.612, 4.949e-5
-1.613, 4.949e-5
-1.614, 5.257e-5
-1.615, 5.257e-5
-1.616, 5.257e-5
-1.617, 5.257e-5
-1.618, 5.565e-5
-1.619, 5.565e-5
-1.620, 5.565e-5
-1.621, 5.565e-5
-1.622, 5.873e-5
-1.623, 5.873e-5
-1.624, 5.873e-5
-1.625, 6.182e-5
-1.626, 6.182e-5
-1.627, 6.490e-5
-1.628, 6.490e-5
-1.629, 6.490e-5
-1.630, 6.798e-5
-1.631, 6.798e-5
-1.632, 6.798e-5
-1.633, 7.107e-5
-1.634, 7.107e-5
-1.635, 7.107e-5
-1.636, 7.415e-5
-1.637, 7.415e-5
-1.638, 7.723e-5
-1.639, 8.032e-5
-1.640, 8.032e-5
-1.641, 8.032e-5
-1.642, 8.340e-5
-1.643, 8.340e-5
-1.644, 8.648e-5
-1.645, 8.957e-5
-1.646, 8.957e-5
-1.647, 9.265e-5
-1.648, 9.265e-5
-1.649, 9.573e-5
-1.650, 9.882e-5
-1.651, 9.882e-5
-1.652, 1.050e-4
-1.653, 1.050e-4
-1.654, 1.050e-4
-1.655, 1.081e-4
-1.656, 1.111e-4
-1.657, 1.142e-4
-1.658, 1.173e-4
-1.659, 1.204e-4
-1.660, 1.204e-4
-1.661, 1.235e-4
-1.662, 1.266e-4
-1.663, 1.327e-4
-1.664, 1.358e-4
-1.665, 1.389e-4
-1.666, 1.389e-4
-1.667, 1.420e-4
-1.668, 1.481e-4
-1.669, 1.512e-4
-1.670, 1.543e-4
-1.671, 1.574e-4
-1.672, 1.605e-4
-1.673, 1.636e-4
-1.674, 1.697e-4
-1.675, 1.728e-4
-1.676, 1.790e-4
-1.677, 1.821e-4
-1.678, 1.851e-4
-1.679, 1.913e-4
-1.680, 1.975e-4
-1.681, 2.006e-4
-1.682, 2.067e-4
-1.683, 2.129e-4
-1.684, 2.160e-4
-1.685, 2.221e-4
-1.686, 2.283e-4
-1.687, 2.314e-4
-1.688, 2.406e-4
-1.689, 2.468e-4
-1.690, 2.499e-4
-1.691, 2.561e-4
-1.692, 2.653e-4
-1.693, 2.715e-4
-1.694, 2.776e-4
-1.695, 2.869e-4
-1.696, 2.931e-4
-1.697, 2.992e-4
-1.698, 3.085e-4
-1.699, 3.146e-4
-1.700, 3.239e-4
-1.701, 3.331e-4
-1.702, 3.424e-4
-1.703, 3.485e-4
-1.704, 3.578e-4
-1.705, 3.670e-4
-1.706, 3.763e-4
-1.707, 3.886e-4
-1.708, 3.979e-4
-1.709, 4.071e-4
-1.710, 4.164e-4
-1.711, 4.287e-4
-1.712, 4.380e-4
-1.713, 4.503e-4
-1.714, 4.626e-4
-1.715, 4.750e-4
-1.716, 4.873e-4
-1.717, 4.996e-4
-1.718, 5.120e-4
-1.719, 5.243e-4
-1.720, 5.366e-4
-1.721, 5.520e-4
-1.722, 5.644e-4
-1.723, 5.798e-4
-1.724, 5.921e-4
-1.725, 6.075e-4
-1.726, 6.229e-4
-1.727, 6.414e-4
-1.728, 6.538e-4
-1.729, 6.723e-4
-1.730, 6.877e-4
-1.731, 7.062e-4
-1.732, 7.216e-4
-1.733, 7.401e-4
-1.734, 7.586e-4
-1.735, 7.771e-4
-1.736, 7.956e-4
-1.737, 8.141e-4
-1.738, 8.388e-4
-1.739, 8.573e-4
-1.740, 8.788e-4
-1.741, 8.973e-4
-1.742, 9.189e-4
-1.743, 9.405e-4
-1.744, 9.652e-4
-1.745, 9.868e-4
-1.746, 1.011e-3
-1.747, 1.033e-3
-1.748, 1.058e-3
-1.749, 1.082e-3
-1.750, 1.107e-3
-1.751, 1.132e-3
-1.752, 1.159e-3
-1.753, 1.184e-3
-1.754, 1.209e-3
-1.755, 1.236e-3
-1.756, 1.264e-3
-1.757, 1.292e-3
-1.758, 1.323e-3
-1.759, 1.351e-3
-1.760, 1.381e-3
-1.761, 1.409e-3
-1.762, 1.440e-3
-1.763, 1.471e-3
-1.764, 1.505e-3
-1.765, 1.536e-3
-1.766, 1.566e-3
-1.767, 1.600e-3
-1.768, 1.634e-3
-1.769, 1.668e-3
-1.770, 1.705e-3
-1.771, 1.739e-3
-1.772, 1.773e-3
-1.773, 1.810e-3
-1.774, 1.847e-3
-1.775, 1.884e-3
-1.776, 1.921e-3
-1.777, 1.958e-3
-1.778, 1.995e-3
-1.779, 2.032e-3
-1.780, 2.072e-3
-1.781, 2.112e-3
-1.782, 2.155e-3
-1.783, 2.192e-3
-1.784, 2.235e-3
-1.785, 2.275e-3
-1.786, 2.316e-3
-1.787, 2.356e-3
-1.788, 2.402e-3
-1.789, 2.445e-3
-1.790, 2.491e-3
-1.791, 2.534e-3
-1.792, 2.581e-3
-1.793, 2.624e-3
-1.794, 2.667e-3
-1.795, 2.713e-3
-1.796, 2.756e-3
-1.797, 2.806e-3
-1.798, 2.852e-3
-1.799, 2.901e-3
-1.800, 2.926e-3
-1.799, 2.917e-3
-1.798, 2.904e-3
-1.797, 2.889e-3
-1.796, 2.874e-3
-1.795, 2.858e-3
-1.794, 2.843e-3
-1.793, 2.824e-3
-1.792, 2.809e-3
-1.791, 2.790e-3
-1.790, 2.769e-3
-1.789, 2.747e-3
-1.788, 2.726e-3
-1.787, 2.701e-3
-1.786, 2.679e-3
-1.785, 2.658e-3
-1.784, 2.636e-3
-1.783, 2.615e-3
-1.782, 2.590e-3
-1.781, 2.568e-3
-1.780, 2.544e-3
-1.779, 2.519e-3
-1.778, 2.494e-3
-1.777, 2.470e-3
-1.776, 2.445e-3
-1.775, 2.423e-3
-1.774, 2.399e-3
-1.773, 2.374e-3
-1.772, 2.349e-3
-1.771, 2.325e-3
-1.770, 2.297e-3
-1.769, 2.272e-3
-1.768, 2.248e-3
-1.767, 2.223e-3
-1.766, 2.201e-3
-1.765, 2.177e-3
-1.764, 2.152e-3
-1.763, 2.128e-3
-1.762, 2.103e-3
-1.761, 2.078e-3
-1.760, 2.054e-3
-1.759, 2.032e-3
-1.758, 2.007e-3
-1.757, 1.986e-3
-1.756, 1.961e-3
-1.755, 1.939e-3
-1.754, 1.912e-3
-1.753, 1.890e-3
-1.752, 1.862e-3
-1.751, 1.838e-3
-1.750, 1.816e-3
-1.749, 1.798e-3
-1.748, 1.776e-3
-1.747, 1.754e-3
-1.746, 1.730e-3
-1.745, 1.708e-3
-1.744, 1.684e-3
-1.743, 1.662e-3
-1.742, 1.637e-3
-1.741, 1.616e-3
-1.740, 1.594e-3
-1.739, 1.576e-3
-1.738, 1.554e-3
-1.737, 1.532e-3
-1.736, 1.511e-3
-1.735, 1.489e-3
-1.734, 1.468e-3
-1.733, 1.446e-3
-1.732, 1.425e-3
-1.731, 1.406e-3
-1.730, 1.388e-3
-1.729, 1.366e-3
-1.728, 1.347e-3
-1.727, 1.329e-3
-1.726, 1.307e-3
-1.725, 1.289e-3
-1.724, 1.270e-3
-1.723, 1.252e-3
-1.722, 1.233e-3
-1.721, 1.215e-3
-1.720, 1.199e-3
-1.719, 1.181e-3
-1.718, 1.162e-3
-1.717, 1.144e-3
-1.716, 1.125e-3
-1.715, 1.110e-3
-1.714, 1.095e-3
-1.713, 1.076e-3
-1.712, 1.058e-3
-1.711, 1.042e-3
-1.710, 1.027e-3
-1.709, 1.008e-3
-1.708, 9.929e-4
-1.707, 9.775e-4
-1.706, 9.621e-4
-1.705, 9.467e-4
-1.704, 9.313e-4
-1.703, 9.158e-4
-1.702, 9.004e-4
-1.701, 8.850e-4
-1.700, 8.696e-4
-1.699, 8.573e-4
-1.698, 8.418e-4
-1.697, 8.295e-4
-1.696, 8.141e-4
-1.695, 7.987e-4
-1.694, 7.863e-4
-1.693, 7.740e-4
-1.692, 7.586e-4
-1.691, 7.463e-4
-1.690, 7.339e-4
-1.689, 7.216e-4
-1.688, 7.062e-4
-1.687, 6.969e-4
-1.686, 6.846e-4
-1.685, 6.723e-4
-1.684, 6.599e-4
-1.683, 6.476e-4
-1.682, 6.353e-4
-1.681, 6.260e-4
-1.680, 6.137e-4
-1.679, 6.044e-4
-1.678, 5.921e-4
-1.677, 5.829e-4
-1.676, 5.705e-4
-1.675, 5.582e-4
-1.674, 5.489e-4
-1.673, 5.397e-4
-1.672, 5.305e-4
-1.671, 5.212e-4
-1.670, 5.120e-4
-1.669, 5.027e-4
-1.668, 4.904e-4
-1.667, 4.811e-4
-1.666, 4.719e-4
-1.665, 4.626e-4
-1.664, 4.565e-4
-1.663, 4.441e-4
-1.662, 4.380e-4
-1.661, 4.287e-4
-1.660, 4.195e-4
-1.659, 4.133e-4
-1.658, 4.040e-4
-1.657, 3.979e-4
-1.656, 3.886e-4
-1.655, 3.825e-4
-1.654, 3.732e-4
-1.653, 3.670e-4
-1.652, 3.578e-4
-1.651, 3.516e-4
-1.650, 3.455e-4
-1.649, 3.362e-4
-1.648, 3.300e-4
-1.647, 3.239e-4
-1.646, 3.177e-4
-1.645, 3.115e-4
-1.644, 3.054e-4
-1.643, 2.992e-4
-1.642, 2.931e-4
-1.641, 2.869e-4
-1.640, 2.807e-4
-1.639, 2.746e-4
-1.638, 2.684e-4
-1.637, 2.622e-4
-1.636, 2.591e-4
-1.635, 2.530e-4
-1.634, 2.468e-4
-1.633, 2.437e-4
-1.632, 2.376e-4
-1.631, 2.314e-4
-1.630, 2.252e-4
-1.629, 2.221e-4
-1.628, 2.191e-4
-1.627, 2.129e-4
-1.626, 2.098e-4
-1.625, 2.036e-4
-1.624, 1.975e-4
-1.623, 1.944e-4
-1.622, 1.913e-4
-1.621, 1.882e-4
-1.620, 1.821e-4
-1.619, 1.790e-4
-1.618, 1.728e-4
-1.617, 1.697e-4
-1.616, 1.666e-4
-1.615, 1.636e-4
-1.614, 1.605e-4
-1.613, 1.574e-4
-1.612, 1.512e-4
-1.611, 1.481e-4
-1.610, 1.451e-4
-1.609, 1.420e-4
-1.608, 1.389e-4
-1.607, 1.358e-4
-1.606, 1.327e-4
-1.605, 1.296e-4
-1.604, 1.266e-4
-1.603, 1.235e-4
-1.602, 1.204e-4
-1.601, 1.204e-4
-1.600, 1.142e-4
-1.599, 1.142e-4
-1.598, 1.111e-4
-1.597, 1.081e-4
-1.596, 1.050e-4
-1.595, 1.019e-4
-1.594, 1.019e-4
-1.593, 9.882e-5
-1.592, 9.573e-5
-1.591, 9.265e-5
-1.590, 9.265e-5
-1.589, 8.957e-5
-1.588, 8.648e-5
-1.587, 8.648e-5
-1.586, 8.340e-5
-1.585, 8.032e-5
-1.584, 8.032e-5
-1.583, 7.723e-5
-1.582, 7.415e-5
-1.581, 7.415e-5
-1.580, 7.107e-5
-1.579, 7.107e-5
-1.578, 6.798e-5
-1.577, 6.490e-5
-1.576, 6.490e-5
-1.575, 6.182e-5
-1.574, 6.182e-5
-1.573, 6.182e-5
-1.572, 5.873e-5
-1.571, 5.565e-5
-1.570, 5.565e-5
-1.569, 5.565e-5
-1.568, 5.257e-5
-1.567, 5.257e-5
-1.566, 4.949e-5
-1.565, 4.949e-5
-1.564, 4.949e-5
-1.563, 4.640e-5
-1.562, 4.640e-5
-1.561, 4.332e-5
-1.560, 4.332e-5
-1.559, 4.332e-5
-1.558, 4.024e-5
-1.557, 4.024e-5
-1.556, 3.715e-5
-1.555, 4.024e-5
-1.554, 3.715e-5
-1.553, 3.715e-5
-1.552, 3.407e-5
-1.551, 3.407e-5
-1.550, 3.407e-5
-1.549, 3.099e-5
-1.548, 3.099e-5
-1.547, 3.099e-5
-1.546, 3.099e-5
-1.545, 2.790e-5
-1.544, 2.790e-5
-1.543, 2.790e-5
-1.542, 2.790e-5
-1.541, 2.482e-5
-1.540, 2.482e-5
-1.539, 2.482e-5
-1.538, 2.482e-5
-1.537, 2.482e-5
-1.536, 2.174e-5
-1.535, 2.174e-5
-1.534, 2.174e-5
-1.533, 2.174e-5
-1.532, 2.174e-5
-1.531, 1.865e-5
-1.530, 1.865e-5
-1.529, 1.865e-5
-1.528, 1.865e-5
-1.527, 1.865e-5
-1.526, 1.865e-5
-1.525, 1.557e-5
-1.524, 1.557e-5
-1.523, 1.557e-5
-1.522, 1.557e-5
-1.521, 1.557e-5
-1.520, 1.557e-5
-1.519, 1.249e-5
-1.518, 1.249e-5
-1.517, 1.249e-5
-1.516, 1.249e-5
-1.515, 1.249e-5
-1.514, 1.249e-5
-1.513, 1.249e-5
-1.512, 1.249e-5
-1.511, 9.405e-6
-1.510, 1.249e-5
-1.509, 9.405e-6
-1.508, 9.405e-6
-1.507, 9.405e-6
-1.506, 9.405e-6
-1.505, 9.405e-6
-1.504, 9.405e-6
-1.503, 9.405e-6
-1.502, 9.405e-6
-1.501, 9.405e-6
-1.500, 6.322e-6
-1.499, 6.322e-6
-1.498, 6.322e-6
-1.497, 6.322e-6
-1.496, 6.322e-6
-1.495, 6.322e-6
-1.494, 6.322e-6
-1.493, 6.322e-6
-1.492, 6.322e-6
-1.491, 3.239e-6
-1.490, 6.322e-6
-1.489, 6.322e-6
-1.488, 3.239e-6
-1.487, 3.239e-6
-1.486, 3.239e-6
-1.485, 3.239e-6
-1.484, 3.239e-6
-1.483, 3.239e-6
-1.482, 3.239e-6
-1.481, 3.239e-6
-1.480, 3.239e-6
-1.479, 3.239e-6
-1.478, 3.239e-6
-1.477, 3.239e-6
-1.476, 3.239e-6
-1.475, 3.239e-6
-1.474, 3.239e-6
-1.473, 3.239e-6
-1.472, 3.239e-6
-1.471, 3.239e-6
-1.470, 1.559e-7
-1.469, 3.239e-6
-1.468, 1.559e-7
-1.467, 1.559e-7
-1.466, 1.559e-7
-1.465, 1.559e-7
-1.464, 1.559e-7
-1.463, 3.239e-6
-1.462, 1.559e-7
-1.461, 1.559e-7
-1.460, 1.559e-7
-1.459, 1.559e-7
-1.458, 1.559e-7
-1.457, 1.559e-7
-1.456, 1.559e-7
-1.455, 1.559e-7
-1.454, 1.559e-7
-1.453, 1.559e-7
-1.452, 1.559e-7
-1.451, 1.559e-7
-1.450, 1.559e-7
-1.449, 1.559e-7
-1.448, 1.559e-7
-1.447, 1.559e-7
-1.446, 1.559e-7
-1.445, 1.559e-7
-1.444, -2.927e-6
-1.443, -2.927e-6
-1.442, -2.927e-6
-1.441, 1.559e-7
-1.440, 1.559e-7
-1.439, 1.559e-7
-1.438, -2.927e-6
-1.437, -2.927e-6
-1.436, -2.927e-6
-1.435, -2.927e-6
-1.434, 1.559e-7
-1.433, 1.559e-7
-1.432, -2.927e-6
-1.431, 1.559e-7
-1.430, -2.927e-6
-1.429, -2.927e-6
-1.428, 1.559e-7
-1.427, -2.927e-6
-1.426, -2.927e-6
-1.425, -2.927e-6
-1.424, -2.927e-6
-1.423, -2.927e-6
-1.422, -2.927e-6
-1.421, -2.927e-6
-1.420, 1.559e-7
-1.419, -2.927e-6
-1.418, -2.927e-6
-1.417, -2.927e-6
-1.416, -2.927e-6
-1.415, 1.559e-7
-1.414, -2.927e-6
-1.413, -2.927e-6
-1.412, -2.927e-6
-1.411, -2.927e-6
-1.410, -2.927e-6
-1.409, -2.927e-6
-1.408, -2.927e-6
-1.407, -2.927e-6
-1.406, -2.927e-6
-1.405, -2.927e-6
-1.404, -2.927e-6
-1.403, -2.927e-6
-1.402, -2.927e-6
-1.401, -2.927e-6
-1.400, -2.927e-6
-1.399, -2.927e-6
-1.398, -2.927e-6
-1.397, -2.927e-6
-1.396, -2.927e-6
-1.395, -2.927e-6
-1.394, -2.927e-6
-1.393, -2.927e-6
-1.392, -2.927e-6
-1.391, -2.927e-6
-1.390, -2.927e-6
-1.389, -2.927e-6
-1.388, -2.927e-6
-1.387, -2.927e-6
-1.386, -2.927e-6
-1.385, -2.927e-6
-1.384, -2.927e-6
-1.383, -2.927e-6
-1.382, -2.927e-6
-1.381, -2.927e-6
-1.380, -2.927e-6
-1.379, -2.927e-6
-1.378, -2.927e-6
-1.377, -2.927e-6
-1.376, -2.927e-6
-1.375, -2.927e-6
-1.374, -2.927e-6
-1.373, -2.927e-6
-1.372, -2.927e-6
-1.371, -2.927e-6
-1.370, -2.927e-6
-1.369, -2.927e-6
-1.368, -2.927e-6
-1.367, -2.927e-6
-1.366, -2.927e-6
-1.365, -2.927e-6
-1.364, -2.927e-6
-1.363, -2.927e-6
-1.362, -2.927e-6
-1.361, -2.927e-6
-1.360, -2.927e-6
-1.359, -2.927e-6
-1.358, -2.927e-6
-1.357, -2.927e-6
-1.356, -2.927e-6
-1.355, -6.010e-6
-1.354, -2.927e-6
-1.353, -2.927e-6
-1.352, -2.927e-6
-1.351, -2.927e-6
-1.350, -2.927e-6
-1.349, -2.927e-6
-1.348, -2.927e-6
-1.347, -2.927e-6
-1.346, -2.927e-6
-1.345, -6.010e-6
-1.344, -2.927e-6
-1.343, -2.927e-6
-1.342, -2.927e-6
-1.341, -2.927e-6
-1.340, -2.927e-6
-1.339, -6.010e-6
-1.338, -2.927e-6
-1.337, -6.010e-6
-1.336, -6.010e-6
-1.335, -2.927e-6
-1.334, -2.927e-6
-1.333, -2.927e-6
-1.332, -2.927e-6
-1.331, -2.927e-6
-1.330, -2.927e-6
-1.329, -2.927e-6
-1.328, -2.927e-6
-1.327, -2.927e-6
-1.326, -2.927e-6
-1.325, -2.927e-6
-1.324, -2.927e-6
-1.323, -2.927e-6
-1.322, -2.927e-6
-1.321, -2.927e-6
-1.320, -2.927e-6
-1.319, -2.927e-6
-1.318, -2.927e-6
-1.317, -2.927e-6
-1.316, -6.010e-6
-1.315, -2.927e-6
-1.314, -2.927e-6
-1.313, -2.927e-6
-1.312, -2.927e-6
-1.311, -2.927e-6
-1.310, -2.927e-6
-1.309, -6.010e-6
-1.308, -2.927e-6
-1.307, -2.927e-6
-1.306, -2.927e-6
-1.305, -2.927e-6
-1.304, -2.927e-6
-1.303, -2.927e-6
-1.302, -6.010e-6
-1.301, -2.927e-6
-1.300, -2.927e-6
-1.299, -2.927e-6
-1.298, -6.010e-6
-1.297, -2.927e-6
-1.296, -2.927e-6
-1.295, -2.927e-6
-1.294, -2.927e-6
-1.293, -2.927e-6
-1.292, -2.927e-6
-1.291, -2.927e-6
-1.290, -2.927e-6
-1.289, -6.010e-6
-1.288, -2.927e-6
-1.287, -2.927e-6
-1.286, -2.927e-6
-1.285, -6.010e-6
-1.284, -2.927e-6
-1.283, -2.927e-6
-1.282, -2.927e-6
-1.281, -2.927e-6
-1.280, -6.010e-6
-1.279, -2.927e-6
-1.278, -6.010e-6
-1.277, -2.927e-6
-1.276, -2.927e-6
-1.275, -2.927e-6
-1.274, -2.927e-6
-1.273, -6.010e-6
-1.272, -2.927e-6
-1.271, -6.010e-6
-1.270, -2.927e-6
-1.269, -2.927e-6
-1.268, -6.010e-6
-1.267, -2.927e-6
-1.266, -6.010e-6
-1.265, -2.927e-6
-1.264, -2.927e-6
-1.263, -2.927e-6
-1.262, -2.927e-6
-1.261, -6.010e-6
-1.260, -6.010e-6
-1.259, -2.927e-6
-1.258, -2.927e-6
-1.257, -6.010e-6
-1.256, -2.927e-6
-1.255, -6.010e-6
-1.254, -2.927e-6
-1.253, -6.010e-6
-1.252, -6.010e-6
-1.251, -2.927e-6
-1.250, -2.927e-6
-1.249, -6.010e-6
-1.248, -6.010e-6
-1.247, -2.927e-6
-1.246, -2.927e-6
-1.245, -2.927e-6
-1.244, -2.927e-6
-1.243, -2.927e-6
-1.242, -6.010e-6
-1.241, -6.010e-6
-1.240, -2.927e-6
-1.239, -6.010e-6
-1.238, -2.927e-6
-1.237, -6.010e-6
-1.236, -2.927e-6
-1.235, -2.927e-6
-1.234, -2.927e-6
-1.233, -2.927e-6
-1.232, -2.927e-6
-1.231, -6.010e-6
-1.230, -6.010e-6
-1.229, -6.010e-6
-1.228, -6.010e-6
-1.227, -2.927e-6
-1.226, -2.927e-6
-1.225, -6.010e-6
-1.224, -2.927e-6
-1.223, -6.010e-6
-1.222, -6.010e-6
-1.221, -2.927e-6
-1.220, -2.927e-6
-1.219, -6.010e-6
-1.218, -2.927e-6
-1.217, -2.927e-6
-1.216, -6.010e-6
-1.215, -6.010e-6
-1.214, -6.010e-6
-1.213, -6.010e-6
-1.212, -6.010e-6
-1.211, -6.010e-6
-1.210, -6.010e-6
-1.209, -6.010e-6
-1.208, -2.927e-6
-1.207, -6.010e-6
-1.206, -2.927e-6
-1.205, -6.010e-6
-1.204, -6.010e-6
-1.203, -6.010e-6
-1.202, -6.010e-6
-1.201, -6.010e-6
-1.200, -6.010e-6
-1.199, -2.927e-6
-1.198, -6.010e-6
-1.197, -2.927e-6
-1.196, -6.010e-6
-1.195, -2.927e-6
-1.194, -6.010e-6
-1.193, -6.010e-6
-1.192, -6.010e-6
-1.191, -6.010e-6
-1.190, -6.010e-6
-1.189, -6.010e-6
-1.188, -2.927e-6
-1.187, -6.010e-6
-1.186, -6.010e-6
-1.185, -6.010e-6
-1.184, -6.010e-6
-1.183, -2.927e-6
-1.182, -6.010e-6
-1.181, -2.927e-6
-1.180, -6.010e-6
-1.179, -6.010e-6
-1.178, -6.010e-6
-1.177, -6.010e-6
-1.176, -6.010e-6
-1.175, -6.010e-6
-1.174, -6.010e-6
-1.173, -6.010e-6
-1.172, -6.010e-6
-1.171, -6.010e-6
-1.170, -6.010e-6
-1.169, -6.010e-6
-1.168, -6.010e-6
-1.167, -6.010e-6
-1.166, -6.010e-6
-1.165, -2.927e-6
-1.164, -6.010e-6
-1.163, -2.927e-6
-1.162, -6.010e-6
-1.161, -6.010e-6
-1.160, -6.010e-6
-1.159, -6.010e-6
-1.158, -2.927e-6
-1.157, -6.010e-6
-1.156, -6.010e-6
-1.155, -6.010e-6
-1.154, -6.010e-6
-1.153, -6.010e-6
-1.152, -6.010e-6
-1.151, -6.010e-6
-1.150, -6.010e-6
-1.149, -6.010e-6
-1.148, -6.010e-6
-1.147, -6.010e-6
-1.146, -6.010e-6
-1.145, -6.010e-6
-1.144, -6.010e-6
-1.143, -6.010e-6
-1.142, -6.010e-6
-1.141, -6.010e-6
-1.140, -6.010e-6
-1.139, -6.010e-6
-1.138, -6.010e-6
-1.137, -6.010e-6
-1.136, -6.010e-6
-1.135, -6.010e-6
-1.134, -6.010e-6
-1.133, -6.010e-6
-1.132, -6.010e-6
-1.131, -2.927e-6
-1.130, -6.010e-6
-1.129, -6.010e-6
-1.128, -6.010e-6
-1.127, -6.010e-6
-1.126, -6.010e-6
-1.125, -6.010e-6
-1.124, -6.010e-6
-1.123, -6.010e-6
-1.122, -6.010e-6
-1.121, -6.010e-6
-1.120, -6.010e-6
-1.119, -6.010e-6
-1.118, -6.010e-6
-1.117, -6.010e-6
-1.116, -6.010e-6
-1.115, -6.010e-6
-1.114, -6.010e-6
-1.113, -6.010e-6
-1.112, -6.010e-6
-1.111, -6.010e-6
-1.110, -6.010e-6
-1.109, -6.010e-6
-1.108, -6.010e-6
-1.107, -6.010e-6
-1.106, -6.010e-6
-1.105, -6.010e-6
-1.104, -6.010e-6
-1.103, -6.010e-6
-1.102, -6.010e-6
-1.101, -6.010e-6
-1.100, -6.010e-6
-1.099, -6.010e-6
-1.098, -6.010e-6
-1.097, -6.010e-6
-1.096, -6.010e-6
-1.095, -2.927e-6
-1.094, -6.010e-6
-1.093, -6.010e-6
-1.092, -6.010e-6
-1.091, -6.010e-6
-1.090, -6.010e-6
-1.089, -6.010e-6
-1.088, -6.010e-6
-1.087, -6.010e-6
-1.086, -6.010e-6
-1.085, -6.010e-6
-1.084, -6.010e-6
-1.083, -6.010e-6
-1.082, -6.010e-6
-1.081, -6.010e-6
-1.080, -6.010e-6
-1.079, -6.010e-6
-1.078, -6.010e-6
-1.077, -6.010e-6
-1.076, -6.010e-6
-1.075, -6.010e-6
-1.074, -6.010e-6
-1.073, -6.010e-6
-1.072, -6.010e-6
-1.071, -6.010e-6
-1.070, -6.010e-6
-1.069, -6.010e-6
-1.068, -6.010e-6
-1.067, -6.010e-6
-1.066, -6.010e-6
-1.065, -6.010e-6
-1.064, -6.010e-6
-1.063, -6.010e-6
-1.062, -6.010e-6
-1.061, -6.010e-6
-1.060, -6.010e-6
-1.059, -6.010e-6
-1.058, -6.010e-6
-1.057, -6.010e-6
-1.056, -6.010e-6
-1.055, -6.010e-6
-1.054, -6.010e-6
-1.053, -6.010e-6
-1.052, -6.010e-6
-1.051, -6.010e-6
-1.050, -6.010e-6
-1.049, -6.010e-6
-1.048, -6.010e-6
-1.047, -6.010e-6
-1.046, -6.010e-6
-1.045, -6.010e-6
-1.044, -6.010e-6
-1.043, -6.010e-6
-1.042, -6.010e-6
-1.041, -6.010e-6
-1.040, -6.010e-6
-1.039, -6.010e-6
-1.038, -6.010e-6
-1.037, -6.010e-6
-1.036, -6.010e-6
-1.035, -6.010e-6
-1.034, -6.010e-6
-1.033, -6.010e-6
-1.032, -6.010e-6
-1.031, -6.010e-6
-1.030, -6.010e-6
-1.029, -6.010e-6
-1.028, -6.010e-6
-1.027, -6.010e-6
-1.026, -6.010e-6
-1.025, -6.010e-6
-1.024, -6.010e-6
-1.023, -6.010e-6
-1.022, -6.010e-6
-1.021, -6.010e-6
-1.020, -6.010e-6
-1.019, -6.010e-6
-1.018, -6.010e-6
-1.017, -6.010e-6
-1.016, -6.010e-6
-1.015, -6.010e-6
-1.014, -6.010e-6
-1.013, -6.010e-6
-1.012, -6.010e-6
-1.011, -6.010e-6
-1.010, -6.010e-6
-1.009, -6.010e-6
-1.008, -6.010e-6
-1.007, -6.010e-6
-1.006, -6.010e-6
-1.005, -6.010e-6
-1.004, -6.010e-6
-1.003, -6.010e-6
-1.002, -6.010e-6
-1.001, -6.010e-6
