Sept. 22, 2024   03:00:37
Linear Sweep Voltammetry
File: c:/users/guazh/data/20240903_batch_400_500/2024-09-20-exp413\regeneratedgce-2024-09-22t02_55_59-lsvinkoh\regeneratedgce_lsv_50mvs_efin_-1900mv.bin
Data Source:  Experiment
Instrument Model:  CHI760E
Header: LSV ran at 50 mVs with Efin at -1900mV
Note: 

Init E (V) = -0.6
Final E (V) = -1.9
Scan Rate (V/s) = 0.05
Sample Interval (V) = 0.001
Quiet Time (sec) = 2
Sensitivity (A/V) = 1e-4
Comp R (ohm) = 3.7

Results:

Channel 1:

Potential/V, Current/A

-0.600, 5.267e-7
-0.601, 6.385e-7
-0.602, 6.684e-7
-0.603, 6.856e-7
-0.604, 6.988e-7
-0.605, 7.116e-7
-0.606, 7.220e-7
-0.607, 7.326e-7
-0.608, 7.431e-7
-0.609, 7.518e-7
-0.610, 7.584e-7
-0.611, 7.664e-7
-0.612, 7.749e-7
-0.613, 7.836e-7
-0.614, 7.949e-7
-0.615, 8.035e-7
-0.616, 8.086e-7
-0.617, 8.159e-7
-0.618, 8.216e-7
-0.619, 8.293e-7
-0.620, 8.370e-7
-0.621, 8.434e-7
-0.622, 8.495e-7
-0.623, 8.564e-7
-0.624, 8.634e-7
-0.625, 8.712e-7
-0.626, 8.751e-7
-0.627, 8.824e-7
-0.628, 8.888e-7
-0.629, 8.938e-7
-0.630, 9.006e-7
-0.631, 9.060e-7
-0.632, 9.130e-7
-0.633, 9.210e-7
-0.634, 9.252e-7
-0.635, 9.320e-7
-0.636, 9.374e-7
-0.637, 9.426e-7
-0.638, 9.491e-7
-0.639, 9.542e-7
-0.640, 9.630e-7
-0.641, 9.680e-7
-0.642, 9.723e-7
-0.643, 9.796e-7
-0.644, 9.847e-7
-0.645, 9.910e-7
-0.646, 9.970e-7
-0.647, 1.001e-6
-0.648, 1.008e-6
-0.649, 1.014e-6
-0.650, 1.018e-6
-0.651, 1.022e-6
-0.652, 1.027e-6
-0.653, 1.035e-6
-0.654, 1.041e-6
-0.655, 1.048e-6
-0.656, 1.053e-6
-0.657, 1.058e-6
-0.658, 1.061e-6
-0.659, 1.066e-6
-0.660, 1.072e-6
-0.661, 1.076e-6
-0.662, 1.081e-6
-0.663, 1.086e-6
-0.664, 1.091e-6
-0.665, 1.098e-6
-0.666, 1.103e-6
-0.667, 1.108e-6
-0.668, 1.111e-6
-0.669, 1.115e-6
-0.670, 1.122e-6
-0.671, 1.125e-6
-0.672, 1.131e-6
-0.673, 1.138e-6
-0.674, 1.141e-6
-0.675, 1.147e-6
-0.676, 1.150e-6
-0.677, 1.153e-6
-0.678, 1.160e-6
-0.679, 1.164e-6
-0.680, 1.170e-6
-0.681, 1.176e-6
-0.682, 1.181e-6
-0.683, 1.189e-6
-0.684, 1.192e-6
-0.685, 1.195e-6
-0.686, 1.198e-6
-0.687, 1.203e-6
-0.688, 1.208e-6
-0.689, 1.214e-6
-0.690, 1.219e-6
-0.691, 1.224e-6
-0.692, 1.229e-6
-0.693, 1.233e-6
-0.694, 1.239e-6
-0.695, 1.243e-6
-0.696, 1.246e-6
-0.697, 1.251e-6
-0.698, 1.256e-6
-0.699, 1.262e-6
-0.700, 1.269e-6
-0.701, 1.271e-6
-0.702, 1.276e-6
-0.703, 1.278e-6
-0.704, 1.284e-6
-0.705, 1.291e-6
-0.706, 1.292e-6
-0.707, 1.297e-6
-0.708, 1.301e-6
-0.709, 1.305e-6
-0.710, 1.311e-6
-0.711, 1.316e-6
-0.712, 1.320e-6
-0.713, 1.327e-6
-0.714, 1.333e-6
-0.715, 1.338e-6
-0.716, 1.342e-6
-0.717, 1.347e-6
-0.718, 1.351e-6
-0.719, 1.354e-6
-0.720, 1.359e-6
-0.721, 1.364e-6
-0.722, 1.369e-6
-0.723, 1.376e-6
-0.724, 1.379e-6
-0.725, 1.383e-6
-0.726, 1.387e-6
-0.727, 1.388e-6
-0.728, 1.394e-6
-0.729, 1.399e-6
-0.730, 1.405e-6
-0.731, 1.408e-6
-0.732, 1.414e-6
-0.733, 1.417e-6
-0.734, 1.422e-6
-0.735, 1.426e-6
-0.736, 1.430e-6
-0.737, 1.435e-6
-0.738, 1.439e-6
-0.739, 1.445e-6
-0.740, 1.448e-6
-0.741, 1.451e-6
-0.742, 1.457e-6
-0.743, 1.463e-6
-0.744, 1.468e-6
-0.745, 1.474e-6
-0.746, 1.477e-6
-0.747, 1.481e-6
-0.748, 1.484e-6
-0.749, 1.487e-6
-0.750, 1.494e-6
-0.751, 1.499e-6
-0.752, 1.504e-6
-0.753, 1.508e-6
-0.754, 1.510e-6
-0.755, 1.514e-6
-0.756, 1.519e-6
-0.757, 1.521e-6
-0.758, 1.529e-6
-0.759, 1.533e-6
-0.760, 1.537e-6
-0.761, 1.541e-6
-0.762, 1.546e-6
-0.763, 1.551e-6
-0.764, 1.555e-6
-0.765, 1.558e-6
-0.766, 1.562e-6
-0.767, 1.566e-6
-0.768, 1.571e-6
-0.769, 1.576e-6
-0.770, 1.581e-6
-0.771, 1.586e-6
-0.772, 1.592e-6
-0.773, 1.595e-6
-0.774, 1.597e-6
-0.775, 1.601e-6
-0.776, 1.603e-6
-0.777, 1.607e-6
-0.778, 1.610e-6
-0.779, 1.617e-6
-0.780, 1.624e-6
-0.781, 1.629e-6
-0.782, 1.632e-6
-0.783, 1.634e-6
-0.784, 1.638e-6
-0.785, 1.642e-6
-0.786, 1.643e-6
-0.787, 1.648e-6
-0.788, 1.654e-6
-0.789, 1.659e-6
-0.790, 1.665e-6
-0.791, 1.666e-6
-0.792, 1.669e-6
-0.793, 1.673e-6
-0.794, 1.675e-6
-0.795, 1.681e-6
-0.796, 1.686e-6
-0.797, 1.691e-6
-0.798, 1.698e-6
-0.799, 1.701e-6
-0.800, 1.704e-6
-0.801, 1.707e-6
-0.802, 1.710e-6
-0.803, 1.713e-6
-0.804, 1.718e-6
-0.805, 1.723e-6
-0.806, 1.728e-6
-0.807, 1.732e-6
-0.808, 1.737e-6
-0.809, 1.741e-6
-0.810, 1.744e-6
-0.811, 1.748e-6
-0.812, 1.751e-6
-0.813, 1.754e-6
-0.814, 1.759e-6
-0.815, 1.764e-6
-0.816, 1.766e-6
-0.817, 1.772e-6
-0.818, 1.776e-6
-0.819, 1.784e-6
-0.820, 1.787e-6
-0.821, 1.788e-6
-0.822, 1.792e-6
-0.823, 1.796e-6
-0.824, 1.800e-6
-0.825, 1.805e-6
-0.826, 1.809e-6
-0.827, 1.812e-6
-0.828, 1.819e-6
-0.829, 1.822e-6
-0.830, 1.827e-6
-0.831, 1.828e-6
-0.832, 1.834e-6
-0.833, 1.839e-6
-0.834, 1.843e-6
-0.835, 1.850e-6
-0.836, 1.852e-6
-0.837, 1.857e-6
-0.838, 1.863e-6
-0.839, 1.867e-6
-0.840, 1.873e-6
-0.841, 1.876e-6
-0.842, 1.882e-6
-0.843, 1.887e-6
-0.844, 1.892e-6
-0.845, 1.899e-6
-0.846, 1.904e-6
-0.847, 1.910e-6
-0.848, 1.917e-6
-0.849, 1.925e-6
-0.850, 1.930e-6
-0.851, 1.936e-6
-0.852, 1.944e-6
-0.853, 1.950e-6
-0.854, 1.961e-6
-0.855, 1.970e-6
-0.856, 1.980e-6
-0.857, 1.991e-6
-0.858, 2.000e-6
-0.859, 2.009e-6
-0.860, 2.019e-6
-0.861, 2.029e-6
-0.862, 2.041e-6
-0.863, 2.055e-6
-0.864, 2.069e-6
-0.865, 2.082e-6
-0.866, 2.094e-6
-0.867, 2.109e-6
-0.868, 2.123e-6
-0.869, 2.136e-6
-0.870, 2.151e-6
-0.871, 2.164e-6
-0.872, 2.177e-6
-0.873, 2.194e-6
-0.874, 2.207e-6
-0.875, 2.223e-6
-0.876, 2.236e-6
-0.877, 2.248e-6
-0.878, 2.262e-6
-0.879, 2.272e-6
-0.880, 2.286e-6
-0.881, 2.299e-6
-0.882, 2.313e-6
-0.883, 2.329e-6
-0.884, 2.340e-6
-0.885, 2.352e-6
-0.886, 2.362e-6
-0.887, 2.374e-6
-0.888, 2.386e-6
-0.889, 2.400e-6
-0.890, 2.412e-6
-0.891, 2.423e-6
-0.892, 2.433e-6
-0.893, 2.442e-6
-0.894, 2.450e-6
-0.895, 2.459e-6
-0.896, 2.469e-6
-0.897, 2.478e-6
-0.898, 2.488e-6
-0.899, 2.499e-6
-0.900, 2.508e-6
-0.901, 2.516e-6
-0.902, 2.525e-6
-0.903, 2.532e-6
-0.904, 2.539e-6
-0.905, 2.549e-6
-0.906, 2.556e-6
-0.907, 2.568e-6
-0.908, 2.579e-6
-0.909, 2.586e-6
-0.910, 2.594e-6
-0.911, 2.599e-6
-0.912, 2.605e-6
-0.913, 2.613e-6
-0.914, 2.619e-6
-0.915, 2.630e-6
-0.916, 2.640e-6
-0.917, 2.648e-6
-0.918, 2.657e-6
-0.919, 2.663e-6
-0.920, 2.669e-6
-0.921, 2.676e-6
-0.922, 2.680e-6
-0.923, 2.686e-6
-0.924, 2.692e-6
-0.925, 2.704e-6
-0.926, 2.712e-6
-0.927, 2.717e-6
-0.928, 2.724e-6
-0.929, 2.729e-6
-0.930, 2.733e-6
-0.931, 2.739e-6
-0.932, 2.746e-6
-0.933, 2.754e-6
-0.934, 2.762e-6
-0.935, 2.769e-6
-0.936, 2.773e-6
-0.937, 2.780e-6
-0.938, 2.787e-6
-0.939, 2.792e-6
-0.940, 2.801e-6
-0.941, 2.805e-6
-0.942, 2.812e-6
-0.943, 2.819e-6
-0.944, 2.825e-6
-0.945, 2.834e-6
-0.946, 2.839e-6
-0.947, 2.847e-6
-0.948, 2.854e-6
-0.949, 2.859e-6
-0.950, 2.867e-6
-0.951, 2.870e-6
-0.952, 2.876e-6
-0.953, 2.885e-6
-0.954, 2.891e-6
-0.955, 2.898e-6
-0.956, 2.902e-6
-0.957, 2.909e-6
-0.958, 2.918e-6
-0.959, 2.924e-6
-0.960, 2.929e-6
-0.961, 2.935e-6
-0.962, 2.940e-6
-0.963, 2.949e-6
-0.964, 2.955e-6
-0.965, 2.960e-6
-0.966, 2.967e-6
-0.967, 2.973e-6
-0.968, 2.982e-6
-0.969, 2.988e-6
-0.970, 2.993e-6
-0.971, 2.999e-6
-0.972, 3.005e-6
-0.973, 3.014e-6
-0.974, 3.022e-6
-0.975, 3.028e-6
-0.976, 3.033e-6
-0.977, 3.039e-6
-0.978, 3.045e-6
-0.979, 3.052e-6
-0.980, 3.060e-6
-0.981, 3.065e-6
-0.982, 3.073e-6
-0.983, 3.080e-6
-0.984, 3.086e-6
-0.985, 3.091e-6
-0.986, 3.097e-6
-0.987, 3.104e-6
-0.988, 3.113e-6
-0.989, 3.118e-6
-0.990, 3.125e-6
-0.991, 3.131e-6
-0.992, 3.137e-6
-0.993, 3.144e-6
-0.994, 3.149e-6
-0.995, 3.156e-6
-0.996, 3.162e-6
-0.997, 3.169e-6
-0.998, 3.178e-6
-0.999, 3.183e-6
-1.000, 3.190e-6
-1.001, 3.193e-6
-1.002, 3.197e-6
-1.003, 3.203e-6
-1.004, 3.210e-6
-1.005, 3.218e-6
-1.006, 3.224e-6
-1.007, 3.229e-6
-1.008, 3.234e-6
-1.009, 3.241e-6
-1.010, 3.246e-6
-1.011, 3.252e-6
-1.012, 3.256e-6
-1.013, 3.262e-6
-1.014, 3.270e-6
-1.015, 3.276e-6
-1.016, 3.281e-6
-1.017, 3.287e-6
-1.018, 3.292e-6
-1.019, 3.298e-6
-1.020, 3.305e-6
-1.021, 3.309e-6
-1.022, 3.318e-6
-1.023, 3.328e-6
-1.024, 3.337e-6
-1.025, 3.341e-6
-1.026, 3.342e-6
-1.027, 3.345e-6
-1.028, 3.350e-6
-1.029, 3.354e-6
-1.030, 3.365e-6
-1.031, 3.371e-6
-1.032, 3.377e-6
-1.033, 3.385e-6
-1.034, 3.389e-6
-1.035, 3.392e-6
-1.036, 3.395e-6
-1.037, 3.396e-6
-1.038, 3.402e-6
-1.039, 3.408e-6
-1.040, 3.419e-6
-1.041, 3.428e-6
-1.042, 3.436e-6
-1.043, 3.447e-6
-1.044, 3.450e-6
-1.045, 3.453e-6
-1.046, 3.454e-6
-1.047, 3.457e-6
-1.048, 3.460e-6
-1.049, 3.464e-6
-1.050, 3.470e-6
-1.051, 3.478e-6
-1.052, 3.487e-6
-1.053, 3.491e-6
-1.054, 3.495e-6
-1.055, 3.499e-6
-1.056, 3.500e-6
-1.057, 3.502e-6
-1.058, 3.507e-6
-1.059, 3.513e-6
-1.060, 3.521e-6
-1.061, 3.524e-6
-1.062, 3.530e-6
-1.063, 3.534e-6
-1.064, 3.537e-6
-1.065, 3.543e-6
-1.066, 3.548e-6
-1.067, 3.553e-6
-1.068, 3.558e-6
-1.069, 3.561e-6
-1.070, 3.568e-6
-1.071, 3.574e-6
-1.072, 3.583e-6
-1.073, 3.591e-6
-1.074, 3.594e-6
-1.075, 3.599e-6
-1.076, 3.602e-6
-1.077, 3.600e-6
-1.078, 3.605e-6
-1.079, 3.610e-6
-1.080, 3.621e-6
-1.081, 3.633e-6
-1.082, 3.644e-6
-1.083, 3.652e-6
-1.084, 3.656e-6
-1.085, 3.659e-6
-1.086, 3.661e-6
-1.087, 3.660e-6
-1.088, 3.665e-6
-1.089, 3.669e-6
-1.090, 3.676e-6
-1.091, 3.689e-6
-1.092, 3.702e-6
-1.093, 3.711e-6
-1.094, 3.718e-6
-1.095, 3.723e-6
-1.096, 3.724e-6
-1.097, 3.725e-6
-1.098, 3.726e-6
-1.099, 3.727e-6
-1.100, 3.731e-6
-1.101, 3.739e-6
-1.102, 3.750e-6
-1.103, 3.759e-6
-1.104, 3.767e-6
-1.105, 3.776e-6
-1.106, 3.782e-6
-1.107, 3.790e-6
-1.108, 3.798e-6
-1.109, 3.803e-6
-1.110, 3.807e-6
-1.111, 3.810e-6
-1.112, 3.813e-6
-1.113, 3.819e-6
-1.114, 3.827e-6
-1.115, 3.836e-6
-1.116, 3.843e-6
-1.117, 3.847e-6
-1.118, 3.854e-6
-1.119, 3.858e-6
-1.120, 3.863e-6
-1.121, 3.867e-6
-1.122, 3.869e-6
-1.123, 3.874e-6
-1.124, 3.879e-6
-1.125, 3.891e-6
-1.126, 3.906e-6
-1.127, 3.922e-6
-1.128, 3.934e-6
-1.129, 3.939e-6
-1.130, 3.936e-6
-1.131, 3.932e-6
-1.132, 3.932e-6
-1.133, 3.934e-6
-1.134, 3.946e-6
-1.135, 3.964e-6
-1.136, 3.983e-6
-1.137, 3.994e-6
-1.138, 4.001e-6
-1.139, 4.000e-6
-1.140, 3.997e-6
-1.141, 3.993e-6
-1.142, 3.993e-6
-1.143, 3.998e-6
-1.144, 4.009e-6
-1.145, 4.017e-6
-1.146, 4.020e-6
-1.147, 4.022e-6
-1.148, 4.024e-6
-1.149, 4.029e-6
-1.150, 4.039e-6
-1.151, 4.046e-6
-1.152, 4.050e-6
-1.153, 4.054e-6
-1.154, 4.054e-6
-1.155, 4.059e-6
-1.156, 4.062e-6
-1.157, 4.071e-6
-1.158, 4.083e-6
-1.159, 4.086e-6
-1.160, 4.091e-6
-1.161, 4.093e-6
-1.162, 4.095e-6
-1.163, 4.100e-6
-1.164, 4.107e-6
-1.165, 4.114e-6
-1.166, 4.124e-6
-1.167, 4.128e-6
-1.168, 4.132e-6
-1.169, 4.133e-6
-1.170, 4.134e-6
-1.171, 4.136e-6
-1.172, 4.142e-6
-1.173, 4.154e-6
-1.174, 4.168e-6
-1.175, 4.178e-6
-1.176, 4.183e-6
-1.177, 4.185e-6
-1.178, 4.186e-6
-1.179, 4.185e-6
-1.180, 4.188e-6
-1.181, 4.194e-6
-1.182, 4.211e-6
-1.183, 4.229e-6
-1.184, 4.241e-6
-1.185, 4.252e-6
-1.186, 4.253e-6
-1.187, 4.250e-6
-1.188, 4.248e-6
-1.189, 4.243e-6
-1.190, 4.244e-6
-1.191, 4.248e-6
-1.192, 4.272e-6
-1.193, 4.295e-6
-1.194, 4.302e-6
-1.195, 4.306e-6
-1.196, 4.305e-6
-1.197, 4.301e-6
-1.198, 4.300e-6
-1.199, 4.296e-6
-1.200, 4.299e-6
-1.201, 4.304e-6
-1.202, 4.312e-6
-1.203, 4.326e-6
-1.204, 4.337e-6
-1.205, 4.343e-6
-1.206, 4.349e-6
-1.207, 4.353e-6
-1.208, 4.360e-6
-1.209, 4.369e-6
-1.210, 4.375e-6
-1.211, 4.379e-6
-1.212, 4.379e-6
-1.213, 4.382e-6
-1.214, 4.388e-6
-1.215, 4.395e-6
-1.216, 4.403e-6
-1.217, 4.415e-6
-1.218, 4.428e-6
-1.219, 4.438e-6
-1.220, 4.444e-6
-1.221, 4.444e-6
-1.222, 4.447e-6
-1.223, 4.454e-6
-1.224, 4.463e-6
-1.225, 4.472e-6
-1.226, 4.477e-6
-1.227, 4.484e-6
-1.228, 4.493e-6
-1.229, 4.503e-6
-1.230, 4.506e-6
-1.231, 4.509e-6
-1.232, 4.520e-6
-1.233, 4.532e-6
-1.234, 4.545e-6
-1.235, 4.555e-6
-1.236, 4.555e-6
-1.237, 4.553e-6
-1.238, 4.557e-6
-1.239, 4.561e-6
-1.240, 4.571e-6
-1.241, 4.580e-6
-1.242, 4.590e-6
-1.243, 4.596e-6
-1.244, 4.603e-6
-1.245, 4.610e-6
-1.246, 4.619e-6
-1.247, 4.624e-6
-1.248, 4.629e-6
-1.249, 4.631e-6
-1.250, 4.635e-6
-1.251, 4.641e-6
-1.252, 4.646e-6
-1.253, 4.653e-6
-1.254, 4.662e-6
-1.255, 4.671e-6
-1.256, 4.678e-6
-1.257, 4.680e-6
-1.258, 4.681e-6
-1.259, 4.681e-6
-1.260, 4.684e-6
-1.261, 4.688e-6
-1.262, 4.699e-6
-1.263, 4.713e-6
-1.264, 4.735e-6
-1.265, 4.757e-6
-1.266, 4.765e-6
-1.267, 4.761e-6
-1.268, 4.752e-6
-1.269, 4.744e-6
-1.270, 4.740e-6
-1.271, 4.742e-6
-1.272, 4.753e-6
-1.273, 4.765e-6
-1.274, 4.773e-6
-1.275, 4.780e-6
-1.276, 4.783e-6
-1.277, 4.785e-6
-1.278, 4.793e-6
-1.279, 4.794e-6
-1.280, 4.798e-6
-1.281, 4.796e-6
-1.282, 4.792e-6
-1.283, 4.795e-6
-1.284, 4.796e-6
-1.285, 4.800e-6
-1.286, 4.804e-6
-1.287, 4.810e-6
-1.288, 4.821e-6
-1.289, 4.830e-6
-1.290, 4.833e-6
-1.291, 4.831e-6
-1.292, 4.828e-6
-1.293, 4.829e-6
-1.294, 4.832e-6
-1.295, 4.835e-6
-1.296, 4.840e-6
-1.297, 4.849e-6
-1.298, 4.855e-6
-1.299, 4.860e-6
-1.300, 4.860e-6
-1.301, 4.855e-6
-1.302, 4.854e-6
-1.303, 4.855e-6
-1.304, 4.862e-6
-1.305, 4.874e-6
-1.306, 4.881e-6
-1.307, 4.881e-6
-1.308, 4.877e-6
-1.309, 4.871e-6
-1.310, 4.869e-6
-1.311, 4.870e-6
-1.312, 4.878e-6
-1.313, 4.887e-6
-1.314, 4.890e-6
-1.315, 4.889e-6
-1.316, 4.884e-6
-1.317, 4.881e-6
-1.318, 4.883e-6
-1.319, 4.886e-6
-1.320, 4.895e-6
-1.321, 4.896e-6
-1.322, 4.890e-6
-1.323, 4.889e-6
-1.324, 4.889e-6
-1.325, 4.893e-6
-1.326, 4.897e-6
-1.327, 4.892e-6
-1.328, 4.878e-6
-1.329, 4.867e-6
-1.330, 4.864e-6
-1.331, 4.869e-6
-1.332, 4.881e-6
-1.333, 4.888e-6
-1.334, 4.884e-6
-1.335, 4.873e-6
-1.336, 4.858e-6
-1.337, 4.847e-6
-1.338, 4.841e-6
-1.339, 4.848e-6
-1.340, 4.862e-6
-1.341, 4.871e-6
-1.342, 4.868e-6
-1.343, 4.857e-6
-1.344, 4.844e-6
-1.345, 4.838e-6
-1.346, 4.840e-6
-1.347, 4.849e-6
-1.348, 4.861e-6
-1.349, 4.864e-6
-1.350, 4.858e-6
-1.351, 4.848e-6
-1.352, 4.844e-6
-1.353, 4.842e-6
-1.354, 4.841e-6
-1.355, 4.845e-6
-1.356, 4.850e-6
-1.357, 4.849e-6
-1.358, 4.852e-6
-1.359, 4.852e-6
-1.360, 4.857e-6
-1.361, 4.863e-6
-1.362, 4.863e-6
-1.363, 4.865e-6
-1.364, 4.863e-6
-1.365, 4.864e-6
-1.366, 4.875e-6
-1.367, 4.883e-6
-1.368, 4.889e-6
-1.369, 4.894e-6
-1.370, 4.893e-6
-1.371, 4.894e-6
-1.372, 4.899e-6
-1.373, 4.906e-6
-1.374, 4.915e-6
-1.375, 4.924e-6
-1.376, 4.929e-6
-1.377, 4.930e-6
-1.378, 4.930e-6
-1.379, 4.935e-6
-1.380, 4.952e-6
-1.381, 4.982e-6
-1.382, 5.003e-6
-1.383, 5.003e-6
-1.384, 4.987e-6
-1.385, 4.972e-6
-1.386, 4.962e-6
-1.387, 4.964e-6
-1.388, 4.978e-6
-1.389, 4.999e-6
-1.390, 5.015e-6
-1.391, 5.024e-6
-1.392, 5.031e-6
-1.393, 5.039e-6
-1.394, 5.044e-6
-1.395, 5.052e-6
-1.396, 5.052e-6
-1.397, 5.044e-6
-1.398, 5.036e-6
-1.399, 5.033e-6
-1.400, 5.039e-6
-1.401, 5.052e-6
-1.402, 5.060e-6
-1.403, 5.073e-6
-1.404, 5.085e-6
-1.405, 5.098e-6
-1.406, 5.111e-6
-1.407, 5.114e-6
-1.408, 5.111e-6
-1.409, 5.103e-6
-1.410, 5.096e-6
-1.411, 5.101e-6
-1.412, 5.106e-6
-1.413, 5.120e-6
-1.414, 5.137e-6
-1.415, 5.148e-6
-1.416, 5.157e-6
-1.417, 5.161e-6
-1.418, 5.156e-6
-1.419, 5.150e-6
-1.420, 5.150e-6
-1.421, 5.150e-6
-1.422, 5.155e-6
-1.423, 5.165e-6
-1.424, 5.182e-6
-1.425, 5.202e-6
-1.426, 5.216e-6
-1.427, 5.227e-6
-1.428, 5.226e-6
-1.429, 5.216e-6
-1.430, 5.209e-6
-1.431, 5.205e-6
-1.432, 5.214e-6
-1.433, 5.241e-6
-1.434, 5.276e-6
-1.435, 5.297e-6
-1.436, 5.299e-6
-1.437, 5.288e-6
-1.438, 5.281e-6
-1.439, 5.271e-6
-1.440, 5.275e-6
-1.441, 5.289e-6
-1.442, 5.303e-6
-1.443, 5.320e-6
-1.444, 5.328e-6
-1.445, 5.332e-6
-1.446, 5.336e-6
-1.447, 5.342e-6
-1.448, 5.358e-6
-1.449, 5.383e-6
-1.450, 5.400e-6
-1.451, 5.403e-6
-1.452, 5.393e-6
-1.453, 5.386e-6
-1.454, 5.384e-6
-1.455, 5.392e-6
-1.456, 5.410e-6
-1.457, 5.434e-6
-1.458, 5.447e-6
-1.459, 5.448e-6
-1.460, 5.446e-6
-1.461, 5.444e-6
-1.462, 5.452e-6
-1.463, 5.466e-6
-1.464, 5.480e-6
-1.465, 5.486e-6
-1.466, 5.484e-6
-1.467, 5.490e-6
-1.468, 5.502e-6
-1.469, 5.518e-6
-1.470, 5.531e-6
-1.471, 5.531e-6
-1.472, 5.533e-6
-1.473, 5.541e-6
-1.474, 5.546e-6
-1.475, 5.556e-6
-1.476, 5.568e-6
-1.477, 5.573e-6
-1.478, 5.581e-6
-1.479, 5.587e-6
-1.480, 5.596e-6
-1.481, 5.613e-6
-1.482, 5.633e-6
-1.483, 5.647e-6
-1.484, 5.651e-6
-1.485, 5.657e-6
-1.486, 5.661e-6
-1.487, 5.670e-6
-1.488, 5.681e-6
-1.489, 5.693e-6
-1.490, 5.701e-6
-1.491, 5.713e-6
-1.492, 5.724e-6
-1.493, 5.734e-6
-1.494, 5.756e-6
-1.495, 5.776e-6
-1.496, 5.793e-6
-1.497, 5.798e-6
-1.498, 5.792e-6
-1.499, 5.794e-6
-1.500, 5.802e-6
-1.501, 5.814e-6
-1.502, 5.831e-6
-1.503, 5.845e-6
-1.504, 5.857e-6
-1.505, 5.877e-6
-1.506, 5.893e-6
-1.507, 5.904e-6
-1.508, 5.912e-6
-1.509, 5.913e-6
-1.510, 5.924e-6
-1.511, 5.938e-6
-1.512, 5.949e-6
-1.513, 5.962e-6
-1.514, 5.972e-6
-1.515, 5.987e-6
-1.516, 6.009e-6
-1.517, 6.031e-6
-1.518, 6.060e-6
-1.519, 6.090e-6
-1.520, 6.116e-6
-1.521, 6.125e-6
-1.522, 6.112e-6
-1.523, 6.112e-6
-1.524, 6.118e-6
-1.525, 6.120e-6
-1.526, 6.154e-6
-1.527, 6.183e-6
-1.528, 6.197e-6
-1.529, 6.193e-6
-1.530, 6.189e-6
-1.531, 6.195e-6
-1.532, 6.209e-6
-1.533, 6.225e-6
-1.534, 6.248e-6
-1.535, 6.268e-6
-1.536, 6.291e-6
-1.537, 6.309e-6
-1.538, 6.316e-6
-1.539, 6.330e-6
-1.540, 6.343e-6
-1.541, 6.358e-6
-1.542, 6.367e-6
-1.543, 6.388e-6
-1.544, 6.431e-6
-1.545, 6.482e-6
-1.546, 6.509e-6
-1.547, 6.524e-6
-1.548, 6.540e-6
-1.549, 6.549e-6
-1.550, 6.567e-6
-1.551, 6.577e-6
-1.552, 6.589e-6
-1.553, 6.625e-6
-1.554, 6.668e-6
-1.555, 6.707e-6
-1.556, 6.744e-6
-1.557, 6.746e-6
-1.558, 6.748e-6
-1.559, 6.759e-6
-1.560, 6.793e-6
-1.561, 6.833e-6
-1.562, 6.851e-6
-1.563, 6.863e-6
-1.564, 6.880e-6
-1.565, 6.904e-6
-1.566, 6.939e-6
-1.567, 6.975e-6
-1.568, 7.013e-6
-1.569, 7.037e-6
-1.570, 7.049e-6
-1.571, 7.070e-6
-1.572, 7.092e-6
-1.573, 7.127e-6
-1.574, 7.184e-6
-1.575, 7.243e-6
-1.576, 7.294e-6
-1.577, 7.322e-6
-1.578, 7.336e-6
-1.579, 7.350e-6
-1.580, 7.366e-6
-1.581, 7.391e-6
-1.582, 7.427e-6
-1.583, 7.480e-6
-1.584, 7.528e-6
-1.585, 7.572e-6
-1.586, 7.615e-6
-1.587, 7.662e-6
-1.588, 7.714e-6
-1.589, 7.767e-6
-1.590, 7.830e-6
-1.591, 7.876e-6
-1.592, 7.908e-6
-1.593, 7.940e-6
-1.594, 7.973e-6
-1.595, 8.012e-6
-1.596, 8.068e-6
-1.597, 8.139e-6
-1.598, 8.221e-6
-1.599, 8.283e-6
-1.600, 8.327e-6
-1.601, 8.361e-6
-1.602, 8.398e-6
-1.603, 8.447e-6
-1.604, 8.509e-6
-1.605, 8.597e-6
-1.606, 8.678e-6
-1.607, 8.741e-6
-1.608, 8.777e-6
-1.609, 8.813e-6
-1.610, 8.857e-6
-1.611, 8.920e-6
-1.612, 9.001e-6
-1.613, 9.084e-6
-1.614, 9.154e-6
-1.615, 9.216e-6
-1.616, 9.281e-6
-1.617, 9.343e-6
-1.618, 9.410e-6
-1.619, 9.485e-6
-1.620, 9.563e-6
-1.621, 9.640e-6
-1.622, 9.733e-6
-1.623, 9.825e-6
-1.624, 9.913e-6
-1.625, 9.994e-6
-1.626, 1.006e-5
-1.627, 1.014e-5
-1.628, 1.023e-5
-1.629, 1.032e-5
-1.630, 1.043e-5
-1.631, 1.055e-5
-1.632, 1.067e-5
-1.633, 1.077e-5
-1.634, 1.086e-5
-1.635, 1.095e-5
-1.636, 1.104e-5
-1.637, 1.114e-5
-1.638, 1.127e-5
-1.639, 1.140e-5
-1.640, 1.153e-5
-1.641, 1.167e-5
-1.642, 1.179e-5
-1.643, 1.191e-5
-1.644, 1.202e-5
-1.645, 1.212e-5
-1.646, 1.225e-5
-1.647, 1.238e-5
-1.648, 1.253e-5
-1.649, 1.270e-5
-1.650, 1.287e-5
-1.651, 1.304e-5
-1.652, 1.321e-5
-1.653, 1.337e-5
-1.654, 1.353e-5
-1.655, 1.368e-5
-1.656, 1.383e-5
-1.657, 1.398e-5
-1.658, 1.414e-5
-1.659, 1.432e-5
-1.660, 1.455e-5
-1.661, 1.479e-5
-1.662, 1.501e-5
-1.663, 1.522e-5
-1.664, 1.541e-5
-1.665, 1.560e-5
-1.666, 1.580e-5
-1.667, 1.600e-5
-1.668, 1.620e-5
-1.669, 1.644e-5
-1.670, 1.670e-5
-1.671, 1.699e-5
-1.672, 1.727e-5
-1.673, 1.753e-5
-1.674, 1.779e-5
-1.675, 1.805e-5
-1.676, 1.832e-5
-1.677, 1.858e-5
-1.678, 1.884e-5
-1.679, 1.910e-5
-1.680, 1.938e-5
-1.681, 1.971e-5
-1.682, 2.005e-5
-1.683, 2.039e-5
-1.684, 2.071e-5
-1.685, 2.102e-5
-1.686, 2.135e-5
-1.687, 2.167e-5
-1.688, 2.202e-5
-1.689, 2.239e-5
-1.690, 2.278e-5
-1.691, 2.316e-5
-1.692, 2.355e-5
-1.693, 2.397e-5
-1.694, 2.440e-5
-1.695, 2.484e-5
-1.696, 2.534e-5
-1.697, 2.583e-5
-1.698, 2.629e-5
-1.699, 2.672e-5
-1.700, 2.717e-5
-1.701, 2.763e-5
-1.702, 2.808e-5
-1.703, 2.858e-5
-1.704, 2.912e-5
-1.705, 2.971e-5
-1.706, 3.029e-5
-1.707, 3.087e-5
-1.708, 3.146e-5
-1.709, 3.206e-5
-1.710, 3.268e-5
-1.711, 3.334e-5
-1.712, 3.402e-5
-1.713, 3.469e-5
-1.714, 3.535e-5
-1.715, 3.602e-5
-1.716, 3.669e-5
-1.717, 3.742e-5
-1.718, 3.821e-5
-1.719, 3.901e-5
-1.720, 3.981e-5
-1.721, 4.062e-5
-1.722, 4.143e-5
-1.723, 4.227e-5
-1.724, 4.314e-5
-1.725, 4.403e-5
-1.726, 4.498e-5
-1.727, 4.596e-5
-1.728, 4.695e-5
-1.729, 4.796e-5
-1.730, 4.899e-5
-1.731, 5.004e-5
-1.732, 5.112e-5
-1.733, 5.224e-5
-1.734, 5.342e-5
-1.735, 5.460e-5
-1.736, 5.581e-5
-1.737, 5.705e-5
-1.738, 5.834e-5
-1.739, 5.967e-5
-1.740, 6.106e-5
-1.741, 6.251e-5
-1.742, 6.398e-5
-1.743, 6.545e-5
-1.744, 6.698e-5
-1.745, 6.853e-5
-1.746, 7.008e-5
-1.747, 7.170e-5
-1.748, 7.336e-5
-1.749, 7.510e-5
-1.750, 7.694e-5
-1.751, 7.887e-5
-1.752, 8.082e-5
-1.753, 8.280e-5
-1.754, 8.478e-5
-1.755, 8.684e-5
-1.756, 8.892e-5
-1.757, 9.107e-5
-1.758, 9.329e-5
-1.759, 9.559e-5
-1.760, 9.796e-5
-1.761, 1.004e-4
-1.762, 1.029e-4
-1.763, 1.055e-4
-1.764, 1.081e-4
-1.765, 1.109e-4
-1.766, 1.137e-4
-1.767, 1.166e-4
-1.768, 1.196e-4
-1.769, 1.226e-4
-1.770, 1.257e-4
-1.771, 1.289e-4
-1.772, 1.323e-4
-1.773, 1.358e-4
-1.774, 1.393e-4
-1.775, 1.429e-4
-1.776, 1.465e-4
-1.777, 1.501e-4
-1.778, 1.540e-4
-1.779, 1.580e-4
-1.780, 1.623e-4
-1.781, 1.666e-4
-1.782, 1.708e-4
-1.783, 1.752e-4
-1.784, 1.798e-4
-1.785, 1.844e-4
-1.786, 1.892e-4
-1.787, 1.941e-4
-1.788, 1.992e-4
-1.789, 2.045e-4
-1.790, 2.099e-4
-1.791, 2.154e-4
-1.792, 2.211e-4
-1.793, 2.270e-4
-1.794, 2.330e-4
-1.795, 2.390e-4
-1.796, 2.452e-4
-1.797, 2.515e-4
-1.798, 2.580e-4
-1.799, 2.647e-4
-1.800, 2.717e-4
-1.801, 2.788e-4
-1.802, 2.862e-4
-1.803, 2.937e-4
-1.804, 3.014e-4
-1.805, 3.094e-4
-1.806, 3.175e-4
-1.807, 3.258e-4
-1.808, 3.343e-4
-1.809, 3.429e-4
-1.810, 3.518e-4
-1.811, 3.611e-4
-1.812, 3.705e-4
-1.813, 3.801e-4
-1.814, 3.900e-4
-1.815, 4.000e-4
-1.816, 4.104e-4
-1.817, 4.210e-4
-1.818, 4.319e-4
-1.819, 4.431e-4
-1.820, 4.544e-4
-1.821, 4.660e-4
-1.822, 4.778e-4
-1.823, 4.899e-4
-1.824, 5.023e-4
-1.825, 5.151e-4
-1.826, 5.283e-4
-1.827, 5.417e-4
-1.828, 5.553e-4
-1.829, 5.694e-4
-1.830, 5.837e-4
-1.831, 5.982e-4
-1.832, 6.131e-4
-1.833, 6.284e-4
-1.834, 6.441e-4
-1.835, 6.603e-4
-1.836, 6.766e-4
-1.837, 6.931e-4
-1.838, 7.101e-4
-1.839, 7.275e-4
-1.840, 7.452e-4
-1.841, 7.634e-4
-1.842, 7.820e-4
-1.843, 8.009e-4
-1.844, 8.204e-4
-1.845, 8.404e-4
-1.846, 8.606e-4
-1.847, 8.811e-4
-1.848, 9.021e-4
-1.849, 9.235e-4
-1.850, 9.455e-4
-1.851, 9.685e-4
-1.852, 9.915e-4
-1.853, 1.010e-3
-1.854, 1.011e-3
-1.855, 1.011e-3
-1.856, 1.011e-3
-1.857, 1.011e-3
-1.858, 1.011e-3
-1.859, 1.011e-3
-1.860, 1.011e-3
-1.861, 1.011e-3
-1.862, 1.011e-3
-1.863, 1.011e-3
-1.864, 1.011e-3
-1.865, 1.011e-3
-1.866, 1.011e-3
-1.867, 1.011e-3
-1.868, 1.011e-3
-1.869, 1.011e-3
-1.870, 1.011e-3
-1.871, 1.011e-3
-1.872, 1.011e-3
-1.873, 1.011e-3
-1.874, 1.011e-3
-1.875, 1.011e-3
-1.876, 1.011e-3
-1.877, 1.011e-3
-1.878, 1.011e-3
-1.879, 1.011e-3
-1.880, 1.011e-3
-1.881, 1.011e-3
-1.882, 1.011e-3
-1.883, 1.011e-3
-1.884, 1.011e-3
-1.885, 1.011e-3
-1.886, 1.011e-3
-1.887, 1.011e-3
-1.888, 1.011e-3
-1.889, 1.011e-3
-1.890, 1.011e-3
-1.891, 1.011e-3
-1.892, 1.011e-3
-1.893, 1.011e-3
-1.894, 1.011e-3
-1.895, 1.011e-3
-1.896, 1.011e-3
-1.897, 1.011e-3
-1.898, 1.011e-3
-1.899, 1.011e-3
