Jan. 14, 2025   17:39:44
Cyclic Voltammetry
File: c:/users/guazh/data/banditlqround7_x0exp772_r5/2025-01-10-exp845\exp845-2025-01-14t17_23_29-arkoh\exp845_cv_sr_800mvs_efin_-1600mv.bin
Data Source:  Experiment
Instrument Model:  CHI760E
Header: CV ran at 800 mVs
Note: 

Init E (V) = -1
High E (V) = -1
Low E (V) = -1.6
Final E (V) = -1
Init P/N = N
Scan Rate (V/s) = 0.8
Segment = 3
Sample Interval (V) = 0.001
Quiet Time (sec) = 2
Sensitivity (A/V) = 0.01
Comp R (ohm) = 1.5

Results:

Channel 1:
Segment 1:

Segment 2:

Segment 3:

Potential/V, Current/A

-1.000, 1.865e-5
-1.001, 4.024e-5
-1.002, 4.640e-5
-1.003, 4.949e-5
-1.004, 5.257e-5
-1.005, 5.565e-5
-1.006, 5.565e-5
-1.007, 5.873e-5
-1.008, 6.182e-5
-1.009, 6.182e-5
-1.010, 6.182e-5
-1.011, 6.798e-5
-1.012, 6.798e-5
-1.013, 7.107e-5
-1.014, 7.107e-5
-1.015, 7.415e-5
-1.016, 7.415e-5
-1.017, 7.415e-5
-1.018, 7.415e-5
-1.019, 7.723e-5
-1.020, 7.723e-5
-1.021, 7.723e-5
-1.022, 8.032e-5
-1.023, 8.340e-5
-1.024, 8.340e-5
-1.025, 8.648e-5
-1.026, 8.957e-5
-1.027, 8.957e-5
-1.028, 9.265e-5
-1.029, 9.265e-5
-1.030, 9.265e-5
-1.031, 9.265e-5
-1.032, 9.573e-5
-1.033, 9.573e-5
-1.034, 9.882e-5
-1.035, 9.882e-5
-1.036, 1.019e-4
-1.037, 1.019e-4
-1.038, 1.081e-4
-1.039, 1.081e-4
-1.040, 1.111e-4
-1.041, 1.142e-4
-1.042, 1.173e-4
-1.043, 1.142e-4
-1.044, 1.173e-4
-1.045, 1.173e-4
-1.046, 1.173e-4
-1.047, 1.204e-4
-1.048, 1.235e-4
-1.049, 1.235e-4
-1.050, 1.266e-4
-1.051, 1.296e-4
-1.052, 1.327e-4
-1.053, 1.358e-4
-1.054, 1.389e-4
-1.055, 1.420e-4
-1.056, 1.420e-4
-1.057, 1.451e-4
-1.058, 1.451e-4
-1.059, 1.481e-4
-1.060, 1.481e-4
-1.061, 1.512e-4
-1.062, 1.543e-4
-1.063, 1.574e-4
-1.064, 1.605e-4
-1.065, 1.636e-4
-1.066, 1.666e-4
-1.067, 1.697e-4
-1.068, 1.728e-4
-1.069, 1.759e-4
-1.070, 1.759e-4
-1.071, 1.790e-4
-1.072, 1.790e-4
-1.073, 1.821e-4
-1.074, 1.851e-4
-1.075, 1.882e-4
-1.076, 1.913e-4
-1.077, 1.944e-4
-1.078, 1.944e-4
-1.079, 2.006e-4
-1.080, 2.067e-4
-1.081, 2.067e-4
-1.082, 2.098e-4
-1.083, 2.098e-4
-1.084, 2.129e-4
-1.085, 2.129e-4
-1.086, 2.160e-4
-1.087, 2.191e-4
-1.088, 2.191e-4
-1.089, 2.252e-4
-1.090, 2.283e-4
-1.091, 2.314e-4
-1.092, 2.345e-4
-1.093, 2.406e-4
-1.094, 2.406e-4
-1.095, 2.437e-4
-1.096, 2.437e-4
-1.097, 2.468e-4
-1.098, 2.499e-4
-1.099, 2.499e-4
-1.100, 2.530e-4
-1.101, 2.561e-4
-1.102, 2.561e-4
-1.103, 2.591e-4
-1.104, 2.622e-4
-1.105, 2.684e-4
-1.106, 2.715e-4
-1.107, 2.746e-4
-1.108, 2.776e-4
-1.109, 2.807e-4
-1.110, 2.807e-4
-1.111, 2.838e-4
-1.112, 2.838e-4
-1.113, 2.838e-4
-1.114, 2.869e-4
-1.115, 2.900e-4
-1.116, 2.961e-4
-1.117, 2.961e-4
-1.118, 2.992e-4
-1.119, 3.054e-4
-1.120, 3.085e-4
-1.121, 3.085e-4
-1.122, 3.146e-4
-1.123, 3.146e-4
-1.124, 3.177e-4
-1.125, 3.146e-4
-1.126, 3.177e-4
-1.127, 3.208e-4
-1.128, 3.208e-4
-1.129, 3.239e-4
-1.130, 3.270e-4
-1.131, 3.300e-4
-1.132, 3.362e-4
-1.133, 3.393e-4
-1.134, 3.424e-4
-1.135, 3.424e-4
-1.136, 3.455e-4
-1.137, 3.485e-4
-1.138, 3.485e-4
-1.139, 3.516e-4
-1.140, 3.516e-4
-1.141, 3.547e-4
-1.142, 3.547e-4
-1.143, 3.609e-4
-1.144, 3.609e-4
-1.145, 3.670e-4
-1.146, 3.701e-4
-1.147, 3.732e-4
-1.148, 3.763e-4
-1.149, 3.794e-4
-1.150, 3.794e-4
-1.151, 3.794e-4
-1.152, 3.825e-4
-1.153, 3.825e-4
-1.154, 3.855e-4
-1.155, 3.855e-4
-1.156, 3.917e-4
-1.157, 3.917e-4
-1.158, 3.979e-4
-1.159, 4.010e-4
-1.160, 4.071e-4
-1.161, 4.071e-4
-1.162, 4.102e-4
-1.163, 4.102e-4
-1.164, 4.133e-4
-1.165, 4.133e-4
-1.166, 4.133e-4
-1.167, 4.164e-4
-1.168, 4.164e-4
-1.169, 4.195e-4
-1.170, 4.225e-4
-1.171, 4.256e-4
-1.172, 4.318e-4
-1.173, 4.349e-4
-1.174, 4.349e-4
-1.175, 4.410e-4
-1.176, 4.410e-4
-1.177, 4.410e-4
-1.178, 4.441e-4
-1.179, 4.441e-4
-1.180, 4.472e-4
-1.181, 4.503e-4
-1.182, 4.472e-4
-1.183, 4.534e-4
-1.184, 4.565e-4
-1.185, 4.626e-4
-1.186, 4.626e-4
-1.187, 4.657e-4
-1.188, 4.688e-4
-1.189, 4.719e-4
-1.190, 4.719e-4
-1.191, 4.719e-4
-1.192, 4.750e-4
-1.193, 4.750e-4
-1.194, 4.750e-4
-1.195, 4.750e-4
-1.196, 4.811e-4
-1.197, 4.811e-4
-1.198, 4.842e-4
-1.199, 4.904e-4
-1.200, 4.904e-4
-1.201, 4.935e-4
-1.202, 4.965e-4
-1.203, 4.965e-4
-1.204, 4.965e-4
-1.205, 4.965e-4
-1.206, 4.965e-4
-1.207, 4.965e-4
-1.208, 4.965e-4
-1.209, 4.996e-4
-1.210, 4.996e-4
-1.211, 5.027e-4
-1.212, 5.058e-4
-1.213, 5.089e-4
-1.214, 5.089e-4
-1.215, 5.120e-4
-1.216, 5.089e-4
-1.217, 5.120e-4
-1.218, 5.120e-4
-1.219, 5.120e-4
-1.220, 5.089e-4
-1.221, 5.089e-4
-1.222, 5.089e-4
-1.223, 5.120e-4
-1.224, 5.120e-4
-1.225, 5.150e-4
-1.226, 5.150e-4
-1.227, 5.150e-4
-1.228, 5.181e-4
-1.229, 5.181e-4
-1.230, 5.150e-4
-1.231, 5.150e-4
-1.232, 5.120e-4
-1.233, 5.089e-4
-1.234, 5.089e-4
-1.235, 5.058e-4
-1.236, 5.089e-4
-1.237, 5.089e-4
-1.238, 5.089e-4
-1.239, 5.120e-4
-1.240, 5.120e-4
-1.241, 5.120e-4
-1.242, 5.089e-4
-1.243, 5.058e-4
-1.244, 5.058e-4
-1.245, 5.027e-4
-1.246, 4.996e-4
-1.247, 4.965e-4
-1.248, 4.965e-4
-1.249, 4.935e-4
-1.250, 4.965e-4
-1.251, 4.965e-4
-1.252, 4.965e-4
-1.253, 4.965e-4
-1.254, 4.935e-4
-1.255, 4.935e-4
-1.256, 4.904e-4
-1.257, 4.873e-4
-1.258, 4.842e-4
-1.259, 4.811e-4
-1.260, 4.780e-4
-1.261, 4.780e-4
-1.262, 4.750e-4
-1.263, 4.750e-4
-1.264, 4.750e-4
-1.265, 4.750e-4
-1.266, 4.719e-4
-1.267, 4.719e-4
-1.268, 4.688e-4
-1.269, 4.688e-4
-1.270, 4.657e-4
-1.271, 4.626e-4
-1.272, 4.595e-4
-1.273, 4.565e-4
-1.274, 4.534e-4
-1.275, 4.503e-4
-1.276, 4.503e-4
-1.277, 4.472e-4
-1.278, 4.472e-4
-1.279, 4.441e-4
-1.280, 4.472e-4
-1.281, 4.472e-4
-1.282, 4.441e-4
-1.283, 4.410e-4
-1.284, 4.380e-4
-1.285, 4.318e-4
-1.286, 4.318e-4
-1.287, 4.287e-4
-1.288, 4.256e-4
-1.289, 4.256e-4
-1.290, 4.225e-4
-1.291, 4.256e-4
-1.292, 4.256e-4
-1.293, 4.225e-4
-1.294, 4.225e-4
-1.295, 4.195e-4
-1.296, 4.164e-4
-1.297, 4.164e-4
-1.298, 4.133e-4
-1.299, 4.102e-4
-1.300, 4.071e-4
-1.301, 4.071e-4
-1.302, 4.040e-4
-1.303, 4.040e-4
-1.304, 4.040e-4
-1.305, 4.040e-4
-1.306, 4.040e-4
-1.307, 4.040e-4
-1.308, 4.040e-4
-1.309, 4.010e-4
-1.310, 3.979e-4
-1.311, 3.979e-4
-1.312, 3.948e-4
-1.313, 3.917e-4
-1.314, 3.917e-4
-1.315, 3.886e-4
-1.316, 3.917e-4
-1.317, 3.917e-4
-1.318, 3.917e-4
-1.319, 3.917e-4
-1.320, 3.917e-4
-1.321, 3.917e-4
-1.322, 3.917e-4
-1.323, 3.886e-4
-1.324, 3.886e-4
-1.325, 3.855e-4
-1.326, 3.855e-4
-1.327, 3.855e-4
-1.328, 3.825e-4
-1.329, 3.855e-4
-1.330, 3.855e-4
-1.331, 3.855e-4
-1.332, 3.886e-4
-1.333, 3.917e-4
-1.334, 3.886e-4
-1.335, 3.917e-4
-1.336, 3.886e-4
-1.337, 3.886e-4
-1.338, 3.886e-4
-1.339, 3.886e-4
-1.340, 3.886e-4
-1.341, 3.855e-4
-1.342, 3.855e-4
-1.343, 3.886e-4
-1.344, 3.917e-4
-1.345, 3.948e-4
-1.346, 3.979e-4
-1.347, 3.979e-4
-1.348, 3.979e-4
-1.349, 4.010e-4
-1.350, 4.010e-4
-1.351, 4.010e-4
-1.352, 4.010e-4
-1.353, 4.010e-4
-1.354, 4.010e-4
-1.355, 4.040e-4
-1.356, 4.040e-4
-1.357, 4.071e-4
-1.358, 4.102e-4
-1.359, 4.133e-4
-1.360, 4.164e-4
-1.361, 4.195e-4
-1.362, 4.195e-4
-1.363, 4.195e-4
-1.364, 4.225e-4
-1.365, 4.225e-4
-1.366, 4.256e-4
-1.367, 4.256e-4
-1.368, 4.287e-4
-1.369, 4.318e-4
-1.370, 4.318e-4
-1.371, 4.380e-4
-1.372, 4.410e-4
-1.373, 4.441e-4
-1.374, 4.472e-4
-1.375, 4.503e-4
-1.376, 4.503e-4
-1.377, 4.565e-4
-1.378, 4.565e-4
-1.379, 4.595e-4
-1.380, 4.595e-4
-1.381, 4.626e-4
-1.382, 4.657e-4
-1.383, 4.719e-4
-1.384, 4.750e-4
-1.385, 4.811e-4
-1.386, 4.842e-4
-1.387, 4.873e-4
-1.388, 4.904e-4
-1.389, 4.935e-4
-1.390, 4.935e-4
-1.391, 4.996e-4
-1.392, 4.996e-4
-1.393, 5.027e-4
-1.394, 5.058e-4
-1.395, 5.089e-4
-1.396, 5.150e-4
-1.397, 5.212e-4
-1.398, 5.243e-4
-1.399, 5.274e-4
-1.400, 5.335e-4
-1.401, 5.397e-4
-1.402, 5.397e-4
-1.403, 5.459e-4
-1.404, 5.489e-4
-1.405, 5.489e-4
-1.406, 5.551e-4
-1.407, 5.551e-4
-1.408, 5.582e-4
-1.409, 5.644e-4
-1.410, 5.674e-4
-1.411, 5.736e-4
-1.412, 5.798e-4
-1.413, 5.859e-4
-1.414, 5.859e-4
-1.415, 5.921e-4
-1.416, 5.952e-4
-1.417, 5.983e-4
-1.418, 6.014e-4
-1.419, 6.014e-4
-1.420, 6.044e-4
-1.421, 6.106e-4
-1.422, 6.137e-4
-1.423, 6.168e-4
-1.424, 6.229e-4
-1.425, 6.260e-4
-1.426, 6.291e-4
-1.427, 6.322e-4
-1.428, 6.384e-4
-1.429, 6.414e-4
-1.430, 6.445e-4
-1.431, 6.445e-4
-1.432, 6.476e-4
-1.433, 6.507e-4
-1.434, 6.538e-4
-1.435, 6.569e-4
-1.436, 6.630e-4
-1.437, 6.661e-4
-1.438, 6.692e-4
-1.439, 6.754e-4
-1.440, 6.815e-4
-1.441, 6.815e-4
-1.442, 6.846e-4
-1.443, 6.877e-4
-1.444, 6.908e-4
-1.445, 6.969e-4
-1.446, 6.969e-4
-1.447, 7.031e-4
-1.448, 7.062e-4
-1.449, 7.124e-4
-1.450, 7.154e-4
-1.451, 7.216e-4
-1.452, 7.309e-4
-1.453, 7.370e-4
-1.454, 7.401e-4
-1.455, 7.494e-4
-1.456, 7.555e-4
-1.457, 7.648e-4
-1.458, 7.709e-4
-1.459, 7.802e-4
-1.460, 7.894e-4
-1.461, 8.018e-4
-1.462, 8.141e-4
-1.463, 8.295e-4
-1.464, 8.480e-4
-1.465, 8.665e-4
-1.466, 8.881e-4
-1.467, 9.066e-4
-1.468, 9.343e-4
-1.469, 9.590e-4
-1.470, 9.898e-4
-1.471, 1.021e-3
-1.472, 1.055e-3
-1.473, 1.092e-3
-1.474, 1.135e-3
-1.475, 1.178e-3
-1.476, 1.227e-3
-1.477, 1.280e-3
-1.478, 1.338e-3
-1.479, 1.400e-3
-1.480, 1.468e-3
-1.481, 1.536e-3
-1.482, 1.606e-3
-1.483, 1.680e-3
-1.484, 1.754e-3
-1.485, 1.832e-3
-1.486, 1.909e-3
-1.487, 1.983e-3
-1.488, 2.060e-3
-1.489, 2.137e-3
-1.490, 2.217e-3
-1.491, 2.297e-3
-1.492, 2.374e-3
-1.493, 2.451e-3
-1.494, 2.528e-3
-1.495, 2.605e-3
-1.496, 2.679e-3
-1.497, 2.756e-3
-1.498, 2.827e-3
-1.499, 2.898e-3
-1.500, 2.966e-3
-1.501, 3.037e-3
-1.502, 3.105e-3
-1.503, 3.179e-3
-1.504, 3.250e-3
-1.505, 3.324e-3
-1.506, 3.395e-3
-1.507, 3.466e-3
-1.508, 3.536e-3
-1.509, 3.607e-3
-1.510, 3.675e-3
-1.511, 3.746e-3
-1.512, 3.817e-3
-1.513, 3.882e-3
-1.514, 3.950e-3
-1.515, 4.014e-3
-1.516, 4.085e-3
-1.517, 4.156e-3
-1.518, 4.230e-3
-1.519, 4.301e-3
-1.520, 4.372e-3
-1.521, 4.440e-3
-1.522, 4.517e-3
-1.523, 4.585e-3
-1.524, 4.656e-3
-1.525, 4.723e-3
-1.526, 4.791e-3
-1.527, 4.853e-3
-1.528, 4.924e-3
-1.529, 4.992e-3
-1.530, 5.063e-3
-1.531, 5.134e-3
-1.532, 5.204e-3
-1.533, 5.282e-3
-1.534, 5.352e-3
-1.535, 5.423e-3
-1.536, 5.494e-3
-1.537, 5.568e-3
-1.538, 5.639e-3
-1.539, 5.710e-3
-1.540, 5.778e-3
-1.541, 5.846e-3
-1.542, 5.914e-3
-1.543, 5.984e-3
-1.544, 6.055e-3
-1.545, 6.132e-3
-1.546, 6.228e-3
-1.547, 6.287e-3
-1.548, 6.361e-3
-1.549, 6.435e-3
-1.550, 6.506e-3
-1.551, 6.576e-3
-1.552, 6.644e-3
-1.553, 6.718e-3
-1.554, 6.786e-3
-1.555, 6.863e-3
-1.556, 6.937e-3
-1.557, 7.008e-3
-1.558, 7.097e-3
-1.559, 7.165e-3
-1.560, 7.245e-3
-1.561, 7.319e-3
-1.562, 7.397e-3
-1.563, 7.477e-3
-1.564, 7.563e-3
-1.565, 7.631e-3
-1.566, 7.696e-3
-1.567, 7.767e-3
-1.568, 7.844e-3
-1.569, 7.918e-3
-1.570, 8.010e-3
-1.571, 8.093e-3
-1.572, 8.164e-3
-1.573, 8.232e-3
-1.574, 8.309e-3
-1.575, 8.392e-3
-1.576, 8.482e-3
-1.577, 8.562e-3
-1.578, 8.630e-3
-1.579, 8.698e-3
-1.580, 8.778e-3
-1.581, 8.858e-3
-1.582, 8.938e-3
-1.583, 9.018e-3
-1.584, 9.086e-3
-1.585, 9.169e-3
-1.586, 9.259e-3
-1.587, 9.351e-3
-1.588, 9.428e-3
-1.589, 9.499e-3
-1.590, 9.570e-3
-1.591, 9.653e-3
-1.592, 9.730e-3
-1.593, 9.792e-3
-1.594, 9.869e-3
-1.595, 9.956e-3
-1.596, 1.003e-2
-1.597, 1.010e-2
-1.598, 1.020e-2
-1.599, 1.029e-2
-1.600, 1.030e-2
-1.599, 1.021e-2
-1.598, 1.013e-2
-1.597, 1.004e-2
-1.596, 9.949e-3
-1.595, 9.854e-3
-1.594, 9.764e-3
-1.593, 9.647e-3
-1.592, 9.561e-3
-1.591, 9.475e-3
-1.590, 9.394e-3
-1.589, 9.299e-3
-1.588, 9.219e-3
-1.587, 9.142e-3
-1.586, 9.046e-3
-1.585, 8.969e-3
-1.584, 8.898e-3
-1.583, 8.833e-3
-1.582, 8.728e-3
-1.581, 8.624e-3
-1.580, 8.537e-3
-1.579, 8.448e-3
-1.578, 8.362e-3
-1.577, 8.269e-3
-1.576, 8.183e-3
-1.575, 8.106e-3
-1.574, 8.025e-3
-1.573, 7.955e-3
-1.572, 7.868e-3
-1.571, 7.797e-3
-1.570, 7.717e-3
-1.569, 7.631e-3
-1.568, 7.551e-3
-1.567, 7.474e-3
-1.566, 7.397e-3
-1.565, 7.319e-3
-1.564, 7.233e-3
-1.563, 7.156e-3
-1.562, 7.085e-3
-1.561, 7.011e-3
-1.560, 6.934e-3
-1.559, 6.854e-3
-1.558, 6.780e-3
-1.557, 6.703e-3
-1.556, 6.632e-3
-1.555, 6.546e-3
-1.554, 6.475e-3
-1.553, 6.398e-3
-1.552, 6.321e-3
-1.551, 6.253e-3
-1.550, 6.176e-3
-1.549, 6.108e-3
-1.548, 6.037e-3
-1.547, 5.969e-3
-1.546, 5.904e-3
-1.545, 5.830e-3
-1.544, 5.759e-3
-1.543, 5.688e-3
-1.542, 5.618e-3
-1.541, 5.544e-3
-1.540, 5.476e-3
-1.539, 5.402e-3
-1.538, 5.328e-3
-1.537, 5.263e-3
-1.536, 5.195e-3
-1.535, 5.130e-3
-1.534, 5.069e-3
-1.533, 5.004e-3
-1.532, 4.942e-3
-1.531, 4.878e-3
-1.530, 4.816e-3
-1.529, 4.754e-3
-1.528, 4.693e-3
-1.527, 4.622e-3
-1.526, 4.548e-3
-1.525, 4.483e-3
-1.524, 4.418e-3
-1.523, 4.357e-3
-1.522, 4.298e-3
-1.521, 4.239e-3
-1.520, 4.184e-3
-1.519, 4.122e-3
-1.518, 4.067e-3
-1.517, 4.008e-3
-1.516, 3.953e-3
-1.515, 3.894e-3
-1.514, 3.832e-3
-1.513, 3.777e-3
-1.512, 3.718e-3
-1.511, 3.660e-3
-1.510, 3.604e-3
-1.509, 3.552e-3
-1.508, 3.496e-3
-1.507, 3.444e-3
-1.506, 3.410e-3
-1.505, 3.348e-3
-1.504, 3.290e-3
-1.503, 3.234e-3
-1.502, 3.185e-3
-1.501, 3.179e-3
-1.500, 3.108e-3
-1.499, 3.046e-3
-1.498, 2.985e-3
-1.497, 2.932e-3
-1.496, 2.880e-3
-1.495, 2.827e-3
-1.494, 2.781e-3
-1.493, 2.735e-3
-1.492, 2.682e-3
-1.491, 2.639e-3
-1.490, 2.593e-3
-1.489, 2.541e-3
-1.488, 2.494e-3
-1.487, 2.448e-3
-1.486, 2.399e-3
-1.485, 2.349e-3
-1.484, 2.309e-3
-1.483, 2.266e-3
-1.482, 2.223e-3
-1.481, 2.183e-3
-1.480, 2.146e-3
-1.479, 2.100e-3
-1.478, 2.063e-3
-1.477, 2.017e-3
-1.476, 1.980e-3
-1.475, 1.936e-3
-1.474, 1.899e-3
-1.473, 1.859e-3
-1.472, 1.819e-3
-1.471, 1.788e-3
-1.470, 1.748e-3
-1.469, 1.708e-3
-1.468, 1.674e-3
-1.467, 1.640e-3
-1.466, 1.606e-3
-1.465, 1.573e-3
-1.464, 1.539e-3
-1.463, 1.505e-3
-1.462, 1.468e-3
-1.461, 1.437e-3
-1.460, 1.400e-3
-1.459, 1.369e-3
-1.458, 1.335e-3
-1.457, 1.307e-3
-1.456, 1.277e-3
-1.455, 1.246e-3
-1.454, 1.221e-3
-1.453, 1.193e-3
-1.452, 1.166e-3
-1.451, 1.138e-3
-1.450, 1.107e-3
-1.449, 1.082e-3
-1.448, 1.055e-3
-1.447, 1.030e-3
-1.446, 1.002e-3
-1.445, 9.744e-4
-1.444, 9.467e-4
-1.443, 9.220e-4
-1.442, 9.004e-4
-1.441, 8.758e-4
-1.440, 8.573e-4
-1.439, 8.326e-4
-1.438, 8.110e-4
-1.437, 7.894e-4
-1.436, 7.679e-4
-1.435, 7.463e-4
-1.434, 7.247e-4
-1.433, 7.031e-4
-1.432, 6.846e-4
-1.431, 6.661e-4
-1.430, 6.476e-4
-1.429, 6.322e-4
-1.428, 6.168e-4
-1.427, 5.983e-4
-1.426, 5.798e-4
-1.425, 5.613e-4
-1.424, 5.459e-4
-1.423, 5.274e-4
-1.422, 5.120e-4
-1.421, 4.935e-4
-1.420, 4.780e-4
-1.419, 4.657e-4
-1.418, 4.503e-4
-1.417, 4.380e-4
-1.416, 4.225e-4
-1.415, 4.102e-4
-1.414, 3.979e-4
-1.413, 3.855e-4
-1.412, 3.732e-4
-1.411, 3.640e-4
-1.410, 3.516e-4
-1.409, 3.362e-4
-1.408, 3.239e-4
-1.407, 3.115e-4
-1.406, 3.023e-4
-1.405, 2.900e-4
-1.404, 2.807e-4
-1.403, 2.715e-4
-1.402, 2.622e-4
-1.401, 2.530e-4
-1.400, 2.437e-4
-1.399, 2.345e-4
-1.398, 2.252e-4
-1.397, 2.160e-4
-1.396, 2.067e-4
-1.395, 1.975e-4
-1.394, 1.882e-4
-1.393, 1.821e-4
-1.392, 1.759e-4
-1.391, 1.666e-4
-1.390, 1.605e-4
-1.389, 1.543e-4
-1.388, 1.512e-4
-1.387, 1.451e-4
-1.386, 1.389e-4
-1.385, 1.296e-4
-1.384, 1.235e-4
-1.383, 1.173e-4
-1.382, 1.081e-4
-1.381, 1.050e-4
-1.380, 9.573e-5
-1.379, 9.265e-5
-1.378, 8.340e-5
-1.377, 8.340e-5
-1.376, 7.723e-5
-1.375, 7.415e-5
-1.374, 6.798e-5
-1.373, 6.490e-5
-1.372, 6.182e-5
-1.371, 5.873e-5
-1.370, 5.257e-5
-1.369, 4.640e-5
-1.368, 4.024e-5
-1.367, 3.715e-5
-1.366, 3.099e-5
-1.365, 2.790e-5
-1.364, 2.482e-5
-1.363, 2.174e-5
-1.362, 1.865e-5
-1.361, 1.865e-5
-1.360, 1.557e-5
-1.359, 9.405e-6
-1.358, 6.322e-6
-1.357, 3.239e-6
-1.356, 1.559e-7
-1.355, -6.010e-6
-1.354, -9.093e-6
-1.353, -1.218e-5
-1.352, -1.526e-5
-1.351, -1.834e-5
-1.350, -1.834e-5
-1.349, -2.143e-5
-1.348, -2.451e-5
-1.347, -2.451e-5
-1.346, -2.759e-5
-1.345, -3.068e-5
-1.344, -3.068e-5
-1.343, -3.376e-5
-1.342, -3.992e-5
-1.341, -3.992e-5
-1.340, -4.609e-5
-1.339, -4.609e-5
-1.338, -4.917e-5
-1.337, -4.917e-5
-1.336, -5.226e-5
-1.335, -5.226e-5
-1.334, -5.534e-5
-1.333, -5.534e-5
-1.332, -5.842e-5
-1.331, -5.842e-5
-1.330, -6.151e-5
-1.329, -6.459e-5
-1.328, -6.767e-5
-1.327, -7.076e-5
-1.326, -7.384e-5
-1.325, -7.384e-5
-1.324, -7.692e-5
-1.323, -7.692e-5
-1.322, -8.000e-5
-1.321, -7.692e-5
-1.320, -8.000e-5
-1.319, -8.000e-5
-1.318, -8.309e-5
-1.317, -8.617e-5
-1.316, -8.925e-5
-1.315, -9.234e-5
-1.314, -9.234e-5
-1.313, -9.542e-5
-1.312, -9.542e-5
-1.311, -9.850e-5
-1.310, -9.850e-5
-1.309, -9.850e-5
-1.308, -9.850e-5
-1.307, -9.850e-5
-1.306, -1.016e-4
-1.305, -1.016e-4
-1.304, -1.047e-4
-1.303, -1.078e-4
-1.302, -1.078e-4
-1.301, -1.108e-4
-1.300, -1.139e-4
-1.299, -1.139e-4
-1.298, -1.170e-4
-1.297, -1.170e-4
-1.296, -1.170e-4
-1.295, -1.201e-4
-1.294, -1.201e-4
-1.293, -1.201e-4
-1.292, -1.232e-4
-1.291, -1.232e-4
-1.290, -1.263e-4
-1.289, -1.293e-4
-1.288, -1.293e-4
-1.287, -1.324e-4
-1.286, -1.324e-4
-1.285, -1.355e-4
-1.284, -1.355e-4
-1.283, -1.355e-4
-1.282, -1.355e-4
-1.281, -1.355e-4
-1.280, -1.386e-4
-1.279, -1.386e-4
-1.278, -1.386e-4
-1.277, -1.448e-4
-1.276, -1.417e-4
-1.275, -1.478e-4
-1.274, -1.478e-4
-1.273, -1.509e-4
-1.272, -1.509e-4
-1.271, -1.540e-4
-1.270, -1.509e-4
-1.269, -1.540e-4
-1.268, -1.540e-4
-1.267, -1.540e-4
-1.266, -1.540e-4
-1.265, -1.571e-4
-1.264, -1.571e-4
-1.263, -1.602e-4
-1.262, -1.632e-4
-1.261, -1.663e-4
-1.260, -1.663e-4
-1.259, -1.663e-4
-1.258, -1.725e-4
-1.257, -1.694e-4
-1.256, -1.694e-4
-1.255, -1.725e-4
-1.254, -1.725e-4
-1.253, -1.725e-4
-1.252, -1.725e-4
-1.251, -1.756e-4
-1.250, -1.756e-4
-1.249, -1.787e-4
-1.248, -1.817e-4
-1.247, -1.848e-4
-1.246, -1.848e-4
-1.245, -1.879e-4
-1.244, -1.879e-4
-1.243, -1.879e-4
-1.242, -1.879e-4
-1.241, -1.879e-4
-1.240, -1.879e-4
-1.239, -1.879e-4
-1.238, -1.910e-4
-1.237, -1.941e-4
-1.236, -1.941e-4
-1.235, -1.972e-4
-1.234, -1.972e-4
-1.233, -2.033e-4
-1.232, -2.064e-4
-1.231, -2.064e-4
-1.230, -2.033e-4
-1.229, -2.064e-4
-1.228, -2.064e-4
-1.227, -2.033e-4
-1.226, -2.064e-4
-1.225, -2.095e-4
-1.224, -2.095e-4
-1.223, -2.126e-4
-1.222, -2.126e-4
-1.221, -2.157e-4
-1.220, -2.187e-4
-1.219, -2.187e-4
-1.218, -2.218e-4
-1.217, -2.218e-4
-1.216, -2.218e-4
-1.215, -2.218e-4
-1.214, -2.249e-4
-1.213, -2.218e-4
-1.212, -2.249e-4
-1.211, -2.249e-4
-1.210, -2.311e-4
-1.209, -2.342e-4
-1.208, -2.342e-4
-1.207, -2.372e-4
-1.206, -2.372e-4
-1.205, -2.403e-4
-1.204, -2.403e-4
-1.203, -2.403e-4
-1.202, -2.403e-4
-1.201, -2.403e-4
-1.200, -2.403e-4
-1.199, -2.434e-4
-1.198, -2.434e-4
-1.197, -2.465e-4
-1.196, -2.496e-4
-1.195, -2.527e-4
-1.194, -2.527e-4
-1.193, -2.588e-4
-1.192, -2.557e-4
-1.191, -2.588e-4
-1.190, -2.588e-4
-1.189, -2.588e-4
-1.188, -2.619e-4
-1.187, -2.588e-4
-1.186, -2.588e-4
-1.185, -2.619e-4
-1.184, -2.650e-4
-1.183, -2.681e-4
-1.182, -2.712e-4
-1.181, -2.712e-4
-1.180, -2.773e-4
-1.179, -2.773e-4
-1.178, -2.773e-4
-1.177, -2.804e-4
-1.176, -2.804e-4
-1.175, -2.804e-4
-1.174, -2.804e-4
-1.173, -2.804e-4
-1.172, -2.835e-4
-1.171, -2.835e-4
-1.170, -2.866e-4
-1.169, -2.897e-4
-1.168, -2.927e-4
-1.167, -2.927e-4
-1.166, -2.989e-4
-1.165, -2.989e-4
-1.164, -3.020e-4
-1.163, -3.020e-4
-1.162, -3.020e-4
-1.161, -3.020e-4
-1.160, -3.020e-4
-1.159, -3.020e-4
-1.158, -3.051e-4
-1.157, -3.082e-4
-1.156, -3.112e-4
-1.155, -3.143e-4
-1.154, -3.143e-4
-1.153, -3.205e-4
-1.152, -3.236e-4
-1.151, -3.267e-4
-1.150, -3.267e-4
-1.149, -3.236e-4
-1.148, -3.236e-4
-1.147, -3.236e-4
-1.146, -3.267e-4
-1.145, -3.267e-4
-1.144, -3.267e-4
-1.143, -3.297e-4
-1.142, -3.328e-4
-1.141, -3.359e-4
-1.140, -3.390e-4
-1.139, -3.421e-4
-1.138, -3.452e-4
-1.137, -3.452e-4
-1.136, -3.452e-4
-1.135, -3.452e-4
-1.134, -3.452e-4
-1.133, -3.452e-4
-1.132, -3.482e-4
-1.131, -3.482e-4
-1.130, -3.513e-4
-1.129, -3.544e-4
-1.128, -3.575e-4
-1.127, -3.606e-4
-1.126, -3.637e-4
-1.125, -3.637e-4
-1.124, -3.667e-4
-1.123, -3.667e-4
-1.122, -3.667e-4
-1.121, -3.667e-4
-1.120, -3.667e-4
-1.119, -3.698e-4
-1.118, -3.698e-4
-1.117, -3.729e-4
-1.116, -3.760e-4
-1.115, -3.791e-4
-1.114, -3.821e-4
-1.113, -3.821e-4
-1.112, -3.852e-4
-1.111, -3.883e-4
-1.110, -3.883e-4
-1.109, -3.883e-4
-1.108, -3.852e-4
-1.107, -3.883e-4
-1.106, -3.883e-4
-1.105, -3.914e-4
-1.104, -3.945e-4
-1.103, -3.945e-4
-1.102, -3.976e-4
-1.101, -4.006e-4
-1.100, -4.068e-4
-1.099, -4.068e-4
-1.098, -4.068e-4
-1.097, -4.068e-4
-1.096, -4.068e-4
-1.095, -4.068e-4
-1.094, -4.099e-4
-1.093, -4.068e-4
-1.092, -4.099e-4
-1.091, -4.099e-4
-1.090, -4.130e-4
-1.089, -4.161e-4
-1.088, -4.191e-4
-1.087, -4.191e-4
-1.086, -4.222e-4
-1.085, -4.253e-4
-1.084, -4.253e-4
-1.083, -4.253e-4
-1.082, -4.253e-4
-1.081, -4.253e-4
-1.080, -4.284e-4
-1.079, -4.284e-4
-1.078, -4.284e-4
-1.077, -4.315e-4
-1.076, -4.346e-4
-1.075, -4.376e-4
-1.074, -4.376e-4
-1.073, -4.407e-4
-1.072, -4.407e-4
-1.071, -4.438e-4
-1.070, -4.438e-4
-1.069, -4.438e-4
-1.068, -4.438e-4
-1.067, -4.438e-4
-1.066, -4.438e-4
-1.065, -4.469e-4
-1.064, -4.469e-4
-1.063, -4.500e-4
-1.062, -4.531e-4
-1.061, -4.531e-4
-1.060, -4.592e-4
-1.059, -4.561e-4
-1.058, -4.592e-4
-1.057, -4.592e-4
-1.056, -4.623e-4
-1.055, -4.623e-4
-1.054, -4.623e-4
-1.053, -4.623e-4
-1.052, -4.623e-4
-1.051, -4.654e-4
-1.050, -4.654e-4
-1.049, -4.685e-4
-1.048, -4.716e-4
-1.047, -4.746e-4
-1.046, -4.746e-4
-1.045, -4.777e-4
-1.044, -4.777e-4
-1.043, -4.746e-4
-1.042, -4.746e-4
-1.041, -4.746e-4
-1.040, -4.746e-4
-1.039, -4.746e-4
-1.038, -4.746e-4
-1.037, -4.777e-4
-1.036, -4.777e-4
-1.035, -4.808e-4
-1.034, -4.839e-4
-1.033, -5.055e-4
-1.032, -4.993e-4
-1.031, -4.993e-4
-1.030, -4.962e-4
-1.029, -4.931e-4
-1.028, -4.931e-4
-1.027, -4.901e-4
-1.026, -4.901e-4
-1.025, -4.901e-4
-1.024, -4.931e-4
-1.023, -4.931e-4
-1.022, -4.962e-4
-1.021, -4.962e-4
-1.020, -4.993e-4
-1.019, -4.993e-4
-1.018, -4.993e-4
-1.017, -4.993e-4
-1.016, -4.993e-4
-1.015, -4.993e-4
-1.014, -4.993e-4
-1.013, -4.993e-4
-1.012, -4.993e-4
-1.011, -4.993e-4
-1.010, -4.993e-4
-1.009, -5.024e-4
-1.008, -5.024e-4
-1.007, -5.024e-4
-1.006, -5.055e-4
-1.005, -5.055e-4
-1.004, -5.086e-4
-1.003, -5.055e-4
-1.002, -5.055e-4
-1.001, -5.055e-4
