Jan. 14, 2025   17:37:30
Cyclic Voltammetry
File: c:/users/guazh/data/banditlqround7_x0exp772_r5/2025-01-10-exp845\exp845-2025-01-14t17_23_29-arkoh\exp845_cv_sr_200mvs_efin_-1600mv.bin
Data Source:  Experiment
Instrument Model:  CHI760E
Header: CV ran at 200 mVs
Note: 

Init E (V) = -1
High E (V) = -1
Low E (V) = -1.6
Final E (V) = -1
Init P/N = N
Scan Rate (V/s) = 0.2
Segment = 3
Sample Interval (V) = 0.001
Quiet Time (sec) = 2
Sensitivity (A/V) = 0.01
Comp R (ohm) = 1.5

Results:

Channel 1:
Segment 1:
Ep = -1.201V
ip = 2.707e-5A
Ah = 1.109e-5C

Segment 2:

Segment 3:

Potential/V, Current/A

-1.000, 4.970e-6
-1.001, 1.227e-5
-1.002, 1.194e-5
-1.003, 1.289e-5
-1.004, 1.652e-5
-1.005, 1.628e-5
-1.006, 1.519e-5
-1.007, 1.865e-5
-1.008, 1.926e-5
-1.009, 1.770e-5
-1.010, 1.950e-5
-1.011, 2.217e-5
-1.012, 2.023e-5
-1.013, 2.083e-5
-1.014, 2.395e-5
-1.015, 2.323e-5
-1.016, 2.183e-5
-1.017, 2.501e-5
-1.018, 2.564e-5
-1.019, 2.379e-5
-1.020, 2.535e-5
-1.021, 2.817e-5
-1.022, 2.624e-5
-1.023, 2.647e-5
-1.024, 2.947e-5
-1.025, 2.896e-5
-1.026, 2.755e-5
-1.027, 3.074e-5
-1.028, 3.142e-5
-1.029, 2.969e-5
-1.030, 3.115e-5
-1.031, 3.400e-5
-1.032, 3.195e-5
-1.033, 3.223e-5
-1.034, 3.544e-5
-1.035, 3.474e-5
-1.036, 3.342e-5
-1.037, 3.664e-5
-1.038, 3.728e-5
-1.039, 3.560e-5
-1.040, 3.708e-5
-1.041, 3.987e-5
-1.042, 3.832e-5
-1.043, 3.810e-5
-1.044, 4.148e-5
-1.045, 4.105e-5
-1.046, 3.952e-5
-1.047, 4.286e-5
-1.048, 4.353e-5
-1.049, 4.166e-5
-1.050, 4.359e-5
-1.051, 4.628e-5
-1.052, 4.445e-5
-1.053, 4.448e-5
-1.054, 4.822e-5
-1.055, 4.754e-5
-1.056, 4.585e-5
-1.057, 4.915e-5
-1.058, 5.035e-5
-1.059, 4.829e-5
-1.060, 4.989e-5
-1.061, 5.290e-5
-1.062, 5.091e-5
-1.063, 5.129e-5
-1.064, 5.456e-5
-1.065, 5.399e-5
-1.066, 5.255e-5
-1.067, 5.600e-5
-1.068, 5.687e-5
-1.069, 5.509e-5
-1.070, 5.635e-5
-1.071, 5.984e-5
-1.072, 5.753e-5
-1.073, 5.744e-5
-1.074, 6.149e-5
-1.075, 6.104e-5
-1.076, 5.905e-5
-1.077, 6.270e-5
-1.078, 6.356e-5
-1.079, 6.174e-5
-1.080, 6.299e-5
-1.081, 6.631e-5
-1.082, 6.436e-5
-1.083, 6.425e-5
-1.084, 6.819e-5
-1.085, 6.731e-5
-1.086, 6.581e-5
-1.087, 6.905e-5
-1.088, 7.040e-5
-1.089, 6.808e-5
-1.090, 6.975e-5
-1.091, 7.283e-5
-1.092, 7.098e-5
-1.093, 7.091e-5
-1.094, 7.459e-5
-1.095, 7.453e-5
-1.096, 7.230e-5
-1.097, 7.599e-5
-1.098, 7.736e-5
-1.099, 7.513e-5
-1.100, 7.650e-5
-1.101, 8.016e-5
-1.102, 7.810e-5
-1.103, 7.790e-5
-1.104, 8.175e-5
-1.105, 8.158e-5
-1.106, 7.952e-5
-1.107, 8.330e-5
-1.108, 8.480e-5
-1.109, 8.256e-5
-1.110, 8.390e-5
-1.111, 8.813e-5
-1.112, 8.578e-5
-1.113, 8.525e-5
-1.114, 9.013e-5
-1.115, 8.957e-5
-1.116, 8.773e-5
-1.117, 9.123e-5
-1.118, 9.338e-5
-1.119, 9.108e-5
-1.120, 9.261e-5
-1.121, 9.676e-5
-1.122, 9.455e-5
-1.123, 9.419e-5
-1.124, 9.894e-5
-1.125, 9.857e-5
-1.126, 9.686e-5
-1.127, 1.008e-4
-1.128, 1.029e-4
-1.129, 1.003e-4
-1.130, 1.022e-4
-1.131, 1.063e-4
-1.132, 1.045e-4
-1.133, 1.042e-4
-1.134, 1.088e-4
-1.135, 1.090e-4
-1.136, 1.068e-4
-1.137, 1.110e-4
-1.138, 1.130e-4
-1.139, 1.106e-4
-1.140, 1.124e-4
-1.141, 1.167e-4
-1.142, 1.147e-4
-1.143, 1.146e-4
-1.144, 1.192e-4
-1.145, 1.196e-4
-1.146, 1.172e-4
-1.147, 1.212e-4
-1.148, 1.236e-4
-1.149, 1.211e-4
-1.150, 1.226e-4
-1.151, 1.276e-4
-1.152, 1.252e-4
-1.153, 1.249e-4
-1.154, 1.298e-4
-1.155, 1.300e-4
-1.156, 1.277e-4
-1.157, 1.313e-4
-1.158, 1.341e-4
-1.159, 1.314e-4
-1.160, 1.329e-4
-1.161, 1.372e-4
-1.162, 1.355e-4
-1.163, 1.344e-4
-1.164, 1.397e-4
-1.165, 1.398e-4
-1.166, 1.371e-4
-1.167, 1.410e-4
-1.168, 1.431e-4
-1.169, 1.404e-4
-1.170, 1.418e-4
-1.171, 1.460e-4
-1.172, 1.440e-4
-1.173, 1.428e-4
-1.174, 1.477e-4
-1.175, 1.478e-4
-1.176, 1.444e-4
-1.177, 1.488e-4
-1.178, 1.508e-4
-1.179, 1.475e-4
-1.180, 1.485e-4
-1.181, 1.532e-4
-1.182, 1.502e-4
-1.183, 1.491e-4
-1.184, 1.535e-4
-1.185, 1.534e-4
-1.186, 1.500e-4
-1.187, 1.536e-4
-1.188, 1.554e-4
-1.189, 1.518e-4
-1.190, 1.525e-4
-1.191, 1.570e-4
-1.192, 1.537e-4
-1.193, 1.523e-4
-1.194, 1.566e-4
-1.195, 1.559e-4
-1.196, 1.526e-4
-1.197, 1.559e-4
-1.198, 1.577e-4
-1.199, 1.538e-4
-1.200, 1.538e-4
-1.201, 1.584e-4
-1.202, 1.549e-4
-1.203, 1.529e-4
-1.204, 1.573e-4
-1.205, 1.560e-4
-1.206, 1.522e-4
-1.207, 1.555e-4
-1.208, 1.568e-4
-1.209, 1.522e-4
-1.210, 1.528e-4
-1.211, 1.563e-4
-1.212, 1.531e-4
-1.213, 1.507e-4
-1.214, 1.547e-4
-1.215, 1.537e-4
-1.216, 1.494e-4
-1.217, 1.524e-4
-1.218, 1.539e-4
-1.219, 1.491e-4
-1.220, 1.492e-4
-1.221, 1.529e-4
-1.222, 1.488e-4
-1.223, 1.469e-4
-1.224, 1.503e-4
-1.225, 1.495e-4
-1.226, 1.449e-4
-1.227, 1.478e-4
-1.228, 1.493e-4
-1.229, 1.448e-4
-1.230, 1.446e-4
-1.231, 1.481e-4
-1.232, 1.438e-4
-1.233, 1.416e-4
-1.234, 1.455e-4
-1.235, 1.438e-4
-1.236, 1.397e-4
-1.237, 1.422e-4
-1.238, 1.435e-4
-1.239, 1.386e-4
-1.240, 1.384e-4
-1.241, 1.421e-4
-1.242, 1.382e-4
-1.243, 1.357e-4
-1.244, 1.394e-4
-1.245, 1.382e-4
-1.246, 1.335e-4
-1.247, 1.366e-4
-1.248, 1.374e-4
-1.249, 1.329e-4
-1.250, 1.334e-4
-1.251, 1.363e-4
-1.252, 1.329e-4
-1.253, 1.302e-4
-1.254, 1.344e-4
-1.255, 1.330e-4
-1.256, 1.286e-4
-1.257, 1.317e-4
-1.258, 1.329e-4
-1.259, 1.280e-4
-1.260, 1.287e-4
-1.261, 1.323e-4
-1.262, 1.282e-4
-1.263, 1.263e-4
-1.264, 1.300e-4
-1.265, 1.288e-4
-1.266, 1.251e-4
-1.267, 1.282e-4
-1.268, 1.295e-4
-1.269, 1.250e-4
-1.270, 1.251e-4
-1.271, 1.293e-4
-1.272, 1.251e-4
-1.273, 1.235e-4
-1.274, 1.279e-4
-1.275, 1.266e-4
-1.276, 1.228e-4
-1.277, 1.262e-4
-1.278, 1.276e-4
-1.279, 1.235e-4
-1.280, 1.243e-4
-1.281, 1.280e-4
-1.282, 1.249e-4
-1.283, 1.226e-4
-1.284, 1.275e-4
-1.285, 1.261e-4
-1.286, 1.229e-4
-1.287, 1.263e-4
-1.288, 1.278e-4
-1.289, 1.237e-4
-1.290, 1.250e-4
-1.291, 1.286e-4
-1.292, 1.259e-4
-1.293, 1.243e-4
-1.294, 1.288e-4
-1.295, 1.282e-4
-1.296, 1.248e-4
-1.297, 1.286e-4
-1.298, 1.302e-4
-1.299, 1.265e-4
-1.300, 1.278e-4
-1.301, 1.318e-4
-1.302, 1.290e-4
-1.303, 1.280e-4
-1.304, 1.327e-4
-1.305, 1.317e-4
-1.306, 1.292e-4
-1.307, 1.331e-4
-1.308, 1.349e-4
-1.309, 1.318e-4
-1.310, 1.327e-4
-1.311, 1.375e-4
-1.312, 1.348e-4
-1.313, 1.340e-4
-1.314, 1.387e-4
-1.315, 1.385e-4
-1.316, 1.358e-4
-1.317, 1.400e-4
-1.318, 1.423e-4
-1.319, 1.391e-4
-1.320, 1.407e-4
-1.321, 1.452e-4
-1.322, 1.432e-4
-1.323, 1.424e-4
-1.324, 1.475e-4
-1.325, 1.473e-4
-1.326, 1.448e-4
-1.327, 1.492e-4
-1.328, 1.515e-4
-1.329, 1.489e-4
-1.330, 1.510e-4
-1.331, 1.552e-4
-1.332, 1.534e-4
-1.333, 1.531e-4
-1.334, 1.583e-4
-1.335, 1.585e-4
-1.336, 1.560e-4
-1.337, 1.607e-4
-1.338, 1.634e-4
-1.339, 1.608e-4
-1.340, 1.630e-4
-1.341, 1.674e-4
-1.342, 1.657e-4
-1.343, 1.660e-4
-1.344, 1.708e-4
-1.345, 1.714e-4
-1.346, 1.697e-4
-1.347, 1.742e-4
-1.348, 1.767e-4
-1.349, 1.745e-4
-1.350, 1.768e-4
-1.351, 1.814e-4
-1.352, 1.799e-4
-1.353, 1.797e-4
-1.354, 1.853e-4
-1.355, 1.856e-4
-1.356, 1.838e-4
-1.357, 1.888e-4
-1.358, 1.912e-4
-1.359, 1.893e-4
-1.360, 1.918e-4
-1.361, 1.963e-4
-1.362, 1.950e-4
-1.363, 1.953e-4
-1.364, 2.005e-4
-1.365, 2.007e-4
-1.366, 1.994e-4
-1.367, 2.040e-4
-1.368, 2.063e-4
-1.369, 2.044e-4
-1.370, 2.069e-4
-1.371, 2.111e-4
-1.372, 2.100e-4
-1.373, 2.099e-4
-1.374, 2.150e-4
-1.375, 2.152e-4
-1.376, 2.140e-4
-1.377, 2.181e-4
-1.378, 2.207e-4
-1.379, 2.188e-4
-1.380, 2.209e-4
-1.381, 2.255e-4
-1.382, 2.241e-4
-1.383, 2.246e-4
-1.384, 2.290e-4
-1.385, 2.296e-4
-1.386, 2.285e-4
-1.387, 2.328e-4
-1.388, 2.355e-4
-1.389, 2.340e-4
-1.390, 2.365e-4
-1.391, 2.413e-4
-1.392, 2.406e-4
-1.393, 2.416e-4
-1.394, 2.471e-4
-1.395, 2.489e-4
-1.396, 2.490e-4
-1.397, 2.544e-4
-1.398, 2.583e-4
-1.399, 2.591e-4
-1.400, 2.632e-4
-1.401, 2.701e-4
-1.402, 2.725e-4
-1.403, 2.763e-4
-1.404, 2.848e-4
-1.405, 2.900e-4
-1.406, 2.943e-4
-1.407, 3.043e-4
-1.408, 3.127e-4
-1.409, 3.190e-4
-1.410, 3.290e-4
-1.411, 3.421e-4
-1.412, 3.516e-4
-1.413, 3.625e-4
-1.414, 3.791e-4
-1.415, 3.933e-4
-1.416, 4.066e-4
-1.417, 4.251e-4
-1.418, 4.439e-4
-1.419, 4.598e-4
-1.420, 4.793e-4
-1.421, 5.021e-4
-1.422, 5.204e-4
-1.423, 5.402e-4
-1.424, 5.644e-4
-1.425, 5.858e-4
-1.426, 6.046e-4
-1.427, 6.280e-4
-1.428, 6.525e-4
-1.429, 6.725e-4
-1.430, 6.953e-4
-1.431, 7.221e-4
-1.432, 7.443e-4
-1.433, 7.671e-4
-1.434, 7.951e-4
-1.435, 8.215e-4
-1.436, 8.447e-4
-1.437, 8.722e-4
-1.438, 9.021e-4
-1.439, 9.273e-4
-1.440, 9.546e-4
-1.441, 9.860e-4
-1.442, 1.014e-3
-1.443, 1.041e-3
-1.444, 1.074e-3
-1.445, 1.105e-3
-1.446, 1.133e-3
-1.447, 1.168e-3
-1.448, 1.206e-3
-1.449, 1.240e-3
-1.450, 1.270e-3
-1.451, 1.305e-3
-1.452, 1.338e-3
-1.453, 1.369e-3
-1.454, 1.407e-3
-1.455, 1.443e-3
-1.456, 1.475e-3
-1.457, 1.513e-3
-1.458, 1.554e-3
-1.459, 1.588e-3
-1.460, 1.623e-3
-1.461, 1.664e-3
-1.462, 1.701e-3
-1.463, 1.734e-3
-1.464, 1.777e-3
-1.465, 1.819e-3
-1.466, 1.853e-3
-1.467, 1.892e-3
-1.468, 1.937e-3
-1.469, 1.976e-3
-1.470, 2.015e-3
-1.471, 2.062e-3
-1.472, 2.102e-3
-1.473, 2.140e-3
-1.474, 2.186e-3
-1.475, 2.232e-3
-1.476, 2.277e-3
-1.477, 2.318e-3
-1.478, 2.367e-3
-1.479, 2.412e-3
-1.480, 2.454e-3
-1.481, 2.504e-3
-1.482, 2.552e-3
-1.483, 2.594e-3
-1.484, 2.646e-3
-1.485, 2.698e-3
-1.486, 2.741e-3
-1.487, 2.790e-3
-1.488, 2.847e-3
-1.489, 2.891e-3
-1.490, 2.937e-3
-1.491, 2.995e-3
-1.492, 3.045e-3
-1.493, 3.092e-3
-1.494, 3.149e-3
-1.495, 3.210e-3
-1.496, 3.253e-3
-1.497, 3.305e-3
-1.498, 3.364e-3
-1.499, 3.414e-3
-1.500, 3.465e-3
-1.501, 3.524e-3
-1.502, 3.576e-3
-1.503, 3.625e-3
-1.504, 3.684e-3
-1.505, 3.743e-3
-1.506, 3.793e-3
-1.507, 3.853e-3
-1.508, 3.916e-3
-1.509, 3.973e-3
-1.510, 4.027e-3
-1.511, 4.095e-3
-1.512, 4.163e-3
-1.513, 4.216e-3
-1.514, 4.276e-3
-1.515, 4.342e-3
-1.516, 4.390e-3
-1.517, 4.450e-3
-1.518, 4.516e-3
-1.519, 4.573e-3
-1.520, 4.628e-3
-1.521, 4.703e-3
-1.522, 4.764e-3
-1.523, 4.818e-3
-1.524, 4.887e-3
-1.525, 4.955e-3
-1.526, 5.015e-3
-1.527, 5.069e-3
-1.528, 5.139e-3
-1.529, 5.198e-3
-1.530, 5.262e-3
-1.531, 5.332e-3
-1.532, 5.398e-3
-1.533, 5.455e-3
-1.534, 5.529e-3
-1.535, 5.597e-3
-1.536, 5.654e-3
-1.537, 5.719e-3
-1.538, 5.796e-3
-1.539, 5.853e-3
-1.540, 5.916e-3
-1.541, 5.994e-3
-1.542, 6.065e-3
-1.543, 6.136e-3
-1.544, 6.206e-3
-1.545, 6.273e-3
-1.546, 6.334e-3
-1.547, 6.411e-3
-1.548, 6.485e-3
-1.549, 6.547e-3
-1.550, 6.606e-3
-1.551, 6.690e-3
-1.552, 6.749e-3
-1.553, 6.824e-3
-1.554, 6.884e-3
-1.555, 6.968e-3
-1.556, 7.032e-3
-1.557, 7.102e-3
-1.558, 7.174e-3
-1.559, 7.247e-3
-1.560, 7.292e-3
-1.561, 7.371e-3
-1.562, 7.435e-3
-1.563, 7.492e-3
-1.564, 7.572e-3
-1.565, 7.651e-3
-1.566, 7.709e-3
-1.567, 7.772e-3
-1.568, 7.848e-3
-1.569, 7.914e-3
-1.570, 7.975e-3
-1.571, 8.052e-3
-1.572, 8.125e-3
-1.573, 8.193e-3
-1.574, 8.284e-3
-1.575, 8.352e-3
-1.576, 8.410e-3
-1.577, 8.481e-3
-1.578, 8.552e-3
-1.579, 8.598e-3
-1.580, 8.665e-3
-1.581, 8.750e-3
-1.582, 8.824e-3
-1.583, 8.905e-3
-1.584, 8.996e-3
-1.585, 9.057e-3
-1.586, 9.123e-3
-1.587, 9.180e-3
-1.588, 9.238e-3
-1.589, 9.302e-3
-1.590, 9.357e-3
-1.591, 9.426e-3
-1.592, 9.498e-3
-1.593, 9.555e-3
-1.594, 9.638e-3
-1.595, 9.723e-3
-1.596, 9.771e-3
-1.597, 9.839e-3
-1.598, 9.924e-3
-1.599, 9.981e-3
-1.600, 9.978e-3
-1.599, 9.898e-3
-1.598, 9.807e-3
-1.597, 9.696e-3
-1.596, 9.618e-3
-1.595, 9.553e-3
-1.594, 9.439e-3
-1.593, 9.336e-3
-1.592, 9.253e-3
-1.591, 9.163e-3
-1.590, 9.070e-3
-1.589, 8.992e-3
-1.588, 8.903e-3
-1.587, 8.804e-3
-1.586, 8.714e-3
-1.585, 8.654e-3
-1.584, 8.556e-3
-1.583, 8.482e-3
-1.582, 8.407e-3
-1.581, 8.322e-3
-1.580, 8.243e-3
-1.579, 8.182e-3
-1.578, 8.110e-3
-1.577, 8.006e-3
-1.576, 7.921e-3
-1.575, 7.837e-3
-1.574, 7.761e-3
-1.573, 7.684e-3
-1.572, 7.604e-3
-1.571, 7.520e-3
-1.570, 7.459e-3
-1.569, 7.403e-3
-1.568, 7.322e-3
-1.567, 7.229e-3
-1.566, 7.155e-3
-1.565, 7.090e-3
-1.564, 7.015e-3
-1.563, 6.942e-3
-1.562, 6.886e-3
-1.561, 6.806e-3
-1.560, 6.736e-3
-1.559, 6.668e-3
-1.558, 6.596e-3
-1.557, 6.520e-3
-1.556, 6.456e-3
-1.555, 6.396e-3
-1.554, 6.312e-3
-1.553, 6.247e-3
-1.552, 6.188e-3
-1.551, 6.119e-3
-1.550, 6.044e-3
-1.549, 5.987e-3
-1.548, 5.905e-3
-1.547, 5.825e-3
-1.546, 5.771e-3
-1.545, 5.713e-3
-1.544, 5.650e-3
-1.543, 5.587e-3
-1.542, 5.521e-3
-1.541, 5.449e-3
-1.540, 5.376e-3
-1.539, 5.311e-3
-1.538, 5.252e-3
-1.537, 5.171e-3
-1.536, 5.111e-3
-1.535, 5.044e-3
-1.534, 4.973e-3
-1.533, 4.945e-3
-1.532, 4.885e-3
-1.531, 4.815e-3
-1.530, 4.748e-3
-1.529, 4.710e-3
-1.528, 4.650e-3
-1.527, 4.585e-3
-1.526, 4.534e-3
-1.525, 4.487e-3
-1.524, 4.413e-3
-1.523, 4.357e-3
-1.522, 4.311e-3
-1.521, 4.247e-3
-1.520, 4.182e-3
-1.519, 4.126e-3
-1.518, 4.071e-3
-1.517, 4.004e-3
-1.516, 3.950e-3
-1.515, 3.894e-3
-1.514, 3.831e-3
-1.513, 3.774e-3
-1.512, 3.723e-3
-1.511, 3.664e-3
-1.510, 3.605e-3
-1.509, 3.568e-3
-1.508, 3.514e-3
-1.507, 3.455e-3
-1.506, 3.407e-3
-1.505, 3.362e-3
-1.504, 3.305e-3
-1.503, 3.252e-3
-1.502, 3.205e-3
-1.501, 3.154e-3
-1.500, 3.096e-3
-1.499, 3.048e-3
-1.498, 2.996e-3
-1.497, 2.937e-3
-1.496, 2.888e-3
-1.495, 2.844e-3
-1.494, 2.791e-3
-1.493, 2.734e-3
-1.492, 2.701e-3
-1.491, 2.656e-3
-1.490, 2.617e-3
-1.489, 2.586e-3
-1.488, 2.527e-3
-1.487, 2.478e-3
-1.486, 2.434e-3
-1.485, 2.388e-3
-1.484, 2.335e-3
-1.483, 2.294e-3
-1.482, 2.254e-3
-1.481, 2.206e-3
-1.480, 2.164e-3
-1.479, 2.124e-3
-1.478, 2.085e-3
-1.477, 2.037e-3
-1.476, 2.004e-3
-1.475, 1.963e-3
-1.474, 1.922e-3
-1.473, 1.888e-3
-1.472, 1.855e-3
-1.471, 1.816e-3
-1.470, 1.776e-3
-1.469, 1.748e-3
-1.468, 1.708e-3
-1.467, 1.672e-3
-1.466, 1.635e-3
-1.465, 1.606e-3
-1.464, 1.564e-3
-1.463, 1.534e-3
-1.462, 1.503e-3
-1.461, 1.465e-3
-1.460, 1.434e-3
-1.459, 1.402e-3
-1.458, 1.374e-3
-1.457, 1.337e-3
-1.456, 1.311e-3
-1.455, 1.283e-3
-1.454, 1.249e-3
-1.453, 1.225e-3
-1.452, 1.196e-3
-1.451, 1.168e-3
-1.450, 1.140e-3
-1.449, 1.115e-3
-1.448, 1.093e-3
-1.447, 1.060e-3
-1.446, 1.037e-3
-1.445, 1.017e-3
-1.444, 9.847e-4
-1.443, 9.634e-4
-1.442, 9.417e-4
-1.441, 9.145e-4
-1.440, 8.921e-4
-1.439, 8.720e-4
-1.438, 8.473e-4
-1.437, 8.264e-4
-1.436, 8.049e-4
-1.435, 7.842e-4
-1.434, 7.634e-4
-1.433, 7.431e-4
-1.432, 7.244e-4
-1.431, 7.063e-4
-1.430, 6.854e-4
-1.429, 6.687e-4
-1.428, 6.513e-4
-1.427, 6.326e-4
-1.426, 6.166e-4
-1.425, 6.019e-4
-1.424, 5.845e-4
-1.423, 5.669e-4
-1.422, 5.529e-4
-1.421, 5.381e-4
-1.420, 5.216e-4
-1.419, 5.060e-4
-1.418, 4.918e-4
-1.417, 4.766e-4
-1.416, 4.646e-4
-1.415, 4.504e-4
-1.414, 4.364e-4
-1.413, 4.261e-4
-1.412, 4.133e-4
-1.411, 3.985e-4
-1.410, 3.882e-4
-1.409, 3.802e-4
-1.408, 3.660e-4
-1.407, 3.532e-4
-1.406, 3.467e-4
-1.405, 3.403e-4
-1.404, 3.247e-4
-1.403, 3.151e-4
-1.402, 3.076e-4
-1.401, 2.974e-4
-1.400, 2.885e-4
-1.399, 2.820e-4
-1.398, 2.708e-4
-1.397, 2.626e-4
-1.396, 2.567e-4
-1.395, 2.471e-4
-1.394, 2.369e-4
-1.393, 2.301e-4
-1.392, 2.259e-4
-1.391, 2.155e-4
-1.390, 2.073e-4
-1.389, 2.029e-4
-1.388, 1.946e-4
-1.387, 1.888e-4
-1.386, 1.845e-4
-1.385, 1.765e-4
-1.384, 1.687e-4
-1.383, 1.653e-4
-1.382, 1.611e-4
-1.381, 1.530e-4
-1.380, 1.472e-4
-1.379, 1.443e-4
-1.378, 1.393e-4
-1.377, 1.324e-4
-1.376, 1.306e-4
-1.375, 1.246e-4
-1.374, 1.183e-4
-1.373, 1.170e-4
-1.372, 1.136e-4
-1.371, 1.062e-4
-1.370, 1.024e-4
-1.369, 1.010e-4
-1.368, 9.668e-5
-1.367, 9.127e-5
-1.366, 8.979e-5
-1.365, 8.570e-5
-1.364, 8.202e-5
-1.363, 8.160e-5
-1.362, 7.813e-5
-1.361, 7.205e-5
-1.360, 6.908e-5
-1.359, 6.950e-5
-1.358, 6.470e-5
-1.357, 6.107e-5
-1.356, 6.079e-5
-1.355, 5.705e-5
-1.354, 5.231e-5
-1.353, 5.151e-5
-1.352, 5.088e-5
-1.351, 4.636e-5
-1.350, 4.384e-5
-1.349, 4.445e-5
-1.348, 3.951e-5
-1.347, 3.627e-5
-1.346, 3.702e-5
-1.345, 3.507e-5
-1.344, 3.074e-5
-1.343, 3.072e-5
-1.342, 2.981e-5
-1.341, 2.538e-5
-1.340, 2.381e-5
-1.339, 2.484e-5
-1.338, 2.159e-5
-1.337, 1.828e-5
-1.336, 1.954e-5
-1.335, 1.750e-5
-1.334, 1.328e-5
-1.333, 1.385e-5
-1.332, 1.386e-5
-1.331, 9.272e-6
-1.330, 8.887e-6
-1.329, 1.012e-5
-1.328, 6.608e-6
-1.327, 3.875e-6
-1.326, 5.414e-6
-1.325, 3.540e-6
-1.324, -8.090e-8
-1.323, 9.748e-7
-1.322, 1.537e-6
-1.321, -2.597e-6
-1.320, -3.524e-6
-1.319, -1.403e-6
-1.318, -5.300e-6
-1.317, -7.579e-6
-1.316, -5.557e-6
-1.315, -7.165e-6
-1.314, -1.092e-5
-1.313, -9.286e-6
-1.312, -8.783e-6
-1.311, -1.295e-5
-1.310, -1.355e-5
-1.309, -1.100e-5
-1.308, -1.459e-5
-1.307, -1.693e-5
-1.306, -1.448e-5
-1.305, -1.623e-5
-1.304, -1.957e-5
-1.303, -1.816e-5
-1.302, -1.767e-5
-1.301, -2.122e-5
-1.300, -2.186e-5
-1.299, -1.945e-5
-1.298, -2.257e-5
-1.297, -2.495e-5
-1.296, -2.216e-5
-1.295, -2.372e-5
-1.294, -2.736e-5
-1.293, -2.566e-5
-1.292, -2.466e-5
-1.291, -2.899e-5
-1.290, -2.910e-5
-1.289, -2.667e-5
-1.288, -2.978e-5
-1.287, -3.226e-5
-1.286, -2.948e-5
-1.285, -3.056e-5
-1.284, -3.415e-5
-1.283, -3.244e-5
-1.282, -3.132e-5
-1.281, -3.554e-5
-1.280, -3.594e-5
-1.279, -3.290e-5
-1.278, -3.654e-5
-1.277, -3.836e-5
-1.276, -3.590e-5
-1.275, -3.690e-5
-1.274, -4.061e-5
-1.273, -3.865e-5
-1.272, -3.738e-5
-1.271, -4.173e-5
-1.270, -4.216e-5
-1.269, -3.878e-5
-1.268, -4.230e-5
-1.267, -4.468e-5
-1.266, -4.149e-5
-1.265, -4.264e-5
-1.264, -4.641e-5
-1.263, -4.427e-5
-1.262, -4.319e-5
-1.261, -4.725e-5
-1.260, -4.830e-5
-1.259, -4.480e-5
-1.258, -4.790e-5
-1.257, -5.037e-5
-1.256, -4.701e-5
-1.255, -4.836e-5
-1.254, -5.221e-5
-1.253, -4.989e-5
-1.252, -4.846e-5
-1.251, -5.273e-5
-1.250, -5.292e-5
-1.249, -4.993e-5
-1.248, -5.287e-5
-1.247, -5.565e-5
-1.246, -5.235e-5
-1.245, -5.303e-5
-1.244, -5.729e-5
-1.243, -5.530e-5
-1.242, -5.402e-5
-1.241, -5.841e-5
-1.240, -5.847e-5
-1.239, -5.500e-5
-1.238, -5.832e-5
-1.237, -6.069e-5
-1.236, -5.723e-5
-1.235, -5.806e-5
-1.234, -6.215e-5
-1.233, -6.011e-5
-1.232, -5.821e-5
-1.231, -6.243e-5
-1.230, -6.319e-5
-1.229, -6.041e-5
-1.228, -6.336e-5
-1.227, -6.564e-5
-1.226, -6.228e-5
-1.225, -6.300e-5
-1.224, -6.719e-5
-1.223, -6.495e-5
-1.222, -6.365e-5
-1.221, -6.774e-5
-1.220, -6.830e-5
-1.219, -6.482e-5
-1.218, -6.852e-5
-1.217, -7.146e-5
-1.216, -6.751e-5
-1.215, -6.800e-5
-1.214, -7.271e-5
-1.213, -7.048e-5
-1.212, -6.849e-5
-1.211, -7.310e-5
-1.210, -7.324e-5
-1.209, -6.972e-5
-1.208, -7.267e-5
-1.207, -7.559e-5
-1.206, -7.221e-5
-1.205, -7.291e-5
-1.204, -7.703e-5
-1.203, -7.536e-5
-1.202, -7.327e-5
-1.201, -7.785e-5
-1.200, -7.832e-5
-1.199, -7.458e-5
-1.198, -7.800e-5
-1.197, -8.121e-5
-1.196, -7.780e-5
-1.195, -7.849e-5
-1.194, -8.294e-5
-1.193, -8.099e-5
-1.192, -7.857e-5
-1.191, -8.324e-5
-1.190, -8.403e-5
-1.189, -7.997e-5
-1.188, -8.301e-5
-1.187, -8.596e-5
-1.186, -8.256e-5
-1.185, -8.317e-5
-1.184, -8.770e-5
-1.183, -8.552e-5
-1.182, -8.411e-5
-1.181, -8.837e-5
-1.180, -8.945e-5
-1.179, -8.609e-5
-1.178, -8.890e-5
-1.177, -9.169e-5
-1.176, -8.810e-5
-1.175, -8.841e-5
-1.174, -9.332e-5
-1.173, -9.113e-5
-1.172, -8.916e-5
-1.171, -9.386e-5
-1.170, -9.517e-5
-1.169, -9.172e-5
-1.168, -9.432e-5
-1.167, -9.757e-5
-1.166, -9.410e-5
-1.165, -9.475e-5
-1.164, -9.901e-5
-1.163, -9.726e-5
-1.162, -9.475e-5
-1.161, -9.917e-5
-1.160, -1.002e-4
-1.159, -9.625e-5
-1.158, -9.951e-5
-1.157, -1.024e-4
-1.156, -9.896e-5
-1.155, -9.942e-5
-1.154, -1.039e-4
-1.153, -1.021e-4
-1.152, -1.003e-4
-1.151, -1.048e-4
-1.150, -1.057e-4
-1.149, -1.017e-4
-1.148, -1.056e-4
-1.147, -1.091e-4
-1.146, -1.053e-4
-1.145, -1.055e-4
-1.144, -1.101e-4
-1.143, -1.082e-4
-1.142, -1.064e-4
-1.141, -1.104e-4
-1.140, -1.113e-4
-1.139, -1.074e-4
-1.138, -1.101e-4
-1.137, -1.137e-4
-1.136, -1.098e-4
-1.135, -1.101e-4
-1.134, -1.148e-4
-1.133, -1.128e-4
-1.132, -1.110e-4
-1.131, -1.155e-4
-1.130, -1.164e-4
-1.129, -1.128e-4
-1.128, -1.154e-4
-1.127, -1.190e-4
-1.126, -1.164e-4
-1.125, -1.167e-4
-1.124, -1.211e-4
-1.123, -1.192e-4
-1.122, -1.168e-4
-1.121, -1.216e-4
-1.120, -1.227e-4
-1.119, -1.185e-4
-1.118, -1.211e-4
-1.117, -1.240e-4
-1.116, -1.207e-4
-1.115, -1.210e-4
-1.114, -1.253e-4
-1.113, -1.239e-4
-1.112, -1.215e-4
-1.111, -1.257e-4
-1.110, -1.270e-4
-1.109, -1.229e-4
-1.108, -1.257e-4
-1.107, -1.290e-4
-1.106, -1.257e-4
-1.105, -1.261e-4
-1.104, -1.305e-4
-1.103, -1.295e-4
-1.102, -1.278e-4
-1.101, -1.315e-4
-1.100, -1.325e-4
-1.099, -1.288e-4
-1.098, -1.312e-4
-1.097, -1.346e-4
-1.096, -1.313e-4
-1.095, -1.312e-4
-1.094, -1.350e-4
-1.093, -1.332e-4
-1.092, -1.312e-4
-1.091, -1.353e-4
-1.090, -1.362e-4
-1.089, -1.327e-4
-1.088, -1.353e-4
-1.087, -1.384e-4
-1.086, -1.351e-4
-1.085, -1.353e-4
-1.084, -1.394e-4
-1.083, -1.381e-4
-1.082, -1.357e-4
-1.081, -1.398e-4
-1.080, -1.406e-4
-1.079, -1.373e-4
-1.078, -1.401e-4
-1.077, -1.436e-4
-1.076, -1.409e-4
-1.075, -1.406e-4
-1.074, -1.446e-4
-1.073, -1.429e-4
-1.072, -1.405e-4
-1.071, -1.445e-4
-1.070, -1.458e-4
-1.069, -1.417e-4
-1.068, -1.434e-4
-1.067, -1.464e-4
-1.066, -1.434e-4
-1.065, -1.434e-4
-1.064, -1.473e-4
-1.063, -1.455e-4
-1.062, -1.439e-4
-1.061, -1.472e-4
-1.060, -1.484e-4
-1.059, -1.447e-4
-1.058, -1.469e-4
-1.057, -1.499e-4
-1.056, -1.467e-4
-1.055, -1.466e-4
-1.054, -1.507e-4
-1.053, -1.491e-4
-1.052, -1.471e-4
-1.051, -1.510e-4
-1.050, -1.517e-4
-1.049, -1.491e-4
-1.048, -1.513e-4
-1.047, -1.541e-4
-1.046, -1.507e-4
-1.045, -1.505e-4
-1.044, -1.545e-4
-1.043, -1.531e-4
-1.042, -1.510e-4
-1.041, -1.544e-4
-1.040, -1.543e-4
-1.039, -1.511e-4
-1.038, -1.532e-4
-1.037, -1.556e-4
-1.036, -1.528e-4
-1.035, -1.526e-4
-1.034, -1.561e-4
-1.033, -1.548e-4
-1.032, -1.528e-4
-1.031, -1.559e-4
-1.030, -1.571e-4
-1.029, -1.535e-4
-1.028, -1.559e-4
-1.027, -1.584e-4
-1.026, -1.554e-4
-1.025, -1.553e-4
-1.024, -1.592e-4
-1.023, -1.577e-4
-1.022, -1.560e-4
-1.021, -1.588e-4
-1.020, -1.601e-4
-1.019, -1.570e-4
-1.018, -1.587e-4
-1.017, -1.617e-4
-1.016, -1.593e-4
-1.015, -1.593e-4
-1.014, -1.626e-4
-1.013, -1.611e-4
-1.012, -1.589e-4
-1.011, -1.627e-4
-1.010, -1.635e-4
-1.009, -1.605e-4
-1.008, -1.622e-4
-1.007, -1.647e-4
-1.006, -1.621e-4
-1.005, -1.612e-4
-1.004, -1.643e-4
-1.003, -1.633e-4
-1.002, -1.609e-4
-1.001, -1.646e-4
