July 14, 2024   08:06:35
Cyclic Voltammetry
File: c:/users/guazh/data/20240709_batch67/2024-07-10-exp40\exp40-2024-07-14t07_49_51-arkoh\exp40_cv_sr_700mvs_efin_-1700mv.bin
Data Source:  Experiment
Instrument Model:  CHI760E
Header: CV ran at 700 mVs
Note: 

Init E (V) = -1
High E (V) = -1
Low E (V) = -1.7
Final E (V) = -1
Init P/N = N
Scan Rate (V/s) = 0.7
Segment = 3
Sample Interval (V) = 0.001
Quiet Time (sec) = 2
Sensitivity (A/V) = 0.01
Comp R (ohm) = 1.7

Results:

Channel 1:
Segment 1:

Segment 2:

Segment 3:

Potential/V, Current/A

-1.000, 6.322e-6
-1.001, 3.239e-6
-1.002, 6.322e-6
-1.003, 6.322e-6
-1.004, 6.322e-6
-1.005, 6.322e-6
-1.006, 6.322e-6
-1.007, 6.322e-6
-1.008, 6.322e-6
-1.009, 6.322e-6
-1.010, 6.322e-6
-1.011, 6.322e-6
-1.012, 6.322e-6
-1.013, 6.322e-6
-1.014, 6.322e-6
-1.015, 6.322e-6
-1.016, 6.322e-6
-1.017, 6.322e-6
-1.018, 6.322e-6
-1.019, 6.322e-6
-1.020, 6.322e-6
-1.021, 6.322e-6
-1.022, 6.322e-6
-1.023, 6.322e-6
-1.024, 6.322e-6
-1.025, 6.322e-6
-1.026, 6.322e-6
-1.027, 6.322e-6
-1.028, 6.322e-6
-1.029, 6.322e-6
-1.030, 6.322e-6
-1.031, 6.322e-6
-1.032, 9.405e-6
-1.033, 6.322e-6
-1.034, 6.322e-6
-1.035, 6.322e-6
-1.036, 6.322e-6
-1.037, 6.322e-6
-1.038, 6.322e-6
-1.039, 9.405e-6
-1.040, 9.405e-6
-1.041, 9.405e-6
-1.042, 6.322e-6
-1.043, 9.405e-6
-1.044, 6.322e-6
-1.045, 9.405e-6
-1.046, 9.405e-6
-1.047, 9.405e-6
-1.048, 9.405e-6
-1.049, 9.405e-6
-1.050, 9.405e-6
-1.051, 9.405e-6
-1.052, 9.405e-6
-1.053, 9.405e-6
-1.054, 6.322e-6
-1.055, 9.405e-6
-1.056, 6.322e-6
-1.057, 9.405e-6
-1.058, 9.405e-6
-1.059, 9.405e-6
-1.060, 9.405e-6
-1.061, 9.405e-6
-1.062, 9.405e-6
-1.063, 9.405e-6
-1.064, 9.405e-6
-1.065, 9.405e-6
-1.066, 9.405e-6
-1.067, 9.405e-6
-1.068, 9.405e-6
-1.069, 9.405e-6
-1.070, 9.405e-6
-1.071, 9.405e-6
-1.072, 9.405e-6
-1.073, 9.405e-6
-1.074, 9.405e-6
-1.075, 9.405e-6
-1.076, 9.405e-6
-1.077, 9.405e-6
-1.078, 9.405e-6
-1.079, 9.405e-6
-1.080, 9.405e-6
-1.081, 9.405e-6
-1.082, 9.405e-6
-1.083, 9.405e-6
-1.084, 9.405e-6
-1.085, 9.405e-6
-1.086, 9.405e-6
-1.087, 9.405e-6
-1.088, 9.405e-6
-1.089, 9.405e-6
-1.090, 9.405e-6
-1.091, 9.405e-6
-1.092, 9.405e-6
-1.093, 9.405e-6
-1.094, 9.405e-6
-1.095, 9.405e-6
-1.096, 9.405e-6
-1.097, 9.405e-6
-1.098, 9.405e-6
-1.099, 9.405e-6
-1.100, 9.405e-6
-1.101, 9.405e-6
-1.102, 9.405e-6
-1.103, 9.405e-6
-1.104, 9.405e-6
-1.105, 9.405e-6
-1.106, 9.405e-6
-1.107, 9.405e-6
-1.108, 9.405e-6
-1.109, 9.405e-6
-1.110, 9.405e-6
-1.111, 9.405e-6
-1.112, 9.405e-6
-1.113, 9.405e-6
-1.114, 9.405e-6
-1.115, 9.405e-6
-1.116, 9.405e-6
-1.117, 9.405e-6
-1.118, 9.405e-6
-1.119, 9.405e-6
-1.120, 9.405e-6
-1.121, 1.249e-5
-1.122, 9.405e-6
-1.123, 9.405e-6
-1.124, 9.405e-6
-1.125, 9.405e-6
-1.126, 9.405e-6
-1.127, 9.405e-6
-1.128, 9.405e-6
-1.129, 9.405e-6
-1.130, 9.405e-6
-1.131, 9.405e-6
-1.132, 9.405e-6
-1.133, 1.249e-5
-1.134, 1.249e-5
-1.135, 9.405e-6
-1.136, 9.405e-6
-1.137, 9.405e-6
-1.138, 9.405e-6
-1.139, 9.405e-6
-1.140, 9.405e-6
-1.141, 9.405e-6
-1.142, 9.405e-6
-1.143, 9.405e-6
-1.144, 9.405e-6
-1.145, 1.249e-5
-1.146, 9.405e-6
-1.147, 1.249e-5
-1.148, 9.405e-6
-1.149, 9.405e-6
-1.150, 1.249e-5
-1.151, 9.405e-6
-1.152, 1.249e-5
-1.153, 9.405e-6
-1.154, 1.249e-5
-1.155, 9.405e-6
-1.156, 1.249e-5
-1.157, 1.249e-5
-1.158, 9.405e-6
-1.159, 1.249e-5
-1.160, 9.405e-6
-1.161, 9.405e-6
-1.162, 9.405e-6
-1.163, 9.405e-6
-1.164, 1.249e-5
-1.165, 1.249e-5
-1.166, 1.249e-5
-1.167, 1.249e-5
-1.168, 1.249e-5
-1.169, 1.249e-5
-1.170, 1.249e-5
-1.171, 1.249e-5
-1.172, 1.249e-5
-1.173, 9.405e-6
-1.174, 9.405e-6
-1.175, 1.249e-5
-1.176, 9.405e-6
-1.177, 1.249e-5
-1.178, 1.249e-5
-1.179, 1.249e-5
-1.180, 1.249e-5
-1.181, 1.249e-5
-1.182, 1.249e-5
-1.183, 1.249e-5
-1.184, 1.249e-5
-1.185, 9.405e-6
-1.186, 1.249e-5
-1.187, 1.249e-5
-1.188, 1.249e-5
-1.189, 1.249e-5
-1.190, 1.249e-5
-1.191, 1.249e-5
-1.192, 1.249e-5
-1.193, 1.249e-5
-1.194, 1.249e-5
-1.195, 1.249e-5
-1.196, 1.249e-5
-1.197, 1.249e-5
-1.198, 1.249e-5
-1.199, 1.249e-5
-1.200, 1.249e-5
-1.201, 1.249e-5
-1.202, 1.249e-5
-1.203, 1.249e-5
-1.204, 1.249e-5
-1.205, 1.249e-5
-1.206, 1.249e-5
-1.207, 1.249e-5
-1.208, 1.249e-5
-1.209, 1.249e-5
-1.210, 1.249e-5
-1.211, 1.249e-5
-1.212, 1.249e-5
-1.213, 1.557e-5
-1.214, 1.249e-5
-1.215, 1.249e-5
-1.216, 1.249e-5
-1.217, 1.249e-5
-1.218, 1.249e-5
-1.219, 1.249e-5
-1.220, 1.249e-5
-1.221, 1.249e-5
-1.222, 1.249e-5
-1.223, 1.249e-5
-1.224, 1.249e-5
-1.225, 1.249e-5
-1.226, 1.249e-5
-1.227, 1.249e-5
-1.228, 1.249e-5
-1.229, 1.557e-5
-1.230, 1.249e-5
-1.231, 1.249e-5
-1.232, 1.249e-5
-1.233, 1.249e-5
-1.234, 1.249e-5
-1.235, 1.249e-5
-1.236, 1.249e-5
-1.237, 1.249e-5
-1.238, 1.557e-5
-1.239, 1.249e-5
-1.240, 1.249e-5
-1.241, 1.249e-5
-1.242, 1.249e-5
-1.243, 1.249e-5
-1.244, 1.557e-5
-1.245, 1.249e-5
-1.246, 1.557e-5
-1.247, 1.557e-5
-1.248, 1.557e-5
-1.249, 1.557e-5
-1.250, 1.557e-5
-1.251, 1.557e-5
-1.252, 1.557e-5
-1.253, 1.249e-5
-1.254, 1.557e-5
-1.255, 1.557e-5
-1.256, 1.557e-5
-1.257, 1.557e-5
-1.258, 1.557e-5
-1.259, 1.557e-5
-1.260, 1.557e-5
-1.261, 1.557e-5
-1.262, 1.557e-5
-1.263, 1.557e-5
-1.264, 1.557e-5
-1.265, 1.557e-5
-1.266, 1.557e-5
-1.267, 1.557e-5
-1.268, 1.557e-5
-1.269, 1.557e-5
-1.270, 1.557e-5
-1.271, 1.557e-5
-1.272, 1.557e-5
-1.273, 1.557e-5
-1.274, 1.557e-5
-1.275, 1.557e-5
-1.276, 1.557e-5
-1.277, 1.557e-5
-1.278, 1.557e-5
-1.279, 1.557e-5
-1.280, 1.557e-5
-1.281, 1.557e-5
-1.282, 1.557e-5
-1.283, 1.865e-5
-1.284, 1.865e-5
-1.285, 1.865e-5
-1.286, 1.557e-5
-1.287, 1.865e-5
-1.288, 1.557e-5
-1.289, 1.557e-5
-1.290, 1.865e-5
-1.291, 1.865e-5
-1.292, 1.865e-5
-1.293, 1.865e-5
-1.294, 1.865e-5
-1.295, 1.865e-5
-1.296, 1.865e-5
-1.297, 1.865e-5
-1.298, 1.865e-5
-1.299, 1.865e-5
-1.300, 1.865e-5
-1.301, 1.865e-5
-1.302, 1.865e-5
-1.303, 1.865e-5
-1.304, 1.865e-5
-1.305, 1.865e-5
-1.306, 1.865e-5
-1.307, 1.865e-5
-1.308, 1.865e-5
-1.309, 1.865e-5
-1.310, 1.865e-5
-1.311, 1.865e-5
-1.312, 1.865e-5
-1.313, 1.865e-5
-1.314, 2.174e-5
-1.315, 2.174e-5
-1.316, 1.865e-5
-1.317, 2.174e-5
-1.318, 2.174e-5
-1.319, 2.174e-5
-1.320, 2.174e-5
-1.321, 2.174e-5
-1.322, 2.174e-5
-1.323, 2.174e-5
-1.324, 2.174e-5
-1.325, 2.174e-5
-1.326, 2.174e-5
-1.327, 2.174e-5
-1.328, 2.174e-5
-1.329, 2.174e-5
-1.330, 2.482e-5
-1.331, 2.482e-5
-1.332, 2.482e-5
-1.333, 2.174e-5
-1.334, 2.482e-5
-1.335, 2.482e-5
-1.336, 2.482e-5
-1.337, 2.482e-5
-1.338, 2.482e-5
-1.339, 2.482e-5
-1.340, 2.482e-5
-1.341, 2.482e-5
-1.342, 2.482e-5
-1.343, 2.482e-5
-1.344, 2.482e-5
-1.345, 2.482e-5
-1.346, 2.790e-5
-1.347, 2.482e-5
-1.348, 2.482e-5
-1.349, 2.790e-5
-1.350, 2.482e-5
-1.351, 2.790e-5
-1.352, 2.790e-5
-1.353, 2.790e-5
-1.354, 2.790e-5
-1.355, 2.790e-5
-1.356, 2.790e-5
-1.357, 2.790e-5
-1.358, 2.790e-5
-1.359, 2.790e-5
-1.360, 2.790e-5
-1.361, 2.790e-5
-1.362, 3.099e-5
-1.363, 3.099e-5
-1.364, 3.099e-5
-1.365, 3.099e-5
-1.366, 3.099e-5
-1.367, 3.099e-5
-1.368, 3.099e-5
-1.369, 3.407e-5
-1.370, 3.099e-5
-1.371, 3.099e-5
-1.372, 3.099e-5
-1.373, 3.407e-5
-1.374, 3.407e-5
-1.375, 3.407e-5
-1.376, 3.407e-5
-1.377, 3.407e-5
-1.378, 3.407e-5
-1.379, 3.407e-5
-1.380, 3.715e-5
-1.381, 3.407e-5
-1.382, 3.715e-5
-1.383, 3.715e-5
-1.384, 3.715e-5
-1.385, 3.715e-5
-1.386, 3.715e-5
-1.387, 3.715e-5
-1.388, 3.715e-5
-1.389, 4.024e-5
-1.390, 4.024e-5
-1.391, 4.024e-5
-1.392, 3.715e-5
-1.393, 4.024e-5
-1.394, 4.024e-5
-1.395, 4.024e-5
-1.396, 4.332e-5
-1.397, 4.024e-5
-1.398, 4.024e-5
-1.399, 4.332e-5
-1.400, 4.332e-5
-1.401, 4.332e-5
-1.402, 4.332e-5
-1.403, 4.332e-5
-1.404, 4.640e-5
-1.405, 4.640e-5
-1.406, 4.332e-5
-1.407, 4.640e-5
-1.408, 4.640e-5
-1.409, 4.640e-5
-1.410, 4.640e-5
-1.411, 4.640e-5
-1.412, 4.949e-5
-1.413, 4.949e-5
-1.414, 4.949e-5
-1.415, 4.949e-5
-1.416, 4.949e-5
-1.417, 4.949e-5
-1.418, 5.257e-5
-1.419, 5.257e-5
-1.420, 4.949e-5
-1.421, 5.257e-5
-1.422, 5.257e-5
-1.423, 5.257e-5
-1.424, 5.257e-5
-1.425, 5.565e-5
-1.426, 5.565e-5
-1.427, 5.565e-5
-1.428, 5.565e-5
-1.429, 5.565e-5
-1.430, 5.565e-5
-1.431, 5.565e-5
-1.432, 5.873e-5
-1.433, 5.873e-5
-1.434, 5.873e-5
-1.435, 5.873e-5
-1.436, 6.182e-5
-1.437, 6.182e-5
-1.438, 6.182e-5
-1.439, 6.182e-5
-1.440, 6.182e-5
-1.441, 6.182e-5
-1.442, 6.182e-5
-1.443, 6.490e-5
-1.444, 6.490e-5
-1.445, 6.490e-5
-1.446, 6.490e-5
-1.447, 6.798e-5
-1.448, 6.798e-5
-1.449, 6.798e-5
-1.450, 6.798e-5
-1.451, 6.798e-5
-1.452, 7.107e-5
-1.453, 7.107e-5
-1.454, 7.107e-5
-1.455, 7.107e-5
-1.456, 7.107e-5
-1.457, 7.107e-5
-1.458, 7.415e-5
-1.459, 7.415e-5
-1.460, 7.415e-5
-1.461, 7.415e-5
-1.462, 7.723e-5
-1.463, 7.723e-5
-1.464, 7.723e-5
-1.465, 7.723e-5
-1.466, 8.032e-5
-1.467, 8.032e-5
-1.468, 8.032e-5
-1.469, 8.032e-5
-1.470, 8.340e-5
-1.471, 8.340e-5
-1.472, 8.340e-5
-1.473, 8.340e-5
-1.474, 8.340e-5
-1.475, 8.648e-5
-1.476, 8.648e-5
-1.477, 8.648e-5
-1.478, 8.648e-5
-1.479, 8.648e-5
-1.480, 8.957e-5
-1.481, 8.957e-5
-1.482, 8.957e-5
-1.483, 9.265e-5
-1.484, 9.265e-5
-1.485, 9.265e-5
-1.486, 9.265e-5
-1.487, 9.573e-5
-1.488, 9.573e-5
-1.489, 9.573e-5
-1.490, 9.573e-5
-1.491, 9.882e-5
-1.492, 9.882e-5
-1.493, 9.882e-5
-1.494, 9.882e-5
-1.495, 1.019e-4
-1.496, 1.019e-4
-1.497, 1.019e-4
-1.498, 1.050e-4
-1.499, 1.050e-4
-1.500, 1.050e-4
-1.501, 1.081e-4
-1.502, 1.081e-4
-1.503, 1.081e-4
-1.504, 1.081e-4
-1.505, 1.111e-4
-1.506, 1.111e-4
-1.507, 1.142e-4
-1.508, 1.142e-4
-1.509, 1.142e-4
-1.510, 1.142e-4
-1.511, 1.173e-4
-1.512, 1.173e-4
-1.513, 1.173e-4
-1.514, 1.204e-4
-1.515, 1.204e-4
-1.516, 1.204e-4
-1.517, 1.235e-4
-1.518, 1.235e-4
-1.519, 1.266e-4
-1.520, 1.266e-4
-1.521, 1.266e-4
-1.522, 1.266e-4
-1.523, 1.296e-4
-1.524, 1.296e-4
-1.525, 1.327e-4
-1.526, 1.296e-4
-1.527, 1.327e-4
-1.528, 1.358e-4
-1.529, 1.358e-4
-1.530, 1.389e-4
-1.531, 1.389e-4
-1.532, 1.389e-4
-1.533, 1.420e-4
-1.534, 1.451e-4
-1.535, 1.451e-4
-1.536, 1.451e-4
-1.537, 1.481e-4
-1.538, 1.481e-4
-1.539, 1.512e-4
-1.540, 1.512e-4
-1.541, 1.543e-4
-1.542, 1.543e-4
-1.543, 1.574e-4
-1.544, 1.605e-4
-1.545, 1.605e-4
-1.546, 1.605e-4
-1.547, 1.636e-4
-1.548, 1.636e-4
-1.549, 1.666e-4
-1.550, 1.697e-4
-1.551, 1.697e-4
-1.552, 1.728e-4
-1.553, 1.759e-4
-1.554, 1.759e-4
-1.555, 1.790e-4
-1.556, 1.821e-4
-1.557, 1.821e-4
-1.558, 1.851e-4
-1.559, 1.882e-4
-1.560, 1.913e-4
-1.561, 1.944e-4
-1.562, 1.944e-4
-1.563, 1.975e-4
-1.564, 2.006e-4
-1.565, 2.036e-4
-1.566, 2.067e-4
-1.567, 2.098e-4
-1.568, 2.129e-4
-1.569, 2.129e-4
-1.570, 2.160e-4
-1.571, 2.191e-4
-1.572, 2.221e-4
-1.573, 2.252e-4
-1.574, 2.283e-4
-1.575, 2.314e-4
-1.576, 2.345e-4
-1.577, 2.406e-4
-1.578, 2.437e-4
-1.579, 2.468e-4
-1.580, 2.499e-4
-1.581, 2.530e-4
-1.582, 2.561e-4
-1.583, 2.622e-4
-1.584, 2.653e-4
-1.585, 2.684e-4
-1.586, 2.715e-4
-1.587, 2.776e-4
-1.588, 2.838e-4
-1.589, 2.869e-4
-1.590, 2.931e-4
-1.591, 2.961e-4
-1.592, 3.054e-4
-1.593, 3.085e-4
-1.594, 3.146e-4
-1.595, 3.177e-4
-1.596, 3.239e-4
-1.597, 3.300e-4
-1.598, 3.362e-4
-1.599, 3.424e-4
-1.600, 3.485e-4
-1.601, 3.547e-4
-1.602, 3.609e-4
-1.603, 3.701e-4
-1.604, 3.763e-4
-1.605, 3.825e-4
-1.606, 3.886e-4
-1.607, 3.948e-4
-1.608, 4.040e-4
-1.609, 4.102e-4
-1.610, 4.195e-4
-1.611, 4.287e-4
-1.612, 4.380e-4
-1.613, 4.472e-4
-1.614, 4.565e-4
-1.615, 4.657e-4
-1.616, 4.719e-4
-1.617, 4.842e-4
-1.618, 4.935e-4
-1.619, 5.027e-4
-1.620, 5.120e-4
-1.621, 5.243e-4
-1.622, 5.335e-4
-1.623, 5.459e-4
-1.624, 5.613e-4
-1.625, 5.705e-4
-1.626, 5.829e-4
-1.627, 5.952e-4
-1.628, 6.075e-4
-1.629, 6.229e-4
-1.630, 6.322e-4
-1.631, 6.476e-4
-1.632, 6.599e-4
-1.633, 6.754e-4
-1.634, 6.908e-4
-1.635, 7.093e-4
-1.636, 7.247e-4
-1.637, 7.401e-4
-1.638, 7.555e-4
-1.639, 7.740e-4
-1.640, 7.925e-4
-1.641, 8.079e-4
-1.642, 8.233e-4
-1.643, 8.418e-4
-1.644, 8.634e-4
-1.645, 8.819e-4
-1.646, 9.004e-4
-1.647, 9.220e-4
-1.648, 9.436e-4
-1.649, 9.652e-4
-1.650, 9.868e-4
-1.651, 1.011e-3
-1.652, 1.030e-3
-1.653, 1.055e-3
-1.654, 1.076e-3
-1.655, 1.098e-3
-1.656, 1.122e-3
-1.657, 1.150e-3
-1.658, 1.175e-3
-1.659, 1.203e-3
-1.660, 1.227e-3
-1.661, 1.255e-3
-1.662, 1.283e-3
-1.663, 1.310e-3
-1.664, 1.338e-3
-1.665, 1.366e-3
-1.666, 1.394e-3
-1.667, 1.425e-3
-1.668, 1.455e-3
-1.669, 1.486e-3
-1.670, 1.520e-3
-1.671, 1.554e-3
-1.672, 1.588e-3
-1.673, 1.622e-3
-1.674, 1.659e-3
-1.675, 1.693e-3
-1.676, 1.727e-3
-1.677, 1.761e-3
-1.678, 1.798e-3
-1.679, 1.835e-3
-1.680, 1.872e-3
-1.681, 1.912e-3
-1.682, 1.952e-3
-1.683, 1.992e-3
-1.684, 2.032e-3
-1.685, 2.075e-3
-1.686, 2.115e-3
-1.687, 2.155e-3
-1.688, 2.198e-3
-1.689, 2.238e-3
-1.690, 2.282e-3
-1.691, 2.328e-3
-1.692, 2.371e-3
-1.693, 2.420e-3
-1.694, 2.470e-3
-1.695, 2.516e-3
-1.696, 2.565e-3
-1.697, 2.612e-3
-1.698, 2.661e-3
-1.699, 2.710e-3
-1.700, 2.729e-3
-1.699, 2.710e-3
-1.698, 2.686e-3
-1.697, 2.664e-3
-1.696, 2.639e-3
-1.695, 2.615e-3
-1.694, 2.590e-3
-1.693, 2.562e-3
-1.692, 2.534e-3
-1.691, 2.504e-3
-1.690, 2.476e-3
-1.689, 2.445e-3
-1.688, 2.411e-3
-1.687, 2.377e-3
-1.686, 2.346e-3
-1.685, 2.319e-3
-1.684, 2.288e-3
-1.683, 2.260e-3
-1.682, 2.229e-3
-1.681, 2.198e-3
-1.680, 2.168e-3
-1.679, 2.137e-3
-1.678, 2.106e-3
-1.677, 2.072e-3
-1.676, 2.041e-3
-1.675, 2.010e-3
-1.674, 1.983e-3
-1.673, 1.952e-3
-1.672, 1.921e-3
-1.671, 1.893e-3
-1.670, 1.865e-3
-1.669, 1.838e-3
-1.668, 1.807e-3
-1.667, 1.779e-3
-1.666, 1.748e-3
-1.665, 1.717e-3
-1.664, 1.690e-3
-1.663, 1.662e-3
-1.662, 1.631e-3
-1.661, 1.606e-3
-1.660, 1.579e-3
-1.659, 1.554e-3
-1.658, 1.529e-3
-1.657, 1.502e-3
-1.656, 1.477e-3
-1.655, 1.449e-3
-1.654, 1.425e-3
-1.653, 1.397e-3
-1.652, 1.372e-3
-1.651, 1.344e-3
-1.650, 1.323e-3
-1.649, 1.298e-3
-1.648, 1.277e-3
-1.647, 1.255e-3
-1.646, 1.230e-3
-1.645, 1.209e-3
-1.644, 1.187e-3
-1.643, 1.166e-3
-1.642, 1.141e-3
-1.641, 1.119e-3
-1.640, 1.098e-3
-1.639, 1.076e-3
-1.638, 1.055e-3
-1.637, 1.036e-3
-1.636, 1.018e-3
-1.635, 9.960e-4
-1.634, 9.775e-4
-1.633, 9.590e-4
-1.632, 9.405e-4
-1.631, 9.189e-4
-1.630, 9.004e-4
-1.629, 8.819e-4
-1.628, 8.634e-4
-1.627, 8.480e-4
-1.626, 8.295e-4
-1.625, 8.141e-4
-1.624, 7.956e-4
-1.623, 7.802e-4
-1.622, 7.648e-4
-1.621, 7.494e-4
-1.620, 7.339e-4
-1.619, 7.185e-4
-1.618, 7.000e-4
-1.617, 6.846e-4
-1.616, 6.723e-4
-1.615, 6.569e-4
-1.614, 6.445e-4
-1.613, 6.322e-4
-1.612, 6.168e-4
-1.611, 6.044e-4
-1.610, 5.921e-4
-1.609, 5.798e-4
-1.608, 5.644e-4
-1.607, 5.520e-4
-1.606, 5.397e-4
-1.605, 5.274e-4
-1.604, 5.181e-4
-1.603, 5.058e-4
-1.602, 4.935e-4
-1.601, 4.842e-4
-1.600, 4.719e-4
-1.599, 4.626e-4
-1.598, 4.534e-4
-1.597, 4.441e-4
-1.596, 4.318e-4
-1.595, 4.225e-4
-1.594, 4.102e-4
-1.593, 4.040e-4
-1.592, 3.948e-4
-1.591, 3.855e-4
-1.590, 3.763e-4
-1.589, 3.670e-4
-1.588, 3.609e-4
-1.587, 3.516e-4
-1.586, 3.424e-4
-1.585, 3.362e-4
-1.584, 3.270e-4
-1.583, 3.208e-4
-1.582, 3.115e-4
-1.581, 3.054e-4
-1.580, 2.961e-4
-1.579, 2.900e-4
-1.578, 2.838e-4
-1.577, 2.776e-4
-1.576, 2.715e-4
-1.575, 2.653e-4
-1.574, 2.591e-4
-1.573, 2.530e-4
-1.572, 2.468e-4
-1.571, 2.406e-4
-1.570, 2.345e-4
-1.569, 2.283e-4
-1.568, 2.252e-4
-1.567, 2.191e-4
-1.566, 2.160e-4
-1.565, 2.098e-4
-1.564, 2.036e-4
-1.563, 2.006e-4
-1.562, 1.944e-4
-1.561, 1.913e-4
-1.560, 1.851e-4
-1.559, 1.790e-4
-1.558, 1.759e-4
-1.557, 1.728e-4
-1.556, 1.666e-4
-1.555, 1.636e-4
-1.554, 1.605e-4
-1.553, 1.574e-4
-1.552, 1.543e-4
-1.551, 1.512e-4
-1.550, 1.451e-4
-1.549, 1.420e-4
-1.548, 1.389e-4
-1.547, 1.358e-4
-1.546, 1.327e-4
-1.545, 1.296e-4
-1.544, 1.266e-4
-1.543, 1.235e-4
-1.542, 1.204e-4
-1.541, 1.173e-4
-1.540, 1.142e-4
-1.539, 1.111e-4
-1.538, 1.081e-4
-1.537, 1.081e-4
-1.536, 1.050e-4
-1.535, 1.019e-4
-1.534, 9.882e-5
-1.533, 9.573e-5
-1.532, 9.573e-5
-1.531, 9.265e-5
-1.530, 8.957e-5
-1.529, 8.957e-5
-1.528, 8.648e-5
-1.527, 8.340e-5
-1.526, 8.032e-5
-1.525, 8.032e-5
-1.524, 7.723e-5
-1.523, 7.723e-5
-1.522, 7.415e-5
-1.521, 7.107e-5
-1.520, 7.107e-5
-1.519, 7.107e-5
-1.518, 6.798e-5
-1.517, 6.490e-5
-1.516, 6.490e-5
-1.515, 6.182e-5
-1.514, 6.182e-5
-1.513, 5.873e-5
-1.512, 5.873e-5
-1.511, 5.873e-5
-1.510, 5.565e-5
-1.509, 5.565e-5
-1.508, 5.565e-5
-1.507, 5.257e-5
-1.506, 5.257e-5
-1.505, 4.949e-5
-1.504, 4.949e-5
-1.503, 4.640e-5
-1.502, 4.640e-5
-1.501, 4.640e-5
-1.500, 4.332e-5
-1.499, 4.332e-5
-1.498, 4.332e-5
-1.497, 4.024e-5
-1.496, 4.024e-5
-1.495, 4.024e-5
-1.494, 3.715e-5
-1.493, 3.715e-5
-1.492, 3.715e-5
-1.491, 3.715e-5
-1.490, 3.407e-5
-1.489, 3.407e-5
-1.488, 3.407e-5
-1.487, 3.407e-5
-1.486, 3.099e-5
-1.485, 3.099e-5
-1.484, 3.099e-5
-1.483, 2.790e-5
-1.482, 3.099e-5
-1.481, 2.790e-5
-1.480, 2.790e-5
-1.479, 2.790e-5
-1.478, 2.482e-5
-1.477, 2.482e-5
-1.476, 2.482e-5
-1.475, 2.482e-5
-1.474, 2.482e-5
-1.473, 2.482e-5
-1.472, 2.174e-5
-1.471, 2.174e-5
-1.470, 2.174e-5
-1.469, 2.174e-5
-1.468, 1.865e-5
-1.467, 1.865e-5
-1.466, 1.865e-5
-1.465, 1.865e-5
-1.464, 1.865e-5
-1.463, 1.865e-5
-1.462, 1.865e-5
-1.461, 1.865e-5
-1.460, 1.557e-5
-1.459, 1.557e-5
-1.458, 1.557e-5
-1.457, 1.557e-5
-1.456, 1.557e-5
-1.455, 1.557e-5
-1.454, 1.249e-5
-1.453, 1.249e-5
-1.452, 1.249e-5
-1.451, 1.249e-5
-1.450, 1.249e-5
-1.449, 1.249e-5
-1.448, 1.249e-5
-1.447, 1.249e-5
-1.446, 1.249e-5
-1.445, 9.405e-6
-1.444, 9.405e-6
-1.443, 9.405e-6
-1.442, 9.405e-6
-1.441, 9.405e-6
-1.440, 9.405e-6
-1.439, 9.405e-6
-1.438, 9.405e-6
-1.437, 9.405e-6
-1.436, 6.322e-6
-1.435, 6.322e-6
-1.434, 6.322e-6
-1.433, 6.322e-6
-1.432, 6.322e-6
-1.431, 6.322e-6
-1.430, 6.322e-6
-1.429, 6.322e-6
-1.428, 6.322e-6
-1.427, 6.322e-6
-1.426, 6.322e-6
-1.425, 6.322e-6
-1.424, 3.239e-6
-1.423, 3.239e-6
-1.422, 3.239e-6
-1.421, 3.239e-6
-1.420, 3.239e-6
-1.419, 3.239e-6
-1.418, 3.239e-6
-1.417, 3.239e-6
-1.416, 3.239e-6
-1.415, 3.239e-6
-1.414, 3.239e-6
-1.413, 3.239e-6
-1.412, 1.559e-7
-1.411, 1.559e-7
-1.410, 3.239e-6
-1.409, 1.559e-7
-1.408, 1.559e-7
-1.407, 1.559e-7
-1.406, 1.559e-7
-1.405, 1.559e-7
-1.404, 1.559e-7
-1.403, 1.559e-7
-1.402, 1.559e-7
-1.401, 1.559e-7
-1.400, 1.559e-7
-1.399, 1.559e-7
-1.398, -2.927e-6
-1.397, -2.927e-6
-1.396, 1.559e-7
-1.395, -2.927e-6
-1.394, 1.559e-7
-1.393, -2.927e-6
-1.392, 1.559e-7
-1.391, -2.927e-6
-1.390, -2.927e-6
-1.389, -2.927e-6
-1.388, -2.927e-6
-1.387, -2.927e-6
-1.386, -2.927e-6
-1.385, -2.927e-6
-1.384, -2.927e-6
-1.383, -2.927e-6
-1.382, -2.927e-6
-1.381, -2.927e-6
-1.380, -2.927e-6
-1.379, -2.927e-6
-1.378, -2.927e-6
-1.377, -6.010e-6
-1.376, -6.010e-6
-1.375, -6.010e-6
-1.374, -6.010e-6
-1.373, -6.010e-6
-1.372, -6.010e-6
-1.371, -6.010e-6
-1.370, -6.010e-6
-1.369, -6.010e-6
-1.368, -6.010e-6
-1.367, -6.010e-6
-1.366, -6.010e-6
-1.365, -6.010e-6
-1.364, -6.010e-6
-1.363, -6.010e-6
-1.362, -6.010e-6
-1.361, -6.010e-6
-1.360, -6.010e-6
-1.359, -6.010e-6
-1.358, -6.010e-6
-1.357, -6.010e-6
-1.356, -6.010e-6
-1.355, -6.010e-6
-1.354, -9.093e-6
-1.353, -6.010e-6
-1.352, -9.093e-6
-1.351, -6.010e-6
-1.350, -9.093e-6
-1.349, -9.093e-6
-1.348, -9.093e-6
-1.347, -9.093e-6
-1.346, -6.010e-6
-1.345, -9.093e-6
-1.344, -9.093e-6
-1.343, -9.093e-6
-1.342, -9.093e-6
-1.341, -9.093e-6
-1.340, -9.093e-6
-1.339, -9.093e-6
-1.338, -9.093e-6
-1.337, -9.093e-6
-1.336, -9.093e-6
-1.335, -9.093e-6
-1.334, -9.093e-6
-1.333, -9.093e-6
-1.332, -9.093e-6
-1.331, -9.093e-6
-1.330, -9.093e-6
-1.329, -9.093e-6
-1.328, -9.093e-6
-1.327, -1.218e-5
-1.326, -9.093e-6
-1.325, -9.093e-6
-1.324, -9.093e-6
-1.323, -9.093e-6
-1.322, -9.093e-6
-1.321, -9.093e-6
-1.320, -9.093e-6
-1.319, -9.093e-6
-1.318, -1.218e-5
-1.317, -1.218e-5
-1.316, -1.218e-5
-1.315, -1.218e-5
-1.314, -9.093e-6
-1.313, -1.218e-5
-1.312, -1.218e-5
-1.311, -1.218e-5
-1.310, -9.093e-6
-1.309, -1.218e-5
-1.308, -9.093e-6
-1.307, -1.218e-5
-1.306, -1.218e-5
-1.305, -1.218e-5
-1.304, -1.218e-5
-1.303, -9.093e-6
-1.302, -1.218e-5
-1.301, -1.218e-5
-1.300, -1.218e-5
-1.299, -1.218e-5
-1.298, -1.218e-5
-1.297, -1.218e-5
-1.296, -1.218e-5
-1.295, -1.218e-5
-1.294, -1.218e-5
-1.293, -1.218e-5
-1.292, -1.218e-5
-1.291, -1.218e-5
-1.290, -1.218e-5
-1.289, -1.218e-5
-1.288, -1.218e-5
-1.287, -1.218e-5
-1.286, -1.218e-5
-1.285, -1.218e-5
-1.284, -1.218e-5
-1.283, -1.218e-5
-1.282, -1.218e-5
-1.281, -1.218e-5
-1.280, -1.218e-5
-1.279, -1.218e-5
-1.278, -1.218e-5
-1.277, -1.218e-5
-1.276, -1.218e-5
-1.275, -1.218e-5
-1.274, -1.218e-5
-1.273, -1.218e-5
-1.272, -1.218e-5
-1.271, -1.218e-5
-1.270, -1.218e-5
-1.269, -1.218e-5
-1.268, -1.218e-5
-1.267, -1.218e-5
-1.266, -1.218e-5
-1.265, -1.218e-5
-1.264, -1.218e-5
-1.263, -1.218e-5
-1.262, -1.218e-5
-1.261, -1.218e-5
-1.260, -1.526e-5
-1.259, -1.526e-5
-1.258, -1.218e-5
-1.257, -1.218e-5
-1.256, -1.218e-5
-1.255, -1.218e-5
-1.254, -1.218e-5
-1.253, -1.218e-5
-1.252, -1.218e-5
-1.251, -1.218e-5
-1.250, -1.218e-5
-1.249, -1.218e-5
-1.248, -1.526e-5
-1.247, -1.526e-5
-1.246, -1.526e-5
-1.245, -1.218e-5
-1.244, -1.218e-5
-1.243, -1.526e-5
-1.242, -1.218e-5
-1.241, -1.218e-5
-1.240, -1.218e-5
-1.239, -1.218e-5
-1.238, -1.218e-5
-1.237, -1.218e-5
-1.236, -1.526e-5
-1.235, -1.218e-5
-1.234, -1.526e-5
-1.233, -1.218e-5
-1.232, -1.526e-5
-1.231, -1.526e-5
-1.230, -1.526e-5
-1.229, -1.218e-5
-1.228, -1.218e-5
-1.227, -1.526e-5
-1.226, -1.218e-5
-1.225, -1.526e-5
-1.224, -1.218e-5
-1.223, -1.526e-5
-1.222, -1.218e-5
-1.221, -1.526e-5
-1.220, -1.526e-5
-1.219, -1.526e-5
-1.218, -1.218e-5
-1.217, -1.218e-5
-1.216, -1.218e-5
-1.215, -1.526e-5
-1.214, -1.526e-5
-1.213, -1.218e-5
-1.212, -1.218e-5
-1.211, -1.526e-5
-1.210, -1.526e-5
-1.209, -1.526e-5
-1.208, -1.526e-5
-1.207, -1.526e-5
-1.206, -1.218e-5
-1.205, -1.218e-5
-1.204, -1.218e-5
-1.203, -1.526e-5
-1.202, -1.526e-5
-1.201, -1.526e-5
-1.200, -1.526e-5
-1.199, -1.218e-5
-1.198, -1.526e-5
-1.197, -1.526e-5
-1.196, -1.526e-5
-1.195, -1.218e-5
-1.194, -1.526e-5
-1.193, -1.218e-5
-1.192, -1.526e-5
-1.191, -1.218e-5
-1.190, -1.526e-5
-1.189, -1.526e-5
-1.188, -1.218e-5
-1.187, -1.526e-5
-1.186, -1.218e-5
-1.185, -1.526e-5
-1.184, -1.526e-5
-1.183, -1.526e-5
-1.182, -1.526e-5
-1.181, -1.218e-5
-1.180, -1.526e-5
-1.179, -1.526e-5
-1.178, -1.526e-5
-1.177, -1.526e-5
-1.176, -1.526e-5
-1.175, -1.526e-5
-1.174, -1.526e-5
-1.173, -1.526e-5
-1.172, -1.526e-5
-1.171, -1.526e-5
-1.170, -1.218e-5
-1.169, -1.526e-5
-1.168, -1.526e-5
-1.167, -1.526e-5
-1.166, -1.526e-5
-1.165, -1.526e-5
-1.164, -1.526e-5
-1.163, -1.526e-5
-1.162, -1.526e-5
-1.161, -1.526e-5
-1.160, -1.526e-5
-1.159, -1.218e-5
-1.158, -1.218e-5
-1.157, -1.526e-5
-1.156, -1.526e-5
-1.155, -1.526e-5
-1.154, -1.218e-5
-1.153, -1.526e-5
-1.152, -1.218e-5
-1.151, -1.526e-5
-1.150, -1.526e-5
-1.149, -1.526e-5
-1.148, -1.218e-5
-1.147, -1.218e-5
-1.146, -1.218e-5
-1.145, -1.526e-5
-1.144, -1.526e-5
-1.143, -1.526e-5
-1.142, -1.526e-5
-1.141, -1.218e-5
-1.140, -1.526e-5
-1.139, -1.526e-5
-1.138, -1.526e-5
-1.137, -1.526e-5
-1.136, -1.218e-5
-1.135, -1.526e-5
-1.134, -1.218e-5
-1.133, -1.526e-5
-1.132, -1.526e-5
-1.131, -1.526e-5
-1.130, -1.526e-5
-1.129, -1.526e-5
-1.128, -1.526e-5
-1.127, -1.526e-5
-1.126, -1.526e-5
-1.125, -1.218e-5
-1.124, -1.526e-5
-1.123, -1.526e-5
-1.122, -1.526e-5
-1.121, -1.526e-5
-1.120, -1.526e-5
-1.119, -1.526e-5
-1.118, -1.526e-5
-1.117, -1.526e-5
-1.116, -1.218e-5
-1.115, -1.526e-5
-1.114, -1.526e-5
-1.113, -1.526e-5
-1.112, -1.526e-5
-1.111, -1.526e-5
-1.110, -1.526e-5
-1.109, -1.218e-5
-1.108, -1.526e-5
-1.107, -1.526e-5
-1.106, -1.526e-5
-1.105, -1.526e-5
-1.104, -1.526e-5
-1.103, -1.526e-5
-1.102, -1.526e-5
-1.101, -1.526e-5
-1.100, -1.218e-5
-1.099, -1.526e-5
-1.098, -1.526e-5
-1.097, -1.526e-5
-1.096, -1.526e-5
-1.095, -1.218e-5
-1.094, -1.526e-5
-1.093, -1.526e-5
-1.092, -1.526e-5
-1.091, -1.526e-5
-1.090, -1.526e-5
-1.089, -1.526e-5
-1.088, -1.526e-5
-1.087, -1.526e-5
-1.086, -1.526e-5
-1.085, -1.526e-5
-1.084, -1.526e-5
-1.083, -1.526e-5
-1.082, -1.526e-5
-1.081, -1.526e-5
-1.080, -1.526e-5
-1.079, -1.526e-5
-1.078, -1.526e-5
-1.077, -1.526e-5
-1.076, -1.218e-5
-1.075, -1.526e-5
-1.074, -1.526e-5
-1.073, -1.526e-5
-1.072, -1.526e-5
-1.071, -1.526e-5
-1.070, -1.526e-5
-1.069, -1.526e-5
-1.068, -1.526e-5
-1.067, -1.526e-5
-1.066, -1.526e-5
-1.065, -1.526e-5
-1.064, -1.526e-5
-1.063, -1.526e-5
-1.062, -1.526e-5
-1.061, -1.526e-5
-1.060, -1.526e-5
-1.059, -1.526e-5
-1.058, -1.526e-5
-1.057, -1.526e-5
-1.056, -1.526e-5
-1.055, -1.526e-5
-1.054, -1.526e-5
-1.053, -1.526e-5
-1.052, -1.526e-5
-1.051, -1.526e-5
-1.050, -1.526e-5
-1.049, -1.526e-5
-1.048, -1.526e-5
-1.047, -1.526e-5
-1.046, -1.526e-5
-1.045, -1.526e-5
-1.044, -1.526e-5
-1.043, -1.526e-5
-1.042, -1.526e-5
-1.041, -1.526e-5
-1.040, -1.526e-5
-1.039, -1.526e-5
-1.038, -1.526e-5
-1.037, -1.526e-5
-1.036, -1.526e-5
-1.035, -1.526e-5
-1.034, -1.526e-5
-1.033, -1.834e-5
-1.032, -1.526e-5
-1.031, -1.526e-5
-1.030, -1.526e-5
-1.029, -1.526e-5
-1.028, -1.526e-5
-1.027, -1.526e-5
-1.026, -1.834e-5
-1.025, -1.526e-5
-1.024, -1.834e-5
-1.023, -1.526e-5
-1.022, -1.834e-5
-1.021, -1.526e-5
-1.020, -1.834e-5
-1.019, -1.526e-5
-1.018, -1.526e-5
-1.017, -1.834e-5
-1.016, -1.526e-5
-1.015, -1.834e-5
-1.014, -1.526e-5
-1.013, -1.834e-5
-1.012, -1.834e-5
-1.011, -1.834e-5
-1.010, -1.834e-5
-1.009, -1.526e-5
-1.008, -1.526e-5
-1.007, -1.526e-5
-1.006, -1.834e-5
-1.005, -1.834e-5
-1.004, -1.834e-5
-1.003, -1.834e-5
-1.002, -1.834e-5
-1.001, -1.834e-5
