Potential V vs RHE, Current mA cm-2
0.05339999999999995,-0.06718463963059058
0.05239999999999995,-0.069151088337403
0.051399999999999946,-0.07018382758630445
0.050399999999999945,-0.07100436014022618
0.049399999999999944,-0.07175415712915466
0.04839999999999994,-0.07250395411808314
0.04739999999999994,-0.07318301554201835
0.04639999999999994,-0.07384792985295491
0.04539999999999994,-0.07451284416389148
0.04439999999999994,-0.07514946424883075
0.04339999999999994,-0.07580023144676866
0.04239999999999994,-0.07640855730571063
0.04139999999999994,-0.07700273605165395
0.040399999999999936,-0.07762520902359457
0.039399999999999935,-0.07826182910853383
0.038399999999999934,-0.0788984491934731
0.03739999999999993,-0.0794643337134191
0.03639999999999993,-0.08003021823336513
0.03539999999999993,-0.0805819556403125
0.03439999999999993,-0.0812044286122531
0.03339999999999993,-0.08179860735819641
0.03239999999999993,-0.08237863899114109
0.03139999999999993,-0.08287378794609385
0.030399999999999927,-0.0833972311270439
0.029399999999999926,-0.08389238008199668
0.028399999999999925,-0.0844582646019427
0.027399999999999924,-0.08503829623488735
0.026399999999999924,-0.08557588652883606
0.025399999999999923,-0.08609932970978613
0.024399999999999922,-0.0865944786647389
0.02339999999999992,-0.0871037747326903
0.02239999999999992,-0.08752818812264983
0.02139999999999992,-0.08800918996460394
0.020399999999999918,-0.08846189758056075
0.019399999999999917,-0.08897119364851215
0.018399999999999916,-0.08945219549046628
0.017399999999999916,-0.08993319733242039
0.016399999999999915,-0.09038590494837719
0.015399999999999914,-0.090838612564334
0.014399999999999913,-0.09129132018029082
0.013399999999999912,-0.09178646913524359
0.012399999999999911,-0.0922391767512004
0.01139999999999991,-0.09266359014115991
0.01039999999999991,-0.09314459198311402
0.009399999999999908,-0.09359729959907082
0.008399999999999908,-0.09395097742403709
0.007399999999999907,-0.09438953792699524
0.006399999999999906,-0.09479980420395612
0.005399999999999905,-0.09519592336791832
0.004399999999999904,-0.09557789541888188
0.003399999999999903,-0.09597401458284409
0.002399999999999902,-0.09639842797280361
0.0013999999999999013,-0.09680869424976446
0.00039999999999990044,-0.09714822496173206
-0.0006000000000001005,-0.09753019701269564
-0.0016000000000001013,-0.09786972772466324
-0.0026000000000001022,-0.09823755266262815
-0.003600000000000103,-0.09857708337459577
-0.004600000000000104,-0.09894490831256067
-0.005600000000000105,-0.09925614479853098
-0.006600000000000106,-0.0995673812845013
-0.007600000000000107,-0.09982202931847699
-0.008600000000000108,-0.10016156003044459
-0.009600000000000108,-0.10045864940341626
-0.01060000000000011,-0.10075573877638791
-0.01160000000000011,-0.10108112237535687
-0.012600000000000111,-0.10137821174832852
-0.013600000000000112,-0.10167530112130019
-0.014600000000000113,-0.10195824338127318
-0.015600000000000114,-0.1021845971892516
-0.016600000000000115,-0.10243924522322731
-0.017600000000000116,-0.10265145191820706
-0.018600000000000116,-0.10289195283918412
-0.019600000000000117,-0.10313245376016117
-0.020600000000000118,-0.10330221911614497
-0.02160000000000012,-0.10350027869812609
-0.02260000000000012,-0.10372663250610449
-0.02360000000000012,-0.10389639786208829
-0.024600000000000122,-0.10408031033107075
-0.025600000000000123,-0.1043208112520478
-0.026600000000000124,-0.10453301794702756
-0.027600000000000124,-0.10471693041601002
-0.028600000000000125,-0.10483010731999923
-0.029600000000000126,-0.10505646112797762
-0.030600000000000127,-0.10524037359696008
-0.03160000000000013,-0.10543843317894118
-0.03260000000000013,-0.10557990430892769
-0.03360000000000013,-0.10570722832591554
-0.03460000000000002,-0.105891140794898
-0.03560000000000002,-0.10607505326388045
-0.03660000000000002,-0.10623067150686559
-0.03760000000000002,-0.10634384841085481
-0.03860000000000002,-0.10644287820184536
-0.039600000000000024,-0.10655605510583457
-0.040600000000000025,-0.10668337912282241
-0.041600000000000026,-0.10681070313981027
-0.04260000000000003,-0.10686729159180487
-0.04360000000000003,-0.10699461560879273
-0.04460000000000003,-0.10712193962578058
-0.04560000000000003,-0.10722096941677112
-0.04660000000000003,-0.10726341075576709
-0.04760000000000003,-0.10737658765975629
-0.04860000000000003,-0.10746147033774818
-0.04960000000000003,-0.10753220590274143
-0.050600000000000034,-0.10761708858073335
-0.051600000000000035,-0.10770197125872524
-0.052600000000000036,-0.10773026548472255
-0.053600000000000037,-0.10777270682371849
-0.05460000000000004,-0.1078575895017104
-0.05560000000000004,-0.1078575895017104
-0.05660000000000004,-0.10790003084070635
-0.05760000000000004,-0.10795661929270095
-0.05860000000000004,-0.10801320774469556
-0.05960000000000004,-0.10802735485769419
-0.06060000000000004,-0.1080556490836915
-0.061600000000000044,-0.10806979619669015
-0.06260000000000004,-0.10802735485769419
-0.06360000000000005,-0.10802735485769419
-0.06460000000000005,-0.10802735485769419
-0.06560000000000005,-0.10802735485769419
-0.06660000000000005,-0.1079990606316969
-0.06760000000000005,-0.10802735485769419
-0.06860000000000005,-0.10802735485769419
-0.06960000000000005,-0.10802735485769419
-0.07060000000000005,-0.1079990606316969
-0.07160000000000005,-0.1079990606316969
-0.07260000000000005,-0.10797076640569962
-0.07360000000000005,-0.10792832506670365
-0.07460000000000006,-0.10790003084070635
-0.07560000000000006,-0.10791417795370499
-0.07660000000000006,-0.10794247217970229
-0.07760000000000006,-0.10791417795370499
-0.07860000000000006,-0.10784344238871174
-0.07960000000000006,-0.10777270682371849
-0.08060000000000006,-0.1076878241457266
-0.08160000000000006,-0.10760294146773468
-0.08260000000000006,-0.10753220590274143
-0.08360000000000006,-0.10747561745074685
-0.08460000000000006,-0.10741902899875223
-0.08560000000000006,-0.10739073477275493
-0.08660000000000007,-0.10729170498176437
-0.08760000000000007,-0.10720682230377249
-0.08860000000000007,-0.10722096941677112
-0.08960000000000007,-0.10712193962578058
-0.09060000000000007,-0.10702290983479003
-0.09160000000000007,-0.10699461560879273
-0.09260000000000007,-0.10695217426979677
-0.09360000000000007,-0.10688143870480352
-0.09460000000000007,-0.10675411468781566
-0.09560000000000007,-0.10666923200982377
-0.09660000000000007,-0.10661264355782916
-0.09760000000000008,-0.10652776087983726
-0.09860000000000008,-0.1064287310888467
-0.09960000000000008,-0.10630140707185885
-0.10060000000000008,-0.10624481861986426
-0.10160000000000008,-0.1061457888288737
-0.10260000000000008,-0.10607505326388045
-0.10360000000000008,-0.1060043176988872
-0.10460000000000008,-0.105891140794898
-0.10560000000000008,-0.10582040522990475
-0.10660000000000008,-0.10569308121291689
-0.10760000000000008,-0.10557990430892769
-0.10860000000000009,-0.10543843317894118
-0.10960000000000009,-0.10532525627495198
-0.11060000000000009,-0.10526866782295738
-0.11160000000000009,-0.10515549091896817
-0.11260000000000009,-0.10502816690198033
-0.11360000000000009,-0.10491498999799112
-0.11460000000000009,-0.10481596020700056
-0.11560000000000009,-0.1047452246420073
-0.11660000000000009,-0.10463204773801811
-0.1176000000000001,-0.10453301794702756
-0.1186000000000001,-0.104433988156037
-0.1196000000000001,-0.1043208112520478
-0.1206000000000001,-0.10423592857405589
-0.1216000000000001,-0.104151045896064
-0.1226000000000001,-0.1040378689920748
-0.1236000000000001,-0.1039529863140829
-0.1246000000000001,-0.1038115151840964
-0.1256000000000001,-0.10372663250610449
-0.1266000000000001,-0.10364174982811258
-0.1276000000000001,-0.10351442581112473
-0.1286000000000001,-0.10345783735913014
-0.1296000000000001,-0.10330221911614497
-0.1306000000000001,-0.10316074798615847
-0.1316000000000001,-0.10307586530816658
-0.1326000000000001,-0.10294854129117871
-0.1336000000000001,-0.10284951150018817
-0.1346000000000001,-0.10275048170919761
-0.1356000000000001,-0.10265145191820706
-0.1366000000000001,-0.10256656924021516
-0.1376000000000001,-0.10241095099723
-0.1386000000000001,-0.10231192120623946
-0.1396000000000001,-0.1022694798672435
-0.1406000000000001,-0.10217045007625294
-0.14160000000000011,-0.10205727317226375
-0.14260000000000012,-0.1019016549292786
-0.14360000000000012,-0.10171774246029613
-0.14460000000000012,-0.10167530112130019
-0.14560000000000012,-0.10157627133030964
-0.14660000000000012,-0.10142065308732448
-0.14760000000000012,-0.10130747618333527
-0.14860000000000012,-0.10123674061834202
-0.14960000000000012,-0.10112356371435283
-0.15060000000000012,-0.10103868103636092
-0.15160000000000012,-0.10096794547136766
-0.15260000000000012,-0.10082647434138116
-0.15360000000000013,-0.10072744455039061
-0.15460000000000013,-0.1006142676464014
-0.15560000000000013,-0.10052938496840952
-0.15660000000000013,-0.10043035517741895
-0.15760000000000013,-0.10028888404743246
-0.15860000000000013,-0.10017570714344325
-0.15960000000000002,-0.10010497157845
-0.16060000000000002,-0.1000766773524527
-0.16160000000000002,-0.10002008890045809
-0.16260000000000002,-0.09989276488347024
-0.16360000000000002,-0.09980788220547833
-0.16460000000000002,-0.09963811684949454
-0.16560000000000002,-0.09962396973649587
-0.16660000000000003,-0.0995673812845013
-0.16760000000000003,-0.09944005726751343
-0.16860000000000003,-0.09934102747652288
-0.16960000000000003,-0.09927029191152963
-0.17060000000000003,-0.09918540923353773
-0.17160000000000003,-0.09907223232954852
-0.17260000000000003,-0.09893076119956201
-0.17360000000000003,-0.09886002563456876
-0.17460000000000003,-0.09876099584357821
-0.17560000000000003,-0.09863367182659036
-0.17660000000000003,-0.09860537760059306
-0.17760000000000004,-0.0984214651316106
-0.17860000000000004,-0.09835072956661735
-0.17960000000000004,-0.09827999400162409
-0.18060000000000004,-0.09818096421063353
-0.18160000000000004,-0.09813852287163759
-0.18260000000000004,-0.09803949308064704
-0.18360000000000004,-0.09792631617665784
-0.18460000000000004,-0.09786972772466324
-0.18560000000000004,-0.09778484504667133
-0.18660000000000004,-0.09769996236867944
-0.18760000000000004,-0.09761507969068753
-0.18860000000000005,-0.09754434412569428
-0.18960000000000005,-0.09753019701269564
-0.19060000000000005,-0.09748775567369967
-0.19160000000000005,-0.09743116722170508
-0.19260000000000005,-0.09734628454371318
-0.19360000000000005,-0.09726140186572127
-0.19460000000000005,-0.09717651918772936
-0.19560000000000005,-0.09713407784873342
-0.19660000000000005,-0.09707748939673881
-0.19760000000000005,-0.0970209009447442
-0.19860000000000005,-0.09693601826675231
-0.19960000000000006,-0.09687942981475771
-0.20060000000000006,-0.09682284136276312
-0.20160000000000006,-0.09669551734577525
-0.20260000000000006,-0.09663892889378066
-0.20360000000000006,-0.09670966445877392
-0.20460000000000006,-0.09663892889378066
-0.20560000000000006,-0.09655404621578875
-0.20660000000000006,-0.09649745776379416
-0.20760000000000006,-0.09638428085980494
-0.20860000000000006,-0.0962852510688144
-0.20960000000000006,-0.09624280972981844
-0.21060000000000006,-0.09618622127782384
-0.21160000000000007,-0.09615792705182655
-0.21260000000000007,-0.09607304437383464
-0.21360000000000007,-0.09600230880884139
-0.21460000000000007,-0.09595986746984543
-0.21560000000000007,-0.09587498479185352
-0.21660000000000007,-0.09583254345285759
-0.21760000000000007,-0.09577595500086299
-0.21860000000000007,-0.0957193665488684
-0.21960000000000007,-0.0957193665488684
-0.22060000000000007,-0.09562033675787783
-0.22160000000000007,-0.09556374830588323
-0.22260000000000008,-0.09552130696688728
-0.22360000000000008,-0.09543642428889539
-0.22460000000000008,-0.09542227717589671
-0.22560000000000008,-0.09536568872390214
-0.22660000000000008,-0.09532324738490616
-0.22760000000000008,-0.09526665893291157
-0.22860000000000008,-0.09521007048091697
-0.22960000000000008,-0.09515348202892236
-0.23060000000000008,-0.0951110406899264
-0.23160000000000008,-0.09506859935093047
-0.23260000000000008,-0.09504030512493315
-0.23360000000000009,-0.0949978637859372
-0.2346000000000001,-0.09494127533394262
-0.2356000000000001,-0.09492712822094396
-0.2366000000000001,-0.09488468688194801
-0.2376000000000001,-0.09481395131695476
-0.2386000000000001,-0.09478565709095746
-0.2396000000000001,-0.0947432157519615
-0.2406000000000001,-0.09471492152596421
-0.2416000000000001,-0.09470077441296555
-0.2426000000000001,-0.09464418596097096
-0.2436000000000001,-0.0946300388479723
-0.2446000000000001,-0.09455930328297905
-0.2456000000000001,-0.0945451561699804
-0.2466000000000001,-0.09455930328297905
-0.2476000000000001,-0.09457345039597771
-0.2486000000000001,-0.09451686194398311
-0.2496000000000001,-0.0944885677179858
-0.2506000000000001,-0.09447442060498715
-0.2516000000000001,-0.09443197926599119
-0.2526000000000001,-0.09438953792699524
-0.2536000000000001,-0.0943753908139966
-0.2546000000000001,-0.0943753908139966
-0.2556000000000001,-0.09431880236200199
-0.2566000000000001,-0.09431880236200199
-0.2576000000000001,-0.0942622139100074
-0.2586000000000001,-0.09421977257101144
-0.2596000000000001,-0.0942056254580128
-0.2606000000000001,-0.09413488989301955
-0.2616000000000001,-0.09410659566702224
-0.2626000000000001,-0.0940641543280263
-0.2636000000000001,-0.0940641543280263
-0.2646000000000001,-0.09402171298903034
-0.2656000000000001,-0.09399341876303305
-0.2666000000000001,-0.09402171298903034
-0.2676000000000001,-0.09399341876303305
-0.2686000000000001,-0.0939226831980398
-0.2696000000000001,-0.09395097742403709
-0.2706000000000001,-0.09395097742403709
-0.2716000000000001,-0.09393683031103843
-0.2726000000000001,-0.09388024185904384
-0.2736000000000001,-0.09382365340704923
-0.2746000000000001,-0.09385194763304654
-0.2756000000000001,-0.09385194763304654
-0.2766000000000001,-0.09380950629405059
-0.2776000000000001,-0.09379535918105193
-0.2786000000000001,-0.09379535918105193
-0.2796000000000001,-0.09375291784205599
-0.2806000000000001,-0.09375291784205599
-0.28160000000000013,-0.09375291784205599
-0.28260000000000013,-0.09372462361605868
-0.28360000000000013,-0.09375291784205599
-0.2846,-0.09371047650306003
-0.2856,-0.09369632939006138
-0.2866,-0.09363974093806678
-0.2876,-0.09356900537307353
-0.2886,-0.09368218227706274
-0.2896,-0.09373877072905733
-0.2906,-0.09371047650306003
-0.2916,-0.09371047650306003
-0.2926,-0.09363974093806678
-0.2936,-0.09365388805106543
-0.29460000000000003,-0.09368218227706274
-0.29560000000000003,-0.09373877072905733
-0.29660000000000003,-0.09378121206805329
-0.29760000000000003,-0.09380950629405059
-0.29860000000000003,-0.09378121206805329
-0.29960000000000003,-0.09373877072905733
-0.30060000000000003,-0.09373877072905733
-0.30160000000000003,-0.09373877072905733
-0.30260000000000004,-0.09371047650306003
-0.30360000000000004,-0.09371047650306003
-0.30460000000000004,-0.09379535918105193
-0.30560000000000004,-0.09380950629405059
-0.30660000000000004,-0.09383780052004788
-0.30760000000000004,-0.09383780052004788
-0.30860000000000004,-0.09382365340704923
-0.30960000000000004,-0.09379535918105193
-0.31060000000000004,-0.09383780052004788
-0.31160000000000004,-0.09382365340704923
-0.31260000000000004,-0.09390853608504113
-0.31360000000000005,-0.09385194763304654
-0.31460000000000005,-0.09386609474604518
-0.31560000000000005,-0.0939226831980398
-0.31660000000000005,-0.09389438897204248
-0.31760000000000005,-0.09389438897204248
-0.31860000000000005,-0.0939226831980398
-0.31960000000000005,-0.09396512453703573
-0.32060000000000005,-0.09402171298903034
-0.32160000000000005,-0.09405000721502763
-0.32260000000000005,-0.09407830144102494
-0.32360000000000005,-0.09412074278002087
-0.32460000000000006,-0.09412074278002087
-0.32560000000000006,-0.09416318411901684
-0.32660000000000006,-0.09414903700601819
-0.32760000000000006,-0.09413488989301955
-0.32860000000000006,-0.09419147834501414
-0.32960000000000006,-0.09414903700601819
-0.33060000000000006,-0.09423391968401008
-0.33160000000000006,-0.09430465524900335
-0.33260000000000006,-0.09430465524900335
-0.33360000000000006,-0.09431880236200199
-0.33460000000000006,-0.09430465524900335
-0.33560000000000006,-0.09431880236200199
-0.33660000000000007,-0.09436124370099794
-0.33760000000000007,-0.09438953792699524
-0.33860000000000007,-0.09441783215299256
-0.33960000000000007,-0.0944602734919885
-0.34060000000000007,-0.09450271483098445
-0.34160000000000007,-0.09455930328297905
-0.34260000000000007,-0.09457345039597771
-0.34360000000000007,-0.09458759750897636
-0.3446000000000001,-0.09464418596097096
-0.3456000000000001,-0.09467248018696825
-0.3466000000000001,-0.09472906863896285
-0.34759999999999996,-0.09475736286496016
-0.3486000000000001,-0.09472906863896285
-0.34959999999999997,-0.09471492152596421
-0.3506000000000001,-0.09479980420395612
-0.35159999999999997,-0.09494127533394262
-0.3526000000000001,-0.09504030512493315
-0.35359999999999997,-0.09508274646392911
-0.3546000000000001,-0.09509689357692777
-0.35559999999999997,-0.09518177625491966
-0.3566000000000001,-0.09521007048091697
-0.3576,-0.09522421759391562
-0.3586000000000001,-0.09529495315890889
-0.3596,-0.09546471851489266
-0.3606000000000001,-0.09573351366186703
-0.3616,-0.09562033675787783
-0.3626000000000001,-0.09559204253188053
-0.3636,-0.09563448387087647
-0.3646000000000001,-0.09576180788786433
-0.3656,-0.09581839633985893
-0.3666000000000001,-0.09595986746984543
-0.3676,-0.09604475014783734
-0.3686000000000001,-0.09612963282582924
-0.3696,-0.0962003683908225
-0.3706000000000001,-0.09631354529481169
-0.3716,-0.09646916353779686
-0.3726000000000001,-0.0964833106507955
-0.3736,-0.09646916353779686
-0.3746000000000001,-0.0965964875547847
-0.3756,-0.0966530760067793
-0.3766000000000001,-0.0966813702327766
-0.3776,-0.09672381157177255
-0.3786000000000001,-0.0967945471367658
-0.3796,-0.09686528270175906
-0.3806000000000001,-0.09696431249274962
-0.3816,-0.09706334228374017
-0.3826000000000001,-0.09704919517074152
-0.3836,-0.09714822496173206
-0.3846000000000001,-0.09727554897871993
-0.3856,-0.09738872588270912
-0.3866000000000001,-0.09751604989969698
-0.3876,-0.09761507969068753
-0.3886000000000001,-0.09771410948167808
-0.3896,-0.09779899215966999
-0.3906000000000001,-0.09792631617665784
-0.3916,-0.09806778730664434
-0.3926000000000001,-0.0982234055496295
-0.3936,-0.09827999400162409
-0.3946000000000001,-0.09840731801861195
-0.3956,-0.09860537760059306
-0.3966000000000001,-0.09886002563456876
-0.3976,-0.09900149676455527
-0.3986000000000001,-0.09921370345953502
-0.3996,-0.09922785057253368
-0.4006000000000001,-0.09945420438051207
-0.4016,-0.09959567551049858
-0.4026000000000001,-0.09982202931847699
-0.4036,-0.10002008890045809
-0.4046000000000001,-0.1002464427084365
-0.4056,-0.10075573877638791
-0.40660000000000013,-0.10101038681036362
-0.4076,-0.10127918195733798
-0.40860000000000013,-0.10143480020032314
-0.4096,-0.10163285978230424
-0.41060000000000013,-0.10183091936428534
-0.4116,-0.10188750781627993
-0.41260000000000013,-0.10209971451125968
-0.4136,-0.1023826567712327
-0.41460000000000014,-0.10282121727419087
-0.4156,-0.10310415953416388
-0.41660000000000014,-0.10320318932515443
-0.4176,-0.10345783735913014
-0.41860000000000014,-0.10378322095809908
-0.41960000000000003,-0.10393883920108424
-0.42060000000000014,-0.1041793401220613
-0.42160000000000003,-0.10457545928602352
-0.42260000000000014,-0.10484425443299787
-0.42360000000000003,-0.10501401978898167
-0.42460000000000014,-0.10522622648396143
-0.42560000000000003,-0.10549502163093578
-0.42660000000000015,-0.10584869945590204
-0.42760000000000004,-0.1059477292468926
-0.42860000000000015,-0.10627311284586156
-0.42960000000000004,-0.10669752623582107
-0.43060000000000015,-0.10705120406078733
-0.43160000000000004,-0.10722096941677112
-0.43260000000000015,-0.10746147033774818
-0.43360000000000004,-0.10775855971071985
-0.43460000000000015,-0.10811223753568612
-0.43560000000000004,-0.10826785577867125
-0.43660000000000015,-0.10829615000466856
-0.43760000000000004,-0.10855079803864424
