Sept. 26, 2024   13:45:52
Cyclic Voltammetry
File: c:/users/guazh/data/20240922_batch_417_500/2024-09-22-exp454\exp454-2024-09-26t13_40_58-h2koh\exp454_cv_50mvs_efin_-1400mv.bin
Data Source:  Experiment
Instrument Model:  CHI760E
Header: CV ran at 50 mVs
Note: 

Init E (V) = -1
High E (V) = -1
Low E (V) = -1.4
Final E (V) = -1
Init P/N = N
Scan Rate (V/s) = 0.05
Segment = 7
Sample Interval (V) = 0.001
Quiet Time (sec) = 60
Sensitivity (A/V) = 0.001
Comp R (ohm) = 2.1

Results:

Channel 1:
Segment 1:

Segment 2:

Segment 3:

Segment 4:

Segment 5:

Segment 6:

Segment 7:

Potential/V, Current/A

-1.000, 2.262e-6
-1.001, 2.675e-6
-1.002, 2.835e-6
-1.003, 2.785e-6
-1.004, 3.011e-6
-1.005, 3.077e-6
-1.006, 3.136e-6
-1.007, 3.182e-6
-1.008, 3.149e-6
-1.009, 3.226e-6
-1.010, 3.325e-6
-1.011, 3.350e-6
-1.012, 3.377e-6
-1.013, 3.330e-6
-1.014, 3.445e-6
-1.015, 3.487e-6
-1.016, 3.515e-6
-1.017, 3.507e-6
-1.018, 3.504e-6
-1.019, 3.563e-6
-1.020, 3.635e-6
-1.021, 3.670e-6
-1.022, 3.722e-6
-1.023, 3.560e-6
-1.024, 3.709e-6
-1.025, 3.674e-6
-1.026, 3.902e-6
-1.027, 3.794e-6
-1.028, 3.709e-6
-1.029, 3.820e-6
-1.030, 3.781e-6
-1.031, 4.011e-6
-1.032, 3.935e-6
-1.033, 3.839e-6
-1.034, 3.972e-6
-1.035, 3.963e-6
-1.036, 4.156e-6
-1.037, 4.109e-6
-1.038, 3.970e-6
-1.039, 4.110e-6
-1.040, 4.073e-6
-1.041, 4.235e-6
-1.042, 4.186e-6
-1.043, 4.132e-6
-1.044, 4.212e-6
-1.045, 4.254e-6
-1.046, 4.415e-6
-1.047, 4.309e-6
-1.048, 4.357e-6
-1.049, 4.366e-6
-1.050, 4.486e-6
-1.051, 4.500e-6
-1.052, 4.485e-6
-1.053, 4.497e-6
-1.054, 4.506e-6
-1.055, 4.618e-6
-1.056, 4.711e-6
-1.057, 4.653e-6
-1.058, 4.697e-6
-1.059, 4.681e-6
-1.060, 4.753e-6
-1.061, 4.877e-6
-1.062, 4.793e-6
-1.063, 4.933e-6
-1.064, 4.865e-6
-1.065, 4.940e-6
-1.066, 5.028e-6
-1.067, 5.006e-6
-1.068, 5.075e-6
-1.069, 5.110e-6
-1.070, 5.219e-6
-1.071, 5.207e-6
-1.072, 5.218e-6
-1.073, 5.305e-6
-1.074, 5.265e-6
-1.075, 5.513e-6
-1.076, 5.445e-6
-1.077, 5.451e-6
-1.078, 5.520e-6
-1.079, 5.563e-6
-1.080, 5.672e-6
-1.081, 5.658e-6
-1.082, 5.689e-6
-1.083, 5.802e-6
-1.084, 5.828e-6
-1.085, 6.001e-6
-1.086, 5.958e-6
-1.087, 6.008e-6
-1.088, 6.073e-6
-1.089, 6.078e-6
-1.090, 6.381e-6
-1.091, 6.227e-6
-1.092, 6.331e-6
-1.093, 6.386e-6
-1.094, 6.337e-6
-1.095, 6.575e-6
-1.096, 6.555e-6
-1.097, 6.663e-6
-1.098, 6.721e-6
-1.099, 6.738e-6
-1.100, 6.928e-6
-1.101, 6.916e-6
-1.102, 7.023e-6
-1.103, 7.033e-6
-1.104, 7.089e-6
-1.105, 7.371e-6
-1.106, 7.303e-6
-1.107, 7.391e-6
-1.108, 7.381e-6
-1.109, 7.513e-6
-1.110, 7.776e-6
-1.111, 7.696e-6
-1.112, 7.782e-6
-1.113, 7.819e-6
-1.114, 7.877e-6
-1.115, 8.125e-6
-1.116, 8.135e-6
-1.117, 8.252e-6
-1.118, 8.308e-6
-1.119, 8.299e-6
-1.120, 8.576e-6
-1.121, 8.587e-6
-1.122, 8.705e-6
-1.123, 8.721e-6
-1.124, 8.794e-6
-1.125, 9.124e-6
-1.126, 9.012e-6
-1.127, 9.238e-6
-1.128, 9.181e-6
-1.129, 9.266e-6
-1.130, 9.589e-6
-1.131, 9.487e-6
-1.132, 9.735e-6
-1.133, 9.717e-6
-1.134, 9.769e-6
-1.135, 1.006e-5
-1.136, 1.006e-5
-1.137, 1.018e-5
-1.138, 1.028e-5
-1.139, 1.025e-5
-1.140, 1.061e-5
-1.141, 1.059e-5
-1.142, 1.070e-5
-1.143, 1.076e-5
-1.144, 1.078e-5
-1.145, 1.105e-5
-1.146, 1.115e-5
-1.147, 1.121e-5
-1.148, 1.125e-5
-1.149, 1.128e-5
-1.150, 1.161e-5
-1.151, 1.162e-5
-1.152, 1.166e-5
-1.153, 1.180e-5
-1.154, 1.186e-5
-1.155, 1.206e-5
-1.156, 1.220e-5
-1.157, 1.227e-5
-1.158, 1.221e-5
-1.159, 1.237e-5
-1.160, 1.263e-5
-1.161, 1.269e-5
-1.162, 1.270e-5
-1.163, 1.277e-5
-1.164, 1.283e-5
-1.165, 1.320e-5
-1.166, 1.319e-5
-1.167, 1.328e-5
-1.168, 1.325e-5
-1.169, 1.340e-5
-1.170, 1.379e-5
-1.171, 1.373e-5
-1.172, 1.381e-5
-1.173, 1.384e-5
-1.174, 1.392e-5
-1.175, 1.429e-5
-1.176, 1.434e-5
-1.177, 1.440e-5
-1.178, 1.455e-5
-1.179, 1.456e-5
-1.180, 1.493e-5
-1.181, 1.503e-5
-1.182, 1.506e-5
-1.183, 1.516e-5
-1.184, 1.522e-5
-1.185, 1.555e-5
-1.186, 1.572e-5
-1.187, 1.576e-5
-1.188, 1.583e-5
-1.189, 1.604e-5
-1.190, 1.632e-5
-1.191, 1.647e-5
-1.192, 1.655e-5
-1.193, 1.662e-5
-1.194, 1.683e-5
-1.195, 1.709e-5
-1.196, 1.728e-5
-1.197, 1.744e-5
-1.198, 1.747e-5
-1.199, 1.770e-5
-1.200, 1.802e-5
-1.201, 1.821e-5
-1.202, 1.841e-5
-1.203, 1.846e-5
-1.204, 1.862e-5
-1.205, 1.896e-5
-1.206, 1.921e-5
-1.207, 1.942e-5
-1.208, 1.948e-5
-1.209, 1.973e-5
-1.210, 2.000e-5
-1.211, 2.025e-5
-1.212, 2.050e-5
-1.213, 2.058e-5
-1.214, 2.095e-5
-1.215, 2.114e-5
-1.216, 2.156e-5
-1.217, 2.168e-5
-1.218, 2.182e-5
-1.219, 2.217e-5
-1.220, 2.237e-5
-1.221, 2.279e-5
-1.222, 2.289e-5
-1.223, 2.317e-5
-1.224, 2.347e-5
-1.225, 2.373e-5
-1.226, 2.425e-5
-1.227, 2.437e-5
-1.228, 2.464e-5
-1.229, 2.497e-5
-1.230, 2.526e-5
-1.231, 2.572e-5
-1.232, 2.589e-5
-1.233, 2.623e-5
-1.234, 2.655e-5
-1.235, 2.690e-5
-1.236, 2.740e-5
-1.237, 2.758e-5
-1.238, 2.791e-5
-1.239, 2.828e-5
-1.240, 2.864e-5
-1.241, 2.925e-5
-1.242, 2.949e-5
-1.243, 2.979e-5
-1.244, 3.018e-5
-1.245, 3.068e-5
-1.246, 3.123e-5
-1.247, 3.155e-5
-1.248, 3.190e-5
-1.249, 3.239e-5
-1.250, 3.286e-5
-1.251, 3.343e-5
-1.252, 3.376e-5
-1.253, 3.421e-5
-1.254, 3.476e-5
-1.255, 3.527e-5
-1.256, 3.587e-5
-1.257, 3.629e-5
-1.258, 3.686e-5
-1.259, 3.724e-5
-1.260, 3.789e-5
-1.261, 3.858e-5
-1.262, 3.904e-5
-1.263, 3.964e-5
-1.264, 4.018e-5
-1.265, 4.081e-5
-1.266, 4.159e-5
-1.267, 4.213e-5
-1.268, 4.263e-5
-1.269, 4.333e-5
-1.270, 4.406e-5
-1.271, 4.492e-5
-1.272, 4.554e-5
-1.273, 4.612e-5
-1.274, 4.690e-5
-1.275, 4.762e-5
-1.276, 4.852e-5
-1.277, 4.932e-5
-1.278, 5.003e-5
-1.279, 5.088e-5
-1.280, 5.171e-5
-1.281, 5.263e-5
-1.282, 5.360e-5
-1.283, 5.435e-5
-1.284, 5.524e-5
-1.285, 5.623e-5
-1.286, 5.734e-5
-1.287, 5.838e-5
-1.288, 5.920e-5
-1.289, 6.021e-5
-1.290, 6.135e-5
-1.291, 6.251e-5
-1.292, 6.362e-5
-1.293, 6.465e-5
-1.294, 6.576e-5
-1.295, 6.701e-5
-1.296, 6.831e-5
-1.297, 6.946e-5
-1.298, 7.080e-5
-1.299, 7.191e-5
-1.300, 7.329e-5
-1.301, 7.472e-5
-1.302, 7.607e-5
-1.303, 7.745e-5
-1.304, 7.874e-5
-1.305, 8.029e-5
-1.306, 8.181e-5
-1.307, 8.322e-5
-1.308, 8.475e-5
-1.309, 8.621e-5
-1.310, 8.780e-5
-1.311, 8.955e-5
-1.312, 9.107e-5
-1.313, 9.261e-5
-1.314, 9.430e-5
-1.315, 9.597e-5
-1.316, 9.774e-5
-1.317, 9.941e-5
-1.318, 1.012e-4
-1.319, 1.029e-4
-1.320, 1.047e-4
-1.321, 1.066e-4
-1.322, 1.083e-4
-1.323, 1.101e-4
-1.324, 1.118e-4
-1.325, 1.139e-4
-1.326, 1.159e-4
-1.327, 1.176e-4
-1.328, 1.196e-4
-1.329, 1.213e-4
-1.330, 1.234e-4
-1.331, 1.254e-4
-1.332, 1.274e-4
-1.333, 1.294e-4
-1.334, 1.312e-4
-1.335, 1.334e-4
-1.336, 1.355e-4
-1.337, 1.374e-4
-1.338, 1.397e-4
-1.339, 1.416e-4
-1.340, 1.438e-4
-1.341, 1.460e-4
-1.342, 1.481e-4
-1.343, 1.504e-4
-1.344, 1.524e-4
-1.345, 1.548e-4
-1.346, 1.573e-4
-1.347, 1.594e-4
-1.348, 1.617e-4
-1.349, 1.639e-4
-1.350, 1.665e-4
-1.351, 1.691e-4
-1.352, 1.716e-4
-1.353, 1.739e-4
-1.354, 1.764e-4
-1.355, 1.791e-4
-1.356, 1.817e-4
-1.357, 1.845e-4
-1.358, 1.872e-4
-1.359, 1.898e-4
-1.360, 1.927e-4
-1.361, 1.956e-4
-1.362, 1.986e-4
-1.363, 2.015e-4
-1.364, 2.045e-4
-1.365, 2.075e-4
-1.366, 2.105e-4
-1.367, 2.138e-4
-1.368, 2.171e-4
-1.369, 2.204e-4
-1.370, 2.238e-4
-1.371, 2.270e-4
-1.372, 2.303e-4
-1.373, 2.339e-4
-1.374, 2.373e-4
-1.375, 2.412e-4
-1.376, 2.448e-4
-1.377, 2.485e-4
-1.378, 2.523e-4
-1.379, 2.559e-4
-1.380, 2.599e-4
-1.381, 2.638e-4
-1.382, 2.682e-4
-1.383, 2.723e-4
-1.384, 2.763e-4
-1.385, 2.805e-4
-1.386, 2.849e-4
-1.387, 2.893e-4
-1.388, 2.938e-4
-1.389, 2.982e-4
-1.390, 3.027e-4
-1.391, 3.075e-4
-1.392, 3.124e-4
-1.393, 3.171e-4
-1.394, 3.218e-4
-1.395, 3.266e-4
-1.396, 3.313e-4
-1.397, 3.365e-4
-1.398, 3.415e-4
-1.399, 3.469e-4
-1.400, 3.412e-4
-1.399, 3.309e-4
-1.398, 3.219e-4
-1.397, 3.135e-4
-1.396, 3.055e-4
-1.395, 2.977e-4
-1.394, 2.902e-4
-1.393, 2.828e-4
-1.392, 2.759e-4
-1.391, 2.693e-4
-1.390, 2.628e-4
-1.389, 2.564e-4
-1.388, 2.502e-4
-1.387, 2.439e-4
-1.386, 2.382e-4
-1.385, 2.327e-4
-1.384, 2.272e-4
-1.383, 2.220e-4
-1.382, 2.166e-4
-1.381, 2.117e-4
-1.380, 2.067e-4
-1.379, 2.019e-4
-1.378, 1.973e-4
-1.377, 1.925e-4
-1.376, 1.882e-4
-1.375, 1.839e-4
-1.374, 1.797e-4
-1.373, 1.758e-4
-1.372, 1.716e-4
-1.371, 1.678e-4
-1.370, 1.639e-4
-1.369, 1.602e-4
-1.368, 1.566e-4
-1.367, 1.529e-4
-1.366, 1.495e-4
-1.365, 1.461e-4
-1.364, 1.428e-4
-1.363, 1.397e-4
-1.362, 1.363e-4
-1.361, 1.334e-4
-1.360, 1.304e-4
-1.359, 1.275e-4
-1.358, 1.246e-4
-1.357, 1.216e-4
-1.356, 1.190e-4
-1.355, 1.163e-4
-1.354, 1.137e-4
-1.353, 1.112e-4
-1.352, 1.084e-4
-1.351, 1.061e-4
-1.350, 1.036e-4
-1.349, 1.014e-4
-1.348, 9.913e-5
-1.347, 9.669e-5
-1.346, 9.461e-5
-1.345, 9.231e-5
-1.344, 9.028e-5
-1.343, 8.831e-5
-1.342, 8.610e-5
-1.341, 8.422e-5
-1.340, 8.218e-5
-1.339, 8.035e-5
-1.338, 7.856e-5
-1.337, 7.661e-5
-1.336, 7.492e-5
-1.335, 7.312e-5
-1.334, 7.144e-5
-1.333, 6.982e-5
-1.332, 6.806e-5
-1.331, 6.651e-5
-1.330, 6.497e-5
-1.329, 6.347e-5
-1.328, 6.203e-5
-1.327, 6.036e-5
-1.326, 5.897e-5
-1.325, 5.767e-5
-1.324, 5.630e-5
-1.323, 5.492e-5
-1.322, 5.340e-5
-1.321, 5.211e-5
-1.320, 5.098e-5
-1.319, 4.983e-5
-1.318, 4.858e-5
-1.317, 4.721e-5
-1.316, 4.612e-5
-1.315, 4.499e-5
-1.314, 4.393e-5
-1.313, 4.286e-5
-1.312, 4.165e-5
-1.311, 4.057e-5
-1.310, 3.956e-5
-1.309, 3.871e-5
-1.308, 3.769e-5
-1.307, 3.660e-5
-1.306, 3.570e-5
-1.305, 3.479e-5
-1.304, 3.398e-5
-1.303, 3.305e-5
-1.302, 3.212e-5
-1.301, 3.117e-5
-1.300, 3.047e-5
-1.299, 2.971e-5
-1.298, 2.889e-5
-1.297, 2.795e-5
-1.296, 2.721e-5
-1.295, 2.658e-5
-1.294, 2.587e-5
-1.293, 2.523e-5
-1.292, 2.435e-5
-1.291, 2.356e-5
-1.290, 2.305e-5
-1.289, 2.244e-5
-1.288, 2.184e-5
-1.287, 2.111e-5
-1.286, 2.043e-5
-1.285, 1.990e-5
-1.284, 1.943e-5
-1.283, 1.878e-5
-1.282, 1.812e-5
-1.281, 1.754e-5
-1.280, 1.703e-5
-1.279, 1.667e-5
-1.278, 1.613e-5
-1.277, 1.555e-5
-1.276, 1.503e-5
-1.275, 1.457e-5
-1.274, 1.424e-5
-1.273, 1.368e-5
-1.272, 1.325e-5
-1.271, 1.267e-5
-1.270, 1.233e-5
-1.269, 1.205e-5
-1.268, 1.158e-5
-1.267, 1.107e-5
-1.266, 1.061e-5
-1.265, 1.033e-5
-1.264, 1.004e-5
-1.263, 9.710e-6
-1.262, 9.261e-6
-1.261, 8.878e-6
-1.260, 8.616e-6
-1.259, 8.347e-6
-1.258, 8.018e-6
-1.257, 7.642e-6
-1.256, 7.287e-6
-1.255, 7.015e-6
-1.254, 6.856e-6
-1.253, 6.474e-6
-1.252, 6.254e-6
-1.251, 5.779e-6
-1.250, 5.662e-6
-1.249, 5.463e-6
-1.248, 5.197e-6
-1.247, 4.955e-6
-1.246, 4.549e-6
-1.245, 4.400e-6
-1.244, 4.284e-6
-1.243, 3.953e-6
-1.242, 3.768e-6
-1.241, 3.377e-6
-1.240, 3.351e-6
-1.239, 3.183e-6
-1.238, 2.885e-6
-1.237, 2.756e-6
-1.236, 2.452e-6
-1.235, 2.384e-6
-1.234, 2.293e-6
-1.233, 2.029e-6
-1.232, 1.911e-6
-1.231, 1.559e-6
-1.230, 1.485e-6
-1.229, 1.366e-6
-1.228, 1.200e-6
-1.227, 1.036e-6
-1.226, 7.861e-7
-1.225, 7.457e-7
-1.224, 6.283e-7
-1.223, 4.793e-7
-1.222, 2.583e-7
-1.221, 1.164e-8
-1.220, 8.682e-9
-1.219, -1.008e-7
-1.218, -1.600e-7
-1.217, -3.031e-7
-1.216, -5.280e-7
-1.215, -5.695e-7
-1.214, -6.218e-7
-1.213, -7.470e-7
-1.212, -8.378e-7
-1.211, -1.135e-6
-1.210, -1.162e-6
-1.209, -1.236e-6
-1.208, -1.301e-6
-1.207, -1.352e-6
-1.206, -1.647e-6
-1.205, -1.566e-6
-1.204, -1.620e-6
-1.203, -1.750e-6
-1.202, -1.832e-6
-1.201, -2.040e-6
-1.200, -2.080e-6
-1.199, -2.110e-6
-1.198, -2.207e-6
-1.197, -2.125e-6
-1.196, -2.424e-6
-1.195, -2.503e-6
-1.194, -2.549e-6
-1.193, -2.559e-6
-1.192, -2.623e-6
-1.191, -2.828e-6
-1.190, -2.855e-6
-1.189, -2.777e-6
-1.188, -2.838e-6
-1.187, -2.964e-6
-1.186, -3.127e-6
-1.185, -3.192e-6
-1.184, -3.159e-6
-1.183, -3.209e-6
-1.182, -3.333e-6
-1.181, -3.405e-6
-1.180, -3.503e-6
-1.179, -3.410e-6
-1.178, -3.510e-6
-1.177, -3.625e-6
-1.176, -3.742e-6
-1.175, -3.725e-6
-1.174, -3.803e-6
-1.173, -3.776e-6
-1.172, -3.812e-6
-1.171, -4.026e-6
-1.170, -3.996e-6
-1.169, -4.031e-6
-1.168, -4.033e-6
-1.167, -4.101e-6
-1.166, -4.307e-6
-1.165, -4.179e-6
-1.164, -4.232e-6
-1.163, -4.332e-6
-1.162, -4.329e-6
-1.161, -4.515e-6
-1.160, -4.446e-6
-1.159, -4.409e-6
-1.158, -4.481e-6
-1.157, -4.528e-6
-1.156, -4.680e-6
-1.155, -4.663e-6
-1.154, -4.688e-6
-1.153, -4.707e-6
-1.152, -4.793e-6
-1.151, -4.929e-6
-1.150, -4.891e-6
-1.149, -4.833e-6
-1.148, -4.839e-6
-1.147, -4.975e-6
-1.146, -5.137e-6
-1.145, -5.032e-6
-1.144, -5.102e-6
-1.143, -5.053e-6
-1.142, -5.145e-6
-1.141, -5.216e-6
-1.140, -5.171e-6
-1.139, -5.222e-6
-1.138, -5.192e-6
-1.137, -5.322e-6
-1.136, -5.463e-6
-1.135, -5.316e-6
-1.134, -5.445e-6
-1.133, -5.363e-6
-1.132, -5.468e-6
-1.131, -5.609e-6
-1.130, -5.481e-6
-1.129, -5.552e-6
-1.128, -5.405e-6
-1.127, -5.528e-6
-1.126, -5.747e-6
-1.125, -5.639e-6
-1.124, -5.663e-6
-1.123, -5.580e-6
-1.122, -5.684e-6
-1.121, -5.758e-6
-1.120, -5.742e-6
-1.119, -5.737e-6
-1.118, -5.697e-6
-1.117, -5.837e-6
-1.116, -5.951e-6
-1.115, -5.935e-6
-1.114, -5.863e-6
-1.113, -5.860e-6
-1.112, -5.849e-6
-1.111, -5.992e-6
-1.110, -6.013e-6
-1.109, -5.957e-6
-1.108, -5.928e-6
-1.107, -6.061e-6
-1.106, -6.081e-6
-1.105, -6.109e-6
-1.104, -6.080e-6
-1.103, -5.938e-6
-1.102, -6.154e-6
-1.101, -6.076e-6
-1.100, -6.127e-6
-1.099, -6.105e-6
-1.098, -6.056e-6
-1.097, -6.213e-6
-1.096, -6.235e-6
-1.095, -6.240e-6
-1.094, -6.291e-6
-1.093, -6.145e-6
-1.092, -6.297e-6
-1.091, -6.298e-6
-1.090, -6.325e-6
-1.089, -6.241e-6
-1.088, -6.254e-6
-1.087, -6.425e-6
-1.086, -6.394e-6
-1.085, -6.416e-6
-1.084, -6.388e-6
-1.083, -6.437e-6
-1.082, -6.440e-6
-1.081, -6.457e-6
-1.080, -6.472e-6
-1.079, -6.391e-6
-1.078, -6.462e-6
-1.077, -6.546e-6
-1.076, -6.580e-6
-1.075, -6.607e-6
-1.074, -6.533e-6
-1.073, -6.637e-6
-1.072, -6.621e-6
-1.071, -6.630e-6
-1.070, -6.729e-6
-1.069, -6.552e-6
-1.068, -6.679e-6
-1.067, -6.731e-6
-1.066, -6.721e-6
-1.065, -6.839e-6
-1.064, -6.665e-6
-1.063, -6.829e-6
-1.062, -6.899e-6
-1.061, -6.879e-6
-1.060, -6.928e-6
-1.059, -6.839e-6
-1.058, -7.000e-6
-1.057, -7.032e-6
-1.056, -7.034e-6
-1.055, -7.090e-6
-1.054, -6.981e-6
-1.053, -7.117e-6
-1.052, -7.150e-6
-1.051, -7.250e-6
-1.050, -7.311e-6
-1.049, -7.219e-6
-1.048, -7.366e-6
-1.047, -7.394e-6
-1.046, -7.511e-6
-1.045, -7.568e-6
-1.044, -7.402e-6
-1.043, -7.595e-6
-1.042, -7.597e-6
-1.041, -7.749e-6
-1.040, -7.861e-6
-1.039, -7.658e-6
-1.038, -7.942e-6
-1.037, -7.934e-6
-1.036, -8.036e-6
-1.035, -8.207e-6
-1.034, -8.041e-6
-1.033, -8.292e-6
-1.032, -8.304e-6
-1.031, -8.505e-6
-1.030, -8.634e-6
-1.029, -8.473e-6
-1.028, -8.709e-6
-1.027, -8.740e-6
-1.026, -8.914e-6
-1.025, -9.059e-6
-1.024, -8.971e-6
-1.023, -9.214e-6
-1.022, -9.296e-6
-1.021, -9.523e-6
-1.020, -9.644e-6
-1.019, -9.549e-6
-1.018, -9.815e-6
-1.017, -9.914e-6
-1.016, -1.012e-5
-1.015, -1.024e-5
-1.014, -1.022e-5
-1.013, -1.042e-5
-1.012, -1.056e-5
-1.011, -1.089e-5
-1.010, -1.097e-5
-1.009, -1.100e-5
-1.008, -1.116e-5
-1.007, -1.139e-5
-1.006, -1.164e-5
-1.005, -1.182e-5
-1.004, -1.180e-5
-1.003, -1.201e-5
-1.002, -1.215e-5
-1.001, -1.245e-5
-1.000, -7.648e-6
-1.001, -5.625e-6
-1.002, -4.807e-6
-1.003, -4.105e-6
-1.004, -3.559e-6
-1.005, -2.954e-6
-1.006, -2.326e-6
-1.007, -1.945e-6
-1.008, -1.602e-6
-1.009, -1.238e-6
-1.010, -8.546e-7
-1.011, -3.869e-7
-1.012, -1.373e-7
-1.013, 9.550e-8
-1.014, 2.238e-7
-1.015, 4.990e-7
-1.016, 8.897e-7
-1.017, 1.060e-6
-1.018, 1.242e-6
-1.019, 1.209e-6
-1.020, 1.436e-6
-1.021, 1.817e-6
-1.022, 1.887e-6
-1.023, 1.964e-6
-1.024, 2.059e-6
-1.025, 2.160e-6
-1.026, 2.476e-6
-1.027, 2.527e-6
-1.028, 2.587e-6
-1.029, 2.575e-6
-1.030, 2.686e-6
-1.031, 2.918e-6
-1.032, 2.971e-6
-1.033, 3.088e-6
-1.034, 3.015e-6
-1.035, 3.066e-6
-1.036, 3.286e-6
-1.037, 3.350e-6
-1.038, 3.350e-6
-1.039, 3.319e-6
-1.040, 3.372e-6
-1.041, 3.571e-6
-1.042, 3.660e-6
-1.043, 3.617e-6
-1.044, 3.563e-6
-1.045, 3.622e-6
-1.046, 3.771e-6
-1.047, 3.887e-6
-1.048, 3.839e-6
-1.049, 3.781e-6
-1.050, 3.821e-6
-1.051, 3.931e-6
-1.052, 4.012e-6
-1.053, 3.997e-6
-1.054, 3.932e-6
-1.055, 3.976e-6
-1.056, 4.040e-6
-1.057, 4.192e-6
-1.058, 4.104e-6
-1.059, 3.992e-6
-1.060, 4.119e-6
-1.061, 4.181e-6
-1.062, 4.268e-6
-1.063, 4.257e-6
-1.064, 4.137e-6
-1.065, 4.164e-6
-1.066, 4.302e-6
-1.067, 4.329e-6
-1.068, 4.327e-6
-1.069, 4.234e-6
-1.070, 4.286e-6
-1.071, 4.344e-6
-1.072, 4.446e-6
-1.073, 4.326e-6
-1.074, 4.270e-6
-1.075, 4.405e-6
-1.076, 4.335e-6
-1.077, 4.519e-6
-1.078, 4.427e-6
-1.079, 4.358e-6
-1.080, 4.440e-6
-1.081, 4.408e-6
-1.082, 4.611e-6
-1.083, 4.447e-6
-1.084, 4.408e-6
-1.085, 4.472e-6
-1.086, 4.523e-6
-1.087, 4.667e-6
-1.088, 4.511e-6
-1.089, 4.502e-6
-1.090, 4.532e-6
-1.091, 4.548e-6
-1.092, 4.767e-6
-1.093, 4.596e-6
-1.094, 4.581e-6
-1.095, 4.594e-6
-1.096, 4.615e-6
-1.097, 4.733e-6
-1.098, 4.641e-6
-1.099, 4.644e-6
-1.100, 4.606e-6
-1.101, 4.733e-6
-1.102, 4.852e-6
-1.103, 4.749e-6
-1.104, 4.682e-6
-1.105, 4.698e-6
-1.106, 4.759e-6
-1.107, 4.869e-6
-1.108, 4.822e-6
-1.109, 4.764e-6
-1.110, 4.802e-6
-1.111, 4.851e-6
-1.112, 4.980e-6
-1.113, 4.860e-6
-1.114, 4.860e-6
-1.115, 4.874e-6
-1.116, 4.975e-6
-1.117, 5.039e-6
-1.118, 4.995e-6
-1.119, 4.953e-6
-1.120, 4.928e-6
-1.121, 4.970e-6
-1.122, 5.158e-6
-1.123, 5.151e-6
-1.124, 5.024e-6
-1.125, 5.145e-6
-1.126, 5.079e-6
-1.127, 5.246e-6
-1.128, 5.265e-6
-1.129, 5.151e-6
-1.130, 5.182e-6
-1.131, 5.164e-6
-1.132, 5.336e-6
-1.133, 5.371e-6
-1.134, 5.316e-6
-1.135, 5.314e-6
-1.136, 5.348e-6
-1.137, 5.444e-6
-1.138, 5.488e-6
-1.139, 5.431e-6
-1.140, 5.408e-6
-1.141, 5.542e-6
-1.142, 5.601e-6
-1.143, 5.632e-6
-1.144, 5.564e-6
-1.145, 5.572e-6
-1.146, 5.622e-6
-1.147, 5.734e-6
-1.148, 5.736e-6
-1.149, 5.698e-6
-1.150, 5.700e-6
-1.151, 5.747e-6
-1.152, 5.909e-6
-1.153, 5.870e-6
-1.154, 5.840e-6
-1.155, 5.892e-6
-1.156, 5.921e-6
-1.157, 6.093e-6
-1.158, 5.996e-6
-1.159, 6.064e-6
-1.160, 6.063e-6
-1.161, 6.088e-6
-1.162, 6.243e-6
-1.163, 6.203e-6
-1.164, 6.232e-6
-1.165, 6.233e-6
-1.166, 6.294e-6
-1.167, 6.500e-6
-1.168, 6.401e-6
-1.169, 6.447e-6
-1.170, 6.407e-6
-1.171, 6.498e-6
-1.172, 6.615e-6
-1.173, 6.577e-6
-1.174, 6.668e-6
-1.175, 6.642e-6
-1.176, 6.742e-6
-1.177, 6.872e-6
-1.178, 6.812e-6
-1.179, 6.849e-6
-1.180, 6.877e-6
-1.181, 6.955e-6
-1.182, 7.089e-6
-1.183, 7.092e-6
-1.184, 7.095e-6
-1.185, 7.031e-6
-1.186, 7.239e-6
-1.187, 7.290e-6
-1.188, 7.333e-6
-1.189, 7.386e-6
-1.190, 7.315e-6
-1.191, 7.517e-6
-1.192, 7.554e-6
-1.193, 7.532e-6
-1.194, 7.730e-6
-1.195, 7.552e-6
-1.196, 7.819e-6
-1.197, 7.877e-6
-1.198, 7.954e-6
-1.199, 8.050e-6
-1.200, 7.958e-6
-1.201, 8.129e-6
-1.202, 8.229e-6
-1.203, 8.278e-6
-1.204, 8.339e-6
-1.205, 8.255e-6
-1.206, 8.488e-6
-1.207, 8.589e-6
-1.208, 8.607e-6
-1.209, 8.749e-6
-1.210, 8.681e-6
-1.211, 8.867e-6
-1.212, 9.001e-6
-1.213, 9.125e-6
-1.214, 9.147e-6
-1.215, 9.145e-6
-1.216, 9.327e-6
-1.217, 9.443e-6
-1.218, 9.625e-6
-1.219, 9.585e-6
-1.220, 9.635e-6
-1.221, 9.891e-6
-1.222, 9.927e-6
-1.223, 1.011e-5
-1.224, 1.016e-5
-1.225, 1.015e-5
-1.226, 1.048e-5
-1.227, 1.049e-5
-1.228, 1.078e-5
-1.229, 1.086e-5
-1.230, 1.088e-5
-1.231, 1.114e-5
-1.232, 1.119e-5
-1.233, 1.137e-5
-1.234, 1.142e-5
-1.235, 1.164e-5
-1.236, 1.184e-5
-1.237, 1.199e-5
-1.238, 1.218e-5
-1.239, 1.229e-5
-1.240, 1.245e-5
-1.241, 1.267e-5
-1.242, 1.287e-5
-1.243, 1.301e-5
-1.244, 1.320e-5
-1.245, 1.339e-5
-1.246, 1.365e-5
-1.247, 1.383e-5
-1.248, 1.405e-5
-1.249, 1.422e-5
-1.250, 1.451e-5
-1.251, 1.473e-5
-1.252, 1.492e-5
-1.253, 1.524e-5
-1.254, 1.537e-5
-1.255, 1.572e-5
-1.256, 1.599e-5
-1.257, 1.619e-5
-1.258, 1.658e-5
-1.259, 1.668e-5
-1.260, 1.702e-5
-1.261, 1.736e-5
-1.262, 1.768e-5
-1.263, 1.805e-5
-1.264, 1.824e-5
-1.265, 1.860e-5
-1.266, 1.898e-5
-1.267, 1.937e-5
-1.268, 1.964e-5
-1.269, 1.998e-5
-1.270, 2.036e-5
-1.271, 2.080e-5
-1.272, 2.121e-5
-1.273, 2.154e-5
-1.274, 2.192e-5
-1.275, 2.238e-5
-1.276, 2.275e-5
-1.277, 2.331e-5
-1.278, 2.371e-5
-1.279, 2.407e-5
-1.280, 2.460e-5
-1.281, 2.508e-5
-1.282, 2.566e-5
-1.283, 2.619e-5
-1.284, 2.653e-5
-1.285, 2.714e-5
-1.286, 2.763e-5
-1.287, 2.823e-5
-1.288, 2.887e-5
-1.289, 2.915e-5
-1.290, 2.996e-5
-1.291, 3.052e-5
-1.292, 3.116e-5
-1.293, 3.187e-5
-1.294, 3.223e-5
-1.295, 3.314e-5
-1.296, 3.368e-5
-1.297, 3.443e-5
-1.298, 3.525e-5
-1.299, 3.568e-5
-1.300, 3.656e-5
-1.301, 3.726e-5
-1.302, 3.813e-5
-1.303, 3.890e-5
-1.304, 3.951e-5
-1.305, 4.044e-5
-1.306, 4.125e-5
-1.307, 4.218e-5
-1.308, 4.308e-5
-1.309, 4.382e-5
-1.310, 4.477e-5
-1.311, 4.563e-5
-1.312, 4.668e-5
-1.313, 4.762e-5
-1.314, 4.845e-5
-1.315, 4.958e-5
-1.316, 5.046e-5
-1.317, 5.167e-5
-1.318, 5.267e-5
-1.319, 5.364e-5
-1.320, 5.477e-5
-1.321, 5.586e-5
-1.322, 5.714e-5
-1.323, 5.825e-5
-1.324, 5.925e-5
-1.325, 6.059e-5
-1.326, 6.184e-5
-1.327, 6.312e-5
-1.328, 6.441e-5
-1.329, 6.547e-5
-1.330, 6.696e-5
-1.331, 6.828e-5
-1.332, 6.969e-5
-1.333, 7.112e-5
-1.334, 7.232e-5
-1.335, 7.390e-5
-1.336, 7.533e-5
-1.337, 7.695e-5
-1.338, 7.854e-5
-1.339, 7.978e-5
-1.340, 8.147e-5
-1.341, 8.311e-5
-1.342, 8.472e-5
-1.343, 8.649e-5
-1.344, 8.793e-5
-1.345, 8.975e-5
-1.346, 9.157e-5
-1.347, 9.334e-5
-1.348, 9.521e-5
-1.349, 9.689e-5
-1.350, 9.876e-5
-1.351, 1.008e-4
-1.352, 1.028e-4
-1.353, 1.047e-4
-1.354, 1.066e-4
-1.355, 1.087e-4
-1.356, 1.108e-4
-1.357, 1.131e-4
-1.358, 1.152e-4
-1.359, 1.172e-4
-1.360, 1.194e-4
-1.361, 1.217e-4
-1.362, 1.241e-4
-1.363, 1.264e-4
-1.364, 1.286e-4
-1.365, 1.311e-4
-1.366, 1.336e-4
-1.367, 1.362e-4
-1.368, 1.388e-4
-1.369, 1.412e-4
-1.370, 1.437e-4
-1.371, 1.465e-4
-1.372, 1.492e-4
-1.373, 1.520e-4
-1.374, 1.546e-4
-1.375, 1.576e-4
-1.376, 1.605e-4
-1.377, 1.635e-4
-1.378, 1.665e-4
-1.379, 1.694e-4
-1.380, 1.724e-4
-1.381, 1.756e-4
-1.382, 1.790e-4
-1.383, 1.822e-4
-1.384, 1.853e-4
-1.385, 1.886e-4
-1.386, 1.921e-4
-1.387, 1.956e-4
-1.388, 1.992e-4
-1.389, 2.026e-4
-1.390, 2.060e-4
-1.391, 2.098e-4
-1.392, 2.137e-4
-1.393, 2.175e-4
-1.394, 2.213e-4
-1.395, 2.250e-4
-1.396, 2.289e-4
-1.397, 2.330e-4
-1.398, 2.371e-4
-1.399, 2.414e-4
-1.400, 2.362e-4
-1.399, 2.287e-4
-1.398, 2.222e-4
-1.397, 2.161e-4
-1.396, 2.103e-4
-1.395, 2.044e-4
-1.394, 1.991e-4
-1.393, 1.939e-4
-1.392, 1.889e-4
-1.391, 1.840e-4
-1.390, 1.791e-4
-1.389, 1.747e-4
-1.388, 1.704e-4
-1.387, 1.661e-4
-1.386, 1.620e-4
-1.385, 1.579e-4
-1.384, 1.541e-4
-1.383, 1.503e-4
-1.382, 1.467e-4
-1.381, 1.432e-4
-1.380, 1.395e-4
-1.379, 1.362e-4
-1.378, 1.330e-4
-1.377, 1.298e-4
-1.376, 1.267e-4
-1.375, 1.236e-4
-1.374, 1.206e-4
-1.373, 1.179e-4
-1.372, 1.151e-4
-1.371, 1.123e-4
-1.370, 1.096e-4
-1.369, 1.070e-4
-1.368, 1.046e-4
-1.367, 1.022e-4
-1.366, 9.968e-5
-1.365, 9.731e-5
-1.364, 9.506e-5
-1.363, 9.291e-5
-1.362, 9.069e-5
-1.361, 8.857e-5
-1.360, 8.637e-5
-1.359, 8.441e-5
-1.358, 8.256e-5
-1.357, 8.059e-5
-1.356, 7.875e-5
-1.355, 7.663e-5
-1.354, 7.499e-5
-1.353, 7.328e-5
-1.352, 7.169e-5
-1.351, 6.998e-5
-1.350, 6.811e-5
-1.349, 6.661e-5
-1.348, 6.512e-5
-1.347, 6.357e-5
-1.346, 6.205e-5
-1.345, 6.049e-5
-1.344, 5.910e-5
-1.343, 5.782e-5
-1.342, 5.635e-5
-1.341, 5.514e-5
-1.340, 5.364e-5
-1.339, 5.235e-5
-1.338, 5.118e-5
-1.337, 4.990e-5
-1.336, 4.885e-5
-1.335, 4.753e-5
-1.334, 4.637e-5
-1.333, 4.537e-5
-1.332, 4.423e-5
-1.331, 4.313e-5
-1.330, 4.202e-5
-1.329, 4.100e-5
-1.328, 4.008e-5
-1.327, 3.907e-5
-1.326, 3.810e-5
-1.325, 3.704e-5
-1.324, 3.621e-5
-1.323, 3.532e-5
-1.322, 3.447e-5
-1.321, 3.348e-5
-1.320, 3.256e-5
-1.319, 3.188e-5
-1.318, 3.101e-5
-1.317, 3.029e-5
-1.316, 2.954e-5
-1.315, 2.864e-5
-1.314, 2.810e-5
-1.313, 2.728e-5
-1.312, 2.660e-5
-1.311, 2.588e-5
-1.310, 2.510e-5
-1.309, 2.460e-5
-1.308, 2.388e-5
-1.307, 2.327e-5
-1.306, 2.259e-5
-1.305, 2.185e-5
-1.304, 2.138e-5
-1.303, 2.078e-5
-1.302, 2.031e-5
-1.301, 1.966e-5
-1.300, 1.909e-5
-1.299, 1.855e-5
-1.298, 1.805e-5
-1.297, 1.760e-5
-1.296, 1.710e-5
-1.295, 1.652e-5
-1.294, 1.612e-5
-1.293, 1.568e-5
-1.292, 1.523e-5
-1.291, 1.470e-5
-1.290, 1.419e-5
-1.289, 1.382e-5
-1.288, 1.336e-5
-1.287, 1.313e-5
-1.286, 1.261e-5
-1.285, 1.227e-5
-1.284, 1.183e-5
-1.283, 1.142e-5
-1.282, 1.123e-5
-1.281, 1.066e-5
-1.280, 1.036e-5
-1.279, 1.002e-5
-1.278, 9.675e-6
-1.277, 9.468e-6
-1.276, 9.064e-6
-1.275, 8.732e-6
-1.274, 8.403e-6
-1.273, 8.202e-6
-1.272, 7.970e-6
-1.271, 7.574e-6
-1.270, 7.256e-6
-1.269, 7.065e-6
-1.268, 6.739e-6
-1.267, 6.570e-6
-1.266, 6.170e-6
-1.265, 5.954e-6
-1.264, 5.739e-6
-1.263, 5.559e-6
-1.262, 5.310e-6
-1.261, 5.036e-6
-1.260, 4.821e-6
-1.259, 4.561e-6
-1.258, 4.478e-6
-1.257, 4.170e-6
-1.256, 3.991e-6
-1.255, 3.813e-6
-1.254, 3.542e-6
-1.253, 3.477e-6
-1.252, 3.212e-6
-1.251, 2.953e-6
-1.250, 2.848e-6
-1.249, 2.596e-6
-1.248, 2.638e-6
-1.247, 2.350e-6
-1.246, 2.155e-6
-1.245, 2.095e-6
-1.244, 1.822e-6
-1.243, 1.811e-6
-1.242, 1.551e-6
-1.241, 1.508e-6
-1.240, 1.254e-6
-1.239, 1.094e-6
-1.238, 1.138e-6
-1.237, 8.739e-7
-1.236, 8.473e-7
-1.235, 5.641e-7
-1.234, 4.744e-7
-1.233, 4.882e-7
-1.232, 3.047e-7
-1.231, 2.011e-7
-1.230, 1.855e-8
-1.229, -2.330e-7
-1.228, -2.684e-8
-1.227, -2.774e-7
-1.226, -3.307e-7
-1.225, -4.659e-7
-1.224, -6.523e-7
-1.223, -4.955e-7
-1.222, -7.806e-7
-1.221, -7.816e-7
-1.220, -9.296e-7
-1.219, -1.155e-6
-1.218, -9.621e-7
-1.217, -1.198e-6
-1.216, -1.187e-6
-1.215, -1.367e-6
-1.214, -1.406e-6
-1.213, -1.338e-6
-1.212, -1.531e-6
-1.211, -1.639e-6
-1.210, -1.732e-6
-1.209, -1.867e-6
-1.208, -1.661e-6
-1.207, -1.879e-6
-1.206, -1.910e-6
-1.205, -2.016e-6
-1.204, -2.057e-6
-1.203, -1.992e-6
-1.202, -2.151e-6
-1.201, -2.176e-6
-1.200, -2.291e-6
-1.199, -2.386e-6
-1.198, -2.241e-6
-1.197, -2.361e-6
-1.196, -2.495e-6
-1.195, -2.490e-6
-1.194, -2.563e-6
-1.193, -2.394e-6
-1.192, -2.473e-6
-1.191, -2.589e-6
-1.190, -2.799e-6
-1.189, -2.791e-6
-1.188, -2.593e-6
-1.187, -2.731e-6
-1.186, -2.774e-6
-1.185, -2.905e-6
-1.184, -2.937e-6
-1.183, -2.708e-6
-1.182, -2.849e-6
-1.181, -2.892e-6
-1.180, -3.025e-6
-1.179, -3.120e-6
-1.178, -3.029e-6
-1.177, -2.922e-6
-1.176, -3.039e-6
-1.175, -3.153e-6
-1.174, -3.185e-6
-1.173, -3.027e-6
-1.172, -3.059e-6
-1.171, -3.229e-6
-1.170, -3.262e-6
-1.169, -3.296e-6
-1.168, -3.257e-6
-1.167, -3.189e-6
-1.166, -3.279e-6
-1.165, -3.437e-6
-1.164, -3.327e-6
-1.163, -3.461e-6
-1.162, -3.284e-6
-1.161, -3.388e-6
-1.160, -3.471e-6
-1.159, -3.483e-6
-1.158, -3.534e-6
-1.157, -3.398e-6
-1.156, -3.494e-6
-1.155, -3.626e-6
-1.154, -3.556e-6
-1.153, -3.618e-6
-1.152, -3.517e-6
-1.151, -3.631e-6
-1.150, -3.712e-6
-1.149, -3.695e-6
-1.148, -3.684e-6
-1.147, -3.614e-6
-1.146, -3.696e-6
-1.145, -3.831e-6
-1.144, -3.762e-6
-1.143, -3.763e-6
-1.142, -3.648e-6
-1.141, -3.814e-6
-1.140, -3.880e-6
-1.139, -3.905e-6
-1.138, -3.912e-6
-1.137, -3.799e-6
-1.136, -3.852e-6
-1.135, -3.927e-6
-1.134, -3.982e-6
-1.133, -3.932e-6
-1.132, -3.867e-6
-1.131, -3.992e-6
-1.130, -4.040e-6
-1.129, -4.087e-6
-1.128, -4.104e-6
-1.127, -3.890e-6
-1.126, -4.055e-6
-1.125, -4.071e-6
-1.124, -4.110e-6
-1.123, -4.124e-6
-1.122, -4.019e-6
-1.121, -4.139e-6
-1.120, -4.150e-6
-1.119, -4.133e-6
-1.118, -4.193e-6
-1.117, -4.070e-6
-1.116, -4.144e-6
-1.115, -4.216e-6
-1.114, -4.254e-6
-1.113, -4.231e-6
-1.112, -4.135e-6
-1.111, -4.208e-6
-1.110, -4.294e-6
-1.109, -4.276e-6
-1.108, -4.233e-6
-1.107, -4.175e-6
-1.106, -4.285e-6
-1.105, -4.337e-6
-1.104, -4.328e-6
-1.103, -4.281e-6
-1.102, -4.197e-6
-1.101, -4.338e-6
-1.100, -4.362e-6
-1.099, -4.430e-6
-1.098, -4.354e-6
-1.097, -4.255e-6
-1.096, -4.394e-6
-1.095, -4.405e-6
-1.094, -4.549e-6
-1.093, -4.445e-6
-1.092, -4.332e-6
-1.091, -4.498e-6
-1.090, -4.435e-6
-1.089, -4.655e-6
-1.088, -4.470e-6
-1.087, -4.491e-6
-1.086, -4.556e-6
-1.085, -4.615e-6
-1.084, -4.714e-6
-1.083, -4.632e-6
-1.082, -4.618e-6
-1.081, -4.675e-6
-1.080, -4.670e-6
-1.079, -4.871e-6
-1.078, -4.772e-6
-1.077, -4.749e-6
-1.076, -4.775e-6
-1.075, -4.879e-6
-1.074, -5.003e-6
-1.073, -4.962e-6
-1.072, -4.906e-6
-1.071, -4.990e-6
-1.070, -5.042e-6
-1.069, -5.129e-6
-1.068, -5.060e-6
-1.067, -5.198e-6
-1.066, -5.101e-6
-1.065, -5.289e-6
-1.064, -5.313e-6
-1.063, -5.312e-6
-1.062, -5.459e-6
-1.061, -5.337e-6
-1.060, -5.458e-6
-1.059, -5.575e-6
-1.058, -5.462e-6
-1.057, -5.672e-6
-1.056, -5.581e-6
-1.055, -5.776e-6
-1.054, -5.820e-6
-1.053, -5.810e-6
-1.052, -5.895e-6
-1.051, -5.926e-6
-1.050, -6.026e-6
-1.049, -6.112e-6
-1.048, -6.092e-6
-1.047, -6.185e-6
-1.046, -6.253e-6
-1.045, -6.409e-6
-1.044, -6.395e-6
-1.043, -6.477e-6
-1.042, -6.518e-6
-1.041, -6.551e-6
-1.040, -6.876e-6
-1.039, -6.720e-6
-1.038, -6.940e-6
-1.037, -6.910e-6
-1.036, -6.959e-6
-1.035, -7.281e-6
-1.034, -7.171e-6
-1.033, -7.359e-6
-1.032, -7.385e-6
-1.031, -7.421e-6
-1.030, -7.752e-6
-1.029, -7.676e-6
-1.028, -7.806e-6
-1.027, -7.898e-6
-1.026, -7.925e-6
-1.025, -8.280e-6
-1.024, -8.314e-6
-1.023, -8.419e-6
-1.022, -8.546e-6
-1.021, -8.603e-6
-1.020, -8.876e-6
-1.019, -8.904e-6
-1.018, -9.113e-6
-1.017, -9.205e-6
-1.016, -9.283e-6
-1.015, -9.557e-6
-1.014, -9.671e-6
-1.013, -9.777e-6
-1.012, -9.885e-6
-1.011, -1.008e-5
-1.010, -1.040e-5
-1.009, -1.052e-5
-1.008, -1.064e-5
-1.007, -1.071e-5
-1.006, -1.087e-5
-1.005, -1.120e-5
-1.004, -1.140e-5
-1.003, -1.148e-5
-1.002, -1.162e-5
-1.001, -1.180e-5
-1.000, -7.132e-6
-1.001, -5.317e-6
-1.002, -4.347e-6
-1.003, -3.517e-6
-1.004, -2.924e-6
-1.005, -2.591e-6
-1.006, -2.084e-6
-1.007, -1.537e-6
-1.008, -1.112e-6
-1.009, -7.125e-7
-1.010, -5.783e-7
-1.011, -2.755e-7
-1.012, 5.998e-8
-1.013, 4.171e-7
-1.014, 6.677e-7
-1.015, 7.980e-7
-1.016, 8.690e-7
-1.017, 1.172e-6
-1.018, 1.469e-6
-1.019, 1.627e-6
-1.020, 1.673e-6
-1.021, 1.769e-6
-1.022, 1.978e-6
-1.023, 2.268e-6
-1.024, 2.302e-6
-1.025, 2.390e-6
-1.026, 2.407e-6
-1.027, 2.593e-6
-1.028, 2.762e-6
-1.029, 2.818e-6
-1.030, 2.891e-6
-1.031, 2.866e-6
-1.032, 3.013e-6
-1.033, 3.200e-6
-1.034, 3.215e-6
-1.035, 3.316e-6
-1.036, 3.183e-6
-1.037, 3.434e-6
-1.038, 3.497e-6
-1.039, 3.521e-6
-1.040, 3.563e-6
-1.041, 3.458e-6
-1.042, 3.595e-6
-1.043, 3.775e-6
-1.044, 3.769e-6
-1.045, 3.804e-6
-1.046, 3.681e-6
-1.047, 3.928e-6
-1.048, 3.903e-6
-1.049, 3.939e-6
-1.050, 4.020e-6
-1.051, 3.828e-6
-1.052, 3.936e-6
-1.053, 4.102e-6
-1.054, 4.140e-6
-1.055, 4.097e-6
-1.056, 4.022e-6
-1.057, 4.076e-6
-1.058, 4.181e-6
-1.059, 4.210e-6
-1.060, 4.179e-6
-1.061, 4.101e-6
-1.062, 4.093e-6
-1.063, 4.313e-6
-1.064, 4.230e-6
-1.065, 4.276e-6
-1.066, 4.150e-6
-1.067, 4.184e-6
-1.068, 4.266e-6
-1.069, 4.324e-6
-1.070, 4.257e-6
-1.071, 4.241e-6
-1.072, 4.209e-6
-1.073, 4.313e-6
-1.074, 4.376e-6
-1.075, 4.321e-6
-1.076, 4.192e-6
-1.077, 4.315e-6
-1.078, 4.349e-6
-1.079, 4.339e-6
-1.080, 4.326e-6
-1.081, 4.202e-6
-1.082, 4.353e-6
-1.083, 4.328e-6
-1.084, 4.373e-6
-1.085, 4.359e-6
-1.086, 4.209e-6
-1.087, 4.299e-6
-1.088, 4.352e-6
-1.089, 4.382e-6
-1.090, 4.365e-6
-1.091, 4.260e-6
-1.092, 4.332e-6
-1.093, 4.402e-6
-1.094, 4.386e-6
-1.095, 4.407e-6
-1.096, 4.277e-6
-1.097, 4.345e-6
-1.098, 4.323e-6
-1.099, 4.514e-6
-1.100, 4.389e-6
-1.101, 4.366e-6
-1.102, 4.423e-6
-1.103, 4.460e-6
-1.104, 4.565e-6
-1.105, 4.429e-6
-1.106, 4.437e-6
-1.107, 4.419e-6
-1.108, 4.479e-6
-1.109, 4.621e-6
-1.110, 4.447e-6
-1.111, 4.561e-6
-1.112, 4.526e-6
-1.113, 4.565e-6
-1.114, 4.578e-6
-1.115, 4.503e-6
-1.116, 4.569e-6
-1.117, 4.541e-6
-1.118, 4.655e-6
-1.119, 4.630e-6
-1.120, 4.618e-6
-1.121, 4.618e-6
-1.122, 4.629e-6
-1.123, 4.671e-6
-1.124, 4.650e-6
-1.125, 4.633e-6
-1.126, 4.647e-6
-1.127, 4.655e-6
-1.128, 4.811e-6
-1.129, 4.678e-6
-1.130, 4.771e-6
-1.131, 4.665e-6
-1.132, 4.658e-6
-1.133, 4.900e-6
-1.134, 4.716e-6
-1.135, 4.751e-6
-1.136, 4.658e-6
-1.137, 4.665e-6
-1.138, 4.928e-6
-1.139, 4.750e-6
-1.140, 4.829e-6
-1.141, 4.707e-6
-1.142, 4.708e-6
-1.143, 4.947e-6
-1.144, 4.765e-6
-1.145, 4.901e-6
-1.146, 4.827e-6
-1.147, 4.778e-6
-1.148, 5.016e-6
-1.149, 4.835e-6
-1.150, 4.948e-6
-1.151, 4.849e-6
-1.152, 4.816e-6
-1.153, 5.050e-6
-1.154, 4.983e-6
-1.155, 4.989e-6
-1.156, 4.937e-6
-1.157, 4.879e-6
-1.158, 5.120e-6
-1.159, 5.116e-6
-1.160, 5.035e-6
-1.161, 5.026e-6
-1.162, 5.065e-6
-1.163, 5.247e-6
-1.164, 5.206e-6
-1.165, 5.217e-6
-1.166, 5.125e-6
-1.167, 5.168e-6
-1.168, 5.405e-6
-1.169, 5.381e-6
-1.170, 5.381e-6
-1.171, 5.289e-6
-1.172, 5.294e-6
-1.173, 5.494e-6
-1.174, 5.497e-6
-1.175, 5.481e-6
-1.176, 5.432e-6
-1.177, 5.478e-6
-1.178, 5.710e-6
-1.179, 5.681e-6
-1.180, 5.649e-6
-1.181, 5.623e-6
-1.182, 5.670e-6
-1.183, 5.791e-6
-1.184, 5.856e-6
-1.185, 5.834e-6
-1.186, 5.791e-6
-1.187, 5.842e-6
-1.188, 5.949e-6
-1.189, 6.067e-6
-1.190, 6.004e-6
-1.191, 5.924e-6
-1.192, 5.990e-6
-1.193, 6.067e-6
-1.194, 6.301e-6
-1.195, 6.209e-6
-1.196, 6.168e-6
-1.197, 6.260e-6
-1.198, 6.313e-6
-1.199, 6.482e-6
-1.200, 6.403e-6
-1.201, 6.348e-6
-1.202, 6.499e-6
-1.203, 6.494e-6
-1.204, 6.687e-6
-1.205, 6.643e-6
-1.206, 6.646e-6
-1.207, 6.729e-6
-1.208, 6.843e-6
-1.209, 6.965e-6
-1.210, 6.897e-6
-1.211, 6.934e-6
-1.212, 6.976e-6
-1.213, 7.146e-6
-1.214, 7.239e-6
-1.215, 7.321e-6
-1.216, 7.235e-6
-1.217, 7.358e-6
-1.218, 7.504e-6
-1.219, 7.626e-6
-1.220, 7.725e-6
-1.221, 7.685e-6
-1.222, 7.778e-6
-1.223, 7.913e-6
-1.224, 8.087e-6
-1.225, 8.153e-6
-1.226, 8.232e-6
-1.227, 8.264e-6
-1.228, 8.485e-6
-1.229, 8.645e-6
-1.230, 8.726e-6
-1.231, 8.781e-6
-1.232, 8.863e-6
-1.233, 8.981e-6
-1.234, 9.233e-6
-1.235, 9.276e-6
-1.236, 9.378e-6
-1.237, 9.409e-6
-1.238, 9.617e-6
-1.239, 9.870e-6
-1.240, 9.934e-6
-1.241, 1.005e-5
-1.242, 1.012e-5
-1.243, 1.041e-5
-1.244, 1.059e-5
-1.245, 1.071e-5
-1.246, 1.085e-5
-1.247, 1.096e-5
-1.248, 1.123e-5
-1.249, 1.139e-5
-1.250, 1.161e-5
-1.251, 1.172e-5
-1.252, 1.183e-5
-1.253, 1.209e-5
-1.254, 1.232e-5
-1.255, 1.250e-5
-1.256, 1.268e-5
-1.257, 1.284e-5
-1.258, 1.319e-5
-1.259, 1.333e-5
-1.260, 1.361e-5
-1.261, 1.381e-5
-1.262, 1.395e-5
-1.263, 1.437e-5
-1.264, 1.448e-5
-1.265, 1.484e-5
-1.266, 1.501e-5
-1.267, 1.536e-5
-1.268, 1.566e-5
-1.269, 1.593e-5
-1.270, 1.626e-5
-1.271, 1.641e-5
-1.272, 1.681e-5
-1.273, 1.713e-5
-1.274, 1.747e-5
-1.275, 1.789e-5
-1.276, 1.801e-5
-1.277, 1.852e-5
-1.278, 1.888e-5
-1.279, 1.932e-5
-1.280, 1.966e-5
-1.281, 1.990e-5
-1.282, 2.049e-5
-1.283, 2.078e-5
-1.284, 2.131e-5
-1.285, 2.179e-5
-1.286, 2.196e-5
-1.287, 2.260e-5
-1.288, 2.300e-5
-1.289, 2.354e-5
-1.290, 2.404e-5
-1.291, 2.438e-5
-1.292, 2.498e-5
-1.293, 2.545e-5
-1.294, 2.605e-5
-1.295, 2.668e-5
-1.296, 2.691e-5
-1.297, 2.765e-5
-1.298, 2.818e-5
-1.299, 2.880e-5
-1.300, 2.949e-5
-1.301, 2.992e-5
-1.302, 3.061e-5
-1.303, 3.127e-5
-1.304, 3.190e-5
-1.305, 3.263e-5
-1.306, 3.314e-5
-1.307, 3.393e-5
-1.308, 3.461e-5
-1.309, 3.544e-5
-1.310, 3.622e-5
-1.311, 3.672e-5
-1.312, 3.753e-5
-1.313, 3.841e-5
-1.314, 3.923e-5
-1.315, 4.002e-5
-1.316, 4.069e-5
-1.317, 4.159e-5
-1.318, 4.254e-5
-1.319, 4.346e-5
-1.320, 4.432e-5
-1.321, 4.518e-5
-1.322, 4.607e-5
-1.323, 4.703e-5
-1.324, 4.815e-5
-1.325, 4.913e-5
-1.326, 5.003e-5
-1.327, 5.102e-5
-1.328, 5.208e-5
-1.329, 5.330e-5
-1.330, 5.439e-5
-1.331, 5.538e-5
-1.332, 5.647e-5
-1.333, 5.773e-5
-1.334, 5.898e-5
-1.335, 6.024e-5
-1.336, 6.142e-5
-1.337, 6.250e-5
-1.338, 6.391e-5
-1.339, 6.524e-5
-1.340, 6.655e-5
-1.341, 6.793e-5
-1.342, 6.911e-5
-1.343, 7.069e-5
-1.344, 7.214e-5
-1.345, 7.347e-5
-1.346, 7.514e-5
-1.347, 7.638e-5
-1.348, 7.809e-5
-1.349, 7.967e-5
-1.350, 8.123e-5
-1.351, 8.294e-5
-1.352, 8.434e-5
-1.353, 8.608e-5
-1.354, 8.796e-5
-1.355, 8.962e-5
-1.356, 9.141e-5
-1.357, 9.310e-5
-1.358, 9.498e-5
-1.359, 9.696e-5
-1.360, 9.879e-5
-1.361, 1.008e-4
-1.362, 1.026e-4
-1.363, 1.045e-4
-1.364, 1.067e-4
-1.365, 1.087e-4
-1.366, 1.109e-4
-1.367, 1.129e-4
-1.368, 1.151e-4
-1.369, 1.174e-4
-1.370, 1.197e-4
-1.371, 1.219e-4
-1.372, 1.242e-4
-1.373, 1.265e-4
-1.374, 1.290e-4
-1.375, 1.316e-4
-1.376, 1.340e-4
-1.377, 1.364e-4
-1.378, 1.391e-4
-1.379, 1.417e-4
-1.380, 1.444e-4
-1.381, 1.471e-4
-1.382, 1.497e-4
-1.383, 1.527e-4
-1.384, 1.555e-4
-1.385, 1.585e-4
-1.386, 1.613e-4
-1.387, 1.643e-4
-1.388, 1.674e-4
-1.389, 1.705e-4
-1.390, 1.738e-4
-1.391, 1.769e-4
-1.392, 1.800e-4
-1.393, 1.834e-4
-1.394, 1.868e-4
-1.395, 1.903e-4
-1.396, 1.936e-4
-1.397, 1.972e-4
-1.398, 2.008e-4
-1.399, 2.045e-4
-1.400, 1.997e-4
-1.399, 1.931e-4
-1.398, 1.874e-4
-1.397, 1.821e-4
-1.396, 1.771e-4
-1.395, 1.723e-4
-1.394, 1.676e-4
-1.393, 1.631e-4
-1.392, 1.588e-4
-1.391, 1.548e-4
-1.390, 1.506e-4
-1.389, 1.467e-4
-1.388, 1.429e-4
-1.387, 1.393e-4
-1.386, 1.359e-4
-1.385, 1.324e-4
-1.384, 1.291e-4
-1.383, 1.258e-4
-1.382, 1.226e-4
-1.381, 1.197e-4
-1.380, 1.166e-4
-1.379, 1.139e-4
-1.378, 1.111e-4
-1.377, 1.082e-4
-1.376, 1.058e-4
-1.375, 1.031e-4
-1.374, 1.006e-4
-1.373, 9.810e-5
-1.372, 9.568e-5
-1.371, 9.360e-5
-1.370, 9.117e-5
-1.369, 8.912e-5
-1.368, 8.680e-5
-1.367, 8.471e-5
-1.366, 8.278e-5
-1.365, 8.078e-5
-1.364, 7.885e-5
-1.363, 7.689e-5
-1.362, 7.505e-5
-1.361, 7.340e-5
-1.360, 7.156e-5
-1.359, 6.988e-5
-1.358, 6.815e-5
-1.357, 6.649e-5
-1.356, 6.510e-5
-1.355, 6.338e-5
-1.354, 6.197e-5
-1.353, 6.029e-5
-1.352, 5.891e-5
-1.351, 5.773e-5
-1.350, 5.619e-5
-1.349, 5.483e-5
-1.348, 5.348e-5
-1.347, 5.215e-5
-1.346, 5.112e-5
-1.345, 4.992e-5
-1.344, 4.863e-5
-1.343, 4.738e-5
-1.342, 4.610e-5
-1.341, 4.524e-5
-1.340, 4.419e-5
-1.339, 4.302e-5
-1.338, 4.189e-5
-1.337, 4.085e-5
-1.336, 4.000e-5
-1.335, 3.908e-5
-1.334, 3.800e-5
-1.333, 3.699e-5
-1.332, 3.611e-5
-1.331, 3.526e-5
-1.330, 3.450e-5
-1.329, 3.353e-5
-1.328, 3.267e-5
-1.327, 3.186e-5
-1.326, 3.107e-5
-1.325, 3.044e-5
-1.324, 2.955e-5
-1.323, 2.873e-5
-1.322, 2.800e-5
-1.321, 2.734e-5
-1.320, 2.669e-5
-1.319, 2.589e-5
-1.318, 2.524e-5
-1.317, 2.457e-5
-1.316, 2.400e-5
-1.315, 2.342e-5
-1.314, 2.269e-5
-1.313, 2.198e-5
-1.312, 2.142e-5
-1.311, 2.087e-5
-1.310, 2.046e-5
-1.309, 1.980e-5
-1.308, 1.920e-5
-1.307, 1.866e-5
-1.306, 1.827e-5
-1.305, 1.779e-5
-1.304, 1.726e-5
-1.303, 1.666e-5
-1.302, 1.619e-5
-1.301, 1.574e-5
-1.300, 1.544e-5
-1.299, 1.495e-5
-1.298, 1.435e-5
-1.297, 1.396e-5
-1.296, 1.358e-5
-1.295, 1.332e-5
-1.294, 1.285e-5
-1.293, 1.245e-5
-1.292, 1.203e-5
-1.291, 1.167e-5
-1.290, 1.139e-5
-1.289, 1.095e-5
-1.288, 1.063e-5
-1.287, 1.033e-5
-1.286, 9.991e-6
-1.285, 9.734e-6
-1.284, 9.401e-6
-1.283, 9.017e-6
-1.282, 8.688e-6
-1.281, 8.447e-6
-1.280, 8.167e-6
-1.279, 7.876e-6
-1.278, 7.555e-6
-1.277, 7.279e-6
-1.276, 7.092e-6
-1.275, 6.893e-6
-1.274, 6.574e-6
-1.273, 6.296e-6
-1.272, 5.958e-6
-1.271, 5.871e-6
-1.270, 5.649e-6
-1.269, 5.400e-6
-1.268, 5.237e-6
-1.267, 4.801e-6
-1.266, 4.791e-6
-1.265, 4.478e-6
-1.264, 4.319e-6
-1.263, 4.042e-6
-1.262, 3.794e-6
-1.261, 3.740e-6
-1.260, 3.529e-6
-1.259, 3.342e-6
-1.258, 3.189e-6
-1.257, 2.919e-6
-1.256, 2.902e-6
-1.255, 2.655e-6
-1.254, 2.505e-6
-1.253, 2.312e-6
-1.252, 2.107e-6
-1.251, 1.949e-6
-1.250, 1.881e-6
-1.249, 1.739e-6
-1.248, 1.539e-6
-1.247, 1.366e-6
-1.246, 1.318e-6
-1.245, 1.176e-6
-1.244, 1.110e-6
-1.243, 7.486e-7
-1.242, 7.980e-7
-1.241, 6.608e-7
-1.240, 5.089e-7
-1.239, 5.138e-7
-1.238, 2.050e-7
-1.237, 2.356e-7
-1.236, 1.300e-7
-1.235, 6.393e-8
-1.234, 2.940e-8
-1.233, -2.952e-7
-1.232, -2.409e-7
-1.231, -3.307e-7
-1.230, -4.185e-7
-1.229, -5.172e-7
-1.228, -6.888e-7
-1.227, -6.079e-7
-1.226, -7.836e-7
-1.225, -7.392e-7
-1.224, -7.885e-7
-1.223, -1.040e-6
-1.222, -1.025e-6
-1.221, -1.134e-6
-1.220, -1.091e-6
-1.219, -1.170e-6
-1.218, -1.400e-6
-1.217, -1.320e-6
-1.216, -1.388e-6
-1.215, -1.428e-6
-1.214, -1.418e-6
-1.213, -1.713e-6
-1.212, -1.693e-6
-1.211, -1.668e-6
-1.210, -1.634e-6
-1.209, -1.760e-6
-1.208, -1.970e-6
-1.207, -1.923e-6
-1.206, -1.990e-6
-1.205, -1.959e-6
-1.204, -1.995e-6
-1.203, -2.209e-6
-1.202, -2.209e-6
-1.201, -2.228e-6
-1.200, -2.184e-6
-1.199, -2.160e-6
-1.198, -2.484e-6
-1.197, -2.379e-6
-1.196, -2.462e-6
-1.195, -2.447e-6
-1.194, -2.468e-6
-1.193, -2.667e-6
-1.192, -2.689e-6
-1.191, -2.612e-6
-1.190, -2.588e-6
-1.189, -2.647e-6
-1.188, -2.735e-6
-1.187, -2.860e-6
-1.186, -2.892e-6
-1.185, -2.743e-6
-1.184, -2.821e-6
-1.183, -2.885e-6
-1.182, -3.001e-6
-1.181, -2.925e-6
-1.180, -2.954e-6
-1.179, -3.018e-6
-1.178, -2.938e-6
-1.177, -3.125e-6
-1.176, -3.046e-6
-1.175, -3.017e-6
-1.174, -3.165e-6
-1.173, -3.069e-6
-1.172, -3.120e-6
-1.171, -3.129e-6
-1.170, -3.091e-6
-1.169, -3.131e-6
-1.168, -3.168e-6
-1.167, -3.290e-6
-1.166, -3.265e-6
-1.165, -3.151e-6
-1.164, -3.211e-6
-1.163, -3.188e-6
-1.162, -3.369e-6
-1.161, -3.313e-6
-1.160, -3.186e-6
-1.159, -3.250e-6
-1.158, -3.287e-6
-1.157, -3.437e-6
-1.156, -3.309e-6
-1.155, -3.344e-6
-1.154, -3.318e-6
-1.153, -3.385e-6
-1.152, -3.473e-6
-1.151, -3.441e-6
-1.150, -3.412e-6
-1.149, -3.314e-6
-1.148, -3.407e-6
-1.147, -3.572e-6
-1.146, -3.548e-6
-1.145, -3.476e-6
-1.144, -3.480e-6
-1.143, -3.488e-6
-1.142, -3.652e-6
-1.141, -3.572e-6
-1.140, -3.557e-6
-1.139, -3.572e-6
-1.138, -3.618e-6
-1.137, -3.739e-6
-1.136, -3.675e-6
-1.135, -3.602e-6
-1.134, -3.658e-6
-1.133, -3.727e-6
-1.132, -3.742e-6
-1.131, -3.763e-6
-1.130, -3.722e-6
-1.129, -3.741e-6
-1.128, -3.693e-6
-1.127, -3.878e-6
-1.126, -3.865e-6
-1.125, -3.835e-6
-1.124, -3.775e-6
-1.123, -3.851e-6
-1.122, -3.912e-6
-1.121, -3.873e-6
-1.120, -3.944e-6
-1.119, -3.771e-6
-1.118, -3.918e-6
-1.117, -3.962e-6
-1.116, -3.927e-6
-1.115, -3.944e-6
-1.114, -3.825e-6
-1.113, -3.995e-6
-1.112, -3.957e-6
-1.111, -3.976e-6
-1.110, -3.980e-6
-1.109, -3.878e-6
-1.108, -3.963e-6
-1.107, -4.040e-6
-1.106, -3.972e-6
-1.105, -3.987e-6
-1.104, -3.994e-6
-1.103, -4.051e-6
-1.102, -4.037e-6
-1.101, -4.076e-6
-1.100, -4.066e-6
-1.099, -4.078e-6
-1.098, -4.155e-6
-1.097, -4.096e-6
-1.096, -4.164e-6
-1.095, -4.045e-6
-1.094, -4.195e-6
-1.093, -4.165e-6
-1.092, -4.157e-6
-1.091, -4.272e-6
-1.090, -4.143e-6
-1.089, -4.250e-6
-1.088, -4.319e-6
-1.087, -4.320e-6
-1.086, -4.431e-6
-1.085, -4.186e-6
-1.084, -4.399e-6
-1.083, -4.373e-6
-1.082, -4.507e-6
-1.081, -4.545e-6
-1.080, -4.401e-6
-1.079, -4.470e-6
-1.078, -4.595e-6
-1.077, -4.619e-6
-1.076, -4.721e-6
-1.075, -4.551e-6
-1.074, -4.679e-6
-1.073, -4.649e-6
-1.072, -4.847e-6
-1.071, -4.844e-6
-1.070, -4.724e-6
-1.069, -4.866e-6
-1.068, -4.879e-6
-1.067, -4.971e-6
-1.066, -5.028e-6
-1.065, -4.917e-6
-1.064, -5.012e-6
-1.063, -5.073e-6
-1.062, -5.198e-6
-1.061, -5.233e-6
-1.060, -5.086e-6
-1.059, -5.277e-6
-1.058, -5.273e-6
-1.057, -5.405e-6
-1.056, -5.427e-6
-1.055, -5.359e-6
-1.054, -5.463e-6
-1.053, -5.521e-6
-1.052, -5.688e-6
-1.051, -5.694e-6
-1.050, -5.600e-6
-1.049, -5.649e-6
-1.048, -5.780e-6
-1.047, -5.959e-6
-1.046, -6.036e-6
-1.045, -5.889e-6
-1.044, -5.966e-6
-1.043, -6.180e-6
-1.042, -6.290e-6
-1.041, -6.333e-6
-1.040, -6.293e-6
-1.039, -6.279e-6
-1.038, -6.540e-6
-1.037, -6.606e-6
-1.036, -6.713e-6
-1.035, -6.742e-6
-1.034, -6.694e-6
-1.033, -6.896e-6
-1.032, -7.093e-6
-1.031, -7.123e-6
-1.030, -7.241e-6
-1.029, -7.186e-6
-1.028, -7.423e-6
-1.027, -7.633e-6
-1.026, -7.675e-6
-1.025, -7.777e-6
-1.024, -7.741e-6
-1.023, -7.997e-6
-1.022, -8.165e-6
-1.021, -8.290e-6
-1.020, -8.411e-6
-1.019, -8.452e-6
-1.018, -8.660e-6
-1.017, -8.849e-6
-1.016, -8.987e-6
-1.015, -9.061e-6
-1.014, -9.079e-6
-1.013, -9.316e-6
-1.012, -9.516e-6
-1.011, -9.771e-6
-1.010, -9.815e-6
-1.009, -9.902e-6
-1.008, -1.010e-5
-1.007, -1.031e-5
-1.006, -1.054e-5
-1.005, -1.064e-5
-1.004, -1.069e-5
-1.003, -1.094e-5
-1.002, -1.116e-5
-1.001, -1.143e-5
