Aug. 11, 2024   21:20:34
Cyclic Voltammetry
File: c:/users/guazh/data/20240802_batch_500/2024-08-02-exp86\exp86-2024-08-11t21_04_06-h2koh\exp86_cv_sr_600mvs_efin_-1800mv.bin
Data Source:  Experiment
Instrument Model:  CHI760E
Header: CV ran at 600 mVs
Note: 

Init E (V) = -1
High E (V) = -1
Low E (V) = -1.8
Final E (V) = -1
Init P/N = N
Scan Rate (V/s) = 0.6
Segment = 3
Sample Interval (V) = 0.001
Quiet Time (sec) = 2
Sensitivity (A/V) = 0.01
Comp R (ohm) = 2.0

Results:

Channel 1:
Segment 1:
Ep = -1.293V
ip = 3.924e-5A
Ah = 4.947e-6C

Segment 2:

Segment 3:

Potential/V, Current/A

-1.000, 3.239e-6
-1.001, 3.239e-6
-1.002, 3.239e-6
-1.003, 3.239e-6
-1.004, 3.239e-6
-1.005, 3.239e-6
-1.006, 3.239e-6
-1.007, 3.239e-6
-1.008, 3.239e-6
-1.009, 3.239e-6
-1.010, 6.322e-6
-1.011, 6.322e-6
-1.012, 6.322e-6
-1.013, 6.322e-6
-1.014, 3.239e-6
-1.015, 3.239e-6
-1.016, 6.322e-6
-1.017, 6.322e-6
-1.018, 6.322e-6
-1.019, 6.322e-6
-1.020, 3.239e-6
-1.021, 3.239e-6
-1.022, 6.322e-6
-1.023, 6.322e-6
-1.024, 6.322e-6
-1.025, 6.322e-6
-1.026, 6.322e-6
-1.027, 6.322e-6
-1.028, 6.322e-6
-1.029, 6.322e-6
-1.030, 6.322e-6
-1.031, 6.322e-6
-1.032, 6.322e-6
-1.033, 6.322e-6
-1.034, 6.322e-6
-1.035, 6.322e-6
-1.036, 6.322e-6
-1.037, 6.322e-6
-1.038, 6.322e-6
-1.039, 6.322e-6
-1.040, 6.322e-6
-1.041, 6.322e-6
-1.042, 6.322e-6
-1.043, 6.322e-6
-1.044, 6.322e-6
-1.045, 6.322e-6
-1.046, 6.322e-6
-1.047, 6.322e-6
-1.048, 6.322e-6
-1.049, 6.322e-6
-1.050, 6.322e-6
-1.051, 6.322e-6
-1.052, 6.322e-6
-1.053, 9.405e-6
-1.054, 6.322e-6
-1.055, 6.322e-6
-1.056, 6.322e-6
-1.057, 6.322e-6
-1.058, 6.322e-6
-1.059, 6.322e-6
-1.060, 6.322e-6
-1.061, 6.322e-6
-1.062, 6.322e-6
-1.063, 9.405e-6
-1.064, 9.405e-6
-1.065, 9.405e-6
-1.066, 6.322e-6
-1.067, 6.322e-6
-1.068, 6.322e-6
-1.069, 6.322e-6
-1.070, 9.405e-6
-1.071, 9.405e-6
-1.072, 9.405e-6
-1.073, 9.405e-6
-1.074, 9.405e-6
-1.075, 9.405e-6
-1.076, 9.405e-6
-1.077, 9.405e-6
-1.078, 9.405e-6
-1.079, 9.405e-6
-1.080, 9.405e-6
-1.081, 9.405e-6
-1.082, 9.405e-6
-1.083, 9.405e-6
-1.084, 9.405e-6
-1.085, 9.405e-6
-1.086, 9.405e-6
-1.087, 9.405e-6
-1.088, 9.405e-6
-1.089, 9.405e-6
-1.090, 9.405e-6
-1.091, 9.405e-6
-1.092, 9.405e-6
-1.093, 9.405e-6
-1.094, 9.405e-6
-1.095, 9.405e-6
-1.096, 9.405e-6
-1.097, 9.405e-6
-1.098, 1.249e-5
-1.099, 9.405e-6
-1.100, 9.405e-6
-1.101, 9.405e-6
-1.102, 1.249e-5
-1.103, 1.249e-5
-1.104, 9.405e-6
-1.105, 9.405e-6
-1.106, 9.405e-6
-1.107, 9.405e-6
-1.108, 1.249e-5
-1.109, 1.249e-5
-1.110, 1.249e-5
-1.111, 1.249e-5
-1.112, 1.249e-5
-1.113, 1.249e-5
-1.114, 1.249e-5
-1.115, 1.249e-5
-1.116, 1.249e-5
-1.117, 1.249e-5
-1.118, 1.249e-5
-1.119, 1.249e-5
-1.120, 1.249e-5
-1.121, 1.249e-5
-1.122, 1.249e-5
-1.123, 1.249e-5
-1.124, 1.249e-5
-1.125, 1.249e-5
-1.126, 1.249e-5
-1.127, 1.557e-5
-1.128, 1.557e-5
-1.129, 1.249e-5
-1.130, 1.557e-5
-1.131, 1.249e-5
-1.132, 1.249e-5
-1.133, 1.557e-5
-1.134, 1.557e-5
-1.135, 1.249e-5
-1.136, 1.249e-5
-1.137, 1.557e-5
-1.138, 1.557e-5
-1.139, 1.557e-5
-1.140, 1.249e-5
-1.141, 1.557e-5
-1.142, 1.557e-5
-1.143, 1.557e-5
-1.144, 1.557e-5
-1.145, 1.557e-5
-1.146, 1.557e-5
-1.147, 1.557e-5
-1.148, 1.557e-5
-1.149, 1.557e-5
-1.150, 1.557e-5
-1.151, 1.557e-5
-1.152, 1.557e-5
-1.153, 1.865e-5
-1.154, 1.557e-5
-1.155, 1.557e-5
-1.156, 1.865e-5
-1.157, 1.865e-5
-1.158, 1.865e-5
-1.159, 1.865e-5
-1.160, 1.865e-5
-1.161, 1.865e-5
-1.162, 1.865e-5
-1.163, 1.865e-5
-1.164, 1.865e-5
-1.165, 1.865e-5
-1.166, 1.865e-5
-1.167, 1.865e-5
-1.168, 1.865e-5
-1.169, 1.865e-5
-1.170, 1.865e-5
-1.171, 2.174e-5
-1.172, 2.174e-5
-1.173, 2.174e-5
-1.174, 2.174e-5
-1.175, 2.174e-5
-1.176, 2.174e-5
-1.177, 2.174e-5
-1.178, 2.174e-5
-1.179, 2.174e-5
-1.180, 2.174e-5
-1.181, 2.174e-5
-1.182, 2.174e-5
-1.183, 2.174e-5
-1.184, 2.174e-5
-1.185, 2.174e-5
-1.186, 2.174e-5
-1.187, 2.174e-5
-1.188, 2.482e-5
-1.189, 2.174e-5
-1.190, 2.482e-5
-1.191, 2.482e-5
-1.192, 2.482e-5
-1.193, 2.482e-5
-1.194, 2.482e-5
-1.195, 2.482e-5
-1.196, 2.790e-5
-1.197, 2.482e-5
-1.198, 2.790e-5
-1.199, 2.790e-5
-1.200, 2.482e-5
-1.201, 2.482e-5
-1.202, 2.790e-5
-1.203, 2.790e-5
-1.204, 2.790e-5
-1.205, 2.790e-5
-1.206, 2.790e-5
-1.207, 2.790e-5
-1.208, 2.790e-5
-1.209, 2.790e-5
-1.210, 3.099e-5
-1.211, 3.099e-5
-1.212, 3.099e-5
-1.213, 3.099e-5
-1.214, 3.099e-5
-1.215, 3.099e-5
-1.216, 3.099e-5
-1.217, 3.099e-5
-1.218, 3.099e-5
-1.219, 3.099e-5
-1.220, 3.099e-5
-1.221, 3.099e-5
-1.222, 3.407e-5
-1.223, 3.407e-5
-1.224, 3.407e-5
-1.225, 3.407e-5
-1.226, 3.407e-5
-1.227, 3.407e-5
-1.228, 3.407e-5
-1.229, 3.407e-5
-1.230, 3.407e-5
-1.231, 3.715e-5
-1.232, 3.407e-5
-1.233, 3.715e-5
-1.234, 3.715e-5
-1.235, 3.715e-5
-1.236, 3.715e-5
-1.237, 3.715e-5
-1.238, 3.715e-5
-1.239, 3.715e-5
-1.240, 3.715e-5
-1.241, 3.715e-5
-1.242, 4.024e-5
-1.243, 4.024e-5
-1.244, 4.024e-5
-1.245, 4.024e-5
-1.246, 4.024e-5
-1.247, 4.024e-5
-1.248, 4.024e-5
-1.249, 4.024e-5
-1.250, 4.332e-5
-1.251, 4.332e-5
-1.252, 4.332e-5
-1.253, 4.332e-5
-1.254, 4.332e-5
-1.255, 4.332e-5
-1.256, 4.332e-5
-1.257, 4.332e-5
-1.258, 4.332e-5
-1.259, 4.332e-5
-1.260, 4.332e-5
-1.261, 4.332e-5
-1.262, 4.640e-5
-1.263, 4.640e-5
-1.264, 4.640e-5
-1.265, 4.640e-5
-1.266, 4.640e-5
-1.267, 4.640e-5
-1.268, 4.640e-5
-1.269, 4.640e-5
-1.270, 4.640e-5
-1.271, 4.640e-5
-1.272, 4.949e-5
-1.273, 4.949e-5
-1.274, 4.949e-5
-1.275, 4.949e-5
-1.276, 4.949e-5
-1.277, 4.949e-5
-1.278, 4.949e-5
-1.279, 4.949e-5
-1.280, 4.949e-5
-1.281, 5.257e-5
-1.282, 5.257e-5
-1.283, 5.257e-5
-1.284, 5.257e-5
-1.285, 5.257e-5
-1.286, 5.257e-5
-1.287, 5.257e-5
-1.288, 5.257e-5
-1.289, 5.257e-5
-1.290, 5.257e-5
-1.291, 5.257e-5
-1.292, 5.257e-5
-1.293, 5.565e-5
-1.294, 5.565e-5
-1.295, 5.257e-5
-1.296, 5.565e-5
-1.297, 5.565e-5
-1.298, 5.565e-5
-1.299, 5.565e-5
-1.300, 5.565e-5
-1.301, 5.565e-5
-1.302, 5.565e-5
-1.303, 5.565e-5
-1.304, 5.565e-5
-1.305, 5.565e-5
-1.306, 5.565e-5
-1.307, 5.565e-5
-1.308, 5.565e-5
-1.309, 5.565e-5
-1.310, 5.565e-5
-1.311, 5.565e-5
-1.312, 5.565e-5
-1.313, 5.565e-5
-1.314, 5.565e-5
-1.315, 5.565e-5
-1.316, 5.565e-5
-1.317, 5.565e-5
-1.318, 5.565e-5
-1.319, 5.565e-5
-1.320, 5.565e-5
-1.321, 5.565e-5
-1.322, 5.565e-5
-1.323, 5.565e-5
-1.324, 5.565e-5
-1.325, 5.565e-5
-1.326, 5.565e-5
-1.327, 5.565e-5
-1.328, 5.565e-5
-1.329, 5.257e-5
-1.330, 5.257e-5
-1.331, 5.257e-5
-1.332, 5.257e-5
-1.333, 5.257e-5
-1.334, 5.257e-5
-1.335, 5.257e-5
-1.336, 5.257e-5
-1.337, 5.257e-5
-1.338, 4.949e-5
-1.339, 4.949e-5
-1.340, 4.949e-5
-1.341, 4.949e-5
-1.342, 4.949e-5
-1.343, 4.949e-5
-1.344, 4.949e-5
-1.345, 4.640e-5
-1.346, 4.640e-5
-1.347, 4.640e-5
-1.348, 4.640e-5
-1.349, 4.640e-5
-1.350, 4.640e-5
-1.351, 4.640e-5
-1.352, 4.332e-5
-1.353, 4.332e-5
-1.354, 4.332e-5
-1.355, 4.332e-5
-1.356, 4.332e-5
-1.357, 4.024e-5
-1.358, 4.024e-5
-1.359, 4.024e-5
-1.360, 4.024e-5
-1.361, 4.024e-5
-1.362, 4.024e-5
-1.363, 4.024e-5
-1.364, 3.715e-5
-1.365, 3.715e-5
-1.366, 3.715e-5
-1.367, 3.715e-5
-1.368, 3.715e-5
-1.369, 3.407e-5
-1.370, 3.715e-5
-1.371, 3.407e-5
-1.372, 3.715e-5
-1.373, 3.407e-5
-1.374, 3.407e-5
-1.375, 3.407e-5
-1.376, 3.407e-5
-1.377, 3.407e-5
-1.378, 3.407e-5
-1.379, 3.407e-5
-1.380, 3.407e-5
-1.381, 3.407e-5
-1.382, 3.407e-5
-1.383, 3.407e-5
-1.384, 3.407e-5
-1.385, 3.099e-5
-1.386, 3.099e-5
-1.387, 3.099e-5
-1.388, 3.099e-5
-1.389, 3.099e-5
-1.390, 3.099e-5
-1.391, 3.099e-5
-1.392, 3.099e-5
-1.393, 3.407e-5
-1.394, 3.099e-5
-1.395, 3.099e-5
-1.396, 3.099e-5
-1.397, 3.099e-5
-1.398, 3.099e-5
-1.399, 3.099e-5
-1.400, 3.099e-5
-1.401, 3.099e-5
-1.402, 3.099e-5
-1.403, 3.099e-5
-1.404, 3.099e-5
-1.405, 3.099e-5
-1.406, 3.099e-5
-1.407, 3.099e-5
-1.408, 3.099e-5
-1.409, 3.099e-5
-1.410, 3.099e-5
-1.411, 3.099e-5
-1.412, 3.099e-5
-1.413, 3.099e-5
-1.414, 3.099e-5
-1.415, 3.099e-5
-1.416, 3.099e-5
-1.417, 3.099e-5
-1.418, 3.099e-5
-1.419, 3.099e-5
-1.420, 3.099e-5
-1.421, 3.099e-5
-1.422, 3.099e-5
-1.423, 3.099e-5
-1.424, 3.099e-5
-1.425, 3.099e-5
-1.426, 3.099e-5
-1.427, 3.099e-5
-1.428, 3.099e-5
-1.429, 3.099e-5
-1.430, 3.099e-5
-1.431, 3.099e-5
-1.432, 3.099e-5
-1.433, 3.099e-5
-1.434, 3.099e-5
-1.435, 3.099e-5
-1.436, 3.099e-5
-1.437, 3.099e-5
-1.438, 3.099e-5
-1.439, 3.099e-5
-1.440, 3.099e-5
-1.441, 3.099e-5
-1.442, 3.099e-5
-1.443, 3.099e-5
-1.444, 3.099e-5
-1.445, 3.099e-5
-1.446, 3.099e-5
-1.447, 3.099e-5
-1.448, 3.099e-5
-1.449, 3.099e-5
-1.450, 3.099e-5
-1.451, 3.099e-5
-1.452, 3.099e-5
-1.453, 3.407e-5
-1.454, 3.099e-5
-1.455, 3.099e-5
-1.456, 3.407e-5
-1.457, 3.099e-5
-1.458, 3.099e-5
-1.459, 3.407e-5
-1.460, 3.099e-5
-1.461, 3.407e-5
-1.462, 3.407e-5
-1.463, 3.407e-5
-1.464, 3.407e-5
-1.465, 3.407e-5
-1.466, 3.407e-5
-1.467, 3.407e-5
-1.468, 3.407e-5
-1.469, 3.407e-5
-1.470, 3.407e-5
-1.471, 3.407e-5
-1.472, 3.407e-5
-1.473, 3.715e-5
-1.474, 3.407e-5
-1.475, 3.407e-5
-1.476, 3.407e-5
-1.477, 3.407e-5
-1.478, 3.715e-5
-1.479, 3.715e-5
-1.480, 3.407e-5
-1.481, 3.715e-5
-1.482, 3.715e-5
-1.483, 3.715e-5
-1.484, 3.715e-5
-1.485, 3.715e-5
-1.486, 3.715e-5
-1.487, 3.715e-5
-1.488, 3.715e-5
-1.489, 3.715e-5
-1.490, 3.715e-5
-1.491, 3.715e-5
-1.492, 3.715e-5
-1.493, 3.715e-5
-1.494, 3.715e-5
-1.495, 4.024e-5
-1.496, 4.024e-5
-1.497, 4.024e-5
-1.498, 4.024e-5
-1.499, 4.024e-5
-1.500, 4.024e-5
-1.501, 4.024e-5
-1.502, 4.024e-5
-1.503, 4.024e-5
-1.504, 4.024e-5
-1.505, 4.024e-5
-1.506, 4.024e-5
-1.507, 4.024e-5
-1.508, 4.024e-5
-1.509, 4.332e-5
-1.510, 4.332e-5
-1.511, 4.332e-5
-1.512, 4.332e-5
-1.513, 4.332e-5
-1.514, 4.332e-5
-1.515, 4.332e-5
-1.516, 4.332e-5
-1.517, 4.332e-5
-1.518, 4.332e-5
-1.519, 4.640e-5
-1.520, 4.332e-5
-1.521, 4.640e-5
-1.522, 4.640e-5
-1.523, 4.640e-5
-1.524, 4.640e-5
-1.525, 4.640e-5
-1.526, 4.640e-5
-1.527, 4.640e-5
-1.528, 4.640e-5
-1.529, 4.640e-5
-1.530, 4.640e-5
-1.531, 4.640e-5
-1.532, 4.949e-5
-1.533, 4.949e-5
-1.534, 4.949e-5
-1.535, 4.949e-5
-1.536, 4.949e-5
-1.537, 4.949e-5
-1.538, 5.257e-5
-1.539, 5.257e-5
-1.540, 5.257e-5
-1.541, 5.257e-5
-1.542, 5.257e-5
-1.543, 5.257e-5
-1.544, 5.257e-5
-1.545, 5.565e-5
-1.546, 5.565e-5
-1.547, 5.565e-5
-1.548, 5.565e-5
-1.549, 5.565e-5
-1.550, 5.565e-5
-1.551, 5.565e-5
-1.552, 5.873e-5
-1.553, 5.873e-5
-1.554, 5.873e-5
-1.555, 5.873e-5
-1.556, 5.873e-5
-1.557, 5.873e-5
-1.558, 5.873e-5
-1.559, 5.873e-5
-1.560, 5.873e-5
-1.561, 6.182e-5
-1.562, 6.182e-5
-1.563, 6.182e-5
-1.564, 6.182e-5
-1.565, 6.490e-5
-1.566, 6.182e-5
-1.567, 6.490e-5
-1.568, 6.490e-5
-1.569, 6.490e-5
-1.570, 6.490e-5
-1.571, 6.490e-5
-1.572, 6.798e-5
-1.573, 6.798e-5
-1.574, 6.798e-5
-1.575, 7.107e-5
-1.576, 7.107e-5
-1.577, 7.107e-5
-1.578, 7.107e-5
-1.579, 7.107e-5
-1.580, 7.107e-5
-1.581, 7.415e-5
-1.582, 7.415e-5
-1.583, 7.415e-5
-1.584, 7.723e-5
-1.585, 7.723e-5
-1.586, 7.723e-5
-1.587, 7.723e-5
-1.588, 8.032e-5
-1.589, 8.032e-5
-1.590, 8.032e-5
-1.591, 8.032e-5
-1.592, 8.340e-5
-1.593, 8.340e-5
-1.594, 8.340e-5
-1.595, 8.648e-5
-1.596, 8.648e-5
-1.597, 8.648e-5
-1.598, 8.957e-5
-1.599, 8.957e-5
-1.600, 8.957e-5
-1.601, 9.265e-5
-1.602, 9.573e-5
-1.603, 9.573e-5
-1.604, 9.573e-5
-1.605, 9.573e-5
-1.606, 9.882e-5
-1.607, 9.882e-5
-1.608, 9.882e-5
-1.609, 1.019e-4
-1.610, 1.019e-4
-1.611, 1.050e-4
-1.612, 1.050e-4
-1.613, 1.081e-4
-1.614, 1.081e-4
-1.615, 1.111e-4
-1.616, 1.111e-4
-1.617, 1.142e-4
-1.618, 1.142e-4
-1.619, 1.173e-4
-1.620, 1.173e-4
-1.621, 1.204e-4
-1.622, 1.235e-4
-1.623, 1.266e-4
-1.624, 1.266e-4
-1.625, 1.296e-4
-1.626, 1.296e-4
-1.627, 1.327e-4
-1.628, 1.327e-4
-1.629, 1.358e-4
-1.630, 1.389e-4
-1.631, 1.420e-4
-1.632, 1.420e-4
-1.633, 1.451e-4
-1.634, 1.481e-4
-1.635, 1.512e-4
-1.636, 1.543e-4
-1.637, 1.574e-4
-1.638, 1.605e-4
-1.639, 1.605e-4
-1.640, 1.636e-4
-1.641, 1.666e-4
-1.642, 1.728e-4
-1.643, 1.759e-4
-1.644, 1.790e-4
-1.645, 1.821e-4
-1.646, 1.851e-4
-1.647, 1.882e-4
-1.648, 1.913e-4
-1.649, 1.944e-4
-1.650, 1.975e-4
-1.651, 2.006e-4
-1.652, 2.067e-4
-1.653, 2.098e-4
-1.654, 2.129e-4
-1.655, 2.191e-4
-1.656, 2.221e-4
-1.657, 2.283e-4
-1.658, 2.314e-4
-1.659, 2.345e-4
-1.660, 2.406e-4
-1.661, 2.468e-4
-1.662, 2.530e-4
-1.663, 2.561e-4
-1.664, 2.622e-4
-1.665, 2.684e-4
-1.666, 2.746e-4
-1.667, 2.807e-4
-1.668, 2.869e-4
-1.669, 2.900e-4
-1.670, 2.992e-4
-1.671, 3.054e-4
-1.672, 3.115e-4
-1.673, 3.208e-4
-1.674, 3.270e-4
-1.675, 3.331e-4
-1.676, 3.424e-4
-1.677, 3.485e-4
-1.678, 3.547e-4
-1.679, 3.640e-4
-1.680, 3.701e-4
-1.681, 3.825e-4
-1.682, 3.886e-4
-1.683, 3.979e-4
-1.684, 4.071e-4
-1.685, 4.195e-4
-1.686, 4.256e-4
-1.687, 4.380e-4
-1.688, 4.472e-4
-1.689, 4.565e-4
-1.690, 4.657e-4
-1.691, 4.780e-4
-1.692, 4.904e-4
-1.693, 5.027e-4
-1.694, 5.150e-4
-1.695, 5.243e-4
-1.696, 5.397e-4
-1.697, 5.489e-4
-1.698, 5.644e-4
-1.699, 5.767e-4
-1.700, 5.890e-4
-1.701, 6.044e-4
-1.702, 6.199e-4
-1.703, 6.322e-4
-1.704, 6.507e-4
-1.705, 6.661e-4
-1.706, 6.815e-4
-1.707, 6.969e-4
-1.708, 7.124e-4
-1.709, 7.309e-4
-1.710, 7.463e-4
-1.711, 7.648e-4
-1.712, 7.833e-4
-1.713, 8.048e-4
-1.714, 8.233e-4
-1.715, 8.418e-4
-1.716, 8.634e-4
-1.717, 8.850e-4
-1.718, 9.035e-4
-1.719, 9.251e-4
-1.720, 9.467e-4
-1.721, 9.683e-4
-1.722, 9.929e-4
-1.723, 1.018e-3
-1.724, 1.042e-3
-1.725, 1.067e-3
-1.726, 1.092e-3
-1.727, 1.116e-3
-1.728, 1.141e-3
-1.729, 1.166e-3
-1.730, 1.193e-3
-1.731, 1.218e-3
-1.732, 1.249e-3
-1.733, 1.277e-3
-1.734, 1.307e-3
-1.735, 1.338e-3
-1.736, 1.369e-3
-1.737, 1.400e-3
-1.738, 1.431e-3
-1.739, 1.462e-3
-1.740, 1.492e-3
-1.741, 1.526e-3
-1.742, 1.560e-3
-1.743, 1.597e-3
-1.744, 1.634e-3
-1.745, 1.671e-3
-1.746, 1.708e-3
-1.747, 1.748e-3
-1.748, 1.785e-3
-1.749, 1.819e-3
-1.750, 1.859e-3
-1.751, 1.899e-3
-1.752, 1.943e-3
-1.753, 1.986e-3
-1.754, 2.029e-3
-1.755, 2.072e-3
-1.756, 2.118e-3
-1.757, 2.161e-3
-1.758, 2.205e-3
-1.759, 2.248e-3
-1.760, 2.294e-3
-1.761, 2.340e-3
-1.762, 2.390e-3
-1.763, 2.439e-3
-1.764, 2.488e-3
-1.765, 2.541e-3
-1.766, 2.590e-3
-1.767, 2.642e-3
-1.768, 2.692e-3
-1.769, 2.741e-3
-1.770, 2.793e-3
-1.771, 2.846e-3
-1.772, 2.901e-3
-1.773, 2.957e-3
-1.774, 3.012e-3
-1.775, 3.071e-3
-1.776, 3.126e-3
-1.777, 3.182e-3
-1.778, 3.241e-3
-1.779, 3.299e-3
-1.780, 3.358e-3
-1.781, 3.419e-3
-1.782, 3.481e-3
-1.783, 3.546e-3
-1.784, 3.610e-3
-1.785, 3.675e-3
-1.786, 3.740e-3
-1.787, 3.805e-3
-1.788, 3.866e-3
-1.789, 3.934e-3
-1.790, 4.002e-3
-1.791, 4.070e-3
-1.792, 4.141e-3
-1.793, 4.215e-3
-1.794, 4.289e-3
-1.795, 4.363e-3
-1.796, 4.434e-3
-1.797, 4.505e-3
-1.798, 4.575e-3
-1.799, 4.646e-3
-1.800, 4.686e-3
-1.799, 4.668e-3
-1.798, 4.646e-3
-1.797, 4.622e-3
-1.796, 4.597e-3
-1.795, 4.569e-3
-1.794, 4.538e-3
-1.793, 4.505e-3
-1.792, 4.468e-3
-1.791, 4.428e-3
-1.790, 4.394e-3
-1.789, 4.360e-3
-1.788, 4.326e-3
-1.787, 4.292e-3
-1.786, 4.255e-3
-1.785, 4.221e-3
-1.784, 4.184e-3
-1.783, 4.147e-3
-1.782, 4.107e-3
-1.781, 4.070e-3
-1.780, 4.030e-3
-1.779, 3.993e-3
-1.778, 3.959e-3
-1.777, 3.922e-3
-1.776, 3.888e-3
-1.775, 3.854e-3
-1.774, 3.814e-3
-1.773, 3.777e-3
-1.772, 3.737e-3
-1.771, 3.697e-3
-1.770, 3.660e-3
-1.769, 3.623e-3
-1.768, 3.586e-3
-1.767, 3.552e-3
-1.766, 3.515e-3
-1.765, 3.478e-3
-1.764, 3.441e-3
-1.763, 3.401e-3
-1.762, 3.364e-3
-1.761, 3.324e-3
-1.760, 3.284e-3
-1.759, 3.247e-3
-1.758, 3.213e-3
-1.757, 3.176e-3
-1.756, 3.139e-3
-1.755, 3.102e-3
-1.754, 3.065e-3
-1.753, 3.028e-3
-1.752, 2.988e-3
-1.751, 2.948e-3
-1.750, 2.911e-3
-1.749, 2.874e-3
-1.748, 2.840e-3
-1.747, 2.806e-3
-1.746, 2.769e-3
-1.745, 2.738e-3
-1.744, 2.701e-3
-1.743, 2.664e-3
-1.742, 2.627e-3
-1.741, 2.593e-3
-1.740, 2.556e-3
-1.739, 2.525e-3
-1.738, 2.491e-3
-1.737, 2.464e-3
-1.736, 2.433e-3
-1.735, 2.399e-3
-1.734, 2.365e-3
-1.733, 2.334e-3
-1.732, 2.300e-3
-1.731, 2.269e-3
-1.730, 2.238e-3
-1.729, 2.208e-3
-1.728, 2.177e-3
-1.727, 2.152e-3
-1.726, 2.121e-3
-1.725, 2.094e-3
-1.724, 2.063e-3
-1.723, 2.035e-3
-1.722, 2.004e-3
-1.721, 1.976e-3
-1.720, 1.946e-3
-1.719, 1.921e-3
-1.718, 1.893e-3
-1.717, 1.865e-3
-1.716, 1.841e-3
-1.715, 1.813e-3
-1.714, 1.788e-3
-1.713, 1.761e-3
-1.712, 1.733e-3
-1.711, 1.705e-3
-1.710, 1.680e-3
-1.709, 1.656e-3
-1.708, 1.631e-3
-1.707, 1.610e-3
-1.706, 1.585e-3
-1.705, 1.560e-3
-1.704, 1.539e-3
-1.703, 1.514e-3
-1.702, 1.489e-3
-1.701, 1.465e-3
-1.700, 1.440e-3
-1.699, 1.418e-3
-1.698, 1.400e-3
-1.697, 1.378e-3
-1.696, 1.357e-3
-1.695, 1.335e-3
-1.694, 1.314e-3
-1.693, 1.295e-3
-1.692, 1.270e-3
-1.691, 1.249e-3
-1.690, 1.230e-3
-1.689, 1.209e-3
-1.688, 1.190e-3
-1.687, 1.175e-3
-1.686, 1.156e-3
-1.685, 1.138e-3
-1.684, 1.116e-3
-1.683, 1.098e-3
-1.682, 1.082e-3
-1.681, 1.061e-3
-1.680, 1.042e-3
-1.679, 1.027e-3
-1.678, 1.011e-3
-1.677, 9.929e-4
-1.676, 9.775e-4
-1.675, 9.621e-4
-1.674, 9.436e-4
-1.673, 9.282e-4
-1.672, 9.128e-4
-1.671, 8.973e-4
-1.670, 8.819e-4
-1.669, 8.665e-4
-1.668, 8.511e-4
-1.667, 8.357e-4
-1.666, 8.233e-4
-1.665, 8.079e-4
-1.664, 7.925e-4
-1.663, 7.771e-4
-1.662, 7.648e-4
-1.661, 7.494e-4
-1.660, 7.370e-4
-1.659, 7.247e-4
-1.658, 7.124e-4
-1.657, 7.000e-4
-1.656, 6.877e-4
-1.655, 6.754e-4
-1.654, 6.630e-4
-1.653, 6.507e-4
-1.652, 6.384e-4
-1.651, 6.260e-4
-1.650, 6.137e-4
-1.649, 6.044e-4
-1.648, 5.921e-4
-1.647, 5.829e-4
-1.646, 5.736e-4
-1.645, 5.644e-4
-1.644, 5.520e-4
-1.643, 5.428e-4
-1.642, 5.305e-4
-1.641, 5.212e-4
-1.640, 5.089e-4
-1.639, 5.027e-4
-1.638, 4.935e-4
-1.637, 4.842e-4
-1.636, 4.750e-4
-1.635, 4.657e-4
-1.634, 4.565e-4
-1.633, 4.472e-4
-1.632, 4.380e-4
-1.631, 4.318e-4
-1.630, 4.225e-4
-1.629, 4.133e-4
-1.628, 4.071e-4
-1.627, 4.010e-4
-1.626, 3.917e-4
-1.625, 3.855e-4
-1.624, 3.763e-4
-1.623, 3.701e-4
-1.622, 3.609e-4
-1.621, 3.547e-4
-1.620, 3.485e-4
-1.619, 3.424e-4
-1.618, 3.362e-4
-1.617, 3.270e-4
-1.616, 3.208e-4
-1.615, 3.146e-4
-1.614, 3.085e-4
-1.613, 3.023e-4
-1.612, 2.961e-4
-1.611, 2.900e-4
-1.610, 2.838e-4
-1.609, 2.776e-4
-1.608, 2.746e-4
-1.607, 2.684e-4
-1.606, 2.622e-4
-1.605, 2.591e-4
-1.604, 2.530e-4
-1.603, 2.468e-4
-1.602, 2.437e-4
-1.601, 2.376e-4
-1.600, 2.314e-4
-1.599, 2.283e-4
-1.598, 2.221e-4
-1.597, 2.191e-4
-1.596, 2.160e-4
-1.595, 2.098e-4
-1.594, 2.036e-4
-1.593, 2.006e-4
-1.592, 1.975e-4
-1.591, 1.913e-4
-1.590, 1.882e-4
-1.589, 1.851e-4
-1.588, 1.821e-4
-1.587, 1.790e-4
-1.586, 1.728e-4
-1.585, 1.697e-4
-1.584, 1.666e-4
-1.583, 1.636e-4
-1.582, 1.605e-4
-1.581, 1.574e-4
-1.580, 1.512e-4
-1.579, 1.481e-4
-1.578, 1.451e-4
-1.577, 1.451e-4
-1.576, 1.420e-4
-1.575, 1.389e-4
-1.574, 1.327e-4
-1.573, 1.327e-4
-1.572, 1.296e-4
-1.571, 1.266e-4
-1.570, 1.235e-4
-1.569, 1.204e-4
-1.568, 1.173e-4
-1.567, 1.173e-4
-1.566, 1.142e-4
-1.565, 1.111e-4
-1.564, 1.081e-4
-1.563, 1.050e-4
-1.562, 1.019e-4
-1.561, 1.019e-4
-1.560, 9.882e-5
-1.559, 9.573e-5
-1.558, 9.573e-5
-1.557, 9.265e-5
-1.556, 8.957e-5
-1.555, 8.957e-5
-1.554, 8.648e-5
-1.553, 8.340e-5
-1.552, 8.340e-5
-1.551, 8.032e-5
-1.550, 8.032e-5
-1.549, 7.723e-5
-1.548, 7.723e-5
-1.547, 7.415e-5
-1.546, 7.107e-5
-1.545, 7.107e-5
-1.544, 6.798e-5
-1.543, 6.798e-5
-1.542, 6.490e-5
-1.541, 6.490e-5
-1.540, 6.182e-5
-1.539, 6.182e-5
-1.538, 5.873e-5
-1.537, 5.873e-5
-1.536, 5.565e-5
-1.535, 5.565e-5
-1.534, 5.257e-5
-1.533, 5.257e-5
-1.532, 5.257e-5
-1.531, 4.949e-5
-1.530, 4.949e-5
-1.529, 4.640e-5
-1.528, 4.640e-5
-1.527, 4.640e-5
-1.526, 4.332e-5
-1.525, 4.332e-5
-1.524, 4.332e-5
-1.523, 4.024e-5
-1.522, 4.024e-5
-1.521, 3.715e-5
-1.520, 3.715e-5
-1.519, 3.715e-5
-1.518, 3.715e-5
-1.517, 3.715e-5
-1.516, 3.407e-5
-1.515, 3.407e-5
-1.514, 3.099e-5
-1.513, 3.099e-5
-1.512, 3.099e-5
-1.511, 2.790e-5
-1.510, 2.790e-5
-1.509, 2.790e-5
-1.508, 2.790e-5
-1.507, 2.790e-5
-1.506, 2.482e-5
-1.505, 2.482e-5
-1.504, 2.482e-5
-1.503, 2.174e-5
-1.502, 2.174e-5
-1.501, 2.174e-5
-1.500, 2.174e-5
-1.499, 2.174e-5
-1.498, 2.174e-5
-1.497, 1.865e-5
-1.496, 1.865e-5
-1.495, 1.865e-5
-1.494, 1.557e-5
-1.493, 1.865e-5
-1.492, 1.557e-5
-1.491, 1.557e-5
-1.490, 1.557e-5
-1.489, 1.557e-5
-1.488, 1.557e-5
-1.487, 1.557e-5
-1.486, 1.249e-5
-1.485, 1.249e-5
-1.484, 1.249e-5
-1.483, 1.249e-5
-1.482, 9.405e-6
-1.481, 9.405e-6
-1.480, 9.405e-6
-1.479, 9.405e-6
-1.478, 9.405e-6
-1.477, 9.405e-6
-1.476, 9.405e-6
-1.475, 9.405e-6
-1.474, 6.322e-6
-1.473, 6.322e-6
-1.472, 6.322e-6
-1.471, 6.322e-6
-1.470, 6.322e-6
-1.469, 6.322e-6
-1.468, 6.322e-6
-1.467, 6.322e-6
-1.466, 6.322e-6
-1.465, 3.239e-6
-1.464, 3.239e-6
-1.463, 3.239e-6
-1.462, 3.239e-6
-1.461, 3.239e-6
-1.460, 3.239e-6
-1.459, 3.239e-6
-1.458, 3.239e-6
-1.457, 3.239e-6
-1.456, 3.239e-6
-1.455, 3.239e-6
-1.454, 1.559e-7
-1.453, 1.559e-7
-1.452, 1.559e-7
-1.451, 1.559e-7
-1.450, 1.559e-7
-1.449, 1.559e-7
-1.448, 1.559e-7
-1.447, 1.559e-7
-1.446, 1.559e-7
-1.445, 1.559e-7
-1.444, 1.559e-7
-1.443, 1.559e-7
-1.442, 1.559e-7
-1.441, -2.927e-6
-1.440, -2.927e-6
-1.439, -2.927e-6
-1.438, -2.927e-6
-1.437, 1.559e-7
-1.436, -2.927e-6
-1.435, -2.927e-6
-1.434, -2.927e-6
-1.433, -2.927e-6
-1.432, -2.927e-6
-1.431, -6.010e-6
-1.430, -2.927e-6
-1.429, -2.927e-6
-1.428, -2.927e-6
-1.427, -2.927e-6
-1.426, -2.927e-6
-1.425, -6.010e-6
-1.424, -6.010e-6
-1.423, -6.010e-6
-1.422, -6.010e-6
-1.421, -6.010e-6
-1.420, -6.010e-6
-1.419, -6.010e-6
-1.418, -6.010e-6
-1.417, -6.010e-6
-1.416, -6.010e-6
-1.415, -6.010e-6
-1.414, -6.010e-6
-1.413, -6.010e-6
-1.412, -6.010e-6
-1.411, -6.010e-6
-1.410, -6.010e-6
-1.409, -6.010e-6
-1.408, -6.010e-6
-1.407, -6.010e-6
-1.406, -6.010e-6
-1.405, -6.010e-6
-1.404, -6.010e-6
-1.403, -9.093e-6
-1.402, -9.093e-6
-1.401, -6.010e-6
-1.400, -9.093e-6
-1.399, -9.093e-6
-1.398, -9.093e-6
-1.397, -9.093e-6
-1.396, -9.093e-6
-1.395, -9.093e-6
-1.394, -9.093e-6
-1.393, -9.093e-6
-1.392, -9.093e-6
-1.391, -9.093e-6
-1.390, -9.093e-6
-1.389, -9.093e-6
-1.388, -9.093e-6
-1.387, -9.093e-6
-1.386, -9.093e-6
-1.385, -9.093e-6
-1.384, -9.093e-6
-1.383, -9.093e-6
-1.382, -9.093e-6
-1.381, -9.093e-6
-1.380, -9.093e-6
-1.379, -9.093e-6
-1.378, -9.093e-6
-1.377, -9.093e-6
-1.376, -9.093e-6
-1.375, -9.093e-6
-1.374, -9.093e-6
-1.373, -9.093e-6
-1.372, -9.093e-6
-1.371, -9.093e-6
-1.370, -9.093e-6
-1.369, -9.093e-6
-1.368, -9.093e-6
-1.367, -9.093e-6
-1.366, -9.093e-6
-1.365, -1.218e-5
-1.364, -1.218e-5
-1.363, -9.093e-6
-1.362, -1.218e-5
-1.361, -1.218e-5
-1.360, -9.093e-6
-1.359, -9.093e-6
-1.358, -9.093e-6
-1.357, -9.093e-6
-1.356, -1.218e-5
-1.355, -1.218e-5
-1.354, -1.218e-5
-1.353, -9.093e-6
-1.352, -1.218e-5
-1.351, -1.218e-5
-1.350, -9.093e-6
-1.349, -1.218e-5
-1.348, -1.218e-5
-1.347, -1.218e-5
-1.346, -1.218e-5
-1.345, -1.218e-5
-1.344, -1.218e-5
-1.343, -1.218e-5
-1.342, -1.218e-5
-1.341, -1.218e-5
-1.340, -1.218e-5
-1.339, -1.218e-5
-1.338, -1.218e-5
-1.337, -1.218e-5
-1.336, -1.218e-5
-1.335, -1.218e-5
-1.334, -1.218e-5
-1.333, -1.218e-5
-1.332, -1.218e-5
-1.331, -1.218e-5
-1.330, -1.218e-5
-1.329, -1.218e-5
-1.328, -1.218e-5
-1.327, -1.218e-5
-1.326, -1.218e-5
-1.325, -1.218e-5
-1.324, -1.218e-5
-1.323, -1.218e-5
-1.322, -1.218e-5
-1.321, -1.218e-5
-1.320, -1.218e-5
-1.319, -1.218e-5
-1.318, -1.218e-5
-1.317, -1.218e-5
-1.316, -1.218e-5
-1.315, -1.218e-5
-1.314, -1.218e-5
-1.313, -1.218e-5
-1.312, -1.218e-5
-1.311, -1.218e-5
-1.310, -1.218e-5
-1.309, -1.218e-5
-1.308, -1.218e-5
-1.307, -1.218e-5
-1.306, -1.218e-5
-1.305, -1.218e-5
-1.304, -1.218e-5
-1.303, -1.218e-5
-1.302, -1.218e-5
-1.301, -1.218e-5
-1.300, -1.218e-5
-1.299, -1.218e-5
-1.298, -1.218e-5
-1.297, -1.218e-5
-1.296, -1.218e-5
-1.295, -1.218e-5
-1.294, -1.218e-5
-1.293, -1.218e-5
-1.292, -1.218e-5
-1.291, -1.218e-5
-1.290, -1.218e-5
-1.289, -1.218e-5
-1.288, -1.218e-5
-1.287, -1.218e-5
-1.286, -1.218e-5
-1.285, -1.218e-5
-1.284, -1.218e-5
-1.283, -1.218e-5
-1.282, -1.218e-5
-1.281, -1.218e-5
-1.280, -1.218e-5
-1.279, -1.218e-5
-1.278, -1.218e-5
-1.277, -1.218e-5
-1.276, -1.218e-5
-1.275, -1.218e-5
-1.274, -1.218e-5
-1.273, -1.218e-5
-1.272, -1.218e-5
-1.271, -1.218e-5
-1.270, -1.218e-5
-1.269, -1.218e-5
-1.268, -1.218e-5
-1.267, -1.218e-5
-1.266, -1.218e-5
-1.265, -1.218e-5
-1.264, -1.218e-5
-1.263, -1.218e-5
-1.262, -1.526e-5
-1.261, -1.218e-5
-1.260, -1.218e-5
-1.259, -1.218e-5
-1.258, -1.218e-5
-1.257, -1.526e-5
-1.256, -1.218e-5
-1.255, -1.218e-5
-1.254, -1.526e-5
-1.253, -1.218e-5
-1.252, -1.218e-5
-1.251, -1.526e-5
-1.250, -1.526e-5
-1.249, -1.218e-5
-1.248, -1.526e-5
-1.247, -1.218e-5
-1.246, -1.526e-5
-1.245, -1.218e-5
-1.244, -1.218e-5
-1.243, -1.526e-5
-1.242, -1.218e-5
-1.241, -1.526e-5
-1.240, -1.526e-5
-1.239, -1.526e-5
-1.238, -1.218e-5
-1.237, -1.526e-5
-1.236, -1.526e-5
-1.235, -1.218e-5
-1.234, -1.218e-5
-1.233, -1.218e-5
-1.232, -1.218e-5
-1.231, -1.526e-5
-1.230, -1.218e-5
-1.229, -1.218e-5
-1.228, -1.526e-5
-1.227, -1.218e-5
-1.226, -1.526e-5
-1.225, -1.526e-5
-1.224, -1.218e-5
-1.223, -1.526e-5
-1.222, -1.526e-5
-1.221, -1.526e-5
-1.220, -1.526e-5
-1.219, -1.218e-5
-1.218, -1.218e-5
-1.217, -1.218e-5
-1.216, -1.218e-5
-1.215, -1.526e-5
-1.214, -1.526e-5
-1.213, -1.526e-5
-1.212, -1.218e-5
-1.211, -1.526e-5
-1.210, -1.526e-5
-1.209, -1.526e-5
-1.208, -1.526e-5
-1.207, -1.526e-5
-1.206, -1.526e-5
-1.205, -1.526e-5
-1.204, -1.526e-5
-1.203, -1.526e-5
-1.202, -1.526e-5
-1.201, -1.526e-5
-1.200, -1.526e-5
-1.199, -1.526e-5
-1.198, -1.218e-5
-1.197, -1.526e-5
-1.196, -1.526e-5
-1.195, -1.526e-5
-1.194, -1.526e-5
-1.193, -1.526e-5
-1.192, -1.526e-5
-1.191, -1.526e-5
-1.190, -1.526e-5
-1.189, -1.218e-5
-1.188, -1.526e-5
-1.187, -1.218e-5
-1.186, -1.526e-5
-1.185, -1.526e-5
-1.184, -1.526e-5
-1.183, -1.526e-5
-1.182, -1.526e-5
-1.181, -1.526e-5
-1.180, -1.526e-5
-1.179, -1.526e-5
-1.178, -1.218e-5
-1.177, -1.526e-5
-1.176, -1.526e-5
-1.175, -1.526e-5
-1.174, -1.526e-5
-1.173, -1.218e-5
-1.172, -1.526e-5
-1.171, -1.526e-5
-1.170, -1.526e-5
-1.169, -1.526e-5
-1.168, -1.526e-5
-1.167, -1.218e-5
-1.166, -1.526e-5
-1.165, -1.526e-5
-1.164, -1.526e-5
-1.163, -1.526e-5
-1.162, -1.526e-5
-1.161, -1.526e-5
-1.160, -1.526e-5
-1.159, -1.526e-5
-1.158, -1.526e-5
-1.157, -1.526e-5
-1.156, -1.526e-5
-1.155, -1.526e-5
-1.154, -1.526e-5
-1.153, -1.218e-5
-1.152, -1.526e-5
-1.151, -1.218e-5
-1.150, -1.526e-5
-1.149, -1.526e-5
-1.148, -1.526e-5
-1.147, -1.218e-5
-1.146, -1.526e-5
-1.145, -1.526e-5
-1.144, -1.218e-5
-1.143, -1.526e-5
-1.142, -1.526e-5
-1.141, -1.526e-5
-1.140, -1.526e-5
-1.139, -1.526e-5
-1.138, -1.218e-5
-1.137, -1.526e-5
-1.136, -1.526e-5
-1.135, -1.526e-5
-1.134, -1.526e-5
-1.133, -1.526e-5
-1.132, -1.526e-5
-1.131, -1.526e-5
-1.130, -1.218e-5
-1.129, -1.218e-5
-1.128, -1.526e-5
-1.127, -1.526e-5
-1.126, -1.526e-5
-1.125, -1.526e-5
-1.124, -1.526e-5
-1.123, -1.526e-5
-1.122, -1.526e-5
-1.121, -1.526e-5
-1.120, -1.526e-5
-1.119, -1.526e-5
-1.118, -1.218e-5
-1.117, -1.218e-5
-1.116, -1.526e-5
-1.115, -1.526e-5
-1.114, -1.526e-5
-1.113, -1.526e-5
-1.112, -1.526e-5
-1.111, -1.526e-5
-1.110, -1.526e-5
-1.109, -1.526e-5
-1.108, -1.526e-5
-1.107, -1.218e-5
-1.106, -1.526e-5
-1.105, -1.526e-5
-1.104, -1.526e-5
-1.103, -1.526e-5
-1.102, -1.526e-5
-1.101, -1.526e-5
-1.100, -1.526e-5
-1.099, -1.526e-5
-1.098, -1.526e-5
-1.097, -1.526e-5
-1.096, -1.526e-5
-1.095, -1.526e-5
-1.094, -1.526e-5
-1.093, -1.526e-5
-1.092, -1.526e-5
-1.091, -1.526e-5
-1.090, -1.526e-5
-1.089, -1.526e-5
-1.088, -1.526e-5
-1.087, -1.218e-5
-1.086, -1.526e-5
-1.085, -1.526e-5
-1.084, -1.526e-5
-1.083, -1.526e-5
-1.082, -1.526e-5
-1.081, -1.526e-5
-1.080, -1.526e-5
-1.079, -1.526e-5
-1.078, -1.526e-5
-1.077, -1.526e-5
-1.076, -1.526e-5
-1.075, -1.526e-5
-1.074, -1.526e-5
-1.073, -1.526e-5
-1.072, -1.526e-5
-1.071, -1.526e-5
-1.070, -1.526e-5
-1.069, -1.526e-5
-1.068, -1.526e-5
-1.067, -1.218e-5
-1.066, -1.526e-5
-1.065, -1.526e-5
-1.064, -1.526e-5
-1.063, -1.526e-5
-1.062, -1.526e-5
-1.061, -1.526e-5
-1.060, -1.526e-5
-1.059, -1.526e-5
-1.058, -1.526e-5
-1.057, -1.526e-5
-1.056, -1.526e-5
-1.055, -1.526e-5
-1.054, -1.526e-5
-1.053, -1.526e-5
-1.052, -1.526e-5
-1.051, -1.526e-5
-1.050, -1.526e-5
-1.049, -1.526e-5
-1.048, -1.526e-5
-1.047, -1.218e-5
-1.046, -1.526e-5
-1.045, -1.526e-5
-1.044, -1.526e-5
-1.043, -1.526e-5
-1.042, -1.526e-5
-1.041, -1.526e-5
-1.040, -1.526e-5
-1.039, -1.526e-5
-1.038, -1.526e-5
-1.037, -1.526e-5
-1.036, -1.526e-5
-1.035, -1.526e-5
-1.034, -1.526e-5
-1.033, -1.526e-5
-1.032, -1.526e-5
-1.031, -1.526e-5
-1.030, -1.526e-5
-1.029, -1.526e-5
-1.028, -1.526e-5
-1.027, -1.526e-5
-1.026, -1.526e-5
-1.025, -1.526e-5
-1.024, -1.526e-5
-1.023, -1.526e-5
-1.022, -1.526e-5
-1.021, -1.526e-5
-1.020, -1.526e-5
-1.019, -1.526e-5
-1.018, -1.526e-5
-1.017, -1.526e-5
-1.016, -1.526e-5
-1.015, -1.526e-5
-1.014, -1.526e-5
-1.013, -1.526e-5
-1.012, -1.526e-5
-1.011, -1.526e-5
-1.010, -1.526e-5
-1.009, -1.526e-5
-1.008, -1.526e-5
-1.007, -1.526e-5
-1.006, -1.526e-5
-1.005, -1.526e-5
-1.004, -1.526e-5
-1.003, -1.526e-5
-1.002, -1.526e-5
-1.001, -1.526e-5
