Potential V vs RHE, Current mA cm-2
0.05339999999999995,-0.08574565188481988
0.05239999999999995,-0.08737256987966466
0.051399999999999946,-0.08799504285160528
0.050399999999999945,-0.08840530912856613
0.049399999999999944,-0.08878728117952969
0.04839999999999994,-0.08914095900449596
0.04739999999999994,-0.08952293105545953
0.04639999999999994,-0.08983416754142984
0.04539999999999994,-0.09018784536639608
0.04439999999999994,-0.09051322896536505
0.04339999999999994,-0.0908103183383367
0.04239999999999994,-0.09109326059830972
0.04139999999999994,-0.09140449708428001
0.040399999999999936,-0.09167329223125438
0.039399999999999935,-0.09199867583022334
0.038399999999999934,-0.09228161809019635
0.03739999999999993,-0.09255041323717071
0.03639999999999993,-0.09284750261014235
0.03539999999999993,-0.09310215064411806
0.03439999999999993,-0.09338509290409107
0.03339999999999993,-0.09363974093806678
0.03239999999999993,-0.09389438897204248
0.03139999999999993,-0.09416318411901684
0.030399999999999927,-0.0944036850399939
0.029399999999999926,-0.09467248018696825
0.028399999999999925,-0.09491298110794531
0.027399999999999924,-0.09513933491592372
0.026399999999999924,-0.09540813006289808
0.025399999999999923,-0.09566277809687378
0.024399999999999922,-0.09588913190485218
0.02339999999999992,-0.09615792705182655
0.02239999999999992,-0.09639842797280361
0.02139999999999992,-0.096624781780782
0.020399999999999918,-0.09685113558876042
0.019399999999999917,-0.09707748939673881
0.018399999999999916,-0.09728969609171857
0.017399999999999916,-0.09753019701269564
0.016399999999999915,-0.0977424037076754
0.015399999999999914,-0.09795461040265514
0.014399999999999913,-0.09818096421063353
0.013399999999999912,-0.09840731801861195
0.012399999999999911,-0.09861952471359171
0.01139999999999991,-0.09886002563456876
0.01039999999999991,-0.09902979099055256
0.009399999999999908,-0.09925614479853098
0.008399999999999908,-0.09944005726751343
0.007399999999999907,-0.09966641107549183
0.006399999999999906,-0.09987861777047159
0.005399999999999905,-0.10009082446545134
0.004399999999999904,-0.10030303116043109
0.003399999999999903,-0.10048694362941356
0.002399999999999902,-0.10067085609839602
0.0013999999999999013,-0.10088306279337576
0.00039999999999990044,-0.10106697526235821
-0.0006000000000001005,-0.10126503484433932
-0.0016000000000001013,-0.10146309442632043
-0.0026000000000001022,-0.10161871266930558
-0.003600000000000103,-0.10183091936428534
-0.004600000000000104,-0.10200068472026914
-0.005600000000000105,-0.1021845971892516
-0.006600000000000106,-0.10234021543223674
-0.007600000000000107,-0.10248168656222324
-0.008600000000000108,-0.10269389325720302
-0.009600000000000108,-0.10283536438718952
-0.01060000000000011,-0.10300512974317333
-0.01160000000000011,-0.10320318932515443
-0.012600000000000111,-0.10337295468113822
-0.013600000000000112,-0.10352857292412339
-0.014600000000000113,-0.10368419116710853
-0.015600000000000114,-0.1038398094100937
-0.016600000000000115,-0.10399542765307884
-0.017600000000000116,-0.10413689878306535
-0.018600000000000116,-0.10427836991305185
-0.019600000000000117,-0.104433988156037
-0.020600000000000118,-0.10457545928602352
-0.02160000000000012,-0.10471693041601002
-0.02260000000000012,-0.10485840154599652
-0.02360000000000012,-0.10498572556298437
-0.024600000000000122,-0.10514134380596953
-0.025600000000000123,-0.10529696204895468
-0.026600000000000124,-0.10542428606594254
-0.027600000000000124,-0.10557990430892769
-0.028600000000000125,-0.1057213754389142
-0.029600000000000126,-0.10584869945590204
-0.030600000000000127,-0.10599017058588855
-0.03160000000000013,-0.1061174946028764
-0.03260000000000013,-0.10625896573286289
-0.03360000000000013,-0.10638628974985076
-0.03460000000000002,-0.10649946665383996
-0.03560000000000002,-0.10664093778382645
-0.03660000000000002,-0.10675411468781566
-0.03760000000000002,-0.10689558581780217
-0.03860000000000002,-0.10702290983479003
-0.039600000000000024,-0.10715023385177787
-0.040600000000000025,-0.10729170498176437
-0.041600000000000026,-0.10740488188575359
-0.04260000000000003,-0.10753220590274143
-0.04360000000000003,-0.10764538280673064
-0.04460000000000003,-0.10775855971071985
-0.04560000000000003,-0.1078858837277077
-0.04660000000000003,-0.1079990606316969
-0.04760000000000003,-0.10809809042268745
-0.04860000000000003,-0.10821126732667666
-0.04960000000000003,-0.1083102971176672
-0.050600000000000034,-0.10845176824765372
-0.051600000000000035,-0.10856494515164292
-0.052600000000000036,-0.10866397494263345
-0.053600000000000037,-0.10877715184662266
-0.05460000000000004,-0.10889032875061187
-0.05560000000000004,-0.10901765276759973
-0.05660000000000004,-0.10913082967158892
-0.05760000000000004,-0.10921571234958084
-0.05860000000000004,-0.1093430363665687
-0.05960000000000004,-0.10944206615755923
-0.06060000000000004,-0.10955524306154844
-0.061600000000000044,-0.10966841996553764
-0.06260000000000004,-0.10978159686952685
-0.06360000000000005,-0.1099089208865147
-0.06460000000000005,-0.11002209779050391
-0.06560000000000005,-0.11012112758149446
-0.06660000000000005,-0.11022015737248501
-0.06760000000000005,-0.11030504005047691
-0.06860000000000005,-0.11041821695446612
-0.06960000000000005,-0.11053139385845531
-0.07060000000000005,-0.11064457076244452
-0.07160000000000005,-0.11075774766643375
-0.07260000000000005,-0.11087092457042293
-0.07360000000000005,-0.11098410147441214
-0.07460000000000006,-0.11108313126540269
-0.07560000000000006,-0.11119630816939187
-0.07660000000000006,-0.11129533796038243
-0.07760000000000006,-0.11139436775137299
-0.07860000000000006,-0.1115075446553622
-0.07960000000000006,-0.1116207215593514
-0.08060000000000006,-0.11171975135034196
-0.08160000000000006,-0.11180463402833385
-0.08260000000000006,-0.1119319580453217
-0.08360000000000006,-0.1120734291753082
-0.08460000000000006,-0.11218660607929741
-0.08560000000000006,-0.11228563587028798
-0.08660000000000007,-0.11238466566127853
-0.08760000000000007,-0.11248369545226906
-0.08860000000000007,-0.11261101946925692
-0.08960000000000007,-0.11272419637324613
-0.09060000000000007,-0.11280907905123803
-0.09160000000000007,-0.11293640306822587
-0.09260000000000007,-0.11302128574621777
-0.09360000000000007,-0.1131627568762043
-0.09460000000000007,-0.11323349244119754
-0.09560000000000007,-0.11336081645818537
-0.09660000000000007,-0.11345984624917593
-0.09760000000000008,-0.11354472892716785
-0.09860000000000008,-0.11368620005715435
-0.09960000000000008,-0.11379937696114355
-0.10060000000000008,-0.11391255386513276
-0.10160000000000008,-0.11403987788212061
-0.10260000000000008,-0.11413890767311115
-0.10360000000000008,-0.11425208457710037
-0.10460000000000008,-0.11437940859408821
-0.10560000000000008,-0.11447843838507876
-0.10660000000000008,-0.11459161528906797
-0.10760000000000008,-0.11470479219305717
-0.10860000000000009,-0.11483211621004503
-0.10960000000000009,-0.11493114600103559
-0.11060000000000009,-0.11505847001802343
-0.11160000000000009,-0.11517164692201265
-0.11260000000000009,-0.11529897093900049
-0.11360000000000009,-0.1154121478429897
-0.11460000000000009,-0.11556776608597484
-0.11560000000000009,-0.11570923721596137
-0.11660000000000009,-0.11579411989395326
-0.1176000000000001,-0.11593559102393976
-0.1186000000000001,-0.11606291504092761
-0.1196000000000001,-0.11617609194491682
-0.1206000000000001,-0.11630341596190466
-0.1216000000000001,-0.11644488709189117
-0.1226000000000001,-0.11657221110887903
-0.1236000000000001,-0.11669953512586688
-0.1246000000000001,-0.11682685914285473
-0.1256000000000001,-0.11696833027284123
-0.1266000000000001,-0.11708150717683044
-0.1276000000000001,-0.11720883119381828
-0.1286000000000001,-0.11733615521080615
-0.1296000000000001,-0.11743518500179671
-0.1306000000000001,-0.11757665613178321
-0.1316000000000001,-0.11773227437476834
-0.1326000000000001,-0.11784545127875755
-0.1336000000000001,-0.11800106952174272
-0.1346000000000001,-0.11810009931273327
-0.1356000000000001,-0.11821327621672245
-0.1366000000000001,-0.11835474734670896
-0.1376000000000001,-0.11846792425069817
-0.1386000000000001,-0.11859524826768601
-0.1396000000000001,-0.11873671939767255
-0.1406000000000001,-0.11887819052765905
-0.14160000000000011,-0.11899136743164823
-0.14260000000000012,-0.11910454433563744
-0.14360000000000012,-0.11924601546562394
-0.14460000000000012,-0.1194016337086091
-0.14560000000000012,-0.11951481061259829
-0.14660000000000012,-0.1196562817425848
-0.14760000000000012,-0.1197977528725713
-0.14860000000000012,-0.11993922400255783
-0.14960000000000012,-0.12006654801954567
-0.15060000000000012,-0.12020801914953216
-0.15160000000000012,-0.12032119605352137
-0.15260000000000012,-0.12047681429650652
-0.15360000000000013,-0.12063243253949167
-0.15460000000000013,-0.12073146233048222
-0.15560000000000013,-0.12085878634747008
-0.15660000000000013,-0.12098611036445794
-0.15760000000000013,-0.12114172860744309
-0.15860000000000013,-0.12126905262443094
-0.15960000000000002,-0.12138222952842014
-0.16060000000000002,-0.12152370065840666
-0.16160000000000002,-0.12163687756239586
-0.16260000000000002,-0.12176420157938371
-0.16360000000000002,-0.12190567270937022
-0.16460000000000002,-0.12200470250036077
-0.16560000000000002,-0.12220276208234186
-0.16660000000000003,-0.12233008609932973
-0.16760000000000003,-0.12241496877732162
-0.16860000000000003,-0.12254229279430948
-0.16960000000000003,-0.12266961681129733
-0.17060000000000003,-0.12279694082828517
-0.17160000000000003,-0.12293841195827168
-0.17260000000000003,-0.1230515888622609
-0.17360000000000003,-0.12317891287924874
-0.17460000000000003,-0.12329208978323794
-0.17560000000000003,-0.12343356091322445
-0.17660000000000003,-0.12357503204321095
-0.17760000000000004,-0.12367406183420152
-0.17860000000000004,-0.12378723873819068
-0.17960000000000004,-0.12391456275517856
-0.18060000000000004,-0.12401359254616913
-0.18160000000000004,-0.12414091656315696
-0.18260000000000004,-0.12423994635414752
-0.18360000000000004,-0.12433897614513807
-0.18460000000000004,-0.1244521530491273
-0.18560000000000004,-0.12456532995311646
-0.18660000000000004,-0.12466435974410703
-0.18760000000000004,-0.12477753664809622
-0.18860000000000005,-0.1248765664390868
-0.18960000000000005,-0.12498974334307597
-0.19060000000000005,-0.12510292024706518
-0.19160000000000005,-0.12518780292505707
-0.19260000000000005,-0.12528683271604765
-0.19360000000000005,-0.12540000962003686
-0.19460000000000005,-0.12548489229802873
-0.19560000000000005,-0.12559806920201796
-0.19660000000000005,-0.1256688047670112
-0.19760000000000005,-0.12576783455800175
-0.19860000000000005,-0.1258668643489923
-0.19960000000000006,-0.12593759991398557
-0.20060000000000006,-0.12603662970497612
-0.20160000000000006,-0.1260790710439721
-0.20260000000000006,-0.12617810083496261
-0.20360000000000006,-0.12629127773895182
-0.20460000000000006,-0.12634786619094643
-0.20560000000000006,-0.12643274886893832
-0.20660000000000006,-0.12648933732093293
-0.20760000000000006,-0.12653177865992887
-0.20860000000000006,-0.12664495556391808
-0.20960000000000006,-0.12671569112891135
-0.21060000000000006,-0.12678642669390458
-0.21160000000000007,-0.12687130937189647
-0.21260000000000007,-0.1268996035978938
-0.21360000000000007,-0.12697033916288702
-0.21460000000000007,-0.12702692761488163
-0.21560000000000007,-0.12708351606687623
-0.21660000000000007,-0.12716839874486813
-0.21760000000000007,-0.1272391343098614
-0.21860000000000007,-0.12728157564885736
-0.21960000000000007,-0.12732401698785328
-0.22060000000000007,-0.12736645832684926
-0.22160000000000007,-0.12742304677884386
-0.22260000000000008,-0.12746548811783978
-0.22360000000000008,-0.12750792945683576
-0.22460000000000008,-0.1275503707958317
-0.22560000000000008,-0.12759281213482765
-0.22660000000000008,-0.1276352534738236
-0.22760000000000008,-0.12764940058682225
-0.22860000000000008,-0.1276635476998209
-0.22960000000000008,-0.12769184192581823
-0.23060000000000008,-0.1277625774908115
-0.23160000000000008,-0.1277625774908115
-0.23260000000000008,-0.1277767246038101
-0.23360000000000009,-0.12779087171680875
-0.2346000000000001,-0.1277767246038101
-0.2356000000000001,-0.12781916594280607
-0.2366000000000001,-0.12783331305580473
-0.2376000000000001,-0.12783331305580473
-0.2386000000000001,-0.12783331305580473
-0.2396000000000001,-0.12783331305580473
-0.2406000000000001,-0.12783331305580473
-0.2416000000000001,-0.12783331305580473
-0.2426000000000001,-0.12784746016880336
-0.2436000000000001,-0.12784746016880336
-0.2446000000000001,-0.12783331305580473
-0.2456000000000001,-0.12781916594280607
-0.2466000000000001,-0.1278050188298074
-0.2476000000000001,-0.1277625774908115
-0.2486000000000001,-0.1277767246038101
-0.2496000000000001,-0.12773428326481415
-0.2506000000000001,-0.12773428326481415
-0.2516000000000001,-0.12770598903881686
-0.2526000000000001,-0.12764940058682225
-0.2536000000000001,-0.12764940058682225
-0.2546000000000001,-0.1276069592478263
-0.2556000000000001,-0.12759281213482765
-0.2566000000000001,-0.12756451790883036
-0.2576000000000001,-0.1274937823438371
-0.2586000000000001,-0.12747963523083847
-0.2596000000000001,-0.1274088996658452
-0.2606000000000001,-0.12739475255284655
-0.2616000000000001,-0.1273523112138506
-0.2626000000000001,-0.127295722761856
-0.2636000000000001,-0.1272391343098614
-0.2646000000000001,-0.1272108400838641
-0.2656000000000001,-0.12714010451887087
-0.2666000000000001,-0.1270693689538776
-0.2676000000000001,-0.12701278050188297
-0.2686000000000001,-0.1269561920498884
-0.2696000000000001,-0.1268996035978938
-0.2706000000000001,-0.1268430151458992
-0.2716000000000001,-0.12677227958090595
-0.2726000000000001,-0.1267015440159127
-0.2736000000000001,-0.12660251422492214
-0.2746000000000001,-0.12653177865992887
-0.2756000000000001,-0.12648933732093293
-0.2766000000000001,-0.1263620133039451
-0.2776000000000001,-0.12629127773895182
-0.2786000000000001,-0.1262205421739586
-0.2796000000000001,-0.12610736526996935
-0.2806000000000001,-0.1260932181569707
-0.28160000000000013,-0.1259800412529815
-0.28260000000000013,-0.12585271723599367
-0.28360000000000013,-0.1258102758969977
-0.2846,-0.12569709899300852
-0.2856,-0.1256122163150166
-0.2866,-0.12551318652402607
-0.2876,-0.1254141567330355
-0.2886,-0.12532927405504357
-0.2896,-0.12521609715105442
-0.2906,-0.12511706736006384
-0.2916,-0.12501803756907331
-0.2926,-0.12490486066508408
-0.2936,-0.12484827221308947
-0.29460000000000003,-0.12473509530910029
-0.29560000000000003,-0.12463606551810973
-0.29660000000000003,-0.12453703572711919
-0.29760000000000003,-0.12440971171013133
-0.29860000000000003,-0.12429653480614214
-0.29960000000000003,-0.12421165212815022
-0.30060000000000003,-0.12411262233715968
-0.30160000000000003,-0.12399944543317046
-0.30260000000000004,-0.12387212141618263
-0.30360000000000004,-0.12375894451219341
-0.30460000000000004,-0.12365991472120287
-0.30560000000000004,-0.12356088493021229
-0.30660000000000004,-0.1234760022522204
-0.30760000000000004,-0.12337697246122986
-0.30860000000000004,-0.12326379555724064
-0.30960000000000004,-0.12313647154025278
-0.31060000000000004,-0.12303744174926225
-0.31160000000000004,-0.12293841195827168
-0.31260000000000004,-0.12281108794128386
-0.31360000000000005,-0.12271205815029328
-0.31460000000000005,-0.12257058702030678
-0.31560000000000005,-0.12247155722931624
-0.31660000000000005,-0.12234423321232836
-0.31760000000000005,-0.1222169091953405
-0.31860000000000005,-0.12211787940434997
-0.31960000000000005,-0.12201884961335942
-0.32060000000000005,-0.12190567270937022
-0.32160000000000005,-0.12175005446638507
-0.32260000000000005,-0.1216227304493972
-0.32360000000000005,-0.12153784777140529
-0.32460000000000006,-0.1213963766414188
-0.32560000000000006,-0.12132564107642556
-0.32660000000000006,-0.12118416994643905
-0.32760000000000006,-0.12105684592945118
-0.32860000000000006,-0.12095781613846063
-0.32960000000000006,-0.12085878634747008
-0.33060000000000006,-0.12071731521748358
-0.33160000000000006,-0.12058999120049572
-0.33260000000000006,-0.12044852007050923
-0.33360000000000006,-0.12033534316652002
-0.33460000000000006,-0.12023631337552945
-0.33560000000000006,-0.12012313647154027
-0.33660000000000007,-0.12000995956755106
-0.33760000000000007,-0.11985434132456589
-0.33860000000000007,-0.11978360575957266
-0.33960000000000007,-0.1196845759685821
-0.34060000000000007,-0.11955725195159424
-0.34160000000000007,-0.11938748659561045
-0.34260000000000007,-0.11927430969162124
-0.34360000000000007,-0.11914698567463339
-0.3446000000000001,-0.11903380877064418
-0.3456000000000001,-0.11893477897965361
-0.3466000000000001,-0.11880745496266579
-0.34759999999999996,-0.11866598383267928
-0.3486000000000001,-0.11853865981569144
-0.34959999999999997,-0.11842548291170223
-0.3506000000000001,-0.11832645312071166
-0.35159999999999997,-0.11818498199072516
-0.3526000000000001,-0.11805765797373731
-0.35359999999999997,-0.1179727752957454
-0.3546000000000001,-0.11787374550475484
-0.35559999999999997,-0.11776056860076566
-0.3566000000000001,-0.1176615388097751
-0.3576,-0.1175483619057859
-0.3586000000000001,-0.11744933211479533
-0.3596,-0.11733615521080615
-0.3606000000000001,-0.11725127253281424
-0.3616,-0.1170956542898291
-0.3626000000000001,-0.11699662449883853
-0.3636,-0.11691174182084664
-0.3646000000000001,-0.11679856491685743
-0.3656,-0.11669953512586688
-0.3666000000000001,-0.11658635822187767
-0.3676,-0.11648732843088712
-0.3686000000000001,-0.11641659286589387
-0.3696,-0.11631756307490332
-0.3706000000000001,-0.116289268848906
-0.3716,-0.11620438617091411
-0.3726000000000001,-0.11609120926692493
-0.3736,-0.11603462081493031
-0.3746000000000001,-0.1159214439109411
-0.3756,-0.11582241411995055
-0.3766000000000001,-0.11575167855495731
-0.3776,-0.1156385016509681
-0.3786000000000001,-0.11556776608597484
-0.3796,-0.11548288340798295
-0.3806000000000001,-0.11542629495598833
-0.3816,-0.11539800072999104
-0.3826000000000001,-0.11532726516499778
-0.3836,-0.11529897093900049
-0.3846000000000001,-0.11525652960000454
-0.3856,-0.1152140882610086
-0.3866000000000001,-0.11518579403501128
-0.3876,-0.11511505847001803
-0.3886000000000001,-0.11510091135701939
-0.3896,-0.11505847001802343
-0.3906000000000001,-0.11501602867902748
-0.3916,-0.11500188156602882
-0.3926000000000001,-0.11495944022703289
-0.3936,-0.11490285177503827
-0.3946000000000001,-0.11488870466203964
-0.3956,-0.11488870466203964
-0.3966000000000001,-0.11484626332304368
-0.3976,-0.11481796909704638
-0.3986000000000001,-0.11480382198404772
-0.3996,-0.11476138064505177
-0.4006000000000001,-0.11478967487104909
-0.4016,-0.11478967487104909
-0.4026000000000001,-0.11478967487104909
-0.4036,-0.11481796909704638
-0.4046000000000001,-0.11481796909704638
-0.4056,-0.11484626332304368
-0.40660000000000013,-0.11486041043604232
-0.4076,-0.11484626332304368
-0.40860000000000013,-0.11495944022703289
-0.4096,-0.11500188156602882
-0.41060000000000013,-0.11503017579202615
-0.4116,-0.11508676424402071
-0.41260000000000013,-0.11511505847001803
-0.4136,-0.11518579403501128
-0.41460000000000014,-0.11522823537400724
-0.4156,-0.11525652960000454
-0.41660000000000014,-0.11531311805199915
-0.4176,-0.1153555593909951
-0.41860000000000014,-0.11544044206898699
-0.41960000000000003,-0.11553947185997754
-0.42060000000000014,-0.11562435453796945
-0.42160000000000003,-0.11573753144195865
-0.42260000000000014,-0.11579411989395326
-0.42360000000000003,-0.1158648554589465
-0.42460000000000014,-0.11599217947593436
-0.42560000000000003,-0.11613365060592087
-0.42660000000000015,-0.11623268039691143
-0.42760000000000004,-0.11634585730090061
-0.42860000000000015,-0.11645903420488982
-0.42960000000000004,-0.11655806399588038
-0.43060000000000015,-0.11668538801286822
-0.43160000000000004,-0.11679856491685743
-0.43260000000000015,-0.11691174182084664
-0.43360000000000004,-0.11702491872483582
-0.43460000000000015,-0.1171522427418237
-0.43560000000000004,-0.1173220080978075
-0.43660000000000015,-0.11747762634079266
-0.43760000000000004,-0.1176049503577805
