Potential V vs RHE, Current mA cm-2
0.013299999999999867,1.2525853849005035
0.012299999999999978,0.7844574157751628
0.011299999999999866,0.5078813566515481
0.010299999999999976,0.310387659190389
0.009299999999999864,0.1435931969363012
0.008299999999999974,0.005191990470504684
0.007299999999999862,-0.12879531673971292
0.006299999999999972,-0.2628533595149239
0.00529999999999986,-0.37829380158391085
0.0042999999999999705,-0.4868021582835591
0.0032999999999998586,-0.578333979384827
0.0022999999999999687,-0.6758075879455281
0.0012999999999998568,-0.7775253304058242
0.00029999999999996696,-0.865944786647389
-0.000700000000000145,-0.9397927165003438
-0.0017000000000000348,-1.0140650597432583
-0.0027000000000001467,-1.0913082967158894
-0.0037000000000000366,-1.1723712541981557
-0.0047000000000001485,-1.2532927405504362
-0.005700000000000038,-1.3152570954845246
-0.00670000000000015,-1.3787776328484649
-0.00770000000000004,-1.4415908145624723
-0.008700000000000152,-1.5179852247551844
-0.009700000000000042,-1.583061944548976
-0.010700000000000154,-1.6509680869424979
-0.011700000000000044,-1.700482982437774
-0.012700000000000156,-1.7570714344323757
-0.013700000000000045,-1.8278069994256272
-0.014700000000000157,-1.891469007919554
-0.015700000000000047,-1.9409839034148304
-0.01670000000000016,-1.9876693763103765
-0.01770000000000005,-2.042843117005113
-0.01870000000000016,-2.10367570289931
-0.01970000000000005,-2.1673377113932366
-0.020700000000000163,-2.2140231842887825
-0.021700000000000053,-2.249390966785408
-0.022700000000000164,-2.318711820478795
-0.023700000000000054,-2.3753002724733965
-0.024700000000000166,-2.4234004566688077
-0.025700000000000056,-2.465841795664759
-0.026700000000000168,-2.504039000761115
-0.027700000000000058,-2.5592127414558514
-0.02870000000000017,-2.6115570595508575
-0.02970000000000006,-2.656827821146539
-0.03070000000000017,-2.69361031494303
-0.03170000000000006,-2.7219045409403306
-0.03270000000000017,-2.7615164573365516
-0.03370000000000006,-2.818104909331153
-0.034700000000000175,-2.863375670926834
-0.035700000000000065,-2.8987434534234597
-0.03670000000000018,-2.9072317212226504
-0.03770000000000007,-2.9440142150191413
-0.03870000000000018,-2.9935291105144173
-0.03970000000000007,-3.0232380478115832
-0.04070000000000018,-3.041629294709829
-0.04170000000000007,-3.0529469851087487
-0.04270000000000018,-3.07841178850632
-0.04370000000000007,-3.1151942823028107
-0.044700000000000184,-3.1406590857003813
-0.045700000000000074,-3.1491473534995715
-0.046700000000000186,-3.160465043898492
-0.047700000000000076,-3.1760268681970074
-0.04870000000000019,-3.195832826395118
-0.04970000000000008,-3.211394650693633
-0.05070000000000019,-3.205735805494173
-0.05170000000000008,-3.217053495893093
-0.05270000000000019,-3.217053495893093
-0.05370000000000008,-3.2368594540912037
-0.05470000000000019,-3.243933010590529
-0.05570000000000008,-3.235444742791339
-0.056700000000000195,-3.2212976297926885
-0.057700000000000085,-3.2269564749921487
-0.058700000000000196,-3.2312006088917435
-0.059700000000000086,-3.2297858975918787
-0.0607000000000002,-3.2156387845932284
-0.06170000000000009,-3.204321094194308
-0.0627000000000002,-3.1887592698957925
-0.06370000000000009,-3.1887592698957925
-0.0647000000000002,-3.1831004246963324
-0.06570000000000009,-3.1731974455972773
-0.0667000000000002,-3.1364149518007864
-0.0677000000000001,-3.122267838802136
-0.0687000000000002,-3.1307561066013263
-0.0697000000000001,-3.10104716930416
-0.07070000000000021,-3.08972947890524
-0.0717000000000001,-3.0670940981073995
-0.07270000000000021,-3.0458734286094242
-0.0737000000000001,-3.043044006009694
-0.07470000000000021,-3.021823336511718
-0.0757000000000001,-2.9807967088156326
-0.07670000000000021,-2.956746616717927
-0.0777000000000001,-2.941184792419411
-0.07870000000000021,-2.9397700811195464
-0.0797000000000001,-2.919964122921436
-0.08070000000000022,-2.8959140308237297
-0.0817000000000001,-2.843569712728724
-0.08270000000000022,-2.8124460641316933
-0.08370000000000011,-2.8039577963325026
-0.08470000000000022,-2.7898106833338523
-0.08570000000000011,-2.7501987669376318
-0.08670000000000022,-2.7247339635400607
-0.08770000000000011,-2.69926916014249
-0.08870000000000022,-2.6837073358439745
-0.08970000000000011,-2.659657243746269
-0.09070000000000022,-2.621460038649913
-0.09170000000000011,-2.5959952352523423
-0.09270000000000023,-2.5592127414558514
-0.09370000000000012,-2.536577360658011
-0.09470000000000023,-2.5351626493581456
-0.09570000000000012,-2.4955507329619246
-0.09670000000000023,-2.461597661765164
-0.09770000000000012,-2.4460358374666487
-0.09870000000000023,-2.4219857453689424
-0.09970000000000012,-2.4021797871708324
-0.10070000000000023,-2.3710561385738016
-0.10170000000000012,-2.3356883560771755
-0.10270000000000024,-2.3158823978790646
-0.10370000000000013,-2.2946617283810897
-0.10470000000000024,-2.273441058883114
-0.10570000000000013,-2.250805678085273
-0.10670000000000024,-2.215437895588648
-0.10770000000000013,-2.1899730921910767
-0.10870000000000024,-2.181484824391887
-0.10970000000000013,-2.1630935774936413
-0.11070000000000024,-2.1390434853959355
-0.11170000000000013,-2.1008462802995793
-0.11270000000000002,-2.0866991673009294
-0.11370000000000013,-2.079625610801604
-0.11470000000000002,-2.0555755187038987
-0.11570000000000014,-2.0301107153063276
-0.11670000000000003,-2.0032312006088917
-0.11770000000000014,-1.9820105311109162
-0.11870000000000003,-1.9791811085111866
-0.11970000000000014,-1.9650339955125358
-0.12070000000000003,-1.9423986147146954
-0.12170000000000014,-1.9169338113171246
-0.12270000000000003,-1.895713141819149
-0.12370000000000014,-1.892883719219419
-0.12470000000000003,-1.884395451420229
-0.12570000000000014,-1.8603453593225232
-0.12670000000000003,-1.8461982463238729
-0.12770000000000015,-1.8278069994256272
-0.12870000000000004,-1.8207334429263025
-0.12970000000000015,-1.8122451751271118
-0.13070000000000004,-1.7896097943292715
-0.13170000000000015,-1.7627302796318356
-0.13270000000000004,-1.7570714344323757
-0.13370000000000015,-1.7485831666331852
-0.13470000000000004,-1.7499978779330503
-0.13570000000000015,-1.7301919197349398
-0.13670000000000004,-1.7103859615368293
-0.13770000000000016,-1.7061418276372344
-0.13870000000000005,-1.6976535598380442
-0.13970000000000016,-1.6891652920388538
-0.14070000000000005,-1.6707740451406083
-0.14170000000000016,-1.660871066041553
-0.14270000000000005,-1.655212220842093
-0.14370000000000016,-1.653797509542228
-0.14470000000000005,-1.6424798191433077
-0.14570000000000016,-1.6339915513441174
-0.14670000000000005,-1.614185593146007
-0.14770000000000016,-1.6113561705462767
-0.14870000000000005,-1.6170150157457368
-0.14970000000000017,-1.6056973253468165
-0.15070000000000006,-1.5943796349478963
-0.15170000000000017,-1.5788178106493809
-0.15270000000000006,-1.5731589654499207
-0.15370000000000017,-1.5788178106493809
-0.15470000000000006,-1.5745736767497858
-0.15570000000000017,-1.5632559863508655
-0.15670000000000006,-1.5491088733522151
-0.15770000000000017,-1.543450028152755
-0.15870000000000006,-1.54769416205235
-0.15970000000000018,-1.543450028152755
-0.16070000000000007,-1.5349617603535646
-0.16170000000000018,-1.5236440699546445
-0.16270000000000007,-1.5193999360550492
-0.16370000000000018,-1.5250587812545096
-0.16470000000000007,-1.5278882038542394
-0.16570000000000018,-1.5094969569559942
-0.16670000000000007,-1.5038381117565338
-0.16770000000000018,-1.502423400456669
-0.16870000000000007,-1.510911668255859
-0.16970000000000018,-1.510911668255859
-0.17070000000000007,-1.4967645552572086
-0.17170000000000019,-1.4854468648582886
-0.17270000000000008,-1.4911057100577487
-0.1737000000000002,-1.4939351326574788
-0.17470000000000008,-1.5038381117565338
-0.1757000000000002,-1.4911057100577487
-0.17670000000000008,-1.4826174422585585
-0.1777000000000002,-1.4755438857592333
-0.17870000000000008,-1.4868615761581534
-0.1797000000000002,-1.4882762874580184
-0.18070000000000008,-1.4812027309586933
-0.1817000000000002,-1.4684703292599082
-0.18270000000000008,-1.4741291744593683
-0.1837000000000002,-1.4826174422585585
-0.1847000000000001,-1.4854468648582886
-0.1857000000000002,-1.4812027309586933
-0.1867000000000001,-1.4670556179600431
-0.1877000000000002,-1.4698850405597732
-0.1887000000000001,-1.4826174422585585
-0.1897000000000002,-1.4854468648582886
-0.1907000000000001,-1.4868615761581534
-0.1917000000000001,-1.4741291744593683
-0.19269999999999998,-1.4783733083589634
-0.1937000000000001,-1.4911057100577487
-0.19469999999999998,-1.4896909987578837
-0.1957000000000001,-1.4868615761581534
-0.19669999999999999,-1.4854468648582886
-0.1977000000000001,-1.4925204213576138
-0.1987,-1.505252823056399
-0.1997000000000001,-1.506667534356264
-0.2007,-1.501008689156804
-0.2017000000000001,-1.499593977856939
-0.2027,-1.502423400456669
-0.2037000000000001,-1.5179852247551844
-0.2047,-1.5222293586547795
-0.2057000000000001,-1.5165705134553193
-0.2067,-1.512326379555724
-0.2077000000000001,-1.5208146473549145
-0.2087,-1.540620605553025
-0.2097000000000001,-1.5519382959519452
-0.2107,-1.54486473945262
-0.2117000000000001,-1.54486473945262
-0.2127,-1.5561824298515403
-0.2137000000000001,-1.5675001202504606
-0.2147,-1.580232521949246
-0.2157000000000001,-1.580232521949246
-0.2167,-1.5745736767497858
-0.21770000000000012,-1.585891367148706
-0.2187,-1.6014531914472214
-0.21970000000000012,-1.6113561705462767
-0.2207,-1.6156003044458718
-0.22170000000000012,-1.612770881846142
-0.2227,-1.6283327061446573
-0.22370000000000012,-1.6424798191433077
-0.2247,-1.656626932141958
-0.22570000000000012,-1.6637004886412832
-0.2267,-1.660871066041553
-0.22770000000000012,-1.6707740451406083
-0.22870000000000001,-1.694824137238314
-0.22970000000000013,-1.7118006728366943
-0.23070000000000002,-1.7202889406358846
-0.23170000000000013,-1.72736249713521
-0.23270000000000002,-1.7429243214337253
-0.23370000000000013,-1.766974413531431
-0.23470000000000002,-1.781121526530081
-0.23570000000000013,-1.7896097943292715
-0.23670000000000002,-1.8023421960280568
-0.2376999999999999,-1.8179040203265722
-0.23870000000000002,-1.847612957623738
-0.2396999999999999,-1.8773218949209036
-0.24070000000000003,-1.891469007919554
-0.24169999999999991,-1.9056161209182045
-0.24270000000000003,-1.9296662130159101
-0.24369999999999992,-1.9607898616129409
-0.24470000000000003,-1.9820105311109162
-0.24569999999999992,-1.9989870667092968
-0.24670000000000003,-2.0272812927065975
-0.24769999999999992,-2.0584049413036287
-0.24870000000000003,-2.0966021463999844
-0.24969999999999992,-2.13196992889661
-0.25070000000000003,-2.1531905983945863
-0.2516999999999999,-2.177240690492291
-0.25270000000000004,-2.2196820294882422
-0.2536999999999999,-2.2649527910839233
-0.25470000000000004,-2.3158823978790646
-0.2556999999999999,-2.354079602975421
-0.25670000000000004,-2.3979356532712375
-0.25769999999999993,-2.4545241052658384
-0.25870000000000004,-2.5111125572604402
-0.25969999999999993,-2.5634568753554463
-0.26070000000000004,-2.6073129256512626
-0.26169999999999993,-2.6539983985468085
-0.26270000000000004,-2.7219045409403306
-0.26369999999999993,-2.7968842398331777
-0.26470000000000005,-2.8577168257273744
-0.26569999999999994,-2.922793545521166
-0.26670000000000005,-2.999187955713878
-0.26769999999999994,-3.08124121110605
-0.26870000000000005,-3.1703680229975473
-0.26969999999999994,-3.2637389687886396
-0.27070000000000005,-3.358524625879597
-0.27169999999999994,-3.4561397055702843
-0.27270000000000005,-3.566487186959758
-0.27369999999999994,-3.698055337847206
-0.27470000000000006,-3.818305798335734
-0.27569999999999995,-3.9470445266234524
-0.27670000000000006,-4.089930367909821
-0.27769999999999995,-4.24696332219484
-0.27870000000000006,-4.426631657277699
-0.27969999999999995,-4.6091294149602895
-0.28070000000000006,-4.788797750043149
-0.28169999999999995,-4.991101465923849
-0.28270000000000006,-5.21321114000266
-0.28369999999999995,-5.449467927080121
-0.28470000000000006,-5.705530672355693
-0.28569999999999995,-5.9601787063314
-0.28670000000000007,-6.237462121104946
-0.28769999999999996,-6.560016297474175
-0.28870000000000007,-6.910864699840705
-0.28969999999999996,-7.288592616904668
-0.29070000000000007,-7.674808801767824
-0.29169999999999996,-8.09497805782774
-0.29270000000000007,-8.542026828585092
-0.29369999999999996,-9.02161395923934
-0.2947000000000001,-9.537983583690076
-0.29569999999999996,-10.08689156803771
-0.2967000000000001,-10.634384841085481
-0.29769999999999996,-11.22149003052947
-0.2987000000000001,-11.889233764065768
-0.29969999999999997,-12.582442300999638
-0.3007000000000001,-13.295456796131614
-0.30169999999999997,-13.999983023464402
-0.3027000000000001,-14.797880196588284
-0.30369999999999997,-15.632559863508657
-0.3047000000000001,-16.481386643427676
-0.30569999999999997,-17.358507649344002
-0.3067000000000001,-18.263922881257624
-0.3077,-19.22592656516585
-0.3087000000000001,-20.244518701068674
-0.3097,-21.333846401964752
-0.3107000000000001,-22.38073276386488
-0.3117,-23.45591335176231
-0.3127000000000001,-24.559388165657033
-0.3137,-25.705304318547718
-0.3147000000000001,-26.97854448842625
-0.3157,-28.209343319308836
-0.3167000000000001,-29.411847924194117
-0.3177,-30.670940981073993
-0.3187000000000001,-31.930034037953877
-0.3197,-33.18912709483376
-0.3207000000000001,-34.53310282970554
-0.3217,-35.89122567757598
-0.3227000000000001,-37.221054299449115
-0.3237,-38.763089616302004
-0.3247000000000001,-40.27683070715759
-0.3257,-41.719836233019926
-0.3267000000000001,-43.290165775870115
-0.3277,-45.030260674704124
-0.3287000000000001,-46.78450268653676
-0.3297,-48.62362737636131
-0.3307000000000001,-50.50519340518181
-0.3317,-52.40090654700096
-0.3327000000000001,-54.2966196888201
-0.3337,-56.37624529962171
-0.3347000000000001,-58.37098823243142
-0.3357,-60.49305518222897
-0.3367000000000001,-62.60097501902788
-0.3377,-64.66645351683083
-0.3387000000000001,-67.00072716160814
-0.3397,-69.16523545040164
-0.3407000000000001,-70.99021302722754
-0.3417,-72.8859261690467
-0.3427000000000001,-74.64016818087934
-0.3437,-76.33782174071737
-0.3447000000000001,-78.00718107455812
-0.3457,-79.84630576438266
-0.3467000000000001,-81.52981221122207
-0.3477,-82.98696485008304
-0.3487000000000001,-84.86853087890354
-0.3497,-86.60862577773754
-0.3507000000000001,-88.51848603255536
-0.3517,-90.13125691440149
-0.3527000000000001,-91.64499800525708
-0.3537,-93.28606311310051
-0.3547000000000001,-95.02615801193451
-0.3557,-96.69551734577524
-0.35670000000000013,-98.06778730664433
-0.3577,-99.27029191152963
-0.35870000000000013,-100.670856098396
-0.3597,-102.1563029632543
-0.36070000000000013,-103.18904221215577
-0.3617,-104.33495836504645
-0.3626999999999999,-105.53746296993172
-0.3637,-106.92388004379946
-0.3646999999999999,-108.38103268266046
-0.3657,-109.61183151354304
-0.3666999999999999,-111.09727837840134
-0.3677,-112.66760792125153
-0.3686999999999999,-113.87011252613681
-0.36970000000000003,-115.11505847001803
-0.3706999999999999,-116.45903420488982
-0.37170000000000003,-117.77471571376431
-0.3726999999999999,-118.94892609265229
-0.37370000000000003,-119.9392240025578
-0.3746999999999999,-121.26905262443094
-0.37570000000000003,-122.47155722931623
-0.3766999999999999,-123.75894451219342
-0.37770000000000004,-125.15950869905981
-0.3786999999999999,-126.91375071089244
-0.37970000000000004,-128.10210820277908
-0.3806999999999999,-129.1772887906765
-0.38170000000000004,-130.52126452554828
-0.38269999999999993,-131.53985666145113
-0.38370000000000004,-132.53015457135663
-0.38469999999999993,-133.44971691626893
-0.38570000000000004,-134.83613399013663
-0.38669999999999993,-134.83613399013663
-0.38570000000000004,-133.37898135127566
-0.38469999999999993,-131.55400377444977
-0.38370000000000004,-130.18173381358068
-0.38269999999999993,-128.37090334975343
-0.38170000000000004,-126.60251422492213
-0.3806999999999999,-125.04633179507057
-0.37970000000000004,-123.46185513922175
-0.3786999999999999,-122.01884961335942
-0.37770000000000004,-120.63243253949167
-0.3766999999999999,-118.77916073666849
-0.37570000000000003,-117.30786098480884
-0.3746999999999999,-116.04876792792896
-0.37370000000000003,-114.2945259160963
-0.3726999999999999,-112.80907905123803
-0.37170000000000003,-111.18216105639323
-0.3706999999999999,-110.09283335549715
-0.36970000000000003,-108.74885762062537
-0.3686999999999999,-106.68337912282242
-0.3677,-105.5516100829304
-0.3666999999999999,-104.67448907701407
-0.3657,-103.25977777714903
-0.3646999999999999,-101.3640646353299
-0.3637,-99.08637944254717
-0.3626999999999999,-98.40731801861195
-0.3617,-96.72381157177257
-0.36070000000000013,-94.92712822094396
-0.3597,-93.38509290409107
-0.35870000000000013,-91.85720470023682
-0.3577,-90.6122587563556
-0.35670000000000013,-89.19754745649055
-0.3557,-87.85357172161878
-0.3547000000000001,-86.09932970978613
-0.3537,-85.08073757388331
-0.3527000000000001,-83.72261472601286
-0.3517,-82.63328702511679
-0.3507000000000001,-81.40248819423421
-0.3497,-80.07265957236108
-0.3487000000000001,-78.6155069335001
-0.3477,-77.2998254246256
-0.3467000000000001,-75.91340835075786
-0.3457,-74.59772684188339
-0.3447000000000001,-73.33863378500351
-0.3437,-72.39077721409393
-0.3427000000000001,-71.42877353018571
-0.3417,-70.21212181230177
-0.3407000000000001,-69.26426524139221
-0.3397,-68.07590774950557
-0.3387000000000001,-66.81681469262568
-0.3377,-65.6991927657323
-0.3367000000000001,-64.56742372584027
-0.3357,-63.44980179894689
-0.3347000000000001,-62.459503889041365
-0.3337,-61.4267646401399
-0.3327000000000001,-60.39402539123842
-0.3317,-59.417874594331536
-0.3307000000000001,-58.34269400643411
-0.3297,-57.14018940154883
-0.3287000000000001,-56.008420361656796
-0.3277,-55.27277048572698
-0.3267000000000001,-54.14100144583495
-0.3257,-53.19314487492538
-0.3247000000000001,-52.14625851302525
-0.3237,-51.028636586131874
-0.3227000000000001,-50.024191563227696
-0.3217,-49.13292344431272
-0.3207000000000001,-48.1426255344072
-0.3197,-47.067444946509774
-0.3187000000000001,-46.02055858460964
-0.3177,-44.98781933570817
-0.3167000000000001,-44.011668538801295
-0.3157,-43.03551774189442
-0.3147000000000001,-42.130102509980794
-0.3137,-41.210540165068515
-0.3127000000000001,-40.31927204615355
-0.3117,-39.44215104023723
-0.3107000000000001,-38.55088292132225
-0.3097,-37.27764275144372
-0.3087000000000001,-36.49955153651795
-0.3077,-35.608283417602976
-0.3067000000000001,-34.8867806546718
-0.30569999999999997,-33.89648274476628
-0.3047000000000001,-33.09009730384321
-0.30369999999999997,-32.38274165391069
-0.3027000000000001,-31.604650438984915
-0.30169999999999997,-30.7841178850632
-0.3007000000000001,-29.850408427152274
-0.29969999999999997,-29.072317212226505
-0.2987000000000001,-28.364961562293985
-0.29769999999999996,-27.700047251357418
-0.2967000000000001,-27.06342716641815
-0.29569999999999996,-26.32777729048833
-0.2947000000000001,-25.648715866553115
-0.29369999999999996,-24.95550732961925
-0.29270000000000007,-24.21985745368943
-0.29169999999999996,-23.58323736875016
-0.29070000000000007,-22.932470170812245
-0.28969999999999996,-22.267555859875678
-0.28870000000000007,-21.58849443594046
-0.28769999999999996,-20.93772723800254
-0.28670000000000007,-20.301107153063278
-0.28569999999999995,-19.70692840711996
-0.28470000000000006,-19.1834852261699
-0.28369999999999995,-18.589306480226583
-0.28270000000000006,-18.03756907327922
-0.28169999999999995,-17.48583166633185
-0.28070000000000006,-16.93409425938449
-0.27969999999999995,-16.396503965435777
-0.27870000000000006,-15.87306078448571
-0.27769999999999995,-15.335470490536997
-0.27670000000000006,-14.840321535584234
-0.27569999999999995,-14.387613919627421
-0.27470000000000006,-13.885391408175334
-0.27369999999999994,-13.445416193917309
-0.27270000000000005,-12.981390887561577
-0.27169999999999994,-12.48765664390868
-0.27070000000000005,-12.078805078247685
-0.26969999999999994,-11.678441780385876
-0.26870000000000005,-11.289396172922991
