May 4, 2025   15:18:02
Cyclic Voltammetry
File: c:/users/guazh/data/banditlqround7_x0exp1108_r5/2025-04-30-exp1239\exp1239-2025-05-04t15_02_09-h2koh\exp1239_cv_sr_800mvs_efin_-1600mv.bin
Data Source:  Experiment
Instrument Model:  CHI760E
Header: CV ran at 800 mVs
Note: 

Init E (V) = -1
High E (V) = -1
Low E (V) = -1.6
Final E (V) = -1
Init P/N = N
Scan Rate (V/s) = 0.8
Segment = 3
Sample Interval (V) = 0.001
Quiet Time (sec) = 2
Sensitivity (A/V) = 0.01
Comp R (ohm) = 1.1

Results:

Channel 1:
Segment 1:

Segment 2:

Segment 3:

Potential/V, Current/A

-1.000, 4.195e-4
-1.001, 5.027e-4
-1.002, 5.674e-4
-1.003, 6.199e-4
-1.004, 6.692e-4
-1.005, 7.093e-4
-1.006, 7.432e-4
-1.007, 7.771e-4
-1.008, 8.048e-4
-1.009, 8.326e-4
-1.010, 8.573e-4
-1.011, 8.819e-4
-1.012, 9.066e-4
-1.013, 9.282e-4
-1.014, 9.498e-4
-1.015, 9.744e-4
-1.016, 9.960e-4
-1.017, 1.018e-3
-1.018, 1.036e-3
-1.019, 1.055e-3
-1.020, 1.073e-3
-1.021, 1.088e-3
-1.022, 1.104e-3
-1.023, 1.122e-3
-1.024, 1.138e-3
-1.025, 1.153e-3
-1.026, 1.169e-3
-1.027, 1.184e-3
-1.028, 1.203e-3
-1.029, 1.218e-3
-1.030, 1.233e-3
-1.031, 1.249e-3
-1.032, 1.264e-3
-1.033, 1.277e-3
-1.034, 1.292e-3
-1.035, 1.304e-3
-1.036, 1.317e-3
-1.037, 1.329e-3
-1.038, 1.341e-3
-1.039, 1.354e-3
-1.040, 1.366e-3
-1.041, 1.384e-3
-1.042, 1.397e-3
-1.043, 1.409e-3
-1.044, 1.425e-3
-1.045, 1.437e-3
-1.046, 1.452e-3
-1.047, 1.462e-3
-1.048, 1.474e-3
-1.049, 1.483e-3
-1.050, 1.495e-3
-1.051, 1.508e-3
-1.052, 1.517e-3
-1.053, 1.532e-3
-1.054, 1.545e-3
-1.055, 1.557e-3
-1.056, 1.569e-3
-1.057, 1.585e-3
-1.058, 1.597e-3
-1.059, 1.606e-3
-1.060, 1.619e-3
-1.061, 1.631e-3
-1.062, 1.637e-3
-1.063, 1.647e-3
-1.064, 1.659e-3
-1.065, 1.668e-3
-1.066, 1.677e-3
-1.067, 1.693e-3
-1.068, 1.705e-3
-1.069, 1.717e-3
-1.070, 1.730e-3
-1.071, 1.742e-3
-1.072, 1.751e-3
-1.073, 1.764e-3
-1.074, 1.773e-3
-1.075, 1.782e-3
-1.076, 1.791e-3
-1.077, 1.801e-3
-1.078, 1.813e-3
-1.079, 1.822e-3
-1.080, 1.832e-3
-1.081, 1.844e-3
-1.082, 1.856e-3
-1.083, 1.869e-3
-1.084, 1.881e-3
-1.085, 1.890e-3
-1.086, 1.902e-3
-1.087, 1.912e-3
-1.088, 1.918e-3
-1.089, 1.927e-3
-1.090, 1.936e-3
-1.091, 1.946e-3
-1.092, 1.955e-3
-1.093, 1.967e-3
-1.094, 1.976e-3
-1.095, 1.989e-3
-1.096, 1.998e-3
-1.097, 2.010e-3
-1.098, 2.020e-3
-1.099, 2.029e-3
-1.100, 2.038e-3
-1.101, 2.047e-3
-1.102, 2.057e-3
-1.103, 2.066e-3
-1.104, 2.075e-3
-1.105, 2.084e-3
-1.106, 2.094e-3
-1.107, 2.106e-3
-1.108, 2.118e-3
-1.109, 2.131e-3
-1.110, 2.143e-3
-1.111, 2.155e-3
-1.112, 2.164e-3
-1.113, 2.177e-3
-1.114, 2.183e-3
-1.115, 2.192e-3
-1.116, 2.201e-3
-1.117, 2.211e-3
-1.118, 2.220e-3
-1.119, 2.232e-3
-1.120, 2.242e-3
-1.121, 2.254e-3
-1.122, 2.263e-3
-1.123, 2.275e-3
-1.124, 2.288e-3
-1.125, 2.297e-3
-1.126, 2.306e-3
-1.127, 2.316e-3
-1.128, 2.325e-3
-1.129, 2.334e-3
-1.130, 2.340e-3
-1.131, 2.349e-3
-1.132, 2.359e-3
-1.133, 2.368e-3
-1.134, 2.380e-3
-1.135, 2.393e-3
-1.136, 2.402e-3
-1.137, 2.417e-3
-1.138, 2.427e-3
-1.139, 2.439e-3
-1.140, 2.448e-3
-1.141, 2.457e-3
-1.142, 2.467e-3
-1.143, 2.476e-3
-1.144, 2.482e-3
-1.145, 2.491e-3
-1.146, 2.504e-3
-1.147, 2.513e-3
-1.148, 2.525e-3
-1.149, 2.538e-3
-1.150, 2.550e-3
-1.151, 2.562e-3
-1.152, 2.575e-3
-1.153, 2.584e-3
-1.154, 2.593e-3
-1.155, 2.605e-3
-1.156, 2.615e-3
-1.157, 2.624e-3
-1.158, 2.636e-3
-1.159, 2.645e-3
-1.160, 2.661e-3
-1.161, 2.673e-3
-1.162, 2.686e-3
-1.163, 2.698e-3
-1.164, 2.710e-3
-1.165, 2.723e-3
-1.166, 2.735e-3
-1.167, 2.747e-3
-1.168, 2.756e-3
-1.169, 2.766e-3
-1.170, 2.775e-3
-1.171, 2.787e-3
-1.172, 2.797e-3
-1.173, 2.809e-3
-1.174, 2.821e-3
-1.175, 2.834e-3
-1.176, 2.849e-3
-1.177, 2.864e-3
-1.178, 2.877e-3
-1.179, 2.889e-3
-1.180, 2.901e-3
-1.181, 2.914e-3
-1.182, 2.926e-3
-1.183, 2.935e-3
-1.184, 2.948e-3
-1.185, 2.960e-3
-1.186, 2.972e-3
-1.187, 2.988e-3
-1.188, 3.003e-3
-1.189, 3.015e-3
-1.190, 3.031e-3
-1.191, 3.046e-3
-1.192, 3.059e-3
-1.193, 3.074e-3
-1.194, 3.086e-3
-1.195, 3.099e-3
-1.196, 3.111e-3
-1.197, 3.123e-3
-1.198, 3.139e-3
-1.199, 3.154e-3
-1.200, 3.167e-3
-1.201, 3.185e-3
-1.202, 3.197e-3
-1.203, 3.216e-3
-1.204, 3.228e-3
-1.205, 3.241e-3
-1.206, 3.256e-3
-1.207, 3.265e-3
-1.208, 3.278e-3
-1.209, 3.290e-3
-1.210, 3.302e-3
-1.211, 3.314e-3
-1.212, 3.330e-3
-1.213, 3.345e-3
-1.214, 3.358e-3
-1.215, 3.376e-3
-1.216, 3.392e-3
-1.217, 3.410e-3
-1.218, 3.422e-3
-1.219, 3.438e-3
-1.220, 3.450e-3
-1.221, 3.462e-3
-1.222, 3.475e-3
-1.223, 3.487e-3
-1.224, 3.499e-3
-1.225, 3.515e-3
-1.226, 3.527e-3
-1.227, 3.543e-3
-1.228, 3.555e-3
-1.229, 3.577e-3
-1.230, 3.592e-3
-1.231, 3.607e-3
-1.232, 3.620e-3
-1.233, 3.635e-3
-1.234, 3.647e-3
-1.235, 3.660e-3
-1.236, 3.672e-3
-1.237, 3.684e-3
-1.238, 3.697e-3
-1.239, 3.712e-3
-1.240, 3.725e-3
-1.241, 3.740e-3
-1.242, 3.758e-3
-1.243, 3.771e-3
-1.244, 3.789e-3
-1.245, 3.805e-3
-1.246, 3.820e-3
-1.247, 3.836e-3
-1.248, 3.848e-3
-1.249, 3.863e-3
-1.250, 3.876e-3
-1.251, 3.891e-3
-1.252, 3.906e-3
-1.253, 3.919e-3
-1.254, 3.937e-3
-1.255, 3.953e-3
-1.256, 3.971e-3
-1.257, 3.987e-3
-1.258, 4.005e-3
-1.259, 4.017e-3
-1.260, 4.033e-3
-1.261, 4.045e-3
-1.262, 4.061e-3
-1.263, 4.073e-3
-1.264, 4.085e-3
-1.265, 4.098e-3
-1.266, 4.110e-3
-1.267, 4.125e-3
-1.268, 4.141e-3
-1.269, 4.156e-3
-1.270, 4.172e-3
-1.271, 4.187e-3
-1.272, 4.199e-3
-1.273, 4.212e-3
-1.274, 4.224e-3
-1.275, 4.239e-3
-1.276, 4.249e-3
-1.277, 4.261e-3
-1.278, 4.273e-3
-1.279, 4.289e-3
-1.280, 4.304e-3
-1.281, 4.320e-3
-1.282, 4.332e-3
-1.283, 4.347e-3
-1.284, 4.363e-3
-1.285, 4.375e-3
-1.286, 4.391e-3
-1.287, 4.403e-3
-1.288, 4.415e-3
-1.289, 4.428e-3
-1.290, 4.440e-3
-1.291, 4.452e-3
-1.292, 4.464e-3
-1.293, 4.477e-3
-1.294, 4.489e-3
-1.295, 4.505e-3
-1.296, 4.517e-3
-1.297, 4.535e-3
-1.298, 4.548e-3
-1.299, 4.563e-3
-1.300, 4.572e-3
-1.301, 4.585e-3
-1.302, 4.597e-3
-1.303, 4.606e-3
-1.304, 4.619e-3
-1.305, 4.631e-3
-1.306, 4.640e-3
-1.307, 4.656e-3
-1.308, 4.668e-3
-1.309, 4.680e-3
-1.310, 4.693e-3
-1.311, 4.705e-3
-1.312, 4.717e-3
-1.313, 4.733e-3
-1.314, 4.742e-3
-1.315, 4.751e-3
-1.316, 4.760e-3
-1.317, 4.770e-3
-1.318, 4.779e-3
-1.319, 4.788e-3
-1.320, 4.801e-3
-1.321, 4.813e-3
-1.322, 4.825e-3
-1.323, 4.834e-3
-1.324, 4.850e-3
-1.325, 4.859e-3
-1.326, 4.875e-3
-1.327, 4.884e-3
-1.328, 4.890e-3
-1.329, 4.902e-3
-1.330, 4.912e-3
-1.331, 4.921e-3
-1.332, 4.930e-3
-1.333, 4.942e-3
-1.334, 4.955e-3
-1.335, 4.964e-3
-1.336, 4.976e-3
-1.337, 4.989e-3
-1.338, 5.001e-3
-1.339, 5.013e-3
-1.340, 5.023e-3
-1.341, 5.032e-3
-1.342, 5.044e-3
-1.343, 5.053e-3
-1.344, 5.063e-3
-1.345, 5.072e-3
-1.346, 5.084e-3
-1.347, 5.093e-3
-1.348, 5.106e-3
-1.349, 5.118e-3
-1.350, 5.130e-3
-1.351, 5.143e-3
-1.352, 5.155e-3
-1.353, 5.167e-3
-1.354, 5.177e-3
-1.355, 5.189e-3
-1.356, 5.201e-3
-1.357, 5.211e-3
-1.358, 5.220e-3
-1.359, 5.232e-3
-1.360, 5.245e-3
-1.361, 5.260e-3
-1.362, 5.269e-3
-1.363, 5.282e-3
-1.364, 5.294e-3
-1.365, 5.309e-3
-1.366, 5.325e-3
-1.367, 5.337e-3
-1.368, 5.349e-3
-1.369, 5.362e-3
-1.370, 5.374e-3
-1.371, 5.386e-3
-1.372, 5.402e-3
-1.373, 5.414e-3
-1.374, 5.430e-3
-1.375, 5.445e-3
-1.376, 5.460e-3
-1.377, 5.479e-3
-1.378, 5.491e-3
-1.379, 5.507e-3
-1.380, 5.519e-3
-1.381, 5.531e-3
-1.382, 5.544e-3
-1.383, 5.559e-3
-1.384, 5.571e-3
-1.385, 5.587e-3
-1.386, 5.596e-3
-1.387, 5.611e-3
-1.388, 5.624e-3
-1.389, 5.642e-3
-1.390, 5.655e-3
-1.391, 5.673e-3
-1.392, 5.688e-3
-1.393, 5.701e-3
-1.394, 5.716e-3
-1.395, 5.729e-3
-1.396, 5.741e-3
-1.397, 5.750e-3
-1.398, 5.759e-3
-1.399, 5.769e-3
-1.400, 5.787e-3
-1.401, 5.803e-3
-1.402, 5.821e-3
-1.403, 5.840e-3
-1.404, 5.861e-3
-1.405, 5.877e-3
-1.406, 5.895e-3
-1.407, 5.914e-3
-1.408, 5.932e-3
-1.409, 5.947e-3
-1.410, 5.966e-3
-1.411, 5.984e-3
-1.412, 6.003e-3
-1.413, 6.018e-3
-1.414, 6.037e-3
-1.415, 6.055e-3
-1.416, 6.074e-3
-1.417, 6.092e-3
-1.418, 6.111e-3
-1.419, 6.126e-3
-1.420, 6.145e-3
-1.421, 6.160e-3
-1.422, 6.179e-3
-1.423, 6.194e-3
-1.424, 6.210e-3
-1.425, 6.225e-3
-1.426, 6.240e-3
-1.427, 6.256e-3
-1.428, 6.277e-3
-1.429, 6.296e-3
-1.430, 6.317e-3
-1.431, 6.333e-3
-1.432, 6.354e-3
-1.433, 6.373e-3
-1.434, 6.391e-3
-1.435, 6.407e-3
-1.436, 6.425e-3
-1.437, 6.441e-3
-1.438, 6.459e-3
-1.439, 6.478e-3
-1.440, 6.496e-3
-1.441, 6.521e-3
-1.442, 6.539e-3
-1.443, 6.558e-3
-1.444, 6.580e-3
-1.445, 6.598e-3
-1.446, 6.617e-3
-1.447, 6.635e-3
-1.448, 6.654e-3
-1.449, 6.672e-3
-1.450, 6.691e-3
-1.451, 6.709e-3
-1.452, 6.728e-3
-1.453, 6.749e-3
-1.454, 6.771e-3
-1.455, 6.792e-3
-1.456, 6.817e-3
-1.457, 6.838e-3
-1.458, 6.860e-3
-1.459, 6.882e-3
-1.460, 6.900e-3
-1.461, 6.919e-3
-1.462, 6.937e-3
-1.463, 6.956e-3
-1.464, 6.974e-3
-1.465, 6.999e-3
-1.466, 7.017e-3
-1.467, 7.042e-3
-1.468, 7.064e-3
-1.469, 7.085e-3
-1.470, 7.113e-3
-1.471, 7.134e-3
-1.472, 7.156e-3
-1.473, 7.181e-3
-1.474, 7.205e-3
-1.475, 7.224e-3
-1.476, 7.249e-3
-1.477, 7.267e-3
-1.478, 7.289e-3
-1.479, 7.313e-3
-1.480, 7.338e-3
-1.481, 7.363e-3
-1.482, 7.387e-3
-1.483, 7.412e-3
-1.484, 7.440e-3
-1.485, 7.464e-3
-1.486, 7.492e-3
-1.487, 7.514e-3
-1.488, 7.535e-3
-1.489, 7.560e-3
-1.490, 7.582e-3
-1.491, 7.606e-3
-1.492, 7.634e-3
-1.493, 7.659e-3
-1.494, 7.686e-3
-1.495, 7.717e-3
-1.496, 7.745e-3
-1.497, 7.773e-3
-1.498, 7.800e-3
-1.499, 7.831e-3
-1.500, 7.856e-3
-1.501, 7.881e-3
-1.502, 7.908e-3
-1.503, 7.933e-3
-1.504, 7.958e-3
-1.505, 7.985e-3
-1.506, 8.010e-3
-1.507, 8.038e-3
-1.508, 8.062e-3
-1.509, 8.090e-3
-1.510, 8.118e-3
-1.511, 8.143e-3
-1.512, 8.170e-3
-1.513, 8.198e-3
-1.514, 8.223e-3
-1.515, 8.251e-3
-1.516, 8.275e-3
-1.517, 8.303e-3
-1.518, 8.331e-3
-1.519, 8.355e-3
-1.520, 8.386e-3
-1.521, 8.414e-3
-1.522, 8.442e-3
-1.523, 8.473e-3
-1.524, 8.503e-3
-1.525, 8.534e-3
-1.526, 8.565e-3
-1.527, 8.593e-3
-1.528, 8.624e-3
-1.529, 8.651e-3
-1.530, 8.682e-3
-1.531, 8.713e-3
-1.532, 8.744e-3
-1.533, 8.775e-3
-1.534, 8.809e-3
-1.535, 8.839e-3
-1.536, 8.873e-3
-1.537, 8.910e-3
-1.538, 8.944e-3
-1.539, 8.978e-3
-1.540, 9.009e-3
-1.541, 9.040e-3
-1.542, 9.074e-3
-1.543, 9.105e-3
-1.544, 9.135e-3
-1.545, 9.169e-3
-1.546, 9.200e-3
-1.547, 9.237e-3
-1.548, 9.271e-3
-1.549, 9.305e-3
-1.550, 9.339e-3
-1.551, 9.373e-3
-1.552, 9.407e-3
-1.553, 9.438e-3
-1.554, 9.468e-3
-1.555, 9.502e-3
-1.556, 9.536e-3
-1.557, 9.567e-3
-1.558, 9.601e-3
-1.559, 9.635e-3
-1.560, 9.672e-3
-1.561, 9.709e-3
-1.562, 9.746e-3
-1.563, 9.786e-3
-1.564, 9.823e-3
-1.565, 9.863e-3
-1.566, 9.900e-3
-1.567, 9.940e-3
-1.568, 9.977e-3
-1.569, 1.001e-2
-1.570, 1.005e-2
-1.571, 1.009e-2
-1.572, 1.013e-2
-1.573, 1.016e-2
-1.574, 1.020e-2
-1.575, 1.024e-2
-1.576, 1.028e-2
-1.577, 1.032e-2
-1.578, 1.036e-2
-1.579, 1.040e-2
-1.580, 1.044e-2
-1.581, 1.047e-2
-1.582, 1.051e-2
-1.583, 1.055e-2
-1.584, 1.059e-2
-1.585, 1.063e-2
-1.586, 1.067e-2
-1.587, 1.071e-2
-1.588, 1.076e-2
-1.589, 1.080e-2
-1.590, 1.085e-2
-1.591, 1.089e-2
-1.592, 1.093e-2
-1.593, 1.098e-2
-1.594, 1.102e-2
-1.595, 1.106e-2
-1.596, 1.111e-2
-1.597, 1.115e-2
-1.598, 1.119e-2
-1.599, 1.123e-2
-1.600, 1.120e-2
-1.599, 1.105e-2
-1.598, 1.093e-2
-1.597, 1.082e-2
-1.596, 1.072e-2
-1.595, 1.062e-2
-1.594, 1.052e-2
-1.593, 1.043e-2
-1.592, 1.033e-2
-1.591, 1.024e-2
-1.590, 1.014e-2
-1.589, 1.005e-2
-1.588, 9.965e-3
-1.587, 9.882e-3
-1.586, 9.798e-3
-1.585, 9.718e-3
-1.584, 9.638e-3
-1.583, 9.561e-3
-1.582, 9.481e-3
-1.581, 9.401e-3
-1.580, 9.323e-3
-1.579, 9.246e-3
-1.578, 9.166e-3
-1.577, 9.089e-3
-1.576, 9.015e-3
-1.575, 8.938e-3
-1.574, 8.864e-3
-1.573, 8.793e-3
-1.572, 8.722e-3
-1.571, 8.651e-3
-1.570, 8.584e-3
-1.569, 8.513e-3
-1.568, 8.442e-3
-1.567, 8.368e-3
-1.566, 8.297e-3
-1.565, 8.226e-3
-1.564, 8.155e-3
-1.563, 8.084e-3
-1.562, 8.019e-3
-1.561, 7.951e-3
-1.560, 7.887e-3
-1.559, 7.825e-3
-1.558, 7.763e-3
-1.557, 7.702e-3
-1.556, 7.640e-3
-1.555, 7.578e-3
-1.554, 7.520e-3
-1.553, 7.458e-3
-1.552, 7.397e-3
-1.551, 7.335e-3
-1.550, 7.273e-3
-1.549, 7.215e-3
-1.548, 7.153e-3
-1.547, 7.094e-3
-1.546, 7.039e-3
-1.545, 6.983e-3
-1.544, 6.928e-3
-1.543, 6.872e-3
-1.542, 6.817e-3
-1.541, 6.761e-3
-1.540, 6.706e-3
-1.539, 6.647e-3
-1.538, 6.592e-3
-1.537, 6.536e-3
-1.536, 6.481e-3
-1.535, 6.425e-3
-1.534, 6.373e-3
-1.533, 6.321e-3
-1.532, 6.271e-3
-1.531, 6.222e-3
-1.530, 6.176e-3
-1.529, 6.126e-3
-1.528, 6.080e-3
-1.527, 6.031e-3
-1.526, 5.978e-3
-1.525, 5.932e-3
-1.524, 5.880e-3
-1.523, 5.827e-3
-1.522, 5.781e-3
-1.521, 5.732e-3
-1.520, 5.688e-3
-1.519, 5.642e-3
-1.518, 5.596e-3
-1.517, 5.553e-3
-1.516, 5.507e-3
-1.515, 5.463e-3
-1.514, 5.417e-3
-1.513, 5.371e-3
-1.512, 5.325e-3
-1.511, 5.278e-3
-1.510, 5.229e-3
-1.509, 5.186e-3
-1.508, 5.140e-3
-1.507, 5.100e-3
-1.506, 5.056e-3
-1.505, 5.013e-3
-1.504, 4.973e-3
-1.503, 4.930e-3
-1.502, 4.887e-3
-1.501, 4.847e-3
-1.500, 4.801e-3
-1.499, 4.757e-3
-1.498, 4.714e-3
-1.497, 4.671e-3
-1.496, 4.631e-3
-1.495, 4.588e-3
-1.494, 4.548e-3
-1.493, 4.511e-3
-1.492, 4.471e-3
-1.491, 4.434e-3
-1.490, 4.397e-3
-1.489, 4.360e-3
-1.488, 4.323e-3
-1.487, 4.286e-3
-1.486, 4.249e-3
-1.485, 4.209e-3
-1.484, 4.169e-3
-1.483, 4.128e-3
-1.482, 4.088e-3
-1.481, 4.051e-3
-1.480, 4.017e-3
-1.479, 3.980e-3
-1.478, 3.947e-3
-1.477, 3.913e-3
-1.476, 3.876e-3
-1.475, 3.842e-3
-1.474, 3.808e-3
-1.473, 3.771e-3
-1.472, 3.740e-3
-1.471, 3.703e-3
-1.470, 3.666e-3
-1.469, 3.632e-3
-1.468, 3.598e-3
-1.467, 3.564e-3
-1.466, 3.533e-3
-1.465, 3.503e-3
-1.464, 3.469e-3
-1.463, 3.438e-3
-1.462, 3.407e-3
-1.461, 3.376e-3
-1.460, 3.342e-3
-1.459, 3.311e-3
-1.458, 3.278e-3
-1.457, 3.247e-3
-1.456, 3.216e-3
-1.455, 3.182e-3
-1.454, 3.151e-3
-1.453, 3.123e-3
-1.452, 3.093e-3
-1.451, 3.065e-3
-1.450, 3.034e-3
-1.449, 3.006e-3
-1.448, 2.978e-3
-1.447, 2.948e-3
-1.446, 2.917e-3
-1.445, 2.889e-3
-1.444, 2.855e-3
-1.443, 2.827e-3
-1.442, 2.797e-3
-1.441, 2.769e-3
-1.440, 2.744e-3
-1.439, 2.716e-3
-1.438, 2.692e-3
-1.437, 2.664e-3
-1.436, 2.639e-3
-1.435, 2.612e-3
-1.434, 2.587e-3
-1.433, 2.556e-3
-1.432, 2.528e-3
-1.431, 2.501e-3
-1.430, 2.473e-3
-1.429, 2.448e-3
-1.428, 2.417e-3
-1.427, 2.393e-3
-1.426, 2.368e-3
-1.425, 2.343e-3
-1.424, 2.319e-3
-1.423, 2.291e-3
-1.422, 2.266e-3
-1.421, 2.238e-3
-1.420, 2.211e-3
-1.419, 2.183e-3
-1.418, 2.155e-3
-1.417, 2.128e-3
-1.416, 2.100e-3
-1.415, 2.075e-3
-1.414, 2.047e-3
-1.413, 2.023e-3
-1.412, 2.001e-3
-1.411, 1.980e-3
-1.410, 1.955e-3
-1.409, 1.930e-3
-1.408, 1.909e-3
-1.407, 1.881e-3
-1.406, 1.856e-3
-1.405, 1.832e-3
-1.404, 1.807e-3
-1.403, 1.782e-3
-1.402, 1.758e-3
-1.401, 1.733e-3
-1.400, 1.711e-3
-1.399, 1.687e-3
-1.398, 1.668e-3
-1.397, 1.647e-3
-1.396, 1.622e-3
-1.395, 1.600e-3
-1.394, 1.579e-3
-1.393, 1.554e-3
-1.392, 1.532e-3
-1.391, 1.508e-3
-1.390, 1.483e-3
-1.389, 1.458e-3
-1.388, 1.437e-3
-1.387, 1.415e-3
-1.386, 1.397e-3
-1.385, 1.375e-3
-1.384, 1.354e-3
-1.383, 1.332e-3
-1.382, 1.310e-3
-1.381, 1.292e-3
-1.380, 1.267e-3
-1.379, 1.246e-3
-1.378, 1.224e-3
-1.377, 1.203e-3
-1.376, 1.181e-3
-1.375, 1.159e-3
-1.374, 1.138e-3
-1.373, 1.119e-3
-1.372, 1.098e-3
-1.371, 1.079e-3
-1.370, 1.061e-3
-1.369, 1.042e-3
-1.368, 1.024e-3
-1.367, 1.002e-3
-1.366, 9.806e-4
-1.365, 9.590e-4
-1.364, 9.374e-4
-1.363, 9.158e-4
-1.362, 8.943e-4
-1.361, 8.727e-4
-1.360, 8.542e-4
-1.359, 8.357e-4
-1.358, 8.172e-4
-1.357, 7.987e-4
-1.356, 7.802e-4
-1.355, 7.617e-4
-1.354, 7.432e-4
-1.353, 7.216e-4
-1.352, 7.031e-4
-1.351, 6.815e-4
-1.350, 6.599e-4
-1.349, 6.384e-4
-1.348, 6.199e-4
-1.347, 6.014e-4
-1.346, 5.829e-4
-1.345, 5.644e-4
-1.344, 5.489e-4
-1.343, 5.305e-4
-1.342, 5.120e-4
-1.341, 4.965e-4
-1.340, 4.750e-4
-1.339, 4.565e-4
-1.338, 4.380e-4
-1.337, 4.195e-4
-1.336, 3.979e-4
-1.335, 3.794e-4
-1.334, 3.609e-4
-1.333, 3.455e-4
-1.332, 3.270e-4
-1.331, 3.085e-4
-1.330, 2.931e-4
-1.329, 2.776e-4
-1.328, 2.622e-4
-1.327, 2.406e-4
-1.326, 2.221e-4
-1.325, 2.036e-4
-1.324, 1.851e-4
-1.323, 1.666e-4
-1.322, 1.481e-4
-1.321, 1.266e-4
-1.320, 1.142e-4
-1.319, 9.573e-5
-1.318, 8.032e-5
-1.317, 6.490e-5
-1.316, 4.949e-5
-1.315, 3.099e-5
-1.314, 1.557e-5
-1.313, -2.927e-6
-1.312, -2.143e-5
-1.311, -3.992e-5
-1.310, -5.534e-5
-1.309, -7.384e-5
-1.308, -9.542e-5
-1.307, -1.108e-4
-1.306, -1.232e-4
-1.305, -1.386e-4
-1.304, -1.540e-4
-1.303, -1.694e-4
-1.302, -1.848e-4
-1.301, -2.002e-4
-1.300, -2.187e-4
-1.299, -2.372e-4
-1.298, -2.557e-4
-1.297, -2.712e-4
-1.296, -2.897e-4
-1.295, -3.051e-4
-1.294, -3.205e-4
-1.293, -3.359e-4
-1.292, -3.513e-4
-1.291, -3.637e-4
-1.290, -3.791e-4
-1.289, -3.945e-4
-1.288, -4.068e-4
-1.287, -4.253e-4
-1.286, -4.407e-4
-1.285, -4.592e-4
-1.284, -4.746e-4
-1.283, -4.931e-4
-1.282, -5.086e-4
-1.281, -5.240e-4
-1.280, -5.363e-4
-1.279, -5.517e-4
-1.278, -5.671e-4
-1.277, -5.795e-4
-1.276, -5.949e-4
-1.275, -6.072e-4
-1.274, -6.226e-4
-1.273, -6.380e-4
-1.272, -6.535e-4
-1.271, -6.720e-4
-1.270, -6.874e-4
-1.269, -7.028e-4
-1.268, -7.182e-4
-1.267, -7.336e-4
-1.266, -7.460e-4
-1.265, -7.614e-4
-1.264, -7.737e-4
-1.263, -7.860e-4
-1.262, -7.984e-4
-1.261, -8.138e-4
-1.260, -8.323e-4
-1.259, -8.446e-4
-1.258, -8.600e-4
-1.257, -8.785e-4
-1.256, -8.939e-4
-1.255, -9.094e-4
-1.254, -9.217e-4
-1.253, -9.340e-4
-1.252, -9.494e-4
-1.251, -9.587e-4
-1.250, -9.710e-4
-1.249, -9.864e-4
-1.248, -9.988e-4
-1.247, -1.014e-3
-1.246, -1.030e-3
-1.245, -1.045e-3
-1.244, -1.060e-3
-1.243, -1.076e-3
-1.242, -1.088e-3
-1.241, -1.104e-3
-1.240, -1.119e-3
-1.239, -1.131e-3
-1.238, -1.144e-3
-1.237, -1.156e-3
-1.236, -1.168e-3
-1.235, -1.181e-3
-1.234, -1.196e-3
-1.233, -1.208e-3
-1.232, -1.224e-3
-1.231, -1.236e-3
-1.230, -1.252e-3
-1.229, -1.267e-3
-1.228, -1.282e-3
-1.227, -1.295e-3
-1.226, -1.307e-3
-1.225, -1.319e-3
-1.224, -1.329e-3
-1.223, -1.341e-3
-1.222, -1.353e-3
-1.221, -1.366e-3
-1.220, -1.378e-3
-1.219, -1.393e-3
-1.218, -1.406e-3
-1.217, -1.421e-3
-1.216, -1.433e-3
-1.215, -1.449e-3
-1.214, -1.461e-3
-1.213, -1.474e-3
-1.212, -1.486e-3
-1.211, -1.495e-3
-1.210, -1.504e-3
-1.209, -1.520e-3
-1.208, -1.532e-3
-1.207, -1.544e-3
-1.206, -1.560e-3
-1.205, -1.572e-3
-1.204, -1.588e-3
-1.203, -1.600e-3
-1.202, -1.612e-3
-1.201, -1.628e-3
-1.200, -1.637e-3
-1.199, -1.649e-3
-1.198, -1.659e-3
-1.197, -1.671e-3
-1.196, -1.680e-3
-1.195, -1.696e-3
-1.194, -1.705e-3
-1.193, -1.717e-3
-1.192, -1.729e-3
-1.191, -1.745e-3
-1.190, -1.757e-3
-1.189, -1.770e-3
-1.188, -1.782e-3
-1.187, -1.791e-3
-1.186, -1.803e-3
-1.185, -1.816e-3
-1.184, -1.825e-3
-1.183, -1.834e-3
-1.182, -1.847e-3
-1.181, -1.859e-3
-1.180, -1.871e-3
-1.179, -1.887e-3
-1.178, -1.899e-3
-1.177, -1.914e-3
-1.176, -1.927e-3
-1.175, -1.942e-3
-1.174, -1.951e-3
-1.173, -1.964e-3
-1.172, -1.976e-3
-1.171, -1.985e-3
-1.170, -1.995e-3
-1.169, -2.007e-3
-1.168, -2.016e-3
-1.167, -2.029e-3
-1.166, -2.044e-3
-1.165, -2.056e-3
-1.164, -2.069e-3
-1.163, -2.084e-3
-1.162, -2.096e-3
-1.161, -2.109e-3
-1.160, -2.118e-3
-1.159, -2.130e-3
-1.158, -2.143e-3
-1.157, -2.149e-3
-1.156, -2.161e-3
-1.155, -2.173e-3
-1.154, -2.186e-3
-1.153, -2.198e-3
-1.152, -2.210e-3
-1.151, -2.226e-3
-1.150, -2.238e-3
-1.149, -2.251e-3
-1.148, -2.263e-3
-1.147, -2.275e-3
-1.146, -2.288e-3
-1.145, -2.300e-3
-1.144, -2.309e-3
-1.143, -2.318e-3
-1.142, -2.334e-3
-1.141, -2.346e-3
-1.140, -2.362e-3
-1.139, -2.374e-3
-1.138, -2.386e-3
-1.137, -2.402e-3
-1.136, -2.414e-3
-1.135, -2.426e-3
-1.134, -2.439e-3
-1.133, -2.451e-3
-1.132, -2.463e-3
-1.131, -2.472e-3
-1.130, -2.482e-3
-1.129, -2.491e-3
-1.128, -2.503e-3
-1.127, -2.519e-3
-1.126, -2.531e-3
-1.125, -2.543e-3
-1.124, -2.559e-3
-1.123, -2.574e-3
-1.122, -2.587e-3
-1.121, -2.599e-3
-1.120, -2.611e-3
-1.119, -2.624e-3
-1.118, -2.636e-3
-1.117, -2.648e-3
-1.116, -2.657e-3
-1.115, -2.673e-3
-1.114, -2.682e-3
-1.113, -2.694e-3
-1.112, -2.710e-3
-1.111, -2.725e-3
-1.110, -2.738e-3
-1.109, -2.753e-3
-1.108, -2.765e-3
-1.107, -2.778e-3
-1.106, -2.790e-3
-1.105, -2.802e-3
-1.104, -2.812e-3
-1.103, -2.821e-3
-1.102, -2.833e-3
-1.101, -2.849e-3
-1.100, -2.861e-3
-1.099, -2.876e-3
-1.098, -2.889e-3
-1.097, -2.904e-3
-1.096, -2.920e-3
-1.095, -2.932e-3
-1.094, -2.944e-3
-1.093, -2.957e-3
-1.092, -2.972e-3
-1.091, -2.984e-3
-1.090, -2.994e-3
-1.089, -3.006e-3
-1.088, -3.018e-3
-1.087, -3.034e-3
-1.086, -3.049e-3
-1.085, -3.061e-3
-1.084, -3.077e-3
-1.083, -3.092e-3
-1.082, -3.105e-3
-1.081, -3.120e-3
-1.080, -3.132e-3
-1.079, -3.142e-3
-1.078, -3.157e-3
-1.077, -3.166e-3
-1.076, -3.179e-3
-1.075, -3.191e-3
-1.074, -3.203e-3
-1.073, -3.216e-3
-1.072, -3.231e-3
-1.071, -3.243e-3
-1.070, -3.262e-3
-1.069, -3.274e-3
-1.068, -3.286e-3
-1.067, -3.299e-3
-1.066, -3.311e-3
-1.065, -3.323e-3
-1.064, -3.333e-3
-1.063, -3.345e-3
-1.062, -3.357e-3
-1.061, -3.367e-3
-1.060, -3.382e-3
-1.059, -3.397e-3
-1.058, -3.410e-3
-1.057, -3.425e-3
-1.056, -3.438e-3
-1.055, -3.453e-3
-1.054, -3.465e-3
-1.053, -3.475e-3
-1.052, -3.487e-3
-1.051, -3.496e-3
-1.050, -3.505e-3
-1.049, -3.518e-3
-1.048, -3.527e-3
-1.047, -3.536e-3
-1.046, -3.549e-3
-1.045, -3.561e-3
-1.044, -3.573e-3
-1.043, -3.586e-3
-1.042, -3.598e-3
-1.041, -3.607e-3
-1.040, -3.616e-3
-1.039, -3.626e-3
-1.038, -3.632e-3
-1.037, -3.641e-3
-1.036, -3.647e-3
-1.035, -3.656e-3
-1.034, -3.666e-3
-1.033, -3.675e-3
-1.032, -3.687e-3
-1.031, -3.696e-3
-1.030, -3.706e-3
-1.029, -3.715e-3
-1.028, -3.721e-3
-1.027, -3.730e-3
-1.026, -3.737e-3
-1.025, -3.743e-3
-1.024, -3.749e-3
-1.023, -3.755e-3
-1.022, -3.761e-3
-1.021, -3.767e-3
-1.020, -3.777e-3
-1.019, -3.786e-3
-1.018, -3.792e-3
-1.017, -3.801e-3
-1.016, -3.807e-3
-1.015, -3.817e-3
-1.014, -3.823e-3
-1.013, -3.826e-3
-1.012, -3.832e-3
-1.011, -3.835e-3
-1.010, -3.838e-3
-1.009, -3.848e-3
-1.008, -3.851e-3
-1.007, -3.857e-3
-1.006, -3.863e-3
-1.005, -3.869e-3
-1.004, -3.878e-3
-1.003, -3.881e-3
-1.002, -3.888e-3
-1.001, -3.897e-3
