Potential V vs RHE, Current mA cm-2
0.4132999999999999,-0.010106697526235822
0.4122999999999999,-0.011196025227131898
0.4112999999999999,-0.01151292055830167
0.4102999999999999,-0.011661465244787497
0.4092999999999999,-0.011828401178171572
0.4082999999999999,-0.011935919236961313
0.4072999999999999,-0.012023631337552947
0.4062999999999999,-0.012104269881645254
0.4052999999999999,-0.0121792495805381
0.4042999999999999,-0.012282523505428248
0.4032999999999999,-0.012354673781721365
0.4022999999999999,-0.012418335790215292
0.4012999999999999,-0.012465021263110838
0.4002999999999999,-0.01252443913770517
0.3992999999999999,-0.012627713062595318
0.3982999999999999,-0.012699863338888435
0.3972999999999999,-0.012743719389184251
0.3962999999999999,-0.012808796108978043
0.3952999999999999,-0.012845578602774533
0.3942999999999999,-0.012913484745168053
0.39329999999999987,-0.012994123289260362
0.39229999999999987,-0.013032320494356717
0.39129999999999987,-0.013076176544652533
0.39029999999999987,-0.013118617883648485
0.38929999999999987,-0.013214818252039308
0.38829999999999987,-0.01327423612663364
0.38729999999999987,-0.013303945063930806
0.38629999999999987,-0.013364777649825002
0.38529999999999986,-0.013432683792218523
0.38429999999999986,-0.01349068695551299
0.38329999999999986,-0.01354727540750759
0.38229999999999986,-0.013560007809206376
0.38129999999999986,-0.013595375591703002
0.38029999999999986,-0.013623669817700303
0.37929999999999986,-0.013694405382693555
0.37829999999999986,-0.013758067391187482
0.37729999999999986,-0.013804752864083029
0.37629999999999986,-0.013834461801380194
0.37529999999999986,-0.013869829583876819
0.37429999999999986,-0.013927832747171286
0.37329999999999985,-0.013990080044365347
0.37229999999999985,-0.014014130136463054
0.37129999999999985,-0.014021203692962378
0.37029999999999985,-0.014077792144956981
0.36929999999999985,-0.014147112998650365
0.36829999999999985,-0.014203701450644968
0.36729999999999985,-0.014217848563643616
0.36629999999999985,-0.01426028990263957
0.36529999999999985,-0.01427443701563822
0.36429999999999985,-0.014331025467632824
0.36329999999999985,-0.014387613919627423
0.36229999999999984,-0.014415908145624722
0.36129999999999984,-0.014444202371622025
0.36029999999999984,-0.014472496597619325
0.35929999999999984,-0.014543232162612576
0.35829999999999984,-0.014599820614607179
0.35729999999999984,-0.014628114840604478
0.35629999999999984,-0.014670556179600431
0.35529999999999984,-0.01469885040559773
0.35429999999999984,-0.014769585970590984
0.35329999999999984,-0.014840321535584235
0.35229999999999984,-0.014840321535584235
0.35129999999999983,-0.014868615761581536
0.35029999999999983,-0.014896909987578835
0.34929999999999983,-0.014953498439573438
0.34829999999999983,-0.01503838111756534
0.34729999999999983,-0.015109116682558592
0.34629999999999983,-0.015151558021554544
0.34529999999999983,-0.015179852247551842
0.34429999999999983,-0.015208146473549147
0.3432999999999998,-0.015250587812545097
0.3422999999999998,-0.015264734925543746
0.3412999999999998,-0.015293029151541045
0.3402999999999998,-0.015321323377538347
0.3392999999999998,-0.0153637647165343
0.3382999999999998,-0.01546279450752485
0.3372999999999998,-0.015491088733522153
0.3362999999999998,-0.015491088733522153
0.3352999999999998,-0.015533530072518101
0.3342999999999998,-0.015561824298515404
0.3332999999999998,-0.015618412750510005
0.3322999999999998,-0.015660854089505957
0.3312999999999998,-0.01568914831550326
0.3302999999999998,-0.015717442541500558
0.3292999999999998,-0.015774030993495156
0.3282999999999998,-0.01583061944548976
0.3272999999999998,-0.01585891367148706
0.3262999999999998,-0.01585891367148706
0.3252999999999999,-0.015901355010483013
0.3242999999999999,-0.015943796349478963
0.3232999999999999,-0.016000384801473564
0.3222999999999999,-0.016056973253468165
0.3212999999999999,-0.01608526747946547
0.3202999999999999,-0.016099414592464115
0.3192999999999999,-0.01615600304445872
0.3182999999999999,-0.016212591496453318
0.3172999999999999,-0.016226738609451972
0.3162999999999999,-0.01625503283544927
0.3152999999999999,-0.016283327061446574
0.3142999999999999,-0.016339915513441175
0.3132999999999999,-0.016396503965435776
0.3122999999999999,-0.016410651078434424
0.3112999999999999,-0.016424798191433075
0.3102999999999999,-0.016453092417430374
0.3092999999999999,-0.01652382798242363
0.3082999999999999,-0.01658041643441823
0.3072999999999999,-0.01660871066041553
0.3062999999999999,-0.01662285777341418
0.3052999999999999,-0.01665115199941148
0.3042999999999999,-0.016679446225408782
0.3032999999999999,-0.016750181790402035
0.3022999999999999,-0.016750181790402035
0.3012999999999999,-0.016778476016399334
0.3002999999999999,-0.016820917355395284
0.2992999999999999,-0.016863358694391237
0.2982999999999999,-0.01691994714638584
0.2972999999999999,-0.016948241372383138
0.2962999999999999,-0.01697653559838044
0.2952999999999999,-0.017004829824377742
0.2942999999999999,-0.017047271163373692
0.2932999999999999,-0.017118006728366945
0.2922999999999999,-0.017160448067362895
0.2912999999999999,-0.017174595180361543
0.2902999999999999,-0.017217036519357496
0.2892999999999999,-0.017273624971352097
0.2882999999999999,-0.01731606631034805
0.2872999999999999,-0.0173302134233467
0.2862999999999999,-0.01731606631034805
0.2852999999999999,-0.01734436053634535
0.2842999999999999,-0.017400948988339954
0.2832999999999999,-0.017457537440334552
0.2822999999999999,-0.017514125892329157
0.2812999999999999,-0.0175282730053278
0.2802999999999999,-0.017556567231325104
0.2792999999999999,-0.017584861457322406
0.2782999999999999,-0.017627302796318356
0.2772999999999999,-0.017627302796318356
0.2762999999999999,-0.01768389124831296
0.2752999999999999,-0.01772633258730891
0.2742999999999999,-0.01776877392630486
0.2732999999999999,-0.017825362378299462
0.2722999999999999,-0.017839509491298113
0.2712999999999999,-0.01785365660429676
0.2702999999999999,-0.017910245056291362
0.2692999999999999,-0.017938539282288665
0.26829999999999987,-0.018009274847281917
0.26729999999999987,-0.018023421960280565
0.26629999999999987,-0.018051716186277867
0.26529999999999987,-0.018065863299276518
0.26429999999999987,-0.018108304638272472
0.26329999999999987,-0.018193187316264375
0.26229999999999987,-0.01820733442926302
0.26129999999999987,-0.018221481542261674
0.26029999999999986,-0.018249775768258973
0.25929999999999986,-0.018306364220253574
0.25829999999999986,-0.018362952672248176
0.25729999999999986,-0.018391246898245478
0.25629999999999986,-0.018405394011244126
0.25529999999999986,-0.018447835350240076
0.25429999999999986,-0.01847612957623738
0.25329999999999986,-0.018546865141230634
0.25229999999999986,-0.018575159367227933
0.25129999999999986,-0.018575159367227933
0.25029999999999986,-0.018645894932221182
0.24929999999999986,-0.018674189158218484
0.24829999999999985,-0.018730777610213082
0.24729999999999985,-0.018759071836210388
0.24629999999999985,-0.018787366062207687
0.24529999999999985,-0.01882980740120364
0.24429999999999985,-0.018900542966196893
0.24329999999999985,-0.018942984305192843
0.24229999999999985,-0.018999572757187444
0.24129999999999985,-0.019013719870186095
0.24029999999999985,-0.019027866983184743
0.23929999999999985,-0.019098602548177995
0.23829999999999985,-0.019141043887173945
0.23729999999999984,-0.0191834852261699
0.23629999999999984,-0.019197632339168547
0.23529999999999984,-0.01922592656516585
0.23429999999999984,-0.01928251501716045
0.23329999999999984,-0.0193249563561564
0.23229999999999984,-0.01933910346915505
0.23129999999999984,-0.019353250582153703
0.23029999999999984,-0.019353250582153703
0.22929999999999984,-0.019395691921149656
0.22829999999999984,-0.019452280373144254
0.22729999999999984,-0.019494721712140204
0.22629999999999983,-0.019523015938137503
0.22529999999999983,-0.019551310164134805
0.22429999999999983,-0.019565457277133456
0.22329999999999983,-0.019622045729128058
0.22229999999999983,-0.01963619284212671
0.22129999999999983,-0.019664487068124008
0.22029999999999983,-0.01970692840711996
0.21929999999999983,-0.019749369746115915
0.21829999999999983,-0.019791811085111865
0.21729999999999983,-0.019805958198110513
0.21629999999999983,-0.019805958198110513
0.21529999999999982,-0.019848399537106463
0.21429999999999982,-0.019876693763103765
0.21329999999999982,-0.019947429328097017
0.21229999999999982,-0.01997572355409432
0.21129999999999982,-0.019989870667092968
0.21029999999999982,-0.020018164893090266
0.20929999999999982,-0.02004645911908757
0.20829999999999982,-0.02008890045808352
0.20729999999999982,-0.020131341797079472
0.20629999999999982,-0.020145488910078124
0.20529999999999982,-0.020173783136075422
0.20429999999999982,-0.020216224475071376
0.20329999999999981,-0.020272812927065977
0.2022999999999998,-0.020315254266061927
0.2012999999999998,-0.020343548492059226
0.20029999999999992,-0.020357695605057877
0.19929999999999992,-0.02041428405705248
0.19829999999999992,-0.020470872509047083
0.19729999999999992,-0.02048501962204573
0.19629999999999992,-0.020499166735044382
0.19529999999999992,-0.020541608074040336
0.19429999999999992,-0.020626490752032236
0.19329999999999992,-0.020697226317025485
0.19229999999999992,-0.020683079204026837
0.19129999999999991,-0.02071137343002414
0.1902999999999999,-0.02075381476902009
0.1892999999999999,-0.02079625610801604
0.1882999999999999,-0.020838697447011986
0.1872999999999999,-0.02088113878600794
0.1862999999999999,-0.020909433012005242
0.1852999999999999,-0.020966021463999843
0.1842999999999999,-0.020994315689997142
0.1832999999999999,-0.021065051254990398
0.1822999999999999,-0.021065051254990398
0.1812999999999999,-0.021107492593986348
0.1802999999999999,-0.0211782281589796
0.1792999999999999,-0.0212065223849769
0.1782999999999999,-0.021277257949970152
0.1772999999999999,-0.021305552175967454
0.1762999999999999,-0.021305552175967454
0.1752999999999999,-0.021347993514963404
0.1742999999999999,-0.021390434853959358
0.1732999999999999,-0.021432876192955305
0.1722999999999999,-0.021489464644949906
0.1712999999999999,-0.02150361175794856
0.1702999999999999,-0.021546053096944507
0.1692999999999999,-0.02158849443594046
0.1682999999999999,-0.021645082887935062
0.1672999999999999,-0.02167337711393236
0.1662999999999999,-0.021687524226931015
0.1652999999999999,-0.021715818452928314
0.1642999999999999,-0.021758259791924264
0.1632999999999999,-0.021828995356917517
0.1622999999999999,-0.021871436695913467
0.1612999999999999,-0.02189973092191077
0.1602999999999999,-0.021928025147908068
0.1592999999999999,-0.02197046648690402
0.15829999999999989,-0.022027054938898623
0.15729999999999988,-0.02205534916489592
0.15629999999999988,-0.02208364339089322
0.15529999999999988,-0.022097790503891875
0.15429999999999988,-0.022168526068885124
0.15329999999999988,-0.022239261633878377
0.15229999999999988,-0.02226755585987568
0.15129999999999988,-0.02230999719887163
0.15029999999999988,-0.02230999719887163
0.14929999999999988,-0.02235243853786758
0.14829999999999988,-0.02242317410286083
0.14729999999999988,-0.02245146832885813
0.14629999999999987,-0.022479762554855433
0.14529999999999987,-0.022493909667854084
0.14429999999999987,-0.022522203893851383
0.14329999999999987,-0.022592939458844635
0.14229999999999987,-0.022663675023837888
0.14129999999999987,-0.02267782213683654
0.14029999999999987,-0.02272026347583249
0.13929999999999987,-0.02276270481482844
0.13829999999999987,-0.02280514615382439
0.13729999999999987,-0.022847587492820343
0.13629999999999987,-0.022861734605818994
0.13529999999999986,-0.02287588171881764
0.13429999999999986,-0.022932470170812246
0.13329999999999986,-0.022989058622806844
0.13229999999999986,-0.023031499961802798
0.13129999999999986,-0.023017352848804146
0.13029999999999986,-0.0230597941878001
0.12929999999999986,-0.023116382639794698
0.12829999999999986,-0.023172971091789302
0.12729999999999986,-0.0232012653177866
0.12629999999999986,-0.0232295595437839
0.12529999999999986,-0.023257853769781203
0.12429999999999986,-0.023300295108777156
0.12329999999999985,-0.023356883560771757
0.12229999999999985,-0.02338517778676906
0.12129999999999985,-0.023427619125765006
0.12029999999999985,-0.02345591335176231
0.11929999999999985,-0.023512501803756906
0.11829999999999985,-0.02356909025575151
0.11729999999999985,-0.023625678707746112
0.11629999999999985,-0.023625678707746112
0.11529999999999985,-0.02365397293374341
0.11429999999999985,-0.023682267159740714
0.11329999999999985,-0.023767149837732617
0.11229999999999984,-0.023809591176728567
0.11129999999999984,-0.02385203251572452
0.11029999999999984,-0.02388032674172182
0.10929999999999984,-0.02392276808071777
0.10829999999999984,-0.02400765075870967
0.10729999999999984,-0.024064239210704275
0.10629999999999984,-0.024092533436701577
0.10529999999999984,-0.024078386323702922
0.10429999999999984,-0.024106680549700225
0.10329999999999984,-0.024163269001694826
0.10229999999999984,-0.024219857453689427
0.10129999999999983,-0.02424815167968673
0.10029999999999983,-0.024304740131681327
0.09929999999999983,-0.024318887244679982
0.09829999999999983,-0.024375475696674583
0.09729999999999983,-0.024432064148669184
0.09629999999999983,-0.024446211261667832
0.09529999999999983,-0.024488652600663786
0.09429999999999983,-0.024502799713662437
0.09329999999999983,-0.02457353527865569
0.09229999999999983,-0.024630123730650287
0.09129999999999983,-0.02465841795664759
0.09029999999999982,-0.02468671218264489
0.08929999999999982,-0.024729153521640842
0.08829999999999982,-0.02479988908663409
0.08729999999999982,-0.024842330425630044
0.08629999999999982,-0.024870624651627343
0.08529999999999982,-0.0249413602166206
0.08429999999999982,-0.0249979486686152
0.08329999999999982,-0.02506868423360845
0.08229999999999982,-0.025139419798601705
0.08129999999999982,-0.02515356691160035
0.08029999999999982,-0.025167714024599004
0.07929999999999982,-0.025196008250596303
0.07829999999999981,-0.025238449589592253
0.07729999999999981,-0.025280890928588207
0.07629999999999981,-0.025295038041586858
0.07529999999999992,-0.025337479380582808
0.07429999999999992,-0.02537992071957876
0.07329999999999992,-0.02546480339757066
0.07229999999999992,-0.02553553896256391
0.07129999999999992,-0.02554968607556256
0.07029999999999992,-0.025577980301559864
0.06929999999999992,-0.025606274527557166
0.06829999999999992,-0.025662862979551764
0.06729999999999992,-0.025705304318547718
0.06629999999999991,-0.025747745657543668
0.06529999999999991,-0.02580433410953827
0.06429999999999991,-0.025832628335535568
0.06329999999999991,-0.02590336390052882
0.06229999999999991,-0.025988246578520724
0.06129999999999991,-0.026030687917516674
0.06029999999999991,-0.026087276369511275
0.05929999999999991,-0.02612971770850723
0.05829999999999991,-0.026186306160501827
0.05729999999999991,-0.02622874749949778
0.056299999999999906,-0.02622874749949778
0.055299999999999905,-0.02629948306449103
0.054299999999999904,-0.02632777729048833
0.0532999999999999,-0.026412659968480235
0.0522999999999999,-0.026483395533473487
0.0512999999999999,-0.026483395533473487
0.0502999999999999,-0.02655413109846674
0.0492999999999999,-0.02661071955046134
0.0482999999999999,-0.026667308002455942
0.0472999999999999,-0.02673804356744919
0.0462999999999999,-0.026752190680447843
0.045299999999999896,-0.026808779132442447
0.044299999999999895,-0.026865367584437045
0.043299999999999894,-0.026936103149430297
0.04229999999999989,-0.027006838714423546
0.04129999999999989,-0.027049280053419503
0.04029999999999989,-0.027105868505414105
0.03929999999999989,-0.027148309844410055
0.03829999999999989,-0.02723319252240196
0.03729999999999989,-0.027289780974396556
0.03629999999999989,-0.02731807520039386
0.03529999999999989,-0.02736051653938981
0.034299999999999886,-0.02741710499138441
0.033299999999999885,-0.02750198766937631
0.032299999999999884,-0.027530281895373616
0.031299999999999883,-0.027572723234369562
0.030299999999999883,-0.02762931168636417
0.02929999999999988,-0.02768590013835877
0.02829999999999988,-0.027784929929349323
0.02729999999999988,-0.027841518381343924
0.02629999999999988,-0.027898106833338522
0.025299999999999878,-0.027926401059335824
0.024299999999999877,-0.027982989511330426
0.023299999999999876,-0.028082019302320977
0.022299999999999875,-0.02815275486731423
0.021299999999999875,-0.02819519620631018
0.020299999999999874,-0.028223490432307482
0.019299999999999873,-0.028265931771303435
0.018299999999999872,-0.028350814449295336
0.01729999999999987,-0.028407402901289937
0.01629999999999987,-0.028449844240285887
0.01529999999999987,-0.028534726918277787
0.014299999999999868,-0.02860546248327104
0.013299999999999867,-0.028676198048264292
0.012299999999999978,-0.028718639387260245
0.011299999999999866,-0.028746933613257548
0.010299999999999976,-0.02880352206525215
0.009299999999999864,-0.028845963404248096
0.008299999999999974,-0.02893084608224
0.007299999999999862,-0.02902987587323055
0.006299999999999972,-0.029058170099227856
0.00529999999999986,-0.029086464325225152
0.0042999999999999705,-0.029143052777219756
0.0032999999999998586,-0.029199641229214358
0.0022999999999999687,-0.029298671020204912
0.0012999999999998568,-0.029326965246202208
0.00029999999999996696,-0.029369406585198165
-0.000700000000000145,-0.02941184792419411
-0.0017000000000000348,-0.029482583489187364
-0.0027000000000001467,-0.029553319054180613
-0.0037000000000000366,-0.029581613280177915
-0.0047000000000001485,-0.029624054619173872
-0.005700000000000038,-0.02969479018416712
-0.00670000000000015,-0.029765525749160374
-0.00770000000000004,-0.029836261314153626
-0.008700000000000152,-0.029892849766148224
-0.009700000000000042,-0.029935291105144177
-0.010700000000000154,-0.03002017378313608
-0.011700000000000044,-0.03010505646112798
-0.012700000000000156,-0.030161644913122586
-0.013700000000000045,-0.030204086252118532
-0.014700000000000157,-0.030260674704113137
-0.015700000000000047,-0.030288968930110433
-0.01670000000000016,-0.030387998721100987
-0.01770000000000005,-0.030458734286094236
-0.01870000000000016,-0.030487028512091542
-0.01970000000000005,-0.03051532273808884
-0.020700000000000163,-0.030571911190083446
-0.021700000000000053,-0.030628499642078044
-0.022700000000000164,-0.030699235207071292
-0.023700000000000054,-0.030755823659065897
-0.024700000000000166,-0.030812412111060502
-0.025700000000000056,-0.03085485345005645
-0.026700000000000168,-0.0309255890150497
-0.027700000000000058,-0.031010471693041605
-0.02870000000000017,-0.031052913032037555
-0.02970000000000006,-0.031123648597030807
-0.03070000000000017,-0.031180237049025412
-0.03170000000000006,-0.031222678388021355
-0.03270000000000017,-0.03132170817901191
-0.03370000000000006,-0.031350002405009215
-0.034700000000000175,-0.031420737970002464
-0.035700000000000065,-0.03147732642199706
-0.03670000000000018,-0.031533914873991674
-0.03770000000000007,-0.03164709177798087
-0.03870000000000018,-0.03167538600397817
-0.03970000000000007,-0.03170368022997547
-0.04070000000000018,-0.03174612156897143
-0.04170000000000007,-0.03183100424696332
-0.04270000000000018,-0.03193003403795388
-0.04370000000000007,-0.03195832826395118
-0.044700000000000184,-0.03202906382894443
-0.045700000000000074,-0.032085652280939035
-0.046700000000000186,-0.032184682071929586
-0.047700000000000076,-0.03224127052392419
-0.04870000000000019,-0.03228371186292014
-0.04970000000000008,-0.032326153201916084
-0.05070000000000019,-0.03239688876690934
-0.05170000000000008,-0.03248177144490124
-0.05270000000000019,-0.03258080123589179
-0.05370000000000008,-0.03259494834889044
-0.05470000000000019,-0.03265153680088505
-0.05570000000000008,-0.032708125252879645
-0.056700000000000195,-0.032807155043870204
-0.057700000000000085,-0.03289203772186211
-0.058700000000000196,-0.03294862617385671
-0.059700000000000086,-0.032976920399854
-0.0607000000000002,-0.03301936173884996
-0.06170000000000009,-0.03311839152984051
-0.0627000000000002,-0.03321742132083106
-0.06370000000000009,-0.033274009772825665
-0.0647000000000002,-0.03331645111182161
