May 5, 2025   10:10:10
Cyclic Voltammetry
File: c:/users/guazh/data/banditlqround7_x0exp1108_r5/2025-04-30-exp1247\exp1247-2025-05-05t09_58_35-h2koh\exp1247_cv_sr_700mvs_efin_-1500mv.bin
Data Source:  Experiment
Instrument Model:  CHI760E
Header: CV ran at 700 mVs
Note: 

Init E (V) = -1
High E (V) = -1
Low E (V) = -1.5
Final E (V) = -1
Init P/N = N
Scan Rate (V/s) = 0.7
Segment = 3
Sample Interval (V) = 0.001
Quiet Time (sec) = 2
Sensitivity (A/V) = 0.01
Comp R (ohm) = 1.1

Results:

Channel 1:
Segment 1:

Segment 2:

Segment 3:

Potential/V, Current/A

-1.000, 4.719e-4
-1.001, 6.322e-4
-1.002, 7.586e-4
-1.003, 8.634e-4
-1.004, 9.528e-4
-1.005, 1.030e-3
-1.006, 1.095e-3
-1.007, 1.153e-3
-1.008, 1.203e-3
-1.009, 1.246e-3
-1.010, 1.283e-3
-1.011, 1.317e-3
-1.012, 1.347e-3
-1.013, 1.375e-3
-1.014, 1.406e-3
-1.015, 1.437e-3
-1.016, 1.465e-3
-1.017, 1.492e-3
-1.018, 1.523e-3
-1.019, 1.548e-3
-1.020, 1.573e-3
-1.021, 1.591e-3
-1.022, 1.606e-3
-1.023, 1.625e-3
-1.024, 1.640e-3
-1.025, 1.659e-3
-1.026, 1.674e-3
-1.027, 1.693e-3
-1.028, 1.714e-3
-1.029, 1.733e-3
-1.030, 1.754e-3
-1.031, 1.770e-3
-1.032, 1.785e-3
-1.033, 1.798e-3
-1.034, 1.807e-3
-1.035, 1.819e-3
-1.036, 1.828e-3
-1.037, 1.841e-3
-1.038, 1.856e-3
-1.039, 1.872e-3
-1.040, 1.887e-3
-1.041, 1.902e-3
-1.042, 1.918e-3
-1.043, 1.930e-3
-1.044, 1.939e-3
-1.045, 1.949e-3
-1.046, 1.958e-3
-1.047, 1.964e-3
-1.048, 1.973e-3
-1.049, 1.986e-3
-1.050, 1.995e-3
-1.051, 2.007e-3
-1.052, 2.023e-3
-1.053, 2.035e-3
-1.054, 2.050e-3
-1.055, 2.060e-3
-1.056, 2.069e-3
-1.057, 2.075e-3
-1.058, 2.081e-3
-1.059, 2.087e-3
-1.060, 2.097e-3
-1.061, 2.103e-3
-1.062, 2.115e-3
-1.063, 2.131e-3
-1.064, 2.140e-3
-1.065, 2.155e-3
-1.066, 2.164e-3
-1.067, 2.174e-3
-1.068, 2.180e-3
-1.069, 2.183e-3
-1.070, 2.192e-3
-1.071, 2.195e-3
-1.072, 2.201e-3
-1.073, 2.211e-3
-1.074, 2.223e-3
-1.075, 2.235e-3
-1.076, 2.248e-3
-1.077, 2.260e-3
-1.078, 2.269e-3
-1.079, 2.275e-3
-1.080, 2.282e-3
-1.081, 2.288e-3
-1.082, 2.291e-3
-1.083, 2.297e-3
-1.084, 2.303e-3
-1.085, 2.309e-3
-1.086, 2.322e-3
-1.087, 2.331e-3
-1.088, 2.343e-3
-1.089, 2.353e-3
-1.090, 2.362e-3
-1.091, 2.368e-3
-1.092, 2.374e-3
-1.093, 2.377e-3
-1.094, 2.380e-3
-1.095, 2.386e-3
-1.096, 2.396e-3
-1.097, 2.405e-3
-1.098, 2.414e-3
-1.099, 2.427e-3
-1.100, 2.439e-3
-1.101, 2.448e-3
-1.102, 2.457e-3
-1.103, 2.460e-3
-1.104, 2.467e-3
-1.105, 2.473e-3
-1.106, 2.476e-3
-1.107, 2.485e-3
-1.108, 2.494e-3
-1.109, 2.507e-3
-1.110, 2.519e-3
-1.111, 2.531e-3
-1.112, 2.544e-3
-1.113, 2.556e-3
-1.114, 2.562e-3
-1.115, 2.571e-3
-1.116, 2.578e-3
-1.117, 2.584e-3
-1.118, 2.593e-3
-1.119, 2.599e-3
-1.120, 2.612e-3
-1.121, 2.624e-3
-1.122, 2.636e-3
-1.123, 2.652e-3
-1.124, 2.661e-3
-1.125, 2.673e-3
-1.126, 2.682e-3
-1.127, 2.689e-3
-1.128, 2.695e-3
-1.129, 2.704e-3
-1.130, 2.710e-3
-1.131, 2.719e-3
-1.132, 2.735e-3
-1.133, 2.747e-3
-1.134, 2.763e-3
-1.135, 2.778e-3
-1.136, 2.787e-3
-1.137, 2.800e-3
-1.138, 2.809e-3
-1.139, 2.818e-3
-1.140, 2.827e-3
-1.141, 2.834e-3
-1.142, 2.843e-3
-1.143, 2.858e-3
-1.144, 2.874e-3
-1.145, 2.889e-3
-1.146, 2.904e-3
-1.147, 2.923e-3
-1.148, 2.938e-3
-1.149, 2.951e-3
-1.150, 2.963e-3
-1.151, 2.975e-3
-1.152, 2.985e-3
-1.153, 2.997e-3
-1.154, 3.009e-3
-1.155, 3.025e-3
-1.156, 3.043e-3
-1.157, 3.059e-3
-1.158, 3.080e-3
-1.159, 3.099e-3
-1.160, 3.114e-3
-1.161, 3.126e-3
-1.162, 3.139e-3
-1.163, 3.154e-3
-1.164, 3.163e-3
-1.165, 3.179e-3
-1.166, 3.194e-3
-1.167, 3.216e-3
-1.168, 3.234e-3
-1.169, 3.256e-3
-1.170, 3.278e-3
-1.171, 3.296e-3
-1.172, 3.314e-3
-1.173, 3.330e-3
-1.174, 3.345e-3
-1.175, 3.361e-3
-1.176, 3.373e-3
-1.177, 3.392e-3
-1.178, 3.410e-3
-1.179, 3.432e-3
-1.180, 3.453e-3
-1.181, 3.475e-3
-1.182, 3.499e-3
-1.183, 3.518e-3
-1.184, 3.536e-3
-1.185, 3.555e-3
-1.186, 3.570e-3
-1.187, 3.586e-3
-1.188, 3.604e-3
-1.189, 3.623e-3
-1.190, 3.644e-3
-1.191, 3.666e-3
-1.192, 3.688e-3
-1.193, 3.715e-3
-1.194, 3.734e-3
-1.195, 3.758e-3
-1.196, 3.777e-3
-1.197, 3.792e-3
-1.198, 3.814e-3
-1.199, 3.829e-3
-1.200, 3.848e-3
-1.201, 3.873e-3
-1.202, 3.897e-3
-1.203, 3.922e-3
-1.204, 3.950e-3
-1.205, 3.974e-3
-1.206, 3.999e-3
-1.207, 4.021e-3
-1.208, 4.042e-3
-1.209, 4.064e-3
-1.210, 4.079e-3
-1.211, 4.101e-3
-1.212, 4.122e-3
-1.213, 4.144e-3
-1.214, 4.169e-3
-1.215, 4.193e-3
-1.216, 4.221e-3
-1.217, 4.249e-3
-1.218, 4.270e-3
-1.219, 4.292e-3
-1.220, 4.313e-3
-1.221, 4.332e-3
-1.222, 4.350e-3
-1.223, 4.369e-3
-1.224, 4.391e-3
-1.225, 4.415e-3
-1.226, 4.437e-3
-1.227, 4.464e-3
-1.228, 4.489e-3
-1.229, 4.520e-3
-1.230, 4.542e-3
-1.231, 4.563e-3
-1.232, 4.582e-3
-1.233, 4.603e-3
-1.234, 4.619e-3
-1.235, 4.643e-3
-1.236, 4.662e-3
-1.237, 4.686e-3
-1.238, 4.711e-3
-1.239, 4.736e-3
-1.240, 4.760e-3
-1.241, 4.782e-3
-1.242, 4.807e-3
-1.243, 4.825e-3
-1.244, 4.844e-3
-1.245, 4.859e-3
-1.246, 4.878e-3
-1.247, 4.899e-3
-1.248, 4.921e-3
-1.249, 4.945e-3
-1.250, 4.970e-3
-1.251, 4.995e-3
-1.252, 5.019e-3
-1.253, 5.041e-3
-1.254, 5.063e-3
-1.255, 5.081e-3
-1.256, 5.100e-3
-1.257, 5.118e-3
-1.258, 5.137e-3
-1.259, 5.155e-3
-1.260, 5.180e-3
-1.261, 5.204e-3
-1.262, 5.229e-3
-1.263, 5.254e-3
-1.264, 5.275e-3
-1.265, 5.300e-3
-1.266, 5.322e-3
-1.267, 5.337e-3
-1.268, 5.356e-3
-1.269, 5.368e-3
-1.270, 5.389e-3
-1.271, 5.408e-3
-1.272, 5.430e-3
-1.273, 5.454e-3
-1.274, 5.476e-3
-1.275, 5.500e-3
-1.276, 5.522e-3
-1.277, 5.544e-3
-1.278, 5.562e-3
-1.279, 5.578e-3
-1.280, 5.596e-3
-1.281, 5.611e-3
-1.282, 5.633e-3
-1.283, 5.651e-3
-1.284, 5.676e-3
-1.285, 5.701e-3
-1.286, 5.725e-3
-1.287, 5.750e-3
-1.288, 5.772e-3
-1.289, 5.793e-3
-1.290, 5.809e-3
-1.291, 5.824e-3
-1.292, 5.840e-3
-1.293, 5.855e-3
-1.294, 5.873e-3
-1.295, 5.895e-3
-1.296, 5.914e-3
-1.297, 5.938e-3
-1.298, 5.963e-3
-1.299, 5.984e-3
-1.300, 6.006e-3
-1.301, 6.021e-3
-1.302, 6.040e-3
-1.303, 6.058e-3
-1.304, 6.071e-3
-1.305, 6.089e-3
-1.306, 6.108e-3
-1.307, 6.129e-3
-1.308, 6.148e-3
-1.309, 6.169e-3
-1.310, 6.191e-3
-1.311, 6.213e-3
-1.312, 6.231e-3
-1.313, 6.250e-3
-1.314, 6.268e-3
-1.315, 6.280e-3
-1.316, 6.296e-3
-1.317, 6.314e-3
-1.318, 6.333e-3
-1.319, 6.351e-3
-1.320, 6.373e-3
-1.321, 6.395e-3
-1.322, 6.416e-3
-1.323, 6.435e-3
-1.324, 6.453e-3
-1.325, 6.472e-3
-1.326, 6.490e-3
-1.327, 6.506e-3
-1.328, 6.521e-3
-1.329, 6.539e-3
-1.330, 6.558e-3
-1.331, 6.580e-3
-1.332, 6.601e-3
-1.333, 6.623e-3
-1.334, 6.644e-3
-1.335, 6.666e-3
-1.336, 6.681e-3
-1.337, 6.697e-3
-1.338, 6.712e-3
-1.339, 6.728e-3
-1.340, 6.746e-3
-1.341, 6.764e-3
-1.342, 6.786e-3
-1.343, 6.808e-3
-1.344, 6.829e-3
-1.345, 6.857e-3
-1.346, 6.875e-3
-1.347, 6.897e-3
-1.348, 6.916e-3
-1.349, 6.931e-3
-1.350, 6.949e-3
-1.351, 6.965e-3
-1.352, 6.983e-3
-1.353, 7.005e-3
-1.354, 7.027e-3
-1.355, 7.054e-3
-1.356, 7.079e-3
-1.357, 7.107e-3
-1.358, 7.131e-3
-1.359, 7.156e-3
-1.360, 7.178e-3
-1.361, 7.196e-3
-1.362, 7.218e-3
-1.363, 7.239e-3
-1.364, 7.258e-3
-1.365, 7.282e-3
-1.366, 7.307e-3
-1.367, 7.332e-3
-1.368, 7.360e-3
-1.369, 7.387e-3
-1.370, 7.412e-3
-1.371, 7.437e-3
-1.372, 7.458e-3
-1.373, 7.480e-3
-1.374, 7.501e-3
-1.375, 7.526e-3
-1.376, 7.548e-3
-1.377, 7.575e-3
-1.378, 7.603e-3
-1.379, 7.634e-3
-1.380, 7.665e-3
-1.381, 7.689e-3
-1.382, 7.720e-3
-1.383, 7.745e-3
-1.384, 7.773e-3
-1.385, 7.797e-3
-1.386, 7.822e-3
-1.387, 7.850e-3
-1.388, 7.878e-3
-1.389, 7.908e-3
-1.390, 7.945e-3
-1.391, 7.976e-3
-1.392, 8.010e-3
-1.393, 8.041e-3
-1.394, 8.069e-3
-1.395, 8.096e-3
-1.396, 8.124e-3
-1.397, 8.149e-3
-1.398, 8.177e-3
-1.399, 8.207e-3
-1.400, 8.241e-3
-1.401, 8.278e-3
-1.402, 8.315e-3
-1.403, 8.352e-3
-1.404, 8.389e-3
-1.405, 8.423e-3
-1.406, 8.457e-3
-1.407, 8.485e-3
-1.408, 8.516e-3
-1.409, 8.543e-3
-1.410, 8.571e-3
-1.411, 8.602e-3
-1.412, 8.636e-3
-1.413, 8.673e-3
-1.414, 8.713e-3
-1.415, 8.753e-3
-1.416, 8.793e-3
-1.417, 8.839e-3
-1.418, 8.873e-3
-1.419, 8.907e-3
-1.420, 8.944e-3
-1.421, 8.975e-3
-1.422, 9.012e-3
-1.423, 9.049e-3
-1.424, 9.089e-3
-1.425, 9.132e-3
-1.426, 9.172e-3
-1.427, 9.219e-3
-1.428, 9.259e-3
-1.429, 9.299e-3
-1.430, 9.339e-3
-1.431, 9.379e-3
-1.432, 9.419e-3
-1.433, 9.459e-3
-1.434, 9.502e-3
-1.435, 9.545e-3
-1.436, 9.589e-3
-1.437, 9.629e-3
-1.438, 9.675e-3
-1.439, 9.721e-3
-1.440, 9.761e-3
-1.441, 9.808e-3
-1.442, 9.848e-3
-1.443, 9.888e-3
-1.444, 9.928e-3
-1.445, 9.971e-3
-1.446, 1.002e-2
-1.447, 1.007e-2
-1.448, 1.012e-2
-1.449, 1.017e-2
-1.450, 1.022e-2
-1.451, 1.027e-2
-1.452, 1.032e-2
-1.453, 1.036e-2
-1.454, 1.041e-2
-1.455, 1.045e-2
-1.456, 1.050e-2
-1.457, 1.054e-2
-1.458, 1.059e-2
-1.459, 1.065e-2
-1.460, 1.070e-2
-1.461, 1.075e-2
-1.462, 1.081e-2
-1.463, 1.086e-2
-1.464, 1.091e-2
-1.465, 1.096e-2
-1.466, 1.101e-2
-1.467, 1.106e-2
-1.468, 1.111e-2
-1.469, 1.115e-2
-1.470, 1.121e-2
-1.471, 1.127e-2
-1.472, 1.132e-2
-1.473, 1.138e-2
-1.474, 1.144e-2
-1.475, 1.149e-2
-1.476, 1.155e-2
-1.477, 1.160e-2
-1.478, 1.165e-2
-1.479, 1.171e-2
-1.480, 1.176e-2
-1.481, 1.181e-2
-1.482, 1.187e-2
-1.483, 1.193e-2
-1.484, 1.199e-2
-1.485, 1.205e-2
-1.486, 1.211e-2
-1.487, 1.217e-2
-1.488, 1.223e-2
-1.489, 1.228e-2
-1.490, 1.234e-2
-1.491, 1.240e-2
-1.492, 1.246e-2
-1.493, 1.252e-2
-1.494, 1.258e-2
-1.495, 1.264e-2
-1.496, 1.271e-2
-1.497, 1.278e-2
-1.498, 1.284e-2
-1.499, 1.291e-2
-1.500, 1.283e-2
-1.499, 1.253e-2
-1.498, 1.229e-2
-1.497, 1.208e-2
-1.496, 1.189e-2
-1.495, 1.172e-2
-1.494, 1.156e-2
-1.493, 1.140e-2
-1.492, 1.126e-2
-1.491, 1.111e-2
-1.490, 1.098e-2
-1.489, 1.084e-2
-1.488, 1.070e-2
-1.487, 1.057e-2
-1.486, 1.043e-2
-1.485, 1.029e-2
-1.484, 1.016e-2
-1.483, 1.003e-2
-1.482, 9.906e-3
-1.481, 9.783e-3
-1.480, 9.663e-3
-1.479, 9.542e-3
-1.478, 9.419e-3
-1.477, 9.293e-3
-1.476, 9.169e-3
-1.475, 9.049e-3
-1.474, 8.926e-3
-1.473, 8.806e-3
-1.472, 8.688e-3
-1.471, 8.580e-3
-1.470, 8.476e-3
-1.469, 8.374e-3
-1.468, 8.269e-3
-1.467, 8.161e-3
-1.466, 8.059e-3
-1.465, 7.948e-3
-1.464, 7.841e-3
-1.463, 7.733e-3
-1.462, 7.628e-3
-1.461, 7.529e-3
-1.460, 7.430e-3
-1.459, 7.338e-3
-1.458, 7.242e-3
-1.457, 7.153e-3
-1.456, 7.067e-3
-1.455, 6.977e-3
-1.454, 6.888e-3
-1.453, 6.795e-3
-1.452, 6.703e-3
-1.451, 6.610e-3
-1.450, 6.521e-3
-1.449, 6.432e-3
-1.448, 6.345e-3
-1.447, 6.262e-3
-1.446, 6.182e-3
-1.445, 6.105e-3
-1.444, 6.021e-3
-1.443, 5.941e-3
-1.442, 5.858e-3
-1.441, 5.775e-3
-1.440, 5.692e-3
-1.439, 5.608e-3
-1.438, 5.528e-3
-1.437, 5.451e-3
-1.436, 5.377e-3
-1.435, 5.306e-3
-1.434, 5.235e-3
-1.433, 5.164e-3
-1.432, 5.090e-3
-1.431, 5.023e-3
-1.430, 4.945e-3
-1.429, 4.875e-3
-1.428, 4.801e-3
-1.427, 4.730e-3
-1.426, 4.662e-3
-1.425, 4.594e-3
-1.424, 4.535e-3
-1.423, 4.471e-3
-1.422, 4.409e-3
-1.421, 4.350e-3
-1.420, 4.289e-3
-1.419, 4.224e-3
-1.418, 4.156e-3
-1.417, 4.091e-3
-1.416, 4.024e-3
-1.415, 3.956e-3
-1.414, 3.891e-3
-1.413, 3.836e-3
-1.412, 3.777e-3
-1.411, 3.721e-3
-1.410, 3.666e-3
-1.409, 3.614e-3
-1.408, 3.561e-3
-1.407, 3.503e-3
-1.406, 3.444e-3
-1.405, 3.388e-3
-1.404, 3.330e-3
-1.403, 3.278e-3
-1.402, 3.225e-3
-1.401, 3.176e-3
-1.400, 3.130e-3
-1.399, 3.080e-3
-1.398, 3.034e-3
-1.397, 2.985e-3
-1.396, 2.932e-3
-1.395, 2.880e-3
-1.394, 2.827e-3
-1.393, 2.775e-3
-1.392, 2.726e-3
-1.391, 2.676e-3
-1.390, 2.630e-3
-1.389, 2.587e-3
-1.388, 2.544e-3
-1.387, 2.504e-3
-1.386, 2.460e-3
-1.385, 2.414e-3
-1.384, 2.371e-3
-1.383, 2.322e-3
-1.382, 2.272e-3
-1.381, 2.226e-3
-1.380, 2.180e-3
-1.379, 2.140e-3
-1.378, 2.097e-3
-1.377, 2.060e-3
-1.376, 2.023e-3
-1.375, 1.986e-3
-1.374, 1.946e-3
-1.373, 1.909e-3
-1.372, 1.865e-3
-1.371, 1.825e-3
-1.370, 1.782e-3
-1.369, 1.736e-3
-1.368, 1.699e-3
-1.367, 1.659e-3
-1.366, 1.625e-3
-1.365, 1.591e-3
-1.364, 1.554e-3
-1.363, 1.523e-3
-1.362, 1.486e-3
-1.361, 1.449e-3
-1.360, 1.412e-3
-1.359, 1.375e-3
-1.358, 1.335e-3
-1.357, 1.295e-3
-1.356, 1.258e-3
-1.355, 1.224e-3
-1.354, 1.193e-3
-1.353, 1.162e-3
-1.352, 1.132e-3
-1.351, 1.101e-3
-1.350, 1.070e-3
-1.349, 1.036e-3
-1.348, 9.991e-4
-1.347, 9.652e-4
-1.346, 9.251e-4
-1.345, 8.912e-4
-1.344, 8.573e-4
-1.343, 8.264e-4
-1.342, 7.956e-4
-1.341, 7.679e-4
-1.340, 7.370e-4
-1.339, 7.093e-4
-1.338, 6.784e-4
-1.337, 6.445e-4
-1.336, 6.137e-4
-1.335, 5.798e-4
-1.334, 5.428e-4
-1.333, 5.120e-4
-1.332, 4.780e-4
-1.331, 4.534e-4
-1.330, 4.287e-4
-1.329, 4.010e-4
-1.328, 3.794e-4
-1.327, 3.516e-4
-1.326, 3.239e-4
-1.325, 2.931e-4
-1.324, 2.622e-4
-1.323, 2.345e-4
-1.322, 2.036e-4
-1.321, 1.728e-4
-1.320, 1.481e-4
-1.319, 1.235e-4
-1.318, 1.019e-4
-1.317, 8.032e-5
-1.316, 5.565e-5
-1.315, 3.407e-5
-1.314, 9.405e-6
-1.313, -1.834e-5
-1.312, -4.609e-5
-1.311, -7.384e-5
-1.310, -1.016e-4
-1.309, -1.293e-4
-1.308, -1.509e-4
-1.307, -1.725e-4
-1.306, -1.910e-4
-1.305, -2.126e-4
-1.304, -2.342e-4
-1.303, -2.527e-4
-1.302, -2.773e-4
-1.301, -3.051e-4
-1.300, -3.328e-4
-1.299, -3.575e-4
-1.298, -3.821e-4
-1.297, -4.068e-4
-1.296, -4.253e-4
-1.295, -4.469e-4
-1.294, -4.654e-4
-1.293, -4.808e-4
-1.292, -5.024e-4
-1.291, -5.209e-4
-1.290, -5.456e-4
-1.289, -5.702e-4
-1.288, -5.949e-4
-1.287, -6.195e-4
-1.286, -6.411e-4
-1.285, -6.627e-4
-1.284, -6.812e-4
-1.283, -6.997e-4
-1.282, -7.151e-4
-1.281, -7.336e-4
-1.280, -7.521e-4
-1.279, -7.737e-4
-1.278, -7.984e-4
-1.277, -8.200e-4
-1.276, -8.446e-4
-1.275, -8.693e-4
-1.274, -8.909e-4
-1.273, -9.094e-4
-1.272, -9.248e-4
-1.271, -9.402e-4
-1.270, -9.556e-4
-1.269, -9.741e-4
-1.268, -9.926e-4
-1.267, -1.014e-3
-1.266, -1.036e-3
-1.265, -1.057e-3
-1.264, -1.082e-3
-1.263, -1.101e-3
-1.262, -1.119e-3
-1.261, -1.138e-3
-1.260, -1.153e-3
-1.259, -1.165e-3
-1.258, -1.181e-3
-1.257, -1.199e-3
-1.256, -1.215e-3
-1.255, -1.236e-3
-1.254, -1.258e-3
-1.253, -1.279e-3
-1.252, -1.301e-3
-1.251, -1.316e-3
-1.250, -1.335e-3
-1.249, -1.350e-3
-1.248, -1.363e-3
-1.247, -1.378e-3
-1.246, -1.390e-3
-1.245, -1.406e-3
-1.244, -1.424e-3
-1.243, -1.443e-3
-1.242, -1.464e-3
-1.241, -1.486e-3
-1.240, -1.504e-3
-1.239, -1.523e-3
-1.238, -1.541e-3
-1.237, -1.554e-3
-1.236, -1.566e-3
-1.235, -1.581e-3
-1.234, -1.594e-3
-1.233, -1.609e-3
-1.232, -1.628e-3
-1.231, -1.649e-3
-1.230, -1.668e-3
-1.229, -1.692e-3
-1.228, -1.711e-3
-1.227, -1.726e-3
-1.226, -1.739e-3
-1.225, -1.751e-3
-1.224, -1.763e-3
-1.223, -1.776e-3
-1.222, -1.788e-3
-1.221, -1.803e-3
-1.220, -1.825e-3
-1.219, -1.840e-3
-1.218, -1.859e-3
-1.217, -1.881e-3
-1.216, -1.896e-3
-1.215, -1.914e-3
-1.214, -1.927e-3
-1.213, -1.939e-3
-1.212, -1.951e-3
-1.211, -1.961e-3
-1.210, -1.973e-3
-1.209, -1.988e-3
-1.208, -2.007e-3
-1.207, -2.025e-3
-1.206, -2.044e-3
-1.205, -2.062e-3
-1.204, -2.078e-3
-1.203, -2.093e-3
-1.202, -2.109e-3
-1.201, -2.118e-3
-1.200, -2.130e-3
-1.199, -2.140e-3
-1.198, -2.155e-3
-1.197, -2.173e-3
-1.196, -2.192e-3
-1.195, -2.207e-3
-1.194, -2.229e-3
-1.193, -2.244e-3
-1.192, -2.263e-3
-1.191, -2.275e-3
-1.190, -2.288e-3
-1.189, -2.297e-3
-1.188, -2.309e-3
-1.187, -2.321e-3
-1.186, -2.334e-3
-1.185, -2.352e-3
-1.184, -2.371e-3
-1.183, -2.389e-3
-1.182, -2.411e-3
-1.181, -2.423e-3
-1.180, -2.442e-3
-1.179, -2.448e-3
-1.178, -2.463e-3
-1.177, -2.476e-3
-1.176, -2.485e-3
-1.175, -2.500e-3
-1.174, -2.513e-3
-1.173, -2.531e-3
-1.172, -2.546e-3
-1.171, -2.565e-3
-1.170, -2.580e-3
-1.169, -2.596e-3
-1.168, -2.608e-3
-1.167, -2.624e-3
-1.166, -2.633e-3
-1.165, -2.642e-3
-1.164, -2.657e-3
-1.163, -2.670e-3
-1.162, -2.685e-3
-1.161, -2.704e-3
-1.160, -2.722e-3
-1.159, -2.741e-3
-1.158, -2.759e-3
-1.157, -2.775e-3
-1.156, -2.787e-3
-1.155, -2.799e-3
-1.154, -2.812e-3
-1.153, -2.824e-3
-1.152, -2.836e-3
-1.151, -2.852e-3
-1.150, -2.870e-3
-1.149, -2.889e-3
-1.148, -2.907e-3
-1.147, -2.929e-3
-1.146, -2.944e-3
-1.145, -2.960e-3
-1.144, -2.972e-3
-1.143, -2.984e-3
-1.142, -2.997e-3
-1.141, -3.006e-3
-1.140, -3.018e-3
-1.139, -3.034e-3
-1.138, -3.052e-3
-1.137, -3.071e-3
-1.136, -3.086e-3
-1.135, -3.108e-3
-1.134, -3.123e-3
-1.133, -3.138e-3
-1.132, -3.151e-3
-1.131, -3.163e-3
-1.130, -3.175e-3
-1.129, -3.188e-3
-1.128, -3.200e-3
-1.127, -3.219e-3
-1.126, -3.237e-3
-1.125, -3.256e-3
-1.124, -3.277e-3
-1.123, -3.296e-3
-1.122, -3.311e-3
-1.121, -3.327e-3
-1.120, -3.336e-3
-1.119, -3.351e-3
-1.118, -3.364e-3
-1.117, -3.376e-3
-1.116, -3.391e-3
-1.115, -3.410e-3
-1.114, -3.428e-3
-1.113, -3.447e-3
-1.112, -3.465e-3
-1.111, -3.481e-3
-1.110, -3.499e-3
-1.109, -3.508e-3
-1.108, -3.521e-3
-1.107, -3.533e-3
-1.106, -3.542e-3
-1.105, -3.555e-3
-1.104, -3.567e-3
-1.103, -3.586e-3
-1.102, -3.604e-3
-1.101, -3.622e-3
-1.100, -3.638e-3
-1.099, -3.656e-3
-1.098, -3.669e-3
-1.097, -3.681e-3
-1.096, -3.690e-3
-1.095, -3.696e-3
-1.094, -3.709e-3
-1.093, -3.718e-3
-1.092, -3.737e-3
-1.091, -3.752e-3
-1.090, -3.767e-3
-1.089, -3.786e-3
-1.088, -3.801e-3
-1.087, -3.817e-3
-1.086, -3.826e-3
-1.085, -3.835e-3
-1.084, -3.844e-3
-1.083, -3.854e-3
-1.082, -3.863e-3
-1.081, -3.875e-3
-1.080, -3.885e-3
-1.079, -3.900e-3
-1.078, -3.915e-3
-1.077, -3.931e-3
-1.076, -3.943e-3
-1.075, -3.955e-3
-1.074, -3.965e-3
-1.073, -3.971e-3
-1.072, -3.977e-3
-1.071, -3.980e-3
-1.070, -3.989e-3
-1.069, -3.996e-3
-1.068, -4.008e-3
-1.067, -4.020e-3
-1.066, -4.033e-3
-1.065, -4.042e-3
-1.064, -4.051e-3
-1.063, -4.060e-3
-1.062, -4.063e-3
-1.061, -4.066e-3
-1.060, -4.070e-3
-1.059, -4.073e-3
-1.058, -4.082e-3
-1.057, -4.088e-3
-1.056, -4.097e-3
-1.055, -4.107e-3
-1.054, -4.116e-3
-1.053, -4.125e-3
-1.052, -4.131e-3
-1.051, -4.134e-3
-1.050, -4.137e-3
-1.049, -4.140e-3
-1.048, -4.140e-3
-1.047, -4.147e-3
-1.046, -4.150e-3
-1.045, -4.156e-3
-1.044, -4.165e-3
-1.043, -4.174e-3
-1.042, -4.184e-3
-1.041, -4.190e-3
-1.040, -4.193e-3
-1.039, -4.196e-3
-1.038, -4.196e-3
-1.037, -4.196e-3
-1.036, -4.196e-3
-1.035, -4.199e-3
-1.034, -4.202e-3
-1.033, -4.205e-3
-1.032, -4.214e-3
-1.031, -4.218e-3
-1.030, -4.227e-3
-1.029, -4.230e-3
-1.028, -4.233e-3
-1.027, -4.230e-3
-1.026, -4.230e-3
-1.025, -4.230e-3
-1.024, -4.230e-3
-1.023, -4.230e-3
-1.022, -4.236e-3
-1.021, -4.242e-3
-1.020, -4.248e-3
-1.019, -4.255e-3
-1.018, -4.258e-3
-1.017, -4.261e-3
-1.016, -4.261e-3
-1.015, -4.261e-3
-1.014, -4.261e-3
-1.013, -4.258e-3
-1.012, -4.261e-3
-1.011, -4.261e-3
-1.010, -4.264e-3
-1.009, -4.273e-3
-1.008, -4.276e-3
-1.007, -4.285e-3
-1.006, -4.288e-3
-1.005, -4.292e-3
-1.004, -4.295e-3
-1.003, -4.292e-3
-1.002, -4.295e-3
-1.001, -4.292e-3
