Potential V vs RHE, Current mA cm-2
0.013299999999999867,-6.458157083883892
0.012299999999999978,-8.464217707092514
0.011299999999999866,-9.85912304875944
0.010299999999999976,-10.863568071663616
0.009299999999999864,-11.691174182084664
0.008299999999999974,-12.346185513922174
0.007299999999999862,-12.913484745168056
0.006299999999999972,-13.436927926118118
0.00529999999999986,-13.872659006476551
0.0042999999999999705,-14.345172580631472
0.0032999999999998586,-14.783733083589633
0.0022999999999999687,-15.137410908555893
0.0012999999999998568,-15.3920589425316
0.00029999999999996696,-15.618412750510005
-0.000700000000000145,-15.830619445489761
-0.0017000000000000348,-16.184297270456018
-0.0027000000000001467,-16.53797509542228
-0.0037000000000000366,-16.835064468393938
-0.0047000000000001485,-17.061418276372343
-0.005700000000000038,-17.146300954364243
-0.00670000000000015,-17.231183632356142
-0.00770000000000004,-17.2736249713521
-0.008700000000000152,-17.48583166633185
-0.009700000000000042,-17.75462681330621
-0.010700000000000154,-18.009274847281915
-0.011700000000000044,-18.15074597726842
-0.012700000000000156,-18.27806999425627
-0.013700000000000045,-18.320511333252224
-0.014700000000000157,-18.44783535024008
-0.015700000000000047,-18.631747819222536
-0.01670000000000016,-18.80151317520634
-0.01770000000000005,-18.92883719219419
-0.01870000000000016,-18.97127853119014
-0.01970000000000005,-18.97127853119014
-0.020700000000000163,-19.112749661176647
-0.021700000000000053,-19.28251501716045
-0.022700000000000164,-19.49472171214021
-0.023700000000000054,-19.763516859114564
-0.024700000000000166,-19.890840876102416
-0.025700000000000056,-19.93328221509837
-0.026700000000000168,-19.97572355409432
-0.027700000000000058,-20.06060623208622
-0.02870000000000017,-20.244518701068674
-0.02970000000000006,-20.456725396048434
-0.03070000000000017,-20.626490752032236
-0.03170000000000006,-20.72552054302279
-0.03270000000000017,-20.76796188201874
-0.03370000000000006,-20.76796188201874
-0.034700000000000175,-20.85284456001064
-0.035700000000000065,-21.022609915994444
-0.03670000000000018,-21.2065223849769
-0.03770000000000007,-21.291405062968803
-0.03870000000000018,-21.333846401964752
-0.03970000000000007,-21.291405062968803
-0.04070000000000018,-21.291405062968803
-0.04170000000000007,-21.376287740960702
-0.04270000000000018,-21.503611757948562
-0.04370000000000007,-21.67337711393236
-0.044700000000000184,-21.772406904922917
-0.045700000000000074,-21.772406904922917
-0.046700000000000186,-21.814848243918867
-0.047700000000000076,-21.814848243918867
-0.04870000000000019,-21.98461359990267
-0.04970000000000008,-22.15437895588647
-0.05070000000000019,-22.295850085872978
-0.05170000000000008,-22.38073276386488
-0.05270000000000019,-22.33829142486893
-0.05370000000000008,-22.38073276386488
-0.05470000000000019,-22.42317410286083
-0.05570000000000008,-22.592939458844636
-0.056700000000000195,-22.776851927827092
-0.057700000000000085,-22.904175944814945
-0.058700000000000196,-22.904175944814945
-0.059700000000000086,-22.904175944814945
-0.0607000000000002,-22.946617283810895
-0.06170000000000009,-23.073941300798747
-0.0627000000000002,-23.24370665678255
-0.06370000000000009,-23.427619125765005
-0.0647000000000002,-23.51250180375691
-0.06570000000000009,-23.51250180375691
-0.0667000000000002,-23.51250180375691
-0.0677000000000001,-23.55494314275286
-0.0687000000000002,-23.682267159740714
-0.0697000000000001,-23.86617962872317
-0.07070000000000021,-23.993503645711023
-0.0717000000000001,-23.993503645711023
-0.07270000000000021,-23.993503645711023
-0.0737000000000001,-23.993503645711023
-0.07470000000000021,-24.035944984706973
-0.0757000000000001,-24.20571034069078
-0.07670000000000021,-24.34718147067728
-0.0777000000000001,-24.432064148669184
-0.07870000000000021,-24.474505487665134
-0.0797000000000001,-24.474505487665134
-0.08070000000000022,-24.559388165657033
-0.0817000000000001,-24.64427084364894
-0.08270000000000022,-24.814036199632742
-0.08370000000000011,-24.997948668615198
-0.08470000000000022,-25.0828313466071
-0.08570000000000011,-25.04039000761115
-0.08670000000000022,-25.0828313466071
-0.08770000000000011,-25.12527268560305
-0.08870000000000022,-25.295038041586857
-0.08970000000000011,-25.478950510569312
-0.09070000000000022,-25.648715866553115
-0.09170000000000011,-25.691157205549064
-0.09270000000000023,-25.691157205549064
-0.09370000000000012,-25.73359854454502
-0.09470000000000023,-25.81848122253692
-0.09570000000000012,-26.002393691519377
-0.09670000000000023,-26.21460038649913
-0.09770000000000012,-26.34192440348698
-0.09870000000000023,-26.34192440348698
-0.09970000000000012,-26.38436574248293
-0.10070000000000023,-26.440954194477534
-0.10170000000000012,-26.568278211465387
-0.10270000000000024,-26.780484906445146
-0.10370000000000013,-26.9643973754276
-0.10470000000000024,-27.091721392415455
-0.10570000000000013,-27.091721392415455
-0.10670000000000024,-27.134162731411404
-0.10770000000000013,-27.219045409403304
-0.10870000000000024,-27.303928087395207
-0.10970000000000013,-27.530281895373616
-0.11070000000000024,-27.700047251357418
-0.11170000000000013,-27.742488590353368
-0.11270000000000002,-27.78492992934932
-0.11370000000000013,-27.78492992934932
-0.11470000000000002,-27.869812607341224
-0.11570000000000014,-28.09616641531963
-0.11670000000000003,-28.265931771303435
-0.11770000000000014,-28.435697127287238
-0.11870000000000003,-28.53472691827779
-0.11970000000000014,-28.577168257273744
-0.12070000000000003,-28.619609596269694
-0.12170000000000014,-28.789374952253496
-0.12270000000000003,-28.959140308237306
-0.12370000000000014,-29.27037679420761
-0.12470000000000003,-29.39770081119546
-0.12570000000000014,-29.440142150191413
-0.12670000000000003,-29.525024828183312
-0.12770000000000015,-29.62405461917387
-0.12870000000000004,-29.793819975157668
-0.12970000000000015,-30.04846800913338
-0.13070000000000004,-30.274821817111786
-0.13170000000000015,-30.402145834099635
-0.13270000000000004,-30.487028512091538
-0.13370000000000015,-30.529469851087494
-0.13470000000000004,-30.7558236590659
-0.13570000000000015,-30.925589015049702
-0.13670000000000004,-31.19438416202406
-0.13770000000000016,-31.40659085700382
-0.13870000000000005,-31.533914873991666
-0.13970000000000016,-31.618797551983565
-0.14070000000000005,-31.717827342974125
-0.14170000000000016,-31.930034037953877
-0.14270000000000005,-32.184682071929586
-0.14370000000000016,-32.45347721890394
-0.14470000000000005,-32.66568391388369
-0.14570000000000016,-32.807155043870196
-0.14670000000000005,-32.84959638286615
-0.14770000000000016,-32.97692039985401
-0.14870000000000005,-33.231568433829715
-0.14970000000000017,-33.50036358080407
-0.15070000000000006,-33.755011614779775
-0.15170000000000017,-33.89648274476628
-0.15270000000000006,-34.02380676175414
-0.15370000000000017,-34.10868943974604
-0.15470000000000006,-34.193572117737936
-0.15570000000000017,-34.462367264712285
-0.15670000000000006,-34.717015298688004
-0.15770000000000017,-34.94336910666641
-0.15870000000000006,-35.07069312365426
-0.15970000000000018,-35.15557580164616
-0.16070000000000007,-35.282899818634014
-0.16170000000000018,-35.50925362661242
-0.16270000000000007,-35.763901660588125
-0.16370000000000018,-36.03269680756248
-0.16470000000000007,-36.28734484153819
-0.16570000000000018,-36.37222751953009
-0.16670000000000007,-36.5136986495166
-0.16770000000000018,-36.6834640055004
-0.16870000000000007,-36.95225915247476
-0.16970000000000018,-37.249348525446415
-0.17070000000000007,-37.51814367242077
-0.17170000000000019,-37.73035036740053
-0.17270000000000008,-37.85767438438838
-0.1737000000000002,-37.99914551437489
-0.17470000000000008,-38.211352209354644
-0.1757000000000002,-38.46600024333035
-0.17670000000000008,-38.777236729300654
-0.1777000000000002,-39.046031876275016
-0.17870000000000008,-39.21579723225882
-0.1797000000000002,-39.34312124924667
-0.18070000000000008,-39.47044526623452
-0.1817000000000002,-39.696799074212926
-0.18270000000000008,-39.99388844718459
-0.1837000000000002,-40.30512493315489
-0.1847000000000001,-40.559772967130606
-0.1857000000000002,-40.701244097117105
-0.1867000000000001,-40.87100945310091
-0.1877000000000002,-41.04077480908471
-0.1887000000000001,-41.30956995605907
-0.1897000000000002,-41.66324778102533
-0.1907000000000001,-41.96033715399699
-0.1917000000000001,-42.186690961975394
-0.19269999999999998,-42.3564563179592
-0.1937000000000001,-42.483780334947056
-0.19469999999999998,-42.653545690930855
-0.1957000000000001,-42.96478217690117
-0.19669999999999999,-43.23357732387552
-0.1977000000000001,-43.48822535785123
-0.1987,-43.657990713835034
-0.1997000000000001,-43.79946184382153
-0.2007,-43.96922719980534
-0.2017000000000001,-44.181433894785094
-0.2027,-44.4926703807554
-0.2037000000000001,-44.84634820572166
-0.2047,-45.05855490070142
-0.2057000000000001,-45.22832025668522
-0.2067,-45.36979138667173
-0.2077000000000001,-45.497115403659585
-0.2087,-45.75176343763528
-0.2097000000000001,-46.062999923605595
-0.2107,-46.3176479575813
-0.2117000000000001,-46.586443104555656
-0.2127,-46.713767121543505
-0.2137000000000001,-46.84109113853137
-0.2147,-47.10988628550572
-0.2157000000000001,-47.40697565847737
-0.2167,-47.76065348344364
-0.21770000000000012,-48.029448630417996
-0.2187,-48.1992139864018
-0.21970000000000012,-48.36897934238561
-0.2207,-48.51045047237211
-0.22170000000000012,-48.76509850634781
-0.2227,-49.076334992318124
-0.22370000000000012,-49.41586570428573
-0.2247,-49.68466085126009
-0.22570000000000012,-49.85442620724389
-0.2267,-49.98175022423175
-0.22770000000000012,-50.1656626932142
-0.22870000000000001,-50.42031072718991
-0.22970000000000013,-50.73154721316022
-0.23070000000000002,-51.028636586131874
-0.23170000000000013,-51.21254905511432
-0.23270000000000002,-51.33987307210218
-0.23370000000000013,-51.46719708909004
-0.23470000000000002,-51.65110955807249
-0.23570000000000013,-51.948198931044146
-0.23670000000000002,-52.25943541701445
-0.2376999999999999,-52.514083450990164
-0.23870000000000002,-52.69799591997262
-0.2396999999999999,-52.82531993696047
-0.24070000000000003,-52.995085292944275
-0.24169999999999991,-53.22143910092268
-0.24270000000000003,-53.518528473894335
-0.24369999999999992,-53.872206298860604
-0.24470000000000003,-54.08441299384035
-0.24569999999999992,-54.26832546282281
-0.24670000000000003,-54.39564947981066
-0.24769999999999992,-54.56541483579447
-0.24870000000000003,-54.834209982768826
-0.24969999999999992,-55.13129935574048
-0.25070000000000003,-55.442535841710786
-0.2516999999999999,-55.65474253669055
-0.25270000000000004,-55.7820665536784
-0.2536999999999999,-55.96597902266086
-0.25470000000000004,-56.13574437864466
-0.2556999999999999,-56.44698086461496
-0.25670000000000004,-56.74407023758662
-0.25769999999999993,-57.05530672355693
-0.25870000000000004,-57.22507207954074
-0.25969999999999993,-57.352396096528594
-0.26070000000000004,-57.53630856551105
-0.26169999999999993,-57.79095659948675
-0.26270000000000004,-58.10219308545706
-0.26369999999999993,-58.39928245842871
-0.26470000000000005,-58.66807760540307
-0.26569999999999994,-58.83784296138688
-0.26670000000000005,-59.02175543036933
-0.26769999999999994,-59.19152078635314
-0.26870000000000005,-59.44616882032884
-0.26969999999999994,-59.757405306299155
-0.27070000000000005,-60.06864179226946
-0.27169999999999994,-60.23840714825326
-0.27270000000000005,-60.36573116524111
-0.27369999999999994,-60.49305518222897
-0.27470000000000006,-60.71940899020737
-0.27569999999999995,-61.01649836317903
-0.27670000000000006,-61.327734849149344
-0.27769999999999995,-61.53994154412909
-0.27870000000000006,-61.72385401311155
-0.27969999999999995,-61.851178030099405
-0.28070000000000006,-61.97850204708726
-0.28169999999999995,-62.20485585506566
-0.28270000000000006,-62.501945228037314
-0.28369999999999995,-62.855623053003576
-0.28470000000000006,-63.11027108697928
-0.28569999999999995,-63.29418355596174
-0.28670000000000007,-63.46394891194555
-0.28769999999999996,-63.633714267929356
-0.28870000000000007,-63.944950753899654
-0.28969999999999996,-64.29862857886593
-0.29070000000000007,-64.59571795183757
-0.29169999999999996,-64.86451309881193
-0.29270000000000007,-64.99183711579978
-0.29369999999999996,-65.16160247178358
-0.2947000000000001,-65.43039761875795
-0.29569999999999996,-65.76992833072556
-0.2967000000000001,-66.12360615569182
-0.29769999999999996,-66.43484264166212
-0.2987000000000001,-66.64704933664189
-0.29969999999999997,-66.77437335362974
-0.3007000000000001,-66.9582858226122
-0.30169999999999997,-67.21293385658788
-0.3027000000000001,-67.52417034255821
-0.30369999999999997,-67.86370105452582
-0.3047000000000001,-68.13249620150016
-0.30569999999999997,-68.30226155748396
-0.3067000000000001,-68.38714423547587
-0.3077,-68.61349804345427
-0.3087000000000001,-68.91058741642594
-0.3097,-69.22182390239624
-0.3107000000000001,-69.61794306635846
-0.3117,-69.8301497613382
-0.3127000000000001,-69.95747377832606
-0.3137,-70.14138624730852
-0.3147000000000001,-70.39603428128423
-0.3157,-70.74971210625048
-0.3167000000000001,-71.1458312702127
-0.3177,-71.48536198218031
-0.3187000000000001,-71.75415712915466
-0.3197,-71.96636382413442
-0.3207000000000001,-72.15027629311687
-0.3217,-72.44736566608852
-0.3227000000000001,-72.80104349105478
-0.3237,-73.197162655017
-0.3247000000000001,-73.49425202798865
-0.3257,-73.72060583596706
-0.3267000000000001,-73.89037119195086
-0.3277,-74.10257788693062
-0.3287000000000001,-74.45625571189689
-0.3297,-74.8523748758591
-0.3307000000000001,-75.19190558782671
-0.3317,-75.54558341279296
-0.3327000000000001,-75.71534876877676
-0.3337,-75.94170257675518
-0.3347000000000001,-76.19635061073087
-0.3357,-76.55002843569714
-0.3367000000000001,-76.98858893865528
-0.3377,-77.34226676362155
-0.3387000000000001,-77.63935613659322
-0.3397,-77.86570994457162
-0.3407000000000001,-78.07791663955136
-0.3417,-78.43159446451764
-0.3427000000000001,-78.8135665154812
-0.3437,-79.20968567944341
-0.3447000000000001,-79.60580484340561
-0.3457,-79.81801153838538
-0.3467000000000001,-80.08680668535972
-0.3477,-80.38389605833139
-0.3487000000000001,-80.73757388329766
-0.3497,-81.1761343862558
-0.3507000000000001,-81.61469488921396
-0.3517,-81.95422560118158
-0.3527000000000001,-82.26546208715187
-0.3537,-82.52011012112759
-0.3547000000000001,-82.87378794609386
-0.3557,-83.26990711005605
-0.35670000000000013,-83.75090895201016
-0.3577,-84.13288100297372
-0.35870000000000013,-84.48655882793999
-0.3597,-84.75535397491434
-0.36070000000000013,-85.052443347886
-0.3617,-85.44856251184822
-0.3626999999999999,-85.92956435380233
-0.3637,-86.41056619575643
-0.3646999999999999,-86.80668535971866
-0.3657,-87.10377473269031
-0.3666999999999999,-87.41501121866061
-0.3677,-87.71210059163228
-0.3686999999999999,-88.19310243358639
-0.36970000000000003,-88.71654561453644
-0.3706999999999999,-89.15510611749461
-0.37170000000000003,-89.59366662045278
-0.3726999999999999,-89.89075599342443
-0.37370000000000003,-90.20199247939475
-0.3746999999999999,-90.6405529823529
-0.37570000000000003,-91.12155482430701
-0.3766999999999999,-91.64499800525708
-0.37770000000000004,-92.16844118620713
-0.3786999999999999,-92.64944302816124
-0.37970000000000004,-93.03141507912481
-0.3806999999999999,-93.38509290409107
-0.38170000000000004,-93.86609474604518
-0.38269999999999993,-94.38953792699526
-0.38370000000000004,-94.99786378593721
-0.38469999999999993,-95.47886562789132
-0.38570000000000004,-95.91742613084948
-0.38669999999999993,-96.31354529481169
-0.38770000000000004,-96.73795868477121
-0.38869999999999993,-97.21896052672531
-0.38970000000000005,-97.78484504667132
-0.39069999999999994,-98.3082882276214
-0.39170000000000005,-98.7892900695755
-0.39269999999999994,-99.18540923353773
-0.39370000000000005,-99.58152839749994
-0.39469999999999994,-100.02008890045809
-0.39570000000000005,-100.58597342040412
-0.39669999999999994,-101.19429927934607
-0.39770000000000005,-101.76018379929208
-0.39869999999999994,-102.24118564124619
-0.39970000000000006,-102.63730480520842
-0.40069999999999995,-103.07586530816658
-0.40170000000000006,-103.59930848911664
-0.40269999999999995,-104.12275167006669
-0.40370000000000006,-104.73107752900866
-0.40469999999999995,-105.25452070995874
-0.40570000000000006,-105.73552255191284
-0.40669999999999995,-106.15993594187235
-0.40770000000000006,-106.59849644483052
-0.40869999999999995,-107.16438096477653
-0.40970000000000006,-107.78685393671715
-0.41069999999999995,-108.43762113465506
-0.41170000000000007,-109.04594699359701
-0.41269999999999996,-109.52694883555114
-0.41370000000000007,-110.00795067750525
-0.41469999999999996,-110.6162765364472
-0.41570000000000007,-111.26704373438514
-0.41669999999999996,-112.01684072331359
-0.41770000000000007,-112.66760792125153
-0.41869999999999996,-113.23349244119754
-0.4197000000000001,-113.79937696114357
-0.42069999999999996,-114.36526148108955
-0.4217000000000001,-114.97358734003153
-0.42269999999999996,-115.68094298996405
-0.4237000000000001,-116.33171018790196
-0.42469999999999997,-116.98247738583989
-0.4257000000000001,-117.50592056678994
-0.42669999999999997,-117.94448106974811
-0.4277000000000001,-118.46792425069816
-0.42869999999999997,-119.1186914486361
-0.4297000000000001,-119.81189998556997
-0.43069999999999997,-120.51925563550247
-0.4317000000000001,-121.12758149444444
-0.4327,-121.65102467539451
-0.4337000000000001,-122.17446785634456
-0.4347,-122.78279371528653
-0.4357000000000001,-123.532590704215
-0.4367,-124.31068191914078
-0.4377000000000001,-125.04633179507057
-0.4387,-125.6688047670112
-0.4397000000000001,-126.23468928695722
-0.4407,-126.84301514589919
-0.4417000000000001,-127.4937823438371
-0.4427,-128.2294322197669
-0.4437000000000001,-128.9792292086954
-0.4447,-129.7148790846252
-0.4457000000000001,-130.37979339556176
-0.4467,-130.9456779155078
-0.4477000000000001,-131.5964451134457
-0.4487,-132.37453632837148
-0.4497000000000001,-133.1667746562959
-0.4507,-133.9873072102176
-0.4517000000000001,-134.73710419914607
-0.4527,-135.43031273607997
-0.4537000000000001,-136.03863859502192
-0.4547,-136.7884355839504
-0.4557000000000001,-137.56652679887617
-0.4567,-138.40120646579655
-0.4577000000000001,-139.1792976807223
-0.4587,-139.9290946696508
-0.4597000000000001,-140.62230320658463
-0.4607,-141.27307040452254
-0.4617000000000001,-142.03701450644968
-0.4627,-142.7443701563822
-0.4637000000000001,-143.4517258063147
-0.4647,-144.30055258623375
-0.4657000000000001,-145.00790823616626
-0.4667,-145.85673501608528
-0.4677000000000001,-146.7055617960043
-0.4687,-147.55438857592333
-0.4697000000000001,-148.68615761581535
-0.4707,-149.6764555257209
-0.4717000000000001,-150.38381117565342
-0.4727,-151.09116682558593
-0.4737000000000001,-151.5155802155454
-0.4747,-152.0814647354914
-0.4757000000000001,-152.78882038542397
-0.4767,-153.63764716534297
-0.4777000000000001,-154.486473945262
-0.4787,-155.19382959519453
-0.4797000000000001,-156.04265637511355
-0.4807,-156.89148315503257
-0.48170000000000013,-157.7403099349516
-0.4827,-158.87207897484362
-0.48370000000000013,-160.00384801473567
-0.4847,-160.99414592464117
-0.48570000000000013,-161.9844438345467
-0.4867,-160.8526747946547
-0.48570000000000013,-157.31589654499206
-0.4847,-154.6279450752485
-0.48370000000000013,-152.50587812545095
-0.4827,-150.5252823056399
-0.48170000000000013,-148.54468648582886
-0.4807,-146.5640906660178
-0.4797000000000001,-144.72496597619326
-0.4787,-142.7443701563822
-0.4777000000000001,-141.06086370954282
-0.4767,-139.3207688107088
-0.4757000000000001,-137.6089681378721
-0.4747,-135.86887323903812
-0.4737000000000001,-134.04389566221224
-0.4727,-132.20477097238768
-0.4717000000000001,-130.46467607355368
-0.4707,-128.752875400717
-0.4697000000000001,-127.14010451887084
-0.4687,-125.44245095903281
-0.4677000000000001,-123.65991472120285
-0.4667,-121.82079003137831
-0.4657000000000001,-120.08069513254432
-0.4647,-118.46792425069816
-0.4637000000000001,-116.98247738583989
