Potential V vs RHE, Current mA cm-2
0.013299999999999867,0.10777270682371849
0.012299999999999978,0.019989870667092968
0.011299999999999866,-0.029001581647233248
0.010299999999999976,-0.06864179226945158
0.009299999999999864,-0.10604675903788315
0.008299999999999974,-0.1324311247803661
0.007299999999999862,-0.1508082245656129
0.006299999999999972,-0.17443390327335903
0.00529999999999986,-0.19890840876102414
0.0042999999999999705,-0.22380732763864883
0.0032999999999998586,-0.24361328583675934
0.0022999999999999687,-0.2574774565754367
0.0012999999999998568,-0.2733222231339251
0.00029999999999996696,-0.29454289263190064
-0.000700000000000145,-0.3173197445597277
-0.0017000000000000348,-0.33288156885824316
-0.0027000000000001467,-0.3426430768273119
-0.0037000000000000366,-0.3565072475659892
-0.0047000000000001485,-0.3780108593239378
-0.005700000000000038,-0.39725093300210224
-0.00670000000000015,-0.41422746860048276
-0.00770000000000004,-0.42101808283983494
-0.008700000000000152,-0.43516519583848523
-0.009700000000000042,-0.4548296829066093
-0.010700000000000154,-0.4760503524045848
-0.011700000000000044,-0.4900559942732487
-0.012700000000000156,-0.49981750224231747
-0.013700000000000045,-0.5119840194211568
-0.014700000000000157,-0.5312240930993213
-0.015700000000000047,-0.5524447625972969
-0.01670000000000016,-0.5639039241262036
-0.01770000000000005,-0.5752216145251239
-0.01870000000000016,-0.5859734204040982
-0.01970000000000005,-0.6033743693924382
-0.020700000000000163,-0.6234632698505217
-0.021700000000000053,-0.6354883158993744
-0.022700000000000164,-0.6434106991786186
-0.023700000000000054,-0.6554357452274714
-0.024700000000000166,-0.672695223085825
-0.025700000000000056,-0.6913694122440435
-0.026700000000000168,-0.7029700449029368
-0.027700000000000058,-0.7083459478424239
-0.02870000000000017,-0.7168342156416141
-0.02970000000000006,-0.7335278089800216
-0.03070000000000017,-0.7495140466684964
-0.03170000000000006,-0.7582852567276597
-0.03270000000000017,-0.7638026307971333
-0.03370000000000006,-0.771583542946391
-0.034700000000000175,-0.7829012333453113
-0.035700000000000065,-0.8007265957236107
-0.03670000000000018,-0.8082245656128955
-0.03770000000000007,-0.8104881036926795
-0.03870000000000018,-0.8165713622820991
-0.03970000000000007,-0.8273231681610735
-0.04070000000000018,-0.8421776368096564
-0.04170000000000007,-0.84769501087913
-0.04270000000000018,-0.8472705974891704
-0.04370000000000007,-0.850807375738833
-0.044700000000000184,-0.8622665372677398
-0.045700000000000074,-0.8734427565366737
-0.046700000000000186,-0.8793845439961068
-0.047700000000000076,-0.8771210059163228
-0.04870000000000019,-0.8788186594761607
-0.04970000000000008,-0.8882972251852566
-0.05070000000000019,-0.8986246176742713
-0.05170000000000008,-0.9003222712341092
-0.05270000000000019,-0.8982002042843118
-0.05370000000000008,-0.8987660888042578
-0.05470000000000019,-0.904424934003718
-0.05570000000000008,-0.9139034997128136
-0.056700000000000195,-0.9153182110126787
-0.057700000000000085,-0.9134790863228541
-0.058700000000000196,-0.9100837792031781
-0.059700000000000086,-0.9158840955326246
-0.0607000000000002,-0.9216844118620713
-0.06170000000000009,-0.9245138344618015
-0.0627000000000002,-0.9201282294322198
-0.06370000000000009,-0.9164499800525707
-0.0647000000000002,-0.9197038160422604
-0.06570000000000009,-0.9243723633318148
-0.0667000000000002,-0.9236650076818825
-0.0677000000000001,-0.9143279131027732
-0.0687000000000002,-0.9099423080731914
-0.0697000000000001,-0.9105081925931376
-0.07070000000000021,-0.9172988068324897
-0.0717000000000001,-0.9130546729328947
-0.07270000000000021,-0.903010222703853
-0.0737000000000001,-0.8959366662045278
-0.07470000000000021,-0.8956537239445548
-0.0757000000000001,-0.8973513775043926
-0.07670000000000021,-0.8912681189149732
-0.0777000000000001,-0.8800918996460394
-0.07870000000000021,-0.8711792184568896
-0.0797000000000001,-0.8680668535971865
-0.08070000000000022,-0.868774209247119
-0.0817000000000001,-0.8629738929176723
-0.08270000000000022,-0.8464217707092515
-0.08370000000000011,-0.8342552535304122
-0.08470000000000022,-0.8324161288405876
-0.08570000000000011,-0.8317087731906551
-0.08670000000000022,-0.823786389911411
-0.08770000000000011,-0.8066683831830439
-0.08870000000000022,-0.794077452614245
-0.08970000000000011,-0.7896918475846634
-0.09070000000000022,-0.7871453672449065
-0.09170000000000011,-0.7759691479759726
-0.09270000000000023,-0.7615390927173492
-0.09370000000000012,-0.7473919797186989
-0.09470000000000023,-0.7435722592090632
-0.09570000000000012,-0.7393281253094681
-0.09670000000000023,-0.7281519060405344
-0.09770000000000012,-0.7132974373919515
-0.09870000000000023,-0.6981600264833956
-0.09970000000000012,-0.691793825634003
-0.10070000000000023,-0.692642652413922
-0.10170000000000012,-0.6796273084551637
-0.10270000000000024,-0.6660460799764593
-0.10370000000000013,-0.6506257268079303
-0.10470000000000024,-0.6459571795183757
-0.10570000000000013,-0.6431277569186457
-0.10670000000000024,-0.6328003644296308
-0.10770000000000013,-0.6179458957810481
-0.10870000000000024,-0.6042231961723572
-0.10970000000000013,-0.601393773572627
-0.11070000000000024,-0.5988472932328701
-0.11170000000000013,-0.5883784296138688
-0.11270000000000002,-0.5738069032252588
-0.11370000000000013,-0.5631965684762711
-0.11470000000000002,-0.5590939057066625
-0.11570000000000014,-0.559235376836649
-0.11670000000000003,-0.5503226956474992
-0.11770000000000014,-0.535892640388876
-0.11870000000000003,-0.5251408345099016
-0.11970000000000014,-0.5241505365999961
-0.12070000000000003,-0.5227358253001311
-0.12170000000000014,-0.5155207976708194
-0.12270000000000003,-0.5012322135421824
-0.12370000000000014,-0.49033893653322164
-0.12470000000000003,-0.4911877633131407
-0.12570000000000014,-0.4907633499231812
-0.12670000000000003,-0.4841142068138156
-0.12770000000000015,-0.4692597381652327
-0.12870000000000004,-0.4606299992360559
-0.12970000000000015,-0.46034705697608286
-0.13070000000000004,-0.4606299992360559
-0.13170000000000015,-0.4528490870867982
-0.13270000000000004,-0.44393640589764854
-0.13370000000000015,-0.4320528309787822
-0.13470000000000004,-0.4344578401885528
-0.13570000000000015,-0.4341748979285798
-0.13670000000000004,-0.4280916393391601
-0.13770000000000016,-0.4176227757201588
-0.13870000000000005,-0.40856862340102257
-0.13970000000000016,-0.4088515656609956
-0.14070000000000005,-0.4109736326107932
-0.14170000000000016,-0.404183018371441
-0.14270000000000005,-0.3941385681423992
-0.14370000000000016,-0.38480147356329
-0.14470000000000005,-0.384518531303317
-0.14570000000000016,-0.38890413633289855
-0.14670000000000005,-0.38409411791335746
-0.14770000000000016,-0.3730593697744102
-0.14870000000000005,-0.3669761111849905
-0.14970000000000017,-0.366268755535058
-0.15070000000000006,-0.3703714183046666
-0.15170000000000017,-0.36641022666504447
-0.15270000000000006,-0.3565072475659892
-0.15370000000000017,-0.34900927767670453
-0.15470000000000006,-0.3494336910666641
-0.15570000000000017,-0.35466812287616467
-0.15670000000000006,-0.35155575801646166
-0.15770000000000017,-0.3425016056973254
-0.15870000000000006,-0.3352865780680137
-0.15970000000000018,-0.33726717388782473
-0.16070000000000007,-0.3392477697076358
-0.16170000000000018,-0.33811600066774383
-0.16270000000000007,-0.32764713704874243
-0.16370000000000018,-0.3221297629792688
-0.16470000000000007,-0.32623242574887745
-0.16570000000000018,-0.3290618483486075
-0.16670000000000007,-0.32623242574887745
-0.16770000000000018,-0.3188759269895793
-0.16870000000000007,-0.3102461880604025
-0.16970000000000018,-0.31519767760993017
-0.17070000000000007,-0.3188759269895793
-0.17170000000000019,-0.3159050332598627
-0.17270000000000008,-0.30755823659065895
-0.1737000000000002,-0.3016164491312258
-0.17470000000000008,-0.3055776407708479
-0.1757000000000002,-0.30925589015049704
-0.17670000000000008,-0.3067094098107399
-0.1777000000000002,-0.3021823336511718
-0.17870000000000008,-0.2946843637618871
-0.1797000000000002,-0.29807967088156323
-0.18070000000000008,-0.3038799872110099
-0.1817000000000002,-0.30006026670137426
-0.18270000000000008,-0.2934111235920086
-0.1837000000000002,-0.28732786500258894
-0.1847000000000001,-0.28959140308237297
-0.1857000000000002,-0.2963820173217252
-0.1867000000000001,-0.29284523907206256
-0.1877000000000002,-0.28676198048264295
-0.1887000000000001,-0.2816690198031288
-0.1897000000000002,-0.2849228557928184
-0.1907000000000001,-0.288742576302454
-0.1917000000000001,-0.28633756709268343
-0.19269999999999998,-0.2809616641531963
-0.1937000000000001,-0.27572723234369567
-0.19469999999999998,-0.2781322415534663
-0.1957000000000001,-0.28379108675292636
-0.19669999999999999,-0.2820934331930883
-0.1977000000000001,-0.2738881076538711
-0.1987,-0.269926916014249
-0.1997000000000001,-0.27303928087395213
-0.2007,-0.2775663570335202
-0.2017000000000001,-0.2767175302536012
-0.2027,-0.2697854448842625
-0.2037000000000001,-0.26455101307476186
-0.2047,-0.26907808923433
-0.2057000000000001,-0.2728978097439656
-0.2067,-0.27303928087395213
-0.2077000000000001,-0.26554131098466743
-0.2087,-0.2610142348250993
-0.2097000000000001,-0.26440954194477534
-0.2107,-0.26907808923433
-0.2117000000000001,-0.2689366181043435
-0.2127,-0.2634192440348699
-0.2137000000000001,-0.2564871586655311
-0.2147,-0.2618630616050183
-0.2157000000000001,-0.2689366181043435
-0.2167,-0.2652583687246944
-0.21770000000000012,-0.2615801193450453
-0.2187,-0.2554968607556256
-0.21970000000000012,-0.2588921678753017
-0.2207,-0.26455101307476186
-0.22170000000000012,-0.2625704172549508
-0.2227,-0.2588921678753017
-0.22370000000000012,-0.25450656284572004
-0.2247,-0.2562042164055581
-0.22570000000000012,-0.2611557059550858
-0.2267,-0.26129717708507233
-0.22770000000000012,-0.25464803397570657
-0.22870000000000001,-0.25309185154585506
-0.22970000000000013,-0.25464803397570657
-0.23070000000000002,-0.2620045327350048
-0.23170000000000013,-0.25988246578520724
-0.23270000000000002,-0.2554968607556256
-0.23370000000000013,-0.25139419798601703
-0.23470000000000002,-0.25535538962563914
-0.23570000000000013,-0.25959952352523424
-0.23670000000000002,-0.26044835030515323
-0.2376999999999999,-0.25365773606580105
-0.23870000000000002,-0.25068684233608446
-0.2396999999999999,-0.25295038041586854
-0.24070000000000003,-0.2594580523952477
-0.24169999999999991,-0.2591751101352747
-0.24270000000000003,-0.2540821494557606
-0.24369999999999992,-0.251111255726044
-0.24470000000000003,-0.2552139184956526
-0.24569999999999992,-0.25974099465522077
-0.24670000000000003,-0.26002393691519377
-0.24769999999999992,-0.25464803397570657
-0.24870000000000003,-0.2518186113759765
-0.24969999999999992,-0.25662862979551765
-0.25070000000000003,-0.26129717708507233
-0.2516999999999999,-0.2607312925651262
-0.25270000000000004,-0.25705304318547717
-0.2536999999999999,-0.25394067832577405
-0.25470000000000004,-0.25959952352523424
-0.2556999999999999,-0.26356071516485635
-0.25670000000000004,-0.26299483064491036
-0.25769999999999993,-0.26044835030515323
-0.25870000000000004,-0.25733598544545017
-0.25969999999999993,-0.26129717708507233
-0.26070000000000004,-0.26695602228453247
-0.26169999999999993,-0.26808779132442445
-0.26270000000000004,-0.26299483064491036
-0.26369999999999993,-0.26327777290488336
-0.26470000000000005,-0.2656827821146539
-0.26569999999999994,-0.27148309844410057
-0.26670000000000005,-0.27459546330380363
-0.26769999999999994,-0.2695025026242895
-0.26870000000000005,-0.26738043567449193
-0.26969999999999994,-0.27190751183406003
-0.27070000000000005,-0.27883959720339874
-0.27169999999999994,-0.27869812607341227
-0.27270000000000005,-0.2741710499138441
-0.27369999999999994,-0.2741710499138441
-0.27470000000000006,-0.2779907704234797
-0.27569999999999995,-0.28308373110299384
-0.27670000000000006,-0.2843569712728724
-0.27769999999999995,-0.2815275486731423
-0.27870000000000006,-0.2803957796332503
-0.27969999999999995,-0.28478138466283187
-0.28070000000000006,-0.2891669896924135
-0.28169999999999995,-0.29397700811195465
-0.28270000000000006,-0.2891669896924135
-0.28369999999999995,-0.2886011051724675
-0.28470000000000006,-0.2921378834221301
-0.28569999999999995,-0.2996358533114148
-0.28670000000000007,-0.30175792026121234
-0.28769999999999996,-0.29779672862159023
-0.28870000000000007,-0.29793819975157676
-0.28969999999999996,-0.3031726315610774
-0.29070000000000007,-0.308690005630551
-0.29169999999999996,-0.31095354371033507
-0.29270000000000007,-0.3093973612804835
-0.29369999999999996,-0.3096803035404565
-0.2947000000000001,-0.3142073797000246
-0.29569999999999996,-0.32099799393937684
-0.2967000000000001,-0.3221297629792688
-0.29769999999999996,-0.3218468207192958
-0.2987000000000001,-0.3221297629792688
-0.29969999999999997,-0.3259494834889044
-0.3007000000000001,-0.3335889245081756
-0.30169999999999997,-0.33755011614779773
-0.3027000000000001,-0.33585246258795975
-0.30369999999999997,-0.3359939337179463
-0.3047000000000001,-0.3416527789174064
-0.30569999999999997,-0.35155575801646166
-0.3067000000000001,-0.3535363538362727
-0.3077,-0.35141428688647514
-0.3087000000000001,-0.3528289981863401
-0.3097,-0.3580634299958408
-0.3107000000000001,-0.368249351354869
-0.3117,-0.37136171621457215
-0.3127000000000001,-0.37192760073451814
-0.3137,-0.3720690718645046
-0.3147000000000001,-0.37687909028404576
-0.3157,-0.38833825181295256
-0.3167000000000001,-0.39088473215270964
-0.3177,-0.39343121249246665
-0.3187000000000001,-0.3942800392723857
-0.3197,-0.4013535957717109
-0.3207000000000001,-0.40984186357090113
-0.3217,-0.4159251221603208
-0.3227000000000001,-0.4160665932903073
-0.3237,-0.4187545447600509
-0.3247000000000001,-0.42780869707918706
-0.3257,-0.4364384360083638
-0.3267000000000001,-0.4429461079877429
-0.3277,-0.444360819287608
-0.3287000000000001,-0.447190241887338
-0.3297,-0.45596145194650134
-0.3307000000000001,-0.4661473733055296
-0.3317,-0.4720891607649627
-0.3327000000000001,-0.47661623692453087
-0.3337,-0.48029448630418
-0.3347000000000001,-0.4882168695834242
-0.3357,-0.5006663290222364
-0.3367000000000001,-0.5074569432615886
-0.3377,-0.5119840194211568
-0.3387000000000001,-0.519057575920482
-0.3397,-0.5266970169397532
-0.3407000000000001,-0.5414100144583496
-0.3417,-0.5494738688675803
-0.3427000000000001,-0.5565474253669055
-0.3437,-0.5624892128263386
-0.3447000000000001,-0.5728166053153534
-0.3457,-0.5906419676936527
-0.3467000000000001,-0.5989887643628565
-0.3477,-0.6066282053821278
-0.3487000000000001,-0.6166726556111695
-0.3497,-0.6289806439199952
-0.3507000000000001,-0.6465230640383217
-0.3517,-0.658123696697215
-0.3527000000000001,-0.6677437335362972
-0.3537,-0.6794858373251772
-0.3547000000000001,-0.6957550172736251
-0.3557,-0.7151365620817761
-0.35670000000000013,-0.7315472131602104
-0.3577,-0.7451284416389149
-0.35870000000000013,-0.7611146793273897
-0.3597,-0.7800718107455812
-0.36070000000000013,-0.8039804317133004
-0.3617,-0.8240693321713839
-0.3626999999999999,-0.8427435213296024
-0.3637,-0.8619835950077669
-0.3646999999999999,-0.8885801674452296
-0.3657,-0.9192794026523009
-0.3666999999999999,-0.9455930328297906
-0.3677,-0.9714822496173208
-0.3686999999999999,-1.0009082446545134
-0.36970000000000003,-1.037549267321018
-0.3706999999999999,-1.077444125977212
-0.37170000000000003,-1.1174804557633924
-0.3726999999999999,-1.156385016509681
-0.37370000000000003,-1.1976945864657402
-0.3746999999999999,-1.250746260210679
-0.37570000000000003,-1.3118617883648485
-0.3766999999999999,-1.3728358453890317
-0.37770000000000004,-1.4345172580631471
-0.3786999999999999,-1.505252823056399
-0.37970000000000004,-1.587306078448571
-0.3806999999999999,-1.6806770242396636
-0.38170000000000004,-1.779706815230216
-0.38269999999999993,-1.884395451420229
-0.38370000000000004,-2.0032312006088917
-0.38469999999999993,-2.1390434853959355
-0.38570000000000004,-2.296076439680954
-0.38669999999999993,-2.461597661765164
-0.38770000000000004,-2.648339553347349
-0.38869999999999993,-2.856302114427509
-0.38970000000000005,-3.0883147676053753
-0.39069999999999994,-3.3500363580804073
-0.39170000000000005,-3.6386374632528744
-0.39269999999999994,-3.9555327944226426
-0.39370000000000005,-4.309210619388901
-0.39469999999999994,-4.698256226851787
-0.39570000000000005,-5.135402018510083
-0.39669999999999994,-5.6065008813651405
-0.39770000000000005,-6.108723392817228
-0.39869999999999994,-6.647728398065807
-0.39970000000000006,-7.227760031010472
-0.40069999999999995,-7.864380115949738
-0.40170000000000006,-8.542026828585092
-0.40269999999999995,-9.24938247851761
-0.40370000000000006,-9.983617643147563
-0.40469999999999995,-10.753220590274143
-0.40570000000000006,-11.55536189729762
-0.40669999999999995,-12.391456275517855
-0.40770000000000006,-13.288383239632289
-0.40869999999999995,-14.217848563643619
-0.40970000000000006,-15.094969569559943
-0.41069999999999995,-15.929649236480316
-0.41170000000000007,-16.764328903400685
-0.41269999999999996,-17.48583166633185
-0.41370000000000007,-18.207334429263025
-0.41469999999999996,-18.985425644188794
-0.41570000000000007,-19.70692840711996
-0.41669999999999996,-20.315254266061928
-0.41770000000000007,-20.93772723800254
-0.41869999999999996,-21.51775887094721
-0.4197000000000001,-22.083643390893226
-0.42069999999999996,-22.734410588831135
-0.4217000000000001,-23.356883560771752
-0.42269999999999996,-23.92276808071777
-0.4237000000000001,-24.417917035670534
-0.42469999999999997,-24.870624651627345
-0.4257000000000001,-25.323332267584156
-0.42669999999999997,-25.832628335535567
-0.4277000000000001,-26.34192440348698
-0.42869999999999997,-26.822926245441096
-0.4297000000000001,-27.261486748399253
-0.43069999999999997,-27.714194364356068
-0.4317000000000001,-28.06787218932233
-0.4327,-28.619609596269694
-0.4337000000000001,-29.100611438223805
-0.4347,-29.63820173217252
-0.4357000000000001,-30.204086252118536
-0.4367,-30.741676546067247
-0.4377000000000001,-31.20853127502271
-0.4387,-31.675386003978172
-0.4397000000000001,-32.15638784593229
-0.4407,-32.6090954618891
-0.4417000000000001,-33.04765596484726
-0.4427,-33.698423162785176
-0.4437000000000001,-34.34919036072309
-0.4447,-34.9716633326637
-0.4457000000000001,-35.50925362661242
-0.4467,-35.97610835556789
-0.4477000000000001,-36.54199287551389
-0.4487,-37.136171621457216
-0.4497000000000001,-37.631320576409976
-0.4507,-38.197205096355994
-0.4517000000000001,-38.72064827730605
-0.4527,-39.314827023249364
-0.4537000000000001,-39.80997597820213
-0.4547,-40.503184515136
-0.4557000000000001,-41.12565748707661
-0.4567,-41.66324778102533
-0.4577000000000001,-42.172543848976744
-0.4587,-42.766722594920054
-0.4597000000000001,-43.24772443687417
-0.4607,-43.99752142580264
-0.4617000000000001,-44.563405945748656
-0.4627,-45.21417314368657
-0.4637000000000001,-45.92152879361909
-0.4647,-46.60059021755431
-0.4657000000000001,-47.27965164148953
-0.4667,-47.8879775004315
-0.4677000000000001,-48.45386202037751
-0.4687,-49.104629218315424
-0.4697000000000001,-49.79783775524929
-0.4707,-50.81642989115212
-0.4717000000000001,-51.53793265408329
-0.4727,-52.28772964301176
-0.4737000000000001,-52.91020261495237
-0.4747,-53.56096981289029
-0.4757000000000001,-53.985383202849796
-0.4767,-54.508826383799864
-0.4777000000000001,-55.21618203373238
-0.4787,-55.838655005673
-0.4797000000000001,-56.27721550863116
-0.4807,-57.012865384560975
-0.48170000000000013,-57.6070441305043
-0.4827,-58.31439978043681
-0.48370000000000013,-59.00760831737068
-0.4847,-59.5734928373167
-0.48570000000000013,-60.37987827823977
-0.4867,-61.07308681517363
-0.4876999999999999,-61.83703091710075
-0.4887,-62.37462121104946
-0.4896999999999999,-63.46394891194555
-0.4907,-64.22789301387266
-0.4916999999999999,-65.0767197937917
-0.4927,-65.37380916676335
-0.4936999999999999,-66.15190038168912
-0.49470000000000003,-66.63290222364323
-0.4956999999999999,-67.2695223085825
-0.49670000000000003,-68.0900548625042
-0.4976999999999999,-68.75496917344077
-0.49870000000000003,-69.6603844053544
