Potential V vs RHE, Current mA cm-2
0.013299999999999867,-0.7001406223032067
0.012299999999999978,-1.8334658446250875
0.011299999999999866,-2.3569090255751513
0.010299999999999976,-2.618630616050183
0.009299999999999864,-2.8803522065252145
0.008299999999999974,-3.0996324580042955
0.007299999999999862,-3.317497998183511
0.006299999999999972,-3.5353635383627267
0.00529999999999986,-3.7093730282461257
0.0042999999999999705,-3.840941179133574
0.0032999999999998586,-3.840941179133574
0.0022999999999999687,-3.7970851288377587
0.0012999999999998568,-3.7532290785419424
0.00029999999999996696,-3.579219588658543
-0.000700000000000145,-3.447651437771094
-0.0017000000000000348,-3.361354048479327
-0.0027000000000001467,-3.317497998183511
-0.0037000000000000366,-3.361354048479327
-0.0047000000000001485,-3.447651437771094
-0.005700000000000038,-3.579219588658543
-0.00670000000000015,-3.7532290785419424
-0.00770000000000004,-3.927238568425342
-0.008700000000000152,-4.014950669016974
-0.009700000000000042,-4.0588067193127895
-0.010700000000000154,-4.0588067193127895
-0.011700000000000044,-3.927238568425342
-0.012700000000000156,-3.7970851288377587
-0.013700000000000045,-3.6655169779503103
-0.014700000000000157,-3.5353635383627267
-0.015700000000000047,-3.447651437771094
-0.01670000000000016,-3.447651437771094
-0.01770000000000005,-3.5353635383627267
-0.01870000000000016,-3.623075638954359
-0.01970000000000005,-3.7970851288377587
-0.020700000000000163,-3.971094618721158
-0.021700000000000053,-4.102662769608606
-0.022700000000000164,-4.1889601589003735
-0.023700000000000054,-4.102662769608606
-0.024700000000000166,-4.0588067193127895
-0.025700000000000056,-3.927238568425342
-0.026700000000000168,-3.7970851288377587
-0.027700000000000058,-3.623075638954359
-0.02870000000000017,-3.579219588658543
-0.02970000000000006,-3.5353635383627267
-0.03070000000000017,-3.579219588658543
-0.03170000000000006,-3.7093730282461257
-0.03270000000000017,-3.840941179133574
-0.03370000000000006,-4.014950669016974
-0.034700000000000175,-4.146518819904423
-0.035700000000000065,-4.23281620919619
-0.03670000000000018,-4.23281620919619
-0.03770000000000007,-4.1889601589003735
-0.03870000000000018,-4.0588067193127895
-0.03970000000000007,-3.884797229429391
-0.04070000000000018,-3.7532290785419424
-0.04170000000000007,-3.6655169779503103
-0.04270000000000018,-3.579219588658543
-0.04370000000000007,-3.623075638954359
-0.044700000000000184,-3.7093730282461257
-0.045700000000000074,-3.840941179133574
-0.046700000000000186,-3.971094618721158
-0.047700000000000076,-4.1889601589003735
-0.04870000000000019,-4.23281620919619
-0.04970000000000008,-4.3205283097878215
-0.05070000000000019,-4.23281620919619
-0.05170000000000008,-4.146518819904423
-0.05270000000000019,-4.014950669016974
-0.05370000000000008,-3.884797229429391
-0.05470000000000019,-3.7532290785419424
-0.05570000000000008,-3.6655169779503103
-0.056700000000000195,-3.6655169779503103
-0.057700000000000085,-3.7532290785419424
-0.058700000000000196,-3.884797229429391
-0.059700000000000086,-4.014950669016974
-0.0607000000000002,-4.1889601589003735
-0.06170000000000009,-4.276672259492005
-0.0627000000000002,-4.364384360083638
-0.06370000000000009,-4.3205283097878215
-0.0647000000000002,-4.276672259492005
-0.06570000000000009,-4.102662769608606
-0.0667000000000002,-4.014950669016974
-0.0677000000000001,-3.7970851288377587
-0.0687000000000002,-3.7532290785419424
-0.0697000000000001,-3.7093730282461257
-0.07070000000000021,-3.7532290785419424
-0.0717000000000001,-3.884797229429391
-0.07270000000000021,-4.014950669016974
-0.0737000000000001,-4.1889601589003735
-0.07470000000000021,-4.3205283097878215
-0.0757000000000001,-4.406825699079589
-0.07670000000000021,-4.406825699079589
-0.0777000000000001,-4.364384360083638
-0.07870000000000021,-4.23281620919619
-0.0797000000000001,-4.102662769608606
-0.08070000000000022,-3.971094618721158
-0.0817000000000001,-3.840941179133574
-0.08270000000000022,-3.7970851288377587
-0.08370000000000011,-3.840941179133574
-0.08470000000000022,-3.884797229429391
-0.08570000000000011,-4.0588067193127895
-0.08670000000000022,-4.1889601589003735
-0.08770000000000011,-4.364384360083638
-0.08870000000000022,-4.450681749375406
-0.08970000000000011,-4.494537799671222
-0.09070000000000022,-4.450681749375406
-0.09170000000000011,-4.364384360083638
-0.09270000000000023,-4.1889601589003735
-0.09370000000000012,-4.0588067193127895
-0.09470000000000023,-3.927238568425342
-0.09570000000000012,-3.884797229429391
-0.09670000000000023,-3.840941179133574
-0.09770000000000012,-3.971094618721158
-0.09870000000000023,-4.0588067193127895
-0.09970000000000012,-4.23281620919619
-0.10070000000000023,-4.406825699079589
-0.10170000000000012,-4.494537799671222
-0.10270000000000024,-4.582249900262854
-0.10370000000000013,-4.538393849967037
-0.10470000000000024,-4.450681749375406
-0.10570000000000013,-4.3205283097878215
-0.10670000000000024,-4.1889601589003735
-0.10770000000000013,-4.014950669016974
-0.10870000000000024,-3.971094618721158
-0.10970000000000013,-3.927238568425342
-0.11070000000000024,-3.971094618721158
-0.11170000000000013,-4.102662769608606
-0.11270000000000002,-4.23281620919619
-0.11370000000000013,-4.406825699079589
-0.11470000000000002,-4.538393849967037
-0.11570000000000014,-4.582249900262854
-0.11670000000000003,-4.626105950558669
-0.11770000000000014,-4.538393849967037
-0.11870000000000003,-4.450681749375406
-0.11970000000000014,-4.276672259492005
-0.12070000000000003,-4.146518819904423
-0.12170000000000014,-4.0588067193127895
-0.12270000000000003,-3.971094618721158
-0.12370000000000014,-4.014950669016974
-0.12470000000000003,-4.102662769608606
-0.12570000000000014,-4.23281620919619
-0.12670000000000003,-4.406825699079589
-0.12770000000000015,-4.582249900262854
-0.12870000000000004,-4.668547289554621
-0.12970000000000015,-4.712403339850438
-0.13070000000000004,-4.626105950558669
-0.13170000000000015,-4.538393849967037
-0.13270000000000004,-4.406825699079589
-0.13370000000000015,-4.23281620919619
-0.13470000000000004,-4.146518819904423
-0.13570000000000015,-4.014950669016974
-0.13670000000000004,-4.0588067193127895
-0.13770000000000016,-4.146518819904423
-0.13870000000000005,-4.23281620919619
-0.13970000000000016,-4.406825699079589
-0.14070000000000005,-4.582249900262854
-0.14170000000000016,-4.668547289554621
-0.14270000000000005,-4.756259390146253
-0.14370000000000016,-4.712403339850438
-0.14470000000000005,-4.626105950558669
-0.14570000000000016,-4.494537799671222
-0.14670000000000005,-4.364384360083638
-0.14770000000000016,-4.1889601589003735
-0.14870000000000005,-4.102662769608606
-0.14970000000000017,-4.0588067193127895
-0.15070000000000006,-4.146518819904423
-0.15170000000000017,-4.276672259492005
-0.15270000000000006,-4.406825699079589
-0.15370000000000017,-4.582249900262854
-0.15470000000000006,-4.668547289554621
-0.15570000000000017,-4.756259390146253
-0.15670000000000006,-4.756259390146253
-0.15770000000000017,-4.712403339850438
-0.15870000000000006,-4.582249900262854
-0.15970000000000018,-4.406825699079589
-0.16070000000000007,-4.276672259492005
-0.16170000000000018,-4.1889601589003735
-0.16270000000000007,-4.102662769608606
-0.16370000000000018,-4.1889601589003735
-0.16470000000000007,-4.276672259492005
-0.16570000000000018,-4.406825699079589
-0.16670000000000007,-4.538393849967037
-0.16770000000000018,-4.712403339850438
-0.16870000000000007,-4.800115440442069
-0.16970000000000018,-4.843971490737885
-0.17070000000000007,-4.756259390146253
-0.17170000000000019,-4.668547289554621
-0.17270000000000008,-4.538393849967037
-0.1737000000000002,-4.406825699079589
-0.17470000000000008,-4.276672259492005
-0.1757000000000002,-4.1889601589003735
-0.17670000000000008,-4.1889601589003735
-0.1777000000000002,-4.276672259492005
-0.17870000000000008,-4.406825699079589
-0.1797000000000002,-4.538393849967037
-0.18070000000000008,-4.712403339850438
-0.1817000000000002,-4.800115440442069
-0.18270000000000008,-4.887827541033701
-0.1837000000000002,-4.843971490737885
-0.1847000000000001,-4.756259390146253
-0.1857000000000002,-4.626105950558669
-0.1867000000000001,-4.494537799671222
-0.1877000000000002,-4.3205283097878215
-0.1887000000000001,-4.276672259492005
-0.1897000000000002,-4.23281620919619
-0.1907000000000001,-4.3205283097878215
-0.1917000000000001,-4.406825699079589
-0.19269999999999998,-4.538393849967037
-0.1937000000000001,-4.712403339850438
-0.19469999999999998,-4.843971490737885
-0.1957000000000001,-4.887827541033701
-0.19669999999999999,-4.9302688800296535
-0.1977000000000001,-4.843971490737885
-0.1987,-4.756259390146253
-0.1997000000000001,-4.582249900262854
-0.2007,-4.450681749375406
-0.2017000000000001,-4.364384360083638
-0.2027,-4.276672259492005
-0.2037000000000001,-4.364384360083638
-0.2047,-4.406825699079589
-0.2057000000000001,-4.582249900262854
-0.2067,-4.712403339850438
-0.2077000000000001,-4.887827541033701
-0.2087,-4.9302688800296535
-0.2097000000000001,-5.017980980621284
-0.2107,-4.974124930325469
-0.2117000000000001,-4.843971490737885
-0.2127,-4.712403339850438
-0.2137000000000001,-4.538393849967037
-0.2147,-4.450681749375406
-0.2157000000000001,-4.406825699079589
-0.2167,-4.406825699079589
-0.21770000000000012,-4.494537799671222
-0.2187,-4.582249900262854
-0.21970000000000012,-4.756259390146253
-0.2207,-4.9302688800296535
-0.22170000000000012,-5.017980980621284
-0.2227,-5.105693081212917
-0.22370000000000012,-5.017980980621284
-0.2247,-4.974124930325469
-0.22570000000000012,-4.843971490737885
-0.2267,-4.712403339850438
-0.22770000000000012,-4.582249900262854
-0.22870000000000001,-4.494537799671222
-0.22970000000000013,-4.450681749375406
-0.23070000000000002,-4.538393849967037
-0.23170000000000013,-4.668547289554621
-0.23270000000000002,-4.800115440442069
-0.23370000000000013,-4.974124930325469
-0.23470000000000002,-5.105693081212917
-0.23570000000000013,-5.191990470504685
-0.23670000000000002,-5.191990470504685
-0.2376999999999999,-5.105693081212917
-0.23870000000000002,-5.017980980621284
-0.2396999999999999,-4.887827541033701
-0.24070000000000003,-4.756259390146253
-0.24169999999999991,-4.626105950558669
-0.24270000000000003,-4.582249900262854
-0.24369999999999992,-4.626105950558669
-0.24470000000000003,-4.756259390146253
-0.24569999999999992,-4.887827541033701
-0.24670000000000003,-5.0618370309171015
-0.24769999999999992,-5.235846520800501
-0.24870000000000003,-5.279702571096316
-0.24969999999999992,-5.367414671687949
-0.25070000000000003,-5.323558621392133
-0.2516999999999999,-5.235846520800501
-0.25270000000000004,-5.0618370309171015
-0.2536999999999999,-4.974124930325469
-0.25470000000000004,-4.843971490737885
-0.2556999999999999,-4.800115440442069
-0.25670000000000004,-4.756259390146253
-0.25769999999999993,-4.887827541033701
-0.25870000000000004,-5.017980980621284
-0.25969999999999993,-5.191990470504685
-0.26070000000000004,-5.367414671687949
-0.26169999999999993,-5.497568111275533
-0.26270000000000004,-5.5414241615713475
-0.26369999999999993,-5.5414241615713475
-0.26470000000000005,-5.411270721983764
-0.26569999999999994,-5.323558621392133
-0.26670000000000005,-5.235846520800501
-0.26769999999999994,-5.105693081212917
-0.26870000000000005,-5.017980980621284
-0.26969999999999994,-5.017980980621284
-0.27070000000000005,-5.105693081212917
-0.27169999999999994,-5.191990470504685
-0.27270000000000005,-5.367414671687949
-0.27369999999999994,-5.5414241615713475
-0.27470000000000006,-5.715433651454749
-0.27569999999999995,-5.759289701750564
-0.27670000000000006,-5.80314575204638
-0.27769999999999995,-5.715433651454749
-0.27870000000000006,-5.672992312458796
-0.27969999999999995,-5.5414241615713475
-0.28070000000000006,-5.411270721983764
-0.28169999999999995,-5.323558621392133
-0.28270000000000006,-5.323558621392133
-0.28369999999999995,-5.367414671687949
-0.28470000000000006,-5.497568111275533
-0.28569999999999995,-5.672992312458796
-0.28670000000000007,-5.80314575204638
-0.28769999999999996,-5.977155241929781
-0.28870000000000007,-6.108723392817228
-0.28969999999999996,-6.152579443113044
-0.29070000000000007,-6.152579443113044
-0.29169999999999996,-6.064867342521412
-0.29270000000000007,-5.977155241929781
-0.29369999999999996,-5.847001802342197
-0.2947000000000001,-5.759289701750564
-0.29569999999999996,-5.715433651454749
-0.2967000000000001,-5.759289701750564
-0.29769999999999996,-5.847001802342197
-0.2987000000000001,-6.021011292225596
-0.29969999999999997,-6.196435493408861
-0.3007000000000001,-6.414301033588076
-0.30169999999999997,-6.54445447317566
-0.3027000000000001,-6.632166573767292
-0.30369999999999997,-6.632166573767292
-0.3047000000000001,-6.588310523471475
-0.30569999999999997,-6.500598422879844
-0.3067000000000001,-6.414301033588076
-0.3077,-6.326588932996443
-0.3087000000000001,-6.282732882700628
-0.3097,-6.282732882700628
-0.3107000000000001,-6.414301033588076
-0.3117,-6.54445447317566
-0.3127000000000001,-6.762320013354876
-0.3137,-6.93774421453814
-0.3147000000000001,-7.111753704421539
-0.3157,-7.243321855308987
-0.3167000000000001,-7.329619244600755
-0.3177,-7.28576319430494
-0.3187000000000001,-7.243321855308987
-0.3197,-7.155609754717355
-0.3207000000000001,-7.067897654125724
-0.3217,-7.024041603829907
-0.3227000000000001,-7.024041603829907
-0.3237,-7.111753704421539
-0.3247000000000001,-7.28576319430494
-0.3257,-7.461187395488204
-0.3267000000000001,-7.679052935667419
-0.3277,-7.896918475846635
-0.3287000000000001,-8.027071915434218
-0.3297,-8.158640066321666
-0.3307000000000001,-8.158640066321666
-0.3317,-8.158640066321666
-0.3327000000000001,-8.070927965730034
-0.3337,-8.027071915434218
-0.3347000000000001,-7.984630576438266
-0.3357,-7.984630576438266
-0.3367000000000001,-8.070927965730034
-0.3377,-8.246352166913299
-0.3387000000000001,-8.4203616567967
-0.3397,-8.638227196975913
-0.3407000000000001,-8.899948787450944
-0.3417,-9.073958277334345
-0.3427000000000001,-9.24938247851761
-0.3437,-9.293238528813426
-0.3447000000000001,-9.335679867809377
-0.3457,-9.293238528813426
-0.3467000000000001,-9.24938247851761
-0.3477,-9.205526428221793
-0.3487000000000001,-9.24938247851761
-0.3497,-9.293238528813426
-0.3507000000000001,-9.467248018696827
-0.3517,-9.685113558876042
-0.3527000000000001,-9.946835149351072
-0.3537,-10.208556739826104
-0.3547000000000001,-10.470278330301136
-0.3557,-10.644287820184536
-0.35670000000000013,-10.775855971071984
-0.3577,-10.819712021367803
-0.35870000000000013,-10.819712021367803
-0.3597,-10.819712021367803
-0.36070000000000013,-10.819712021367803
-0.3617,-10.863568071663616
-0.3626999999999999,-10.949865460955383
-0.3637,-11.123874950838783
-0.3646999999999999,-11.343155202317865
-0.3657,-11.604876792792895
-0.3666999999999999,-11.909039722263879
-0.3677,-12.214617363034726
-0.3686999999999999,-12.432482903213943
-0.36970000000000003,-12.651763154693022
-0.3706999999999999,-12.73806054398479
-0.37170000000000003,-12.825772644576423
-0.3726999999999999,-12.869628694872238
-0.37370000000000003,-12.913484745168056
-0.3746999999999999,-12.955926084164007
-0.37570000000000003,-13.043638184755638
-0.3766999999999999,-13.261503724934855
-0.37770000000000004,-13.47936926511407
-0.3786999999999999,-13.784946905884919
-0.37970000000000004,-14.090524546655764
-0.3806999999999999,-14.444202371622024
-0.38170000000000004,-14.741291744593681
-0.38269999999999993,-15.01008689156804
-0.38370000000000004,-15.222293586547794
-0.38469999999999993,-15.349617603535648
-0.38570000000000004,-15.491088733522153
-0.38669999999999993,-15.575971411514052
-0.38770000000000004,-15.660854089505953
-0.38869999999999993,-15.78817810649381
-0.38970000000000005,-15.972090575476265
-0.39069999999999994,-16.269179948447924
-0.39170000000000005,-16.580416434418233
-0.39269999999999994,-16.962388485381787
-0.39370000000000005,-17.358507649344002
-0.39469999999999994,-17.75462681330621
-0.39570000000000005,-18.06586329927652
-0.39669999999999994,-18.362952672248177
-0.39770000000000005,-18.589306480226583
-0.39869999999999994,-18.759071836210385
-0.39970000000000006,-18.97127853119014
-0.40069999999999995,-19.112749661176647
-0.40170000000000006,-19.28251501716045
-0.40269999999999995,-19.49472171214021
-0.40370000000000006,-19.848399537106463
-0.40469999999999995,-20.244518701068674
-0.40570000000000006,-20.683079204026836
-0.40669999999999995,-21.149933932982297
-0.40770000000000006,-21.63093577493641
-0.40869999999999995,-22.069496277894572
-0.40970000000000006,-22.508056780852733
-0.41069999999999995,-22.819293266823045
-0.41170000000000007,-23.1163826397947
-0.41269999999999996,-23.385177786769056
-0.41370000000000007,-23.639825820744765
-0.41469999999999996,-23.908620967719123
-0.41570000000000007,-24.20571034069078
-0.41669999999999996,-24.601829504652986
-0.41770000000000007,-25.12527268560305
-0.41869999999999996,-25.60627452755716
-0.4197000000000001,-26.21460038649913
-0.42069999999999996,-26.822926245441096
-0.4217000000000001,-27.38881076538711
-0.42269999999999996,-27.912253946337174
-0.4237000000000001,-28.393255788291288
-0.42469999999999997,-28.831816291249446
-0.4257000000000001,-29.22793545521166
-0.42669999999999997,-29.62405461917387
-0.4277000000000001,-30.00602667013743
-0.42869999999999997,-30.444587173095588
-0.4297000000000001,-30.88314767605375
-0.43069999999999997,-31.449032195999767
-0.4317000000000001,-32.09979939393769
-0.4327,-32.764713704874254
-0.4337000000000001,-33.54280491980002
-0.4347,-34.236013456733886
-0.4357000000000001,-34.94336910666641
-0.4367,-35.594136304604326
-0.4377000000000001,-36.16002082455034
-0.4387,-36.725905344496354
-0.4397000000000001,-37.249348525446415
-0.4407,-37.73035036740053
-0.4417000000000001,-38.29623488734655
-0.4427,-38.86211940729255
-0.4437000000000001,-39.51288660523048
-0.4447,-40.220242255162994
-0.4457000000000001,-40.99833347008877
-0.4467,-41.83301313700913
-0.4477000000000001,-42.71013414292546
-0.4487,-43.53066669684718
-0.4497000000000001,-44.36534636376755
-0.4507,-45.05855490070142
-0.4517000000000001,-45.75176343763528
-0.4527,-46.41667774857186
-0.4537000000000001,-46.982562268517874
-0.4547,-47.633329466455784
-0.4557000000000001,-48.24165532539775
-0.4567,-48.97730520132757
-0.4577000000000001,-49.76954352925199
-0.4587,-50.64666453516831
-0.4597000000000001,-51.55207976708194
-0.4607,-52.514083450990164
-0.4617000000000001,-53.476087134898386
-0.4627,-54.39564947981066
-0.4637000000000001,-55.25862337272834
-0.4647,-56.05086170065276
-0.4657000000000001,-56.82895291557852
-0.4667,-57.53630856551105
-0.4677000000000001,-58.27195844144086
-0.4687,-58.97931409137338
-0.4697000000000001,-59.757405306299155
-0.4707,-60.63452631221547
-0.4717000000000001,-61.5965299961237
-0.4727,-62.544386567033264
-0.4737000000000001,-63.59127292893339
-0.4747,-64.63815929083353
-0.4757000000000001,-65.68504565273366
-0.4767,-66.68949067563783
-0.4777000000000001,-67.65149435954605
-0.4787,-68.52861536546239
-0.4797000000000001,-69.3491479193841
-0.4807,-70.14138624730852
-0.48170000000000013,-70.96191880123024
-0.4827,-71.7965984681506
-0.48370000000000013,-72.71616081306288
-0.4847,-73.6781644969711
-0.48570000000000013,-74.76749219786718
-0.4867,-75.85681989876326
-0.4876999999999999,-77.03103027765125
-0.4887,-78.16279931754329
-0.4896999999999999,-79.2945683574353
-0.4907,-80.34145471933543
-0.4916999999999999,-81.3458997422396
-0.4927,-82.26546208715187
-0.4936999999999999,-83.18502443206415
-0.49470000000000003,-84.04799832498183
-0.4956999999999999,-84.96756066989411
-0.49670000000000003,-85.92956435380233
-0.4976999999999999,-86.97645071570246
-0.49870000000000003,-88.10821975559449
-0.4996999999999999,-89.28243013448247
-0.5007,-90.55567030436099
-0.5016999999999999,-91.81476336124088
-0.5027,-93.03141507912481
-0.5036999999999999,-94.21977257101145
-0.5047,-95.35154161090348
-0.5056999999999999,-96.3984279728036
-0.5067,-97.40287299570777
-0.5076999999999999,-98.3082882276214
-0.5087,-99.31273325052557
-0.5096999999999999,-100.31717827342976
-0.5107,-101.40650597432582
