Potential V vs RHE, Current mA cm-2
0.05339999999999995,-0.14161260111649018
0.05239999999999995,-0.20499166735044383
0.051399999999999946,-0.26044835030515323
0.050399999999999945,-0.2917134700321706
0.049399999999999944,-0.3102461880604025
0.04839999999999994,-0.32255417636922834
0.04739999999999994,-0.3311839152984051
0.04639999999999994,-0.3379745295377573
0.04539999999999994,-0.3434919036072309
0.04439999999999994,-0.3473116241168665
0.04339999999999994,-0.3508484023665291
0.04239999999999994,-0.3539607672262322
0.04139999999999994,-0.35664871869597575
0.040399999999999936,-0.3589122567757598
0.039399999999999935,-0.3610343237255574
0.038399999999999934,-0.36343933293532793
0.03739999999999993,-0.3649955153651795
0.03639999999999993,-0.36641022666504447
0.03539999999999993,-0.36768346683492303
0.03439999999999993,-0.36909817813478807
0.03339999999999993,-0.3698055337847206
0.03239999999999993,-0.3709373028246126
0.03139999999999993,-0.3723520141244776
0.030399999999999927,-0.3730593697744102
0.029399999999999926,-0.3740496676843157
0.028399999999999925,-0.3750399655942212
0.027399999999999924,-0.37560585011416725
0.026399999999999924,-0.3764546768940863
0.025399999999999923,-0.37716203254401875
0.024399999999999922,-0.37786938819395127
0.02339999999999992,-0.37857674384388385
0.02239999999999992,-0.37885968610385684
0.02139999999999992,-0.37970851288377583
0.020399999999999918,-0.38013292627373535
0.019399999999999917,-0.38055733966369487
0.018399999999999916,-0.3809817530536544
0.017399999999999916,-0.3812646953136274
0.016399999999999915,-0.3815476375736004
0.015399999999999914,-0.3822549932235329
0.014399999999999913,-0.3825379354835059
0.013399999999999912,-0.38310382000345194
0.012399999999999911,-0.3835282333934114
0.01139999999999991,-0.38366970452339794
0.01039999999999991,-0.384235589043344
0.009399999999999908,-0.38409411791335746
0.008399999999999908,-0.38437706017333045
0.007399999999999907,-0.38494294469327645
0.006399999999999906,-0.38508441582326297
0.005399999999999905,-0.38565030034320896
0.004399999999999904,-0.3857917714731955
0.003399999999999903,-0.385933242603182
0.002399999999999902,-0.386499127123128
0.0013999999999999013,-0.386782069383101
0.00039999999999990044,-0.3872064827730605
-0.0006000000000001005,-0.38763089616302
-0.0016000000000001013,-0.38763089616302
-0.0026000000000001022,-0.38833825181295256
-0.003600000000000103,-0.3887626652029121
-0.004600000000000104,-0.38918707859287155
-0.005600000000000105,-0.3898944342428041
-0.006600000000000106,-0.3900359053727906
-0.007600000000000107,-0.3907432610227231
-0.008600000000000108,-0.39116767441268263
-0.009600000000000108,-0.3915920878026421
-0.01060000000000011,-0.39258238571254767
-0.01160000000000011,-0.3932897413624802
-0.012600000000000111,-0.3944215104023722
-0.013600000000000112,-0.3954118083122777
-0.014600000000000113,-0.3956947505722508
-0.015600000000000114,-0.3965435773521698
-0.016600000000000115,-0.39739240413208876
-0.017600000000000116,-0.3985241731719808
-0.018600000000000116,-0.39951447108188637
-0.019600000000000117,-0.4007877112517649
-0.020600000000000118,-0.4017780091616704
-0.02160000000000012,-0.40333419159152195
-0.02260000000000012,-0.40432448950142746
-0.02360000000000012,-0.40602214306126555
-0.024600000000000122,-0.4080027388810766
-0.025600000000000123,-0.40941745018094167
-0.026600000000000124,-0.4109736326107932
-0.027600000000000124,-0.4128127573006177
-0.028600000000000125,-0.41436893973046923
-0.029600000000000126,-0.41677394894023984
-0.030600000000000127,-0.4190374870200239
-0.03160000000000013,-0.42130102509980794
-0.03260000000000013,-0.423564563179592
-0.03360000000000013,-0.42582810125937604
-0.03460000000000002,-0.42851605272911963
-0.03560000000000002,-0.4314869464588362
-0.03660000000000002,-0.4344578401885528
-0.03760000000000002,-0.4375702050482558
-0.03860000000000002,-0.4408240410379454
-0.039600000000000024,-0.4442193481576215
-0.040600000000000025,-0.4478975975372706
-0.041600000000000026,-0.4514343757869332
-0.04260000000000003,-0.45539556742655535
-0.04360000000000003,-0.4594982301961639
-0.04460000000000003,-0.4636008929657725
-0.04560000000000003,-0.46812796912534066
-0.04660000000000003,-0.47265504528490876
-0.04760000000000003,-0.4773235925744634
-0.04860000000000003,-0.48227508212399106
-0.04960000000000003,-0.4873680428035051
-0.050600000000000034,-0.49246100348301924
-0.051600000000000035,-0.4981198486824793
-0.052600000000000036,-0.5037786938819395
-0.053600000000000037,-0.5095790102113862
-0.05460000000000004,-0.5158037399307923
-0.05560000000000004,-0.5221699407801851
-0.05660000000000004,-0.5283946704995912
-0.05760000000000004,-0.5347608713489839
-0.05860000000000004,-0.5416929567183226
-0.05960000000000004,-0.5489079843476343
-0.06060000000000004,-0.5559815408469594
-0.061600000000000044,-0.5633380396062576
-0.06260000000000004,-0.5708360094955423
-0.06360000000000005,-0.5786169216447999
-0.06460000000000005,-0.5868222471840172
-0.06560000000000005,-0.5944616882032884
-0.06660000000000005,-0.6026670137425056
-0.06760000000000005,-0.6108723392817229
-0.06860000000000005,-0.6189361936909535
-0.06960000000000005,-0.6277074037501167
-0.07060000000000005,-0.6361956715493069
-0.07160000000000005,-0.6451083527384567
-0.07260000000000005,-0.6540210339276065
-0.07360000000000005,-0.6630751862467427
-0.07460000000000006,-0.6722708096958655
-0.07560000000000006,-0.6818908465349477
-0.07660000000000006,-0.690944998854084
-0.07760000000000006,-0.7004235645631797
-0.07860000000000006,-0.7096191880123024
-0.07960000000000006,-0.7193806959813712
-0.08060000000000006,-0.7288592616904669
-0.08160000000000006,-0.7379134140096032
-0.08260000000000006,-0.7473919797186989
-0.08360000000000006,-0.7570120165577812
-0.08460000000000006,-0.7663491111368903
-0.08560000000000006,-0.7759691479759726
-0.08660000000000007,-0.7853062425550819
-0.08760000000000007,-0.794643337134191
-0.08860000000000007,-0.8041219028432868
-0.08960000000000007,-0.813458997422396
-0.09060000000000007,-0.8227960920015054
-0.09160000000000007,-0.8315673020606686
-0.09260000000000007,-0.8400555698598587
-0.09360000000000007,-0.849109722178995
-0.09460000000000007,-0.8577394611081718
-0.09560000000000007,-0.865944786647389
-0.09660000000000007,-0.8741501121866062
-0.09760000000000008,-0.882213966595837
-0.09860000000000008,-0.8905607632650405
-0.09960000000000008,-0.8983416754142982
-0.10060000000000008,-0.90555670304361
-0.10160000000000008,-0.912913201802908
-0.10260000000000008,-0.9201282294322198
-0.10360000000000008,-0.927201785931545
-0.10460000000000008,-0.9338509290409107
-0.10560000000000008,-0.9400756587603168
-0.10660000000000008,-0.94601744621975
-0.10760000000000008,-0.9518177625491967
-0.10860000000000009,-0.9573351366186703
-0.10960000000000009,-0.9628525106881439
-0.11060000000000009,-0.967662529107685
-0.11160000000000009,-0.9723310763972398
-0.11260000000000009,-0.9768581525568079
-0.11360000000000009,-0.9806778730664433
-0.11460000000000009,-0.9849220069660385
-0.11560000000000009,-0.9887417274756741
-0.11660000000000009,-0.9912882078154313
-0.1176000000000001,-0.9944005726751344
-0.1186000000000001,-0.9962396973649587
-0.1196000000000001,-0.9985032354447428
-0.1206000000000001,-1.0006253023945404
-0.1216000000000001,-1.0017570714344324
-0.1226000000000001,-1.0031717827342974
-0.1236000000000001,-1.0038791383842298
-0.1246000000000001,-1.0041620806442029
-0.1256000000000001,-1.004727965164149
-0.1266000000000001,-1.0043035517741894
-0.1276000000000001,-1.0041620806442029
-0.1286000000000001,-1.0034547249942705
-0.1296000000000001,-1.0023229559543785
-0.1306000000000001,-1.0010497157844997
-0.1316000000000001,-0.9993520622246619
-0.1326000000000001,-0.9976544086648237
-0.1336000000000001,-0.9958152839749993
-0.1346000000000001,-0.9932688036352422
-0.1356000000000001,-0.9907223232954853
-0.1366000000000001,-0.9881758429557282
-0.1376000000000001,-0.985063478096025
-0.1386000000000001,-0.9818096421063355
-0.1396000000000001,-0.9785558061166459
-0.1406000000000001,-0.9751604989969699
-0.14160000000000011,-0.9711993073573477
-0.14260000000000012,-0.9670966445877391
-0.14360000000000012,-0.9628525106881439
-0.14460000000000012,-0.9586083767885488
-0.14560000000000012,-0.9539398294989943
-0.14660000000000012,-0.9495542244694126
-0.14760000000000012,-0.9447442060498714
-0.14860000000000012,-0.9399341876303302
-0.14960000000000012,-0.9352656403407758
-0.15060000000000012,-0.9298897374012886
-0.15160000000000012,-0.9250797189817473
-0.15260000000000012,-0.9201282294322198
-0.15360000000000013,-0.9147523264927326
-0.15460000000000013,-0.9100837792031781
-0.15560000000000013,-0.9048493473936775
-0.15660000000000013,-0.8994734444541903
-0.15760000000000013,-0.8946634260346491
-0.15860000000000013,-0.889570465355135
-0.15960000000000002,-0.884477504675621
-0.16060000000000002,-0.8796674862560799
-0.16160000000000002,-0.8745745255765657
-0.16260000000000002,-0.8697645071570246
-0.16360000000000002,-0.8649544887374835
-0.16460000000000002,-0.8601444703179423
-0.16560000000000002,-0.8563247498083066
-0.16660000000000003,-0.8529294426886307
-0.16760000000000003,-0.8475535397491435
-0.16860000000000003,-0.8428849924595889
-0.16960000000000003,-0.8382164451700342
-0.17060000000000003,-0.8338308401404527
-0.17160000000000003,-0.8297281773708441
-0.17260000000000003,-0.8254840434712489
-0.17360000000000003,-0.8218057940915999
-0.17460000000000003,-0.8178446024519777
-0.17560000000000003,-0.8141663530723287
-0.17660000000000003,-0.8104881036926795
-0.17760000000000004,-0.8068098543130304
-0.17860000000000004,-0.8036974894533273
-0.17960000000000004,-0.8004436534636377
-0.18060000000000004,-0.7971898174739481
-0.18160000000000004,-0.7943603948742181
-0.18260000000000004,-0.790965087754542
-0.18360000000000004,-0.7884186074147849
-0.18460000000000004,-0.7857306559450413
-0.18560000000000004,-0.7827597622153247
-0.18660000000000004,-0.7804962241355408
-0.18760000000000004,-0.7780912149257702
-0.18860000000000005,-0.7755447345860131
-0.18960000000000005,-0.7737056098961885
-0.19060000000000005,-0.7714420718164045
-0.19160000000000005,-0.7694614759965934
-0.19260000000000005,-0.7676223513067688
-0.19360000000000005,-0.7652173420969983
-0.19460000000000005,-0.7635196885371602
-0.19560000000000005,-0.7616805638473357
-0.19660000000000005,-0.7599829102874976
-0.19760000000000005,-0.7582852567276597
-0.19860000000000005,-0.7565876031678217
-0.19960000000000006,-0.7554558341279295
-0.20060000000000006,-0.753899651698078
-0.20160000000000006,-0.75220199813824
-0.20260000000000006,-0.751070229098348
-0.20360000000000006,-0.749938460058456
-0.20460000000000006,-0.748806691018564
-0.20560000000000006,-0.7476749219786718
-0.20660000000000006,-0.7464016818087934
-0.20760000000000006,-0.7454113838988878
-0.20860000000000006,-0.7442796148589957
-0.20960000000000006,-0.7435722592090632
-0.21060000000000006,-0.7427234324291443
-0.21160000000000007,-0.7415916633892523
-0.21260000000000007,-0.7407428366093332
-0.21360000000000007,-0.7407428366093332
-0.21460000000000007,-0.7398940098294141
-0.21560000000000007,-0.7391866541794817
-0.21660000000000007,-0.7390451830494952
-0.21760000000000007,-0.7390451830494952
-0.21860000000000007,-0.7383378273995627
-0.21960000000000007,-0.7379134140096032
-0.22060000000000007,-0.7374890006196436
-0.22160000000000007,-0.7373475294896572
-0.22260000000000008,-0.7369231160996975
-0.22360000000000008,-0.7367816449697111
-0.22460000000000008,-0.7372060583596707
-0.22560000000000008,-0.7370645872296842
-0.22660000000000008,-0.7373475294896572
-0.22760000000000008,-0.7374890006196436
-0.22860000000000008,-0.7379134140096032
-0.22960000000000008,-0.7384792985295492
-0.23060000000000008,-0.7389037119195087
-0.23160000000000008,-0.7393281253094681
-0.23260000000000008,-0.7400354809594006
-0.23360000000000009,-0.7403184232193737
-0.2346000000000001,-0.7415916633892523
-0.2356000000000001,-0.7422990190391847
-0.2366000000000001,-0.7431478458191038
-0.2376000000000001,-0.7444210859889823
-0.2386000000000001,-0.7455528550288744
-0.2396000000000001,-0.7469675663287394
-0.2406000000000001,-0.7483822776286043
-0.2416000000000001,-0.74937257553851
-0.2426000000000001,-0.7512117002283345
-0.2436000000000001,-0.7527678826581861
-0.2446000000000001,-0.7541825939580511
-0.2456000000000001,-0.7558802475178891
-0.2466000000000001,-0.7577193722077137
-0.2476000000000001,-0.7596999680275246
-0.2486000000000001,-0.7618220349773223
-0.2496000000000001,-0.7635196885371602
-0.2506000000000001,-0.7656417554869578
-0.2516000000000001,-0.7677638224367553
-0.2526000000000001,-0.7697444182565665
-0.2536000000000001,-0.77243236972631
-0.2546000000000001,-0.7748373789360805
-0.2556000000000001,-0.7772423881458511
-0.2566000000000001,-0.7799303396155948
-0.2576000000000001,-0.7823353488253653
-0.2586000000000001,-0.7850233002951088
-0.2596000000000001,-0.7878527228948389
-0.2606000000000001,-0.7906821454945689
-0.2616000000000001,-0.7937945103542721
-0.2626000000000001,-0.7963409906940291
-0.2636000000000001,-0.7995948266837187
-0.2646000000000001,-0.8028486626734083
-0.2656000000000001,-0.8056780852731383
-0.2666000000000001,-0.8090733923928144
-0.2676000000000001,-0.8124686995124906
-0.2686000000000001,-0.8158640066321667
-0.2696000000000001,-0.8192593137518428
-0.2706000000000001,-0.8225131497415324
-0.2716000000000001,-0.8261913991211816
-0.2726000000000001,-0.8297281773708441
-0.2736000000000001,-0.8332649556205066
-0.2746000000000001,-0.8369432050001557
-0.2756000000000001,-0.8404799832498183
-0.2766000000000001,-0.8442997037594538
-0.2776000000000001,-0.8484023665290624
-0.2786000000000001,-0.8517976736487386
-0.2796000000000001,-0.8560418075483337
-0.2806000000000001,-0.8600029991879558
-0.28160000000000013,-0.8641056619575644
-0.28260000000000013,-0.8682083247271731
-0.28360000000000013,-0.8721695163667951
-0.2846,-0.8768380636563498
-0.2856,-0.8812236686859314
-0.2866,-0.8854678025855264
-0.2876,-0.8899948787450946
-0.2886,-0.8945219549046627
-0.2896,-0.8993319733242039
-0.2906,-0.904141991743745
-0.2916,-0.908669067903313
-0.2926,-0.9134790863228541
-0.2936,-0.9184305758723817
-0.29460000000000003,-0.9232405942919228
-0.29560000000000003,-0.9281920838414506
-0.29660000000000003,-0.9332850445209646
-0.29760000000000003,-0.9382365340704923
-0.29860000000000003,-0.9436124370099793
-0.29960000000000003,-0.9488468688194802
-0.30060000000000003,-0.9539398294989943
-0.30160000000000003,-0.9595986746984544
-0.30260000000000004,-0.9648331065079551
-0.30360000000000004,-0.9707748939673883
-0.30460000000000004,-0.9765752102968348
-0.30560000000000004,-0.981951113236322
-0.30660000000000004,-0.9877514295657687
-0.30760000000000004,-0.9935517458952152
-0.30860000000000004,-0.9994935333546484
-0.30960000000000004,-1.005859734204041
-0.31060000000000004,-1.0119429927934607
-0.31160000000000004,-1.0183091936428532
-0.31260000000000004,-1.0248168656222325
-0.31360000000000005,-1.0314660087315983
-0.31460000000000005,-1.038398094100937
-0.31560000000000005,-1.0450472372103026
-0.31660000000000005,-1.0516963803196684
-0.31760000000000005,-1.0591943502089531
-0.31860000000000005,-1.0662679067082783
-0.31960000000000005,-1.0739073477275494
-0.32060000000000005,-1.0814053176168341
-0.32160000000000005,-1.0887618163761321
-0.32260000000000005,-1.0965427285253897
-0.32360000000000005,-1.104465111804634
-0.32460000000000006,-1.1122460239538918
-0.32560000000000006,-1.1204513494931092
-0.32660000000000006,-1.1286566750323264
-0.32760000000000006,-1.1371449428315166
-0.32860000000000006,-1.1456332106307068
-0.32960000000000006,-1.15440442068987
-0.33060000000000006,-1.1633171018790196
-0.33160000000000006,-1.1722297830681694
-0.33260000000000006,-1.181142464257319
-0.33360000000000006,-1.1904795588364285
-0.33460000000000006,-1.1998166534155377
-0.33560000000000006,-1.2095781613846064
-0.33660000000000007,-1.2194811404836614
-0.33760000000000007,-1.2292426484527306
-0.33860000000000007,-1.2395700409417452
-0.33960000000000007,-1.249614491170787
-0.34060000000000007,-1.2595174702698424
-0.34160000000000007,-1.2699863338888435
-0.34260000000000007,-1.2803137263778581
-0.34360000000000007,-1.2910655322568325
-0.3446000000000001,-1.3019588092657932
-0.3456000000000001,-1.3127106151447676
-0.3466000000000001,-1.3237453632837148
-0.34759999999999996,-1.3350630536826351
-0.3486000000000001,-1.3463807440815554
-0.34959999999999997,-1.3576984344804757
-0.3506000000000001,-1.369016124879396
-0.35159999999999997,-1.3806167575382893
-0.3526000000000001,-1.3923588613271691
-0.35359999999999997,-1.4041009651160488
-0.3546000000000001,-1.4161260111649017
-0.35559999999999997,-1.427443701563822
-0.3566000000000001,-1.4401761032626073
-0.3576,-1.4514937936615278
-0.3586000000000001,-1.4642261953603128
-0.3596,-1.4769585970590984
-0.3606000000000001,-1.4896909987578837
-0.3616,-1.501008689156804
-0.3626000000000001,-1.5137410908555893
-0.3636,-1.5264734925543744
-0.3646000000000001,-1.53920589425316
-0.3656,-1.55052358465208
-0.3666000000000001,-1.5632559863508655
-0.3676,-1.5759883880496508
-0.3686000000000001,-1.5887207897484361
-0.3696,-1.6014531914472214
-0.3706000000000001,-1.614185593146007
-0.3716,-1.6255032835449272
-0.3726000000000001,-1.6382356852437125
-0.3736,-1.6509680869424979
-0.3746000000000001,-1.6637004886412832
-0.3756,-1.6750181790402037
-0.3766000000000001,-1.6877505807389888
-0.3776,-1.700482982437774
-0.3786000000000001,-1.7132153841365596
-0.3796,-1.7245330745354797
-0.3806000000000001,-1.7372654762342652
-0.3816,-1.7485831666331852
-0.3826000000000001,-1.7599008570321055
-0.3836,-1.772633258730891
-0.3846000000000001,-1.7839509491298113
-0.3856,-1.7952686395287314
-0.3866000000000001,-1.8080010412275167
-0.3876,-1.8193187316264372
-0.3886000000000001,-1.8306364220253575
-0.3896,-1.8419541124242775
-0.3906000000000001,-1.8518570915233332
-0.3916,-1.8631747819222533
-0.3926000000000001,-1.8730777610213083
-0.3936,-1.884395451420229
-0.3946000000000001,-1.894298430519284
-0.3956,-1.9056161209182045
-0.3966000000000001,-1.9155191000172598
-0.3976,-1.925422079116315
-0.3986000000000001,-1.93532505821537
-0.3996,-1.9452280373144257
-0.4006000000000001,-1.9537163051136157
-0.4016,-1.963619284212671
-0.4026000000000001,-1.972107552011861
-0.4036,-1.9820105311109162
-0.4046000000000001,-1.9904987989101068
-0.4056,-1.9989870667092968
-0.40660000000000013,-2.007475334508487
-0.4076,-2.014548891007812
-0.40860000000000013,-2.023037158807002
-0.4096,-2.0301107153063276
-0.41060000000000013,-2.038598983105518
-0.4116,-2.045672539604843
-0.41260000000000013,-2.052746096104168
-0.4136,-2.0598196526034935
-0.41460000000000014,-2.0654784978029537
-0.4156,-2.071137343002414
-0.41660000000000014,-2.0782108995017388
-0.4176,-2.083869744701199
-0.41860000000000014,-2.0895285899006595
-0.41960000000000003,-2.095187435100119
-0.42060000000000014,-2.0994315689997145
-0.42160000000000003,-2.105090414199175
-0.42260000000000014,-2.110749259398635
-0.42360000000000003,-2.1149933932982297
-0.42460000000000014,-2.1192375271978254
-0.42560000000000003,-2.122066949797555
-0.42660000000000015,-2.12631108369715
-0.42760000000000004,-2.1305552175967453
-0.42860000000000015,-2.133384640196476
-0.42960000000000004,-2.136214062796206
-0.43060000000000015,-2.1390434853959355
-0.43160000000000004,-2.1418729079956655
-0.43260000000000015,-2.1432876192955304
-0.43360000000000004,-2.1461170418952604
-0.43460000000000015,-2.148946464494991
-0.43560000000000004,-2.150361175794856
-0.43660000000000015,-2.151775887094721
-0.43760000000000004,-2.1531905983945863
-0.43860000000000016,-2.1531905983945863
-0.43960000000000005,-2.1546053096944506
-0.44060000000000016,-2.156020020994316
-0.44160000000000005,-2.156020020994316
-0.44260000000000016,-2.156020020994316
-0.44360000000000005,-2.156020020994316
-0.44460000000000016,-2.156020020994316
-0.44560000000000005,-2.156020020994316
-0.44660000000000016,-2.156020020994316
-0.44760000000000005,-2.1546053096944506
-0.44860000000000017,-2.1546053096944506
