Potential V vs RHE, Current mA cm-2
0.013299999999999867,0.08502414912188871
0.012299999999999978,-0.6564260431373771
0.011299999999999866,-1.2234423321232837
0.010299999999999976,-1.6594563547416883
0.009299999999999864,-2.052746096104168
0.008299999999999974,-2.3569090255751513
0.007299999999999862,-2.618630616050183
0.006299999999999972,-2.794054817233447
0.00529999999999986,-3.0119203574126634
0.0042999999999999705,-3.1420737970002466
0.0032999999999998586,-3.317497998183511
0.0022999999999999687,-3.403795387475278
0.0012999999999998568,-3.579219588658543
0.00029999999999996696,-3.6655169779503103
-0.000700000000000145,-3.840941179133574
-0.0017000000000000348,-3.927238568425342
-0.0027000000000001467,-4.0588067193127895
-0.0037000000000000366,-4.1889601589003735
-0.0047000000000001485,-4.3205283097878215
-0.005700000000000038,-4.406825699079589
-0.00670000000000015,-4.538393849967037
-0.00770000000000004,-4.582249900262854
-0.008700000000000152,-4.668547289554621
-0.009700000000000042,-4.756259390146253
-0.010700000000000154,-4.843971490737885
-0.011700000000000044,-4.887827541033701
-0.012700000000000156,-4.974124930325469
-0.013700000000000045,-5.0618370309171015
-0.014700000000000157,-5.191990470504685
-0.015700000000000047,-5.279702571096316
-0.01670000000000016,-5.367414671687949
-0.01770000000000005,-5.497568111275533
-0.01870000000000016,-5.585280211867165
-0.01970000000000005,-5.715433651454749
-0.020700000000000163,-5.759289701750564
-0.021700000000000053,-5.847001802342197
-0.022700000000000164,-5.9347139029338285
-0.023700000000000054,-6.021011292225596
-0.024700000000000166,-6.064867342521412
-0.025700000000000056,-6.196435493408861
-0.026700000000000168,-6.282732882700628
-0.027700000000000058,-6.414301033588076
-0.02870000000000017,-6.500598422879844
-0.02970000000000006,-6.632166573767292
-0.03070000000000017,-6.762320013354876
-0.03170000000000006,-6.893888164242324
-0.03270000000000017,-7.024041603829907
-0.03370000000000006,-7.155609754717355
-0.034700000000000175,-7.199465805013171
-0.035700000000000065,-7.329619244600755
-0.03670000000000018,-7.4173313451923875
-0.03770000000000007,-7.50504344578402
-0.03870000000000018,-7.635196885371603
-0.03970000000000007,-7.722908985963235
-0.04070000000000018,-7.853062425550818
-0.04170000000000007,-7.984630576438266
-0.04270000000000018,-8.158640066321666
-0.04370000000000007,-8.288793505909249
-0.044700000000000184,-8.464217707092514
-0.045700000000000074,-8.594371146680096
-0.046700000000000186,-8.725939297567548
-0.047700000000000076,-8.812236686859313
-0.04870000000000019,-8.943804837746763
-0.04970000000000008,-9.073958277334345
-0.05070000000000019,-9.205526428221793
-0.05170000000000008,-9.293238528813426
-0.05270000000000019,-9.423391968401008
-0.05370000000000008,-9.55496011928846
-0.05470000000000019,-9.728969609171857
-0.05570000000000008,-9.902979099055257
-0.056700000000000195,-10.078403300238522
-0.057700000000000085,-10.208556739826104
-0.058700000000000196,-10.382566229709504
-0.059700000000000086,-10.514134380596953
-0.0607000000000002,-10.688143870480351
-0.06170000000000009,-10.819712021367803
-0.0627000000000002,-10.949865460955383
-0.06370000000000009,-11.081433611842833
-0.0647000000000002,-11.1677310011346
-0.06570000000000009,-11.343155202317865
-0.0667000000000002,-11.473308641905447
-0.0677000000000001,-11.647318131788847
-0.0687000000000002,-11.82274233297211
-0.0697000000000001,-11.996751822855511
-0.07070000000000021,-12.170761312738911
-0.0717000000000001,-12.346185513922174
-0.07270000000000021,-12.520195003805576
-0.0737000000000001,-12.651763154693022
-0.07470000000000021,-12.825772644576423
-0.0757000000000001,-12.99978213445982
-0.07670000000000021,-13.13135028534727
-0.0777000000000001,-13.261503724934855
-0.07870000000000021,-13.3930718758223
-0.0797000000000001,-13.567081365705702
-0.08070000000000022,-13.741090855589102
-0.0817000000000001,-13.916515056772363
-0.08270000000000022,-14.090524546655764
-0.08370000000000011,-14.30273124163552
-0.08470000000000022,-14.486643710617974
-0.08570000000000011,-14.65640906660178
-0.08670000000000022,-14.826174422585586
-0.08770000000000011,-15.01008689156804
-0.08870000000000022,-15.137410908555893
-0.08970000000000011,-15.264734925543747
-0.09070000000000022,-15.3920589425316
-0.09170000000000011,-15.575971411514052
-0.09270000000000023,-15.70329542850191
-0.09370000000000012,-15.87306078448571
-0.09470000000000023,-16.056973253468165
-0.09570000000000012,-16.269179948447924
-0.09670000000000023,-16.438945304431726
-0.09770000000000012,-16.622857773414182
-0.09870000000000023,-16.835064468393938
-0.09970000000000012,-16.962388485381787
-0.10070000000000023,-17.146300954364243
-0.10170000000000012,-17.2736249713521
-0.10270000000000024,-17.40094898833995
-0.10370000000000013,-17.542420118326454
-0.10470000000000024,-17.71218547431026
-0.10570000000000013,-17.839509491298113
-0.10670000000000024,-17.966833508285966
-0.10770000000000013,-18.15074597726842
-0.10870000000000024,-18.362952672248177
-0.10970000000000013,-18.53271802823198
-0.11070000000000024,-18.759071836210385
-0.11170000000000013,-18.92883719219419
-0.11270000000000002,-19.112749661176647
-0.11370000000000013,-19.28251501716045
-0.11470000000000002,-19.452280373144255
-0.11570000000000014,-19.579604390132108
-0.11670000000000003,-19.763516859114564
-0.11770000000000014,-19.890840876102416
-0.11870000000000003,-20.06060623208622
-0.11970000000000014,-20.202077362072725
-0.12070000000000003,-20.371842718056527
-0.12170000000000014,-20.541608074040333
-0.12270000000000003,-20.76796188201874
-0.12370000000000014,-20.93772723800254
-0.12470000000000003,-21.149933932982297
-0.12570000000000014,-21.333846401964752
-0.12670000000000003,-21.503611757948562
-0.12770000000000015,-21.67337711393236
-0.12870000000000004,-21.814848243918867
-0.12970000000000015,-21.94217226090672
-0.13070000000000004,-22.111937616890522
-0.13170000000000015,-22.253408746877028
-0.13270000000000004,-22.42317410286083
-0.13370000000000015,-22.550498119848687
-0.13470000000000004,-22.72026347583249
-0.13570000000000015,-22.946617283810895
-0.13670000000000004,-23.1163826397947
-0.13770000000000016,-23.300295108777156
-0.13870000000000005,-23.51250180375691
-0.13970000000000016,-23.682267159740714
-0.14070000000000005,-23.823738289727217
-0.14170000000000016,-23.993503645711023
-0.14270000000000005,-24.120827662698876
-0.14370000000000016,-24.290593018682678
-0.14470000000000005,-24.432064148669184
-0.14570000000000016,-24.601829504652986
-0.14670000000000005,-24.771594860636792
-0.14770000000000016,-24.95550732961925
-0.14870000000000005,-25.12527268560305
-0.14970000000000017,-25.337479380582806
-0.15070000000000006,-25.563833188561212
-0.15170000000000017,-25.691157205549064
-0.15270000000000006,-25.91751101352747
-0.15370000000000017,-26.087276369511276
-0.15470000000000006,-26.21460038649913
-0.15570000000000017,-26.38436574248293
-0.15670000000000006,-26.525836872469437
-0.15770000000000017,-26.65316088945729
-0.15870000000000006,-26.822926245441096
-0.15970000000000018,-26.9643973754276
-0.16070000000000007,-27.176604070407354
-0.16170000000000018,-27.34636942639116
-0.16270000000000007,-27.530281895373616
-0.16370000000000018,-27.700047251357418
-0.16470000000000007,-27.954695285333123
-0.16570000000000018,-28.09616641531963
-0.16670000000000007,-28.308373110299385
-0.16770000000000018,-28.435697127287238
-0.16870000000000007,-28.619609596269694
-0.16970000000000018,-28.789374952253496
-0.17070000000000007,-28.91669896924135
-0.17170000000000019,-29.100611438223805
-0.17270000000000008,-29.27037679420761
-0.1737000000000002,-29.440142150191413
-0.17470000000000008,-29.66649595816982
-0.1757000000000002,-29.836261314153624
-0.17670000000000008,-30.04846800913338
-0.1777000000000002,-30.317263156107735
-0.17870000000000008,-30.487028512091538
-0.1797000000000002,-30.71338232006995
-0.18070000000000008,-30.88314767605375
-0.1817000000000002,-31.052913032037555
-0.18270000000000008,-31.23682550102001
-0.1837000000000002,-31.40659085700382
-0.1847000000000001,-31.57635621298762
-0.1857000000000002,-31.802710020966025
-0.1867000000000001,-31.930034037953877
-0.1877000000000002,-32.14224073293363
-0.1887000000000001,-32.368594540912035
-0.1897000000000002,-32.58080123589179
-0.1907000000000001,-32.84959638286615
-0.1917000000000001,-33.01936173884996
-0.19269999999999998,-33.231568433829715
-0.1937000000000001,-33.45792224180811
-0.19469999999999998,-33.627687597791926
-0.1957000000000001,-33.81160006677438
-0.19669999999999999,-33.98136542275818
-0.1977000000000001,-34.15113077874198
-0.1987,-34.33504324772444
-0.1997000000000001,-34.50480860370825
-0.2007,-34.67457395969205
-0.2017000000000001,-34.90092776767045
-0.2027,-35.07069312365426
-0.2037000000000001,-35.282899818634014
-0.2047,-35.55169496560837
-0.2057000000000001,-35.721460321592176
-0.2067,-35.94781412957058
-0.2077000000000001,-36.11757948555439
-0.2087,-36.329786180534136
-0.2097000000000001,-36.5136986495166
-0.2107,-36.64102266650445
-0.2117000000000001,-36.8532293614842
-0.2127,-37.037141830466666
-0.2137000000000001,-37.206907186450465
-0.2147,-37.41911388143023
-0.2157000000000001,-37.687909028404576
-0.2167,-37.90011572338433
-0.21770000000000012,-38.12646953136274
-0.2187,-38.38111756533845
-0.21970000000000012,-38.5650300343209
-0.2207,-38.777236729300654
-0.22170000000000012,-38.94700208528445
-0.2227,-39.173355893262865
-0.22370000000000012,-39.34312124924667
-0.2247,-39.56947505722508
-0.22570000000000012,-39.739240413208876
-0.2267,-39.95144710818864
-0.22770000000000012,-40.220242255162994
-0.22870000000000001,-40.43244895014274
-0.22970000000000013,-40.701244097117105
-0.23070000000000002,-40.95589213109281
-0.23170000000000013,-41.182245939071215
-0.23270000000000002,-41.43689397304693
-0.23370000000000013,-41.606659329030734
-0.23470000000000002,-41.83301313700913
-0.23570000000000013,-42.00277849299294
-0.23670000000000002,-42.186690961975394
-0.2376999999999999,-42.3564563179592
-0.23870000000000002,-42.526221673943
-0.2396999999999999,-42.71013414292546
-0.24070000000000003,-42.87989949890926
-0.24169999999999991,-43.09210619388902
-0.24270000000000003,-43.31846000186743
-0.24369999999999992,-43.48822535785123
-0.24470000000000003,-43.70043205283099
-0.24569999999999992,-43.88434452181344
-0.24670000000000003,-44.054109877797245
-0.24769999999999992,-44.223875233781044
-0.24870000000000003,-44.36534636376755
-0.24969999999999992,-44.535111719751356
-0.25070000000000003,-44.66243573673921
-0.2516999999999999,-44.80390686672572
-0.25270000000000004,-44.93123088371356
-0.2536999999999999,-45.10099623969737
-0.25470000000000004,-45.27076159568118
-0.2556999999999999,-45.45467406466363
-0.25670000000000004,-45.624439420647434
-0.25769999999999993,-45.85079322862584
-0.25870000000000004,-46.02055858460964
-0.25969999999999993,-46.19032394059345
-0.26070000000000004,-46.3176479575813
-0.26169999999999993,-46.45911908756781
-0.26270000000000004,-46.628884443551605
-0.26369999999999993,-46.75620846053947
-0.26470000000000005,-46.84109113853137
-0.26569999999999994,-46.982562268517874
-0.26670000000000005,-47.10988628550572
-0.26769999999999994,-47.27965164148953
-0.26870000000000005,-47.46356411047198
-0.26969999999999994,-47.590888127459834
-0.27070000000000005,-47.76065348344364
-0.27169999999999994,-47.8879775004315
-0.27270000000000005,-48.029448630417996
-0.27369999999999994,-48.156772647405845
-0.27470000000000006,-48.24165532539775
-0.27569999999999995,-48.32653800338966
-0.27670000000000006,-48.41142068138156
-0.27769999999999995,-48.45386202037751
-0.27870000000000006,-48.55289181136806
-0.27969999999999995,-48.59533315036401
-0.28070000000000006,-48.72265716735186
-0.28169999999999995,-48.76509850634781
-0.28270000000000006,-48.84998118433972
-0.28369999999999995,-48.89242252333566
-0.28470000000000006,-48.97730520132757
-0.28569999999999995,-49.03389365332217
-0.28670000000000007,-49.076334992318124
-0.28769999999999996,-49.076334992318124
-0.28870000000000007,-49.076334992318124
-0.28969999999999996,-49.076334992318124
-0.29070000000000007,-49.03389365332217
-0.29169999999999996,-49.03389365332217
-0.29270000000000007,-48.97730520132757
-0.29369999999999996,-48.97730520132757
-0.2947000000000001,-48.97730520132757
-0.29569999999999996,-48.97730520132757
-0.2967000000000001,-48.97730520132757
-0.29769999999999996,-48.97730520132757
-0.2987000000000001,-48.93486386233162
-0.29969999999999997,-48.93486386233162
-0.3007000000000001,-48.89242252333566
-0.30169999999999997,-48.80753984534376
-0.3027000000000001,-48.76509850634781
-0.30369999999999997,-48.68021582835591
-0.3047000000000001,-48.59533315036401
-0.30569999999999997,-48.45386202037751
-0.3067000000000001,-48.36897934238561
-0.3077,-48.2840966643937
-0.3087000000000001,-48.156772647405845
-0.3097,-48.071889969413945
-0.3107000000000001,-47.987007291422046
-0.3117,-47.8879775004315
-0.3127000000000001,-47.76065348344364
-0.3137,-47.633329466455784
-0.3147000000000001,-47.506005449467935
-0.3157,-47.36453431948143
-0.3167000000000001,-47.23721030249357
-0.3177,-47.02500360751382
-0.3187000000000001,-46.88353247752732
-0.3197,-46.713767121543505
-0.3207000000000001,-46.544001765559706
-0.3217,-46.41667774857186
-0.3227000000000001,-46.27520661858535
-0.3237,-46.10544126260155
-0.3247000000000001,-45.97811724561369
-0.3257,-45.79420477663124
-0.3267000000000001,-45.624439420647434
-0.3277,-45.36979138667173
-0.3287000000000001,-45.143437578693316
-0.3297,-44.88878954471762
-0.3307000000000001,-44.66243573673921
-0.3317,-44.4077877027635
-0.3327000000000001,-44.181433894785094
-0.3337,-43.92678586080939
-0.3347000000000001,-43.70043205283099
-0.3357,-43.53066669684718
-0.3367000000000001,-43.31846000186743
-0.3377,-43.134547532884966
-0.3387000000000001,-42.87989949890926
-0.3397,-42.653545690930855
-0.3407000000000001,-42.4413389959511
-0.3417,-42.186690961975394
-0.3427000000000001,-41.91789581500104
-0.3437,-41.66324778102533
-0.3447000000000001,-41.39445263405098
-0.3457,-41.182245939071215
-0.3467000000000001,-40.91345079209687
-0.3477,-40.701244097117105
-0.3487000000000001,-40.4748902891387
-0.3497,-40.26268359415894
-0.3507000000000001,-40.092918238175145
-0.3517,-39.82412309120078
-0.3527000000000001,-39.61191639622103
-0.3537,-39.38556258824262
-0.3547000000000001,-39.173355893262865
-0.3557,-38.90456074628851
-0.35670000000000013,-38.6499127123128
-0.3577,-38.38111756533845
-0.35870000000000013,-38.16891087035869
-0.3597,-37.94255706238028
-0.36070000000000013,-37.73035036740053
-0.3617,-37.56058501141672
-0.3626999999999999,-37.334231203438314
-0.3637,-37.164465847454515
-0.3646999999999999,-36.99470049147071
-0.3657,-36.768346683492304
-0.3666999999999999,-36.5985813275085
-0.3677,-36.4288159715247
-0.3686999999999999,-36.244903502542236
-0.36970000000000003,-36.03269680756248
-0.3706999999999999,-35.848784338580025
-0.37170000000000003,-35.679018982596226
-0.3726999999999999,-35.50925362661242
-0.37370000000000003,-35.38192960962457
-0.3746999999999999,-35.282899818634014
-0.37570000000000003,-35.15557580164616
-0.3766999999999999,-35.07069312365426
-0.37770000000000004,-34.98581044566235
-0.3786999999999999,-34.90092776767045
-0.37970000000000004,-34.75945663768395
-0.3806999999999999,-34.67457395969205
-0.38170000000000004,-34.5472499427042
-0.38269999999999993,-34.41992592571634
-0.38370000000000004,-34.33504324772444
-0.38469999999999993,-34.193572117737936
-0.38570000000000004,-34.10868943974604
-0.38669999999999993,-34.02380676175414
-0.38770000000000004,-33.98136542275818
-0.38869999999999993,-33.93892408376223
-0.38970000000000005,-33.89648274476628
-0.39069999999999994,-33.85404140577033
-0.39170000000000005,-33.81160006677438
-0.39269999999999994,-33.81160006677438
-0.39370000000000005,-33.755011614779775
-0.39469999999999994,-33.712570275783825
-0.39570000000000005,-33.670128936787876
-0.39669999999999994,-33.627687597791926
-0.39770000000000005,-33.58524625879597
-0.39869999999999994,-33.54280491980002
-0.39970000000000006,-33.54280491980002
-0.40069999999999995,-33.54280491980002
-0.40170000000000006,-33.58524625879597
-0.40269999999999995,-33.627687597791926
-0.40370000000000006,-33.670128936787876
-0.40469999999999995,-33.712570275783825
-0.40570000000000006,-33.755011614779775
-0.40669999999999995,-33.81160006677438
-0.40770000000000006,-33.85404140577033
-0.40869999999999995,-33.85404140577033
-0.40970000000000006,-33.93892408376223
-0.41069999999999995,-33.93892408376223
-0.41170000000000007,-34.02380676175414
-0.41269999999999996,-34.02380676175414
-0.41370000000000007,-34.10868943974604
-0.41469999999999996,-34.236013456733886
-0.41570000000000007,-34.33504324772444
-0.41669999999999996,-34.41992592571634
-0.41770000000000007,-34.5472499427042
-0.41869999999999996,-34.632132620696105
-0.4197000000000001,-34.717015298688004
-0.42069999999999996,-34.8018979766799
-0.4217000000000001,-34.94336910666641
-0.42269999999999996,-34.94336910666641
-0.4237000000000001,-35.07069312365426
-0.42469999999999997,-35.11313446265021
-0.4257000000000001,-35.198017140642115
-0.42669999999999997,-35.282899818634014
-0.4277000000000001,-35.42437094862052
-0.42869999999999997,-35.55169496560837
-0.4297000000000001,-35.721460321592176
-0.43069999999999997,-35.848784338580025
-0.4317000000000001,-35.94781412957058
-0.4327,-36.07513814655844
-0.4337000000000001,-36.20246216354629
-0.4347,-36.329786180534136
-0.4357000000000001,-36.4288159715247
-0.4367,-36.5136986495166
-0.4377000000000001,-36.5985813275085
-0.4387,-36.725905344496354
-0.4397000000000001,-36.81078802248826
-0.4407,-36.95225915247476
-0.4417000000000001,-37.07958316946261
-0.4427,-37.206907186450465
-0.4437000000000001,-37.334231203438314
-0.4447,-37.47570233342482
-0.4457000000000001,-37.60302635041268
-0.4467,-37.73035036740053
-0.4477000000000001,-37.85767438438838
-0.4487,-37.94255706238028
-0.4497000000000001,-38.04158685337084
-0.4507,-38.08402819236679
-0.4517000000000001,-38.16891087035869
-0.4527,-38.253793548350586
-0.4537000000000001,-38.38111756533845
-0.4547,-38.522588695324956
-0.4557000000000001,-38.6499127123128
-0.4567,-38.777236729300654
-0.4577000000000001,-38.90456074628851
-0.4587,-38.98944342428042
-0.4597000000000001,-39.130914554266916
-0.4607,-39.173355893262865
-0.4617000000000001,-39.258238571254765
-0.4627,-39.34312124924667
-0.4637000000000001,-39.42800392723857
-0.4647,-39.47044526623452
-0.4657000000000001,-39.56947505722508
-0.4667,-39.61191639622103
-0.4677000000000001,-39.739240413208876
-0.4687,-39.86656443019674
-0.4697000000000001,-39.95144710818864
-0.4707,-40.03632978618054
-0.4717000000000001,-40.177800916167044
-0.4727,-40.220242255162994
-0.4737000000000001,-40.30512493315489
-0.4747,-40.34756627215084
-0.4757000000000001,-40.3900076111468
-0.4767,-40.43244895014274
-0.4777000000000001,-40.4748902891387
-0.4787,-40.51733162813464
-0.4797000000000001,-40.559772967130606
-0.4807,-40.65880275812115
-0.48170000000000013,-40.743685436113054
-0.4827,-40.78612677510901
-0.48370000000000013,-40.87100945310091
-0.4847,-40.95589213109281
-0.48570000000000013,-41.04077480908471
-0.4867,-40.30512493315489
-0.48570000000000013,-38.522588695324956
-0.4847,-37.037141830466666
-0.48370000000000013,-35.763901660588125
-0.4827,-34.632132620696105
-0.48170000000000013,-33.54280491980002
-0.4807,-32.53835989689585
-0.4797000000000001,-31.618797551983565
-0.4787,-30.79826499806185
-0.4777000000000001,-30.00602667013743
-0.4767,-29.22793545521166
-0.4757000000000001,-28.53472691827779
-0.4747,-27.78492992934932
-0.4737000000000001,-27.091721392415455
-0.4727,-26.38436574248293
-0.4717000000000001,-25.691157205549064
-0.4707,-25.04039000761115
-0.4697000000000001,-24.432064148669184
-0.4687,-23.767149837732617
-0.4677000000000001,-23.2012653177866
-0.4667,-22.592939458844636
-0.4657000000000001,-22.027054938898623
-0.4647,-21.503611757948562
-0.4637000000000001,-20.980168576998494
-0.4627,-20.499166735044383
