Sept. 13, 2024   11:33:11
Cyclic Voltammetry
File: c:/users/guazh/data/20240903_batch_252_500/2024-09-03-exp342\exp342-2024-09-13t11_14_38-h2koh\exp342_cv_sr_100mvs_efin_-1700mv.bin
Data Source:  Experiment
Instrument Model:  CHI760E
Header: CV ran at 100 mVs
Note: 

Init E (V) = -1
High E (V) = -1
Low E (V) = -1.7
Final E (V) = -1
Init P/N = N
Scan Rate (V/s) = 0.1
Segment = 3
Sample Interval (V) = 0.001
Quiet Time (sec) = 2
Sensitivity (A/V) = 0.01
Comp R (ohm) = 2.5

Results:

Channel 1:
Segment 1:

Segment 2:

Segment 3:

Potential/V, Current/A

-1.000, 3.116e-6
-1.001, 7.171e-6
-1.002, 8.256e-6
-1.003, 9.163e-6
-1.004, 9.657e-6
-1.005, 1.037e-5
-1.006, 1.082e-5
-1.007, 1.102e-5
-1.008, 1.161e-5
-1.009, 1.152e-5
-1.010, 1.238e-5
-1.011, 1.258e-5
-1.012, 1.274e-5
-1.013, 1.319e-5
-1.014, 1.319e-5
-1.015, 1.367e-5
-1.016, 1.384e-5
-1.017, 1.391e-5
-1.018, 1.449e-5
-1.019, 1.413e-5
-1.020, 1.453e-5
-1.021, 1.487e-5
-1.022, 1.472e-5
-1.023, 1.528e-5
-1.024, 1.519e-5
-1.025, 1.538e-5
-1.026, 1.559e-5
-1.027, 1.548e-5
-1.028, 1.601e-5
-1.029, 1.566e-5
-1.030, 1.603e-5
-1.031, 1.628e-5
-1.032, 1.623e-5
-1.033, 1.646e-5
-1.034, 1.637e-5
-1.035, 1.648e-5
-1.036, 1.665e-5
-1.037, 1.667e-5
-1.038, 1.703e-5
-1.039, 1.684e-5
-1.040, 1.706e-5
-1.041, 1.723e-5
-1.042, 1.715e-5
-1.043, 1.735e-5
-1.044, 1.723e-5
-1.045, 1.736e-5
-1.046, 1.752e-5
-1.047, 1.748e-5
-1.048, 1.763e-5
-1.049, 1.753e-5
-1.050, 1.790e-5
-1.051, 1.796e-5
-1.052, 1.779e-5
-1.053, 1.801e-5
-1.054, 1.790e-5
-1.055, 1.816e-5
-1.056, 1.792e-5
-1.057, 1.811e-5
-1.058, 1.853e-5
-1.059, 1.802e-5
-1.060, 1.841e-5
-1.061, 1.846e-5
-1.062, 1.832e-5
-1.063, 1.862e-5
-1.064, 1.840e-5
-1.065, 1.861e-5
-1.066, 1.883e-5
-1.067, 1.846e-5
-1.068, 1.877e-5
-1.069, 1.871e-5
-1.070, 1.877e-5
-1.071, 1.901e-5
-1.072, 1.872e-5
-1.073, 1.900e-5
-1.074, 1.878e-5
-1.075, 1.909e-5
-1.076, 1.909e-5
-1.077, 1.882e-5
-1.078, 1.915e-5
-1.079, 1.907e-5
-1.080, 1.921e-5
-1.081, 1.937e-5
-1.082, 1.916e-5
-1.083, 1.944e-5
-1.084, 1.918e-5
-1.085, 1.936e-5
-1.086, 1.934e-5
-1.087, 1.934e-5
-1.088, 1.941e-5
-1.089, 1.926e-5
-1.090, 1.958e-5
-1.091, 1.953e-5
-1.092, 1.942e-5
-1.093, 1.973e-5
-1.094, 1.948e-5
-1.095, 1.989e-5
-1.096, 1.968e-5
-1.097, 1.961e-5
-1.098, 1.992e-5
-1.099, 1.966e-5
-1.100, 1.984e-5
-1.101, 2.005e-5
-1.102, 1.966e-5
-1.103, 2.007e-5
-1.104, 1.980e-5
-1.105, 2.003e-5
-1.106, 2.009e-5
-1.107, 1.980e-5
-1.108, 2.029e-5
-1.109, 1.990e-5
-1.110, 2.006e-5
-1.111, 2.030e-5
-1.112, 1.995e-5
-1.113, 2.025e-5
-1.114, 2.018e-5
-1.115, 2.023e-5
-1.116, 2.022e-5
-1.117, 2.021e-5
-1.118, 2.040e-5
-1.119, 2.027e-5
-1.120, 2.030e-5
-1.121, 2.050e-5
-1.122, 2.033e-5
-1.123, 2.056e-5
-1.124, 2.026e-5
-1.125, 2.053e-5
-1.126, 2.064e-5
-1.127, 2.055e-5
-1.128, 2.071e-5
-1.129, 2.053e-5
-1.130, 2.077e-5
-1.131, 2.084e-5
-1.132, 2.070e-5
-1.133, 2.082e-5
-1.134, 2.063e-5
-1.135, 2.082e-5
-1.136, 2.086e-5
-1.137, 2.068e-5
-1.138, 2.110e-5
-1.139, 2.081e-5
-1.140, 2.094e-5
-1.141, 2.106e-5
-1.142, 2.108e-5
-1.143, 2.139e-5
-1.144, 2.109e-5
-1.145, 2.105e-5
-1.146, 2.136e-5
-1.147, 2.109e-5
-1.148, 2.149e-5
-1.149, 2.118e-5
-1.150, 2.138e-5
-1.151, 2.147e-5
-1.152, 2.136e-5
-1.153, 2.169e-5
-1.154, 2.151e-5
-1.155, 2.154e-5
-1.156, 2.186e-5
-1.157, 2.150e-5
-1.158, 2.179e-5
-1.159, 2.163e-5
-1.160, 2.189e-5
-1.161, 2.192e-5
-1.162, 2.177e-5
-1.163, 2.193e-5
-1.164, 2.182e-5
-1.165, 2.209e-5
-1.166, 2.223e-5
-1.167, 2.215e-5
-1.168, 2.234e-5
-1.169, 2.216e-5
-1.170, 2.235e-5
-1.171, 2.251e-5
-1.172, 2.231e-5
-1.173, 2.267e-5
-1.174, 2.221e-5
-1.175, 2.272e-5
-1.176, 2.266e-5
-1.177, 2.259e-5
-1.178, 2.317e-5
-1.179, 2.275e-5
-1.180, 2.300e-5
-1.181, 2.306e-5
-1.182, 2.286e-5
-1.183, 2.330e-5
-1.184, 2.303e-5
-1.185, 2.310e-5
-1.186, 2.364e-5
-1.187, 2.322e-5
-1.188, 2.368e-5
-1.189, 2.335e-5
-1.190, 2.353e-5
-1.191, 2.389e-5
-1.192, 2.349e-5
-1.193, 2.403e-5
-1.194, 2.381e-5
-1.195, 2.396e-5
-1.196, 2.418e-5
-1.197, 2.405e-5
-1.198, 2.444e-5
-1.199, 2.426e-5
-1.200, 2.441e-5
-1.201, 2.452e-5
-1.202, 2.443e-5
-1.203, 2.481e-5
-1.204, 2.468e-5
-1.205, 2.492e-5
-1.206, 2.517e-5
-1.207, 2.494e-5
-1.208, 2.527e-5
-1.209, 2.515e-5
-1.210, 2.536e-5
-1.211, 2.560e-5
-1.212, 2.540e-5
-1.213, 2.583e-5
-1.214, 2.575e-5
-1.215, 2.597e-5
-1.216, 2.627e-5
-1.217, 2.595e-5
-1.218, 2.656e-5
-1.219, 2.632e-5
-1.220, 2.654e-5
-1.221, 2.688e-5
-1.222, 2.664e-5
-1.223, 2.732e-5
-1.224, 2.706e-5
-1.225, 2.721e-5
-1.226, 2.767e-5
-1.227, 2.744e-5
-1.228, 2.805e-5
-1.229, 2.802e-5
-1.230, 2.811e-5
-1.231, 2.865e-5
-1.232, 2.823e-5
-1.233, 2.887e-5
-1.234, 2.884e-5
-1.235, 2.892e-5
-1.236, 2.945e-5
-1.237, 2.919e-5
-1.238, 2.981e-5
-1.239, 2.981e-5
-1.240, 2.980e-5
-1.241, 3.034e-5
-1.242, 3.018e-5
-1.243, 3.076e-5
-1.244, 3.078e-5
-1.245, 3.115e-5
-1.246, 3.133e-5
-1.247, 3.143e-5
-1.248, 3.187e-5
-1.249, 3.180e-5
-1.250, 3.224e-5
-1.251, 3.270e-5
-1.252, 3.259e-5
-1.253, 3.316e-5
-1.254, 3.315e-5
-1.255, 3.368e-5
-1.256, 3.400e-5
-1.257, 3.398e-5
-1.258, 3.470e-5
-1.259, 3.467e-5
-1.260, 3.487e-5
-1.261, 3.568e-5
-1.262, 3.555e-5
-1.263, 3.627e-5
-1.264, 3.634e-5
-1.265, 3.665e-5
-1.266, 3.731e-5
-1.267, 3.724e-5
-1.268, 3.808e-5
-1.269, 3.814e-5
-1.270, 3.850e-5
-1.271, 3.929e-5
-1.272, 3.913e-5
-1.273, 3.992e-5
-1.274, 4.034e-5
-1.275, 4.060e-5
-1.276, 4.110e-5
-1.277, 4.122e-5
-1.278, 4.209e-5
-1.279, 4.246e-5
-1.280, 4.308e-5
-1.281, 4.369e-5
-1.282, 4.384e-5
-1.283, 4.452e-5
-1.284, 4.502e-5
-1.285, 4.547e-5
-1.286, 4.622e-5
-1.287, 4.637e-5
-1.288, 4.733e-5
-1.289, 4.764e-5
-1.290, 4.832e-5
-1.291, 4.909e-5
-1.292, 4.930e-5
-1.293, 5.027e-5
-1.294, 5.084e-5
-1.295, 5.162e-5
-1.296, 5.225e-5
-1.297, 5.259e-5
-1.298, 5.351e-5
-1.299, 5.412e-5
-1.300, 5.487e-5
-1.301, 5.591e-5
-1.302, 5.615e-5
-1.303, 5.740e-5
-1.304, 5.791e-5
-1.305, 5.857e-5
-1.306, 5.989e-5
-1.307, 6.011e-5
-1.308, 6.142e-5
-1.309, 6.210e-5
-1.310, 6.290e-5
-1.311, 6.416e-5
-1.312, 6.463e-5
-1.313, 6.597e-5
-1.314, 6.670e-5
-1.315, 6.762e-5
-1.316, 6.901e-5
-1.317, 6.946e-5
-1.318, 7.086e-5
-1.319, 7.181e-5
-1.320, 7.273e-5
-1.321, 7.415e-5
-1.322, 7.492e-5
-1.323, 7.636e-5
-1.324, 7.744e-5
-1.325, 7.851e-5
-1.326, 7.996e-5
-1.327, 8.089e-5
-1.328, 8.238e-5
-1.329, 8.348e-5
-1.330, 8.492e-5
-1.331, 8.645e-5
-1.332, 8.761e-5
-1.333, 8.932e-5
-1.334, 9.046e-5
-1.335, 9.193e-5
-1.336, 9.374e-5
-1.337, 9.473e-5
-1.338, 9.682e-5
-1.339, 9.809e-5
-1.340, 9.979e-5
-1.341, 1.016e-4
-1.342, 1.028e-4
-1.343, 1.050e-4
-1.344, 1.064e-4
-1.345, 1.083e-4
-1.346, 1.104e-4
-1.347, 1.117e-4
-1.348, 1.140e-4
-1.349, 1.157e-4
-1.350, 1.176e-4
-1.351, 1.199e-4
-1.352, 1.213e-4
-1.353, 1.237e-4
-1.354, 1.258e-4
-1.355, 1.279e-4
-1.356, 1.303e-4
-1.357, 1.322e-4
-1.358, 1.348e-4
-1.359, 1.372e-4
-1.360, 1.395e-4
-1.361, 1.421e-4
-1.362, 1.441e-4
-1.363, 1.469e-4
-1.364, 1.495e-4
-1.365, 1.522e-4
-1.366, 1.552e-4
-1.367, 1.574e-4
-1.368, 1.606e-4
-1.369, 1.633e-4
-1.370, 1.663e-4
-1.371, 1.693e-4
-1.372, 1.720e-4
-1.373, 1.755e-4
-1.374, 1.784e-4
-1.375, 1.815e-4
-1.376, 1.847e-4
-1.377, 1.876e-4
-1.378, 1.915e-4
-1.379, 1.947e-4
-1.380, 1.984e-4
-1.381, 2.019e-4
-1.382, 2.054e-4
-1.383, 2.096e-4
-1.384, 2.127e-4
-1.385, 2.167e-4
-1.386, 2.207e-4
-1.387, 2.241e-4
-1.388, 2.283e-4
-1.389, 2.324e-4
-1.390, 2.361e-4
-1.391, 2.406e-4
-1.392, 2.442e-4
-1.393, 2.488e-4
-1.394, 2.533e-4
-1.395, 2.578e-4
-1.396, 2.624e-4
-1.397, 2.665e-4
-1.398, 2.715e-4
-1.399, 2.759e-4
-1.400, 2.803e-4
-1.401, 2.851e-4
-1.402, 2.894e-4
-1.403, 2.945e-4
-1.404, 2.994e-4
-1.405, 3.047e-4
-1.406, 3.094e-4
-1.407, 3.142e-4
-1.408, 3.196e-4
-1.409, 3.246e-4
-1.410, 3.300e-4
-1.411, 3.350e-4
-1.412, 3.402e-4
-1.413, 3.460e-4
-1.414, 3.509e-4
-1.415, 3.564e-4
-1.416, 3.619e-4
-1.417, 3.674e-4
-1.418, 3.740e-4
-1.419, 3.797e-4
-1.420, 3.851e-4
-1.421, 3.912e-4
-1.422, 3.960e-4
-1.423, 4.020e-4
-1.424, 4.074e-4
-1.425, 4.131e-4
-1.426, 4.189e-4
-1.427, 4.241e-4
-1.428, 4.303e-4
-1.429, 4.359e-4
-1.430, 4.423e-4
-1.431, 4.486e-4
-1.432, 4.543e-4
-1.433, 4.607e-4
-1.434, 4.674e-4
-1.435, 4.735e-4
-1.436, 4.802e-4
-1.437, 4.861e-4
-1.438, 4.928e-4
-1.439, 4.993e-4
-1.440, 5.059e-4
-1.441, 5.126e-4
-1.442, 5.190e-4
-1.443, 5.257e-4
-1.444, 5.326e-4
-1.445, 5.397e-4
-1.446, 5.472e-4
-1.447, 5.537e-4
-1.448, 5.609e-4
-1.449, 5.674e-4
-1.450, 5.744e-4
-1.451, 5.809e-4
-1.452, 5.876e-4
-1.453, 5.945e-4
-1.454, 6.012e-4
-1.455, 6.091e-4
-1.456, 6.164e-4
-1.457, 6.240e-4
-1.458, 6.307e-4
-1.459, 6.381e-4
-1.460, 6.465e-4
-1.461, 6.529e-4
-1.462, 6.611e-4
-1.463, 6.696e-4
-1.464, 6.763e-4
-1.465, 6.840e-4
-1.466, 6.927e-4
-1.467, 6.997e-4
-1.468, 7.096e-4
-1.469, 7.169e-4
-1.470, 7.259e-4
-1.471, 7.348e-4
-1.472, 7.428e-4
-1.473, 7.514e-4
-1.474, 7.593e-4
-1.475, 7.687e-4
-1.476, 7.770e-4
-1.477, 7.847e-4
-1.478, 7.925e-4
-1.479, 8.008e-4
-1.480, 8.086e-4
-1.481, 8.171e-4
-1.482, 8.270e-4
-1.483, 8.368e-4
-1.484, 8.465e-4
-1.485, 8.555e-4
-1.486, 8.647e-4
-1.487, 8.742e-4
-1.488, 8.830e-4
-1.489, 8.928e-4
-1.490, 9.025e-4
-1.491, 9.124e-4
-1.492, 9.223e-4
-1.493, 9.327e-4
-1.494, 9.420e-4
-1.495, 9.519e-4
-1.496, 9.619e-4
-1.497, 9.725e-4
-1.498, 9.845e-4
-1.499, 9.955e-4
-1.500, 1.007e-3
-1.501, 1.017e-3
-1.502, 1.027e-3
-1.503, 1.037e-3
-1.504, 1.047e-3
-1.505, 1.058e-3
-1.506, 1.068e-3
-1.507, 1.078e-3
-1.508, 1.090e-3
-1.509, 1.101e-3
-1.510, 1.113e-3
-1.511, 1.124e-3
-1.512, 1.135e-3
-1.513, 1.146e-3
-1.514, 1.159e-3
-1.515, 1.172e-3
-1.516, 1.183e-3
-1.517, 1.196e-3
-1.518, 1.207e-3
-1.519, 1.219e-3
-1.520, 1.232e-3
-1.521, 1.246e-3
-1.522, 1.260e-3
-1.523, 1.273e-3
-1.524, 1.286e-3
-1.525, 1.299e-3
-1.526, 1.312e-3
-1.527, 1.327e-3
-1.528, 1.342e-3
-1.529, 1.356e-3
-1.530, 1.368e-3
-1.531, 1.380e-3
-1.532, 1.393e-3
-1.533, 1.406e-3
-1.534, 1.419e-3
-1.535, 1.434e-3
-1.536, 1.448e-3
-1.537, 1.464e-3
-1.538, 1.479e-3
-1.539, 1.493e-3
-1.540, 1.508e-3
-1.541, 1.523e-3
-1.542, 1.538e-3
-1.543, 1.553e-3
-1.544, 1.570e-3
-1.545, 1.586e-3
-1.546, 1.606e-3
-1.547, 1.624e-3
-1.548, 1.641e-3
-1.549, 1.660e-3
-1.550, 1.673e-3
-1.551, 1.688e-3
-1.552, 1.705e-3
-1.553, 1.721e-3
-1.554, 1.740e-3
-1.555, 1.755e-3
-1.556, 1.773e-3
-1.557, 1.789e-3
-1.558, 1.806e-3
-1.559, 1.824e-3
-1.560, 1.842e-3
-1.561, 1.860e-3
-1.562, 1.879e-3
-1.563, 1.900e-3
-1.564, 1.918e-3
-1.565, 1.938e-3
-1.566, 1.957e-3
-1.567, 1.976e-3
-1.568, 1.996e-3
-1.569, 2.017e-3
-1.570, 2.036e-3
-1.571, 2.056e-3
-1.572, 2.077e-3
-1.573, 2.100e-3
-1.574, 2.124e-3
-1.575, 2.147e-3
-1.576, 2.170e-3
-1.577, 2.191e-3
-1.578, 2.212e-3
-1.579, 2.230e-3
-1.580, 2.248e-3
-1.581, 2.269e-3
-1.582, 2.288e-3
-1.583, 2.309e-3
-1.584, 2.333e-3
-1.585, 2.357e-3
-1.586, 2.381e-3
-1.587, 2.405e-3
-1.588, 2.427e-3
-1.589, 2.450e-3
-1.590, 2.476e-3
-1.591, 2.500e-3
-1.592, 2.525e-3
-1.593, 2.551e-3
-1.594, 2.577e-3
-1.595, 2.602e-3
-1.596, 2.630e-3
-1.597, 2.658e-3
-1.598, 2.686e-3
-1.599, 2.710e-3
-1.600, 2.735e-3
-1.601, 2.764e-3
-1.602, 2.797e-3
-1.603, 2.831e-3
-1.604, 2.855e-3
-1.605, 2.881e-3
-1.606, 2.905e-3
-1.607, 2.925e-3
-1.608, 2.951e-3
-1.609, 2.974e-3
-1.610, 3.002e-3
-1.611, 3.032e-3
-1.612, 3.059e-3
-1.613, 3.087e-3
-1.614, 3.114e-3
-1.615, 3.148e-3
-1.616, 3.180e-3
-1.617, 3.211e-3
-1.618, 3.244e-3
-1.619, 3.273e-3
-1.620, 3.305e-3
-1.621, 3.339e-3
-1.622, 3.374e-3
-1.623, 3.409e-3
-1.624, 3.439e-3
-1.625, 3.474e-3
-1.626, 3.503e-3
-1.627, 3.536e-3
-1.628, 3.571e-3
-1.629, 3.607e-3
-1.630, 3.643e-3
-1.631, 3.675e-3
-1.632, 3.706e-3
-1.633, 3.734e-3
-1.634, 3.764e-3
-1.635, 3.796e-3
-1.636, 3.829e-3
-1.637, 3.856e-3
-1.638, 3.897e-3
-1.639, 3.931e-3
-1.640, 3.966e-3
-1.641, 4.001e-3
-1.642, 4.033e-3
-1.643, 4.070e-3
-1.644, 4.116e-3
-1.645, 4.162e-3
-1.646, 4.206e-3
-1.647, 4.245e-3
-1.648, 4.288e-3
-1.649, 4.321e-3
-1.650, 4.357e-3
-1.651, 4.389e-3
-1.652, 4.422e-3
-1.653, 4.465e-3
-1.654, 4.498e-3
-1.655, 4.530e-3
-1.656, 4.566e-3
-1.657, 4.602e-3
-1.658, 4.640e-3
-1.659, 4.681e-3
-1.660, 4.714e-3
-1.661, 4.752e-3
-1.662, 4.798e-3
-1.663, 4.838e-3
-1.664, 4.879e-3
-1.665, 4.922e-3
-1.666, 4.960e-3
-1.667, 5.000e-3
-1.668, 5.047e-3
-1.669, 5.086e-3
-1.670, 5.125e-3
-1.671, 5.165e-3
-1.672, 5.215e-3
-1.673, 5.269e-3
-1.674, 5.324e-3
-1.675, 5.372e-3
-1.676, 5.416e-3
-1.677, 5.452e-3
-1.678, 5.487e-3
-1.679, 5.517e-3
-1.680, 5.554e-3
-1.681, 5.589e-3
-1.682, 5.622e-3
-1.683, 5.661e-3
-1.684, 5.702e-3
-1.685, 5.748e-3
-1.686, 5.789e-3
-1.687, 5.823e-3
-1.688, 5.862e-3
-1.689, 5.913e-3
-1.690, 5.958e-3
-1.691, 6.004e-3
-1.692, 6.053e-3
-1.693, 6.099e-3
-1.694, 6.147e-3
-1.695, 6.198e-3
-1.696, 6.257e-3
-1.697, 6.306e-3
-1.698, 6.349e-3
-1.699, 6.387e-3
-1.700, 6.386e-3
-1.699, 6.360e-3
-1.698, 6.345e-3
-1.697, 6.302e-3
-1.696, 6.245e-3
-1.695, 6.196e-3
-1.694, 6.143e-3
-1.693, 6.086e-3
-1.692, 6.032e-3
-1.691, 5.982e-3
-1.690, 5.946e-3
-1.689, 5.913e-3
-1.688, 5.872e-3
-1.687, 5.821e-3
-1.686, 5.775e-3
-1.685, 5.745e-3
-1.684, 5.702e-3
-1.683, 5.664e-3
-1.682, 5.621e-3
-1.681, 5.561e-3
-1.680, 5.532e-3
-1.679, 5.491e-3
-1.678, 5.469e-3
-1.677, 5.413e-3
-1.676, 5.349e-3
-1.675, 5.315e-3
-1.674, 5.274e-3
-1.673, 5.237e-3
-1.672, 5.194e-3
-1.671, 5.157e-3
-1.670, 5.117e-3
-1.669, 5.073e-3
-1.668, 5.033e-3
-1.667, 5.001e-3
-1.666, 4.966e-3
-1.665, 4.932e-3
-1.664, 4.895e-3
-1.663, 4.856e-3
-1.662, 4.817e-3
-1.661, 4.777e-3
-1.660, 4.732e-3
-1.659, 4.688e-3
-1.658, 4.640e-3
-1.657, 4.593e-3
-1.656, 4.552e-3
-1.655, 4.511e-3
-1.654, 4.466e-3
-1.653, 4.429e-3
-1.652, 4.391e-3
-1.651, 4.358e-3
-1.650, 4.332e-3
-1.649, 4.296e-3
-1.648, 4.250e-3
-1.647, 4.215e-3
-1.646, 4.181e-3
-1.645, 4.148e-3
-1.644, 4.114e-3
-1.643, 4.072e-3
-1.642, 4.034e-3
-1.641, 3.999e-3
-1.640, 3.965e-3
-1.639, 3.931e-3
-1.638, 3.893e-3
-1.637, 3.859e-3
-1.636, 3.829e-3
-1.635, 3.804e-3
-1.634, 3.776e-3
-1.633, 3.747e-3
-1.632, 3.709e-3
-1.631, 3.663e-3
-1.630, 3.623e-3
-1.629, 3.581e-3
-1.628, 3.548e-3
-1.627, 3.510e-3
-1.626, 3.481e-3
-1.625, 3.452e-3
-1.624, 3.424e-3
-1.623, 3.394e-3
-1.622, 3.355e-3
-1.621, 3.323e-3
-1.620, 3.297e-3
-1.619, 3.261e-3
-1.618, 3.230e-3
-1.617, 3.198e-3
-1.616, 3.168e-3
-1.615, 3.141e-3
-1.614, 3.112e-3
-1.613, 3.085e-3
-1.612, 3.055e-3
-1.611, 3.023e-3
-1.610, 2.993e-3
-1.609, 2.963e-3
-1.608, 2.937e-3
-1.607, 2.912e-3
-1.606, 2.887e-3
-1.605, 2.854e-3
-1.604, 2.821e-3
-1.603, 2.791e-3
-1.602, 2.764e-3
-1.601, 2.732e-3
-1.600, 2.699e-3
-1.599, 2.673e-3
-1.598, 2.643e-3
-1.597, 2.614e-3
-1.596, 2.588e-3
-1.595, 2.562e-3
-1.594, 2.539e-3
-1.593, 2.513e-3
-1.592, 2.486e-3
-1.591, 2.459e-3
-1.590, 2.431e-3
-1.589, 2.409e-3
-1.588, 2.384e-3
-1.587, 2.360e-3
-1.586, 2.333e-3
-1.585, 2.306e-3
-1.584, 2.279e-3
-1.583, 2.252e-3
-1.582, 2.228e-3
-1.581, 2.205e-3
-1.580, 2.181e-3
-1.579, 2.159e-3
-1.578, 2.135e-3
-1.577, 2.111e-3
-1.576, 2.084e-3
-1.575, 2.062e-3
-1.574, 2.039e-3
-1.573, 2.015e-3
-1.572, 1.993e-3
-1.571, 1.971e-3
-1.570, 1.951e-3
-1.569, 1.930e-3
-1.568, 1.910e-3
-1.567, 1.888e-3
-1.566, 1.866e-3
-1.565, 1.844e-3
-1.564, 1.826e-3
-1.563, 1.807e-3
-1.562, 1.790e-3
-1.561, 1.771e-3
-1.560, 1.753e-3
-1.559, 1.732e-3
-1.558, 1.709e-3
-1.557, 1.690e-3
-1.556, 1.669e-3
-1.555, 1.645e-3
-1.554, 1.631e-3
-1.553, 1.616e-3
-1.552, 1.597e-3
-1.551, 1.574e-3
-1.550, 1.556e-3
-1.549, 1.541e-3
-1.548, 1.520e-3
-1.547, 1.501e-3
-1.546, 1.483e-3
-1.545, 1.464e-3
-1.544, 1.446e-3
-1.543, 1.429e-3
-1.542, 1.413e-3
-1.541, 1.396e-3
-1.540, 1.379e-3
-1.539, 1.363e-3
-1.538, 1.348e-3
-1.537, 1.333e-3
-1.536, 1.319e-3
-1.535, 1.309e-3
-1.534, 1.289e-3
-1.533, 1.269e-3
-1.532, 1.253e-3
-1.531, 1.236e-3
-1.530, 1.220e-3
-1.529, 1.205e-3
-1.528, 1.190e-3
-1.527, 1.177e-3
-1.526, 1.161e-3
-1.525, 1.143e-3
-1.524, 1.130e-3
-1.523, 1.114e-3
-1.522, 1.100e-3
-1.521, 1.085e-3
-1.520, 1.070e-3
-1.519, 1.056e-3
-1.518, 1.042e-3
-1.517, 1.029e-3
-1.516, 1.016e-3
-1.515, 1.002e-3
-1.514, 9.889e-4
-1.513, 9.748e-4
-1.512, 9.608e-4
-1.511, 9.480e-4
-1.510, 9.349e-4
-1.509, 9.233e-4
-1.508, 9.098e-4
-1.507, 8.968e-4
-1.506, 8.829e-4
-1.505, 8.693e-4
-1.504, 8.569e-4
-1.503, 8.444e-4
-1.502, 8.331e-4
-1.501, 8.217e-4
-1.500, 8.099e-4
-1.499, 7.977e-4
-1.498, 7.849e-4
-1.497, 7.730e-4
-1.496, 7.615e-4
-1.495, 7.486e-4
-1.494, 7.378e-4
-1.493, 7.263e-4
-1.492, 7.157e-4
-1.491, 7.050e-4
-1.490, 6.949e-4
-1.489, 6.849e-4
-1.488, 6.741e-4
-1.487, 6.637e-4
-1.486, 6.529e-4
-1.485, 6.425e-4
-1.484, 6.353e-4
-1.483, 6.244e-4
-1.482, 6.134e-4
-1.481, 6.055e-4
-1.480, 5.929e-4
-1.479, 5.846e-4
-1.478, 5.739e-4
-1.477, 5.641e-4
-1.476, 5.553e-4
-1.475, 5.466e-4
-1.474, 5.374e-4
-1.473, 5.271e-4
-1.472, 5.189e-4
-1.471, 5.089e-4
-1.470, 5.006e-4
-1.469, 4.928e-4
-1.468, 4.829e-4
-1.467, 4.753e-4
-1.466, 4.663e-4
-1.465, 4.584e-4
-1.464, 4.509e-4
-1.463, 4.433e-4
-1.462, 4.360e-4
-1.461, 4.279e-4
-1.460, 4.209e-4
-1.459, 4.135e-4
-1.458, 4.071e-4
-1.457, 3.995e-4
-1.456, 3.913e-4
-1.455, 3.840e-4
-1.454, 3.763e-4
-1.453, 3.689e-4
-1.452, 3.625e-4
-1.451, 3.556e-4
-1.450, 3.487e-4
-1.449, 3.420e-4
-1.448, 3.355e-4
-1.447, 3.291e-4
-1.446, 3.224e-4
-1.445, 3.162e-4
-1.444, 3.101e-4
-1.443, 3.036e-4
-1.442, 2.980e-4
-1.441, 2.920e-4
-1.440, 2.858e-4
-1.439, 2.803e-4
-1.438, 2.743e-4
-1.437, 2.693e-4
-1.436, 2.639e-4
-1.435, 2.582e-4
-1.434, 2.531e-4
-1.433, 2.472e-4
-1.432, 2.423e-4
-1.431, 2.369e-4
-1.430, 2.316e-4
-1.429, 2.271e-4
-1.428, 2.220e-4
-1.427, 2.174e-4
-1.426, 2.128e-4
-1.425, 2.080e-4
-1.424, 2.038e-4
-1.423, 1.990e-4
-1.422, 1.945e-4
-1.421, 1.903e-4
-1.420, 1.857e-4
-1.419, 1.815e-4
-1.418, 1.773e-4
-1.417, 1.732e-4
-1.416, 1.695e-4
-1.415, 1.654e-4
-1.414, 1.618e-4
-1.413, 1.576e-4
-1.412, 1.541e-4
-1.411, 1.504e-4
-1.410, 1.468e-4
-1.409, 1.434e-4
-1.408, 1.399e-4
-1.407, 1.367e-4
-1.406, 1.333e-4
-1.405, 1.299e-4
-1.404, 1.269e-4
-1.403, 1.232e-4
-1.402, 1.204e-4
-1.401, 1.174e-4
-1.400, 1.146e-4
-1.399, 1.120e-4
-1.398, 1.088e-4
-1.397, 1.065e-4
-1.396, 1.035e-4
-1.395, 1.005e-4
-1.394, 9.820e-5
-1.393, 9.527e-5
-1.392, 9.297e-5
-1.391, 9.048e-5
-1.390, 8.776e-5
-1.389, 8.564e-5
-1.388, 8.298e-5
-1.387, 8.074e-5
-1.386, 7.869e-5
-1.385, 7.616e-5
-1.384, 7.441e-5
-1.383, 7.205e-5
-1.382, 7.005e-5
-1.381, 6.812e-5
-1.380, 6.597e-5
-1.379, 6.423e-5
-1.378, 6.204e-5
-1.377, 6.010e-5
-1.376, 5.849e-5
-1.375, 5.670e-5
-1.374, 5.500e-5
-1.373, 5.343e-5
-1.372, 5.169e-5
-1.371, 4.982e-5
-1.370, 4.820e-5
-1.369, 4.679e-5
-1.368, 4.510e-5
-1.367, 4.373e-5
-1.366, 4.205e-5
-1.365, 4.063e-5
-1.364, 3.936e-5
-1.363, 3.768e-5
-1.362, 3.646e-5
-1.361, 3.508e-5
-1.360, 3.370e-5
-1.359, 3.259e-5
-1.358, 3.113e-5
-1.357, 2.992e-5
-1.356, 2.873e-5
-1.355, 2.728e-5
-1.354, 2.649e-5
-1.353, 2.485e-5
-1.352, 2.402e-5
-1.351, 2.305e-5
-1.350, 2.172e-5
-1.349, 2.104e-5
-1.348, 1.968e-5
-1.347, 1.872e-5
-1.346, 1.794e-5
-1.345, 1.668e-5
-1.344, 1.599e-5
-1.343, 1.481e-5
-1.342, 1.389e-5
-1.341, 1.313e-5
-1.340, 1.202e-5
-1.339, 1.146e-5
-1.338, 1.041e-5
-1.337, 9.677e-6
-1.336, 9.055e-6
-1.335, 8.206e-6
-1.334, 7.437e-6
-1.333, 6.806e-6
-1.332, 5.957e-6
-1.331, 5.089e-6
-1.330, 4.428e-6
-1.329, 3.846e-6
-1.328, 3.086e-6
-1.327, 2.484e-6
-1.326, 1.774e-6
-1.325, 1.123e-6
-1.324, 6.886e-7
-1.323, -1.697e-7
-1.322, -4.262e-7
-1.321, -9.984e-7
-1.320, -1.738e-6
-1.319, -2.153e-6
-1.318, -2.962e-6
-1.317, -3.238e-6
-1.316, -3.623e-6
-1.315, -4.521e-6
-1.314, -4.738e-6
-1.313, -5.487e-6
-1.312, -5.764e-6
-1.311, -6.198e-6
-1.310, -7.036e-6
-1.309, -7.105e-6
-1.308, -7.895e-6
-1.307, -8.240e-6
-1.306, -8.516e-6
-1.305, -9.345e-6
-1.304, -9.266e-6
-1.303, -9.907e-6
-1.302, -1.022e-5
-1.301, -1.062e-5
-1.300, -1.109e-5
-1.299, -1.145e-5
-1.298, -1.205e-5
-1.297, -1.228e-5
-1.296, -1.237e-5
-1.295, -1.302e-5
-1.294, -1.316e-5
-1.293, -1.373e-5
-1.292, -1.396e-5
-1.291, -1.423e-5
-1.290, -1.458e-5
-1.289, -1.486e-5
-1.288, -1.528e-5
-1.287, -1.531e-5
-1.286, -1.583e-5
-1.285, -1.607e-5
-1.284, -1.619e-5
-1.283, -1.675e-5
-1.282, -1.671e-5
-1.281, -1.709e-5
-1.280, -1.770e-5
-1.279, -1.759e-5
-1.278, -1.826e-5
-1.277, -1.829e-5
-1.276, -1.840e-5
-1.275, -1.883e-5
-1.274, -1.875e-5
-1.273, -1.939e-5
-1.272, -1.938e-5
-1.271, -1.975e-5
-1.270, -2.001e-5
-1.269, -2.003e-5
-1.268, -2.048e-5
-1.267, -2.079e-5
-1.266, -2.071e-5
-1.265, -2.114e-5
-1.264, -2.109e-5
-1.263, -2.142e-5
-1.262, -2.165e-5
-1.261, -2.171e-5
-1.260, -2.209e-5
-1.259, -2.217e-5
-1.258, -2.246e-5
-1.257, -2.250e-5
-1.256, -2.258e-5
-1.255, -2.312e-5
-1.254, -2.312e-5
-1.253, -2.342e-5
-1.252, -2.337e-5
-1.251, -2.377e-5
-1.250, -2.379e-5
-1.249, -2.379e-5
-1.248, -2.426e-5
-1.247, -2.415e-5
-1.246, -2.441e-5
-1.245, -2.463e-5
-1.244, -2.459e-5
-1.243, -2.507e-5
-1.242, -2.492e-5
-1.241, -2.515e-5
-1.240, -2.543e-5
-1.239, -2.515e-5
-1.238, -2.563e-5
-1.237, -2.549e-5
-1.236, -2.564e-5
-1.235, -2.605e-5
-1.234, -2.596e-5
-1.233, -2.638e-5
-1.232, -2.628e-5
-1.231, -2.629e-5
-1.230, -2.668e-5
-1.229, -2.684e-5
-1.228, -2.702e-5
-1.227, -2.705e-5
-1.226, -2.704e-5
-1.225, -2.730e-5
-1.224, -2.702e-5
-1.223, -2.752e-5
-1.222, -2.748e-5
-1.221, -2.750e-5
-1.220, -2.781e-5
-1.219, -2.770e-5
-1.218, -2.813e-5
-1.217, -2.803e-5
-1.216, -2.798e-5
-1.215, -2.832e-5
-1.214, -2.824e-5
-1.213, -2.841e-5
-1.212, -2.841e-5
-1.211, -2.843e-5
-1.210, -2.861e-5
-1.209, -2.874e-5
-1.208, -2.891e-5
-1.207, -2.881e-5
-1.206, -2.906e-5
-1.205, -2.906e-5
-1.204, -2.905e-5
-1.203, -2.953e-5
-1.202, -2.924e-5
-1.201, -2.932e-5
-1.200, -2.948e-5
-1.199, -2.935e-5
-1.198, -2.972e-5
-1.197, -2.967e-5
-1.196, -2.963e-5
-1.195, -2.996e-5
-1.194, -2.970e-5
-1.193, -3.013e-5
-1.192, -2.985e-5
-1.191, -2.991e-5
-1.190, -3.038e-5
-1.189, -3.002e-5
-1.188, -3.024e-5
-1.187, -3.040e-5
-1.186, -3.025e-5
-1.185, -3.073e-5
-1.184, -3.055e-5
-1.183, -3.086e-5
-1.182, -3.086e-5
-1.181, -3.059e-5
-1.180, -3.104e-5
-1.179, -3.092e-5
-1.178, -3.115e-5
-1.177, -3.117e-5
-1.176, -3.111e-5
-1.175, -3.134e-5
-1.174, -3.128e-5
-1.173, -3.137e-5
-1.172, -3.132e-5
-1.171, -3.152e-5
-1.170, -3.164e-5
-1.169, -3.155e-5
-1.168, -3.169e-5
-1.167, -3.169e-5
-1.166, -3.173e-5
-1.165, -3.193e-5
-1.164, -3.183e-5
-1.163, -3.221e-5
-1.162, -3.215e-5
-1.161, -3.203e-5
-1.160, -3.237e-5
-1.159, -3.216e-5
-1.158, -3.253e-5
-1.157, -3.232e-5
-1.156, -3.237e-5
-1.155, -3.276e-5
-1.154, -3.237e-5
-1.153, -3.286e-5
-1.152, -3.269e-5
-1.151, -3.278e-5
-1.150, -3.301e-5
-1.149, -3.271e-5
-1.148, -3.296e-5
-1.147, -3.309e-5
-1.146, -3.297e-5
-1.145, -3.326e-5
-1.144, -3.298e-5
-1.143, -3.356e-5
-1.142, -3.344e-5
-1.141, -3.340e-5
-1.140, -3.348e-5
-1.139, -3.352e-5
-1.138, -3.372e-5
-1.137, -3.372e-5
-1.136, -3.364e-5
-1.135, -3.415e-5
-1.134, -3.391e-5
-1.133, -3.421e-5
-1.132, -3.412e-5
-1.131, -3.488e-5
-1.130, -3.516e-5
-1.129, -3.519e-5
-1.128, -3.584e-5
-1.127, -3.540e-5
-1.126, -3.580e-5
-1.125, -3.595e-5
-1.124, -3.565e-5
-1.123, -3.621e-5
-1.122, -3.585e-5
-1.121, -3.605e-5
-1.120, -3.644e-5
-1.119, -3.613e-5
-1.118, -3.658e-5
-1.117, -3.643e-5
-1.116, -3.652e-5
-1.115, -3.679e-5
-1.114, -3.657e-5
-1.113, -3.704e-5
-1.112, -3.681e-5
-1.111, -3.684e-5
-1.110, -3.728e-5
-1.109, -3.699e-5
-1.108, -3.740e-5
-1.107, -3.735e-5
-1.106, -3.732e-5
-1.105, -3.786e-5
-1.104, -3.744e-5
-1.103, -3.781e-5
-1.102, -3.785e-5
-1.101, -3.772e-5
-1.100, -3.821e-5
-1.099, -3.812e-5
-1.098, -3.827e-5
-1.097, -3.830e-5
-1.096, -3.830e-5
-1.095, -3.866e-5
-1.094, -3.855e-5
-1.093, -3.886e-5
-1.092, -3.896e-5
-1.091, -3.896e-5
-1.090, -3.927e-5
-1.089, -3.921e-5
-1.088, -3.949e-5
-1.087, -3.954e-5
-1.086, -3.955e-5
-1.085, -3.986e-5
-1.084, -3.974e-5
-1.083, -4.016e-5
-1.082, -4.015e-5
-1.081, -4.022e-5
-1.080, -4.043e-5
-1.079, -4.033e-5
-1.078, -4.084e-5
-1.077, -4.064e-5
-1.076, -4.091e-5
-1.075, -4.142e-5
-1.074, -4.104e-5
-1.073, -4.157e-5
-1.072, -4.136e-5
-1.071, -4.146e-5
-1.070, -4.204e-5
-1.069, -4.182e-5
-1.068, -4.210e-5
-1.067, -4.223e-5
-1.066, -4.216e-5
-1.065, -4.273e-5
-1.064, -4.257e-5
-1.063, -4.305e-5
-1.062, -4.321e-5
-1.061, -4.317e-5
-1.060, -4.344e-5
-1.059, -4.349e-5
-1.058, -4.390e-5
-1.057, -4.399e-5
-1.056, -4.391e-5
-1.055, -4.431e-5
-1.054, -4.425e-5
-1.053, -4.478e-5
-1.052, -4.495e-5
-1.051, -4.492e-5
-1.050, -4.534e-5
-1.049, -4.518e-5
-1.048, -4.571e-5
-1.047, -4.558e-5
-1.046, -4.594e-5
-1.045, -4.622e-5
-1.044, -4.615e-5
-1.043, -4.689e-5
-1.042, -4.671e-5
-1.041, -4.695e-5
-1.040, -4.729e-5
-1.039, -4.725e-5
-1.038, -4.784e-5
-1.037, -4.798e-5
-1.036, -4.805e-5
-1.035, -4.858e-5
-1.034, -4.839e-5
-1.033, -4.913e-5
-1.032, -4.906e-5
-1.031, -4.927e-5
-1.030, -4.982e-5
-1.029, -4.966e-5
-1.028, -5.026e-5
-1.027, -5.039e-5
-1.026, -5.046e-5
-1.025, -5.106e-5
-1.024, -5.102e-5
-1.023, -5.160e-5
-1.022, -5.174e-5
-1.021, -5.168e-5
-1.020, -5.223e-5
-1.019, -5.204e-5
-1.018, -5.260e-5
-1.017, -5.282e-5
-1.016, -5.301e-5
-1.015, -5.327e-5
-1.014, -5.351e-5
-1.013, -5.382e-5
-1.012, -5.404e-5
-1.011, -5.411e-5
-1.010, -5.454e-5
-1.009, -5.454e-5
-1.008, -5.492e-5
-1.007, -5.498e-5
-1.006, -5.531e-5
-1.005, -5.567e-5
-1.004, -5.555e-5
-1.003, -5.607e-5
-1.002, -5.603e-5
-1.001, -5.631e-5
