Potential V vs RHE, Current mA cm-2
0.013299999999999867,0.17231183632356148
0.012299999999999978,-2.052746096104168
0.011299999999999866,-4.146518819904423
0.010299999999999976,-6.108723392817228
0.009299999999999864,-7.984630576438266
0.008299999999999974,-9.685113558876042
0.007299999999999862,-11.343155202317865
0.006299999999999972,-12.869628694872238
0.00529999999999986,-14.30273124163552
0.0042999999999999705,-15.70329542850191
0.0032999999999998586,-17.061418276372343
0.0022999999999999687,-18.320511333252224
0.0012999999999998568,-19.579604390132108
0.00029999999999996696,-20.76796188201874
-0.000700000000000145,-21.94217226090672
-0.0017000000000000348,-23.073941300798747
-0.0027000000000001467,-24.120827662698876
-0.0037000000000000366,-25.12527268560305
-0.0047000000000001485,-26.087276369511276
-0.005700000000000038,-26.9643973754276
-0.00670000000000015,-27.827371268345274
-0.00770000000000004,-28.577168257273744
-0.008700000000000152,-29.39770081119546
-0.009700000000000042,-30.10505646112798
-0.010700000000000154,-30.88314767605375
-0.011700000000000044,-31.57635621298762
-0.012700000000000156,-32.283711862920136
-0.013700000000000045,-32.93447906085806
-0.014700000000000157,-33.58524625879597
-0.015700000000000047,-34.193572117737936
-0.01670000000000016,-34.85848642867451
-0.01770000000000005,-35.38192960962457
-0.01870000000000016,-35.90537279057463
-0.01970000000000005,-36.37222751953009
-0.020700000000000163,-36.81078802248826
-0.021700000000000053,-37.249348525446415
-0.022700000000000164,-37.73035036740053
-0.023700000000000054,-38.12646953136274
-0.024700000000000166,-38.5650300343209
-0.025700000000000056,-38.98944342428042
-0.026700000000000168,-39.38556258824262
-0.027700000000000058,-39.82412309120078
-0.02870000000000017,-40.177800916167044
-0.02970000000000006,-40.616361419125205
-0.03070000000000017,-40.95589213109281
-0.03170000000000006,-41.267128617063115
-0.03270000000000017,-41.56421799003478
-0.03370000000000006,-41.87545447600508
-0.034700000000000175,-42.130102509980794
-0.035700000000000065,-42.4413389959511
-0.03670000000000018,-42.71013414292546
-0.03770000000000007,-43.007223515897124
-0.03870000000000018,-43.36090134086337
-0.03970000000000007,-43.657990713835034
-0.04070000000000018,-43.92678586080939
-0.04170000000000007,-44.28046368577565
-0.04270000000000018,-44.535111719751356
-0.04370000000000007,-44.80390686672572
-0.044700000000000184,-45.05855490070142
-0.045700000000000074,-45.22832025668522
-0.046700000000000186,-45.45467406466363
-0.047700000000000076,-45.624439420647434
-0.04870000000000019,-45.85079322862584
-0.04970000000000008,-46.02055858460964
-0.05070000000000019,-46.19032394059345
-0.05170000000000008,-46.45911908756781
-0.05270000000000019,-46.67132578254756
-0.05370000000000008,-46.94012092952192
-0.05470000000000019,-47.15232762450167
-0.05570000000000008,-47.40697565847737
-0.056700000000000195,-47.633329466455784
-0.057700000000000085,-47.80309482243959
-0.058700000000000196,-47.987007291422046
-0.059700000000000086,-48.156772647405845
-0.0607000000000002,-48.32653800338966
-0.06170000000000009,-48.51045047237211
-0.0627000000000002,-48.68021582835591
-0.06370000000000009,-48.80753984534376
-0.0647000000000002,-49.03389365332217
-0.06570000000000009,-49.24610034830193
-0.0667000000000002,-49.41586570428573
-0.0677000000000001,-49.642219512264134
-0.0687000000000002,-49.85442620724389
-0.0697000000000001,-49.98175022423175
-0.07070000000000021,-50.20810403221015
-0.0717000000000001,-50.37786938819396
-0.07270000000000021,-50.50519340518181
-0.0737000000000001,-50.64666453516831
-0.07470000000000021,-50.73154721316022
-0.0757000000000001,-50.943753908139975
-0.07670000000000021,-51.071077925127824
-0.0777000000000001,-51.29743173310623
-0.07870000000000021,-51.46719708909004
-0.0797000000000001,-51.69355089706845
-0.08070000000000022,-51.90575759204819
-0.0817000000000001,-52.11796428702795
-0.08270000000000022,-52.30187675601041
-0.08370000000000011,-52.514083450990164
-0.08470000000000022,-52.69799591997262
-0.08570000000000011,-52.82531993696047
-0.08670000000000022,-52.995085292944275
-0.08770000000000011,-53.12240930993213
-0.08870000000000022,-53.26388043991864
-0.08970000000000011,-53.433645795902436
-0.09070000000000022,-53.56096981289029
-0.09170000000000011,-53.74488228187274
-0.09270000000000023,-53.91464763785655
-0.09370000000000012,-54.1268543328363
-0.09470000000000023,-54.35320814081471
-0.09570000000000012,-54.52297349679851
-0.09670000000000023,-54.73518019177827
-0.09770000000000012,-54.919092660760725
-0.09870000000000023,-55.046416677748574
-0.09970000000000012,-55.17374069473642
-0.10070000000000023,-55.357653163718886
-0.10170000000000012,-55.442535841710786
-0.10270000000000024,-55.56985985869864
-0.10370000000000013,-55.6971838756865
-0.10470000000000024,-55.881096344668954
-0.10570000000000013,-56.008420361656796
-0.10670000000000024,-56.1781857176406
-0.10770000000000013,-56.404539525619015
-0.10870000000000024,-56.57430488160282
-0.10970000000000013,-56.786511576582576
-0.11070000000000024,-56.97042404556503
-0.11170000000000013,-57.097748062552874
-0.11270000000000002,-57.26751341853669
-0.11370000000000013,-57.493867226515086
-0.11470000000000002,-57.66363258249889
-0.11570000000000014,-57.8333979384827
-0.11670000000000003,-58.05975174646111
-0.11770000000000014,-58.22951710244491
-0.11870000000000003,-58.45587091042332
-0.11970000000000014,-58.66807760540307
-0.12070000000000003,-58.83784296138688
-0.12170000000000014,-59.06419676936528
-0.12270000000000003,-59.23396212534908
-0.12370000000000014,-59.44616882032884
-0.12470000000000003,-59.587639950315335
-0.12570000000000014,-59.757405306299155
-0.12670000000000003,-59.92717066228296
-0.12770000000000015,-60.06864179226946
-0.12870000000000004,-60.28084848724921
-0.12970000000000015,-60.45061384323302
-0.13070000000000004,-60.63452631221547
-0.13170000000000015,-60.889174346191176
-0.13270000000000004,-61.11552815416958
-0.13370000000000015,-61.37017618814529
-0.13470000000000004,-61.5965299961237
-0.13570000000000015,-61.80873669110345
-0.13670000000000004,-62.02094338608321
-0.13770000000000016,-62.20485585506566
-0.13870000000000005,-62.41706255004542
-0.13970000000000016,-62.58682790602922
-0.14070000000000005,-62.77074037501168
-0.14170000000000016,-62.89806439199953
-0.14270000000000005,-63.06782974798333
-0.14370000000000016,-63.251742216965795
-0.14470000000000005,-63.46394891194555
-0.14570000000000016,-63.6761556069253
-0.14670000000000005,-63.902509414903705
-0.14770000000000016,-64.15715744887942
-0.14870000000000005,-64.38351125685783
-0.14970000000000017,-64.59571795183757
-0.15070000000000006,-64.82207175981598
-0.15170000000000017,-65.03427845479574
-0.15270000000000006,-65.20404381077954
-0.15370000000000017,-65.38795627976201
-0.15470000000000006,-65.5577216357458
-0.15570000000000017,-65.7274869917296
-0.15670000000000006,-65.91139946071206
-0.15770000000000017,-66.12360615569182
-0.15870000000000006,-66.34995996367022
-0.15970000000000018,-66.60460799764593
-0.16070000000000007,-66.87340314462028
-0.16170000000000018,-67.128051178596
-0.16270000000000007,-67.39684632557035
-0.16370000000000018,-67.6090530205501
-0.16470000000000007,-67.86370105452582
-0.16570000000000018,-68.04761352350828
-0.16670000000000007,-68.25982021848802
-0.16770000000000018,-68.44373268747047
-0.16870000000000007,-68.61349804345427
-0.16970000000000018,-68.82570473843404
-0.17070000000000007,-69.05205854641244
-0.17170000000000019,-69.26426524139221
-0.17270000000000008,-69.4906190493706
-0.1737000000000002,-69.74526708334632
-0.17470000000000008,-70.01406223032066
-0.1757000000000002,-70.26871026429637
-0.17670000000000008,-70.53750541127073
-0.1777000000000002,-70.70727076725453
-0.17870000000000008,-70.96191880123024
-0.1797000000000002,-71.1458312702127
-0.18070000000000008,-71.31559662619651
-0.1817000000000002,-71.48536198218031
-0.18270000000000008,-71.7117157901587
-0.1837000000000002,-71.83903980714656
-0.1847000000000001,-72.10783495412092
-0.1857000000000002,-72.27760031010472
-0.1867000000000001,-72.48980700508447
-0.1877000000000002,-72.71616081306288
-0.1887000000000001,-72.92836750804264
-0.1897000000000002,-73.15472131602105
-0.1907000000000001,-73.3669280110008
-0.1917000000000001,-73.53669336698461
-0.19269999999999998,-73.72060583596706
-0.1937000000000001,-73.8479298529549
-0.19469999999999998,-73.97525386994278
-0.1957000000000001,-74.14501922592657
-0.19669999999999999,-74.32893169490903
-0.1977000000000001,-74.54113838988879
-0.1987,-74.76749219786718
-0.1997000000000001,-75.02214023184291
-0.2007,-75.29093537881725
-0.2017000000000001,-75.54558341279296
-0.2027,-75.77193722077136
-0.2037000000000001,-75.98414391575112
-0.2047,-76.15390927173492
-0.2057000000000001,-76.33782174071737
-0.2067,-76.46514575770523
-0.2077000000000001,-76.63491111368903
-0.2087,-76.7622351306769
-0.2097000000000001,-76.94614759965934
-0.2107,-77.11591295564315
-0.2117000000000001,-77.28567831162695
-0.2127,-77.51203211960537
-0.2137000000000001,-77.76668015358106
-0.2147,-78.03547530055542
-0.2157000000000001,-78.29012333453113
-0.2167,-78.51647714250953
-0.21770000000000012,-78.77112517648524
-0.2187,-78.99747898446365
-0.21970000000000012,-79.16724434044745
-0.2207,-79.37945103542721
-0.22170000000000012,-79.56336350440966
-0.2227,-79.73312886039348
-0.22370000000000012,-79.90289421637728
-0.2247,-80.12924802435568
-0.22570000000000012,-80.29901338033947
-0.2267,-80.52536718831789
-0.22770000000000012,-80.73757388329766
-0.22870000000000001,-80.90733923928146
-0.22970000000000013,-81.13369304725985
-0.23070000000000002,-81.30345840324367
-0.23170000000000013,-81.51566509822342
-0.23270000000000002,-81.69957756720586
-0.23370000000000013,-81.86934292318966
-0.23470000000000002,-82.09569673116808
-0.23570000000000013,-82.30790342614785
-0.23670000000000002,-82.61913991211814
-0.2376999999999999,-82.8313466070979
-0.23870000000000002,-83.08599464107361
-0.2396999999999999,-83.31234844905201
-0.24070000000000003,-83.56699648302772
-0.24169999999999991,-83.83579163000208
-0.24270000000000003,-84.04799832498183
-0.24369999999999992,-84.27435213296022
-0.24470000000000003,-84.48655882793999
-0.24569999999999992,-84.6563241839238
-0.24670000000000003,-84.8826779919022
-0.24769999999999992,-85.052443347886
-0.24870000000000003,-85.27879715586442
-0.24969999999999992,-85.49100385084417
-0.25070000000000003,-85.70321054582392
-0.2516999999999999,-85.92956435380233
-0.25270000000000004,-86.18421238777805
-0.2536999999999999,-86.45300753475239
-0.25470000000000004,-86.7076555687281
-0.2556999999999999,-86.93400937670651
-0.25670000000000004,-87.18865741068221
-0.25769999999999993,-87.41501121866061
-0.25870000000000004,-87.62721791364037
-0.25969999999999993,-87.89601306061473
-0.26070000000000004,-88.15066109459043
-0.26169999999999993,-88.32042645057423
-0.26270000000000004,-88.54678025855264
-0.26369999999999993,-88.71654561453644
-0.26470000000000005,-89.02778210050676
-0.26569999999999994,-89.23998879548651
-0.26670000000000005,-89.55122528145681
-0.26769999999999994,-89.84831465442848
-0.26870000000000005,-90.11710980140283
-0.26969999999999994,-90.41419917437449
-0.27070000000000005,-90.7254356603448
-0.27169999999999994,-90.93764235532454
-0.27270000000000005,-91.24887884129487
-0.27369999999999994,-91.56011532726518
-0.27470000000000006,-91.81476336124088
-0.27569999999999995,-92.08355850821525
-0.27670000000000006,-92.33820654219093
-0.27769999999999995,-92.6070016891653
-0.27870000000000006,-92.90409106213696
-0.27969999999999995,-93.21532754810727
-0.28070000000000006,-93.51241692107894
-0.28169999999999995,-93.82365340704924
-0.28270000000000006,-94.13488989301955
-0.28369999999999995,-94.38953792699526
-0.28470000000000006,-94.601744621975
-0.28569999999999995,-94.8280984299534
-0.28670000000000007,-95.08274646392913
-0.28769999999999996,-95.30910027190752
-0.28870000000000007,-95.56374830588322
-0.28969999999999996,-95.87498479185354
-0.29070000000000007,-96.0871914868333
-0.29169999999999996,-96.44086931179956
-0.29270000000000007,-96.73795868477121
-0.29369999999999996,-97.09163650973747
-0.2947000000000001,-97.44531433470372
-0.29569999999999996,-97.69996236867944
-0.2967000000000001,-98.05364019364569
-0.29769999999999996,-98.3082882276214
-0.2987000000000001,-98.57708337459576
-0.29969999999999997,-98.7892900695755
-0.3007000000000001,-99.01564387755391
-0.30169999999999997,-99.22785057253368
-0.3027000000000001,-99.45420438051207
-0.30369999999999997,-99.66641107549184
-0.3047000000000001,-99.83617643147564
-0.30569999999999997,-100.10497157844999
-0.3067000000000001,-100.31717827342976
-0.3077,-100.58597342040412
-0.3087000000000001,-100.88306279337576
-0.3097,-101.15185794035013
-0.3107000000000001,-101.3640646353299
-0.3117,-101.59041844330828
-0.3127000000000001,-101.80262513828804
-0.3137,-102.02897894626645
-0.3147000000000001,-102.24118564124619
-0.3157,-102.45339233622596
-0.3167000000000001,-102.63730480520842
-0.3177,-102.84951150018817
-0.3187000000000001,-103.11830664716253
-0.3197,-103.33051334214227
-0.3207000000000001,-103.59930848911664
-0.3217,-103.85395652309235
-0.3227000000000001,-104.06616321807209
-0.3237,-104.2925170260505
-0.3247000000000001,-104.50472372103027
-0.3257,-104.68863619001272
-0.3267000000000001,-104.85840154599651
-0.3277,-105.02816690198033
-0.3287000000000001,-105.21207937096277
-0.3297,-105.38184472694657
-0.3307000000000001,-105.5516100829304
-0.3317,-105.73552255191284
-0.3327000000000001,-105.99017058588855
-0.3337,-106.21652439386696
-0.3347000000000001,-106.4287310888467
-0.3357,-106.64093778382647
-0.3367000000000001,-106.86729159180487
-0.3377,-107.03705694778867
-0.3387000000000001,-107.26341075576708
-0.3397,-107.4331761117509
-0.3407000000000001,-107.6029414677347
-0.3417,-107.78685393671715
-0.3427000000000001,-107.99906063169689
-0.3437,-108.21126732667666
-0.3447000000000001,-108.43762113465506
-0.3457,-108.69226916863077
-0.3467000000000001,-108.96106431560513
-0.3477,-109.25815368857677
-0.3487000000000001,-109.52694883555114
-0.3497,-109.78159686952685
-0.3507000000000001,-110.1352746944931
-0.3517,-110.34748138947285
-0.3527000000000001,-110.57383519745127
-0.3537,-110.82848323142699
-0.3547000000000001,-111.05483703940537
-0.3557,-111.3094850733811
-0.35670000000000013,-111.57828022035544
-0.3577,-111.8753695933271
-0.35870000000000013,-112.18660607929739
-0.3597,-112.54028390426367
-0.36070000000000013,-112.87981461623129
-0.3617,-113.27593378019348
-0.3626999999999999,-113.71449428315165
-0.3637,-114.1530547861098
-0.3646999999999999,-114.53502683707337
-0.3657,-115.01602867902749
-0.3666999999999999,-115.4970305209816
-0.3677,-115.97803236293572
-0.3686999999999999,-116.45903420488982
-0.36970000000000003,-116.94003604684394
-0.3706999999999999,-117.46347922779398
-0.37170000000000003,-117.98692240874406
-0.3726999999999999,-118.51036558969413
-0.37370000000000003,-119.07625010964013
-0.3746999999999999,-119.72701730757805
-0.37570000000000003,-120.33534316652002
-0.3766999999999999,-121.0851401554485
-0.37770000000000004,-121.82079003137831
-0.3786999999999999,-122.57058702030677
-0.37970000000000004,-123.34867823523254
-0.3806999999999999,-124.18335790215292
-0.38170000000000004,-125.00389045607463
-0.38269999999999993,-125.92345280098691
-0.38370000000000004,-126.80057380690324
-0.38469999999999993,-127.80501882980741
-0.38570000000000004,-128.752875400717
-0.38669999999999993,-128.18699088077096
-0.38570000000000004,-124.7916837610949
-0.38469999999999993,-121.73590735338641
-0.38370000000000004,-118.94892609265229
-0.38269999999999993,-116.28926884890602
-0.38170000000000004,-113.88425963913545
-0.3806999999999999,-111.57828022035544
-0.37970000000000004,-109.4845074965552
-0.3786999999999999,-107.4331761117509
-0.37770000000000004,-105.59405142192634
-0.3766999999999999,-103.85395652309235
-0.37570000000000003,-102.28362698024215
-0.3746999999999999,-100.75573877638791
-0.37370000000000003,-99.31273325052557
-0.3726999999999999,-97.96875751565379
-0.37170000000000003,-96.69551734577524
-0.3706999999999999,-95.43642428889537
-0.36970000000000003,-94.26221391000739
-0.3686999999999999,-93.08800353111941
-0.3677,-91.98452871722468
-0.3666999999999999,-90.89520101632861
-0.3657,-89.80587331543254
-0.3646999999999999,-88.7589869535324
-0.3637,-87.75454193062824
-0.3626999999999999,-86.84912669871461
-0.3617,-85.92956435380233
-0.36070000000000013,-85.052443347886
-0.3597,-84.18946945496833
-0.35870000000000013,-83.35478978804795
-0.3577,-82.52011012112759
-0.35670000000000013,-81.74201890620182
-0.3557,-80.90733923928146
-0.3547000000000001,-80.12924802435568
-0.3537,-79.2945683574353
-0.3527000000000001,-78.47403580351359
-0.3517,-77.63935613659322
-0.3507000000000001,-76.86126492166746
-0.3497,-76.06902659374302
-0.3487000000000001,-75.29093537881725
-0.3477,-74.49869705089283
-0.3467000000000001,-73.72060583596706
-0.3457,-72.97080884703858
-0.3447000000000001,-72.27760031010472
-0.3437,-71.52780332117625
-0.3427000000000001,-70.79215344524643
-0.3417,-70.05650356931662
-0.3407000000000001,-69.26426524139221
-0.3397,-68.52861536546239
-0.3387000000000001,-67.73637703753796
-0.3377,-66.9582858226122
-0.3367000000000001,-66.16604749468777
-0.3357,-65.43039761875795
-0.3347000000000001,-64.63815929083353
-0.3337,-63.902509414903705
-0.3327000000000001,-63.11027108697928
-0.3317,-62.37462121104946
-0.3307000000000001,-61.63897133511965
-0.3297,-60.889174346191176
-0.3287000000000001,-60.06864179226946
-0.3277,-59.27640346434504
-0.3267000000000001,-58.498312249419264
-0.3257,-57.66363258249889
-0.3247000000000001,-56.82895291557852
-0.3237,-56.05086170065276
-0.3227000000000001,-55.21618203373238
-0.3217,-54.43809081880661
-0.3207000000000001,-53.64585249088219
-0.3197,-52.86776127595642
-0.3187000000000001,-52.075522948032
-0.3177,-51.29743173310623
-0.3167000000000001,-50.50519340518181
-0.3157,-49.68466085126009
-0.3147000000000001,-48.80753984534376
-0.3137,-47.93041883942744
-0.3127000000000001,-47.10988628550572
-0.3117,-46.2327652795894
-0.3107000000000001,-45.36979138667173
-0.3097,-44.4926703807554
-0.3087000000000001,-43.657990713835034
-0.3077,-42.79501682091736
-0.3067000000000001,-42.00277849299294
-0.30569999999999997,-41.139804600075266
-0.3047000000000001,-40.34756627215084
-0.30369999999999997,-39.51288660523048
-0.3027000000000001,-38.692354051308754
-0.30169999999999997,-37.85767438438838
-0.3007000000000001,-36.95225915247476
-0.29969999999999997,-36.07513814655844
-0.2987000000000001,-35.15557580164616
-0.29769999999999996,-34.278454795729836
-0.2967000000000001,-33.373039563816214
-0.29569999999999996,-32.49591855789989
-0.2947000000000001,-31.618797551983565
-0.29369999999999996,-30.7558236590659
-0.29270000000000007,-29.921143992145527
-0.29169999999999996,-29.100611438223805
-0.29070000000000007,-28.22349043230748
-0.28969999999999996,-27.38881076538711
-0.28870000000000007,-26.483395533473487
-0.28769999999999996,-25.60627452755716
-0.28670000000000007,-24.686712182644893
-0.28569999999999995,-23.823738289727217
-0.28470000000000006,-22.904175944814945
-0.28369999999999995,-21.98461359990267
-0.28270000000000006,-21.107492593986347
-0.28169999999999995,-20.244518701068674
-0.28070000000000006,-19.409839034148305
-0.27969999999999995,-18.53271802823198
-0.27870000000000006,-17.71218547431026
-0.27769999999999995,-16.877505807389888
-0.27670000000000006,-16.056973253468165
-0.27569999999999995,-15.179852247551842
-0.27470000000000006,-14.345172580631472
-0.27369999999999994,-13.47936926511407
-0.27270000000000005,-12.56405105410139
-0.27169999999999994,-11.691174182084664
-0.27070000000000005,-10.775855971071984
-0.26969999999999994,-9.946835149351072
-0.26870000000000005,-9.161670377925978
-0.26769999999999994,-8.288793505909249
-0.26670000000000005,-7.461187395488204
-0.26569999999999994,-6.6760226240631075
-0.26470000000000005,-5.890857852638012
