Mar. 14, 2025   16:33:43
Cyclic Voltammetry
File: c:/users/guazh/data/banditlqround7_x0exp891_r5/2025-03-03-exp894\exp894-2025-03-14t16_26_15-arkoh\exp894_cv_sr_500mvs_efin_-1400mv.bin
Data Source:  Experiment
Instrument Model:  CHI760E
Header: CV ran at 500 mVs
Note: 

Init E (V) = -1
High E (V) = -1
Low E (V) = -1.4
Final E (V) = -1
Init P/N = N
Scan Rate (V/s) = 0.5
Segment = 3
Sample Interval (V) = 0.001
Quiet Time (sec) = 2
Sensitivity (A/V) = 0.01
Comp R (ohm) = 1.8

Results:

Channel 1:
Segment 1:

Segment 2:

Segment 3:

Potential/V, Current/A

-1.000, -2.143e-5
-1.001, 1.358e-4
-1.002, 2.746e-4
-1.003, 4.010e-4
-1.004, 5.150e-4
-1.005, 6.199e-4
-1.006, 7.154e-4
-1.007, 8.110e-4
-1.008, 8.973e-4
-1.009, 9.806e-4
-1.010, 1.058e-3
-1.011, 1.129e-3
-1.012, 1.190e-3
-1.013, 1.246e-3
-1.014, 1.298e-3
-1.015, 1.351e-3
-1.016, 1.403e-3
-1.017, 1.455e-3
-1.018, 1.499e-3
-1.019, 1.542e-3
-1.020, 1.582e-3
-1.021, 1.610e-3
-1.022, 1.640e-3
-1.023, 1.671e-3
-1.024, 1.705e-3
-1.025, 1.736e-3
-1.026, 1.767e-3
-1.027, 1.795e-3
-1.028, 1.822e-3
-1.029, 1.841e-3
-1.030, 1.859e-3
-1.031, 1.878e-3
-1.032, 1.896e-3
-1.033, 1.918e-3
-1.034, 1.939e-3
-1.035, 1.958e-3
-1.036, 1.976e-3
-1.037, 1.989e-3
-1.038, 2.004e-3
-1.039, 2.013e-3
-1.040, 2.029e-3
-1.041, 2.044e-3
-1.042, 2.060e-3
-1.043, 2.072e-3
-1.044, 2.087e-3
-1.045, 2.097e-3
-1.046, 2.103e-3
-1.047, 2.112e-3
-1.048, 2.124e-3
-1.049, 2.140e-3
-1.050, 2.155e-3
-1.051, 2.171e-3
-1.052, 2.183e-3
-1.053, 2.189e-3
-1.054, 2.198e-3
-1.055, 2.205e-3
-1.056, 2.211e-3
-1.057, 2.223e-3
-1.058, 2.235e-3
-1.059, 2.248e-3
-1.060, 2.260e-3
-1.061, 2.269e-3
-1.062, 2.275e-3
-1.063, 2.282e-3
-1.064, 2.291e-3
-1.065, 2.300e-3
-1.066, 2.309e-3
-1.067, 2.325e-3
-1.068, 2.337e-3
-1.069, 2.346e-3
-1.070, 2.356e-3
-1.071, 2.359e-3
-1.072, 2.365e-3
-1.073, 2.374e-3
-1.074, 2.383e-3
-1.075, 2.396e-3
-1.076, 2.408e-3
-1.077, 2.417e-3
-1.078, 2.423e-3
-1.079, 2.427e-3
-1.080, 2.430e-3
-1.081, 2.436e-3
-1.082, 2.442e-3
-1.083, 2.454e-3
-1.084, 2.467e-3
-1.085, 2.476e-3
-1.086, 2.488e-3
-1.087, 2.494e-3
-1.088, 2.497e-3
-1.089, 2.501e-3
-1.090, 2.507e-3
-1.091, 2.516e-3
-1.092, 2.528e-3
-1.093, 2.538e-3
-1.094, 2.547e-3
-1.095, 2.553e-3
-1.096, 2.556e-3
-1.097, 2.565e-3
-1.098, 2.571e-3
-1.099, 2.581e-3
-1.100, 2.593e-3
-1.101, 2.602e-3
-1.102, 2.612e-3
-1.103, 2.618e-3
-1.104, 2.624e-3
-1.105, 2.627e-3
-1.106, 2.633e-3
-1.107, 2.645e-3
-1.108, 2.658e-3
-1.109, 2.670e-3
-1.110, 2.682e-3
-1.111, 2.695e-3
-1.112, 2.701e-3
-1.113, 2.704e-3
-1.114, 2.710e-3
-1.115, 2.716e-3
-1.116, 2.726e-3
-1.117, 2.732e-3
-1.118, 2.741e-3
-1.119, 2.750e-3
-1.120, 2.756e-3
-1.121, 2.763e-3
-1.122, 2.769e-3
-1.123, 2.778e-3
-1.124, 2.790e-3
-1.125, 2.806e-3
-1.126, 2.818e-3
-1.127, 2.827e-3
-1.128, 2.837e-3
-1.129, 2.840e-3
-1.130, 2.843e-3
-1.131, 2.846e-3
-1.132, 2.855e-3
-1.133, 2.867e-3
-1.134, 2.883e-3
-1.135, 2.895e-3
-1.136, 2.908e-3
-1.137, 2.917e-3
-1.138, 2.923e-3
-1.139, 2.932e-3
-1.140, 2.941e-3
-1.141, 2.951e-3
-1.142, 2.966e-3
-1.143, 2.978e-3
-1.144, 2.988e-3
-1.145, 2.994e-3
-1.146, 3.000e-3
-1.147, 3.009e-3
-1.148, 3.015e-3
-1.149, 3.025e-3
-1.150, 3.037e-3
-1.151, 3.049e-3
-1.152, 3.062e-3
-1.153, 3.074e-3
-1.154, 3.080e-3
-1.155, 3.086e-3
-1.156, 3.093e-3
-1.157, 3.105e-3
-1.158, 3.120e-3
-1.159, 3.133e-3
-1.160, 3.142e-3
-1.161, 3.151e-3
-1.162, 3.157e-3
-1.163, 3.163e-3
-1.164, 3.170e-3
-1.165, 3.182e-3
-1.166, 3.200e-3
-1.167, 3.213e-3
-1.168, 3.228e-3
-1.169, 3.241e-3
-1.170, 3.250e-3
-1.171, 3.256e-3
-1.172, 3.265e-3
-1.173, 3.271e-3
-1.174, 3.287e-3
-1.175, 3.299e-3
-1.176, 3.314e-3
-1.177, 3.327e-3
-1.178, 3.336e-3
-1.179, 3.345e-3
-1.180, 3.355e-3
-1.181, 3.358e-3
-1.182, 3.367e-3
-1.183, 3.382e-3
-1.184, 3.395e-3
-1.185, 3.410e-3
-1.186, 3.419e-3
-1.187, 3.425e-3
-1.188, 3.432e-3
-1.189, 3.441e-3
-1.190, 3.447e-3
-1.191, 3.456e-3
-1.192, 3.469e-3
-1.193, 3.481e-3
-1.194, 3.490e-3
-1.195, 3.496e-3
-1.196, 3.506e-3
-1.197, 3.515e-3
-1.198, 3.524e-3
-1.199, 3.540e-3
-1.200, 3.552e-3
-1.201, 3.567e-3
-1.202, 3.577e-3
-1.203, 3.586e-3
-1.204, 3.592e-3
-1.205, 3.595e-3
-1.206, 3.604e-3
-1.207, 3.614e-3
-1.208, 3.623e-3
-1.209, 3.638e-3
-1.210, 3.647e-3
-1.211, 3.660e-3
-1.212, 3.669e-3
-1.213, 3.675e-3
-1.214, 3.681e-3
-1.215, 3.694e-3
-1.216, 3.706e-3
-1.217, 3.718e-3
-1.218, 3.731e-3
-1.219, 3.743e-3
-1.220, 3.749e-3
-1.221, 3.758e-3
-1.222, 3.768e-3
-1.223, 3.774e-3
-1.224, 3.783e-3
-1.225, 3.795e-3
-1.226, 3.808e-3
-1.227, 3.817e-3
-1.228, 3.826e-3
-1.229, 3.836e-3
-1.230, 3.842e-3
-1.231, 3.851e-3
-1.232, 3.863e-3
-1.233, 3.879e-3
-1.234, 3.894e-3
-1.235, 3.910e-3
-1.236, 3.919e-3
-1.237, 3.928e-3
-1.238, 3.934e-3
-1.239, 3.940e-3
-1.240, 3.950e-3
-1.241, 3.962e-3
-1.242, 3.971e-3
-1.243, 3.987e-3
-1.244, 4.002e-3
-1.245, 4.011e-3
-1.246, 4.021e-3
-1.247, 4.033e-3
-1.248, 4.042e-3
-1.249, 4.058e-3
-1.250, 4.070e-3
-1.251, 4.085e-3
-1.252, 4.104e-3
-1.253, 4.113e-3
-1.254, 4.125e-3
-1.255, 4.135e-3
-1.256, 4.147e-3
-1.257, 4.162e-3
-1.258, 4.181e-3
-1.259, 4.199e-3
-1.260, 4.218e-3
-1.261, 4.233e-3
-1.262, 4.246e-3
-1.263, 4.255e-3
-1.264, 4.264e-3
-1.265, 4.276e-3
-1.266, 4.292e-3
-1.267, 4.307e-3
-1.268, 4.326e-3
-1.269, 4.344e-3
-1.270, 4.360e-3
-1.271, 4.372e-3
-1.272, 4.381e-3
-1.273, 4.397e-3
-1.274, 4.409e-3
-1.275, 4.428e-3
-1.276, 4.446e-3
-1.277, 4.464e-3
-1.278, 4.480e-3
-1.279, 4.492e-3
-1.280, 4.505e-3
-1.281, 4.520e-3
-1.282, 4.535e-3
-1.283, 4.554e-3
-1.284, 4.572e-3
-1.285, 4.591e-3
-1.286, 4.606e-3
-1.287, 4.619e-3
-1.288, 4.631e-3
-1.289, 4.640e-3
-1.290, 4.656e-3
-1.291, 4.671e-3
-1.292, 4.690e-3
-1.293, 4.708e-3
-1.294, 4.727e-3
-1.295, 4.742e-3
-1.296, 4.751e-3
-1.297, 4.760e-3
-1.298, 4.776e-3
-1.299, 4.788e-3
-1.300, 4.807e-3
-1.301, 4.819e-3
-1.302, 4.834e-3
-1.303, 4.850e-3
-1.304, 4.859e-3
-1.305, 4.871e-3
-1.306, 4.881e-3
-1.307, 4.893e-3
-1.308, 4.912e-3
-1.309, 4.924e-3
-1.310, 4.939e-3
-1.311, 4.955e-3
-1.312, 4.967e-3
-1.313, 4.982e-3
-1.314, 4.995e-3
-1.315, 5.010e-3
-1.316, 5.026e-3
-1.317, 5.038e-3
-1.318, 5.050e-3
-1.319, 5.063e-3
-1.320, 5.072e-3
-1.321, 5.081e-3
-1.322, 5.090e-3
-1.323, 5.106e-3
-1.324, 5.121e-3
-1.325, 5.140e-3
-1.326, 5.158e-3
-1.327, 5.174e-3
-1.328, 5.186e-3
-1.329, 5.198e-3
-1.330, 5.211e-3
-1.331, 5.223e-3
-1.332, 5.241e-3
-1.333, 5.260e-3
-1.334, 5.282e-3
-1.335, 5.303e-3
-1.336, 5.319e-3
-1.337, 5.337e-3
-1.338, 5.349e-3
-1.339, 5.365e-3
-1.340, 5.383e-3
-1.341, 5.402e-3
-1.342, 5.423e-3
-1.343, 5.445e-3
-1.344, 5.463e-3
-1.345, 5.482e-3
-1.346, 5.500e-3
-1.347, 5.519e-3
-1.348, 5.544e-3
-1.349, 5.574e-3
-1.350, 5.605e-3
-1.351, 5.639e-3
-1.352, 5.673e-3
-1.353, 5.707e-3
-1.354, 5.738e-3
-1.355, 5.769e-3
-1.356, 5.799e-3
-1.357, 5.836e-3
-1.358, 5.877e-3
-1.359, 5.917e-3
-1.360, 5.960e-3
-1.361, 6.003e-3
-1.362, 6.049e-3
-1.363, 6.095e-3
-1.364, 6.145e-3
-1.365, 6.194e-3
-1.366, 6.253e-3
-1.367, 6.314e-3
-1.368, 6.382e-3
-1.369, 6.450e-3
-1.370, 6.515e-3
-1.371, 6.580e-3
-1.372, 6.647e-3
-1.373, 6.721e-3
-1.374, 6.798e-3
-1.375, 6.885e-3
-1.376, 6.974e-3
-1.377, 7.070e-3
-1.378, 7.165e-3
-1.379, 7.270e-3
-1.380, 7.375e-3
-1.381, 7.489e-3
-1.382, 7.612e-3
-1.383, 7.742e-3
-1.384, 7.878e-3
-1.385, 8.016e-3
-1.386, 8.155e-3
-1.387, 8.303e-3
-1.388, 8.451e-3
-1.389, 8.611e-3
-1.390, 8.784e-3
-1.391, 8.969e-3
-1.392, 9.160e-3
-1.393, 9.357e-3
-1.394, 9.561e-3
-1.395, 9.767e-3
-1.396, 9.974e-3
-1.397, 1.019e-2
-1.398, 1.041e-2
-1.399, 1.065e-2
-1.400, 1.078e-2
-1.399, 1.072e-2
-1.398, 1.070e-2
-1.397, 1.068e-2
-1.396, 1.068e-2
-1.395, 1.068e-2
-1.394, 1.068e-2
-1.393, 1.069e-2
-1.392, 1.070e-2
-1.391, 1.071e-2
-1.390, 1.072e-2
-1.389, 1.074e-2
-1.388, 1.075e-2
-1.387, 1.076e-2
-1.386, 1.077e-2
-1.385, 1.077e-2
-1.384, 1.078e-2
-1.383, 1.076e-2
-1.382, 1.075e-2
-1.381, 1.074e-2
-1.380, 1.072e-2
-1.379, 1.070e-2
-1.378, 1.069e-2
-1.377, 1.068e-2
-1.376, 1.067e-2
-1.375, 1.066e-2
-1.374, 1.064e-2
-1.373, 1.061e-2
-1.372, 1.057e-2
-1.371, 1.053e-2
-1.370, 1.047e-2
-1.369, 1.042e-2
-1.368, 1.037e-2
-1.367, 1.033e-2
-1.366, 1.028e-2
-1.365, 1.024e-2
-1.364, 1.019e-2
-1.363, 1.014e-2
-1.362, 1.008e-2
-1.361, 1.002e-2
-1.360, 9.952e-3
-1.359, 9.885e-3
-1.358, 9.811e-3
-1.357, 9.740e-3
-1.356, 9.669e-3
-1.355, 9.592e-3
-1.354, 9.512e-3
-1.353, 9.438e-3
-1.352, 9.364e-3
-1.351, 9.286e-3
-1.350, 9.209e-3
-1.349, 9.135e-3
-1.348, 9.061e-3
-1.347, 8.975e-3
-1.346, 8.889e-3
-1.345, 8.799e-3
-1.344, 8.704e-3
-1.343, 8.614e-3
-1.342, 8.531e-3
-1.341, 8.451e-3
-1.340, 8.365e-3
-1.339, 8.281e-3
-1.338, 8.195e-3
-1.337, 8.103e-3
-1.336, 8.016e-3
-1.335, 7.927e-3
-1.334, 7.844e-3
-1.333, 7.760e-3
-1.332, 7.671e-3
-1.331, 7.578e-3
-1.330, 7.480e-3
-1.329, 7.381e-3
-1.328, 7.279e-3
-1.327, 7.181e-3
-1.326, 7.085e-3
-1.325, 6.996e-3
-1.324, 6.900e-3
-1.323, 6.805e-3
-1.322, 6.709e-3
-1.321, 6.610e-3
-1.320, 6.515e-3
-1.319, 6.416e-3
-1.318, 6.330e-3
-1.317, 6.247e-3
-1.316, 6.157e-3
-1.315, 6.062e-3
-1.314, 5.966e-3
-1.313, 5.870e-3
-1.312, 5.772e-3
-1.311, 5.679e-3
-1.310, 5.584e-3
-1.309, 5.491e-3
-1.308, 5.405e-3
-1.307, 5.319e-3
-1.306, 5.226e-3
-1.305, 5.134e-3
-1.304, 5.038e-3
-1.303, 4.942e-3
-1.302, 4.850e-3
-1.301, 4.764e-3
-1.300, 4.677e-3
-1.299, 4.591e-3
-1.298, 4.501e-3
-1.297, 4.412e-3
-1.296, 4.323e-3
-1.295, 4.230e-3
-1.294, 4.141e-3
-1.293, 4.054e-3
-1.292, 3.968e-3
-1.291, 3.885e-3
-1.290, 3.802e-3
-1.289, 3.715e-3
-1.288, 3.629e-3
-1.287, 3.543e-3
-1.286, 3.456e-3
-1.285, 3.370e-3
-1.284, 3.287e-3
-1.283, 3.207e-3
-1.282, 3.123e-3
-1.281, 3.040e-3
-1.280, 2.960e-3
-1.279, 2.874e-3
-1.278, 2.790e-3
-1.277, 2.710e-3
-1.276, 2.633e-3
-1.275, 2.553e-3
-1.274, 2.479e-3
-1.273, 2.402e-3
-1.272, 2.322e-3
-1.271, 2.242e-3
-1.270, 2.164e-3
-1.269, 2.087e-3
-1.268, 2.013e-3
-1.267, 1.939e-3
-1.266, 1.869e-3
-1.265, 1.801e-3
-1.264, 1.730e-3
-1.263, 1.653e-3
-1.262, 1.579e-3
-1.261, 1.505e-3
-1.260, 1.434e-3
-1.259, 1.366e-3
-1.258, 1.298e-3
-1.257, 1.230e-3
-1.256, 1.166e-3
-1.255, 1.098e-3
-1.254, 1.027e-3
-1.253, 9.590e-4
-1.252, 8.912e-4
-1.251, 8.264e-4
-1.250, 7.648e-4
-1.249, 7.031e-4
-1.248, 6.414e-4
-1.247, 5.798e-4
-1.246, 5.150e-4
-1.245, 4.503e-4
-1.244, 3.886e-4
-1.243, 3.270e-4
-1.242, 2.684e-4
-1.241, 2.129e-4
-1.240, 1.605e-4
-1.239, 1.019e-4
-1.238, 4.332e-5
-1.237, -1.526e-5
-1.236, -7.692e-5
-1.235, -1.324e-4
-1.234, -1.848e-4
-1.233, -2.372e-4
-1.232, -2.866e-4
-1.231, -3.359e-4
-1.230, -3.883e-4
-1.229, -4.469e-4
-1.228, -5.055e-4
-1.227, -5.548e-4
-1.226, -6.041e-4
-1.225, -6.504e-4
-1.224, -6.935e-4
-1.223, -7.398e-4
-1.222, -7.891e-4
-1.221, -8.385e-4
-1.220, -8.909e-4
-1.219, -9.371e-4
-1.218, -9.834e-4
-1.217, -1.027e-3
-1.216, -1.067e-3
-1.215, -1.110e-3
-1.214, -1.150e-3
-1.213, -1.196e-3
-1.212, -1.239e-3
-1.211, -1.286e-3
-1.210, -1.329e-3
-1.209, -1.366e-3
-1.208, -1.403e-3
-1.207, -1.440e-3
-1.206, -1.480e-3
-1.205, -1.520e-3
-1.204, -1.560e-3
-1.203, -1.603e-3
-1.202, -1.643e-3
-1.201, -1.680e-3
-1.200, -1.711e-3
-1.199, -1.742e-3
-1.198, -1.773e-3
-1.197, -1.810e-3
-1.196, -1.847e-3
-1.195, -1.884e-3
-1.194, -1.921e-3
-1.193, -1.955e-3
-1.192, -1.985e-3
-1.191, -2.016e-3
-1.190, -2.044e-3
-1.189, -2.075e-3
-1.188, -2.109e-3
-1.187, -2.143e-3
-1.186, -2.177e-3
-1.185, -2.210e-3
-1.184, -2.238e-3
-1.183, -2.266e-3
-1.182, -2.291e-3
-1.181, -2.315e-3
-1.180, -2.343e-3
-1.179, -2.374e-3
-1.178, -2.408e-3
-1.177, -2.439e-3
-1.176, -2.466e-3
-1.175, -2.494e-3
-1.174, -2.519e-3
-1.173, -2.540e-3
-1.172, -2.568e-3
-1.171, -2.596e-3
-1.170, -2.624e-3
-1.169, -2.654e-3
-1.168, -2.679e-3
-1.167, -2.707e-3
-1.166, -2.728e-3
-1.165, -2.750e-3
-1.164, -2.775e-3
-1.163, -2.799e-3
-1.162, -2.827e-3
-1.161, -2.852e-3
-1.160, -2.873e-3
-1.159, -2.892e-3
-1.158, -2.910e-3
-1.157, -2.926e-3
-1.156, -2.947e-3
-1.155, -2.969e-3
-1.154, -2.997e-3
-1.153, -3.024e-3
-1.152, -3.049e-3
-1.151, -3.074e-3
-1.150, -3.095e-3
-1.149, -3.111e-3
-1.148, -3.132e-3
-1.147, -3.154e-3
-1.146, -3.179e-3
-1.145, -3.206e-3
-1.144, -3.231e-3
-1.143, -3.262e-3
-1.142, -3.283e-3
-1.141, -3.302e-3
-1.140, -3.323e-3
-1.139, -3.345e-3
-1.138, -3.367e-3
-1.137, -3.394e-3
-1.136, -3.416e-3
-1.135, -3.438e-3
-1.134, -3.453e-3
-1.133, -3.471e-3
-1.132, -3.487e-3
-1.131, -3.505e-3
-1.130, -3.527e-3
-1.129, -3.549e-3
-1.128, -3.570e-3
-1.127, -3.595e-3
-1.126, -3.613e-3
-1.125, -3.629e-3
-1.124, -3.644e-3
-1.123, -3.659e-3
-1.122, -3.675e-3
-1.121, -3.693e-3
-1.120, -3.718e-3
-1.119, -3.740e-3
-1.118, -3.758e-3
-1.117, -3.774e-3
-1.116, -3.786e-3
-1.115, -3.798e-3
-1.114, -3.811e-3
-1.113, -3.826e-3
-1.112, -3.841e-3
-1.111, -3.860e-3
-1.110, -3.872e-3
-1.109, -3.888e-3
-1.108, -3.903e-3
-1.107, -3.915e-3
-1.106, -3.928e-3
-1.105, -3.940e-3
-1.104, -3.955e-3
-1.103, -3.971e-3
-1.102, -3.986e-3
-1.101, -3.999e-3
-1.100, -4.011e-3
-1.099, -4.017e-3
-1.098, -4.026e-3
-1.097, -4.042e-3
-1.096, -4.057e-3
-1.095, -4.076e-3
-1.094, -4.091e-3
-1.093, -4.103e-3
-1.092, -4.110e-3
-1.091, -4.113e-3
-1.090, -4.116e-3
-1.089, -4.119e-3
-1.088, -4.128e-3
-1.087, -4.140e-3
-1.086, -4.153e-3
-1.085, -4.165e-3
-1.084, -4.177e-3
-1.083, -4.187e-3
-1.082, -4.196e-3
-1.081, -4.205e-3
-1.080, -4.218e-3
-1.079, -4.230e-3
-1.078, -4.242e-3
-1.077, -4.255e-3
-1.076, -4.261e-3
-1.075, -4.267e-3
-1.074, -4.270e-3
-1.073, -4.276e-3
-1.072, -4.279e-3
-1.071, -4.285e-3
-1.070, -4.292e-3
-1.069, -4.295e-3
-1.068, -4.295e-3
-1.067, -4.298e-3
-1.066, -4.298e-3
-1.065, -4.298e-3
-1.064, -4.298e-3
-1.063, -4.307e-3
-1.062, -4.313e-3
-1.061, -4.319e-3
-1.060, -4.322e-3
-1.059, -4.325e-3
-1.058, -4.322e-3
-1.057, -4.319e-3
-1.056, -4.316e-3
-1.055, -4.319e-3
-1.054, -4.319e-3
-1.053, -4.325e-3
-1.052, -4.325e-3
-1.051, -4.322e-3
-1.050, -4.319e-3
-1.049, -4.316e-3
-1.048, -4.310e-3
-1.047, -4.307e-3
-1.046, -4.304e-3
-1.045, -4.301e-3
-1.044, -4.301e-3
-1.043, -4.298e-3
-1.042, -4.288e-3
-1.041, -4.279e-3
-1.040, -4.270e-3
-1.039, -4.264e-3
-1.038, -4.261e-3
-1.037, -4.258e-3
-1.036, -4.261e-3
-1.035, -4.258e-3
-1.034, -4.251e-3
-1.033, -4.242e-3
-1.032, -4.239e-3
-1.031, -4.230e-3
-1.030, -4.227e-3
-1.029, -4.227e-3
-1.028, -4.227e-3
-1.027, -4.221e-3
-1.026, -4.214e-3
-1.025, -4.208e-3
-1.024, -4.199e-3
-1.023, -4.190e-3
-1.022, -4.184e-3
-1.021, -4.177e-3
-1.020, -4.174e-3
-1.019, -4.168e-3
-1.018, -4.162e-3
-1.017, -4.150e-3
-1.016, -4.144e-3
-1.015, -4.134e-3
-1.014, -4.128e-3
-1.013, -4.125e-3
-1.012, -4.125e-3
-1.011, -4.119e-3
-1.010, -4.113e-3
-1.009, -4.103e-3
-1.008, -4.091e-3
-1.007, -4.082e-3
-1.006, -4.076e-3
-1.005, -4.076e-3
-1.004, -4.076e-3
-1.003, -4.079e-3
-1.002, -4.082e-3
-1.001, -4.076e-3
