Potential V vs RHE, Current mA cm-2
0.013299999999999867,0.20004017780091618
0.012299999999999978,-1.3770799792886268
0.011299999999999866,-2.545065628457201
0.010299999999999976,-3.27505665918756
0.009299999999999864,-3.8664059825311448
0.008299999999999974,-4.330431288886877
0.007299999999999862,-4.594982301961639
0.006299999999999972,-4.926024746130058
0.00529999999999986,-5.077398855215616
0.0042999999999999705,-5.264140746797801
0.0032999999999998586,-5.431076680181876
0.0022999999999999687,-5.484835709576747
0.0012999999999998568,-5.670162889859067
0.00029999999999996696,-5.709774806255288
-0.000700000000000145,-5.817292865045031
-0.0017000000000000348,-5.921981501235043
-0.0027000000000001467,-5.917737367335448
-0.0037000000000000366,-6.0323289826245166
-0.0047000000000001485,-6.056379074722222
-0.005700000000000038,-6.134188196214799
-0.00670000000000015,-6.237462121104946
-0.00770000000000004,-6.2162414516069715
-0.008700000000000152,-6.322344799096849
-0.009700000000000042,-6.337906623395364
-0.010700000000000154,-6.418545167487672
-0.011700000000000044,-6.499183711579978
-0.012700000000000156,-6.480792464681733
-0.013700000000000045,-6.5840663895718805
-0.014700000000000157,-6.575578121772692
-0.015700000000000047,-6.625093017267967
-0.01670000000000016,-6.698658004860949
-0.01770000000000005,-6.694413870961354
-0.01870000000000016,-6.782125971552985
-0.01970000000000005,-6.779296548953256
-0.020700000000000163,-6.844373268747047
-0.021700000000000053,-6.906620565941108
-0.022700000000000164,-6.892473452942459
-0.023700000000000054,-6.990088532633147
-0.024700000000000166,-6.971697285734901
-0.025700000000000056,-7.007065068231526
-0.026700000000000168,-7.084874189724104
-0.027700000000000058,-7.066482942825859
-0.02870000000000017,-7.166927445116276
-0.02970000000000006,-7.1457067756183
-0.03070000000000017,-7.229174742310337
-0.03170000000000006,-7.277274926505749
-0.03270000000000017,-7.234833587509797
-0.03370000000000006,-7.345181068899271
-0.034700000000000175,-7.308398575102779
-0.035700000000000065,-7.370645872296841
-0.03670000000000018,-7.439966725990228
-0.03770000000000007,-7.4229901903918485
-0.03870000000000018,-7.52484940398213
-0.03970000000000007,-7.4937257553851
-0.04070000000000018,-7.565876031678216
-0.04170000000000007,-7.629538040172143
-0.04270000000000018,-7.602658525474708
-0.04370000000000007,-7.731397253762426
-0.044700000000000184,-7.687541203466609
-0.045700000000000074,-7.742714944161346
-0.046700000000000186,-7.7978886848560816
-0.047700000000000076,-7.7512032119605365
-0.04870000000000019,-7.827597622153248
-0.04970000000000008,-7.796473973556218
-0.05070000000000019,-7.8502330029510885
-0.05170000000000008,-7.905406743645826
-0.05270000000000019,-7.889844919347309
-0.05370000000000008,-7.980386442538672
-0.05470000000000019,-7.978971731238807
-0.05570000000000008,-8.038389605833139
-0.056700000000000195,-8.100636903027201
-0.057700000000000085,-8.079416233529225
-0.058700000000000196,-8.177031313219912
-0.059700000000000086,-8.157225355021803
-0.0607000000000002,-8.218057940915998
-0.06170000000000009,-8.29162292850898
-0.0627000000000002,-8.293037639808846
-0.06370000000000009,-8.365187916101961
-0.0647000000000002,-8.34255253530412
-0.06570000000000009,-8.387823296899802
-0.0667000000000002,-8.427435213296024
-0.0677000000000001,-8.41470281159724
-0.0687000000000002,-8.498170778289277
-0.0697000000000001,-8.48543837659049
-0.07070000000000021,-8.543441539884956
-0.0717000000000001,-8.577394611081719
-0.07270000000000021,-8.55051509638428
-0.0737000000000001,-8.66793613427308
-0.07470000000000021,-8.652374309974565
-0.0757000000000001,-8.717451029768355
-0.07670000000000021,-8.761307080064174
-0.0777000000000001,-8.748574678365387
-0.07870000000000021,-8.865995716254185
-0.0797000000000001,-8.841945624156478
-0.08070000000000022,-8.922584168248786
-0.0817000000000001,-8.969269641144333
-0.08270000000000022,-8.939560703847167
-0.08370000000000011,-9.03293164963826
-0.08470000000000022,-9.006052134940823
-0.08570000000000011,-9.068299432134886
-0.08670000000000022,-9.136205574528407
-0.08770000000000011,-9.130546729328946
-0.08870000000000022,-9.23523536551896
-0.08970000000000011,-9.230991231619363
-0.09070000000000022,-9.293238528813426
-0.09170000000000011,-9.348412269508163
-0.09270000000000023,-9.330021022609918
-0.09370000000000012,-9.42056254580128
-0.09470000000000023,-9.407830144102494
-0.09570000000000012,-9.494127533394261
-0.09670000000000023,-9.567692520987244
-0.09770000000000012,-9.571936654886837
-0.09870000000000023,-9.679454713676583
-0.09970000000000012,-9.646916353779686
-0.10070000000000023,-9.724725475272262
-0.10170000000000012,-9.767166814268213
-0.10270000000000024,-9.77706979336727
-0.10370000000000013,-9.871855450458227
-0.10470000000000024,-9.85346420355998
-0.10570000000000013,-9.931273325052558
-0.10670000000000024,-9.99069119964689
-0.10770000000000013,-10.004838312645537
-0.10870000000000024,-10.102453392336226
-0.10970000000000013,-10.091135701937308
-0.11070000000000024,-10.191580204227723
-0.11170000000000013,-10.23826567712327
-0.11270000000000002,-10.236850965823406
-0.11370000000000013,-10.334466045514093
-0.11470000000000002,-10.279292304819355
-0.11570000000000014,-10.37549267321018
-0.11670000000000003,-10.461790062501947
-0.11770000000000014,-10.484425443299786
-0.11870000000000003,-10.60892003768791
-0.11970000000000014,-10.579211100390744
-0.12070000000000003,-10.64004368628494
-0.12170000000000014,-10.661264355782917
-0.12270000000000003,-10.664093778382647
-0.12370000000000014,-10.804150197069285
-0.12470000000000003,-10.77444125977212
-0.12570000000000014,-10.840932690865777
-0.12670000000000003,-10.913082967158893
-0.12770000000000015,-10.932888925357005
-0.12870000000000004,-11.072945344043642
-0.12970000000000015,-11.064457076244452
-0.13070000000000004,-11.147925042936489
-0.13170000000000015,-11.213001762730281
-0.13270000000000004,-11.217245896629876
-0.13370000000000015,-11.324763955419618
-0.13470000000000004,-11.287981461623128
-0.13570000000000015,-11.343155202317865
-0.13670000000000004,-11.367205294415568
-0.13770000000000016,-11.374278850914896
-0.13870000000000005,-11.480382198404772
-0.13970000000000016,-11.466235085406122
-0.14070000000000005,-11.559606031197214
-0.14170000000000016,-11.592144391094111
-0.14270000000000005,-11.58082670069519
-0.14370000000000016,-11.688344759484933
-0.14470000000000005,-11.660050533487633
-0.14570000000000016,-11.743518500179668
-0.14670000000000005,-11.77747157137643
-0.14770000000000016,-11.804351086073867
-0.14870000000000005,-11.938748659561044
-0.14970000000000017,-11.911869144863608
-0.15070000000000006,-12.039193161851461
-0.15170000000000017,-12.118416994643903
-0.15270000000000006,-12.10285517034539
-0.15370000000000017,-12.194811404836617
-0.15470000000000006,-12.13680824154215
-0.15570000000000017,-12.220276208234186
-0.15670000000000006,-12.258473413330542
-0.15770000000000017,-12.276864660228789
-0.15870000000000006,-12.409847522416102
-0.15970000000000018,-12.387212141618262
-0.16070000000000007,-12.440971171013134
-0.16170000000000018,-12.463606551810972
-0.16270000000000007,-12.466435974410702
-0.16370000000000018,-12.599418836598016
-0.16470000000000007,-12.593759991398557
-0.16570000000000018,-12.670154401591269
-0.16670000000000007,-12.7012780501883
-0.16770000000000018,-12.719669297086545
-0.16870000000000007,-12.849822736674128
-0.16970000000000018,-12.793234284679526
-0.17070000000000007,-12.882361096571024
-0.17170000000000019,-12.907825899968595
-0.17270000000000008,-12.934705414666032
-0.1737000000000002,-13.067688276853342
-0.17470000000000008,-13.035149916956447
-0.1757000000000002,-13.12003259494835
-0.17670000000000008,-13.15964451134457
-0.1777000000000002,-13.206329984240117
-0.17870000000000008,-13.29404208483175
-0.1797000000000002,-13.289797950932153
-0.18070000000000008,-13.364777649825003
-0.1817000000000002,-13.439757348717848
-0.18270000000000008,-13.500589934612046
-0.1837000000000002,-13.629328662899765
-0.1847000000000001,-13.620840395100572
-0.1857000000000002,-13.708552495692206
-0.1867000000000001,-13.726943742590452
-0.1877000000000002,-13.769385081586401
-0.1887000000000001,-13.908026788973176
-0.1897000000000002,-13.876903140376147
-0.1907000000000001,-13.957541684468453
-0.1917000000000001,-13.966029952267641
-0.19269999999999998,-13.992909466965077
-0.1937000000000001,-14.137210019551313
-0.19469999999999998,-14.161260111649016
-0.1957000000000001,-14.288584128636872
-0.19669999999999999,-14.331025467632822
-0.1977000000000001,-14.359319693630123
-0.1987,-14.500790823616628
-0.1997000000000001,-14.486643710617974
-0.2007,-14.61396772760583
-0.2017000000000001,-14.642261953603128
-0.2027,-14.69885040559773
-0.2037000000000001,-14.840321535584234
-0.2047,-14.868615761581536
-0.2057000000000001,-15.02423400456669
-0.2067,-15.123263795557243
-0.2077000000000001,-15.179852247551842
-0.2087,-15.335470490536997
-0.2097000000000001,-15.363764716534297
-0.2107,-15.519382959519453
-0.2117000000000001,-15.604265637511356
-0.2127,-15.646706976507305
-0.2137000000000001,-15.78817810649381
-0.2147,-15.816472332491113
-0.2157000000000001,-16.000384801473565
-0.2167,-16.085267479465468
-0.21770000000000012,-16.15600304445872
-0.2187,-16.28332706144657
-0.21970000000000012,-16.339915513441174
-0.2207,-16.495533756426326
-0.22170000000000012,-16.56626932141958
-0.2227,-16.637004886412832
-0.22370000000000012,-16.806770242396635
-0.2247,-16.849211581392588
-0.22570000000000012,-17.018976937376394
-0.2267,-17.118006728366943
-0.22770000000000012,-17.20288940635885
-0.22870000000000001,-17.37265476234265
-0.22970000000000013,-17.429243214337255
-0.23070000000000002,-17.627302796318357
-0.23170000000000013,-17.74047970030756
-0.23270000000000002,-17.881950830294063
-0.23370000000000013,-18.09415752527382
-0.23470000000000002,-18.19318731626437
-0.23570000000000013,-18.348805559249524
-0.23670000000000002,-18.44783535024008
-0.2376999999999999,-18.53271802823198
-0.23870000000000002,-18.716630497214435
-0.2396999999999999,-18.78736606220769
-0.24070000000000003,-19.01371987018609
-0.24169999999999991,-19.112749661176647
-0.24270000000000003,-19.22592656516585
-0.24369999999999992,-19.452280373144255
-0.24470000000000003,-19.452280373144255
-0.24569999999999992,-19.60789861612941
-0.24670000000000003,-19.73522263311726
-0.24769999999999992,-19.919135102099716
-0.24870000000000003,-20.13134179707947
-0.24969999999999992,-20.230371588070028
-0.25070000000000003,-20.44257828304978
-0.2516999999999999,-20.555755187038983
-0.25270000000000004,-20.69722631702549
-0.2536999999999999,-20.93772723800254
-0.25470000000000004,-21.050904141991744
-0.2556999999999999,-21.2631108369715
-0.25670000000000004,-21.461170418952605
-0.25769999999999993,-21.58849443594046
-0.25870000000000004,-21.828995356917517
-0.25969999999999993,-21.92802514790807
-0.26070000000000004,-22.140231842887825
-0.26169999999999993,-22.225114520879725
-0.26270000000000004,-22.39487987686353
-0.26369999999999993,-22.63538079784059
-0.26470000000000005,-22.748557701829792
-0.26569999999999994,-23.144676865792
-0.26670000000000005,-23.399324899767706
-0.26769999999999994,-23.597384481748815
-0.26870000000000005,-23.83788540272587
-0.26969999999999994,-23.97935653271237
-0.27070000000000005,-24.290593018682678
-0.27169999999999994,-24.460358374666487
-0.27270000000000005,-24.71500640864219
-0.27369999999999994,-25.04039000761115
-0.27470000000000006,-25.252596702590903
-0.27569999999999995,-25.592127414558515
-0.27670000000000006,-25.846775448534224
-0.27769999999999995,-26.129717708507226
-0.27870000000000006,-26.525836872469437
-0.27969999999999995,-26.738043567449193
-0.28070000000000006,-27.1058685054141
-0.28169999999999995,-27.38881076538711
-0.28270000000000006,-27.770782816350668
-0.28369999999999995,-28.209343319308836
-0.28470000000000006,-28.647903822266994
-0.28569999999999995,-29.22793545521166
-0.28670000000000007,-29.751378636161718
-0.28769999999999996,-30.246527591114486
-0.28870000000000007,-30.8407063370578
-0.28969999999999996,-31.29341395301461
-0.29070000000000007,-31.94418115095253
-0.29169999999999996,-32.5525070098945
-0.29270000000000007,-33.203274207832415
-0.29369999999999996,-34.06624810075008
-0.2947000000000001,-34.8018979766799
-0.29569999999999996,-35.74975454758948
-0.2967000000000001,-36.725905344496354
-0.29769999999999996,-37.82938015839108
-0.2987000000000001,-38.97529631128177
-0.29969999999999997,-40.12121246417244
-0.3007000000000001,-41.52177665103883
-0.30169999999999997,-42.92234083790521
-0.3027000000000001,-44.4643761547581
-0.30369999999999997,-46.289353731584
-0.3047000000000001,-48.057742856415295
-0.30569999999999997,-50.15151558021555
-0.3067000000000001,-52.386759434002315
-0.3077,-54.876651321764776
-0.3087000000000001,-57.6353383565016
-0.3097,-60.45061384323302
-0.3107000000000001,-63.4780960249442
-0.3117,-66.68949067563783
-0.3127000000000001,-70.12723913430986
-0.3137,-73.62157604497652
-0.3147000000000001,-77.21494274663371
-0.3157,-81.02051614327065
-0.3167000000000001,-84.75535397491434
-0.3177,-88.7023985015378
-0.3187000000000001,-92.578707463168
-0.3197,-96.61063466778336
-0.3207000000000001,-100.65670898539736
-0.3217,-104.46228238203432
-0.3227000000000001,-108.14053176168339
-0.3237,-111.8187811413325
-0.3247000000000001,-115.34141227799645
-0.3257,-119.03380877064419
-0.3267000000000001,-122.62717547230139
-0.3277,-125.85271723599364
-0.3287000000000001,-129.1772887906765
-0.3297,-132.5443016843553
-0.3307000000000001,-135.82643190004217
-0.3317,-139.0378265507358
-0.3327000000000001,-141.89554337646317
-0.3337,-144.86643710617977
-0.3347000000000001,-147.55438857592333
-0.3357,-150.5252823056399
-0.3367000000000001,-153.07176264539694
-0.3377,-155.75971411514055
-0.3387000000000001,-158.4476655848841
-0.3397,-160.99414592464117
-0.3407000000000001,-163.68209739438475
-0.3417,-166.3700488641283
-0.3427000000000001,-168.63358694391238
-0.3437,-170.89712502369645
-0.3447000000000001,-173.16066310348046
-0.3457,-175.70714344323756
-0.3467000000000001,-178.1121526530081
-0.3477,-180.37569073279218
-0.3487000000000001,-182.49775768258974
-0.3497,-184.47835350240078
-0.3507000000000001,-186.74189158218485
-0.3517,-188.8639585319824
-0.3527000000000001,-190.98602548177996
-0.3537,-193.3910346915505
-0.3547000000000001,-195.51310164134807
-0.3557,-197.77663972113214
-0.35670000000000013,-199.75723554094319
-0.3577,-201.59636023076774
-0.35870000000000013,-203.43548492059227
-0.3597,-205.13313848043032
-0.36070000000000013,-206.97226317025488
-0.3617,-208.95285899006592
-0.3626999999999999,-210.79198367989048
-0.3637,-212.34816610974204
-0.3646999999999999,-213.90434853959354
-0.3657,-215.7434732294181
-0.3666999999999999,-217.58259791924263
-0.3677,-218.71436695913465
-0.3686999999999999,-220.1290782589997
-0.36970000000000003,-221.68526068885126
-0.3706999999999999,-223.09997198871628
-0.37170000000000003,-224.65615441856778
-0.3726999999999999,-226.49527910839237
-0.37370000000000003,-228.47587492820347
-0.3746999999999999,-230.17352848804146
-0.37570000000000003,-231.8711820478795
-0.3766999999999999,-233.28589334774458
-0.37770000000000004,-235.12501803756908
-0.3786999999999999,-236.6812004674206
-0.37970000000000004,-238.5203251572452
-0.3806999999999999,-241.06680549700224
-0.38170000000000004,-243.3303435767863
-0.38269999999999993,-245.31093939659738
-0.38370000000000004,-247.4330063463949
-0.38469999999999993,-248.56477538628693
-0.38570000000000004,-249.69654442617897
-0.38669999999999993,-249.2721310362195
-0.38570000000000004,-246.01829504652986
-0.38469999999999993,-243.6132858367593
-0.38370000000000004,-242.05710340690777
-0.38269999999999993,-240.21797871708318
-0.38170000000000004,-237.81296950731266
-0.3806999999999999,-235.12501803756908
-0.37970000000000004,-232.86147995778504
-0.3786999999999999,-230.59794187800094
-0.37770000000000004,-228.61734605818995
-0.3766999999999999,-226.07086571843288
-0.37570000000000003,-224.2317410286083
-0.3746999999999999,-222.3926163387838
-0.37370000000000003,-219.42172260906716
-0.3726999999999999,-216.73377113932364
-0.37170000000000003,-214.89464644949908
-0.3706999999999999,-213.33846401964755
-0.36970000000000003,-212.34816610974204
-0.3686999999999999,-209.66021463999843
-0.3677,-207.5381476902009
-0.3666999999999999,-206.12343639033585
-0.3657,-204.5672539604843
-0.3646999999999999,-202.58665814067325
-0.3637,-200.4645911908757
-0.3626999999999999,-198.90840876102413
-0.3617,-196.92781294121312
-0.36070000000000013,-195.08868825138856
-0.3597,-193.532505821537
-0.35870000000000013,-192.11779452167198
-0.3577,-189.8542564418879
-0.35670000000000013,-187.30777610213087
-0.3557,-185.3271802823198
-0.3547000000000001,-183.77099785246824
-0.3537,-182.21481542261674
-0.3527000000000001,-181.08304638272472
-0.3517,-179.80980621284618
-0.3507000000000001,-177.82921039303508
-0.3497,-175.84861457322407
-0.3487000000000001,-173.58507649344
-0.3477,-171.03859615368293
-0.3467000000000001,-168.91652920388537
-0.3457,-166.65299112410133
-0.3447000000000001,-164.53092417430375
-0.3437,-162.6917994844792
-0.3427000000000001,-160.8526747946547
-0.3417,-159.01355010483013
-0.3407000000000001,-157.17442541500557
-0.3397,-155.61824298515404
-0.3387000000000001,-153.920589425316
-0.3377,-152.50587812545095
-0.3367000000000001,-150.8082245656129
-0.3357,-149.1105710057749
-0.3347000000000001,-147.27144631595033
-0.3337,-145.14937936615277
-0.3327000000000001,-143.4517258063147
-0.3317,-141.75407224647665
-0.3307000000000001,-139.97153600864672
-0.3297,-138.1889997708168
-0.3287000000000001,-136.12352127301384
-0.3277,-134.63807440815555
-0.3267000000000001,-133.3365400122797
-0.3257,-131.75206335643085
-0.3247000000000001,-130.29491071756988
-0.3237,-128.752875400717
-0.3227000000000001,-127.18254585786678
-0.3217,-125.3858625070382
-0.3207000000000001,-123.95700409417452
-0.3197,-122.25935053433648
-0.3187000000000001,-120.34949027951868
-0.3177,-118.99136743164823
-0.3167000000000001,-117.36444943680344
-0.3157,-115.63850165096811
-0.3147000000000001,-113.9549952041287
-0.3137,-112.34222432228256
-0.3127000000000001,-110.81433611842832
-0.3117,-109.35718347956733
-0.3107000000000001,-107.75855971071984
-0.3097,-106.41458397584806
-0.3087000000000001,-104.85840154599651
-0.3077,-103.17489509915713
-0.3067000000000001,-101.44894731332178
-0.30569999999999997,-99.83617643147564
-0.3047000000000001,-98.37902379261465
-0.30369999999999997,-96.96431249274961
-0.3027000000000001,-95.90327901785083
-0.30169999999999997,-94.3753908139966
-0.3007000000000001,-92.88994394913831
-0.29969999999999997,-91.57426244026381
-0.2987000000000001,-90.04637423640959
-0.29769999999999996,-88.7589869535324
-0.2967000000000001,-87.30183431467142
-0.29569999999999996,-85.84468167581042
-0.2947000000000001,-84.42997037594539
-0.29369999999999996,-83.10014175407225
-0.29270000000000007,-81.84104869719238
-0.29169999999999996,-80.15754225035298
-0.29070000000000007,-78.8984491934731
-0.28969999999999996,-77.58276768459861
-0.28870000000000007,-76.21049772372953
-0.28769999999999996,-74.97969889284694
-0.28670000000000007,-73.53669336698461
-0.28569999999999995,-72.15027629311687
-0.28470000000000006,-70.94777168823158
-0.28369999999999995,-69.71697285734902
-0.28270000000000006,-68.52861536546239
-0.28169999999999995,-67.28366942158114
-0.28070000000000006,-66.03872347769992
-0.27969999999999995,-64.79377753381868
-0.27870000000000006,-63.44980179894689
-0.27769999999999995,-62.09167895107646
-0.27670000000000006,-60.832585894196576
-0.27569999999999995,-59.67252262830725
-0.27470000000000006,-58.583194927411164
-0.27369999999999994,-57.33824898352994
-0.27270000000000005,-56.22062705663656
-0.27169999999999994,-54.975681112755325
-0.27070000000000005,-54.02782454184575
-0.26969999999999994,-53.065820857937524
-0.26870000000000005,-51.934051818045496
-0.26769999999999994,-50.97204813413727
