Potential V vs RHE, Current mA cm-2
0.013299999999999867,0.3031726315610774
0.012299999999999978,-1.92117794521672
0.011299999999999866,-3.971094618721158
0.010299999999999976,-5.847001802342197
0.009299999999999864,-7.635196885371603
0.008299999999999974,-9.205526428221793
0.007299999999999862,-10.688143870480351
0.006299999999999972,-12.084463923447142
0.00529999999999986,-13.3930718758223
0.0042999999999999705,-14.61396772760583
0.0032999999999998586,-15.78817810649381
0.0022999999999999687,-16.919947146385837
0.0012999999999998568,-18.009274847281915
0.00029999999999996696,-19.01371987018609
-0.000700000000000145,-19.97572355409432
-0.0017000000000000348,-20.85284456001064
-0.0027000000000001467,-21.63093577493641
-0.0037000000000000366,-22.38073276386488
-0.0047000000000001485,-23.073941300798747
-0.005700000000000038,-23.767149837732617
-0.00670000000000015,-24.432064148669184
-0.00770000000000004,-25.0828313466071
-0.008700000000000152,-25.73359854454502
-0.009700000000000042,-26.34192440348698
-0.010700000000000154,-26.907808923433
-0.011700000000000044,-27.43125210438306
-0.012700000000000156,-27.912253946337174
-0.013700000000000045,-28.350814449295335
-0.014700000000000157,-28.746933613257543
-0.015700000000000047,-29.14305277721976
-0.01670000000000016,-29.525024828183312
-0.01770000000000005,-29.96358533114148
-0.01870000000000016,-30.359704495103685
-0.01970000000000005,-30.7558236590659
-0.020700000000000163,-31.095354371033505
-0.021700000000000053,-31.40659085700382
-0.022700000000000164,-31.717827342974125
-0.023700000000000054,-31.972475376949827
-0.024700000000000166,-32.24127052392419
-0.025700000000000056,-32.45347721890394
-0.026700000000000168,-32.70812525287965
-0.027700000000000058,-33.01936173884996
-0.02870000000000017,-33.288156885824314
-0.02970000000000006,-33.54280491980002
-0.03070000000000017,-33.85404140577033
-0.03170000000000006,-34.06624810075008
-0.03270000000000017,-34.278454795729836
-0.03370000000000006,-34.462367264712285
-0.034700000000000175,-34.58969128170015
-0.035700000000000065,-34.8018979766799
-0.03670000000000018,-35.02825178465831
-0.03770000000000007,-35.240458479638065
-0.03870000000000018,-35.46681228761647
-0.03970000000000007,-35.679018982596226
-0.04070000000000018,-35.90537279057463
-0.04170000000000007,-36.07513814655844
-0.04270000000000018,-36.20246216354629
-0.04370000000000007,-36.329786180534136
-0.044700000000000184,-36.5136986495166
-0.045700000000000074,-36.64102266650445
-0.046700000000000186,-36.768346683492304
-0.047700000000000076,-36.99470049147071
-0.04870000000000019,-37.206907186450465
-0.04970000000000008,-37.41911388143023
-0.05070000000000019,-37.60302635041268
-0.05170000000000008,-37.73035036740053
-0.05270000000000019,-37.85767438438838
-0.05370000000000008,-37.99914551437489
-0.05470000000000019,-38.08402819236679
-0.05570000000000008,-38.211352209354644
-0.056700000000000195,-38.33867622634249
-0.057700000000000085,-38.522588695324956
-0.058700000000000196,-38.692354051308754
-0.059700000000000086,-38.86211940729255
-0.0607000000000002,-39.046031876275016
-0.06170000000000009,-39.173355893262865
-0.0627000000000002,-39.30067991025072
-0.06370000000000009,-39.38556258824262
-0.0647000000000002,-39.47044526623452
-0.06570000000000009,-39.56947505722508
-0.0667000000000002,-39.696799074212926
-0.0677000000000001,-39.86656443019674
-0.0687000000000002,-39.99388844718459
-0.0697000000000001,-40.177800916167044
-0.07070000000000021,-40.34756627215084
-0.0717000000000001,-40.43244895014274
-0.07270000000000021,-40.559772967130606
-0.0737000000000001,-40.65880275812115
-0.07470000000000021,-40.743685436113054
-0.0757000000000001,-40.828568114104954
-0.07670000000000021,-40.99833347008877
-0.0777000000000001,-41.182245939071215
-0.07870000000000021,-41.352011295055014
-0.0797000000000001,-41.47933531204288
-0.08070000000000022,-41.66324778102533
-0.0817000000000001,-41.74813045901723
-0.08270000000000022,-41.83301313700913
-0.08370000000000011,-41.96033715399699
-0.08470000000000022,-42.00277849299294
-0.08570000000000011,-42.130102509980794
-0.08670000000000022,-42.2715736399673
-0.08770000000000011,-42.39889765695515
-0.08870000000000022,-42.568663012938956
-0.08970000000000011,-42.71013414292546
-0.09070000000000022,-42.87989949890926
-0.09170000000000011,-43.007223515897124
-0.09270000000000023,-43.09210619388902
-0.09370000000000012,-43.17698887188092
-0.09470000000000023,-43.27601866287147
-0.09570000000000012,-43.36090134086337
-0.09670000000000023,-43.44578401885527
-0.09770000000000012,-43.53066669684718
-0.09870000000000023,-43.70043205283099
-0.09970000000000012,-43.88434452181344
-0.10070000000000023,-44.011668538801295
-0.10170000000000012,-44.181433894785094
-0.10270000000000024,-44.36534636376755
-0.10370000000000013,-44.535111719751356
-0.10470000000000024,-44.74731841473111
-0.10570000000000013,-44.88878954471762
-0.10670000000000024,-45.05855490070142
-0.10770000000000013,-45.27076159568118
-0.10870000000000024,-45.45467406466363
-0.10970000000000013,-45.624439420647434
-0.11070000000000024,-45.75176343763528
-0.11170000000000013,-45.89323456762179
-0.11270000000000002,-46.02055858460964
-0.11370000000000013,-46.147882601597495
-0.11470000000000002,-46.27520661858535
-0.11570000000000014,-46.45911908756781
-0.11670000000000003,-46.67132578254756
-0.11770000000000014,-46.88353247752732
-0.11870000000000003,-47.10988628550572
-0.11970000000000014,-47.27965164148953
-0.12070000000000003,-47.46356411047198
-0.12170000000000014,-47.54844678846388
-0.12270000000000003,-47.633329466455784
-0.12370000000000014,-47.76065348344364
-0.12470000000000003,-47.8879775004315
-0.12570000000000014,-48.071889969413945
-0.12670000000000003,-48.2840966643937
-0.12770000000000015,-48.45386202037751
-0.12870000000000004,-48.72265716735186
-0.12970000000000015,-48.93486386233162
-0.13070000000000004,-49.16121767031002
-0.13170000000000015,-49.33098302629383
-0.13270000000000004,-49.557336834272235
-0.13370000000000015,-49.642219512264134
-0.13470000000000004,-49.76954352925199
-0.13570000000000015,-49.85442620724389
-0.13670000000000004,-49.98175022423175
-0.13770000000000016,-50.1656626932142
-0.13870000000000005,-50.29298671020206
-0.13970000000000016,-50.50519340518181
-0.14070000000000005,-50.68910587416426
-0.14170000000000016,-50.85887123014807
-0.14270000000000005,-50.98619524713592
-0.14370000000000016,-51.071077925127824
-0.14470000000000005,-51.21254905511432
-0.14570000000000016,-51.33987307210218
-0.14670000000000005,-51.509638428085985
-0.14770000000000016,-51.69355089706845
-0.14870000000000005,-51.86331625305225
-0.14970000000000017,-52.075522948032
-0.15070000000000006,-52.30187675601041
-0.15170000000000017,-52.42920077299826
-0.15270000000000006,-52.514083450990164
-0.15370000000000017,-52.59896612898206
-0.15470000000000006,-52.69799591997262
-0.15570000000000017,-52.82531993696047
-0.15670000000000006,-52.95264395394832
-0.15770000000000017,-53.16485064892808
-0.15870000000000006,-53.348763117910536
-0.15970000000000018,-53.56096981289029
-0.16070000000000007,-53.74488228187274
-0.16170000000000018,-53.91464763785655
-0.16270000000000007,-54.08441299384035
-0.16370000000000018,-54.2117370108282
-0.16470000000000007,-54.31076680181876
-0.16570000000000018,-54.43809081880661
-0.16670000000000007,-54.56541483579447
-0.16770000000000018,-54.69273885278232
-0.16870000000000007,-54.919092660760725
-0.16970000000000018,-55.13129935574048
-0.17070000000000007,-55.31521182472294
-0.17170000000000019,-55.484977180706736
-0.17270000000000008,-55.612301197694585
-0.1737000000000002,-55.73962521468245
-0.17470000000000008,-55.881096344668954
-0.1757000000000002,-56.008420361656796
-0.17670000000000008,-56.1781857176406
-0.1777000000000002,-56.36209818662306
-0.17870000000000008,-56.57430488160282
-0.1797000000000002,-56.74407023758662
-0.18070000000000008,-57.012865384560975
-0.1817000000000002,-57.14018940154883
-0.18270000000000008,-57.30995475753264
-0.1837000000000002,-57.352396096528594
-0.1847000000000001,-57.45142588751914
-0.1857000000000002,-57.62119124350295
-0.1867000000000001,-57.8333979384827
-0.1877000000000002,-58.05975174646111
-0.1887000000000001,-58.22951710244491
-0.1897000000000002,-58.498312249419264
-0.1907000000000001,-58.71051894439902
-0.1917000000000001,-58.880284300382826
-0.19269999999999998,-59.02175543036933
-0.1937000000000001,-59.14907944735718
-0.19469999999999998,-59.27640346434504
-0.1957000000000001,-59.403727481332886
-0.19669999999999999,-59.54519861131939
-0.1977000000000001,-59.7149639673032
-0.1987,-59.9696120012789
-0.1997000000000001,-60.15352447026136
-0.2007,-60.32328982624517
-0.2017000000000001,-60.49305518222897
-0.2027,-60.63452631221547
-0.2037000000000001,-60.80429166819927
-0.2047,-60.93161568518713
-0.2057000000000001,-61.07308681517363
-0.2067,-61.242852171157445
-0.2077000000000001,-61.455058866137186
-0.2087,-61.63897133511965
-0.2097000000000001,-61.80873669110345
-0.2107,-61.97850204708726
-0.2117000000000001,-62.06338472507916
-0.2127,-62.16241451606972
-0.2137000000000001,-62.24729719406162
-0.2147,-62.33217987205352
-0.2157000000000001,-62.501945228037314
-0.2167,-62.64341635802381
-0.21770000000000012,-62.81318171400764
-0.2187,-63.02538840898739
-0.21970000000000012,-63.251742216965795
-0.2207,-63.421507572949594
-0.22170000000000012,-63.59127292893339
-0.2227,-63.732744058919906
-0.22370000000000012,-63.81762673691181
-0.2247,-63.944950753899654
-0.22570000000000012,-64.02983343189156
-0.2267,-64.15715744887942
-0.22770000000000012,-64.34106991786187
-0.22870000000000001,-64.51083527384567
-0.22970000000000013,-64.77963042082003
-0.23070000000000002,-64.99183711579978
-0.23170000000000013,-65.20404381077954
-0.23270000000000002,-65.43039761875795
-0.23370000000000013,-65.60016297474175
-0.23470000000000002,-65.76992833072556
-0.23570000000000013,-65.95384079970802
-0.23670000000000002,-66.12360615569182
-0.2376999999999999,-66.29337151167562
-0.23870000000000002,-66.51972531965401
-0.2396999999999999,-66.77437335362974
-0.24070000000000003,-67.00072716160814
-0.24169999999999991,-67.21293385658788
-0.24270000000000003,-67.39684632557035
-0.24369999999999992,-67.65149435954605
-0.24470000000000003,-67.82125971552985
-0.24569999999999992,-68.0051721845123
-0.24670000000000003,-68.25982021848802
-0.24769999999999992,-68.48617402646643
-0.24870000000000003,-68.69838072144618
-0.24969999999999992,-68.96717586842054
-0.25070000000000003,-69.1793825634003
-0.2516999999999999,-69.39158925838004
-0.25270000000000004,-69.61794306635846
-0.2536999999999999,-69.78770842234226
-0.25470000000000004,-69.95747377832606
-0.2556999999999999,-70.09894490831257
-0.25670000000000004,-70.31115160329232
-0.25769999999999993,-70.57994675026669
-0.25870000000000004,-70.8345947842424
-0.25969999999999993,-71.10338993121674
-0.26070000000000004,-71.35803796519245
-0.26169999999999993,-71.58439177317086
-0.26270000000000004,-71.75415712915466
-0.26369999999999993,-71.92392248513846
-0.26470000000000005,-72.10783495412092
-0.26569999999999994,-72.27760031010472
-0.26670000000000005,-72.53224834408043
-0.26769999999999994,-72.80104349105478
-0.26870000000000005,-73.0556915250305
-0.26969999999999994,-73.40936934999675
-0.27070000000000005,-73.76304717496302
-0.27169999999999994,-74.0176952089387
-0.27270000000000005,-74.28649035591307
-0.27369999999999994,-74.49869705089283
-0.27470000000000006,-74.66846240687663
-0.27569999999999995,-74.8523748758591
-0.27670000000000006,-74.97969889284694
-0.27769999999999995,-75.14946424883075
-0.27870000000000006,-75.33337671781321
-0.27969999999999995,-75.54558341279296
-0.28070000000000006,-75.77193722077136
-0.28169999999999995,-75.98414391575112
-0.28270000000000006,-76.19635061073087
-0.28369999999999995,-76.42270441870929
-0.28470000000000006,-76.63491111368903
-0.28569999999999995,-76.86126492166746
-0.28670000000000007,-77.1583542946391
-0.28769999999999996,-77.42714944161345
-0.28870000000000007,-77.68179747558916
-0.28969999999999996,-77.90815128356756
-0.29070000000000007,-78.12035797854733
-0.29169999999999996,-78.33256467352709
-0.29270000000000007,-78.55891848150549
-0.29369999999999996,-78.72868383748929
-0.2947000000000001,-78.91259630647174
-0.29569999999999996,-79.08236166245555
-0.2967000000000001,-79.33700969643127
-0.29769999999999996,-79.60580484340561
-0.2987000000000001,-79.86045287738132
-0.29969999999999997,-80.12924802435568
-0.3007000000000001,-80.34145471933543
-0.30169999999999997,-80.52536718831789
-0.3027000000000001,-80.69513254430169
-0.30369999999999997,-80.86489790028548
-0.3047000000000001,-80.99222191727335
-0.30569999999999997,-81.1761343862558
-0.3067000000000001,-81.38834108123557
-0.3077,-81.61469488921396
-0.3087000000000001,-81.86934292318966
-0.3097,-82.09569673116808
-0.3107000000000001,-82.35034476514379
-0.3117,-82.52011012112759
-0.3127000000000001,-82.70402259011003
-0.3137,-82.9162292850898
-0.3147000000000001,-83.04355330207765
-0.3157,-83.18502443206415
-0.3167000000000001,-83.31234844905201
-0.3177,-83.52455514403178
-0.3187000000000001,-83.75090895201016
-0.3197,-84.04799832498183
-0.3207000000000001,-84.31679347195619
-0.3217,-84.52900016693594
-0.3227000000000001,-84.7129126359184
-0.3237,-84.84023665290624
-0.3247000000000001,-84.96756066989411
-0.3257,-85.17976736487385
-0.3267000000000001,-85.44856251184822
-0.3277,-85.70321054582392
-0.3287000000000001,-85.92956435380233
-0.3297,-86.18421238777805
-0.3307000000000001,-86.45300753475239
-0.3317,-86.75009690772404
-0.3327000000000001,-87.01889205469841
-0.3337,-87.23109874967815
-0.3347000000000001,-87.45745255765657
-0.3357,-87.75454193062824
-0.3367000000000001,-88.06577841659853
-0.3377,-88.37701490256885
-0.3387000000000001,-88.71654561453644
-0.3397,-89.07022343950271
-0.3407000000000001,-89.46634260346492
-0.3417,-89.76343197643658
-0.3427000000000001,-90.03222712341093
-0.3437,-90.32931649638259
-0.3447000000000001,-90.7254356603448
-0.3457,-91.07911348531105
-0.3467000000000001,-91.46108553627462
-0.3477,-91.94208737822873
-0.3487000000000001,-92.4655305591788
-0.3497,-92.98897374012887
-0.3507000000000001,-93.61144671206948
-0.3517,-94.07830144102493
-0.3527000000000001,-94.601744621975
-0.3537,-95.08274646392913
-0.3547000000000001,-95.56374830588322
-0.3557,-96.0871914868333
-0.35670000000000013,-96.65307600677932
-0.3577,-97.31799031771587
-0.35870000000000013,-97.96875751565379
-0.3597,-98.66196605258766
-0.36070000000000013,-99.41176304151614
-0.3617,-100.10497157844999
-0.3626999999999999,-100.84062145437981
-0.3637,-101.6753011213002
-0.3646999999999999,-102.5524221272165
-0.3657,-103.41539602013418
-0.3666999999999999,-104.3773997040424
-0.3677,-105.38184472694657
-0.3686999999999999,-106.4287310888467
-0.36970000000000003,-107.47561745074682
-0.3706999999999999,-108.64982782963483
-0.37170000000000003,-109.92306799951335
-0.3726999999999999,-111.18216105639323
-0.37370000000000003,-112.44125411327312
-0.3746999999999999,-113.71449428315165
-0.37570000000000003,-115.05847001802343
-0.3766999999999999,-116.58635822187767
-0.37770000000000004,-118.15668776472786
-0.3786999999999999,-119.769458646574
-0.37970000000000004,-121.56614199740261
-0.3806999999999999,-123.43356091322445
-0.38170000000000004,-125.44245095903281
-0.38269999999999993,-127.4088996658452
-0.38370000000000004,-129.50267238964545
-0.38469999999999993,-131.72376913043357
-0.38570000000000004,-133.9873072102176
-0.38669999999999993,-134.69466286015015
-0.38570000000000004,-132.6857728143418
-0.38469999999999993,-131.15788461048754
-0.38370000000000004,-129.98367423159957
-0.38269999999999993,-129.02167054769134
-0.38170000000000004,-128.2294322197669
-0.3806999999999999,-127.45134100484115
-0.37970000000000004,-126.75813246790726
-0.3786999999999999,-126.23468928695722
-0.37770000000000004,-125.79612878399907
-0.3766999999999999,-125.44245095903281
-0.37570000000000003,-125.14536158606113
-0.3746999999999999,-124.87656643908679
-0.37370000000000003,-124.70680108310299
-0.3726999999999999,-124.52288861412055
-0.37170000000000003,-124.35312325813672
-0.3706999999999999,-124.22579924114888
-0.36970000000000003,-124.05603388516508
-0.3686999999999999,-123.87212141618261
-0.3677,-123.65991472120285
-0.3666999999999999,-123.43356091322445
-0.3657,-123.26379555724066
-0.3646999999999999,-123.09403020125686
-0.3637,-122.86767639327843
-0.3626999999999999,-122.74035237629057
-0.3617,-122.42911589032028
-0.36070000000000013,-122.1320265173486
-0.3597,-121.82079003137831
-0.35870000000000013,-121.48125931941068
-0.3577,-121.0851401554485
-0.35670000000000013,-120.68902099148629
-0.3557,-120.39193161851462
-0.3547000000000001,-120.03825379354835
-0.3537,-119.5996932905902
-0.3527000000000001,-119.16113278763203
-0.3517,-118.63768960668197
-0.3507000000000001,-118.07180508673595
-0.3497,-117.50592056678994
-0.3487000000000001,-116.89759470784797
-0.3477,-116.28926884890602
-0.3467000000000001,-115.68094298996405
-0.3457,-115.01602867902749
-0.3447000000000001,-114.36526148108955
-0.3437,-113.71449428315165
-0.3427000000000001,-113.06372708521374
-0.3417,-112.27148875728932
-0.3407000000000001,-111.4509562033676
-0.3397,-110.57383519745127
-0.3387000000000001,-109.8240382085228
-0.3377,-109.08838833259297
-0.3367000000000001,-108.3102971176672
-0.3357,-107.51805878974278
-0.3347000000000001,-106.78240891381296
-0.3337,-106.0326119248845
-0.3327000000000001,-105.21207937096277
-0.3317,-104.2925170260505
-0.3307000000000001,-103.33051334214227
-0.3297,-102.3260683192381
-0.3287000000000001,-101.27918195733798
-0.3277,-100.2747369344338
-0.3267000000000001,-99.27029191152963
-0.3257,-98.3082882276214
-0.3247000000000001,-97.31799031771587
-0.3237,-96.3984279728036
-0.3227000000000001,-95.43642428889537
-0.3217,-94.47442060498715
-0.3207000000000001,-93.46997558208298
-0.3197,-92.3806478811869
-0.3187000000000001,-91.29132018029082
-0.3177,-90.24443381839069
-0.3167000000000001,-89.19754745649055
-0.3157,-88.10821975559449
-0.3147000000000001,-87.06133339369435
-0.3137,-85.97200569279828
-0.3127000000000001,-84.8826779919022
-0.3117,-83.79335029100612
-0.3107000000000001,-82.61913991211814
-0.3097,-81.47322375922747
-0.3087000000000001,-80.29901338033947
-0.3077,-79.16724434044745
-0.3067000000000001,-77.99303396155948
-0.30569999999999997,-76.86126492166746
-0.3047000000000001,-75.71534876877676
-0.30369999999999997,-74.58357972888473
-0.3027000000000001,-73.45181068899271
-0.30169999999999997,-72.27760031010472
-0.3007000000000001,-71.10338993121674
-0.29969999999999997,-69.87259110033416
-0.2987000000000001,-68.65593938245023
-0.29769999999999996,-67.48172900356225
-0.2967000000000001,-66.34995996367022
-0.29569999999999996,-65.20404381077954
-0.2947000000000001,-64.0722747708875
-0.29369999999999996,-63.02538840898739
-0.29270000000000007,-61.89361936909536
-0.29169999999999996,-60.71940899020737
-0.29070000000000007,-59.54519861131939
-0.28969999999999996,-58.31439978043681
-0.28870000000000007,-57.097748062552874
-0.28769999999999996,-55.96597902266086
-0.28670000000000007,-54.834209982768826
-0.28569999999999995,-53.74488228187274
-0.28470000000000006,-52.59896612898206
-0.28369999999999995,-51.55207976708194
-0.28270000000000006,-50.46275206618586
-0.28169999999999995,-49.28854168729788
-0.28070000000000006,-48.114331308409895
-0.27969999999999995,-46.94012092952192
-0.27870000000000006,-45.75176343763528
-0.27769999999999995,-44.619994397743255
-0.27670000000000006,-43.53066669684718
-0.27569999999999995,-42.483780334947056
-0.27470000000000006,-41.39445263405098
-0.27369999999999994,-40.34756627215084
-0.27270000000000005,-39.30067991025072
-0.27169999999999994,-38.211352209354644
-0.27070000000000005,-37.122024508458566
-0.26969999999999994,-35.99025546856653
-0.26870000000000005,-34.85848642867451
-0.26769999999999994,-33.712570275783825
-0.26670000000000005,-32.66568391388369
-0.26569999999999994,-31.57635621298762
-0.26470000000000005,-30.571911190083444
