Potential V vs RHE, Current mA cm-2
0.013299999999999867,0.4327601866287147
0.012299999999999978,-0.7705932450364854
0.011299999999999866,-1.3767970370286537
0.010299999999999976,-1.7301919197349398
0.009299999999999864,-1.9706928407119961
0.008299999999999974,-2.124896372397285
0.007299999999999862,-2.235243853786758
0.006299999999999972,-2.3243706656782552
0.00529999999999986,-2.4092533436701573
0.0042999999999999705,-2.49696544426179
0.0032999999999998586,-2.554968607556256
0.0022999999999999687,-2.6058982143513973
0.0012999999999998568,-2.661071955046134
0.00029999999999996696,-2.7148309844410052
-0.000700000000000145,-2.7742488590353367
-0.0017000000000000348,-2.820934331930883
-0.0027000000000001467,-2.8605462483271045
-0.0037000000000000366,-2.8916698969241352
-0.0047000000000001485,-2.932696524620221
-0.005700000000000038,-2.9836261314153627
-0.00670000000000015,-3.034555738210504
-0.00770000000000004,-3.054361696408614
-0.008700000000000152,-3.0854853450056448
-0.009700000000000042,-3.125097261401866
-0.010700000000000154,-3.174612156897142
-0.011700000000000044,-3.1972475376949827
-0.012700000000000156,-3.217053495893093
-0.013700000000000045,-3.238274165391069
-0.014700000000000157,-3.2821302156868852
-0.015700000000000047,-3.317497998183511
-0.01670000000000016,-3.3486216467805416
-0.01770000000000005,-3.3726717388782474
-0.01870000000000016,-3.3740864501781123
-0.01970000000000005,-3.4136983665743337
-0.020700000000000163,-3.4632132620696097
-0.021700000000000053,-3.4886780654671803
-0.022700000000000164,-3.508484023665291
-0.023700000000000054,-3.5212164253640763
-0.024700000000000166,-3.553754785260972
-0.025700000000000056,-3.593366701657193
-0.026700000000000168,-3.6145873711551686
-0.027700000000000058,-3.6329786180534143
-0.02870000000000017,-3.6499551536517942
-0.02970000000000006,-3.67966409094896
-0.03070000000000017,-3.7122024508458558
-0.03170000000000006,-3.7206907186450464
-0.03270000000000017,-3.7362525429435625
-0.03370000000000006,-3.7560585011416725
-0.034700000000000175,-3.7786938819395126
-0.035700000000000065,-3.819720509635599
-0.03670000000000018,-3.85367358083236
-0.03770000000000007,-3.8649912712312804
-0.03870000000000018,-3.881967806829661
-0.03970000000000007,-3.887626652029121
-0.04070000000000018,-3.9300679910250715
-0.04170000000000007,-3.962606350921967
-0.04270000000000018,-3.9725093300210226
-0.04370000000000007,-3.986656443019674
-0.044700000000000184,-4.0121212464172435
-0.045700000000000074,-4.0446596063141405
-0.046700000000000186,-4.078612677510901
-0.047700000000000076,-4.078612677510901
-0.04870000000000019,-4.091345079209686
-0.04970000000000008,-4.122468727806717
-0.05070000000000019,-4.142274686004828
-0.05170000000000008,-4.166324778102533
-0.05270000000000019,-4.1833013137009125
-0.05370000000000008,-4.198863137999429
-0.05470000000000019,-4.23281620919619
-0.05570000000000008,-4.254036878694166
-0.056700000000000195,-4.290819372490656
-0.057700000000000085,-4.307795908089036
-0.058700000000000196,-4.316284175888227
-0.059700000000000086,-4.334675422786473
-0.0607000000000002,-4.364384360083638
-0.06170000000000009,-4.405410987779724
-0.0627000000000002,-4.430875791177296
-0.06370000000000009,-4.419558100778375
-0.0647000000000002,-4.447852326775675
-0.06570000000000009,-4.473317130173245
-0.0667000000000002,-4.493123088371357
-0.0677000000000001,-4.525661448268252
-0.0687000000000002,-4.532735004767577
-0.0697000000000001,-4.546882117766228
-0.07070000000000021,-4.5893234567621795
-0.0717000000000001,-4.613373548859885
-0.07270000000000021,-4.627520661858535
-0.0737000000000001,-4.6487413313565105
-0.07470000000000021,-4.671376712154351
-0.0757000000000001,-4.703915072051247
-0.07670000000000021,-4.736453431948143
-0.0777000000000001,-4.7463564110471985
-0.07870000000000021,-4.776065348344364
-0.0797000000000001,-4.793041883942744
-0.08070000000000022,-4.82275082123991
-0.0817000000000001,-4.852459758537076
-0.08270000000000022,-4.8595333150364
-0.08370000000000011,-4.883583407134107
-0.08470000000000022,-4.906218787931947
-0.08570000000000011,-4.9444159930283025
-0.08670000000000022,-4.9840279094245235
-0.08770000000000011,-4.998175022423175
-0.08870000000000022,-5.01373684672169
-0.08970000000000011,-5.050519340518181
-0.09070000000000022,-5.084472411714942
-0.09170000000000011,-5.112766637712243
-0.09270000000000023,-5.128328462010757
-0.09370000000000012,-5.132572595910353
-0.09470000000000023,-5.167940378406978
-0.09570000000000012,-5.191990470504685
-0.09670000000000023,-5.235846520800501
-0.09770000000000012,-5.259896612898206
-0.09870000000000023,-5.274043725896856
-0.09970000000000012,-5.307996797093617
-0.10070000000000023,-5.347608713489839
-0.10170000000000012,-5.385805918586194
-0.10270000000000024,-5.40136774288471
-0.10370000000000013,-5.39853832028498
-0.10470000000000024,-5.432491391481741
-0.10570000000000013,-5.467859173978367
-0.10670000000000024,-5.503226956474993
-0.10770000000000013,-5.531521182472294
-0.10870000000000024,-5.544253584171079
-0.10970000000000013,-5.569718387568649
-0.11070000000000024,-5.62064799436379
-0.11170000000000013,-5.648942220361092
-0.11270000000000002,-5.6715776011589325
-0.11370000000000013,-5.687139425457448
-0.11470000000000002,-5.699871827156233
-0.11570000000000014,-5.746557300051779
-0.11670000000000003,-5.77768094864881
-0.11770000000000014,-5.80314575204638
-0.11870000000000003,-5.818707576344896
-0.11970000000000014,-5.838513534543006
-0.12070000000000003,-5.893687275237743
-0.12170000000000014,-5.938958036833425
-0.12270000000000003,-5.954519861131939
-0.12370000000000014,-5.963008128931129
-0.12470000000000003,-5.981399375829374
-0.12570000000000014,-6.01393773572627
-0.12670000000000003,-6.0592084973219515
-0.12770000000000015,-6.067696765121143
-0.12870000000000004,-6.088917434619118
-0.12970000000000015,-6.1186263719162834
-0.13070000000000004,-6.155408865712774
-0.13170000000000015,-6.221900296806432
-0.13270000000000004,-6.230388564605621
-0.13370000000000015,-6.250194522803732
-0.13470000000000004,-6.267171058402113
-0.13570000000000015,-6.291221150499819
-0.13670000000000004,-6.333662489495769
-0.13770000000000016,-6.374689117191855
-0.13870000000000005,-6.381762673691181
-0.13970000000000016,-6.404398054489021
-0.14070000000000005,-6.4397658369856465
-0.14170000000000016,-6.482207175981599
-0.14270000000000005,-6.506257268079304
-0.14370000000000016,-6.53030736017701
-0.14470000000000005,-6.55577216357458
-0.14570000000000016,-6.579822255672285
-0.14670000000000005,-6.615190038168912
-0.14770000000000016,-6.666119644964053
-0.14870000000000005,-6.6760226240631075
-0.14970000000000017,-6.691584448361623
-0.15070000000000006,-6.7340257873575755
-0.15170000000000017,-6.77222299245393
-0.15270000000000006,-6.804761352350826
-0.15370000000000017,-6.833055578348127
-0.15470000000000006,-6.828811444448532
-0.15570000000000017,-6.878326339943808
-0.15670000000000006,-6.920767678939759
-0.15770000000000017,-6.941988348437734
-0.15870000000000006,-6.963209017935711
-0.15970000000000018,-6.975941419634496
-0.16070000000000007,-7.022626892530043
-0.16170000000000018,-7.067897654125724
-0.16270000000000007,-7.110338993121674
-0.16370000000000018,-7.152780332117626
-0.16470000000000007,-7.195221671113577
-0.16570000000000018,-7.220686474511147
-0.16670000000000007,-7.280104349105479
-0.16770000000000018,-7.288592616904668
-0.16870000000000007,-7.271616081306289
-0.16970000000000018,-7.311227997702509
-0.17070000000000007,-7.374890006196437
-0.17170000000000019,-7.401769520893872
-0.17270000000000008,-7.421575479091982
-0.1737000000000002,-7.428649035591308
-0.17470000000000008,-7.48806691018564
-0.1757000000000002,-7.53050824918159
-0.17670000000000008,-7.598414391575112
-0.1777000000000002,-7.638026307971333
-0.17870000000000008,-7.6408557305710625
-0.1797000000000002,-7.69037062606634
-0.18070000000000008,-7.744129655461211
-0.1817000000000002,-7.793644550956487
-0.18270000000000008,-7.837500601252304
-0.1837000000000002,-7.8431594464517636
-0.1847000000000001,-7.874283095048795
-0.1857000000000002,-7.935115680942991
-0.1867000000000001,-7.990289421637726
-0.1877000000000002,-8.038389605833139
-0.1887000000000001,-8.080830944829088
-0.1897000000000002,-8.113369304725985
-0.1907000000000001,-8.195422560118157
-0.1917000000000001,-8.26049927991195
-0.19269999999999998,-8.328405422305472
-0.1937000000000001,-8.368017338701693
-0.19469999999999998,-8.424605790696294
-0.1957000000000001,-8.486853087890356
-0.19669999999999999,-8.566076920682798
-0.1977000000000001,-8.600029991879557
-0.1987,-8.629738929176723
-0.1997000000000001,-8.689156803771056
-0.2007,-8.788186594761608
-0.2017000000000001,-8.87306927275351
-0.2027,-8.93531656994757
-0.2037000000000001,-8.986246176742714
-0.2047,-9.037175783537855
-0.2057000000000001,-9.122058461529756
-0.2067,-9.21542940732085
-0.2077000000000001,-9.264944302816126
-0.2087,-9.321532754810727
-0.2097000000000001,-9.413488989301953
-0.2107,-9.511104068992642
-0.2117000000000001,-9.601645592184004
-0.2127,-9.65398991027901
-0.2137000000000001,-9.737457876971048
-0.2147,-9.843561224460924
-0.2157000000000001,-9.992105910946753
-0.2167,-10.098209258436631
-0.21770000000000012,-10.171774246029615
-0.2187,-10.231192120623945
-0.21970000000000012,-10.314660087315982
-0.2207,-10.42359285740559
-0.22170000000000012,-10.519793225796413
-0.2227,-10.632970129785615
-0.22370000000000012,-10.743317611175089
-0.2247,-10.839517979565912
-0.22570000000000012,-10.935718347956733
-0.2267,-11.0503099632458
-0.22770000000000012,-11.197439938431765
-0.22870000000000001,-11.282322616423668
-0.22970000000000013,-11.35588760401665
-0.23070000000000002,-11.497358734003152
-0.23170000000000013,-11.624682750991006
-0.23270000000000002,-11.76049503577805
-0.23370000000000013,-11.872257228467388
-0.23470000000000002,-12.002410668054972
-0.23570000000000013,-12.155199488440394
-0.23670000000000002,-12.343356091322446
-0.2376999999999999,-12.442385882312998
-0.23870000000000002,-12.52160971510544
-0.2396999999999999,-12.69278978238911
-0.24070000000000003,-12.875287540071698
-0.24169999999999991,-13.08325010115186
-0.24270000000000003,-13.216232963339174
-0.24369999999999992,-13.373265917624192
-0.24470000000000003,-13.50483406851164
-0.24569999999999992,-13.640646353298685
-0.24670000000000003,-13.861341316077631
-0.24769999999999992,-14.05515676415914
-0.24870000000000003,-14.217848563643619
-0.24969999999999992,-14.430055258623375
-0.25070000000000003,-14.61396772760583
-0.2516999999999999,-14.826174422585586
-0.25270000000000004,-15.03838111756534
-0.2536999999999999,-15.250587812545096
-0.25470000000000004,-15.462794507524851
-0.2556999999999999,-15.759883880496508
-0.25670000000000004,-16.085267479465468
-0.25769999999999993,-16.396503965435777
-0.25870000000000004,-16.651151999411482
-0.25969999999999993,-16.94824137238314
-0.26070000000000004,-17.301919197349395
-0.26169999999999993,-17.698038361311607
-0.26270000000000004,-18.10830463827247
-0.26369999999999993,-18.518570915233333
-0.26470000000000005,-18.94298430519284
-0.26569999999999994,-19.452280373144255
-0.26670000000000005,-20.046459119087572
-0.26769999999999994,-20.584049413036283
-0.26870000000000005,-21.2348166109742
-0.26969999999999994,-21.91387803490942
-0.27070000000000005,-22.67782213683654
-0.27169999999999994,-23.51250180375691
-0.27270000000000005,-24.417917035670534
-0.27369999999999994,-25.37992071957876
-0.27470000000000006,-26.398512855481584
-0.27569999999999995,-27.58687034736821
-0.27670000000000006,-28.91669896924135
-0.27769999999999995,-30.444587173095588
-0.27870000000000006,-32.04321094194308
-0.27969999999999995,-33.68427604978652
-0.28070000000000006,-35.693166095594876
-0.28169999999999995,-37.85767438438838
-0.28270000000000006,-40.12121246417244
-0.28369999999999995,-42.582810125937606
-0.28470000000000006,-45.18587891768927
-0.28569999999999995,-47.972860178423396
-0.28670000000000007,-50.98619524713592
-0.28769999999999996,-54.1551485588336
-0.28870000000000007,-57.19677785354343
-0.28969999999999996,-60.35158405224246
-0.29070000000000007,-63.4780960249442
-0.29169999999999996,-66.61875511064459
-0.29270000000000007,-69.7735613093436
-0.29369999999999996,-72.90007328204534
-0.2947000000000001,-76.05487948074436
-0.29569999999999996,-79.0965087754542
-0.2967000000000001,-82.02496116617483
-0.29769999999999996,-84.8543837659049
-0.2987000000000001,-87.57062946164578
-0.29969999999999997,-90.18784536639609
-0.3007000000000001,-92.86164972314101
-0.30169999999999997,-95.47886562789132
-0.3027000000000001,-98.09608153264163
-0.30369999999999997,-100.51523785541086
-0.3047000000000001,-103.09001242116523
-0.30569999999999997,-105.56575719592904
-0.3067000000000001,-107.84344238871174
-0.3077,-110.09283335549715
-0.3087000000000001,-112.32807720928389
-0.3097,-114.4925854980774
-0.3107000000000001,-116.94003604684394
-0.3117,-119.10454433563743
-0.3127000000000001,-121.55199488440397
-0.3137,-123.87212141618261
-0.3147000000000001,-126.23468928695722
-0.3157,-128.48408025374263
-0.3167000000000001,-131.07300193249566
-0.3177,-133.64777649825
-0.3187000000000001,-135.48690118807457
-0.3197,-137.53823257287885
-0.3207000000000001,-139.50468127969125
-0.3217,-141.2872175175212
-0.3227000000000001,-143.3102546763282
-0.3237,-145.43232162612577
-0.3247000000000001,-147.83733083589632
-0.3257,-149.6764555257209
-0.3267000000000001,-151.65705134553193
-0.3277,-153.35470490536997
-0.3287000000000001,-155.05235846520802
-0.3297,-157.17442541500557
-0.3307000000000001,-159.15502123481662
-0.3317,-160.8526747946547
-0.3327000000000001,-162.40885722450622
-0.3337,-164.38945304431726
-0.3347000000000001,-165.8041643441823
-0.3357,-166.93593338407433
-0.3367000000000001,-168.77505807389886
-0.3377,-170.61418276372342
-0.3387000000000001,-172.59477858353446
-0.3397,-174.150961013386
-0.3407000000000001,-175.70714344323756
-0.3417,-176.98038361311612
-0.3427000000000001,-178.53656604296762
-0.3437,-180.09274847281918
-0.3447000000000001,-181.36598864269772
-0.3457,-182.49775768258974
-0.3467000000000001,-184.05394011244127
-0.3477,-185.6101225422928
-0.3487000000000001,-187.59071836210387
-0.3497,-188.29807401203638
-0.3507000000000001,-189.42984305192843
-0.3517,-191.41043887173947
-0.3527000000000001,-194.2398614714695
-0.3537,-196.7863418112266
-0.3547000000000001,-197.91811085111863
-0.3557,-199.04987989101065
-0.35670000000000013,-199.89870667092967
-0.3577,-199.89870667092967
-0.35870000000000013,-200.6060623208622
-0.3597,-202.44518701068677
-0.36070000000000013,-203.43548492059227
-0.3617,-204.5672539604843
-0.3626999999999999,-205.84049413036286
-0.3637,-206.83079204026836
-0.3646999999999999,-207.1137343002414
-0.3657,-207.8210899501739
-0.3666999999999999,-208.6699167300929
-0.3677,-208.8113878600794
-0.3686999999999999,-209.23580125003892
-0.36970000000000003,-210.08462802995794
-0.3706999999999999,-210.65051254990397
-0.37170000000000003,-210.79198367989048
-0.3726999999999999,-211.499339329823
-0.37370000000000003,-211.35786819983647
-0.3746999999999999,-211.499339329823
-0.37570000000000003,-211.499339329823
-0.3766999999999999,-211.64081045980947
-0.37770000000000004,-212.065223849769
-0.3786999999999999,-212.77257949970152
-0.37970000000000004,-212.914050629688
-0.3806999999999999,-213.62140627962054
-0.38170000000000004,-214.32876192955305
-0.38269999999999993,-214.32876192955305
-0.38370000000000004,-215.17758870947208
-0.38469999999999993,-216.1678866193776
-0.38570000000000004,-217.44112678925615
-0.38669999999999993,-218.00701130920217
-0.38570000000000004,-216.73377113932364
-0.38469999999999993,-214.75317531951256
-0.38370000000000004,-212.631108369715
-0.38269999999999993,-211.07492593986345
-0.38170000000000004,-209.23580125003892
-0.3806999999999999,-207.3966765602144
-0.37970000000000004,-204.8501962204573
-0.3786999999999999,-202.86960040064628
-0.37770000000000004,-201.17194684080823
-0.3766999999999999,-199.61576441095667
-0.37570000000000003,-198.20105311109162
-0.3746999999999999,-197.0692840711996
-0.37370000000000003,-194.66427486142905
-0.3726999999999999,-192.40073678164498
-0.37170000000000003,-189.8542564418879
-0.3706999999999999,-188.15660288204987
-0.36970000000000003,-189.0054296619689
-0.3686999999999999,-187.87366062207687
-0.3677,-187.16630497214436
-0.3666999999999999,-185.89306480226583
-0.3657,-184.05394011244127
-0.3646999999999999,-182.21481542261674
-0.3637,-180.23421960280567
-0.3626999999999999,-177.54626813306209
-0.3617,-178.1121526530081
-0.36070000000000013,-177.82921039303508
-0.3597,-176.13155683319707
-0.35870000000000013,-174.150961013386
-0.3577,-172.87772084350746
-0.35670000000000013,-171.32153841365593
-0.3557,-169.7653559838044
-0.3547000000000001,-168.06770242396635
-0.3537,-165.8041643441823
-0.3527000000000001,-164.24798191433075
-0.3517,-162.40885722450622
-0.3507000000000001,-160.71120366466818
-0.3497,-159.57943462477613
-0.3487000000000001,-158.02325219492457
-0.3477,-156.60854089505958
-0.3467000000000001,-155.19382959519453
-0.3457,-153.35470490536997
-0.3447000000000001,-151.5155802155454
-0.3437,-150.66675343562642
-0.3427000000000001,-149.53498439573437
-0.3417,-148.40321535584232
-0.3407000000000001,-146.8470329259908
-0.3397,-145.57379275611228
-0.3387000000000001,-143.87613919627424
-0.3377,-142.4614278964092
-0.3367000000000001,-140.50912630259543
-0.3357,-138.74073717776415
-0.3347000000000001,-137.0996720699207
-0.3337,-135.1615175891056
-0.3327000000000001,-133.12433331729994
-0.3317,-131.27106151447677
-0.3307000000000001,-129.75732042362114
-0.3297,-128.144549541775
-0.3287000000000001,-126.64495556391809
-0.3277,-125.14536158606113
-0.3267000000000001,-123.56088493021231
-0.3257,-122.0471438393567
-0.3247000000000001,-121.07099304244984
-0.3237,-119.769458646574
-0.3227000000000001,-118.43963002470086
-0.3217,-116.98247738583989
-0.3207000000000001,-115.17164692201266
-0.3197,-113.55887604016648
-0.3187000000000001,-112.03098783631226
-0.3177,-110.53139385845533
-0.3167000000000001,-109.20156523658218
-0.3157,-107.7161183717239
-0.3147000000000001,-106.49946665383996
-0.3137,-105.39599183994524
-0.3127000000000001,-104.73107752900866
-0.3117,-103.3871017941369
-0.3107000000000001,-102.31192120623945
-0.3097,-101.09526948835551
-0.3087000000000001,-99.93520622246619
-0.3077,-98.77514295657687
-0.3067000000000001,-97.47360856070102
-0.30569999999999997,-96.29939818181305
-0.3047000000000001,-94.88468688194801
-0.30369999999999997,-93.46997558208298
-0.3027000000000001,-91.92794026523009
-0.30169999999999997,-90.3576107223799
-0.3007000000000001,-88.77313406653104
-0.29969999999999997,-87.23109874967815
-0.2987000000000001,-85.60418075483337
-0.29769999999999996,-84.24605790696293
-0.2967000000000001,-82.7747581551033
-0.29569999999999996,-81.52981221122207
-0.2947000000000001,-80.00192400736783
-0.29369999999999996,-79.02577321046095
-0.29270000000000007,-77.86570994457162
-0.29169999999999996,-76.30952751472009
-0.29070000000000007,-74.9089633278537
-0.28969999999999996,-73.60742893197786
-0.28870000000000007,-72.57468968307639
-0.28769999999999996,-71.35803796519245
-0.28670000000000007,-70.19797469930313
-0.28569999999999995,-69.23597101539488
-0.28470000000000006,-68.01931929751096
-0.28369999999999995,-67.2978165345798
-0.28270000000000006,-66.18019460768642
-0.28169999999999995,-64.83621887281464
-0.28070000000000006,-63.5063902509415
-0.27969999999999995,-62.26144430706027
-0.27870000000000006,-61.10138104117093
-0.27769999999999995,-59.81399375829375
-0.27670000000000006,-58.69637183140037
-0.27569999999999995,-57.43727877452049
-0.27470000000000006,-56.24892128263386
-0.27369999999999994,-55.088858016744524
-0.27270000000000005,-53.74488228187274
-0.27169999999999994,-52.62726035497937
-0.27070000000000005,-51.580373993079235
-0.26969999999999994,-50.43445784018856
-0.26870000000000005,-49.30268880029653
-0.26769999999999994,-48.2558024383964
-0.26670000000000005,-47.27965164148953
-0.26569999999999994,-46.24691239258805
