Potential V vs RHE, Current mA cm-2
0.013299999999999867,-0.3947044526623452
0.012299999999999978,-1.5293029151541047
0.011299999999999866,-2.3569090255751513
0.010299999999999976,-2.968064307116847
0.009299999999999864,-3.403795387475278
0.008299999999999974,-3.7532290785419424
0.007299999999999862,-4.014950669016974
0.006299999999999972,-4.23281620919619
0.00529999999999986,-4.406825699079589
0.0042999999999999705,-4.538393849967037
0.0032999999999998586,-4.668547289554621
0.0022999999999999687,-4.800115440442069
0.0012999999999998568,-4.9302688800296535
0.00029999999999996696,-5.017980980621284
-0.000700000000000145,-5.105693081212917
-0.0017000000000000348,-5.149549131508733
-0.0027000000000001467,-5.149549131508733
-0.0037000000000000366,-5.191990470504685
-0.0047000000000001485,-5.191990470504685
-0.005700000000000038,-5.235846520800501
-0.00670000000000015,-5.279702571096316
-0.00770000000000004,-5.323558621392133
-0.008700000000000152,-5.367414671687949
-0.009700000000000042,-5.411270721983764
-0.010700000000000154,-5.453712060979717
-0.011700000000000044,-5.453712060979717
-0.012700000000000156,-5.411270721983764
-0.013700000000000045,-5.411270721983764
-0.014700000000000157,-5.367414671687949
-0.015700000000000047,-5.411270721983764
-0.01670000000000016,-5.411270721983764
-0.01770000000000005,-5.453712060979717
-0.01870000000000016,-5.453712060979717
-0.01970000000000005,-5.497568111275533
-0.020700000000000163,-5.497568111275533
-0.021700000000000053,-5.497568111275533
-0.022700000000000164,-5.497568111275533
-0.023700000000000054,-5.453712060979717
-0.024700000000000166,-5.453712060979717
-0.025700000000000056,-5.453712060979717
-0.026700000000000168,-5.453712060979717
-0.027700000000000058,-5.497568111275533
-0.02870000000000017,-5.497568111275533
-0.02970000000000006,-5.497568111275533
-0.03070000000000017,-5.5414241615713475
-0.03170000000000006,-5.497568111275533
-0.03270000000000017,-5.497568111275533
-0.03370000000000006,-5.453712060979717
-0.034700000000000175,-5.411270721983764
-0.035700000000000065,-5.411270721983764
-0.03670000000000018,-5.453712060979717
-0.03770000000000007,-5.411270721983764
-0.03870000000000018,-5.453712060979717
-0.03970000000000007,-5.453712060979717
-0.04070000000000018,-5.497568111275533
-0.04170000000000007,-5.453712060979717
-0.04270000000000018,-5.453712060979717
-0.04370000000000007,-5.411270721983764
-0.044700000000000184,-5.367414671687949
-0.045700000000000074,-5.411270721983764
-0.046700000000000186,-5.411270721983764
-0.047700000000000076,-5.453712060979717
-0.04870000000000019,-5.453712060979717
-0.04970000000000008,-5.453712060979717
-0.05070000000000019,-5.453712060979717
-0.05170000000000008,-5.453712060979717
-0.05270000000000019,-5.411270721983764
-0.05370000000000008,-5.367414671687949
-0.05470000000000019,-5.367414671687949
-0.05570000000000008,-5.323558621392133
-0.056700000000000195,-5.367414671687949
-0.057700000000000085,-5.367414671687949
-0.058700000000000196,-5.367414671687949
-0.059700000000000086,-5.411270721983764
-0.0607000000000002,-5.411270721983764
-0.06170000000000009,-5.411270721983764
-0.0627000000000002,-5.367414671687949
-0.06370000000000009,-5.323558621392133
-0.0647000000000002,-5.323558621392133
-0.06570000000000009,-5.279702571096316
-0.0667000000000002,-5.323558621392133
-0.0677000000000001,-5.323558621392133
-0.0687000000000002,-5.323558621392133
-0.0697000000000001,-5.323558621392133
-0.07070000000000021,-5.323558621392133
-0.0717000000000001,-5.323558621392133
-0.07270000000000021,-5.323558621392133
-0.0737000000000001,-5.279702571096316
-0.07470000000000021,-5.279702571096316
-0.0757000000000001,-5.235846520800501
-0.07670000000000021,-5.279702571096316
-0.0777000000000001,-5.279702571096316
-0.07870000000000021,-5.323558621392133
-0.0797000000000001,-5.323558621392133
-0.08070000000000022,-5.323558621392133
-0.0817000000000001,-5.323558621392133
-0.08270000000000022,-5.279702571096316
-0.08370000000000011,-5.235846520800501
-0.08470000000000022,-5.235846520800501
-0.08570000000000011,-5.191990470504685
-0.08670000000000022,-5.235846520800501
-0.08770000000000011,-5.235846520800501
-0.08870000000000022,-5.279702571096316
-0.08970000000000011,-5.323558621392133
-0.09070000000000022,-5.279702571096316
-0.09170000000000011,-5.279702571096316
-0.09270000000000023,-5.279702571096316
-0.09370000000000012,-5.235846520800501
-0.09470000000000023,-5.191990470504685
-0.09570000000000012,-5.191990470504685
-0.09670000000000023,-5.235846520800501
-0.09770000000000012,-5.235846520800501
-0.09870000000000023,-5.235846520800501
-0.09970000000000012,-5.279702571096316
-0.10070000000000023,-5.279702571096316
-0.10170000000000012,-5.279702571096316
-0.10270000000000024,-5.235846520800501
-0.10370000000000013,-5.191990470504685
-0.10470000000000024,-5.191990470504685
-0.10570000000000013,-5.191990470504685
-0.10670000000000024,-5.235846520800501
-0.10770000000000013,-5.235846520800501
-0.10870000000000024,-5.279702571096316
-0.10970000000000013,-5.323558621392133
-0.11070000000000024,-5.323558621392133
-0.11170000000000013,-5.279702571096316
-0.11270000000000002,-5.235846520800501
-0.11370000000000013,-5.235846520800501
-0.11470000000000002,-5.235846520800501
-0.11570000000000014,-5.235846520800501
-0.11670000000000003,-5.235846520800501
-0.11770000000000014,-5.279702571096316
-0.11870000000000003,-5.279702571096316
-0.11970000000000014,-5.323558621392133
-0.12070000000000003,-5.323558621392133
-0.12170000000000014,-5.323558621392133
-0.12270000000000003,-5.279702571096316
-0.12370000000000014,-5.279702571096316
-0.12470000000000003,-5.279702571096316
-0.12570000000000014,-5.279702571096316
-0.12670000000000003,-5.279702571096316
-0.12770000000000015,-5.323558621392133
-0.12870000000000004,-5.323558621392133
-0.12970000000000015,-5.367414671687949
-0.13070000000000004,-5.367414671687949
-0.13170000000000015,-5.367414671687949
-0.13270000000000004,-5.367414671687949
-0.13370000000000015,-5.323558621392133
-0.13470000000000004,-5.323558621392133
-0.13570000000000015,-5.323558621392133
-0.13670000000000004,-5.323558621392133
-0.13770000000000016,-5.411270721983764
-0.13870000000000005,-5.411270721983764
-0.13970000000000016,-5.453712060979717
-0.14070000000000005,-5.453712060979717
-0.14170000000000016,-5.453712060979717
-0.14270000000000005,-5.411270721983764
-0.14370000000000016,-5.411270721983764
-0.14470000000000005,-5.411270721983764
-0.14570000000000016,-5.411270721983764
-0.14670000000000005,-5.411270721983764
-0.14770000000000016,-5.453712060979717
-0.14870000000000005,-5.497568111275533
-0.14970000000000017,-5.497568111275533
-0.15070000000000006,-5.5414241615713475
-0.15170000000000017,-5.5414241615713475
-0.15270000000000006,-5.5414241615713475
-0.15370000000000017,-5.497568111275533
-0.15470000000000006,-5.497568111275533
-0.15570000000000017,-5.497568111275533
-0.15670000000000006,-5.5414241615713475
-0.15770000000000017,-5.585280211867165
-0.15870000000000006,-5.629136262162981
-0.15970000000000018,-5.585280211867165
-0.16070000000000007,-5.629136262162981
-0.16170000000000018,-5.629136262162981
-0.16270000000000007,-5.629136262162981
-0.16370000000000018,-5.629136262162981
-0.16470000000000007,-5.629136262162981
-0.16570000000000018,-5.629136262162981
-0.16670000000000007,-5.672992312458796
-0.16770000000000018,-5.672992312458796
-0.16870000000000007,-5.715433651454749
-0.16970000000000018,-5.759289701750564
-0.17070000000000007,-5.759289701750564
-0.17170000000000019,-5.759289701750564
-0.17270000000000008,-5.759289701750564
-0.1737000000000002,-5.759289701750564
-0.17470000000000008,-5.759289701750564
-0.1757000000000002,-5.759289701750564
-0.17670000000000008,-5.759289701750564
-0.1777000000000002,-5.80314575204638
-0.17870000000000008,-5.847001802342197
-0.1797000000000002,-5.890857852638012
-0.18070000000000008,-5.890857852638012
-0.1817000000000002,-5.890857852638012
-0.18270000000000008,-5.890857852638012
-0.1837000000000002,-5.890857852638012
-0.1847000000000001,-5.890857852638012
-0.1857000000000002,-5.890857852638012
-0.1867000000000001,-5.9347139029338285
-0.1877000000000002,-5.977155241929781
-0.1887000000000001,-5.977155241929781
-0.1897000000000002,-6.021011292225596
-0.1907000000000001,-6.021011292225596
-0.1917000000000001,-6.021011292225596
-0.19269999999999998,-6.021011292225596
-0.1937000000000001,-6.021011292225596
-0.19469999999999998,-6.021011292225596
-0.1957000000000001,-6.021011292225596
-0.19669999999999999,-6.064867342521412
-0.1977000000000001,-6.064867342521412
-0.1987,-6.108723392817228
-0.1997000000000001,-6.152579443113044
-0.2007,-6.152579443113044
-0.2017000000000001,-6.152579443113044
-0.2027,-6.152579443113044
-0.2037000000000001,-6.152579443113044
-0.2047,-6.152579443113044
-0.2057000000000001,-6.152579443113044
-0.2067,-6.196435493408861
-0.2077000000000001,-6.238876832404812
-0.2087,-6.282732882700628
-0.2097000000000001,-6.326588932996443
-0.2107,-6.326588932996443
-0.2117000000000001,-6.326588932996443
-0.2127,-6.326588932996443
-0.2137000000000001,-6.326588932996443
-0.2147,-6.326588932996443
-0.2157000000000001,-6.37044498329226
-0.2167,-6.37044498329226
-0.21770000000000012,-6.414301033588076
-0.2187,-6.414301033588076
-0.21970000000000012,-6.500598422879844
-0.2207,-6.458157083883892
-0.22170000000000012,-6.458157083883892
-0.2227,-6.458157083883892
-0.22370000000000012,-6.458157083883892
-0.2247,-6.458157083883892
-0.22570000000000012,-6.458157083883892
-0.2267,-6.500598422879844
-0.22770000000000012,-6.500598422879844
-0.22870000000000001,-6.54445447317566
-0.22970000000000013,-6.588310523471475
-0.23070000000000002,-6.632166573767292
-0.23170000000000013,-6.632166573767292
-0.23270000000000002,-6.632166573767292
-0.23370000000000013,-6.632166573767292
-0.23470000000000002,-6.632166573767292
-0.23570000000000013,-6.632166573767292
-0.23670000000000002,-6.6760226240631075
-0.2376999999999999,-6.719878674358924
-0.23870000000000002,-6.762320013354876
-0.2396999999999999,-6.762320013354876
-0.24070000000000003,-6.806176063650692
-0.24169999999999991,-6.762320013354876
-0.24270000000000003,-6.806176063650692
-0.24369999999999992,-6.762320013354876
-0.24470000000000003,-6.806176063650692
-0.24569999999999992,-6.806176063650692
-0.24670000000000003,-6.806176063650692
-0.24769999999999992,-6.850032113946507
-0.24870000000000003,-6.893888164242324
-0.24969999999999992,-6.93774421453814
-0.25070000000000003,-6.981600264833956
-0.2516999999999999,-6.981600264833956
-0.25270000000000004,-6.981600264833956
-0.2536999999999999,-6.981600264833956
-0.25470000000000004,-6.981600264833956
-0.2556999999999999,-6.981600264833956
-0.25670000000000004,-7.024041603829907
-0.25769999999999993,-7.067897654125724
-0.25870000000000004,-7.111753704421539
-0.25969999999999993,-7.155609754717355
-0.26070000000000004,-7.199465805013171
-0.26169999999999993,-7.199465805013171
-0.26270000000000004,-7.199465805013171
-0.26369999999999993,-7.243321855308987
-0.26470000000000005,-7.243321855308987
-0.26569999999999994,-7.28576319430494
-0.26670000000000005,-7.329619244600755
-0.26769999999999994,-7.4173313451923875
-0.26870000000000005,-7.4173313451923875
-0.26969999999999994,-7.4173313451923875
-0.27070000000000005,-7.461187395488204
-0.27169999999999994,-7.461187395488204
-0.27270000000000005,-7.461187395488204
-0.27369999999999994,-7.461187395488204
-0.27470000000000006,-7.50504344578402
-0.27569999999999995,-7.5474847847799715
-0.27670000000000006,-7.591340835075788
-0.27769999999999995,-7.635196885371603
-0.27870000000000006,-7.722908985963235
-0.27969999999999995,-7.7653503249591855
-0.28070000000000006,-7.809206375255003
-0.28169999999999995,-7.853062425550818
-0.28270000000000006,-7.853062425550818
-0.28369999999999995,-7.896918475846635
-0.28470000000000006,-7.896918475846635
-0.28569999999999995,-7.984630576438266
-0.28670000000000007,-8.027071915434218
-0.28769999999999996,-8.11478401602585
-0.28870000000000007,-8.202496116617484
-0.28969999999999996,-8.288793505909249
-0.29070000000000007,-8.376505606500881
-0.29169999999999996,-8.4203616567967
-0.29270000000000007,-8.464217707092514
-0.29369999999999996,-8.55051509638428
-0.2947000000000001,-8.638227196975913
-0.29569999999999996,-8.68208324727173
-0.2967000000000001,-8.769795347863363
-0.29769999999999996,-8.85609273715513
-0.2987000000000001,-8.987660888042578
-0.29969999999999997,-9.11781432763016
-0.3007000000000001,-9.24938247851761
-0.30169999999999997,-9.335679867809377
-0.3027000000000001,-9.423391968401008
-0.30369999999999997,-9.511104068992642
-0.3047000000000001,-9.59740145828441
-0.30569999999999997,-9.772825659467674
-0.3067000000000001,-9.902979099055257
-0.3077,-10.078403300238522
-0.3087000000000001,-10.25241279012192
-0.3097,-10.42642228000532
-0.3107000000000001,-10.601846481188586
-0.3117,-10.731999920776168
-0.3127000000000001,-10.906009410659568
-0.3137,-11.037577561547016
-0.3147000000000001,-11.255443101726232
-0.3157,-11.473308641905447
-0.3167000000000001,-11.73503023238048
-0.3177,-11.996751822855511
-0.3187000000000001,-12.258473413330542
-0.3197,-12.56405105410139
-0.3207000000000001,-12.869628694872238
-0.3217,-13.175206335643086
-0.3227000000000001,-13.47936926511407
-0.3237,-13.828802956180734
-0.3247000000000001,-14.175407224647667
-0.3257,-14.57152638860988
-0.3267000000000001,-15.05252823056399
-0.3277,-15.491088733522153
-0.3287000000000001,-15.972090575476265
-0.3297,-16.438945304431726
-0.3307000000000001,-16.962388485381787
-0.3317,-17.4433903273359
-0.3327000000000001,-18.009274847281915
-0.3337,-18.589306480226583
-0.3347000000000001,-19.197632339168546
-0.3357,-19.848399537106463
-0.3367000000000001,-20.584049413036283
-0.3377,-21.333846401964752
-0.3387000000000001,-22.15437895588647
-0.3397,-22.989058622806844
-0.3407000000000001,-23.908620967719123
-0.3417,-24.771594860636792
-0.3427000000000001,-25.77603988354097
-0.3437,-26.780484906445146
-0.3447000000000001,-27.869812607341224
-0.3457,-29.001581647233255
-0.3467000000000001,-30.232380478115836
-0.3477,-31.49147353499572
-0.3487000000000001,-32.892037721862096
-0.3497,-34.278454795729836
-0.3507000000000001,-35.806342999584075
-0.3517,-37.334231203438314
-0.3527000000000001,-38.94700208528445
-0.3537,-40.616361419125205
-0.3547000000000001,-42.3564563179592
-0.3557,-44.138992555789144
-0.35670000000000013,-46.062999923605595
-0.3577,-48.029448630417996
-0.35870000000000013,-50.0807800152223
-0.3597,-52.11796428702795
-0.36070000000000013,-54.26832546282281
-0.3617,-56.404539525619015
-0.3626999999999999,-58.62563626640712
-0.3637,-60.889174346191176
-0.3646999999999999,-63.11027108697928
-0.3657,-65.3030736017701
-0.3666999999999999,-67.56661168155415
-0.3677,-69.78770842234226
-0.3686999999999999,-72.00880516313036
-0.36970000000000003,-74.24404901691713
-0.3706999999999999,-76.50758709670117
-0.37170000000000003,-78.72868383748929
-0.3726999999999999,-80.86489790028548
-0.37370000000000003,-82.95867062408576
-0.3746999999999999,-85.052443347886
-0.37570000000000003,-87.18865741068221
-0.3766999999999999,-89.32487147347842
-0.37770000000000004,-91.37620285828272
-0.3786999999999999,-93.42753424308701
-0.37970000000000004,-95.39398294989942
-0.3806999999999999,-97.36043165671182
-0.38170000000000004,-99.18540923353773
-0.38269999999999993,-101.06697526235823
-0.38370000000000004,-102.93439417818009
-0.38469999999999993,-104.81596020700057
-0.38570000000000004,-106.68337912282242
-0.38669999999999993,-107.6029414677347
-0.38570000000000004,-107.07949828678463
-0.38469999999999993,-106.78240891381296
-0.38370000000000004,-106.47117242784265
-0.38269999999999993,-105.94772924689259
-0.38170000000000004,-105.33940338795064
-0.3806999999999999,-104.64619485101677
-0.37970000000000004,-103.81151518409638
-0.3786999999999999,-102.93439417818009
-0.37770000000000004,-101.92994915527588
-0.3766999999999999,-100.92550413237171
-0.37570000000000003,-99.87861777047159
-0.3746999999999999,-98.88831986056607
-0.37370000000000003,-97.84143349866595
-0.3726999999999999,-96.83698847576176
-0.37170000000000003,-95.83254345285758
-0.3706999999999999,-94.95542244694126
-0.36970000000000003,-93.99341876303303
-0.3686999999999999,-93.17288620911131
-0.3677,-92.3806478811869
-0.3666999999999999,-91.56011532726518
-0.3657,-90.68299432134886
-0.3646999999999999,-89.76343197643658
-0.3637,-88.80142829252836
-0.3626999999999999,-87.79698326962418
-0.3617,-86.7076555687281
-0.36070000000000013,-85.61832786783202
-0.3597,-84.57144150593189
-0.35870000000000013,-83.60943782202366
-0.3577,-82.61913991211814
-0.35670000000000013,-81.57225355021802
-0.3557,-80.65269120530574
-0.3547000000000001,-79.64824618240156
-0.3537,-78.64380115949739
-0.3527000000000001,-77.68179747558916
-0.3517,-76.67735245268499
-0.3507000000000001,-75.6729074297808
-0.3497,-74.66846240687663
-0.3487000000000001,-73.62157604497652
-0.3477,-72.57468968307639
-0.3467000000000001,-71.52780332117625
-0.3457,-70.48091695927613
-0.3447000000000001,-69.4906190493706
-0.3437,-68.48617402646643
-0.3427000000000001,-67.48172900356225
-0.3417,-66.47728398065809
-0.3407000000000001,-65.51528029674984
-0.3397,-64.55327661284163
-0.3387000000000001,-63.6761556069253
-0.3377,-62.72829903601572
-0.3367000000000001,-61.851178030099405
-0.3357,-60.974057024183075
-0.3347000000000001,-60.15352447026136
-0.3337,-59.36128614233694
-0.3327000000000001,-58.583194927411164
-0.3317,-57.66363258249889
-0.3307000000000001,-56.65918755959472
-0.3297,-55.6971838756865
-0.3287000000000001,-54.73518019177827
-0.3277,-53.82976495986464
-0.3267000000000001,-52.91020261495237
-0.3257,-52.033081609036046
-0.3247000000000001,-51.21254905511432
-0.3237,-50.37786938819396
-0.3227000000000001,-49.59977817326819
-0.3217,-48.76509850634781
-0.3207000000000001,-47.93041883942744
-0.3197,-47.067444946509774
-0.3187000000000001,-46.19032394059345
-0.3177,-45.32735004767578
-0.3167000000000001,-44.4926703807554
-0.3157,-43.657990713835034
-0.3147000000000001,-42.87989949890926
-0.3137,-42.130102509980794
-0.3127000000000001,-41.43689397304693
-0.3117,-40.701244097117105
-0.3107000000000001,-39.90900576919269
-0.3097,-39.130914554266916
-0.3087000000000001,-38.33867622634249
-0.3077,-37.56058501141672
-0.3067000000000001,-36.768346683492304
-0.30569999999999997,-35.99025546856653
-0.3047000000000001,-35.198017140642115
-0.30369999999999997,-34.41992592571634
-0.3027000000000001,-33.670128936787876
-0.30169999999999997,-32.97692039985401
-0.3007000000000001,-32.283711862920136
-0.29969999999999997,-31.49147353499572
-0.2987000000000001,-30.79826499806185
-0.29769999999999996,-30.10505646112798
-0.2967000000000001,-29.440142150191413
-0.29569999999999996,-28.789374952253496
-0.2947000000000001,-28.09616641531963
-0.29369999999999996,-27.43125210438306
-0.29270000000000007,-26.822926245441096
-0.29169999999999996,-26.17215904750318
-0.29070000000000007,-25.478950510569312
-0.28969999999999996,-24.814036199632742
-0.28870000000000007,-24.20571034069078
-0.28769999999999996,-23.597384481748815
-0.28670000000000007,-22.989058622806844
-0.28569999999999995,-22.38073276386488
-0.28470000000000006,-21.814848243918867
-0.28369999999999995,-21.248963723972853
-0.28270000000000006,-20.683079204026836
-0.28169999999999995,-20.06060623208622
-0.28070000000000006,-19.49472171214021
-0.27969999999999995,-18.92883719219419
-0.27870000000000006,-18.362952672248177
-0.27769999999999995,-17.839509491298113
-0.27670000000000006,-17.316066310348052
-0.27569999999999995,-16.835064468393938
-0.27470000000000006,-16.396503965435777
-0.27369999999999994,-15.87306078448571
-0.27270000000000005,-15.3920589425316
-0.27169999999999994,-14.925204213576137
-0.27070000000000005,-14.444202371622024
-0.26969999999999994,-13.960371107068182
-0.26870000000000005,-13.523225315409885
-0.26769999999999994,-13.043638184755638
-0.26670000000000005,-12.651763154693022
-0.26569999999999994,-12.258473413330542
-0.26470000000000005,-11.86659838326793
-0.26369999999999993,-11.42945259160963
