Potential V vs RHE, Current mA cm-2
0.013299999999999867,-0.4384190318281749
0.012299999999999978,-1.6156003044458718
0.011299999999999866,-2.4446211261667834
0.010299999999999976,-3.055776407708479
0.009299999999999864,-3.5353635383627267
0.008299999999999974,-3.927238568425342
0.007299999999999862,-4.276672259492005
0.006299999999999972,-4.538393849967037
0.00529999999999986,-4.800115440442069
0.0042999999999999705,-5.017980980621284
0.0032999999999998586,-5.235846520800501
0.0022999999999999687,-5.367414671687949
0.0012999999999998568,-5.497568111275533
0.00029999999999996696,-5.585280211867165
-0.000700000000000145,-5.672992312458796
-0.0017000000000000348,-5.715433651454749
-0.0027000000000001467,-5.759289701750564
-0.0037000000000000366,-5.80314575204638
-0.0047000000000001485,-5.847001802342197
-0.005700000000000038,-5.890857852638012
-0.00670000000000015,-5.977155241929781
-0.00770000000000004,-6.021011292225596
-0.008700000000000152,-6.064867342521412
-0.009700000000000042,-6.108723392817228
-0.010700000000000154,-6.152579443113044
-0.011700000000000044,-6.152579443113044
-0.012700000000000156,-6.152579443113044
-0.013700000000000045,-6.152579443113044
-0.014700000000000157,-6.152579443113044
-0.015700000000000047,-6.152579443113044
-0.01670000000000016,-6.152579443113044
-0.01770000000000005,-6.196435493408861
-0.01870000000000016,-6.196435493408861
-0.01970000000000005,-6.238876832404812
-0.020700000000000163,-6.238876832404812
-0.021700000000000053,-6.238876832404812
-0.022700000000000164,-6.282732882700628
-0.023700000000000054,-6.238876832404812
-0.024700000000000166,-6.238876832404812
-0.025700000000000056,-6.238876832404812
-0.026700000000000168,-6.238876832404812
-0.027700000000000058,-6.238876832404812
-0.02870000000000017,-6.196435493408861
-0.02970000000000006,-6.196435493408861
-0.03070000000000017,-6.238876832404812
-0.03170000000000006,-6.238876832404812
-0.03270000000000017,-6.282732882700628
-0.03370000000000006,-6.238876832404812
-0.034700000000000175,-6.238876832404812
-0.035700000000000065,-6.238876832404812
-0.03670000000000018,-6.238876832404812
-0.03770000000000007,-6.196435493408861
-0.03870000000000018,-6.196435493408861
-0.03970000000000007,-6.152579443113044
-0.04070000000000018,-6.196435493408861
-0.04170000000000007,-6.196435493408861
-0.04270000000000018,-6.238876832404812
-0.04370000000000007,-6.238876832404812
-0.044700000000000184,-6.238876832404812
-0.045700000000000074,-6.238876832404812
-0.046700000000000186,-6.238876832404812
-0.047700000000000076,-6.196435493408861
-0.04870000000000019,-6.196435493408861
-0.04970000000000008,-6.152579443113044
-0.05070000000000019,-6.108723392817228
-0.05170000000000008,-6.108723392817228
-0.05270000000000019,-6.108723392817228
-0.05370000000000008,-6.108723392817228
-0.05470000000000019,-6.152579443113044
-0.05570000000000008,-6.152579443113044
-0.056700000000000195,-6.152579443113044
-0.057700000000000085,-6.152579443113044
-0.058700000000000196,-6.152579443113044
-0.059700000000000086,-6.108723392817228
-0.0607000000000002,-6.108723392817228
-0.06170000000000009,-6.108723392817228
-0.0627000000000002,-6.108723392817228
-0.06370000000000009,-6.108723392817228
-0.0647000000000002,-6.108723392817228
-0.06570000000000009,-6.108723392817228
-0.0667000000000002,-6.108723392817228
-0.0677000000000001,-6.108723392817228
-0.0687000000000002,-6.108723392817228
-0.0697000000000001,-6.108723392817228
-0.07070000000000021,-6.064867342521412
-0.0717000000000001,-6.021011292225596
-0.07270000000000021,-6.021011292225596
-0.0737000000000001,-6.021011292225596
-0.07470000000000021,-6.021011292225596
-0.0757000000000001,-6.021011292225596
-0.07670000000000021,-6.021011292225596
-0.0777000000000001,-6.064867342521412
-0.07870000000000021,-6.064867342521412
-0.0797000000000001,-6.064867342521412
-0.08070000000000022,-6.064867342521412
-0.0817000000000001,-6.064867342521412
-0.08270000000000022,-6.064867342521412
-0.08370000000000011,-6.021011292225596
-0.08470000000000022,-5.977155241929781
-0.08570000000000011,-5.977155241929781
-0.08670000000000022,-5.977155241929781
-0.08770000000000011,-5.977155241929781
-0.08870000000000022,-6.021011292225596
-0.08970000000000011,-6.021011292225596
-0.09070000000000022,-6.021011292225596
-0.09170000000000011,-6.021011292225596
-0.09270000000000023,-6.021011292225596
-0.09370000000000012,-6.021011292225596
-0.09470000000000023,-6.021011292225596
-0.09570000000000012,-5.977155241929781
-0.09670000000000023,-5.977155241929781
-0.09770000000000012,-5.977155241929781
-0.09870000000000023,-5.9347139029338285
-0.09970000000000012,-5.977155241929781
-0.10070000000000023,-5.977155241929781
-0.10170000000000012,-6.021011292225596
-0.10270000000000024,-6.021011292225596
-0.10370000000000013,-6.021011292225596
-0.10470000000000024,-6.021011292225596
-0.10570000000000013,-5.977155241929781
-0.10670000000000024,-5.977155241929781
-0.10770000000000013,-5.977155241929781
-0.10870000000000024,-5.977155241929781
-0.10970000000000013,-5.977155241929781
-0.11070000000000024,-5.977155241929781
-0.11170000000000013,-6.021011292225596
-0.11270000000000002,-6.021011292225596
-0.11370000000000013,-6.064867342521412
-0.11470000000000002,-6.021011292225596
-0.11570000000000014,-6.064867342521412
-0.11670000000000003,-6.021011292225596
-0.11770000000000014,-6.021011292225596
-0.11870000000000003,-6.021011292225596
-0.11970000000000014,-6.021011292225596
-0.12070000000000003,-5.977155241929781
-0.12170000000000014,-5.977155241929781
-0.12270000000000003,-6.021011292225596
-0.12370000000000014,-6.064867342521412
-0.12470000000000003,-6.064867342521412
-0.12570000000000014,-6.108723392817228
-0.12670000000000003,-6.108723392817228
-0.12770000000000015,-6.108723392817228
-0.12870000000000004,-6.108723392817228
-0.12970000000000015,-6.064867342521412
-0.13070000000000004,-6.064867342521412
-0.13170000000000015,-6.064867342521412
-0.13270000000000004,-6.064867342521412
-0.13370000000000015,-6.064867342521412
-0.13470000000000004,-6.108723392817228
-0.13570000000000015,-6.108723392817228
-0.13670000000000004,-6.152579443113044
-0.13770000000000016,-6.196435493408861
-0.13870000000000005,-6.196435493408861
-0.13970000000000016,-6.196435493408861
-0.14070000000000005,-6.196435493408861
-0.14170000000000016,-6.196435493408861
-0.14270000000000005,-6.196435493408861
-0.14370000000000016,-6.196435493408861
-0.14470000000000005,-6.196435493408861
-0.14570000000000016,-6.196435493408861
-0.14670000000000005,-6.238876832404812
-0.14770000000000016,-6.238876832404812
-0.14870000000000005,-6.282732882700628
-0.14970000000000017,-6.326588932996443
-0.15070000000000006,-6.326588932996443
-0.15170000000000017,-6.326588932996443
-0.15270000000000006,-6.326588932996443
-0.15370000000000017,-6.326588932996443
-0.15470000000000006,-6.282732882700628
-0.15570000000000017,-6.326588932996443
-0.15670000000000006,-6.326588932996443
-0.15770000000000017,-6.37044498329226
-0.15870000000000006,-6.414301033588076
-0.15970000000000018,-6.414301033588076
-0.16070000000000007,-6.458157083883892
-0.16170000000000018,-6.458157083883892
-0.16270000000000007,-6.458157083883892
-0.16370000000000018,-6.458157083883892
-0.16470000000000007,-6.458157083883892
-0.16570000000000018,-6.414301033588076
-0.16670000000000007,-6.414301033588076
-0.16770000000000018,-6.414301033588076
-0.16870000000000007,-6.458157083883892
-0.16970000000000018,-6.500598422879844
-0.17070000000000007,-6.500598422879844
-0.17170000000000019,-6.588310523471475
-0.17270000000000008,-6.588310523471475
-0.1737000000000002,-6.632166573767292
-0.17470000000000008,-6.632166573767292
-0.1757000000000002,-6.632166573767292
-0.17670000000000008,-6.632166573767292
-0.1777000000000002,-6.632166573767292
-0.17870000000000008,-6.632166573767292
-0.1797000000000002,-6.632166573767292
-0.18070000000000008,-6.632166573767292
-0.1817000000000002,-6.6760226240631075
-0.18270000000000008,-6.719878674358924
-0.1837000000000002,-6.762320013354876
-0.1847000000000001,-6.762320013354876
-0.1857000000000002,-6.762320013354876
-0.1867000000000001,-6.806176063650692
-0.1877000000000002,-6.806176063650692
-0.1887000000000001,-6.762320013354876
-0.1897000000000002,-6.806176063650692
-0.1907000000000001,-6.806176063650692
-0.1917000000000001,-6.850032113946507
-0.19269999999999998,-6.893888164242324
-0.1937000000000001,-6.93774421453814
-0.19469999999999998,-6.93774421453814
-0.1957000000000001,-6.981600264833956
-0.19669999999999999,-6.981600264833956
-0.1977000000000001,-6.981600264833956
-0.1987,-6.981600264833956
-0.1997000000000001,-6.981600264833956
-0.2007,-6.981600264833956
-0.2017000000000001,-6.981600264833956
-0.2027,-6.981600264833956
-0.2037000000000001,-7.024041603829907
-0.2047,-7.067897654125724
-0.2057000000000001,-7.067897654125724
-0.2067,-7.111753704421539
-0.2077000000000001,-7.111753704421539
-0.2087,-7.155609754717355
-0.2097000000000001,-7.155609754717355
-0.2107,-7.155609754717355
-0.2117000000000001,-7.155609754717355
-0.2127,-7.199465805013171
-0.2137000000000001,-7.199465805013171
-0.2147,-7.199465805013171
-0.2157000000000001,-7.28576319430494
-0.2167,-7.329619244600755
-0.21770000000000012,-7.329619244600755
-0.2187,-7.37347529489657
-0.21970000000000012,-7.4173313451923875
-0.2207,-7.4173313451923875
-0.22170000000000012,-7.4173313451923875
-0.2227,-7.37347529489657
-0.22370000000000012,-7.4173313451923875
-0.2247,-7.37347529489657
-0.22570000000000012,-7.37347529489657
-0.2267,-7.37347529489657
-0.22770000000000012,-7.4173313451923875
-0.22870000000000001,-7.461187395488204
-0.22970000000000013,-7.50504344578402
-0.23070000000000002,-7.5474847847799715
-0.23170000000000013,-7.5474847847799715
-0.23270000000000002,-7.591340835075788
-0.23370000000000013,-7.5474847847799715
-0.23470000000000002,-7.5474847847799715
-0.23570000000000013,-7.591340835075788
-0.23670000000000002,-7.5474847847799715
-0.2376999999999999,-7.591340835075788
-0.23870000000000002,-7.591340835075788
-0.2396999999999999,-7.635196885371603
-0.24070000000000003,-7.679052935667419
-0.24169999999999991,-7.722908985963235
-0.24270000000000003,-7.722908985963235
-0.24369999999999992,-7.7653503249591855
-0.24470000000000003,-7.7653503249591855
-0.24569999999999992,-7.7653503249591855
-0.24670000000000003,-7.7653503249591855
-0.24769999999999992,-7.7653503249591855
-0.24870000000000003,-7.7653503249591855
-0.24969999999999992,-7.7653503249591855
-0.25070000000000003,-7.7653503249591855
-0.2516999999999999,-7.853062425550818
-0.25270000000000004,-7.896918475846635
-0.2536999999999999,-7.940774526142452
-0.25470000000000004,-7.984630576438266
-0.2556999999999999,-8.027071915434218
-0.25670000000000004,-8.027071915434218
-0.25769999999999993,-8.027071915434218
-0.25870000000000004,-8.027071915434218
-0.25969999999999993,-8.027071915434218
-0.26070000000000004,-8.070927965730034
-0.26169999999999993,-8.070927965730034
-0.26270000000000004,-8.11478401602585
-0.26369999999999993,-8.11478401602585
-0.26470000000000005,-8.202496116617484
-0.26569999999999994,-8.246352166913299
-0.26670000000000005,-8.246352166913299
-0.26769999999999994,-8.288793505909249
-0.26870000000000005,-8.288793505909249
-0.26969999999999994,-8.288793505909249
-0.27070000000000005,-8.288793505909249
-0.27169999999999994,-8.332649556205066
-0.27270000000000005,-8.376505606500881
-0.27369999999999994,-8.4203616567967
-0.27470000000000006,-8.464217707092514
-0.27569999999999995,-8.464217707092514
-0.27670000000000006,-8.55051509638428
-0.27769999999999995,-8.594371146680096
-0.27870000000000006,-8.638227196975913
-0.27969999999999995,-8.638227196975913
-0.28070000000000006,-8.68208324727173
-0.28169999999999995,-8.68208324727173
-0.28270000000000006,-8.725939297567548
-0.28369999999999995,-8.769795347863363
-0.28470000000000006,-8.769795347863363
-0.28569999999999995,-8.85609273715513
-0.28670000000000007,-8.943804837746763
-0.28769999999999996,-8.987660888042578
-0.28870000000000007,-9.073958277334345
-0.28969999999999996,-9.11781432763016
-0.29070000000000007,-9.205526428221793
-0.29169999999999996,-9.24938247851761
-0.29270000000000007,-9.293238528813426
-0.29369999999999996,-9.335679867809377
-0.2947000000000001,-9.379535918105192
-0.29569999999999996,-9.467248018696827
-0.2967000000000001,-9.55496011928846
-0.29769999999999996,-9.641257508580225
-0.2987000000000001,-9.728969609171857
-0.29969999999999997,-9.85912304875944
-0.3007000000000001,-9.946835149351072
-0.30169999999999997,-10.034547249942705
-0.3027000000000001,-10.120844639234473
-0.30369999999999997,-10.208556739826104
-0.3047000000000001,-10.296268840417738
-0.30569999999999997,-10.42642228000532
-0.3067000000000001,-10.470278330301136
-0.3077,-10.644287820184536
-0.3087000000000001,-10.731999920776168
-0.3097,-10.906009410659568
-0.3107000000000001,-11.081433611842833
-0.3117,-11.211587051430415
-0.3127000000000001,-11.42945259160963
-0.3137,-11.56102074249708
-0.3147000000000001,-11.73503023238048
-0.3157,-11.909039722263879
-0.3167000000000001,-12.084463923447142
-0.3177,-12.258473413330542
-0.3187000000000001,-12.476338953509758
-0.3197,-12.694204493688973
-0.3207000000000001,-12.955926084164007
-0.3217,-13.217647674639037
-0.3227000000000001,-13.47936926511407
-0.3237,-13.784946905884919
-0.3247000000000001,-14.090524546655764
-0.3257,-14.401761032626075
-0.3267000000000001,-14.741291744593681
-0.3277,-15.05252823056399
-0.3287000000000001,-15.448647394526201
-0.3297,-15.78817810649381
-0.3307000000000001,-16.22673860945197
-0.3317,-16.665299112410132
-0.3327000000000001,-17.103859615368293
-0.3337,-17.584861457322408
-0.3347000000000001,-18.10830463827247
-0.3357,-18.631747819222536
-0.3367000000000001,-19.197632339168546
-0.3377,-19.805958198110513
-0.3387000000000001,-20.414284057052477
-0.3397,-21.065051254990397
-0.3407000000000001,-21.729965565926964
-0.3417,-22.38073276386488
-0.3427000000000001,-23.15882397879065
-0.3437,-23.908620967719123
-0.3447000000000001,-24.729153521640843
-0.3457,-25.648715866553115
-0.3467000000000001,-26.61071955046134
-0.3477,-27.65760591236147
-0.3487000000000001,-28.704492274261593
-0.3497,-29.836261314153624
-0.3507000000000001,-30.968030354045652
-0.3517,-32.14224073293363
-0.3527000000000001,-33.45792224180811
-0.3537,-34.717015298688004
-0.3547000000000001,-36.11757948555439
-0.3557,-37.60302635041268
-0.35670000000000013,-39.08847321527096
-0.3577,-40.65880275812115
-0.35870000000000013,-42.2715736399673
-0.3597,-43.92678586080939
-0.36070000000000013,-45.70932209863933
-0.3617,-47.590888127459834
-0.3626999999999999,-49.557336834272235
-0.3637,-51.55207976708194
-0.3646999999999999,-53.56096981289029
-0.3657,-55.65474253669055
-0.3666999999999999,-57.70607392149485
-0.3677,-59.7998466452951
-0.3686999999999999,-61.97850204708726
-0.36970000000000003,-64.15715744887942
-0.3706999999999999,-66.39240130266617
-0.37170000000000003,-68.52861536546239
-0.3726999999999999,-70.74971210625048
-0.37370000000000003,-72.97080884703858
-0.3746999999999999,-75.19190558782671
-0.37570000000000003,-77.46959078060941
-0.3766999999999999,-79.73312886039348
-0.37770000000000004,-82.03910827917348
-0.3786999999999999,-84.27435213296022
-0.37970000000000004,-86.5378902127443
-0.3806999999999999,-88.71654561453644
-0.38170000000000004,-90.81031833833671
-0.38269999999999993,-92.90409106213696
-0.38370000000000004,-94.87053976894937
-0.38469999999999993,-96.92187115375367
-0.38570000000000004,-98.88831986056607
-0.38669999999999993,-99.93520622246619
-0.38570000000000004,-99.62396973649588
-0.38469999999999993,-99.45420438051207
-0.38370000000000004,-99.18540923353773
-0.38269999999999993,-98.88831986056607
-0.38170000000000004,-98.49220069660386
-0.3806999999999999,-97.92631617665783
-0.37970000000000004,-97.21896052672531
-0.3786999999999999,-96.4833106507955
-0.37770000000000004,-95.74766077486568
-0.3766999999999999,-94.99786378593721
-0.37570000000000003,-94.34709658799929
-0.3746999999999999,-93.61144671206948
-0.37370000000000003,-92.90409106213696
-0.3726999999999999,-92.2108825252031
-0.37170000000000003,-91.46108553627462
-0.3706999999999999,-90.7254356603448
-0.36970000000000003,-89.89075599342443
-0.3686999999999999,-89.11266477849867
-0.3677,-88.23554377258235
-0.3666999999999999,-87.33012854066871
-0.3657,-86.45300753475239
-0.3646999999999999,-85.44856251184822
-0.3637,-84.44411748894404
-0.3626999999999999,-83.52455514403178
-0.3617,-82.61913991211814
-0.36070000000000013,-81.82690158419373
-0.3597,-80.99222191727335
-0.35870000000000013,-80.21413070234757
-0.3577,-79.33700969643127
-0.35670000000000013,-78.47403580351359
-0.3557,-77.51203211960537
-0.3547000000000001,-76.55002843569714
-0.3537,-75.54558341279296
-0.3527000000000001,-74.54113838988879
-0.3517,-73.62157604497652
-0.3507000000000001,-72.71616081306288
-0.3497,-71.8814811461425
-0.3487000000000001,-71.06094859222078
-0.3477,-70.31115160329232
-0.3467000000000001,-69.57550172736251
-0.3457,-68.74082206044213
-0.3447000000000001,-67.82125971552985
-0.3437,-66.87340314462028
-0.3427000000000001,-65.82651678272015
-0.3417,-64.77963042082003
-0.3407000000000001,-63.732744058919906
-0.3397,-62.68585769701977
-0.3387000000000001,-61.6814126741156
-0.3377,-60.67696765121143
-0.3367000000000001,-59.7149639673032
-0.3357,-58.880284300382826
-0.3347000000000001,-58.05975174646111
-0.3337,-57.26751341853669
-0.3327000000000001,-56.44698086461496
-0.3317,-55.612301197694585
-0.3307000000000001,-54.791768643772876
-0.3297,-53.91464763785655
-0.3287000000000001,-53.03752663194023
-0.3277,-52.17455273902255
-0.3267000000000001,-51.25499039411028
-0.3257,-50.37786938819396
-0.3247000000000001,-49.458307043281685
-0.3237,-48.55289181136806
-0.3227000000000001,-47.67577080545174
-0.3217,-46.84109113853137
-0.3207000000000001,-45.97811724561369
-0.3197,-45.143437578693316
-0.3187000000000001,-44.36534636376755
-0.3177,-43.53066669684718
-0.3167000000000001,-42.752575481921404
-0.3157,-41.96033715399699
-0.3147000000000001,-41.22468727806717
-0.3137,-40.43244895014274
-0.3127000000000001,-39.654357735216976
-0.3117,-38.94700208528445
-0.3107000000000001,-38.211352209354644
-0.3097,-37.47570233342482
-0.3087000000000001,-36.725905344496354
-0.3077,-35.99025546856653
-0.3067000000000001,-35.198017140642115
-0.30569999999999997,-34.462367264712285
-0.3047000000000001,-33.712570275783825
-0.30369999999999997,-32.97692039985401
-0.3027000000000001,-32.283711862920136
-0.30169999999999997,-31.57635621298762
-0.3007000000000001,-30.925589015049702
-0.29969999999999997,-30.232380478115836
-0.2987000000000001,-29.581613280177915
-0.29769999999999996,-28.959140308237306
-0.2967000000000001,-28.265931771303435
-0.29569999999999996,-27.615164573365515
-0.2947000000000001,-26.9643973754276
-0.29369999999999996,-26.29948306449103
-0.29270000000000007,-25.648715866553115
-0.29169999999999996,-24.997948668615198
-0.29070000000000007,-24.34718147067728
-0.28969999999999996,-23.724708498736668
-0.28870000000000007,-23.1163826397947
-0.28769999999999996,-22.508056780852733
-0.28670000000000007,-21.94217226090672
-0.28569999999999995,-21.376287740960702
-0.28470000000000006,-20.85284456001064
-0.28369999999999995,-20.286960040064624
-0.28270000000000006,-19.721075520118614
-0.28169999999999995,-19.155191000172596
-0.28070000000000006,-18.589306480226583
-0.27969999999999995,-18.06586329927652
-0.27870000000000006,-17.542420118326454
-0.27769999999999995,-17.061418276372343
-0.27670000000000006,-16.53797509542228
-0.27569999999999995,-16.099414592464115
-0.27470000000000006,-15.575971411514052
-0.27369999999999994,-15.137410908555893
-0.27270000000000005,-14.65640906660178
-0.27169999999999994,-14.175407224647667
-0.27070000000000005,-13.698649516593148
-0.26969999999999994,-13.217647674639037
-0.26870000000000005,-12.781916594280606
-0.26769999999999994,-12.346185513922174
-0.26670000000000005,-11.909039722263879
-0.26569999999999994,-11.517164692201263
-0.26470000000000005,-11.081433611842833
-0.26369999999999993,-10.688143870480351
