Potential V vs RHE, Current mA cm-2
0.013299999999999867,-0.3947044526623452
0.012299999999999978,-1.2234423321232837
0.011299999999999866,-1.7471684553333202
0.010299999999999976,-2.1828995356917518
0.009299999999999864,-2.4884771764625997
0.008299999999999974,-2.7501987669376318
0.007299999999999862,-2.968064307116847
0.006299999999999972,-3.1420737970002466
0.00529999999999986,-3.361354048479327
0.0042999999999999705,-3.5353635383627267
0.0032999999999998586,-3.6655169779503103
0.0022999999999999687,-3.7970851288377587
0.0012999999999998568,-3.884797229429391
0.00029999999999996696,-3.927238568425342
-0.000700000000000145,-4.014950669016974
-0.0017000000000000348,-4.014950669016974
-0.0027000000000001467,-4.0588067193127895
-0.0037000000000000366,-4.0588067193127895
-0.0047000000000001485,-4.0588067193127895
-0.005700000000000038,-4.102662769608606
-0.00670000000000015,-4.146518819904423
-0.00770000000000004,-4.146518819904423
-0.008700000000000152,-4.23281620919619
-0.009700000000000042,-4.276672259492005
-0.010700000000000154,-4.3205283097878215
-0.011700000000000044,-4.364384360083638
-0.012700000000000156,-4.450681749375406
-0.013700000000000045,-4.450681749375406
-0.014700000000000157,-4.494537799671222
-0.015700000000000047,-4.450681749375406
-0.01670000000000016,-4.450681749375406
-0.01770000000000005,-4.450681749375406
-0.01870000000000016,-4.450681749375406
-0.01970000000000005,-4.406825699079589
-0.020700000000000163,-4.406825699079589
-0.021700000000000053,-4.450681749375406
-0.022700000000000164,-4.450681749375406
-0.023700000000000054,-4.450681749375406
-0.024700000000000166,-4.538393849967037
-0.025700000000000056,-4.538393849967037
-0.026700000000000168,-4.582249900262854
-0.027700000000000058,-4.626105950558669
-0.02870000000000017,-4.626105950558669
-0.02970000000000006,-4.626105950558669
-0.03070000000000017,-4.626105950558669
-0.03170000000000006,-4.626105950558669
-0.03270000000000017,-4.582249900262854
-0.03370000000000006,-4.582249900262854
-0.034700000000000175,-4.538393849967037
-0.035700000000000065,-4.538393849967037
-0.03670000000000018,-4.538393849967037
-0.03770000000000007,-4.538393849967037
-0.03870000000000018,-4.582249900262854
-0.03970000000000007,-4.626105950558669
-0.04070000000000018,-4.626105950558669
-0.04170000000000007,-4.668547289554621
-0.04270000000000018,-4.712403339850438
-0.04370000000000007,-4.712403339850438
-0.044700000000000184,-4.712403339850438
-0.045700000000000074,-4.712403339850438
-0.046700000000000186,-4.668547289554621
-0.047700000000000076,-4.668547289554621
-0.04870000000000019,-4.626105950558669
-0.04970000000000008,-4.626105950558669
-0.05070000000000019,-4.582249900262854
-0.05170000000000008,-4.626105950558669
-0.05270000000000019,-4.626105950558669
-0.05370000000000008,-4.626105950558669
-0.05470000000000019,-4.712403339850438
-0.05570000000000008,-4.712403339850438
-0.056700000000000195,-4.756259390146253
-0.057700000000000085,-4.800115440442069
-0.058700000000000196,-4.756259390146253
-0.059700000000000086,-4.800115440442069
-0.0607000000000002,-4.756259390146253
-0.06170000000000009,-4.756259390146253
-0.0627000000000002,-4.712403339850438
-0.06370000000000009,-4.712403339850438
-0.0647000000000002,-4.668547289554621
-0.06570000000000009,-4.668547289554621
-0.0667000000000002,-4.668547289554621
-0.0677000000000001,-4.668547289554621
-0.0687000000000002,-4.712403339850438
-0.0697000000000001,-4.756259390146253
-0.07070000000000021,-4.756259390146253
-0.0717000000000001,-4.800115440442069
-0.07270000000000021,-4.843971490737885
-0.0737000000000001,-4.800115440442069
-0.07470000000000021,-4.800115440442069
-0.0757000000000001,-4.800115440442069
-0.07670000000000021,-4.756259390146253
-0.0777000000000001,-4.756259390146253
-0.07870000000000021,-4.712403339850438
-0.0797000000000001,-4.712403339850438
-0.08070000000000022,-4.668547289554621
-0.0817000000000001,-4.668547289554621
-0.08270000000000022,-4.712403339850438
-0.08370000000000011,-4.712403339850438
-0.08470000000000022,-4.756259390146253
-0.08570000000000011,-4.800115440442069
-0.08670000000000022,-4.800115440442069
-0.08770000000000011,-4.843971490737885
-0.08870000000000022,-4.843971490737885
-0.08970000000000011,-4.843971490737885
-0.09070000000000022,-4.800115440442069
-0.09170000000000011,-4.756259390146253
-0.09270000000000023,-4.756259390146253
-0.09370000000000012,-4.756259390146253
-0.09470000000000023,-4.712403339850438
-0.09570000000000012,-4.712403339850438
-0.09670000000000023,-4.712403339850438
-0.09770000000000012,-4.712403339850438
-0.09870000000000023,-4.756259390146253
-0.09970000000000012,-4.756259390146253
-0.10070000000000023,-4.800115440442069
-0.10170000000000012,-4.800115440442069
-0.10270000000000024,-4.887827541033701
-0.10370000000000013,-4.843971490737885
-0.10470000000000024,-4.843971490737885
-0.10570000000000013,-4.843971490737885
-0.10670000000000024,-4.800115440442069
-0.10770000000000013,-4.800115440442069
-0.10870000000000024,-4.756259390146253
-0.10970000000000013,-4.712403339850438
-0.11070000000000024,-4.712403339850438
-0.11170000000000013,-4.712403339850438
-0.11270000000000002,-4.756259390146253
-0.11370000000000013,-4.756259390146253
-0.11470000000000002,-4.800115440442069
-0.11570000000000014,-4.800115440442069
-0.11670000000000003,-4.843971490737885
-0.11770000000000014,-4.887827541033701
-0.11870000000000003,-4.887827541033701
-0.11970000000000014,-4.887827541033701
-0.12070000000000003,-4.887827541033701
-0.12170000000000014,-4.843971490737885
-0.12270000000000003,-4.843971490737885
-0.12370000000000014,-4.800115440442069
-0.12470000000000003,-4.756259390146253
-0.12570000000000014,-4.756259390146253
-0.12670000000000003,-4.756259390146253
-0.12770000000000015,-4.756259390146253
-0.12870000000000004,-4.800115440442069
-0.12970000000000015,-4.887827541033701
-0.13070000000000004,-4.887827541033701
-0.13170000000000015,-4.887827541033701
-0.13270000000000004,-4.9302688800296535
-0.13370000000000015,-4.9302688800296535
-0.13470000000000004,-4.9302688800296535
-0.13570000000000015,-4.9302688800296535
-0.13670000000000004,-4.887827541033701
-0.13770000000000016,-4.887827541033701
-0.13870000000000005,-4.843971490737885
-0.13970000000000016,-4.843971490737885
-0.14070000000000005,-4.843971490737885
-0.14170000000000016,-4.843971490737885
-0.14270000000000005,-4.843971490737885
-0.14370000000000016,-4.887827541033701
-0.14470000000000005,-4.9302688800296535
-0.14570000000000016,-4.974124930325469
-0.14670000000000005,-4.974124930325469
-0.14770000000000016,-5.017980980621284
-0.14870000000000005,-5.017980980621284
-0.14970000000000017,-5.017980980621284
-0.15070000000000006,-5.017980980621284
-0.15170000000000017,-4.974124930325469
-0.15270000000000006,-4.974124930325469
-0.15370000000000017,-4.9302688800296535
-0.15470000000000006,-4.9302688800296535
-0.15570000000000017,-4.9302688800296535
-0.15670000000000006,-4.9302688800296535
-0.15770000000000017,-4.9302688800296535
-0.15870000000000006,-4.974124930325469
-0.15970000000000018,-5.017980980621284
-0.16070000000000007,-5.017980980621284
-0.16170000000000018,-5.0618370309171015
-0.16270000000000007,-5.105693081212917
-0.16370000000000018,-5.105693081212917
-0.16470000000000007,-5.149549131508733
-0.16570000000000018,-5.105693081212917
-0.16670000000000007,-5.105693081212917
-0.16770000000000018,-5.0618370309171015
-0.16870000000000007,-5.0618370309171015
-0.16970000000000018,-5.017980980621284
-0.17070000000000007,-5.017980980621284
-0.17170000000000019,-5.0618370309171015
-0.17270000000000008,-5.0618370309171015
-0.1737000000000002,-5.105693081212917
-0.17470000000000008,-5.149549131508733
-0.1757000000000002,-5.191990470504685
-0.17670000000000008,-5.191990470504685
-0.1777000000000002,-5.279702571096316
-0.17870000000000008,-5.235846520800501
-0.1797000000000002,-5.279702571096316
-0.18070000000000008,-5.279702571096316
-0.1817000000000002,-5.235846520800501
-0.18270000000000008,-5.235846520800501
-0.1837000000000002,-5.191990470504685
-0.1847000000000001,-5.191990470504685
-0.1857000000000002,-5.191990470504685
-0.1867000000000001,-5.191990470504685
-0.1877000000000002,-5.191990470504685
-0.1887000000000001,-5.235846520800501
-0.1897000000000002,-5.279702571096316
-0.1907000000000001,-5.367414671687949
-0.1917000000000001,-5.367414671687949
-0.19269999999999998,-5.411270721983764
-0.1937000000000001,-5.411270721983764
-0.19469999999999998,-5.411270721983764
-0.1957000000000001,-5.411270721983764
-0.19669999999999999,-5.411270721983764
-0.1977000000000001,-5.411270721983764
-0.1987,-5.367414671687949
-0.1997000000000001,-5.367414671687949
-0.2007,-5.367414671687949
-0.2017000000000001,-5.367414671687949
-0.2027,-5.367414671687949
-0.2037000000000001,-5.411270721983764
-0.2047,-5.453712060979717
-0.2057000000000001,-5.5414241615713475
-0.2067,-5.5414241615713475
-0.2077000000000001,-5.585280211867165
-0.2087,-5.585280211867165
-0.2097000000000001,-5.585280211867165
-0.2107,-5.585280211867165
-0.2117000000000001,-5.585280211867165
-0.2127,-5.585280211867165
-0.2137000000000001,-5.5414241615713475
-0.2147,-5.5414241615713475
-0.2157000000000001,-5.585280211867165
-0.2167,-5.585280211867165
-0.21770000000000012,-5.585280211867165
-0.2187,-5.585280211867165
-0.21970000000000012,-5.672992312458796
-0.2207,-5.715433651454749
-0.22170000000000012,-5.759289701750564
-0.2227,-5.80314575204638
-0.22370000000000012,-5.80314575204638
-0.2247,-5.80314575204638
-0.22570000000000012,-5.80314575204638
-0.2267,-5.80314575204638
-0.22770000000000012,-5.80314575204638
-0.22870000000000001,-5.759289701750564
-0.22970000000000013,-5.759289701750564
-0.23070000000000002,-5.759289701750564
-0.23170000000000013,-5.759289701750564
-0.23270000000000002,-5.759289701750564
-0.23370000000000013,-5.80314575204638
-0.23470000000000002,-5.890857852638012
-0.23570000000000013,-5.9347139029338285
-0.23670000000000002,-5.9347139029338285
-0.2376999999999999,-6.021011292225596
-0.23870000000000002,-6.021011292225596
-0.2396999999999999,-6.021011292225596
-0.24070000000000003,-6.021011292225596
-0.24169999999999991,-5.977155241929781
-0.24270000000000003,-5.977155241929781
-0.24369999999999992,-5.977155241929781
-0.24470000000000003,-5.977155241929781
-0.24569999999999992,-5.977155241929781
-0.24670000000000003,-5.977155241929781
-0.24769999999999992,-5.977155241929781
-0.24870000000000003,-6.021011292225596
-0.24969999999999992,-6.108723392817228
-0.25070000000000003,-6.152579443113044
-0.2516999999999999,-6.196435493408861
-0.25270000000000004,-6.238876832404812
-0.2536999999999999,-6.238876832404812
-0.25470000000000004,-6.282732882700628
-0.2556999999999999,-6.238876832404812
-0.25670000000000004,-6.238876832404812
-0.25769999999999993,-6.238876832404812
-0.25870000000000004,-6.238876832404812
-0.25969999999999993,-6.238876832404812
-0.26070000000000004,-6.238876832404812
-0.26169999999999993,-6.282732882700628
-0.26270000000000004,-6.282732882700628
-0.26369999999999993,-6.326588932996443
-0.26470000000000005,-6.37044498329226
-0.26569999999999994,-6.414301033588076
-0.26670000000000005,-6.500598422879844
-0.26769999999999994,-6.54445447317566
-0.26870000000000005,-6.54445447317566
-0.26969999999999994,-6.588310523471475
-0.27070000000000005,-6.588310523471475
-0.27169999999999994,-6.588310523471475
-0.27270000000000005,-6.588310523471475
-0.27369999999999994,-6.588310523471475
-0.27470000000000006,-6.588310523471475
-0.27569999999999995,-6.632166573767292
-0.27670000000000006,-6.632166573767292
-0.27769999999999995,-6.632166573767292
-0.27870000000000006,-6.719878674358924
-0.27969999999999995,-6.762320013354876
-0.28070000000000006,-6.806176063650692
-0.28169999999999995,-6.893888164242324
-0.28270000000000006,-6.93774421453814
-0.28369999999999995,-6.981600264833956
-0.28470000000000006,-7.024041603829907
-0.28569999999999995,-7.024041603829907
-0.28670000000000007,-7.024041603829907
-0.28769999999999996,-7.067897654125724
-0.28870000000000007,-7.067897654125724
-0.28969999999999996,-7.024041603829907
-0.29070000000000007,-7.111753704421539
-0.29169999999999996,-7.155609754717355
-0.29270000000000007,-7.199465805013171
-0.29369999999999996,-7.243321855308987
-0.2947000000000001,-7.329619244600755
-0.29569999999999996,-7.37347529489657
-0.2967000000000001,-7.461187395488204
-0.29769999999999996,-7.591340835075788
-0.2987000000000001,-7.5474847847799715
-0.29969999999999997,-7.635196885371603
-0.3007000000000001,-7.679052935667419
-0.30169999999999997,-7.722908985963235
-0.3027000000000001,-7.722908985963235
-0.30369999999999997,-7.7653503249591855
-0.3047000000000001,-7.7653503249591855
-0.30569999999999997,-7.809206375255003
-0.3067000000000001,-7.896918475846635
-0.3077,-7.940774526142452
-0.3087000000000001,-8.027071915434218
-0.3097,-8.11478401602585
-0.3107000000000001,-8.246352166913299
-0.3117,-8.288793505909249
-0.3127000000000001,-8.4203616567967
-0.3137,-8.508073757388331
-0.3147000000000001,-8.55051509638428
-0.3157,-8.594371146680096
-0.3167000000000001,-8.638227196975913
-0.3177,-8.725939297567548
-0.3187000000000001,-8.769795347863363
-0.3197,-8.812236686859313
-0.3207000000000001,-8.899948787450944
-0.3217,-8.987660888042578
-0.3227000000000001,-9.073958277334345
-0.3237,-9.205526428221793
-0.3247000000000001,-9.335679867809377
-0.3257,-9.467248018696827
-0.3267000000000001,-9.59740145828441
-0.3277,-9.728969609171857
-0.3287000000000001,-9.81668170976349
-0.3297,-9.946835149351072
-0.3307000000000001,-9.99069119964689
-0.3317,-10.120844639234473
-0.3327000000000001,-10.208556739826104
-0.3337,-10.296268840417738
-0.3347000000000001,-10.382566229709504
-0.3357,-10.557990430892769
-0.3367000000000001,-10.644287820184536
-0.3377,-10.775855971071984
-0.3387000000000001,-10.949865460955383
-0.3397,-11.1677310011346
-0.3407000000000001,-11.343155202317865
-0.3417,-11.517164692201263
-0.3427000000000001,-11.73503023238048
-0.3437,-11.909039722263879
-0.3447000000000001,-12.040607873151327
-0.3457,-12.214617363034726
-0.3467000000000001,-12.390041564217992
-0.3477,-12.56405105410139
-0.3487000000000001,-12.694204493688973
-0.3497,-12.869628694872238
-0.3507000000000001,-13.087494235051453
-0.3517,-13.30535977523067
-0.3527000000000001,-13.523225315409885
-0.3537,-13.784946905884919
-0.3547000000000001,-14.046668496359947
-0.3557,-14.30273124163552
-0.35670000000000013,-14.57152638860988
-0.3577,-14.868615761581536
-0.35870000000000013,-15.137410908555893
-0.3597,-15.448647394526201
-0.36070000000000013,-15.660854089505953
-0.3617,-15.972090575476265
-0.3626999999999999,-16.22673860945197
-0.3637,-16.53797509542228
-0.3646999999999999,-16.835064468393938
-0.3657,-17.146300954364243
-0.3666999999999999,-17.48583166633185
-0.3677,-17.839509491298113
-0.3686999999999999,-18.27806999425627
-0.36970000000000003,-18.716630497214435
-0.3706999999999999,-19.112749661176647
-0.37170000000000003,-19.537163051136158
-0.3726999999999999,-20.06060623208622
-0.37370000000000003,-20.499166735044383
-0.3746999999999999,-20.980168576998494
-0.37570000000000003,-21.503611757948562
-0.3766999999999999,-21.98461359990267
-0.37770000000000004,-22.508056780852733
-0.3786999999999999,-23.073941300798747
-0.37970000000000004,-23.597384481748815
-0.3806999999999999,-24.20571034069078
-0.38170000000000004,-24.870624651627345
-0.38269999999999993,-25.521391849565262
-0.38370000000000004,-26.257041725495082
-0.38469999999999993,-27.049280053419505
-0.38570000000000004,-27.827371268345274
-0.38669999999999993,-27.827371268345274
-0.38570000000000004,-27.00683871442355
-0.38469999999999993,-26.61071955046134
-0.38370000000000004,-26.38436574248293
-0.38269999999999993,-26.129717708507226
-0.38170000000000004,-26.002393691519377
-0.3806999999999999,-25.86092256153287
-0.37970000000000004,-25.691157205549064
-0.3786999999999999,-25.563833188561212
-0.37770000000000004,-25.43650917157336
-0.3766999999999999,-25.295038041586857
-0.37570000000000003,-25.12527268560305
-0.3746999999999999,-24.997948668615198
-0.37370000000000003,-24.9130659906233
-0.3726999999999999,-24.729153521640843
-0.37170000000000003,-24.559388165657033
-0.3706999999999999,-24.432064148669184
-0.36970000000000003,-24.24815167968673
-0.3686999999999999,-24.035944984706973
-0.3677,-23.823738289727217
-0.3666999999999999,-23.51250180375691
-0.3657,-23.300295108777156
-0.3646999999999999,-23.031499961802798
-0.3637,-22.72026347583249
-0.3626999999999999,-22.46561544185678
-0.3617,-22.15437895588647
-0.36070000000000013,-21.899730921910766
-0.3597,-21.63093577493641
-0.35870000000000013,-21.418729079956652
-0.3577,-21.149933932982297
-0.35670000000000013,-20.85284456001064
-0.3557,-20.584049413036283
-0.3547000000000001,-20.286960040064624
-0.3537,-20.01816489309027
-0.3527000000000001,-19.678634181122664
-0.3517,-19.367397695152352
-0.3507000000000001,-19.01371987018609
-0.3497,-18.716630497214435
-0.3487000000000001,-18.320511333252224
-0.3477,-18.009274847281915
-0.3467000000000001,-17.71218547431026
-0.3457,-17.358507649344002
-0.3447000000000001,-17.061418276372343
-0.3437,-16.792623129397985
-0.3427000000000001,-16.495533756426326
-0.3417,-16.184297270456018
-0.3407000000000001,-15.91550212348166
-0.3397,-15.575971411514052
-0.3387000000000001,-15.264734925543747
-0.3377,-14.925204213576137
-0.3367000000000001,-14.61396772760583
-0.3357,-14.30273124163552
-0.3347000000000001,-13.960371107068182
-0.3337,-13.610937416001518
-0.3327000000000001,-13.30535977523067
-0.3317,-12.99978213445982
-0.3307000000000001,-12.694204493688973
-0.3297,-12.390041564217992
-0.3287000000000001,-12.12831997374296
-0.3277,-11.86659838326793
-0.3267000000000001,-11.604876792792895
-0.3257,-11.343155202317865
-0.3247000000000001,-11.037577561547016
-0.3237,-10.775855971071984
-0.3227000000000001,-10.470278330301136
-0.3217,-10.164700689530287
-0.3207000000000001,-9.85912304875944
-0.3197,-9.59740145828441
-0.3187000000000001,-9.293238528813426
-0.3177,-9.031516938338395
-0.3167000000000001,-8.769795347863363
-0.3157,-8.508073757388331
-0.3147000000000001,-8.288793505909249
-0.3137,-8.070927965730034
-0.3127000000000001,-7.809206375255003
-0.3117,-7.591340835075788
-0.3107000000000001,-7.4173313451923875
-0.3097,-7.155609754717355
-0.3087000000000001,-6.93774421453814
-0.3077,-6.6760226240631075
-0.3067000000000001,-6.414301033588076
-0.30569999999999997,-6.196435493408861
-0.3047000000000001,-5.9347139029338285
-0.30369999999999997,-5.715433651454749
-0.3027000000000001,-5.497568111275533
-0.30169999999999997,-5.279702571096316
-0.3007000000000001,-5.0618370309171015
-0.29969999999999997,-4.887827541033701
-0.2987000000000001,-4.756259390146253
-0.29769999999999996,-4.538393849967037
-0.2967000000000001,-4.406825699079589
-0.29569999999999996,-4.23281620919619
-0.2947000000000001,-4.0588067193127895
-0.29369999999999996,-3.884797229429391
-0.29270000000000007,-3.6655169779503103
-0.29169999999999996,-3.447651437771094
-0.29070000000000007,-3.273641947887695
-0.28969999999999996,-3.0996324580042955
-0.28870000000000007,-2.924208256821031
-0.28769999999999996,-2.7501987669376318
-0.28670000000000007,-2.576189277054232
-0.28569999999999995,-2.4446211261667834
-0.28470000000000006,-2.3144676865791998
-0.28369999999999995,-2.1828995356917518
-0.28270000000000006,-2.052746096104168
-0.28169999999999995,-1.92117794521672
-0.28070000000000006,-1.8334658446250875
-0.27969999999999995,-1.7033124050375041
-0.27870000000000006,-1.5717442541500557
-0.27769999999999995,-1.3980177065266295
-0.27670000000000006,-1.2671569112891135
-0.27569999999999995,-1.1362961160515976
-0.27470000000000006,-0.9617207416482519
-0.27369999999999994,-0.8308599464107361
-0.27270000000000005,-0.7001406223032067
-0.27169999999999994,-0.5692798270656908
-0.27070000000000005,-0.4384190318281749
-0.26969999999999994,-0.3947044526623452
-0.26870000000000005,-0.30755823659065895
-0.26769999999999994,-0.2202705493889862
-0.26670000000000005,-0.1330535977523067
-0.26569999999999994,-0.08943804837746762
-0.26470000000000005,0.04140859974704963
