Sept. 5, 2024   01:37:32
Cyclic Voltammetry
File: c:/users/guazh/data/20240903_batch_252_500/2024-09-03-exp266\exp266-2024-09-05t01_09_56-arkoh\exp266_cv_sr_300mvs_efin_-1900mv.bin
Data Source:  Experiment
Instrument Model:  CHI760E
Header: CV ran at 300 mVs
Note: 

Init E (V) = -1
High E (V) = -1
Low E (V) = -1.9
Final E (V) = -1
Init P/N = N
Scan Rate (V/s) = 0.3
Segment = 3
Sample Interval (V) = 0.001
Quiet Time (sec) = 2
Sensitivity (A/V) = 0.01
Comp R (ohm) = 4.5

Results:

Channel 1:
Segment 1:
Ep = -1.885V
ip = 1.339e-2A
Ah = 2.681e-3C

Segment 2:
Segment 3:

Potential/V, Current/A

-1.000, 3.239e-6
-1.001, 3.239e-6
-1.002, 3.239e-6
-1.003, 3.239e-6
-1.004, 3.239e-6
-1.005, 3.239e-6
-1.006, 3.239e-6
-1.007, 3.239e-6
-1.008, 3.239e-6
-1.009, 6.322e-6
-1.010, 6.322e-6
-1.011, 6.322e-6
-1.012, 6.322e-6
-1.013, 6.322e-6
-1.014, 6.322e-6
-1.015, 6.322e-6
-1.016, 6.322e-6
-1.017, 6.322e-6
-1.018, 6.322e-6
-1.019, 6.322e-6
-1.020, 6.322e-6
-1.021, 6.322e-6
-1.022, 6.322e-6
-1.023, 6.322e-6
-1.024, 6.322e-6
-1.025, 6.322e-6
-1.026, 6.322e-6
-1.027, 9.405e-6
-1.028, 9.405e-6
-1.029, 6.322e-6
-1.030, 6.322e-6
-1.031, 9.405e-6
-1.032, 6.322e-6
-1.033, 9.405e-6
-1.034, 6.322e-6
-1.035, 9.405e-6
-1.036, 6.322e-6
-1.037, 6.322e-6
-1.038, 9.405e-6
-1.039, 9.405e-6
-1.040, 9.405e-6
-1.041, 9.405e-6
-1.042, 9.405e-6
-1.043, 9.405e-6
-1.044, 9.405e-6
-1.045, 9.405e-6
-1.046, 6.322e-6
-1.047, 9.405e-6
-1.048, 6.322e-6
-1.049, 9.405e-6
-1.050, 9.405e-6
-1.051, 9.405e-6
-1.052, 9.405e-6
-1.053, 9.405e-6
-1.054, 9.405e-6
-1.055, 9.405e-6
-1.056, 9.405e-6
-1.057, 9.405e-6
-1.058, 9.405e-6
-1.059, 9.405e-6
-1.060, 9.405e-6
-1.061, 9.405e-6
-1.062, 9.405e-6
-1.063, 9.405e-6
-1.064, 9.405e-6
-1.065, 9.405e-6
-1.066, 9.405e-6
-1.067, 9.405e-6
-1.068, 9.405e-6
-1.069, 9.405e-6
-1.070, 1.249e-5
-1.071, 9.405e-6
-1.072, 9.405e-6
-1.073, 9.405e-6
-1.074, 9.405e-6
-1.075, 9.405e-6
-1.076, 9.405e-6
-1.077, 9.405e-6
-1.078, 9.405e-6
-1.079, 9.405e-6
-1.080, 9.405e-6
-1.081, 9.405e-6
-1.082, 9.405e-6
-1.083, 9.405e-6
-1.084, 9.405e-6
-1.085, 9.405e-6
-1.086, 9.405e-6
-1.087, 1.249e-5
-1.088, 9.405e-6
-1.089, 1.249e-5
-1.090, 9.405e-6
-1.091, 9.405e-6
-1.092, 9.405e-6
-1.093, 9.405e-6
-1.094, 1.249e-5
-1.095, 9.405e-6
-1.096, 1.249e-5
-1.097, 9.405e-6
-1.098, 9.405e-6
-1.099, 1.249e-5
-1.100, 1.249e-5
-1.101, 9.405e-6
-1.102, 1.249e-5
-1.103, 1.249e-5
-1.104, 1.249e-5
-1.105, 1.249e-5
-1.106, 1.249e-5
-1.107, 1.249e-5
-1.108, 9.405e-6
-1.109, 9.405e-6
-1.110, 1.249e-5
-1.111, 1.249e-5
-1.112, 1.249e-5
-1.113, 1.249e-5
-1.114, 1.249e-5
-1.115, 1.249e-5
-1.116, 1.249e-5
-1.117, 1.249e-5
-1.118, 1.249e-5
-1.119, 1.249e-5
-1.120, 1.249e-5
-1.121, 1.249e-5
-1.122, 1.249e-5
-1.123, 1.249e-5
-1.124, 9.405e-6
-1.125, 1.249e-5
-1.126, 1.249e-5
-1.127, 1.249e-5
-1.128, 1.249e-5
-1.129, 1.249e-5
-1.130, 1.249e-5
-1.131, 1.249e-5
-1.132, 1.249e-5
-1.133, 1.249e-5
-1.134, 1.249e-5
-1.135, 1.249e-5
-1.136, 1.249e-5
-1.137, 1.249e-5
-1.138, 1.249e-5
-1.139, 1.249e-5
-1.140, 1.249e-5
-1.141, 1.249e-5
-1.142, 1.249e-5
-1.143, 1.249e-5
-1.144, 1.249e-5
-1.145, 1.557e-5
-1.146, 1.557e-5
-1.147, 1.249e-5
-1.148, 1.557e-5
-1.149, 1.249e-5
-1.150, 1.249e-5
-1.151, 1.249e-5
-1.152, 1.249e-5
-1.153, 1.249e-5
-1.154, 1.249e-5
-1.155, 1.557e-5
-1.156, 1.557e-5
-1.157, 1.249e-5
-1.158, 1.557e-5
-1.159, 1.557e-5
-1.160, 1.557e-5
-1.161, 1.249e-5
-1.162, 1.557e-5
-1.163, 1.249e-5
-1.164, 1.557e-5
-1.165, 1.249e-5
-1.166, 1.249e-5
-1.167, 1.249e-5
-1.168, 1.249e-5
-1.169, 1.249e-5
-1.170, 1.249e-5
-1.171, 1.557e-5
-1.172, 1.557e-5
-1.173, 1.557e-5
-1.174, 1.557e-5
-1.175, 1.557e-5
-1.176, 1.249e-5
-1.177, 1.557e-5
-1.178, 1.557e-5
-1.179, 1.557e-5
-1.180, 1.249e-5
-1.181, 1.249e-5
-1.182, 1.557e-5
-1.183, 1.249e-5
-1.184, 1.557e-5
-1.185, 1.249e-5
-1.186, 1.249e-5
-1.187, 1.557e-5
-1.188, 1.557e-5
-1.189, 1.557e-5
-1.190, 1.557e-5
-1.191, 1.557e-5
-1.192, 1.557e-5
-1.193, 1.557e-5
-1.194, 1.557e-5
-1.195, 1.557e-5
-1.196, 1.249e-5
-1.197, 1.557e-5
-1.198, 1.557e-5
-1.199, 1.557e-5
-1.200, 1.557e-5
-1.201, 1.557e-5
-1.202, 1.557e-5
-1.203, 1.557e-5
-1.204, 1.557e-5
-1.205, 1.557e-5
-1.206, 1.557e-5
-1.207, 1.557e-5
-1.208, 1.557e-5
-1.209, 1.557e-5
-1.210, 1.557e-5
-1.211, 1.557e-5
-1.212, 1.557e-5
-1.213, 1.557e-5
-1.214, 1.557e-5
-1.215, 1.249e-5
-1.216, 1.557e-5
-1.217, 1.557e-5
-1.218, 1.557e-5
-1.219, 1.557e-5
-1.220, 1.557e-5
-1.221, 1.557e-5
-1.222, 1.557e-5
-1.223, 1.557e-5
-1.224, 1.557e-5
-1.225, 1.557e-5
-1.226, 1.557e-5
-1.227, 1.557e-5
-1.228, 1.557e-5
-1.229, 1.557e-5
-1.230, 1.557e-5
-1.231, 1.557e-5
-1.232, 1.557e-5
-1.233, 1.557e-5
-1.234, 1.557e-5
-1.235, 1.865e-5
-1.236, 1.557e-5
-1.237, 1.865e-5
-1.238, 1.557e-5
-1.239, 1.557e-5
-1.240, 1.557e-5
-1.241, 1.557e-5
-1.242, 1.557e-5
-1.243, 1.557e-5
-1.244, 1.557e-5
-1.245, 1.557e-5
-1.246, 1.557e-5
-1.247, 1.865e-5
-1.248, 1.865e-5
-1.249, 1.865e-5
-1.250, 1.865e-5
-1.251, 1.865e-5
-1.252, 1.865e-5
-1.253, 1.865e-5
-1.254, 1.865e-5
-1.255, 1.865e-5
-1.256, 1.865e-5
-1.257, 1.865e-5
-1.258, 1.865e-5
-1.259, 1.865e-5
-1.260, 1.865e-5
-1.261, 1.865e-5
-1.262, 1.865e-5
-1.263, 1.865e-5
-1.264, 1.865e-5
-1.265, 1.865e-5
-1.266, 1.865e-5
-1.267, 1.865e-5
-1.268, 1.865e-5
-1.269, 1.865e-5
-1.270, 1.865e-5
-1.271, 1.865e-5
-1.272, 1.865e-5
-1.273, 1.865e-5
-1.274, 1.865e-5
-1.275, 2.174e-5
-1.276, 1.865e-5
-1.277, 1.865e-5
-1.278, 1.865e-5
-1.279, 1.865e-5
-1.280, 1.865e-5
-1.281, 1.865e-5
-1.282, 1.865e-5
-1.283, 1.865e-5
-1.284, 1.865e-5
-1.285, 1.865e-5
-1.286, 1.865e-5
-1.287, 1.865e-5
-1.288, 1.865e-5
-1.289, 1.865e-5
-1.290, 1.865e-5
-1.291, 1.865e-5
-1.292, 2.174e-5
-1.293, 1.865e-5
-1.294, 1.865e-5
-1.295, 2.174e-5
-1.296, 1.865e-5
-1.297, 1.865e-5
-1.298, 2.174e-5
-1.299, 2.174e-5
-1.300, 1.865e-5
-1.301, 2.174e-5
-1.302, 2.174e-5
-1.303, 2.174e-5
-1.304, 2.174e-5
-1.305, 2.174e-5
-1.306, 2.174e-5
-1.307, 2.174e-5
-1.308, 2.174e-5
-1.309, 2.174e-5
-1.310, 2.174e-5
-1.311, 2.174e-5
-1.312, 2.174e-5
-1.313, 2.174e-5
-1.314, 2.174e-5
-1.315, 2.174e-5
-1.316, 2.174e-5
-1.317, 2.174e-5
-1.318, 2.174e-5
-1.319, 2.174e-5
-1.320, 2.482e-5
-1.321, 2.174e-5
-1.322, 2.174e-5
-1.323, 2.482e-5
-1.324, 2.482e-5
-1.325, 2.174e-5
-1.326, 2.174e-5
-1.327, 2.482e-5
-1.328, 2.482e-5
-1.329, 2.482e-5
-1.330, 2.482e-5
-1.331, 2.482e-5
-1.332, 2.482e-5
-1.333, 2.482e-5
-1.334, 2.482e-5
-1.335, 2.482e-5
-1.336, 2.482e-5
-1.337, 2.482e-5
-1.338, 2.482e-5
-1.339, 2.482e-5
-1.340, 2.482e-5
-1.341, 2.482e-5
-1.342, 2.790e-5
-1.343, 2.482e-5
-1.344, 2.482e-5
-1.345, 2.482e-5
-1.346, 2.790e-5
-1.347, 2.790e-5
-1.348, 2.790e-5
-1.349, 2.790e-5
-1.350, 2.790e-5
-1.351, 2.790e-5
-1.352, 2.790e-5
-1.353, 2.790e-5
-1.354, 2.790e-5
-1.355, 2.790e-5
-1.356, 2.790e-5
-1.357, 2.790e-5
-1.358, 2.790e-5
-1.359, 3.099e-5
-1.360, 3.099e-5
-1.361, 3.099e-5
-1.362, 3.099e-5
-1.363, 2.790e-5
-1.364, 2.790e-5
-1.365, 3.099e-5
-1.366, 2.790e-5
-1.367, 3.099e-5
-1.368, 3.099e-5
-1.369, 3.099e-5
-1.370, 3.099e-5
-1.371, 3.099e-5
-1.372, 3.099e-5
-1.373, 3.099e-5
-1.374, 3.099e-5
-1.375, 3.099e-5
-1.376, 3.099e-5
-1.377, 3.407e-5
-1.378, 3.407e-5
-1.379, 3.407e-5
-1.380, 3.407e-5
-1.381, 3.407e-5
-1.382, 3.407e-5
-1.383, 3.407e-5
-1.384, 3.407e-5
-1.385, 3.407e-5
-1.386, 3.407e-5
-1.387, 3.407e-5
-1.388, 3.407e-5
-1.389, 3.407e-5
-1.390, 3.407e-5
-1.391, 3.407e-5
-1.392, 3.715e-5
-1.393, 3.715e-5
-1.394, 3.715e-5
-1.395, 3.715e-5
-1.396, 3.715e-5
-1.397, 3.715e-5
-1.398, 3.715e-5
-1.399, 3.715e-5
-1.400, 3.715e-5
-1.401, 3.715e-5
-1.402, 3.715e-5
-1.403, 3.715e-5
-1.404, 4.024e-5
-1.405, 4.024e-5
-1.406, 4.024e-5
-1.407, 4.024e-5
-1.408, 4.024e-5
-1.409, 4.024e-5
-1.410, 4.024e-5
-1.411, 4.024e-5
-1.412, 4.332e-5
-1.413, 4.024e-5
-1.414, 4.332e-5
-1.415, 4.332e-5
-1.416, 4.024e-5
-1.417, 4.332e-5
-1.418, 4.332e-5
-1.419, 4.332e-5
-1.420, 4.332e-5
-1.421, 4.332e-5
-1.422, 4.332e-5
-1.423, 4.640e-5
-1.424, 4.332e-5
-1.425, 4.640e-5
-1.426, 4.640e-5
-1.427, 4.640e-5
-1.428, 4.640e-5
-1.429, 4.640e-5
-1.430, 4.640e-5
-1.431, 4.640e-5
-1.432, 4.640e-5
-1.433, 4.640e-5
-1.434, 4.949e-5
-1.435, 4.949e-5
-1.436, 4.949e-5
-1.437, 4.949e-5
-1.438, 4.949e-5
-1.439, 4.949e-5
-1.440, 4.949e-5
-1.441, 4.949e-5
-1.442, 4.949e-5
-1.443, 4.949e-5
-1.444, 5.257e-5
-1.445, 5.257e-5
-1.446, 5.257e-5
-1.447, 5.257e-5
-1.448, 5.257e-5
-1.449, 5.257e-5
-1.450, 5.257e-5
-1.451, 5.565e-5
-1.452, 5.565e-5
-1.453, 5.565e-5
-1.454, 5.565e-5
-1.455, 5.565e-5
-1.456, 5.565e-5
-1.457, 5.873e-5
-1.458, 5.565e-5
-1.459, 5.873e-5
-1.460, 5.873e-5
-1.461, 5.873e-5
-1.462, 5.873e-5
-1.463, 5.873e-5
-1.464, 6.182e-5
-1.465, 6.182e-5
-1.466, 6.182e-5
-1.467, 6.182e-5
-1.468, 6.182e-5
-1.469, 6.182e-5
-1.470, 6.182e-5
-1.471, 6.182e-5
-1.472, 6.182e-5
-1.473, 6.182e-5
-1.474, 6.490e-5
-1.475, 6.490e-5
-1.476, 6.490e-5
-1.477, 6.490e-5
-1.478, 6.490e-5
-1.479, 6.490e-5
-1.480, 6.798e-5
-1.481, 6.798e-5
-1.482, 6.798e-5
-1.483, 6.798e-5
-1.484, 6.798e-5
-1.485, 6.798e-5
-1.486, 7.107e-5
-1.487, 6.798e-5
-1.488, 7.107e-5
-1.489, 7.107e-5
-1.490, 7.107e-5
-1.491, 7.107e-5
-1.492, 7.415e-5
-1.493, 7.415e-5
-1.494, 7.415e-5
-1.495, 7.723e-5
-1.496, 7.723e-5
-1.497, 7.723e-5
-1.498, 7.723e-5
-1.499, 7.723e-5
-1.500, 7.723e-5
-1.501, 7.723e-5
-1.502, 7.723e-5
-1.503, 8.032e-5
-1.504, 8.032e-5
-1.505, 8.032e-5
-1.506, 8.032e-5
-1.507, 8.340e-5
-1.508, 8.340e-5
-1.509, 8.340e-5
-1.510, 8.648e-5
-1.511, 8.340e-5
-1.512, 8.648e-5
-1.513, 8.340e-5
-1.514, 8.648e-5
-1.515, 8.648e-5
-1.516, 8.957e-5
-1.517, 8.957e-5
-1.518, 8.957e-5
-1.519, 9.265e-5
-1.520, 9.265e-5
-1.521, 9.265e-5
-1.522, 9.265e-5
-1.523, 9.265e-5
-1.524, 9.265e-5
-1.525, 9.573e-5
-1.526, 9.573e-5
-1.527, 9.573e-5
-1.528, 9.573e-5
-1.529, 9.882e-5
-1.530, 9.882e-5
-1.531, 9.882e-5
-1.532, 1.019e-4
-1.533, 1.019e-4
-1.534, 1.019e-4
-1.535, 1.019e-4
-1.536, 1.050e-4
-1.537, 1.050e-4
-1.538, 1.081e-4
-1.539, 1.081e-4
-1.540, 1.081e-4
-1.541, 1.081e-4
-1.542, 1.111e-4
-1.543, 1.111e-4
-1.544, 1.142e-4
-1.545, 1.142e-4
-1.546, 1.142e-4
-1.547, 1.142e-4
-1.548, 1.173e-4
-1.549, 1.173e-4
-1.550, 1.173e-4
-1.551, 1.204e-4
-1.552, 1.204e-4
-1.553, 1.204e-4
-1.554, 1.235e-4
-1.555, 1.235e-4
-1.556, 1.235e-4
-1.557, 1.266e-4
-1.558, 1.266e-4
-1.559, 1.296e-4
-1.560, 1.296e-4
-1.561, 1.296e-4
-1.562, 1.296e-4
-1.563, 1.296e-4
-1.564, 1.327e-4
-1.565, 1.358e-4
-1.566, 1.358e-4
-1.567, 1.358e-4
-1.568, 1.389e-4
-1.569, 1.389e-4
-1.570, 1.389e-4
-1.571, 1.420e-4
-1.572, 1.451e-4
-1.573, 1.451e-4
-1.574, 1.451e-4
-1.575, 1.481e-4
-1.576, 1.481e-4
-1.577, 1.512e-4
-1.578, 1.512e-4
-1.579, 1.512e-4
-1.580, 1.543e-4
-1.581, 1.574e-4
-1.582, 1.574e-4
-1.583, 1.605e-4
-1.584, 1.605e-4
-1.585, 1.636e-4
-1.586, 1.636e-4
-1.587, 1.636e-4
-1.588, 1.636e-4
-1.589, 1.666e-4
-1.590, 1.697e-4
-1.591, 1.728e-4
-1.592, 1.728e-4
-1.593, 1.759e-4
-1.594, 1.759e-4
-1.595, 1.790e-4
-1.596, 1.790e-4
-1.597, 1.821e-4
-1.598, 1.851e-4
-1.599, 1.851e-4
-1.600, 1.882e-4
-1.601, 1.882e-4
-1.602, 1.913e-4
-1.603, 1.944e-4
-1.604, 1.975e-4
-1.605, 1.975e-4
-1.606, 2.006e-4
-1.607, 2.036e-4
-1.608, 2.036e-4
-1.609, 2.067e-4
-1.610, 2.098e-4
-1.611, 2.098e-4
-1.612, 2.129e-4
-1.613, 2.160e-4
-1.614, 2.160e-4
-1.615, 2.221e-4
-1.616, 2.221e-4
-1.617, 2.252e-4
-1.618, 2.283e-4
-1.619, 2.314e-4
-1.620, 2.345e-4
-1.621, 2.376e-4
-1.622, 2.376e-4
-1.623, 2.437e-4
-1.624, 2.468e-4
-1.625, 2.499e-4
-1.626, 2.530e-4
-1.627, 2.561e-4
-1.628, 2.561e-4
-1.629, 2.591e-4
-1.630, 2.653e-4
-1.631, 2.653e-4
-1.632, 2.684e-4
-1.633, 2.746e-4
-1.634, 2.746e-4
-1.635, 2.746e-4
-1.636, 2.807e-4
-1.637, 2.838e-4
-1.638, 2.869e-4
-1.639, 2.931e-4
-1.640, 2.961e-4
-1.641, 2.992e-4
-1.642, 3.054e-4
-1.643, 3.085e-4
-1.644, 3.146e-4
-1.645, 3.177e-4
-1.646, 3.208e-4
-1.647, 3.239e-4
-1.648, 3.300e-4
-1.649, 3.331e-4
-1.650, 3.393e-4
-1.651, 3.455e-4
-1.652, 3.516e-4
-1.653, 3.516e-4
-1.654, 3.547e-4
-1.655, 3.609e-4
-1.656, 3.640e-4
-1.657, 3.701e-4
-1.658, 3.763e-4
-1.659, 3.825e-4
-1.660, 3.886e-4
-1.661, 3.917e-4
-1.662, 3.979e-4
-1.663, 4.040e-4
-1.664, 4.071e-4
-1.665, 4.133e-4
-1.666, 4.164e-4
-1.667, 4.256e-4
-1.668, 4.287e-4
-1.669, 4.318e-4
-1.670, 4.380e-4
-1.671, 4.441e-4
-1.672, 4.503e-4
-1.673, 4.595e-4
-1.674, 4.688e-4
-1.675, 4.750e-4
-1.676, 4.842e-4
-1.677, 4.935e-4
-1.678, 4.996e-4
-1.679, 5.027e-4
-1.680, 5.120e-4
-1.681, 5.150e-4
-1.682, 5.243e-4
-1.683, 5.335e-4
-1.684, 5.366e-4
-1.685, 5.489e-4
-1.686, 5.613e-4
-1.687, 5.674e-4
-1.688, 5.767e-4
-1.689, 5.829e-4
-1.690, 5.890e-4
-1.691, 5.983e-4
-1.692, 6.106e-4
-1.693, 6.229e-4
-1.694, 6.322e-4
-1.695, 6.384e-4
-1.696, 6.476e-4
-1.697, 6.599e-4
-1.698, 6.723e-4
-1.699, 6.846e-4
-1.700, 6.939e-4
-1.701, 7.031e-4
-1.702, 7.124e-4
-1.703, 7.216e-4
-1.704, 7.370e-4
-1.705, 7.494e-4
-1.706, 7.648e-4
-1.707, 7.771e-4
-1.708, 7.863e-4
-1.709, 7.987e-4
-1.710, 8.110e-4
-1.711, 8.295e-4
-1.712, 8.480e-4
-1.713, 8.603e-4
-1.714, 8.727e-4
-1.715, 8.881e-4
-1.716, 8.973e-4
-1.717, 9.158e-4
-1.718, 9.282e-4
-1.719, 9.467e-4
-1.720, 9.621e-4
-1.721, 9.837e-4
-1.722, 9.929e-4
-1.723, 1.018e-3
-1.724, 1.027e-3
-1.725, 1.051e-3
-1.726, 1.073e-3
-1.727, 1.085e-3
-1.728, 1.098e-3
-1.729, 1.119e-3
-1.730, 1.141e-3
-1.731, 1.162e-3
-1.732, 1.184e-3
-1.733, 1.209e-3
-1.734, 1.230e-3
-1.735, 1.252e-3
-1.736, 1.273e-3
-1.737, 1.298e-3
-1.738, 1.317e-3
-1.739, 1.341e-3
-1.740, 1.369e-3
-1.741, 1.391e-3
-1.742, 1.415e-3
-1.743, 1.446e-3
-1.744, 1.468e-3
-1.745, 1.499e-3
-1.746, 1.529e-3
-1.747, 1.548e-3
-1.748, 1.573e-3
-1.749, 1.600e-3
-1.750, 1.634e-3
-1.751, 1.668e-3
-1.752, 1.693e-3
-1.753, 1.727e-3
-1.754, 1.764e-3
-1.755, 1.798e-3
-1.756, 1.822e-3
-1.757, 1.865e-3
-1.758, 1.906e-3
-1.759, 1.936e-3
-1.760, 1.973e-3
-1.761, 2.013e-3
-1.762, 2.041e-3
-1.763, 2.084e-3
-1.764, 2.121e-3
-1.765, 2.171e-3
-1.766, 2.217e-3
-1.767, 2.251e-3
-1.768, 2.294e-3
-1.769, 2.334e-3
-1.770, 2.380e-3
-1.771, 2.427e-3
-1.772, 2.476e-3
-1.773, 2.522e-3
-1.774, 2.575e-3
-1.775, 2.624e-3
-1.776, 2.682e-3
-1.777, 2.738e-3
-1.778, 2.790e-3
-1.779, 2.834e-3
-1.780, 2.898e-3
-1.781, 2.951e-3
-1.782, 2.997e-3
-1.783, 3.059e-3
-1.784, 3.126e-3
-1.785, 3.194e-3
-1.786, 3.244e-3
-1.787, 3.314e-3
-1.788, 3.373e-3
-1.789, 3.438e-3
-1.790, 3.512e-3
-1.791, 3.577e-3
-1.792, 3.644e-3
-1.793, 3.721e-3
-1.794, 3.780e-3
-1.795, 3.854e-3
-1.796, 3.931e-3
-1.797, 4.008e-3
-1.798, 4.073e-3
-1.799, 4.147e-3
-1.800, 4.224e-3
-1.801, 4.301e-3
-1.802, 4.375e-3
-1.803, 4.455e-3
-1.804, 4.542e-3
-1.805, 4.609e-3
-1.806, 4.705e-3
-1.807, 4.779e-3
-1.808, 4.856e-3
-1.809, 4.939e-3
-1.810, 5.029e-3
-1.811, 5.103e-3
-1.812, 5.208e-3
-1.813, 5.282e-3
-1.814, 5.359e-3
-1.815, 5.439e-3
-1.816, 5.522e-3
-1.817, 5.611e-3
-1.818, 5.704e-3
-1.819, 5.803e-3
-1.820, 5.907e-3
-1.821, 6.009e-3
-1.822, 6.105e-3
-1.823, 6.200e-3
-1.824, 6.308e-3
-1.825, 6.416e-3
-1.826, 6.515e-3
-1.827, 6.617e-3
-1.828, 6.700e-3
-1.829, 6.808e-3
-1.830, 6.925e-3
-1.831, 7.042e-3
-1.832, 7.156e-3
-1.833, 7.273e-3
-1.834, 7.393e-3
-1.835, 7.504e-3
-1.836, 7.622e-3
-1.837, 7.751e-3
-1.838, 7.871e-3
-1.839, 8.004e-3
-1.840, 8.124e-3
-1.841, 8.254e-3
-1.842, 8.374e-3
-1.843, 8.488e-3
-1.844, 8.614e-3
-1.845, 8.753e-3
-1.846, 8.870e-3
-1.847, 9.006e-3
-1.848, 9.132e-3
-1.849, 9.265e-3
-1.850, 9.404e-3
-1.851, 9.539e-3
-1.852, 9.684e-3
-1.853, 9.811e-3
-1.854, 9.940e-3
-1.855, 1.007e-2
-1.856, 1.021e-2
-1.857, 1.035e-2
-1.858, 1.048e-2
-1.859, 1.060e-2
-1.860, 1.074e-2
-1.861, 1.086e-2
-1.862, 1.099e-2
-1.863, 1.115e-2
-1.864, 1.129e-2
-1.865, 1.142e-2
-1.866, 1.157e-2
-1.867, 1.173e-2
-1.868, 1.187e-2
-1.869, 1.200e-2
-1.870, 1.218e-2
-1.871, 1.234e-2
-1.872, 1.251e-2
-1.873, 1.269e-2
-1.874, 1.283e-2
-1.875, 1.296e-2
-1.876, 1.314e-2
-1.877, 1.329e-2
-1.878, 1.342e-2
-1.879, 1.359e-2
-1.880, 1.380e-2
-1.881, 1.396e-2
-1.882, 1.414e-2
-1.883, 1.434e-2
-1.884, 1.442e-2
-1.885, 1.443e-2
-1.886, 1.438e-2
-1.887, 1.428e-2
-1.888, 1.411e-2
-1.889, 1.388e-2
-1.890, 1.376e-2
-1.891, 1.378e-2
-1.892, 1.385e-2
-1.893, 1.370e-2
-1.894, 9.980e-3
-1.895, 7.822e-3
-1.896, 4.902e-3
-1.897, 3.163e-3
-1.898, 2.214e-3
-1.899, 1.671e-3
-1.900, 1.317e-3
-1.899, 1.048e-3
-1.898, 8.727e-4
-1.897, 7.247e-4
-1.896, 6.014e-4
-1.895, 5.674e-4
-1.894, 5.212e-4
-1.893, 4.935e-4
-1.892, 4.688e-4
-1.891, 4.534e-4
-1.890, 4.565e-4
-1.889, 4.349e-4
-1.888, 4.287e-4
-1.887, 4.225e-4
-1.886, 4.040e-4
-1.885, 3.917e-4
-1.884, 3.917e-4
-1.883, 3.917e-4
-1.882, 3.917e-4
-1.881, 3.886e-4
-1.880, 3.886e-4
-1.879, 3.917e-4
-1.878, 3.917e-4
-1.877, 3.855e-4
-1.876, 3.732e-4
-1.875, 3.732e-4
-1.874, 4.195e-4
-1.873, 6.044e-4
-1.872, 7.586e-4
-1.871, 6.784e-4
-1.870, 9.536e-3
-1.869, 9.965e-3
-1.868, 1.039e-2
-1.867, 1.063e-2
-1.866, 1.074e-2
-1.865, 1.078e-2
-1.864, 1.079e-2
-1.863, 1.081e-2
-1.862, 1.082e-2
-1.861, 1.082e-2
-1.860, 1.080e-2
-1.859, 1.076e-2
-1.858, 1.073e-2
-1.857, 1.069e-2
-1.856, 1.064e-2
-1.855, 1.059e-2
-1.854, 1.055e-2
-1.853, 1.051e-2
-1.852, 1.046e-2
-1.851, 1.038e-2
-1.850, 1.032e-2
-1.849, 1.024e-2
-1.848, 1.018e-2
-1.847, 1.010e-2
-1.846, 1.002e-2
-1.845, 9.956e-3
-1.844, 9.885e-3
-1.843, 9.817e-3
-1.842, 9.755e-3
-1.841, 9.675e-3
-1.840, 9.604e-3
-1.839, 9.530e-3
-1.838, 9.450e-3
-1.837, 9.373e-3
-1.836, 9.308e-3
-1.835, 9.240e-3
-1.834, 9.172e-3
-1.833, 9.117e-3
-1.832, 9.055e-3
-1.831, 8.984e-3
-1.830, 8.920e-3
-1.829, 8.836e-3
-1.828, 8.753e-3
-1.827, 8.639e-3
-1.826, 8.547e-3
-1.825, 8.460e-3
-1.824, 8.386e-3
-1.823, 8.315e-3
-1.822, 8.244e-3
-1.821, 8.155e-3
-1.820, 8.056e-3
-1.819, 7.964e-3
-1.818, 7.881e-3
-1.817, 7.791e-3
-1.816, 7.714e-3
-1.815, 7.634e-3
-1.814, 7.575e-3
-1.813, 7.511e-3
-1.812, 7.437e-3
-1.811, 7.378e-3
-1.810, 7.304e-3
-1.809, 7.224e-3
-1.808, 7.147e-3
-1.807, 7.070e-3
-1.806, 7.008e-3
-1.805, 6.949e-3
-1.804, 6.894e-3
-1.803, 6.820e-3
-1.802, 6.743e-3
-1.801, 6.678e-3
-1.800, 6.610e-3
-1.799, 6.521e-3
-1.798, 6.462e-3
-1.797, 6.398e-3
-1.796, 6.321e-3
-1.795, 6.253e-3
-1.794, 6.179e-3
-1.793, 6.095e-3
-1.792, 6.028e-3
-1.791, 5.963e-3
-1.790, 5.892e-3
-1.789, 5.827e-3
-1.788, 5.778e-3
-1.787, 5.704e-3
-1.786, 5.642e-3
-1.785, 5.578e-3
-1.784, 5.513e-3
-1.783, 5.448e-3
-1.782, 5.383e-3
-1.781, 5.322e-3
-1.780, 5.254e-3
-1.779, 5.195e-3
-1.778, 5.134e-3
-1.777, 5.066e-3
-1.776, 5.010e-3
-1.775, 4.949e-3
-1.774, 4.887e-3
-1.773, 4.825e-3
-1.772, 4.770e-3
-1.771, 4.714e-3
-1.770, 4.662e-3
-1.769, 4.603e-3
-1.768, 4.554e-3
-1.767, 4.489e-3
-1.766, 4.437e-3
-1.765, 4.397e-3
-1.764, 4.338e-3
-1.763, 4.286e-3
-1.762, 4.252e-3
-1.761, 4.202e-3
-1.760, 4.141e-3
-1.759, 4.091e-3
-1.758, 4.024e-3
-1.757, 3.934e-3
-1.756, 3.826e-3
-1.755, 3.737e-3
-1.754, 3.672e-3
-1.753, 3.610e-3
-1.752, 3.546e-3
-1.751, 3.496e-3
-1.750, 3.438e-3
-1.749, 3.388e-3
-1.748, 3.336e-3
-1.747, 3.290e-3
-1.746, 3.231e-3
-1.745, 3.182e-3
-1.744, 2.741e-3
-1.743, 2.177e-3
-1.742, 1.727e-3
-1.741, 1.341e-3
-1.740, 1.070e-3
-1.739, 8.788e-4
-1.738, 7.309e-4
-1.737, 6.044e-4
-1.736, 5.459e-4
-1.735, 5.181e-4
-1.734, 4.965e-4
-1.733, 4.750e-4
-1.732, 4.565e-4
-1.731, 4.472e-4
-1.730, 4.318e-4
-1.729, 4.225e-4
-1.728, 4.164e-4
-1.727, 4.102e-4
-1.726, 4.010e-4
-1.725, 3.948e-4
-1.724, 3.917e-4
-1.723, 3.886e-4
-1.722, 3.825e-4
-1.721, 3.825e-4
-1.720, 3.732e-4
-1.719, 3.609e-4
-1.718, 3.547e-4
-1.717, 3.516e-4
-1.716, 3.578e-4
-1.715, 3.609e-4
-1.714, 1.927e-3
-1.713, 1.739e-3
-1.712, 1.714e-3
-1.711, 1.696e-3
-1.710, 1.677e-3
-1.709, 1.659e-3
-1.708, 1.637e-3
-1.707, 1.619e-3
-1.706, 1.600e-3
-1.705, 1.585e-3
-1.704, 1.573e-3
-1.703, 1.557e-3
-1.702, 1.545e-3
-1.701, 1.523e-3
-1.700, 1.502e-3
-1.699, 1.477e-3
-1.698, 1.452e-3
-1.697, 1.434e-3
-1.696, 1.421e-3
-1.695, 1.403e-3
-1.694, 1.388e-3
-1.693, 1.372e-3
-1.692, 1.351e-3
-1.691, 1.326e-3
-1.690, 1.292e-3
-1.689, 1.277e-3
-1.688, 1.264e-3
-1.687, 1.252e-3
-1.686, 1.240e-3
-1.685, 1.221e-3
-1.684, 1.193e-3
-1.683, 1.175e-3
-1.682, 1.150e-3
-1.681, 1.138e-3
-1.680, 1.125e-3
-1.679, 1.116e-3
-1.678, 1.098e-3
-1.677, 1.082e-3
-1.676, 1.073e-3
-1.675, 1.058e-3
-1.674, 1.036e-3
-1.673, 1.018e-3
-1.672, 1.011e-3
-1.671, 9.991e-4
-1.670, 9.868e-4
-1.669, 9.683e-4
-1.668, 9.528e-4
-1.667, 9.374e-4
-1.666, 9.220e-4
-1.665, 9.097e-4
-1.664, 8.943e-4
-1.663, 8.819e-4
-1.662, 8.696e-4
-1.661, 8.573e-4
-1.660, 8.449e-4
-1.659, 8.295e-4
-1.658, 8.172e-4
-1.657, 7.987e-4
-1.656, 7.863e-4
-1.655, 7.771e-4
-1.654, 7.617e-4
-1.653, 7.494e-4
-1.652, 7.339e-4
-1.651, 7.216e-4
-1.650, 7.124e-4
-1.649, 7.031e-4
-1.648, 6.969e-4
-1.647, 6.846e-4
-1.646, 6.723e-4
-1.645, 6.630e-4
-1.644, 6.507e-4
-1.643, 6.414e-4
-1.642, 6.291e-4
-1.641, 6.199e-4
-1.640, 6.106e-4
-1.639, 6.014e-4
-1.638, 5.921e-4
-1.637, 5.829e-4
-1.636, 5.736e-4
-1.635, 5.674e-4
-1.634, 5.582e-4
-1.633, 5.489e-4
-1.632, 5.397e-4
-1.631, 5.305e-4
-1.630, 5.212e-4
-1.629, 5.150e-4
-1.628, 5.089e-4
-1.627, 4.965e-4
-1.626, 4.904e-4
-1.625, 4.842e-4
-1.624, 4.750e-4
-1.623, 4.688e-4
-1.622, 4.595e-4
-1.621, 4.534e-4
-1.620, 4.441e-4
-1.619, 4.380e-4
-1.618, 4.318e-4
-1.617, 4.256e-4
-1.616, 4.164e-4
-1.615, 4.133e-4
-1.614, 4.071e-4
-1.613, 4.010e-4
-1.612, 3.948e-4
-1.611, 3.886e-4
-1.610, 3.794e-4
-1.609, 3.763e-4
-1.608, 3.701e-4
-1.607, 3.609e-4
-1.606, 3.578e-4
-1.605, 3.516e-4
-1.604, 3.455e-4
-1.603, 3.393e-4
-1.602, 3.331e-4
-1.601, 3.270e-4
-1.600, 3.208e-4
-1.599, 3.146e-4
-1.598, 3.115e-4
-1.597, 3.054e-4
-1.596, 3.023e-4
-1.595, 2.961e-4
-1.594, 2.931e-4
-1.593, 2.900e-4
-1.592, 2.838e-4
-1.591, 2.776e-4
-1.590, 2.746e-4
-1.589, 2.684e-4
-1.588, 2.653e-4
-1.587, 2.591e-4
-1.586, 2.561e-4
-1.585, 2.530e-4
-1.584, 2.499e-4
-1.583, 2.437e-4
-1.582, 2.406e-4
-1.581, 2.345e-4
-1.580, 2.314e-4
-1.579, 2.252e-4
-1.578, 2.221e-4
-1.577, 2.191e-4
-1.576, 2.160e-4
-1.575, 2.129e-4
-1.574, 2.098e-4
-1.573, 2.067e-4
-1.572, 2.036e-4
-1.571, 2.006e-4
-1.570, 1.975e-4
-1.569, 1.944e-4
-1.568, 1.913e-4
-1.567, 1.882e-4
-1.566, 1.821e-4
-1.565, 1.790e-4
-1.564, 1.790e-4
-1.563, 1.759e-4
-1.562, 1.728e-4
-1.561, 1.697e-4
-1.560, 1.666e-4
-1.559, 1.636e-4
-1.558, 1.605e-4
-1.557, 1.574e-4
-1.556, 1.543e-4
-1.555, 1.543e-4
-1.554, 1.512e-4
-1.553, 1.481e-4
-1.552, 1.451e-4
-1.551, 1.451e-4
-1.550, 1.420e-4
-1.549, 1.389e-4
-1.548, 1.389e-4
-1.547, 1.358e-4
-1.546, 1.327e-4
-1.545, 1.296e-4
-1.544, 1.266e-4
-1.543, 1.266e-4
-1.542, 1.235e-4
-1.541, 1.235e-4
-1.540, 1.204e-4
-1.539, 1.173e-4
-1.538, 1.173e-4
-1.537, 1.142e-4
-1.536, 1.111e-4
-1.535, 1.111e-4
-1.534, 1.081e-4
-1.533, 1.081e-4
-1.532, 1.050e-4
-1.531, 1.050e-4
-1.530, 1.019e-4
-1.529, 1.019e-4
-1.528, 9.882e-5
-1.527, 9.573e-5
-1.526, 9.573e-5
-1.525, 9.573e-5
-1.524, 9.265e-5
-1.523, 8.957e-5
-1.522, 8.957e-5
-1.521, 8.648e-5
-1.520, 8.648e-5
-1.519, 8.648e-5
-1.518, 8.340e-5
-1.517, 8.032e-5
-1.516, 8.032e-5
-1.515, 8.032e-5
-1.514, 7.723e-5
-1.513, 7.723e-5
-1.512, 7.723e-5
-1.511, 7.415e-5
-1.510, 7.415e-5
-1.509, 7.415e-5
-1.508, 7.107e-5
-1.507, 7.107e-5
-1.506, 6.798e-5
-1.505, 6.798e-5
-1.504, 6.490e-5
-1.503, 6.490e-5
-1.502, 6.490e-5
-1.501, 6.182e-5
-1.500, 6.182e-5
-1.499, 6.182e-5
-1.498, 5.873e-5
-1.497, 5.873e-5
-1.496, 5.873e-5
-1.495, 5.565e-5
-1.494, 5.565e-5
-1.493, 5.565e-5
-1.492, 5.257e-5
-1.491, 5.257e-5
-1.490, 5.257e-5
-1.489, 4.949e-5
-1.488, 4.949e-5
-1.487, 4.949e-5
-1.486, 4.949e-5
-1.485, 4.640e-5
-1.484, 4.949e-5
-1.483, 4.640e-5
-1.482, 4.332e-5
-1.481, 4.332e-5
-1.480, 4.332e-5
-1.479, 4.024e-5
-1.478, 4.024e-5
-1.477, 4.332e-5
-1.476, 4.024e-5
-1.475, 4.024e-5
-1.474, 4.024e-5
-1.473, 4.024e-5
-1.472, 3.715e-5
-1.471, 3.715e-5
-1.470, 3.715e-5
-1.469, 3.715e-5
-1.468, 3.715e-5
-1.467, 3.407e-5
-1.466, 3.407e-5
-1.465, 3.407e-5
-1.464, 3.407e-5
-1.463, 3.407e-5
-1.462, 3.407e-5
-1.461, 3.407e-5
-1.460, 3.407e-5
-1.459, 3.099e-5
-1.458, 3.099e-5
-1.457, 2.790e-5
-1.456, 2.790e-5
-1.455, 2.790e-5
-1.454, 2.790e-5
-1.453, 2.790e-5
-1.452, 2.790e-5
-1.451, 2.790e-5
-1.450, 2.482e-5
-1.449, 2.482e-5
-1.448, 2.482e-5
-1.447, 2.482e-5
-1.446, 2.482e-5
-1.445, 2.482e-5
-1.444, 2.174e-5
-1.443, 2.174e-5
-1.442, 2.174e-5
-1.441, 2.174e-5
-1.440, 2.174e-5
-1.439, 2.174e-5
-1.438, 2.174e-5
-1.437, 2.174e-5
-1.436, 1.865e-5
-1.435, 1.865e-5
-1.434, 1.865e-5
-1.433, 2.174e-5
-1.432, 1.865e-5
-1.431, 1.865e-5
-1.430, 1.865e-5
-1.429, 1.865e-5
-1.428, 1.865e-5
-1.427, 1.865e-5
-1.426, 1.557e-5
-1.425, 1.557e-5
-1.424, 1.557e-5
-1.423, 1.557e-5
-1.422, 1.557e-5
-1.421, 1.557e-5
-1.420, 1.557e-5
-1.419, 1.249e-5
-1.418, 1.249e-5
-1.417, 1.557e-5
-1.416, 1.249e-5
-1.415, 1.249e-5
-1.414, 1.249e-5
-1.413, 1.249e-5
-1.412, 1.249e-5
-1.411, 1.249e-5
-1.410, 1.249e-5
-1.409, 1.249e-5
-1.408, 1.249e-5
-1.407, 1.249e-5
-1.406, 9.405e-6
-1.405, 9.405e-6
-1.404, 9.405e-6
-1.403, 9.405e-6
-1.402, 9.405e-6
-1.401, 9.405e-6
-1.400, 9.405e-6
-1.399, 9.405e-6
-1.398, 9.405e-6
-1.397, 9.405e-6
-1.396, 9.405e-6
-1.395, 9.405e-6
-1.394, 9.405e-6
-1.393, 9.405e-6
-1.392, 6.322e-6
-1.391, 6.322e-6
-1.390, 6.322e-6
-1.389, 6.322e-6
-1.388, 6.322e-6
-1.387, 6.322e-6
-1.386, 9.405e-6
-1.385, 6.322e-6
-1.384, 6.322e-6
-1.383, 6.322e-6
-1.382, 6.322e-6
-1.381, 6.322e-6
-1.380, 3.239e-6
-1.379, 6.322e-6
-1.378, 6.322e-6
-1.377, 3.239e-6
-1.376, 3.239e-6
-1.375, 6.322e-6
-1.374, 6.322e-6
-1.373, 6.322e-6
-1.372, 3.239e-6
-1.371, 3.239e-6
-1.370, 3.239e-6
-1.369, 3.239e-6
-1.368, 3.239e-6
-1.367, 3.239e-6
-1.366, 3.239e-6
-1.365, 3.239e-6
-1.364, 3.239e-6
-1.363, 3.239e-6
-1.362, 1.559e-7
-1.361, 3.239e-6
-1.360, 3.239e-6
-1.359, 3.239e-6
-1.358, 3.239e-6
-1.357, 1.559e-7
-1.356, 3.239e-6
-1.355, 3.239e-6
-1.354, 3.239e-6
-1.353, 3.239e-6
-1.352, 3.239e-6
-1.351, 3.239e-6
-1.350, 3.239e-6
-1.349, 3.239e-6
-1.348, 1.559e-7
-1.347, 1.559e-7
-1.346, 3.239e-6
-1.345, 3.239e-6
-1.344, 1.559e-7
-1.343, 1.559e-7
-1.342, 1.559e-7
-1.341, 1.559e-7
-1.340, 1.559e-7
-1.339, 1.559e-7
-1.338, 1.559e-7
-1.337, 1.559e-7
-1.336, 1.559e-7
-1.335, 1.559e-7
-1.334, 1.559e-7
-1.333, -2.927e-6
-1.332, -2.927e-6
-1.331, 1.559e-7
-1.330, 1.559e-7
-1.329, -2.927e-6
-1.328, 1.559e-7
-1.327, -2.927e-6
-1.326, 1.559e-7
-1.325, 1.559e-7
-1.324, -2.927e-6
-1.323, 1.559e-7
-1.322, -2.927e-6
-1.321, -2.927e-6
-1.320, -2.927e-6
-1.319, 1.559e-7
-1.318, -2.927e-6
-1.317, -2.927e-6
-1.316, -2.927e-6
-1.315, -2.927e-6
-1.314, 1.559e-7
-1.313, -2.927e-6
-1.312, -2.927e-6
-1.311, -2.927e-6
-1.310, -2.927e-6
-1.309, -2.927e-6
-1.308, -2.927e-6
-1.307, -2.927e-6
-1.306, -2.927e-6
-1.305, -2.927e-6
-1.304, -2.927e-6
-1.303, -2.927e-6
-1.302, -2.927e-6
-1.301, -2.927e-6
-1.300, -2.927e-6
-1.299, -2.927e-6
-1.298, -2.927e-6
-1.297, -2.927e-6
-1.296, -2.927e-6
-1.295, -2.927e-6
-1.294, -2.927e-6
-1.293, -2.927e-6
-1.292, -2.927e-6
-1.291, -2.927e-6
-1.290, -2.927e-6
-1.289, -2.927e-6
-1.288, -2.927e-6
-1.287, -2.927e-6
-1.286, -2.927e-6
-1.285, -2.927e-6
-1.284, -2.927e-6
-1.283, -2.927e-6
-1.282, -2.927e-6
-1.281, -2.927e-6
-1.280, -6.010e-6
-1.279, -2.927e-6
-1.278, -2.927e-6
-1.277, -6.010e-6
-1.276, -6.010e-6
-1.275, -2.927e-6
-1.274, -6.010e-6
-1.273, -6.010e-6
-1.272, -2.927e-6
-1.271, -6.010e-6
-1.270, -6.010e-6
-1.269, -6.010e-6
-1.268, -6.010e-6
-1.267, -6.010e-6
-1.266, -6.010e-6
-1.265, -6.010e-6
-1.264, -6.010e-6
-1.263, -6.010e-6
-1.262, -6.010e-6
-1.261, -2.927e-6
-1.260, -6.010e-6
-1.259, -6.010e-6
-1.258, -6.010e-6
-1.257, -6.010e-6
-1.256, -6.010e-6
-1.255, -6.010e-6
-1.254, -6.010e-6
-1.253, -6.010e-6
-1.252, -6.010e-6
-1.251, -6.010e-6
-1.250, -6.010e-6
-1.249, -6.010e-6
-1.248, -6.010e-6
-1.247, -6.010e-6
-1.246, -6.010e-6
-1.245, -6.010e-6
-1.244, -6.010e-6
-1.243, -6.010e-6
-1.242, -6.010e-6
-1.241, -6.010e-6
-1.240, -6.010e-6
-1.239, -6.010e-6
-1.238, -6.010e-6
-1.237, -6.010e-6
-1.236, -6.010e-6
-1.235, -6.010e-6
-1.234, -6.010e-6
-1.233, -6.010e-6
-1.232, -6.010e-6
-1.231, -6.010e-6
-1.230, -6.010e-6
-1.229, -6.010e-6
-1.228, -6.010e-6
-1.227, -9.093e-6
-1.226, -6.010e-6
-1.225, -9.093e-6
-1.224, -6.010e-6
-1.223, -6.010e-6
-1.222, -6.010e-6
-1.221, -9.093e-6
-1.220, -6.010e-6
-1.219, -9.093e-6
-1.218, -9.093e-6
-1.217, -9.093e-6
-1.216, -9.093e-6
-1.215, -9.093e-6
-1.214, -9.093e-6
-1.213, -6.010e-6
-1.212, -9.093e-6
-1.211, -9.093e-6
-1.210, -6.010e-6
-1.209, -9.093e-6
-1.208, -6.010e-6
-1.207, -9.093e-6
-1.206, -9.093e-6
-1.205, -9.093e-6
-1.204, -9.093e-6
-1.203, -9.093e-6
-1.202, -9.093e-6
-1.201, -9.093e-6
-1.200, -9.093e-6
-1.199, -9.093e-6
-1.198, -9.093e-6
-1.197, -9.093e-6
-1.196, -9.093e-6
-1.195, -9.093e-6
-1.194, -9.093e-6
-1.193, -9.093e-6
-1.192, -9.093e-6
-1.191, -9.093e-6
-1.190, -9.093e-6
-1.189, -9.093e-6
-1.188, -9.093e-6
-1.187, -9.093e-6
-1.186, -9.093e-6
-1.185, -9.093e-6
-1.184, -9.093e-6
-1.183, -9.093e-6
-1.182, -9.093e-6
-1.181, -9.093e-6
-1.180, -9.093e-6
-1.179, -9.093e-6
-1.178, -9.093e-6
-1.177, -9.093e-6
-1.176, -9.093e-6
-1.175, -9.093e-6
-1.174, -9.093e-6
-1.173, -9.093e-6
-1.172, -9.093e-6
-1.171, -1.218e-5
-1.170, -9.093e-6
-1.169, -9.093e-6
-1.168, -9.093e-6
-1.167, -9.093e-6
-1.166, -9.093e-6
-1.165, -9.093e-6
-1.164, -1.218e-5
-1.163, -9.093e-6
-1.162, -1.218e-5
-1.161, -1.218e-5
-1.160, -1.218e-5
-1.159, -9.093e-6
-1.158, -1.218e-5
-1.157, -1.218e-5
-1.156, -1.218e-5
-1.155, -1.218e-5
-1.154, -9.093e-6
-1.153, -1.218e-5
-1.152, -1.218e-5
-1.151, -1.218e-5
-1.150, -1.218e-5
-1.149, -1.218e-5
-1.148, -1.218e-5
-1.147, -1.218e-5
-1.146, -1.218e-5
-1.145, -1.218e-5
-1.144, -1.218e-5
-1.143, -1.218e-5
-1.142, -1.218e-5
-1.141, -1.218e-5
-1.140, -1.218e-5
-1.139, -1.218e-5
-1.138, -1.218e-5
-1.137, -1.218e-5
-1.136, -1.218e-5
-1.135, -1.218e-5
-1.134, -1.218e-5
-1.133, -1.218e-5
-1.132, -1.218e-5
-1.131, -1.218e-5
-1.130, -1.526e-5
-1.129, -1.218e-5
-1.128, -1.526e-5
-1.127, -1.526e-5
-1.126, -1.218e-5
-1.125, -1.218e-5
-1.124, -1.526e-5
-1.123, -1.526e-5
-1.122, -1.526e-5
-1.121, -1.218e-5
-1.120, -1.526e-5
-1.119, -1.526e-5
-1.118, -1.526e-5
-1.117, -1.526e-5
-1.116, -1.526e-5
-1.115, -1.526e-5
-1.114, -1.526e-5
-1.113, -1.526e-5
-1.112, -1.526e-5
-1.111, -1.526e-5
-1.110, -1.526e-5
-1.109, -1.526e-5
-1.108, -1.526e-5
-1.107, -1.526e-5
-1.106, -1.526e-5
-1.105, -1.526e-5
-1.104, -1.526e-5
-1.103, -1.526e-5
-1.102, -1.526e-5
-1.101, -1.526e-5
-1.100, -1.526e-5
-1.099, -1.526e-5
-1.098, -1.526e-5
-1.097, -1.526e-5
-1.096, -1.526e-5
-1.095, -1.526e-5
-1.094, -1.526e-5
-1.093, -1.526e-5
-1.092, -1.526e-5
-1.091, -1.526e-5
-1.090, -1.526e-5
-1.089, -1.834e-5
-1.088, -1.834e-5
-1.087, -1.526e-5
-1.086, -1.834e-5
-1.085, -1.834e-5
-1.084, -1.834e-5
-1.083, -1.834e-5
-1.082, -1.526e-5
-1.081, -1.526e-5
-1.080, -1.526e-5
-1.079, -1.834e-5
-1.078, -1.526e-5
-1.077, -1.834e-5
-1.076, -1.834e-5
-1.075, -1.834e-5
-1.074, -1.834e-5
-1.073, -1.834e-5
-1.072, -1.834e-5
-1.071, -1.834e-5
-1.070, -1.834e-5
-1.069, -1.834e-5
-1.068, -1.834e-5
-1.067, -1.834e-5
-1.066, -1.834e-5
-1.065, -1.834e-5
-1.064, -1.834e-5
-1.063, -1.834e-5
-1.062, -1.834e-5
-1.061, -1.834e-5
-1.060, -1.834e-5
-1.059, -2.143e-5
-1.058, -1.834e-5
-1.057, -2.143e-5
-1.056, -1.834e-5
-1.055, -1.834e-5
-1.054, -1.834e-5
-1.053, -1.834e-5
-1.052, -1.834e-5
-1.051, -1.834e-5
-1.050, -1.834e-5
-1.049, -2.143e-5
-1.048, -2.143e-5
-1.047, -2.143e-5
-1.046, -2.143e-5
-1.045, -2.143e-5
-1.044, -2.143e-5
-1.043, -2.143e-5
-1.042, -2.143e-5
-1.041, -2.143e-5
-1.040, -2.143e-5
-1.039, -2.143e-5
-1.038, -2.143e-5
-1.037, -2.143e-5
-1.036, -2.143e-5
-1.035, -2.143e-5
-1.034, -2.143e-5
-1.033, -2.143e-5
-1.032, -2.143e-5
-1.031, -2.143e-5
-1.030, -2.143e-5
-1.029, -2.143e-5
-1.028, -2.143e-5
-1.027, -2.143e-5
-1.026, -2.143e-5
-1.025, -2.143e-5
-1.024, -2.143e-5
-1.023, -2.143e-5
-1.022, -2.143e-5
-1.021, -2.143e-5
-1.020, -2.451e-5
-1.019, -2.451e-5
-1.018, -2.451e-5
-1.017, -2.451e-5
-1.016, -2.451e-5
-1.015, -2.451e-5
-1.014, -2.451e-5
-1.013, -2.143e-5
-1.012, -2.451e-5
-1.011, -2.451e-5
-1.010, -2.143e-5
-1.009, -2.451e-5
-1.008, -2.451e-5
-1.007, -2.451e-5
-1.006, -2.451e-5
-1.005, -2.451e-5
-1.004, -2.451e-5
-1.003, -2.451e-5
-1.002, -2.451e-5
-1.001, -2.451e-5
