Sept. 5, 2024   01:39:46
Cyclic Voltammetry
File: c:/users/guazh/data/20240903_batch_252_500/2024-09-03-exp266\exp266-2024-09-05t01_09_56-arkoh\exp266_cv_sr_900mvs_efin_-1900mv.bin
Data Source:  Experiment
Instrument Model:  CHI760E
Header: CV ran at 900 mVs
Note: 

Init E (V) = -1
High E (V) = -1
Low E (V) = -1.9
Final E (V) = -1
Init P/N = N
Scan Rate (V/s) = 0.9
Segment = 3
Sample Interval (V) = 0.001
Quiet Time (sec) = 2
Sensitivity (A/V) = 0.01
Comp R (ohm) = 4.5

Results:

Channel 1:
Segment 1:

Segment 2:

Segment 3:

Potential/V, Current/A

-1.000, 1.559e-7
-1.001, 3.239e-6
-1.002, 3.239e-6
-1.003, 3.239e-6
-1.004, 3.239e-6
-1.005, 6.322e-6
-1.006, 6.322e-6
-1.007, 3.239e-6
-1.008, 6.322e-6
-1.009, 6.322e-6
-1.010, 6.322e-6
-1.011, 6.322e-6
-1.012, 9.405e-6
-1.013, 9.405e-6
-1.014, 6.322e-6
-1.015, 9.405e-6
-1.016, 9.405e-6
-1.017, 9.405e-6
-1.018, 9.405e-6
-1.019, 9.405e-6
-1.020, 9.405e-6
-1.021, 9.405e-6
-1.022, 9.405e-6
-1.023, 9.405e-6
-1.024, 1.249e-5
-1.025, 9.405e-6
-1.026, 1.249e-5
-1.027, 1.249e-5
-1.028, 1.249e-5
-1.029, 1.249e-5
-1.030, 1.249e-5
-1.031, 1.249e-5
-1.032, 1.249e-5
-1.033, 1.249e-5
-1.034, 1.249e-5
-1.035, 1.249e-5
-1.036, 1.249e-5
-1.037, 1.249e-5
-1.038, 1.249e-5
-1.039, 1.249e-5
-1.040, 1.249e-5
-1.041, 1.249e-5
-1.042, 1.557e-5
-1.043, 1.249e-5
-1.044, 1.557e-5
-1.045, 1.249e-5
-1.046, 1.557e-5
-1.047, 1.557e-5
-1.048, 1.557e-5
-1.049, 1.557e-5
-1.050, 1.557e-5
-1.051, 1.557e-5
-1.052, 1.557e-5
-1.053, 1.249e-5
-1.054, 1.557e-5
-1.055, 1.557e-5
-1.056, 1.557e-5
-1.057, 1.557e-5
-1.058, 1.557e-5
-1.059, 1.557e-5
-1.060, 1.557e-5
-1.061, 1.557e-5
-1.062, 1.557e-5
-1.063, 1.557e-5
-1.064, 1.557e-5
-1.065, 1.865e-5
-1.066, 1.865e-5
-1.067, 1.557e-5
-1.068, 1.557e-5
-1.069, 1.557e-5
-1.070, 1.557e-5
-1.071, 1.557e-5
-1.072, 1.865e-5
-1.073, 1.557e-5
-1.074, 1.865e-5
-1.075, 1.865e-5
-1.076, 1.557e-5
-1.077, 1.865e-5
-1.078, 1.865e-5
-1.079, 1.865e-5
-1.080, 1.865e-5
-1.081, 1.865e-5
-1.082, 1.865e-5
-1.083, 1.865e-5
-1.084, 1.865e-5
-1.085, 1.865e-5
-1.086, 2.174e-5
-1.087, 1.865e-5
-1.088, 1.865e-5
-1.089, 2.174e-5
-1.090, 2.174e-5
-1.091, 2.174e-5
-1.092, 1.865e-5
-1.093, 2.174e-5
-1.094, 2.174e-5
-1.095, 2.174e-5
-1.096, 2.174e-5
-1.097, 2.174e-5
-1.098, 2.174e-5
-1.099, 1.865e-5
-1.100, 2.174e-5
-1.101, 2.174e-5
-1.102, 2.174e-5
-1.103, 2.174e-5
-1.104, 2.174e-5
-1.105, 2.174e-5
-1.106, 2.482e-5
-1.107, 2.174e-5
-1.108, 2.174e-5
-1.109, 2.174e-5
-1.110, 2.174e-5
-1.111, 2.174e-5
-1.112, 2.174e-5
-1.113, 2.174e-5
-1.114, 2.174e-5
-1.115, 2.174e-5
-1.116, 2.174e-5
-1.117, 2.174e-5
-1.118, 2.174e-5
-1.119, 2.174e-5
-1.120, 2.174e-5
-1.121, 2.174e-5
-1.122, 2.174e-5
-1.123, 2.174e-5
-1.124, 2.174e-5
-1.125, 2.174e-5
-1.126, 2.482e-5
-1.127, 2.482e-5
-1.128, 2.482e-5
-1.129, 2.482e-5
-1.130, 2.174e-5
-1.131, 2.482e-5
-1.132, 2.174e-5
-1.133, 2.482e-5
-1.134, 2.482e-5
-1.135, 2.174e-5
-1.136, 2.482e-5
-1.137, 2.482e-5
-1.138, 2.174e-5
-1.139, 2.482e-5
-1.140, 2.482e-5
-1.141, 2.174e-5
-1.142, 2.482e-5
-1.143, 2.482e-5
-1.144, 2.482e-5
-1.145, 2.482e-5
-1.146, 2.482e-5
-1.147, 2.482e-5
-1.148, 2.482e-5
-1.149, 2.482e-5
-1.150, 2.482e-5
-1.151, 2.482e-5
-1.152, 2.482e-5
-1.153, 2.482e-5
-1.154, 2.482e-5
-1.155, 2.790e-5
-1.156, 2.482e-5
-1.157, 2.482e-5
-1.158, 2.482e-5
-1.159, 2.482e-5
-1.160, 2.482e-5
-1.161, 2.790e-5
-1.162, 2.482e-5
-1.163, 2.482e-5
-1.164, 2.790e-5
-1.165, 2.482e-5
-1.166, 2.482e-5
-1.167, 2.790e-5
-1.168, 2.790e-5
-1.169, 2.790e-5
-1.170, 2.790e-5
-1.171, 2.482e-5
-1.172, 2.790e-5
-1.173, 2.790e-5
-1.174, 2.482e-5
-1.175, 2.790e-5
-1.176, 2.482e-5
-1.177, 2.790e-5
-1.178, 2.790e-5
-1.179, 2.790e-5
-1.180, 2.482e-5
-1.181, 2.790e-5
-1.182, 2.790e-5
-1.183, 2.790e-5
-1.184, 2.790e-5
-1.185, 2.790e-5
-1.186, 2.790e-5
-1.187, 2.790e-5
-1.188, 2.790e-5
-1.189, 2.790e-5
-1.190, 2.790e-5
-1.191, 2.790e-5
-1.192, 2.790e-5
-1.193, 2.790e-5
-1.194, 2.790e-5
-1.195, 2.790e-5
-1.196, 2.790e-5
-1.197, 2.790e-5
-1.198, 2.790e-5
-1.199, 2.790e-5
-1.200, 3.099e-5
-1.201, 2.790e-5
-1.202, 2.790e-5
-1.203, 3.099e-5
-1.204, 2.790e-5
-1.205, 2.790e-5
-1.206, 3.099e-5
-1.207, 3.099e-5
-1.208, 2.790e-5
-1.209, 3.099e-5
-1.210, 3.099e-5
-1.211, 3.099e-5
-1.212, 3.099e-5
-1.213, 2.790e-5
-1.214, 3.099e-5
-1.215, 3.099e-5
-1.216, 3.099e-5
-1.217, 3.099e-5
-1.218, 3.099e-5
-1.219, 2.790e-5
-1.220, 3.099e-5
-1.221, 3.099e-5
-1.222, 3.099e-5
-1.223, 3.099e-5
-1.224, 3.099e-5
-1.225, 3.099e-5
-1.226, 3.099e-5
-1.227, 3.099e-5
-1.228, 3.099e-5
-1.229, 3.099e-5
-1.230, 3.099e-5
-1.231, 3.407e-5
-1.232, 2.790e-5
-1.233, 3.099e-5
-1.234, 3.099e-5
-1.235, 3.099e-5
-1.236, 3.407e-5
-1.237, 3.099e-5
-1.238, 3.099e-5
-1.239, 3.099e-5
-1.240, 3.099e-5
-1.241, 3.099e-5
-1.242, 3.099e-5
-1.243, 3.099e-5
-1.244, 3.099e-5
-1.245, 3.407e-5
-1.246, 3.099e-5
-1.247, 3.099e-5
-1.248, 3.099e-5
-1.249, 3.099e-5
-1.250, 3.099e-5
-1.251, 3.099e-5
-1.252, 3.099e-5
-1.253, 3.099e-5
-1.254, 3.099e-5
-1.255, 3.099e-5
-1.256, 3.099e-5
-1.257, 3.099e-5
-1.258, 3.099e-5
-1.259, 3.099e-5
-1.260, 3.099e-5
-1.261, 3.099e-5
-1.262, 3.099e-5
-1.263, 3.099e-5
-1.264, 3.407e-5
-1.265, 3.099e-5
-1.266, 3.099e-5
-1.267, 3.407e-5
-1.268, 3.099e-5
-1.269, 3.407e-5
-1.270, 3.099e-5
-1.271, 3.099e-5
-1.272, 3.407e-5
-1.273, 3.407e-5
-1.274, 3.407e-5
-1.275, 3.407e-5
-1.276, 3.407e-5
-1.277, 3.099e-5
-1.278, 3.407e-5
-1.279, 3.099e-5
-1.280, 3.407e-5
-1.281, 3.407e-5
-1.282, 3.407e-5
-1.283, 3.407e-5
-1.284, 3.407e-5
-1.285, 3.407e-5
-1.286, 3.407e-5
-1.287, 3.407e-5
-1.288, 3.407e-5
-1.289, 3.407e-5
-1.290, 3.407e-5
-1.291, 3.407e-5
-1.292, 3.407e-5
-1.293, 3.407e-5
-1.294, 3.407e-5
-1.295, 3.407e-5
-1.296, 3.407e-5
-1.297, 3.407e-5
-1.298, 3.715e-5
-1.299, 3.407e-5
-1.300, 3.715e-5
-1.301, 3.407e-5
-1.302, 3.715e-5
-1.303, 3.715e-5
-1.304, 3.407e-5
-1.305, 3.715e-5
-1.306, 3.715e-5
-1.307, 3.715e-5
-1.308, 3.715e-5
-1.309, 3.407e-5
-1.310, 3.715e-5
-1.311, 3.715e-5
-1.312, 3.715e-5
-1.313, 3.715e-5
-1.314, 4.024e-5
-1.315, 3.715e-5
-1.316, 3.715e-5
-1.317, 3.715e-5
-1.318, 3.715e-5
-1.319, 3.715e-5
-1.320, 3.715e-5
-1.321, 4.024e-5
-1.322, 3.715e-5
-1.323, 3.715e-5
-1.324, 3.715e-5
-1.325, 3.715e-5
-1.326, 4.024e-5
-1.327, 4.024e-5
-1.328, 4.024e-5
-1.329, 3.715e-5
-1.330, 4.024e-5
-1.331, 4.024e-5
-1.332, 4.024e-5
-1.333, 4.024e-5
-1.334, 4.024e-5
-1.335, 4.024e-5
-1.336, 4.024e-5
-1.337, 4.024e-5
-1.338, 4.024e-5
-1.339, 4.024e-5
-1.340, 4.024e-5
-1.341, 4.024e-5
-1.342, 4.024e-5
-1.343, 4.024e-5
-1.344, 4.024e-5
-1.345, 4.024e-5
-1.346, 4.024e-5
-1.347, 4.332e-5
-1.348, 4.024e-5
-1.349, 4.024e-5
-1.350, 4.332e-5
-1.351, 4.024e-5
-1.352, 4.024e-5
-1.353, 4.332e-5
-1.354, 4.332e-5
-1.355, 4.332e-5
-1.356, 4.332e-5
-1.357, 4.332e-5
-1.358, 4.332e-5
-1.359, 4.640e-5
-1.360, 4.332e-5
-1.361, 4.640e-5
-1.362, 4.640e-5
-1.363, 4.332e-5
-1.364, 4.640e-5
-1.365, 4.640e-5
-1.366, 4.640e-5
-1.367, 4.640e-5
-1.368, 4.640e-5
-1.369, 4.640e-5
-1.370, 4.640e-5
-1.371, 4.640e-5
-1.372, 4.640e-5
-1.373, 4.640e-5
-1.374, 4.949e-5
-1.375, 4.640e-5
-1.376, 4.949e-5
-1.377, 4.640e-5
-1.378, 4.949e-5
-1.379, 4.949e-5
-1.380, 4.949e-5
-1.381, 4.949e-5
-1.382, 4.949e-5
-1.383, 4.949e-5
-1.384, 4.949e-5
-1.385, 4.949e-5
-1.386, 4.949e-5
-1.387, 4.949e-5
-1.388, 4.949e-5
-1.389, 4.949e-5
-1.390, 5.257e-5
-1.391, 4.949e-5
-1.392, 5.257e-5
-1.393, 5.257e-5
-1.394, 5.257e-5
-1.395, 5.257e-5
-1.396, 5.257e-5
-1.397, 5.257e-5
-1.398, 5.257e-5
-1.399, 5.257e-5
-1.400, 5.257e-5
-1.401, 5.565e-5
-1.402, 5.565e-5
-1.403, 5.565e-5
-1.404, 5.565e-5
-1.405, 5.257e-5
-1.406, 5.565e-5
-1.407, 5.257e-5
-1.408, 5.565e-5
-1.409, 5.565e-5
-1.410, 5.565e-5
-1.411, 5.565e-5
-1.412, 5.565e-5
-1.413, 5.565e-5
-1.414, 5.873e-5
-1.415, 5.873e-5
-1.416, 5.873e-5
-1.417, 5.873e-5
-1.418, 5.873e-5
-1.419, 5.873e-5
-1.420, 5.873e-5
-1.421, 5.873e-5
-1.422, 5.873e-5
-1.423, 5.873e-5
-1.424, 6.182e-5
-1.425, 6.182e-5
-1.426, 6.182e-5
-1.427, 6.182e-5
-1.428, 6.182e-5
-1.429, 6.182e-5
-1.430, 6.182e-5
-1.431, 6.490e-5
-1.432, 6.182e-5
-1.433, 6.490e-5
-1.434, 6.182e-5
-1.435, 6.182e-5
-1.436, 6.490e-5
-1.437, 6.490e-5
-1.438, 6.490e-5
-1.439, 6.490e-5
-1.440, 6.798e-5
-1.441, 6.490e-5
-1.442, 6.798e-5
-1.443, 6.798e-5
-1.444, 6.490e-5
-1.445, 6.798e-5
-1.446, 6.490e-5
-1.447, 6.798e-5
-1.448, 6.798e-5
-1.449, 6.798e-5
-1.450, 6.798e-5
-1.451, 7.107e-5
-1.452, 6.798e-5
-1.453, 7.107e-5
-1.454, 7.107e-5
-1.455, 7.107e-5
-1.456, 7.107e-5
-1.457, 7.107e-5
-1.458, 7.415e-5
-1.459, 7.415e-5
-1.460, 7.107e-5
-1.461, 7.415e-5
-1.462, 7.415e-5
-1.463, 7.723e-5
-1.464, 7.723e-5
-1.465, 7.723e-5
-1.466, 7.415e-5
-1.467, 7.723e-5
-1.468, 7.723e-5
-1.469, 7.723e-5
-1.470, 7.723e-5
-1.471, 7.723e-5
-1.472, 7.723e-5
-1.473, 8.032e-5
-1.474, 8.032e-5
-1.475, 8.032e-5
-1.476, 8.032e-5
-1.477, 8.032e-5
-1.478, 8.032e-5
-1.479, 8.340e-5
-1.480, 8.032e-5
-1.481, 8.340e-5
-1.482, 8.340e-5
-1.483, 8.340e-5
-1.484, 8.648e-5
-1.485, 8.648e-5
-1.486, 8.340e-5
-1.487, 8.648e-5
-1.488, 8.648e-5
-1.489, 8.648e-5
-1.490, 8.957e-5
-1.491, 8.648e-5
-1.492, 8.957e-5
-1.493, 8.957e-5
-1.494, 8.957e-5
-1.495, 9.265e-5
-1.496, 8.957e-5
-1.497, 8.957e-5
-1.498, 9.265e-5
-1.499, 8.957e-5
-1.500, 9.265e-5
-1.501, 9.265e-5
-1.502, 9.265e-5
-1.503, 9.265e-5
-1.504, 9.265e-5
-1.505, 9.265e-5
-1.506, 9.573e-5
-1.507, 9.265e-5
-1.508, 9.573e-5
-1.509, 9.573e-5
-1.510, 9.573e-5
-1.511, 9.882e-5
-1.512, 9.882e-5
-1.513, 9.882e-5
-1.514, 1.019e-4
-1.515, 1.019e-4
-1.516, 1.019e-4
-1.517, 1.019e-4
-1.518, 1.019e-4
-1.519, 1.019e-4
-1.520, 1.050e-4
-1.521, 1.050e-4
-1.522, 1.050e-4
-1.523, 1.050e-4
-1.524, 1.050e-4
-1.525, 1.081e-4
-1.526, 1.050e-4
-1.527, 1.081e-4
-1.528, 1.081e-4
-1.529, 1.111e-4
-1.530, 1.111e-4
-1.531, 1.111e-4
-1.532, 1.111e-4
-1.533, 1.111e-4
-1.534, 1.142e-4
-1.535, 1.142e-4
-1.536, 1.173e-4
-1.537, 1.142e-4
-1.538, 1.173e-4
-1.539, 1.173e-4
-1.540, 1.173e-4
-1.541, 1.204e-4
-1.542, 1.204e-4
-1.543, 1.204e-4
-1.544, 1.204e-4
-1.545, 1.235e-4
-1.546, 1.235e-4
-1.547, 1.235e-4
-1.548, 1.235e-4
-1.549, 1.266e-4
-1.550, 1.266e-4
-1.551, 1.266e-4
-1.552, 1.296e-4
-1.553, 1.296e-4
-1.554, 1.296e-4
-1.555, 1.296e-4
-1.556, 1.327e-4
-1.557, 1.327e-4
-1.558, 1.327e-4
-1.559, 1.358e-4
-1.560, 1.358e-4
-1.561, 1.389e-4
-1.562, 1.389e-4
-1.563, 1.389e-4
-1.564, 1.420e-4
-1.565, 1.420e-4
-1.566, 1.420e-4
-1.567, 1.451e-4
-1.568, 1.451e-4
-1.569, 1.481e-4
-1.570, 1.481e-4
-1.571, 1.451e-4
-1.572, 1.481e-4
-1.573, 1.512e-4
-1.574, 1.512e-4
-1.575, 1.512e-4
-1.576, 1.512e-4
-1.577, 1.543e-4
-1.578, 1.574e-4
-1.579, 1.574e-4
-1.580, 1.574e-4
-1.581, 1.605e-4
-1.582, 1.605e-4
-1.583, 1.605e-4
-1.584, 1.636e-4
-1.585, 1.636e-4
-1.586, 1.636e-4
-1.587, 1.666e-4
-1.588, 1.666e-4
-1.589, 1.697e-4
-1.590, 1.697e-4
-1.591, 1.728e-4
-1.592, 1.759e-4
-1.593, 1.759e-4
-1.594, 1.790e-4
-1.595, 1.790e-4
-1.596, 1.821e-4
-1.597, 1.821e-4
-1.598, 1.851e-4
-1.599, 1.851e-4
-1.600, 1.882e-4
-1.601, 1.882e-4
-1.602, 1.913e-4
-1.603, 1.913e-4
-1.604, 1.944e-4
-1.605, 1.944e-4
-1.606, 1.975e-4
-1.607, 2.006e-4
-1.608, 2.006e-4
-1.609, 2.036e-4
-1.610, 2.036e-4
-1.611, 2.067e-4
-1.612, 2.098e-4
-1.613, 2.129e-4
-1.614, 2.129e-4
-1.615, 2.160e-4
-1.616, 2.160e-4
-1.617, 2.191e-4
-1.618, 2.221e-4
-1.619, 2.252e-4
-1.620, 2.252e-4
-1.621, 2.283e-4
-1.622, 2.283e-4
-1.623, 2.345e-4
-1.624, 2.345e-4
-1.625, 2.376e-4
-1.626, 2.406e-4
-1.627, 2.406e-4
-1.628, 2.437e-4
-1.629, 2.468e-4
-1.630, 2.468e-4
-1.631, 2.530e-4
-1.632, 2.530e-4
-1.633, 2.561e-4
-1.634, 2.591e-4
-1.635, 2.622e-4
-1.636, 2.653e-4
-1.637, 2.684e-4
-1.638, 2.715e-4
-1.639, 2.776e-4
-1.640, 2.807e-4
-1.641, 2.838e-4
-1.642, 2.838e-4
-1.643, 2.931e-4
-1.644, 2.900e-4
-1.645, 2.961e-4
-1.646, 2.992e-4
-1.647, 3.023e-4
-1.648, 3.054e-4
-1.649, 3.085e-4
-1.650, 3.115e-4
-1.651, 3.177e-4
-1.652, 3.177e-4
-1.653, 3.208e-4
-1.654, 3.270e-4
-1.655, 3.300e-4
-1.656, 3.331e-4
-1.657, 3.424e-4
-1.658, 3.424e-4
-1.659, 3.455e-4
-1.660, 3.516e-4
-1.661, 3.547e-4
-1.662, 3.578e-4
-1.663, 3.609e-4
-1.664, 3.670e-4
-1.665, 3.701e-4
-1.666, 3.732e-4
-1.667, 3.825e-4
-1.668, 3.886e-4
-1.669, 3.948e-4
-1.670, 3.979e-4
-1.671, 4.040e-4
-1.672, 4.102e-4
-1.673, 4.164e-4
-1.674, 4.225e-4
-1.675, 4.256e-4
-1.676, 4.318e-4
-1.677, 4.380e-4
-1.678, 4.441e-4
-1.679, 4.503e-4
-1.680, 4.595e-4
-1.681, 4.626e-4
-1.682, 4.688e-4
-1.683, 4.750e-4
-1.684, 4.811e-4
-1.685, 4.873e-4
-1.686, 4.935e-4
-1.687, 5.027e-4
-1.688, 5.120e-4
-1.689, 5.150e-4
-1.690, 5.243e-4
-1.691, 5.274e-4
-1.692, 5.335e-4
-1.693, 5.459e-4
-1.694, 5.520e-4
-1.695, 5.582e-4
-1.696, 5.674e-4
-1.697, 5.767e-4
-1.698, 5.859e-4
-1.699, 5.952e-4
-1.700, 5.983e-4
-1.701, 6.075e-4
-1.702, 6.168e-4
-1.703, 6.229e-4
-1.704, 6.353e-4
-1.705, 6.445e-4
-1.706, 6.538e-4
-1.707, 6.661e-4
-1.708, 6.723e-4
-1.709, 6.846e-4
-1.710, 6.969e-4
-1.711, 7.031e-4
-1.712, 7.154e-4
-1.713, 7.247e-4
-1.714, 7.370e-4
-1.715, 7.524e-4
-1.716, 7.617e-4
-1.717, 7.709e-4
-1.718, 7.833e-4
-1.719, 7.956e-4
-1.720, 8.079e-4
-1.721, 8.233e-4
-1.722, 8.326e-4
-1.723, 8.449e-4
-1.724, 8.573e-4
-1.725, 8.665e-4
-1.726, 8.788e-4
-1.727, 8.973e-4
-1.728, 9.066e-4
-1.729, 9.251e-4
-1.730, 9.405e-4
-1.731, 9.528e-4
-1.732, 9.683e-4
-1.733, 9.806e-4
-1.734, 9.991e-4
-1.735, 1.014e-3
-1.736, 1.030e-3
-1.737, 1.045e-3
-1.738, 1.067e-3
-1.739, 1.085e-3
-1.740, 1.107e-3
-1.741, 1.119e-3
-1.742, 1.141e-3
-1.743, 1.159e-3
-1.744, 1.178e-3
-1.745, 1.196e-3
-1.746, 1.215e-3
-1.747, 1.233e-3
-1.748, 1.255e-3
-1.749, 1.273e-3
-1.750, 1.298e-3
-1.751, 1.323e-3
-1.752, 1.341e-3
-1.753, 1.369e-3
-1.754, 1.397e-3
-1.755, 1.421e-3
-1.756, 1.440e-3
-1.757, 1.471e-3
-1.758, 1.492e-3
-1.759, 1.520e-3
-1.760, 1.548e-3
-1.761, 1.569e-3
-1.762, 1.597e-3
-1.763, 1.631e-3
-1.764, 1.659e-3
-1.765, 1.684e-3
-1.766, 1.714e-3
-1.767, 1.748e-3
-1.768, 1.782e-3
-1.769, 1.810e-3
-1.770, 1.844e-3
-1.771, 1.869e-3
-1.772, 1.902e-3
-1.773, 1.946e-3
-1.774, 1.970e-3
-1.775, 2.004e-3
-1.776, 2.041e-3
-1.777, 2.081e-3
-1.778, 2.118e-3
-1.779, 2.158e-3
-1.780, 2.192e-3
-1.781, 2.235e-3
-1.782, 2.269e-3
-1.783, 2.309e-3
-1.784, 2.353e-3
-1.785, 2.399e-3
-1.786, 2.436e-3
-1.787, 2.482e-3
-1.788, 2.528e-3
-1.789, 2.575e-3
-1.790, 2.621e-3
-1.791, 2.667e-3
-1.792, 2.723e-3
-1.793, 2.775e-3
-1.794, 2.818e-3
-1.795, 2.877e-3
-1.796, 2.926e-3
-1.797, 2.975e-3
-1.798, 3.031e-3
-1.799, 3.071e-3
-1.800, 3.126e-3
-1.801, 3.191e-3
-1.802, 3.241e-3
-1.803, 3.302e-3
-1.804, 3.364e-3
-1.805, 3.416e-3
-1.806, 3.469e-3
-1.807, 3.527e-3
-1.808, 3.595e-3
-1.809, 3.660e-3
-1.810, 3.728e-3
-1.811, 3.777e-3
-1.812, 3.851e-3
-1.813, 3.916e-3
-1.814, 3.987e-3
-1.815, 4.054e-3
-1.816, 4.116e-3
-1.817, 4.184e-3
-1.818, 4.255e-3
-1.819, 4.326e-3
-1.820, 4.387e-3
-1.821, 4.452e-3
-1.822, 4.529e-3
-1.823, 4.591e-3
-1.824, 4.665e-3
-1.825, 4.727e-3
-1.826, 4.794e-3
-1.827, 4.853e-3
-1.828, 4.912e-3
-1.829, 4.961e-3
-1.830, 5.029e-3
-1.831, 5.084e-3
-1.832, 5.152e-3
-1.833, 5.220e-3
-1.834, 5.297e-3
-1.835, 5.365e-3
-1.836, 5.442e-3
-1.837, 5.513e-3
-1.838, 5.608e-3
-1.839, 5.679e-3
-1.840, 5.769e-3
-1.841, 5.846e-3
-1.842, 5.932e-3
-1.843, 6.015e-3
-1.844, 6.114e-3
-1.845, 6.200e-3
-1.846, 6.287e-3
-1.847, 6.382e-3
-1.848, 6.478e-3
-1.849, 6.558e-3
-1.850, 6.654e-3
-1.851, 6.752e-3
-1.852, 6.838e-3
-1.853, 6.931e-3
-1.854, 7.033e-3
-1.855, 7.131e-3
-1.856, 7.230e-3
-1.857, 7.323e-3
-1.858, 7.415e-3
-1.859, 7.520e-3
-1.860, 7.622e-3
-1.861, 7.730e-3
-1.862, 7.847e-3
-1.863, 7.958e-3
-1.864, 8.066e-3
-1.865, 8.173e-3
-1.866, 8.281e-3
-1.867, 8.389e-3
-1.868, 8.503e-3
-1.869, 8.614e-3
-1.870, 8.725e-3
-1.871, 8.855e-3
-1.872, 8.963e-3
-1.873, 9.089e-3
-1.874, 9.200e-3
-1.875, 9.323e-3
-1.876, 9.459e-3
-1.877, 9.589e-3
-1.878, 9.730e-3
-1.879, 9.875e-3
-1.880, 1.003e-2
-1.881, 1.017e-2
-1.882, 1.032e-2
-1.883, 1.047e-2
-1.884, 1.062e-2
-1.885, 1.076e-2
-1.886, 1.089e-2
-1.887, 1.103e-2
-1.888, 1.119e-2
-1.889, 1.132e-2
-1.890, 1.146e-2
-1.891, 1.159e-2
-1.892, 1.173e-2
-1.893, 1.185e-2
-1.894, 1.197e-2
-1.895, 1.209e-2
-1.896, 1.221e-2
-1.897, 1.234e-2
-1.898, 1.245e-2
-1.899, 1.258e-2
-1.900, 1.263e-2
-1.899, 1.261e-2
-1.898, 1.256e-2
-1.897, 1.251e-2
-1.896, 1.246e-2
-1.895, 1.241e-2
-1.894, 1.236e-2
-1.893, 1.230e-2
-1.892, 1.225e-2
-1.891, 1.220e-2
-1.890, 1.213e-2
-1.889, 1.206e-2
-1.888, 1.199e-2
-1.887, 1.193e-2
-1.886, 1.186e-2
-1.885, 1.180e-2
-1.884, 1.173e-2
-1.883, 1.166e-2
-1.882, 1.158e-2
-1.881, 1.151e-2
-1.880, 1.142e-2
-1.879, 1.135e-2
-1.878, 1.128e-2
-1.877, 1.120e-2
-1.876, 1.113e-2
-1.875, 1.104e-2
-1.874, 1.096e-2
-1.873, 1.088e-2
-1.872, 1.081e-2
-1.871, 1.074e-2
-1.870, 1.068e-2
-1.869, 1.060e-2
-1.868, 1.054e-2
-1.867, 1.045e-2
-1.866, 1.038e-2
-1.865, 1.029e-2
-1.864, 1.023e-2
-1.863, 1.015e-2
-1.862, 1.009e-2
-1.861, 9.993e-3
-1.860, 9.919e-3
-1.859, 9.835e-3
-1.858, 9.755e-3
-1.857, 9.678e-3
-1.856, 9.586e-3
-1.855, 9.521e-3
-1.854, 9.441e-3
-1.853, 9.373e-3
-1.852, 9.290e-3
-1.851, 9.237e-3
-1.850, 9.160e-3
-1.849, 9.080e-3
-1.848, 9.012e-3
-1.847, 8.938e-3
-1.846, 8.873e-3
-1.845, 8.799e-3
-1.844, 8.725e-3
-1.843, 8.654e-3
-1.842, 8.574e-3
-1.841, 8.494e-3
-1.840, 8.417e-3
-1.839, 8.355e-3
-1.838, 8.275e-3
-1.837, 8.195e-3
-1.836, 8.121e-3
-1.835, 8.050e-3
-1.834, 7.973e-3
-1.833, 7.908e-3
-1.832, 7.831e-3
-1.831, 7.748e-3
-1.830, 7.674e-3
-1.829, 7.612e-3
-1.828, 7.541e-3
-1.827, 7.467e-3
-1.826, 7.412e-3
-1.825, 7.332e-3
-1.824, 7.258e-3
-1.823, 7.190e-3
-1.822, 7.116e-3
-1.821, 7.048e-3
-1.820, 6.983e-3
-1.819, 6.912e-3
-1.818, 6.845e-3
-1.817, 6.786e-3
-1.816, 6.706e-3
-1.815, 6.647e-3
-1.814, 6.576e-3
-1.813, 6.509e-3
-1.812, 6.450e-3
-1.811, 6.385e-3
-1.810, 6.314e-3
-1.809, 6.247e-3
-1.808, 6.182e-3
-1.807, 6.117e-3
-1.806, 6.046e-3
-1.805, 5.978e-3
-1.804, 5.917e-3
-1.803, 5.861e-3
-1.802, 5.796e-3
-1.801, 5.735e-3
-1.800, 5.679e-3
-1.799, 5.614e-3
-1.798, 5.559e-3
-1.797, 5.507e-3
-1.796, 5.436e-3
-1.795, 5.374e-3
-1.794, 5.322e-3
-1.793, 5.263e-3
-1.792, 5.208e-3
-1.791, 5.149e-3
-1.790, 5.097e-3
-1.789, 5.047e-3
-1.788, 4.989e-3
-1.787, 4.930e-3
-1.786, 4.875e-3
-1.785, 4.828e-3
-1.784, 4.776e-3
-1.783, 4.720e-3
-1.782, 4.665e-3
-1.781, 4.603e-3
-1.780, 4.554e-3
-1.779, 4.511e-3
-1.778, 4.458e-3
-1.777, 4.403e-3
-1.776, 4.357e-3
-1.775, 4.307e-3
-1.774, 4.261e-3
-1.773, 4.212e-3
-1.772, 4.156e-3
-1.771, 4.107e-3
-1.770, 4.061e-3
-1.769, 3.999e-3
-1.768, 3.950e-3
-1.767, 3.906e-3
-1.766, 3.866e-3
-1.765, 3.805e-3
-1.764, 3.749e-3
-1.763, 3.703e-3
-1.762, 3.663e-3
-1.761, 3.617e-3
-1.760, 3.573e-3
-1.759, 3.530e-3
-1.758, 3.490e-3
-1.757, 3.444e-3
-1.756, 3.398e-3
-1.755, 3.348e-3
-1.754, 3.311e-3
-1.753, 3.262e-3
-1.752, 3.228e-3
-1.751, 3.176e-3
-1.750, 3.136e-3
-1.749, 3.102e-3
-1.748, 3.059e-3
-1.747, 3.003e-3
-1.746, 2.969e-3
-1.745, 2.932e-3
-1.744, 2.889e-3
-1.743, 2.846e-3
-1.742, 2.815e-3
-1.741, 2.775e-3
-1.740, 2.741e-3
-1.739, 2.698e-3
-1.738, 2.667e-3
-1.737, 2.627e-3
-1.736, 2.593e-3
-1.735, 2.553e-3
-1.734, 2.522e-3
-1.733, 2.488e-3
-1.732, 2.448e-3
-1.731, 2.411e-3
-1.730, 2.380e-3
-1.729, 2.340e-3
-1.728, 2.312e-3
-1.727, 2.275e-3
-1.726, 2.235e-3
-1.725, 2.201e-3
-1.724, 2.168e-3
-1.723, 2.140e-3
-1.722, 2.103e-3
-1.721, 2.078e-3
-1.720, 2.050e-3
-1.719, 2.017e-3
-1.718, 1.983e-3
-1.717, 1.955e-3
-1.716, 1.930e-3
-1.715, 1.906e-3
-1.714, 1.878e-3
-1.713, 1.844e-3
-1.712, 1.819e-3
-1.711, 1.791e-3
-1.710, 1.764e-3
-1.709, 1.739e-3
-1.708, 1.711e-3
-1.707, 1.693e-3
-1.706, 1.665e-3
-1.705, 1.637e-3
-1.704, 1.616e-3
-1.703, 1.591e-3
-1.702, 1.569e-3
-1.701, 1.545e-3
-1.700, 1.517e-3
-1.699, 1.495e-3
-1.698, 1.474e-3
-1.697, 1.449e-3
-1.696, 1.431e-3
-1.695, 1.412e-3
-1.694, 1.388e-3
-1.693, 1.363e-3
-1.692, 1.341e-3
-1.691, 1.323e-3
-1.690, 1.304e-3
-1.689, 1.292e-3
-1.688, 1.270e-3
-1.687, 1.252e-3
-1.686, 1.236e-3
-1.685, 1.212e-3
-1.684, 1.193e-3
-1.683, 1.175e-3
-1.682, 1.162e-3
-1.681, 1.144e-3
-1.680, 1.125e-3
-1.679, 1.107e-3
-1.678, 1.088e-3
-1.677, 1.070e-3
-1.676, 1.051e-3
-1.675, 1.033e-3
-1.674, 1.021e-3
-1.673, 1.008e-3
-1.672, 9.898e-4
-1.671, 9.744e-4
-1.670, 9.559e-4
-1.669, 9.405e-4
-1.668, 9.282e-4
-1.667, 9.128e-4
-1.666, 8.973e-4
-1.665, 8.850e-4
-1.664, 8.727e-4
-1.663, 8.573e-4
-1.662, 8.449e-4
-1.661, 8.295e-4
-1.660, 8.172e-4
-1.659, 8.079e-4
-1.658, 7.925e-4
-1.657, 7.740e-4
-1.656, 7.617e-4
-1.655, 7.524e-4
-1.654, 7.401e-4
-1.653, 7.278e-4
-1.652, 7.185e-4
-1.651, 7.062e-4
-1.650, 6.969e-4
-1.649, 6.846e-4
-1.648, 6.754e-4
-1.647, 6.661e-4
-1.646, 6.538e-4
-1.645, 6.445e-4
-1.644, 6.353e-4
-1.643, 6.260e-4
-1.642, 6.168e-4
-1.641, 6.075e-4
-1.640, 5.983e-4
-1.639, 5.890e-4
-1.638, 5.767e-4
-1.637, 5.705e-4
-1.636, 5.644e-4
-1.635, 5.551e-4
-1.634, 5.428e-4
-1.633, 5.335e-4
-1.632, 5.243e-4
-1.631, 5.150e-4
-1.630, 5.089e-4
-1.629, 4.996e-4
-1.628, 4.935e-4
-1.627, 4.873e-4
-1.626, 4.811e-4
-1.625, 4.719e-4
-1.624, 4.626e-4
-1.623, 4.565e-4
-1.622, 4.503e-4
-1.621, 4.441e-4
-1.620, 4.349e-4
-1.619, 4.256e-4
-1.618, 4.195e-4
-1.617, 4.133e-4
-1.616, 4.040e-4
-1.615, 3.979e-4
-1.614, 3.917e-4
-1.613, 3.855e-4
-1.612, 3.794e-4
-1.611, 3.763e-4
-1.610, 3.670e-4
-1.609, 3.609e-4
-1.608, 3.578e-4
-1.607, 3.516e-4
-1.606, 3.455e-4
-1.605, 3.393e-4
-1.604, 3.300e-4
-1.603, 3.270e-4
-1.602, 3.208e-4
-1.601, 3.115e-4
-1.600, 3.085e-4
-1.599, 3.023e-4
-1.598, 2.961e-4
-1.597, 2.931e-4
-1.596, 2.900e-4
-1.595, 2.838e-4
-1.594, 2.807e-4
-1.593, 2.746e-4
-1.592, 2.684e-4
-1.591, 2.653e-4
-1.590, 2.591e-4
-1.589, 2.561e-4
-1.588, 2.530e-4
-1.587, 2.468e-4
-1.586, 2.468e-4
-1.585, 2.406e-4
-1.584, 2.376e-4
-1.583, 2.314e-4
-1.582, 2.283e-4
-1.581, 2.252e-4
-1.580, 2.191e-4
-1.579, 2.129e-4
-1.578, 2.098e-4
-1.577, 2.098e-4
-1.576, 2.036e-4
-1.575, 2.006e-4
-1.574, 1.975e-4
-1.573, 1.944e-4
-1.572, 1.913e-4
-1.571, 1.851e-4
-1.570, 1.851e-4
-1.569, 1.821e-4
-1.568, 1.790e-4
-1.567, 1.759e-4
-1.566, 1.759e-4
-1.565, 1.697e-4
-1.564, 1.666e-4
-1.563, 1.666e-4
-1.562, 1.605e-4
-1.561, 1.605e-4
-1.560, 1.574e-4
-1.559, 1.543e-4
-1.558, 1.512e-4
-1.557, 1.481e-4
-1.556, 1.451e-4
-1.555, 1.420e-4
-1.554, 1.389e-4
-1.553, 1.358e-4
-1.552, 1.358e-4
-1.551, 1.327e-4
-1.550, 1.327e-4
-1.549, 1.296e-4
-1.548, 1.266e-4
-1.547, 1.266e-4
-1.546, 1.235e-4
-1.545, 1.204e-4
-1.544, 1.173e-4
-1.543, 1.173e-4
-1.542, 1.142e-4
-1.541, 1.111e-4
-1.540, 1.081e-4
-1.539, 1.081e-4
-1.538, 1.050e-4
-1.537, 1.019e-4
-1.536, 1.019e-4
-1.535, 9.882e-5
-1.534, 9.573e-5
-1.533, 9.573e-5
-1.532, 9.265e-5
-1.531, 9.265e-5
-1.530, 9.265e-5
-1.529, 8.957e-5
-1.528, 8.957e-5
-1.527, 8.648e-5
-1.526, 8.340e-5
-1.525, 8.340e-5
-1.524, 8.340e-5
-1.523, 8.032e-5
-1.522, 8.032e-5
-1.521, 7.723e-5
-1.520, 7.723e-5
-1.519, 7.415e-5
-1.518, 7.107e-5
-1.517, 7.107e-5
-1.516, 7.107e-5
-1.515, 6.798e-5
-1.514, 6.798e-5
-1.513, 6.798e-5
-1.512, 6.490e-5
-1.511, 6.490e-5
-1.510, 6.182e-5
-1.509, 5.873e-5
-1.508, 6.182e-5
-1.507, 5.873e-5
-1.506, 5.873e-5
-1.505, 5.873e-5
-1.504, 5.565e-5
-1.503, 5.565e-5
-1.502, 5.565e-5
-1.501, 5.257e-5
-1.500, 5.257e-5
-1.499, 4.949e-5
-1.498, 4.949e-5
-1.497, 4.949e-5
-1.496, 4.949e-5
-1.495, 4.640e-5
-1.494, 4.640e-5
-1.493, 4.332e-5
-1.492, 4.332e-5
-1.491, 4.332e-5
-1.490, 4.332e-5
-1.489, 4.024e-5
-1.488, 4.024e-5
-1.487, 3.715e-5
-1.486, 3.715e-5
-1.485, 3.715e-5
-1.484, 3.715e-5
-1.483, 3.715e-5
-1.482, 3.407e-5
-1.481, 3.407e-5
-1.480, 3.407e-5
-1.479, 3.099e-5
-1.478, 3.099e-5
-1.477, 3.099e-5
-1.476, 3.099e-5
-1.475, 3.099e-5
-1.474, 2.790e-5
-1.473, 2.790e-5
-1.472, 2.790e-5
-1.471, 2.790e-5
-1.470, 2.482e-5
-1.469, 2.482e-5
-1.468, 2.482e-5
-1.467, 2.482e-5
-1.466, 2.482e-5
-1.465, 2.174e-5
-1.464, 2.482e-5
-1.463, 2.482e-5
-1.462, 2.174e-5
-1.461, 2.174e-5
-1.460, 2.174e-5
-1.459, 1.865e-5
-1.458, 2.174e-5
-1.457, 1.865e-5
-1.456, 1.865e-5
-1.455, 1.865e-5
-1.454, 1.865e-5
-1.453, 1.865e-5
-1.452, 1.557e-5
-1.451, 1.557e-5
-1.450, 1.865e-5
-1.449, 1.557e-5
-1.448, 1.557e-5
-1.447, 1.557e-5
-1.446, 1.557e-5
-1.445, 1.557e-5
-1.444, 1.557e-5
-1.443, 1.249e-5
-1.442, 1.249e-5
-1.441, 1.249e-5
-1.440, 1.249e-5
-1.439, 1.249e-5
-1.438, 1.249e-5
-1.437, 1.249e-5
-1.436, 9.405e-6
-1.435, 9.405e-6
-1.434, 9.405e-6
-1.433, 1.249e-5
-1.432, 9.405e-6
-1.431, 9.405e-6
-1.430, 9.405e-6
-1.429, 9.405e-6
-1.428, 9.405e-6
-1.427, 9.405e-6
-1.426, 9.405e-6
-1.425, 6.322e-6
-1.424, 9.405e-6
-1.423, 6.322e-6
-1.422, 6.322e-6
-1.421, 6.322e-6
-1.420, 6.322e-6
-1.419, 6.322e-6
-1.418, 6.322e-6
-1.417, 6.322e-6
-1.416, 6.322e-6
-1.415, 6.322e-6
-1.414, 6.322e-6
-1.413, 6.322e-6
-1.412, 6.322e-6
-1.411, 3.239e-6
-1.410, 3.239e-6
-1.409, 3.239e-6
-1.408, 6.322e-6
-1.407, 3.239e-6
-1.406, 3.239e-6
-1.405, 3.239e-6
-1.404, 3.239e-6
-1.403, 3.239e-6
-1.402, 3.239e-6
-1.401, 3.239e-6
-1.400, 3.239e-6
-1.399, 3.239e-6
-1.398, 3.239e-6
-1.397, 1.559e-7
-1.396, 1.559e-7
-1.395, 1.559e-7
-1.394, 1.559e-7
-1.393, 1.559e-7
-1.392, 1.559e-7
-1.391, 1.559e-7
-1.390, 1.559e-7
-1.389, 1.559e-7
-1.388, 1.559e-7
-1.387, 1.559e-7
-1.386, 1.559e-7
-1.385, 1.559e-7
-1.384, 1.559e-7
-1.383, 1.559e-7
-1.382, -2.927e-6
-1.381, -2.927e-6
-1.380, -2.927e-6
-1.379, -2.927e-6
-1.378, -2.927e-6
-1.377, -2.927e-6
-1.376, -2.927e-6
-1.375, -2.927e-6
-1.374, -2.927e-6
-1.373, -6.010e-6
-1.372, -6.010e-6
-1.371, -2.927e-6
-1.370, -6.010e-6
-1.369, -6.010e-6
-1.368, -6.010e-6
-1.367, -6.010e-6
-1.366, -6.010e-6
-1.365, -6.010e-6
-1.364, -6.010e-6
-1.363, -6.010e-6
-1.362, -6.010e-6
-1.361, -6.010e-6
-1.360, -6.010e-6
-1.359, -9.093e-6
-1.358, -6.010e-6
-1.357, -9.093e-6
-1.356, -6.010e-6
-1.355, -9.093e-6
-1.354, -9.093e-6
-1.353, -9.093e-6
-1.352, -9.093e-6
-1.351, -6.010e-6
-1.350, -9.093e-6
-1.349, -9.093e-6
-1.348, -6.010e-6
-1.347, -9.093e-6
-1.346, -6.010e-6
-1.345, -9.093e-6
-1.344, -9.093e-6
-1.343, -9.093e-6
-1.342, -9.093e-6
-1.341, -6.010e-6
-1.340, -9.093e-6
-1.339, -9.093e-6
-1.338, -9.093e-6
-1.337, -9.093e-6
-1.336, -9.093e-6
-1.335, -9.093e-6
-1.334, -9.093e-6
-1.333, -9.093e-6
-1.332, -9.093e-6
-1.331, -9.093e-6
-1.330, -9.093e-6
-1.329, -9.093e-6
-1.328, -9.093e-6
-1.327, -9.093e-6
-1.326, -9.093e-6
-1.325, -9.093e-6
-1.324, -9.093e-6
-1.323, -9.093e-6
-1.322, -1.218e-5
-1.321, -9.093e-6
-1.320, -1.218e-5
-1.319, -9.093e-6
-1.318, -1.218e-5
-1.317, -9.093e-6
-1.316, -1.218e-5
-1.315, -9.093e-6
-1.314, -1.218e-5
-1.313, -1.218e-5
-1.312, -1.218e-5
-1.311, -1.218e-5
-1.310, -1.218e-5
-1.309, -1.218e-5
-1.308, -1.218e-5
-1.307, -1.218e-5
-1.306, -1.218e-5
-1.305, -1.218e-5
-1.304, -1.218e-5
-1.303, -1.218e-5
-1.302, -1.526e-5
-1.301, -1.218e-5
-1.300, -1.526e-5
-1.299, -1.218e-5
-1.298, -1.218e-5
-1.297, -1.526e-5
-1.296, -1.218e-5
-1.295, -1.218e-5
-1.294, -1.218e-5
-1.293, -1.526e-5
-1.292, -1.218e-5
-1.291, -1.526e-5
-1.290, -1.526e-5
-1.289, -1.526e-5
-1.288, -1.526e-5
-1.287, -1.526e-5
-1.286, -1.526e-5
-1.285, -1.526e-5
-1.284, -1.218e-5
-1.283, -1.218e-5
-1.282, -1.526e-5
-1.281, -1.526e-5
-1.280, -1.526e-5
-1.279, -1.526e-5
-1.278, -1.526e-5
-1.277, -1.526e-5
-1.276, -1.526e-5
-1.275, -1.526e-5
-1.274, -1.526e-5
-1.273, -1.218e-5
-1.272, -1.526e-5
-1.271, -1.526e-5
-1.270, -1.526e-5
-1.269, -1.526e-5
-1.268, -1.526e-5
-1.267, -1.526e-5
-1.266, -1.526e-5
-1.265, -1.526e-5
-1.264, -1.526e-5
-1.263, -1.834e-5
-1.262, -1.526e-5
-1.261, -1.834e-5
-1.260, -1.526e-5
-1.259, -1.526e-5
-1.258, -1.834e-5
-1.257, -1.526e-5
-1.256, -1.526e-5
-1.255, -1.526e-5
-1.254, -1.526e-5
-1.253, -1.834e-5
-1.252, -1.834e-5
-1.251, -1.526e-5
-1.250, -1.834e-5
-1.249, -1.834e-5
-1.248, -1.834e-5
-1.247, -1.834e-5
-1.246, -1.834e-5
-1.245, -1.526e-5
-1.244, -1.834e-5
-1.243, -1.834e-5
-1.242, -1.834e-5
-1.241, -1.834e-5
-1.240, -1.834e-5
-1.239, -1.834e-5
-1.238, -1.834e-5
-1.237, -1.834e-5
-1.236, -1.834e-5
-1.235, -1.834e-5
-1.234, -1.834e-5
-1.233, -1.834e-5
-1.232, -1.834e-5
-1.231, -1.834e-5
-1.230, -1.834e-5
-1.229, -1.834e-5
-1.228, -1.834e-5
-1.227, -1.834e-5
-1.226, -1.834e-5
-1.225, -1.834e-5
-1.224, -2.143e-5
-1.223, -1.834e-5
-1.222, -1.834e-5
-1.221, -1.834e-5
-1.220, -1.834e-5
-1.219, -2.143e-5
-1.218, -1.834e-5
-1.217, -2.143e-5
-1.216, -2.143e-5
-1.215, -1.834e-5
-1.214, -1.834e-5
-1.213, -2.143e-5
-1.212, -1.834e-5
-1.211, -2.143e-5
-1.210, -1.834e-5
-1.209, -2.143e-5
-1.208, -2.143e-5
-1.207, -2.143e-5
-1.206, -2.143e-5
-1.205, -2.143e-5
-1.204, -2.143e-5
-1.203, -2.143e-5
-1.202, -2.143e-5
-1.201, -2.143e-5
-1.200, -2.143e-5
-1.199, -2.451e-5
-1.198, -2.143e-5
-1.197, -2.143e-5
-1.196, -2.143e-5
-1.195, -2.143e-5
-1.194, -2.451e-5
-1.193, -2.143e-5
-1.192, -2.143e-5
-1.191, -2.451e-5
-1.190, -2.143e-5
-1.189, -2.143e-5
-1.188, -2.451e-5
-1.187, -2.143e-5
-1.186, -2.451e-5
-1.185, -2.451e-5
-1.184, -2.451e-5
-1.183, -2.759e-5
-1.182, -2.143e-5
-1.181, -2.451e-5
-1.180, -2.759e-5
-1.179, -2.451e-5
-1.178, -2.451e-5
-1.177, -2.451e-5
-1.176, -2.451e-5
-1.175, -2.451e-5
-1.174, -2.759e-5
-1.173, -2.451e-5
-1.172, -2.759e-5
-1.171, -2.451e-5
-1.170, -2.451e-5
-1.169, -2.759e-5
-1.168, -2.451e-5
-1.167, -2.451e-5
-1.166, -2.451e-5
-1.165, -2.451e-5
-1.164, -2.759e-5
-1.163, -2.759e-5
-1.162, -2.451e-5
-1.161, -2.759e-5
-1.160, -2.759e-5
-1.159, -2.759e-5
-1.158, -2.759e-5
-1.157, -2.451e-5
-1.156, -2.759e-5
-1.155, -2.759e-5
-1.154, -2.451e-5
-1.153, -2.451e-5
-1.152, -2.759e-5
-1.151, -2.451e-5
-1.150, -2.759e-5
-1.149, -2.759e-5
-1.148, -2.759e-5
-1.147, -2.759e-5
-1.146, -2.759e-5
-1.145, -2.759e-5
-1.144, -2.759e-5
-1.143, -2.759e-5
-1.142, -2.759e-5
-1.141, -2.759e-5
-1.140, -2.759e-5
-1.139, -2.759e-5
-1.138, -2.759e-5
-1.137, -2.759e-5
-1.136, -2.759e-5
-1.135, -2.759e-5
-1.134, -2.759e-5
-1.133, -2.759e-5
-1.132, -2.759e-5
-1.131, -2.759e-5
-1.130, -2.759e-5
-1.129, -2.759e-5
-1.128, -2.759e-5
-1.127, -2.759e-5
-1.126, -2.759e-5
-1.125, -2.759e-5
-1.124, -2.759e-5
-1.123, -2.759e-5
-1.122, -2.759e-5
-1.121, -2.759e-5
-1.120, -2.759e-5
-1.119, -2.759e-5
-1.118, -2.759e-5
-1.117, -2.759e-5
-1.116, -2.759e-5
-1.115, -2.759e-5
-1.114, -2.759e-5
-1.113, -3.068e-5
-1.112, -2.759e-5
-1.111, -2.759e-5
-1.110, -2.759e-5
-1.109, -2.759e-5
-1.108, -3.068e-5
-1.107, -2.759e-5
-1.106, -3.068e-5
-1.105, -2.759e-5
-1.104, -3.068e-5
-1.103, -3.068e-5
-1.102, -3.068e-5
-1.101, -3.068e-5
-1.100, -3.068e-5
-1.099, -3.068e-5
-1.098, -3.068e-5
-1.097, -3.376e-5
-1.096, -3.068e-5
-1.095, -3.068e-5
-1.094, -3.376e-5
-1.093, -3.376e-5
-1.092, -3.068e-5
-1.091, -3.376e-5
-1.090, -3.376e-5
-1.089, -3.068e-5
-1.088, -3.376e-5
-1.087, -3.068e-5
-1.086, -3.068e-5
-1.085, -3.068e-5
-1.084, -3.068e-5
-1.083, -3.068e-5
-1.082, -3.068e-5
-1.081, -3.068e-5
-1.080, -3.068e-5
-1.079, -3.068e-5
-1.078, -3.068e-5
-1.077, -3.068e-5
-1.076, -3.376e-5
-1.075, -3.068e-5
-1.074, -3.376e-5
-1.073, -3.068e-5
-1.072, -3.376e-5
-1.071, -3.068e-5
-1.070, -3.068e-5
-1.069, -3.068e-5
-1.068, -3.376e-5
-1.067, -3.376e-5
-1.066, -3.376e-5
-1.065, -3.376e-5
-1.064, -3.376e-5
-1.063, -3.376e-5
-1.062, -3.376e-5
-1.061, -3.068e-5
-1.060, -3.376e-5
-1.059, -3.376e-5
-1.058, -3.376e-5
-1.057, -3.376e-5
-1.056, -3.376e-5
-1.055, -3.376e-5
-1.054, -3.376e-5
-1.053, -3.376e-5
-1.052, -3.376e-5
-1.051, -3.684e-5
-1.050, -3.684e-5
-1.049, -3.684e-5
-1.048, -3.376e-5
-1.047, -3.684e-5
-1.046, -3.684e-5
-1.045, -3.684e-5
-1.044, -3.376e-5
-1.043, -3.684e-5
-1.042, -3.684e-5
-1.041, -3.684e-5
-1.040, -3.684e-5
-1.039, -3.684e-5
-1.038, -3.684e-5
-1.037, -3.684e-5
-1.036, -3.684e-5
-1.035, -3.684e-5
-1.034, -3.684e-5
-1.033, -3.684e-5
-1.032, -3.684e-5
-1.031, -3.684e-5
-1.030, -3.684e-5
-1.029, -3.992e-5
-1.028, -3.684e-5
-1.027, -3.992e-5
-1.026, -3.684e-5
-1.025, -3.684e-5
-1.024, -3.992e-5
-1.023, -3.992e-5
-1.022, -3.684e-5
-1.021, -3.684e-5
-1.020, -3.992e-5
-1.019, -3.684e-5
-1.018, -3.684e-5
-1.017, -3.684e-5
-1.016, -3.992e-5
-1.015, -3.992e-5
-1.014, -3.992e-5
-1.013, -3.992e-5
-1.012, -3.992e-5
-1.011, -3.992e-5
-1.010, -3.992e-5
-1.009, -4.301e-5
-1.008, -3.992e-5
-1.007, -3.992e-5
-1.006, -3.992e-5
-1.005, -3.992e-5
-1.004, -4.301e-5
-1.003, -3.992e-5
-1.002, -3.992e-5
-1.001, -4.301e-5
