Dec. 30, 2024   15:03:33
Cyclic Voltammetry
File: c:/users/guazh/data/banditlqround7_x0exp136_r20/2024-12-24-exp788\exp788-2024-12-30t14_54_55-arkoh\exp788_cv_50mvs_efin_-1500mv.bin
Data Source:  Experiment
Instrument Model:  CHI760E
Header: CV ran at 50 mVs
Note: 

Init E (V) = -1
High E (V) = -1
Low E (V) = -1.5
Final E (V) = -1
Init P/N = N
Scan Rate (V/s) = 0.05
Segment = 7
Sample Interval (V) = 0.001
Quiet Time (sec) = 60
Sensitivity (A/V) = 0.001
Comp R (ohm) = 1.5

Results:

Channel 1:
Segment 1:

Segment 2:

Segment 3:

Segment 4:

Segment 5:

Segment 6:

Segment 7:

Potential/V, Current/A

-1.000, 6.127e-6
-1.001, 8.763e-6
-1.002, 8.750e-6
-1.003, 7.342e-6
-1.004, 7.012e-6
-1.005, 8.599e-6
-1.006, 9.721e-6
-1.007, 9.566e-6
-1.008, 8.019e-6
-1.009, 7.546e-6
-1.010, 9.128e-6
-1.011, 1.031e-5
-1.012, 9.988e-6
-1.013, 8.509e-6
-1.014, 7.905e-6
-1.015, 9.544e-6
-1.016, 1.063e-5
-1.017, 1.022e-5
-1.018, 8.876e-6
-1.019, 8.191e-6
-1.020, 9.719e-6
-1.021, 1.100e-5
-1.022, 1.046e-5
-1.023, 9.087e-6
-1.024, 8.435e-6
-1.025, 9.897e-6
-1.026, 1.111e-5
-1.027, 1.067e-5
-1.028, 9.164e-6
-1.029, 8.660e-6
-1.030, 1.009e-5
-1.031, 1.132e-5
-1.032, 1.087e-5
-1.033, 9.299e-6
-1.034, 8.884e-6
-1.035, 1.028e-5
-1.036, 1.142e-5
-1.037, 1.104e-5
-1.038, 9.508e-6
-1.039, 9.026e-6
-1.040, 1.040e-5
-1.041, 1.152e-5
-1.042, 1.123e-5
-1.043, 9.596e-6
-1.044, 9.091e-6
-1.045, 1.056e-5
-1.046, 1.169e-5
-1.047, 1.139e-5
-1.048, 9.659e-6
-1.049, 9.259e-6
-1.050, 1.071e-5
-1.051, 1.178e-5
-1.052, 1.142e-5
-1.053, 9.922e-6
-1.054, 9.335e-6
-1.055, 1.086e-5
-1.056, 1.199e-5
-1.057, 1.157e-5
-1.058, 1.004e-5
-1.059, 9.479e-6
-1.060, 1.097e-5
-1.061, 1.217e-5
-1.062, 1.160e-5
-1.063, 1.021e-5
-1.064, 9.604e-6
-1.065, 1.104e-5
-1.066, 1.235e-5
-1.067, 1.174e-5
-1.068, 1.029e-5
-1.069, 9.737e-6
-1.070, 1.123e-5
-1.071, 1.240e-5
-1.072, 1.192e-5
-1.073, 1.033e-5
-1.074, 9.862e-6
-1.075, 1.137e-5
-1.076, 1.256e-5
-1.077, 1.205e-5
-1.078, 1.043e-5
-1.079, 1.004e-5
-1.080, 1.136e-5
-1.081, 1.259e-5
-1.082, 1.222e-5
-1.083, 1.056e-5
-1.084, 1.006e-5
-1.085, 1.157e-5
-1.086, 1.276e-5
-1.087, 1.227e-5
-1.088, 1.061e-5
-1.089, 1.023e-5
-1.090, 1.167e-5
-1.091, 1.281e-5
-1.092, 1.241e-5
-1.093, 1.086e-5
-1.094, 1.033e-5
-1.095, 1.179e-5
-1.096, 1.304e-5
-1.097, 1.230e-5
-1.098, 1.098e-5
-1.099, 1.045e-5
-1.100, 1.187e-5
-1.101, 1.311e-5
-1.102, 1.269e-5
-1.103, 1.114e-5
-1.104, 1.055e-5
-1.105, 1.197e-5
-1.106, 1.328e-5
-1.107, 1.273e-5
-1.108, 1.114e-5
-1.109, 1.073e-5
-1.110, 1.219e-5
-1.111, 1.337e-5
-1.112, 1.275e-5
-1.113, 1.125e-5
-1.114, 1.085e-5
-1.115, 1.222e-5
-1.116, 1.347e-5
-1.117, 1.300e-5
-1.118, 1.137e-5
-1.119, 1.097e-5
-1.120, 1.249e-5
-1.121, 1.357e-5
-1.122, 1.313e-5
-1.123, 1.150e-5
-1.124, 1.118e-5
-1.125, 1.258e-5
-1.126, 1.374e-5
-1.127, 1.333e-5
-1.128, 1.170e-5
-1.129, 1.124e-5
-1.130, 1.281e-5
-1.131, 1.390e-5
-1.132, 1.344e-5
-1.133, 1.189e-5
-1.134, 1.145e-5
-1.135, 1.295e-5
-1.136, 1.406e-5
-1.137, 1.360e-5
-1.138, 1.206e-5
-1.139, 1.158e-5
-1.140, 1.317e-5
-1.141, 1.429e-5
-1.142, 1.378e-5
-1.143, 1.227e-5
-1.144, 1.183e-5
-1.145, 1.330e-5
-1.146, 1.456e-5
-1.147, 1.393e-5
-1.148, 1.246e-5
-1.149, 1.201e-5
-1.150, 1.344e-5
-1.151, 1.481e-5
-1.152, 1.412e-5
-1.153, 1.258e-5
-1.154, 1.229e-5
-1.155, 1.364e-5
-1.156, 1.492e-5
-1.157, 1.436e-5
-1.158, 1.283e-5
-1.159, 1.252e-5
-1.160, 1.386e-5
-1.161, 1.507e-5
-1.162, 1.462e-5
-1.163, 1.300e-5
-1.164, 1.264e-5
-1.165, 1.409e-5
-1.166, 1.524e-5
-1.167, 1.486e-5
-1.168, 1.317e-5
-1.169, 1.284e-5
-1.170, 1.428e-5
-1.171, 1.545e-5
-1.172, 1.505e-5
-1.173, 1.341e-5
-1.174, 1.298e-5
-1.175, 1.451e-5
-1.176, 1.563e-5
-1.177, 1.519e-5
-1.178, 1.369e-5
-1.179, 1.318e-5
-1.180, 1.463e-5
-1.181, 1.582e-5
-1.182, 1.531e-5
-1.183, 1.384e-5
-1.184, 1.333e-5
-1.185, 1.486e-5
-1.186, 1.594e-5
-1.187, 1.541e-5
-1.188, 1.396e-5
-1.189, 1.356e-5
-1.190, 1.489e-5
-1.191, 1.628e-5
-1.192, 1.559e-5
-1.193, 1.412e-5
-1.194, 1.373e-5
-1.195, 1.521e-5
-1.196, 1.635e-5
-1.197, 1.587e-5
-1.198, 1.426e-5
-1.199, 1.396e-5
-1.200, 1.527e-5
-1.201, 1.652e-5
-1.202, 1.610e-5
-1.203, 1.445e-5
-1.204, 1.411e-5
-1.205, 1.562e-5
-1.206, 1.669e-5
-1.207, 1.627e-5
-1.208, 1.462e-5
-1.209, 1.426e-5
-1.210, 1.586e-5
-1.211, 1.688e-5
-1.212, 1.638e-5
-1.213, 1.486e-5
-1.214, 1.460e-5
-1.215, 1.606e-5
-1.216, 1.720e-5
-1.217, 1.671e-5
-1.218, 1.515e-5
-1.219, 1.491e-5
-1.220, 1.639e-5
-1.221, 1.751e-5
-1.222, 1.706e-5
-1.223, 1.564e-5
-1.224, 1.523e-5
-1.225, 1.665e-5
-1.226, 1.797e-5
-1.227, 1.744e-5
-1.228, 1.608e-5
-1.229, 1.574e-5
-1.230, 1.719e-5
-1.231, 1.838e-5
-1.232, 1.792e-5
-1.233, 1.646e-5
-1.234, 1.628e-5
-1.235, 1.766e-5
-1.236, 1.899e-5
-1.237, 1.861e-5
-1.238, 1.699e-5
-1.239, 1.690e-5
-1.240, 1.831e-5
-1.241, 1.953e-5
-1.242, 1.928e-5
-1.243, 1.765e-5
-1.244, 1.757e-5
-1.245, 1.918e-5
-1.246, 2.039e-5
-1.247, 2.009e-5
-1.248, 1.851e-5
-1.249, 1.841e-5
-1.250, 2.008e-5
-1.251, 2.128e-5
-1.252, 2.090e-5
-1.253, 1.957e-5
-1.254, 1.941e-5
-1.255, 2.109e-5
-1.256, 2.231e-5
-1.257, 2.201e-5
-1.258, 2.078e-5
-1.259, 2.055e-5
-1.260, 2.226e-5
-1.261, 2.364e-5
-1.262, 2.331e-5
-1.263, 2.194e-5
-1.264, 2.196e-5
-1.265, 2.361e-5
-1.266, 2.506e-5
-1.267, 2.476e-5
-1.268, 2.350e-5
-1.269, 2.358e-5
-1.270, 2.526e-5
-1.271, 2.676e-5
-1.272, 2.648e-5
-1.273, 2.521e-5
-1.274, 2.544e-5
-1.275, 2.708e-5
-1.276, 2.863e-5
-1.277, 2.845e-5
-1.278, 2.733e-5
-1.279, 2.743e-5
-1.280, 2.922e-5
-1.281, 3.084e-5
-1.282, 3.075e-5
-1.283, 2.954e-5
-1.284, 2.986e-5
-1.285, 3.171e-5
-1.286, 3.328e-5
-1.287, 3.332e-5
-1.288, 3.222e-5
-1.289, 3.250e-5
-1.290, 3.446e-5
-1.291, 3.615e-5
-1.292, 3.620e-5
-1.293, 3.520e-5
-1.294, 3.556e-5
-1.295, 3.770e-5
-1.296, 3.935e-5
-1.297, 3.950e-5
-1.298, 3.857e-5
-1.299, 3.903e-5
-1.300, 4.114e-5
-1.301, 4.305e-5
-1.302, 4.311e-5
-1.303, 4.244e-5
-1.304, 4.292e-5
-1.305, 4.512e-5
-1.306, 4.705e-5
-1.307, 4.732e-5
-1.308, 4.668e-5
-1.309, 4.729e-5
-1.310, 4.958e-5
-1.311, 5.166e-5
-1.312, 5.193e-5
-1.313, 5.128e-5
-1.314, 5.221e-5
-1.315, 5.441e-5
-1.316, 5.665e-5
-1.317, 5.710e-5
-1.318, 5.661e-5
-1.319, 5.749e-5
-1.320, 5.993e-5
-1.321, 6.223e-5
-1.322, 6.285e-5
-1.323, 6.256e-5
-1.324, 6.353e-5
-1.325, 6.614e-5
-1.326, 6.849e-5
-1.327, 6.921e-5
-1.328, 6.900e-5
-1.329, 7.010e-5
-1.330, 7.288e-5
-1.331, 7.537e-5
-1.332, 7.618e-5
-1.333, 7.617e-5
-1.334, 7.746e-5
-1.335, 8.035e-5
-1.336, 8.280e-5
-1.337, 8.397e-5
-1.338, 8.408e-5
-1.339, 8.559e-5
-1.340, 8.854e-5
-1.341, 9.134e-5
-1.342, 9.243e-5
-1.343, 9.296e-5
-1.344, 9.436e-5
-1.345, 9.758e-5
-1.346, 1.005e-4
-1.347, 1.019e-4
-1.348, 1.024e-4
-1.349, 1.042e-4
-1.350, 1.075e-4
-1.351, 1.107e-4
-1.352, 1.123e-4
-1.353, 1.129e-4
-1.354, 1.149e-4
-1.355, 1.183e-4
-1.356, 1.217e-4
-1.357, 1.234e-4
-1.358, 1.244e-4
-1.359, 1.266e-4
-1.360, 1.302e-4
-1.361, 1.339e-4
-1.362, 1.358e-4
-1.363, 1.369e-4
-1.364, 1.394e-4
-1.365, 1.433e-4
-1.366, 1.471e-4
-1.367, 1.495e-4
-1.368, 1.507e-4
-1.369, 1.534e-4
-1.370, 1.575e-4
-1.371, 1.617e-4
-1.372, 1.642e-4
-1.373, 1.658e-4
-1.374, 1.688e-4
-1.375, 1.732e-4
-1.376, 1.775e-4
-1.377, 1.803e-4
-1.378, 1.821e-4
-1.379, 1.854e-4
-1.380, 1.901e-4
-1.381, 1.947e-4
-1.382, 1.980e-4
-1.383, 2.002e-4
-1.384, 2.036e-4
-1.385, 2.086e-4
-1.386, 2.136e-4
-1.387, 2.171e-4
-1.388, 2.196e-4
-1.389, 2.235e-4
-1.390, 2.286e-4
-1.391, 2.341e-4
-1.392, 2.378e-4
-1.393, 2.407e-4
-1.394, 2.449e-4
-1.395, 2.505e-4
-1.396, 2.563e-4
-1.397, 2.605e-4
-1.398, 2.635e-4
-1.399, 2.683e-4
-1.400, 2.740e-4
-1.401, 2.802e-4
-1.402, 2.848e-4
-1.403, 2.882e-4
-1.404, 2.934e-4
-1.405, 2.996e-4
-1.406, 3.063e-4
-1.407, 3.115e-4
-1.408, 3.151e-4
-1.409, 3.207e-4
-1.410, 3.276e-4
-1.411, 3.343e-4
-1.412, 3.399e-4
-1.413, 3.442e-4
-1.414, 3.502e-4
-1.415, 3.573e-4
-1.416, 3.646e-4
-1.417, 3.705e-4
-1.418, 3.756e-4
-1.419, 3.819e-4
-1.420, 3.895e-4
-1.421, 3.974e-4
-1.422, 4.038e-4
-1.423, 4.090e-4
-1.424, 4.158e-4
-1.425, 4.247e-4
-1.426, 4.325e-4
-1.427, 4.393e-4
-1.428, 4.456e-4
-1.429, 4.525e-4
-1.430, 4.612e-4
-1.431, 4.703e-4
-1.432, 4.781e-4
-1.433, 4.846e-4
-1.434, 4.924e-4
-1.435, 5.019e-4
-1.436, 5.108e-4
-1.437, 5.191e-4
-1.438, 5.262e-4
-1.439, 5.343e-4
-1.440, 5.437e-4
-1.441, 5.543e-4
-1.442, 5.633e-4
-1.443, 5.712e-4
-1.444, 5.800e-4
-1.445, 5.920e-4
-1.446, 6.012e-4
-1.447, 6.116e-4
-1.448, 6.193e-4
-1.449, 6.287e-4
-1.450, 6.404e-4
-1.451, 6.515e-4
-1.452, 6.620e-4
-1.453, 6.713e-4
-1.454, 6.812e-4
-1.455, 6.930e-4
-1.456, 7.050e-4
-1.457, 7.155e-4
-1.458, 7.256e-4
-1.459, 7.366e-4
-1.460, 7.492e-4
-1.461, 7.622e-4
-1.462, 7.742e-4
-1.463, 7.842e-4
-1.464, 7.958e-4
-1.465, 8.091e-4
-1.466, 8.227e-4
-1.467, 8.353e-4
-1.468, 8.468e-4
-1.469, 8.590e-4
-1.470, 8.731e-4
-1.471, 8.875e-4
-1.472, 9.004e-4
-1.473, 9.126e-4
-1.474, 9.264e-4
-1.475, 9.397e-4
-1.476, 9.567e-4
-1.477, 9.696e-4
-1.478, 9.825e-4
-1.479, 9.981e-4
-1.480, 1.013e-3
-1.481, 1.029e-3
-1.482, 1.044e-3
-1.483, 1.058e-3
-1.484, 1.073e-3
-1.485, 1.090e-3
-1.486, 1.107e-3
-1.487, 1.122e-3
-1.488, 1.137e-3
-1.489, 1.152e-3
-1.490, 1.170e-3
-1.491, 1.188e-3
-1.492, 1.204e-3
-1.493, 1.220e-3
-1.494, 1.237e-3
-1.495, 1.256e-3
-1.496, 1.274e-3
-1.497, 1.292e-3
-1.498, 1.308e-3
-1.499, 1.326e-3
-1.500, 1.318e-3
-1.499, 1.291e-3
-1.498, 1.265e-3
-1.497, 1.239e-3
-1.496, 1.215e-3
-1.495, 1.192e-3
-1.494, 1.169e-3
-1.493, 1.146e-3
-1.492, 1.122e-3
-1.491, 1.100e-3
-1.490, 1.080e-3
-1.489, 1.061e-3
-1.488, 1.041e-3
-1.487, 1.020e-3
-1.486, 9.996e-4
-1.485, 9.815e-4
-1.484, 9.631e-4
-1.483, 9.449e-4
-1.482, 9.253e-4
-1.481, 9.075e-4
-1.480, 8.919e-4
-1.479, 8.762e-4
-1.478, 8.597e-4
-1.477, 8.429e-4
-1.476, 8.255e-4
-1.475, 8.112e-4
-1.474, 7.983e-4
-1.473, 7.823e-4
-1.472, 7.665e-4
-1.471, 7.513e-4
-1.470, 7.381e-4
-1.469, 7.261e-4
-1.468, 7.122e-4
-1.467, 6.973e-4
-1.466, 6.837e-4
-1.465, 6.720e-4
-1.464, 6.607e-4
-1.463, 6.475e-4
-1.462, 6.344e-4
-1.461, 6.222e-4
-1.460, 6.113e-4
-1.459, 6.011e-4
-1.458, 5.894e-4
-1.457, 5.769e-4
-1.456, 5.658e-4
-1.455, 5.561e-4
-1.454, 5.468e-4
-1.453, 5.361e-4
-1.452, 5.246e-4
-1.451, 5.146e-4
-1.450, 5.055e-4
-1.449, 4.970e-4
-1.448, 4.875e-4
-1.447, 4.771e-4
-1.446, 4.674e-4
-1.445, 4.592e-4
-1.444, 4.526e-4
-1.443, 4.425e-4
-1.442, 4.326e-4
-1.441, 4.249e-4
-1.440, 4.170e-4
-1.439, 4.107e-4
-1.438, 4.023e-4
-1.437, 3.930e-4
-1.436, 3.853e-4
-1.435, 3.790e-4
-1.434, 3.726e-4
-1.433, 3.648e-4
-1.432, 3.564e-4
-1.431, 3.494e-4
-1.430, 3.434e-4
-1.429, 3.381e-4
-1.428, 3.308e-4
-1.427, 3.229e-4
-1.426, 3.166e-4
-1.425, 3.112e-4
-1.424, 3.064e-4
-1.423, 2.997e-4
-1.422, 2.923e-4
-1.421, 2.865e-4
-1.420, 2.818e-4
-1.419, 2.774e-4
-1.418, 2.713e-4
-1.417, 2.645e-4
-1.416, 2.592e-4
-1.415, 2.550e-4
-1.414, 2.510e-4
-1.413, 2.454e-4
-1.412, 2.391e-4
-1.411, 2.341e-4
-1.410, 2.303e-4
-1.409, 2.267e-4
-1.408, 2.217e-4
-1.407, 2.158e-4
-1.406, 2.112e-4
-1.405, 2.079e-4
-1.404, 2.048e-4
-1.403, 1.999e-4
-1.402, 1.945e-4
-1.401, 1.901e-4
-1.400, 1.874e-4
-1.399, 1.847e-4
-1.398, 1.801e-4
-1.397, 1.750e-4
-1.396, 1.711e-4
-1.395, 1.685e-4
-1.394, 1.662e-4
-1.393, 1.621e-4
-1.392, 1.571e-4
-1.391, 1.538e-4
-1.390, 1.516e-4
-1.389, 1.493e-4
-1.388, 1.456e-4
-1.387, 1.411e-4
-1.386, 1.379e-4
-1.385, 1.361e-4
-1.384, 1.341e-4
-1.383, 1.306e-4
-1.382, 1.262e-4
-1.381, 1.234e-4
-1.380, 1.219e-4
-1.379, 1.200e-4
-1.378, 1.169e-4
-1.377, 1.127e-4
-1.376, 1.102e-4
-1.375, 1.088e-4
-1.374, 1.074e-4
-1.373, 1.044e-4
-1.372, 1.006e-4
-1.371, 9.811e-5
-1.370, 9.698e-5
-1.369, 9.575e-5
-1.368, 9.299e-5
-1.367, 8.936e-5
-1.366, 8.713e-5
-1.365, 8.617e-5
-1.364, 8.530e-5
-1.363, 8.247e-5
-1.362, 7.912e-5
-1.361, 7.708e-5
-1.360, 7.643e-5
-1.359, 7.557e-5
-1.358, 7.303e-5
-1.357, 6.988e-5
-1.356, 6.795e-5
-1.355, 6.734e-5
-1.354, 6.676e-5
-1.353, 6.438e-5
-1.352, 6.129e-5
-1.351, 5.960e-5
-1.350, 5.921e-5
-1.349, 5.874e-5
-1.348, 5.648e-5
-1.347, 5.355e-5
-1.346, 5.205e-5
-1.345, 5.173e-5
-1.344, 5.135e-5
-1.343, 4.946e-5
-1.342, 4.645e-5
-1.341, 4.512e-5
-1.340, 4.496e-5
-1.339, 4.474e-5
-1.338, 4.282e-5
-1.337, 4.009e-5
-1.336, 3.887e-5
-1.335, 3.886e-5
-1.334, 3.874e-5
-1.333, 3.699e-5
-1.332, 3.444e-5
-1.331, 3.310e-5
-1.330, 3.338e-5
-1.329, 3.333e-5
-1.328, 3.167e-5
-1.327, 2.919e-5
-1.326, 2.804e-5
-1.325, 2.836e-5
-1.324, 2.847e-5
-1.323, 2.673e-5
-1.322, 2.450e-5
-1.321, 2.337e-5
-1.320, 2.375e-5
-1.319, 2.408e-5
-1.318, 2.245e-5
-1.317, 2.014e-5
-1.316, 1.929e-5
-1.315, 1.965e-5
-1.314, 1.994e-5
-1.313, 1.850e-5
-1.312, 1.635e-5
-1.311, 1.558e-5
-1.310, 1.595e-5
-1.309, 1.645e-5
-1.308, 1.515e-5
-1.307, 1.282e-5
-1.306, 1.223e-5
-1.305, 1.273e-5
-1.304, 1.323e-5
-1.303, 1.191e-5
-1.302, 9.804e-6
-1.301, 9.214e-6
-1.300, 9.793e-6
-1.299, 1.023e-5
-1.298, 9.136e-6
-1.297, 7.022e-6
-1.296, 6.482e-6
-1.295, 7.218e-6
-1.294, 7.704e-6
-1.293, 6.677e-6
-1.292, 4.617e-6
-1.291, 4.058e-6
-1.290, 4.897e-6
-1.289, 5.477e-6
-1.288, 4.482e-6
-1.287, 2.596e-6
-1.286, 1.911e-6
-1.285, 2.867e-6
-1.284, 3.574e-6
-1.283, 2.397e-6
-1.282, 5.868e-7
-1.281, 9.649e-8
-1.280, 9.667e-7
-1.279, 1.752e-6
-1.278, 6.717e-7
-1.277, -1.025e-6
-1.276, -1.471e-6
-1.275, -6.435e-7
-1.274, 1.488e-7
-1.273, -7.559e-7
-1.272, -2.607e-6
-1.271, -2.936e-6
-1.270, -1.996e-6
-1.269, -1.142e-6
-1.268, -2.118e-6
-1.267, -3.934e-6
-1.266, -4.215e-6
-1.265, -3.368e-6
-1.264, -2.448e-6
-1.263, -3.263e-6
-1.262, -5.080e-6
-1.261, -5.343e-6
-1.260, -4.322e-6
-1.259, -3.490e-6
-1.258, -4.294e-6
-1.257, -6.137e-6
-1.256, -6.315e-6
-1.255, -5.285e-6
-1.254, -4.506e-6
-1.253, -5.204e-6
-1.252, -6.944e-6
-1.251, -7.272e-6
-1.250, -6.178e-6
-1.249, -5.276e-6
-1.248, -5.979e-6
-1.247, -7.630e-6
-1.246, -8.008e-6
-1.245, -6.793e-6
-1.244, -5.913e-6
-1.243, -6.726e-6
-1.242, -8.309e-6
-1.241, -8.641e-6
-1.240, -7.509e-6
-1.239, -6.540e-6
-1.238, -7.320e-6
-1.237, -8.872e-6
-1.236, -9.246e-6
-1.235, -8.046e-6
-1.234, -7.044e-6
-1.233, -7.902e-6
-1.232, -9.281e-6
-1.231, -9.592e-6
-1.230, -8.577e-6
-1.229, -7.731e-6
-1.228, -8.225e-6
-1.227, -9.905e-6
-1.226, -1.016e-5
-1.225, -8.918e-6
-1.224, -7.907e-6
-1.223, -8.629e-6
-1.222, -1.022e-5
-1.221, -1.039e-5
-1.220, -9.265e-6
-1.219, -8.369e-6
-1.218, -8.936e-6
-1.217, -1.056e-5
-1.216, -1.085e-5
-1.215, -9.425e-6
-1.214, -8.649e-6
-1.213, -9.110e-6
-1.212, -1.075e-5
-1.211, -1.107e-5
-1.210, -9.813e-6
-1.209, -8.910e-6
-1.208, -9.391e-6
-1.207, -1.103e-5
-1.206, -1.135e-5
-1.205, -9.929e-6
-1.204, -8.974e-6
-1.203, -9.758e-6
-1.202, -1.120e-5
-1.201, -1.153e-5
-1.200, -1.018e-5
-1.199, -9.273e-6
-1.198, -9.851e-6
-1.197, -1.139e-5
-1.196, -1.161e-5
-1.195, -1.041e-5
-1.194, -9.362e-6
-1.193, -9.970e-6
-1.192, -1.151e-5
-1.191, -1.174e-5
-1.190, -1.054e-5
-1.189, -9.517e-6
-1.188, -1.002e-5
-1.187, -1.164e-5
-1.186, -1.189e-5
-1.185, -1.069e-5
-1.184, -9.551e-6
-1.183, -1.014e-5
-1.182, -1.176e-5
-1.181, -1.205e-5
-1.180, -1.065e-5
-1.179, -9.795e-6
-1.178, -1.033e-5
-1.177, -1.182e-5
-1.176, -1.212e-5
-1.175, -1.084e-5
-1.174, -9.846e-6
-1.173, -1.038e-5
-1.172, -1.187e-5
-1.171, -1.223e-5
-1.170, -1.076e-5
-1.169, -9.854e-6
-1.168, -1.041e-5
-1.167, -1.189e-5
-1.166, -1.231e-5
-1.165, -1.090e-5
-1.164, -9.928e-6
-1.163, -1.051e-5
-1.162, -1.192e-5
-1.161, -1.240e-5
-1.160, -1.093e-5
-1.159, -9.942e-6
-1.158, -1.057e-5
-1.157, -1.203e-5
-1.156, -1.236e-5
-1.155, -1.113e-5
-1.154, -9.990e-6
-1.153, -1.054e-5
-1.152, -1.208e-5
-1.151, -1.246e-5
-1.150, -1.107e-5
-1.149, -1.007e-5
-1.148, -1.057e-5
-1.147, -1.219e-5
-1.146, -1.243e-5
-1.145, -1.110e-5
-1.144, -1.022e-5
-1.143, -1.063e-5
-1.142, -1.220e-5
-1.141, -1.251e-5
-1.140, -1.116e-5
-1.139, -1.025e-5
-1.138, -1.067e-5
-1.137, -1.224e-5
-1.136, -1.252e-5
-1.135, -1.117e-5
-1.134, -1.024e-5
-1.133, -1.069e-5
-1.132, -1.221e-5
-1.131, -1.267e-5
-1.130, -1.129e-5
-1.129, -1.023e-5
-1.128, -1.077e-5
-1.127, -1.223e-5
-1.126, -1.271e-5
-1.125, -1.131e-5
-1.124, -1.015e-5
-1.123, -1.091e-5
-1.122, -1.230e-5
-1.121, -1.273e-5
-1.120, -1.133e-5
-1.119, -1.028e-5
-1.118, -1.089e-5
-1.117, -1.226e-5
-1.116, -1.267e-5
-1.115, -1.153e-5
-1.114, -1.033e-5
-1.113, -1.094e-5
-1.112, -1.234e-5
-1.111, -1.281e-5
-1.110, -1.150e-5
-1.109, -1.035e-5
-1.108, -1.093e-5
-1.107, -1.255e-5
-1.106, -1.281e-5
-1.105, -1.157e-5
-1.104, -1.054e-5
-1.103, -1.096e-5
-1.102, -1.267e-5
-1.101, -1.300e-5
-1.100, -1.152e-5
-1.099, -1.061e-5
-1.098, -1.114e-5
-1.097, -1.270e-5
-1.096, -1.310e-5
-1.095, -1.170e-5
-1.094, -1.085e-5
-1.093, -1.115e-5
-1.092, -1.276e-5
-1.091, -1.328e-5
-1.090, -1.187e-5
-1.089, -1.086e-5
-1.088, -1.130e-5
-1.087, -1.293e-5
-1.086, -1.344e-5
-1.085, -1.201e-5
-1.084, -1.098e-5
-1.083, -1.154e-5
-1.082, -1.306e-5
-1.081, -1.359e-5
-1.080, -1.224e-5
-1.079, -1.111e-5
-1.078, -1.177e-5
-1.077, -1.321e-5
-1.076, -1.382e-5
-1.075, -1.250e-5
-1.074, -1.129e-5
-1.073, -1.199e-5
-1.072, -1.347e-5
-1.071, -1.399e-5
-1.070, -1.273e-5
-1.069, -1.152e-5
-1.068, -1.203e-5
-1.067, -1.371e-5
-1.066, -1.427e-5
-1.065, -1.294e-5
-1.064, -1.180e-5
-1.063, -1.233e-5
-1.062, -1.397e-5
-1.061, -1.453e-5
-1.060, -1.321e-5
-1.059, -1.229e-5
-1.058, -1.258e-5
-1.057, -1.421e-5
-1.056, -1.496e-5
-1.055, -1.354e-5
-1.054, -1.250e-5
-1.053, -1.290e-5
-1.052, -1.465e-5
-1.051, -1.531e-5
-1.050, -1.400e-5
-1.049, -1.296e-5
-1.048, -1.344e-5
-1.047, -1.496e-5
-1.046, -1.573e-5
-1.045, -1.441e-5
-1.044, -1.326e-5
-1.043, -1.392e-5
-1.042, -1.549e-5
-1.041, -1.624e-5
-1.040, -1.486e-5
-1.039, -1.389e-5
-1.038, -1.439e-5
-1.037, -1.593e-5
-1.036, -1.679e-5
-1.035, -1.562e-5
-1.034, -1.441e-5
-1.033, -1.492e-5
-1.032, -1.658e-5
-1.031, -1.739e-5
-1.030, -1.614e-5
-1.029, -1.507e-5
-1.028, -1.557e-5
-1.027, -1.730e-5
-1.026, -1.805e-5
-1.025, -1.689e-5
-1.024, -1.588e-5
-1.023, -1.624e-5
-1.022, -1.804e-5
-1.021, -1.889e-5
-1.020, -1.764e-5
-1.019, -1.666e-5
-1.018, -1.706e-5
-1.017, -1.891e-5
-1.016, -1.971e-5
-1.015, -1.846e-5
-1.014, -1.754e-5
-1.013, -1.799e-5
-1.012, -1.962e-5
-1.011, -2.078e-5
-1.010, -1.948e-5
-1.009, -1.857e-5
-1.008, -1.886e-5
-1.007, -2.077e-5
-1.006, -2.181e-5
-1.005, -2.060e-5
-1.004, -1.957e-5
-1.003, -2.005e-5
-1.002, -2.185e-5
-1.001, -2.293e-5
-1.000, -6.899e-6
-1.001, -1.025e-6
-1.002, 4.073e-7
-1.003, -1.993e-8
-1.004, 1.596e-7
-1.005, 2.354e-6
-1.006, 4.419e-6
-1.007, 4.785e-6
-1.008, 3.647e-6
-1.009, 3.428e-6
-1.010, 5.303e-6
-1.011, 6.845e-6
-1.012, 7.104e-6
-1.013, 5.677e-6
-1.014, 5.353e-6
-1.015, 6.936e-6
-1.016, 8.426e-6
-1.017, 8.386e-6
-1.018, 7.132e-6
-1.019, 6.487e-6
-1.020, 8.026e-6
-1.021, 9.453e-6
-1.022, 9.423e-6
-1.023, 7.989e-6
-1.024, 7.400e-6
-1.025, 8.780e-6
-1.026, 1.024e-5
-1.027, 9.921e-6
-1.028, 8.532e-6
-1.029, 7.957e-6
-1.030, 9.246e-6
-1.031, 1.065e-5
-1.032, 1.047e-5
-1.033, 8.907e-6
-1.034, 8.348e-6
-1.035, 9.611e-6
-1.036, 1.098e-5
-1.037, 1.075e-5
-1.038, 9.223e-6
-1.039, 8.597e-6
-1.040, 9.823e-6
-1.041, 1.115e-5
-1.042, 1.096e-5
-1.043, 9.308e-6
-1.044, 8.733e-6
-1.045, 1.001e-5
-1.046, 1.135e-5
-1.047, 1.109e-5
-1.048, 9.508e-6
-1.049, 8.808e-6
-1.050, 1.018e-5
-1.051, 1.139e-5
-1.052, 1.114e-5
-1.053, 9.629e-6
-1.054, 8.919e-6
-1.055, 1.025e-5
-1.056, 1.142e-5
-1.057, 1.122e-5
-1.058, 9.674e-6
-1.059, 8.964e-6
-1.060, 1.019e-5
-1.061, 1.151e-5
-1.062, 1.120e-5
-1.063, 9.747e-6
-1.064, 8.988e-6
-1.065, 1.017e-5
-1.066, 1.152e-5
-1.067, 1.121e-5
-1.068, 9.699e-6
-1.069, 9.028e-6
-1.070, 1.022e-5
-1.071, 1.158e-5
-1.072, 1.121e-5
-1.073, 9.689e-6
-1.074, 9.063e-6
-1.075, 1.027e-5
-1.076, 1.156e-5
-1.077, 1.126e-5
-1.078, 9.735e-6
-1.079, 9.084e-6
-1.080, 1.022e-5
-1.081, 1.146e-5
-1.082, 1.134e-5
-1.083, 9.625e-6
-1.084, 9.070e-6
-1.085, 1.026e-5
-1.086, 1.150e-5
-1.087, 1.130e-5
-1.088, 9.747e-6
-1.089, 8.964e-6
-1.090, 1.029e-5
-1.091, 1.148e-5
-1.092, 1.124e-5
-1.093, 9.724e-6
-1.094, 9.022e-6
-1.095, 1.032e-5
-1.096, 1.147e-5
-1.097, 1.125e-5
-1.098, 9.875e-6
-1.099, 9.047e-6
-1.100, 1.017e-5
-1.101, 1.155e-5
-1.102, 1.126e-5
-1.103, 9.835e-6
-1.104, 9.083e-6
-1.105, 1.025e-5
-1.106, 1.170e-5
-1.107, 1.124e-5
-1.108, 9.818e-6
-1.109, 9.112e-6
-1.110, 1.017e-5
-1.111, 1.164e-5
-1.112, 1.128e-5
-1.113, 9.821e-6
-1.114, 9.137e-6
-1.115, 1.030e-5
-1.116, 1.160e-5
-1.117, 1.145e-5
-1.118, 9.848e-6
-1.119, 9.206e-6
-1.120, 1.024e-5
-1.121, 1.163e-5
-1.122, 1.146e-5
-1.123, 9.906e-6
-1.124, 9.224e-6
-1.125, 1.043e-5
-1.126, 1.161e-5
-1.127, 1.155e-5
-1.128, 9.969e-6
-1.129, 9.247e-6
-1.130, 1.037e-5
-1.131, 1.171e-5
-1.132, 1.149e-5
-1.133, 1.007e-5
-1.134, 9.308e-6
-1.135, 1.050e-5
-1.136, 1.170e-5
-1.137, 1.148e-5
-1.138, 1.019e-5
-1.139, 9.353e-6
-1.140, 1.043e-5
-1.141, 1.191e-5
-1.142, 1.162e-5
-1.143, 1.031e-5
-1.144, 9.441e-6
-1.145, 1.049e-5
-1.146, 1.190e-5
-1.147, 1.167e-5
-1.148, 1.028e-5
-1.149, 9.519e-6
-1.150, 1.060e-5
-1.151, 1.201e-5
-1.152, 1.181e-5
-1.153, 1.023e-5
-1.154, 9.688e-6
-1.155, 1.062e-5
-1.156, 1.204e-5
-1.157, 1.187e-5
-1.158, 1.045e-5
-1.159, 9.773e-6
-1.160, 1.070e-5
-1.161, 1.210e-5
-1.162, 1.198e-5
-1.163, 1.046e-5
-1.164, 9.843e-6
-1.165, 1.084e-5
-1.166, 1.210e-5
-1.167, 1.213e-5
-1.168, 1.058e-5
-1.169, 9.843e-6
-1.170, 1.098e-5
-1.171, 1.223e-5
-1.172, 1.214e-5
-1.173, 1.070e-5
-1.174, 9.993e-6
-1.175, 1.110e-5
-1.176, 1.227e-5
-1.177, 1.230e-5
-1.178, 1.091e-5
-1.179, 1.005e-5
-1.180, 1.104e-5
-1.181, 1.247e-5
-1.182, 1.233e-5
-1.183, 1.095e-5
-1.184, 1.018e-5
-1.185, 1.121e-5
-1.186, 1.261e-5
-1.187, 1.244e-5
-1.188, 1.113e-5
-1.189, 1.037e-5
-1.190, 1.132e-5
-1.191, 1.272e-5
-1.192, 1.261e-5
-1.193, 1.118e-5
-1.194, 1.048e-5
-1.195, 1.142e-5
-1.196, 1.278e-5
-1.197, 1.272e-5
-1.198, 1.144e-5
-1.199, 1.067e-5
-1.200, 1.149e-5
-1.201, 1.289e-5
-1.202, 1.307e-5
-1.203, 1.147e-5
-1.204, 1.069e-5
-1.205, 1.176e-5
-1.206, 1.315e-5
-1.207, 1.315e-5
-1.208, 1.169e-5
-1.209, 1.091e-5
-1.210, 1.191e-5
-1.211, 1.333e-5
-1.212, 1.330e-5
-1.213, 1.195e-5
-1.214, 1.113e-5
-1.215, 1.216e-5
-1.216, 1.354e-5
-1.217, 1.342e-5
-1.218, 1.224e-5
-1.219, 1.137e-5
-1.220, 1.230e-5
-1.221, 1.384e-5
-1.222, 1.374e-5
-1.223, 1.248e-5
-1.224, 1.164e-5
-1.225, 1.252e-5
-1.226, 1.414e-5
-1.227, 1.404e-5
-1.228, 1.289e-5
-1.229, 1.208e-5
-1.230, 1.294e-5
-1.231, 1.447e-5
-1.232, 1.441e-5
-1.233, 1.312e-5
-1.234, 1.236e-5
-1.235, 1.331e-5
-1.236, 1.485e-5
-1.237, 1.471e-5
-1.238, 1.363e-5
-1.239, 1.278e-5
-1.240, 1.361e-5
-1.241, 1.520e-5
-1.242, 1.523e-5
-1.243, 1.402e-5
-1.244, 1.316e-5
-1.245, 1.420e-5
-1.246, 1.562e-5
-1.247, 1.582e-5
-1.248, 1.461e-5
-1.249, 1.367e-5
-1.250, 1.475e-5
-1.251, 1.619e-5
-1.252, 1.638e-5
-1.253, 1.513e-5
-1.254, 1.434e-5
-1.255, 1.538e-5
-1.256, 1.690e-5
-1.257, 1.691e-5
-1.258, 1.598e-5
-1.259, 1.509e-5
-1.260, 1.600e-5
-1.261, 1.772e-5
-1.262, 1.774e-5
-1.263, 1.671e-5
-1.264, 1.584e-5
-1.265, 1.686e-5
-1.266, 1.864e-5
-1.267, 1.858e-5
-1.268, 1.767e-5
-1.269, 1.677e-5
-1.270, 1.778e-5
-1.271, 1.952e-5
-1.272, 1.966e-5
-1.273, 1.863e-5
-1.274, 1.794e-5
-1.275, 1.885e-5
-1.276, 2.069e-5
-1.277, 2.083e-5
-1.278, 1.982e-5
-1.279, 1.921e-5
-1.280, 2.018e-5
-1.281, 2.191e-5
-1.282, 2.223e-5
-1.283, 2.122e-5
-1.284, 2.050e-5
-1.285, 2.165e-5
-1.286, 2.326e-5
-1.287, 2.381e-5
-1.288, 2.279e-5
-1.289, 2.207e-5
-1.290, 2.336e-5
-1.291, 2.505e-5
-1.292, 2.543e-5
-1.293, 2.466e-5
-1.294, 2.399e-5
-1.295, 2.519e-5
-1.296, 2.700e-5
-1.297, 2.740e-5
-1.298, 2.670e-5
-1.299, 2.595e-5
-1.300, 2.726e-5
-1.301, 2.923e-5
-1.302, 2.955e-5
-1.303, 2.905e-5
-1.304, 2.840e-5
-1.305, 2.963e-5
-1.306, 3.168e-5
-1.307, 3.217e-5
-1.308, 3.153e-5
-1.309, 3.109e-5
-1.310, 3.233e-5
-1.311, 3.452e-5
-1.312, 3.499e-5
-1.313, 3.440e-5
-1.314, 3.409e-5
-1.315, 3.545e-5
-1.316, 3.752e-5
-1.317, 3.825e-5
-1.318, 3.783e-5
-1.319, 3.746e-5
-1.320, 3.889e-5
-1.321, 4.103e-5
-1.322, 4.203e-5
-1.323, 4.142e-5
-1.324, 4.113e-5
-1.325, 4.269e-5
-1.326, 4.498e-5
-1.327, 4.600e-5
-1.328, 4.557e-5
-1.329, 4.531e-5
-1.330, 4.712e-5
-1.331, 4.928e-5
-1.332, 5.048e-5
-1.333, 5.015e-5
-1.334, 5.014e-5
-1.335, 5.181e-5
-1.336, 5.429e-5
-1.337, 5.538e-5
-1.338, 5.536e-5
-1.339, 5.539e-5
-1.340, 5.708e-5
-1.341, 5.979e-5
-1.342, 6.109e-5
-1.343, 6.110e-5
-1.344, 6.121e-5
-1.345, 6.326e-5
-1.346, 6.591e-5
-1.347, 6.741e-5
-1.348, 6.758e-5
-1.349, 6.777e-5
-1.350, 6.988e-5
-1.351, 7.281e-5
-1.352, 7.445e-5
-1.353, 7.463e-5
-1.354, 7.515e-5
-1.355, 7.730e-5
-1.356, 8.039e-5
-1.357, 8.213e-5
-1.358, 8.267e-5
-1.359, 8.328e-5
-1.360, 8.552e-5
-1.361, 8.884e-5
-1.362, 9.085e-5
-1.363, 9.146e-5
-1.364, 9.240e-5
-1.365, 9.478e-5
-1.366, 9.823e-5
-1.367, 1.006e-4
-1.368, 1.014e-4
-1.369, 1.024e-4
-1.370, 1.051e-4
-1.371, 1.087e-4
-1.372, 1.112e-4
-1.373, 1.123e-4
-1.374, 1.135e-4
-1.375, 1.166e-4
-1.376, 1.203e-4
-1.377, 1.232e-4
-1.378, 1.244e-4
-1.379, 1.261e-4
-1.380, 1.291e-4
-1.381, 1.332e-4
-1.382, 1.363e-4
-1.383, 1.380e-4
-1.384, 1.397e-4
-1.385, 1.431e-4
-1.386, 1.477e-4
-1.387, 1.509e-4
-1.388, 1.527e-4
-1.389, 1.549e-4
-1.390, 1.586e-4
-1.391, 1.633e-4
-1.392, 1.669e-4
-1.393, 1.692e-4
-1.394, 1.717e-4
-1.395, 1.756e-4
-1.396, 1.806e-4
-1.397, 1.846e-4
-1.398, 1.871e-4
-1.399, 1.900e-4
-1.400, 1.942e-4
-1.401, 1.996e-4
-1.402, 2.041e-4
-1.403, 2.070e-4
-1.404, 2.102e-4
-1.405, 2.147e-4
-1.406, 2.205e-4
-1.407, 2.255e-4
-1.408, 2.287e-4
-1.409, 2.322e-4
-1.410, 2.375e-4
-1.411, 2.434e-4
-1.412, 2.487e-4
-1.413, 2.524e-4
-1.414, 2.564e-4
-1.415, 2.620e-4
-1.416, 2.681e-4
-1.417, 2.743e-4
-1.418, 2.784e-4
-1.419, 2.825e-4
-1.420, 2.888e-4
-1.421, 2.958e-4
-1.422, 3.019e-4
-1.423, 3.067e-4
-1.424, 3.115e-4
-1.425, 3.179e-4
-1.426, 3.254e-4
-1.427, 3.321e-4
-1.428, 3.375e-4
-1.429, 3.427e-4
-1.430, 3.497e-4
-1.431, 3.579e-4
-1.432, 3.652e-4
-1.433, 3.711e-4
-1.434, 3.770e-4
-1.435, 3.847e-4
-1.436, 3.929e-4
-1.437, 4.011e-4
-1.438, 4.075e-4
-1.439, 4.137e-4
-1.440, 4.216e-4
-1.441, 4.308e-4
-1.442, 4.397e-4
-1.443, 4.462e-4
-1.444, 4.539e-4
-1.445, 4.622e-4
-1.446, 4.721e-4
-1.447, 4.813e-4
-1.448, 4.889e-4
-1.449, 4.967e-4
-1.450, 5.061e-4
-1.451, 5.161e-4
-1.452, 5.264e-4
-1.453, 5.347e-4
-1.454, 5.430e-4
-1.455, 5.532e-4
-1.456, 5.642e-4
-1.457, 5.747e-4
-1.458, 5.841e-4
-1.459, 5.932e-4
-1.460, 6.032e-4
-1.461, 6.156e-4
-1.462, 6.271e-4
-1.463, 6.367e-4
-1.464, 6.473e-4
-1.465, 6.579e-4
-1.466, 6.709e-4
-1.467, 6.829e-4
-1.468, 6.934e-4
-1.469, 7.043e-4
-1.470, 7.162e-4
-1.471, 7.296e-4
-1.472, 7.430e-4
-1.473, 7.539e-4
-1.474, 7.656e-4
-1.475, 7.781e-4
-1.476, 7.925e-4
-1.477, 8.064e-4
-1.478, 8.186e-4
-1.479, 8.311e-4
-1.480, 8.446e-4
-1.481, 8.596e-4
-1.482, 8.739e-4
-1.483, 8.870e-4
-1.484, 9.009e-4
-1.485, 9.150e-4
-1.486, 9.309e-4
-1.487, 9.466e-4
-1.488, 9.603e-4
-1.489, 9.762e-4
-1.490, 9.899e-4
-1.491, 1.007e-3
-1.492, 1.023e-3
-1.493, 1.038e-3
-1.494, 1.053e-3
-1.495, 1.070e-3
-1.496, 1.088e-3
-1.497, 1.106e-3
-1.498, 1.121e-3
-1.499, 1.139e-3
-1.500, 1.128e-3
-1.499, 1.107e-3
-1.498, 1.086e-3
-1.497, 1.062e-3
-1.496, 1.039e-3
-1.495, 1.017e-3
-1.494, 9.983e-4
-1.493, 9.797e-4
-1.492, 9.592e-4
-1.491, 9.390e-4
-1.490, 9.201e-4
-1.489, 9.030e-4
-1.488, 8.863e-4
-1.487, 8.676e-4
-1.486, 8.490e-4
-1.485, 8.331e-4
-1.484, 8.160e-4
-1.483, 8.021e-4
-1.482, 7.848e-4
-1.481, 7.686e-4
-1.480, 7.535e-4
-1.479, 7.395e-4
-1.478, 7.262e-4
-1.477, 7.108e-4
-1.476, 6.958e-4
-1.475, 6.820e-4
-1.474, 6.699e-4
-1.473, 6.576e-4
-1.472, 6.441e-4
-1.471, 6.300e-4
-1.470, 6.175e-4
-1.469, 6.067e-4
-1.468, 5.954e-4
-1.467, 5.830e-4
-1.466, 5.704e-4
-1.465, 5.585e-4
-1.464, 5.491e-4
-1.463, 5.392e-4
-1.462, 5.275e-4
-1.461, 5.161e-4
-1.460, 5.056e-4
-1.459, 4.968e-4
-1.458, 4.880e-4
-1.457, 4.769e-4
-1.456, 4.664e-4
-1.455, 4.573e-4
-1.454, 4.492e-4
-1.453, 4.412e-4
-1.452, 4.315e-4
-1.451, 4.215e-4
-1.450, 4.133e-4
-1.449, 4.060e-4
-1.448, 3.989e-4
-1.447, 3.900e-4
-1.446, 3.807e-4
-1.445, 3.733e-4
-1.444, 3.669e-4
-1.443, 3.604e-4
-1.442, 3.521e-4
-1.441, 3.436e-4
-1.440, 3.368e-4
-1.439, 3.312e-4
-1.438, 3.252e-4
-1.437, 3.176e-4
-1.436, 3.099e-4
-1.435, 3.036e-4
-1.434, 2.985e-4
-1.433, 2.934e-4
-1.432, 2.861e-4
-1.431, 2.792e-4
-1.430, 2.731e-4
-1.429, 2.694e-4
-1.428, 2.642e-4
-1.427, 2.577e-4
-1.426, 2.513e-4
-1.425, 2.459e-4
-1.424, 2.423e-4
-1.423, 2.379e-4
-1.422, 2.318e-4
-1.421, 2.259e-4
-1.420, 2.211e-4
-1.419, 2.176e-4
-1.418, 2.139e-4
-1.417, 2.084e-4
-1.416, 2.027e-4
-1.415, 1.985e-4
-1.414, 1.955e-4
-1.413, 1.921e-4
-1.412, 1.871e-4
-1.411, 1.818e-4
-1.410, 1.779e-4
-1.409, 1.754e-4
-1.408, 1.723e-4
-1.407, 1.675e-4
-1.406, 1.626e-4
-1.405, 1.592e-4
-1.404, 1.570e-4
-1.403, 1.543e-4
-1.402, 1.500e-4
-1.401, 1.453e-4
-1.400, 1.422e-4
-1.399, 1.404e-4
-1.398, 1.379e-4
-1.397, 1.341e-4
-1.396, 1.297e-4
-1.395, 1.268e-4
-1.394, 1.252e-4
-1.393, 1.233e-4
-1.392, 1.194e-4
-1.391, 1.155e-4
-1.390, 1.129e-4
-1.389, 1.116e-4
-1.388, 1.098e-4
-1.387, 1.063e-4
-1.386, 1.027e-4
-1.385, 1.002e-4
-1.384, 9.917e-5
-1.383, 9.754e-5
-1.382, 9.424e-5
-1.381, 9.088e-5
-1.380, 8.875e-5
-1.379, 8.788e-5
-1.378, 8.664e-5
-1.377, 8.346e-5
-1.376, 8.026e-5
-1.375, 7.830e-5
-1.374, 7.763e-5
-1.373, 7.664e-5
-1.372, 7.376e-5
-1.371, 7.057e-5
-1.370, 6.890e-5
-1.369, 6.840e-5
-1.368, 6.756e-5
-1.367, 6.491e-5
-1.366, 6.184e-5
-1.365, 6.049e-5
-1.364, 6.014e-5
-1.363, 5.931e-5
-1.362, 5.689e-5
-1.361, 5.402e-5
-1.360, 5.275e-5
-1.359, 5.257e-5
-1.358, 5.192e-5
-1.357, 4.963e-5
-1.356, 4.703e-5
-1.355, 4.564e-5
-1.354, 4.569e-5
-1.353, 4.533e-5
-1.352, 4.310e-5
-1.351, 4.059e-5
-1.350, 3.935e-5
-1.349, 3.957e-5
-1.348, 3.927e-5
-1.347, 3.716e-5
-1.346, 3.483e-5
-1.345, 3.372e-5
-1.344, 3.410e-5
-1.343, 3.378e-5
-1.342, 3.187e-5
-1.341, 2.967e-5
-1.340, 2.870e-5
-1.339, 2.902e-5
-1.338, 2.902e-5
-1.337, 2.700e-5
-1.336, 2.493e-5
-1.335, 2.416e-5
-1.334, 2.448e-5
-1.333, 2.463e-5
-1.332, 2.285e-5
-1.331, 2.069e-5
-1.330, 2.000e-5
-1.329, 2.055e-5
-1.328, 2.062e-5
-1.327, 1.898e-5
-1.326, 1.695e-5
-1.325, 1.631e-5
-1.324, 1.694e-5
-1.323, 1.704e-5
-1.322, 1.552e-5
-1.321, 1.355e-5
-1.320, 1.307e-5
-1.319, 1.371e-5
-1.318, 1.386e-5
-1.317, 1.248e-5
-1.316, 1.056e-5
-1.315, 9.970e-6
-1.314, 1.083e-5
-1.313, 1.106e-5
-1.312, 9.698e-6
-1.311, 7.782e-6
-1.310, 7.370e-6
-1.309, 8.159e-6
-1.308, 8.563e-6
-1.307, 7.224e-6
-1.306, 5.421e-6
-1.305, 4.932e-6
-1.304, 5.865e-6
-1.303, 6.477e-6
-1.302, 4.918e-6
-1.301, 3.290e-6
-1.300, 2.926e-6
-1.299, 3.752e-6
-1.298, 4.307e-6
-1.297, 3.076e-6
-1.296, 1.320e-6
-1.295, 1.059e-6
-1.294, 1.936e-6
-1.293, 2.527e-6
-1.292, 1.419e-6
-1.291, -4.481e-7
-1.290, -6.109e-7
-1.289, 3.274e-7
-1.288, 1.027e-6
-1.287, -1.186e-7
-1.286, -1.919e-6
-1.285, -2.041e-6
-1.284, -1.029e-6
-1.283, -4.678e-7
-1.282, -1.538e-6
-1.281, -3.202e-6
-1.280, -3.403e-6
-1.279, -2.346e-6
-1.278, -1.767e-6
-1.277, -2.644e-6
-1.276, -4.409e-6
-1.275, -4.529e-6
-1.274, -3.511e-6
-1.273, -2.745e-6
-1.272, -3.645e-6
-1.271, -5.443e-6
-1.270, -5.529e-6
-1.269, -4.487e-6
-1.268, -3.654e-6
-1.267, -4.686e-6
-1.266, -6.275e-6
-1.265, -6.405e-6
-1.264, -5.357e-6
-1.263, -4.463e-6
-1.262, -5.531e-6
-1.261, -7.039e-6
-1.260, -7.109e-6
-1.259, -6.163e-6
-1.258, -5.214e-6
-1.257, -6.208e-6
-1.256, -7.686e-6
-1.255, -7.889e-6
-1.254, -6.872e-6
-1.253, -5.869e-6
-1.252, -6.706e-6
-1.251, -8.403e-6
-1.250, -8.451e-6
-1.249, -7.400e-6
-1.248, -6.419e-6
-1.247, -7.300e-6
-1.246, -9.002e-6
-1.245, -8.885e-6
-1.244, -7.861e-6
-1.243, -6.966e-6
-1.242, -7.785e-6
-1.241, -9.429e-6
-1.240, -9.429e-6
-1.239, -8.356e-6
-1.238, -7.356e-6
-1.237, -8.157e-6
-1.236, -9.763e-6
-1.235, -9.865e-6
-1.234, -8.683e-6
-1.233, -7.726e-6
-1.232, -8.541e-6
-1.231, -1.015e-5
-1.230, -1.023e-5
-1.229, -9.231e-6
-1.228, -8.095e-6
-1.227, -8.990e-6
-1.226, -1.041e-5
-1.225, -1.042e-5
-1.224, -9.324e-6
-1.223, -8.312e-6
-1.222, -9.178e-6
-1.221, -1.079e-5
-1.220, -1.066e-5
-1.219, -9.617e-6
-1.218, -8.564e-6
-1.217, -9.505e-6
-1.216, -1.084e-5
-1.215, -1.091e-5
-1.214, -9.857e-6
-1.213, -8.737e-6
-1.212, -9.522e-6
-1.211, -1.116e-5
-1.210, -1.113e-5
-1.209, -9.989e-6
-1.208, -8.927e-6
-1.207, -9.627e-6
-1.206, -1.130e-5
-1.205, -1.123e-5
-1.204, -1.015e-5
-1.203, -9.115e-6
-1.202, -9.867e-6
-1.201, -1.138e-5
-1.200, -1.143e-5
-1.199, -1.026e-5
-1.198, -9.243e-6
-1.197, -1.000e-5
-1.196, -1.152e-5
-1.195, -1.164e-5
-1.194, -1.038e-5
-1.193, -9.377e-6
-1.192, -1.011e-5
-1.191, -1.163e-5
-1.190, -1.179e-5
-1.189, -1.048e-5
-1.188, -9.418e-6
-1.187, -1.025e-5
-1.186, -1.174e-5
-1.185, -1.191e-5
-1.184, -1.057e-5
-1.183, -9.530e-6
-1.182, -1.034e-5
-1.181, -1.174e-5
-1.180, -1.184e-5
-1.179, -1.077e-5
-1.178, -9.668e-6
-1.177, -1.044e-5
-1.176, -1.179e-5
-1.175, -1.189e-5
-1.174, -1.085e-5
-1.173, -9.654e-6
-1.172, -1.040e-5
-1.171, -1.198e-5
-1.170, -1.207e-5
-1.169, -1.078e-5
-1.168, -9.715e-6
-1.167, -1.037e-5
-1.166, -1.203e-5
-1.165, -1.203e-5
-1.164, -1.089e-5
-1.163, -9.844e-6
-1.162, -1.040e-5
-1.161, -1.212e-5
-1.160, -1.209e-5
-1.159, -1.082e-5
-1.158, -9.899e-6
-1.157, -1.045e-5
-1.156, -1.201e-5
-1.155, -1.223e-5
-1.154, -1.099e-5
-1.153, -9.921e-6
-1.152, -1.051e-5
-1.151, -1.206e-5
-1.150, -1.226e-5
-1.149, -1.091e-5
-1.148, -9.826e-6
-1.147, -1.063e-5
-1.146, -1.206e-5
-1.145, -1.234e-5
-1.144, -1.101e-5
-1.143, -9.947e-6
-1.142, -1.063e-5
-1.141, -1.209e-5
-1.140, -1.222e-5
-1.139, -1.107e-5
-1.138, -1.006e-5
-1.137, -1.063e-5
-1.136, -1.208e-5
-1.135, -1.237e-5
-1.134, -1.110e-5
-1.133, -1.002e-5
-1.132, -1.063e-5
-1.131, -1.229e-5
-1.130, -1.238e-5
-1.129, -1.110e-5
-1.128, -1.006e-5
-1.127, -1.067e-5
-1.126, -1.220e-5
-1.125, -1.245e-5
-1.124, -1.110e-5
-1.123, -1.012e-5
-1.122, -1.065e-5
-1.121, -1.228e-5
-1.120, -1.249e-5
-1.119, -1.113e-5
-1.118, -1.026e-5
-1.117, -1.069e-5
-1.116, -1.218e-5
-1.115, -1.264e-5
-1.114, -1.114e-5
-1.113, -1.026e-5
-1.112, -1.075e-5
-1.111, -1.232e-5
-1.110, -1.269e-5
-1.109, -1.129e-5
-1.108, -1.022e-5
-1.107, -1.089e-5
-1.106, -1.248e-5
-1.105, -1.267e-5
-1.104, -1.135e-5
-1.103, -1.036e-5
-1.102, -1.097e-5
-1.101, -1.238e-5
-1.100, -1.284e-5
-1.099, -1.150e-5
-1.098, -1.043e-5
-1.097, -1.112e-5
-1.096, -1.248e-5
-1.095, -1.289e-5
-1.094, -1.164e-5
-1.093, -1.062e-5
-1.092, -1.111e-5
-1.091, -1.270e-5
-1.090, -1.304e-5
-1.089, -1.184e-5
-1.088, -1.061e-5
-1.087, -1.120e-5
-1.086, -1.282e-5
-1.085, -1.324e-5
-1.084, -1.187e-5
-1.083, -1.090e-5
-1.082, -1.137e-5
-1.081, -1.288e-5
-1.080, -1.338e-5
-1.079, -1.210e-5
-1.078, -1.102e-5
-1.077, -1.154e-5
-1.076, -1.313e-5
-1.075, -1.373e-5
-1.074, -1.228e-5
-1.073, -1.129e-5
-1.072, -1.172e-5
-1.071, -1.332e-5
-1.070, -1.391e-5
-1.069, -1.251e-5
-1.068, -1.145e-5
-1.067, -1.213e-5
-1.066, -1.356e-5
-1.065, -1.418e-5
-1.064, -1.279e-5
-1.063, -1.170e-5
-1.062, -1.236e-5
-1.061, -1.393e-5
-1.060, -1.446e-5
-1.059, -1.318e-5
-1.058, -1.209e-5
-1.057, -1.269e-5
-1.056, -1.421e-5
-1.055, -1.486e-5
-1.054, -1.358e-5
-1.053, -1.245e-5
-1.052, -1.296e-5
-1.051, -1.468e-5
-1.050, -1.528e-5
-1.049, -1.397e-5
-1.048, -1.286e-5
-1.047, -1.340e-5
-1.046, -1.519e-5
-1.045, -1.569e-5
-1.044, -1.442e-5
-1.043, -1.348e-5
-1.042, -1.382e-5
-1.041, -1.569e-5
-1.040, -1.628e-5
-1.039, -1.502e-5
-1.038, -1.402e-5
-1.037, -1.441e-5
-1.036, -1.611e-5
-1.035, -1.703e-5
-1.034, -1.558e-5
-1.033, -1.470e-5
-1.032, -1.503e-5
-1.031, -1.673e-5
-1.030, -1.767e-5
-1.029, -1.634e-5
-1.028, -1.529e-5
-1.027, -1.583e-5
-1.026, -1.756e-5
-1.025, -1.843e-5
-1.024, -1.723e-5
-1.023, -1.606e-5
-1.022, -1.667e-5
-1.021, -1.831e-5
-1.020, -1.922e-5
-1.019, -1.814e-5
-1.018, -1.703e-5
-1.017, -1.748e-5
-1.016, -1.922e-5
-1.015, -2.011e-5
-1.014, -1.906e-5
-1.013, -1.796e-5
-1.012, -1.841e-5
-1.011, -2.035e-5
-1.010, -2.126e-5
-1.009, -2.017e-5
-1.008, -1.901e-5
-1.007, -1.954e-5
-1.006, -2.144e-5
-1.005, -2.240e-5
-1.004, -2.129e-5
-1.003, -2.032e-5
-1.002, -2.072e-5
-1.001, -2.271e-5
-1.000, -8.507e-6
-1.001, -2.402e-6
-1.002, 6.066e-7
-1.003, 1.604e-6
-1.004, 1.021e-6
-1.005, 1.007e-6
-1.006, 3.062e-6
-1.007, 5.179e-6
-1.008, 5.364e-6
-1.009, 4.354e-6
-1.010, 3.974e-6
-1.011, 5.669e-6
-1.012, 7.454e-6
-1.013, 7.572e-6
-1.014, 6.154e-6
-1.015, 5.825e-6
-1.016, 7.321e-6
-1.017, 8.861e-6
-1.018, 8.920e-6
-1.019, 7.437e-6
-1.020, 6.877e-6
-1.021, 8.416e-6
-1.022, 9.827e-6
-1.023, 9.839e-6
-1.024, 8.350e-6
-1.025, 7.620e-6
-1.026, 9.161e-6
-1.027, 1.046e-5
-1.028, 1.037e-5
-1.029, 8.872e-6
-1.030, 8.122e-6
-1.031, 9.586e-6
-1.032, 1.088e-5
-1.033, 1.072e-5
-1.034, 9.354e-6
-1.035, 8.589e-6
-1.036, 9.832e-6
-1.037, 1.125e-5
-1.038, 1.109e-5
-1.039, 9.606e-6
-1.040, 8.800e-6
-1.041, 9.999e-6
-1.042, 1.157e-5
-1.043, 1.113e-5
-1.044, 9.700e-6
-1.045, 9.008e-6
-1.046, 1.010e-5
-1.047, 1.162e-5
-1.048, 1.131e-5
-1.049, 9.758e-6
-1.050, 9.178e-6
-1.051, 1.019e-5
-1.052, 1.171e-5
-1.053, 1.138e-5
-1.054, 9.823e-6
-1.055, 9.192e-6
-1.056, 1.024e-5
-1.057, 1.172e-5
-1.058, 1.147e-5
-1.059, 9.918e-6
-1.060, 9.206e-6
-1.061, 1.038e-5
-1.062, 1.171e-5
-1.063, 1.145e-5
-1.064, 9.914e-6
-1.065, 9.140e-6
-1.066, 1.039e-5
-1.067, 1.167e-5
-1.068, 1.139e-5
-1.069, 9.922e-6
-1.070, 9.178e-6
-1.071, 1.042e-5
-1.072, 1.162e-5
-1.073, 1.138e-5
-1.074, 9.996e-6
-1.075, 9.234e-6
-1.076, 1.034e-5
-1.077, 1.166e-5
-1.078, 1.142e-5
-1.079, 9.960e-6
-1.080, 9.219e-6
-1.081, 1.022e-5
-1.082, 1.164e-5
-1.083, 1.138e-5
-1.084, 9.938e-6
-1.085, 9.194e-6
-1.086, 1.028e-5
-1.087, 1.170e-5
-1.088, 1.136e-5
-1.089, 9.875e-6
-1.090, 9.176e-6
-1.091, 1.023e-5
-1.092, 1.164e-5
-1.093, 1.148e-5
-1.094, 9.844e-6
-1.095, 9.238e-6
-1.096, 1.019e-5
-1.097, 1.156e-5
-1.098, 1.145e-5
-1.099, 9.867e-6
-1.100, 9.167e-6
-1.101, 1.023e-5
-1.102, 1.150e-5
-1.103, 1.154e-5
-1.104, 9.890e-6
-1.105, 9.105e-6
-1.106, 1.030e-5
-1.107, 1.155e-5
-1.108, 1.142e-5
-1.109, 9.944e-6
-1.110, 9.162e-6
-1.111, 1.030e-5
-1.112, 1.148e-5
-1.113, 1.144e-5
-1.114, 1.003e-5
-1.115, 9.225e-6
-1.116, 1.017e-5
-1.117, 1.160e-5
-1.118, 1.145e-5
-1.119, 1.001e-5
-1.120, 9.122e-6
-1.121, 1.028e-5
-1.122, 1.166e-5
-1.123, 1.145e-5
-1.124, 1.001e-5
-1.125, 9.279e-6
-1.126, 1.020e-5
-1.127, 1.165e-5
-1.128, 1.141e-5
-1.129, 1.013e-5
-1.130, 9.404e-6
-1.131, 1.019e-5
-1.132, 1.169e-5
-1.133, 1.150e-5
-1.134, 1.004e-5
-1.135, 9.384e-6
-1.136, 1.027e-5
-1.137, 1.165e-5
-1.138, 1.162e-5
-1.139, 1.012e-5
-1.140, 9.385e-6
-1.141, 1.034e-5
-1.142, 1.175e-5
-1.143, 1.161e-5
-1.144, 1.022e-5
-1.145, 9.379e-6
-1.146, 1.034e-5
-1.147, 1.173e-5
-1.148, 1.172e-5
-1.149, 1.030e-5
-1.150, 9.418e-6
-1.151, 1.043e-5
-1.152, 1.181e-5
-1.153, 1.173e-5
-1.154, 1.037e-5
-1.155, 9.509e-6
-1.156, 1.045e-5
-1.157, 1.189e-5
-1.158, 1.176e-5
-1.159, 1.045e-5
-1.160, 9.562e-6
-1.161, 1.046e-5
-1.162, 1.199e-5
-1.163, 1.180e-5
-1.164, 1.052e-5
-1.165, 9.682e-6
-1.166, 1.057e-5
-1.167, 1.209e-5
-1.168, 1.188e-5
-1.169, 1.057e-5
-1.170, 9.819e-6
-1.171, 1.056e-5
-1.172, 1.214e-5
-1.173, 1.205e-5
-1.174, 1.062e-5
-1.175, 9.902e-6
-1.176, 1.062e-5
-1.177, 1.227e-5
-1.178, 1.215e-5
-1.179, 1.082e-5
-1.180, 9.952e-6
-1.181, 1.078e-5
-1.182, 1.232e-5
-1.183, 1.225e-5
-1.184, 1.091e-5
-1.185, 9.895e-6
-1.186, 1.093e-5
-1.187, 1.232e-5
-1.188, 1.234e-5
-1.189, 1.100e-5
-1.190, 1.013e-5
-1.191, 1.100e-5
-1.192, 1.247e-5
-1.193, 1.236e-5
-1.194, 1.124e-5
-1.195, 1.021e-5
-1.196, 1.117e-5
-1.197, 1.261e-5
-1.198, 1.256e-5
-1.199, 1.143e-5
-1.200, 1.032e-5
-1.201, 1.126e-5
-1.202, 1.275e-5
-1.203, 1.271e-5
-1.204, 1.149e-5
-1.205, 1.053e-5
-1.206, 1.139e-5
-1.207, 1.293e-5
-1.208, 1.279e-5
-1.209, 1.166e-5
-1.210, 1.075e-5
-1.211, 1.147e-5
-1.212, 1.301e-5
-1.213, 1.305e-5
-1.214, 1.184e-5
-1.215, 1.096e-5
-1.216, 1.167e-5
-1.217, 1.326e-5
-1.218, 1.336e-5
-1.219, 1.197e-5
-1.220, 1.115e-5
-1.221, 1.192e-5
-1.222, 1.352e-5
-1.223, 1.347e-5
-1.224, 1.226e-5
-1.225, 1.131e-5
-1.226, 1.222e-5
-1.227, 1.368e-5
-1.228, 1.385e-5
-1.229, 1.267e-5
-1.230, 1.156e-5
-1.231, 1.253e-5
-1.232, 1.400e-5
-1.233, 1.398e-5
-1.234, 1.295e-5
-1.235, 1.188e-5
-1.236, 1.281e-5
-1.237, 1.434e-5
-1.238, 1.432e-5
-1.239, 1.334e-5
-1.240, 1.220e-5
-1.241, 1.308e-5
-1.242, 1.472e-5
-1.243, 1.464e-5
-1.244, 1.366e-5
-1.245, 1.260e-5
-1.246, 1.349e-5
-1.247, 1.509e-5
-1.248, 1.513e-5
-1.249, 1.406e-5
-1.250, 1.310e-5
-1.251, 1.396e-5
-1.252, 1.560e-5
-1.253, 1.569e-5
-1.254, 1.459e-5
-1.255, 1.365e-5
-1.256, 1.450e-5
-1.257, 1.607e-5
-1.258, 1.632e-5
-1.259, 1.513e-5
-1.260, 1.430e-5
-1.261, 1.516e-5
-1.262, 1.669e-5
-1.263, 1.689e-5
-1.264, 1.588e-5
-1.265, 1.491e-5
-1.266, 1.586e-5
-1.267, 1.745e-5
-1.268, 1.763e-5
-1.269, 1.657e-5
-1.270, 1.575e-5
-1.271, 1.672e-5
-1.272, 1.826e-5
-1.273, 1.852e-5
-1.274, 1.747e-5
-1.275, 1.663e-5
-1.276, 1.756e-5
-1.277, 1.917e-5
-1.278, 1.951e-5
-1.279, 1.850e-5
-1.280, 1.772e-5
-1.281, 1.847e-5
-1.282, 2.040e-5
-1.283, 2.057e-5
-1.284, 1.952e-5
-1.285, 1.888e-5
-1.286, 1.972e-5
-1.287, 2.150e-5
-1.288, 2.182e-5
-1.289, 2.087e-5
-1.290, 2.020e-5
-1.291, 2.107e-5
-1.292, 2.291e-5
-1.293, 2.339e-5
-1.294, 2.231e-5
-1.295, 2.163e-5
-1.296, 2.263e-5
-1.297, 2.442e-5
-1.298, 2.494e-5
-1.299, 2.404e-5
-1.300, 2.330e-5
-1.301, 2.437e-5
-1.302, 2.623e-5
-1.303, 2.688e-5
-1.304, 2.593e-5
-1.305, 2.532e-5
-1.306, 2.640e-5
-1.307, 2.821e-5
-1.308, 2.888e-5
-1.309, 2.810e-5
-1.310, 2.755e-5
-1.311, 2.867e-5
-1.312, 3.050e-5
-1.313, 3.120e-5
-1.314, 3.057e-5
-1.315, 2.992e-5
-1.316, 3.110e-5
-1.317, 3.322e-5
-1.318, 3.396e-5
-1.319, 3.325e-5
-1.320, 3.285e-5
-1.321, 3.393e-5
-1.322, 3.608e-5
-1.323, 3.682e-5
-1.324, 3.632e-5
-1.325, 3.595e-5
-1.326, 3.720e-5
-1.327, 3.939e-5
-1.328, 4.023e-5
-1.329, 3.966e-5
-1.330, 3.947e-5
-1.331, 4.067e-5
-1.332, 4.293e-5
-1.333, 4.399e-5
-1.334, 4.355e-5
-1.335, 4.345e-5
-1.336, 4.467e-5
-1.337, 4.707e-5
-1.338, 4.830e-5
-1.339, 4.779e-5
-1.340, 4.779e-5
-1.341, 4.928e-5
-1.342, 5.161e-5
-1.343, 5.299e-5
-1.344, 5.267e-5
-1.345, 5.260e-5
-1.346, 5.431e-5
-1.347, 5.681e-5
-1.348, 5.823e-5
-1.349, 5.808e-5
-1.350, 5.819e-5
-1.351, 5.998e-5
-1.352, 6.252e-5
-1.353, 6.416e-5
-1.354, 6.417e-5
-1.355, 6.441e-5
-1.356, 6.628e-5
-1.357, 6.907e-5
-1.358, 7.074e-5
-1.359, 7.103e-5
-1.360, 7.133e-5
-1.361, 7.336e-5
-1.362, 7.627e-5
-1.363, 7.813e-5
-1.364, 7.851e-5
-1.365, 7.910e-5
-1.366, 8.123e-5
-1.367, 8.435e-5
-1.368, 8.649e-5
-1.369, 8.692e-5
-1.370, 8.788e-5
-1.371, 9.008e-5
-1.372, 9.343e-5
-1.373, 9.572e-5
-1.374, 9.647e-5
-1.375, 9.756e-5
-1.376, 9.993e-5
-1.377, 1.035e-4
-1.378, 1.062e-4
-1.379, 1.070e-4
-1.380, 1.083e-4
-1.381, 1.111e-4
-1.382, 1.149e-4
-1.383, 1.178e-4
-1.384, 1.189e-4
-1.385, 1.203e-4
-1.386, 1.235e-4
-1.387, 1.273e-4
-1.388, 1.306e-4
-1.389, 1.321e-4
-1.390, 1.339e-4
-1.391, 1.371e-4
-1.392, 1.414e-4
-1.393, 1.449e-4
-1.394, 1.467e-4
-1.395, 1.488e-4
-1.396, 1.522e-4
-1.397, 1.569e-4
-1.398, 1.607e-4
-1.399, 1.629e-4
-1.400, 1.653e-4
-1.401, 1.691e-4
-1.402, 1.741e-4
-1.403, 1.783e-4
-1.404, 1.809e-4
-1.405, 1.834e-4
-1.406, 1.879e-4
-1.407, 1.932e-4
-1.408, 1.978e-4
-1.409, 2.005e-4
-1.410, 2.036e-4
-1.411, 2.082e-4
-1.412, 2.141e-4
-1.413, 2.191e-4
-1.414, 2.224e-4
-1.415, 2.260e-4
-1.416, 2.309e-4
-1.417, 2.369e-4
-1.418, 2.426e-4
-1.419, 2.463e-4
-1.420, 2.504e-4
-1.421, 2.556e-4
-1.422, 2.624e-4
-1.423, 2.684e-4
-1.424, 2.725e-4
-1.425, 2.771e-4
-1.426, 2.829e-4
-1.427, 2.899e-4
-1.428, 2.967e-4
-1.429, 3.012e-4
-1.430, 3.062e-4
-1.431, 3.127e-4
-1.432, 3.201e-4
-1.433, 3.274e-4
-1.434, 3.327e-4
-1.435, 3.383e-4
-1.436, 3.451e-4
-1.437, 3.532e-4
-1.438, 3.611e-4
-1.439, 3.671e-4
-1.440, 3.729e-4
-1.441, 3.805e-4
-1.442, 3.893e-4
-1.443, 3.976e-4
-1.444, 4.040e-4
-1.445, 4.109e-4
-1.446, 4.187e-4
-1.447, 4.280e-4
-1.448, 4.373e-4
-1.449, 4.439e-4
-1.450, 4.516e-4
-1.451, 4.602e-4
-1.452, 4.702e-4
-1.453, 4.797e-4
-1.454, 4.881e-4
-1.455, 4.955e-4
-1.456, 5.051e-4
-1.457, 5.160e-4
-1.458, 5.262e-4
-1.459, 5.346e-4
-1.460, 5.434e-4
-1.461, 5.530e-4
-1.462, 5.648e-4
-1.463, 5.758e-4
-1.464, 5.849e-4
-1.465, 5.944e-4
-1.466, 6.053e-4
-1.467, 6.171e-4
-1.468, 6.290e-4
-1.469, 6.397e-4
-1.470, 6.494e-4
-1.471, 6.616e-4
-1.472, 6.734e-4
-1.473, 6.857e-4
-1.474, 6.973e-4
-1.475, 7.078e-4
-1.476, 7.201e-4
-1.477, 7.339e-4
-1.478, 7.480e-4
-1.479, 7.596e-4
-1.480, 7.713e-4
-1.481, 7.843e-4
-1.482, 7.980e-4
-1.483, 8.125e-4
-1.484, 8.256e-4
-1.485, 8.380e-4
-1.486, 8.528e-4
-1.487, 8.678e-4
-1.488, 8.826e-4
-1.489, 8.965e-4
-1.490, 9.094e-4
-1.491, 9.245e-4
-1.492, 9.408e-4
-1.493, 9.568e-4
-1.494, 9.720e-4
-1.495, 9.870e-4
-1.496, 1.002e-3
-1.497, 1.019e-3
-1.498, 1.038e-3
-1.499, 1.053e-3
-1.500, 1.044e-3
-1.499, 1.021e-3
-1.498, 1.001e-3
-1.497, 9.817e-4
-1.496, 9.606e-4
-1.495, 9.401e-4
-1.494, 9.211e-4
-1.493, 9.036e-4
-1.492, 8.863e-4
-1.491, 8.673e-4
-1.490, 8.476e-4
-1.489, 8.307e-4
-1.488, 8.163e-4
-1.487, 7.990e-4
-1.486, 7.833e-4
-1.485, 7.664e-4
-1.484, 7.508e-4
-1.483, 7.373e-4
-1.482, 7.229e-4
-1.481, 7.076e-4
-1.480, 6.920e-4
-1.479, 6.781e-4
-1.478, 6.656e-4
-1.477, 6.531e-4
-1.476, 6.393e-4
-1.475, 6.251e-4
-1.474, 6.126e-4
-1.473, 6.017e-4
-1.472, 5.906e-4
-1.471, 5.779e-4
-1.470, 5.645e-4
-1.469, 5.537e-4
-1.468, 5.436e-4
-1.467, 5.336e-4
-1.466, 5.219e-4
-1.465, 5.101e-4
-1.464, 4.997e-4
-1.463, 4.910e-4
-1.462, 4.819e-4
-1.461, 4.712e-4
-1.460, 4.603e-4
-1.459, 4.510e-4
-1.458, 4.431e-4
-1.457, 4.350e-4
-1.456, 4.251e-4
-1.455, 4.158e-4
-1.454, 4.065e-4
-1.453, 4.001e-4
-1.452, 3.925e-4
-1.451, 3.836e-4
-1.450, 3.746e-4
-1.449, 3.668e-4
-1.448, 3.604e-4
-1.447, 3.540e-4
-1.446, 3.457e-4
-1.445, 3.374e-4
-1.444, 3.304e-4
-1.443, 3.248e-4
-1.442, 3.187e-4
-1.441, 3.111e-4
-1.440, 3.036e-4
-1.439, 2.974e-4
-1.438, 2.923e-4
-1.437, 2.870e-4
-1.436, 2.803e-4
-1.435, 2.730e-4
-1.434, 2.672e-4
-1.433, 2.630e-4
-1.432, 2.582e-4
-1.431, 2.520e-4
-1.430, 2.450e-4
-1.429, 2.401e-4
-1.428, 2.362e-4
-1.427, 2.319e-4
-1.426, 2.263e-4
-1.425, 2.200e-4
-1.424, 2.154e-4
-1.423, 2.121e-4
-1.422, 2.082e-4
-1.421, 2.028e-4
-1.420, 1.973e-4
-1.419, 1.930e-4
-1.418, 1.900e-4
-1.417, 1.867e-4
-1.416, 1.817e-4
-1.415, 1.766e-4
-1.414, 1.725e-4
-1.413, 1.702e-4
-1.412, 1.672e-4
-1.411, 1.625e-4
-1.410, 1.579e-4
-1.409, 1.543e-4
-1.408, 1.523e-4
-1.407, 1.496e-4
-1.406, 1.453e-4
-1.405, 1.409e-4
-1.404, 1.377e-4
-1.403, 1.358e-4
-1.402, 1.336e-4
-1.401, 1.297e-4
-1.400, 1.254e-4
-1.399, 1.227e-4
-1.398, 1.210e-4
-1.397, 1.190e-4
-1.396, 1.155e-4
-1.395, 1.114e-4
-1.394, 1.089e-4
-1.393, 1.075e-4
-1.392, 1.059e-4
-1.391, 1.025e-4
-1.390, 9.867e-5
-1.389, 9.646e-5
-1.388, 9.541e-5
-1.387, 9.391e-5
-1.386, 9.077e-5
-1.385, 8.730e-5
-1.384, 8.527e-5
-1.383, 8.434e-5
-1.382, 8.307e-5
-1.381, 8.023e-5
-1.380, 7.691e-5
-1.379, 7.500e-5
-1.378, 7.454e-5
-1.377, 7.332e-5
-1.376, 7.071e-5
-1.375, 6.761e-5
-1.374, 6.579e-5
-1.373, 6.547e-5
-1.372, 6.460e-5
-1.371, 6.189e-5
-1.370, 5.909e-5
-1.369, 5.758e-5
-1.368, 5.730e-5
-1.367, 5.659e-5
-1.366, 5.410e-5
-1.365, 5.154e-5
-1.364, 5.012e-5
-1.363, 4.989e-5
-1.362, 4.943e-5
-1.361, 4.712e-5
-1.360, 4.458e-5
-1.359, 4.338e-5
-1.358, 4.332e-5
-1.357, 4.298e-5
-1.356, 4.081e-5
-1.355, 3.832e-5
-1.354, 3.723e-5
-1.353, 3.741e-5
-1.352, 3.718e-5
-1.351, 3.522e-5
-1.350, 3.275e-5
-1.349, 3.182e-5
-1.348, 3.219e-5
-1.347, 3.189e-5
-1.346, 3.016e-5
-1.345, 2.768e-5
-1.344, 2.693e-5
-1.343, 2.738e-5
-1.342, 2.712e-5
-1.341, 2.552e-5
-1.340, 2.333e-5
-1.339, 2.249e-5
-1.338, 2.311e-5
-1.337, 2.304e-5
-1.336, 2.143e-5
-1.335, 1.935e-5
-1.334, 1.860e-5
-1.333, 1.919e-5
-1.332, 1.935e-5
-1.331, 1.767e-5
-1.330, 1.565e-5
-1.329, 1.507e-5
-1.328, 1.583e-5
-1.327, 1.592e-5
-1.326, 1.434e-5
-1.325, 1.253e-5
-1.324, 1.203e-5
-1.323, 1.260e-5
-1.322, 1.298e-5
-1.321, 1.151e-5
-1.320, 9.608e-6
-1.319, 9.223e-6
-1.318, 9.872e-6
-1.317, 1.029e-5
-1.316, 8.947e-6
-1.315, 6.898e-6
-1.314, 6.703e-6
-1.313, 7.418e-6
-1.312, 7.914e-6
-1.311, 6.573e-6
-1.310, 4.654e-6
-1.309, 4.407e-6
-1.308, 5.240e-6
-1.307, 5.650e-6
-1.306, 4.557e-6
-1.305, 2.653e-6
-1.304, 2.458e-6
-1.303, 3.273e-6
-1.302, 3.801e-6
-1.301, 2.665e-6
-1.300, 9.302e-7
-1.299, 5.533e-7
-1.298, 1.551e-6
-1.297, 2.148e-6
-1.296, 1.021e-6
-1.295, -6.869e-7
-1.294, -1.031e-6
-1.293, 6.985e-8
-1.292, 6.736e-7
-1.291, -5.211e-7
-1.290, -2.152e-6
-1.289, -2.342e-6
-1.288, -1.391e-6
-1.287, -6.652e-7
-1.286, -1.747e-6
-1.285, -3.322e-6
-1.284, -3.543e-6
-1.283, -2.639e-6
-1.282, -1.780e-6
-1.281, -2.953e-6
-1.280, -4.607e-6
-1.279, -4.698e-6
-1.278, -3.708e-6
-1.277, -2.839e-6
-1.276, -3.864e-6
-1.275, -5.604e-6
-1.274, -5.536e-6
-1.273, -4.624e-6
-1.272, -3.793e-6
-1.271, -4.693e-6
-1.270, -6.493e-6
-1.269, -6.495e-6
-1.268, -5.404e-6
-1.267, -4.650e-6
-1.266, -5.640e-6
-1.265, -7.218e-6
-1.264, -7.188e-6
-1.263, -6.149e-6
-1.262, -5.390e-6
-1.261, -6.189e-6
-1.260, -7.851e-6
-1.259, -7.872e-6
-1.258, -6.809e-6
-1.257, -5.911e-6
-1.256, -6.892e-6
-1.255, -8.422e-6
-1.254, -8.525e-6
-1.253, -7.343e-6
-1.252, -6.461e-6
-1.251, -7.420e-6
-1.250, -8.939e-6
-1.249, -8.960e-6
-1.248, -7.896e-6
-1.247, -6.930e-6
-1.246, -7.841e-6
-1.245, -9.416e-6
-1.244, -9.398e-6
-1.243, -8.304e-6
-1.242, -7.342e-6
-1.241, -8.313e-6
-1.240, -9.791e-6
-1.239, -9.753e-6
-1.238, -8.712e-6
-1.237, -7.703e-6
-1.236, -8.525e-6
-1.235, -1.023e-5
-1.234, -1.009e-5
-1.233, -9.060e-6
-1.232, -7.978e-6
-1.231, -8.898e-6
-1.230, -1.049e-5
-1.229, -1.056e-5
-1.228, -9.208e-6
-1.227, -8.448e-6
-1.226, -9.151e-6
-1.225, -1.074e-5
-1.224, -1.068e-5
-1.223, -9.521e-6
-1.222, -8.594e-6
-1.221, -9.307e-6
-1.220, -1.091e-5
-1.219, -1.092e-5
-1.218, -9.725e-6
-1.217, -8.774e-6
-1.216, -9.541e-6
-1.215, -1.104e-5
-1.214, -1.114e-5
-1.213, -9.860e-6
-1.212, -8.903e-6
-1.211, -9.793e-6
-1.210, -1.130e-5
-1.209, -1.127e-5
-1.208, -1.006e-5
-1.207, -9.056e-6
-1.206, -9.902e-6
-1.205, -1.138e-5
-1.204, -1.139e-5
-1.203, -1.028e-5
-1.202, -9.188e-6
-1.201, -1.005e-5
-1.200, -1.148e-5
-1.199, -1.141e-5
-1.198, -1.038e-5
-1.197, -9.293e-6
-1.196, -1.013e-5
-1.195, -1.164e-5
-1.194, -1.153e-5
-1.193, -1.050e-5
-1.192, -9.406e-6
-1.191, -1.016e-5
-1.190, -1.182e-5
-1.189, -1.166e-5
-1.188, -1.043e-5
-1.187, -9.467e-6
-1.186, -1.034e-5
-1.185, -1.185e-5
-1.184, -1.170e-5
-1.183, -1.053e-5
-1.182, -9.590e-6
-1.181, -1.036e-5
-1.180, -1.179e-5
-1.179, -1.192e-5
-1.178, -1.064e-5
-1.177, -9.679e-6
-1.176, -1.037e-5
-1.175, -1.192e-5
-1.174, -1.194e-5
-1.173, -1.069e-5
-1.172, -9.685e-6
-1.171, -1.048e-5
-1.170, -1.194e-5
-1.169, -1.197e-5
-1.168, -1.075e-5
-1.167, -9.702e-6
-1.166, -1.050e-5
-1.165, -1.195e-5
-1.164, -1.200e-5
-1.163, -1.079e-5
-1.162, -9.769e-6
-1.161, -1.062e-5
-1.160, -1.199e-5
-1.159, -1.194e-5
-1.158, -1.092e-5
-1.157, -9.725e-6
-1.156, -1.054e-5
-1.155, -1.209e-5
-1.154, -1.200e-5
-1.153, -1.095e-5
-1.152, -9.824e-6
-1.151, -1.064e-5
-1.150, -1.217e-5
-1.149, -1.208e-5
-1.148, -1.081e-5
-1.147, -9.912e-6
-1.146, -1.059e-5
-1.145, -1.212e-5
-1.144, -1.206e-5
-1.143, -1.091e-5
-1.142, -9.900e-6
-1.141, -1.062e-5
-1.140, -1.216e-5
-1.139, -1.213e-5
-1.138, -1.098e-5
-1.137, -9.898e-6
-1.136, -1.063e-5
-1.135, -1.214e-5
-1.134, -1.221e-5
-1.133, -1.098e-5
-1.132, -9.879e-6
-1.131, -1.073e-5
-1.130, -1.213e-5
-1.129, -1.227e-5
-1.128, -1.091e-5
-1.127, -9.917e-6
-1.126, -1.079e-5
-1.125, -1.229e-5
-1.124, -1.225e-5
-1.123, -1.112e-5
-1.122, -9.945e-6
-1.121, -1.086e-5
-1.120, -1.221e-5
-1.119, -1.222e-5
-1.118, -1.125e-5
-1.117, -1.003e-5
-1.116, -1.080e-5
-1.115, -1.238e-5
-1.114, -1.235e-5
-1.113, -1.123e-5
-1.112, -1.004e-5
-1.111, -1.089e-5
-1.110, -1.250e-5
-1.109, -1.242e-5
-1.108, -1.120e-5
-1.107, -1.024e-5
-1.106, -1.096e-5
-1.105, -1.250e-5
-1.104, -1.247e-5
-1.103, -1.129e-5
-1.102, -1.032e-5
-1.101, -1.100e-5
-1.100, -1.252e-5
-1.099, -1.271e-5
-1.098, -1.138e-5
-1.097, -1.039e-5
-1.096, -1.113e-5
-1.095, -1.270e-5
-1.094, -1.280e-5
-1.093, -1.154e-5
-1.092, -1.048e-5
-1.091, -1.132e-5
-1.090, -1.278e-5
-1.089, -1.289e-5
-1.088, -1.175e-5
-1.087, -1.052e-5
-1.086, -1.145e-5
-1.085, -1.291e-5
-1.084, -1.309e-5
-1.083, -1.189e-5
-1.082, -1.079e-5
-1.081, -1.163e-5
-1.080, -1.312e-5
-1.079, -1.322e-5
-1.078, -1.215e-5
-1.077, -1.096e-5
-1.076, -1.180e-5
-1.075, -1.339e-5
-1.074, -1.353e-5
-1.073, -1.228e-5
-1.072, -1.123e-5
-1.071, -1.193e-5
-1.070, -1.362e-5
-1.069, -1.369e-5
-1.068, -1.251e-5
-1.067, -1.155e-5
-1.066, -1.216e-5
-1.065, -1.396e-5
-1.064, -1.406e-5
-1.063, -1.279e-5
-1.062, -1.190e-5
-1.061, -1.251e-5
-1.060, -1.413e-5
-1.059, -1.449e-5
-1.058, -1.317e-5
-1.057, -1.218e-5
-1.056, -1.292e-5
-1.055, -1.451e-5
-1.054, -1.480e-5
-1.053, -1.355e-5
-1.052, -1.252e-5
-1.051, -1.332e-5
-1.050, -1.494e-5
-1.049, -1.528e-5
-1.048, -1.409e-5
-1.047, -1.290e-5
-1.046, -1.382e-5
-1.045, -1.547e-5
-1.044, -1.569e-5
-1.043, -1.460e-5
-1.042, -1.346e-5
-1.041, -1.431e-5
-1.040, -1.595e-5
-1.039, -1.628e-5
-1.038, -1.522e-5
-1.037, -1.403e-5
-1.036, -1.484e-5
-1.035, -1.666e-5
-1.034, -1.692e-5
-1.033, -1.580e-5
-1.032, -1.470e-5
-1.031, -1.551e-5
-1.030, -1.735e-5
-1.029, -1.756e-5
-1.028, -1.647e-5
-1.027, -1.559e-5
-1.026, -1.624e-5
-1.025, -1.811e-5
-1.024, -1.856e-5
-1.023, -1.732e-5
-1.022, -1.635e-5
-1.021, -1.704e-5
-1.020, -1.895e-5
-1.019, -1.940e-5
-1.018, -1.818e-5
-1.017, -1.735e-5
-1.016, -1.802e-5
-1.015, -1.985e-5
-1.014, -2.045e-5
-1.013, -1.926e-5
-1.012, -1.827e-5
-1.011, -1.913e-5
-1.010, -2.095e-5
-1.009, -2.151e-5
-1.008, -2.039e-5
-1.007, -1.942e-5
-1.006, -2.023e-5
-1.005, -2.211e-5
-1.004, -2.268e-5
-1.003, -2.170e-5
-1.002, -2.060e-5
-1.001, -2.153e-5
