Dec. 30, 2024   15:14:08
Cyclic Voltammetry
File: c:/users/guazh/data/banditlqround7_x0exp136_r20/2024-12-24-exp788\exp788-2024-12-30t14_54_55-arkoh\exp788_cv_sr_400mvs_efin_-1700mv.bin
Data Source:  Experiment
Instrument Model:  CHI760E
Header: CV ran at 400 mVs
Note: 

Init E (V) = -1
High E (V) = -1
Low E (V) = -1.7
Final E (V) = -1
Init P/N = N
Scan Rate (V/s) = 0.4
Segment = 3
Sample Interval (V) = 0.001
Quiet Time (sec) = 2
Sensitivity (A/V) = 0.01
Comp R (ohm) = 1.5

Results:

Channel 1:
Segment 1:

Segment 2:

Segment 3:

Potential/V, Current/A

-1.000, 2.174e-5
-1.001, 5.873e-5
-1.002, 7.415e-5
-1.003, 8.957e-5
-1.004, 1.019e-4
-1.005, 1.050e-4
-1.006, 9.882e-5
-1.007, 9.265e-5
-1.008, 9.265e-5
-1.009, 9.882e-5
-1.010, 1.081e-4
-1.011, 1.142e-4
-1.012, 1.142e-4
-1.013, 1.081e-4
-1.014, 1.019e-4
-1.015, 1.050e-4
-1.016, 1.111e-4
-1.017, 1.204e-4
-1.018, 1.235e-4
-1.019, 1.173e-4
-1.020, 1.111e-4
-1.021, 1.081e-4
-1.022, 1.111e-4
-1.023, 1.204e-4
-1.024, 1.296e-4
-1.025, 1.266e-4
-1.026, 1.204e-4
-1.027, 1.111e-4
-1.028, 1.111e-4
-1.029, 1.173e-4
-1.030, 1.266e-4
-1.031, 1.327e-4
-1.032, 1.296e-4
-1.033, 1.235e-4
-1.034, 1.142e-4
-1.035, 1.173e-4
-1.036, 1.235e-4
-1.037, 1.327e-4
-1.038, 1.358e-4
-1.039, 1.296e-4
-1.040, 1.235e-4
-1.041, 1.173e-4
-1.042, 1.235e-4
-1.043, 1.296e-4
-1.044, 1.389e-4
-1.045, 1.358e-4
-1.046, 1.296e-4
-1.047, 1.235e-4
-1.048, 1.204e-4
-1.049, 1.266e-4
-1.050, 1.358e-4
-1.051, 1.420e-4
-1.052, 1.358e-4
-1.053, 1.266e-4
-1.054, 1.235e-4
-1.055, 1.235e-4
-1.056, 1.296e-4
-1.057, 1.389e-4
-1.058, 1.420e-4
-1.059, 1.358e-4
-1.060, 1.266e-4
-1.061, 1.235e-4
-1.062, 1.266e-4
-1.063, 1.358e-4
-1.064, 1.420e-4
-1.065, 1.420e-4
-1.066, 1.327e-4
-1.067, 1.266e-4
-1.068, 1.235e-4
-1.069, 1.296e-4
-1.070, 1.389e-4
-1.071, 1.451e-4
-1.072, 1.389e-4
-1.073, 1.327e-4
-1.074, 1.266e-4
-1.075, 1.266e-4
-1.076, 1.358e-4
-1.077, 1.420e-4
-1.078, 1.451e-4
-1.079, 1.389e-4
-1.080, 1.296e-4
-1.081, 1.266e-4
-1.082, 1.296e-4
-1.083, 1.358e-4
-1.084, 1.451e-4
-1.085, 1.420e-4
-1.086, 1.358e-4
-1.087, 1.266e-4
-1.088, 1.266e-4
-1.089, 1.296e-4
-1.090, 1.389e-4
-1.091, 1.451e-4
-1.092, 1.420e-4
-1.093, 1.327e-4
-1.094, 1.266e-4
-1.095, 1.266e-4
-1.096, 1.327e-4
-1.097, 1.420e-4
-1.098, 1.451e-4
-1.099, 1.389e-4
-1.100, 1.296e-4
-1.101, 1.235e-4
-1.102, 1.266e-4
-1.103, 1.358e-4
-1.104, 1.420e-4
-1.105, 1.420e-4
-1.106, 1.358e-4
-1.107, 1.266e-4
-1.108, 1.266e-4
-1.109, 1.296e-4
-1.110, 1.389e-4
-1.111, 1.451e-4
-1.112, 1.420e-4
-1.113, 1.327e-4
-1.114, 1.266e-4
-1.115, 1.266e-4
-1.116, 1.327e-4
-1.117, 1.420e-4
-1.118, 1.451e-4
-1.119, 1.389e-4
-1.120, 1.296e-4
-1.121, 1.235e-4
-1.122, 1.266e-4
-1.123, 1.358e-4
-1.124, 1.420e-4
-1.125, 1.420e-4
-1.126, 1.358e-4
-1.127, 1.266e-4
-1.128, 1.235e-4
-1.129, 1.296e-4
-1.130, 1.389e-4
-1.131, 1.420e-4
-1.132, 1.420e-4
-1.133, 1.327e-4
-1.134, 1.266e-4
-1.135, 1.266e-4
-1.136, 1.327e-4
-1.137, 1.420e-4
-1.138, 1.420e-4
-1.139, 1.358e-4
-1.140, 1.296e-4
-1.141, 1.235e-4
-1.142, 1.266e-4
-1.143, 1.358e-4
-1.144, 1.420e-4
-1.145, 1.420e-4
-1.146, 1.358e-4
-1.147, 1.266e-4
-1.148, 1.266e-4
-1.149, 1.296e-4
-1.150, 1.389e-4
-1.151, 1.451e-4
-1.152, 1.420e-4
-1.153, 1.327e-4
-1.154, 1.235e-4
-1.155, 1.266e-4
-1.156, 1.327e-4
-1.157, 1.420e-4
-1.158, 1.420e-4
-1.159, 1.358e-4
-1.160, 1.296e-4
-1.161, 1.266e-4
-1.162, 1.266e-4
-1.163, 1.358e-4
-1.164, 1.420e-4
-1.165, 1.420e-4
-1.166, 1.358e-4
-1.167, 1.266e-4
-1.168, 1.235e-4
-1.169, 1.296e-4
-1.170, 1.389e-4
-1.171, 1.420e-4
-1.172, 1.389e-4
-1.173, 1.296e-4
-1.174, 1.235e-4
-1.175, 1.235e-4
-1.176, 1.296e-4
-1.177, 1.389e-4
-1.178, 1.420e-4
-1.179, 1.358e-4
-1.180, 1.296e-4
-1.181, 1.235e-4
-1.182, 1.266e-4
-1.183, 1.358e-4
-1.184, 1.420e-4
-1.185, 1.420e-4
-1.186, 1.327e-4
-1.187, 1.235e-4
-1.188, 1.235e-4
-1.189, 1.296e-4
-1.190, 1.358e-4
-1.191, 1.420e-4
-1.192, 1.389e-4
-1.193, 1.296e-4
-1.194, 1.235e-4
-1.195, 1.235e-4
-1.196, 1.296e-4
-1.197, 1.389e-4
-1.198, 1.389e-4
-1.199, 1.327e-4
-1.200, 1.266e-4
-1.201, 1.204e-4
-1.202, 1.235e-4
-1.203, 1.327e-4
-1.204, 1.389e-4
-1.205, 1.358e-4
-1.206, 1.296e-4
-1.207, 1.235e-4
-1.208, 1.204e-4
-1.209, 1.266e-4
-1.210, 1.327e-4
-1.211, 1.358e-4
-1.212, 1.358e-4
-1.213, 1.266e-4
-1.214, 1.204e-4
-1.215, 1.204e-4
-1.216, 1.266e-4
-1.217, 1.358e-4
-1.218, 1.358e-4
-1.219, 1.296e-4
-1.220, 1.204e-4
-1.221, 1.173e-4
-1.222, 1.204e-4
-1.223, 1.266e-4
-1.224, 1.327e-4
-1.225, 1.327e-4
-1.226, 1.266e-4
-1.227, 1.173e-4
-1.228, 1.173e-4
-1.229, 1.235e-4
-1.230, 1.296e-4
-1.231, 1.327e-4
-1.232, 1.296e-4
-1.233, 1.204e-4
-1.234, 1.173e-4
-1.235, 1.142e-4
-1.236, 1.235e-4
-1.237, 1.296e-4
-1.238, 1.327e-4
-1.239, 1.266e-4
-1.240, 1.173e-4
-1.241, 1.142e-4
-1.242, 1.173e-4
-1.243, 1.266e-4
-1.244, 1.327e-4
-1.245, 1.296e-4
-1.246, 1.235e-4
-1.247, 1.173e-4
-1.248, 1.142e-4
-1.249, 1.204e-4
-1.250, 1.266e-4
-1.251, 1.327e-4
-1.252, 1.296e-4
-1.253, 1.204e-4
-1.254, 1.142e-4
-1.255, 1.142e-4
-1.256, 1.204e-4
-1.257, 1.296e-4
-1.258, 1.296e-4
-1.259, 1.266e-4
-1.260, 1.204e-4
-1.261, 1.142e-4
-1.262, 1.173e-4
-1.263, 1.235e-4
-1.264, 1.296e-4
-1.265, 1.296e-4
-1.266, 1.235e-4
-1.267, 1.142e-4
-1.268, 1.142e-4
-1.269, 1.204e-4
-1.270, 1.266e-4
-1.271, 1.327e-4
-1.272, 1.296e-4
-1.273, 1.204e-4
-1.274, 1.142e-4
-1.275, 1.142e-4
-1.276, 1.235e-4
-1.277, 1.296e-4
-1.278, 1.296e-4
-1.279, 1.266e-4
-1.280, 1.204e-4
-1.281, 1.142e-4
-1.282, 1.173e-4
-1.283, 1.266e-4
-1.284, 1.327e-4
-1.285, 1.296e-4
-1.286, 1.266e-4
-1.287, 1.173e-4
-1.288, 1.173e-4
-1.289, 1.204e-4
-1.290, 1.296e-4
-1.291, 1.358e-4
-1.292, 1.327e-4
-1.293, 1.235e-4
-1.294, 1.173e-4
-1.295, 1.173e-4
-1.296, 1.235e-4
-1.297, 1.327e-4
-1.298, 1.358e-4
-1.299, 1.296e-4
-1.300, 1.235e-4
-1.301, 1.173e-4
-1.302, 1.204e-4
-1.303, 1.296e-4
-1.304, 1.358e-4
-1.305, 1.358e-4
-1.306, 1.296e-4
-1.307, 1.204e-4
-1.308, 1.204e-4
-1.309, 1.266e-4
-1.310, 1.327e-4
-1.311, 1.389e-4
-1.312, 1.358e-4
-1.313, 1.296e-4
-1.314, 1.235e-4
-1.315, 1.235e-4
-1.316, 1.296e-4
-1.317, 1.389e-4
-1.318, 1.420e-4
-1.319, 1.358e-4
-1.320, 1.296e-4
-1.321, 1.235e-4
-1.322, 1.266e-4
-1.323, 1.358e-4
-1.324, 1.420e-4
-1.325, 1.420e-4
-1.326, 1.358e-4
-1.327, 1.296e-4
-1.328, 1.266e-4
-1.329, 1.327e-4
-1.330, 1.420e-4
-1.331, 1.451e-4
-1.332, 1.451e-4
-1.333, 1.358e-4
-1.334, 1.327e-4
-1.335, 1.327e-4
-1.336, 1.389e-4
-1.337, 1.481e-4
-1.338, 1.512e-4
-1.339, 1.451e-4
-1.340, 1.389e-4
-1.341, 1.327e-4
-1.342, 1.358e-4
-1.343, 1.451e-4
-1.344, 1.543e-4
-1.345, 1.543e-4
-1.346, 1.481e-4
-1.347, 1.389e-4
-1.348, 1.389e-4
-1.349, 1.451e-4
-1.350, 1.543e-4
-1.351, 1.605e-4
-1.352, 1.574e-4
-1.353, 1.512e-4
-1.354, 1.451e-4
-1.355, 1.451e-4
-1.356, 1.543e-4
-1.357, 1.636e-4
-1.358, 1.636e-4
-1.359, 1.605e-4
-1.360, 1.543e-4
-1.361, 1.481e-4
-1.362, 1.512e-4
-1.363, 1.636e-4
-1.364, 1.697e-4
-1.365, 1.728e-4
-1.366, 1.666e-4
-1.367, 1.574e-4
-1.368, 1.574e-4
-1.369, 1.636e-4
-1.370, 1.728e-4
-1.371, 1.790e-4
-1.372, 1.759e-4
-1.373, 1.697e-4
-1.374, 1.636e-4
-1.375, 1.666e-4
-1.376, 1.728e-4
-1.377, 1.821e-4
-1.378, 1.851e-4
-1.379, 1.821e-4
-1.380, 1.759e-4
-1.381, 1.697e-4
-1.382, 1.759e-4
-1.383, 1.851e-4
-1.384, 1.944e-4
-1.385, 1.944e-4
-1.386, 1.913e-4
-1.387, 1.821e-4
-1.388, 1.851e-4
-1.389, 1.882e-4
-1.390, 1.975e-4
-1.391, 2.036e-4
-1.392, 2.036e-4
-1.393, 1.975e-4
-1.394, 1.944e-4
-1.395, 1.944e-4
-1.396, 2.036e-4
-1.397, 2.129e-4
-1.398, 2.160e-4
-1.399, 2.160e-4
-1.400, 2.098e-4
-1.401, 2.067e-4
-1.402, 2.098e-4
-1.403, 2.191e-4
-1.404, 2.283e-4
-1.405, 2.314e-4
-1.406, 2.283e-4
-1.407, 2.221e-4
-1.408, 2.221e-4
-1.409, 2.283e-4
-1.410, 2.376e-4
-1.411, 2.468e-4
-1.412, 2.468e-4
-1.413, 2.406e-4
-1.414, 2.376e-4
-1.415, 2.406e-4
-1.416, 2.468e-4
-1.417, 2.591e-4
-1.418, 2.653e-4
-1.419, 2.622e-4
-1.420, 2.591e-4
-1.421, 2.561e-4
-1.422, 2.622e-4
-1.423, 2.715e-4
-1.424, 2.838e-4
-1.425, 2.869e-4
-1.426, 2.838e-4
-1.427, 2.776e-4
-1.428, 2.838e-4
-1.429, 2.869e-4
-1.430, 2.992e-4
-1.431, 3.085e-4
-1.432, 3.115e-4
-1.433, 3.085e-4
-1.434, 3.054e-4
-1.435, 3.085e-4
-1.436, 3.208e-4
-1.437, 3.300e-4
-1.438, 3.362e-4
-1.439, 3.362e-4
-1.440, 3.362e-4
-1.441, 3.362e-4
-1.442, 3.424e-4
-1.443, 3.547e-4
-1.444, 3.670e-4
-1.445, 3.701e-4
-1.446, 3.701e-4
-1.447, 3.701e-4
-1.448, 3.732e-4
-1.449, 3.825e-4
-1.450, 3.948e-4
-1.451, 4.040e-4
-1.452, 4.071e-4
-1.453, 4.071e-4
-1.454, 4.071e-4
-1.455, 4.133e-4
-1.456, 4.256e-4
-1.457, 4.410e-4
-1.458, 4.503e-4
-1.459, 4.534e-4
-1.460, 4.534e-4
-1.461, 4.565e-4
-1.462, 4.657e-4
-1.463, 4.811e-4
-1.464, 4.935e-4
-1.465, 5.027e-4
-1.466, 5.058e-4
-1.467, 5.089e-4
-1.468, 5.150e-4
-1.469, 5.274e-4
-1.470, 5.428e-4
-1.471, 5.582e-4
-1.472, 5.644e-4
-1.473, 5.674e-4
-1.474, 5.705e-4
-1.475, 5.798e-4
-1.476, 5.952e-4
-1.477, 6.137e-4
-1.478, 6.260e-4
-1.479, 6.353e-4
-1.480, 6.414e-4
-1.481, 6.476e-4
-1.482, 6.599e-4
-1.483, 6.784e-4
-1.484, 7.000e-4
-1.485, 7.124e-4
-1.486, 7.216e-4
-1.487, 7.278e-4
-1.488, 7.370e-4
-1.489, 7.555e-4
-1.490, 7.771e-4
-1.491, 7.956e-4
-1.492, 8.110e-4
-1.493, 8.203e-4
-1.494, 8.295e-4
-1.495, 8.449e-4
-1.496, 8.665e-4
-1.497, 8.912e-4
-1.498, 9.097e-4
-1.499, 9.251e-4
-1.500, 9.374e-4
-1.501, 9.528e-4
-1.502, 9.744e-4
-1.503, 9.991e-4
-1.504, 1.027e-3
-1.505, 1.048e-3
-1.506, 1.064e-3
-1.507, 1.082e-3
-1.508, 1.101e-3
-1.509, 1.125e-3
-1.510, 1.153e-3
-1.511, 1.184e-3
-1.512, 1.206e-3
-1.513, 1.224e-3
-1.514, 1.246e-3
-1.515, 1.264e-3
-1.516, 1.295e-3
-1.517, 1.326e-3
-1.518, 1.357e-3
-1.519, 1.384e-3
-1.520, 1.406e-3
-1.521, 1.428e-3
-1.522, 1.455e-3
-1.523, 1.489e-3
-1.524, 1.526e-3
-1.525, 1.557e-3
-1.526, 1.588e-3
-1.527, 1.610e-3
-1.528, 1.637e-3
-1.529, 1.671e-3
-1.530, 1.705e-3
-1.531, 1.742e-3
-1.532, 1.773e-3
-1.533, 1.801e-3
-1.534, 1.828e-3
-1.535, 1.859e-3
-1.536, 1.896e-3
-1.537, 1.939e-3
-1.538, 1.976e-3
-1.539, 2.013e-3
-1.540, 2.047e-3
-1.541, 2.078e-3
-1.542, 2.118e-3
-1.543, 2.161e-3
-1.544, 2.201e-3
-1.545, 2.245e-3
-1.546, 2.279e-3
-1.547, 2.309e-3
-1.548, 2.343e-3
-1.549, 2.380e-3
-1.550, 2.427e-3
-1.551, 2.473e-3
-1.552, 2.516e-3
-1.553, 2.553e-3
-1.554, 2.587e-3
-1.555, 2.627e-3
-1.556, 2.673e-3
-1.557, 2.723e-3
-1.558, 2.772e-3
-1.559, 2.815e-3
-1.560, 2.858e-3
-1.561, 2.895e-3
-1.562, 2.938e-3
-1.563, 2.985e-3
-1.564, 3.037e-3
-1.565, 3.086e-3
-1.566, 3.133e-3
-1.567, 3.173e-3
-1.568, 3.216e-3
-1.569, 3.262e-3
-1.570, 3.314e-3
-1.571, 3.373e-3
-1.572, 3.425e-3
-1.573, 3.472e-3
-1.574, 3.515e-3
-1.575, 3.561e-3
-1.576, 3.610e-3
-1.577, 3.672e-3
-1.578, 3.731e-3
-1.579, 3.783e-3
-1.580, 3.829e-3
-1.581, 3.869e-3
-1.582, 3.916e-3
-1.583, 3.971e-3
-1.584, 4.036e-3
-1.585, 4.098e-3
-1.586, 4.150e-3
-1.587, 4.196e-3
-1.588, 4.246e-3
-1.589, 4.304e-3
-1.590, 4.366e-3
-1.591, 4.431e-3
-1.592, 4.489e-3
-1.593, 4.538e-3
-1.594, 4.585e-3
-1.595, 4.634e-3
-1.596, 4.696e-3
-1.597, 4.757e-3
-1.598, 4.822e-3
-1.599, 4.881e-3
-1.600, 4.930e-3
-1.601, 4.979e-3
-1.602, 5.035e-3
-1.603, 5.100e-3
-1.604, 5.161e-3
-1.605, 5.226e-3
-1.606, 5.278e-3
-1.607, 5.328e-3
-1.608, 5.380e-3
-1.609, 5.439e-3
-1.610, 5.510e-3
-1.611, 5.581e-3
-1.612, 5.651e-3
-1.613, 5.716e-3
-1.614, 5.778e-3
-1.615, 5.846e-3
-1.616, 5.929e-3
-1.617, 6.018e-3
-1.618, 6.105e-3
-1.619, 6.176e-3
-1.620, 6.234e-3
-1.621, 6.277e-3
-1.622, 6.317e-3
-1.623, 6.358e-3
-1.624, 6.404e-3
-1.625, 6.459e-3
-1.626, 6.509e-3
-1.627, 6.558e-3
-1.628, 6.613e-3
-1.629, 6.678e-3
-1.630, 6.758e-3
-1.631, 6.838e-3
-1.632, 6.912e-3
-1.633, 6.977e-3
-1.634, 7.039e-3
-1.635, 7.104e-3
-1.636, 7.178e-3
-1.637, 7.264e-3
-1.638, 7.347e-3
-1.639, 7.421e-3
-1.640, 7.480e-3
-1.641, 7.535e-3
-1.642, 7.606e-3
-1.643, 7.683e-3
-1.644, 7.767e-3
-1.645, 7.837e-3
-1.646, 7.890e-3
-1.647, 7.939e-3
-1.648, 7.988e-3
-1.649, 8.050e-3
-1.650, 8.112e-3
-1.651, 8.170e-3
-1.652, 8.226e-3
-1.653, 8.284e-3
-1.654, 8.340e-3
-1.655, 8.402e-3
-1.656, 8.479e-3
-1.657, 8.574e-3
-1.658, 8.682e-3
-1.659, 8.793e-3
-1.660, 8.898e-3
-1.661, 8.987e-3
-1.662, 9.064e-3
-1.663, 9.135e-3
-1.664, 9.209e-3
-1.665, 9.283e-3
-1.666, 9.345e-3
-1.667, 9.397e-3
-1.668, 9.441e-3
-1.669, 9.490e-3
-1.670, 9.555e-3
-1.671, 9.641e-3
-1.672, 9.734e-3
-1.673, 9.814e-3
-1.674, 9.885e-3
-1.675, 9.949e-3
-1.676, 1.002e-2
-1.677, 1.012e-2
-1.678, 1.022e-2
-1.679, 1.032e-2
-1.680, 1.041e-2
-1.681, 1.049e-2
-1.682, 1.056e-2
-1.683, 1.062e-2
-1.684, 1.068e-2
-1.685, 1.073e-2
-1.686, 1.076e-2
-1.687, 1.078e-2
-1.688, 1.077e-2
-1.689, 1.074e-2
-1.690, 1.071e-2
-1.691, 1.071e-2
-1.692, 1.076e-2
-1.693, 1.085e-2
-1.694, 1.097e-2
-1.695, 1.113e-2
-1.696, 1.132e-2
-1.697, 1.152e-2
-1.698, 1.172e-2
-1.699, 1.188e-2
-1.700, 1.193e-2
-1.699, 1.185e-2
-1.698, 1.175e-2
-1.697, 1.165e-2
-1.696, 1.154e-2
-1.695, 1.144e-2
-1.694, 1.131e-2
-1.693, 1.118e-2
-1.692, 1.107e-2
-1.691, 1.099e-2
-1.690, 1.094e-2
-1.689, 1.090e-2
-1.688, 1.086e-2
-1.687, 1.081e-2
-1.686, 1.074e-2
-1.685, 1.065e-2
-1.684, 1.057e-2
-1.683, 1.048e-2
-1.682, 1.040e-2
-1.681, 1.029e-2
-1.680, 1.017e-2
-1.679, 1.004e-2
-1.678, 9.906e-3
-1.677, 9.789e-3
-1.676, 9.687e-3
-1.675, 9.595e-3
-1.674, 9.505e-3
-1.673, 9.422e-3
-1.672, 9.348e-3
-1.671, 9.286e-3
-1.670, 9.249e-3
-1.669, 9.225e-3
-1.668, 9.191e-3
-1.667, 9.135e-3
-1.666, 9.055e-3
-1.665, 8.969e-3
-1.664, 8.886e-3
-1.663, 8.806e-3
-1.662, 8.719e-3
-1.661, 8.627e-3
-1.660, 8.531e-3
-1.659, 8.439e-3
-1.658, 8.368e-3
-1.657, 8.306e-3
-1.656, 8.251e-3
-1.655, 8.192e-3
-1.654, 8.124e-3
-1.653, 8.053e-3
-1.652, 7.970e-3
-1.651, 7.893e-3
-1.650, 7.822e-3
-1.649, 7.754e-3
-1.648, 7.693e-3
-1.647, 7.619e-3
-1.646, 7.538e-3
-1.645, 7.455e-3
-1.644, 7.375e-3
-1.643, 7.301e-3
-1.642, 7.233e-3
-1.641, 7.165e-3
-1.640, 7.091e-3
-1.639, 7.011e-3
-1.638, 6.937e-3
-1.637, 6.872e-3
-1.636, 6.817e-3
-1.635, 6.764e-3
-1.634, 6.703e-3
-1.633, 6.629e-3
-1.632, 6.552e-3
-1.631, 6.478e-3
-1.630, 6.407e-3
-1.629, 6.342e-3
-1.628, 6.274e-3
-1.627, 6.200e-3
-1.626, 6.123e-3
-1.625, 6.055e-3
-1.624, 6.000e-3
-1.623, 5.951e-3
-1.622, 5.901e-3
-1.621, 5.840e-3
-1.620, 5.769e-3
-1.619, 5.698e-3
-1.618, 5.630e-3
-1.617, 5.565e-3
-1.616, 5.500e-3
-1.615, 5.442e-3
-1.614, 5.377e-3
-1.613, 5.312e-3
-1.612, 5.245e-3
-1.611, 5.183e-3
-1.610, 5.127e-3
-1.609, 5.075e-3
-1.608, 5.026e-3
-1.607, 4.967e-3
-1.606, 4.905e-3
-1.605, 4.841e-3
-1.604, 4.779e-3
-1.603, 4.727e-3
-1.602, 4.680e-3
-1.601, 4.631e-3
-1.600, 4.575e-3
-1.599, 4.511e-3
-1.598, 4.449e-3
-1.597, 4.397e-3
-1.596, 4.354e-3
-1.595, 4.307e-3
-1.594, 4.249e-3
-1.593, 4.187e-3
-1.592, 4.122e-3
-1.591, 4.064e-3
-1.590, 4.014e-3
-1.589, 3.965e-3
-1.588, 3.916e-3
-1.587, 3.857e-3
-1.586, 3.799e-3
-1.585, 3.743e-3
-1.584, 3.694e-3
-1.583, 3.651e-3
-1.582, 3.607e-3
-1.581, 3.567e-3
-1.580, 3.515e-3
-1.579, 3.459e-3
-1.578, 3.410e-3
-1.577, 3.367e-3
-1.576, 3.327e-3
-1.575, 3.281e-3
-1.574, 3.231e-3
-1.573, 3.179e-3
-1.572, 3.123e-3
-1.571, 3.077e-3
-1.570, 3.037e-3
-1.569, 2.997e-3
-1.568, 2.957e-3
-1.567, 2.911e-3
-1.566, 2.861e-3
-1.565, 2.815e-3
-1.564, 2.772e-3
-1.563, 2.738e-3
-1.562, 2.704e-3
-1.561, 2.664e-3
-1.560, 2.618e-3
-1.559, 2.571e-3
-1.558, 2.531e-3
-1.557, 2.491e-3
-1.556, 2.460e-3
-1.555, 2.427e-3
-1.554, 2.386e-3
-1.553, 2.340e-3
-1.552, 2.297e-3
-1.551, 2.257e-3
-1.550, 2.223e-3
-1.549, 2.192e-3
-1.548, 2.158e-3
-1.547, 2.118e-3
-1.546, 2.075e-3
-1.545, 2.035e-3
-1.544, 2.004e-3
-1.543, 1.980e-3
-1.542, 1.952e-3
-1.541, 1.921e-3
-1.540, 1.884e-3
-1.539, 1.847e-3
-1.538, 1.813e-3
-1.537, 1.782e-3
-1.536, 1.758e-3
-1.535, 1.730e-3
-1.534, 1.693e-3
-1.533, 1.656e-3
-1.532, 1.619e-3
-1.531, 1.588e-3
-1.530, 1.563e-3
-1.529, 1.542e-3
-1.528, 1.514e-3
-1.527, 1.483e-3
-1.526, 1.449e-3
-1.525, 1.421e-3
-1.524, 1.400e-3
-1.523, 1.378e-3
-1.522, 1.357e-3
-1.521, 1.329e-3
-1.520, 1.298e-3
-1.519, 1.267e-3
-1.518, 1.243e-3
-1.517, 1.224e-3
-1.516, 1.206e-3
-1.515, 1.184e-3
-1.514, 1.159e-3
-1.513, 1.132e-3
-1.512, 1.104e-3
-1.511, 1.082e-3
-1.510, 1.067e-3
-1.509, 1.048e-3
-1.508, 1.030e-3
-1.507, 1.005e-3
-1.506, 9.775e-4
-1.505, 9.559e-4
-1.504, 9.374e-4
-1.503, 9.251e-4
-1.502, 9.097e-4
-1.501, 8.912e-4
-1.500, 8.665e-4
-1.499, 8.418e-4
-1.498, 8.233e-4
-1.497, 8.110e-4
-1.496, 7.987e-4
-1.495, 7.833e-4
-1.494, 7.617e-4
-1.493, 7.432e-4
-1.492, 7.216e-4
-1.491, 7.062e-4
-1.490, 6.969e-4
-1.489, 6.877e-4
-1.488, 6.723e-4
-1.487, 6.538e-4
-1.486, 6.322e-4
-1.485, 6.168e-4
-1.484, 6.044e-4
-1.483, 5.983e-4
-1.482, 5.859e-4
-1.481, 5.705e-4
-1.480, 5.551e-4
-1.479, 5.366e-4
-1.478, 5.243e-4
-1.477, 5.150e-4
-1.476, 5.120e-4
-1.475, 4.996e-4
-1.474, 4.842e-4
-1.473, 4.657e-4
-1.472, 4.534e-4
-1.471, 4.441e-4
-1.470, 4.380e-4
-1.469, 4.318e-4
-1.468, 4.195e-4
-1.467, 4.071e-4
-1.466, 3.917e-4
-1.465, 3.794e-4
-1.464, 3.763e-4
-1.463, 3.701e-4
-1.462, 3.640e-4
-1.461, 3.516e-4
-1.460, 3.362e-4
-1.459, 3.239e-4
-1.458, 3.146e-4
-1.457, 3.115e-4
-1.456, 3.115e-4
-1.455, 3.054e-4
-1.454, 2.900e-4
-1.453, 2.776e-4
-1.452, 2.684e-4
-1.451, 2.622e-4
-1.450, 2.622e-4
-1.449, 2.591e-4
-1.448, 2.499e-4
-1.447, 2.406e-4
-1.446, 2.252e-4
-1.445, 2.191e-4
-1.444, 2.191e-4
-1.443, 2.160e-4
-1.442, 2.129e-4
-1.441, 2.036e-4
-1.440, 1.913e-4
-1.439, 1.821e-4
-1.438, 1.759e-4
-1.437, 1.759e-4
-1.436, 1.790e-4
-1.435, 1.728e-4
-1.434, 1.636e-4
-1.433, 1.512e-4
-1.432, 1.451e-4
-1.431, 1.420e-4
-1.430, 1.420e-4
-1.429, 1.420e-4
-1.428, 1.358e-4
-1.427, 1.266e-4
-1.426, 1.173e-4
-1.425, 1.111e-4
-1.424, 1.111e-4
-1.423, 1.142e-4
-1.422, 1.142e-4
-1.421, 1.081e-4
-1.420, 9.573e-5
-1.419, 8.648e-5
-1.418, 8.340e-5
-1.417, 8.648e-5
-1.416, 8.957e-5
-1.415, 8.648e-5
-1.414, 7.723e-5
-1.413, 7.107e-5
-1.412, 6.182e-5
-1.411, 6.182e-5
-1.410, 6.490e-5
-1.409, 6.490e-5
-1.408, 6.182e-5
-1.407, 5.257e-5
-1.406, 4.332e-5
-1.405, 4.024e-5
-1.404, 4.332e-5
-1.403, 4.640e-5
-1.402, 4.640e-5
-1.401, 4.024e-5
-1.400, 3.099e-5
-1.399, 2.482e-5
-1.398, 2.174e-5
-1.397, 2.482e-5
-1.396, 3.099e-5
-1.395, 2.790e-5
-1.394, 2.174e-5
-1.393, 1.249e-5
-1.392, 6.322e-6
-1.391, 6.322e-6
-1.390, 1.249e-5
-1.389, 1.557e-5
-1.388, 9.405e-6
-1.387, 3.239e-6
-1.386, -2.927e-6
-1.385, -9.093e-6
-1.384, -2.927e-6
-1.383, -2.927e-6
-1.382, 1.559e-7
-1.381, -2.927e-6
-1.380, -1.218e-5
-1.379, -1.834e-5
-1.378, -1.834e-5
-1.377, -1.526e-5
-1.376, -9.093e-6
-1.375, -1.218e-5
-1.374, -1.834e-5
-1.373, -2.451e-5
-1.372, -3.376e-5
-1.371, -3.068e-5
-1.370, -2.451e-5
-1.369, -2.143e-5
-1.368, -2.451e-5
-1.367, -3.068e-5
-1.366, -3.684e-5
-1.365, -3.992e-5
-1.364, -3.684e-5
-1.363, -3.068e-5
-1.362, -3.068e-5
-1.361, -3.376e-5
-1.360, -4.301e-5
-1.359, -4.917e-5
-1.358, -4.917e-5
-1.357, -4.301e-5
-1.356, -3.992e-5
-1.355, -3.992e-5
-1.354, -4.301e-5
-1.353, -5.226e-5
-1.352, -5.842e-5
-1.351, -5.534e-5
-1.350, -4.917e-5
-1.349, -4.609e-5
-1.348, -4.917e-5
-1.347, -5.534e-5
-1.346, -6.151e-5
-1.345, -6.459e-5
-1.344, -6.151e-5
-1.343, -5.534e-5
-1.342, -5.226e-5
-1.341, -5.534e-5
-1.340, -6.459e-5
-1.339, -7.076e-5
-1.338, -7.076e-5
-1.337, -6.459e-5
-1.336, -5.842e-5
-1.335, -5.842e-5
-1.334, -6.459e-5
-1.333, -7.076e-5
-1.332, -7.692e-5
-1.331, -7.692e-5
-1.330, -6.767e-5
-1.329, -6.459e-5
-1.328, -6.459e-5
-1.327, -7.076e-5
-1.326, -8.000e-5
-1.325, -8.000e-5
-1.324, -8.000e-5
-1.323, -7.076e-5
-1.322, -6.767e-5
-1.321, -7.076e-5
-1.320, -8.000e-5
-1.319, -8.617e-5
-1.318, -8.617e-5
-1.317, -8.000e-5
-1.316, -7.384e-5
-1.315, -7.384e-5
-1.314, -8.000e-5
-1.313, -8.617e-5
-1.312, -9.234e-5
-1.311, -9.234e-5
-1.310, -8.309e-5
-1.309, -7.692e-5
-1.308, -8.000e-5
-1.307, -8.617e-5
-1.306, -9.234e-5
-1.305, -9.542e-5
-1.304, -9.234e-5
-1.303, -8.617e-5
-1.302, -8.000e-5
-1.301, -8.309e-5
-1.300, -9.234e-5
-1.299, -9.850e-5
-1.298, -9.850e-5
-1.297, -9.542e-5
-1.296, -8.617e-5
-1.295, -8.617e-5
-1.294, -9.234e-5
-1.293, -9.850e-5
-1.292, -1.016e-4
-1.291, -1.016e-4
-1.290, -9.234e-5
-1.289, -8.925e-5
-1.288, -8.925e-5
-1.287, -9.542e-5
-1.286, -1.047e-4
-1.285, -1.078e-4
-1.284, -1.016e-4
-1.283, -9.542e-5
-1.282, -9.234e-5
-1.281, -9.234e-5
-1.280, -1.016e-4
-1.279, -1.078e-4
-1.278, -1.078e-4
-1.277, -1.016e-4
-1.276, -9.542e-5
-1.275, -9.542e-5
-1.274, -9.850e-5
-1.273, -1.078e-4
-1.272, -1.108e-4
-1.271, -1.108e-4
-1.270, -1.047e-4
-1.269, -9.542e-5
-1.268, -9.850e-5
-1.267, -1.016e-4
-1.266, -1.108e-4
-1.265, -1.139e-4
-1.264, -1.078e-4
-1.263, -1.016e-4
-1.262, -9.850e-5
-1.261, -9.850e-5
-1.260, -1.078e-4
-1.259, -1.139e-4
-1.258, -1.139e-4
-1.257, -1.108e-4
-1.256, -1.016e-4
-1.255, -1.016e-4
-1.254, -1.078e-4
-1.253, -1.108e-4
-1.252, -1.170e-4
-1.251, -1.170e-4
-1.250, -1.078e-4
-1.249, -1.016e-4
-1.248, -1.016e-4
-1.247, -1.078e-4
-1.246, -1.170e-4
-1.245, -1.201e-4
-1.244, -1.139e-4
-1.243, -1.078e-4
-1.242, -1.016e-4
-1.241, -1.047e-4
-1.240, -1.139e-4
-1.239, -1.201e-4
-1.238, -1.201e-4
-1.237, -1.139e-4
-1.236, -1.047e-4
-1.235, -1.047e-4
-1.234, -1.078e-4
-1.233, -1.139e-4
-1.232, -1.201e-4
-1.231, -1.170e-4
-1.230, -1.108e-4
-1.229, -1.047e-4
-1.228, -1.047e-4
-1.227, -1.108e-4
-1.226, -1.201e-4
-1.225, -1.201e-4
-1.224, -1.170e-4
-1.223, -1.078e-4
-1.222, -1.047e-4
-1.221, -1.078e-4
-1.220, -1.139e-4
-1.219, -1.201e-4
-1.218, -1.201e-4
-1.217, -1.139e-4
-1.216, -1.047e-4
-1.215, -1.047e-4
-1.214, -1.108e-4
-1.213, -1.170e-4
-1.212, -1.232e-4
-1.211, -1.201e-4
-1.210, -1.139e-4
-1.209, -1.047e-4
-1.208, -1.047e-4
-1.207, -1.108e-4
-1.206, -1.201e-4
-1.205, -1.201e-4
-1.204, -1.170e-4
-1.203, -1.108e-4
-1.202, -1.047e-4
-1.201, -1.078e-4
-1.200, -1.139e-4
-1.199, -1.232e-4
-1.198, -1.201e-4
-1.197, -1.139e-4
-1.196, -1.078e-4
-1.195, -1.047e-4
-1.194, -1.078e-4
-1.193, -1.170e-4
-1.192, -1.201e-4
-1.191, -1.201e-4
-1.190, -1.108e-4
-1.189, -1.047e-4
-1.188, -1.047e-4
-1.187, -1.108e-4
-1.186, -1.170e-4
-1.185, -1.201e-4
-1.184, -1.170e-4
-1.183, -1.078e-4
-1.182, -1.047e-4
-1.181, -1.078e-4
-1.180, -1.139e-4
-1.179, -1.201e-4
-1.178, -1.201e-4
-1.177, -1.139e-4
-1.176, -1.047e-4
-1.175, -1.047e-4
-1.174, -1.078e-4
-1.173, -1.139e-4
-1.172, -1.201e-4
-1.171, -1.170e-4
-1.170, -1.108e-4
-1.169, -1.047e-4
-1.168, -1.047e-4
-1.167, -1.108e-4
-1.166, -1.170e-4
-1.165, -1.170e-4
-1.164, -1.139e-4
-1.163, -1.078e-4
-1.162, -1.016e-4
-1.161, -1.047e-4
-1.160, -1.108e-4
-1.159, -1.170e-4
-1.158, -1.201e-4
-1.157, -1.108e-4
-1.156, -1.047e-4
-1.155, -1.047e-4
-1.154, -1.078e-4
-1.153, -1.139e-4
-1.152, -1.170e-4
-1.151, -1.170e-4
-1.150, -1.078e-4
-1.149, -1.016e-4
-1.148, -1.016e-4
-1.147, -1.078e-4
-1.146, -1.170e-4
-1.145, -1.170e-4
-1.144, -1.139e-4
-1.143, -1.078e-4
-1.142, -1.016e-4
-1.141, -1.047e-4
-1.140, -1.139e-4
-1.139, -1.170e-4
-1.138, -1.201e-4
-1.137, -1.139e-4
-1.136, -1.047e-4
-1.135, -1.016e-4
-1.134, -1.078e-4
-1.133, -1.108e-4
-1.132, -1.170e-4
-1.131, -1.139e-4
-1.130, -1.078e-4
-1.129, -1.047e-4
-1.128, -1.016e-4
-1.127, -1.078e-4
-1.126, -1.170e-4
-1.125, -1.201e-4
-1.124, -1.170e-4
-1.123, -1.078e-4
-1.122, -1.047e-4
-1.121, -1.078e-4
-1.120, -1.139e-4
-1.119, -1.170e-4
-1.118, -1.201e-4
-1.117, -1.139e-4
-1.116, -1.047e-4
-1.115, -1.047e-4
-1.114, -1.078e-4
-1.113, -1.170e-4
-1.112, -1.201e-4
-1.111, -1.201e-4
-1.110, -1.108e-4
-1.109, -1.047e-4
-1.108, -1.078e-4
-1.107, -1.108e-4
-1.106, -1.201e-4
-1.105, -1.232e-4
-1.104, -1.170e-4
-1.103, -1.108e-4
-1.102, -1.047e-4
-1.101, -1.078e-4
-1.100, -1.170e-4
-1.099, -1.232e-4
-1.098, -1.232e-4
-1.097, -1.170e-4
-1.096, -1.108e-4
-1.095, -1.078e-4
-1.094, -1.108e-4
-1.093, -1.201e-4
-1.092, -1.263e-4
-1.091, -1.232e-4
-1.090, -1.170e-4
-1.089, -1.108e-4
-1.088, -1.108e-4
-1.087, -1.170e-4
-1.086, -1.263e-4
-1.085, -1.263e-4
-1.084, -1.232e-4
-1.083, -1.170e-4
-1.082, -1.108e-4
-1.081, -1.170e-4
-1.080, -1.232e-4
-1.079, -1.293e-4
-1.078, -1.293e-4
-1.077, -1.263e-4
-1.076, -1.201e-4
-1.075, -1.170e-4
-1.074, -1.232e-4
-1.073, -1.293e-4
-1.072, -1.355e-4
-1.071, -1.355e-4
-1.070, -1.263e-4
-1.069, -1.201e-4
-1.068, -1.201e-4
-1.067, -1.263e-4
-1.066, -1.355e-4
-1.065, -1.386e-4
-1.064, -1.355e-4
-1.063, -1.293e-4
-1.062, -1.232e-4
-1.061, -1.263e-4
-1.060, -1.355e-4
-1.059, -1.448e-4
-1.058, -1.448e-4
-1.057, -1.417e-4
-1.056, -1.324e-4
-1.055, -1.324e-4
-1.054, -1.355e-4
-1.053, -1.417e-4
-1.052, -1.509e-4
-1.051, -1.478e-4
-1.050, -1.417e-4
-1.049, -1.355e-4
-1.048, -1.355e-4
-1.047, -1.417e-4
-1.046, -1.509e-4
-1.045, -1.571e-4
-1.044, -1.540e-4
-1.043, -1.478e-4
-1.042, -1.417e-4
-1.041, -1.448e-4
-1.040, -1.540e-4
-1.039, -1.632e-4
-1.038, -1.632e-4
-1.037, -1.602e-4
-1.036, -1.509e-4
-1.035, -1.509e-4
-1.034, -1.540e-4
-1.033, -1.632e-4
-1.032, -1.694e-4
-1.031, -1.694e-4
-1.030, -1.663e-4
-1.029, -1.571e-4
-1.028, -1.571e-4
-1.027, -1.663e-4
-1.026, -1.756e-4
-1.025, -1.817e-4
-1.024, -1.787e-4
-1.023, -1.725e-4
-1.022, -1.663e-4
-1.021, -1.694e-4
-1.020, -1.756e-4
-1.019, -1.879e-4
-1.018, -1.910e-4
-1.017, -1.879e-4
-1.016, -1.787e-4
-1.015, -1.756e-4
-1.014, -1.817e-4
-1.013, -1.910e-4
-1.012, -2.002e-4
-1.011, -2.002e-4
-1.010, -1.941e-4
-1.009, -1.879e-4
-1.008, -1.848e-4
-1.007, -1.941e-4
-1.006, -2.064e-4
-1.005, -2.095e-4
-1.004, -2.095e-4
-1.003, -2.033e-4
-1.002, -1.972e-4
-1.001, -2.002e-4
