Oct. 25, 2024   19:02:55
Linear Sweep Voltammetry
File: c:/users/guazh/data/banditlqv2round1/2024-10-24-exp598\pre-regen-2024-10-25t18_58_27-lsvinphos\pre-regen_lsv_50mvs_efin_-2100mv.bin
Data Source:  Experiment
Instrument Model:  CHI760E
Header: LSV ran at 50 mVs with Efin at -2100mV
Note: 

Init E (V) = -0.6
Final E (V) = -2.1
Scan Rate (V/s) = 0.05
Sample Interval (V) = 0.001
Quiet Time (sec) = 2
Sensitivity (A/V) = 1e-4
Comp R (ohm) = 6.9

Results:

Channel 1:

Potential/V, Current/A

-0.600, 5.313e-7
-0.601, 5.736e-7
-0.602, 5.857e-7
-0.603, 5.931e-7
-0.604, 6.000e-7
-0.605, 6.059e-7
-0.606, 6.128e-7
-0.607, 6.176e-7
-0.608, 6.230e-7
-0.609, 6.291e-7
-0.610, 6.348e-7
-0.611, 6.410e-7
-0.612, 6.448e-7
-0.613, 6.494e-7
-0.614, 6.564e-7
-0.615, 6.626e-7
-0.616, 6.674e-7
-0.617, 6.716e-7
-0.618, 6.758e-7
-0.619, 6.806e-7
-0.620, 6.868e-7
-0.621, 6.923e-7
-0.622, 6.965e-7
-0.623, 7.017e-7
-0.624, 7.062e-7
-0.625, 7.110e-7
-0.626, 7.182e-7
-0.627, 7.226e-7
-0.628, 7.268e-7
-0.629, 7.317e-7
-0.630, 7.381e-7
-0.631, 7.430e-7
-0.632, 7.469e-7
-0.633, 7.531e-7
-0.634, 7.573e-7
-0.635, 7.635e-7
-0.636, 7.697e-7
-0.637, 7.743e-7
-0.638, 7.809e-7
-0.639, 7.859e-7
-0.640, 7.928e-7
-0.641, 7.984e-7
-0.642, 8.032e-7
-0.643, 8.105e-7
-0.644, 8.165e-7
-0.645, 8.228e-7
-0.646, 8.298e-7
-0.647, 8.351e-7
-0.648, 8.411e-7
-0.649, 8.463e-7
-0.650, 8.549e-7
-0.651, 8.598e-7
-0.652, 8.658e-7
-0.653, 8.720e-7
-0.654, 8.780e-7
-0.655, 8.857e-7
-0.656, 8.926e-7
-0.657, 8.984e-7
-0.658, 9.050e-7
-0.659, 9.121e-7
-0.660, 9.201e-7
-0.661, 9.266e-7
-0.662, 9.337e-7
-0.663, 9.405e-7
-0.664, 9.474e-7
-0.665, 9.569e-7
-0.666, 9.648e-7
-0.667, 9.708e-7
-0.668, 9.777e-7
-0.669, 9.851e-7
-0.670, 9.928e-7
-0.671, 1.001e-6
-0.672, 1.008e-6
-0.673, 1.016e-6
-0.674, 1.024e-6
-0.675, 1.033e-6
-0.676, 1.041e-6
-0.677, 1.049e-6
-0.678, 1.058e-6
-0.679, 1.066e-6
-0.680, 1.076e-6
-0.681, 1.085e-6
-0.682, 1.091e-6
-0.683, 1.100e-6
-0.684, 1.108e-6
-0.685, 1.118e-6
-0.686, 1.128e-6
-0.687, 1.135e-6
-0.688, 1.145e-6
-0.689, 1.153e-6
-0.690, 1.165e-6
-0.691, 1.175e-6
-0.692, 1.183e-6
-0.693, 1.193e-6
-0.694, 1.204e-6
-0.695, 1.213e-6
-0.696, 1.224e-6
-0.697, 1.234e-6
-0.698, 1.244e-6
-0.699, 1.253e-6
-0.700, 1.265e-6
-0.701, 1.276e-6
-0.702, 1.285e-6
-0.703, 1.296e-6
-0.704, 1.308e-6
-0.705, 1.320e-6
-0.706, 1.332e-6
-0.707, 1.342e-6
-0.708, 1.354e-6
-0.709, 1.365e-6
-0.710, 1.378e-6
-0.711, 1.389e-6
-0.712, 1.399e-6
-0.713, 1.412e-6
-0.714, 1.423e-6
-0.715, 1.437e-6
-0.716, 1.451e-6
-0.717, 1.463e-6
-0.718, 1.474e-6
-0.719, 1.488e-6
-0.720, 1.502e-6
-0.721, 1.516e-6
-0.722, 1.528e-6
-0.723, 1.542e-6
-0.724, 1.556e-6
-0.725, 1.570e-6
-0.726, 1.585e-6
-0.727, 1.598e-6
-0.728, 1.613e-6
-0.729, 1.626e-6
-0.730, 1.642e-6
-0.731, 1.657e-6
-0.732, 1.671e-6
-0.733, 1.685e-6
-0.734, 1.699e-6
-0.735, 1.716e-6
-0.736, 1.732e-6
-0.737, 1.746e-6
-0.738, 1.761e-6
-0.739, 1.776e-6
-0.740, 1.794e-6
-0.741, 1.810e-6
-0.742, 1.825e-6
-0.743, 1.842e-6
-0.744, 1.859e-6
-0.745, 1.878e-6
-0.746, 1.894e-6
-0.747, 1.910e-6
-0.748, 1.927e-6
-0.749, 1.944e-6
-0.750, 1.963e-6
-0.751, 1.980e-6
-0.752, 1.997e-6
-0.753, 2.016e-6
-0.754, 2.034e-6
-0.755, 2.053e-6
-0.756, 2.074e-6
-0.757, 2.092e-6
-0.758, 2.111e-6
-0.759, 2.130e-6
-0.760, 2.149e-6
-0.761, 2.169e-6
-0.762, 2.187e-6
-0.763, 2.206e-6
-0.764, 2.224e-6
-0.765, 2.246e-6
-0.766, 2.264e-6
-0.767, 2.284e-6
-0.768, 2.306e-6
-0.769, 2.328e-6
-0.770, 2.349e-6
-0.771, 2.370e-6
-0.772, 2.392e-6
-0.773, 2.414e-6
-0.774, 2.435e-6
-0.775, 2.457e-6
-0.776, 2.479e-6
-0.777, 2.499e-6
-0.778, 2.523e-6
-0.779, 2.546e-6
-0.780, 2.569e-6
-0.781, 2.593e-6
-0.782, 2.617e-6
-0.783, 2.641e-6
-0.784, 2.663e-6
-0.785, 2.690e-6
-0.786, 2.712e-6
-0.787, 2.736e-6
-0.788, 2.760e-6
-0.789, 2.784e-6
-0.790, 2.811e-6
-0.791, 2.837e-6
-0.792, 2.861e-6
-0.793, 2.886e-6
-0.794, 2.913e-6
-0.795, 2.940e-6
-0.796, 2.965e-6
-0.797, 2.989e-6
-0.798, 3.016e-6
-0.799, 3.042e-6
-0.800, 3.071e-6
-0.801, 3.098e-6
-0.802, 3.124e-6
-0.803, 3.152e-6
-0.804, 3.179e-6
-0.805, 3.207e-6
-0.806, 3.236e-6
-0.807, 3.263e-6
-0.808, 3.290e-6
-0.809, 3.319e-6
-0.810, 3.349e-6
-0.811, 3.378e-6
-0.812, 3.406e-6
-0.813, 3.436e-6
-0.814, 3.465e-6
-0.815, 3.496e-6
-0.816, 3.524e-6
-0.817, 3.552e-6
-0.818, 3.581e-6
-0.819, 3.615e-6
-0.820, 3.649e-6
-0.821, 3.678e-6
-0.822, 3.707e-6
-0.823, 3.737e-6
-0.824, 3.767e-6
-0.825, 3.800e-6
-0.826, 3.832e-6
-0.827, 3.863e-6
-0.828, 3.894e-6
-0.829, 3.925e-6
-0.830, 3.957e-6
-0.831, 3.987e-6
-0.832, 4.019e-6
-0.833, 4.051e-6
-0.834, 4.083e-6
-0.835, 4.115e-6
-0.836, 4.147e-6
-0.837, 4.178e-6
-0.838, 4.209e-6
-0.839, 4.240e-6
-0.840, 4.274e-6
-0.841, 4.307e-6
-0.842, 4.339e-6
-0.843, 4.371e-6
-0.844, 4.403e-6
-0.845, 4.439e-6
-0.846, 4.472e-6
-0.847, 4.504e-6
-0.848, 4.539e-6
-0.849, 4.573e-6
-0.850, 4.607e-6
-0.851, 4.640e-6
-0.852, 4.673e-6
-0.853, 4.705e-6
-0.854, 4.739e-6
-0.855, 4.774e-6
-0.856, 4.808e-6
-0.857, 4.840e-6
-0.858, 4.874e-6
-0.859, 4.906e-6
-0.860, 4.940e-6
-0.861, 4.974e-6
-0.862, 5.008e-6
-0.863, 5.041e-6
-0.864, 5.076e-6
-0.865, 5.110e-6
-0.866, 5.143e-6
-0.867, 5.176e-6
-0.868, 5.210e-6
-0.869, 5.243e-6
-0.870, 5.278e-6
-0.871, 5.313e-6
-0.872, 5.343e-6
-0.873, 5.378e-6
-0.874, 5.408e-6
-0.875, 5.442e-6
-0.876, 5.476e-6
-0.877, 5.508e-6
-0.878, 5.542e-6
-0.879, 5.574e-6
-0.880, 5.606e-6
-0.881, 5.639e-6
-0.882, 5.670e-6
-0.883, 5.701e-6
-0.884, 5.734e-6
-0.885, 5.767e-6
-0.886, 5.799e-6
-0.887, 5.829e-6
-0.888, 5.860e-6
-0.889, 5.890e-6
-0.890, 5.919e-6
-0.891, 5.948e-6
-0.892, 5.977e-6
-0.893, 6.008e-6
-0.894, 6.037e-6
-0.895, 6.068e-6
-0.896, 6.099e-6
-0.897, 6.127e-6
-0.898, 6.154e-6
-0.899, 6.182e-6
-0.900, 6.210e-6
-0.901, 6.236e-6
-0.902, 6.264e-6
-0.903, 6.291e-6
-0.904, 6.318e-6
-0.905, 6.347e-6
-0.906, 6.373e-6
-0.907, 6.398e-6
-0.908, 6.425e-6
-0.909, 6.450e-6
-0.910, 6.477e-6
-0.911, 6.502e-6
-0.912, 6.525e-6
-0.913, 6.550e-6
-0.914, 6.574e-6
-0.915, 6.600e-6
-0.916, 6.623e-6
-0.917, 6.645e-6
-0.918, 6.669e-6
-0.919, 6.690e-6
-0.920, 6.713e-6
-0.921, 6.734e-6
-0.922, 6.755e-6
-0.923, 6.777e-6
-0.924, 6.797e-6
-0.925, 6.817e-6
-0.926, 6.838e-6
-0.927, 6.856e-6
-0.928, 6.874e-6
-0.929, 6.892e-6
-0.930, 6.910e-6
-0.931, 6.928e-6
-0.932, 6.944e-6
-0.933, 6.962e-6
-0.934, 6.978e-6
-0.935, 6.996e-6
-0.936, 7.010e-6
-0.937, 7.024e-6
-0.938, 7.039e-6
-0.939, 7.053e-6
-0.940, 7.067e-6
-0.941, 7.082e-6
-0.942, 7.094e-6
-0.943, 7.107e-6
-0.944, 7.119e-6
-0.945, 7.132e-6
-0.946, 7.143e-6
-0.947, 7.154e-6
-0.948, 7.166e-6
-0.949, 7.175e-6
-0.950, 7.186e-6
-0.951, 7.196e-6
-0.952, 7.204e-6
-0.953, 7.212e-6
-0.954, 7.220e-6
-0.955, 7.229e-6
-0.956, 7.235e-6
-0.957, 7.241e-6
-0.958, 7.249e-6
-0.959, 7.254e-6
-0.960, 7.261e-6
-0.961, 7.266e-6
-0.962, 7.270e-6
-0.963, 7.276e-6
-0.964, 7.278e-6
-0.965, 7.283e-6
-0.966, 7.288e-6
-0.967, 7.289e-6
-0.968, 7.292e-6
-0.969, 7.294e-6
-0.970, 7.298e-6
-0.971, 7.299e-6
-0.972, 7.299e-6
-0.973, 7.301e-6
-0.974, 7.302e-6
-0.975, 7.303e-6
-0.976, 7.303e-6
-0.977, 7.302e-6
-0.978, 7.301e-6
-0.979, 7.301e-6
-0.980, 7.301e-6
-0.981, 7.300e-6
-0.982, 7.296e-6
-0.983, 7.294e-6
-0.984, 7.291e-6
-0.985, 7.290e-6
-0.986, 7.288e-6
-0.987, 7.284e-6
-0.988, 7.279e-6
-0.989, 7.276e-6
-0.990, 7.272e-6
-0.991, 7.269e-6
-0.992, 7.264e-6
-0.993, 7.261e-6
-0.994, 7.254e-6
-0.995, 7.250e-6
-0.996, 7.245e-6
-0.997, 7.239e-6
-0.998, 7.234e-6
-0.999, 7.228e-6
-1.000, 7.223e-6
-1.001, 7.216e-6
-1.002, 7.209e-6
-1.003, 7.202e-6
-1.004, 7.195e-6
-1.005, 7.189e-6
-1.006, 7.182e-6
-1.007, 7.173e-6
-1.008, 7.166e-6
-1.009, 7.158e-6
-1.010, 7.150e-6
-1.011, 7.143e-6
-1.012, 7.135e-6
-1.013, 7.126e-6
-1.014, 7.118e-6
-1.015, 7.110e-6
-1.016, 7.101e-6
-1.017, 7.092e-6
-1.018, 7.083e-6
-1.019, 7.074e-6
-1.020, 7.065e-6
-1.021, 7.056e-6
-1.022, 7.046e-6
-1.023, 7.036e-6
-1.024, 7.027e-6
-1.025, 7.020e-6
-1.026, 7.010e-6
-1.027, 7.000e-6
-1.028, 6.990e-6
-1.029, 6.979e-6
-1.030, 6.971e-6
-1.031, 6.961e-6
-1.032, 6.950e-6
-1.033, 6.941e-6
-1.034, 6.931e-6
-1.035, 6.921e-6
-1.036, 6.910e-6
-1.037, 6.900e-6
-1.038, 6.892e-6
-1.039, 6.880e-6
-1.040, 6.872e-6
-1.041, 6.862e-6
-1.042, 6.851e-6
-1.043, 6.841e-6
-1.044, 6.830e-6
-1.045, 6.821e-6
-1.046, 6.811e-6
-1.047, 6.799e-6
-1.048, 6.788e-6
-1.049, 6.778e-6
-1.050, 6.768e-6
-1.051, 6.760e-6
-1.052, 6.748e-6
-1.053, 6.737e-6
-1.054, 6.727e-6
-1.055, 6.717e-6
-1.056, 6.707e-6
-1.057, 6.697e-6
-1.058, 6.686e-6
-1.059, 6.676e-6
-1.060, 6.665e-6
-1.061, 6.654e-6
-1.062, 6.644e-6
-1.063, 6.635e-6
-1.064, 6.624e-6
-1.065, 6.616e-6
-1.066, 6.605e-6
-1.067, 6.594e-6
-1.068, 6.583e-6
-1.069, 6.574e-6
-1.070, 6.564e-6
-1.071, 6.555e-6
-1.072, 6.543e-6
-1.073, 6.534e-6
-1.074, 6.523e-6
-1.075, 6.516e-6
-1.076, 6.506e-6
-1.077, 6.495e-6
-1.078, 6.485e-6
-1.079, 6.476e-6
-1.080, 6.468e-6
-1.081, 6.458e-6
-1.082, 6.447e-6
-1.083, 6.438e-6
-1.084, 6.429e-6
-1.085, 6.420e-6
-1.086, 6.411e-6
-1.087, 6.402e-6
-1.088, 6.392e-6
-1.089, 6.383e-6
-1.090, 6.373e-6
-1.091, 6.365e-6
-1.092, 6.355e-6
-1.093, 6.346e-6
-1.094, 6.337e-6
-1.095, 6.330e-6
-1.096, 6.321e-6
-1.097, 6.311e-6
-1.098, 6.302e-6
-1.099, 6.293e-6
-1.100, 6.285e-6
-1.101, 6.277e-6
-1.102, 6.268e-6
-1.103, 6.259e-6
-1.104, 6.251e-6
-1.105, 6.244e-6
-1.106, 6.236e-6
-1.107, 6.227e-6
-1.108, 6.219e-6
-1.109, 6.212e-6
-1.110, 6.205e-6
-1.111, 6.197e-6
-1.112, 6.188e-6
-1.113, 6.182e-6
-1.114, 6.175e-6
-1.115, 6.167e-6
-1.116, 6.161e-6
-1.117, 6.152e-6
-1.118, 6.145e-6
-1.119, 6.137e-6
-1.120, 6.131e-6
-1.121, 6.124e-6
-1.122, 6.115e-6
-1.123, 6.108e-6
-1.124, 6.100e-6
-1.125, 6.094e-6
-1.126, 6.087e-6
-1.127, 6.080e-6
-1.128, 6.073e-6
-1.129, 6.066e-6
-1.130, 6.060e-6
-1.131, 6.052e-6
-1.132, 6.045e-6
-1.133, 6.037e-6
-1.134, 6.032e-6
-1.135, 6.026e-6
-1.136, 6.019e-6
-1.137, 6.011e-6
-1.138, 6.004e-6
-1.139, 5.999e-6
-1.140, 5.994e-6
-1.141, 5.987e-6
-1.142, 5.980e-6
-1.143, 5.974e-6
-1.144, 5.968e-6
-1.145, 5.962e-6
-1.146, 5.957e-6
-1.147, 5.950e-6
-1.148, 5.944e-6
-1.149, 5.938e-6
-1.150, 5.934e-6
-1.151, 5.928e-6
-1.152, 5.922e-6
-1.153, 5.918e-6
-1.154, 5.912e-6
-1.155, 5.908e-6
-1.156, 5.903e-6
-1.157, 5.897e-6
-1.158, 5.893e-6
-1.159, 5.888e-6
-1.160, 5.883e-6
-1.161, 5.879e-6
-1.162, 5.872e-6
-1.163, 5.868e-6
-1.164, 5.863e-6
-1.165, 5.859e-6
-1.166, 5.855e-6
-1.167, 5.848e-6
-1.168, 5.844e-6
-1.169, 5.839e-6
-1.170, 5.835e-6
-1.171, 5.830e-6
-1.172, 5.825e-6
-1.173, 5.820e-6
-1.174, 5.815e-6
-1.175, 5.812e-6
-1.176, 5.807e-6
-1.177, 5.802e-6
-1.178, 5.799e-6
-1.179, 5.795e-6
-1.180, 5.791e-6
-1.181, 5.785e-6
-1.182, 5.782e-6
-1.183, 5.777e-6
-1.184, 5.773e-6
-1.185, 5.770e-6
-1.186, 5.765e-6
-1.187, 5.761e-6
-1.188, 5.757e-6
-1.189, 5.752e-6
-1.190, 5.750e-6
-1.191, 5.746e-6
-1.192, 5.742e-6
-1.193, 5.737e-6
-1.194, 5.733e-6
-1.195, 5.731e-6
-1.196, 5.726e-6
-1.197, 5.722e-6
-1.198, 5.719e-6
-1.199, 5.715e-6
-1.200, 5.713e-6
-1.201, 5.709e-6
-1.202, 5.705e-6
-1.203, 5.702e-6
-1.204, 5.699e-6
-1.205, 5.696e-6
-1.206, 5.693e-6
-1.207, 5.688e-6
-1.208, 5.685e-6
-1.209, 5.683e-6
-1.210, 5.680e-6
-1.211, 5.676e-6
-1.212, 5.673e-6
-1.213, 5.669e-6
-1.214, 5.666e-6
-1.215, 5.663e-6
-1.216, 5.661e-6
-1.217, 5.657e-6
-1.218, 5.655e-6
-1.219, 5.652e-6
-1.220, 5.651e-6
-1.221, 5.646e-6
-1.222, 5.644e-6
-1.223, 5.642e-6
-1.224, 5.638e-6
-1.225, 5.637e-6
-1.226, 5.634e-6
-1.227, 5.630e-6
-1.228, 5.627e-6
-1.229, 5.627e-6
-1.230, 5.625e-6
-1.231, 5.622e-6
-1.232, 5.619e-6
-1.233, 5.616e-6
-1.234, 5.613e-6
-1.235, 5.613e-6
-1.236, 5.610e-6
-1.237, 5.606e-6
-1.238, 5.605e-6
-1.239, 5.601e-6
-1.240, 5.600e-6
-1.241, 5.598e-6
-1.242, 5.594e-6
-1.243, 5.593e-6
-1.244, 5.590e-6
-1.245, 5.588e-6
-1.246, 5.587e-6
-1.247, 5.583e-6
-1.248, 5.582e-6
-1.249, 5.580e-6
-1.250, 5.578e-6
-1.251, 5.578e-6
-1.252, 5.576e-6
-1.253, 5.573e-6
-1.254, 5.572e-6
-1.255, 5.571e-6
-1.256, 5.568e-6
-1.257, 5.565e-6
-1.258, 5.563e-6
-1.259, 5.564e-6
-1.260, 5.562e-6
-1.261, 5.560e-6
-1.262, 5.558e-6
-1.263, 5.556e-6
-1.264, 5.555e-6
-1.265, 5.555e-6
-1.266, 5.552e-6
-1.267, 5.551e-6
-1.268, 5.550e-6
-1.269, 5.548e-6
-1.270, 5.549e-6
-1.271, 5.547e-6
-1.272, 5.545e-6
-1.273, 5.543e-6
-1.274, 5.543e-6
-1.275, 5.544e-6
-1.276, 5.542e-6
-1.277, 5.539e-6
-1.278, 5.539e-6
-1.279, 5.537e-6
-1.280, 5.539e-6
-1.281, 5.538e-6
-1.282, 5.536e-6
-1.283, 5.536e-6
-1.284, 5.536e-6
-1.285, 5.536e-6
-1.286, 5.535e-6
-1.287, 5.533e-6
-1.288, 5.532e-6
-1.289, 5.533e-6
-1.290, 5.534e-6
-1.291, 5.533e-6
-1.292, 5.531e-6
-1.293, 5.532e-6
-1.294, 5.532e-6
-1.295, 5.533e-6
-1.296, 5.532e-6
-1.297, 5.532e-6
-1.298, 5.531e-6
-1.299, 5.532e-6
-1.300, 5.533e-6
-1.301, 5.533e-6
-1.302, 5.533e-6
-1.303, 5.533e-6
-1.304, 5.534e-6
-1.305, 5.536e-6
-1.306, 5.537e-6
-1.307, 5.536e-6
-1.308, 5.537e-6
-1.309, 5.538e-6
-1.310, 5.540e-6
-1.311, 5.541e-6
-1.312, 5.541e-6
-1.313, 5.542e-6
-1.314, 5.543e-6
-1.315, 5.546e-6
-1.316, 5.546e-6
-1.317, 5.547e-6
-1.318, 5.548e-6
-1.319, 5.550e-6
-1.320, 5.553e-6
-1.321, 5.554e-6
-1.322, 5.554e-6
-1.323, 5.555e-6
-1.324, 5.558e-6
-1.325, 5.562e-6
-1.326, 5.563e-6
-1.327, 5.565e-6
-1.328, 5.567e-6
-1.329, 5.570e-6
-1.330, 5.572e-6
-1.331, 5.574e-6
-1.332, 5.577e-6
-1.333, 5.579e-6
-1.334, 5.583e-6
-1.335, 5.586e-6
-1.336, 5.588e-6
-1.337, 5.590e-6
-1.338, 5.593e-6
-1.339, 5.595e-6
-1.340, 5.600e-6
-1.341, 5.603e-6
-1.342, 5.605e-6
-1.343, 5.608e-6
-1.344, 5.613e-6
-1.345, 5.618e-6
-1.346, 5.621e-6
-1.347, 5.624e-6
-1.348, 5.628e-6
-1.349, 5.630e-6
-1.350, 5.636e-6
-1.351, 5.639e-6
-1.352, 5.643e-6
-1.353, 5.647e-6
-1.354, 5.652e-6
-1.355, 5.658e-6
-1.356, 5.662e-6
-1.357, 5.667e-6
-1.358, 5.671e-6
-1.359, 5.676e-6
-1.360, 5.683e-6
-1.361, 5.687e-6
-1.362, 5.690e-6
-1.363, 5.697e-6
-1.364, 5.703e-6
-1.365, 5.709e-6
-1.366, 5.715e-6
-1.367, 5.721e-6
-1.368, 5.726e-6
-1.369, 5.733e-6
-1.370, 5.740e-6
-1.371, 5.746e-6
-1.372, 5.751e-6
-1.373, 5.757e-6
-1.374, 5.765e-6
-1.375, 5.773e-6
-1.376, 5.780e-6
-1.377, 5.786e-6
-1.378, 5.792e-6
-1.379, 5.800e-6
-1.380, 5.809e-6
-1.381, 5.815e-6
-1.382, 5.823e-6
-1.383, 5.832e-6
-1.384, 5.838e-6
-1.385, 5.848e-6
-1.386, 5.855e-6
-1.387, 5.863e-6
-1.388, 5.871e-6
-1.389, 5.879e-6
-1.390, 5.888e-6
-1.391, 5.896e-6
-1.392, 5.903e-6
-1.393, 5.911e-6
-1.394, 5.919e-6
-1.395, 5.930e-6
-1.396, 5.938e-6
-1.397, 5.946e-6
-1.398, 5.954e-6
-1.399, 5.965e-6
-1.400, 5.975e-6
-1.401, 5.986e-6
-1.402, 5.995e-6
-1.403, 6.005e-6
-1.404, 6.015e-6
-1.405, 6.027e-6
-1.406, 6.037e-6
-1.407, 6.047e-6
-1.408, 6.058e-6
-1.409, 6.070e-6
-1.410, 6.081e-6
-1.411, 6.092e-6
-1.412, 6.102e-6
-1.413, 6.113e-6
-1.414, 6.126e-6
-1.415, 6.138e-6
-1.416, 6.149e-6
-1.417, 6.159e-6
-1.418, 6.170e-6
-1.419, 6.183e-6
-1.420, 6.196e-6
-1.421, 6.207e-6
-1.422, 6.218e-6
-1.423, 6.230e-6
-1.424, 6.242e-6
-1.425, 6.256e-6
-1.426, 6.268e-6
-1.427, 6.281e-6
-1.428, 6.294e-6
-1.429, 6.308e-6
-1.430, 6.322e-6
-1.431, 6.335e-6
-1.432, 6.348e-6
-1.433, 6.362e-6
-1.434, 6.377e-6
-1.435, 6.393e-6
-1.436, 6.406e-6
-1.437, 6.420e-6
-1.438, 6.434e-6
-1.439, 6.448e-6
-1.440, 6.464e-6
-1.441, 6.478e-6
-1.442, 6.490e-6
-1.443, 6.505e-6
-1.444, 6.520e-6
-1.445, 6.537e-6
-1.446, 6.553e-6
-1.447, 6.567e-6
-1.448, 6.582e-6
-1.449, 6.598e-6
-1.450, 6.615e-6
-1.451, 6.630e-6
-1.452, 6.643e-6
-1.453, 6.660e-6
-1.454, 6.676e-6
-1.455, 6.692e-6
-1.456, 6.708e-6
-1.457, 6.723e-6
-1.458, 6.738e-6
-1.459, 6.755e-6
-1.460, 6.774e-6
-1.461, 6.789e-6
-1.462, 6.807e-6
-1.463, 6.821e-6
-1.464, 6.838e-6
-1.465, 6.855e-6
-1.466, 6.870e-6
-1.467, 6.887e-6
-1.468, 6.903e-6
-1.469, 6.919e-6
-1.470, 6.937e-6
-1.471, 6.952e-6
-1.472, 6.970e-6
-1.473, 6.988e-6
-1.474, 7.004e-6
-1.475, 7.022e-6
-1.476, 7.038e-6
-1.477, 7.054e-6
-1.478, 7.072e-6
-1.479, 7.090e-6
-1.480, 7.108e-6
-1.481, 7.126e-6
-1.482, 7.141e-6
-1.483, 7.158e-6
-1.484, 7.177e-6
-1.485, 7.196e-6
-1.486, 7.214e-6
-1.487, 7.230e-6
-1.488, 7.246e-6
-1.489, 7.263e-6
-1.490, 7.280e-6
-1.491, 7.298e-6
-1.492, 7.314e-6
-1.493, 7.331e-6
-1.494, 7.349e-6
-1.495, 7.367e-6
-1.496, 7.383e-6
-1.497, 7.401e-6
-1.498, 7.418e-6
-1.499, 7.436e-6
-1.500, 7.455e-6
-1.501, 7.472e-6
-1.502, 7.488e-6
-1.503, 7.506e-6
-1.504, 7.524e-6
-1.505, 7.543e-6
-1.506, 7.559e-6
-1.507, 7.577e-6
-1.508, 7.595e-6
-1.509, 7.612e-6
-1.510, 7.631e-6
-1.511, 7.651e-6
-1.512, 7.670e-6
-1.513, 7.686e-6
-1.514, 7.703e-6
-1.515, 7.723e-6
-1.516, 7.740e-6
-1.517, 7.755e-6
-1.518, 7.774e-6
-1.519, 7.790e-6
-1.520, 7.808e-6
-1.521, 7.825e-6
-1.522, 7.842e-6
-1.523, 7.860e-6
-1.524, 7.878e-6
-1.525, 7.895e-6
-1.526, 7.913e-6
-1.527, 7.929e-6
-1.528, 7.947e-6
-1.529, 7.965e-6
-1.530, 7.983e-6
-1.531, 7.999e-6
-1.532, 8.016e-6
-1.533, 8.033e-6
-1.534, 8.050e-6
-1.535, 8.069e-6
-1.536, 8.085e-6
-1.537, 8.103e-6
-1.538, 8.119e-6
-1.539, 8.136e-6
-1.540, 8.157e-6
-1.541, 8.173e-6
-1.542, 8.191e-6
-1.543, 8.208e-6
-1.544, 8.228e-6
-1.545, 8.247e-6
-1.546, 8.265e-6
-1.547, 8.280e-6
-1.548, 8.298e-6
-1.549, 8.314e-6
-1.550, 8.334e-6
-1.551, 8.349e-6
-1.552, 8.365e-6
-1.553, 8.382e-6
-1.554, 8.399e-6
-1.555, 8.419e-6
-1.556, 8.436e-6
-1.557, 8.452e-6
-1.558, 8.470e-6
-1.559, 8.488e-6
-1.560, 8.506e-6
-1.561, 8.525e-6
-1.562, 8.541e-6
-1.563, 8.558e-6
-1.564, 8.576e-6
-1.565, 8.594e-6
-1.566, 8.611e-6
-1.567, 8.626e-6
-1.568, 8.642e-6
-1.569, 8.662e-6
-1.570, 8.681e-6
-1.571, 8.698e-6
-1.572, 8.716e-6
-1.573, 8.733e-6
-1.574, 8.754e-6
-1.575, 8.774e-6
-1.576, 8.791e-6
-1.577, 8.808e-6
-1.578, 8.825e-6
-1.579, 8.844e-6
-1.580, 8.863e-6
-1.581, 8.881e-6
-1.582, 8.899e-6
-1.583, 8.916e-6
-1.584, 8.937e-6
-1.585, 8.957e-6
-1.586, 8.976e-6
-1.587, 8.996e-6
-1.588, 9.015e-6
-1.589, 9.036e-6
-1.590, 9.057e-6
-1.591, 9.075e-6
-1.592, 9.095e-6
-1.593, 9.114e-6
-1.594, 9.134e-6
-1.595, 9.155e-6
-1.596, 9.175e-6
-1.597, 9.196e-6
-1.598, 9.218e-6
-1.599, 9.239e-6
-1.600, 9.262e-6
-1.601, 9.283e-6
-1.602, 9.304e-6
-1.603, 9.324e-6
-1.604, 9.346e-6
-1.605, 9.369e-6
-1.606, 9.391e-6
-1.607, 9.411e-6
-1.608, 9.433e-6
-1.609, 9.457e-6
-1.610, 9.482e-6
-1.611, 9.504e-6
-1.612, 9.526e-6
-1.613, 9.550e-6
-1.614, 9.575e-6
-1.615, 9.601e-6
-1.616, 9.623e-6
-1.617, 9.647e-6
-1.618, 9.671e-6
-1.619, 9.696e-6
-1.620, 9.723e-6
-1.621, 9.748e-6
-1.622, 9.774e-6
-1.623, 9.798e-6
-1.624, 9.825e-6
-1.625, 9.854e-6
-1.626, 9.880e-6
-1.627, 9.907e-6
-1.628, 9.932e-6
-1.629, 9.961e-6
-1.630, 9.991e-6
-1.631, 1.002e-5
-1.632, 1.004e-5
-1.633, 1.007e-5
-1.634, 1.010e-5
-1.635, 1.013e-5
-1.636, 1.016e-5
-1.637, 1.019e-5
-1.638, 1.022e-5
-1.639, 1.025e-5
-1.640, 1.028e-5
-1.641, 1.031e-5
-1.642, 1.034e-5
-1.643, 1.037e-5
-1.644, 1.041e-5
-1.645, 1.044e-5
-1.646, 1.047e-5
-1.647, 1.050e-5
-1.648, 1.054e-5
-1.649, 1.057e-5
-1.650, 1.061e-5
-1.651, 1.065e-5
-1.652, 1.068e-5
-1.653, 1.072e-5
-1.654, 1.075e-5
-1.655, 1.079e-5
-1.656, 1.083e-5
-1.657, 1.086e-5
-1.658, 1.090e-5
-1.659, 1.094e-5
-1.660, 1.098e-5
-1.661, 1.102e-5
-1.662, 1.106e-5
-1.663, 1.110e-5
-1.664, 1.114e-5
-1.665, 1.118e-5
-1.666, 1.122e-5
-1.667, 1.126e-5
-1.668, 1.130e-5
-1.669, 1.135e-5
-1.670, 1.139e-5
-1.671, 1.144e-5
-1.672, 1.148e-5
-1.673, 1.152e-5
-1.674, 1.157e-5
-1.675, 1.162e-5
-1.676, 1.167e-5
-1.677, 1.171e-5
-1.678, 1.176e-5
-1.679, 1.181e-5
-1.680, 1.186e-5
-1.681, 1.191e-5
-1.682, 1.196e-5
-1.683, 1.201e-5
-1.684, 1.205e-5
-1.685, 1.210e-5
-1.686, 1.215e-5
-1.687, 1.220e-5
-1.688, 1.225e-5
-1.689, 1.231e-5
-1.690, 1.237e-5
-1.691, 1.242e-5
-1.692, 1.248e-5
-1.693, 1.254e-5
-1.694, 1.260e-5
-1.695, 1.266e-5
-1.696, 1.272e-5
-1.697, 1.278e-5
-1.698, 1.283e-5
-1.699, 1.290e-5
-1.700, 1.296e-5
-1.701, 1.302e-5
-1.702, 1.309e-5
-1.703, 1.315e-5
-1.704, 1.322e-5
-1.705, 1.329e-5
-1.706, 1.335e-5
-1.707, 1.342e-5
-1.708, 1.349e-5
-1.709, 1.356e-5
-1.710, 1.364e-5
-1.711, 1.371e-5
-1.712, 1.378e-5
-1.713, 1.385e-5
-1.714, 1.393e-5
-1.715, 1.401e-5
-1.716, 1.408e-5
-1.717, 1.415e-5
-1.718, 1.423e-5
-1.719, 1.431e-5
-1.720, 1.439e-5
-1.721, 1.447e-5
-1.722, 1.455e-5
-1.723, 1.464e-5
-1.724, 1.472e-5
-1.725, 1.481e-5
-1.726, 1.490e-5
-1.727, 1.498e-5
-1.728, 1.507e-5
-1.729, 1.516e-5
-1.730, 1.525e-5
-1.731, 1.534e-5
-1.732, 1.544e-5
-1.733, 1.553e-5
-1.734, 1.562e-5
-1.735, 1.572e-5
-1.736, 1.582e-5
-1.737, 1.592e-5
-1.738, 1.602e-5
-1.739, 1.612e-5
-1.740, 1.623e-5
-1.741, 1.633e-5
-1.742, 1.643e-5
-1.743, 1.654e-5
-1.744, 1.665e-5
-1.745, 1.676e-5
-1.746, 1.686e-5
-1.747, 1.697e-5
-1.748, 1.708e-5
-1.749, 1.720e-5
-1.750, 1.731e-5
-1.751, 1.743e-5
-1.752, 1.754e-5
-1.753, 1.765e-5
-1.754, 1.777e-5
-1.755, 1.790e-5
-1.756, 1.802e-5
-1.757, 1.814e-5
-1.758, 1.825e-5
-1.759, 1.838e-5
-1.760, 1.851e-5
-1.761, 1.864e-5
-1.762, 1.877e-5
-1.763, 1.889e-5
-1.764, 1.903e-5
-1.765, 1.916e-5
-1.766, 1.930e-5
-1.767, 1.943e-5
-1.768, 1.956e-5
-1.769, 1.970e-5
-1.770, 1.984e-5
-1.771, 1.998e-5
-1.772, 2.012e-5
-1.773, 2.026e-5
-1.774, 2.040e-5
-1.775, 2.055e-5
-1.776, 2.070e-5
-1.777, 2.084e-5
-1.778, 2.098e-5
-1.779, 2.114e-5
-1.780, 2.129e-5
-1.781, 2.144e-5
-1.782, 2.159e-5
-1.783, 2.175e-5
-1.784, 2.190e-5
-1.785, 2.206e-5
-1.786, 2.222e-5
-1.787, 2.238e-5
-1.788, 2.253e-5
-1.789, 2.269e-5
-1.790, 2.286e-5
-1.791, 2.302e-5
-1.792, 2.318e-5
-1.793, 2.335e-5
-1.794, 2.352e-5
-1.795, 2.369e-5
-1.796, 2.385e-5
-1.797, 2.403e-5
-1.798, 2.420e-5
-1.799, 2.437e-5
-1.800, 2.454e-5
-1.801, 2.471e-5
-1.802, 2.488e-5
-1.803, 2.506e-5
-1.804, 2.524e-5
-1.805, 2.542e-5
-1.806, 2.559e-5
-1.807, 2.578e-5
-1.808, 2.595e-5
-1.809, 2.613e-5
-1.810, 2.632e-5
-1.811, 2.650e-5
-1.812, 2.668e-5
-1.813, 2.686e-5
-1.814, 2.705e-5
-1.815, 2.723e-5
-1.816, 2.741e-5
-1.817, 2.759e-5
-1.818, 2.778e-5
-1.819, 2.796e-5
-1.820, 2.814e-5
-1.821, 2.833e-5
-1.822, 2.851e-5
-1.823, 2.870e-5
-1.824, 2.890e-5
-1.825, 2.910e-5
-1.826, 2.929e-5
-1.827, 2.948e-5
-1.828, 2.966e-5
-1.829, 2.986e-5
-1.830, 3.006e-5
-1.831, 3.025e-5
-1.832, 3.045e-5
-1.833, 3.064e-5
-1.834, 3.084e-5
-1.835, 3.105e-5
-1.836, 3.124e-5
-1.837, 3.144e-5
-1.838, 3.163e-5
-1.839, 3.184e-5
-1.840, 3.204e-5
-1.841, 3.224e-5
-1.842, 3.243e-5
-1.843, 3.264e-5
-1.844, 3.284e-5
-1.845, 3.304e-5
-1.846, 3.326e-5
-1.847, 3.346e-5
-1.848, 3.367e-5
-1.849, 3.387e-5
-1.850, 3.408e-5
-1.851, 3.428e-5
-1.852, 3.448e-5
-1.853, 3.469e-5
-1.854, 3.490e-5
-1.855, 3.511e-5
-1.856, 3.532e-5
-1.857, 3.552e-5
-1.858, 3.573e-5
-1.859, 3.594e-5
-1.860, 3.615e-5
-1.861, 3.637e-5
-1.862, 3.659e-5
-1.863, 3.680e-5
-1.864, 3.701e-5
-1.865, 3.723e-5
-1.866, 3.744e-5
-1.867, 3.766e-5
-1.868, 3.788e-5
-1.869, 3.810e-5
-1.870, 3.833e-5
-1.871, 3.855e-5
-1.872, 3.877e-5
-1.873, 3.899e-5
-1.874, 3.921e-5
-1.875, 3.945e-5
-1.876, 3.967e-5
-1.877, 3.990e-5
-1.878, 4.014e-5
-1.879, 4.037e-5
-1.880, 4.060e-5
-1.881, 4.084e-5
-1.882, 4.107e-5
-1.883, 4.131e-5
-1.884, 4.156e-5
-1.885, 4.180e-5
-1.886, 4.204e-5
-1.887, 4.227e-5
-1.888, 4.252e-5
-1.889, 4.276e-5
-1.890, 4.302e-5
-1.891, 4.328e-5
-1.892, 4.353e-5
-1.893, 4.377e-5
-1.894, 4.403e-5
-1.895, 4.429e-5
-1.896, 4.456e-5
-1.897, 4.482e-5
-1.898, 4.508e-5
-1.899, 4.535e-5
-1.900, 4.563e-5
-1.901, 4.590e-5
-1.902, 4.619e-5
-1.903, 4.647e-5
-1.904, 4.675e-5
-1.905, 4.704e-5
-1.906, 4.733e-5
-1.907, 4.763e-5
-1.908, 4.793e-5
-1.909, 4.823e-5
-1.910, 4.853e-5
-1.911, 4.884e-5
-1.912, 4.914e-5
-1.913, 4.946e-5
-1.914, 4.977e-5
-1.915, 5.009e-5
-1.916, 5.041e-5
-1.917, 5.073e-5
-1.918, 5.106e-5
-1.919, 5.140e-5
-1.920, 5.173e-5
-1.921, 5.207e-5
-1.922, 5.241e-5
-1.923, 5.276e-5
-1.924, 5.312e-5
-1.925, 5.348e-5
-1.926, 5.385e-5
-1.927, 5.416e-5
-1.928, 5.450e-5
-1.929, 5.488e-5
-1.930, 5.526e-5
-1.931, 5.567e-5
-1.932, 5.607e-5
-1.933, 5.647e-5
-1.934, 5.686e-5
-1.935, 5.728e-5
-1.936, 5.769e-5
-1.937, 5.812e-5
-1.938, 5.855e-5
-1.939, 5.899e-5
-1.940, 5.942e-5
-1.941, 5.985e-5
-1.942, 6.029e-5
-1.943, 6.075e-5
-1.944, 6.122e-5
-1.945, 6.170e-5
-1.946, 6.219e-5
-1.947, 6.268e-5
-1.948, 6.317e-5
-1.949, 6.368e-5
-1.950, 6.420e-5
-1.951, 6.464e-5
-1.952, 6.514e-5
-1.953, 6.566e-5
-1.954, 6.621e-5
-1.955, 6.676e-5
-1.956, 6.733e-5
-1.957, 6.789e-5
-1.958, 6.846e-5
-1.959, 6.904e-5
-1.960, 6.963e-5
-1.961, 7.024e-5
-1.962, 7.084e-5
-1.963, 7.146e-5
-1.964, 7.209e-5
-1.965, 7.274e-5
-1.966, 7.340e-5
-1.967, 7.405e-5
-1.968, 7.471e-5
-1.969, 7.537e-5
-1.970, 7.604e-5
-1.971, 7.676e-5
-1.972, 7.748e-5
-1.973, 7.818e-5
-1.974, 7.890e-5
-1.975, 7.965e-5
-1.976, 8.042e-5
-1.977, 8.121e-5
-1.978, 8.199e-5
-1.979, 8.277e-5
-1.980, 8.357e-5
-1.981, 8.441e-5
-1.982, 8.524e-5
-1.983, 8.610e-5
-1.984, 8.700e-5
-1.985, 8.788e-5
-1.986, 8.875e-5
-1.987, 8.965e-5
-1.988, 9.057e-5
-1.989, 9.147e-5
-1.990, 9.243e-5
-1.991, 9.341e-5
-1.992, 9.441e-5
-1.993, 9.542e-5
-1.994, 9.640e-5
-1.995, 9.734e-5
-1.996, 9.832e-5
-1.997, 9.932e-5
-1.998, 1.003e-4
-1.999, 1.014e-4
-2.000, 1.025e-4
-2.001, 1.037e-4
-2.002, 1.048e-4
-2.003, 1.059e-4
-2.004, 1.071e-4
-2.005, 1.082e-4
-2.006, 1.095e-4
-2.007, 1.107e-4
-2.008, 1.119e-4
-2.009, 1.132e-4
-2.010, 1.144e-4
-2.011, 1.157e-4
-2.012, 1.170e-4
-2.013, 1.184e-4
-2.014, 1.198e-4
-2.015, 1.212e-4
-2.016, 1.226e-4
-2.017, 1.240e-4
-2.018, 1.255e-4
-2.019, 1.270e-4
-2.020, 1.285e-4
-2.021, 1.301e-4
-2.022, 1.315e-4
-2.023, 1.329e-4
-2.024, 1.345e-4
-2.025, 1.360e-4
-2.026, 1.375e-4
-2.027, 1.390e-4
-2.028, 1.406e-4
-2.029, 1.423e-4
-2.030, 1.441e-4
-2.031, 1.458e-4
-2.032, 1.476e-4
-2.033, 1.494e-4
-2.034, 1.513e-4
-2.035, 1.533e-4
-2.036, 1.552e-4
-2.037, 1.571e-4
-2.038, 1.590e-4
-2.039, 1.610e-4
-2.040, 1.630e-4
-2.041, 1.650e-4
-2.042, 1.671e-4
-2.043, 1.692e-4
-2.044, 1.713e-4
-2.045, 1.734e-4
-2.046, 1.756e-4
-2.047, 1.778e-4
-2.048, 1.801e-4
-2.049, 1.823e-4
-2.050, 1.846e-4
-2.051, 1.869e-4
-2.052, 1.893e-4
-2.053, 1.917e-4
-2.054, 1.942e-4
-2.055, 1.967e-4
-2.056, 1.994e-4
-2.057, 2.019e-4
-2.058, 2.046e-4
-2.059, 2.074e-4
-2.060, 2.100e-4
-2.061, 2.125e-4
-2.062, 2.151e-4
-2.063, 2.179e-4
-2.064, 2.208e-4
-2.065, 2.237e-4
-2.066, 2.266e-4
-2.067, 2.296e-4
-2.068, 2.326e-4
-2.069, 2.356e-4
-2.070, 2.386e-4
-2.071, 2.417e-4
-2.072, 2.449e-4
-2.073, 2.482e-4
-2.074, 2.515e-4
-2.075, 2.549e-4
-2.076, 2.583e-4
-2.077, 2.617e-4
-2.078, 2.651e-4
-2.079, 2.685e-4
-2.080, 2.720e-4
-2.081, 2.756e-4
-2.082, 2.792e-4
-2.083, 2.828e-4
-2.084, 2.865e-4
-2.085, 2.903e-4
-2.086, 2.941e-4
-2.087, 2.980e-4
-2.088, 3.019e-4
-2.089, 3.059e-4
-2.090, 3.099e-4
-2.091, 3.139e-4
-2.092, 3.180e-4
-2.093, 3.221e-4
-2.094, 3.263e-4
-2.095, 3.305e-4
-2.096, 3.349e-4
-2.097, 3.393e-4
-2.098, 3.437e-4
-2.099, 3.480e-4
