Oct. 19, 2024   08:33:19
Linear Sweep Voltammetry
File: c:/users/guazh/data/banditlqround2/2024-10-18-exp574\regeneratedgce-2024-10-19t08_19_54-lsvinkoh\regeneratedgce_lsv_50mvs_efin_-2900mv.bin
Data Source:  Experiment
Instrument Model:  CHI760E
Header: LSV ran at 50 mVs with Efin at -2900mV
Note: 

Init E (V) = -0.6
Final E (V) = -2.9
Scan Rate (V/s) = 0.05
Sample Interval (V) = 0.001
Quiet Time (sec) = 2
Sensitivity (A/V) = 1e-4

Results:

Channel 1:

Potential/V, Current/A

-0.600, 9.353e-9
-0.601, 8.662e-9
-0.602, 1.133e-8
-0.603, 1.231e-8
-0.604, 1.113e-8
-0.605, 9.748e-9
-0.606, 8.169e-9
-0.607, 1.064e-8
-0.608, 1.300e-8
-0.609, 1.133e-8
-0.610, 7.873e-9
-0.611, 9.156e-9
-0.612, 9.452e-9
-0.613, 1.034e-8
-0.614, 1.152e-8
-0.615, 8.662e-9
-0.616, 8.169e-9
-0.617, 1.123e-8
-0.618, 1.221e-8
-0.619, 1.014e-8
-0.620, 6.886e-9
-0.621, 8.169e-9
-0.622, 1.034e-8
-0.623, 1.073e-8
-0.624, 1.044e-8
-0.625, 8.070e-9
-0.626, 7.478e-9
-0.627, 9.254e-9
-0.628, 1.172e-8
-0.629, 1.034e-8
-0.630, 7.478e-9
-0.631, 7.182e-9
-0.632, 9.353e-9
-0.633, 1.103e-8
-0.634, 9.945e-9
-0.635, 7.577e-9
-0.636, 6.985e-9
-0.637, 1.004e-8
-0.638, 9.945e-9
-0.639, 8.958e-9
-0.640, 7.478e-9
-0.641, 8.268e-9
-0.642, 8.662e-9
-0.643, 9.945e-9
-0.644, 9.452e-9
-0.645, 7.774e-9
-0.646, 6.788e-9
-0.647, 8.860e-9
-0.648, 8.761e-9
-0.649, 8.958e-9
-0.650, 6.985e-9
-0.651, 6.689e-9
-0.652, 8.366e-9
-0.653, 9.846e-9
-0.654, 1.014e-8
-0.655, 6.886e-9
-0.656, 6.590e-9
-0.657, 7.676e-9
-0.658, 9.156e-9
-0.659, 8.958e-9
-0.660, 6.590e-9
-0.661, 6.097e-9
-0.662, 8.761e-9
-0.663, 9.649e-9
-0.664, 9.156e-9
-0.665, 5.703e-9
-0.666, 6.689e-9
-0.667, 9.057e-9
-0.668, 9.353e-9
-0.669, 8.169e-9
-0.670, 6.492e-9
-0.671, 4.913e-9
-0.672, 7.380e-9
-0.673, 8.465e-9
-0.674, 7.873e-9
-0.675, 6.196e-9
-0.676, 5.801e-9
-0.677, 6.985e-9
-0.678, 8.860e-9
-0.679, 8.465e-9
-0.680, 6.097e-9
-0.681, 5.209e-9
-0.682, 7.182e-9
-0.683, 8.070e-9
-0.684, 7.478e-9
-0.685, 5.900e-9
-0.686, 5.308e-9
-0.687, 7.774e-9
-0.688, 8.268e-9
-0.689, 8.169e-9
-0.690, 5.900e-9
-0.691, 4.617e-9
-0.692, 8.070e-9
-0.693, 8.268e-9
-0.694, 7.380e-9
-0.695, 6.097e-9
-0.696, 4.815e-9
-0.697, 7.281e-9
-0.698, 8.268e-9
-0.699, 7.478e-9
-0.700, 2.940e-9
-0.701, 4.321e-9
-0.702, 6.393e-9
-0.703, 7.676e-9
-0.704, 7.873e-9
-0.705, 5.604e-9
-0.706, 5.407e-9
-0.707, 7.873e-9
-0.708, 8.366e-9
-0.709, 7.972e-9
-0.710, 5.111e-9
-0.711, 5.012e-9
-0.712, 6.492e-9
-0.713, 6.985e-9
-0.714, 7.084e-9
-0.715, 5.505e-9
-0.716, 3.927e-9
-0.717, 6.590e-9
-0.718, 8.268e-9
-0.719, 6.886e-9
-0.720, 5.801e-9
-0.721, 4.223e-9
-0.722, 6.886e-9
-0.723, 7.873e-9
-0.724, 7.478e-9
-0.725, 5.801e-9
-0.726, 5.308e-9
-0.727, 6.196e-9
-0.728, 7.380e-9
-0.729, 7.380e-9
-0.730, 5.012e-9
-0.731, 4.223e-9
-0.732, 6.393e-9
-0.733, 7.676e-9
-0.734, 6.985e-9
-0.735, 4.716e-9
-0.736, 4.025e-9
-0.737, 7.182e-9
-0.738, 7.774e-9
-0.739, 7.084e-9
-0.740, 5.801e-9
-0.741, 4.223e-9
-0.742, 6.788e-9
-0.743, 6.886e-9
-0.744, 6.689e-9
-0.745, 5.209e-9
-0.746, 4.025e-9
-0.747, 6.196e-9
-0.748, 7.380e-9
-0.749, 6.689e-9
-0.750, 5.012e-9
-0.751, 4.815e-9
-0.752, 6.788e-9
-0.753, 7.182e-9
-0.754, 7.182e-9
-0.755, 5.209e-9
-0.756, 4.519e-9
-0.757, 6.097e-9
-0.758, 7.972e-9
-0.759, 7.478e-9
-0.760, 5.801e-9
-0.761, 4.124e-9
-0.762, 5.505e-9
-0.763, 6.393e-9
-0.764, 6.097e-9
-0.765, 4.519e-9
-0.766, 3.828e-9
-0.767, 5.604e-9
-0.768, 7.084e-9
-0.769, 8.070e-9
-0.770, 5.012e-9
-0.771, 3.532e-9
-0.772, 6.097e-9
-0.773, 6.985e-9
-0.774, 7.084e-9
-0.775, 4.519e-9
-0.776, 3.729e-9
-0.777, 5.801e-9
-0.778, 6.788e-9
-0.779, 5.111e-9
-0.780, 3.532e-9
-0.781, 3.828e-9
-0.782, 5.505e-9
-0.783, 6.886e-9
-0.784, 7.577e-9
-0.785, 4.519e-9
-0.786, 3.335e-9
-0.787, 5.308e-9
-0.788, 6.689e-9
-0.789, 6.788e-9
-0.790, 4.519e-9
-0.791, 4.025e-9
-0.792, 5.505e-9
-0.793, 7.380e-9
-0.794, 7.478e-9
-0.795, 5.308e-9
-0.796, 2.940e-9
-0.797, 5.308e-9
-0.798, 6.788e-9
-0.799, 5.998e-9
-0.800, 5.308e-9
-0.801, 3.729e-9
-0.802, 5.012e-9
-0.803, 6.294e-9
-0.804, 6.393e-9
-0.805, 3.828e-9
-0.806, 3.137e-9
-0.807, 5.407e-9
-0.808, 6.689e-9
-0.809, 6.788e-9
-0.810, 3.927e-9
-0.811, 3.335e-9
-0.812, 5.998e-9
-0.813, 6.294e-9
-0.814, 6.393e-9
-0.815, 4.716e-9
-0.816, 2.743e-9
-0.817, 5.604e-9
-0.818, 5.900e-9
-0.819, 7.281e-9
-0.820, 5.407e-9
-0.821, 3.335e-9
-0.822, 5.407e-9
-0.823, 6.886e-9
-0.824, 7.281e-9
-0.825, 5.407e-9
-0.826, 4.025e-9
-0.827, 5.998e-9
-0.828, 7.182e-9
-0.829, 6.097e-9
-0.830, 4.913e-9
-0.831, 3.828e-9
-0.832, 5.308e-9
-0.833, 7.577e-9
-0.834, 8.268e-9
-0.835, 5.209e-9
-0.836, 4.025e-9
-0.837, 5.801e-9
-0.838, 6.985e-9
-0.839, 7.972e-9
-0.840, 4.815e-9
-0.841, 3.729e-9
-0.842, 6.196e-9
-0.843, 6.097e-9
-0.844, 6.196e-9
-0.845, 5.407e-9
-0.846, 3.631e-9
-0.847, 5.703e-9
-0.848, 7.478e-9
-0.849, 6.788e-9
-0.850, 5.604e-9
-0.851, 3.828e-9
-0.852, 5.801e-9
-0.853, 6.492e-9
-0.854, 6.492e-9
-0.855, 4.913e-9
-0.856, 4.420e-9
-0.857, 5.505e-9
-0.858, 7.084e-9
-0.859, 6.886e-9
-0.860, 5.604e-9
-0.861, 4.617e-9
-0.862, 5.505e-9
-0.863, 6.393e-9
-0.864, 7.873e-9
-0.865, 5.209e-9
-0.866, 3.828e-9
-0.867, 5.012e-9
-0.868, 6.393e-9
-0.869, 6.590e-9
-0.870, 5.505e-9
-0.871, 3.828e-9
-0.872, 5.703e-9
-0.873, 7.084e-9
-0.874, 6.294e-9
-0.875, 4.519e-9
-0.876, 3.335e-9
-0.877, 5.801e-9
-0.878, 6.590e-9
-0.879, 7.478e-9
-0.880, 5.407e-9
-0.881, 3.631e-9
-0.882, 4.913e-9
-0.883, 6.689e-9
-0.884, 6.294e-9
-0.885, 5.111e-9
-0.886, 3.433e-9
-0.887, 4.716e-9
-0.888, 6.985e-9
-0.889, 6.294e-9
-0.890, 6.294e-9
-0.891, 2.644e-9
-0.892, 4.815e-9
-0.893, 5.900e-9
-0.894, 7.084e-9
-0.895, 5.209e-9
-0.896, 3.236e-9
-0.897, 5.308e-9
-0.898, 7.577e-9
-0.899, 6.985e-9
-0.900, 4.913e-9
-0.901, 2.151e-9
-0.902, 4.519e-9
-0.903, 6.097e-9
-0.904, 6.196e-9
-0.905, 5.111e-9
-0.906, 4.025e-9
-0.907, 4.617e-9
-0.908, 6.097e-9
-0.909, 6.788e-9
-0.910, 5.900e-9
-0.911, 3.631e-9
-0.912, 4.420e-9
-0.913, 6.393e-9
-0.914, 7.577e-9
-0.915, 4.913e-9
-0.916, 2.447e-9
-0.917, 5.801e-9
-0.918, 6.294e-9
-0.919, 7.084e-9
-0.920, 4.913e-9
-0.921, 3.236e-9
-0.922, 5.308e-9
-0.923, 6.788e-9
-0.924, 7.182e-9
-0.925, 5.998e-9
-0.926, 3.433e-9
-0.927, 4.321e-9
-0.928, 5.801e-9
-0.929, 5.703e-9
-0.930, 5.209e-9
-0.931, 3.532e-9
-0.932, 5.012e-9
-0.933, 6.492e-9
-0.934, 7.774e-9
-0.935, 6.393e-9
-0.936, 3.335e-9
-0.937, 4.815e-9
-0.938, 6.097e-9
-0.939, 5.900e-9
-0.940, 5.209e-9
-0.941, 3.137e-9
-0.942, 4.124e-9
-0.943, 5.703e-9
-0.944, 5.703e-9
-0.945, 4.420e-9
-0.946, 3.631e-9
-0.947, 4.124e-9
-0.948, 5.998e-9
-0.949, 5.801e-9
-0.950, 5.900e-9
-0.951, 3.236e-9
-0.952, 3.828e-9
-0.953, 5.604e-9
-0.954, 6.590e-9
-0.955, 4.716e-9
-0.956, 2.644e-9
-0.957, 3.335e-9
-0.958, 5.407e-9
-0.959, 6.196e-9
-0.960, 5.604e-9
-0.961, 2.841e-9
-0.962, 3.828e-9
-0.963, 6.393e-9
-0.964, 6.393e-9
-0.965, 5.209e-9
-0.966, 3.631e-9
-0.967, 4.519e-9
-0.968, 5.998e-9
-0.969, 5.801e-9
-0.970, 4.025e-9
-0.971, 3.631e-9
-0.972, 5.111e-9
-0.973, 6.196e-9
-0.974, 5.998e-9
-0.975, 6.294e-9
-0.976, 2.644e-9
-0.977, 3.631e-9
-0.978, 5.900e-9
-0.979, 6.590e-9
-0.980, 5.998e-9
-0.981, 2.940e-9
-0.982, 3.729e-9
-0.983, 5.703e-9
-0.984, 6.788e-9
-0.985, 5.308e-9
-0.986, 3.335e-9
-0.987, 3.236e-9
-0.988, 5.998e-9
-0.989, 7.380e-9
-0.990, 5.111e-9
-0.991, 2.940e-9
-0.992, 3.828e-9
-0.993, 5.012e-9
-0.994, 6.294e-9
-0.995, 5.801e-9
-0.996, 2.940e-9
-0.997, 3.631e-9
-0.998, 4.913e-9
-0.999, 6.689e-9
-1.000, 5.998e-9
-1.001, 3.335e-9
-1.002, 3.729e-9
-1.003, 6.196e-9
-1.004, 5.703e-9
-1.005, 5.012e-9
-1.006, 3.433e-9
-1.007, 2.545e-9
-1.008, 4.617e-9
-1.009, 5.703e-9
-1.010, 5.308e-9
-1.011, 2.940e-9
-1.012, 4.124e-9
-1.013, 5.900e-9
-1.014, 6.886e-9
-1.015, 4.617e-9
-1.016, 3.236e-9
-1.017, 4.025e-9
-1.018, 5.604e-9
-1.019, 6.492e-9
-1.020, 5.604e-9
-1.021, 2.940e-9
-1.022, 2.940e-9
-1.023, 4.913e-9
-1.024, 7.380e-9
-1.025, 7.380e-9
-1.026, 3.828e-9
-1.027, 4.519e-9
-1.028, 6.393e-9
-1.029, 6.689e-9
-1.030, 6.985e-9
-1.031, 4.716e-9
-1.032, 3.236e-9
-1.033, 5.801e-9
-1.034, 5.900e-9
-1.035, 6.196e-9
-1.036, 3.137e-9
-1.037, 3.828e-9
-1.038, 6.196e-9
-1.039, 7.084e-9
-1.040, 6.590e-9
-1.041, 3.631e-9
-1.042, 4.124e-9
-1.043, 5.012e-9
-1.044, 6.492e-9
-1.045, 5.703e-9
-1.046, 3.137e-9
-1.047, 3.039e-9
-1.048, 5.801e-9
-1.049, 5.801e-9
-1.050, 7.084e-9
-1.051, 3.039e-9
-1.052, 4.124e-9
-1.053, 6.097e-9
-1.054, 7.380e-9
-1.055, 6.393e-9
-1.056, 3.631e-9
-1.057, 3.729e-9
-1.058, 6.097e-9
-1.059, 6.985e-9
-1.060, 5.111e-9
-1.061, 3.335e-9
-1.062, 3.828e-9
-1.063, 5.998e-9
-1.064, 6.886e-9
-1.065, 5.801e-9
-1.066, 2.940e-9
-1.067, 3.335e-9
-1.068, 5.012e-9
-1.069, 6.689e-9
-1.070, 5.703e-9
-1.071, 4.025e-9
-1.072, 3.532e-9
-1.073, 5.703e-9
-1.074, 6.788e-9
-1.075, 5.703e-9
-1.076, 3.828e-9
-1.077, 4.223e-9
-1.078, 5.801e-9
-1.079, 7.577e-9
-1.080, 6.788e-9
-1.081, 3.236e-9
-1.082, 3.828e-9
-1.083, 5.703e-9
-1.084, 6.393e-9
-1.085, 6.196e-9
-1.086, 3.631e-9
-1.087, 3.236e-9
-1.088, 5.604e-9
-1.089, 6.590e-9
-1.090, 6.393e-9
-1.091, 3.631e-9
-1.092, 3.631e-9
-1.093, 5.209e-9
-1.094, 6.788e-9
-1.095, 6.492e-9
-1.096, 3.236e-9
-1.097, 2.841e-9
-1.098, 4.913e-9
-1.099, 5.308e-9
-1.100, 5.900e-9
-1.101, 3.828e-9
-1.102, 3.236e-9
-1.103, 5.012e-9
-1.104, 6.788e-9
-1.105, 5.998e-9
-1.106, 3.631e-9
-1.107, 2.940e-9
-1.108, 6.393e-9
-1.109, 6.590e-9
-1.110, 6.590e-9
-1.111, 4.124e-9
-1.112, 3.631e-9
-1.113, 5.703e-9
-1.114, 6.886e-9
-1.115, 6.985e-9
-1.116, 3.729e-9
-1.117, 3.532e-9
-1.118, 4.420e-9
-1.119, 6.985e-9
-1.120, 6.294e-9
-1.121, 4.420e-9
-1.122, 3.729e-9
-1.123, 5.111e-9
-1.124, 5.900e-9
-1.125, 5.703e-9
-1.126, 3.927e-9
-1.127, 3.236e-9
-1.128, 5.604e-9
-1.129, 6.294e-9
-1.130, 6.196e-9
-1.131, 4.025e-9
-1.132, 3.137e-9
-1.133, 5.111e-9
-1.134, 6.985e-9
-1.135, 5.900e-9
-1.136, 4.223e-9
-1.137, 4.025e-9
-1.138, 4.815e-9
-1.139, 7.774e-9
-1.140, 6.689e-9
-1.141, 4.420e-9
-1.142, 3.137e-9
-1.143, 5.308e-9
-1.144, 6.097e-9
-1.145, 6.886e-9
-1.146, 4.815e-9
-1.147, 2.940e-9
-1.148, 5.703e-9
-1.149, 6.788e-9
-1.150, 6.196e-9
-1.151, 2.644e-9
-1.152, 3.236e-9
-1.153, 5.998e-9
-1.154, 7.281e-9
-1.155, 6.393e-9
-1.156, 4.025e-9
-1.157, 2.545e-9
-1.158, 4.815e-9
-1.159, 6.886e-9
-1.160, 6.590e-9
-1.161, 4.617e-9
-1.162, 2.841e-9
-1.163, 5.604e-9
-1.164, 6.294e-9
-1.165, 6.985e-9
-1.166, 5.111e-9
-1.167, 3.236e-9
-1.168, 5.111e-9
-1.169, 5.801e-9
-1.170, 5.900e-9
-1.171, 4.025e-9
-1.172, 3.236e-9
-1.173, 5.308e-9
-1.174, 6.689e-9
-1.175, 5.703e-9
-1.176, 3.927e-9
-1.177, 2.052e-9
-1.178, 5.505e-9
-1.179, 6.788e-9
-1.180, 6.393e-9
-1.181, 4.420e-9
-1.182, 3.236e-9
-1.183, 5.407e-9
-1.184, 6.886e-9
-1.185, 5.998e-9
-1.186, 4.617e-9
-1.187, 3.631e-9
-1.188, 6.196e-9
-1.189, 6.196e-9
-1.190, 6.393e-9
-1.191, 4.420e-9
-1.192, 3.631e-9
-1.193, 4.716e-9
-1.194, 7.281e-9
-1.195, 6.492e-9
-1.196, 4.716e-9
-1.197, 4.223e-9
-1.198, 6.590e-9
-1.199, 7.281e-9
-1.200, 6.590e-9
-1.201, 4.420e-9
-1.202, 3.137e-9
-1.203, 5.407e-9
-1.204, 6.590e-9
-1.205, 7.084e-9
-1.206, 4.815e-9
-1.207, 4.124e-9
-1.208, 5.900e-9
-1.209, 6.985e-9
-1.210, 7.774e-9
-1.211, 4.025e-9
-1.212, 3.137e-9
-1.213, 3.631e-9
-1.214, 5.111e-9
-1.215, 7.084e-9
-1.216, 4.617e-9
-1.217, 3.927e-9
-1.218, 4.617e-9
-1.219, 6.985e-9
-1.220, 7.281e-9
-1.221, 4.815e-9
-1.222, 3.729e-9
-1.223, 4.815e-9
-1.224, 6.294e-9
-1.225, 7.972e-9
-1.226, 5.111e-9
-1.227, 2.151e-9
-1.228, 5.407e-9
-1.229, 7.182e-9
-1.230, 6.886e-9
-1.231, 5.209e-9
-1.232, 4.617e-9
-1.233, 6.097e-9
-1.234, 6.689e-9
-1.235, 7.774e-9
-1.236, 5.505e-9
-1.237, 3.433e-9
-1.238, 5.703e-9
-1.239, 5.900e-9
-1.240, 7.084e-9
-1.241, 5.505e-9
-1.242, 3.631e-9
-1.243, 5.900e-9
-1.244, 5.801e-9
-1.245, 7.676e-9
-1.246, 5.505e-9
-1.247, 3.828e-9
-1.248, 5.604e-9
-1.249, 7.478e-9
-1.250, 7.577e-9
-1.251, 5.900e-9
-1.252, 3.433e-9
-1.253, 4.913e-9
-1.254, 6.985e-9
-1.255, 8.169e-9
-1.256, 5.998e-9
-1.257, 3.433e-9
-1.258, 5.308e-9
-1.259, 6.294e-9
-1.260, 6.788e-9
-1.261, 5.998e-9
-1.262, 3.433e-9
-1.263, 4.617e-9
-1.264, 6.393e-9
-1.265, 7.380e-9
-1.266, 5.801e-9
-1.267, 3.927e-9
-1.268, 5.998e-9
-1.269, 7.577e-9
-1.270, 8.169e-9
-1.271, 6.393e-9
-1.272, 4.420e-9
-1.273, 4.815e-9
-1.274, 6.097e-9
-1.275, 6.788e-9
-1.276, 4.913e-9
-1.277, 3.729e-9
-1.278, 4.913e-9
-1.279, 6.196e-9
-1.280, 7.478e-9
-1.281, 5.900e-9
-1.282, 4.420e-9
-1.283, 5.308e-9
-1.284, 6.492e-9
-1.285, 6.196e-9
-1.286, 5.900e-9
-1.287, 5.308e-9
-1.288, 4.815e-9
-1.289, 6.492e-9
-1.290, 6.985e-9
-1.291, 6.294e-9
-1.292, 4.223e-9
-1.293, 5.998e-9
-1.294, 6.097e-9
-1.295, 6.985e-9
-1.296, 6.393e-9
-1.297, 3.532e-9
-1.298, 5.012e-9
-1.299, 6.985e-9
-1.300, 7.478e-9
-1.301, 5.998e-9
-1.302, 3.039e-9
-1.303, 5.801e-9
-1.304, 6.689e-9
-1.305, 6.294e-9
-1.306, 6.393e-9
-1.307, 3.631e-9
-1.308, 4.124e-9
-1.309, 7.380e-9
-1.310, 7.084e-9
-1.311, 5.604e-9
-1.312, 4.223e-9
-1.313, 4.025e-9
-1.314, 7.084e-9
-1.315, 6.393e-9
-1.316, 6.393e-9
-1.317, 4.223e-9
-1.318, 5.209e-9
-1.319, 7.084e-9
-1.320, 7.577e-9
-1.321, 6.590e-9
-1.322, 4.815e-9
-1.323, 4.420e-9
-1.324, 5.998e-9
-1.325, 8.070e-9
-1.326, 6.393e-9
-1.327, 3.532e-9
-1.328, 5.111e-9
-1.329, 5.604e-9
-1.330, 6.097e-9
-1.331, 6.196e-9
-1.332, 4.617e-9
-1.333, 5.111e-9
-1.334, 6.196e-9
-1.335, 7.182e-9
-1.336, 6.492e-9
-1.337, 3.828e-9
-1.338, 5.111e-9
-1.339, 7.182e-9
-1.340, 7.084e-9
-1.341, 5.703e-9
-1.342, 3.927e-9
-1.343, 4.913e-9
-1.344, 7.084e-9
-1.345, 7.577e-9
-1.346, 6.492e-9
-1.347, 4.321e-9
-1.348, 4.223e-9
-1.349, 6.294e-9
-1.350, 6.492e-9
-1.351, 6.492e-9
-1.352, 4.321e-9
-1.353, 4.716e-9
-1.354, 5.998e-9
-1.355, 7.182e-9
-1.356, 6.590e-9
-1.357, 4.420e-9
-1.358, 5.012e-9
-1.359, 6.590e-9
-1.360, 7.182e-9
-1.361, 6.590e-9
-1.362, 4.223e-9
-1.363, 4.617e-9
-1.364, 6.985e-9
-1.365, 7.182e-9
-1.366, 6.689e-9
-1.367, 4.124e-9
-1.368, 4.519e-9
-1.369, 6.097e-9
-1.370, 6.985e-9
-1.371, 6.294e-9
-1.372, 3.532e-9
-1.373, 4.420e-9
-1.374, 5.703e-9
-1.375, 6.788e-9
-1.376, 6.886e-9
-1.377, 4.420e-9
-1.378, 3.729e-9
-1.379, 6.590e-9
-1.380, 7.774e-9
-1.381, 5.801e-9
-1.382, 3.631e-9
-1.383, 3.828e-9
-1.384, 6.492e-9
-1.385, 7.873e-9
-1.386, 7.084e-9
-1.387, 4.815e-9
-1.388, 4.223e-9
-1.389, 7.774e-9
-1.390, 7.774e-9
-1.391, 7.281e-9
-1.392, 4.124e-9
-1.393, 4.519e-9
-1.394, 5.998e-9
-1.395, 7.478e-9
-1.396, 7.676e-9
-1.397, 4.420e-9
-1.398, 5.209e-9
-1.399, 5.407e-9
-1.400, 7.281e-9
-1.401, 6.985e-9
-1.402, 4.124e-9
-1.403, 4.321e-9
-1.404, 6.294e-9
-1.405, 6.590e-9
-1.406, 5.703e-9
-1.407, 3.828e-9
-1.408, 4.519e-9
-1.409, 6.294e-9
-1.410, 7.380e-9
-1.411, 6.985e-9
-1.412, 4.519e-9
-1.413, 3.828e-9
-1.414, 6.492e-9
-1.415, 6.393e-9
-1.416, 6.689e-9
-1.417, 4.124e-9
-1.418, 3.828e-9
-1.419, 6.886e-9
-1.420, 7.380e-9
-1.421, 7.281e-9
-1.422, 4.815e-9
-1.423, 3.335e-9
-1.424, 5.801e-9
-1.425, 7.281e-9
-1.426, 5.308e-9
-1.427, 4.025e-9
-1.428, 3.927e-9
-1.429, 5.407e-9
-1.430, 6.294e-9
-1.431, 6.097e-9
-1.432, 4.519e-9
-1.433, 3.927e-9
-1.434, 6.985e-9
-1.435, 6.788e-9
-1.436, 7.577e-9
-1.437, 4.716e-9
-1.438, 4.617e-9
-1.439, 5.998e-9
-1.440, 8.268e-9
-1.441, 7.577e-9
-1.442, 5.703e-9
-1.443, 4.815e-9
-1.444, 6.294e-9
-1.445, 7.478e-9
-1.446, 7.478e-9
-1.447, 5.604e-9
-1.448, 3.828e-9
-1.449, 6.788e-9
-1.450, 8.070e-9
-1.451, 6.985e-9
-1.452, 5.505e-9
-1.453, 4.223e-9
-1.454, 6.886e-9
-1.455, 6.788e-9
-1.456, 7.972e-9
-1.457, 5.505e-9
-1.458, 4.223e-9
-1.459, 7.478e-9
-1.460, 8.268e-9
-1.461, 7.873e-9
-1.462, 5.209e-9
-1.463, 4.617e-9
-1.464, 6.097e-9
-1.465, 7.478e-9
-1.466, 6.788e-9
-1.467, 4.716e-9
-1.468, 4.223e-9
-1.469, 6.492e-9
-1.470, 7.380e-9
-1.471, 7.380e-9
-1.472, 5.703e-9
-1.473, 4.519e-9
-1.474, 6.689e-9
-1.475, 6.886e-9
-1.476, 8.366e-9
-1.477, 5.012e-9
-1.478, 4.223e-9
-1.479, 6.886e-9
-1.480, 7.774e-9
-1.481, 6.985e-9
-1.482, 5.308e-9
-1.483, 4.025e-9
-1.484, 6.590e-9
-1.485, 8.465e-9
-1.486, 8.564e-9
-1.487, 5.703e-9
-1.488, 5.012e-9
-1.489, 5.703e-9
-1.490, 7.873e-9
-1.491, 6.886e-9
-1.492, 4.716e-9
-1.493, 4.124e-9
-1.494, 5.308e-9
-1.495, 7.774e-9
-1.496, 8.268e-9
-1.497, 5.900e-9
-1.498, 4.519e-9
-1.499, 6.097e-9
-1.500, 6.788e-9
-1.501, 7.873e-9
-1.502, 6.097e-9
-1.503, 4.913e-9
-1.504, 6.985e-9
-1.505, 7.873e-9
-1.506, 8.070e-9
-1.507, 5.998e-9
-1.508, 4.519e-9
-1.509, 6.886e-9
-1.510, 8.268e-9
-1.511, 7.972e-9
-1.512, 6.689e-9
-1.513, 5.209e-9
-1.514, 5.801e-9
-1.515, 7.774e-9
-1.516, 7.676e-9
-1.517, 5.505e-9
-1.518, 4.124e-9
-1.519, 6.196e-9
-1.520, 6.985e-9
-1.521, 6.196e-9
-1.522, 5.407e-9
-1.523, 4.617e-9
-1.524, 6.985e-9
-1.525, 7.873e-9
-1.526, 6.985e-9
-1.527, 5.308e-9
-1.528, 3.927e-9
-1.529, 5.209e-9
-1.530, 7.577e-9
-1.531, 7.380e-9
-1.532, 6.294e-9
-1.533, 4.223e-9
-1.534, 5.604e-9
-1.535, 6.788e-9
-1.536, 7.873e-9
-1.537, 6.196e-9
-1.538, 5.111e-9
-1.539, 5.604e-9
-1.540, 7.774e-9
-1.541, 7.676e-9
-1.542, 6.492e-9
-1.543, 5.308e-9
-1.544, 6.492e-9
-1.545, 8.268e-9
-1.546, 7.281e-9
-1.547, 5.604e-9
-1.548, 4.617e-9
-1.549, 5.998e-9
-1.550, 7.577e-9
-1.551, 7.281e-9
-1.552, 6.393e-9
-1.553, 4.913e-9
-1.554, 5.604e-9
-1.555, 7.676e-9
-1.556, 8.761e-9
-1.557, 5.801e-9
-1.558, 4.025e-9
-1.559, 5.703e-9
-1.560, 5.998e-9
-1.561, 7.380e-9
-1.562, 5.703e-9
-1.563, 4.321e-9
-1.564, 5.900e-9
-1.565, 7.577e-9
-1.566, 8.662e-9
-1.567, 6.393e-9
-1.568, 4.124e-9
-1.569, 5.998e-9
-1.570, 6.985e-9
-1.571, 7.084e-9
-1.572, 5.308e-9
-1.573, 3.433e-9
-1.574, 5.998e-9
-1.575, 7.478e-9
-1.576, 7.873e-9
-1.577, 6.097e-9
-1.578, 3.039e-9
-1.579, 5.308e-9
-1.580, 6.492e-9
-1.581, 7.972e-9
-1.582, 6.492e-9
-1.583, 3.433e-9
-1.584, 4.716e-9
-1.585, 7.182e-9
-1.586, 7.478e-9
-1.587, 6.492e-9
-1.588, 5.209e-9
-1.589, 6.492e-9
-1.590, 8.169e-9
-1.591, 8.662e-9
-1.592, 6.886e-9
-1.593, 4.815e-9
-1.594, 5.801e-9
-1.595, 7.478e-9
-1.596, 7.577e-9
-1.597, 6.689e-9
-1.598, 4.124e-9
-1.599, 4.913e-9
-1.600, 7.577e-9
-1.601, 7.774e-9
-1.602, 6.294e-9
-1.603, 5.012e-9
-1.604, 5.308e-9
-1.605, 7.182e-9
-1.606, 7.478e-9
-1.607, 5.900e-9
-1.608, 3.532e-9
-1.609, 4.617e-9
-1.610, 6.886e-9
-1.611, 7.281e-9
-1.612, 6.196e-9
-1.613, 4.519e-9
-1.614, 6.492e-9
-1.615, 7.972e-9
-1.616, 7.676e-9
-1.617, 6.097e-9
-1.618, 4.519e-9
-1.619, 5.209e-9
-1.620, 8.070e-9
-1.621, 7.478e-9
-1.622, 6.590e-9
-1.623, 3.433e-9
-1.624, 4.913e-9
-1.625, 6.590e-9
-1.626, 7.182e-9
-1.627, 6.393e-9
-1.628, 4.716e-9
-1.629, 5.308e-9
-1.630, 7.084e-9
-1.631, 7.774e-9
-1.632, 7.182e-9
-1.633, 5.308e-9
-1.634, 4.913e-9
-1.635, 6.886e-9
-1.636, 7.873e-9
-1.637, 5.801e-9
-1.638, 3.828e-9
-1.639, 6.196e-9
-1.640, 8.564e-9
-1.641, 8.268e-9
-1.642, 7.774e-9
-1.643, 5.407e-9
-1.644, 5.505e-9
-1.645, 9.550e-9
-1.646, 8.860e-9
-1.647, 7.676e-9
-1.648, 5.209e-9
-1.649, 6.097e-9
-1.650, 7.873e-9
-1.651, 8.465e-9
-1.652, 7.577e-9
-1.653, 5.111e-9
-1.654, 5.998e-9
-1.655, 7.774e-9
-1.656, 8.465e-9
-1.657, 8.070e-9
-1.658, 5.801e-9
-1.659, 5.900e-9
-1.660, 7.774e-9
-1.661, 7.676e-9
-1.662, 7.182e-9
-1.663, 4.124e-9
-1.664, 5.407e-9
-1.665, 7.380e-9
-1.666, 9.057e-9
-1.667, 7.972e-9
-1.668, 5.407e-9
-1.669, 5.407e-9
-1.670, 7.774e-9
-1.671, 7.873e-9
-1.672, 7.478e-9
-1.673, 4.223e-9
-1.674, 5.012e-9
-1.675, 8.070e-9
-1.676, 8.268e-9
-1.677, 7.972e-9
-1.678, 5.505e-9
-1.679, 5.998e-9
-1.680, 7.774e-9
-1.681, 8.268e-9
-1.682, 7.577e-9
-1.683, 5.111e-9
-1.684, 5.407e-9
-1.685, 7.676e-9
-1.686, 8.761e-9
-1.687, 7.774e-9
-1.688, 5.209e-9
-1.689, 5.111e-9
-1.690, 7.774e-9
-1.691, 9.156e-9
-1.692, 7.380e-9
-1.693, 5.703e-9
-1.694, 5.505e-9
-1.695, 8.169e-9
-1.696, 8.761e-9
-1.697, 8.169e-9
-1.698, 5.012e-9
-1.699, 5.012e-9
-1.700, 7.380e-9
-1.701, 7.577e-9
-1.702, 7.972e-9
-1.703, 6.196e-9
-1.704, 5.703e-9
-1.705, 7.972e-9
-1.706, 1.044e-8
-1.707, 9.057e-9
-1.708, 5.604e-9
-1.709, 5.505e-9
-1.710, 7.676e-9
-1.711, 8.465e-9
-1.712, 8.662e-9
-1.713, 6.294e-9
-1.714, 4.913e-9
-1.715, 7.478e-9
-1.716, 1.004e-8
-1.717, 9.156e-9
-1.718, 6.196e-9
-1.719, 5.703e-9
-1.720, 8.564e-9
-1.721, 8.761e-9
-1.722, 8.465e-9
-1.723, 6.492e-9
-1.724, 5.998e-9
-1.725, 7.972e-9
-1.726, 9.550e-9
-1.727, 8.761e-9
-1.728, 6.393e-9
-1.729, 5.407e-9
-1.730, 8.169e-9
-1.731, 8.169e-9
-1.732, 8.366e-9
-1.733, 4.519e-9
-1.734, 4.223e-9
-1.735, 7.478e-9
-1.736, 8.958e-9
-1.737, 8.958e-9
-1.738, 6.886e-9
-1.739, 4.321e-9
-1.740, 6.294e-9
-1.741, 8.958e-9
-1.742, 8.860e-9
-1.743, 6.492e-9
-1.744, 5.900e-9
-1.745, 7.774e-9
-1.746, 8.662e-9
-1.747, 8.169e-9
-1.748, 6.294e-9
-1.749, 4.913e-9
-1.750, 7.182e-9
-1.751, 9.254e-9
-1.752, 8.366e-9
-1.753, 5.801e-9
-1.754, 4.913e-9
-1.755, 7.577e-9
-1.756, 7.972e-9
-1.757, 8.662e-9
-1.758, 6.393e-9
-1.759, 5.012e-9
-1.760, 7.676e-9
-1.761, 8.366e-9
-1.762, 7.182e-9
-1.763, 5.604e-9
-1.764, 4.124e-9
-1.765, 6.294e-9
-1.766, 8.761e-9
-1.767, 8.169e-9
-1.768, 7.182e-9
-1.769, 4.913e-9
-1.770, 7.577e-9
-1.771, 8.070e-9
-1.772, 7.676e-9
-1.773, 5.604e-9
-1.774, 5.308e-9
-1.775, 7.380e-9
-1.776, 8.268e-9
-1.777, 8.070e-9
-1.778, 5.308e-9
-1.779, 5.801e-9
-1.780, 7.281e-9
-1.781, 8.366e-9
-1.782, 9.748e-9
-1.783, 5.900e-9
-1.784, 4.716e-9
-1.785, 6.788e-9
-1.786, 8.958e-9
-1.787, 8.761e-9
-1.788, 6.590e-9
-1.789, 5.407e-9
-1.790, 6.393e-9
-1.791, 8.070e-9
-1.792, 9.057e-9
-1.793, 6.788e-9
-1.794, 5.604e-9
-1.795, 7.676e-9
-1.796, 9.452e-9
-1.797, 8.958e-9
-1.798, 7.182e-9
-1.799, 5.604e-9
-1.800, 6.788e-9
-1.801, 8.268e-9
-1.802, 8.169e-9
-1.803, 6.590e-9
-1.804, 4.321e-9
-1.805, 7.281e-9
-1.806, 8.169e-9
-1.807, 9.057e-9
-1.808, 6.492e-9
-1.809, 5.209e-9
-1.810, 6.689e-9
-1.811, 7.478e-9
-1.812, 8.366e-9
-1.813, 6.492e-9
-1.814, 5.308e-9
-1.815, 6.590e-9
-1.816, 7.281e-9
-1.817, 7.873e-9
-1.818, 6.590e-9
-1.819, 4.321e-9
-1.820, 6.590e-9
-1.821, 8.564e-9
-1.822, 8.070e-9
-1.823, 6.393e-9
-1.824, 5.505e-9
-1.825, 7.577e-9
-1.826, 8.662e-9
-1.827, 9.057e-9
-1.828, 7.380e-9
-1.829, 5.604e-9
-1.830, 6.393e-9
-1.831, 7.676e-9
-1.832, 7.676e-9
-1.833, 6.590e-9
-1.834, 5.111e-9
-1.835, 6.393e-9
-1.836, 7.281e-9
-1.837, 8.366e-9
-1.838, 6.097e-9
-1.839, 4.815e-9
-1.840, 5.900e-9
-1.841, 7.676e-9
-1.842, 8.366e-9
-1.843, 7.577e-9
-1.844, 6.196e-9
-1.845, 6.689e-9
-1.846, 8.958e-9
-1.847, 8.958e-9
-1.848, 7.972e-9
-1.849, 5.505e-9
-1.850, 7.676e-9
-1.851, 8.268e-9
-1.852, 9.057e-9
-1.853, 7.676e-9
-1.854, 6.689e-9
-1.855, 7.281e-9
-1.856, 8.465e-9
-1.857, 9.254e-9
-1.858, 7.084e-9
-1.859, 5.900e-9
-1.860, 7.182e-9
-1.861, 7.281e-9
-1.862, 8.662e-9
-1.863, 7.478e-9
-1.864, 5.604e-9
-1.865, 7.281e-9
-1.866, 8.465e-9
-1.867, 9.156e-9
-1.868, 7.478e-9
-1.869, 5.604e-9
-1.870, 6.294e-9
-1.871, 8.761e-9
-1.872, 9.748e-9
-1.873, 7.676e-9
-1.874, 5.900e-9
-1.875, 6.590e-9
-1.876, 8.860e-9
-1.877, 9.254e-9
-1.878, 7.182e-9
-1.879, 5.209e-9
-1.880, 6.788e-9
-1.881, 7.873e-9
-1.882, 9.057e-9
-1.883, 8.465e-9
-1.884, 6.097e-9
-1.885, 7.676e-9
-1.886, 8.958e-9
-1.887, 9.156e-9
-1.888, 8.268e-9
-1.889, 6.492e-9
-1.890, 6.985e-9
-1.891, 7.380e-9
-1.892, 8.761e-9
-1.893, 7.281e-9
-1.894, 5.703e-9
-1.895, 7.281e-9
-1.896, 9.353e-9
-1.897, 9.254e-9
-1.898, 8.268e-9
-1.899, 5.407e-9
-1.900, 6.393e-9
-1.901, 8.268e-9
-1.902, 9.353e-9
-1.903, 7.972e-9
-1.904, 5.209e-9
-1.905, 6.985e-9
-1.906, 8.070e-9
-1.907, 9.550e-9
-1.908, 8.268e-9
-1.909, 5.998e-9
-1.910, 6.097e-9
-1.911, 8.366e-9
-1.912, 8.169e-9
-1.913, 8.268e-9
-1.914, 6.097e-9
-1.915, 7.084e-9
-1.916, 8.465e-9
-1.917, 8.662e-9
-1.918, 7.873e-9
-1.919, 5.505e-9
-1.920, 6.985e-9
-1.921, 8.070e-9
-1.922, 8.958e-9
-1.923, 7.380e-9
-1.924, 5.308e-9
-1.925, 6.689e-9
-1.926, 8.169e-9
-1.927, 8.366e-9
-1.928, 8.070e-9
-1.929, 5.111e-9
-1.930, 6.590e-9
-1.931, 7.380e-9
-1.932, 8.465e-9
-1.933, 8.662e-9
-1.934, 6.393e-9
-1.935, 6.886e-9
-1.936, 8.169e-9
-1.937, 9.550e-9
-1.938, 8.860e-9
-1.939, 6.393e-9
-1.940, 5.900e-9
-1.941, 8.564e-9
-1.942, 8.366e-9
-1.943, 7.873e-9
-1.944, 5.801e-9
-1.945, 5.505e-9
-1.946, 9.057e-9
-1.947, 9.254e-9
-1.948, 7.972e-9
-1.949, 5.111e-9
-1.950, 5.998e-9
-1.951, 7.577e-9
-1.952, 9.550e-9
-1.953, 9.057e-9
-1.954, 5.900e-9
-1.955, 5.900e-9
-1.956, 8.761e-9
-1.957, 9.254e-9
-1.958, 9.353e-9
-1.959, 5.012e-9
-1.960, 6.492e-9
-1.961, 7.676e-9
-1.962, 8.662e-9
-1.963, 7.873e-9
-1.964, 6.294e-9
-1.965, 6.196e-9
-1.966, 8.169e-9
-1.967, 8.169e-9
-1.968, 8.070e-9
-1.969, 4.913e-9
-1.970, 5.900e-9
-1.971, 7.577e-9
-1.972, 7.774e-9
-1.973, 8.268e-9
-1.974, 5.111e-9
-1.975, 5.900e-9
-1.976, 8.564e-9
-1.977, 8.564e-9
-1.978, 8.366e-9
-1.979, 5.900e-9
-1.980, 5.998e-9
-1.981, 8.268e-9
-1.982, 9.057e-9
-1.983, 6.788e-9
-1.984, 5.407e-9
-1.985, 5.209e-9
-1.986, 7.774e-9
-1.987, 8.465e-9
-1.988, 7.676e-9
-1.989, 5.209e-9
-1.990, 5.801e-9
-1.991, 6.788e-9
-1.992, 8.465e-9
-1.993, 8.268e-9
-1.994, 5.900e-9
-1.995, 5.801e-9
-1.996, 7.972e-9
-1.997, 9.945e-9
-1.998, 8.662e-9
-1.999, 4.223e-9
-2.000, 5.209e-9
-2.001, 7.577e-9
-2.002, 8.958e-9
-2.003, 8.662e-9
-2.004, 5.505e-9
-2.005, 5.505e-9
-2.006, 8.268e-9
-2.007, 7.873e-9
-2.008, 7.577e-9
-2.009, 5.209e-9
-2.010, 5.998e-9
-2.011, 6.788e-9
-2.012, 7.577e-9
-2.013, 8.465e-9
-2.014, 5.703e-9
-2.015, 5.998e-9
-2.016, 8.070e-9
-2.017, 8.860e-9
-2.018, 7.972e-9
-2.019, 5.604e-9
-2.020, 5.111e-9
-2.021, 6.886e-9
-2.022, 9.254e-9
-2.023, 7.972e-9
-2.024, 5.209e-9
-2.025, 5.111e-9
-2.026, 7.676e-9
-2.027, 8.860e-9
-2.028, 9.254e-9
-2.029, 6.196e-9
-2.030, 5.998e-9
-2.031, 7.281e-9
-2.032, 9.353e-9
-2.033, 8.465e-9
-2.034, 6.590e-9
-2.035, 5.998e-9
-2.036, 8.761e-9
-2.037, 9.649e-9
-2.038, 9.156e-9
-2.039, 5.604e-9
-2.040, 5.209e-9
-2.041, 6.886e-9
-2.042, 7.873e-9
-2.043, 7.774e-9
-2.044, 5.998e-9
-2.045, 5.604e-9
-2.046, 8.366e-9
-2.047, 9.945e-9
-2.048, 9.452e-9
-2.049, 6.788e-9
-2.050, 5.209e-9
-2.051, 8.564e-9
-2.052, 9.945e-9
-2.053, 8.958e-9
-2.054, 6.590e-9
-2.055, 6.886e-9
-2.056, 8.070e-9
-2.057, 9.057e-9
-2.058, 9.353e-9
-2.059, 7.281e-9
-2.060, 5.998e-9
-2.061, 8.268e-9
-2.062, 9.254e-9
-2.063, 7.972e-9
-2.064, 6.590e-9
-2.065, 5.505e-9
-2.066, 8.070e-9
-2.067, 9.748e-9
-2.068, 9.452e-9
-2.069, 6.985e-9
-2.070, 5.604e-9
-2.071, 8.564e-9
-2.072, 8.465e-9
-2.073, 9.846e-9
-2.074, 6.985e-9
-2.075, 6.294e-9
-2.076, 8.761e-9
-2.077, 9.156e-9
-2.078, 9.057e-9
-2.079, 7.380e-9
-2.080, 5.604e-9
-2.081, 7.873e-9
-2.082, 8.860e-9
-2.083, 9.452e-9
-2.084, 7.182e-9
-2.085, 6.492e-9
-2.086, 8.465e-9
-2.087, 9.649e-9
-2.088, 9.254e-9
-2.089, 7.182e-9
-2.090, 5.209e-9
-2.091, 7.774e-9
-2.092, 9.156e-9
-2.093, 9.452e-9
-2.094, 7.084e-9
-2.095, 5.505e-9
-2.096, 8.169e-9
-2.097, 8.761e-9
-2.098, 8.366e-9
-2.099, 8.366e-9
-2.100, 6.492e-9
-2.101, 8.662e-9
-2.102, 1.044e-8
-2.103, 9.550e-9
-2.104, 7.478e-9
-2.105, 6.393e-9
-2.106, 8.169e-9
-2.107, 8.860e-9
-2.108, 9.945e-9
-2.109, 8.070e-9
-2.110, 6.294e-9
-2.111, 7.182e-9
-2.112, 9.550e-9
-2.113, 9.649e-9
-2.114, 8.169e-9
-2.115, 5.407e-9
-2.116, 6.788e-9
-2.117, 8.860e-9
-2.118, 9.156e-9
-2.119, 7.084e-9
-2.120, 6.393e-9
-2.121, 8.169e-9
-2.122, 9.452e-9
-2.123, 9.452e-9
-2.124, 6.689e-9
-2.125, 6.196e-9
-2.126, 7.972e-9
-2.127, 9.353e-9
-2.128, 9.649e-9
-2.129, 7.478e-9
-2.130, 5.998e-9
-2.131, 7.972e-9
-2.132, 9.353e-9
-2.133, 8.860e-9
-2.134, 7.774e-9
-2.135, 5.209e-9
-2.136, 7.478e-9
-2.137, 8.070e-9
-2.138, 8.761e-9
-2.139, 7.182e-9
-2.140, 5.998e-9
-2.141, 7.676e-9
-2.142, 9.156e-9
-2.143, 9.254e-9
-2.144, 7.873e-9
-2.145, 5.505e-9
-2.146, 6.788e-9
-2.147, 9.353e-9
-2.148, 8.860e-9
-2.149, 7.577e-9
-2.150, 5.505e-9
-2.151, 7.478e-9
-2.152, 8.169e-9
-2.153, 9.945e-9
-2.154, 8.268e-9
-2.155, 6.985e-9
-2.156, 7.577e-9
-2.157, 8.860e-9
-2.158, 8.564e-9
-2.159, 8.070e-9
-2.160, 6.294e-9
-2.161, 7.281e-9
-2.162, 8.564e-9
-2.163, 9.452e-9
-2.164, 7.577e-9
-2.165, 6.196e-9
-2.166, 7.084e-9
-2.167, 8.958e-9
-2.168, 9.254e-9
-2.169, 7.676e-9
-2.170, 5.505e-9
-2.171, 6.788e-9
-2.172, 7.873e-9
-2.173, 9.550e-9
-2.174, 7.577e-9
-2.175, 5.604e-9
-2.176, 7.281e-9
-2.177, 9.452e-9
-2.178, 9.452e-9
-2.179, 7.972e-9
-2.180, 5.703e-9
-2.181, 6.886e-9
-2.182, 8.761e-9
-2.183, 9.353e-9
-2.184, 8.169e-9
-2.185, 5.703e-9
-2.186, 5.505e-9
-2.187, 7.972e-9
-2.188, 9.550e-9
-2.189, 8.860e-9
-2.190, 6.393e-9
-2.191, 7.873e-9
-2.192, 9.254e-9
-2.193, 9.649e-9
-2.194, 7.972e-9
-2.195, 5.998e-9
-2.196, 6.886e-9
-2.197, 8.366e-9
-2.198, 8.366e-9
-2.199, 7.873e-9
-2.200, 5.604e-9
-2.201, 7.084e-9
-2.202, 9.452e-9
-2.203, 9.649e-9
-2.204, 8.564e-9
-2.205, 6.294e-9
-2.206, 6.886e-9
-2.207, 9.945e-9
-2.208, 1.014e-8
-2.209, 9.452e-9
-2.210, 7.380e-9
-2.211, 8.070e-9
-2.212, 8.662e-9
-2.213, 8.958e-9
-2.214, 9.057e-9
-2.215, 6.196e-9
-2.216, 6.788e-9
-2.217, 8.761e-9
-2.218, 8.958e-9
-2.219, 8.761e-9
-2.220, 6.196e-9
-2.221, 7.478e-9
-2.222, 8.564e-9
-2.223, 9.057e-9
-2.224, 8.564e-9
-2.225, 6.294e-9
-2.226, 6.097e-9
-2.227, 9.057e-9
-2.228, 9.254e-9
-2.229, 9.452e-9
-2.230, 5.900e-9
-2.231, 6.294e-9
-2.232, 7.774e-9
-2.233, 8.761e-9
-2.234, 8.366e-9
-2.235, 5.900e-9
-2.236, 5.998e-9
-2.237, 8.564e-9
-2.238, 9.649e-9
-2.239, 8.761e-9
-2.240, 6.492e-9
-2.241, 6.788e-9
-2.242, 8.761e-9
-2.243, 9.452e-9
-2.244, 9.254e-9
-2.245, 6.196e-9
-2.246, 7.084e-9
-2.247, 8.860e-9
-2.248, 9.353e-9
-2.249, 8.958e-9
-2.250, 6.492e-9
-2.251, 6.886e-9
-2.252, 7.478e-9
-2.253, 1.034e-8
-2.254, 9.057e-9
-2.255, 7.478e-9
-2.256, 8.268e-9
-2.257, 8.860e-9
-2.258, 1.004e-8
-2.259, 8.169e-9
-2.260, 6.689e-9
-2.261, 7.281e-9
-2.262, 8.662e-9
-2.263, 1.024e-8
-2.264, 8.761e-9
-2.265, 6.590e-9
-2.266, 6.886e-9
-2.267, 9.353e-9
-2.268, 1.034e-8
-2.269, 9.550e-9
-2.270, 6.492e-9
-2.271, 7.577e-9
-2.272, 9.649e-9
-2.273, 1.054e-8
-2.274, 9.550e-9
-2.275, 6.492e-9
-2.276, 6.985e-9
-2.277, 8.958e-9
-2.278, 1.034e-8
-2.279, 9.550e-9
-2.280, 6.590e-9
-2.281, 6.492e-9
-2.282, 9.057e-9
-2.283, 9.945e-9
-2.284, 9.452e-9
-2.285, 6.294e-9
-2.286, 7.182e-9
-2.287, 8.761e-9
-2.288, 1.044e-8
-2.289, 9.748e-9
-2.290, 6.196e-9
-2.291, 6.492e-9
-2.292, 8.268e-9
-2.293, 1.024e-8
-2.294, 9.254e-9
-2.295, 7.281e-9
-2.296, 7.478e-9
-2.297, 8.761e-9
-2.298, 1.034e-8
-2.299, 8.366e-9
-2.300, 6.393e-9
-2.301, 6.788e-9
-2.302, 8.860e-9
-2.303, 1.004e-8
-2.304, 9.452e-9
-2.305, 7.478e-9
-2.306, 8.070e-9
-2.307, 9.550e-9
-2.308, 1.073e-8
-2.309, 9.649e-9
-2.310, 6.492e-9
-2.311, 7.676e-9
-2.312, 8.958e-9
-2.313, 9.550e-9
-2.314, 9.353e-9
-2.315, 6.985e-9
-2.316, 6.097e-9
-2.317, 9.649e-9
-2.318, 9.945e-9
-2.319, 9.748e-9
-2.320, 7.182e-9
-2.321, 7.676e-9
-2.322, 8.662e-9
-2.323, 1.044e-8
-2.324, 1.004e-8
-2.325, 7.478e-9
-2.326, 6.788e-9
-2.327, 8.860e-9
-2.328, 8.761e-9
-2.329, 9.748e-9
-2.330, 6.886e-9
-2.331, 6.492e-9
-2.332, 9.748e-9
-2.333, 9.550e-9
-2.334, 9.254e-9
-2.335, 7.478e-9
-2.336, 6.097e-9
-2.337, 9.156e-9
-2.338, 9.945e-9
-2.339, 9.649e-9
-2.340, 6.886e-9
-2.341, 5.998e-9
-2.342, 8.465e-9
-2.343, 9.550e-9
-2.344, 9.550e-9
-2.345, 6.886e-9
-2.346, 5.703e-9
-2.347, 7.281e-9
-2.348, 9.550e-9
-2.349, 8.761e-9
-2.350, 7.380e-9
-2.351, 6.393e-9
-2.352, 8.366e-9
-2.353, 9.550e-9
-2.354, 9.057e-9
-2.355, 8.268e-9
-2.356, 7.380e-9
-2.357, 9.550e-9
-2.358, 1.054e-8
-2.359, 1.004e-8
-2.360, 6.985e-9
-2.361, 5.407e-9
-2.362, 7.478e-9
-2.363, 9.353e-9
-2.364, 9.748e-9
-2.365, 7.084e-9
-2.366, 6.196e-9
-2.367, 8.366e-9
-2.368, 1.004e-8
-2.369, 9.156e-9
-2.370, 6.788e-9
-2.371, 5.308e-9
-2.372, 8.958e-9
-2.373, 8.761e-9
-2.374, 9.452e-9
-2.375, 7.972e-9
-2.376, 7.084e-9
-2.377, 8.465e-9
-2.378, 1.014e-8
-2.379, 8.662e-9
-2.380, 6.097e-9
-2.381, 5.900e-9
-2.382, 8.465e-9
-2.383, 1.014e-8
-2.384, 9.452e-9
-2.385, 7.774e-9
-2.386, 5.801e-9
-2.387, 8.070e-9
-2.388, 1.034e-8
-2.389, 9.846e-9
-2.390, 7.774e-9
-2.391, 5.998e-9
-2.392, 7.774e-9
-2.393, 9.057e-9
-2.394, 1.024e-8
-2.395, 7.873e-9
-2.396, 6.294e-9
-2.397, 8.366e-9
-2.398, 8.662e-9
-2.399, 9.353e-9
-2.400, 7.774e-9
-2.401, 5.998e-9
-2.402, 8.169e-9
-2.403, 9.452e-9
-2.404, 9.846e-9
-2.405, 8.366e-9
-2.406, 6.886e-9
-2.407, 8.860e-9
-2.408, 9.156e-9
-2.409, 9.945e-9
-2.410, 7.873e-9
-2.411, 6.788e-9
-2.412, 8.070e-9
-2.413, 9.452e-9
-2.414, 9.156e-9
-2.415, 7.084e-9
-2.416, 5.308e-9
-2.417, 7.478e-9
-2.418, 8.465e-9
-2.419, 9.649e-9
-2.420, 8.169e-9
-2.421, 5.604e-9
-2.422, 8.169e-9
-2.423, 9.254e-9
-2.424, 9.156e-9
-2.425, 8.268e-9
-2.426, 6.294e-9
-2.427, 8.366e-9
-2.428, 9.649e-9
-2.429, 9.057e-9
-2.430, 8.169e-9
-2.431, 5.900e-9
-2.432, 7.676e-9
-2.433, 9.353e-9
-2.434, 9.254e-9
-2.435, 7.774e-9
-2.436, 6.097e-9
-2.437, 7.774e-9
-2.438, 8.958e-9
-2.439, 9.452e-9
-2.440, 7.676e-9
-2.441, 5.604e-9
-2.442, 8.070e-9
-2.443, 9.846e-9
-2.444, 8.860e-9
-2.445, 8.070e-9
-2.446, 6.393e-9
-2.447, 7.577e-9
-2.448, 9.156e-9
-2.449, 9.748e-9
-2.450, 7.577e-9
-2.451, 6.294e-9
-2.452, 7.281e-9
-2.453, 8.662e-9
-2.454, 9.452e-9
-2.455, 6.886e-9
-2.456, 5.209e-9
-2.457, 8.268e-9
-2.458, 1.073e-8
-2.459, 1.044e-8
-2.460, 8.761e-9
-2.461, 7.084e-9
-2.462, 8.564e-9
-2.463, 9.452e-9
-2.464, 1.004e-8
-2.465, 8.761e-9
-2.466, 6.886e-9
-2.467, 8.662e-9
-2.468, 9.353e-9
-2.469, 1.004e-8
-2.470, 8.761e-9
-2.471, 6.689e-9
-2.472, 8.268e-9
-2.473, 1.073e-8
-2.474, 1.034e-8
-2.475, 9.550e-9
-2.476, 6.788e-9
-2.477, 9.649e-9
-2.478, 1.024e-8
-2.479, 1.083e-8
-2.480, 1.034e-8
-2.481, 7.873e-9
-2.482, 7.577e-9
-2.483, 9.353e-9
-2.484, 1.103e-8
-2.485, 7.972e-9
-2.486, 6.985e-9
-2.487, 8.366e-9
-2.488, 9.945e-9
-2.489, 1.014e-8
-2.490, 9.057e-9
-2.491, 6.985e-9
-2.492, 7.774e-9
-2.493, 9.254e-9
-2.494, 9.057e-9
-2.495, 8.564e-9
-2.496, 6.886e-9
-2.497, 8.465e-9
-2.498, 9.945e-9
-2.499, 1.073e-8
-2.500, 9.057e-9
-2.501, 6.097e-9
-2.502, 8.268e-9
-2.503, 1.024e-8
-2.504, 9.748e-9
-2.505, 8.958e-9
-2.506, 6.294e-9
-2.507, 7.774e-9
-2.508, 9.353e-9
-2.509, 1.004e-8
-2.510, 8.958e-9
-2.511, 7.281e-9
-2.512, 8.662e-9
-2.513, 9.748e-9
-2.514, 9.550e-9
-2.515, 9.452e-9
-2.516, 6.788e-9
-2.517, 7.873e-9
-2.518, 8.860e-9
-2.519, 9.945e-9
-2.520, 9.846e-9
-2.521, 6.689e-9
-2.522, 8.366e-9
-2.523, 9.945e-9
-2.524, 9.945e-9
-2.525, 9.353e-9
-2.526, 6.985e-9
-2.527, 7.478e-9
-2.528, 9.748e-9
-2.529, 1.152e-8
-2.530, 8.958e-9
-2.531, 7.478e-9
-2.532, 7.873e-9
-2.533, 9.156e-9
-2.534, 9.846e-9
-2.535, 9.057e-9
-2.536, 7.478e-9
-2.537, 7.873e-9
-2.538, 9.550e-9
-2.539, 1.004e-8
-2.540, 8.958e-9
-2.541, 7.972e-9
-2.542, 8.070e-9
-2.543, 9.748e-9
-2.544, 9.945e-9
-2.545, 9.945e-9
-2.546, 5.801e-9
-2.547, 6.985e-9
-2.548, 9.254e-9
-2.549, 9.353e-9
-2.550, 8.958e-9
-2.551, 6.590e-9
-2.552, 7.774e-9
-2.553, 8.761e-9
-2.554, 1.004e-8
-2.555, 9.057e-9
-2.556, 6.492e-9
-2.557, 8.070e-9
-2.558, 8.958e-9
-2.559, 9.748e-9
-2.560, 9.156e-9
-2.561, 6.788e-9
-2.562, 7.873e-9
-2.563, 9.057e-9
-2.564, 1.024e-8
-2.565, 8.070e-9
-2.566, 7.577e-9
-2.567, 7.774e-9
-2.568, 9.748e-9
-2.569, 1.014e-8
-2.570, 1.004e-8
-2.571, 7.676e-9
-2.572, 6.886e-9
-2.573, 9.748e-9
-2.574, 1.004e-8
-2.575, 9.846e-9
-2.576, 6.393e-9
-2.577, 7.774e-9
-2.578, 8.958e-9
-2.579, 1.034e-8
-2.580, 9.846e-9
-2.581, 6.294e-9
-2.582, 7.281e-9
-2.583, 8.860e-9
-2.584, 9.550e-9
-2.585, 9.254e-9
-2.586, 7.676e-9
-2.587, 8.070e-9
-2.588, 9.254e-9
-2.589, 1.103e-8
-2.590, 9.550e-9
-2.591, 5.801e-9
-2.592, 7.182e-9
-2.593, 9.156e-9
-2.594, 8.958e-9
-2.595, 9.452e-9
-2.596, 6.689e-9
-2.597, 6.097e-9
-2.598, 9.353e-9
-2.599, 1.004e-8
-2.600, 9.452e-9
-2.601, 6.590e-9
-2.602, 7.182e-9
-2.603, 9.057e-9
-2.604, 1.064e-8
-2.605, 9.254e-9
-2.606, 5.998e-9
-2.607, 6.590e-9
-2.608, 9.452e-9
-2.609, 1.014e-8
-2.610, 1.034e-8
-2.611, 6.886e-9
-2.612, 8.169e-9
-2.613, 1.034e-8
-2.614, 9.550e-9
-2.615, 1.034e-8
-2.616, 7.577e-9
-2.617, 6.492e-9
-2.618, 9.353e-9
-2.619, 1.004e-8
-2.620, 9.353e-9
-2.621, 7.281e-9
-2.622, 6.788e-9
-2.623, 9.057e-9
-2.624, 1.083e-8
-2.625, 1.054e-8
-2.626, 6.886e-9
-2.627, 7.281e-9
-2.628, 9.254e-9
-2.629, 1.014e-8
-2.630, 9.156e-9
-2.631, 7.182e-9
-2.632, 6.590e-9
-2.633, 8.860e-9
-2.634, 1.004e-8
-2.635, 8.761e-9
-2.636, 7.084e-9
-2.637, 7.873e-9
-2.638, 9.846e-9
-2.639, 1.093e-8
-2.640, 9.550e-9
-2.641, 6.788e-9
-2.642, 6.196e-9
-2.643, 9.057e-9
-2.644, 1.064e-8
-2.645, 1.034e-8
-2.646, 7.774e-9
-2.647, 6.985e-9
-2.648, 9.748e-9
-2.649, 1.014e-8
-2.650, 1.093e-8
-2.651, 8.268e-9
-2.652, 6.689e-9
-2.653, 9.748e-9
-2.654, 9.846e-9
-2.655, 9.057e-9
-2.656, 7.182e-9
-2.657, 6.590e-9
-2.658, 8.662e-9
-2.659, 1.054e-8
-2.660, 8.958e-9
-2.661, 6.788e-9
-2.662, 7.084e-9
-2.663, 9.452e-9
-2.664, 1.113e-8
-2.665, 1.054e-8
-2.666, 7.873e-9
-2.667, 7.182e-9
-2.668, 9.156e-9
-2.669, 1.162e-8
-2.670, 1.014e-8
-2.671, 8.662e-9
-2.672, 8.564e-9
-2.673, 8.958e-9
-2.674, 9.748e-9
-2.675, 1.034e-8
-2.676, 7.577e-9
-2.677, 6.985e-9
-2.678, 9.945e-9
-2.679, 1.083e-8
-2.680, 1.083e-8
-2.681, 7.972e-9
-2.682, 7.281e-9
-2.683, 9.353e-9
-2.684, 1.093e-8
-2.685, 1.113e-8
-2.686, 8.465e-9
-2.687, 7.577e-9
-2.688, 9.945e-9
-2.689, 1.103e-8
-2.690, 1.152e-8
-2.691, 7.972e-9
-2.692, 7.676e-9
-2.693, 8.268e-9
-2.694, 1.054e-8
-2.695, 1.093e-8
-2.696, 8.169e-9
-2.697, 6.985e-9
-2.698, 8.564e-9
-2.699, 1.044e-8
-2.700, 9.846e-9
-2.701, 7.873e-9
-2.702, 7.676e-9
-2.703, 9.649e-9
-2.704, 1.073e-8
-2.705, 9.846e-9
-2.706, 6.590e-9
-2.707, 6.393e-9
-2.708, 9.649e-9
-2.709, 1.034e-8
-2.710, 1.073e-8
-2.711, 8.564e-9
-2.712, 6.097e-9
-2.713, 8.761e-9
-2.714, 1.103e-8
-2.715, 1.103e-8
-2.716, 7.873e-9
-2.717, 7.873e-9
-2.718, 1.054e-8
-2.719, 1.083e-8
-2.720, 1.133e-8
-2.721, 7.478e-9
-2.722, 7.774e-9
-2.723, 9.156e-9
-2.724, 1.064e-8
-2.725, 1.044e-8
-2.726, 8.564e-9
-2.727, 7.774e-9
-2.728, 8.564e-9
-2.729, 1.054e-8
-2.730, 1.044e-8
-2.731, 7.972e-9
-2.732, 6.788e-9
-2.733, 9.550e-9
-2.734, 1.044e-8
-2.735, 1.024e-8
-2.736, 8.366e-9
-2.737, 6.985e-9
-2.738, 9.452e-9
-2.739, 1.004e-8
-2.740, 9.945e-9
-2.741, 7.182e-9
-2.742, 7.774e-9
-2.743, 9.846e-9
-2.744, 1.073e-8
-2.745, 1.093e-8
-2.746, 8.268e-9
-2.747, 5.604e-9
-2.748, 8.761e-9
-2.749, 9.945e-9
-2.750, 1.024e-8
-2.751, 7.676e-9
-2.752, 6.788e-9
-2.753, 8.860e-9
-2.754, 9.945e-9
-2.755, 1.044e-8
-2.756, 8.465e-9
-2.757, 7.478e-9
-2.758, 8.564e-9
-2.759, 1.054e-8
-2.760, 1.093e-8
-2.761, 7.774e-9
-2.762, 7.873e-9
-2.763, 8.761e-9
-2.764, 9.748e-9
-2.765, 1.044e-8
-2.766, 9.254e-9
-2.767, 7.478e-9
-2.768, 9.846e-9
-2.769, 1.044e-8
-2.770, 9.748e-9
-2.771, 9.057e-9
-2.772, 5.998e-9
-2.773, 9.452e-9
-2.774, 9.846e-9
-2.775, 1.044e-8
-2.776, 8.268e-9
-2.777, 6.689e-9
-2.778, 1.034e-8
-2.779, 1.123e-8
-2.780, 9.057e-9
-2.781, 8.860e-9
-2.782, 7.182e-9
-2.783, 8.366e-9
-2.784, 1.054e-8
-2.785, 1.123e-8
-2.786, 7.972e-9
-2.787, 7.281e-9
-2.788, 9.550e-9
-2.789, 9.353e-9
-2.790, 9.649e-9
-2.791, 9.156e-9
-2.792, 7.182e-9
-2.793, 9.254e-9
-2.794, 1.064e-8
-2.795, 1.064e-8
-2.796, 8.761e-9
-2.797, 6.492e-9
-2.798, 8.860e-9
-2.799, 9.945e-9
-2.800, 1.073e-8
-2.801, 8.169e-9
-2.802, 7.281e-9
-2.803, 9.353e-9
-2.804, 1.034e-8
-2.805, 1.064e-8
-2.806, 9.156e-9
-2.807, 7.182e-9
-2.808, 9.057e-9
-2.809, 1.073e-8
-2.810, 1.024e-8
-2.811, 8.366e-9
-2.812, 7.182e-9
-2.813, 8.958e-9
-2.814, 1.024e-8
-2.815, 1.083e-8
-2.816, 9.649e-9
-2.817, 7.182e-9
-2.818, 8.958e-9
-2.819, 1.083e-8
-2.820, 1.054e-8
-2.821, 8.860e-9
-2.822, 6.590e-9
-2.823, 8.268e-9
-2.824, 8.958e-9
-2.825, 9.748e-9
-2.826, 8.169e-9
-2.827, 7.380e-9
-2.828, 8.662e-9
-2.829, 1.073e-8
-2.830, 1.044e-8
-2.831, 9.353e-9
-2.832, 6.294e-9
-2.833, 8.958e-9
-2.834, 9.748e-9
-2.835, 1.034e-8
-2.836, 8.465e-9
-2.837, 5.801e-9
-2.838, 9.057e-9
-2.839, 9.846e-9
-2.840, 9.846e-9
-2.841, 8.465e-9
-2.842, 6.886e-9
-2.843, 8.169e-9
-2.844, 1.123e-8
-2.845, 1.054e-8
-2.846, 8.662e-9
-2.847, 7.676e-9
-2.848, 8.169e-9
-2.849, 1.083e-8
-2.850, 1.024e-8
-2.851, 9.156e-9
-2.852, 6.886e-9
-2.853, 8.465e-9
-2.854, 1.054e-8
-2.855, 1.034e-8
-2.856, 9.550e-9
-2.857, 7.380e-9
-2.858, 7.873e-9
-2.859, 1.034e-8
-2.860, 9.748e-9
-2.861, 9.156e-9
-2.862, 6.788e-9
-2.863, 8.564e-9
-2.864, 1.034e-8
-2.865, 1.172e-8
-2.866, 9.057e-9
-2.867, 7.873e-9
-2.868, 9.649e-9
-2.869, 1.073e-8
-2.870, 1.113e-8
-2.871, 9.550e-9
-2.872, 7.676e-9
-2.873, 8.958e-9
-2.874, 1.044e-8
-2.875, 1.162e-8
-2.876, 9.649e-9
-2.877, 7.084e-9
-2.878, 9.550e-9
-2.879, 1.093e-8
-2.880, 1.162e-8
-2.881, 1.014e-8
-2.882, 8.070e-9
-2.883, 1.004e-8
-2.884, 1.054e-8
-2.885, 1.123e-8
-2.886, 9.846e-9
-2.887, 6.886e-9
-2.888, 9.057e-9
-2.889, 1.064e-8
-2.890, 1.113e-8
-2.891, 9.452e-9
-2.892, 7.084e-9
-2.893, 9.550e-9
-2.894, 1.014e-8
-2.895, 1.123e-8
-2.896, 9.057e-9
-2.897, 6.788e-9
-2.898, 9.156e-9
-2.899, 1.103e-8
