Potential V vs RHE, Current mA cm-2
0.05339999999999995,-0.08240693321713838
0.05239999999999995,-0.1258102758969977
0.051399999999999946,-0.15675001202504607
0.050399999999999945,-0.17627302796318356
0.049399999999999944,-0.19183485226169897
0.04839999999999994,-0.20527460961041682
0.04739999999999994,-0.21758259791924262
0.04639999999999994,-0.22861734605818995
0.04539999999999994,-0.23908620967719119
0.04439999999999994,-0.24884771764625993
0.04339999999999994,-0.2580433410953827
0.04239999999999994,-0.26723896454450546
0.04139999999999994,-0.27586870347368214
0.040399999999999936,-0.2839325578829129
0.039399999999999935,-0.29227935455211657
0.038399999999999934,-0.3004846800913338
0.03739999999999993,-0.30826559224059147
0.03639999999999993,-0.31576356212987616
0.03539999999999993,-0.3231200608891744
0.03439999999999993,-0.33019361738849956
0.03339999999999993,-0.33740864501781126
0.03239999999999993,-0.34476514377710943
0.03139999999999993,-0.35183870027643466
0.030399999999999927,-0.3583463722558138
0.029399999999999926,-0.3652784576251525
0.028399999999999925,-0.3720690718645046
0.027399999999999924,-0.3787182149738703
0.026399999999999924,-0.3855088292132225
0.025399999999999923,-0.3920165011926017
0.024399999999999922,-0.39838270204199433
0.02339999999999992,-0.40503184515136
0.02239999999999992,-0.4113980460007527
0.02139999999999992,-0.4179057179801318
0.020399999999999918,-0.4242719188295245
0.019399999999999917,-0.43021370628895766
0.018399999999999916,-0.43672137826833685
0.017399999999999916,-0.4429461079877429
0.016399999999999915,-0.4494537799671222
0.015399999999999914,-0.4556785096865283
0.014399999999999913,-0.461478826015975
0.013399999999999912,-0.46798649799535413
0.012399999999999911,-0.4740697565847738
0.01139999999999991,-0.48015301517419345
0.01039999999999991,-0.4862362737636131
0.009399999999999908,-0.4920365900930598
0.008399999999999908,-0.4981198486824793
0.007399999999999907,-0.504203107271899
0.006399999999999906,-0.5100034236013458
0.005399999999999905,-0.5160866821907654
0.004399999999999904,-0.5218869985202121
0.003399999999999903,-0.5276873148496587
0.002399999999999902,-0.5340535156990515
0.0013999999999999013,-0.539570889768525
0.00039999999999990044,-0.5453712060979717
-0.0006000000000001005,-0.5510300512974318
-0.0016000000000001013,-0.5568303676268785
-0.0026000000000001022,-0.5627721550863116
-0.003600000000000103,-0.5687139425457448
-0.004600000000000104,-0.5740898454852319
-0.005600000000000105,-0.5798901618146786
-0.006600000000000106,-0.5855490070141387
-0.007600000000000107,-0.5912078522135988
-0.008600000000000108,-0.5970081685430455
-0.009600000000000108,-0.6025255426125191
-0.01060000000000011,-0.6081843878119793
-0.01160000000000011,-0.6137017618814529
-0.012600000000000111,-0.6196435493408861
-0.013600000000000112,-0.6253023945403461
-0.014600000000000113,-0.6301124129598873
-0.015600000000000114,-0.6356297870293609
-0.016600000000000115,-0.6411471610988346
-0.017600000000000116,-0.6463815929083352
-0.018600000000000116,-0.6520404381077953
-0.019600000000000117,-0.6574163410472825
-0.020600000000000118,-0.6626507728567832
-0.02160000000000012,-0.6683096180562434
-0.02260000000000012,-0.6736855209957305
-0.02360000000000012,-0.6792028950652041
-0.024600000000000122,-0.6844373268747048
-0.025600000000000123,-0.6895302875542189
-0.026600000000000124,-0.6950476616236926
-0.027600000000000124,-0.7002820934331931
-0.028600000000000125,-0.7056579963726802
-0.029600000000000126,-0.710892428182181
-0.030600000000000127,-0.7161268599916816
-0.03160000000000013,-0.7213612918011821
-0.03260000000000013,-0.7267371947406693
-0.03360000000000013,-0.731688684290197
-0.03460000000000002,-0.7370645872296842
-0.03560000000000002,-0.7421575479091983
-0.03660000000000002,-0.7473919797186989
-0.03760000000000002,-0.753050824918159
-0.03860000000000002,-0.7581437855976731
-0.039600000000000024,-0.7633782174071737
-0.040600000000000025,-0.7683297069567014
-0.041600000000000026,-0.7732811965062291
-0.04260000000000003,-0.7787985705757027
-0.04360000000000003,-0.7841744735151899
-0.04460000000000003,-0.7891259630647174
-0.04560000000000003,-0.7943603948742181
-0.04660000000000003,-0.7993118844237457
-0.04760000000000003,-0.8048292584932193
-0.04860000000000003,-0.8102051614327065
-0.04960000000000003,-0.8151566509822342
-0.050600000000000034,-0.8202496116617483
-0.051600000000000035,-0.8256255146012355
-0.052600000000000036,-0.8307184752807496
-0.053600000000000037,-0.8360943782202367
-0.05460000000000004,-0.8410458677697643
-0.05560000000000004,-0.8461388284492785
-0.05660000000000004,-0.8513732602587791
-0.05760000000000004,-0.8566076920682798
-0.05860000000000004,-0.8621250661377534
-0.05960000000000004,-0.8672180268172675
-0.06060000000000004,-0.8721695163667951
-0.061600000000000044,-0.8776868904362687
-0.06260000000000004,-0.8829213222457692
-0.06360000000000005,-0.888438696315243
-0.06460000000000005,-0.8936731281247438
-0.06560000000000005,-0.8987660888042578
-0.06660000000000005,-0.904141991743745
-0.06760000000000005,-0.9096593658132186
-0.06860000000000005,-0.9148937976227193
-0.06960000000000005,-0.9204111716921929
-0.07060000000000005,-0.9255041323717068
-0.07160000000000005,-0.9307385641812077
-0.07260000000000005,-0.9363974093806677
-0.07360000000000005,-0.9416318411901684
-0.07460000000000006,-0.947149215259642
-0.07560000000000006,-0.9523836470691426
-0.07660000000000006,-0.9577595500086299
-0.07760000000000006,-0.9635598663380764
-0.07860000000000006,-0.9686528270175907
-0.07960000000000006,-0.9740287299570778
-0.08060000000000006,-0.9794046328965649
-0.08160000000000006,-0.9849220069660385
-0.08260000000000006,-0.9905808521654985
-0.08360000000000006,-0.9958152839749993
-0.08460000000000006,-1.0011911869144865
-0.08560000000000006,-1.0069915032439332
-0.08660000000000007,-1.0125088773134068
-0.08760000000000007,-1.0183091936428532
-0.08860000000000007,-1.023826567712327
-0.08960000000000007,-1.0292024706518144
-0.09060000000000007,-1.0347198447212878
-0.09160000000000007,-1.0402372187907614
-0.09260000000000007,-1.0458960639902217
-0.09360000000000007,-1.0515549091896819
-0.09460000000000007,-1.0567893409991824
-0.09560000000000007,-1.0624481861986426
-0.09660000000000007,-1.0679655602681162
-0.09760000000000008,-1.0734829343375898
-0.09860000000000008,-1.079424721797023
-0.09960000000000008,-1.0848006247365103
-0.10060000000000008,-1.0901765276759974
-0.10160000000000008,-1.0962597862654169
-0.10260000000000008,-1.1017771603348907
-0.10360000000000008,-1.107294534404364
-0.10460000000000008,-1.113094850733811
-0.10560000000000008,-1.118470753673298
-0.10660000000000008,-1.1244125411327313
-0.10760000000000008,-1.1300713863321914
-0.10860000000000009,-1.135588760401665
-0.10960000000000009,-1.1413890767311115
-0.11060000000000009,-1.1470479219305718
-0.11160000000000009,-1.152706767130032
-0.11260000000000009,-1.1585070834594786
-0.11360000000000009,-1.164307399788925
-0.11460000000000009,-1.1705321295083313
-0.11560000000000009,-1.1764739169677645
-0.11660000000000009,-1.1815668776472785
-0.1176000000000001,-1.1875086651067117
-0.1186000000000001,-1.1930260391761855
-0.1196000000000001,-1.1986848843756457
-0.1206000000000001,-1.204202258445119
-0.1216000000000001,-1.2098611036445792
-0.1226000000000001,-1.2158028911040124
-0.1236000000000001,-1.2214617363034728
-0.1246000000000001,-1.2269791103729464
-0.1256000000000001,-1.2327794267023928
-0.1266000000000001,-1.2384382719018532
-0.1276000000000001,-1.2443800593612864
-0.1286000000000001,-1.2500389045607463
-0.1296000000000001,-1.2555562786302201
-0.1306000000000001,-1.2613565949596666
-0.1316000000000001,-1.2668739690291404
-0.1326000000000001,-1.2725328142286005
-0.1336000000000001,-1.278333130558047
-0.1346000000000001,-1.2838505046275208
-0.1356000000000001,-1.289226407567008
-0.1366000000000001,-1.2953096661564274
-0.1376000000000001,-1.3008270402259012
-0.1386000000000001,-1.3064858854253614
-0.1396000000000001,-1.3121447306248215
-0.1406000000000001,-1.3176621046942951
-0.14160000000000011,-1.3234624210237418
-0.14260000000000012,-1.3289797950932156
-0.14360000000000012,-1.334780111422662
-0.14460000000000012,-1.3398730721021763
-0.14560000000000012,-1.3455319173016365
-0.14660000000000012,-1.3513322336310831
-0.14760000000000012,-1.3569910788305433
-0.14860000000000012,-1.3625084529000169
-0.14960000000000012,-1.3680258269694907
-0.15060000000000012,-1.373260258778991
-0.15160000000000012,-1.3789191039784512
-0.15260000000000012,-1.384719420307898
-0.15360000000000013,-1.3900953232473852
-0.15460000000000013,-1.3954712261868722
-0.15560000000000013,-1.4007056579963728
-0.15660000000000013,-1.4059400898058736
-0.15760000000000013,-1.41174040613532
-0.15860000000000013,-1.4175407224647667
-0.15960000000000002,-1.423199567664227
-0.16060000000000002,-1.427443701563822
-0.16160000000000002,-1.433102546763282
-0.16260000000000002,-1.4387613919627424
-0.16360000000000002,-1.4444202371622026
-0.16460000000000002,-1.4486643710617975
-0.16560000000000002,-1.4557379275611226
-0.16660000000000003,-1.462811484060448
-0.16760000000000003,-1.4670556179600431
-0.16860000000000003,-1.471299751859638
-0.16960000000000003,-1.4769585970590984
-0.17060000000000003,-1.4812027309586933
-0.17160000000000003,-1.4868615761581534
-0.17260000000000003,-1.4911057100577487
-0.17360000000000003,-1.4967645552572086
-0.17460000000000003,-1.501008689156804
-0.17560000000000003,-1.506667534356264
-0.17660000000000003,-1.512326379555724
-0.17760000000000004,-1.5165705134553193
-0.17860000000000004,-1.5222293586547795
-0.17960000000000004,-1.5264734925543744
-0.18060000000000004,-1.5307176264539697
-0.18160000000000004,-1.5363764716534298
-0.18260000000000004,-1.54203531685289
-0.18360000000000004,-1.546279450752485
-0.18460000000000004,-1.5519382959519452
-0.18560000000000004,-1.5561824298515403
-0.18660000000000004,-1.5604265637511354
-0.18760000000000004,-1.5660854089505953
-0.18860000000000005,-1.5703295428501907
-0.18960000000000005,-1.5745736767497858
-0.19060000000000005,-1.580232521949246
-0.19160000000000005,-1.584476655848841
-0.19260000000000005,-1.5901355010483011
-0.19360000000000005,-1.5943796349478963
-0.19460000000000005,-1.5986237688474914
-0.19560000000000005,-1.6028679027470865
-0.19660000000000005,-1.6085267479465466
-0.19760000000000005,-1.612770881846142
-0.19860000000000005,-1.6170150157457368
-0.19960000000000006,-1.6212591496453321
-0.20060000000000006,-1.626917994844792
-0.20160000000000006,-1.6311621287443874
-0.20260000000000006,-1.6354062626439825
-0.20360000000000006,-1.6396503965435776
-0.20460000000000006,-1.643894530443173
-0.20560000000000006,-1.6481386643427678
-0.20660000000000006,-1.6523827982423631
-0.20760000000000006,-1.658041643441823
-0.20860000000000006,-1.6622857773414181
-0.20960000000000006,-1.6651151999411482
-0.21060000000000006,-1.6707740451406083
-0.21160000000000007,-1.6750181790402037
-0.21260000000000007,-1.6792623129397986
-0.21360000000000007,-1.6835064468393939
-0.21460000000000007,-1.6877505807389888
-0.21560000000000007,-1.6919947146385839
-0.21660000000000007,-1.696238848538179
-0.21760000000000007,-1.700482982437774
-0.21860000000000007,-1.7047271163373692
-0.21960000000000007,-1.7089712502369643
-0.22060000000000007,-1.7132153841365596
-0.22160000000000007,-1.7174595180361545
-0.22260000000000008,-1.7202889406358846
-0.22360000000000008,-1.7245330745354797
-0.22460000000000008,-1.7287772084350748
-0.22560000000000008,-1.7330213423346699
-0.22660000000000008,-1.7372654762342652
-0.22760000000000008,-1.7400948988339953
-0.22860000000000008,-1.7443390327335901
-0.22960000000000008,-1.7485831666331852
-0.23060000000000008,-1.7528273005327806
-0.23160000000000008,-1.7570714344323757
-0.23260000000000008,-1.7599008570321055
-0.23360000000000009,-1.7641449909317006
-0.2346000000000001,-1.768389124831296
-0.2356000000000001,-1.772633258730891
-0.2366000000000001,-1.776877392630486
-0.2376000000000001,-1.779706815230216
-0.2386000000000001,-1.7839509491298113
-0.2396000000000001,-1.7881950830294064
-0.2406000000000001,-1.7924392169290013
-0.2416000000000001,-1.7952686395287314
-0.2426000000000001,-1.7995127734283267
-0.2436000000000001,-1.8037569073279218
-0.2446000000000001,-1.8080010412275167
-0.2456000000000001,-1.8108304638272468
-0.2466000000000001,-1.815074597726842
-0.2476000000000001,-1.8193187316264372
-0.2486000000000001,-1.823562865526032
-0.2496000000000001,-1.8263922881257622
-0.2506000000000001,-1.8306364220253575
-0.2516000000000001,-1.8348805559249526
-0.2526000000000001,-1.8377099785246829
-0.2536000000000001,-1.8419541124242775
-0.2546000000000001,-1.8461982463238729
-0.2556000000000001,-1.850442380223468
-0.2566000000000001,-1.8546865141230628
-0.2576000000000001,-1.857515936722793
-0.2586000000000001,-1.8617600706223882
-0.2596000000000001,-1.8660042045219833
-0.2606000000000001,-1.8702483384215782
-0.2616000000000001,-1.8730777610213083
-0.2626000000000001,-1.8773218949209036
-0.2636000000000001,-1.8815660288204987
-0.2646000000000001,-1.8858101627200938
-0.2656000000000001,-1.890054296619689
-0.2666000000000001,-1.894298430519284
-0.2676000000000001,-1.8985425644188794
-0.2686000000000001,-1.9027866983184742
-0.2696000000000001,-1.9070308322180693
-0.2706000000000001,-1.9098602548177994
-0.2716000000000001,-1.9141043887173947
-0.2726000000000001,-1.9197632339168547
-0.2736000000000001,-1.922592656516585
-0.2746000000000001,-1.92683679041618
-0.2756000000000001,-1.9310809243157752
-0.2766000000000001,-1.93532505821537
-0.2776000000000001,-1.9409839034148304
-0.2786000000000001,-1.9452280373144257
-0.2796000000000001,-1.9494721712140204
-0.2806000000000001,-1.9537163051136157
-0.28160000000000013,-1.9579604390132106
-0.28260000000000013,-1.9622045729128061
-0.28360000000000013,-1.967863418112266
-0.2846,-1.972107552011861
-0.2856,-1.9763516859114565
-0.2866,-1.9820105311109162
-0.2876,-1.9862546650105113
-0.2886,-1.9904987989101068
-0.2896,-1.9961576441095665
-0.2906,-2.0004017780091616
-0.2916,-2.0060606232086218
-0.2926,-2.0103047571082175
-0.2936,-2.0159636023076772
-0.29460000000000003,-2.020207736207272
-0.29560000000000003,-2.0258665814067327
-0.29660000000000003,-2.0315254266061924
-0.29760000000000003,-2.0371842718056525
-0.29860000000000003,-2.0414284057052483
-0.29960000000000003,-2.047087250904708
-0.30060000000000003,-2.052746096104168
-0.30160000000000003,-2.0584049413036287
-0.30260000000000004,-2.0640637865030884
-0.30360000000000004,-2.0697226317025486
-0.30460000000000004,-2.0753814769020087
-0.30560000000000004,-2.081040322101469
-0.30660000000000004,-2.0866991673009294
-0.30760000000000004,-2.092358012500389
-0.30860000000000004,-2.0980168576998492
-0.30960000000000004,-2.105090414199175
-0.31060000000000004,-2.110749259398635
-0.31160000000000004,-2.116408104598095
-0.31260000000000004,-2.12348166109742
-0.31360000000000005,-2.12914050629688
-0.31460000000000005,-2.136214062796206
-0.31560000000000005,-2.1418729079956655
-0.31660000000000005,-2.148946464494991
-0.31760000000000005,-2.156020020994316
-0.31860000000000005,-2.161678866193776
-0.31960000000000005,-2.1701671339929662
-0.32060000000000005,-2.177240690492291
-0.32160000000000005,-2.1828995356917518
-0.32260000000000005,-2.1899730921910767
-0.32360000000000005,-2.197046648690402
-0.32460000000000006,-2.204120205189727
-0.32560000000000006,-2.2111937616890525
-0.32660000000000006,-2.2196820294882422
-0.32760000000000006,-2.226755585987568
-0.32860000000000006,-2.2338291424868926
-0.32960000000000006,-2.2423174102860832
-0.33060000000000006,-2.249390966785408
-0.33160000000000006,-2.257879234584599
-0.33260000000000006,-2.2663675023837886
-0.33360000000000006,-2.273441058883114
-0.33460000000000006,-2.2819293266823037
-0.33560000000000006,-2.2904175944814944
-0.33660000000000007,-2.2974911509808194
-0.33760000000000007,-2.30597941878001
-0.33860000000000007,-2.3144676865791998
-0.33960000000000007,-2.3229559543783904
-0.34060000000000007,-2.33144422217758
-0.34160000000000007,-2.3413472012766356
-0.34260000000000007,-2.349835469075826
-0.34360000000000007,-2.359738448174881
-0.3446000000000001,-2.3682267159740715
-0.3456000000000001,-2.3781296950731265
-0.3466000000000001,-2.386617962872317
-0.34759999999999996,-2.396520941971372
-0.3486000000000001,-2.4064239210704272
-0.34959999999999997,-2.414912188869618
-0.3506000000000001,-2.424815167968673
-0.35159999999999997,-2.4347181470677284
-0.3526000000000001,-2.4460358374666487
-0.35359999999999997,-2.4545241052658384
-0.3546000000000001,-2.465841795664759
-0.35559999999999997,-2.475744774763814
-0.3566000000000001,-2.485647753862869
-0.3576,-2.49696544426179
-0.3586000000000001,-2.506868423360845
-0.3596,-2.518186113759765
-0.3606000000000001,-2.5280890928588207
-0.3616,-2.539406783257741
-0.3626000000000001,-2.550724473656661
-0.3636,-2.5620421640555815
-0.3646000000000001,-2.5733598544545018
-0.3656,-2.584677544853422
-0.3666000000000001,-2.5959952352523423
-0.3676,-2.6073129256512626
-0.3686000000000001,-2.6200453273500477
-0.3696,-2.631363017748968
-0.3706000000000001,-2.6440954194477535
-0.3716,-2.655413109846674
-0.3726000000000001,-2.6681455115454593
-0.3736,-2.6808779132442444
-0.3746000000000001,-2.6921956036431647
-0.3756,-2.7049280053419507
-0.3766000000000001,-2.7176604070407357
-0.3776,-2.730392808739521
-0.3786000000000001,-2.743125210438306
-0.3796,-2.7558576121370915
-0.3806000000000001,-2.768590013835877
-0.3816,-2.7827371268345273
-0.3826000000000001,-2.795469528533313
-0.3836,-2.8096166415319628
-0.3846000000000001,-2.822349043230748
-0.3856,-2.8350814449295334
-0.3866000000000001,-2.8492285579281837
-0.3876,-2.863375670926834
-0.3886000000000001,-2.877522783925485
-0.3896,-2.89025518562427
-0.3906000000000001,-2.9044022986229203
-0.3916,-2.919964122921436
-0.3926000000000001,-2.9341112359200863
-0.3936,-2.9482583489187366
-0.3946000000000001,-2.9624054619173865
-0.3956,-2.976552574916037
-0.3966000000000001,-2.9921143992145525
-0.3976,-3.006261512213203
-0.3986000000000001,-3.021823336511718
-0.3996,-3.0359704495103688
-0.4006000000000001,-3.0515322738088844
-0.4016,-3.0656793868075347
-0.4026000000000001,-3.08124121110605
-0.4036,-3.0968030354045655
-0.4046000000000001,-3.1123648597030806
-0.4056,-3.1279266840015962
-0.40660000000000013,-3.1434885083001114
-0.4076,-3.159050332598627
-0.40860000000000013,-3.174612156897142
-0.4096,-3.1901739811956578
-0.41060000000000013,-3.205735805494173
-0.4116,-3.2212976297926885
-0.41260000000000013,-3.238274165391069
-0.4136,-3.253835989689584
-0.41460000000000014,-3.270812525287965
-0.4156,-3.28637434958648
-0.41660000000000014,-3.303350885184861
-0.4176,-3.3189127094833766
-0.41860000000000014,-3.3344745337818917
-0.41960000000000003,-3.351451069380272
-0.42060000000000014,-3.368427604978652
-0.42160000000000003,-3.3854041405770325
-0.42260000000000014,-3.402380676175413
-0.42360000000000003,-3.4179425004739286
-0.42460000000000014,-3.434919036072309
-0.42560000000000003,-3.4518955716706894
-0.42660000000000015,-3.46887210726907
-0.42760000000000004,-3.4844339315675854
-0.42860000000000015,-3.5014104671659654
-0.42960000000000004,-3.5183870027643462
-0.43060000000000015,-3.5353635383627267
-0.43160000000000004,-3.552340073961107
-0.43260000000000015,-3.569316609559488
-0.43360000000000004,-3.586293145157868
-0.43460000000000015,-3.6032696807562488
-0.43560000000000004,-3.6202462163546287
-0.43660000000000015,-3.6372227519530096
-0.43760000000000004,-3.6541992875513896
-0.43860000000000016,-3.6711758231497704
-0.43960000000000005,-3.6895670700480157
-0.44060000000000016,-3.7065436056463965
-0.44160000000000005,-3.7235201412447765
-0.44260000000000016,-3.7404966768431565
-0.44360000000000005,-3.7574732124415373
-0.44460000000000016,-3.7744497480399173
-0.44560000000000005,-3.791426283638298
-0.44660000000000016,-3.8084028192366786
-0.44760000000000005,-3.825379354835059
-0.44860000000000017,-3.8437706017333046
-0.44960000000000006,-3.8593324260318203
