Dec. 12, 2024   06:46:30
Cyclic Voltammetry
File: c:/users/guazh/data/banditlqround7_x0exp59_r20/2024-12-09-exp635\exp635-2024-12-12t06_35_13-arkoh\exp635_cv_sr_600mvs_efin_-1500mv.bin
Data Source:  Experiment
Instrument Model:  CHI760E
Header: CV ran at 600 mVs
Note: 

Init E (V) = -1
High E (V) = -1
Low E (V) = -1.5
Final E (V) = -1
Init P/N = N
Scan Rate (V/s) = 0.6
Segment = 3
Sample Interval (V) = 0.001
Quiet Time (sec) = 2
Sensitivity (A/V) = 0.01
Comp R (ohm) = 1.4

Results:

Channel 1:
Segment 1:

Segment 2:

Segment 3:

Potential/V, Current/A

-1.000, 2.174e-5
-1.001, 7.415e-5
-1.002, 1.081e-4
-1.003, 1.358e-4
-1.004, 1.543e-4
-1.005, 1.759e-4
-1.006, 1.913e-4
-1.007, 2.036e-4
-1.008, 2.160e-4
-1.009, 2.252e-4
-1.010, 2.345e-4
-1.011, 2.376e-4
-1.012, 2.406e-4
-1.013, 2.468e-4
-1.014, 2.499e-4
-1.015, 2.530e-4
-1.016, 2.591e-4
-1.017, 2.622e-4
-1.018, 2.653e-4
-1.019, 2.684e-4
-1.020, 2.715e-4
-1.021, 2.715e-4
-1.022, 2.715e-4
-1.023, 2.715e-4
-1.024, 2.715e-4
-1.025, 2.746e-4
-1.026, 2.776e-4
-1.027, 2.807e-4
-1.028, 2.838e-4
-1.029, 2.838e-4
-1.030, 2.838e-4
-1.031, 2.807e-4
-1.032, 2.807e-4
-1.033, 2.807e-4
-1.034, 2.807e-4
-1.035, 2.838e-4
-1.036, 2.838e-4
-1.037, 2.869e-4
-1.038, 2.869e-4
-1.039, 2.869e-4
-1.040, 2.869e-4
-1.041, 2.869e-4
-1.042, 2.869e-4
-1.043, 2.838e-4
-1.044, 2.838e-4
-1.045, 2.838e-4
-1.046, 2.869e-4
-1.047, 2.900e-4
-1.048, 2.900e-4
-1.049, 2.931e-4
-1.050, 2.900e-4
-1.051, 2.900e-4
-1.052, 2.869e-4
-1.053, 2.869e-4
-1.054, 2.869e-4
-1.055, 2.869e-4
-1.056, 2.869e-4
-1.057, 2.900e-4
-1.058, 2.900e-4
-1.059, 2.931e-4
-1.060, 2.900e-4
-1.061, 2.869e-4
-1.062, 2.869e-4
-1.063, 2.869e-4
-1.064, 2.838e-4
-1.065, 2.869e-4
-1.066, 2.869e-4
-1.067, 2.900e-4
-1.068, 2.900e-4
-1.069, 2.900e-4
-1.070, 2.900e-4
-1.071, 2.869e-4
-1.072, 2.838e-4
-1.073, 2.838e-4
-1.074, 2.838e-4
-1.075, 2.838e-4
-1.076, 2.869e-4
-1.077, 2.869e-4
-1.078, 2.869e-4
-1.079, 2.900e-4
-1.080, 2.869e-4
-1.081, 2.869e-4
-1.082, 2.838e-4
-1.083, 2.807e-4
-1.084, 2.807e-4
-1.085, 2.838e-4
-1.086, 2.838e-4
-1.087, 2.838e-4
-1.088, 2.869e-4
-1.089, 2.869e-4
-1.090, 2.838e-4
-1.091, 2.838e-4
-1.092, 2.807e-4
-1.093, 2.776e-4
-1.094, 2.776e-4
-1.095, 2.776e-4
-1.096, 2.776e-4
-1.097, 2.807e-4
-1.098, 2.807e-4
-1.099, 2.807e-4
-1.100, 2.807e-4
-1.101, 2.776e-4
-1.102, 2.776e-4
-1.103, 2.746e-4
-1.104, 2.746e-4
-1.105, 2.746e-4
-1.106, 2.776e-4
-1.107, 2.776e-4
-1.108, 2.776e-4
-1.109, 2.776e-4
-1.110, 2.776e-4
-1.111, 2.746e-4
-1.112, 2.715e-4
-1.113, 2.715e-4
-1.114, 2.684e-4
-1.115, 2.715e-4
-1.116, 2.715e-4
-1.117, 2.746e-4
-1.118, 2.746e-4
-1.119, 2.746e-4
-1.120, 2.746e-4
-1.121, 2.715e-4
-1.122, 2.684e-4
-1.123, 2.653e-4
-1.124, 2.684e-4
-1.125, 2.684e-4
-1.126, 2.684e-4
-1.127, 2.715e-4
-1.128, 2.715e-4
-1.129, 2.715e-4
-1.130, 2.684e-4
-1.131, 2.684e-4
-1.132, 2.653e-4
-1.133, 2.653e-4
-1.134, 2.622e-4
-1.135, 2.653e-4
-1.136, 2.653e-4
-1.137, 2.653e-4
-1.138, 2.684e-4
-1.139, 2.684e-4
-1.140, 2.684e-4
-1.141, 2.653e-4
-1.142, 2.653e-4
-1.143, 2.622e-4
-1.144, 2.622e-4
-1.145, 2.622e-4
-1.146, 2.622e-4
-1.147, 2.653e-4
-1.148, 2.653e-4
-1.149, 2.653e-4
-1.150, 2.653e-4
-1.151, 2.653e-4
-1.152, 2.622e-4
-1.153, 2.622e-4
-1.154, 2.591e-4
-1.155, 2.591e-4
-1.156, 2.622e-4
-1.157, 2.653e-4
-1.158, 2.653e-4
-1.159, 2.653e-4
-1.160, 2.622e-4
-1.161, 2.622e-4
-1.162, 2.591e-4
-1.163, 2.591e-4
-1.164, 2.591e-4
-1.165, 2.622e-4
-1.166, 2.622e-4
-1.167, 2.653e-4
-1.168, 2.653e-4
-1.169, 2.653e-4
-1.170, 2.653e-4
-1.171, 2.622e-4
-1.172, 2.591e-4
-1.173, 2.591e-4
-1.174, 2.591e-4
-1.175, 2.591e-4
-1.176, 2.622e-4
-1.177, 2.622e-4
-1.178, 2.653e-4
-1.179, 2.653e-4
-1.180, 2.653e-4
-1.181, 2.622e-4
-1.182, 2.622e-4
-1.183, 2.591e-4
-1.184, 2.591e-4
-1.185, 2.622e-4
-1.186, 2.622e-4
-1.187, 2.653e-4
-1.188, 2.653e-4
-1.189, 2.653e-4
-1.190, 2.653e-4
-1.191, 2.653e-4
-1.192, 2.622e-4
-1.193, 2.622e-4
-1.194, 2.591e-4
-1.195, 2.622e-4
-1.196, 2.653e-4
-1.197, 2.653e-4
-1.198, 2.684e-4
-1.199, 2.684e-4
-1.200, 2.684e-4
-1.201, 2.684e-4
-1.202, 2.653e-4
-1.203, 2.622e-4
-1.204, 2.653e-4
-1.205, 2.653e-4
-1.206, 2.653e-4
-1.207, 2.684e-4
-1.208, 2.715e-4
-1.209, 2.715e-4
-1.210, 2.715e-4
-1.211, 2.684e-4
-1.212, 2.684e-4
-1.213, 2.653e-4
-1.214, 2.684e-4
-1.215, 2.684e-4
-1.216, 2.684e-4
-1.217, 2.715e-4
-1.218, 2.715e-4
-1.219, 2.746e-4
-1.220, 2.746e-4
-1.221, 2.715e-4
-1.222, 2.715e-4
-1.223, 2.715e-4
-1.224, 2.715e-4
-1.225, 2.715e-4
-1.226, 2.746e-4
-1.227, 2.776e-4
-1.228, 2.776e-4
-1.229, 2.807e-4
-1.230, 2.807e-4
-1.231, 2.776e-4
-1.232, 2.746e-4
-1.233, 2.746e-4
-1.234, 2.746e-4
-1.235, 2.746e-4
-1.236, 2.776e-4
-1.237, 2.807e-4
-1.238, 2.807e-4
-1.239, 2.838e-4
-1.240, 2.807e-4
-1.241, 2.807e-4
-1.242, 2.807e-4
-1.243, 2.776e-4
-1.244, 2.776e-4
-1.245, 2.807e-4
-1.246, 2.838e-4
-1.247, 2.838e-4
-1.248, 2.869e-4
-1.249, 2.869e-4
-1.250, 2.869e-4
-1.251, 2.869e-4
-1.252, 2.838e-4
-1.253, 2.838e-4
-1.254, 2.838e-4
-1.255, 2.869e-4
-1.256, 2.869e-4
-1.257, 2.900e-4
-1.258, 2.931e-4
-1.259, 2.931e-4
-1.260, 2.931e-4
-1.261, 2.900e-4
-1.262, 2.900e-4
-1.263, 2.869e-4
-1.264, 2.900e-4
-1.265, 2.900e-4
-1.266, 2.931e-4
-1.267, 2.961e-4
-1.268, 2.961e-4
-1.269, 2.961e-4
-1.270, 2.961e-4
-1.271, 2.961e-4
-1.272, 2.961e-4
-1.273, 2.931e-4
-1.274, 2.931e-4
-1.275, 2.961e-4
-1.276, 2.992e-4
-1.277, 2.992e-4
-1.278, 3.023e-4
-1.279, 3.054e-4
-1.280, 3.054e-4
-1.281, 3.023e-4
-1.282, 3.023e-4
-1.283, 3.023e-4
-1.284, 3.023e-4
-1.285, 3.023e-4
-1.286, 3.054e-4
-1.287, 3.085e-4
-1.288, 3.115e-4
-1.289, 3.115e-4
-1.290, 3.115e-4
-1.291, 3.115e-4
-1.292, 3.115e-4
-1.293, 3.115e-4
-1.294, 3.115e-4
-1.295, 3.146e-4
-1.296, 3.146e-4
-1.297, 3.177e-4
-1.298, 3.208e-4
-1.299, 3.239e-4
-1.300, 3.208e-4
-1.301, 3.208e-4
-1.302, 3.208e-4
-1.303, 3.208e-4
-1.304, 3.239e-4
-1.305, 3.239e-4
-1.306, 3.270e-4
-1.307, 3.300e-4
-1.308, 3.331e-4
-1.309, 3.362e-4
-1.310, 3.362e-4
-1.311, 3.331e-4
-1.312, 3.331e-4
-1.313, 3.362e-4
-1.314, 3.362e-4
-1.315, 3.393e-4
-1.316, 3.424e-4
-1.317, 3.455e-4
-1.318, 3.485e-4
-1.319, 3.516e-4
-1.320, 3.516e-4
-1.321, 3.516e-4
-1.322, 3.516e-4
-1.323, 3.516e-4
-1.324, 3.547e-4
-1.325, 3.578e-4
-1.326, 3.609e-4
-1.327, 3.640e-4
-1.328, 3.670e-4
-1.329, 3.701e-4
-1.330, 3.701e-4
-1.331, 3.701e-4
-1.332, 3.701e-4
-1.333, 3.732e-4
-1.334, 3.732e-4
-1.335, 3.763e-4
-1.336, 3.825e-4
-1.337, 3.855e-4
-1.338, 3.886e-4
-1.339, 3.917e-4
-1.340, 3.948e-4
-1.341, 3.948e-4
-1.342, 3.948e-4
-1.343, 3.979e-4
-1.344, 4.010e-4
-1.345, 4.040e-4
-1.346, 4.071e-4
-1.347, 4.133e-4
-1.348, 4.164e-4
-1.349, 4.195e-4
-1.350, 4.225e-4
-1.351, 4.225e-4
-1.352, 4.256e-4
-1.353, 4.256e-4
-1.354, 4.287e-4
-1.355, 4.318e-4
-1.356, 4.380e-4
-1.357, 4.441e-4
-1.358, 4.472e-4
-1.359, 4.534e-4
-1.360, 4.534e-4
-1.361, 4.565e-4
-1.362, 4.595e-4
-1.363, 4.626e-4
-1.364, 4.657e-4
-1.365, 4.688e-4
-1.366, 4.750e-4
-1.367, 4.811e-4
-1.368, 4.842e-4
-1.369, 4.904e-4
-1.370, 4.935e-4
-1.371, 4.965e-4
-1.372, 4.996e-4
-1.373, 5.027e-4
-1.374, 5.089e-4
-1.375, 5.120e-4
-1.376, 5.181e-4
-1.377, 5.243e-4
-1.378, 5.335e-4
-1.379, 5.366e-4
-1.380, 5.397e-4
-1.381, 5.459e-4
-1.382, 5.489e-4
-1.383, 5.551e-4
-1.384, 5.582e-4
-1.385, 5.613e-4
-1.386, 5.674e-4
-1.387, 5.736e-4
-1.388, 5.829e-4
-1.389, 5.921e-4
-1.390, 6.014e-4
-1.391, 6.106e-4
-1.392, 6.168e-4
-1.393, 6.229e-4
-1.394, 6.260e-4
-1.395, 6.322e-4
-1.396, 6.384e-4
-1.397, 6.445e-4
-1.398, 6.538e-4
-1.399, 6.599e-4
-1.400, 6.661e-4
-1.401, 6.754e-4
-1.402, 6.815e-4
-1.403, 6.908e-4
-1.404, 7.000e-4
-1.405, 7.093e-4
-1.406, 7.216e-4
-1.407, 7.339e-4
-1.408, 7.463e-4
-1.409, 7.586e-4
-1.410, 7.679e-4
-1.411, 7.802e-4
-1.412, 7.925e-4
-1.413, 8.018e-4
-1.414, 8.172e-4
-1.415, 8.326e-4
-1.416, 8.511e-4
-1.417, 8.665e-4
-1.418, 8.881e-4
-1.419, 9.066e-4
-1.420, 9.282e-4
-1.421, 9.498e-4
-1.422, 9.713e-4
-1.423, 9.991e-4
-1.424, 1.027e-3
-1.425, 1.058e-3
-1.426, 1.095e-3
-1.427, 1.132e-3
-1.428, 1.172e-3
-1.429, 1.212e-3
-1.430, 1.255e-3
-1.431, 1.301e-3
-1.432, 1.354e-3
-1.433, 1.406e-3
-1.434, 1.468e-3
-1.435, 1.532e-3
-1.436, 1.603e-3
-1.437, 1.680e-3
-1.438, 1.761e-3
-1.439, 1.844e-3
-1.440, 1.930e-3
-1.441, 2.020e-3
-1.442, 2.112e-3
-1.443, 2.211e-3
-1.444, 2.309e-3
-1.445, 2.414e-3
-1.446, 2.522e-3
-1.447, 2.630e-3
-1.448, 2.738e-3
-1.449, 2.849e-3
-1.450, 2.960e-3
-1.451, 3.068e-3
-1.452, 3.182e-3
-1.453, 3.293e-3
-1.454, 3.407e-3
-1.455, 3.521e-3
-1.456, 3.638e-3
-1.457, 3.755e-3
-1.458, 3.869e-3
-1.459, 3.987e-3
-1.460, 4.104e-3
-1.461, 4.215e-3
-1.462, 4.329e-3
-1.463, 4.440e-3
-1.464, 4.551e-3
-1.465, 4.662e-3
-1.466, 4.773e-3
-1.467, 4.884e-3
-1.468, 4.992e-3
-1.469, 5.100e-3
-1.470, 5.208e-3
-1.471, 5.312e-3
-1.472, 5.417e-3
-1.473, 5.522e-3
-1.474, 5.624e-3
-1.475, 5.729e-3
-1.476, 5.830e-3
-1.477, 5.926e-3
-1.478, 6.018e-3
-1.479, 6.111e-3
-1.480, 6.200e-3
-1.481, 6.280e-3
-1.482, 6.364e-3
-1.483, 6.450e-3
-1.484, 6.533e-3
-1.485, 6.617e-3
-1.486, 6.703e-3
-1.487, 6.786e-3
-1.488, 6.860e-3
-1.489, 6.937e-3
-1.490, 6.996e-3
-1.491, 7.067e-3
-1.492, 7.122e-3
-1.493, 7.178e-3
-1.494, 7.249e-3
-1.495, 7.313e-3
-1.496, 7.378e-3
-1.497, 7.446e-3
-1.498, 7.517e-3
-1.499, 7.560e-3
-1.500, 7.572e-3
-1.499, 7.504e-3
-1.498, 7.446e-3
-1.497, 7.381e-3
-1.496, 7.323e-3
-1.495, 7.261e-3
-1.494, 7.202e-3
-1.493, 7.144e-3
-1.492, 7.082e-3
-1.491, 7.023e-3
-1.490, 6.959e-3
-1.489, 6.891e-3
-1.488, 6.829e-3
-1.487, 6.764e-3
-1.486, 6.703e-3
-1.485, 6.641e-3
-1.484, 6.586e-3
-1.483, 6.524e-3
-1.482, 6.450e-3
-1.481, 6.395e-3
-1.480, 6.336e-3
-1.479, 6.271e-3
-1.478, 6.203e-3
-1.477, 6.142e-3
-1.476, 6.077e-3
-1.475, 6.015e-3
-1.474, 5.954e-3
-1.473, 5.895e-3
-1.472, 5.843e-3
-1.471, 5.778e-3
-1.470, 5.735e-3
-1.469, 5.679e-3
-1.468, 5.611e-3
-1.467, 5.547e-3
-1.466, 5.485e-3
-1.465, 5.426e-3
-1.464, 5.368e-3
-1.463, 5.306e-3
-1.462, 5.254e-3
-1.461, 5.192e-3
-1.460, 5.143e-3
-1.459, 5.087e-3
-1.458, 5.038e-3
-1.457, 4.976e-3
-1.456, 4.921e-3
-1.455, 4.865e-3
-1.454, 4.810e-3
-1.453, 4.754e-3
-1.452, 4.693e-3
-1.451, 4.637e-3
-1.450, 4.582e-3
-1.449, 4.529e-3
-1.448, 4.474e-3
-1.447, 4.421e-3
-1.446, 4.372e-3
-1.445, 4.326e-3
-1.444, 4.276e-3
-1.443, 4.230e-3
-1.442, 4.193e-3
-1.441, 4.144e-3
-1.440, 4.098e-3
-1.439, 4.042e-3
-1.438, 3.996e-3
-1.437, 3.937e-3
-1.436, 3.882e-3
-1.435, 3.832e-3
-1.434, 3.783e-3
-1.433, 3.737e-3
-1.432, 3.694e-3
-1.431, 3.647e-3
-1.430, 3.595e-3
-1.429, 3.555e-3
-1.428, 3.509e-3
-1.427, 3.462e-3
-1.426, 3.410e-3
-1.425, 3.364e-3
-1.424, 3.330e-3
-1.423, 3.290e-3
-1.422, 3.244e-3
-1.421, 3.200e-3
-1.420, 3.157e-3
-1.419, 3.108e-3
-1.418, 3.062e-3
-1.417, 3.015e-3
-1.416, 2.966e-3
-1.415, 2.929e-3
-1.414, 2.889e-3
-1.413, 2.849e-3
-1.412, 2.812e-3
-1.411, 2.772e-3
-1.410, 2.723e-3
-1.409, 2.679e-3
-1.408, 2.636e-3
-1.407, 2.593e-3
-1.406, 2.553e-3
-1.405, 2.513e-3
-1.404, 2.470e-3
-1.403, 2.439e-3
-1.402, 2.402e-3
-1.401, 2.362e-3
-1.400, 2.328e-3
-1.399, 2.288e-3
-1.398, 2.245e-3
-1.397, 2.205e-3
-1.396, 2.164e-3
-1.395, 2.131e-3
-1.394, 2.094e-3
-1.393, 2.057e-3
-1.392, 2.023e-3
-1.391, 1.989e-3
-1.390, 1.952e-3
-1.389, 1.918e-3
-1.388, 1.884e-3
-1.387, 1.850e-3
-1.386, 1.819e-3
-1.385, 1.785e-3
-1.384, 1.751e-3
-1.383, 1.721e-3
-1.382, 1.693e-3
-1.381, 1.656e-3
-1.380, 1.622e-3
-1.379, 1.588e-3
-1.378, 1.554e-3
-1.377, 1.520e-3
-1.376, 1.489e-3
-1.375, 1.455e-3
-1.374, 1.428e-3
-1.373, 1.397e-3
-1.372, 1.372e-3
-1.371, 1.347e-3
-1.370, 1.317e-3
-1.369, 1.286e-3
-1.368, 1.258e-3
-1.367, 1.227e-3
-1.366, 1.203e-3
-1.365, 1.178e-3
-1.364, 1.150e-3
-1.363, 1.129e-3
-1.362, 1.101e-3
-1.361, 1.079e-3
-1.360, 1.048e-3
-1.359, 1.021e-3
-1.358, 9.960e-4
-1.357, 9.713e-4
-1.356, 9.436e-4
-1.355, 9.251e-4
-1.354, 9.035e-4
-1.353, 8.850e-4
-1.352, 8.634e-4
-1.351, 8.418e-4
-1.350, 8.203e-4
-1.349, 7.956e-4
-1.348, 7.740e-4
-1.347, 7.494e-4
-1.346, 7.309e-4
-1.345, 7.093e-4
-1.344, 6.908e-4
-1.343, 6.723e-4
-1.342, 6.569e-4
-1.341, 6.384e-4
-1.340, 6.199e-4
-1.339, 6.014e-4
-1.338, 5.829e-4
-1.337, 5.644e-4
-1.336, 5.459e-4
-1.335, 5.274e-4
-1.334, 5.120e-4
-1.333, 4.965e-4
-1.332, 4.811e-4
-1.331, 4.657e-4
-1.330, 4.472e-4
-1.329, 4.318e-4
-1.328, 4.164e-4
-1.327, 4.010e-4
-1.326, 3.855e-4
-1.325, 3.701e-4
-1.324, 3.609e-4
-1.323, 3.485e-4
-1.322, 3.362e-4
-1.321, 3.208e-4
-1.320, 3.085e-4
-1.319, 2.931e-4
-1.318, 2.807e-4
-1.317, 2.684e-4
-1.316, 2.561e-4
-1.315, 2.437e-4
-1.314, 2.345e-4
-1.313, 2.252e-4
-1.312, 2.129e-4
-1.311, 2.036e-4
-1.310, 1.913e-4
-1.309, 1.821e-4
-1.308, 1.697e-4
-1.307, 1.605e-4
-1.306, 1.481e-4
-1.305, 1.389e-4
-1.304, 1.327e-4
-1.303, 1.266e-4
-1.302, 1.173e-4
-1.301, 1.111e-4
-1.300, 9.882e-5
-1.299, 8.957e-5
-1.298, 8.340e-5
-1.297, 7.415e-5
-1.296, 6.490e-5
-1.295, 5.873e-5
-1.294, 5.257e-5
-1.293, 4.640e-5
-1.292, 4.024e-5
-1.291, 3.407e-5
-1.290, 2.790e-5
-1.289, 1.865e-5
-1.288, 9.405e-6
-1.287, 3.239e-6
-1.286, -2.927e-6
-1.285, -9.093e-6
-1.284, -1.218e-5
-1.283, -1.526e-5
-1.282, -2.143e-5
-1.281, -2.451e-5
-1.280, -3.068e-5
-1.279, -3.992e-5
-1.278, -4.301e-5
-1.277, -4.917e-5
-1.276, -5.534e-5
-1.275, -5.842e-5
-1.274, -6.151e-5
-1.273, -6.459e-5
-1.272, -6.767e-5
-1.271, -7.076e-5
-1.270, -7.692e-5
-1.269, -8.309e-5
-1.268, -8.617e-5
-1.267, -8.925e-5
-1.266, -9.542e-5
-1.265, -9.850e-5
-1.264, -9.850e-5
-1.263, -1.016e-4
-1.262, -1.047e-4
-1.261, -1.078e-4
-1.260, -1.108e-4
-1.259, -1.170e-4
-1.258, -1.201e-4
-1.257, -1.232e-4
-1.256, -1.263e-4
-1.255, -1.293e-4
-1.254, -1.293e-4
-1.253, -1.324e-4
-1.252, -1.324e-4
-1.251, -1.355e-4
-1.250, -1.386e-4
-1.249, -1.417e-4
-1.248, -1.448e-4
-1.247, -1.478e-4
-1.246, -1.540e-4
-1.245, -1.540e-4
-1.244, -1.540e-4
-1.243, -1.571e-4
-1.242, -1.571e-4
-1.241, -1.571e-4
-1.240, -1.602e-4
-1.239, -1.632e-4
-1.238, -1.663e-4
-1.237, -1.694e-4
-1.236, -1.725e-4
-1.235, -1.725e-4
-1.234, -1.725e-4
-1.233, -1.725e-4
-1.232, -1.756e-4
-1.231, -1.756e-4
-1.230, -1.787e-4
-1.229, -1.817e-4
-1.228, -1.848e-4
-1.227, -1.879e-4
-1.226, -1.910e-4
-1.225, -1.910e-4
-1.224, -1.910e-4
-1.223, -1.910e-4
-1.222, -1.910e-4
-1.221, -1.910e-4
-1.220, -1.941e-4
-1.219, -1.941e-4
-1.218, -1.972e-4
-1.217, -2.002e-4
-1.216, -2.002e-4
-1.215, -2.033e-4
-1.214, -2.033e-4
-1.213, -2.033e-4
-1.212, -2.033e-4
-1.211, -2.033e-4
-1.210, -2.033e-4
-1.209, -2.064e-4
-1.208, -2.095e-4
-1.207, -2.126e-4
-1.206, -2.126e-4
-1.205, -2.126e-4
-1.204, -2.126e-4
-1.203, -2.126e-4
-1.202, -2.126e-4
-1.201, -2.126e-4
-1.200, -2.157e-4
-1.199, -2.187e-4
-1.198, -2.187e-4
-1.197, -2.218e-4
-1.196, -2.218e-4
-1.195, -2.218e-4
-1.194, -2.218e-4
-1.193, -2.218e-4
-1.192, -2.218e-4
-1.191, -2.218e-4
-1.190, -2.218e-4
-1.189, -2.249e-4
-1.188, -2.280e-4
-1.187, -2.280e-4
-1.186, -2.311e-4
-1.185, -2.311e-4
-1.184, -2.280e-4
-1.183, -2.311e-4
-1.182, -2.280e-4
-1.181, -2.280e-4
-1.180, -2.311e-4
-1.179, -2.342e-4
-1.178, -2.342e-4
-1.177, -2.372e-4
-1.176, -2.372e-4
-1.175, -2.403e-4
-1.174, -2.372e-4
-1.173, -2.372e-4
-1.172, -2.372e-4
-1.171, -2.372e-4
-1.170, -2.403e-4
-1.169, -2.403e-4
-1.168, -2.434e-4
-1.167, -2.434e-4
-1.166, -2.465e-4
-1.165, -2.465e-4
-1.164, -2.465e-4
-1.163, -2.434e-4
-1.162, -2.434e-4
-1.161, -2.434e-4
-1.160, -2.465e-4
-1.159, -2.465e-4
-1.158, -2.496e-4
-1.157, -2.527e-4
-1.156, -2.527e-4
-1.155, -2.527e-4
-1.154, -2.527e-4
-1.153, -2.527e-4
-1.152, -2.496e-4
-1.151, -2.496e-4
-1.150, -2.527e-4
-1.149, -2.557e-4
-1.148, -2.557e-4
-1.147, -2.588e-4
-1.146, -2.588e-4
-1.145, -2.588e-4
-1.144, -2.588e-4
-1.143, -2.557e-4
-1.142, -2.557e-4
-1.141, -2.557e-4
-1.140, -2.588e-4
-1.139, -2.588e-4
-1.138, -2.619e-4
-1.137, -2.650e-4
-1.136, -2.650e-4
-1.135, -2.650e-4
-1.134, -2.650e-4
-1.133, -2.650e-4
-1.132, -2.619e-4
-1.131, -2.619e-4
-1.130, -2.650e-4
-1.129, -2.650e-4
-1.128, -2.681e-4
-1.127, -2.712e-4
-1.126, -2.712e-4
-1.125, -2.712e-4
-1.124, -2.712e-4
-1.123, -2.712e-4
-1.122, -2.712e-4
-1.121, -2.712e-4
-1.120, -2.712e-4
-1.119, -2.742e-4
-1.118, -2.742e-4
-1.117, -2.773e-4
-1.116, -2.773e-4
-1.115, -2.773e-4
-1.114, -2.773e-4
-1.113, -2.773e-4
-1.112, -2.742e-4
-1.111, -2.773e-4
-1.110, -2.773e-4
-1.109, -2.804e-4
-1.108, -2.835e-4
-1.107, -2.866e-4
-1.106, -2.866e-4
-1.105, -2.866e-4
-1.104, -2.866e-4
-1.103, -2.866e-4
-1.102, -2.835e-4
-1.101, -2.866e-4
-1.100, -2.866e-4
-1.099, -2.866e-4
-1.098, -2.897e-4
-1.097, -2.927e-4
-1.096, -2.927e-4
-1.095, -2.958e-4
-1.094, -2.927e-4
-1.093, -2.927e-4
-1.092, -2.927e-4
-1.091, -2.927e-4
-1.090, -2.958e-4
-1.089, -2.989e-4
-1.088, -2.989e-4
-1.087, -3.020e-4
-1.086, -3.020e-4
-1.085, -3.051e-4
-1.084, -3.051e-4
-1.083, -3.020e-4
-1.082, -3.020e-4
-1.081, -3.051e-4
-1.080, -3.051e-4
-1.079, -3.082e-4
-1.078, -3.112e-4
-1.077, -3.143e-4
-1.076, -3.143e-4
-1.075, -3.174e-4
-1.074, -3.143e-4
-1.073, -3.174e-4
-1.072, -3.143e-4
-1.071, -3.174e-4
-1.070, -3.174e-4
-1.069, -3.205e-4
-1.068, -3.236e-4
-1.067, -3.267e-4
-1.066, -3.297e-4
-1.065, -3.297e-4
-1.064, -3.297e-4
-1.063, -3.267e-4
-1.062, -3.267e-4
-1.061, -3.267e-4
-1.060, -3.297e-4
-1.059, -3.328e-4
-1.058, -3.359e-4
-1.057, -3.390e-4
-1.056, -3.390e-4
-1.055, -3.421e-4
-1.054, -3.421e-4
-1.053, -3.390e-4
-1.052, -3.421e-4
-1.051, -3.421e-4
-1.050, -3.452e-4
-1.049, -3.482e-4
-1.048, -3.513e-4
-1.047, -3.544e-4
-1.046, -3.544e-4
-1.045, -3.544e-4
-1.044, -3.544e-4
-1.043, -3.544e-4
-1.042, -3.575e-4
-1.041, -3.575e-4
-1.040, -3.575e-4
-1.039, -3.637e-4
-1.038, -3.667e-4
-1.037, -3.698e-4
-1.036, -3.729e-4
-1.035, -3.729e-4
-1.034, -3.729e-4
-1.033, -3.729e-4
-1.032, -3.729e-4
-1.031, -3.760e-4
-1.030, -3.791e-4
-1.029, -3.821e-4
-1.028, -3.852e-4
-1.027, -3.883e-4
-1.026, -3.883e-4
-1.025, -3.914e-4
-1.024, -3.914e-4
-1.023, -3.914e-4
-1.022, -3.914e-4
-1.021, -3.945e-4
-1.020, -3.976e-4
-1.019, -4.006e-4
-1.018, -4.037e-4
-1.017, -4.068e-4
-1.016, -4.099e-4
-1.015, -4.130e-4
-1.014, -4.130e-4
-1.013, -4.130e-4
-1.012, -4.130e-4
-1.011, -4.161e-4
-1.010, -4.191e-4
-1.009, -4.222e-4
-1.008, -4.253e-4
-1.007, -4.315e-4
-1.006, -4.346e-4
-1.005, -4.346e-4
-1.004, -4.376e-4
-1.003, -4.376e-4
-1.002, -4.407e-4
-1.001, -4.438e-4
