Potential V vs RHE, Current mA cm-2
0.013299999999999867,-0.30755823659065895
0.012299999999999978,-1.2671569112891135
0.011299999999999866,-2.008890045808352
0.010299999999999976,-2.7501987669376318
0.009299999999999864,-3.273641947887695
0.008299999999999974,-3.7970851288377587
0.007299999999999862,-4.23281620919619
0.006299999999999972,-4.582249900262854
0.00529999999999986,-4.9302688800296535
0.0042999999999999705,-5.191990470504685
0.0032999999999998586,-5.453712060979717
0.0022999999999999687,-5.715433651454749
0.0012999999999998568,-5.9347139029338285
0.00029999999999996696,-6.064867342521412
-0.000700000000000145,-6.238876832404812
-0.0017000000000000348,-6.37044498329226
-0.0027000000000001467,-6.500598422879844
-0.0037000000000000366,-6.588310523471475
-0.0047000000000001485,-6.6760226240631075
-0.005700000000000038,-6.762320013354876
-0.00670000000000015,-6.850032113946507
-0.00770000000000004,-6.93774421453814
-0.008700000000000152,-6.981600264833956
-0.009700000000000042,-7.067897654125724
-0.010700000000000154,-7.111753704421539
-0.011700000000000044,-7.199465805013171
-0.012700000000000156,-7.243321855308987
-0.013700000000000045,-7.28576319430494
-0.014700000000000157,-7.329619244600755
-0.015700000000000047,-7.37347529489657
-0.01670000000000016,-7.37347529489657
-0.01770000000000005,-7.4173313451923875
-0.01870000000000016,-7.461187395488204
-0.01970000000000005,-7.461187395488204
-0.020700000000000163,-7.50504344578402
-0.021700000000000053,-7.5474847847799715
-0.022700000000000164,-7.591340835075788
-0.023700000000000054,-7.635196885371603
-0.024700000000000166,-7.635196885371603
-0.025700000000000056,-7.679052935667419
-0.026700000000000168,-7.722908985963235
-0.027700000000000058,-7.722908985963235
-0.02870000000000017,-7.722908985963235
-0.02970000000000006,-7.7653503249591855
-0.03070000000000017,-7.7653503249591855
-0.03170000000000006,-7.7653503249591855
-0.03270000000000017,-7.809206375255003
-0.03370000000000006,-7.809206375255003
-0.034700000000000175,-7.853062425550818
-0.035700000000000065,-7.853062425550818
-0.03670000000000018,-7.853062425550818
-0.03770000000000007,-7.896918475846635
-0.03870000000000018,-7.896918475846635
-0.03970000000000007,-7.940774526142452
-0.04070000000000018,-7.940774526142452
-0.04170000000000007,-7.940774526142452
-0.04270000000000018,-7.984630576438266
-0.04370000000000007,-7.984630576438266
-0.044700000000000184,-7.984630576438266
-0.045700000000000074,-8.027071915434218
-0.046700000000000186,-8.027071915434218
-0.047700000000000076,-8.027071915434218
-0.04870000000000019,-8.027071915434218
-0.04970000000000008,-8.027071915434218
-0.05070000000000019,-8.027071915434218
-0.05170000000000008,-8.070927965730034
-0.05270000000000019,-8.070927965730034
-0.05370000000000008,-8.070927965730034
-0.05470000000000019,-8.070927965730034
-0.05570000000000008,-8.070927965730034
-0.056700000000000195,-8.11478401602585
-0.057700000000000085,-8.11478401602585
-0.058700000000000196,-8.11478401602585
-0.059700000000000086,-8.11478401602585
-0.0607000000000002,-8.158640066321666
-0.06170000000000009,-8.158640066321666
-0.0627000000000002,-8.158640066321666
-0.06370000000000009,-8.158640066321666
-0.0647000000000002,-8.158640066321666
-0.06570000000000009,-8.158640066321666
-0.0667000000000002,-8.158640066321666
-0.0677000000000001,-8.158640066321666
-0.0687000000000002,-8.158640066321666
-0.0697000000000001,-8.158640066321666
-0.07070000000000021,-8.158640066321666
-0.0717000000000001,-8.202496116617484
-0.07270000000000021,-8.202496116617484
-0.0737000000000001,-8.202496116617484
-0.07470000000000021,-8.202496116617484
-0.0757000000000001,-8.246352166913299
-0.07670000000000021,-8.202496116617484
-0.0777000000000001,-8.202496116617484
-0.07870000000000021,-8.202496116617484
-0.0797000000000001,-8.202496116617484
-0.08070000000000022,-8.202496116617484
-0.0817000000000001,-8.202496116617484
-0.08270000000000022,-8.202496116617484
-0.08370000000000011,-8.202496116617484
-0.08470000000000022,-8.202496116617484
-0.08570000000000011,-8.202496116617484
-0.08670000000000022,-8.202496116617484
-0.08770000000000011,-8.202496116617484
-0.08870000000000022,-8.202496116617484
-0.08970000000000011,-8.202496116617484
-0.09070000000000022,-8.202496116617484
-0.09170000000000011,-8.202496116617484
-0.09270000000000023,-8.202496116617484
-0.09370000000000012,-8.202496116617484
-0.09470000000000023,-8.202496116617484
-0.09570000000000012,-8.202496116617484
-0.09670000000000023,-8.202496116617484
-0.09770000000000012,-8.202496116617484
-0.09870000000000023,-8.158640066321666
-0.09970000000000012,-8.158640066321666
-0.10070000000000023,-8.158640066321666
-0.10170000000000012,-8.202496116617484
-0.10270000000000024,-8.202496116617484
-0.10370000000000013,-8.202496116617484
-0.10470000000000024,-8.202496116617484
-0.10570000000000013,-8.202496116617484
-0.10670000000000024,-8.202496116617484
-0.10770000000000013,-8.202496116617484
-0.10870000000000024,-8.158640066321666
-0.10970000000000013,-8.158640066321666
-0.11070000000000024,-8.158640066321666
-0.11170000000000013,-8.158640066321666
-0.11270000000000002,-8.202496116617484
-0.11370000000000013,-8.202496116617484
-0.11470000000000002,-8.158640066321666
-0.11570000000000014,-8.158640066321666
-0.11670000000000003,-8.202496116617484
-0.11770000000000014,-8.202496116617484
-0.11870000000000003,-8.158640066321666
-0.11970000000000014,-8.158640066321666
-0.12070000000000003,-8.158640066321666
-0.12170000000000014,-8.158640066321666
-0.12270000000000003,-8.158640066321666
-0.12370000000000014,-8.158640066321666
-0.12470000000000003,-8.158640066321666
-0.12570000000000014,-8.158640066321666
-0.12670000000000003,-8.202496116617484
-0.12770000000000015,-8.158640066321666
-0.12870000000000004,-8.158640066321666
-0.12970000000000015,-8.158640066321666
-0.13070000000000004,-8.11478401602585
-0.13170000000000015,-8.158640066321666
-0.13270000000000004,-8.158640066321666
-0.13370000000000015,-8.158640066321666
-0.13470000000000004,-8.202496116617484
-0.13570000000000015,-8.202496116617484
-0.13670000000000004,-8.202496116617484
-0.13770000000000016,-8.202496116617484
-0.13870000000000005,-8.158640066321666
-0.13970000000000016,-8.158640066321666
-0.14070000000000005,-8.158640066321666
-0.14170000000000016,-8.11478401602585
-0.14270000000000005,-8.158640066321666
-0.14370000000000016,-8.158640066321666
-0.14470000000000005,-8.158640066321666
-0.14570000000000016,-8.11478401602585
-0.14670000000000005,-8.158640066321666
-0.14770000000000016,-8.158640066321666
-0.14870000000000005,-8.158640066321666
-0.14970000000000017,-8.158640066321666
-0.15070000000000006,-8.158640066321666
-0.15170000000000017,-8.158640066321666
-0.15270000000000006,-8.158640066321666
-0.15370000000000017,-8.158640066321666
-0.15470000000000006,-8.158640066321666
-0.15570000000000017,-8.158640066321666
-0.15670000000000006,-8.158640066321666
-0.15770000000000017,-8.158640066321666
-0.15870000000000006,-8.158640066321666
-0.15970000000000018,-8.158640066321666
-0.16070000000000007,-8.158640066321666
-0.16170000000000018,-8.158640066321666
-0.16270000000000007,-8.202496116617484
-0.16370000000000018,-8.202496116617484
-0.16470000000000007,-8.202496116617484
-0.16570000000000018,-8.202496116617484
-0.16670000000000007,-8.202496116617484
-0.16770000000000018,-8.202496116617484
-0.16870000000000007,-8.202496116617484
-0.16970000000000018,-8.202496116617484
-0.17070000000000007,-8.202496116617484
-0.17170000000000019,-8.202496116617484
-0.17270000000000008,-8.202496116617484
-0.1737000000000002,-8.202496116617484
-0.17470000000000008,-8.202496116617484
-0.1757000000000002,-8.202496116617484
-0.17670000000000008,-8.246352166913299
-0.1777000000000002,-8.246352166913299
-0.17870000000000008,-8.246352166913299
-0.1797000000000002,-8.246352166913299
-0.18070000000000008,-8.246352166913299
-0.1817000000000002,-8.246352166913299
-0.18270000000000008,-8.246352166913299
-0.1837000000000002,-8.246352166913299
-0.1847000000000001,-8.288793505909249
-0.1857000000000002,-8.288793505909249
-0.1867000000000001,-8.288793505909249
-0.1877000000000002,-8.288793505909249
-0.1887000000000001,-8.288793505909249
-0.1897000000000002,-8.288793505909249
-0.1907000000000001,-8.288793505909249
-0.1917000000000001,-8.288793505909249
-0.19269999999999998,-8.288793505909249
-0.1937000000000001,-8.288793505909249
-0.19469999999999998,-8.332649556205066
-0.1957000000000001,-8.332649556205066
-0.19669999999999999,-8.332649556205066
-0.1977000000000001,-8.376505606500881
-0.1987,-8.332649556205066
-0.1997000000000001,-8.376505606500881
-0.2007,-8.376505606500881
-0.2017000000000001,-8.376505606500881
-0.2027,-8.376505606500881
-0.2037000000000001,-8.376505606500881
-0.2047,-8.376505606500881
-0.2057000000000001,-8.376505606500881
-0.2067,-8.4203616567967
-0.2077000000000001,-8.4203616567967
-0.2087,-8.464217707092514
-0.2097000000000001,-8.464217707092514
-0.2107,-8.464217707092514
-0.2117000000000001,-8.464217707092514
-0.2127,-8.464217707092514
-0.2137000000000001,-8.464217707092514
-0.2147,-8.508073757388331
-0.2157000000000001,-8.508073757388331
-0.2167,-8.55051509638428
-0.21770000000000012,-8.55051509638428
-0.2187,-8.55051509638428
-0.21970000000000012,-8.594371146680096
-0.2207,-8.594371146680096
-0.22170000000000012,-8.638227196975913
-0.2227,-8.638227196975913
-0.22370000000000012,-8.594371146680096
-0.2247,-8.638227196975913
-0.22570000000000012,-8.638227196975913
-0.2267,-8.638227196975913
-0.22770000000000012,-8.638227196975913
-0.22870000000000001,-8.68208324727173
-0.22970000000000013,-8.68208324727173
-0.23070000000000002,-8.68208324727173
-0.23170000000000013,-8.725939297567548
-0.23270000000000002,-8.725939297567548
-0.23370000000000013,-8.769795347863363
-0.23470000000000002,-8.769795347863363
-0.23570000000000013,-8.812236686859313
-0.23670000000000002,-8.85609273715513
-0.2376999999999999,-8.85609273715513
-0.23870000000000002,-8.85609273715513
-0.2396999999999999,-8.85609273715513
-0.24070000000000003,-8.899948787450944
-0.24169999999999991,-8.899948787450944
-0.24270000000000003,-8.899948787450944
-0.24369999999999992,-8.943804837746763
-0.24470000000000003,-8.943804837746763
-0.24569999999999992,-8.987660888042578
-0.24670000000000003,-9.031516938338395
-0.24769999999999992,-9.073958277334345
-0.24870000000000003,-9.073958277334345
-0.24969999999999992,-9.161670377925978
-0.25070000000000003,-9.11781432763016
-0.2516999999999999,-9.205526428221793
-0.25270000000000004,-9.205526428221793
-0.2536999999999999,-9.205526428221793
-0.25470000000000004,-9.24938247851761
-0.2556999999999999,-9.293238528813426
-0.25670000000000004,-9.293238528813426
-0.25769999999999993,-9.379535918105192
-0.25870000000000004,-9.379535918105192
-0.25969999999999993,-9.423391968401008
-0.26070000000000004,-9.467248018696827
-0.26169999999999993,-9.511104068992642
-0.26270000000000004,-9.511104068992642
-0.26369999999999993,-9.55496011928846
-0.26470000000000005,-9.59740145828441
-0.26569999999999994,-9.641257508580225
-0.26670000000000005,-9.728969609171857
-0.26769999999999994,-9.728969609171857
-0.26870000000000005,-9.81668170976349
-0.26969999999999994,-9.85912304875944
-0.27070000000000005,-9.902979099055257
-0.27169999999999994,-9.902979099055257
-0.27270000000000005,-9.946835149351072
-0.27369999999999994,-9.99069119964689
-0.27470000000000006,-10.034547249942705
-0.27569999999999995,-10.078403300238522
-0.27670000000000006,-10.120844639234473
-0.27769999999999995,-10.164700689530287
-0.27870000000000006,-10.25241279012192
-0.27969999999999995,-10.25241279012192
-0.28070000000000006,-10.340124890713554
-0.28169999999999995,-10.382566229709504
-0.28270000000000006,-10.42642228000532
-0.28369999999999995,-10.514134380596953
-0.28470000000000006,-10.557990430892769
-0.28569999999999995,-10.644287820184536
-0.28670000000000007,-10.688143870480351
-0.28769999999999996,-10.731999920776168
-0.28870000000000007,-10.819712021367803
-0.28969999999999996,-10.863568071663616
-0.29070000000000007,-10.906009410659568
-0.29169999999999996,-10.993721511251199
-0.29270000000000007,-11.037577561547016
-0.29369999999999996,-11.123874950838783
-0.2947000000000001,-11.211587051430415
-0.29569999999999996,-11.299299152022046
-0.2967000000000001,-11.385596541313816
-0.29769999999999996,-11.473308641905447
-0.2987000000000001,-11.517164692201263
-0.29969999999999997,-11.604876792792895
-0.3007000000000001,-11.691174182084664
-0.30169999999999997,-11.73503023238048
-0.3027000000000001,-11.86659838326793
-0.30369999999999997,-11.909039722263879
-0.3047000000000001,-12.040607873151327
-0.30569999999999997,-12.12831997374296
-0.3067000000000001,-12.214617363034726
-0.3077,-12.302329463626359
-0.3087000000000001,-12.390041564217992
-0.3097,-12.476338953509758
-0.3107000000000001,-12.56405105410139
-0.3117,-12.694204493688973
-0.3127000000000001,-12.781916594280606
-0.3137,-12.869628694872238
-0.3147000000000001,-12.99978213445982
-0.3157,-13.13135028534727
-0.3167000000000001,-13.217647674639037
-0.3177,-13.349215825526485
-0.3187000000000001,-13.436927926118118
-0.3197,-13.523225315409885
-0.3207000000000001,-13.610937416001518
-0.3217,-13.741090855589102
-0.3227000000000001,-13.828802956180734
-0.3237,-13.960371107068182
-0.3247000000000001,-14.046668496359947
-0.3257,-14.217848563643619
-0.3267000000000001,-14.345172580631472
-0.3277,-14.486643710617974
-0.3287000000000001,-14.61396772760583
-0.3297,-14.741291744593681
-0.3307000000000001,-14.868615761581536
-0.3317,-14.967645552572087
-0.3327000000000001,-15.05252823056399
-0.3337,-15.179852247551842
-0.3347000000000001,-15.349617603535648
-0.3357,-15.491088733522153
-0.3367000000000001,-15.618412750510005
-0.3377,-15.74573676749786
-0.3387000000000001,-15.87306078448571
-0.3397,-16.056973253468165
-0.3407000000000001,-16.184297270456018
-0.3417,-16.311621287443874
-0.3427000000000001,-16.438945304431726
-0.3437,-16.580416434418233
-0.3447000000000001,-16.70774045140608
-0.3457,-16.877505807389888
-0.3467000000000001,-17.061418276372343
-0.3477,-17.188742293360193
-0.3487000000000001,-17.316066310348052
-0.3497,-17.48583166633185
-0.3507000000000001,-17.627302796318357
-0.3517,-17.75462681330621
-0.3527000000000001,-17.881950830294063
-0.3537,-18.009274847281915
-0.3547000000000001,-18.15074597726842
-0.3557,-18.320511333252224
-0.35670000000000013,-18.53271802823198
-0.3577,-18.716630497214435
-0.35870000000000013,-18.88639585319824
-0.3597,-19.056161209182044
-0.36070000000000013,-19.2400736781645
-0.3617,-19.367397695152352
-0.3626999999999999,-19.49472171214021
-0.3637,-19.636192842126707
-0.3646999999999999,-19.805958198110513
-0.3657,-19.97572355409432
-0.3666999999999999,-20.159636023076775
-0.3677,-20.371842718056527
-0.3686999999999999,-20.584049413036283
-0.36970000000000003,-20.810403221014692
-0.3706999999999999,-20.980168576998494
-0.37170000000000003,-21.2065223849769
-0.3726999999999999,-21.333846401964752
-0.37370000000000003,-21.503611757948562
-0.3746999999999999,-21.67337711393236
-0.37570000000000003,-21.857289582914817
-0.3766999999999999,-21.98461359990267
-0.37770000000000004,-22.196820294882425
-0.3786999999999999,-22.42317410286083
-0.37970000000000004,-22.63538079784059
-0.3806999999999999,-22.904175944814945
-0.38170000000000004,-23.1163826397947
-0.38269999999999993,-23.342736447773106
-0.38370000000000004,-23.51250180375691
-0.38469999999999993,-23.724708498736668
-0.38570000000000004,-23.908620967719123
-0.38669999999999993,-24.120827662698876
-0.38770000000000004,-24.290593018682678
-0.38869999999999993,-24.516946826661083
-0.38970000000000005,-24.729153521640843
-0.39069999999999994,-25.04039000761115
-0.39170000000000005,-25.252596702590903
-0.39269999999999994,-25.478950510569312
-0.39370000000000005,-25.73359854454502
-0.39469999999999994,-25.959952352523427
-0.39570000000000005,-26.17215904750318
-0.39669999999999994,-26.440954194477534
-0.39770000000000005,-26.61071955046134
-0.39869999999999994,-26.86536758443705
-0.39970000000000006,-27.091721392415455
-0.40069999999999995,-27.34636942639116
-0.40170000000000006,-27.65760591236147
-0.40269999999999995,-27.912253946337174
-0.40370000000000006,-28.22349043230748
-0.40469999999999995,-28.478138466283188
-0.40570000000000006,-28.746933613257543
-0.40669999999999995,-29.001581647233255
-0.40770000000000006,-29.27037679420761
-0.40869999999999995,-29.525024828183312
-0.40970000000000006,-29.793819975157668
-0.41069999999999995,-30.00602667013743
-0.41170000000000007,-30.317263156107735
-0.41269999999999996,-30.614352529079397
-0.41370000000000007,-30.925589015049702
-0.41469999999999996,-31.23682550102001
-0.41570000000000007,-31.49147353499572
-0.41669999999999996,-31.802710020966025
-0.41770000000000007,-32.09979939393769
-0.41869999999999996,-32.368594540912035
-0.4197000000000001,-32.70812525287965
-0.42069999999999996,-33.01936173884996
-0.4217000000000001,-33.330598224820264
-0.42269999999999996,-33.670128936787876
-0.4237000000000001,-34.06624810075008
-0.42469999999999997,-34.41992592571634
-0.4257000000000001,-34.717015298688004
-0.42669999999999997,-35.07069312365426
-0.4277000000000001,-35.32534115762997
-0.42869999999999997,-35.679018982596226
-0.4297000000000001,-35.99025546856653
-0.43069999999999997,-36.329786180534136
-0.4317000000000001,-36.6834640055004
-0.4327,-37.037141830466666
-0.4337000000000001,-37.41911388143023
-0.4347,-37.77279170639648
-0.4357000000000001,-38.211352209354644
-0.4367,-38.522588695324956
-0.4377000000000001,-38.90456074628851
-0.4387,-39.258238571254765
-0.4397000000000001,-39.654357735216976
-0.4407,-39.99388844718459
-0.4417000000000001,-40.34756627215084
-0.4427,-40.701244097117105
-0.4437000000000001,-41.083216148080666
-0.4447,-41.47933531204288
-0.4457000000000001,-41.87545447600508
-0.4467,-42.3564563179592
-0.4477000000000001,-42.752575481921404
-0.4487,-43.17698887188092
-0.4497000000000001,-43.61554937483908
-0.4507,-44.011668538801295
-0.4517000000000001,-44.45022904175945
-0.4527,-44.84634820572166
-0.4537000000000001,-45.22832025668522
-0.4547,-45.666880759643384
-0.4557000000000001,-46.062999923605595
-0.4567,-46.501560426563756
-0.4577000000000001,-46.88353247752732
-0.4587,-47.36453431948143
-0.4597000000000001,-47.80309482243959
-0.4607,-48.2840966643937
-0.4617000000000001,-48.76509850634781
-0.4627,-49.24610034830193
-0.4637000000000001,-49.72710219025603
-0.4647,-50.12322135421825
-0.4657000000000001,-50.60422319617236
-0.4667,-50.98619524713592
-0.4677000000000001,-51.38231441109813
-0.4687,-51.82087491405629
-0.4697000000000001,-52.25943541701445
-0.4707,-52.64140746797801
-0.4717000000000001,-53.16485064892808
-0.4727,-53.64585249088219
-0.4737000000000001,-54.16929567183226
-0.4747,-54.69273885278232
-0.4757000000000001,-55.25862337272834
-0.4767,-55.838655005673
-0.4777000000000001,-56.36209818662306
-0.4787,-56.82895291557852
-0.4797000000000001,-57.30995475753264
-0.4807,-57.79095659948675
-0.48170000000000013,-58.22951710244491
-0.4827,-58.71051894439902
-0.48370000000000013,-59.19152078635314
-0.4847,-59.7149639673032
-0.48570000000000013,-60.23840714825326
-0.4867,-60.02620045327351
-0.48570000000000013,-58.71051894439902
-0.4847,-57.62119124350295
-0.48370000000000013,-56.65918755959472
-0.4827,-55.73962521468245
-0.48170000000000013,-54.919092660760725
-0.4807,-54.1268543328363
-0.4797000000000001,-53.39120445690648
-0.4787,-52.74043725896857
-0.4777000000000001,-52.11796428702795
-0.4767,-51.509638428085985
-0.4757000000000001,-50.943753908139975
-0.4747,-50.42031072718991
-0.4737000000000001,-49.85442620724389
-0.4727,-49.28854168729788
-0.4717000000000001,-48.68021582835591
-0.4707,-48.114331308409895
-0.4697000000000001,-47.54844678846388
-0.4687,-47.02500360751382
-0.4677000000000001,-46.501560426563756
-0.4667,-46.02055858460964
-0.4657000000000001,-45.53955674265553
-0.4647,-45.05855490070142
-0.4637000000000001,-44.535111719751356
-0.4627,-44.011668538801295
-0.4617000000000001,-43.44578401885527
-0.4607,-42.92234083790521
