Dec. 11, 2024   10:08:21
Linear Sweep Voltammetry
File: c:/users/guazh/data/banditlqround7_x0exp59_r20/2024-12-09-exp626\1acid_1ac-2024-12-11t10_05_11-lsvinphos\1acid_1ac_lsv_50mvs_efin_-2100mv.bin
Data Source:  Experiment
Instrument Model:  CHI760E
Header: LSV ran at 50 mVs with Efin at -2100mV
Note: 

Init E (V) = -0.6
Final E (V) = -2.1
Scan Rate (V/s) = 0.05
Sample Interval (V) = 0.001
Quiet Time (sec) = 2
Sensitivity (A/V) = 1e-4
Comp R (ohm) = 8.7

Results:

Channel 1:
Ep = -1.939V
ip = 9.368e-4A
Ah = 1.101e-3C

Potential/V, Current/A

-0.600, 2.825e-6
-0.601, 2.926e-6
-0.602, 2.970e-6
-0.603, 3.003e-6
-0.604, 3.039e-6
-0.605, 3.071e-6
-0.606, 3.101e-6
-0.607, 3.135e-6
-0.608, 3.168e-6
-0.609, 3.204e-6
-0.610, 3.235e-6
-0.611, 3.268e-6
-0.612, 3.297e-6
-0.613, 3.328e-6
-0.614, 3.377e-6
-0.615, 3.427e-6
-0.616, 3.468e-6
-0.617, 3.534e-6
-0.618, 3.628e-6
-0.619, 3.577e-6
-0.620, 3.600e-6
-0.621, 3.640e-6
-0.622, 3.655e-6
-0.623, 3.665e-6
-0.624, 3.689e-6
-0.625, 3.727e-6
-0.626, 3.783e-6
-0.627, 3.801e-6
-0.628, 3.821e-6
-0.629, 3.858e-6
-0.630, 3.893e-6
-0.631, 3.918e-6
-0.632, 3.950e-6
-0.633, 3.983e-6
-0.634, 4.020e-6
-0.635, 4.052e-6
-0.636, 4.084e-6
-0.637, 4.120e-6
-0.638, 4.159e-6
-0.639, 4.194e-6
-0.640, 4.217e-6
-0.641, 4.256e-6
-0.642, 4.301e-6
-0.643, 4.352e-6
-0.644, 4.386e-6
-0.645, 4.415e-6
-0.646, 4.435e-6
-0.647, 4.469e-6
-0.648, 4.507e-6
-0.649, 4.547e-6
-0.650, 4.577e-6
-0.651, 4.609e-6
-0.652, 4.646e-6
-0.653, 4.686e-6
-0.654, 4.724e-6
-0.655, 4.759e-6
-0.656, 4.793e-6
-0.657, 4.833e-6
-0.658, 4.871e-6
-0.659, 4.906e-6
-0.660, 4.941e-6
-0.661, 4.982e-6
-0.662, 5.015e-6
-0.663, 5.049e-6
-0.664, 5.096e-6
-0.665, 5.133e-6
-0.666, 5.168e-6
-0.667, 5.200e-6
-0.668, 5.236e-6
-0.669, 5.270e-6
-0.670, 5.301e-6
-0.671, 5.345e-6
-0.672, 5.375e-6
-0.673, 5.408e-6
-0.674, 5.450e-6
-0.675, 5.493e-6
-0.676, 5.532e-6
-0.677, 5.567e-6
-0.678, 5.609e-6
-0.679, 5.644e-6
-0.680, 5.677e-6
-0.681, 5.712e-6
-0.682, 5.749e-6
-0.683, 5.803e-6
-0.684, 5.824e-6
-0.685, 5.844e-6
-0.686, 5.881e-6
-0.687, 5.914e-6
-0.688, 5.940e-6
-0.689, 5.974e-6
-0.690, 6.010e-6
-0.691, 6.050e-6
-0.692, 6.083e-6
-0.693, 6.119e-6
-0.694, 6.167e-6
-0.695, 6.193e-6
-0.696, 6.212e-6
-0.697, 6.243e-6
-0.698, 6.278e-6
-0.699, 6.309e-6
-0.700, 6.340e-6
-0.701, 6.372e-6
-0.702, 6.413e-6
-0.703, 6.454e-6
-0.704, 6.505e-6
-0.705, 6.536e-6
-0.706, 6.552e-6
-0.707, 6.572e-6
-0.708, 6.585e-6
-0.709, 6.610e-6
-0.710, 6.634e-6
-0.711, 6.661e-6
-0.712, 6.683e-6
-0.713, 6.708e-6
-0.714, 6.736e-6
-0.715, 6.765e-6
-0.716, 6.792e-6
-0.717, 6.822e-6
-0.718, 6.847e-6
-0.719, 6.876e-6
-0.720, 6.902e-6
-0.721, 6.925e-6
-0.722, 6.947e-6
-0.723, 6.976e-6
-0.724, 7.005e-6
-0.725, 7.023e-6
-0.726, 7.046e-6
-0.727, 7.063e-6
-0.728, 7.086e-6
-0.729, 7.112e-6
-0.730, 7.134e-6
-0.731, 7.152e-6
-0.732, 7.169e-6
-0.733, 7.188e-6
-0.734, 7.207e-6
-0.735, 7.225e-6
-0.736, 7.241e-6
-0.737, 7.262e-6
-0.738, 7.283e-6
-0.739, 7.295e-6
-0.740, 7.310e-6
-0.741, 7.332e-6
-0.742, 7.349e-6
-0.743, 7.363e-6
-0.744, 7.382e-6
-0.745, 7.387e-6
-0.746, 7.406e-6
-0.747, 7.435e-6
-0.748, 7.457e-6
-0.749, 7.491e-6
-0.750, 7.525e-6
-0.751, 7.546e-6
-0.752, 7.497e-6
-0.753, 7.487e-6
-0.754, 7.497e-6
-0.755, 7.503e-6
-0.756, 7.511e-6
-0.757, 7.517e-6
-0.758, 7.531e-6
-0.759, 7.548e-6
-0.760, 7.551e-6
-0.761, 7.549e-6
-0.762, 7.553e-6
-0.763, 7.581e-6
-0.764, 7.606e-6
-0.765, 7.590e-6
-0.766, 7.591e-6
-0.767, 7.591e-6
-0.768, 7.607e-6
-0.769, 7.627e-6
-0.770, 7.639e-6
-0.771, 7.651e-6
-0.772, 7.704e-6
-0.773, 7.663e-6
-0.774, 7.659e-6
-0.775, 7.617e-6
-0.776, 7.594e-6
-0.777, 7.570e-6
-0.778, 7.571e-6
-0.779, 7.576e-6
-0.780, 7.574e-6
-0.781, 7.575e-6
-0.782, 7.582e-6
-0.783, 7.583e-6
-0.784, 7.584e-6
-0.785, 7.578e-6
-0.786, 7.573e-6
-0.787, 7.567e-6
-0.788, 7.566e-6
-0.789, 7.561e-6
-0.790, 7.558e-6
-0.791, 7.563e-6
-0.792, 7.566e-6
-0.793, 7.551e-6
-0.794, 7.537e-6
-0.795, 7.524e-6
-0.796, 7.516e-6
-0.797, 7.509e-6
-0.798, 7.501e-6
-0.799, 7.497e-6
-0.800, 7.491e-6
-0.801, 7.490e-6
-0.802, 7.478e-6
-0.803, 7.466e-6
-0.804, 7.457e-6
-0.805, 7.448e-6
-0.806, 7.440e-6
-0.807, 7.429e-6
-0.808, 7.421e-6
-0.809, 7.413e-6
-0.810, 7.405e-6
-0.811, 7.395e-6
-0.812, 7.385e-6
-0.813, 7.379e-6
-0.814, 7.375e-6
-0.815, 7.359e-6
-0.816, 7.346e-6
-0.817, 7.340e-6
-0.818, 7.331e-6
-0.819, 7.315e-6
-0.820, 7.302e-6
-0.821, 7.287e-6
-0.822, 7.278e-6
-0.823, 7.269e-6
-0.824, 7.257e-6
-0.825, 7.249e-6
-0.826, 7.232e-6
-0.827, 7.222e-6
-0.828, 7.220e-6
-0.829, 7.208e-6
-0.830, 7.196e-6
-0.831, 7.179e-6
-0.832, 7.166e-6
-0.833, 7.158e-6
-0.834, 7.150e-6
-0.835, 7.138e-6
-0.836, 7.125e-6
-0.837, 7.112e-6
-0.838, 7.100e-6
-0.839, 7.089e-6
-0.840, 7.077e-6
-0.841, 7.067e-6
-0.842, 7.052e-6
-0.843, 7.042e-6
-0.844, 7.035e-6
-0.845, 7.023e-6
-0.846, 7.009e-6
-0.847, 6.996e-6
-0.848, 6.983e-6
-0.849, 6.971e-6
-0.850, 6.956e-6
-0.851, 6.944e-6
-0.852, 6.931e-6
-0.853, 6.921e-6
-0.854, 6.910e-6
-0.855, 6.896e-6
-0.856, 6.886e-6
-0.857, 6.870e-6
-0.858, 6.857e-6
-0.859, 6.849e-6
-0.860, 6.840e-6
-0.861, 6.843e-6
-0.862, 6.837e-6
-0.863, 6.814e-6
-0.864, 6.801e-6
-0.865, 6.781e-6
-0.866, 6.770e-6
-0.867, 6.767e-6
-0.868, 6.754e-6
-0.869, 6.728e-6
-0.870, 6.708e-6
-0.871, 6.694e-6
-0.872, 6.680e-6
-0.873, 6.673e-6
-0.874, 6.662e-6
-0.875, 6.650e-6
-0.876, 6.654e-6
-0.877, 6.656e-6
-0.878, 6.624e-6
-0.879, 6.611e-6
-0.880, 6.600e-6
-0.881, 6.579e-6
-0.882, 6.574e-6
-0.883, 6.577e-6
-0.884, 6.584e-6
-0.885, 6.555e-6
-0.886, 6.507e-6
-0.887, 6.484e-6
-0.888, 6.476e-6
-0.889, 6.467e-6
-0.890, 6.454e-6
-0.891, 6.441e-6
-0.892, 6.430e-6
-0.893, 6.422e-6
-0.894, 6.412e-6
-0.895, 6.401e-6
-0.896, 6.390e-6
-0.897, 6.378e-6
-0.898, 6.366e-6
-0.899, 6.358e-6
-0.900, 6.347e-6
-0.901, 6.385e-6
-0.902, 6.372e-6
-0.903, 6.321e-6
-0.904, 6.310e-6
-0.905, 6.299e-6
-0.906, 6.287e-6
-0.907, 6.273e-6
-0.908, 6.263e-6
-0.909, 6.257e-6
-0.910, 6.247e-6
-0.911, 6.233e-6
-0.912, 6.220e-6
-0.913, 6.210e-6
-0.914, 6.203e-6
-0.915, 6.196e-6
-0.916, 6.188e-6
-0.917, 6.179e-6
-0.918, 6.171e-6
-0.919, 6.167e-6
-0.920, 6.156e-6
-0.921, 6.146e-6
-0.922, 6.142e-6
-0.923, 6.136e-6
-0.924, 6.130e-6
-0.925, 6.124e-6
-0.926, 6.117e-6
-0.927, 6.105e-6
-0.928, 6.098e-6
-0.929, 6.088e-6
-0.930, 6.076e-6
-0.931, 6.069e-6
-0.932, 6.061e-6
-0.933, 6.057e-6
-0.934, 6.051e-6
-0.935, 6.037e-6
-0.936, 6.031e-6
-0.937, 6.026e-6
-0.938, 6.022e-6
-0.939, 6.018e-6
-0.940, 6.011e-6
-0.941, 6.003e-6
-0.942, 5.998e-6
-0.943, 5.993e-6
-0.944, 5.982e-6
-0.945, 5.972e-6
-0.946, 5.958e-6
-0.947, 5.950e-6
-0.948, 5.952e-6
-0.949, 5.944e-6
-0.950, 5.936e-6
-0.951, 5.924e-6
-0.952, 5.916e-6
-0.953, 5.915e-6
-0.954, 5.913e-6
-0.955, 5.907e-6
-0.956, 5.898e-6
-0.957, 5.891e-6
-0.958, 5.884e-6
-0.959, 5.886e-6
-0.960, 5.882e-6
-0.961, 5.876e-6
-0.962, 5.867e-6
-0.963, 5.858e-6
-0.964, 5.850e-6
-0.965, 5.839e-6
-0.966, 5.827e-6
-0.967, 5.822e-6
-0.968, 5.818e-6
-0.969, 5.812e-6
-0.970, 5.804e-6
-0.971, 5.796e-6
-0.972, 5.794e-6
-0.973, 5.793e-6
-0.974, 5.787e-6
-0.975, 5.775e-6
-0.976, 5.767e-6
-0.977, 5.765e-6
-0.978, 5.757e-6
-0.979, 5.751e-6
-0.980, 5.742e-6
-0.981, 5.740e-6
-0.982, 5.736e-6
-0.983, 5.730e-6
-0.984, 5.727e-6
-0.985, 5.718e-6
-0.986, 5.711e-6
-0.987, 5.708e-6
-0.988, 5.704e-6
-0.989, 5.696e-6
-0.990, 5.689e-6
-0.991, 5.679e-6
-0.992, 5.676e-6
-0.993, 5.679e-6
-0.994, 5.671e-6
-0.995, 5.662e-6
-0.996, 5.639e-6
-0.997, 5.628e-6
-0.998, 5.625e-6
-0.999, 5.621e-6
-1.000, 5.614e-6
-1.001, 5.610e-6
-1.002, 5.610e-6
-1.003, 5.600e-6
-1.004, 5.600e-6
-1.005, 5.588e-6
-1.006, 5.578e-6
-1.007, 5.576e-6
-1.008, 5.571e-6
-1.009, 5.571e-6
-1.010, 5.564e-6
-1.011, 5.555e-6
-1.012, 5.550e-6
-1.013, 5.549e-6
-1.014, 5.549e-6
-1.015, 5.536e-6
-1.016, 5.525e-6
-1.017, 5.518e-6
-1.018, 5.513e-6
-1.019, 5.515e-6
-1.020, 5.502e-6
-1.021, 5.498e-6
-1.022, 5.495e-6
-1.023, 5.491e-6
-1.024, 5.489e-6
-1.025, 5.483e-6
-1.026, 5.484e-6
-1.027, 5.474e-6
-1.028, 5.477e-6
-1.029, 5.476e-6
-1.030, 5.472e-6
-1.031, 5.467e-6
-1.032, 5.462e-6
-1.033, 5.458e-6
-1.034, 5.453e-6
-1.035, 5.444e-6
-1.036, 5.438e-6
-1.037, 5.436e-6
-1.038, 5.433e-6
-1.039, 5.430e-6
-1.040, 5.431e-6
-1.041, 5.436e-6
-1.042, 5.438e-6
-1.043, 5.433e-6
-1.044, 5.428e-6
-1.045, 5.424e-6
-1.046, 5.424e-6
-1.047, 5.423e-6
-1.048, 5.425e-6
-1.049, 5.416e-6
-1.050, 5.417e-6
-1.051, 5.424e-6
-1.052, 5.474e-6
-1.053, 5.465e-6
-1.054, 5.487e-6
-1.055, 5.423e-6
-1.056, 5.386e-6
-1.057, 5.391e-6
-1.058, 5.400e-6
-1.059, 5.406e-6
-1.060, 5.373e-6
-1.061, 5.348e-6
-1.062, 5.324e-6
-1.063, 5.314e-6
-1.064, 5.309e-6
-1.065, 5.302e-6
-1.066, 5.298e-6
-1.067, 5.296e-6
-1.068, 5.294e-6
-1.069, 5.291e-6
-1.070, 5.290e-6
-1.071, 5.286e-6
-1.072, 5.280e-6
-1.073, 5.279e-6
-1.074, 5.277e-6
-1.075, 5.275e-6
-1.076, 5.276e-6
-1.077, 5.273e-6
-1.078, 5.274e-6
-1.079, 5.271e-6
-1.080, 5.266e-6
-1.081, 5.262e-6
-1.082, 5.259e-6
-1.083, 5.259e-6
-1.084, 5.255e-6
-1.085, 5.248e-6
-1.086, 5.246e-6
-1.087, 5.242e-6
-1.088, 5.245e-6
-1.089, 5.241e-6
-1.090, 5.233e-6
-1.091, 5.230e-6
-1.092, 5.228e-6
-1.093, 5.227e-6
-1.094, 5.223e-6
-1.095, 5.217e-6
-1.096, 5.216e-6
-1.097, 5.218e-6
-1.098, 5.217e-6
-1.099, 5.214e-6
-1.100, 5.207e-6
-1.101, 5.203e-6
-1.102, 5.196e-6
-1.103, 5.194e-6
-1.104, 5.192e-6
-1.105, 5.190e-6
-1.106, 5.185e-6
-1.107, 5.182e-6
-1.108, 5.184e-6
-1.109, 5.185e-6
-1.110, 5.184e-6
-1.111, 5.177e-6
-1.112, 5.177e-6
-1.113, 5.176e-6
-1.114, 5.179e-6
-1.115, 5.203e-6
-1.116, 5.199e-6
-1.117, 5.192e-6
-1.118, 5.185e-6
-1.119, 5.174e-6
-1.120, 5.166e-6
-1.121, 5.166e-6
-1.122, 5.161e-6
-1.123, 5.157e-6
-1.124, 5.154e-6
-1.125, 5.152e-6
-1.126, 5.154e-6
-1.127, 5.146e-6
-1.128, 5.137e-6
-1.129, 5.132e-6
-1.130, 5.123e-6
-1.131, 5.119e-6
-1.132, 5.118e-6
-1.133, 5.119e-6
-1.134, 5.119e-6
-1.135, 5.119e-6
-1.136, 5.114e-6
-1.137, 5.110e-6
-1.138, 5.104e-6
-1.139, 5.102e-6
-1.140, 5.098e-6
-1.141, 5.095e-6
-1.142, 5.091e-6
-1.143, 5.090e-6
-1.144, 5.086e-6
-1.145, 5.084e-6
-1.146, 5.081e-6
-1.147, 5.080e-6
-1.148, 5.078e-6
-1.149, 5.079e-6
-1.150, 5.081e-6
-1.151, 5.076e-6
-1.152, 5.078e-6
-1.153, 5.079e-6
-1.154, 5.074e-6
-1.155, 5.074e-6
-1.156, 5.076e-6
-1.157, 5.067e-6
-1.158, 5.067e-6
-1.159, 5.065e-6
-1.160, 5.062e-6
-1.161, 5.058e-6
-1.162, 5.057e-6
-1.163, 5.058e-6
-1.164, 5.056e-6
-1.165, 5.055e-6
-1.166, 5.051e-6
-1.167, 5.050e-6
-1.168, 5.049e-6
-1.169, 5.046e-6
-1.170, 5.053e-6
-1.171, 5.051e-6
-1.172, 5.049e-6
-1.173, 5.053e-6
-1.174, 5.049e-6
-1.175, 5.046e-6
-1.176, 5.036e-6
-1.177, 5.032e-6
-1.178, 5.033e-6
-1.179, 5.034e-6
-1.180, 5.026e-6
-1.181, 5.029e-6
-1.182, 5.034e-6
-1.183, 5.029e-6
-1.184, 5.025e-6
-1.185, 5.034e-6
-1.186, 5.033e-6
-1.187, 5.034e-6
-1.188, 5.025e-6
-1.189, 5.018e-6
-1.190, 5.019e-6
-1.191, 5.020e-6
-1.192, 5.011e-6
-1.193, 5.005e-6
-1.194, 5.001e-6
-1.195, 5.003e-6
-1.196, 5.006e-6
-1.197, 5.010e-6
-1.198, 5.005e-6
-1.199, 5.002e-6
-1.200, 5.000e-6
-1.201, 5.001e-6
-1.202, 4.999e-6
-1.203, 5.001e-6
-1.204, 5.000e-6
-1.205, 4.994e-6
-1.206, 4.993e-6
-1.207, 4.990e-6
-1.208, 4.988e-6
-1.209, 4.983e-6
-1.210, 4.981e-6
-1.211, 4.982e-6
-1.212, 4.996e-6
-1.213, 5.002e-6
-1.214, 5.002e-6
-1.215, 5.002e-6
-1.216, 5.005e-6
-1.217, 4.997e-6
-1.218, 5.013e-6
-1.219, 5.018e-6
-1.220, 5.002e-6
-1.221, 5.000e-6
-1.222, 5.012e-6
-1.223, 5.015e-6
-1.224, 5.022e-6
-1.225, 5.031e-6
-1.226, 5.045e-6
-1.227, 5.021e-6
-1.228, 5.048e-6
-1.229, 5.070e-6
-1.230, 5.047e-6
-1.231, 4.992e-6
-1.232, 4.974e-6
-1.233, 4.982e-6
-1.234, 5.000e-6
-1.235, 4.994e-6
-1.236, 4.978e-6
-1.237, 4.979e-6
-1.238, 4.999e-6
-1.239, 5.012e-6
-1.240, 5.002e-6
-1.241, 4.989e-6
-1.242, 5.008e-6
-1.243, 5.080e-6
-1.244, 5.119e-6
-1.245, 5.022e-6
-1.246, 4.946e-6
-1.247, 4.941e-6
-1.248, 4.945e-6
-1.249, 4.945e-6
-1.250, 4.946e-6
-1.251, 4.945e-6
-1.252, 4.947e-6
-1.253, 4.950e-6
-1.254, 4.950e-6
-1.255, 4.954e-6
-1.256, 4.951e-6
-1.257, 4.957e-6
-1.258, 4.959e-6
-1.259, 4.955e-6
-1.260, 4.957e-6
-1.261, 4.959e-6
-1.262, 4.961e-6
-1.263, 4.964e-6
-1.264, 4.964e-6
-1.265, 4.969e-6
-1.266, 4.971e-6
-1.267, 4.982e-6
-1.268, 4.992e-6
-1.269, 4.989e-6
-1.270, 4.994e-6
-1.271, 4.993e-6
-1.272, 4.992e-6
-1.273, 4.992e-6
-1.274, 4.991e-6
-1.275, 4.993e-6
-1.276, 4.995e-6
-1.277, 4.993e-6
-1.278, 4.997e-6
-1.279, 4.997e-6
-1.280, 4.998e-6
-1.281, 4.990e-6
-1.282, 4.985e-6
-1.283, 4.980e-6
-1.284, 4.983e-6
-1.285, 4.988e-6
-1.286, 4.991e-6
-1.287, 4.991e-6
-1.288, 5.008e-6
-1.289, 5.018e-6
-1.290, 5.017e-6
-1.291, 5.018e-6
-1.292, 5.018e-6
-1.293, 5.023e-6
-1.294, 5.029e-6
-1.295, 5.013e-6
-1.296, 5.012e-6
-1.297, 5.021e-6
-1.298, 5.027e-6
-1.299, 5.033e-6
-1.300, 5.039e-6
-1.301, 5.023e-6
-1.302, 5.006e-6
-1.303, 5.010e-6
-1.304, 5.009e-6
-1.305, 5.010e-6
-1.306, 5.017e-6
-1.307, 5.040e-6
-1.308, 5.082e-6
-1.309, 5.138e-6
-1.310, 5.017e-6
-1.311, 4.990e-6
-1.312, 5.001e-6
-1.313, 5.000e-6
-1.314, 4.996e-6
-1.315, 4.999e-6
-1.316, 4.996e-6
-1.317, 4.999e-6
-1.318, 5.002e-6
-1.319, 5.003e-6
-1.320, 5.007e-6
-1.321, 5.004e-6
-1.322, 5.002e-6
-1.323, 5.005e-6
-1.324, 5.005e-6
-1.325, 5.006e-6
-1.326, 5.006e-6
-1.327, 5.010e-6
-1.328, 5.016e-6
-1.329, 5.022e-6
-1.330, 5.026e-6
-1.331, 5.032e-6
-1.332, 5.031e-6
-1.333, 5.032e-6
-1.334, 5.032e-6
-1.335, 5.033e-6
-1.336, 5.036e-6
-1.337, 5.039e-6
-1.338, 5.044e-6
-1.339, 5.043e-6
-1.340, 5.046e-6
-1.341, 5.049e-6
-1.342, 5.052e-6
-1.343, 5.057e-6
-1.344, 5.059e-6
-1.345, 5.061e-6
-1.346, 5.059e-6
-1.347, 5.064e-6
-1.348, 5.070e-6
-1.349, 5.073e-6
-1.350, 5.076e-6
-1.351, 5.078e-6
-1.352, 5.085e-6
-1.353, 5.091e-6
-1.354, 5.093e-6
-1.355, 5.099e-6
-1.356, 5.113e-6
-1.357, 5.116e-6
-1.358, 5.120e-6
-1.359, 5.115e-6
-1.360, 5.120e-6
-1.361, 5.125e-6
-1.362, 5.137e-6
-1.363, 5.154e-6
-1.364, 5.155e-6
-1.365, 5.147e-6
-1.366, 5.155e-6
-1.367, 5.161e-6
-1.368, 5.147e-6
-1.369, 5.142e-6
-1.370, 5.145e-6
-1.371, 5.150e-6
-1.372, 5.147e-6
-1.373, 5.154e-6
-1.374, 5.191e-6
-1.375, 5.153e-6
-1.376, 5.150e-6
-1.377, 5.148e-6
-1.378, 5.131e-6
-1.379, 5.129e-6
-1.380, 5.128e-6
-1.381, 5.126e-6
-1.382, 5.134e-6
-1.383, 5.139e-6
-1.384, 5.139e-6
-1.385, 5.145e-6
-1.386, 5.145e-6
-1.387, 5.150e-6
-1.388, 5.156e-6
-1.389, 5.160e-6
-1.390, 5.163e-6
-1.391, 5.163e-6
-1.392, 5.170e-6
-1.393, 5.177e-6
-1.394, 5.179e-6
-1.395, 5.182e-6
-1.396, 5.187e-6
-1.397, 5.192e-6
-1.398, 5.201e-6
-1.399, 5.203e-6
-1.400, 5.203e-6
-1.401, 5.205e-6
-1.402, 5.211e-6
-1.403, 5.219e-6
-1.404, 5.223e-6
-1.405, 5.227e-6
-1.406, 5.235e-6
-1.407, 5.241e-6
-1.408, 5.250e-6
-1.409, 5.252e-6
-1.410, 5.256e-6
-1.411, 5.261e-6
-1.412, 5.266e-6
-1.413, 5.272e-6
-1.414, 5.277e-6
-1.415, 5.277e-6
-1.416, 5.281e-6
-1.417, 5.293e-6
-1.418, 5.303e-6
-1.419, 5.312e-6
-1.420, 5.317e-6
-1.421, 5.317e-6
-1.422, 5.320e-6
-1.423, 5.336e-6
-1.424, 5.355e-6
-1.425, 5.399e-6
-1.426, 5.396e-6
-1.427, 5.400e-6
-1.428, 5.412e-6
-1.429, 5.401e-6
-1.430, 5.386e-6
-1.431, 5.391e-6
-1.432, 5.407e-6
-1.433, 5.411e-6
-1.434, 5.418e-6
-1.435, 5.449e-6
-1.436, 5.465e-6
-1.437, 5.479e-6
-1.438, 5.467e-6
-1.439, 5.474e-6
-1.440, 5.486e-6
-1.441, 5.568e-6
-1.442, 5.518e-6
-1.443, 5.465e-6
-1.444, 5.468e-6
-1.445, 5.475e-6
-1.446, 5.484e-6
-1.447, 5.494e-6
-1.448, 5.505e-6
-1.449, 5.512e-6
-1.450, 5.518e-6
-1.451, 5.525e-6
-1.452, 5.541e-6
-1.453, 5.550e-6
-1.454, 5.556e-6
-1.455, 5.552e-6
-1.456, 5.558e-6
-1.457, 5.576e-6
-1.458, 5.579e-6
-1.459, 5.591e-6
-1.460, 5.602e-6
-1.461, 5.606e-6
-1.462, 5.612e-6
-1.463, 5.625e-6
-1.464, 5.632e-6
-1.465, 5.635e-6
-1.466, 5.642e-6
-1.467, 5.655e-6
-1.468, 5.669e-6
-1.469, 5.676e-6
-1.470, 5.683e-6
-1.471, 5.693e-6
-1.472, 5.706e-6
-1.473, 5.725e-6
-1.474, 5.787e-6
-1.475, 5.795e-6
-1.476, 5.787e-6
-1.477, 5.795e-6
-1.478, 5.793e-6
-1.479, 5.784e-6
-1.480, 5.799e-6
-1.481, 5.811e-6
-1.482, 5.825e-6
-1.483, 5.840e-6
-1.484, 5.849e-6
-1.485, 5.862e-6
-1.486, 5.873e-6
-1.487, 5.886e-6
-1.488, 5.900e-6
-1.489, 5.909e-6
-1.490, 5.919e-6
-1.491, 5.930e-6
-1.492, 5.946e-6
-1.493, 5.959e-6
-1.494, 5.972e-6
-1.495, 5.990e-6
-1.496, 6.001e-6
-1.497, 6.018e-6
-1.498, 6.032e-6
-1.499, 6.046e-6
-1.500, 6.057e-6
-1.501, 6.071e-6
-1.502, 6.091e-6
-1.503, 6.108e-6
-1.504, 6.122e-6
-1.505, 6.136e-6
-1.506, 6.149e-6
-1.507, 6.164e-6
-1.508, 6.183e-6
-1.509, 6.201e-6
-1.510, 6.220e-6
-1.511, 6.239e-6
-1.512, 6.258e-6
-1.513, 6.273e-6
-1.514, 6.285e-6
-1.515, 6.310e-6
-1.516, 6.329e-6
-1.517, 6.346e-6
-1.518, 6.362e-6
-1.519, 6.378e-6
-1.520, 6.397e-6
-1.521, 6.412e-6
-1.522, 6.436e-6
-1.523, 6.456e-6
-1.524, 6.468e-6
-1.525, 6.489e-6
-1.526, 6.507e-6
-1.527, 6.525e-6
-1.528, 6.542e-6
-1.529, 6.559e-6
-1.530, 6.576e-6
-1.531, 6.597e-6
-1.532, 6.621e-6
-1.533, 6.640e-6
-1.534, 6.661e-6
-1.535, 6.685e-6
-1.536, 6.714e-6
-1.537, 6.731e-6
-1.538, 6.765e-6
-1.539, 6.777e-6
-1.540, 6.786e-6
-1.541, 6.803e-6
-1.542, 6.842e-6
-1.543, 6.862e-6
-1.544, 6.882e-6
-1.545, 6.894e-6
-1.546, 6.896e-6
-1.547, 6.926e-6
-1.548, 6.951e-6
-1.549, 6.978e-6
-1.550, 6.999e-6
-1.551, 7.026e-6
-1.552, 7.050e-6
-1.553, 7.072e-6
-1.554, 7.097e-6
-1.555, 7.132e-6
-1.556, 7.160e-6
-1.557, 7.185e-6
-1.558, 7.208e-6
-1.559, 7.232e-6
-1.560, 7.256e-6
-1.561, 7.281e-6
-1.562, 7.304e-6
-1.563, 7.327e-6
-1.564, 7.351e-6
-1.565, 7.381e-6
-1.566, 7.408e-6
-1.567, 7.435e-6
-1.568, 7.463e-6
-1.569, 7.498e-6
-1.570, 7.536e-6
-1.571, 7.568e-6
-1.572, 7.601e-6
-1.573, 7.636e-6
-1.574, 7.659e-6
-1.575, 7.678e-6
-1.576, 7.701e-6
-1.577, 7.727e-6
-1.578, 7.743e-6
-1.579, 7.763e-6
-1.580, 7.796e-6
-1.581, 7.827e-6
-1.582, 7.865e-6
-1.583, 7.896e-6
-1.584, 7.924e-6
-1.585, 7.955e-6
-1.586, 7.989e-6
-1.587, 8.040e-6
-1.588, 8.083e-6
-1.589, 8.106e-6
-1.590, 8.130e-6
-1.591, 8.164e-6
-1.592, 8.207e-6
-1.593, 8.246e-6
-1.594, 8.279e-6
-1.595, 8.316e-6
-1.596, 8.352e-6
-1.597, 8.390e-6
-1.598, 8.430e-6
-1.599, 8.463e-6
-1.600, 8.502e-6
-1.601, 8.542e-6
-1.602, 8.584e-6
-1.603, 8.624e-6
-1.604, 8.660e-6
-1.605, 8.703e-6
-1.606, 8.744e-6
-1.607, 8.786e-6
-1.608, 8.834e-6
-1.609, 8.932e-6
-1.610, 8.977e-6
-1.611, 9.004e-6
-1.612, 9.024e-6
-1.613, 9.041e-6
-1.614, 9.072e-6
-1.615, 9.116e-6
-1.616, 9.162e-6
-1.617, 9.213e-6
-1.618, 9.260e-6
-1.619, 9.311e-6
-1.620, 9.357e-6
-1.621, 9.405e-6
-1.622, 9.464e-6
-1.623, 9.515e-6
-1.624, 9.562e-6
-1.625, 9.618e-6
-1.626, 9.670e-6
-1.627, 9.726e-6
-1.628, 9.784e-6
-1.629, 9.835e-6
-1.630, 9.891e-6
-1.631, 9.958e-6
-1.632, 1.002e-5
-1.633, 1.007e-5
-1.634, 1.013e-5
-1.635, 1.019e-5
-1.636, 1.025e-5
-1.637, 1.031e-5
-1.638, 1.037e-5
-1.639, 1.045e-5
-1.640, 1.050e-5
-1.641, 1.057e-5
-1.642, 1.063e-5
-1.643, 1.072e-5
-1.644, 1.078e-5
-1.645, 1.084e-5
-1.646, 1.092e-5
-1.647, 1.100e-5
-1.648, 1.108e-5
-1.649, 1.116e-5
-1.650, 1.126e-5
-1.651, 1.136e-5
-1.652, 1.152e-5
-1.653, 1.155e-5
-1.654, 1.154e-5
-1.655, 1.157e-5
-1.656, 1.166e-5
-1.657, 1.176e-5
-1.658, 1.187e-5
-1.659, 1.199e-5
-1.660, 1.205e-5
-1.661, 1.212e-5
-1.662, 1.222e-5
-1.663, 1.230e-5
-1.664, 1.238e-5
-1.665, 1.248e-5
-1.666, 1.258e-5
-1.667, 1.268e-5
-1.668, 1.281e-5
-1.669, 1.293e-5
-1.670, 1.300e-5
-1.671, 1.312e-5
-1.672, 1.323e-5
-1.673, 1.333e-5
-1.674, 1.347e-5
-1.675, 1.362e-5
-1.676, 1.368e-5
-1.677, 1.380e-5
-1.678, 1.395e-5
-1.679, 1.407e-5
-1.680, 1.419e-5
-1.681, 1.432e-5
-1.682, 1.445e-5
-1.683, 1.457e-5
-1.684, 1.471e-5
-1.685, 1.486e-5
-1.686, 1.505e-5
-1.687, 1.517e-5
-1.688, 1.533e-5
-1.689, 1.548e-5
-1.690, 1.564e-5
-1.691, 1.579e-5
-1.692, 1.595e-5
-1.693, 1.611e-5
-1.694, 1.629e-5
-1.695, 1.644e-5
-1.696, 1.664e-5
-1.697, 1.683e-5
-1.698, 1.700e-5
-1.699, 1.719e-5
-1.700, 1.739e-5
-1.701, 1.761e-5
-1.702, 1.780e-5
-1.703, 1.799e-5
-1.704, 1.818e-5
-1.705, 1.837e-5
-1.706, 1.860e-5
-1.707, 1.883e-5
-1.708, 1.906e-5
-1.709, 1.930e-5
-1.710, 1.954e-5
-1.711, 1.979e-5
-1.712, 2.004e-5
-1.713, 2.030e-5
-1.714, 2.056e-5
-1.715, 2.084e-5
-1.716, 2.112e-5
-1.717, 2.141e-5
-1.718, 2.170e-5
-1.719, 2.200e-5
-1.720, 2.230e-5
-1.721, 2.262e-5
-1.722, 2.294e-5
-1.723, 2.327e-5
-1.724, 2.360e-5
-1.725, 2.395e-5
-1.726, 2.430e-5
-1.727, 2.466e-5
-1.728, 2.503e-5
-1.729, 2.540e-5
-1.730, 2.578e-5
-1.731, 2.618e-5
-1.732, 2.659e-5
-1.733, 2.701e-5
-1.734, 2.744e-5
-1.735, 2.786e-5
-1.736, 2.830e-5
-1.737, 2.876e-5
-1.738, 2.923e-5
-1.739, 2.970e-5
-1.740, 3.019e-5
-1.741, 3.070e-5
-1.742, 3.122e-5
-1.743, 3.175e-5
-1.744, 3.229e-5
-1.745, 3.284e-5
-1.746, 3.341e-5
-1.747, 3.399e-5
-1.748, 3.460e-5
-1.749, 3.520e-5
-1.750, 3.579e-5
-1.751, 3.642e-5
-1.752, 3.708e-5
-1.753, 3.774e-5
-1.754, 3.842e-5
-1.755, 3.912e-5
-1.756, 3.984e-5
-1.757, 4.059e-5
-1.758, 4.134e-5
-1.759, 4.211e-5
-1.760, 4.291e-5
-1.761, 4.372e-5
-1.762, 4.455e-5
-1.763, 4.541e-5
-1.764, 4.628e-5
-1.765, 4.717e-5
-1.766, 4.810e-5
-1.767, 4.904e-5
-1.768, 4.999e-5
-1.769, 5.097e-5
-1.770, 5.197e-5
-1.771, 5.300e-5
-1.772, 5.404e-5
-1.773, 5.513e-5
-1.774, 5.623e-5
-1.775, 5.735e-5
-1.776, 5.852e-5
-1.777, 5.971e-5
-1.778, 6.093e-5
-1.779, 6.218e-5
-1.780, 6.345e-5
-1.781, 6.476e-5
-1.782, 6.611e-5
-1.783, 6.747e-5
-1.784, 6.884e-5
-1.785, 7.027e-5
-1.786, 7.175e-5
-1.787, 7.322e-5
-1.788, 7.475e-5
-1.789, 7.631e-5
-1.790, 7.793e-5
-1.791, 7.958e-5
-1.792, 8.127e-5
-1.793, 8.299e-5
-1.794, 8.474e-5
-1.795, 8.654e-5
-1.796, 8.840e-5
-1.797, 9.027e-5
-1.798, 9.217e-5
-1.799, 9.412e-5
-1.800, 9.613e-5
-1.801, 9.818e-5
-1.802, 1.003e-4
-1.803, 1.024e-4
-1.804, 1.046e-4
-1.805, 1.068e-4
-1.806, 1.090e-4
-1.807, 1.114e-4
-1.808, 1.137e-4
-1.809, 1.161e-4
-1.810, 1.186e-4
-1.811, 1.211e-4
-1.812, 1.236e-4
-1.813, 1.262e-4
-1.814, 1.289e-4
-1.815, 1.316e-4
-1.816, 1.343e-4
-1.817, 1.371e-4
-1.818, 1.399e-4
-1.819, 1.428e-4
-1.820, 1.457e-4
-1.821, 1.487e-4
-1.822, 1.517e-4
-1.823, 1.548e-4
-1.824, 1.580e-4
-1.825, 1.613e-4
-1.826, 1.646e-4
-1.827, 1.679e-4
-1.828, 1.713e-4
-1.829, 1.748e-4
-1.830, 1.783e-4
-1.831, 1.819e-4
-1.832, 1.856e-4
-1.833, 1.893e-4
-1.834, 1.931e-4
-1.835, 1.970e-4
-1.836, 2.009e-4
-1.837, 2.049e-4
-1.838, 2.090e-4
-1.839, 2.131e-4
-1.840, 2.173e-4
-1.841, 2.217e-4
-1.842, 2.260e-4
-1.843, 2.304e-4
-1.844, 2.349e-4
-1.845, 2.395e-4
-1.846, 2.441e-4
-1.847, 2.488e-4
-1.848, 2.536e-4
-1.849, 2.585e-4
-1.850, 2.634e-4
-1.851, 2.685e-4
-1.852, 2.736e-4
-1.853, 2.788e-4
-1.854, 2.841e-4
-1.855, 2.896e-4
-1.856, 2.950e-4
-1.857, 3.006e-4
-1.858, 3.063e-4
-1.859, 3.120e-4
-1.860, 3.178e-4
-1.861, 3.238e-4
-1.862, 3.297e-4
-1.863, 3.358e-4
-1.864, 3.419e-4
-1.865, 3.481e-4
-1.866, 3.545e-4
-1.867, 3.609e-4
-1.868, 3.674e-4
-1.869, 3.740e-4
-1.870, 3.807e-4
-1.871, 3.874e-4
-1.872, 3.943e-4
-1.873, 4.012e-4
-1.874, 4.082e-4
-1.875, 4.153e-4
-1.876, 4.223e-4
-1.877, 4.296e-4
-1.878, 4.370e-4
-1.879, 4.443e-4
-1.880, 4.517e-4
-1.881, 4.594e-4
-1.882, 4.678e-4
-1.883, 4.752e-4
-1.884, 4.825e-4
-1.885, 4.904e-4
-1.886, 4.986e-4
-1.887, 5.065e-4
-1.888, 5.144e-4
-1.889, 5.226e-4
-1.890, 5.308e-4
-1.891, 5.392e-4
-1.892, 5.480e-4
-1.893, 5.571e-4
-1.894, 5.657e-4
-1.895, 5.741e-4
-1.896, 5.826e-4
-1.897, 5.912e-4
-1.898, 6.000e-4
-1.899, 6.089e-4
-1.900, 6.181e-4
-1.901, 6.272e-4
-1.902, 6.363e-4
-1.903, 6.456e-4
-1.904, 6.551e-4
-1.905, 6.644e-4
-1.906, 6.740e-4
-1.907, 6.834e-4
-1.908, 6.928e-4
-1.909, 7.027e-4
-1.910, 7.124e-4
-1.911, 7.220e-4
-1.912, 7.318e-4
-1.913, 7.419e-4
-1.914, 7.517e-4
-1.915, 7.617e-4
-1.916, 7.719e-4
-1.917, 7.823e-4
-1.918, 7.927e-4
-1.919, 8.027e-4
-1.920, 8.130e-4
-1.921, 8.234e-4
-1.922, 8.340e-4
-1.923, 8.446e-4
-1.924, 8.552e-4
-1.925, 8.658e-4
-1.926, 8.767e-4
-1.927, 8.877e-4
-1.928, 8.983e-4
-1.929, 9.092e-4
-1.930, 9.202e-4
-1.931, 9.312e-4
-1.932, 9.419e-4
-1.933, 9.528e-4
-1.934, 9.641e-4
-1.935, 9.755e-4
-1.936, 9.868e-4
-1.937, 9.980e-4
-1.938, 1.009e-3
-1.939, 1.011e-3
-1.940, 1.011e-3
-1.941, 1.011e-3
-1.942, 1.011e-3
-1.943, 1.011e-3
-1.944, 1.011e-3
-1.945, 1.011e-3
-1.946, 1.011e-3
-1.947, 1.011e-3
-1.948, 1.011e-3
-1.949, 1.011e-3
-1.950, 1.011e-3
-1.951, 1.011e-3
-1.952, 1.011e-3
-1.953, 1.011e-3
-1.954, 1.011e-3
-1.955, 1.011e-3
-1.956, 1.011e-3
-1.957, 1.011e-3
-1.958, 1.011e-3
-1.959, 1.011e-3
-1.960, 1.011e-3
-1.961, 1.011e-3
-1.962, 1.011e-3
-1.963, 1.011e-3
-1.964, 1.011e-3
-1.965, 1.011e-3
-1.966, 1.011e-3
-1.967, 1.011e-3
-1.968, 1.011e-3
-1.969, 1.011e-3
-1.970, 1.011e-3
-1.971, 1.011e-3
-1.972, 1.011e-3
-1.973, 1.011e-3
-1.974, 1.011e-3
-1.975, 1.011e-3
-1.976, 1.011e-3
-1.977, 1.011e-3
-1.978, 1.011e-3
-1.979, 1.011e-3
-1.980, 1.011e-3
-1.981, 1.011e-3
-1.982, 1.011e-3
-1.983, 1.011e-3
-1.984, 1.011e-3
-1.985, 1.011e-3
-1.986, 1.011e-3
-1.987, 1.011e-3
-1.988, 1.011e-3
-1.989, 1.011e-3
-1.990, 1.011e-3
-1.991, 1.011e-3
-1.992, 1.011e-3
-1.993, 1.011e-3
-1.994, 1.011e-3
-1.995, 1.011e-3
-1.996, 1.011e-3
-1.997, 1.011e-3
-1.998, 1.011e-3
-1.999, 1.011e-3
-2.000, 1.011e-3
-2.001, 1.011e-3
-2.002, 1.011e-3
-2.003, 1.011e-3
-2.004, 1.011e-3
-2.005, 1.011e-3
-2.006, 1.011e-3
-2.007, 1.011e-3
-2.008, 1.011e-3
-2.009, 1.011e-3
-2.010, 1.011e-3
-2.011, 1.011e-3
-2.012, 1.011e-3
-2.013, 1.011e-3
-2.014, 1.011e-3
-2.015, 1.011e-3
-2.016, 1.011e-3
-2.017, 1.011e-3
-2.018, 1.011e-3
-2.019, 1.011e-3
-2.020, 1.011e-3
-2.021, 1.011e-3
-2.022, 1.011e-3
-2.023, 1.011e-3
-2.024, 1.011e-3
-2.025, 1.011e-3
-2.026, 1.011e-3
-2.027, 1.011e-3
-2.028, 1.011e-3
-2.029, 1.011e-3
-2.030, 1.011e-3
-2.031, 1.011e-3
-2.032, 1.011e-3
-2.033, 1.011e-3
-2.034, 1.011e-3
-2.035, 1.011e-3
-2.036, 1.011e-3
-2.037, 1.011e-3
-2.038, 1.011e-3
-2.039, 1.011e-3
-2.040, 1.011e-3
-2.041, 1.011e-3
-2.042, 1.011e-3
-2.043, 1.011e-3
-2.044, 1.011e-3
-2.045, 1.011e-3
-2.046, 1.011e-3
-2.047, 1.011e-3
-2.048, 1.011e-3
-2.049, 1.011e-3
-2.050, 1.011e-3
-2.051, 1.011e-3
-2.052, 1.011e-3
-2.053, 1.011e-3
-2.054, 1.011e-3
-2.055, 1.011e-3
-2.056, 1.011e-3
-2.057, 1.011e-3
-2.058, 1.011e-3
-2.059, 1.011e-3
-2.060, 1.011e-3
-2.061, 1.011e-3
-2.062, 1.011e-3
-2.063, 1.011e-3
-2.064, 1.011e-3
-2.065, 1.011e-3
-2.066, 1.011e-3
-2.067, 1.011e-3
-2.068, 1.011e-3
-2.069, 1.011e-3
-2.070, 1.011e-3
-2.071, 1.011e-3
-2.072, 1.011e-3
-2.073, 1.011e-3
-2.074, 1.011e-3
-2.075, 1.011e-3
-2.076, 1.011e-3
-2.077, 1.011e-3
-2.078, 1.011e-3
-2.079, 1.011e-3
-2.080, 1.011e-3
-2.081, 1.011e-3
-2.082, 1.011e-3
-2.083, 1.011e-3
-2.084, 1.011e-3
-2.085, 1.011e-3
-2.086, 1.011e-3
-2.087, 1.011e-3
-2.088, 1.011e-3
-2.089, 1.011e-3
-2.090, 1.011e-3
-2.091, 1.011e-3
-2.092, 1.011e-3
-2.093, 1.011e-3
-2.094, 1.011e-3
-2.095, 1.011e-3
-2.096, 1.011e-3
-2.097, 1.011e-3
-2.098, 1.011e-3
-2.099, 1.011e-3
