Sept. 6, 2024   05:26:01
Linear Sweep Voltammetry
File: c:/users/guazh/data/20240903_batch_252_500/2024-09-03-exp276\1acid_3ac-2024-09-06t05_22_50-lsvinphos\1acid_3ac_lsv_50mvs_efin_-2300mv.bin
Data Source:  Experiment
Instrument Model:  CHI760E
Header: LSV ran at 50 mVs with Efin at -2300mV
Note: 

Init E (V) = -0.6
Final E (V) = -2.3
Scan Rate (V/s) = 0.05
Sample Interval (V) = 0.001
Quiet Time (sec) = 2
Sensitivity (A/V) = 1e-4
Comp R (ohm) = 7.7

Results:

Channel 1:
Ep = -1.897V
ip = 7.336e-4A
Ah = 1.052e-3C

Potential/V, Current/A

-0.600, 2.959e-6
-0.601, 3.079e-6
-0.602, 3.144e-6
-0.603, 3.188e-6
-0.604, 3.226e-6
-0.605, 3.263e-6
-0.606, 3.297e-6
-0.607, 3.332e-6
-0.608, 3.366e-6
-0.609, 3.400e-6
-0.610, 3.432e-6
-0.611, 3.465e-6
-0.612, 3.496e-6
-0.613, 3.526e-6
-0.614, 3.558e-6
-0.615, 3.592e-6
-0.616, 3.623e-6
-0.617, 3.655e-6
-0.618, 3.686e-6
-0.619, 3.717e-6
-0.620, 3.749e-6
-0.621, 3.781e-6
-0.622, 3.813e-6
-0.623, 3.843e-6
-0.624, 3.877e-6
-0.625, 3.909e-6
-0.626, 3.939e-6
-0.627, 3.973e-6
-0.628, 4.009e-6
-0.629, 4.039e-6
-0.630, 4.069e-6
-0.631, 4.101e-6
-0.632, 4.133e-6
-0.633, 4.164e-6
-0.634, 4.195e-6
-0.635, 4.226e-6
-0.636, 4.258e-6
-0.637, 4.290e-6
-0.638, 4.323e-6
-0.639, 4.354e-6
-0.640, 4.389e-6
-0.641, 4.422e-6
-0.642, 4.455e-6
-0.643, 4.488e-6
-0.644, 4.523e-6
-0.645, 4.556e-6
-0.646, 4.589e-6
-0.647, 4.622e-6
-0.648, 4.655e-6
-0.649, 4.689e-6
-0.650, 4.721e-6
-0.651, 4.756e-6
-0.652, 4.790e-6
-0.653, 4.825e-6
-0.654, 4.857e-6
-0.655, 4.890e-6
-0.656, 4.922e-6
-0.657, 4.957e-6
-0.658, 4.992e-6
-0.659, 5.025e-6
-0.660, 5.061e-6
-0.661, 5.094e-6
-0.662, 5.128e-6
-0.663, 5.161e-6
-0.664, 5.195e-6
-0.665, 5.230e-6
-0.666, 5.266e-6
-0.667, 5.300e-6
-0.668, 5.333e-6
-0.669, 5.365e-6
-0.670, 5.400e-6
-0.671, 5.432e-6
-0.672, 5.467e-6
-0.673, 5.502e-6
-0.674, 5.535e-6
-0.675, 5.569e-6
-0.676, 5.603e-6
-0.677, 5.636e-6
-0.678, 5.669e-6
-0.679, 5.703e-6
-0.680, 5.738e-6
-0.681, 5.772e-6
-0.682, 5.804e-6
-0.683, 5.838e-6
-0.684, 5.871e-6
-0.685, 5.902e-6
-0.686, 5.931e-6
-0.687, 5.964e-6
-0.688, 5.996e-6
-0.689, 6.027e-6
-0.690, 6.060e-6
-0.691, 6.092e-6
-0.692, 6.126e-6
-0.693, 6.155e-6
-0.694, 6.186e-6
-0.695, 6.216e-6
-0.696, 6.245e-6
-0.697, 6.275e-6
-0.698, 6.306e-6
-0.699, 6.337e-6
-0.700, 6.367e-6
-0.701, 6.396e-6
-0.702, 6.428e-6
-0.703, 6.456e-6
-0.704, 6.485e-6
-0.705, 6.516e-6
-0.706, 6.544e-6
-0.707, 6.572e-6
-0.708, 6.601e-6
-0.709, 6.628e-6
-0.710, 6.657e-6
-0.711, 6.684e-6
-0.712, 6.712e-6
-0.713, 6.738e-6
-0.714, 6.764e-6
-0.715, 6.791e-6
-0.716, 6.816e-6
-0.717, 6.843e-6
-0.718, 6.869e-6
-0.719, 6.892e-6
-0.720, 6.917e-6
-0.721, 6.940e-6
-0.722, 6.965e-6
-0.723, 6.988e-6
-0.724, 7.010e-6
-0.725, 7.032e-6
-0.726, 7.055e-6
-0.727, 7.077e-6
-0.728, 7.098e-6
-0.729, 7.119e-6
-0.730, 7.142e-6
-0.731, 7.163e-6
-0.732, 7.183e-6
-0.733, 7.202e-6
-0.734, 7.221e-6
-0.735, 7.239e-6
-0.736, 7.257e-6
-0.737, 7.276e-6
-0.738, 7.292e-6
-0.739, 7.309e-6
-0.740, 7.326e-6
-0.741, 7.341e-6
-0.742, 7.359e-6
-0.743, 7.374e-6
-0.744, 7.388e-6
-0.745, 7.402e-6
-0.746, 7.416e-6
-0.747, 7.431e-6
-0.748, 7.444e-6
-0.749, 7.457e-6
-0.750, 7.471e-6
-0.751, 7.482e-6
-0.752, 7.494e-6
-0.753, 7.506e-6
-0.754, 7.516e-6
-0.755, 7.528e-6
-0.756, 7.536e-6
-0.757, 7.546e-6
-0.758, 7.555e-6
-0.759, 7.563e-6
-0.760, 7.572e-6
-0.761, 7.580e-6
-0.762, 7.587e-6
-0.763, 7.594e-6
-0.764, 7.600e-6
-0.765, 7.607e-6
-0.766, 7.612e-6
-0.767, 7.618e-6
-0.768, 7.625e-6
-0.769, 7.630e-6
-0.770, 7.633e-6
-0.771, 7.636e-6
-0.772, 7.640e-6
-0.773, 7.643e-6
-0.774, 7.645e-6
-0.775, 7.649e-6
-0.776, 7.649e-6
-0.777, 7.651e-6
-0.778, 7.652e-6
-0.779, 7.652e-6
-0.780, 7.653e-6
-0.781, 7.651e-6
-0.782, 7.653e-6
-0.783, 7.650e-6
-0.784, 7.649e-6
-0.785, 7.649e-6
-0.786, 7.645e-6
-0.787, 7.644e-6
-0.788, 7.642e-6
-0.789, 7.638e-6
-0.790, 7.635e-6
-0.791, 7.630e-6
-0.792, 7.627e-6
-0.793, 7.624e-6
-0.794, 7.618e-6
-0.795, 7.614e-6
-0.796, 7.609e-6
-0.797, 7.605e-6
-0.798, 7.599e-6
-0.799, 7.592e-6
-0.800, 7.587e-6
-0.801, 7.580e-6
-0.802, 7.572e-6
-0.803, 7.566e-6
-0.804, 7.558e-6
-0.805, 7.552e-6
-0.806, 7.545e-6
-0.807, 7.536e-6
-0.808, 7.529e-6
-0.809, 7.521e-6
-0.810, 7.511e-6
-0.811, 7.504e-6
-0.812, 7.495e-6
-0.813, 7.486e-6
-0.814, 7.476e-6
-0.815, 7.467e-6
-0.816, 7.458e-6
-0.817, 7.448e-6
-0.818, 7.437e-6
-0.819, 7.432e-6
-0.820, 7.423e-6
-0.821, 7.411e-6
-0.822, 7.399e-6
-0.823, 7.389e-6
-0.824, 7.379e-6
-0.825, 7.368e-6
-0.826, 7.356e-6
-0.827, 7.346e-6
-0.828, 7.334e-6
-0.829, 7.323e-6
-0.830, 7.312e-6
-0.831, 7.300e-6
-0.832, 7.290e-6
-0.833, 7.278e-6
-0.834, 7.266e-6
-0.835, 7.256e-6
-0.836, 7.244e-6
-0.837, 7.231e-6
-0.838, 7.221e-6
-0.839, 7.209e-6
-0.840, 7.196e-6
-0.841, 7.184e-6
-0.842, 7.171e-6
-0.843, 7.160e-6
-0.844, 7.146e-6
-0.845, 7.136e-6
-0.846, 7.123e-6
-0.847, 7.109e-6
-0.848, 7.098e-6
-0.849, 7.086e-6
-0.850, 7.071e-6
-0.851, 7.060e-6
-0.852, 7.049e-6
-0.853, 7.036e-6
-0.854, 7.024e-6
-0.855, 7.011e-6
-0.856, 6.998e-6
-0.857, 6.986e-6
-0.858, 6.976e-6
-0.859, 6.962e-6
-0.860, 6.950e-6
-0.861, 6.936e-6
-0.862, 6.925e-6
-0.863, 6.911e-6
-0.864, 6.899e-6
-0.865, 6.889e-6
-0.866, 6.875e-6
-0.867, 6.865e-6
-0.868, 6.851e-6
-0.869, 6.839e-6
-0.870, 6.828e-6
-0.871, 6.818e-6
-0.872, 6.806e-6
-0.873, 6.793e-6
-0.874, 6.779e-6
-0.875, 6.769e-6
-0.876, 6.757e-6
-0.877, 6.744e-6
-0.878, 6.732e-6
-0.879, 6.719e-6
-0.880, 6.709e-6
-0.881, 6.697e-6
-0.882, 6.686e-6
-0.883, 6.676e-6
-0.884, 6.663e-6
-0.885, 6.651e-6
-0.886, 6.639e-6
-0.887, 6.628e-6
-0.888, 6.617e-6
-0.889, 6.606e-6
-0.890, 6.595e-6
-0.891, 6.584e-6
-0.892, 6.573e-6
-0.893, 6.561e-6
-0.894, 6.551e-6
-0.895, 6.540e-6
-0.896, 6.531e-6
-0.897, 6.518e-6
-0.898, 6.507e-6
-0.899, 6.497e-6
-0.900, 6.486e-6
-0.901, 6.476e-6
-0.902, 6.466e-6
-0.903, 6.457e-6
-0.904, 6.444e-6
-0.905, 6.436e-6
-0.906, 6.425e-6
-0.907, 6.416e-6
-0.908, 6.405e-6
-0.909, 6.396e-6
-0.910, 6.386e-6
-0.911, 6.376e-6
-0.912, 6.365e-6
-0.913, 6.357e-6
-0.914, 6.346e-6
-0.915, 6.338e-6
-0.916, 6.329e-6
-0.917, 6.318e-6
-0.918, 6.310e-6
-0.919, 6.299e-6
-0.920, 6.291e-6
-0.921, 6.281e-6
-0.922, 6.274e-6
-0.923, 6.265e-6
-0.924, 6.256e-6
-0.925, 6.247e-6
-0.926, 6.239e-6
-0.927, 6.229e-6
-0.928, 6.223e-6
-0.929, 6.214e-6
-0.930, 6.205e-6
-0.931, 6.198e-6
-0.932, 6.190e-6
-0.933, 6.183e-6
-0.934, 6.175e-6
-0.935, 6.166e-6
-0.936, 6.159e-6
-0.937, 6.151e-6
-0.938, 6.142e-6
-0.939, 6.134e-6
-0.940, 6.128e-6
-0.941, 6.119e-6
-0.942, 6.111e-6
-0.943, 6.104e-6
-0.944, 6.097e-6
-0.945, 6.089e-6
-0.946, 6.080e-6
-0.947, 6.074e-6
-0.948, 6.067e-6
-0.949, 6.059e-6
-0.950, 6.052e-6
-0.951, 6.044e-6
-0.952, 6.036e-6
-0.953, 6.031e-6
-0.954, 6.022e-6
-0.955, 6.015e-6
-0.956, 6.009e-6
-0.957, 6.002e-6
-0.958, 5.996e-6
-0.959, 5.988e-6
-0.960, 5.981e-6
-0.961, 5.975e-6
-0.962, 5.967e-6
-0.963, 5.961e-6
-0.964, 5.954e-6
-0.965, 5.947e-6
-0.966, 5.942e-6
-0.967, 5.935e-6
-0.968, 5.929e-6
-0.969, 5.924e-6
-0.970, 5.916e-6
-0.971, 5.912e-6
-0.972, 5.906e-6
-0.973, 5.903e-6
-0.974, 5.896e-6
-0.975, 5.889e-6
-0.976, 5.884e-6
-0.977, 5.877e-6
-0.978, 5.873e-6
-0.979, 5.867e-6
-0.980, 5.861e-6
-0.981, 5.854e-6
-0.982, 5.850e-6
-0.983, 5.844e-6
-0.984, 5.838e-6
-0.985, 5.833e-6
-0.986, 5.828e-6
-0.987, 5.821e-6
-0.988, 5.816e-6
-0.989, 5.810e-6
-0.990, 5.805e-6
-0.991, 5.798e-6
-0.992, 5.793e-6
-0.993, 5.789e-6
-0.994, 5.782e-6
-0.995, 5.778e-6
-0.996, 5.772e-6
-0.997, 5.765e-6
-0.998, 5.762e-6
-0.999, 5.755e-6
-1.000, 5.751e-6
-1.001, 5.745e-6
-1.002, 5.740e-6
-1.003, 5.736e-6
-1.004, 5.730e-6
-1.005, 5.725e-6
-1.006, 5.721e-6
-1.007, 5.714e-6
-1.008, 5.711e-6
-1.009, 5.704e-6
-1.010, 5.699e-6
-1.011, 5.696e-6
-1.012, 5.691e-6
-1.013, 5.687e-6
-1.014, 5.681e-6
-1.015, 5.677e-6
-1.016, 5.673e-6
-1.017, 5.667e-6
-1.018, 5.664e-6
-1.019, 5.659e-6
-1.020, 5.654e-6
-1.021, 5.649e-6
-1.022, 5.646e-6
-1.023, 5.641e-6
-1.024, 5.638e-6
-1.025, 5.634e-6
-1.026, 5.629e-6
-1.027, 5.626e-6
-1.028, 5.622e-6
-1.029, 5.617e-6
-1.030, 5.612e-6
-1.031, 5.609e-6
-1.032, 5.605e-6
-1.033, 5.602e-6
-1.034, 5.596e-6
-1.035, 5.594e-6
-1.036, 5.589e-6
-1.037, 5.585e-6
-1.038, 5.582e-6
-1.039, 5.578e-6
-1.040, 5.573e-6
-1.041, 5.570e-6
-1.042, 5.566e-6
-1.043, 5.564e-6
-1.044, 5.559e-6
-1.045, 5.555e-6
-1.046, 5.553e-6
-1.047, 5.549e-6
-1.048, 5.545e-6
-1.049, 5.542e-6
-1.050, 5.539e-6
-1.051, 5.536e-6
-1.052, 5.533e-6
-1.053, 5.529e-6
-1.054, 5.526e-6
-1.055, 5.522e-6
-1.056, 5.520e-6
-1.057, 5.517e-6
-1.058, 5.513e-6
-1.059, 5.510e-6
-1.060, 5.507e-6
-1.061, 5.503e-6
-1.062, 5.501e-6
-1.063, 5.498e-6
-1.064, 5.495e-6
-1.065, 5.493e-6
-1.066, 5.489e-6
-1.067, 5.486e-6
-1.068, 5.485e-6
-1.069, 5.481e-6
-1.070, 5.479e-6
-1.071, 5.476e-6
-1.072, 5.474e-6
-1.073, 5.472e-6
-1.074, 5.468e-6
-1.075, 5.467e-6
-1.076, 5.466e-6
-1.077, 5.462e-6
-1.078, 5.461e-6
-1.079, 5.457e-6
-1.080, 5.454e-6
-1.081, 5.453e-6
-1.082, 5.451e-6
-1.083, 5.449e-6
-1.084, 5.447e-6
-1.085, 5.445e-6
-1.086, 5.444e-6
-1.087, 5.440e-6
-1.088, 5.440e-6
-1.089, 5.438e-6
-1.090, 5.435e-6
-1.091, 5.435e-6
-1.092, 5.433e-6
-1.093, 5.431e-6
-1.094, 5.429e-6
-1.095, 5.428e-6
-1.096, 5.426e-6
-1.097, 5.426e-6
-1.098, 5.424e-6
-1.099, 5.423e-6
-1.100, 5.422e-6
-1.101, 5.422e-6
-1.102, 5.421e-6
-1.103, 5.420e-6
-1.104, 5.419e-6
-1.105, 5.417e-6
-1.106, 5.417e-6
-1.107, 5.417e-6
-1.108, 5.417e-6
-1.109, 5.415e-6
-1.110, 5.416e-6
-1.111, 5.416e-6
-1.112, 5.414e-6
-1.113, 5.415e-6
-1.114, 5.415e-6
-1.115, 5.414e-6
-1.116, 5.414e-6
-1.117, 5.414e-6
-1.118, 5.415e-6
-1.119, 5.415e-6
-1.120, 5.415e-6
-1.121, 5.417e-6
-1.122, 5.416e-6
-1.123, 5.417e-6
-1.124, 5.418e-6
-1.125, 5.418e-6
-1.126, 5.421e-6
-1.127, 5.421e-6
-1.128, 5.423e-6
-1.129, 5.424e-6
-1.130, 5.423e-6
-1.131, 5.427e-6
-1.132, 5.428e-6
-1.133, 5.430e-6
-1.134, 5.432e-6
-1.135, 5.433e-6
-1.136, 5.436e-6
-1.137, 5.437e-6
-1.138, 5.440e-6
-1.139, 5.443e-6
-1.140, 5.445e-6
-1.141, 5.448e-6
-1.142, 5.449e-6
-1.143, 5.452e-6
-1.144, 5.455e-6
-1.145, 5.459e-6
-1.146, 5.461e-6
-1.147, 5.464e-6
-1.148, 5.468e-6
-1.149, 5.472e-6
-1.150, 5.475e-6
-1.151, 5.478e-6
-1.152, 5.483e-6
-1.153, 5.488e-6
-1.154, 5.491e-6
-1.155, 5.495e-6
-1.156, 5.500e-6
-1.157, 5.503e-6
-1.158, 5.508e-6
-1.159, 5.513e-6
-1.160, 5.517e-6
-1.161, 5.522e-6
-1.162, 5.525e-6
-1.163, 5.532e-6
-1.164, 5.536e-6
-1.165, 5.541e-6
-1.166, 5.546e-6
-1.167, 5.549e-6
-1.168, 5.556e-6
-1.169, 5.561e-6
-1.170, 5.566e-6
-1.171, 5.572e-6
-1.172, 5.578e-6
-1.173, 5.582e-6
-1.174, 5.589e-6
-1.175, 5.595e-6
-1.176, 5.601e-6
-1.177, 5.607e-6
-1.178, 5.614e-6
-1.179, 5.620e-6
-1.180, 5.625e-6
-1.181, 5.631e-6
-1.182, 5.637e-6
-1.183, 5.645e-6
-1.184, 5.651e-6
-1.185, 5.658e-6
-1.186, 5.664e-6
-1.187, 5.671e-6
-1.188, 5.678e-6
-1.189, 5.684e-6
-1.190, 5.692e-6
-1.191, 5.700e-6
-1.192, 5.708e-6
-1.193, 5.715e-6
-1.194, 5.722e-6
-1.195, 5.732e-6
-1.196, 5.739e-6
-1.197, 5.746e-6
-1.198, 5.755e-6
-1.199, 5.763e-6
-1.200, 5.770e-6
-1.201, 5.779e-6
-1.202, 5.787e-6
-1.203, 5.797e-6
-1.204, 5.806e-6
-1.205, 5.812e-6
-1.206, 5.822e-6
-1.207, 5.830e-6
-1.208, 5.841e-6
-1.209, 5.849e-6
-1.210, 5.856e-6
-1.211, 5.865e-6
-1.212, 5.874e-6
-1.213, 5.883e-6
-1.214, 5.892e-6
-1.215, 5.899e-6
-1.216, 5.910e-6
-1.217, 5.917e-6
-1.218, 5.926e-6
-1.219, 5.935e-6
-1.220, 5.944e-6
-1.221, 5.954e-6
-1.222, 5.963e-6
-1.223, 5.973e-6
-1.224, 5.983e-6
-1.225, 5.993e-6
-1.226, 6.003e-6
-1.227, 6.013e-6
-1.228, 6.023e-6
-1.229, 6.039e-6
-1.230, 6.047e-6
-1.231, 6.057e-6
-1.232, 6.067e-6
-1.233, 6.078e-6
-1.234, 6.088e-6
-1.235, 6.098e-6
-1.236, 6.109e-6
-1.237, 6.119e-6
-1.238, 6.130e-6
-1.239, 6.141e-6
-1.240, 6.150e-6
-1.241, 6.163e-6
-1.242, 6.173e-6
-1.243, 6.184e-6
-1.244, 6.195e-6
-1.245, 6.205e-6
-1.246, 6.217e-6
-1.247, 6.226e-6
-1.248, 6.238e-6
-1.249, 6.250e-6
-1.250, 6.261e-6
-1.251, 6.274e-6
-1.252, 6.284e-6
-1.253, 6.296e-6
-1.254, 6.310e-6
-1.255, 6.322e-6
-1.256, 6.335e-6
-1.257, 6.347e-6
-1.258, 6.358e-6
-1.259, 6.370e-6
-1.260, 6.382e-6
-1.261, 6.397e-6
-1.262, 6.409e-6
-1.263, 6.422e-6
-1.264, 6.434e-6
-1.265, 6.447e-6
-1.266, 6.461e-6
-1.267, 6.475e-6
-1.268, 6.488e-6
-1.269, 6.500e-6
-1.270, 6.515e-6
-1.271, 6.526e-6
-1.272, 6.540e-6
-1.273, 6.554e-6
-1.274, 6.568e-6
-1.275, 6.581e-6
-1.276, 6.595e-6
-1.277, 6.609e-6
-1.278, 6.623e-6
-1.279, 6.637e-6
-1.280, 6.653e-6
-1.281, 6.669e-6
-1.282, 6.680e-6
-1.283, 6.697e-6
-1.284, 6.711e-6
-1.285, 6.723e-6
-1.286, 6.739e-6
-1.287, 6.753e-6
-1.288, 6.768e-6
-1.289, 6.784e-6
-1.290, 6.799e-6
-1.291, 6.814e-6
-1.292, 6.829e-6
-1.293, 6.844e-6
-1.294, 6.859e-6
-1.295, 6.874e-6
-1.296, 6.890e-6
-1.297, 6.905e-6
-1.298, 6.919e-6
-1.299, 6.938e-6
-1.300, 6.952e-6
-1.301, 6.968e-6
-1.302, 6.985e-6
-1.303, 7.001e-6
-1.304, 7.019e-6
-1.305, 7.034e-6
-1.306, 7.052e-6
-1.307, 7.068e-6
-1.308, 7.085e-6
-1.309, 7.102e-6
-1.310, 7.119e-6
-1.311, 7.136e-6
-1.312, 7.152e-6
-1.313, 7.172e-6
-1.314, 7.189e-6
-1.315, 7.207e-6
-1.316, 7.224e-6
-1.317, 7.241e-6
-1.318, 7.259e-6
-1.319, 7.278e-6
-1.320, 7.295e-6
-1.321, 7.314e-6
-1.322, 7.330e-6
-1.323, 7.348e-6
-1.324, 7.367e-6
-1.325, 7.386e-6
-1.326, 7.407e-6
-1.327, 7.424e-6
-1.328, 7.443e-6
-1.329, 7.465e-6
-1.330, 7.483e-6
-1.331, 7.505e-6
-1.332, 7.523e-6
-1.333, 7.543e-6
-1.334, 7.564e-6
-1.335, 7.582e-6
-1.336, 7.604e-6
-1.337, 7.624e-6
-1.338, 7.644e-6
-1.339, 7.666e-6
-1.340, 7.686e-6
-1.341, 7.707e-6
-1.342, 7.729e-6
-1.343, 7.748e-6
-1.344, 7.772e-6
-1.345, 7.794e-6
-1.346, 7.812e-6
-1.347, 7.836e-6
-1.348, 7.857e-6
-1.349, 7.880e-6
-1.350, 7.901e-6
-1.351, 7.924e-6
-1.352, 7.948e-6
-1.353, 7.972e-6
-1.354, 7.994e-6
-1.355, 8.016e-6
-1.356, 8.040e-6
-1.357, 8.063e-6
-1.358, 8.086e-6
-1.359, 8.109e-6
-1.360, 8.133e-6
-1.361, 8.158e-6
-1.362, 8.182e-6
-1.363, 8.209e-6
-1.364, 8.235e-6
-1.365, 8.258e-6
-1.366, 8.284e-6
-1.367, 8.307e-6
-1.368, 8.333e-6
-1.369, 8.359e-6
-1.370, 8.383e-6
-1.371, 8.409e-6
-1.372, 8.434e-6
-1.373, 8.460e-6
-1.374, 8.488e-6
-1.375, 8.512e-6
-1.376, 8.540e-6
-1.377, 8.567e-6
-1.378, 8.591e-6
-1.379, 8.617e-6
-1.380, 8.640e-6
-1.381, 8.668e-6
-1.382, 8.698e-6
-1.383, 8.727e-6
-1.384, 8.756e-6
-1.385, 8.783e-6
-1.386, 8.811e-6
-1.387, 8.837e-6
-1.388, 8.864e-6
-1.389, 8.892e-6
-1.390, 8.921e-6
-1.391, 8.950e-6
-1.392, 8.979e-6
-1.393, 9.008e-6
-1.394, 9.038e-6
-1.395, 9.067e-6
-1.396, 9.098e-6
-1.397, 9.128e-6
-1.398, 9.156e-6
-1.399, 9.187e-6
-1.400, 9.218e-6
-1.401, 9.250e-6
-1.402, 9.282e-6
-1.403, 9.315e-6
-1.404, 9.343e-6
-1.405, 9.374e-6
-1.406, 9.407e-6
-1.407, 9.437e-6
-1.408, 9.471e-6
-1.409, 9.505e-6
-1.410, 9.536e-6
-1.411, 9.571e-6
-1.412, 9.604e-6
-1.413, 9.638e-6
-1.414, 9.671e-6
-1.415, 9.704e-6
-1.416, 9.738e-6
-1.417, 9.773e-6
-1.418, 9.808e-6
-1.419, 9.844e-6
-1.420, 9.879e-6
-1.421, 9.915e-6
-1.422, 9.950e-6
-1.423, 9.986e-6
-1.424, 1.002e-5
-1.425, 1.006e-5
-1.426, 1.009e-5
-1.427, 1.013e-5
-1.428, 1.017e-5
-1.429, 1.020e-5
-1.430, 1.024e-5
-1.431, 1.028e-5
-1.432, 1.032e-5
-1.433, 1.036e-5
-1.434, 1.040e-5
-1.435, 1.044e-5
-1.436, 1.048e-5
-1.437, 1.052e-5
-1.438, 1.056e-5
-1.439, 1.060e-5
-1.440, 1.064e-5
-1.441, 1.069e-5
-1.442, 1.073e-5
-1.443, 1.077e-5
-1.444, 1.082e-5
-1.445, 1.086e-5
-1.446, 1.090e-5
-1.447, 1.095e-5
-1.448, 1.099e-5
-1.449, 1.103e-5
-1.450, 1.108e-5
-1.451, 1.112e-5
-1.452, 1.117e-5
-1.453, 1.122e-5
-1.454, 1.127e-5
-1.455, 1.131e-5
-1.456, 1.136e-5
-1.457, 1.141e-5
-1.458, 1.146e-5
-1.459, 1.151e-5
-1.460, 1.156e-5
-1.461, 1.161e-5
-1.462, 1.166e-5
-1.463, 1.171e-5
-1.464, 1.176e-5
-1.465, 1.182e-5
-1.466, 1.187e-5
-1.467, 1.192e-5
-1.468, 1.198e-5
-1.469, 1.203e-5
-1.470, 1.207e-5
-1.471, 1.212e-5
-1.472, 1.218e-5
-1.473, 1.224e-5
-1.474, 1.230e-5
-1.475, 1.236e-5
-1.476, 1.241e-5
-1.477, 1.247e-5
-1.478, 1.254e-5
-1.479, 1.260e-5
-1.480, 1.266e-5
-1.481, 1.272e-5
-1.482, 1.279e-5
-1.483, 1.286e-5
-1.484, 1.292e-5
-1.485, 1.299e-5
-1.486, 1.306e-5
-1.487, 1.312e-5
-1.488, 1.319e-5
-1.489, 1.326e-5
-1.490, 1.333e-5
-1.491, 1.340e-5
-1.492, 1.347e-5
-1.493, 1.354e-5
-1.494, 1.362e-5
-1.495, 1.370e-5
-1.496, 1.377e-5
-1.497, 1.385e-5
-1.498, 1.393e-5
-1.499, 1.400e-5
-1.500, 1.408e-5
-1.501, 1.416e-5
-1.502, 1.424e-5
-1.503, 1.432e-5
-1.504, 1.441e-5
-1.505, 1.449e-5
-1.506, 1.458e-5
-1.507, 1.467e-5
-1.508, 1.476e-5
-1.509, 1.484e-5
-1.510, 1.494e-5
-1.511, 1.503e-5
-1.512, 1.512e-5
-1.513, 1.522e-5
-1.514, 1.531e-5
-1.515, 1.541e-5
-1.516, 1.551e-5
-1.517, 1.561e-5
-1.518, 1.571e-5
-1.519, 1.581e-5
-1.520, 1.592e-5
-1.521, 1.603e-5
-1.522, 1.614e-5
-1.523, 1.625e-5
-1.524, 1.636e-5
-1.525, 1.647e-5
-1.526, 1.658e-5
-1.527, 1.670e-5
-1.528, 1.681e-5
-1.529, 1.693e-5
-1.530, 1.705e-5
-1.531, 1.717e-5
-1.532, 1.729e-5
-1.533, 1.742e-5
-1.534, 1.755e-5
-1.535, 1.767e-5
-1.536, 1.781e-5
-1.537, 1.794e-5
-1.538, 1.807e-5
-1.539, 1.820e-5
-1.540, 1.833e-5
-1.541, 1.847e-5
-1.542, 1.861e-5
-1.543, 1.875e-5
-1.544, 1.889e-5
-1.545, 1.902e-5
-1.546, 1.919e-5
-1.547, 1.934e-5
-1.548, 1.950e-5
-1.549, 1.966e-5
-1.550, 1.982e-5
-1.551, 1.998e-5
-1.552, 2.014e-5
-1.553, 2.031e-5
-1.554, 2.048e-5
-1.555, 2.065e-5
-1.556, 2.082e-5
-1.557, 2.100e-5
-1.558, 2.118e-5
-1.559, 2.136e-5
-1.560, 2.155e-5
-1.561, 2.173e-5
-1.562, 2.192e-5
-1.563, 2.211e-5
-1.564, 2.231e-5
-1.565, 2.250e-5
-1.566, 2.270e-5
-1.567, 2.291e-5
-1.568, 2.311e-5
-1.569, 2.332e-5
-1.570, 2.353e-5
-1.571, 2.374e-5
-1.572, 2.397e-5
-1.573, 2.419e-5
-1.574, 2.441e-5
-1.575, 2.464e-5
-1.576, 2.487e-5
-1.577, 2.511e-5
-1.578, 2.535e-5
-1.579, 2.558e-5
-1.580, 2.582e-5
-1.581, 2.607e-5
-1.582, 2.632e-5
-1.583, 2.657e-5
-1.584, 2.683e-5
-1.585, 2.709e-5
-1.586, 2.736e-5
-1.587, 2.763e-5
-1.588, 2.790e-5
-1.589, 2.817e-5
-1.590, 2.845e-5
-1.591, 2.873e-5
-1.592, 2.902e-5
-1.593, 2.931e-5
-1.594, 2.961e-5
-1.595, 2.991e-5
-1.596, 3.021e-5
-1.597, 3.052e-5
-1.598, 3.084e-5
-1.599, 3.116e-5
-1.600, 3.149e-5
-1.601, 3.182e-5
-1.602, 3.216e-5
-1.603, 3.250e-5
-1.604, 3.284e-5
-1.605, 3.320e-5
-1.606, 3.355e-5
-1.607, 3.391e-5
-1.608, 3.427e-5
-1.609, 3.464e-5
-1.610, 3.502e-5
-1.611, 3.540e-5
-1.612, 3.579e-5
-1.613, 3.618e-5
-1.614, 3.658e-5
-1.615, 3.698e-5
-1.616, 3.740e-5
-1.617, 3.782e-5
-1.618, 3.824e-5
-1.619, 3.866e-5
-1.620, 3.910e-5
-1.621, 3.954e-5
-1.622, 4.001e-5
-1.623, 4.046e-5
-1.624, 4.093e-5
-1.625, 4.141e-5
-1.626, 4.189e-5
-1.627, 4.237e-5
-1.628, 4.287e-5
-1.629, 4.338e-5
-1.630, 4.387e-5
-1.631, 4.440e-5
-1.632, 4.493e-5
-1.633, 4.547e-5
-1.634, 4.601e-5
-1.635, 4.657e-5
-1.636, 4.714e-5
-1.637, 4.772e-5
-1.638, 4.831e-5
-1.639, 4.892e-5
-1.640, 4.952e-5
-1.641, 5.013e-5
-1.642, 5.074e-5
-1.643, 5.129e-5
-1.644, 5.191e-5
-1.645, 5.256e-5
-1.646, 5.315e-5
-1.647, 5.358e-5
-1.648, 5.422e-5
-1.649, 5.492e-5
-1.650, 5.563e-5
-1.651, 5.635e-5
-1.652, 5.707e-5
-1.653, 5.780e-5
-1.654, 5.854e-5
-1.655, 5.929e-5
-1.656, 6.005e-5
-1.657, 6.084e-5
-1.658, 6.163e-5
-1.659, 6.243e-5
-1.660, 6.326e-5
-1.661, 6.409e-5
-1.662, 6.493e-5
-1.663, 6.580e-5
-1.664, 6.668e-5
-1.665, 6.755e-5
-1.666, 6.844e-5
-1.667, 6.936e-5
-1.668, 7.028e-5
-1.669, 7.122e-5
-1.670, 7.217e-5
-1.671, 7.313e-5
-1.672, 7.411e-5
-1.673, 7.509e-5
-1.674, 7.608e-5
-1.675, 7.707e-5
-1.676, 7.807e-5
-1.677, 7.911e-5
-1.678, 8.017e-5
-1.679, 8.124e-5
-1.680, 8.232e-5
-1.681, 8.343e-5
-1.682, 8.455e-5
-1.683, 8.568e-5
-1.684, 8.684e-5
-1.685, 8.800e-5
-1.686, 8.919e-5
-1.687, 9.038e-5
-1.688, 9.158e-5
-1.689, 9.281e-5
-1.690, 9.407e-5
-1.691, 9.534e-5
-1.692, 9.661e-5
-1.693, 9.789e-5
-1.694, 9.919e-5
-1.695, 1.005e-4
-1.696, 1.018e-4
-1.697, 1.032e-4
-1.698, 1.045e-4
-1.699, 1.059e-4
-1.700, 1.072e-4
-1.701, 1.087e-4
-1.702, 1.101e-4
-1.703, 1.115e-4
-1.704, 1.130e-4
-1.705, 1.145e-4
-1.706, 1.160e-4
-1.707, 1.176e-4
-1.708, 1.191e-4
-1.709, 1.207e-4
-1.710, 1.223e-4
-1.711, 1.239e-4
-1.712, 1.255e-4
-1.713, 1.271e-4
-1.714, 1.288e-4
-1.715, 1.305e-4
-1.716, 1.322e-4
-1.717, 1.339e-4
-1.718, 1.356e-4
-1.719, 1.374e-4
-1.720, 1.392e-4
-1.721, 1.410e-4
-1.722, 1.428e-4
-1.723, 1.447e-4
-1.724, 1.465e-4
-1.725, 1.484e-4
-1.726, 1.503e-4
-1.727, 1.523e-4
-1.728, 1.542e-4
-1.729, 1.562e-4
-1.730, 1.582e-4
-1.731, 1.602e-4
-1.732, 1.623e-4
-1.733, 1.644e-4
-1.734, 1.665e-4
-1.735, 1.686e-4
-1.736, 1.707e-4
-1.737, 1.729e-4
-1.738, 1.752e-4
-1.739, 1.774e-4
-1.740, 1.797e-4
-1.741, 1.820e-4
-1.742, 1.843e-4
-1.743, 1.866e-4
-1.744, 1.891e-4
-1.745, 1.915e-4
-1.746, 1.939e-4
-1.747, 1.964e-4
-1.748, 1.989e-4
-1.749, 2.014e-4
-1.750, 2.040e-4
-1.751, 2.067e-4
-1.752, 2.093e-4
-1.753, 2.120e-4
-1.754, 2.148e-4
-1.755, 2.176e-4
-1.756, 2.204e-4
-1.757, 2.233e-4
-1.758, 2.263e-4
-1.759, 2.293e-4
-1.760, 2.323e-4
-1.761, 2.352e-4
-1.762, 2.384e-4
-1.763, 2.416e-4
-1.764, 2.449e-4
-1.765, 2.483e-4
-1.766, 2.517e-4
-1.767, 2.552e-4
-1.768, 2.588e-4
-1.769, 2.625e-4
-1.770, 2.662e-4
-1.771, 2.699e-4
-1.772, 2.737e-4
-1.773, 2.776e-4
-1.774, 2.815e-4
-1.775, 2.854e-4
-1.776, 2.895e-4
-1.777, 2.935e-4
-1.778, 2.976e-4
-1.779, 3.018e-4
-1.780, 3.061e-4
-1.781, 3.104e-4
-1.782, 3.148e-4
-1.783, 3.192e-4
-1.784, 3.237e-4
-1.785, 3.283e-4
-1.786, 3.329e-4
-1.787, 3.375e-4
-1.788, 3.422e-4
-1.789, 3.470e-4
-1.790, 3.518e-4
-1.791, 3.566e-4
-1.792, 3.615e-4
-1.793, 3.664e-4
-1.794, 3.713e-4
-1.795, 3.763e-4
-1.796, 3.813e-4
-1.797, 3.864e-4
-1.798, 3.915e-4
-1.799, 3.967e-4
-1.800, 4.018e-4
-1.801, 4.070e-4
-1.802, 4.122e-4
-1.803, 4.175e-4
-1.804, 4.227e-4
-1.805, 4.280e-4
-1.806, 4.333e-4
-1.807, 4.386e-4
-1.808, 4.441e-4
-1.809, 4.495e-4
-1.810, 4.548e-4
-1.811, 4.602e-4
-1.812, 4.657e-4
-1.813, 4.713e-4
-1.814, 4.769e-4
-1.815, 4.825e-4
-1.816, 4.882e-4
-1.817, 4.939e-4
-1.818, 4.995e-4
-1.819, 5.050e-4
-1.820, 5.106e-4
-1.821, 5.164e-4
-1.822, 5.222e-4
-1.823, 5.280e-4
-1.824, 5.338e-4
-1.825, 5.396e-4
-1.826, 5.456e-4
-1.827, 5.514e-4
-1.828, 5.573e-4
-1.829, 5.633e-4
-1.830, 5.694e-4
-1.831, 5.754e-4
-1.832, 5.814e-4
-1.833, 5.874e-4
-1.834, 5.931e-4
-1.835, 5.991e-4
-1.836, 6.053e-4
-1.837, 6.114e-4
-1.838, 6.176e-4
-1.839, 6.237e-4
-1.840, 6.299e-4
-1.841, 6.362e-4
-1.842, 6.424e-4
-1.843, 6.486e-4
-1.844, 6.548e-4
-1.845, 6.611e-4
-1.846, 6.674e-4
-1.847, 6.737e-4
-1.848, 6.801e-4
-1.849, 6.866e-4
-1.850, 6.931e-4
-1.851, 6.995e-4
-1.852, 7.059e-4
-1.853, 7.122e-4
-1.854, 7.186e-4
-1.855, 7.251e-4
-1.856, 7.316e-4
-1.857, 7.381e-4
-1.858, 7.447e-4
-1.859, 7.514e-4
-1.860, 7.580e-4
-1.861, 7.647e-4
-1.862, 7.713e-4
-1.863, 7.780e-4
-1.864, 7.847e-4
-1.865, 7.914e-4
-1.866, 7.982e-4
-1.867, 8.049e-4
-1.868, 8.118e-4
-1.869, 8.187e-4
-1.870, 8.256e-4
-1.871, 8.325e-4
-1.872, 8.394e-4
-1.873, 8.463e-4
-1.874, 8.531e-4
-1.875, 8.599e-4
-1.876, 8.669e-4
-1.877, 8.738e-4
-1.878, 8.808e-4
-1.879, 8.880e-4
-1.880, 8.950e-4
-1.881, 9.020e-4
-1.882, 9.092e-4
-1.883, 9.163e-4
-1.884, 9.234e-4
-1.885, 9.304e-4
-1.886, 9.375e-4
-1.887, 9.446e-4
-1.888, 9.519e-4
-1.889, 9.592e-4
-1.890, 9.665e-4
-1.891, 9.737e-4
-1.892, 9.809e-4
-1.893, 9.882e-4
-1.894, 9.955e-4
-1.895, 1.003e-3
-1.896, 1.010e-3
-1.897, 1.011e-3
-1.898, 1.011e-3
-1.899, 1.011e-3
-1.900, 1.011e-3
-1.901, 1.011e-3
-1.902, 1.011e-3
-1.903, 1.011e-3
-1.904, 1.011e-3
-1.905, 1.011e-3
-1.906, 1.011e-3
-1.907, 1.011e-3
-1.908, 1.011e-3
-1.909, 1.011e-3
-1.910, 1.011e-3
-1.911, 1.011e-3
-1.912, 1.011e-3
-1.913, 1.011e-3
-1.914, 1.011e-3
-1.915, 1.011e-3
-1.916, 1.011e-3
-1.917, 1.011e-3
-1.918, 1.011e-3
-1.919, 1.011e-3
-1.920, 1.011e-3
-1.921, 1.011e-3
-1.922, 1.011e-3
-1.923, 1.011e-3
-1.924, 1.011e-3
-1.925, 1.011e-3
-1.926, 1.011e-3
-1.927, 1.011e-3
-1.928, 1.011e-3
-1.929, 1.011e-3
-1.930, 1.011e-3
-1.931, 1.011e-3
-1.932, 1.011e-3
-1.933, 1.011e-3
-1.934, 1.011e-3
-1.935, 1.011e-3
-1.936, 1.011e-3
-1.937, 1.011e-3
-1.938, 1.011e-3
-1.939, 1.011e-3
-1.940, 1.011e-3
-1.941, 1.011e-3
-1.942, 1.011e-3
-1.943, 1.011e-3
-1.944, 1.011e-3
-1.945, 1.011e-3
-1.946, 1.011e-3
-1.947, 1.011e-3
-1.948, 1.011e-3
-1.949, 1.011e-3
-1.950, 1.011e-3
-1.951, 1.011e-3
-1.952, 1.011e-3
-1.953, 1.011e-3
-1.954, 1.011e-3
-1.955, 1.011e-3
-1.956, 1.011e-3
-1.957, 1.011e-3
-1.958, 1.011e-3
-1.959, 1.011e-3
-1.960, 1.011e-3
-1.961, 1.011e-3
-1.962, 1.011e-3
-1.963, 1.011e-3
-1.964, 1.011e-3
-1.965, 1.011e-3
-1.966, 1.011e-3
-1.967, 1.011e-3
-1.968, 1.011e-3
-1.969, 1.011e-3
-1.970, 1.011e-3
-1.971, 1.011e-3
-1.972, 1.011e-3
-1.973, 1.011e-3
-1.974, 1.011e-3
-1.975, 1.011e-3
-1.976, 1.011e-3
-1.977, 1.011e-3
-1.978, 1.011e-3
-1.979, 1.011e-3
-1.980, 1.011e-3
-1.981, 1.011e-3
-1.982, 1.011e-3
-1.983, 1.011e-3
-1.984, 1.011e-3
-1.985, 1.011e-3
-1.986, 1.011e-3
-1.987, 1.011e-3
-1.988, 1.011e-3
-1.989, 1.011e-3
-1.990, 1.011e-3
-1.991, 1.011e-3
-1.992, 1.011e-3
-1.993, 1.011e-3
-1.994, 1.011e-3
-1.995, 1.011e-3
-1.996, 1.011e-3
-1.997, 1.011e-3
-1.998, 1.011e-3
-1.999, 1.011e-3
-2.000, 1.011e-3
-2.001, 1.011e-3
-2.002, 1.011e-3
-2.003, 1.011e-3
-2.004, 1.011e-3
-2.005, 1.011e-3
-2.006, 1.011e-3
-2.007, 1.011e-3
-2.008, 1.011e-3
-2.009, 1.011e-3
-2.010, 1.011e-3
-2.011, 1.011e-3
-2.012, 1.011e-3
-2.013, 1.011e-3
-2.014, 1.011e-3
-2.015, 1.011e-3
-2.016, 1.011e-3
-2.017, 1.011e-3
-2.018, 1.011e-3
-2.019, 1.011e-3
-2.020, 1.011e-3
-2.021, 1.011e-3
-2.022, 1.011e-3
-2.023, 1.011e-3
-2.024, 1.011e-3
-2.025, 1.011e-3
-2.026, 1.011e-3
-2.027, 1.011e-3
-2.028, 1.011e-3
-2.029, 1.011e-3
-2.030, 1.011e-3
-2.031, 1.011e-3
-2.032, 1.011e-3
-2.033, 1.011e-3
-2.034, 1.011e-3
-2.035, 1.011e-3
-2.036, 1.011e-3
-2.037, 1.011e-3
-2.038, 1.011e-3
-2.039, 1.011e-3
-2.040, 1.011e-3
-2.041, 1.011e-3
-2.042, 1.011e-3
-2.043, 1.011e-3
-2.044, 1.011e-3
-2.045, 1.011e-3
-2.046, 1.011e-3
-2.047, 1.011e-3
-2.048, 1.011e-3
-2.049, 1.011e-3
-2.050, 1.011e-3
-2.051, 1.011e-3
-2.052, 1.011e-3
-2.053, 1.011e-3
-2.054, 1.011e-3
-2.055, 1.011e-3
-2.056, 1.011e-3
-2.057, 1.011e-3
-2.058, 1.011e-3
-2.059, 1.011e-3
-2.060, 1.011e-3
-2.061, 1.011e-3
-2.062, 1.011e-3
-2.063, 1.011e-3
-2.064, 1.011e-3
-2.065, 1.011e-3
-2.066, 1.011e-3
-2.067, 1.011e-3
-2.068, 1.011e-3
-2.069, 1.011e-3
-2.070, 1.011e-3
-2.071, 1.011e-3
-2.072, 1.011e-3
-2.073, 1.011e-3
-2.074, 1.011e-3
-2.075, 1.011e-3
-2.076, 1.011e-3
-2.077, 1.011e-3
-2.078, 1.011e-3
-2.079, 1.011e-3
-2.080, 1.011e-3
-2.081, 1.011e-3
-2.082, 1.011e-3
-2.083, 1.011e-3
-2.084, 1.011e-3
-2.085, 1.011e-3
-2.086, 1.011e-3
-2.087, 1.011e-3
-2.088, 1.011e-3
-2.089, 1.011e-3
-2.090, 1.011e-3
-2.091, 1.011e-3
-2.092, 1.011e-3
-2.093, 1.011e-3
-2.094, 1.011e-3
-2.095, 1.011e-3
-2.096, 1.011e-3
-2.097, 1.011e-3
-2.098, 1.011e-3
-2.099, 1.011e-3
-2.100, 1.011e-3
-2.101, 1.011e-3
-2.102, 1.011e-3
-2.103, 1.011e-3
-2.104, 1.011e-3
-2.105, 1.011e-3
-2.106, 1.011e-3
-2.107, 1.011e-3
-2.108, 1.011e-3
-2.109, 1.011e-3
-2.110, 1.011e-3
-2.111, 1.011e-3
-2.112, 1.011e-3
-2.113, 1.011e-3
-2.114, 1.011e-3
-2.115, 1.011e-3
-2.116, 1.011e-3
-2.117, 1.011e-3
-2.118, 1.011e-3
-2.119, 1.011e-3
-2.120, 1.011e-3
-2.121, 1.011e-3
-2.122, 1.011e-3
-2.123, 1.011e-3
-2.124, 1.011e-3
-2.125, 1.011e-3
-2.126, 1.011e-3
-2.127, 1.011e-3
-2.128, 1.011e-3
-2.129, 1.011e-3
-2.130, 1.011e-3
-2.131, 1.011e-3
-2.132, 1.011e-3
-2.133, 1.011e-3
-2.134, 1.011e-3
-2.135, 1.011e-3
-2.136, 1.011e-3
-2.137, 1.011e-3
-2.138, 1.011e-3
-2.139, 1.011e-3
-2.140, 1.011e-3
-2.141, 1.011e-3
-2.142, 1.011e-3
-2.143, 1.011e-3
-2.144, 1.011e-3
-2.145, 1.011e-3
-2.146, 1.011e-3
-2.147, 1.011e-3
-2.148, 1.011e-3
-2.149, 1.011e-3
-2.150, 1.011e-3
-2.151, 1.011e-3
-2.152, 1.011e-3
-2.153, 1.011e-3
-2.154, 1.011e-3
-2.155, 1.011e-3
-2.156, 1.011e-3
-2.157, 1.011e-3
-2.158, 1.011e-3
-2.159, 1.011e-3
-2.160, 1.011e-3
-2.161, 1.011e-3
-2.162, 1.011e-3
-2.163, 1.011e-3
-2.164, 1.011e-3
-2.165, 1.011e-3
-2.166, 1.011e-3
-2.167, 1.011e-3
-2.168, 1.011e-3
-2.169, 1.011e-3
-2.170, 1.011e-3
-2.171, 1.011e-3
-2.172, 1.011e-3
-2.173, 1.011e-3
-2.174, 1.011e-3
-2.175, 1.011e-3
-2.176, 1.011e-3
-2.177, 1.011e-3
-2.178, 1.011e-3
-2.179, 1.011e-3
-2.180, 1.011e-3
-2.181, 1.011e-3
-2.182, 1.011e-3
-2.183, 1.011e-3
-2.184, 1.011e-3
-2.185, 1.011e-3
-2.186, 1.011e-3
-2.187, 1.011e-3
-2.188, 1.011e-3
-2.189, 1.011e-3
-2.190, 1.011e-3
-2.191, 1.011e-3
-2.192, 1.011e-3
-2.193, 1.011e-3
-2.194, 1.011e-3
-2.195, 1.011e-3
-2.196, 1.011e-3
-2.197, 1.011e-3
-2.198, 1.011e-3
-2.199, 1.011e-3
-2.200, 1.011e-3
-2.201, 1.011e-3
-2.202, 1.011e-3
-2.203, 1.011e-3
-2.204, 1.011e-3
-2.205, 1.011e-3
-2.206, 1.011e-3
-2.207, 1.011e-3
-2.208, 1.011e-3
-2.209, 1.011e-3
-2.210, 1.011e-3
-2.211, 1.011e-3
-2.212, 1.011e-3
-2.213, 1.011e-3
-2.214, 1.011e-3
-2.215, 1.011e-3
-2.216, 1.011e-3
-2.217, 1.011e-3
-2.218, 1.011e-3
-2.219, 1.011e-3
-2.220, 1.011e-3
-2.221, 1.011e-3
-2.222, 1.011e-3
-2.223, 1.011e-3
-2.224, 1.011e-3
-2.225, 1.011e-3
-2.226, 1.011e-3
-2.227, 1.011e-3
-2.228, 1.011e-3
-2.229, 1.011e-3
-2.230, 1.011e-3
-2.231, 1.011e-3
-2.232, 1.011e-3
-2.233, 1.011e-3
-2.234, 1.011e-3
-2.235, 1.011e-3
-2.236, 1.011e-3
-2.237, 1.011e-3
-2.238, 1.011e-3
-2.239, 1.011e-3
-2.240, 1.011e-3
-2.241, 1.011e-3
-2.242, 1.011e-3
-2.243, 1.011e-3
-2.244, 1.011e-3
-2.245, 1.011e-3
-2.246, 1.011e-3
-2.247, 1.011e-3
-2.248, 1.011e-3
-2.249, 1.011e-3
-2.250, 1.011e-3
-2.251, 1.011e-3
-2.252, 1.011e-3
-2.253, 1.011e-3
-2.254, 1.011e-3
-2.255, 1.011e-3
-2.256, 1.011e-3
-2.257, 1.011e-3
-2.258, 1.011e-3
-2.259, 1.011e-3
-2.260, 1.011e-3
-2.261, 1.011e-3
-2.262, 1.011e-3
-2.263, 1.011e-3
-2.264, 1.011e-3
-2.265, 1.011e-3
-2.266, 1.011e-3
-2.267, 1.011e-3
-2.268, 1.011e-3
-2.269, 1.011e-3
-2.270, 1.011e-3
-2.271, 1.011e-3
-2.272, 1.011e-3
-2.273, 1.011e-3
-2.274, 1.011e-3
-2.275, 1.011e-3
-2.276, 1.011e-3
-2.277, 1.011e-3
-2.278, 1.011e-3
-2.279, 1.011e-3
-2.280, 1.011e-3
-2.281, 1.011e-3
-2.282, 1.011e-3
-2.283, 1.011e-3
-2.284, 1.011e-3
-2.285, 1.011e-3
-2.286, 1.011e-3
-2.287, 1.011e-3
-2.288, 1.011e-3
-2.289, 1.011e-3
-2.290, 1.011e-3
-2.291, 1.011e-3
-2.292, 1.011e-3
-2.293, 1.011e-3
-2.294, 1.011e-3
-2.295, 1.011e-3
-2.296, 1.011e-3
-2.297, 1.011e-3
-2.298, 1.011e-3
-2.299, 1.011e-3
