Apr. 6, 2025   09:51:01
Cyclic Voltammetry
File: c:/users/guazh/data/banditlqround7_x0exp994_r5/2025-03-28-exp998\exp998-2025-04-06t09_46_07-arkoh\exp998_cv_50mvs_efin_-1400mv.bin
Data Source:  Experiment
Instrument Model:  CHI760E
Header: CV ran at 50 mVs
Note: 

Init E (V) = -1
High E (V) = -1
Low E (V) = -1.4
Final E (V) = -1
Init P/N = N
Scan Rate (V/s) = 0.05
Segment = 7
Sample Interval (V) = 0.001
Quiet Time (sec) = 60
Sensitivity (A/V) = 0.001
Comp R (ohm) = 1.9

Results:

Channel 1:
Segment 1:

Segment 2:

Segment 3:

Segment 4:

Segment 5:

Segment 6:

Segment 7:

Potential/V, Current/A

-1.000, 3.787e-7
-1.001, 4.349e-7
-1.002, 4.507e-7
-1.003, 4.625e-7
-1.004, 4.684e-7
-1.005, 4.961e-7
-1.006, 5.247e-7
-1.007, 5.375e-7
-1.008, 5.464e-7
-1.009, 5.395e-7
-1.010, 5.474e-7
-1.011, 5.730e-7
-1.012, 5.947e-7
-1.013, 6.036e-7
-1.014, 6.154e-7
-1.015, 6.263e-7
-1.016, 6.391e-7
-1.017, 6.332e-7
-1.018, 6.569e-7
-1.019, 6.500e-7
-1.020, 6.707e-7
-1.021, 6.983e-7
-1.022, 6.973e-7
-1.023, 6.954e-7
-1.024, 7.131e-7
-1.025, 7.230e-7
-1.026, 7.388e-7
-1.027, 7.496e-7
-1.028, 7.575e-7
-1.029, 7.772e-7
-1.030, 7.674e-7
-1.031, 7.782e-7
-1.032, 7.654e-7
-1.033, 7.999e-7
-1.034, 8.019e-7
-1.035, 8.118e-7
-1.036, 8.325e-7
-1.037, 8.325e-7
-1.038, 8.443e-7
-1.039, 8.414e-7
-1.040, 8.562e-7
-1.041, 8.631e-7
-1.042, 8.552e-7
-1.043, 8.759e-7
-1.044, 8.927e-7
-1.045, 8.986e-7
-1.046, 9.183e-7
-1.047, 9.321e-7
-1.048, 9.035e-7
-1.049, 9.262e-7
-1.050, 9.410e-7
-1.051, 9.617e-7
-1.052, 9.736e-7
-1.053, 9.686e-7
-1.054, 9.755e-7
-1.055, 9.953e-7
-1.056, 1.009e-6
-1.057, 1.006e-6
-1.058, 1.014e-6
-1.059, 1.020e-6
-1.060, 1.034e-6
-1.061, 1.042e-6
-1.062, 1.038e-6
-1.063, 1.057e-6
-1.064, 1.069e-6
-1.065, 1.071e-6
-1.066, 1.095e-6
-1.067, 1.091e-6
-1.068, 1.110e-6
-1.069, 1.135e-6
-1.070, 1.129e-6
-1.071, 1.143e-6
-1.072, 1.152e-6
-1.073, 1.137e-6
-1.074, 1.150e-6
-1.075, 1.170e-6
-1.076, 1.191e-6
-1.077, 1.188e-6
-1.078, 1.185e-6
-1.079, 1.202e-6
-1.080, 1.210e-6
-1.081, 1.229e-6
-1.082, 1.236e-6
-1.083, 1.246e-6
-1.084, 1.252e-6
-1.085, 1.272e-6
-1.086, 1.288e-6
-1.087, 1.277e-6
-1.088, 1.301e-6
-1.089, 1.291e-6
-1.090, 1.310e-6
-1.091, 1.334e-6
-1.092, 1.326e-6
-1.093, 1.342e-6
-1.094, 1.341e-6
-1.095, 1.358e-6
-1.096, 1.400e-6
-1.097, 1.387e-6
-1.098, 1.393e-6
-1.099, 1.405e-6
-1.100, 1.406e-6
-1.101, 1.428e-6
-1.102, 1.436e-6
-1.103, 1.439e-6
-1.104, 1.443e-6
-1.105, 1.460e-6
-1.106, 1.480e-6
-1.107, 1.476e-6
-1.108, 1.499e-6
-1.109, 1.513e-6
-1.110, 1.511e-6
-1.111, 1.530e-6
-1.112, 1.540e-6
-1.113, 1.541e-6
-1.114, 1.568e-6
-1.115, 1.567e-6
-1.116, 1.584e-6
-1.117, 1.599e-6
-1.118, 1.608e-6
-1.119, 1.624e-6
-1.120, 1.627e-6
-1.121, 1.641e-6
-1.122, 1.652e-6
-1.123, 1.660e-6
-1.124, 1.680e-6
-1.125, 1.669e-6
-1.126, 1.701e-6
-1.127, 1.713e-6
-1.128, 1.705e-6
-1.129, 1.717e-6
-1.130, 1.728e-6
-1.131, 1.751e-6
-1.132, 1.776e-6
-1.133, 1.758e-6
-1.134, 1.787e-6
-1.135, 1.786e-6
-1.136, 1.788e-6
-1.137, 1.809e-6
-1.138, 1.814e-6
-1.139, 1.826e-6
-1.140, 1.842e-6
-1.141, 1.875e-6
-1.142, 1.873e-6
-1.143, 1.872e-6
-1.144, 1.887e-6
-1.145, 1.892e-6
-1.146, 1.912e-6
-1.147, 1.936e-6
-1.148, 1.924e-6
-1.149, 1.938e-6
-1.150, 1.925e-6
-1.151, 1.957e-6
-1.152, 1.970e-6
-1.153, 1.991e-6
-1.154, 1.997e-6
-1.155, 2.009e-6
-1.156, 2.016e-6
-1.157, 2.045e-6
-1.158, 2.048e-6
-1.159, 2.046e-6
-1.160, 2.054e-6
-1.161, 2.082e-6
-1.162, 2.078e-6
-1.163, 2.091e-6
-1.164, 2.102e-6
-1.165, 2.117e-6
-1.166, 2.122e-6
-1.167, 2.140e-6
-1.168, 2.147e-6
-1.169, 2.169e-6
-1.170, 2.184e-6
-1.171, 2.200e-6
-1.172, 2.183e-6
-1.173, 2.201e-6
-1.174, 2.211e-6
-1.175, 2.221e-6
-1.176, 2.224e-6
-1.177, 2.243e-6
-1.178, 2.270e-6
-1.179, 2.260e-6
-1.180, 2.270e-6
-1.181, 2.301e-6
-1.182, 2.294e-6
-1.183, 2.297e-6
-1.184, 2.315e-6
-1.185, 2.328e-6
-1.186, 2.360e-6
-1.187, 2.357e-6
-1.188, 2.365e-6
-1.189, 2.372e-6
-1.190, 2.375e-6
-1.191, 2.394e-6
-1.192, 2.404e-6
-1.193, 2.419e-6
-1.194, 2.411e-6
-1.195, 2.426e-6
-1.196, 2.446e-6
-1.197, 2.449e-6
-1.198, 2.465e-6
-1.199, 2.463e-6
-1.200, 2.482e-6
-1.201, 2.489e-6
-1.202, 2.514e-6
-1.203, 2.511e-6
-1.204, 2.516e-6
-1.205, 2.520e-6
-1.206, 2.547e-6
-1.207, 2.549e-6
-1.208, 2.556e-6
-1.209, 2.576e-6
-1.210, 2.583e-6
-1.211, 2.571e-6
-1.212, 2.598e-6
-1.213, 2.603e-6
-1.214, 2.620e-6
-1.215, 2.624e-6
-1.216, 2.633e-6
-1.217, 2.658e-6
-1.218, 2.654e-6
-1.219, 2.658e-6
-1.220, 2.658e-6
-1.221, 2.672e-6
-1.222, 2.688e-6
-1.223, 2.682e-6
-1.224, 2.699e-6
-1.225, 2.707e-6
-1.226, 2.695e-6
-1.227, 2.739e-6
-1.228, 2.719e-6
-1.229, 2.755e-6
-1.230, 2.761e-6
-1.231, 2.760e-6
-1.232, 2.780e-6
-1.233, 2.777e-6
-1.234, 2.791e-6
-1.235, 2.795e-6
-1.236, 2.803e-6
-1.237, 2.810e-6
-1.238, 2.816e-6
-1.239, 2.821e-6
-1.240, 2.836e-6
-1.241, 2.844e-6
-1.242, 2.856e-6
-1.243, 2.857e-6
-1.244, 2.860e-6
-1.245, 2.859e-6
-1.246, 2.860e-6
-1.247, 2.900e-6
-1.248, 2.887e-6
-1.249, 2.902e-6
-1.250, 2.908e-6
-1.251, 2.911e-6
-1.252, 2.929e-6
-1.253, 2.905e-6
-1.254, 2.928e-6
-1.255, 2.944e-6
-1.256, 2.950e-6
-1.257, 2.954e-6
-1.258, 2.955e-6
-1.259, 2.953e-6
-1.260, 2.966e-6
-1.261, 2.982e-6
-1.262, 2.993e-6
-1.263, 2.974e-6
-1.264, 2.999e-6
-1.265, 2.997e-6
-1.266, 3.009e-6
-1.267, 3.010e-6
-1.268, 3.033e-6
-1.269, 3.037e-6
-1.270, 3.013e-6
-1.271, 3.041e-6
-1.272, 3.058e-6
-1.273, 3.046e-6
-1.274, 3.052e-6
-1.275, 3.048e-6
-1.276, 3.064e-6
-1.277, 3.083e-6
-1.278, 3.082e-6
-1.279, 3.095e-6
-1.280, 3.093e-6
-1.281, 3.096e-6
-1.282, 3.113e-6
-1.283, 3.095e-6
-1.284, 3.112e-6
-1.285, 3.104e-6
-1.286, 3.144e-6
-1.287, 3.130e-6
-1.288, 3.132e-6
-1.289, 3.130e-6
-1.290, 3.130e-6
-1.291, 3.153e-6
-1.292, 3.155e-6
-1.293, 3.150e-6
-1.294, 3.164e-6
-1.295, 3.171e-6
-1.296, 3.171e-6
-1.297, 3.166e-6
-1.298, 3.164e-6
-1.299, 3.183e-6
-1.300, 3.174e-6
-1.301, 3.195e-6
-1.302, 3.209e-6
-1.303, 3.222e-6
-1.304, 3.194e-6
-1.305, 3.211e-6
-1.306, 3.213e-6
-1.307, 3.249e-6
-1.308, 3.231e-6
-1.309, 3.244e-6
-1.310, 3.231e-6
-1.311, 3.235e-6
-1.312, 3.252e-6
-1.313, 3.249e-6
-1.314, 3.259e-6
-1.315, 3.261e-6
-1.316, 3.246e-6
-1.317, 3.288e-6
-1.318, 3.282e-6
-1.319, 3.293e-6
-1.320, 3.268e-6
-1.321, 3.286e-6
-1.322, 3.315e-6
-1.323, 3.305e-6
-1.324, 3.303e-6
-1.325, 3.310e-6
-1.326, 3.315e-6
-1.327, 3.318e-6
-1.328, 3.335e-6
-1.329, 3.326e-6
-1.330, 3.322e-6
-1.331, 3.347e-6
-1.332, 3.359e-6
-1.333, 3.345e-6
-1.334, 3.353e-6
-1.335, 3.365e-6
-1.336, 3.364e-6
-1.337, 3.375e-6
-1.338, 3.373e-6
-1.339, 3.383e-6
-1.340, 3.390e-6
-1.341, 3.381e-6
-1.342, 3.393e-6
-1.343, 3.403e-6
-1.344, 3.408e-6
-1.345, 3.400e-6
-1.346, 3.419e-6
-1.347, 3.419e-6
-1.348, 3.431e-6
-1.349, 3.429e-6
-1.350, 3.413e-6
-1.351, 3.432e-6
-1.352, 3.451e-6
-1.353, 3.443e-6
-1.354, 3.462e-6
-1.355, 3.456e-6
-1.356, 3.461e-6
-1.357, 3.485e-6
-1.358, 3.476e-6
-1.359, 3.476e-6
-1.360, 3.482e-6
-1.361, 3.490e-6
-1.362, 3.503e-6
-1.363, 3.481e-6
-1.364, 3.500e-6
-1.365, 3.492e-6
-1.366, 3.514e-6
-1.367, 3.528e-6
-1.368, 3.531e-6
-1.369, 3.541e-6
-1.370, 3.541e-6
-1.371, 3.553e-6
-1.372, 3.568e-6
-1.373, 3.542e-6
-1.374, 3.551e-6
-1.375, 3.556e-6
-1.376, 3.569e-6
-1.377, 3.580e-6
-1.378, 3.576e-6
-1.379, 3.589e-6
-1.380, 3.577e-6
-1.381, 3.593e-6
-1.382, 3.626e-6
-1.383, 3.612e-6
-1.384, 3.618e-6
-1.385, 3.612e-6
-1.386, 3.628e-6
-1.387, 3.630e-6
-1.388, 3.636e-6
-1.389, 3.629e-6
-1.390, 3.651e-6
-1.391, 3.655e-6
-1.392, 3.671e-6
-1.393, 3.645e-6
-1.394, 3.655e-6
-1.395, 3.659e-6
-1.396, 3.695e-6
-1.397, 3.717e-6
-1.398, 3.698e-6
-1.399, 3.699e-6
-1.400, 3.468e-6
-1.399, 3.308e-6
-1.398, 3.187e-6
-1.397, 3.112e-6
-1.396, 3.014e-6
-1.395, 2.962e-6
-1.394, 2.892e-6
-1.393, 2.860e-6
-1.392, 2.788e-6
-1.391, 2.737e-6
-1.390, 2.692e-6
-1.389, 2.669e-6
-1.388, 2.603e-6
-1.387, 2.587e-6
-1.386, 2.558e-6
-1.385, 2.514e-6
-1.384, 2.469e-6
-1.383, 2.451e-6
-1.382, 2.397e-6
-1.381, 2.373e-6
-1.380, 2.343e-6
-1.379, 2.304e-6
-1.378, 2.291e-6
-1.377, 2.271e-6
-1.376, 2.228e-6
-1.375, 2.204e-6
-1.374, 2.179e-6
-1.373, 2.146e-6
-1.372, 2.136e-6
-1.371, 2.097e-6
-1.370, 2.082e-6
-1.369, 2.070e-6
-1.368, 2.053e-6
-1.367, 2.012e-6
-1.366, 1.971e-6
-1.365, 1.960e-6
-1.364, 1.948e-6
-1.363, 1.952e-6
-1.362, 1.911e-6
-1.361, 1.913e-6
-1.360, 1.875e-6
-1.359, 1.845e-6
-1.358, 1.844e-6
-1.357, 1.812e-6
-1.356, 1.802e-6
-1.355, 1.760e-6
-1.354, 1.750e-6
-1.353, 1.764e-6
-1.352, 1.744e-6
-1.351, 1.709e-6
-1.350, 1.712e-6
-1.349, 1.683e-6
-1.348, 1.673e-6
-1.347, 1.650e-6
-1.346, 1.621e-6
-1.345, 1.606e-6
-1.344, 1.592e-6
-1.343, 1.601e-6
-1.342, 1.563e-6
-1.341, 1.540e-6
-1.340, 1.537e-6
-1.339, 1.530e-6
-1.338, 1.533e-6
-1.337, 1.512e-6
-1.336, 1.490e-6
-1.335, 1.472e-6
-1.334, 1.468e-6
-1.333, 1.449e-6
-1.332, 1.432e-6
-1.331, 1.413e-6
-1.330, 1.401e-6
-1.329, 1.397e-6
-1.328, 1.406e-6
-1.327, 1.370e-6
-1.326, 1.346e-6
-1.325, 1.327e-6
-1.324, 1.347e-6
-1.323, 1.327e-6
-1.322, 1.319e-6
-1.321, 1.297e-6
-1.320, 1.287e-6
-1.319, 1.260e-6
-1.318, 1.256e-6
-1.317, 1.248e-6
-1.316, 1.226e-6
-1.315, 1.255e-6
-1.314, 1.209e-6
-1.313, 1.226e-6
-1.312, 1.205e-6
-1.311, 1.169e-6
-1.310, 1.191e-6
-1.309, 1.156e-6
-1.308, 1.164e-6
-1.307, 1.150e-6
-1.306, 1.130e-6
-1.305, 1.126e-6
-1.304, 1.106e-6
-1.303, 1.097e-6
-1.302, 1.087e-6
-1.301, 1.068e-6
-1.300, 1.068e-6
-1.299, 1.050e-6
-1.298, 1.054e-6
-1.297, 1.035e-6
-1.296, 1.034e-6
-1.295, 1.026e-6
-1.294, 1.002e-6
-1.293, 1.007e-6
-1.292, 9.963e-7
-1.291, 9.785e-7
-1.290, 9.588e-7
-1.289, 9.538e-7
-1.288, 9.568e-7
-1.287, 9.686e-7
-1.286, 9.450e-7
-1.285, 9.292e-7
-1.284, 9.124e-7
-1.283, 9.134e-7
-1.282, 9.213e-7
-1.281, 8.858e-7
-1.280, 8.946e-7
-1.279, 8.512e-7
-1.278, 8.769e-7
-1.277, 8.611e-7
-1.276, 8.542e-7
-1.275, 8.305e-7
-1.274, 8.354e-7
-1.273, 8.463e-7
-1.272, 8.236e-7
-1.271, 8.098e-7
-1.270, 8.197e-7
-1.269, 7.772e-7
-1.268, 7.841e-7
-1.267, 7.861e-7
-1.266, 7.772e-7
-1.265, 7.674e-7
-1.264, 7.792e-7
-1.263, 7.476e-7
-1.262, 7.388e-7
-1.261, 7.388e-7
-1.260, 7.319e-7
-1.259, 7.092e-7
-1.258, 6.904e-7
-1.257, 7.052e-7
-1.256, 7.102e-7
-1.255, 6.924e-7
-1.254, 6.687e-7
-1.253, 6.894e-7
-1.252, 6.717e-7
-1.251, 6.460e-7
-1.250, 6.539e-7
-1.249, 6.588e-7
-1.248, 6.529e-7
-1.247, 6.352e-7
-1.246, 6.105e-7
-1.245, 6.085e-7
-1.244, 5.967e-7
-1.243, 6.046e-7
-1.242, 5.888e-7
-1.241, 5.799e-7
-1.240, 5.927e-7
-1.239, 5.720e-7
-1.238, 5.602e-7
-1.237, 5.691e-7
-1.236, 5.483e-7
-1.235, 5.483e-7
-1.234, 5.336e-7
-1.233, 5.296e-7
-1.232, 5.286e-7
-1.231, 5.188e-7
-1.230, 5.109e-7
-1.229, 4.783e-7
-1.228, 5.040e-7
-1.227, 4.773e-7
-1.226, 4.842e-7
-1.225, 4.517e-7
-1.224, 4.704e-7
-1.223, 4.793e-7
-1.222, 4.665e-7
-1.221, 4.408e-7
-1.220, 4.615e-7
-1.219, 4.418e-7
-1.218, 4.428e-7
-1.217, 4.191e-7
-1.216, 4.122e-7
-1.215, 4.073e-7
-1.214, 4.073e-7
-1.213, 3.935e-7
-1.212, 3.944e-7
-1.211, 4.083e-7
-1.210, 3.796e-7
-1.209, 3.816e-7
-1.208, 3.688e-7
-1.207, 3.658e-7
-1.206, 3.727e-7
-1.205, 3.530e-7
-1.204, 3.382e-7
-1.203, 3.244e-7
-1.202, 3.402e-7
-1.201, 3.313e-7
-1.200, 3.224e-7
-1.199, 3.106e-7
-1.198, 3.106e-7
-1.197, 3.135e-7
-1.196, 2.968e-7
-1.195, 3.017e-7
-1.194, 2.820e-7
-1.193, 2.869e-7
-1.192, 2.899e-7
-1.191, 2.859e-7
-1.190, 2.593e-7
-1.189, 2.376e-7
-1.188, 2.553e-7
-1.187, 2.484e-7
-1.186, 2.405e-7
-1.185, 2.465e-7
-1.184, 2.208e-7
-1.183, 2.613e-7
-1.182, 2.169e-7
-1.181, 2.366e-7
-1.180, 2.228e-7
-1.179, 2.208e-7
-1.178, 2.099e-7
-1.177, 1.951e-7
-1.176, 1.942e-7
-1.175, 1.932e-7
-1.174, 1.951e-7
-1.173, 1.725e-7
-1.172, 1.853e-7
-1.171, 1.803e-7
-1.170, 1.586e-7
-1.169, 1.389e-7
-1.168, 1.596e-7
-1.167, 1.626e-7
-1.166, 1.488e-7
-1.165, 1.409e-7
-1.164, 1.281e-7
-1.163, 1.310e-7
-1.162, 1.330e-7
-1.161, 1.261e-7
-1.160, 1.162e-7
-1.159, 1.182e-7
-1.158, 1.212e-7
-1.157, 1.054e-7
-1.156, 9.452e-8
-1.155, 8.564e-8
-1.154, 9.254e-8
-1.153, 9.452e-8
-1.152, 6.689e-8
-1.151, 7.972e-8
-1.150, 6.393e-8
-1.149, 5.012e-8
-1.148, 6.492e-8
-1.147, 4.124e-8
-1.146, 5.308e-8
-1.145, 4.617e-8
-1.144, 2.249e-8
-1.143, 4.124e-8
-1.142, 3.729e-8
-1.141, 2.348e-8
-1.140, 1.559e-8
-1.139, 1.559e-8
-1.138, 2.249e-8
-1.137, 2.447e-8
-1.136, -6.117e-9
-1.135, 7.893e-10
-1.134, -6.117e-9
-1.133, -5.130e-9
-1.132, -1.006e-8
-1.131, -1.894e-8
-1.130, -1.006e-8
-1.129, -2.980e-8
-1.128, -4.163e-8
-1.127, -4.065e-8
-1.126, -4.558e-8
-1.125, -4.065e-8
-1.124, -5.643e-8
-1.123, -5.446e-8
-1.122, -4.459e-8
-1.121, -5.545e-8
-1.120, -6.334e-8
-1.119, -8.899e-8
-1.118, -7.814e-8
-1.117, -8.011e-8
-1.116, -8.998e-8
-1.115, -8.899e-8
-1.114, -9.688e-8
-1.113, -1.038e-7
-1.112, -9.688e-8
-1.111, -8.504e-8
-1.110, -1.008e-7
-1.109, -1.137e-7
-1.108, -1.087e-7
-1.107, -1.344e-7
-1.106, -1.354e-7
-1.105, -1.304e-7
-1.104, -1.472e-7
-1.103, -1.423e-7
-1.102, -1.314e-7
-1.101, -1.551e-7
-1.100, -1.620e-7
-1.099, -1.630e-7
-1.098, -1.551e-7
-1.097, -1.659e-7
-1.096, -1.679e-7
-1.095, -1.768e-7
-1.094, -1.738e-7
-1.093, -1.867e-7
-1.092, -1.807e-7
-1.091, -1.906e-7
-1.090, -1.975e-7
-1.089, -2.044e-7
-1.088, -2.094e-7
-1.087, -2.192e-7
-1.086, -2.212e-7
-1.085, -2.232e-7
-1.084, -2.360e-7
-1.083, -2.360e-7
-1.082, -2.320e-7
-1.081, -2.478e-7
-1.080, -2.390e-7
-1.079, -2.528e-7
-1.078, -2.567e-7
-1.077, -2.291e-7
-1.076, -2.518e-7
-1.075, -2.784e-7
-1.074, -2.764e-7
-1.073, -2.735e-7
-1.072, -2.705e-7
-1.071, -2.932e-7
-1.070, -2.952e-7
-1.069, -2.863e-7
-1.068, -2.952e-7
-1.067, -2.853e-7
-1.066, -2.972e-7
-1.065, -2.912e-7
-1.064, -3.317e-7
-1.063, -3.080e-7
-1.062, -3.218e-7
-1.061, -3.396e-7
-1.060, -3.268e-7
-1.059, -3.317e-7
-1.058, -3.406e-7
-1.057, -3.416e-7
-1.056, -3.534e-7
-1.055, -3.465e-7
-1.054, -3.495e-7
-1.053, -3.623e-7
-1.052, -3.495e-7
-1.051, -3.741e-7
-1.050, -3.692e-7
-1.049, -3.731e-7
-1.048, -3.899e-7
-1.047, -3.741e-7
-1.046, -3.850e-7
-1.045, -4.037e-7
-1.044, -4.077e-7
-1.043, -4.077e-7
-1.042, -3.938e-7
-1.041, -4.057e-7
-1.040, -4.116e-7
-1.039, -4.077e-7
-1.038, -4.195e-7
-1.037, -4.313e-7
-1.036, -4.304e-7
-1.035, -4.432e-7
-1.034, -4.333e-7
-1.033, -4.373e-7
-1.032, -4.412e-7
-1.031, -4.511e-7
-1.030, -4.688e-7
-1.029, -4.600e-7
-1.028, -4.521e-7
-1.027, -4.580e-7
-1.026, -4.708e-7
-1.025, -4.678e-7
-1.024, -4.886e-7
-1.023, -4.984e-7
-1.022, -4.866e-7
-1.021, -4.965e-7
-1.020, -5.014e-7
-1.019, -5.014e-7
-1.018, -5.191e-7
-1.017, -5.152e-7
-1.016, -5.211e-7
-1.015, -5.122e-7
-1.014, -5.359e-7
-1.013, -5.300e-7
-1.012, -5.182e-7
-1.011, -5.448e-7
-1.010, -5.339e-7
-1.009, -5.606e-7
-1.008, -5.537e-7
-1.007, -5.487e-7
-1.006, -5.616e-7
-1.005, -5.655e-7
-1.004, -5.626e-7
-1.003, -5.675e-7
-1.002, -5.724e-7
-1.001, -5.744e-7
-1.000, -4.629e-7
-1.001, -3.840e-7
-1.002, -3.386e-7
-1.003, -2.893e-7
-1.004, -2.528e-7
-1.005, -2.281e-7
-1.006, -1.916e-7
-1.007, -1.669e-7
-1.008, -1.354e-7
-1.009, -1.225e-7
-1.010, -1.058e-7
-1.011, -7.715e-8
-1.012, -5.545e-8
-1.013, -2.881e-8
-1.014, -2.388e-8
-1.015, -1.105e-8
-1.016, 4.736e-9
-1.017, 3.729e-8
-1.018, 5.703e-8
-1.019, 6.985e-8
-1.020, 5.505e-8
-1.021, 7.873e-8
-1.022, 1.024e-7
-1.023, 1.212e-7
-1.024, 1.271e-7
-1.025, 1.409e-7
-1.026, 1.675e-7
-1.027, 1.764e-7
-1.028, 1.843e-7
-1.029, 2.149e-7
-1.030, 2.149e-7
-1.031, 2.238e-7
-1.032, 2.474e-7
-1.033, 2.593e-7
-1.034, 2.435e-7
-1.035, 2.662e-7
-1.036, 2.879e-7
-1.037, 2.879e-7
-1.038, 3.155e-7
-1.039, 3.214e-7
-1.040, 3.214e-7
-1.041, 3.234e-7
-1.042, 3.599e-7
-1.043, 3.865e-7
-1.044, 3.629e-7
-1.045, 3.688e-7
-1.046, 3.875e-7
-1.047, 4.004e-7
-1.048, 4.132e-7
-1.049, 4.319e-7
-1.050, 4.418e-7
-1.051, 4.438e-7
-1.052, 4.566e-7
-1.053, 4.793e-7
-1.054, 4.517e-7
-1.055, 4.734e-7
-1.056, 4.980e-7
-1.057, 4.882e-7
-1.058, 5.040e-7
-1.059, 5.227e-7
-1.060, 5.010e-7
-1.061, 5.168e-7
-1.062, 5.355e-7
-1.063, 5.424e-7
-1.064, 5.395e-7
-1.065, 5.691e-7
-1.066, 5.720e-7
-1.067, 5.701e-7
-1.068, 6.046e-7
-1.069, 6.066e-7
-1.070, 5.997e-7
-1.071, 6.263e-7
-1.072, 6.174e-7
-1.073, 6.391e-7
-1.074, 6.174e-7
-1.075, 6.549e-7
-1.076, 6.549e-7
-1.077, 6.766e-7
-1.078, 6.914e-7
-1.079, 6.628e-7
-1.080, 6.815e-7
-1.081, 6.875e-7
-1.082, 7.042e-7
-1.083, 7.180e-7
-1.084, 6.894e-7
-1.085, 7.240e-7
-1.086, 7.072e-7
-1.087, 7.348e-7
-1.088, 7.565e-7
-1.089, 7.555e-7
-1.090, 7.545e-7
-1.091, 7.822e-7
-1.092, 7.526e-7
-1.093, 7.792e-7
-1.094, 7.792e-7
-1.095, 7.841e-7
-1.096, 7.960e-7
-1.097, 7.999e-7
-1.098, 8.039e-7
-1.099, 8.187e-7
-1.100, 8.167e-7
-1.101, 8.236e-7
-1.102, 8.394e-7
-1.103, 8.562e-7
-1.104, 8.463e-7
-1.105, 8.611e-7
-1.106, 8.591e-7
-1.107, 8.690e-7
-1.108, 8.838e-7
-1.109, 8.946e-7
-1.110, 8.798e-7
-1.111, 8.946e-7
-1.112, 9.025e-7
-1.113, 9.262e-7
-1.114, 9.282e-7
-1.115, 9.242e-7
-1.116, 9.124e-7
-1.117, 9.440e-7
-1.118, 9.440e-7
-1.119, 9.529e-7
-1.120, 9.479e-7
-1.121, 9.499e-7
-1.122, 9.795e-7
-1.123, 9.894e-7
-1.124, 9.746e-7
-1.125, 9.785e-7
-1.126, 9.864e-7
-1.127, 9.913e-7
-1.128, 1.006e-6
-1.129, 1.007e-6
-1.130, 1.026e-6
-1.131, 1.009e-6
-1.132, 1.028e-6
-1.133, 1.042e-6
-1.134, 1.032e-6
-1.135, 1.040e-6
-1.136, 1.049e-6
-1.137, 1.070e-6
-1.138, 1.067e-6
-1.139, 1.071e-6
-1.140, 1.079e-6
-1.141, 1.084e-6
-1.142, 1.079e-6
-1.143, 1.112e-6
-1.144, 1.102e-6
-1.145, 1.106e-6
-1.146, 1.115e-6
-1.147, 1.109e-6
-1.148, 1.136e-6
-1.149, 1.129e-6
-1.150, 1.133e-6
-1.151, 1.136e-6
-1.152, 1.151e-6
-1.153, 1.162e-6
-1.154, 1.170e-6
-1.155, 1.157e-6
-1.156, 1.171e-6
-1.157, 1.171e-6
-1.158, 1.197e-6
-1.159, 1.190e-6
-1.160, 1.214e-6
-1.161, 1.205e-6
-1.162, 1.207e-6
-1.163, 1.220e-6
-1.164, 1.214e-6
-1.165, 1.231e-6
-1.166, 1.245e-6
-1.167, 1.233e-6
-1.168, 1.228e-6
-1.169, 1.248e-6
-1.170, 1.250e-6
-1.171, 1.267e-6
-1.172, 1.255e-6
-1.173, 1.271e-6
-1.174, 1.260e-6
-1.175, 1.264e-6
-1.176, 1.289e-6
-1.177, 1.292e-6
-1.178, 1.295e-6
-1.179, 1.299e-6
-1.180, 1.325e-6
-1.181, 1.305e-6
-1.182, 1.308e-6
-1.183, 1.325e-6
-1.184, 1.341e-6
-1.185, 1.339e-6
-1.186, 1.345e-6
-1.187, 1.353e-6
-1.188, 1.372e-6
-1.189, 1.356e-6
-1.190, 1.367e-6
-1.191, 1.372e-6
-1.192, 1.385e-6
-1.193, 1.379e-6
-1.194, 1.389e-6
-1.195, 1.387e-6
-1.196, 1.408e-6
-1.197, 1.404e-6
-1.198, 1.407e-6
-1.199, 1.410e-6
-1.200, 1.431e-6
-1.201, 1.432e-6
-1.202, 1.419e-6
-1.203, 1.447e-6
-1.204, 1.470e-6
-1.205, 1.436e-6
-1.206, 1.454e-6
-1.207, 1.484e-6
-1.208, 1.470e-6
-1.209, 1.463e-6
-1.210, 1.478e-6
-1.211, 1.465e-6
-1.212, 1.503e-6
-1.213, 1.505e-6
-1.214, 1.491e-6
-1.215, 1.496e-6
-1.216, 1.522e-6
-1.217, 1.540e-6
-1.218, 1.542e-6
-1.219, 1.534e-6
-1.220, 1.550e-6
-1.221, 1.545e-6
-1.222, 1.556e-6
-1.223, 1.559e-6
-1.224, 1.549e-6
-1.225, 1.566e-6
-1.226, 1.574e-6
-1.227, 1.578e-6
-1.228, 1.597e-6
-1.229, 1.596e-6
-1.230, 1.597e-6
-1.231, 1.601e-6
-1.232, 1.621e-6
-1.233, 1.626e-6
-1.234, 1.634e-6
-1.235, 1.641e-6
-1.236, 1.648e-6
-1.237, 1.639e-6
-1.238, 1.665e-6
-1.239, 1.652e-6
-1.240, 1.659e-6
-1.241, 1.657e-6
-1.242, 1.680e-6
-1.243, 1.685e-6
-1.244, 1.671e-6
-1.245, 1.673e-6
-1.246, 1.680e-6
-1.247, 1.701e-6
-1.248, 1.703e-6
-1.249, 1.702e-6
-1.250, 1.717e-6
-1.251, 1.727e-6
-1.252, 1.726e-6
-1.253, 1.751e-6
-1.254, 1.729e-6
-1.255, 1.739e-6
-1.256, 1.750e-6
-1.257, 1.744e-6
-1.258, 1.766e-6
-1.259, 1.766e-6
-1.260, 1.770e-6
-1.261, 1.787e-6
-1.262, 1.761e-6
-1.263, 1.811e-6
-1.264, 1.783e-6
-1.265, 1.797e-6
-1.266, 1.809e-6
-1.267, 1.814e-6
-1.268, 1.835e-6
-1.269, 1.851e-6
-1.270, 1.825e-6
-1.271, 1.820e-6
-1.272, 1.857e-6
-1.273, 1.856e-6
-1.274, 1.852e-6
-1.275, 1.862e-6
-1.276, 1.873e-6
-1.277, 1.889e-6
-1.278, 1.894e-6
-1.279, 1.881e-6
-1.280, 1.892e-6
-1.281, 1.905e-6
-1.282, 1.905e-6
-1.283, 1.910e-6
-1.284, 1.915e-6
-1.285, 1.928e-6
-1.286, 1.936e-6
-1.287, 1.953e-6
-1.288, 1.942e-6
-1.289, 1.956e-6
-1.290, 1.936e-6
-1.291, 1.962e-6
-1.292, 1.949e-6
-1.293, 1.983e-6
-1.294, 1.996e-6
-1.295, 1.982e-6
-1.296, 1.975e-6
-1.297, 2.000e-6
-1.298, 2.020e-6
-1.299, 2.018e-6
-1.300, 2.026e-6
-1.301, 2.021e-6
-1.302, 2.021e-6
-1.303, 2.049e-6
-1.304, 2.042e-6
-1.305, 2.048e-6
-1.306, 2.051e-6
-1.307, 2.083e-6
-1.308, 2.083e-6
-1.309, 2.086e-6
-1.310, 2.080e-6
-1.311, 2.063e-6
-1.312, 2.108e-6
-1.313, 2.106e-6
-1.314, 2.098e-6
-1.315, 2.104e-6
-1.316, 2.100e-6
-1.317, 2.102e-6
-1.318, 2.140e-6
-1.319, 2.144e-6
-1.320, 2.144e-6
-1.321, 2.165e-6
-1.322, 2.148e-6
-1.323, 2.168e-6
-1.324, 2.177e-6
-1.325, 2.178e-6
-1.326, 2.197e-6
-1.327, 2.201e-6
-1.328, 2.195e-6
-1.329, 2.200e-6
-1.330, 2.206e-6
-1.331, 2.221e-6
-1.332, 2.232e-6
-1.333, 2.242e-6
-1.334, 2.239e-6
-1.335, 2.242e-6
-1.336, 2.253e-6
-1.337, 2.255e-6
-1.338, 2.272e-6
-1.339, 2.280e-6
-1.340, 2.262e-6
-1.341, 2.282e-6
-1.342, 2.295e-6
-1.343, 2.320e-6
-1.344, 2.316e-6
-1.345, 2.311e-6
-1.346, 2.323e-6
-1.347, 2.344e-6
-1.348, 2.343e-6
-1.349, 2.358e-6
-1.350, 2.349e-6
-1.351, 2.362e-6
-1.352, 2.362e-6
-1.353, 2.392e-6
-1.354, 2.377e-6
-1.355, 2.388e-6
-1.356, 2.391e-6
-1.357, 2.411e-6
-1.358, 2.412e-6
-1.359, 2.450e-6
-1.360, 2.414e-6
-1.361, 2.432e-6
-1.362, 2.469e-6
-1.363, 2.453e-6
-1.364, 2.479e-6
-1.365, 2.481e-6
-1.366, 2.469e-6
-1.367, 2.483e-6
-1.368, 2.484e-6
-1.369, 2.524e-6
-1.370, 2.521e-6
-1.371, 2.534e-6
-1.372, 2.533e-6
-1.373, 2.566e-6
-1.374, 2.556e-6
-1.375, 2.562e-6
-1.376, 2.566e-6
-1.377, 2.599e-6
-1.378, 2.612e-6
-1.379, 2.604e-6
-1.380, 2.604e-6
-1.381, 2.617e-6
-1.382, 2.628e-6
-1.383, 2.615e-6
-1.384, 2.641e-6
-1.385, 2.669e-6
-1.386, 2.668e-6
-1.387, 2.689e-6
-1.388, 2.700e-6
-1.389, 2.707e-6
-1.390, 2.702e-6
-1.391, 2.710e-6
-1.392, 2.744e-6
-1.393, 2.741e-6
-1.394, 2.739e-6
-1.395, 2.746e-6
-1.396, 2.772e-6
-1.397, 2.778e-6
-1.398, 2.796e-6
-1.399, 2.798e-6
-1.400, 2.579e-6
-1.399, 2.425e-6
-1.398, 2.352e-6
-1.397, 2.278e-6
-1.396, 2.203e-6
-1.395, 2.168e-6
-1.394, 2.118e-6
-1.393, 2.079e-6
-1.392, 2.050e-6
-1.391, 2.000e-6
-1.390, 1.963e-6
-1.389, 1.952e-6
-1.388, 1.943e-6
-1.387, 1.879e-6
-1.386, 1.873e-6
-1.385, 1.825e-6
-1.384, 1.811e-6
-1.383, 1.785e-6
-1.382, 1.774e-6
-1.381, 1.745e-6
-1.380, 1.729e-6
-1.379, 1.686e-6
-1.378, 1.676e-6
-1.377, 1.676e-6
-1.376, 1.640e-6
-1.375, 1.620e-6
-1.374, 1.599e-6
-1.373, 1.585e-6
-1.372, 1.565e-6
-1.371, 1.540e-6
-1.370, 1.519e-6
-1.369, 1.518e-6
-1.368, 1.483e-6
-1.367, 1.488e-6
-1.366, 1.453e-6
-1.365, 1.463e-6
-1.364, 1.439e-6
-1.363, 1.408e-6
-1.362, 1.417e-6
-1.361, 1.387e-6
-1.360, 1.361e-6
-1.359, 1.365e-6
-1.358, 1.341e-6
-1.357, 1.346e-6
-1.356, 1.310e-6
-1.355, 1.279e-6
-1.354, 1.289e-6
-1.353, 1.288e-6
-1.352, 1.268e-6
-1.351, 1.243e-6
-1.350, 1.232e-6
-1.349, 1.208e-6
-1.348, 1.226e-6
-1.347, 1.197e-6
-1.346, 1.206e-6
-1.345, 1.190e-6
-1.344, 1.172e-6
-1.343, 1.150e-6
-1.342, 1.150e-6
-1.341, 1.139e-6
-1.340, 1.131e-6
-1.339, 1.125e-6
-1.338, 1.104e-6
-1.337, 1.096e-6
-1.336, 1.092e-6
-1.335, 1.077e-6
-1.334, 1.062e-6
-1.333, 1.053e-6
-1.332, 1.060e-6
-1.331, 1.036e-6
-1.330, 1.014e-6
-1.329, 1.021e-6
-1.328, 1.009e-6
-1.327, 1.010e-6
-1.326, 9.844e-7
-1.325, 9.706e-7
-1.324, 9.647e-7
-1.323, 9.588e-7
-1.322, 9.548e-7
-1.321, 9.469e-7
-1.320, 9.390e-7
-1.319, 9.144e-7
-1.318, 9.144e-7
-1.317, 8.986e-7
-1.316, 9.065e-7
-1.315, 8.789e-7
-1.314, 8.700e-7
-1.313, 8.720e-7
-1.312, 8.710e-7
-1.311, 8.453e-7
-1.310, 8.512e-7
-1.309, 8.206e-7
-1.308, 8.236e-7
-1.307, 8.473e-7
-1.306, 8.177e-7
-1.305, 7.911e-7
-1.304, 7.743e-7
-1.303, 7.989e-7
-1.302, 7.861e-7
-1.301, 7.565e-7
-1.300, 7.634e-7
-1.299, 7.417e-7
-1.298, 7.624e-7
-1.297, 7.457e-7
-1.296, 7.161e-7
-1.295, 7.250e-7
-1.294, 7.141e-7
-1.293, 7.111e-7
-1.292, 6.983e-7
-1.291, 7.003e-7
-1.290, 7.032e-7
-1.289, 6.529e-7
-1.288, 6.845e-7
-1.287, 6.756e-7
-1.286, 6.519e-7
-1.285, 6.510e-7
-1.284, 6.401e-7
-1.283, 6.401e-7
-1.282, 6.371e-7
-1.281, 6.342e-7
-1.280, 6.194e-7
-1.279, 6.204e-7
-1.278, 5.957e-7
-1.277, 6.164e-7
-1.276, 5.829e-7
-1.275, 5.750e-7
-1.274, 5.908e-7
-1.273, 5.691e-7
-1.272, 5.710e-7
-1.271, 5.671e-7
-1.270, 5.523e-7
-1.269, 5.355e-7
-1.268, 5.474e-7
-1.267, 5.217e-7
-1.266, 5.247e-7
-1.265, 5.079e-7
-1.264, 5.237e-7
-1.263, 5.089e-7
-1.262, 5.000e-7
-1.261, 4.911e-7
-1.260, 4.783e-7
-1.259, 4.714e-7
-1.258, 4.803e-7
-1.257, 4.753e-7
-1.256, 4.684e-7
-1.255, 4.517e-7
-1.254, 4.270e-7
-1.253, 4.339e-7
-1.252, 4.457e-7
-1.251, 4.290e-7
-1.250, 4.260e-7
-1.249, 4.132e-7
-1.248, 4.181e-7
-1.247, 4.073e-7
-1.246, 3.984e-7
-1.245, 3.944e-7
-1.244, 3.816e-7
-1.243, 3.806e-7
-1.242, 3.836e-7
-1.241, 3.589e-7
-1.240, 3.737e-7
-1.239, 3.500e-7
-1.238, 3.609e-7
-1.237, 3.481e-7
-1.236, 3.510e-7
-1.235, 3.510e-7
-1.234, 3.481e-7
-1.233, 3.293e-7
-1.232, 3.126e-7
-1.231, 3.116e-7
-1.230, 3.274e-7
-1.229, 2.958e-7
-1.228, 2.810e-7
-1.227, 2.908e-7
-1.226, 2.770e-7
-1.225, 2.830e-7
-1.224, 2.741e-7
-1.223, 2.642e-7
-1.222, 2.691e-7
-1.221, 2.494e-7
-1.220, 2.465e-7
-1.219, 2.445e-7
-1.218, 2.593e-7
-1.217, 2.603e-7
-1.216, 2.465e-7
-1.215, 2.169e-7
-1.214, 2.188e-7
-1.213, 2.208e-7
-1.212, 2.198e-7
-1.211, 2.109e-7
-1.210, 1.932e-7
-1.209, 1.853e-7
-1.208, 1.853e-7
-1.207, 1.991e-7
-1.206, 1.784e-7
-1.205, 1.843e-7
-1.204, 1.606e-7
-1.203, 1.448e-7
-1.202, 1.646e-7
-1.201, 1.537e-7
-1.200, 1.527e-7
-1.199, 1.360e-7
-1.198, 1.399e-7
-1.197, 1.389e-7
-1.196, 1.310e-7
-1.195, 1.271e-7
-1.194, 1.231e-7
-1.193, 1.212e-7
-1.192, 1.379e-7
-1.191, 1.162e-7
-1.190, 9.846e-8
-1.189, 9.057e-8
-1.188, 1.054e-7
-1.187, 1.093e-7
-1.186, 7.972e-8
-1.185, 8.268e-8
-1.184, 7.676e-8
-1.183, 8.662e-8
-1.182, 8.070e-8
-1.181, 6.788e-8
-1.180, 6.196e-8
-1.179, 5.604e-8
-1.178, 5.209e-8
-1.177, 4.913e-8
-1.176, 3.137e-8
-1.175, 3.631e-8
-1.174, 4.124e-8
-1.173, 4.815e-8
-1.172, 1.953e-8
-1.171, 1.953e-8
-1.170, 4.736e-9
-1.169, 3.749e-9
-1.168, 1.164e-8
-1.167, 4.736e-9
-1.166, -4.144e-9
-1.165, -3.157e-9
-1.164, -2.289e-8
-1.163, -1.184e-9
-1.162, -1.894e-8
-1.161, -1.401e-8
-1.160, -2.289e-8
-1.159, -3.374e-8
-1.158, -3.966e-8
-1.157, -2.289e-8
-1.156, -2.684e-8
-1.155, -3.670e-8
-1.154, -5.545e-8
-1.153, -4.361e-8
-1.152, -4.953e-8
-1.151, -5.841e-8
-1.150, -6.926e-8
-1.149, -8.208e-8
-1.148, -6.531e-8
-1.147, -7.912e-8
-1.146, -6.630e-8
-1.145, -8.702e-8
-1.144, -9.787e-8
-1.143, -9.294e-8
-1.142, -1.018e-7
-1.141, -1.008e-7
-1.140, -1.166e-7
-1.139, -1.363e-7
-1.138, -1.176e-7
-1.137, -1.156e-7
-1.136, -1.235e-7
-1.135, -1.403e-7
-1.134, -1.472e-7
-1.133, -1.363e-7
-1.132, -1.442e-7
-1.131, -1.511e-7
-1.130, -1.531e-7
-1.129, -1.482e-7
-1.128, -1.511e-7
-1.127, -1.571e-7
-1.126, -1.738e-7
-1.125, -1.699e-7
-1.124, -1.837e-7
-1.123, -1.788e-7
-1.122, -1.768e-7
-1.121, -1.995e-7
-1.120, -1.867e-7
-1.119, -2.054e-7
-1.118, -2.064e-7
-1.117, -1.896e-7
-1.116, -2.163e-7
-1.115, -2.044e-7
-1.114, -2.212e-7
-1.113, -2.242e-7
-1.112, -2.212e-7
-1.111, -2.251e-7
-1.110, -2.478e-7
-1.109, -2.330e-7
-1.108, -2.380e-7
-1.107, -2.242e-7
-1.106, -2.291e-7
-1.105, -2.439e-7
-1.104, -2.705e-7
-1.103, -2.626e-7
-1.102, -2.498e-7
-1.101, -2.745e-7
-1.100, -2.853e-7
-1.099, -2.834e-7
-1.098, -2.814e-7
-1.097, -2.695e-7
-1.096, -2.962e-7
-1.095, -2.962e-7
-1.094, -2.853e-7
-1.093, -2.912e-7
-1.092, -2.893e-7
-1.091, -3.051e-7
-1.090, -2.952e-7
-1.089, -3.129e-7
-1.088, -3.139e-7
-1.087, -3.238e-7
-1.086, -3.287e-7
-1.085, -3.297e-7
-1.084, -3.287e-7
-1.083, -3.356e-7
-1.082, -3.258e-7
-1.081, -3.386e-7
-1.080, -3.495e-7
-1.079, -3.593e-7
-1.078, -3.485e-7
-1.077, -3.534e-7
-1.076, -3.564e-7
-1.075, -3.899e-7
-1.074, -3.751e-7
-1.073, -3.731e-7
-1.072, -3.771e-7
-1.071, -3.840e-7
-1.070, -3.860e-7
-1.069, -3.988e-7
-1.068, -4.136e-7
-1.067, -3.860e-7
-1.066, -4.146e-7
-1.065, -4.096e-7
-1.064, -4.106e-7
-1.063, -4.077e-7
-1.062, -4.096e-7
-1.061, -4.185e-7
-1.060, -4.343e-7
-1.059, -4.185e-7
-1.058, -4.373e-7
-1.057, -4.274e-7
-1.056, -4.461e-7
-1.055, -4.659e-7
-1.054, -4.619e-7
-1.053, -4.600e-7
-1.052, -4.600e-7
-1.051, -4.560e-7
-1.050, -4.728e-7
-1.049, -4.767e-7
-1.048, -4.915e-7
-1.047, -4.688e-7
-1.046, -4.767e-7
-1.045, -4.925e-7
-1.044, -5.122e-7
-1.043, -5.034e-7
-1.042, -4.886e-7
-1.041, -5.053e-7
-1.040, -5.043e-7
-1.039, -5.241e-7
-1.038, -5.300e-7
-1.037, -5.132e-7
-1.036, -5.478e-7
-1.035, -5.409e-7
-1.034, -5.330e-7
-1.033, -5.517e-7
-1.032, -5.399e-7
-1.031, -5.655e-7
-1.030, -5.438e-7
-1.029, -5.547e-7
-1.028, -5.438e-7
-1.027, -5.448e-7
-1.026, -5.724e-7
-1.025, -5.596e-7
-1.024, -5.941e-7
-1.023, -5.892e-7
-1.022, -5.774e-7
-1.021, -6.050e-7
-1.020, -6.040e-7
-1.019, -6.040e-7
-1.018, -6.208e-7
-1.017, -6.109e-7
-1.016, -6.099e-7
-1.015, -6.277e-7
-1.014, -6.208e-7
-1.013, -6.306e-7
-1.012, -6.375e-7
-1.011, -6.435e-7
-1.010, -6.415e-7
-1.009, -6.415e-7
-1.008, -6.385e-7
-1.007, -6.454e-7
-1.006, -6.642e-7
-1.005, -6.602e-7
-1.004, -6.661e-7
-1.003, -6.760e-7
-1.002, -6.504e-7
-1.001, -6.790e-7
-1.000, -5.626e-7
-1.001, -4.777e-7
-1.002, -4.234e-7
-1.003, -4.086e-7
-1.004, -3.455e-7
-1.005, -3.179e-7
-1.006, -2.972e-7
-1.007, -2.834e-7
-1.008, -2.271e-7
-1.009, -2.301e-7
-1.010, -2.024e-7
-1.011, -1.847e-7
-1.012, -1.620e-7
-1.013, -1.186e-7
-1.014, -1.127e-7
-1.015, -9.392e-8
-1.016, -8.603e-8
-1.017, -5.446e-8
-1.018, -3.571e-8
-1.019, -3.374e-8
-1.020, -2.684e-8
-1.021, -1.184e-9
-1.022, 1.756e-8
-1.023, 3.729e-8
-1.024, 5.604e-8
-1.025, 4.815e-8
-1.026, 7.873e-8
-1.027, 9.846e-8
-1.028, 1.192e-7
-1.029, 1.083e-7
-1.030, 1.212e-7
-1.031, 1.488e-7
-1.032, 1.567e-7
-1.033, 1.675e-7
-1.034, 1.794e-7
-1.035, 1.833e-7
-1.036, 2.070e-7
-1.037, 2.149e-7
-1.038, 2.307e-7
-1.039, 2.484e-7
-1.040, 2.494e-7
-1.041, 2.622e-7
-1.042, 2.691e-7
-1.043, 2.830e-7
-1.044, 2.879e-7
-1.045, 2.908e-7
-1.046, 3.037e-7
-1.047, 3.096e-7
-1.048, 3.283e-7
-1.049, 3.481e-7
-1.050, 3.422e-7
-1.051, 3.619e-7
-1.052, 3.589e-7
-1.053, 3.658e-7
-1.054, 3.727e-7
-1.055, 3.984e-7
-1.056, 3.895e-7
-1.057, 4.083e-7
-1.058, 4.359e-7
-1.059, 4.329e-7
-1.060, 4.290e-7
-1.061, 4.428e-7
-1.062, 4.418e-7
-1.063, 4.596e-7
-1.064, 4.822e-7
-1.065, 4.872e-7
-1.066, 4.813e-7
-1.067, 4.832e-7
-1.068, 4.931e-7
-1.069, 5.000e-7
-1.070, 5.227e-7
-1.071, 5.217e-7
-1.072, 5.247e-7
-1.073, 5.493e-7
-1.074, 5.493e-7
-1.075, 5.553e-7
-1.076, 5.622e-7
-1.077, 5.651e-7
-1.078, 5.937e-7
-1.079, 6.105e-7
-1.080, 5.849e-7
-1.081, 6.046e-7
-1.082, 6.085e-7
-1.083, 6.105e-7
-1.084, 6.184e-7
-1.085, 6.519e-7
-1.086, 6.362e-7
-1.087, 6.460e-7
-1.088, 6.510e-7
-1.089, 6.529e-7
-1.090, 6.480e-7
-1.091, 6.746e-7
-1.092, 6.825e-7
-1.093, 6.815e-7
-1.094, 6.954e-7
-1.095, 7.013e-7
-1.096, 7.131e-7
-1.097, 7.230e-7
-1.098, 7.279e-7
-1.099, 7.220e-7
-1.100, 7.230e-7
-1.101, 7.397e-7
-1.102, 7.575e-7
-1.103, 7.447e-7
-1.104, 7.684e-7
-1.105, 7.644e-7
-1.106, 7.693e-7
-1.107, 7.841e-7
-1.108, 7.792e-7
-1.109, 8.009e-7
-1.110, 7.871e-7
-1.111, 8.039e-7
-1.112, 8.167e-7
-1.113, 8.266e-7
-1.114, 8.187e-7
-1.115, 8.335e-7
-1.116, 8.364e-7
-1.117, 8.315e-7
-1.118, 8.443e-7
-1.119, 8.562e-7
-1.120, 8.720e-7
-1.121, 8.690e-7
-1.122, 8.650e-7
-1.123, 8.897e-7
-1.124, 8.956e-7
-1.125, 8.946e-7
-1.126, 8.917e-7
-1.127, 8.996e-7
-1.128, 9.114e-7
-1.129, 9.252e-7
-1.130, 9.193e-7
-1.131, 9.104e-7
-1.132, 9.390e-7
-1.133, 9.509e-7
-1.134, 9.558e-7
-1.135, 9.578e-7
-1.136, 9.410e-7
-1.137, 9.647e-7
-1.138, 9.647e-7
-1.139, 9.923e-7
-1.140, 9.795e-7
-1.141, 9.736e-7
-1.142, 9.894e-7
-1.143, 1.003e-6
-1.144, 1.003e-6
-1.145, 1.010e-6
-1.146, 1.019e-6
-1.147, 1.009e-6
-1.148, 1.038e-6
-1.149, 1.041e-6
-1.150, 1.035e-6
-1.151, 1.026e-6
-1.152, 1.059e-6
-1.153, 1.056e-6
-1.154, 1.066e-6
-1.155, 1.068e-6
-1.156, 1.068e-6
-1.157, 1.078e-6
-1.158, 1.092e-6
-1.159, 1.108e-6
-1.160, 1.099e-6
-1.161, 1.126e-6
-1.162, 1.088e-6
-1.163, 1.101e-6
-1.164, 1.115e-6
-1.165, 1.119e-6
-1.166, 1.134e-6
-1.167, 1.129e-6
-1.168, 1.159e-6
-1.169, 1.157e-6
-1.170, 1.148e-6
-1.171, 1.153e-6
-1.172, 1.155e-6
-1.173, 1.182e-6
-1.174, 1.178e-6
-1.175, 1.178e-6
-1.176, 1.200e-6
-1.177, 1.192e-6
-1.178, 1.203e-6
-1.179, 1.217e-6
-1.180, 1.206e-6
-1.181, 1.218e-6
-1.182, 1.218e-6
-1.183, 1.236e-6
-1.184, 1.248e-6
-1.185, 1.232e-6
-1.186, 1.242e-6
-1.187, 1.235e-6
-1.188, 1.249e-6
-1.189, 1.242e-6
-1.190, 1.272e-6
-1.191, 1.259e-6
-1.192, 1.281e-6
-1.193, 1.289e-6
-1.194, 1.287e-6
-1.195, 1.281e-6
-1.196, 1.295e-6
-1.197, 1.278e-6
-1.198, 1.309e-6
-1.199, 1.308e-6
-1.200, 1.323e-6
-1.201, 1.306e-6
-1.202, 1.343e-6
-1.203, 1.331e-6
-1.204, 1.357e-6
-1.205, 1.338e-6
-1.206, 1.342e-6
-1.207, 1.357e-6
-1.208, 1.344e-6
-1.209, 1.365e-6
-1.210, 1.378e-6
-1.211, 1.389e-6
-1.212, 1.357e-6
-1.213, 1.396e-6
-1.214, 1.404e-6
-1.215, 1.402e-6
-1.216, 1.395e-6
-1.217, 1.401e-6
-1.218, 1.404e-6
-1.219, 1.435e-6
-1.220, 1.431e-6
-1.221, 1.428e-6
-1.222, 1.426e-6
-1.223, 1.449e-6
-1.224, 1.458e-6
-1.225, 1.442e-6
-1.226, 1.466e-6
-1.227, 1.450e-6
-1.228, 1.467e-6
-1.229, 1.484e-6
-1.230, 1.479e-6
-1.231, 1.499e-6
-1.232, 1.499e-6
-1.233, 1.510e-6
-1.234, 1.525e-6
-1.235, 1.512e-6
-1.236, 1.517e-6
-1.237, 1.517e-6
-1.238, 1.530e-6
-1.239, 1.547e-6
-1.240, 1.540e-6
-1.241, 1.532e-6
-1.242, 1.565e-6
-1.243, 1.542e-6
-1.244, 1.562e-6
-1.245, 1.562e-6
-1.246, 1.578e-6
-1.247, 1.570e-6
-1.248, 1.580e-6
-1.249, 1.600e-6
-1.250, 1.593e-6
-1.251, 1.591e-6
-1.252, 1.590e-6
-1.253, 1.608e-6
-1.254, 1.618e-6
-1.255, 1.618e-6
-1.256, 1.611e-6
-1.257, 1.626e-6
-1.258, 1.628e-6
-1.259, 1.638e-6
-1.260, 1.662e-6
-1.261, 1.663e-6
-1.262, 1.662e-6
-1.263, 1.654e-6
-1.264, 1.671e-6
-1.265, 1.689e-6
-1.266, 1.680e-6
-1.267, 1.684e-6
-1.268, 1.685e-6
-1.269, 1.716e-6
-1.270, 1.714e-6
-1.271, 1.713e-6
-1.272, 1.716e-6
-1.273, 1.716e-6
-1.274, 1.748e-6
-1.275, 1.737e-6
-1.276, 1.738e-6
-1.277, 1.740e-6
-1.278, 1.734e-6
-1.279, 1.760e-6
-1.280, 1.762e-6
-1.281, 1.773e-6
-1.282, 1.778e-6
-1.283, 1.775e-6
-1.284, 1.807e-6
-1.285, 1.791e-6
-1.286, 1.808e-6
-1.287, 1.801e-6
-1.288, 1.819e-6
-1.289, 1.808e-6
-1.290, 1.810e-6
-1.291, 1.851e-6
-1.292, 1.816e-6
-1.293, 1.833e-6
-1.294, 1.850e-6
-1.295, 1.840e-6
-1.296, 1.840e-6
-1.297, 1.866e-6
-1.298, 1.867e-6
-1.299, 1.885e-6
-1.300, 1.872e-6
-1.301, 1.875e-6
-1.302, 1.874e-6
-1.303, 1.893e-6
-1.304, 1.899e-6
-1.305, 1.905e-6
-1.306, 1.914e-6
-1.307, 1.937e-6
-1.308, 1.940e-6
-1.309, 1.936e-6
-1.310, 1.933e-6
-1.311, 1.931e-6
-1.312, 1.954e-6
-1.313, 1.946e-6
-1.314, 1.975e-6
-1.315, 1.976e-6
-1.316, 1.975e-6
-1.317, 1.963e-6
-1.318, 1.977e-6
-1.319, 2.009e-6
-1.320, 2.016e-6
-1.321, 2.007e-6
-1.322, 2.026e-6
-1.323, 2.012e-6
-1.324, 2.018e-6
-1.325, 2.031e-6
-1.326, 2.037e-6
-1.327, 2.042e-6
-1.328, 2.054e-6
-1.329, 2.054e-6
-1.330, 2.073e-6
-1.331, 2.057e-6
-1.332, 2.077e-6
-1.333, 2.083e-6
-1.334, 2.113e-6
-1.335, 2.092e-6
-1.336, 2.083e-6
-1.337, 2.094e-6
-1.338, 2.110e-6
-1.339, 2.134e-6
-1.340, 2.128e-6
-1.341, 2.131e-6
-1.342, 2.141e-6
-1.343, 2.149e-6
-1.344, 2.169e-6
-1.345, 2.163e-6
-1.346, 2.183e-6
-1.347, 2.174e-6
-1.348, 2.176e-6
-1.349, 2.201e-6
-1.350, 2.190e-6
-1.351, 2.204e-6
-1.352, 2.230e-6
-1.353, 2.227e-6
-1.354, 2.223e-6
-1.355, 2.247e-6
-1.356, 2.231e-6
-1.357, 2.234e-6
-1.358, 2.237e-6
-1.359, 2.269e-6
-1.360, 2.266e-6
-1.361, 2.287e-6
-1.362, 2.264e-6
-1.363, 2.300e-6
-1.364, 2.315e-6
-1.365, 2.322e-6
-1.366, 2.319e-6
-1.367, 2.317e-6
-1.368, 2.329e-6
-1.369, 2.350e-6
-1.370, 2.348e-6
-1.371, 2.348e-6
-1.372, 2.365e-6
-1.373, 2.374e-6
-1.374, 2.357e-6
-1.375, 2.377e-6
-1.376, 2.386e-6
-1.377, 2.414e-6
-1.378, 2.394e-6
-1.379, 2.418e-6
-1.380, 2.419e-6
-1.381, 2.428e-6
-1.382, 2.454e-6
-1.383, 2.459e-6
-1.384, 2.479e-6
-1.385, 2.476e-6
-1.386, 2.489e-6
-1.387, 2.486e-6
-1.388, 2.508e-6
-1.389, 2.513e-6
-1.390, 2.519e-6
-1.391, 2.532e-6
-1.392, 2.550e-6
-1.393, 2.544e-6
-1.394, 2.546e-6
-1.395, 2.550e-6
-1.396, 2.583e-6
-1.397, 2.580e-6
-1.398, 2.577e-6
-1.399, 2.625e-6
-1.400, 2.408e-6
-1.399, 2.242e-6
-1.398, 2.154e-6
-1.397, 2.097e-6
-1.396, 2.052e-6
-1.395, 1.987e-6
-1.394, 1.933e-6
-1.393, 1.909e-6
-1.392, 1.862e-6
-1.391, 1.842e-6
-1.390, 1.816e-6
-1.389, 1.804e-6
-1.388, 1.773e-6
-1.387, 1.723e-6
-1.386, 1.719e-6
-1.385, 1.694e-6
-1.384, 1.656e-6
-1.383, 1.646e-6
-1.382, 1.608e-6
-1.381, 1.607e-6
-1.380, 1.578e-6
-1.379, 1.539e-6
-1.378, 1.542e-6
-1.377, 1.519e-6
-1.376, 1.498e-6
-1.375, 1.481e-6
-1.374, 1.466e-6
-1.373, 1.429e-6
-1.372, 1.441e-6
-1.371, 1.405e-6
-1.370, 1.387e-6
-1.369, 1.362e-6
-1.368, 1.355e-6
-1.367, 1.353e-6
-1.366, 1.334e-6
-1.365, 1.318e-6
-1.364, 1.306e-6
-1.363, 1.301e-6
-1.362, 1.275e-6
-1.361, 1.242e-6
-1.360, 1.270e-6
-1.359, 1.241e-6
-1.358, 1.244e-6
-1.357, 1.207e-6
-1.356, 1.201e-6
-1.355, 1.193e-6
-1.354, 1.164e-6
-1.353, 1.147e-6
-1.352, 1.136e-6
-1.351, 1.138e-6
-1.350, 1.120e-6
-1.349, 1.116e-6
-1.348, 1.097e-6
-1.347, 1.094e-6
-1.346, 1.092e-6
-1.345, 1.069e-6
-1.344, 1.062e-6
-1.343, 1.045e-6
-1.342, 1.043e-6
-1.341, 1.031e-6
-1.340, 1.018e-6
-1.339, 9.933e-7
-1.338, 1.002e-6
-1.337, 9.864e-7
-1.336, 9.973e-7
-1.335, 9.706e-7
-1.334, 9.627e-7
-1.333, 9.548e-7
-1.332, 9.677e-7
-1.331, 9.400e-7
-1.330, 9.292e-7
-1.329, 9.193e-7
-1.328, 8.946e-7
-1.327, 9.085e-7
-1.326, 8.966e-7
-1.325, 8.552e-7
-1.324, 8.641e-7
-1.323, 8.660e-7
-1.322, 8.572e-7
-1.321, 8.285e-7
-1.320, 8.424e-7
-1.319, 8.216e-7
-1.318, 8.147e-7
-1.317, 7.911e-7
-1.316, 8.019e-7
-1.315, 8.009e-7
-1.314, 7.753e-7
-1.313, 7.772e-7
-1.312, 7.723e-7
-1.311, 7.644e-7
-1.310, 7.545e-7
-1.309, 7.486e-7
-1.308, 7.348e-7
-1.307, 7.013e-7
-1.306, 7.062e-7
-1.305, 7.141e-7
-1.304, 6.993e-7
-1.303, 6.806e-7
-1.302, 6.815e-7
-1.301, 6.914e-7
-1.300, 6.865e-7
-1.299, 6.776e-7
-1.298, 6.549e-7
-1.297, 6.431e-7
-1.296, 6.440e-7
-1.295, 6.569e-7
-1.294, 6.411e-7
-1.293, 6.371e-7
-1.292, 6.095e-7
-1.291, 6.046e-7
-1.290, 6.095e-7
-1.289, 5.967e-7
-1.288, 5.839e-7
-1.287, 5.937e-7
-1.286, 5.720e-7
-1.285, 5.779e-7
-1.284, 5.651e-7
-1.283, 5.592e-7
-1.282, 5.572e-7
-1.281, 5.345e-7
-1.280, 5.336e-7
-1.279, 5.276e-7
-1.278, 5.336e-7
-1.277, 5.158e-7
-1.276, 5.020e-7
-1.275, 5.040e-7
-1.274, 4.921e-7
-1.273, 4.684e-7
-1.272, 4.882e-7
-1.271, 4.803e-7
-1.270, 4.684e-7
-1.269, 4.724e-7
-1.268, 4.556e-7
-1.267, 4.596e-7
-1.266, 4.428e-7
-1.265, 4.566e-7
-1.264, 4.517e-7
-1.263, 4.359e-7
-1.262, 4.201e-7
-1.261, 4.191e-7
-1.260, 4.043e-7
-1.259, 4.181e-7
-1.258, 3.915e-7
-1.257, 3.905e-7
-1.256, 3.836e-7
-1.255, 3.737e-7
-1.254, 3.708e-7
-1.253, 3.629e-7
-1.252, 3.639e-7
-1.251, 3.560e-7
-1.250, 3.688e-7
-1.249, 3.461e-7
-1.248, 3.293e-7
-1.247, 3.323e-7
-1.246, 3.096e-7
-1.245, 3.589e-7
-1.244, 3.372e-7
-1.243, 3.283e-7
-1.242, 3.135e-7
-1.241, 2.899e-7
-1.240, 3.234e-7
-1.239, 3.007e-7
-1.238, 2.968e-7
-1.237, 2.790e-7
-1.236, 2.849e-7
-1.235, 2.741e-7
-1.234, 2.563e-7
-1.233, 2.691e-7
-1.232, 2.474e-7
-1.231, 2.563e-7
-1.230, 2.573e-7
-1.229, 2.415e-7
-1.228, 2.198e-7
-1.227, 2.267e-7
-1.226, 2.307e-7
-1.225, 2.169e-7
-1.224, 2.238e-7
-1.223, 2.021e-7
-1.222, 2.070e-7
-1.221, 2.109e-7
-1.220, 1.971e-7
-1.219, 2.011e-7
-1.218, 1.803e-7
-1.217, 1.764e-7
-1.216, 1.922e-7
-1.215, 1.882e-7
-1.214, 1.813e-7
-1.213, 1.665e-7
-1.212, 1.616e-7
-1.211, 1.468e-7
-1.210, 1.685e-7
-1.209, 1.557e-7
-1.208, 1.202e-7
-1.207, 1.360e-7
-1.206, 1.231e-7
-1.205, 1.379e-7
-1.204, 1.251e-7
-1.203, 9.748e-8
-1.202, 1.202e-7
-1.201, 1.044e-7
-1.200, 1.113e-7
-1.199, 1.073e-7
-1.198, 9.649e-8
-1.197, 8.958e-8
-1.196, 7.281e-8
-1.195, 7.972e-8
-1.194, 7.182e-8
-1.193, 7.774e-8
-1.192, 7.084e-8
-1.191, 6.689e-8
-1.190, 5.604e-8
-1.189, 4.519e-8
-1.188, 5.703e-8
-1.187, 4.913e-8
-1.186, 3.236e-8
-1.185, 4.223e-8
-1.184, 3.335e-8
-1.183, 1.855e-8
-1.182, 2.545e-8
-1.181, 1.460e-8
-1.180, 4.736e-9
-1.179, 8.682e-9
-1.178, 4.736e-9
-1.177, -5.130e-9
-1.176, -1.796e-8
-1.175, -7.103e-9
-1.174, -2.980e-8
-1.173, -8.090e-9
-1.172, -1.697e-8
-1.171, -3.670e-8
-1.170, -2.980e-8
-1.169, -2.684e-8
-1.168, -5.051e-8
-1.167, -3.078e-8
-1.166, -4.755e-8
-1.165, -3.078e-8
-1.164, -7.419e-8
-1.163, -5.939e-8
-1.162, -7.222e-8
-1.161, -8.899e-8
-1.160, -6.827e-8
-1.159, -6.926e-8
-1.158, -9.392e-8
-1.157, -8.110e-8
-1.156, -9.984e-8
-1.155, -7.123e-8
-1.154, -9.688e-8
-1.153, -9.491e-8
-1.152, -1.087e-7
-1.151, -1.146e-7
-1.150, -1.087e-7
-1.149, -1.206e-7
-1.148, -1.265e-7
-1.147, -1.225e-7
-1.146, -1.383e-7
-1.145, -1.403e-7
-1.144, -1.363e-7
-1.143, -1.531e-7
-1.142, -1.590e-7
-1.141, -1.502e-7
-1.140, -1.502e-7
-1.139, -1.462e-7
-1.138, -1.610e-7
-1.137, -1.610e-7
-1.136, -1.788e-7
-1.135, -1.610e-7
-1.134, -1.877e-7
-1.133, -1.719e-7
-1.132, -1.975e-7
-1.131, -1.985e-7
-1.130, -1.748e-7
-1.129, -1.906e-7
-1.128, -1.886e-7
-1.127, -2.113e-7
-1.126, -2.172e-7
-1.125, -2.103e-7
-1.124, -2.044e-7
-1.123, -2.340e-7
-1.122, -2.251e-7
-1.121, -2.301e-7
-1.120, -2.232e-7
-1.119, -2.370e-7
-1.118, -2.538e-7
-1.117, -2.626e-7
-1.116, -2.449e-7
-1.115, -2.409e-7
-1.114, -2.498e-7
-1.113, -2.508e-7
-1.112, -2.834e-7
-1.111, -2.735e-7
-1.110, -2.686e-7
-1.109, -2.814e-7
-1.108, -3.021e-7
-1.107, -2.962e-7
-1.106, -2.952e-7
-1.105, -2.863e-7
-1.104, -2.942e-7
-1.103, -3.090e-7
-1.102, -3.001e-7
-1.101, -3.129e-7
-1.100, -3.179e-7
-1.099, -3.159e-7
-1.098, -3.337e-7
-1.097, -3.297e-7
-1.096, -3.218e-7
-1.095, -3.356e-7
-1.094, -3.337e-7
-1.093, -3.337e-7
-1.092, -3.495e-7
-1.091, -3.386e-7
-1.090, -3.485e-7
-1.089, -3.445e-7
-1.088, -3.741e-7
-1.087, -3.623e-7
-1.086, -3.682e-7
-1.085, -3.662e-7
-1.084, -3.682e-7
-1.083, -3.790e-7
-1.082, -3.909e-7
-1.081, -3.781e-7
-1.080, -3.850e-7
-1.079, -3.978e-7
-1.078, -3.850e-7
-1.077, -3.840e-7
-1.076, -4.067e-7
-1.075, -4.165e-7
-1.074, -4.195e-7
-1.073, -4.165e-7
-1.072, -4.294e-7
-1.071, -4.294e-7
-1.070, -4.146e-7
-1.069, -4.432e-7
-1.068, -4.481e-7
-1.067, -4.600e-7
-1.066, -4.461e-7
-1.065, -4.550e-7
-1.064, -4.392e-7
-1.063, -4.550e-7
-1.062, -4.659e-7
-1.061, -4.688e-7
-1.060, -4.688e-7
-1.059, -4.777e-7
-1.058, -4.738e-7
-1.057, -4.826e-7
-1.056, -4.718e-7
-1.055, -4.925e-7
-1.054, -4.876e-7
-1.053, -4.955e-7
-1.052, -5.122e-7
-1.051, -5.152e-7
-1.050, -5.290e-7
-1.049, -5.270e-7
-1.048, -5.113e-7
-1.047, -5.211e-7
-1.046, -5.389e-7
-1.045, -5.290e-7
-1.044, -5.142e-7
-1.043, -5.379e-7
-1.042, -5.389e-7
-1.041, -5.635e-7
-1.040, -5.537e-7
-1.039, -5.428e-7
-1.038, -5.507e-7
-1.037, -5.882e-7
-1.036, -5.754e-7
-1.035, -5.764e-7
-1.034, -5.714e-7
-1.033, -5.872e-7
-1.032, -5.774e-7
-1.031, -5.862e-7
-1.030, -6.000e-7
-1.029, -6.020e-7
-1.028, -6.060e-7
-1.027, -6.089e-7
-1.026, -6.079e-7
-1.025, -6.168e-7
-1.024, -6.346e-7
-1.023, -6.435e-7
-1.022, -6.444e-7
-1.021, -6.405e-7
-1.020, -6.454e-7
-1.019, -6.425e-7
-1.018, -6.543e-7
-1.017, -6.612e-7
-1.016, -6.652e-7
-1.015, -6.454e-7
-1.014, -6.652e-7
-1.013, -6.859e-7
-1.012, -6.711e-7
-1.011, -7.017e-7
-1.010, -6.839e-7
-1.009, -6.977e-7
-1.008, -6.918e-7
-1.007, -7.007e-7
-1.006, -7.056e-7
-1.005, -7.175e-7
-1.004, -7.145e-7
-1.003, -7.184e-7
-1.002, -7.313e-7
-1.001, -7.382e-7
