Potential V vs RHE, Current mA cm-2
0.013299999999999867,40.02218267318189
0.012299999999999978,38.43770601733305
0.011299999999999866,37.206907186450465
0.010299999999999976,36.10343237255574
0.009299999999999864,34.7453095246853
0.008299999999999974,33.51451069380272
0.007299999999999862,32.56665412289314
0.006299999999999972,31.392443744005163
0.00529999999999986,30.189939139119886
0.0042999999999999705,29.29867102020491
0.0032999999999998586,28.336667336296685
0.0022999999999999687,27.162456957408708
0.0012999999999998568,26.22874749949778
0.00029999999999996696,25.40821494557606
-0.000700000000000145,24.304740131681328
-0.0017000000000000348,23.300295108777156
-0.0027000000000001467,22.550498119848687
-0.0037000000000000366,21.54605309694451
-0.0047000000000001485,20.48501962204573
-0.005700000000000038,19.749369746115914
-0.00670000000000015,18.900542966196888
-0.00770000000000004,17.839509491298113
-0.008700000000000152,17.03312405037504
-0.009700000000000042,16.325768400442524
-0.010700000000000154,15.307176264539699
-0.011700000000000044,14.415908145624723
-0.012700000000000156,13.77787334938559
-0.013700000000000045,12.885190519170754
-0.014700000000000157,11.93167510306172
-0.015700000000000047,11.287981461623128
-0.01670000000000016,10.526866782295738
-0.01770000000000005,9.540813006289808
-0.01870000000000016,8.83911620155675
-0.01970000000000005,8.199666694017752
-0.020700000000000163,7.280104349105479
-0.021700000000000053,6.480792464681733
-0.022700000000000164,5.916322656035583
-0.023700000000000054,5.102863658613187
-0.024700000000000166,4.231401497896325
-0.025700000000000056,3.6541992875513896
-0.026700000000000168,2.9624054619173865
-0.027700000000000058,2.048501962204573
-0.02870000000000017,1.4099012814454956
-0.02970000000000006,0.8297281773708441
-0.03070000000000017,-0.04868021582835592
-0.03170000000000006,-0.7848818291651223
-0.03270000000000017,-1.2982805598861442
-0.03370000000000006,-2.081040322101469
-0.034700000000000175,-2.900158164723325
-0.035700000000000065,-3.4335043247724437
-0.03670000000000018,-4.070124409711711
-0.03770000000000007,-4.938757147828842
-0.03870000000000018,-5.525862337272833
-0.03970000000000007,-6.049305518222896
-0.04070000000000018,-6.886814607742999
-0.04170000000000007,-7.592755546375652
-0.04270000000000018,-8.063854409230709
-0.04370000000000007,-8.803748419060124
-0.044700000000000184,-9.586083767885489
-0.045700000000000074,-10.065670898539736
-0.046700000000000186,-10.678240891381297
-0.047700000000000076,-11.51009113570194
-0.04870000000000019,-12.078805078247685
-0.04970000000000008,-12.573954033200446
-0.05070000000000019,-13.369021783724596
-0.05170000000000008,-14.041009651160486
-0.05270000000000019,-14.472496597619326
-0.05370000000000008,-15.179852247551842
-0.05470000000000019,-15.943796349478962
-0.05570000000000008,-16.396503965435777
-0.056700000000000195,-16.962388485381787
-0.057700000000000085,-17.76877392630486
-0.058700000000000196,-18.292217107254928
-0.059700000000000086,-18.77321894920904
-0.0607000000000002,-19.565457277133458
-0.06170000000000009,-20.21622447507137
-0.0627000000000002,-20.640637865030882
-0.06370000000000009,-21.319699288966106
-0.0647000000000002,-22.069496277894572
-0.06570000000000009,-22.508056780852733
-0.0667000000000002,-23.073941300798747
-0.0677000000000001,-23.86617962872317
-0.0687000000000002,-24.389622809673234
-0.0697000000000001,-24.856477538628695
-0.07070000000000021,-25.620421640555815
-0.0717000000000001,-26.242894612496432
-0.07270000000000021,-26.63901377645864
-0.0737000000000001,-27.34636942639116
-0.07470000000000021,-28.082019302320973
-0.0757000000000001,-28.49228557928184
-0.07670000000000021,-29.058170099227848
-0.0777000000000001,-29.836261314153624
-0.07870000000000021,-30.345557382105042
-0.0797000000000001,-30.812412111060496
-0.08070000000000022,-31.590503325986273
-0.0817000000000001,-32.22712341092554
-0.08270000000000022,-32.6090954618891
-0.08370000000000011,-33.302303998822964
-0.08470000000000022,-34.03795387475279
-0.08570000000000011,-34.44822015171364
-0.08670000000000022,-35.014104671659666
-0.08770000000000011,-35.778048773586775
-0.08870000000000022,-36.30149195453684
-0.08970000000000011,-36.768346683492304
-0.09070000000000022,-37.50399655942213
-0.09170000000000011,-38.12646953136274
-0.09270000000000023,-38.5084415823263
-0.09370000000000012,-39.173355893262865
-0.09470000000000023,-39.86656443019674
-0.09570000000000012,-40.27683070715759
-0.09670000000000023,-40.84271522710361
-0.09770000000000012,-41.649100668026676
-0.09870000000000023,-42.158396735978094
-0.09970000000000012,-42.625251464933555
-0.10070000000000023,-43.40334267985933
-0.10170000000000012,-44.011668538801295
-0.10270000000000024,-44.39364058976485
-0.10370000000000013,-45.07270201370007
-0.10470000000000024,-45.82249900262854
-0.10570000000000013,-46.218618166590744
-0.10670000000000024,-46.78450268653676
-0.10770000000000013,-47.590888127459834
-0.10870000000000024,-48.071889969413945
-0.10970000000000013,-48.524597585370756
-0.11070000000000024,-49.30268880029653
-0.11170000000000013,-49.95345599823444
-0.11270000000000002,-50.335428049198
-0.11370000000000013,-51.028636586131874
-0.11470000000000002,-51.75013934906303
-0.11570000000000014,-52.17455273902255
-0.11670000000000003,-52.75458437196722
-0.11770000000000014,-53.546822699891635
-0.11870000000000003,-54.05611876784305
-0.11970000000000014,-54.52297349679851
-0.12070000000000003,-55.25862337272834
-0.12170000000000014,-55.881096344668954
-0.12270000000000003,-56.29136262162981
-0.12370000000000014,-56.97042404556503
-0.12470000000000003,-57.7202210344935
-0.12570000000000014,-58.13048731145436
-0.12670000000000003,-58.72466605739767
-0.12770000000000015,-59.53105149832074
-0.12870000000000004,-60.054494679270796
-0.12970000000000015,-60.53549652122492
-0.13070000000000004,-61.313587736150694
-0.13170000000000015,-61.936060708091304
-0.13270000000000004,-62.36047409805081
-0.13370000000000015,-63.06782974798333
-0.13470000000000004,-63.78933251091451
-0.13570000000000015,-64.22789301387266
-0.13670000000000004,-64.80792464681733
-0.13770000000000016,-65.61431008774039
-0.13870000000000005,-66.13775326869046
-0.13970000000000016,-66.57631377164863
-0.14070000000000005,-67.3261107605771
-0.14170000000000016,-67.97687795851502
-0.14270000000000005,-68.40129134847452
-0.14370000000000016,-69.151088337403
-0.14470000000000005,-69.90088532633146
-0.14570000000000016,-70.28285737729502
-0.14670000000000005,-70.89118323623698
-0.14770000000000016,-71.64098022516546
-0.14870000000000005,-72.12198206711957
-0.14970000000000017,-72.57468968307639
-0.15070000000000006,-73.38107512399945
-0.15170000000000017,-74.0176952089387
-0.15270000000000006,-74.42796148589959
-0.15370000000000017,-75.13531713583208
-0.15470000000000006,-75.82852567276596
-0.15570000000000017,-76.19635061073087
-0.15670000000000006,-76.84711780866878
-0.15770000000000017,-77.61106191059591
-0.15870000000000006,-78.16279931754329
-0.15970000000000018,-78.72868383748929
-0.16070000000000007,-79.52092216541372
-0.16170000000000018,-80.17168936335163
-0.16270000000000007,-80.62439697930844
-0.16370000000000018,-81.3458997422396
-0.16470000000000007,-82.09569673116808
-0.16570000000000018,-82.53425723412623
-0.16670000000000007,-83.1991715450628
-0.16770000000000018,-84.03385121198318
-0.16870000000000007,-84.52900016693594
-0.16970000000000018,-85.052443347886
-0.17070000000000007,-85.87297590180773
-0.17170000000000019,-86.5378902127443
-0.17270000000000008,-86.94815648970517
-0.1737000000000002,-87.65551213963768
-0.17470000000000008,-88.43360335456343
-0.1757000000000002,-88.85801674452296
-0.17670000000000008,-89.46634260346492
-0.1777000000000002,-90.3576107223799
-0.17870000000000008,-90.92349524232591
-0.1797000000000002,-91.40449708428001
-0.18070000000000008,-92.19673541220443
-0.1817000000000002,-92.81920838414506
-0.18270000000000008,-93.24362177410455
-0.1837000000000002,-94.02171298903033
-0.1847000000000001,-94.81395131695474
-0.1857000000000002,-95.23836470691427
-0.1867000000000001,-95.81839633985894
-0.1877000000000002,-96.6813702327766
-0.1887000000000001,-97.21896052672531
-0.1897000000000002,-97.74240370767538
-0.1907000000000001,-98.60537760059306
-0.1917000000000001,-99.24199768553233
-0.19269999999999998,-99.72299952748644
-0.1937000000000001,-100.44450229041762
-0.19469999999999998,-101.20844639234473
-0.1957000000000001,-101.64700689530288
-0.19669999999999999,-102.2694798672435
-0.1977000000000001,-103.07586530816658
-0.1987,-103.5285729241234
-0.1997000000000001,-103.96713342708154
-0.2007,-104.80181309400191
-0.2017000000000001,-105.4384331789412
-0.2027,-105.87699368189935
-0.2037000000000001,-106.59849644483052
-0.2047,-107.34829343375898
-0.2057000000000001,-107.81514816271445
-0.2067,-108.48006247365102
-0.2077000000000001,-109.37133059256598
-0.2087,-109.9655093385093
-0.2097000000000001,-110.50309963245802
-0.2107,-111.29533796038245
-0.2117000000000001,-111.88951670632574
-0.2127,-112.29978298328662
-0.2137000000000001,-113.04957997221508
-0.2147,-113.82767118714084
-0.2157000000000001,-114.37940859408822
-0.2167,-115.03017579202613
-0.21770000000000012,-115.8931496849438
-0.2187,-116.44488709189118
-0.21970000000000012,-116.89759470784797
-0.2207,-117.71812726176971
-0.22170000000000012,-118.3406002337103
-0.2227,-118.76501362366983
-0.22370000000000012,-119.51481061259831
-0.2247,-120.26460760152676
-0.22570000000000012,-120.71731521748359
-0.2267,-121.35393530242285
-0.22770000000000012,-122.23105630833916
-0.22870000000000001,-122.75449948928923
-0.22970000000000013,-123.2779426702393
-0.23070000000000002,-124.11262233715966
-0.23170000000000013,-124.73509530910029
-0.23270000000000002,-125.17365581205844
-0.23370000000000013,-125.92345280098691
-0.23470000000000002,-126.6732497899154
-0.23570000000000013,-127.12595740587219
-0.23670000000000002,-127.77672460381012
-0.2376999999999999,-128.61140427073047
-0.23870000000000002,-129.1207003386819
-0.2396999999999999,-129.6582906326306
-0.24070000000000003,-130.4363818475564
-0.24169999999999991,-131.12959038449023
-0.24270000000000003,-131.5964451134457
-0.24369999999999992,-132.36038921537283
-0.24470000000000003,-133.12433331729994
-0.24569999999999992,-133.5770409332568
-0.24670000000000003,-134.17121967920008
-0.24769999999999992,-134.9634580071245
-0.24870000000000003,-135.52934252707053
-0.24969999999999992,-136.08107993401788
-0.25070000000000003,-136.9299067139369
-0.2516999999999999,-137.6089681378721
-0.25270000000000004,-138.10411709282488
-0.2536999999999999,-138.92464964674662
-0.25470000000000004,-139.716887974671
-0.2556999999999999,-140.16959559062784
-0.25670000000000004,-140.89109835355902
-0.25769999999999993,-141.75407224647665
-0.25870000000000004,-142.17848563643616
-0.25969999999999993,-142.7443701563822
-0.26070000000000004,-143.5931969363012
-0.26169999999999993,-144.15908145624724
-0.26270000000000004,-144.72496597619326
-0.26369999999999993,-145.43232162612577
-0.26470000000000005,-146.28114840604482
-0.26569999999999994,-146.5640906660178
-0.26670000000000005,-147.27144631595033
-0.26769999999999994,-148.12027309586935
-0.26870000000000005,-148.68615761581535
-0.26969999999999994,-149.25204213576137
-0.27070000000000005,-150.1008689156804
-0.27169999999999994,-150.66675343562642
-0.27270000000000005,-151.09116682558593
-0.27369999999999994,-151.7985224755184
-0.27470000000000006,-152.64734925543743
-0.27569999999999995,-152.93029151541046
-0.27670000000000006,-153.35470490536997
-0.27769999999999995,-154.203531685289
-0.27870000000000006,-154.76941620523502
-0.27969999999999995,-155.33530072518104
-0.28070000000000006,-156.18412750510007
-0.28169999999999995,-156.89148315503257
-0.28270000000000006,-157.31589654499206
-0.28369999999999995,-158.1647233249111
-0.28470000000000006,-158.87207897484362
-0.28569999999999995,-159.43796349478964
-0.28670000000000007,-160.14531914472215
-0.28769999999999996,-160.99414592464117
-0.28870000000000007,-161.5600304445872
-0.28969999999999996,-162.12591496453322
-0.29070000000000007,-162.8332706144657
-0.29169999999999996,-163.54062626439824
-0.29270000000000007,-163.96503965435775
-0.29369999999999996,-164.67239530429026
-0.2947000000000001,-165.3797509542228
-0.29569999999999996,-165.8041643441823
-0.2967000000000001,-166.3700488641283
-0.29769999999999996,-166.93593338407433
-0.2987000000000001,-167.36034677403384
-0.29969999999999997,-167.92623129397984
-0.3007000000000001,-168.77505807389886
-0.30169999999999997,-169.3409425938449
-0.3027000000000001,-169.7653559838044
-0.30369999999999997,-170.61418276372342
-0.3047000000000001,-171.46300954364247
-0.30569999999999997,-171.88742293360195
-0.3067000000000001,-172.59477858353446
-0.3077,-173.302134233467
-0.3087000000000001,-173.72654762342648
-0.3097,-174.2924321433725
-0.3107000000000001,-174.99978779330505
-0.3117,-175.56567231325104
-0.3127000000000001,-175.99008570321055
-0.3137,-176.6974413531431
-0.3147000000000001,-177.4047970030756
-0.3157,-177.82921039303508
-0.3167000000000001,-178.25362378299462
-0.3177,-179.38539282288664
-0.3187000000000001,-180.23421960280567
-0.3197,-181.2245175127112
-0.3207000000000001,-182.35628655260325
-0.3217,-183.20511333252225
-0.3227000000000001,-183.62952672248176
-0.3237,-184.19541124242778
-0.3247000000000001,-184.9027668923603
-0.3257,-185.0442380223468
-0.3267000000000001,-185.1857091523333
-0.3277,-185.6101225422928
-0.3287000000000001,-185.7515936722793
-0.3297,-186.03453593225234
-0.3307000000000001,-186.60042045219836
-0.3317,-186.88336271217133
-0.3327000000000001,-187.16630497214436
-0.3337,-187.87366062207687
-0.3347000000000001,-188.4395451420229
-0.3357,-188.8639585319824
-0.3367000000000001,-189.42984305192843
-0.3377,-190.27866983184742
-0.3387000000000001,-190.70308322180696
-0.3397,-191.12749661176645
-0.3407000000000001,-191.69338113171247
-0.3417,-192.11779452167198
-0.3427000000000001,-192.40073678164498
-0.3437,-192.966621301591
-0.3447000000000001,-193.532505821537
-0.3457,-193.81544808151003
-0.3467000000000001,-194.52280373144254
-0.3477,-195.23015938137505
-0.3487000000000001,-195.65457277133459
-0.3497,-196.2204572912806
-0.3507000000000001,-196.92781294121312
-0.3517,-197.21075520118612
-0.3527000000000001,-197.49369746115914
-0.3537,-198.20105311109162
-0.3547000000000001,-198.76693763103765
-0.3557,-198.90840876102413
-0.35670000000000013,-199.33282215098367
-0.3577,-200.04017780091618
-0.35870000000000013,-200.4645911908757
-0.3597,-200.7475334508487
-0.36070000000000013,-201.59636023076774
-0.3617,-202.02077362072723
-0.3626999999999999,-202.30371588070025
-0.3637,-202.86960040064628
-0.3646999999999999,-203.43548492059227
-0.3657,-203.71842718056527
-0.3666999999999999,-204.14284057052478
-0.3677,-204.5672539604843
-0.3686999999999999,-204.8501962204573
-0.36970000000000003,-205.27460961041683
-0.3706999999999999,-206.12343639033585
-0.37170000000000003,-206.68932091028185
-0.3726999999999999,-206.83079204026836
-0.37370000000000003,-207.3966765602144
-0.3746999999999999,-207.67961882018741
-0.37570000000000003,-207.8210899501739
-0.3766999999999999,-208.24550334013338
-0.37770000000000004,-208.95285899006592
-0.3786999999999999,-209.23580125003892
-0.37970000000000004,-209.66021463999843
-0.3806999999999999,-210.36757028993094
-0.38170000000000004,-210.65051254990397
-0.38269999999999993,-210.79198367989048
-0.38370000000000004,-211.21639706985
-0.38469999999999993,-211.782281589796
-0.38570000000000004,-211.782281589796
-0.38669999999999993,-210.79198367989048
-0.38570000000000004,-208.3869744701199
-0.38469999999999993,-205.84049413036286
-0.38370000000000004,-203.29401379060576
-0.38269999999999993,-201.17194684080823
-0.38170000000000004,-198.76693763103765
-0.3806999999999999,-196.3619284212671
-0.37970000000000004,-194.2398614714695
-0.3786999999999999,-192.2592656516585
-0.37770000000000004,-189.8542564418879
-0.3766999999999999,-187.73218949209036
-0.37570000000000003,-185.89306480226583
-0.3746999999999999,-183.77099785246824
-0.37370000000000003,-181.64893090267074
-0.3726999999999999,-179.95127734283267
-0.37170000000000003,-177.9706815230216
-0.3706999999999999,-175.84861457322407
-0.36970000000000003,-174.0094898833995
-0.3686999999999999,-172.31183632356147
-0.3677,-170.0482982437774
-0.3666999999999999,-168.06770242396635
-0.3657,-166.51151999411482
-0.3646999999999999,-164.53092417430375
-0.3637,-162.6917994844792
-0.3626999999999999,-161.2770881846142
-0.3617,-159.57943462477613
-0.36070000000000013,-157.59883880496508
-0.3597,-156.04265637511355
-0.35870000000000013,-154.486473945262
-0.3577,-152.64734925543743
-0.35670000000000013,-150.94969569559944
-0.3557,-149.39351326574788
-0.3547000000000001,-147.55438857592333
-0.3537,-145.7152638860988
-0.3527000000000001,-144.30055258623375
-0.3517,-142.6028990263957
-0.3507000000000001,-140.82036278856575
-0.3497,-139.36321014970477
-0.3487000000000001,-137.80702771985324
-0.3477,-135.96790303002868
-0.3467000000000001,-134.42586771317576
-0.3457,-132.99700930031207
-0.3447000000000001,-131.28520862747538
-0.3437,-129.6299964066333
-0.3427000000000001,-128.27187355876288
-0.3417,-126.65910267691672
-0.3407000000000001,-124.87656643908679
-0.3397,-123.43356091322445
-0.3387000000000001,-121.94811404836615
-0.3377,-120.25046048852812
-0.3367000000000001,-118.77916073666849
-0.3357,-117.46347922779398
-0.3347000000000001,-115.83656123294922
-0.3337,-114.25208457710036
-0.3327000000000001,-112.96469729422319
-0.3317,-111.46510331636625
-0.3307000000000001,-109.8240382085228
-0.3297,-108.49420958664966
-0.3287000000000001,-107.10779251278193
-0.3277,-105.46672740493848
-0.3267000000000001,-104.10860455706805
-0.3257,-102.90609995218277
-0.3247000000000001,-101.3640646353299
-0.3237,-99.89276488347024
-0.3227000000000001,-98.71855450458226
-0.3217,-97.33213743071452
-0.3207000000000001,-95.83254345285758
-0.3197,-94.64418596097094
-0.3187000000000001,-93.41338713008837
-0.3177,-91.91379315223143
-0.3167000000000001,-90.6405529823529
-0.3157,-89.48048971646357
-0.3147000000000001,-87.99504285160528
-0.3137,-86.6227728907362
-0.3127000000000001,-85.68906343282526
-0.3117,-84.5148530539373
-0.3107000000000001,-83.10014175407225
-0.3097,-81.99666694017753
-0.3087000000000001,-80.8366036742882
-0.3077,-79.33700969643127
-0.3067000000000001,-78.10621086554868
-0.30569999999999997,-77.0168831646526
-0.3047000000000001,-75.63046609078486
-0.30369999999999997,-74.31478458191037
-0.3027000000000001,-73.2820453330089
-0.30169999999999997,-72.03709938912766
-0.3007000000000001,-70.66482942825859
-0.29969999999999997,-69.6320901793571
-0.2987000000000001,-68.52861536546239
-0.29769999999999996,-67.11390406559734
-0.2967000000000001,-66.01042925170262
-0.29569999999999996,-65.00598422879844
-0.2947000000000001,-63.66200849392664
-0.29369999999999996,-62.38876832404812
-0.29270000000000007,-61.455058866137186
-0.29169999999999996,-60.26670137425056
-0.29070000000000007,-58.97931409137338
-0.28969999999999996,-58.031457520463796
-0.28870000000000007,-57.027012497559625
-0.28769999999999996,-55.7254781016838
-0.28670000000000007,-54.65029751378637
-0.28569999999999995,-53.7307351688741
-0.28470000000000006,-52.49993633799151
-0.28369999999999995,-51.325725959103536
-0.28270000000000006,-50.46275206618586
-0.28169999999999995,-49.34513013929248
-0.28070000000000006,-48.114331308409895
-0.27969999999999995,-47.22306318949492
-0.27870000000000006,-46.2610595055867
-0.27769999999999995,-45.030260674704124
-0.27670000000000006,-44.068256990795895
-0.27569999999999995,-43.205283097878215
-0.27470000000000006,-42.04521983198889
-0.27369999999999994,-40.92759790509552
-0.27270000000000005,-40.10706535117379
-0.27169999999999994,-39.060178989273666
-0.27070000000000005,-37.90011572338433
-0.26969999999999994,-37.05128894346531
-0.26870000000000005,-36.14587371155169
-0.26769999999999994,-34.95751621966506
-0.26670000000000005,-34.00965964875548
