Potential V vs RHE, Current mA cm-2
0.013299999999999867,13.780702771985322
0.012299999999999978,12.254229279430946
0.011299999999999866,10.857909226464155
0.010299999999999976,9.549301274088998
0.009299999999999864,8.328405422305472
0.008299999999999974,7.15136562081776
0.007299999999999862,5.9729111080301855
0.006299999999999972,4.839727356838291
0.00529999999999986,3.661272844050715
0.0042999999999999705,2.4842330425630044
0.0032999999999998586,1.349917522331218
0.0022999999999999687,0.21588494435940458
0.0012999999999998568,-0.8745745255765657
0.00029999999999996696,-1.92117794521672
-0.000700000000000145,-2.968064307116847
-0.0017000000000000348,-3.884797229429391
-0.0027000000000001467,-4.843971490737885
-0.0037000000000000366,-5.715433651454749
-0.0047000000000001485,-6.54445447317566
-0.005700000000000038,-7.4173313451923875
-0.00670000000000015,-8.332649556205066
-0.00770000000000004,-9.205526428221793
-0.008700000000000152,-10.120844639234473
-0.009700000000000042,-10.993721511251199
-0.010700000000000154,-11.909039722263879
-0.011700000000000044,-12.825772644576423
-0.012700000000000156,-13.654793466297335
-0.013700000000000045,-14.486643710617974
-0.014700000000000157,-15.264734925543747
-0.015700000000000047,-16.014531914472215
-0.01670000000000016,-16.70774045140608
-0.01770000000000005,-17.40094898833995
-0.01870000000000016,-18.06586329927652
-0.01970000000000005,-18.80151317520634
-0.020700000000000163,-19.49472171214021
-0.021700000000000053,-20.244518701068674
-0.022700000000000164,-20.980168576998494
-0.023700000000000054,-21.729965565926964
-0.024700000000000166,-22.508056780852733
-0.025700000000000056,-23.2012653177866
-0.026700000000000168,-23.908620967719123
-0.027700000000000058,-24.559388165657033
-0.02870000000000017,-25.167714024599
-0.02970000000000006,-25.77603988354097
-0.03070000000000017,-26.34192440348698
-0.03170000000000006,-26.86536758443705
-0.03270000000000017,-27.487840556377662
-0.03370000000000006,-28.05372507632368
-0.034700000000000175,-28.662050935265643
-0.035700000000000065,-29.31281813320356
-0.03670000000000018,-29.921143992145527
-0.03770000000000007,-30.571911190083444
-0.03870000000000018,-31.19438416202406
-0.03970000000000007,-31.802710020966025
-0.04070000000000018,-32.368594540912035
-0.04170000000000007,-32.892037721862096
-0.04270000000000018,-33.41548090281216
-0.04370000000000007,-33.93892408376223
-0.044700000000000184,-34.377484586720385
-0.045700000000000074,-34.90092776767045
-0.046700000000000186,-35.46681228761647
-0.047700000000000076,-35.99025546856653
-0.04870000000000019,-36.55613998851254
-0.04970000000000008,-37.122024508458566
-0.05070000000000019,-37.687909028404576
-0.05170000000000008,-38.29623488734655
-0.05270000000000019,-38.81967806829661
-0.05370000000000008,-39.34312124924667
-0.05470000000000019,-39.82412309120078
-0.05570000000000008,-40.26268359415894
-0.056700000000000195,-40.743685436113054
-0.057700000000000085,-41.182245939071215
-0.058700000000000196,-41.606659329030734
-0.059700000000000086,-42.04521983198889
-0.0607000000000002,-42.483780334947056
-0.06170000000000009,-43.007223515897124
-0.0627000000000002,-43.53066669684718
-0.06370000000000009,-44.054109877797245
-0.0647000000000002,-44.577553058747306
-0.06570000000000009,-45.10099623969737
-0.0667000000000002,-45.581998081651484
-0.0677000000000001,-46.02055858460964
-0.0687000000000002,-46.45911908756781
-0.0697000000000001,-46.84109113853137
-0.07070000000000021,-47.27965164148953
-0.0717000000000001,-47.633329466455784
-0.07270000000000021,-48.029448630417996
-0.0737000000000001,-48.41142068138156
-0.07470000000000021,-48.89242252333566
-0.0757000000000001,-49.373424365289786
-0.07670000000000021,-49.85442620724389
-0.0777000000000001,-50.335428049198
-0.07870000000000021,-50.81642989115212
-0.0797000000000001,-51.25499039411028
-0.08070000000000022,-51.73599223606439
-0.0817000000000001,-52.11796428702795
-0.08270000000000022,-52.514083450990164
-0.08370000000000011,-52.91020261495237
-0.08470000000000022,-53.22143910092268
-0.08570000000000011,-53.56096981289029
-0.08670000000000022,-53.91464763785655
-0.08770000000000011,-54.35320814081471
-0.08870000000000022,-54.791768643772876
-0.08970000000000011,-55.17374069473642
-0.09070000000000022,-55.612301197694585
-0.09170000000000011,-56.05086170065276
-0.09270000000000023,-56.53186354260687
-0.09370000000000012,-56.927982706569075
-0.09470000000000023,-57.26751341853669
-0.09570000000000012,-57.57874990450699
-0.09670000000000023,-57.87583927747865
-0.09770000000000012,-58.18707576344896
-0.09870000000000023,-58.498312249419264
-0.09970000000000012,-58.83784296138688
-0.10070000000000023,-59.14907944735718
-0.10170000000000012,-59.54519861131939
-0.10270000000000024,-59.9696120012789
-0.10370000000000013,-60.36573116524111
-0.10470000000000024,-60.84673300719523
-0.10570000000000013,-61.242852171157445
-0.10670000000000024,-61.6814126741156
-0.10770000000000013,-62.02094338608321
-0.10870000000000024,-62.37462121104946
-0.10970000000000013,-62.77074037501168
-0.11070000000000024,-63.06782974798333
-0.11170000000000013,-63.37906623395363
-0.11270000000000002,-63.732744058919906
-0.11370000000000013,-64.0722747708875
-0.11470000000000002,-64.46839393484973
-0.11570000000000014,-64.90695443780788
-0.11670000000000003,-65.34551494076604
-0.11770000000000014,-65.76992833072556
-0.11870000000000003,-66.20848883368372
-0.11970000000000014,-66.64704933664189
-0.12070000000000003,-67.04316850060408
-0.12170000000000014,-67.39684632557035
-0.12270000000000003,-67.73637703753796
-0.12370000000000014,-68.0900548625042
-0.12470000000000003,-68.38714423547587
-0.12570000000000014,-68.74082206044213
-0.12670000000000003,-69.0944998854084
-0.12770000000000015,-69.4906190493706
-0.12870000000000004,-69.91503243933012
-0.12970000000000015,-70.35359294228827
-0.13070000000000004,-70.79215344524643
-0.13170000000000015,-71.2307139482046
-0.13270000000000004,-71.66927445116276
-0.13370000000000015,-72.05124650212633
-0.13470000000000004,-72.44736566608852
-0.13570000000000015,-72.80104349105478
-0.13670000000000004,-73.09813286402644
-0.13770000000000016,-73.45181068899271
-0.13870000000000005,-73.80548851395896
-0.13970000000000016,-74.10257788693062
-0.14070000000000005,-74.49869705089283
-0.14170000000000016,-74.93725755385098
-0.14270000000000005,-75.37581805680915
-0.14370000000000016,-75.81437855976732
-0.14470000000000005,-76.29538040172143
-0.14570000000000016,-76.67735245268499
-0.14670000000000005,-77.11591295564315
-0.14770000000000016,-77.51203211960537
-0.14870000000000005,-77.86570994457162
-0.14970000000000017,-78.20524065653922
-0.15070000000000006,-78.55891848150549
-0.15170000000000017,-78.85600785447714
-0.15270000000000006,-79.25212701843935
-0.15370000000000017,-79.64824618240156
-0.15470000000000006,-80.08680668535972
-0.15570000000000017,-80.56780852731384
-0.15670000000000006,-80.99222191727335
-0.15770000000000017,-81.47322375922747
-0.15870000000000006,-81.91178426218562
-0.15970000000000018,-82.35034476514379
-0.16070000000000007,-82.746463929106
-0.16170000000000018,-83.08599464107361
-0.16270000000000007,-83.43967246603985
-0.16370000000000018,-83.75090895201016
-0.16470000000000007,-84.04799832498183
-0.16570000000000018,-84.40167614994809
-0.16670000000000007,-84.7129126359184
-0.16770000000000018,-85.09488468688197
-0.16870000000000007,-85.53344518984011
-0.16970000000000018,-85.97200569279828
-0.17070000000000007,-86.36812485676049
-0.17170000000000019,-86.84912669871461
-0.17270000000000008,-87.23109874967815
-0.1737000000000002,-87.66965925263632
-0.17470000000000008,-88.10821975559449
-0.1757000000000002,-88.46189758056073
-0.17670000000000008,-88.80142829252836
-0.1777000000000002,-89.15510611749461
-0.17870000000000008,-89.50878394246087
-0.1797000000000002,-89.89075599342443
-0.18070000000000008,-90.28687515738663
-0.1817000000000002,-90.7254356603448
-0.18270000000000008,-91.20643750229891
-0.1837000000000002,-91.64499800525708
-0.1847000000000001,-92.16844118620713
-0.1857000000000002,-92.6070016891653
-0.1867000000000001,-93.03141507912481
-0.1877000000000002,-93.46997558208298
-0.1887000000000001,-93.82365340704924
-0.1897000000000002,-94.21977257101145
-0.1907000000000001,-94.601744621975
-0.1917000000000001,-94.99786378593721
-0.19269999999999998,-95.39398294989942
-0.1937000000000001,-95.79010211386164
-0.19469999999999998,-96.21451550382113
-0.1957000000000001,-96.73795868477121
-0.19669999999999999,-97.21896052672531
-0.1977000000000001,-97.69996236867944
-0.1987,-98.18096421063355
-0.1997000000000001,-98.66196605258766
-0.2007,-99.14296789454177
-0.2017000000000001,-99.58152839749994
-0.2027,-99.97764756146215
-0.2037000000000001,-100.35961961242569
-0.2047,-100.71329743739196
-0.2057000000000001,-101.15185794035013
-0.2067,-101.59041844330828
-0.2077000000000001,-102.07142028526239
-0.2087,-102.5524221272165
-0.2097000000000001,-103.07586530816658
-0.2107,-103.59930848911664
-0.2117000000000001,-104.12275167006669
-0.2127,-104.64619485101677
-0.2137000000000001,-105.11304957997223
-0.2147,-105.59405142192634
-0.2157000000000001,-106.0326119248845
-0.2167,-106.4287310888467
-0.21770000000000012,-106.78240891381296
-0.2187,-107.20682230377247
-0.21970000000000012,-107.64538280673065
-0.2207,-108.0839433096888
-0.22170000000000012,-108.52250381264696
-0.2227,-108.96106431560513
-0.22370000000000012,-109.44206615755924
-0.2247,-109.9655093385093
-0.22570000000000012,-110.40406984146746
-0.2267,-110.82848323142699
-0.22770000000000012,-111.26704373438514
-0.22870000000000001,-111.66316289834735
-0.22970000000000013,-112.05928206230955
-0.23070000000000002,-112.39881277427718
-0.23170000000000013,-112.79493193823936
-0.23270000000000002,-113.27593378019348
-0.23370000000000013,-113.75693562214758
-0.23470000000000002,-114.28037880309766
-0.23570000000000013,-114.84626332304367
-0.23670000000000002,-115.4121478429897
-0.2376999999999999,-116.02047370193165
-0.23870000000000002,-116.58635822187767
-0.2396999999999999,-117.10980140282774
-0.24070000000000003,-117.63324458377778
-0.24169999999999991,-118.11424642573192
-0.24270000000000003,-118.55280692869007
-0.24369999999999992,-118.99136743164823
-0.24470000000000003,-119.38748659561045
-0.24569999999999992,-119.86848843756455
-0.24670000000000003,-120.33534316652002
-0.24769999999999992,-120.85878634747009
-0.24870000000000003,-121.52370065840667
-0.24969999999999992,-122.08958517835266
-0.25070000000000003,-122.74035237629057
-0.2516999999999999,-123.39111957422851
-0.25270000000000004,-123.99944543317046
-0.2536999999999999,-124.62191840511109
-0.25470000000000004,-125.14536158606113
-0.2556999999999999,-125.62636342801528
-0.25670000000000004,-126.09321815697072
-0.25769999999999993,-126.57421999892482
-0.25870000000000004,-127.05522184087894
-0.25969999999999993,-127.62110636082497
-0.26070000000000004,-128.144549541775
-0.26169999999999993,-128.752875400717
-0.26270000000000004,-129.3753483726576
-0.26369999999999993,-130.02611557059552
-0.26470000000000005,-130.63444142953747
-0.26569999999999994,-131.28520862747538
-0.26670000000000005,-131.89353448641737
-0.26769999999999994,-132.41697766736743
-0.26870000000000005,-132.99700930031207
-0.26969999999999994,-133.46386402926754
-0.27070000000000005,-133.94486587122168
-0.27169999999999994,-134.42586771317576
-0.27270000000000005,-134.94931089412586
-0.27369999999999994,-135.51519541407185
-0.27470000000000006,-136.08107993401788
-0.27569999999999995,-136.74599424495443
-0.27670000000000006,-137.3543201038964
-0.27769999999999995,-138.00508730183432
-0.27870000000000006,-138.61341316077628
-0.27969999999999995,-139.1792976807223
-0.28070000000000006,-139.74518220066832
-0.28169999999999995,-140.22618404262244
-0.28270000000000006,-140.74962722357247
-0.28369999999999995,-141.2306290655266
-0.28470000000000006,-141.61260111649017
-0.28569999999999995,-142.17848563643616
-0.28670000000000007,-142.7443701563822
-0.28769999999999996,-143.16878354634173
-0.28870000000000007,-143.73466806628772
-0.28969999999999996,-144.30055258623375
-0.29070000000000007,-144.72496597619326
-0.29169999999999996,-145.29085049613926
-0.29270000000000007,-145.85673501608528
-0.29369999999999996,-146.4226195360313
-0.2947000000000001,-146.8470329259908
-0.29569999999999996,-147.4129174459368
-0.2967000000000001,-147.83733083589632
-0.29769999999999996,-148.26174422585584
-0.2987000000000001,-148.82762874580186
-0.29969999999999997,-149.25204213576137
-0.3007000000000001,-149.8179266557074
-0.30169999999999997,-150.5252823056399
-0.3027000000000001,-151.09116682558593
-0.30369999999999997,-151.65705134553193
-0.3047000000000001,-152.36440699546444
-0.30569999999999997,-152.93029151541046
-0.3067000000000001,-153.49617603535648
-0.3077,-154.0620605553025
-0.3087000000000001,-154.6279450752485
-0.3097,-155.19382959519453
-0.3107000000000001,-155.75971411514055
-0.3117,-156.18412750510007
-0.3127000000000001,-156.75001202504606
-0.3137,-157.31589654499206
-0.3147000000000001,-158.02325219492457
-0.3157,-158.5891367148706
-0.3167000000000001,-159.29649236480313
-0.3177,-160.00384801473567
-0.3187000000000001,-160.5697325346817
-0.3197,-161.2770881846142
-0.3207000000000001,-161.84297270456022
-0.3217,-162.40885722450622
-0.3227000000000001,-163.11621287443873
-0.3237,-163.82356852437124
-0.3247000000000001,-164.38945304431726
-0.3257,-164.9553375642633
-0.3267000000000001,-165.6626932141958
-0.3277,-166.3700488641283
-0.3287000000000001,-167.07740451406085
-0.3297,-167.78476016399335
-0.3307000000000001,-168.63358694391238
-0.3317,-169.48241372383137
-0.3327000000000001,-170.33124050375042
-0.3337,-171.03859615368293
-0.3347000000000001,-171.74595180361547
-0.3357,-172.45330745354798
-0.3367000000000001,-173.01919197349397
-0.3377,-173.72654762342648
-0.3387000000000001,-174.2924321433725
-0.3397,-174.99978779330505
-0.3407000000000001,-175.70714344323756
-0.3417,-176.4144990931701
-0.3427000000000001,-177.1218547431026
-0.3437,-177.82921039303508
-0.3447000000000001,-178.53656604296762
-0.3457,-179.24392169290016
-0.3467000000000001,-179.95127734283267
-0.3477,-180.65863299276518
-0.3487000000000001,-181.2245175127112
-0.3497,-181.93187316264374
-0.3507000000000001,-182.49775768258974
-0.3517,-183.06364220253573
-0.3527000000000001,-183.77099785246824
-0.3537,-184.33688237241427
-0.3547000000000001,-184.9027668923603
-0.3557,-185.6101225422928
-0.35670000000000013,-186.17600706223882
-0.3577,-186.88336271217133
-0.35870000000000013,-187.44924723211736
-0.3597,-188.01513175206335
-0.36070000000000013,-188.58101627200938
-0.3617,-189.1469007919554
-0.3626999999999999,-189.71278531190143
-0.3637,-190.27866983184742
-0.3646999999999999,-190.84455435179345
-0.3657,-191.268967741753
-0.3666999999999999,-191.83485226169896
-0.3677,-192.54220791163152
-0.3686999999999999,-193.249563561564
-0.36970000000000003,-193.81544808151003
-0.3706999999999999,-194.52280373144254
-0.37170000000000003,-195.37163051136156
-0.3726999999999999,-196.0789861612941
-0.37370000000000003,-196.7863418112266
-0.3746999999999999,-197.49369746115914
-0.37570000000000003,-198.20105311109162
-0.3766999999999999,-198.76693763103765
-0.37770000000000004,-199.47429328097016
-0.3786999999999999,-200.18164893090267
-0.37970000000000004,-200.7475334508487
-0.3806999999999999,-201.4548891007812
-0.38170000000000004,-202.16224475071377
-0.38269999999999993,-203.01107153063276
-0.38370000000000004,-203.85989831055176
-0.38469999999999993,-204.7087250904708
-0.38570000000000004,-205.41608074040332
-0.38669999999999993,-206.26490752032234
-0.38770000000000004,-206.97226317025488
-0.38869999999999993,-207.67961882018741
-0.38970000000000005,-208.52844560010638
-0.39069999999999994,-209.23580125003892
-0.39170000000000005,-209.94315689997146
-0.39269999999999994,-210.65051254990397
-0.39370000000000005,-211.499339329823
-0.39469999999999994,-212.2066949797555
-0.39570000000000005,-213.05552175967455
-0.39669999999999994,-213.90434853959354
-0.39770000000000005,-214.75317531951256
-0.39869999999999994,-215.6020020994316
-0.39970000000000006,-216.3093577493641
-0.40069999999999995,-217.15818452928315
-0.40170000000000006,-217.86554017921566
-0.40269999999999995,-218.43142469916165
-0.40370000000000006,-219.28025147908068
-0.40469999999999995,-219.8461359990267
-0.40570000000000006,-220.5534916489592
-0.40669999999999995,-221.26084729889175
-0.40770000000000006,-222.10967407881074
-0.40869999999999995,-222.81702972874328
-0.40970000000000006,-223.6658565086623
-0.41069999999999995,-224.37321215859478
-0.41170000000000007,-225.22203893851383
-0.41269999999999996,-225.92939458844637
-0.41370000000000007,-226.63675023837888
-0.41469999999999996,-227.34410588831142
-0.41570000000000007,-227.9099904082574
-0.41669999999999996,-228.47587492820347
-0.41770000000000007,-229.18323057813595
-0.41869999999999996,-229.89058622806846
-0.4197000000000001,-230.45647074801445
-0.42069999999999996,-231.163826397947
-0.4217000000000001,-231.729710917893
-0.42269999999999996,-232.43706656782552
-0.4237000000000001,-233.1444222177581
-0.42469999999999997,-233.71030673770406
-0.4257000000000001,-234.4176623876366
-0.42669999999999997,-234.9835469075826
-0.4277000000000001,-235.54943142752862
-0.42869999999999997,-235.97384481748813
-0.4297000000000001,-236.53972933743412
-0.43069999999999997,-237.10561385738015
-0.4317000000000001,-237.67149837732615
-0.4327,-238.2373828972722
-0.4337000000000001,-238.8032674172182
-0.4347,-239.36915193716422
-0.4357000000000001,-240.0765075870967
-0.4367,-240.78386323702924
-0.4377000000000001,-241.34974775697523
-0.4387,-242.05710340690777
-0.4397000000000001,-242.62298792685377
-0.4407,-243.18887244679982
-0.4417000000000001,-243.75475696674582
-0.4427,-244.32064148669184
-0.4437000000000001,-244.8865260066378
-0.4447,-245.45241052658386
-0.4457000000000001,-246.15976617651637
-0.4467,-246.7256506964624
-0.4477000000000001,-247.2915352164084
-0.4487,-247.99889086634093
-0.4497000000000001,-248.70624651627344
-0.4507,-249.41360216620598
-0.4517000000000001,-250.1209578161385
-0.4527,-250.6868423360845
-0.4537000000000001,-251.39419798601702
-0.4547,-251.96008250596302
-0.4557000000000001,-252.66743815589555
-0.4567,-253.23332267584152
-0.4577000000000001,-253.79920719578757
-0.4587,-254.36509171573357
-0.4597000000000001,-255.07244736566614
-0.4607,-255.63833188561213
-0.4617000000000001,-256.34568753554464
-0.4627,-257.0530431854772
-0.4637000000000001,-257.6189277054232
-0.4647,-258.32628335535566
-0.4657000000000001,-258.8921678753017
-0.4667,-259.59952352523425
-0.4677000000000001,-260.16540804518024
-0.4687,-260.73129256512624
-0.4697000000000001,-261.2971770850723
-0.4707,-261.8630616050183
-0.4717000000000001,-262.42894612496434
-0.4727,-262.9948306449103
-0.4737000000000001,-263.56071516485633
-0.4747,-263.98512855481584
-0.4757000000000001,-264.6924842047484
-0.4767,-265.2583687246944
-0.4777000000000001,-265.82425324464043
-0.4787,-266.2486666345999
-0.4797000000000001,-266.8145511545459
-0.4807,-267.23896454450545
-0.48170000000000013,-267.6633779344649
-0.4827,-268.0877913244245
-0.48370000000000013,-268.512204714384
-0.4847,-268.79514697435695
-0.48570000000000013,-269.07808923433
-0.4867,-268.22926245441096
-0.48570000000000013,-265.39983985468086
-0.4847,-262.9948306449103
-0.48370000000000013,-260.58982143513975
-0.4827,-258.18481222536917
-0.48170000000000013,-255.92127414558513
-0.4807,-253.65773606580112
-0.4797000000000001,-251.53566911600356
-0.4787,-249.41360216620598
-0.4777000000000001,-247.2915352164084
-0.4767,-245.16946826661086
-0.4757000000000001,-242.90593018682682
-0.4747,-240.92533436701575
-0.4737000000000001,-238.8032674172182
-0.4727,-236.82267159740715
-0.4717000000000001,-234.84207577759608
-0.4707,-232.86147995778504
-0.4697000000000001,-231.0223552679605
-0.4687,-229.18323057813595
-0.4677000000000001,-227.2026347583249
-0.4667,-225.22203893851383
-0.4657000000000001,-223.38291424868927
