Aug. 5, 2024   03:49:23
Cyclic Voltammetry
File: c:/users/guazh/data/20240802_batch_500/2024-08-02-exp22\exp22-2024-08-05t03_37_04-h2koh\exp22_cv_sr_800mvs_efin_-1500mv.bin
Data Source:  Experiment
Instrument Model:  CHI760E
Header: CV ran at 800 mVs
Note: 

Init E (V) = -1
High E (V) = -1
Low E (V) = -1.5
Final E (V) = -1
Init P/N = N
Scan Rate (V/s) = 0.8
Segment = 3
Sample Interval (V) = 0.001
Quiet Time (sec) = 2
Sensitivity (A/V) = 0.01
Comp R (ohm) = 2.2

Results:

Channel 1:
Segment 1:

Segment 2:

Segment 3:

Potential/V, Current/A

-1.000, -9.741e-4
-1.001, -8.662e-4
-1.002, -7.675e-4
-1.003, -6.750e-4
-1.004, -5.887e-4
-1.005, -5.055e-4
-1.006, -4.222e-4
-1.007, -3.421e-4
-1.008, -2.588e-4
-1.009, -1.756e-4
-1.010, -9.542e-5
-1.011, -1.526e-5
-1.012, 6.182e-5
-1.013, 1.358e-4
-1.014, 2.098e-4
-1.015, 2.746e-4
-1.016, 3.424e-4
-1.017, 4.040e-4
-1.018, 4.626e-4
-1.019, 5.243e-4
-1.020, 5.890e-4
-1.021, 6.507e-4
-1.022, 7.154e-4
-1.023, 7.771e-4
-1.024, 8.418e-4
-1.025, 9.066e-4
-1.026, 9.652e-4
-1.027, 1.024e-3
-1.028, 1.079e-3
-1.029, 1.132e-3
-1.030, 1.181e-3
-1.031, 1.230e-3
-1.032, 1.277e-3
-1.033, 1.329e-3
-1.034, 1.378e-3
-1.035, 1.431e-3
-1.036, 1.483e-3
-1.037, 1.536e-3
-1.038, 1.591e-3
-1.039, 1.640e-3
-1.040, 1.690e-3
-1.041, 1.736e-3
-1.042, 1.779e-3
-1.043, 1.822e-3
-1.044, 1.862e-3
-1.045, 1.899e-3
-1.046, 1.943e-3
-1.047, 1.983e-3
-1.048, 2.026e-3
-1.049, 2.072e-3
-1.050, 2.115e-3
-1.051, 2.161e-3
-1.052, 2.205e-3
-1.053, 2.248e-3
-1.054, 2.288e-3
-1.055, 2.325e-3
-1.056, 2.362e-3
-1.057, 2.399e-3
-1.058, 2.430e-3
-1.059, 2.467e-3
-1.060, 2.507e-3
-1.061, 2.544e-3
-1.062, 2.584e-3
-1.063, 2.624e-3
-1.064, 2.664e-3
-1.065, 2.707e-3
-1.066, 2.744e-3
-1.067, 2.781e-3
-1.068, 2.815e-3
-1.069, 2.846e-3
-1.070, 2.880e-3
-1.071, 2.911e-3
-1.072, 2.941e-3
-1.073, 2.972e-3
-1.074, 3.003e-3
-1.075, 3.040e-3
-1.076, 3.077e-3
-1.077, 3.114e-3
-1.078, 3.151e-3
-1.079, 3.188e-3
-1.080, 3.222e-3
-1.081, 3.253e-3
-1.082, 3.284e-3
-1.083, 3.311e-3
-1.084, 3.342e-3
-1.085, 3.367e-3
-1.086, 3.395e-3
-1.087, 3.422e-3
-1.088, 3.456e-3
-1.089, 3.490e-3
-1.090, 3.524e-3
-1.091, 3.558e-3
-1.092, 3.592e-3
-1.093, 3.623e-3
-1.094, 3.657e-3
-1.095, 3.684e-3
-1.096, 3.712e-3
-1.097, 3.740e-3
-1.098, 3.762e-3
-1.099, 3.786e-3
-1.100, 3.811e-3
-1.101, 3.842e-3
-1.102, 3.873e-3
-1.103, 3.900e-3
-1.104, 3.931e-3
-1.105, 3.962e-3
-1.106, 3.996e-3
-1.107, 4.024e-3
-1.108, 4.048e-3
-1.109, 4.070e-3
-1.110, 4.091e-3
-1.111, 4.113e-3
-1.112, 4.135e-3
-1.113, 4.159e-3
-1.114, 4.181e-3
-1.115, 4.209e-3
-1.116, 4.239e-3
-1.117, 4.267e-3
-1.118, 4.301e-3
-1.119, 4.329e-3
-1.120, 4.360e-3
-1.121, 4.384e-3
-1.122, 4.409e-3
-1.123, 4.437e-3
-1.124, 4.458e-3
-1.125, 4.480e-3
-1.126, 4.505e-3
-1.127, 4.529e-3
-1.128, 4.557e-3
-1.129, 4.588e-3
-1.130, 4.619e-3
-1.131, 4.649e-3
-1.132, 4.680e-3
-1.133, 4.711e-3
-1.134, 4.739e-3
-1.135, 4.764e-3
-1.136, 4.788e-3
-1.137, 4.813e-3
-1.138, 4.834e-3
-1.139, 4.859e-3
-1.140, 4.884e-3
-1.141, 4.912e-3
-1.142, 4.942e-3
-1.143, 4.973e-3
-1.144, 5.004e-3
-1.145, 5.035e-3
-1.146, 5.066e-3
-1.147, 5.093e-3
-1.148, 5.121e-3
-1.149, 5.146e-3
-1.150, 5.167e-3
-1.151, 5.192e-3
-1.152, 5.217e-3
-1.153, 5.238e-3
-1.154, 5.266e-3
-1.155, 5.297e-3
-1.156, 5.328e-3
-1.157, 5.359e-3
-1.158, 5.393e-3
-1.159, 5.420e-3
-1.160, 5.451e-3
-1.161, 5.479e-3
-1.162, 5.504e-3
-1.163, 5.528e-3
-1.164, 5.553e-3
-1.165, 5.574e-3
-1.166, 5.602e-3
-1.167, 5.630e-3
-1.168, 5.661e-3
-1.169, 5.695e-3
-1.170, 5.725e-3
-1.171, 5.759e-3
-1.172, 5.790e-3
-1.173, 5.821e-3
-1.174, 5.849e-3
-1.175, 5.873e-3
-1.176, 5.898e-3
-1.177, 5.920e-3
-1.178, 5.941e-3
-1.179, 5.966e-3
-1.180, 5.988e-3
-1.181, 6.015e-3
-1.182, 6.046e-3
-1.183, 6.077e-3
-1.184, 6.105e-3
-1.185, 6.139e-3
-1.186, 6.166e-3
-1.187, 6.197e-3
-1.188, 6.228e-3
-1.189, 6.253e-3
-1.190, 6.277e-3
-1.191, 6.302e-3
-1.192, 6.327e-3
-1.193, 6.354e-3
-1.194, 6.382e-3
-1.195, 6.413e-3
-1.196, 6.447e-3
-1.197, 6.478e-3
-1.198, 6.515e-3
-1.199, 6.546e-3
-1.200, 6.576e-3
-1.201, 6.607e-3
-1.202, 6.632e-3
-1.203, 6.660e-3
-1.204, 6.687e-3
-1.205, 6.715e-3
-1.206, 6.743e-3
-1.207, 6.771e-3
-1.208, 6.801e-3
-1.209, 6.838e-3
-1.210, 6.872e-3
-1.211, 6.906e-3
-1.212, 6.940e-3
-1.213, 6.974e-3
-1.214, 7.008e-3
-1.215, 7.039e-3
-1.216, 7.067e-3
-1.217, 7.094e-3
-1.218, 7.119e-3
-1.219, 7.150e-3
-1.220, 7.181e-3
-1.221, 7.215e-3
-1.222, 7.249e-3
-1.223, 7.286e-3
-1.224, 7.323e-3
-1.225, 7.360e-3
-1.226, 7.397e-3
-1.227, 7.430e-3
-1.228, 7.464e-3
-1.229, 7.495e-3
-1.230, 7.523e-3
-1.231, 7.548e-3
-1.232, 7.578e-3
-1.233, 7.609e-3
-1.234, 7.640e-3
-1.235, 7.671e-3
-1.236, 7.702e-3
-1.237, 7.736e-3
-1.238, 7.773e-3
-1.239, 7.804e-3
-1.240, 7.834e-3
-1.241, 7.865e-3
-1.242, 7.893e-3
-1.243, 7.921e-3
-1.244, 7.945e-3
-1.245, 7.973e-3
-1.246, 8.007e-3
-1.247, 8.041e-3
-1.248, 8.078e-3
-1.249, 8.118e-3
-1.250, 8.158e-3
-1.251, 8.201e-3
-1.252, 8.241e-3
-1.253, 8.278e-3
-1.254, 8.315e-3
-1.255, 8.349e-3
-1.256, 8.380e-3
-1.257, 8.411e-3
-1.258, 8.439e-3
-1.259, 8.473e-3
-1.260, 8.506e-3
-1.261, 8.543e-3
-1.262, 8.590e-3
-1.263, 8.630e-3
-1.264, 8.676e-3
-1.265, 8.722e-3
-1.266, 8.765e-3
-1.267, 8.809e-3
-1.268, 8.846e-3
-1.269, 8.880e-3
-1.270, 8.913e-3
-1.271, 8.947e-3
-1.272, 8.981e-3
-1.273, 9.021e-3
-1.274, 9.058e-3
-1.275, 9.101e-3
-1.276, 9.145e-3
-1.277, 9.191e-3
-1.278, 9.234e-3
-1.279, 9.280e-3
-1.280, 9.323e-3
-1.281, 9.360e-3
-1.282, 9.401e-3
-1.283, 9.434e-3
-1.284, 9.468e-3
-1.285, 9.502e-3
-1.286, 9.539e-3
-1.287, 9.579e-3
-1.288, 9.619e-3
-1.289, 9.666e-3
-1.290, 9.709e-3
-1.291, 9.755e-3
-1.292, 9.798e-3
-1.293, 9.838e-3
-1.294, 9.878e-3
-1.295, 9.912e-3
-1.296, 9.949e-3
-1.297, 9.983e-3
-1.298, 1.001e-2
-1.299, 1.005e-2
-1.300, 1.009e-2
-1.301, 1.012e-2
-1.302, 1.016e-2
-1.303, 1.020e-2
-1.304, 1.023e-2
-1.305, 1.027e-2
-1.306, 1.031e-2
-1.307, 1.035e-2
-1.308, 1.038e-2
-1.309, 1.042e-2
-1.310, 1.045e-2
-1.311, 1.048e-2
-1.312, 1.052e-2
-1.313, 1.055e-2
-1.314, 1.059e-2
-1.315, 1.064e-2
-1.316, 1.068e-2
-1.317, 1.072e-2
-1.318, 1.077e-2
-1.319, 1.081e-2
-1.320, 1.085e-2
-1.321, 1.089e-2
-1.322, 1.093e-2
-1.323, 1.097e-2
-1.324, 1.101e-2
-1.325, 1.104e-2
-1.326, 1.108e-2
-1.327, 1.112e-2
-1.328, 1.117e-2
-1.329, 1.121e-2
-1.330, 1.126e-2
-1.331, 1.131e-2
-1.332, 1.135e-2
-1.333, 1.140e-2
-1.334, 1.144e-2
-1.335, 1.148e-2
-1.336, 1.153e-2
-1.337, 1.158e-2
-1.338, 1.162e-2
-1.339, 1.166e-2
-1.340, 1.171e-2
-1.341, 1.176e-2
-1.342, 1.181e-2
-1.343, 1.186e-2
-1.344, 1.192e-2
-1.345, 1.198e-2
-1.346, 1.204e-2
-1.347, 1.209e-2
-1.348, 1.214e-2
-1.349, 1.219e-2
-1.350, 1.223e-2
-1.351, 1.228e-2
-1.352, 1.232e-2
-1.353, 1.237e-2
-1.354, 1.242e-2
-1.355, 1.247e-2
-1.356, 1.252e-2
-1.357, 1.257e-2
-1.358, 1.262e-2
-1.359, 1.267e-2
-1.360, 1.272e-2
-1.361, 1.277e-2
-1.362, 1.281e-2
-1.363, 1.286e-2
-1.364, 1.290e-2
-1.365, 1.294e-2
-1.366, 1.299e-2
-1.367, 1.303e-2
-1.368, 1.307e-2
-1.369, 1.312e-2
-1.370, 1.316e-2
-1.371, 1.321e-2
-1.372, 1.325e-2
-1.373, 1.329e-2
-1.374, 1.333e-2
-1.375, 1.337e-2
-1.376, 1.341e-2
-1.377, 1.345e-2
-1.378, 1.349e-2
-1.379, 1.352e-2
-1.380, 1.356e-2
-1.381, 1.361e-2
-1.382, 1.366e-2
-1.383, 1.370e-2
-1.384, 1.375e-2
-1.385, 1.381e-2
-1.386, 1.386e-2
-1.387, 1.391e-2
-1.388, 1.396e-2
-1.389, 1.401e-2
-1.390, 1.405e-2
-1.391, 1.410e-2
-1.392, 1.415e-2
-1.393, 1.419e-2
-1.394, 1.424e-2
-1.395, 1.429e-2
-1.396, 1.435e-2
-1.397, 1.441e-2
-1.398, 1.447e-2
-1.399, 1.452e-2
-1.400, 1.458e-2
-1.401, 1.463e-2
-1.402, 1.468e-2
-1.403, 1.474e-2
-1.404, 1.479e-2
-1.405, 1.484e-2
-1.406, 1.489e-2
-1.407, 1.495e-2
-1.408, 1.500e-2
-1.409, 1.506e-2
-1.410, 1.512e-2
-1.411, 1.518e-2
-1.412, 1.524e-2
-1.413, 1.529e-2
-1.414, 1.535e-2
-1.415, 1.540e-2
-1.416, 1.544e-2
-1.417, 1.550e-2
-1.418, 1.554e-2
-1.419, 1.559e-2
-1.420, 1.564e-2
-1.421, 1.570e-2
-1.422, 1.575e-2
-1.423, 1.581e-2
-1.424, 1.586e-2
-1.425, 1.592e-2
-1.426, 1.597e-2
-1.427, 1.602e-2
-1.428, 1.607e-2
-1.429, 1.611e-2
-1.430, 1.615e-2
-1.431, 1.620e-2
-1.432, 1.625e-2
-1.433, 1.629e-2
-1.434, 1.634e-2
-1.435, 1.638e-2
-1.436, 1.643e-2
-1.437, 1.648e-2
-1.438, 1.652e-2
-1.439, 1.657e-2
-1.440, 1.661e-2
-1.441, 1.665e-2
-1.442, 1.668e-2
-1.443, 1.672e-2
-1.444, 1.676e-2
-1.445, 1.680e-2
-1.446, 1.684e-2
-1.447, 1.688e-2
-1.448, 1.692e-2
-1.449, 1.697e-2
-1.450, 1.702e-2
-1.451, 1.706e-2
-1.452, 1.711e-2
-1.453, 1.715e-2
-1.454, 1.719e-2
-1.455, 1.723e-2
-1.456, 1.727e-2
-1.457, 1.731e-2
-1.458, 1.735e-2
-1.459, 1.740e-2
-1.460, 1.744e-2
-1.461, 1.748e-2
-1.462, 1.753e-2
-1.463, 1.758e-2
-1.464, 1.763e-2
-1.465, 1.768e-2
-1.466, 1.772e-2
-1.467, 1.777e-2
-1.468, 1.781e-2
-1.469, 1.786e-2
-1.470, 1.790e-2
-1.471, 1.794e-2
-1.472, 1.798e-2
-1.473, 1.803e-2
-1.474, 1.807e-2
-1.475, 1.812e-2
-1.476, 1.817e-2
-1.477, 1.821e-2
-1.478, 1.826e-2
-1.479, 1.830e-2
-1.480, 1.835e-2
-1.481, 1.839e-2
-1.482, 1.843e-2
-1.483, 1.847e-2
-1.484, 1.851e-2
-1.485, 1.855e-2
-1.486, 1.859e-2
-1.487, 1.863e-2
-1.488, 1.866e-2
-1.489, 1.871e-2
-1.490, 1.875e-2
-1.491, 1.879e-2
-1.492, 1.882e-2
-1.493, 1.886e-2
-1.494, 1.889e-2
-1.495, 1.892e-2
-1.496, 1.895e-2
-1.497, 1.898e-2
-1.498, 1.900e-2
-1.499, 1.902e-2
-1.500, 1.896e-2
-1.499, 1.876e-2
-1.498, 1.859e-2
-1.497, 1.842e-2
-1.496, 1.825e-2
-1.495, 1.809e-2
-1.494, 1.793e-2
-1.493, 1.778e-2
-1.492, 1.763e-2
-1.491, 1.748e-2
-1.490, 1.733e-2
-1.489, 1.717e-2
-1.488, 1.703e-2
-1.487, 1.688e-2
-1.486, 1.674e-2
-1.485, 1.660e-2
-1.484, 1.646e-2
-1.483, 1.633e-2
-1.482, 1.620e-2
-1.481, 1.606e-2
-1.480, 1.592e-2
-1.479, 1.579e-2
-1.478, 1.565e-2
-1.477, 1.551e-2
-1.476, 1.538e-2
-1.475, 1.524e-2
-1.474, 1.511e-2
-1.473, 1.497e-2
-1.472, 1.484e-2
-1.471, 1.471e-2
-1.470, 1.459e-2
-1.469, 1.446e-2
-1.468, 1.434e-2
-1.467, 1.421e-2
-1.466, 1.409e-2
-1.465, 1.396e-2
-1.464, 1.383e-2
-1.463, 1.371e-2
-1.462, 1.358e-2
-1.461, 1.345e-2
-1.460, 1.333e-2
-1.459, 1.321e-2
-1.458, 1.309e-2
-1.457, 1.297e-2
-1.456, 1.286e-2
-1.455, 1.275e-2
-1.454, 1.263e-2
-1.453, 1.251e-2
-1.452, 1.239e-2
-1.451, 1.227e-2
-1.450, 1.215e-2
-1.449, 1.203e-2
-1.448, 1.192e-2
-1.447, 1.180e-2
-1.446, 1.168e-2
-1.445, 1.157e-2
-1.444, 1.146e-2
-1.443, 1.135e-2
-1.442, 1.124e-2
-1.441, 1.112e-2
-1.440, 1.101e-2
-1.439, 1.090e-2
-1.438, 1.078e-2
-1.437, 1.066e-2
-1.436, 1.055e-2
-1.435, 1.043e-2
-1.434, 1.031e-2
-1.433, 1.019e-2
-1.432, 1.008e-2
-1.431, 9.968e-3
-1.430, 9.857e-3
-1.429, 9.755e-3
-1.428, 9.650e-3
-1.427, 9.542e-3
-1.426, 9.434e-3
-1.425, 9.327e-3
-1.424, 9.225e-3
-1.423, 9.117e-3
-1.422, 9.009e-3
-1.421, 8.907e-3
-1.420, 8.806e-3
-1.419, 8.710e-3
-1.418, 8.611e-3
-1.417, 8.519e-3
-1.416, 8.426e-3
-1.415, 8.334e-3
-1.414, 8.241e-3
-1.413, 8.149e-3
-1.412, 8.053e-3
-1.411, 7.958e-3
-1.410, 7.865e-3
-1.409, 7.767e-3
-1.408, 7.677e-3
-1.407, 7.582e-3
-1.406, 7.495e-3
-1.405, 7.409e-3
-1.404, 7.323e-3
-1.403, 7.239e-3
-1.402, 7.159e-3
-1.401, 7.073e-3
-1.400, 6.993e-3
-1.399, 6.903e-3
-1.398, 6.817e-3
-1.397, 6.728e-3
-1.396, 6.641e-3
-1.395, 6.552e-3
-1.394, 6.469e-3
-1.393, 6.382e-3
-1.392, 6.302e-3
-1.391, 6.222e-3
-1.390, 6.145e-3
-1.389, 6.071e-3
-1.388, 5.991e-3
-1.387, 5.917e-3
-1.386, 5.836e-3
-1.385, 5.756e-3
-1.384, 5.673e-3
-1.383, 5.590e-3
-1.382, 5.504e-3
-1.381, 5.423e-3
-1.380, 5.346e-3
-1.379, 5.275e-3
-1.378, 5.201e-3
-1.377, 5.127e-3
-1.376, 5.060e-3
-1.375, 4.989e-3
-1.374, 4.915e-3
-1.373, 4.841e-3
-1.372, 4.767e-3
-1.371, 4.693e-3
-1.370, 4.616e-3
-1.369, 4.538e-3
-1.368, 4.464e-3
-1.367, 4.391e-3
-1.366, 4.320e-3
-1.365, 4.252e-3
-1.364, 4.184e-3
-1.363, 4.116e-3
-1.362, 4.051e-3
-1.361, 3.987e-3
-1.360, 3.919e-3
-1.359, 3.851e-3
-1.358, 3.780e-3
-1.357, 3.715e-3
-1.356, 3.644e-3
-1.355, 3.577e-3
-1.354, 3.509e-3
-1.353, 3.447e-3
-1.352, 3.388e-3
-1.351, 3.327e-3
-1.350, 3.268e-3
-1.349, 3.216e-3
-1.348, 3.154e-3
-1.347, 3.096e-3
-1.346, 3.037e-3
-1.345, 2.975e-3
-1.344, 2.914e-3
-1.343, 2.852e-3
-1.342, 2.787e-3
-1.341, 2.729e-3
-1.340, 2.670e-3
-1.339, 2.618e-3
-1.338, 2.562e-3
-1.337, 2.510e-3
-1.336, 2.460e-3
-1.335, 2.408e-3
-1.334, 2.356e-3
-1.333, 2.303e-3
-1.332, 2.245e-3
-1.331, 2.189e-3
-1.330, 2.134e-3
-1.329, 2.072e-3
-1.328, 2.020e-3
-1.327, 1.964e-3
-1.326, 1.915e-3
-1.325, 1.865e-3
-1.324, 1.816e-3
-1.323, 1.767e-3
-1.322, 1.724e-3
-1.321, 1.674e-3
-1.320, 1.625e-3
-1.319, 1.573e-3
-1.318, 1.520e-3
-1.317, 1.471e-3
-1.316, 1.418e-3
-1.315, 1.366e-3
-1.314, 1.314e-3
-1.313, 1.264e-3
-1.312, 1.221e-3
-1.311, 1.178e-3
-1.310, 1.135e-3
-1.309, 1.092e-3
-1.308, 1.048e-3
-1.307, 1.005e-3
-1.306, 9.590e-4
-1.305, 9.128e-4
-1.304, 8.634e-4
-1.303, 8.141e-4
-1.302, 7.617e-4
-1.301, 7.154e-4
-1.300, 6.692e-4
-1.299, 6.291e-4
-1.298, 5.890e-4
-1.297, 5.459e-4
-1.296, 5.089e-4
-1.295, 4.688e-4
-1.294, 4.318e-4
-1.293, 3.917e-4
-1.292, 3.485e-4
-1.291, 3.023e-4
-1.290, 2.591e-4
-1.289, 2.129e-4
-1.288, 1.697e-4
-1.287, 1.266e-4
-1.286, 8.648e-5
-1.285, 4.949e-5
-1.284, 1.249e-5
-1.283, -2.451e-5
-1.282, -5.842e-5
-1.281, -9.542e-5
-1.280, -1.324e-4
-1.279, -1.725e-4
-1.278, -2.126e-4
-1.277, -2.527e-4
-1.276, -2.958e-4
-1.275, -3.390e-4
-1.274, -3.760e-4
-1.273, -4.130e-4
-1.272, -4.500e-4
-1.271, -4.839e-4
-1.270, -5.178e-4
-1.269, -5.456e-4
-1.268, -5.826e-4
-1.267, -6.134e-4
-1.266, -6.535e-4
-1.265, -6.905e-4
-1.264, -7.275e-4
-1.263, -7.706e-4
-1.262, -8.107e-4
-1.261, -8.446e-4
-1.260, -8.847e-4
-1.259, -9.186e-4
-1.258, -9.525e-4
-1.257, -9.803e-4
-1.256, -1.014e-3
-1.255, -1.045e-3
-1.254, -1.079e-3
-1.253, -1.110e-3
-1.252, -1.147e-3
-1.251, -1.184e-3
-1.250, -1.224e-3
-1.249, -1.261e-3
-1.248, -1.298e-3
-1.247, -1.335e-3
-1.246, -1.369e-3
-1.245, -1.400e-3
-1.244, -1.430e-3
-1.243, -1.461e-3
-1.242, -1.489e-3
-1.241, -1.520e-3
-1.240, -1.554e-3
-1.239, -1.588e-3
-1.238, -1.625e-3
-1.237, -1.659e-3
-1.236, -1.696e-3
-1.235, -1.733e-3
-1.234, -1.770e-3
-1.233, -1.803e-3
-1.232, -1.834e-3
-1.231, -1.865e-3
-1.230, -1.893e-3
-1.229, -1.921e-3
-1.228, -1.951e-3
-1.227, -1.979e-3
-1.226, -2.013e-3
-1.225, -2.047e-3
-1.224, -2.081e-3
-1.223, -2.118e-3
-1.222, -2.152e-3
-1.221, -2.186e-3
-1.220, -2.220e-3
-1.219, -2.254e-3
-1.218, -2.281e-3
-1.217, -2.309e-3
-1.216, -2.337e-3
-1.215, -2.365e-3
-1.214, -2.395e-3
-1.213, -2.429e-3
-1.212, -2.460e-3
-1.211, -2.494e-3
-1.210, -2.531e-3
-1.209, -2.571e-3
-1.208, -2.605e-3
-1.207, -2.639e-3
-1.206, -2.673e-3
-1.205, -2.704e-3
-1.204, -2.731e-3
-1.203, -2.762e-3
-1.202, -2.787e-3
-1.201, -2.821e-3
-1.200, -2.849e-3
-1.199, -2.886e-3
-1.198, -2.920e-3
-1.197, -2.953e-3
-1.196, -2.990e-3
-1.195, -3.024e-3
-1.194, -3.058e-3
-1.193, -3.095e-3
-1.192, -3.126e-3
-1.191, -3.157e-3
-1.190, -3.188e-3
-1.189, -3.216e-3
-1.188, -3.249e-3
-1.187, -3.280e-3
-1.186, -3.311e-3
-1.185, -3.351e-3
-1.184, -3.385e-3
-1.183, -3.422e-3
-1.182, -3.462e-3
-1.181, -3.496e-3
-1.180, -3.530e-3
-1.179, -3.564e-3
-1.178, -3.595e-3
-1.177, -3.626e-3
-1.176, -3.650e-3
-1.175, -3.684e-3
-1.174, -3.718e-3
-1.173, -3.749e-3
-1.172, -3.789e-3
-1.171, -3.823e-3
-1.170, -3.860e-3
-1.169, -3.903e-3
-1.168, -3.937e-3
-1.167, -3.971e-3
-1.166, -4.005e-3
-1.165, -4.033e-3
-1.164, -4.060e-3
-1.163, -4.088e-3
-1.162, -4.113e-3
-1.161, -4.144e-3
-1.160, -4.174e-3
-1.159, -4.208e-3
-1.158, -4.242e-3
-1.157, -4.279e-3
-1.156, -4.316e-3
-1.155, -4.353e-3
-1.154, -4.387e-3
-1.153, -4.418e-3
-1.152, -4.449e-3
-1.151, -4.480e-3
-1.150, -4.507e-3
-1.149, -4.538e-3
-1.148, -4.569e-3
-1.147, -4.600e-3
-1.146, -4.634e-3
-1.145, -4.668e-3
-1.144, -4.702e-3
-1.143, -4.742e-3
-1.142, -4.782e-3
-1.141, -4.819e-3
-1.140, -4.853e-3
-1.139, -4.890e-3
-1.138, -4.920e-3
-1.137, -4.951e-3
-1.136, -4.979e-3
-1.135, -5.013e-3
-1.134, -5.047e-3
-1.133, -5.084e-3
-1.132, -5.118e-3
-1.131, -5.158e-3
-1.130, -5.198e-3
-1.129, -5.241e-3
-1.128, -5.278e-3
-1.127, -5.318e-3
-1.126, -5.355e-3
-1.125, -5.389e-3
-1.124, -5.423e-3
-1.123, -5.457e-3
-1.122, -5.488e-3
-1.121, -5.525e-3
-1.120, -5.559e-3
-1.119, -5.596e-3
-1.118, -5.636e-3
-1.117, -5.676e-3
-1.116, -5.716e-3
-1.115, -5.756e-3
-1.114, -5.793e-3
-1.113, -5.830e-3
-1.112, -5.864e-3
-1.111, -5.898e-3
-1.110, -5.932e-3
-1.109, -5.959e-3
-1.108, -5.996e-3
-1.107, -6.030e-3
-1.106, -6.070e-3
-1.105, -6.111e-3
-1.104, -6.148e-3
-1.103, -6.188e-3
-1.102, -6.231e-3
-1.101, -6.268e-3
-1.100, -6.308e-3
-1.099, -6.342e-3
-1.098, -6.373e-3
-1.097, -6.407e-3
-1.096, -6.437e-3
-1.095, -6.468e-3
-1.094, -6.499e-3
-1.093, -6.533e-3
-1.092, -6.573e-3
-1.091, -6.613e-3
-1.090, -6.653e-3
-1.089, -6.693e-3
-1.088, -6.733e-3
-1.087, -6.773e-3
-1.086, -6.814e-3
-1.085, -6.851e-3
-1.084, -6.884e-3
-1.083, -6.918e-3
-1.082, -6.952e-3
-1.081, -6.989e-3
-1.080, -7.023e-3
-1.079, -7.066e-3
-1.078, -7.109e-3
-1.077, -7.150e-3
-1.076, -7.199e-3
-1.075, -7.242e-3
-1.074, -7.285e-3
-1.073, -7.328e-3
-1.072, -7.368e-3
-1.071, -7.409e-3
-1.070, -7.449e-3
-1.069, -7.479e-3
-1.068, -7.520e-3
-1.067, -7.560e-3
-1.066, -7.603e-3
-1.065, -7.652e-3
-1.064, -7.698e-3
-1.063, -7.745e-3
-1.062, -7.794e-3
-1.061, -7.840e-3
-1.060, -7.886e-3
-1.059, -7.930e-3
-1.058, -7.970e-3
-1.057, -8.010e-3
-1.056, -8.050e-3
-1.055, -8.087e-3
-1.054, -8.127e-3
-1.053, -8.170e-3
-1.052, -8.216e-3
-1.051, -8.259e-3
-1.050, -8.306e-3
-1.049, -8.355e-3
-1.048, -8.401e-3
-1.047, -8.448e-3
-1.046, -8.491e-3
-1.045, -8.531e-3
-1.044, -8.571e-3
-1.043, -8.611e-3
-1.042, -8.648e-3
-1.041, -8.688e-3
-1.040, -8.725e-3
-1.039, -8.768e-3
-1.038, -8.811e-3
-1.037, -8.855e-3
-1.036, -8.901e-3
-1.035, -8.944e-3
-1.034, -8.984e-3
-1.033, -9.024e-3
-1.032, -9.058e-3
-1.031, -9.095e-3
-1.030, -9.129e-3
-1.029, -9.163e-3
-1.028, -9.203e-3
-1.027, -9.240e-3
-1.026, -9.277e-3
-1.025, -9.323e-3
-1.024, -9.363e-3
-1.023, -9.409e-3
-1.022, -9.456e-3
-1.021, -9.502e-3
-1.020, -9.545e-3
-1.019, -9.585e-3
-1.018, -9.625e-3
-1.017, -9.665e-3
-1.016, -9.702e-3
-1.015, -9.742e-3
-1.014, -9.786e-3
-1.013, -9.829e-3
-1.012, -9.872e-3
-1.011, -9.915e-3
-1.010, -9.961e-3
-1.009, -1.001e-2
-1.008, -1.006e-2
-1.007, -1.011e-2
-1.006, -1.015e-2
-1.005, -1.019e-2
-1.004, -1.024e-2
-1.003, -1.028e-2
-1.002, -1.032e-2
-1.001, -1.036e-2
