Potential V vs RHE, Current mA cm-2
0.013299999999999867,0.28350814449295336
0.012299999999999978,-0.617380011261102
0.011299999999999866,-1.1592144391094112
0.010299999999999976,-1.5675001202504606
0.009299999999999864,-1.9523015938137507
0.008299999999999974,-2.2706116362833835
0.007299999999999862,-2.5408214945576058
0.006299999999999972,-2.7601017460366863
0.00529999999999986,-2.9468436376188714
0.0042999999999999705,-3.164709177798087
0.0032999999999998586,-3.3443775128809468
0.0022999999999999687,-3.522631136663941
0.0012999999999998568,-3.6655169779503103
0.00029999999999996696,-3.7970851288377587
-0.000700000000000145,-3.918750300626152
-0.0017000000000000348,-4.067294987111981
-0.0027000000000001467,-4.201692560599159
-0.0037000000000000366,-4.2936487950903865
-0.0047000000000001485,-4.389849163481209
-0.005700000000000038,-4.531320293467712
-0.00670000000000015,-4.633179507057995
-0.00770000000000004,-4.743526988447469
-0.008700000000000152,-4.81709197604045
-0.009700000000000042,-4.852459758537076
-0.010700000000000154,-4.968466085126009
-0.011700000000000044,-5.118425482911703
-0.012700000000000156,-5.21321114000266
-0.013700000000000045,-5.2259435417014455
-0.014700000000000157,-5.310826219693348
-0.015700000000000047,-5.39853832028498
-0.01670000000000016,-5.504641667774858
-0.01770000000000005,-5.5866949231670295
-0.01870000000000016,-5.609330303964871
-0.01970000000000005,-5.678651157658257
-0.020700000000000163,-5.766363258249889
-0.021700000000000053,-5.886613718738418
-0.022700000000000164,-5.970081685430455
-0.023700000000000054,-5.970081685430455
-0.024700000000000166,-6.036573116524112
-0.025700000000000056,-6.15399415441291
-0.026700000000000168,-6.241706255004542
-0.027700000000000058,-6.291221150499819
-0.02870000000000017,-6.3534684476938805
-0.02970000000000006,-6.4199598787875365
-0.03070000000000017,-6.516160247178359
-0.03170000000000006,-6.588310523471475
-0.03270000000000017,-6.639240130266617
-0.03370000000000006,-6.698658004860949
-0.034700000000000175,-6.770808281154065
-0.035700000000000065,-6.835885000947857
-0.03670000000000018,-6.90944998854084
-0.03770000000000007,-7.0367740055286925
-0.03870000000000018,-7.097606591422889
-0.03970000000000007,-7.069312365425588
-0.04070000000000018,-7.159853888616951
-0.04170000000000007,-7.281519060405343
-0.04270000000000018,-7.363572315797517
-0.04370000000000007,-7.432893169490902
-0.044700000000000184,-7.50221402318429
-0.045700000000000074,-7.53616709438105
-0.046700000000000186,-7.618220349773223
-0.047700000000000076,-7.729982542462561
-0.04870000000000019,-7.827597622153248
-0.04970000000000008,-7.867209538549469
-0.05070000000000019,-7.884186074147851
-0.05170000000000008,-8.051122007531923
-0.05270000000000019,-8.099222191727335
-0.05370000000000008,-8.12610170642477
-0.05470000000000019,-8.199666694017752
-0.05570000000000008,-8.315673020606686
-0.056700000000000195,-8.428849924595887
-0.057700000000000085,-8.459973573192919
-0.058700000000000196,-8.517976736487388
-0.059700000000000086,-8.581638744981312
-0.0607000000000002,-8.683497958571595
-0.06170000000000009,-8.846189758056074
-0.0627000000000002,-8.878728117952969
-0.06370000000000009,-8.898534076151082
-0.0647000000000002,-8.974928486343794
-0.06570000000000009,-9.088105390332997
-0.0667000000000002,-9.233820654219095
-0.0677000000000001,-9.290409106213696
-0.0687000000000002,-9.32011804351086
-0.0697000000000001,-9.403586010202897
-0.07070000000000021,-9.570521943586973
-0.0717000000000001,-9.61154857128306
-0.07270000000000021,-9.716237207473073
-0.0737000000000001,-9.8364876679616
-0.07470000000000021,-9.8081934419643
-0.0757000000000001,-9.905808521654986
-0.07670000000000021,-10.105282814935956
-0.0777000000000001,-10.126503484433933
-0.07870000000000021,-10.171774246029615
-0.0797000000000001,-10.314660087315982
-0.08070000000000022,-10.342954313313284
-0.0817000000000001,-10.443398815603702
-0.08270000000000022,-10.583455234290339
-0.08370000000000011,-10.693802715679812
-0.08470000000000022,-10.659849644483053
-0.08570000000000011,-10.726341075576709
-0.08670000000000022,-10.900350565460107
-0.08770000000000011,-11.043236406746477
-0.08870000000000022,-11.140851486437164
-0.08970000000000011,-11.104068992640675
-0.09070000000000022,-11.197439938431765
-0.09170000000000011,-11.343155202317865
-0.09270000000000023,-11.474723353205313
-0.09370000000000012,-11.566679587696541
-0.09470000000000023,-11.688344759484933
-0.09570000000000012,-11.69541831598426
-0.09670000000000023,-11.86659838326793
-0.09770000000000012,-11.978360575957266
-0.09870000000000023,-11.945822216060371
-0.09970000000000012,-12.049096140950518
-0.10070000000000023,-12.264132258530003
-0.10170000000000012,-12.279694082828517
-0.10270000000000024,-12.374479739919476
-0.10370000000000013,-12.53292740550436
-0.10470000000000024,-12.585271723599366
-0.10570000000000013,-12.614980660896533
-0.10670000000000024,-12.842749180174803
-0.10770000000000013,-12.910655322568324
-0.10870000000000024,-12.924802435566974
-0.10970000000000013,-12.992708577960498
-0.11070000000000024,-13.090323657651185
-0.11170000000000013,-13.278480260533234
-0.11270000000000002,-13.418536679219873
-0.11370000000000013,-13.54444598490786
-0.11470000000000002,-13.548690118807457
-0.11570000000000014,-13.602449148202329
-0.11670000000000003,-13.787776328484648
-0.11770000000000014,-13.964615240967778
-0.11870000000000003,-13.91227092287277
-0.11970000000000014,-13.963200529667912
-0.12070000000000003,-14.144283576050634
-0.12170000000000014,-14.359319693630123
-0.12270000000000003,-14.430055258623375
-0.12370000000000014,-14.415908145624723
-0.12470000000000003,-14.514937936615278
-0.12570000000000014,-14.65640906660178
-0.12670000000000003,-14.896909987578834
-0.12770000000000015,-14.882762874580186
-0.12870000000000004,-14.967645552572087
-0.12970000000000015,-15.123263795557243
-0.13070000000000004,-15.278882038542395
-0.13170000000000015,-15.278882038542395
-0.13270000000000004,-15.462794507524851
-0.13370000000000015,-15.646706976507305
-0.13470000000000004,-15.604265637511356
-0.13570000000000015,-15.70329542850191
-0.13670000000000004,-15.901355010483012
-0.13770000000000016,-16.11356170546277
-0.13870000000000005,-16.071120366466815
-0.13970000000000016,-16.170150157457368
-0.14070000000000005,-16.339915513441174
-0.14170000000000016,-16.56626932141958
-0.14270000000000005,-16.55212220842093
-0.14370000000000016,-16.679446225408782
-0.14470000000000005,-16.891652920388537
-0.14570000000000016,-16.891652920388537
-0.14670000000000005,-16.962388485381787
-0.14770000000000016,-17.132153841365596
-0.14870000000000005,-17.4150961013386
-0.14970000000000017,-17.37265476234265
-0.15070000000000006,-17.570714344323754
-0.15170000000000017,-17.74047970030756
-0.15270000000000006,-17.72633258730891
-0.15370000000000017,-17.938539282288666
-0.15470000000000006,-18.09415752527382
-0.15570000000000017,-18.08001041227517
-0.15670000000000006,-18.419541124242777
-0.15770000000000017,-18.461982463238726
-0.15870000000000006,-18.53271802823198
-0.15970000000000018,-18.744924723211735
-0.16070000000000007,-18.858101627200938
-0.16170000000000018,-18.88639585319824
-0.16270000000000007,-19.169338113171246
-0.16370000000000018,-19.367397695152352
-0.16470000000000007,-19.353250582153702
-0.16570000000000018,-19.452280373144255
-0.16670000000000007,-19.69278129412131
-0.16770000000000018,-19.904987989101066
-0.16870000000000007,-20.03231200608892
-0.16970000000000018,-20.046459119087572
-0.17070000000000007,-20.315254266061928
-0.17170000000000019,-20.541608074040333
-0.17270000000000008,-20.569902300037633
-0.1737000000000002,-20.90943301200524
-0.17470000000000008,-20.85284456001064
-0.1757000000000002,-21.079198367989047
-0.17670000000000008,-21.362140627962056
-0.1777000000000002,-21.319699288966106
-0.17870000000000008,-21.43287619295531
-0.1797000000000002,-21.71581845292831
-0.18070000000000008,-21.99876071290132
-0.1817000000000002,-22.027054938898623
-0.18270000000000008,-22.140231842887825
-0.1837000000000002,-22.352438537867577
-0.1847000000000001,-22.607086571843286
-0.1857000000000002,-22.819293266823045
-0.1867000000000001,-22.833440379821692
-0.1877000000000002,-23.045647074801447
-0.1887000000000001,-23.257853769781203
-0.1897000000000002,-23.49835469075826
-0.1907000000000001,-23.66812004674206
-0.1917000000000001,-23.724708498736668
-0.19269999999999998,-23.96520941971372
-0.1937000000000001,-24.21985745368943
-0.19469999999999998,-24.432064148669184
-0.1957000000000001,-24.67256506964624
-0.19669999999999999,-24.771594860636792
-0.1977000000000001,-25.167714024599
-0.1987,-25.210155363594954
-0.1997000000000001,-25.309185154585506
-0.2007,-25.761892770542314
-0.2017000000000001,-25.81848122253692
-0.2027,-25.91751101352747
-0.2037000000000001,-26.17215904750318
-0.2047,-26.398512855481584
-0.2057000000000001,-26.766337793446493
-0.2067,-27.035132940420848
-0.2077000000000001,-27.091721392415455
-0.2087,-27.501987669376312
-0.2097000000000001,-27.558576121370916
-0.2107,-27.65760591236147
-0.2117000000000001,-27.954695285333123
-0.2127,-28.19519620631018
-0.2137000000000001,-28.506432692280487
-0.2147,-28.8742576302454
-0.2157000000000001,-29.114758551222454
-0.2167,-29.128905664221104
-0.21770000000000012,-29.440142150191413
-0.2187,-29.63820173217252
-0.21970000000000012,-30.00602667013743
-0.2207,-30.43044006009694
-0.22170000000000012,-30.444587173095588
-0.2227,-30.769970772064546
-0.22370000000000012,-31.095354371033505
-0.2247,-31.29341395301461
-0.22570000000000012,-31.57635621298762
-0.2267,-31.94418115095253
-0.22770000000000012,-32.283711862920136
-0.22870000000000001,-32.31200608891744
-0.22970000000000013,-32.7222723658783
-0.23070000000000002,-33.11839152984051
-0.23170000000000013,-33.10424441684186
-0.23270000000000002,-33.57109914579732
-0.23370000000000013,-34.02380676175414
-0.23470000000000002,-33.98136542275818
-0.23570000000000013,-34.5755441687015
-0.23670000000000002,-34.702868185689354
-0.2376999999999999,-34.8301922026772
-0.23870000000000002,-35.169722914644815
-0.2396999999999999,-35.53754785260972
-0.24070000000000003,-35.96196124256923
-0.24169999999999991,-36.30149195453684
-0.24270000000000003,-36.315639067535486
-0.24369999999999992,-36.768346683492304
-0.24470000000000003,-37.164465847454515
-0.24569999999999992,-37.58887923741403
-0.24670000000000003,-37.659614802407276
-0.24769999999999992,-38.08402819236679
-0.24870000000000003,-38.6216184863155
-0.24969999999999992,-38.522588695324956
-0.25070000000000003,-38.86211940729255
-0.2516999999999999,-39.35726836224533
-0.25270000000000004,-39.72509330021023
-0.2536999999999999,-40.33341915915219
-0.25470000000000004,-40.27683070715759
-0.2556999999999999,-40.616361419125205
-0.25670000000000004,-41.111510374077966
-0.25769999999999993,-41.69154200702263
-0.25870000000000004,-41.70568912002128
-0.25969999999999993,-41.90374870200238
-0.26070000000000004,-42.39889765695515
-0.26169999999999993,-43.09210619388902
-0.26270000000000004,-43.134547532884966
-0.26369999999999993,-43.51651958384853
-0.26470000000000005,-44.096551216793195
-0.26569999999999994,-43.96922719980534
-0.26670000000000005,-44.478523267756756
-0.26769999999999994,-45.22832025668522
-0.26870000000000005,-45.157584691691966
-0.26969999999999994,-45.42637983866633
-0.27070000000000005,-45.85079322862584
-0.27169999999999994,-46.60059021755431
-0.27270000000000005,-46.77035557353811
-0.27369999999999994,-46.86938536452866
-0.27470000000000006,-47.506005449467935
-0.27569999999999995,-48.001154404420696
-0.27670000000000006,-48.100184195411245
-0.27769999999999995,-48.87827541033702
-0.27870000000000006,-48.65192160235861
-0.27969999999999995,-48.93486386233162
-0.28070000000000006,-49.387571478288436
-0.28169999999999995,-49.69880796425874
-0.28270000000000006,-50.34957516219666
-0.28369999999999995,-50.915459682142675
-0.28470000000000006,-50.87301834314672
-0.28569999999999995,-51.7642864620617
-0.28670000000000007,-51.53793265408329
-0.28769999999999996,-51.792580688059
-0.28870000000000007,-52.30187675601041
-0.28969999999999996,-52.966791066946975
-0.29070000000000007,-53.15070353592942
-0.29169999999999996,-53.20729198792403
-0.29270000000000007,-53.872206298860604
-0.29369999999999996,-54.423943705807964
-0.2947000000000001,-54.1268543328363
-0.29569999999999996,-54.43809081880661
-0.2967000000000001,-55.003975338752625
-0.29769999999999996,-55.711330988685134
-0.2987000000000001,-56.14989149164331
-0.29969999999999997,-55.90939057066625
-0.3007000000000001,-56.63089333359741
-0.30169999999999997,-56.70162889859067
-0.3027000000000001,-56.871394254574476
-0.30369999999999997,-57.53630856551105
-0.3047000000000001,-57.904133503475954
-0.30569999999999997,-57.7768094864881
-0.3067000000000001,-58.47001802342197
-0.3077,-58.82369584838823
-0.3087000000000001,-58.92272563937878
-0.3097,-59.47446304632614
-0.3107000000000001,-59.10663810836124
-0.3117,-59.432021707330186
-0.3127000000000001,-60.25255426125191
-0.3137,-60.45061384323302
-0.3147000000000001,-60.32328982624517
-0.3157,-61.12967526716824
-0.3167000000000001,-61.228705058158795
-0.3177,-61.08723392817228
-0.3187000000000001,-61.72385401311155
-0.3197,-62.006796273084554
-0.3207000000000001,-61.7662953521075
-0.3217,-62.40291543704677
-0.3227000000000001,-62.799034601008984
-0.3237,-62.47365100204002
-0.3247000000000001,-63.23759510396713
-0.3257,-62.96879995699278
-0.3267000000000001,-63.08197686098199
-0.3277,-63.944950753899654
-0.3287000000000001,-63.52053736394014
-0.3297,-63.860068075907755
-0.3307000000000001,-64.25618723986996
-0.3317,-63.74689117191855
-0.3327000000000001,-64.01568631889292
-0.3337,-64.34106991786187
-0.3347000000000001,-64.97769000280114
-0.3357,-64.44009970885242
-0.3367000000000001,-64.82207175981598
-0.3377,-65.18989669778088
-0.3387000000000001,-64.60986506483623
-0.3397,-64.75133619482273
-0.3407000000000001,-64.85036598581328
-0.3417,-65.18989669778088
-0.3427000000000001,-65.74163410472826
-0.3437,-65.34551494076604
-0.3447000000000001,-65.28892648877145
-0.3457,-65.91139946071206
-0.3467000000000001,-65.26063226277414
-0.3477,-65.3030736017701
-0.3487000000000001,-65.5860158617431
-0.3497,-65.57186874874445
-0.3507000000000001,-66.09531192969452
-0.3517,-66.09531192969452
-0.3527000000000001,-65.5577216357458
-0.3537,-65.64260431373769
-0.3547000000000001,-66.30751862467427
-0.3557,-66.03872347769992
-0.35670000000000013,-65.84066389571882
-0.3577,-66.47728398065809
-0.35870000000000013,-65.8123696697215
-0.3597,-66.05287059069857
-0.36070000000000013,-66.36410707666887
-0.3617,-65.78407544372419
-0.3626999999999999,-66.36410707666887
-0.3637,-66.29337151167562
-0.3646999999999999,-65.78407544372419
-0.3657,-65.9821350257053
-0.3666999999999999,-66.56216665864997
-0.3677,-66.40654841566483
-0.3686999999999999,-65.99628213870396
-0.36970000000000003,-66.37825418966752
-0.3706999999999999,-66.76022624063107
-0.37170000000000003,-66.25093017267966
-0.3726999999999999,-66.83096180562433
-0.37370000000000003,-66.70363778863647
-0.3746999999999999,-66.37825418966752
-0.37570000000000003,-66.73193201463377
-0.3766999999999999,-67.08560983960004
-0.37770000000000004,-67.07146272660138
-0.3786999999999999,-66.59046088464727
-0.37970000000000004,-66.77437335362974
-0.3806999999999999,-67.1563454045933
-0.38170000000000004,-67.8354068285285
-0.38269999999999993,-67.35440498657438
-0.38370000000000004,-68.03346641050962
-0.38469999999999993,-67.36855209957304
-0.38570000000000004,-67.42514055156765
-0.38669999999999993,-66.27922439867696
-0.38570000000000004,-64.60986506483623
-0.38469999999999993,-62.48779811503867
-0.38370000000000004,-60.79014455520062
-0.38269999999999993,-59.92717066228296
-0.38170000000000004,-58.35684111943277
-0.3806999999999999,-56.857247141575826
-0.37970000000000004,-55.73962521468245
-0.3786999999999999,-54.423943705807964
-0.37770000000000004,-53.405351569905136
-0.3766999999999999,-52.57067190298476
-0.37570000000000003,-50.915459682142675
-0.3746999999999999,-49.939308885235796
-0.37370000000000003,-49.18951189630732
-0.3726999999999999,-47.647476579454434
-0.37170000000000003,-47.067444946509774
-0.3706999999999999,-45.89323456762179
-0.36970000000000003,-44.83220109272301
-0.3686999999999999,-44.16728678178645
-0.3677,-42.71013414292546
-0.3666999999999999,-41.77642468501453
-0.3657,-41.12565748707661
-0.3646999999999999,-40.545625854131956
-0.3637,-39.34312124924667
-0.3626999999999999,-38.40941179133574
-0.3617,-37.758644593397825
-0.36070000000000013,-37.136171621457216
-0.3597,-36.20246216354629
-0.35870000000000013,-35.254605592636715
-0.3577,-34.7453095246853
-0.35670000000000013,-34.05210098775143
-0.3557,-33.0335088518486
-0.3547000000000001,-32.51006567089854
-0.3537,-31.94418115095253
-0.3527000000000001,-30.897294789052403
-0.3517,-30.17579202612123
-0.3507000000000001,-29.751378636161718
-0.3497,-29.35525947219951
-0.3487000000000001,-28.619609596269694
-0.3477,-27.78492992934932
-0.3467000000000001,-27.487840556377662
-0.3457,-26.723896454450543
-0.3447000000000001,-26.016540804518023
-0.3437,-25.620421640555815
-0.3427000000000001,-25.06868423360845
-0.3417,-24.304740131681328
-0.3407000000000001,-23.92276808071777
-0.3397,-23.54079602975421
-0.3387000000000001,-22.706116362833843
-0.3377,-22.168526068885125
-0.3367000000000001,-21.786554017921564
-0.3357,-21.404581966958006
-0.3347000000000001,-20.994315689997144
-0.3337,-20.286960040064624
-0.3327000000000001,-19.834252424107817
-0.3317,-19.49472171214021
-0.3307000000000001,-19.084455435179343
-0.3297,-18.518570915233333
-0.3287000000000001,-18.06586329927652
-0.3277,-17.75462681330621
-0.3267000000000001,-17.188742293360193
-0.3257,-16.778476016399335
-0.3247000000000001,-16.59456354741688
-0.3237,-16.056973253468165
-0.3227000000000001,-15.575971411514052
-0.3217,-15.307176264539699
-0.3207000000000001,-15.03838111756534
-0.3197,-14.486643710617974
-0.3187000000000001,-14.090524546655764
-0.3177,-13.804752864083028
-0.3167000000000001,-13.562837231806107
-0.3157,-13.103056059349969
-0.3147000000000001,-12.733816410085195
-0.3137,-12.477753664809624
-0.3127000000000001,-12.14246708674161
-0.3117,-11.774642148776701
-0.3107000000000001,-11.594973813693839
-0.3097,-11.138022063837434
-0.3087000000000001,-10.778685393671715
-0.3077,-10.519793225796413
-0.3067000000000001,-10.327392489014768
-0.30569999999999997,-10.03030311604311
-0.3047000000000001,-9.6624781780782
-0.30369999999999997,-9.378121206805329
-0.3027000000000001,-9.141864419727867
-0.30169999999999997,-8.926828302148381
-0.3007000000000001,-8.608518259678748
-0.29969999999999997,-8.35387022570304
-0.2987000000000001,-8.133175262924096
-0.29769999999999996,-7.802132818755678
-0.2967000000000001,-7.526264115281995
-0.29569999999999996,-7.352254625398595
-0.2947000000000001,-7.152780332117626
-0.29369999999999996,-6.898132298141919
-0.29270000000000007,-6.593969368670936
-0.29169999999999996,-6.398739209289561
-0.29070000000000007,-6.250194522803732
-0.28969999999999996,-6.019596580925731
-0.28870000000000007,-5.719677785354343
-0.28769999999999996,-5.542838872871213
-0.28670000000000007,-5.377317650787004
-0.28569999999999995,-5.132572595910353
-0.28470000000000006,-4.914707055731138
-0.28369999999999995,-4.710988628550572
-0.28270000000000006,-4.522832025668523
-0.28169999999999995,-4.368628493983234
-0.28070000000000006,-4.160665932903073
-0.27969999999999995,-3.9541180831227782
-0.27870000000000006,-3.7702056141403233
-0.27769999999999995,-3.6004402581565187
-0.27670000000000006,-3.430674902172714
-0.27569999999999995,-3.2609095461889095
-0.27470000000000006,-3.08972947890524
-0.27369999999999994,-2.9072317212226504
-0.27270000000000005,-2.712001561841275
-0.27169999999999994,-2.5648715866553116
-0.27070000000000005,-2.438962280967323
-0.26969999999999994,-2.276270481482844
-0.26870000000000005,-2.0640637865030884
-0.26769999999999994,-1.894298430519284
-0.26670000000000005,-1.769803836131161
-0.26569999999999994,-1.658041643441823
