Potential V vs RHE, Current mA cm-2
0.013299999999999867,-0.1330535977523067
0.012299999999999978,-1.6594563547416883
0.011299999999999866,-2.8803522065252145
0.010299999999999976,-3.884797229429391
0.009299999999999864,-4.800115440442069
0.008299999999999974,-5.497568111275533
0.007299999999999862,-6.021011292225596
0.006299999999999972,-6.37044498329226
0.00529999999999986,-6.632166573767292
0.0042999999999999705,-6.893888164242324
0.0032999999999998586,-7.199465805013171
0.0022999999999999687,-7.5474847847799715
0.0012999999999998568,-7.809206375255003
0.00029999999999996696,-7.896918475846635
-0.000700000000000145,-7.940774526142452
-0.0017000000000000348,-7.984630576438266
-0.0027000000000001467,-8.070927965730034
-0.0037000000000000366,-8.288793505909249
-0.0047000000000001485,-8.464217707092514
-0.005700000000000038,-8.594371146680096
-0.00670000000000015,-8.594371146680096
-0.00770000000000004,-8.508073757388331
-0.008700000000000152,-8.55051509638428
-0.009700000000000042,-8.638227196975913
-0.010700000000000154,-8.769795347863363
-0.011700000000000044,-8.943804837746763
-0.012700000000000156,-8.987660888042578
-0.013700000000000045,-8.943804837746763
-0.014700000000000157,-8.85609273715513
-0.015700000000000047,-8.85609273715513
-0.01670000000000016,-8.987660888042578
-0.01770000000000005,-9.11781432763016
-0.01870000000000016,-9.205526428221793
-0.01970000000000005,-9.161670377925978
-0.020700000000000163,-9.11781432763016
-0.021700000000000053,-9.031516938338395
-0.022700000000000164,-9.073958277334345
-0.023700000000000054,-9.161670377925978
-0.024700000000000166,-9.293238528813426
-0.025700000000000056,-9.379535918105192
-0.026700000000000168,-9.293238528813426
-0.027700000000000058,-9.24938247851761
-0.02870000000000017,-9.205526428221793
-0.02970000000000006,-9.24938247851761
-0.03070000000000017,-9.379535918105192
-0.03170000000000006,-9.511104068992642
-0.03270000000000017,-9.511104068992642
-0.03370000000000006,-9.467248018696827
-0.034700000000000175,-9.379535918105192
-0.035700000000000065,-9.379535918105192
-0.03670000000000018,-9.467248018696827
-0.03770000000000007,-9.55496011928846
-0.03870000000000018,-9.685113558876042
-0.03970000000000007,-9.641257508580225
-0.04070000000000018,-9.55496011928846
-0.04170000000000007,-9.467248018696827
-0.04270000000000018,-9.511104068992642
-0.04370000000000007,-9.55496011928846
-0.044700000000000184,-9.728969609171857
-0.045700000000000074,-9.728969609171857
-0.046700000000000186,-9.685113558876042
-0.047700000000000076,-9.59740145828441
-0.04870000000000019,-9.55496011928846
-0.04970000000000008,-9.59740145828441
-0.05070000000000019,-9.728969609171857
-0.05170000000000008,-9.81668170976349
-0.05270000000000019,-9.85912304875944
-0.05370000000000008,-9.772825659467674
-0.05470000000000019,-9.685113558876042
-0.05570000000000008,-9.641257508580225
-0.056700000000000195,-9.728969609171857
-0.057700000000000085,-9.85912304875944
-0.058700000000000196,-9.946835149351072
-0.059700000000000086,-9.902979099055257
-0.0607000000000002,-9.81668170976349
-0.06170000000000009,-9.772825659467674
-0.0627000000000002,-9.772825659467674
-0.06370000000000009,-9.85912304875944
-0.0647000000000002,-9.99069119964689
-0.06570000000000009,-9.99069119964689
-0.0667000000000002,-9.946835149351072
-0.0677000000000001,-9.85912304875944
-0.0687000000000002,-9.81668170976349
-0.0697000000000001,-9.85912304875944
-0.07070000000000021,-9.99069119964689
-0.0717000000000001,-10.078403300238522
-0.07270000000000021,-10.120844639234473
-0.0737000000000001,-10.034547249942705
-0.07470000000000021,-9.902979099055257
-0.0757000000000001,-9.902979099055257
-0.07670000000000021,-9.946835149351072
-0.0777000000000001,-10.078403300238522
-0.07870000000000021,-10.164700689530287
-0.0797000000000001,-10.120844639234473
-0.08070000000000022,-10.034547249942705
-0.0817000000000001,-9.946835149351072
-0.08270000000000022,-9.946835149351072
-0.08370000000000011,-10.078403300238522
-0.08470000000000022,-10.164700689530287
-0.08570000000000011,-10.208556739826104
-0.08670000000000022,-10.164700689530287
-0.08770000000000011,-10.078403300238522
-0.08870000000000022,-10.034547249942705
-0.08970000000000011,-10.078403300238522
-0.09070000000000022,-10.164700689530287
-0.09170000000000011,-10.296268840417738
-0.09270000000000023,-10.296268840417738
-0.09370000000000012,-10.25241279012192
-0.09470000000000023,-10.120844639234473
-0.09570000000000012,-10.120844639234473
-0.09670000000000023,-10.208556739826104
-0.09770000000000012,-10.340124890713554
-0.09870000000000023,-10.42642228000532
-0.09970000000000012,-10.42642228000532
-0.10070000000000023,-10.340124890713554
-0.10170000000000012,-10.25241279012192
-0.10270000000000024,-10.25241279012192
-0.10370000000000013,-10.382566229709504
-0.10470000000000024,-10.514134380596953
-0.10570000000000013,-10.557990430892769
-0.10670000000000024,-10.514134380596953
-0.10770000000000013,-10.42642228000532
-0.10870000000000024,-10.382566229709504
-0.10970000000000013,-10.382566229709504
-0.11070000000000024,-10.514134380596953
-0.11170000000000013,-10.644287820184536
-0.11270000000000002,-10.688143870480351
-0.11370000000000013,-10.601846481188586
-0.11470000000000002,-10.514134380596953
-0.11570000000000014,-10.514134380596953
-0.11670000000000003,-10.601846481188586
-0.11770000000000014,-10.731999920776168
-0.11870000000000003,-10.819712021367803
-0.11970000000000014,-10.775855971071984
-0.12070000000000003,-10.731999920776168
-0.12170000000000014,-10.688143870480351
-0.12270000000000003,-10.688143870480351
-0.12370000000000014,-10.819712021367803
-0.12470000000000003,-10.949865460955383
-0.12570000000000014,-11.037577561547016
-0.12670000000000003,-10.993721511251199
-0.12770000000000015,-10.906009410659568
-0.12870000000000004,-10.906009410659568
-0.12970000000000015,-10.949865460955383
-0.13070000000000004,-11.081433611842833
-0.13170000000000015,-11.211587051430415
-0.13270000000000004,-11.255443101726232
-0.13370000000000015,-11.211587051430415
-0.13470000000000004,-11.123874950838783
-0.13570000000000015,-11.123874950838783
-0.13670000000000004,-11.211587051430415
-0.13770000000000016,-11.385596541313816
-0.13870000000000005,-11.473308641905447
-0.13970000000000016,-11.517164692201263
-0.14070000000000005,-11.473308641905447
-0.14170000000000016,-11.385596541313816
-0.14270000000000005,-11.42945259160963
-0.14370000000000016,-11.56102074249708
-0.14470000000000005,-11.73503023238048
-0.14570000000000016,-11.82274233297211
-0.14670000000000005,-11.778886282676295
-0.14770000000000016,-11.691174182084664
-0.14870000000000005,-11.647318131788847
-0.14970000000000017,-11.73503023238048
-0.15070000000000006,-11.86659838326793
-0.15170000000000017,-11.996751822855511
-0.15270000000000006,-12.040607873151327
-0.15370000000000017,-11.996751822855511
-0.15470000000000006,-11.952895772559694
-0.15570000000000017,-11.952895772559694
-0.15670000000000006,-12.084463923447142
-0.15770000000000017,-12.214617363034726
-0.15870000000000006,-12.346185513922174
-0.15970000000000018,-12.346185513922174
-0.16070000000000007,-12.302329463626359
-0.16170000000000018,-12.258473413330542
-0.16270000000000007,-12.302329463626359
-0.16370000000000018,-12.432482903213943
-0.16470000000000007,-12.607907104397206
-0.16570000000000018,-12.694204493688973
-0.16670000000000007,-12.694204493688973
-0.16770000000000018,-12.607907104397206
-0.16870000000000007,-12.607907104397206
-0.16970000000000018,-12.651763154693022
-0.17070000000000007,-12.825772644576423
-0.17170000000000019,-12.955926084164007
-0.17270000000000008,-13.043638184755638
-0.1737000000000002,-12.99978213445982
-0.17470000000000008,-12.955926084164007
-0.1757000000000002,-12.99978213445982
-0.17670000000000008,-13.087494235051453
-0.1777000000000002,-13.261503724934855
-0.17870000000000008,-13.3930718758223
-0.1797000000000002,-13.436927926118118
-0.18070000000000008,-13.3930718758223
-0.1817000000000002,-13.349215825526485
-0.18270000000000008,-13.3930718758223
-0.1837000000000002,-13.523225315409885
-0.1847000000000001,-13.698649516593148
-0.1857000000000002,-13.828802956180734
-0.1867000000000001,-13.784946905884919
-0.1877000000000002,-13.784946905884919
-0.1887000000000001,-13.784946905884919
-0.1897000000000002,-13.872659006476551
-0.1907000000000001,-14.046668496359947
-0.1917000000000001,-14.217848563643619
-0.19269999999999998,-14.30273124163552
-0.1937000000000001,-14.26028990263957
-0.19469999999999998,-14.217848563643619
-0.1957000000000001,-14.26028990263957
-0.19669999999999999,-14.401761032626075
-0.1977000000000001,-14.57152638860988
-0.1987,-14.69885040559773
-0.1997000000000001,-14.741291744593681
-0.2007,-14.741291744593681
-0.2017000000000001,-14.69885040559773
-0.2027,-14.741291744593681
-0.2037000000000001,-14.967645552572087
-0.2047,-15.137410908555893
-0.2057000000000001,-15.264734925543747
-0.2067,-15.264734925543747
-0.2077000000000001,-15.264734925543747
-0.2087,-15.264734925543747
-0.2097000000000001,-15.349617603535648
-0.2107,-15.533530072518102
-0.2117000000000001,-15.70329542850191
-0.2127,-15.830619445489761
-0.2137000000000001,-15.830619445489761
-0.2147,-15.78817810649381
-0.2157000000000001,-15.91550212348166
-0.2167,-16.014531914472215
-0.21770000000000012,-16.22673860945197
-0.2187,-16.354062626439823
-0.21970000000000012,-16.438945304431726
-0.2207,-16.438945304431726
-0.22170000000000012,-16.438945304431726
-0.2227,-16.53797509542228
-0.22370000000000012,-16.70774045140608
-0.2247,-16.919947146385837
-0.22570000000000012,-17.061418276372343
-0.2267,-17.103859615368293
-0.22770000000000012,-17.103859615368293
-0.22870000000000001,-17.146300954364243
-0.22970000000000013,-17.2736249713521
-0.23070000000000002,-17.48583166633185
-0.23170000000000013,-17.71218547431026
-0.23270000000000002,-17.839509491298113
-0.23370000000000013,-17.881950830294063
-0.23470000000000002,-17.881950830294063
-0.23570000000000013,-17.966833508285966
-0.23670000000000002,-18.15074597726842
-0.2376999999999999,-18.40539401124413
-0.23870000000000002,-18.631747819222536
-0.2396999999999999,-18.716630497214435
-0.24070000000000003,-18.759071836210385
-0.24169999999999991,-18.80151317520634
-0.24270000000000003,-18.88639585319824
-0.24369999999999992,-19.155191000172596
-0.24470000000000003,-19.409839034148305
-0.24569999999999992,-19.579604390132108
-0.24670000000000003,-19.678634181122664
-0.24769999999999992,-19.721075520118614
-0.24870000000000003,-19.805958198110513
-0.24969999999999992,-19.97572355409432
-0.25070000000000003,-20.202077362072725
-0.2516999999999999,-20.456725396048434
-0.25270000000000004,-20.626490752032236
-0.2536999999999999,-20.72552054302279
-0.25470000000000004,-20.810403221014692
-0.2556999999999999,-20.93772723800254
-0.25670000000000004,-21.149933932982297
-0.25769999999999993,-21.461170418952605
-0.25870000000000004,-21.729965565926964
-0.25969999999999993,-21.899730921910766
-0.26070000000000004,-21.98461359990267
-0.26169999999999993,-22.069496277894572
-0.26270000000000004,-22.196820294882425
-0.26369999999999993,-22.46561544185678
-0.26470000000000005,-22.819293266823045
-0.26569999999999994,-23.031499961802798
-0.26670000000000005,-23.2012653177866
-0.26769999999999994,-23.300295108777156
-0.26870000000000005,-23.427619125765005
-0.26969999999999994,-23.682267159740714
-0.27070000000000005,-23.951062306715073
-0.27169999999999994,-24.290593018682678
-0.27270000000000005,-24.559388165657033
-0.27369999999999994,-24.686712182644893
-0.27470000000000006,-24.771594860636792
-0.27569999999999995,-24.997948668615198
-0.27670000000000006,-25.252596702590903
-0.27769999999999995,-25.563833188561212
-0.27870000000000006,-25.86092256153287
-0.27969999999999995,-26.087276369511276
-0.28070000000000006,-26.257041725495082
-0.28169999999999995,-26.34192440348698
-0.28270000000000006,-26.568278211465387
-0.28369999999999995,-26.907808923433
-0.28470000000000006,-27.261486748399253
-0.28569999999999995,-27.530281895373616
-0.28670000000000007,-27.700047251357418
-0.28769999999999996,-27.869812607341224
-0.28870000000000007,-28.05372507632368
-0.28969999999999996,-28.308373110299385
-0.29070000000000007,-28.662050935265643
-0.29169999999999996,-29.058170099227848
-0.29270000000000007,-29.31281813320356
-0.29369999999999996,-29.482583489187363
-0.2947000000000001,-29.66649595816982
-0.29569999999999996,-29.878702653149578
-0.2967000000000001,-30.189939139119886
-0.29769999999999996,-30.529469851087494
-0.2987000000000001,-30.88314767605375
-0.29969999999999997,-31.137795710029454
-0.3007000000000001,-31.321708179011907
-0.30169999999999997,-31.533914873991666
-0.3027000000000001,-31.76026868197007
-0.30369999999999997,-32.14224073293363
-0.3047000000000001,-32.53835989689585
-0.30569999999999997,-32.93447906085806
-0.3067000000000001,-33.18912709483376
-0.3077,-33.373039563816214
-0.3087000000000001,-33.627687597791926
-0.3097,-33.89648274476628
-0.3107000000000001,-34.236013456733886
-0.3117,-34.632132620696105
-0.3127000000000001,-34.90092776767045
-0.3137,-35.11313446265021
-0.3147000000000001,-35.240458479638065
-0.3157,-35.46681228761647
-0.3167000000000001,-35.806342999584075
-0.3177,-36.20246216354629
-0.3187000000000001,-36.55613998851254
-0.3197,-36.8532293614842
-0.3207000000000001,-37.122024508458566
-0.3217,-37.291789864442364
-0.3227000000000001,-37.60302635041268
-0.3237,-37.99914551437489
-0.3247000000000001,-38.42355890433439
-0.3257,-38.86211940729255
-0.3267000000000001,-39.130914554266916
-0.3277,-39.34312124924667
-0.3287000000000001,-39.61191639622103
-0.3297,-39.90900576919269
-0.3307000000000001,-40.34756627215084
-0.3317,-40.78612677510901
-0.3327000000000001,-41.083216148080666
-0.3337,-41.352011295055014
-0.3347000000000001,-41.52177665103883
-0.3357,-41.79057179801318
-0.3367000000000001,-42.229132300971344
-0.3377,-42.6111043519349
-0.3387000000000001,-43.04966485489307
-0.3397,-43.40334267985933
-0.3407000000000001,-43.61554937483908
-0.3417,-43.88434452181344
-0.3427000000000001,-44.181433894785094
-0.3437,-44.577553058747306
-0.3447000000000001,-45.05855490070142
-0.3457,-45.45467406466363
-0.3467000000000001,-45.70932209863933
-0.3477,-45.97811724561369
-0.3487000000000001,-46.2327652795894
-0.3497,-46.628884443551605
-0.3507000000000001,-47.067444946509774
-0.3517,-47.506005449467935
-0.3527000000000001,-47.8879775004315
-0.3537,-48.156772647405845
-0.3547000000000001,-48.41142068138156
-0.3557,-48.72265716735186
-0.35670000000000013,-49.118776331314066
-0.3577,-49.557336834272235
-0.35870000000000013,-49.98175022423175
-0.3597,-50.29298671020206
-0.36070000000000013,-50.60422319617236
-0.3617,-50.85887123014807
-0.3626999999999999,-51.21254905511432
-0.3637,-51.65110955807249
-0.3646999999999999,-52.075522948032
-0.3657,-52.514083450990164
-0.3666999999999999,-52.82531993696047
-0.3677,-53.03752663194023
-0.3686999999999999,-53.348763117910536
-0.36970000000000003,-53.74488228187274
-0.3706999999999999,-54.16929567183226
-0.37170000000000003,-54.69273885278232
-0.3726999999999999,-55.046416677748574
-0.37370000000000003,-55.357653163718886
-0.3746999999999999,-55.612301197694585
-0.37570000000000003,-55.9235376836649
-0.3766999999999999,-56.404539525619015
-0.37770000000000004,-56.88554136757313
-0.3786999999999999,-57.352396096528594
-0.37970000000000004,-57.7485152604908
-0.3806999999999999,-58.017310407465146
-0.38170000000000004,-58.31439978043681
-0.38269999999999993,-58.71051894439902
-0.38370000000000004,-59.19152078635314
-0.38469999999999993,-59.7149639673032
-0.38570000000000004,-60.15352447026136
-0.38669999999999993,-60.54964363422357
-0.38770000000000004,-60.84673300719523
-0.38869999999999993,-61.242852171157445
-0.38970000000000005,-61.6814126741156
-0.39069999999999994,-62.16241451606972
-0.39170000000000005,-62.68585769701977
-0.39269999999999994,-63.15271242597524
-0.39370000000000005,-63.5063902509415
-0.39469999999999994,-63.81762673691181
-0.39570000000000005,-64.25618723986996
-0.39669999999999994,-64.77963042082003
-0.39770000000000005,-65.3030736017701
-0.39869999999999994,-65.82651678272015
-0.39970000000000006,-66.25093017267966
-0.40069999999999995,-66.68949067563783
-0.40170000000000006,-67.04316850060408
-0.40269999999999995,-67.52417034255821
-0.40370000000000006,-68.0900548625042
-0.40469999999999995,-68.69838072144618
-0.40570000000000006,-69.26426524139221
-0.40669999999999995,-69.6603844053544
-0.40770000000000006,-70.09894490831257
-0.40869999999999995,-70.48091695927613
-0.40970000000000006,-70.96191880123024
-0.41069999999999995,-71.58439177317086
-0.41170000000000007,-72.19271763211282
-0.41269999999999996,-72.71616081306288
-0.41370000000000007,-73.15472131602105
-0.41469999999999996,-73.53669336698461
-0.41570000000000007,-73.97525386994278
-0.41669999999999996,-74.54113838988879
-0.41770000000000007,-75.1070229098348
-0.41869999999999996,-75.71534876877676
-0.4197000000000001,-76.23879194972683
-0.42069999999999996,-76.67735245268499
-0.4217000000000001,-77.11591295564315
-0.42269999999999996,-77.55447345860131
-0.4237000000000001,-78.16279931754329
-0.42469999999999997,-78.8135665154812
-0.4257000000000001,-79.37945103542721
-0.42669999999999997,-79.81801153838538
-0.4277000000000001,-80.21413070234757
-0.42869999999999997,-80.61024986630979
-0.4297000000000001,-81.04881036926795
-0.43069999999999997,-81.57225355021802
-0.4317000000000001,-82.09569673116808
-0.4327,-82.61913991211814
-0.4337000000000001,-82.95867062408576
-0.4347,-83.26990711005605
-0.4357000000000001,-83.66602627401826
-0.4367,-84.13288100297372
-0.4377000000000001,-84.7129126359184
-0.4387,-85.27879715586442
-0.4397000000000001,-85.70321054582392
-0.4407,-86.09932970978613
-0.4417000000000001,-86.45300753475239
-0.4427,-86.89156803771054
-0.4437000000000001,-87.41501121866061
-0.4447,-87.98089573860662
-0.4457000000000001,-88.54678025855264
-0.4467,-88.94289942251486
-0.4477000000000001,-89.28243013448247
-0.4487,-89.63610795944872
-0.4497000000000001,-90.07466846240689
-0.4507,-90.55567030436099
-0.4517000000000001,-91.03667214631511
-0.4527,-91.46108553627462
-0.4537000000000001,-91.81476336124088
-0.4547,-92.12599984721119
-0.4557000000000001,-92.4655305591788
-0.4567,-92.90409106213696
-0.4577000000000001,-93.46997558208298
-0.4587,-93.95097742403709
-0.4597000000000001,-94.4319792659912
-0.4607,-94.8280984299534
-0.4617000000000001,-95.18177625491967
-0.4627,-95.60618964487918
-0.4637000000000001,-96.12963282582925
-0.4647,-96.69551734577524
-0.4657000000000001,-97.17651918772938
-0.4667,-97.57263835169158
-0.4677000000000001,-97.88387483766188
-0.4687,-98.26584688862545
-0.4697000000000001,-98.7044073915836
-0.4707,-99.31273325052557
-0.4717000000000001,-99.97764756146215
-0.4727,-100.5010907424122
-0.4737000000000001,-100.92550413237171
-0.4747,-101.32162329633393
-0.4757000000000001,-101.80262513828804
-0.4767,-102.36850965823406
-0.4777000000000001,-103.01927685617197
-0.4787,-103.68419116710854
-0.4797000000000001,-104.2076343480586
-0.4807,-104.68863619001272
-0.48170000000000013,-105.07060824097626
-0.4827,-105.59405142192634
-0.48370000000000013,-106.2589657328629
-0.4847,-106.86729159180487
-0.48570000000000013,-107.47561745074682
-0.4867,-106.59849644483052
-0.48570000000000013,-103.54272003712204
-0.4847,-101.06697526235823
-0.48370000000000013,-98.93076119956201
-0.4827,-97.09163650973747
-0.48170000000000013,-95.43642428889537
-0.4807,-93.73877072905732
-0.4797000000000001,-92.04111716921928
-0.4787,-90.32931649638259
-0.4777000000000001,-88.71654561453644
-0.4767,-87.27354008867411
-0.4757000000000001,-85.92956435380233
-0.4747,-84.57144150593189
-0.4737000000000001,-83.14258309306821
-0.4727,-81.65713622820991
-0.4717000000000001,-80.17168936335163
-0.4707,-78.77112517648524
-0.4697000000000001,-77.51203211960537
-0.4687,-76.33782174071737
-0.4677000000000001,-75.1070229098348
-0.4667,-73.8479298529549
-0.4657000000000001,-72.53224834408043
-0.4647,-71.2307139482046
-0.4637000000000001,-70.09894490831257
