Potential V vs RHE, Current mA cm-2
0.013299999999999867,-0.2202705493889862
0.012299999999999978,-2.1828995356917518
0.011299999999999866,-3.927238568425342
0.010299999999999976,-5.453712060979717
0.009299999999999864,-6.762320013354876
0.008299999999999974,-7.984630576438266
0.007299999999999862,-9.031516938338395
0.006299999999999972,-9.946835149351072
0.00529999999999986,-10.731999920776168
0.0042999999999999705,-11.517164692201263
0.0032999999999998586,-12.12831997374296
0.0022999999999999687,-12.73806054398479
0.0012999999999998568,-13.30535977523067
0.00029999999999996696,-13.828802956180734
-0.000700000000000145,-14.345172580631472
-0.0017000000000000348,-14.783733083589633
-0.0027000000000001467,-15.222293586547794
-0.0037000000000000366,-15.660854089505953
-0.0047000000000001485,-16.014531914472215
-0.005700000000000038,-16.311621287443874
-0.00670000000000015,-16.665299112410132
-0.00770000000000004,-16.835064468393938
-0.008700000000000152,-17.018976937376394
-0.009700000000000042,-17.231183632356142
-0.010700000000000154,-17.316066310348052
-0.011700000000000044,-17.4433903273359
-0.012700000000000156,-17.627302796318357
-0.013700000000000045,-17.75462681330621
-0.014700000000000157,-17.881950830294063
-0.015700000000000047,-18.009274847281915
-0.01670000000000016,-18.23562865526032
-0.01770000000000005,-18.362952672248177
-0.01870000000000016,-18.49027668923603
-0.01970000000000005,-18.674189158218486
-0.020700000000000163,-18.759071836210385
-0.021700000000000053,-18.88639585319824
-0.022700000000000164,-18.92883719219419
-0.023700000000000054,-18.92883719219419
-0.024700000000000166,-19.01371987018609
-0.025700000000000056,-19.01371987018609
-0.026700000000000168,-19.01371987018609
-0.027700000000000058,-19.01371987018609
-0.02870000000000017,-19.112749661176647
-0.02970000000000006,-19.155191000172596
-0.03070000000000017,-19.2400736781645
-0.03170000000000006,-19.28251501716045
-0.03270000000000017,-19.409839034148305
-0.03370000000000006,-19.49472171214021
-0.034700000000000175,-19.579604390132108
-0.035700000000000065,-19.636192842126707
-0.03670000000000018,-19.721075520118614
-0.03770000000000007,-19.763516859114564
-0.03870000000000018,-19.721075520118614
-0.03970000000000007,-19.721075520118614
-0.04070000000000018,-19.721075520118614
-0.04170000000000007,-19.678634181122664
-0.04270000000000018,-19.678634181122664
-0.04370000000000007,-19.721075520118614
-0.044700000000000184,-19.721075520118614
-0.045700000000000074,-19.805958198110513
-0.046700000000000186,-19.848399537106463
-0.047700000000000076,-19.93328221509837
-0.04870000000000019,-19.97572355409432
-0.04970000000000008,-20.06060623208622
-0.05070000000000019,-20.10304757108217
-0.05170000000000008,-20.159636023076775
-0.05270000000000019,-20.159636023076775
-0.05370000000000008,-20.10304757108217
-0.05470000000000019,-20.10304757108217
-0.05570000000000008,-20.06060623208622
-0.056700000000000195,-20.01816489309027
-0.057700000000000085,-20.01816489309027
-0.058700000000000196,-20.01816489309027
-0.059700000000000086,-20.01816489309027
-0.0607000000000002,-20.10304757108217
-0.06170000000000009,-20.159636023076775
-0.0627000000000002,-20.244518701068674
-0.06370000000000009,-20.286960040064624
-0.0647000000000002,-20.371842718056527
-0.06570000000000009,-20.414284057052477
-0.0667000000000002,-20.414284057052477
-0.0677000000000001,-20.414284057052477
-0.0687000000000002,-20.371842718056527
-0.0697000000000001,-20.371842718056527
-0.07070000000000021,-20.329401379060574
-0.0717000000000001,-20.244518701068674
-0.07270000000000021,-20.286960040064624
-0.0737000000000001,-20.244518701068674
-0.07470000000000021,-20.244518701068674
-0.0757000000000001,-20.286960040064624
-0.07670000000000021,-20.329401379060574
-0.0777000000000001,-20.414284057052477
-0.07870000000000021,-20.499166735044383
-0.0797000000000001,-20.541608074040333
-0.08070000000000022,-20.541608074040333
-0.0817000000000001,-20.584049413036283
-0.08270000000000022,-20.541608074040333
-0.08370000000000011,-20.499166735044383
-0.08470000000000022,-20.499166735044383
-0.08570000000000011,-20.456725396048434
-0.08670000000000022,-20.414284057052477
-0.08770000000000011,-20.371842718056527
-0.08870000000000022,-20.414284057052477
-0.08970000000000011,-20.371842718056527
-0.09070000000000022,-20.414284057052477
-0.09170000000000011,-20.456725396048434
-0.09270000000000023,-20.541608074040333
-0.09370000000000012,-20.584049413036283
-0.09470000000000023,-20.683079204026836
-0.09570000000000012,-20.683079204026836
-0.09670000000000023,-20.72552054302279
-0.09770000000000012,-20.72552054302279
-0.09870000000000023,-20.683079204026836
-0.09970000000000012,-20.683079204026836
-0.10070000000000023,-20.626490752032236
-0.10170000000000012,-20.584049413036283
-0.10270000000000024,-20.584049413036283
-0.10370000000000013,-20.584049413036283
-0.10470000000000024,-20.584049413036283
-0.10570000000000013,-20.683079204026836
-0.10670000000000024,-20.72552054302279
-0.10770000000000013,-20.76796188201874
-0.10870000000000024,-20.810403221014692
-0.10970000000000013,-20.85284456001064
-0.11070000000000024,-20.93772723800254
-0.11170000000000013,-20.93772723800254
-0.11270000000000002,-20.93772723800254
-0.11370000000000013,-20.89528589900659
-0.11470000000000002,-20.89528589900659
-0.11570000000000014,-20.85284456001064
-0.11670000000000003,-20.810403221014692
-0.11770000000000014,-20.810403221014692
-0.11870000000000003,-20.85284456001064
-0.11970000000000014,-20.810403221014692
-0.12070000000000003,-20.85284456001064
-0.12170000000000014,-20.93772723800254
-0.12270000000000003,-20.980168576998494
-0.12370000000000014,-21.022609915994444
-0.12470000000000003,-21.107492593986347
-0.12570000000000014,-21.107492593986347
-0.12670000000000003,-21.2065223849769
-0.12770000000000015,-21.149933932982297
-0.12870000000000004,-21.149933932982297
-0.12970000000000015,-21.149933932982297
-0.13070000000000004,-21.107492593986347
-0.13170000000000015,-21.065051254990397
-0.13270000000000004,-21.065051254990397
-0.13370000000000015,-21.107492593986347
-0.13470000000000004,-21.065051254990397
-0.13570000000000015,-21.149933932982297
-0.13670000000000004,-21.248963723972853
-0.13770000000000016,-21.291405062968803
-0.13870000000000005,-21.376287740960702
-0.13970000000000016,-21.461170418952605
-0.14070000000000005,-21.503611757948562
-0.14170000000000016,-21.58849443594046
-0.14270000000000005,-21.58849443594046
-0.14370000000000016,-21.54605309694451
-0.14470000000000005,-21.54605309694451
-0.14570000000000016,-21.54605309694451
-0.14670000000000005,-21.503611757948562
-0.14770000000000016,-21.54605309694451
-0.14870000000000005,-21.54605309694451
-0.14970000000000017,-21.58849443594046
-0.15070000000000006,-21.67337711393236
-0.15170000000000017,-21.729965565926964
-0.15270000000000006,-21.814848243918867
-0.15370000000000017,-21.899730921910766
-0.15470000000000006,-21.98461359990267
-0.15570000000000017,-22.027054938898623
-0.15670000000000006,-22.111937616890522
-0.15770000000000017,-22.111937616890522
-0.15870000000000006,-22.111937616890522
-0.15970000000000018,-22.111937616890522
-0.16070000000000007,-22.111937616890522
-0.16170000000000018,-22.111937616890522
-0.16270000000000007,-22.111937616890522
-0.16370000000000018,-22.196820294882425
-0.16470000000000007,-22.253408746877028
-0.16570000000000018,-22.33829142486893
-0.16670000000000007,-22.42317410286083
-0.16770000000000018,-22.508056780852733
-0.16870000000000007,-22.63538079784059
-0.16970000000000018,-22.72026347583249
-0.17070000000000007,-22.819293266823045
-0.17170000000000019,-22.861734605818995
-0.17270000000000008,-22.904175944814945
-0.1737000000000002,-22.904175944814945
-0.17470000000000008,-22.904175944814945
-0.1757000000000002,-22.904175944814945
-0.17670000000000008,-22.904175944814945
-0.1777000000000002,-22.946617283810895
-0.17870000000000008,-22.989058622806844
-0.1797000000000002,-22.989058622806844
-0.18070000000000008,-23.073941300798747
-0.1817000000000002,-23.15882397879065
-0.18270000000000008,-23.24370665678255
-0.1837000000000002,-23.342736447773106
-0.1847000000000001,-23.47006046476096
-0.1857000000000002,-23.55494314275286
-0.1867000000000001,-23.639825820744765
-0.1877000000000002,-23.682267159740714
-0.1887000000000001,-23.724708498736668
-0.1897000000000002,-23.767149837732617
-0.1907000000000001,-23.823738289727217
-0.1917000000000001,-23.823738289727217
-0.19269999999999998,-23.86617962872317
-0.1937000000000001,-23.951062306715073
-0.19469999999999998,-23.993503645711023
-0.1957000000000001,-24.120827662698876
-0.19669999999999999,-24.24815167968673
-0.1977000000000001,-24.389622809673234
-0.1987,-24.516946826661083
-0.1997000000000001,-24.64427084364894
-0.2007,-24.729153521640843
-0.2017000000000001,-24.9130659906233
-0.2027,-24.9130659906233
-0.2037000000000001,-24.997948668615198
-0.2047,-25.04039000761115
-0.2057000000000001,-25.12527268560305
-0.2067,-25.0828313466071
-0.2077000000000001,-25.167714024599
-0.2087,-25.252596702590903
-0.2097000000000001,-25.39406783257741
-0.2107,-25.478950510569312
-0.2117000000000001,-25.60627452755716
-0.2127,-25.73359854454502
-0.2137000000000001,-25.91751101352747
-0.2147,-26.044835030515326
-0.2157000000000001,-26.17215904750318
-0.2167,-26.34192440348698
-0.21770000000000012,-26.38436574248293
-0.2187,-26.440954194477534
-0.21970000000000012,-26.525836872469437
-0.2207,-26.61071955046134
-0.22170000000000012,-26.65316088945729
-0.2227,-26.738043567449193
-0.22370000000000012,-26.822926245441096
-0.2247,-26.907808923433
-0.22570000000000012,-27.091721392415455
-0.2267,-27.219045409403304
-0.22770000000000012,-27.43125210438306
-0.22870000000000001,-27.572723234369565
-0.22970000000000013,-27.78492992934932
-0.23070000000000002,-27.912253946337174
-0.23170000000000013,-28.09616641531963
-0.23270000000000002,-28.18104909331153
-0.23370000000000013,-28.265931771303435
-0.23470000000000002,-28.350814449295335
-0.23570000000000013,-28.478138466283188
-0.23670000000000002,-28.53472691827779
-0.2376999999999999,-28.662050935265643
-0.23870000000000002,-28.831816291249446
-0.2396999999999999,-28.959140308237306
-0.24070000000000003,-29.14305277721976
-0.24169999999999991,-29.35525947219951
-0.24270000000000003,-29.581613280177915
-0.24369999999999992,-29.751378636161718
-0.24470000000000003,-30.00602667013743
-0.24569999999999992,-30.189939139119886
-0.24670000000000003,-30.359704495103685
-0.24769999999999992,-30.529469851087494
-0.24870000000000003,-30.614352529079397
-0.24969999999999992,-30.79826499806185
-0.25070000000000003,-30.88314767605375
-0.2516999999999999,-31.010471693041605
-0.25270000000000004,-31.19438416202406
-0.2536999999999999,-31.36414951800786
-0.25470000000000004,-31.49147353499572
-0.2556999999999999,-31.76026868197007
-0.25670000000000004,-31.972475376949827
-0.25769999999999993,-32.184682071929586
-0.25870000000000004,-32.45347721890394
-0.25969999999999993,-32.70812525287965
-0.26070000000000004,-32.892037721862096
-0.26169999999999993,-33.14668575583781
-0.26270000000000004,-33.330598224820264
-0.26369999999999993,-33.45792224180811
-0.26470000000000005,-33.627687597791926
-0.26569999999999994,-33.81160006677438
-0.26670000000000005,-33.98136542275818
-0.26769999999999994,-34.15113077874198
-0.26870000000000005,-34.377484586720385
-0.26969999999999994,-34.5472499427042
-0.27070000000000005,-34.8018979766799
-0.27169999999999994,-35.07069312365426
-0.27270000000000005,-35.32534115762997
-0.27369999999999994,-35.636577643600276
-0.27470000000000006,-35.848784338580025
-0.27569999999999995,-36.11757948555439
-0.27670000000000006,-36.37222751953009
-0.27769999999999995,-36.55613998851254
-0.27870000000000006,-36.768346683492304
-0.27969999999999995,-36.99470049147071
-0.28070000000000006,-37.164465847454515
-0.28169999999999995,-37.334231203438314
-0.28270000000000006,-37.56058501141672
-0.28369999999999995,-37.77279170639648
-0.28470000000000006,-38.04158685337084
-0.28569999999999995,-38.29623488734655
-0.28670000000000007,-38.607471373316855
-0.28769999999999996,-38.86211940729255
-0.28870000000000007,-39.21579723225882
-0.28969999999999996,-39.51288660523048
-0.29070000000000007,-39.78168175220483
-0.29169999999999996,-40.03632978618054
-0.29270000000000007,-40.30512493315489
-0.29369999999999996,-40.51733162813464
-0.2947000000000001,-40.78612677510901
-0.29569999999999996,-40.99833347008877
-0.2967000000000001,-41.182245939071215
-0.29769999999999996,-41.43689397304693
-0.2987000000000001,-41.70568912002128
-0.29969999999999997,-41.96033715399699
-0.3007000000000001,-42.2715736399673
-0.30169999999999997,-42.568663012938956
-0.3027000000000001,-42.92234083790521
-0.30369999999999997,-43.23357732387552
-0.3047000000000001,-43.61554937483908
-0.30569999999999997,-43.92678586080939
-0.3067000000000001,-44.223875233781044
-0.3077,-44.4926703807554
-0.3087000000000001,-44.74731841473111
-0.3097,-45.01611356170547
-0.3107000000000001,-45.27076159568118
-0.3117,-45.497115403659585
-0.3127000000000001,-45.85079322862584
-0.3137,-46.10544126260155
-0.3147000000000001,-46.41667774857186
-0.3157,-46.75620846053947
-0.3167000000000001,-47.10988628550572
-0.3177,-47.46356411047198
-0.3187000000000001,-47.80309482243959
-0.3197,-48.1992139864018
-0.3207000000000001,-48.51045047237211
-0.3217,-48.84998118433972
-0.3227000000000001,-49.16121767031002
-0.3237,-49.458307043281685
-0.3247000000000001,-49.76954352925199
-0.3257,-50.024191563227696
-0.3267000000000001,-50.29298671020206
-0.3277,-50.60422319617236
-0.3287000000000001,-50.90131256914402
-0.3297,-51.21254905511432
-0.3307000000000001,-51.594521106077885
-0.3317,-51.948198931044146
-0.3327000000000001,-52.34431809500636
-0.3337,-52.74043725896857
-0.3347000000000001,-53.12240930993213
-0.3357,-53.433645795902436
-0.3367000000000001,-53.82976495986464
-0.3377,-54.08441299384035
-0.3387000000000001,-54.39564947981066
-0.3397,-54.73518019177827
-0.3407000000000001,-55.003975338752625
-0.3417,-55.25862337272834
-0.3427000000000001,-55.612301197694585
-0.3437,-55.9235376836649
-0.3447000000000001,-56.22062705663656
-0.3457,-56.57430488160282
-0.3467000000000001,-56.97042404556503
-0.3477,-57.352396096528594
-0.3487000000000001,-57.7485152604908
-0.3497,-58.14463442445301
-0.3507000000000001,-58.54075358841522
-0.3517,-58.880284300382826
-0.3527000000000001,-59.19152078635314
-0.3537,-59.502757272323436
-0.3547000000000001,-59.842287984291055
-0.3557,-60.15352447026136
-0.35670000000000013,-60.45061384323302
-0.3577,-60.761850329203334
-0.35870000000000013,-61.11552815416958
-0.3597,-61.455058866137186
-0.36070000000000013,-61.851178030099405
-0.3617,-62.24729719406162
-0.3626999999999999,-62.64341635802381
-0.3637,-63.06782974798333
-0.3646999999999999,-63.46394891194555
-0.3657,-63.81762673691181
-0.3666999999999999,-64.25618723986996
-0.3677,-64.55327661284163
-0.3686999999999999,-64.90695443780788
-0.36970000000000003,-65.2464851497755
-0.3706999999999999,-65.60016297474175
-0.37170000000000003,-65.86895812171612
-0.3726999999999999,-66.20848883368372
-0.37370000000000003,-66.56216665864997
-0.3746999999999999,-66.91584448361623
-0.37570000000000003,-67.25537519558385
-0.3766999999999999,-67.693935698542
-0.37770000000000004,-68.0900548625042
-0.3786999999999999,-68.48617402646643
-0.37970000000000004,-68.91058741642594
-0.3806999999999999,-69.30670658038814
-0.38170000000000004,-69.6603844053544
-0.38269999999999993,-70.01406223032066
-0.38370000000000004,-70.31115160329232
-0.38469999999999993,-70.70727076725453
-0.38570000000000004,-71.0043601402262
-0.38669999999999993,-71.27315528720055
-0.38770000000000004,-71.66927445116276
-0.38869999999999993,-72.05124650212633
-0.38970000000000005,-72.36248298809663
-0.39069999999999994,-72.80104349105478
-0.39170000000000005,-73.197162655017
-0.39269999999999994,-73.62157604497652
-0.39370000000000005,-74.0176952089387
-0.39469999999999994,-74.45625571189689
-0.39570000000000005,-74.89481621485504
-0.39669999999999994,-75.2484940398213
-0.39770000000000005,-75.63046609078486
-0.39869999999999994,-75.94170257675518
-0.39970000000000006,-76.29538040172143
-0.40069999999999995,-76.5924697746931
-0.40170000000000006,-76.9037062606634
-0.40269999999999995,-77.243236972631
-0.40370000000000006,-77.63935613659322
-0.40469999999999995,-77.95059262256353
-0.40570000000000006,-78.38915312552167
-0.40669999999999995,-78.8135665154812
-0.40770000000000006,-79.25212701843935
-0.40869999999999995,-79.64824618240156
-0.40970000000000006,-80.08680668535972
-0.41069999999999995,-80.46877873632329
-0.41170000000000007,-80.90733923928146
-0.41269999999999996,-81.26101706424771
-0.41370000000000007,-81.61469488921396
-0.41469999999999996,-81.95422560118158
-0.41570000000000007,-82.26546208715187
-0.41669999999999996,-82.56255146012353
-0.41770000000000007,-82.95867062408576
-0.41869999999999996,-83.31234844905201
-0.4197000000000001,-83.70846761301424
-0.42069999999999996,-84.13288100297372
-0.4217000000000001,-84.57144150593189
-0.42269999999999996,-85.052443347886
-0.4237000000000001,-85.49100385084417
-0.42469999999999997,-85.97200569279828
-0.4257000000000001,-86.45300753475239
-0.42669999999999997,-86.84912669871461
-0.4277000000000001,-87.27354008867411
-0.42869999999999997,-87.66965925263632
-0.4297000000000001,-88.06577841659853
-0.43069999999999997,-88.46189758056073
-0.4317000000000001,-88.80142829252836
-0.4327,-89.19754745649055
-0.4337000000000001,-89.63610795944872
-0.4347,-90.03222712341093
-0.4357000000000001,-90.51322896536506
-0.4367,-90.93764235532454
-0.4377000000000001,-91.41864419727867
-0.4387,-91.89964603923279
-0.4397000000000001,-92.3806478811869
-0.4407,-92.81920838414506
-0.4417000000000001,-93.30021022609918
-0.4427,-93.69632939006138
-0.4437000000000001,-94.07830144102493
-0.4447,-94.5168619439831
-0.4457000000000001,-94.91298110794531
-0.4467,-95.30910027190752
-0.4477000000000001,-95.69107232287108
-0.4487,-96.12963282582925
-0.4497000000000001,-96.5681933287874
-0.4507,-97.04919517074151
-0.4517000000000001,-97.57263835169158
-0.4527,-98.05364019364569
-0.4537000000000001,-98.5346420355998
-0.4547,-99.10052655554581
-0.4557000000000001,-99.53908705850398
-0.4567,-100.06253023945405
-0.4577000000000001,-100.5010907424122
-0.4587,-100.92550413237171
-0.4597000000000001,-101.40650597432582
-0.4607,-101.84506647728399
-0.4617000000000001,-102.24118564124619
-0.4627,-102.72218748320032
-0.4637000000000001,-103.20318932515443
-0.4647,-103.68419116710854
-0.4657000000000001,-104.2076343480586
-0.4667,-104.77351886800463
-0.4677000000000001,-105.33940338795064
-0.4687,-105.86284656890071
-0.4697000000000001,-106.4287310888467
-0.4707,-106.90973293080083
-0.4717000000000001,-107.47561745074682
-0.4727,-107.99906063169689
-0.4737000000000001,-108.43762113465506
-0.4747,-108.91862297660917
-0.4757000000000001,-109.39962481856328
-0.4767,-109.8240382085228
-0.4777000000000001,-110.34748138947285
-0.4787,-110.82848323142699
-0.4797000000000001,-111.3094850733811
-0.4807,-111.91781093232305
-0.48170000000000013,-112.48369545226906
-0.4827,-113.06372708521374
-0.48370000000000013,-113.67205294415571
-0.4847,-114.23793746410173
-0.48570000000000013,-114.80382198404773
-0.4867,-113.92670097813141
-0.48570000000000013,-110.53139385845533
-0.4847,-107.56050012873874
-0.48370000000000013,-104.90084288499246
-0.4827,-102.36850965823406
-0.48170000000000013,-100.02008890045809
-0.4807,-97.88387483766188
-0.4797000000000001,-95.83254345285758
-0.4787,-93.82365340704924
-0.4777000000000001,-92.04111716921928
-0.4767,-90.28687515738663
-0.4757000000000001,-88.54678025855264
-0.4747,-86.93400937670651
-0.4737000000000001,-85.36367983385631
-0.4727,-83.79335029100612
-0.4717000000000001,-82.22302074815593
-0.4707,-80.73757388329766
-0.4697000000000001,-79.20968567944341
-0.4687,-77.76668015358106
-0.4677000000000001,-76.29538040172143
-0.4667,-74.8523748758591
-0.4657000000000001,-73.49425202798865
-0.4647,-72.19271763211282
-0.4637000000000001,-70.8345947842424
