Potential V vs RHE, Current mA cm-2
0.05339999999999995,-0.02020207736207272
0.05239999999999995,-0.02645510130747619
0.051399999999999946,-0.029850408427152274
0.050399999999999945,-0.03198662248994848
0.049399999999999944,-0.033740864501781126
0.04839999999999994,-0.035297046931632665
0.04739999999999994,-0.03675419957049365
0.04639999999999994,-0.037970851288377586
0.04539999999999994,-0.039159208780264215
0.04439999999999994,-0.0403051249331549
0.04339999999999994,-0.04140859974704963
0.04239999999999994,-0.0424696332219484
0.04139999999999994,-0.04343163690585663
0.040399999999999936,-0.0443511992507689
0.039399999999999935,-0.04534149716067442
0.038399999999999934,-0.046303500844582644
0.03739999999999993,-0.04719476896349762
0.03639999999999993,-0.04805774285641529
0.03539999999999993,-0.04884998118433972
0.03439999999999993,-0.04969880796425874
0.03339999999999993,-0.05056178185717641
0.03239999999999993,-0.051410608637095435
0.03139999999999993,-0.05217455273902255
0.030399999999999927,-0.052938496840949666
0.029399999999999926,-0.05373073516887409
0.028399999999999925,-0.05459370906179176
0.027399999999999924,-0.055357653163718885
0.026399999999999924,-0.056121597265646014
0.025399999999999923,-0.05688554136757313
0.024399999999999922,-0.05762119124350294
0.02339999999999992,-0.05844172379742466
0.02239999999999992,-0.05920566789935178
0.02139999999999992,-0.059884729323287006
0.020399999999999918,-0.06062037919921682
0.019399999999999917,-0.06134188196214799
0.018399999999999916,-0.06217656162906836
0.017399999999999916,-0.06294050573099548
0.016399999999999915,-0.063647861380928
0.015399999999999914,-0.06442595259585376
0.014399999999999913,-0.0651333082457863
0.013399999999999912,-0.065953840799708
0.012399999999999911,-0.06676022624063108
0.01139999999999991,-0.06746758189056361
0.01039999999999991,-0.06820323176649341
0.009399999999999908,-0.06892473452942459
0.008399999999999908,-0.06970282574435036
0.007399999999999907,-0.07055165252426938
0.006399999999999906,-0.0712873024001992
0.005399999999999905,-0.07199465805013172
0.004399999999999904,-0.07274445503906019
0.003399999999999903,-0.07355084047998325
0.002399999999999902,-0.07439966725990228
0.0013999999999999013,-0.07514946424883075
0.00039999999999990044,-0.07587096701176191
-0.0006000000000001005,-0.0766207640006904
-0.0016000000000001013,-0.07746959078060942
-0.0026000000000001022,-0.07827597622153248
-0.003600000000000103,-0.07903992032345959
-0.004600000000000104,-0.07980386442538671
-0.005600000000000105,-0.0806102498663098
-0.006600000000000106,-0.08145907664622881
-0.007600000000000107,-0.08227960920015054
-0.008600000000000108,-0.0830577004150763
-0.009600000000000108,-0.08379335029100612
-0.01060000000000011,-0.0845714415059319
-0.01160000000000011,-0.08544856251184822
-0.012600000000000111,-0.08639641908275779
-0.013600000000000112,-0.08714621607168627
-0.014600000000000113,-0.08788186594761609
-0.015600000000000114,-0.08865995716254185
-0.016600000000000115,-0.08955122528145683
-0.017600000000000116,-0.09040005206137584
-0.018600000000000116,-0.09123473172829621
-0.019600000000000117,-0.09208355850821524
-0.020600000000000118,-0.09287579683613965
-0.02160000000000012,-0.09380950629405059
-0.02260000000000012,-0.09471492152596421
-0.02360000000000012,-0.09553545407988592
-0.024600000000000122,-0.09638428085980494
-0.025600000000000123,-0.09723310763972397
-0.026600000000000124,-0.09816681709763489
-0.027600000000000124,-0.09910052655554581
-0.028600000000000125,-0.09987861777047159
-0.029600000000000126,-0.10079818011538387
-0.030600000000000127,-0.10163285978230424
-0.03160000000000013,-0.10259486346621245
-0.03260000000000013,-0.10351442581112473
-0.03360000000000013,-0.10437739970404242
-0.03460000000000002,-0.10528281493595604
-0.03560000000000002,-0.10620237728086832
-0.03660000000000002,-0.10715023385177787
-0.03760000000000002,-0.10816882598768068
-0.03860000000000002,-0.10904594699359701
-0.039600000000000024,-0.10996550933850929
-0.040600000000000025,-0.11091336590941887
-0.041600000000000026,-0.11188951670632576
-0.04260000000000003,-0.11289396172922993
-0.04360000000000003,-0.1138135240741422
-0.04460000000000003,-0.11474723353205314
-0.04560000000000003,-0.11575167855495731
-0.04660000000000003,-0.11682685914285473
-0.04760000000000003,-0.11784545127875755
-0.04860000000000003,-0.11883574918866308
-0.04960000000000003,-0.11978360575957266
-0.050600000000000034,-0.12077390366947817
-0.051600000000000035,-0.1218207900313783
-0.052600000000000036,-0.12282523505428247
-0.053600000000000037,-0.12387212141618263
-0.05460000000000004,-0.12484827221308947
-0.05560000000000004,-0.1258102758969977
-0.05660000000000004,-0.12694204493688974
-0.05760000000000004,-0.1280030784117885
-0.05860000000000004,-0.12903581766069
-0.05960000000000004,-0.13006855690959146
-0.06060000000000004,-0.13110129615849295
-0.061600000000000044,-0.13224721231138362
-0.06260000000000004,-0.13332239289928105
-0.06360000000000005,-0.1343975734871785
-0.06460000000000005,-0.1354444598490786
-0.06560000000000005,-0.13646305198498146
-0.06660000000000005,-0.13763726236386942
-0.06760000000000005,-0.13885391408175335
-0.06860000000000005,-0.1398866533306548
-0.06960000000000005,-0.1410042752575482
-0.07060000000000005,-0.1420370145064497
-0.07160000000000005,-0.14316878354634172
-0.07260000000000005,-0.14444202371622025
-0.07360000000000005,-0.14543232162612577
-0.07460000000000006,-0.1465640906660178
-0.07560000000000006,-0.14769585970590982
-0.07660000000000006,-0.14896909987578838
-0.07760000000000006,-0.1501008689156804
-0.07860000000000006,-0.1513741090855589
-0.07960000000000006,-0.15250587812545094
-0.08060000000000006,-0.15363764716534298
-0.08160000000000006,-0.15491088733522151
-0.08260000000000006,-0.15618412750510002
-0.08360000000000006,-0.15731589654499206
-0.08460000000000006,-0.1584476655848841
-0.08560000000000006,-0.15972090575476264
-0.08660000000000007,-0.16099414592464115
-0.08760000000000007,-0.1622673860945197
-0.08860000000000007,-0.16354062626439822
-0.08960000000000007,-0.16481386643427676
-0.09060000000000007,-0.1659456354741688
-0.09160000000000007,-0.16736034677403386
-0.09260000000000007,-0.16863358694391237
-0.09360000000000007,-0.16990682711379093
-0.09460000000000007,-0.17103859615368294
-0.09560000000000007,-0.17217036519357498
-0.09660000000000007,-0.17358507649344
-0.09760000000000008,-0.17485831666331855
-0.09860000000000008,-0.17627302796318356
-0.09960000000000008,-0.17754626813306212
-0.10060000000000008,-0.17881950830294063
-0.10160000000000008,-0.18023421960280567
-0.10260000000000008,-0.18164893090267073
-0.10360000000000008,-0.18306364220253574
-0.10460000000000008,-0.1843368823724143
-0.10560000000000008,-0.1856101225422928
-0.10660000000000008,-0.18716630497214437
-0.10760000000000008,-0.18858101627200938
-0.10860000000000009,-0.1899957275718744
-0.10960000000000009,-0.19126896774175295
-0.11060000000000009,-0.19268367904161798
-0.11160000000000009,-0.19423986147146954
-0.11260000000000009,-0.19565457277133455
-0.11360000000000009,-0.1972107552011861
-0.11460000000000009,-0.19862546650105112
-0.11560000000000009,-0.20004017780091618
-0.11660000000000009,-0.20145488910078121
-0.1176000000000001,-0.20301107153063278
-0.1186000000000001,-0.20456725396048434
-0.1196000000000001,-0.20598196526034934
-0.1206000000000001,-0.2075381476902009
-0.1216000000000001,-0.2089528589900659
-0.1226000000000001,-0.21065051254990397
-0.1236000000000001,-0.21220669497975553
-0.1246000000000001,-0.21362140627962053
-0.1256000000000001,-0.2151775887094721
-0.1266000000000001,-0.2167337711393236
-0.1276000000000001,-0.21843142469916169
-0.1286000000000001,-0.2199876071290132
-0.1296000000000001,-0.22154378955886472
-0.1306000000000001,-0.2232414431187028
-0.1316000000000001,-0.22479762554855431
-0.1326000000000001,-0.22649527910839237
-0.1336000000000001,-0.2281929326682304
-0.1346000000000001,-0.22974911509808196
-0.1356000000000001,-0.23144676865792
-0.1366000000000001,-0.23314442221775805
-0.1376000000000001,-0.23484207577759608
-0.1386000000000001,-0.2365397293374341
-0.1396000000000001,-0.2382373828972722
-0.1406000000000001,-0.2399350364571102
-0.14160000000000011,-0.24163269001694826
-0.14260000000000012,-0.24347181470677282
-0.14360000000000012,-0.24516946826661082
-0.14460000000000012,-0.2468671218264489
-0.14560000000000012,-0.2485647753862869
-0.14660000000000012,-0.25040390007611146
-0.14760000000000012,-0.252243024765936
-0.14860000000000012,-0.25394067832577405
-0.14960000000000012,-0.2557798030155986
-0.15060000000000012,-0.2574774565754367
-0.15160000000000012,-0.25931658126526125
-0.15260000000000012,-0.26129717708507233
-0.15360000000000013,-0.2631363017748969
-0.15460000000000013,-0.2649754264647214
-0.15560000000000013,-0.26681455115454594
-0.15660000000000013,-0.268795146974357
-0.15760000000000013,-0.27077574279416805
-0.15860000000000013,-0.2726148674839926
-0.15960000000000002,-0.27445399217381716
-0.16060000000000002,-0.2764345879936282
-0.16160000000000002,-0.27841518381343927
-0.16260000000000002,-0.2805372507632368
-0.16360000000000002,-0.2823763754530613
-0.16460000000000002,-0.2843569712728724
-0.16560000000000002,-0.28647903822266996
-0.16660000000000003,-0.288742576302454
-0.16760000000000003,-0.29072317212226506
-0.16860000000000003,-0.2927037679420761
-0.16960000000000003,-0.2946843637618871
-0.17060000000000003,-0.29680643071168467
-0.17160000000000003,-0.2989284976614822
-0.17260000000000003,-0.30105056461127977
-0.17360000000000003,-0.3031726315610774
-0.17460000000000003,-0.30529469851087493
-0.17560000000000003,-0.30727529433068596
-0.17660000000000003,-0.30953883241047003
-0.17760000000000004,-0.31180237049025405
-0.17860000000000004,-0.3139244374400516
-0.17960000000000004,-0.3161879755198357
-0.18060000000000004,-0.31831004246963324
-0.18160000000000004,-0.3205735805494173
-0.18260000000000004,-0.32297858975918786
-0.18360000000000004,-0.3252421278389719
-0.18460000000000004,-0.32750566591875596
-0.18560000000000004,-0.32976920399854004
-0.18660000000000004,-0.33217421320831064
-0.18760000000000004,-0.3345792224180812
-0.18860000000000005,-0.33698423162785174
-0.18960000000000005,-0.3393892408376223
-0.19060000000000005,-0.3417942500473929
-0.19160000000000005,-0.34434073038714996
-0.19260000000000005,-0.3467457395969205
-0.19360000000000005,-0.3492922199366776
-0.19460000000000005,-0.35169722914644813
-0.19560000000000005,-0.3542437094862052
-0.19660000000000005,-0.3567901898259622
-0.19760000000000005,-0.35933667016571935
-0.19860000000000005,-0.36188315050547637
-0.19960000000000006,-0.36442963084523344
-0.20060000000000006,-0.3669761111849905
-0.20160000000000006,-0.36966406265473406
-0.20260000000000006,-0.3723520141244776
-0.20360000000000006,-0.37518143672420773
-0.20460000000000006,-0.37786938819395127
-0.20560000000000006,-0.38055733966369487
-0.20660000000000006,-0.3832452911334384
-0.20760000000000006,-0.386216184863155
-0.20860000000000006,-0.3890456074628851
-0.20960000000000006,-0.3917335589326287
-0.21060000000000006,-0.3945629815323587
-0.21160000000000007,-0.39739240413208876
-0.21260000000000007,-0.40036329786180536
-0.21360000000000007,-0.40333419159152195
-0.21460000000000007,-0.406163614191252
-0.21560000000000007,-0.40913450792096867
-0.21660000000000007,-0.4122468727806717
-0.21760000000000007,-0.41550070877036127
-0.21860000000000007,-0.4186130736300644
-0.21960000000000007,-0.42172543848976746
-0.22060000000000007,-0.4248378033494705
-0.22160000000000007,-0.4279501682091736
-0.22260000000000008,-0.4313454753288497
-0.22360000000000008,-0.43459931131853924
-0.22460000000000008,-0.4378531473082289
-0.22560000000000008,-0.4411069832979185
-0.22660000000000008,-0.44450229041759454
-0.22760000000000008,-0.4480390686672571
-0.22860000000000008,-0.4514343757869332
-0.22960000000000008,-0.4549711540365957
-0.23060000000000008,-0.4585079322862584
-0.23160000000000008,-0.462044710535921
-0.23260000000000008,-0.4657229599155701
-0.23360000000000009,-0.4694012092952191
-0.2346000000000001,-0.4730794586748682
-0.2356000000000001,-0.47675770805451734
-0.2366000000000001,-0.4804359574341665
-0.2376000000000001,-0.48439714907378856
-0.2386000000000001,-0.4882168695834242
-0.2396000000000001,-0.4921780612230462
-0.2406000000000001,-0.49613925286266836
-0.2416000000000001,-0.5001004445022904
-0.2426000000000001,-0.5043445784018855
-0.2436000000000001,-0.5084472411714941
-0.2446000000000001,-0.5125499039411028
-0.2456000000000001,-0.5167940378406979
-0.2466000000000001,-0.521038171740293
-0.2476000000000001,-0.5255652478998613
-0.2486000000000001,-0.5299508529294428
-0.2496000000000001,-0.5343364579590244
-0.2506000000000001,-0.5388635341185926
-0.2516000000000001,-0.5435320814081471
-0.2526000000000001,-0.5482006286977017
-0.2536000000000001,-0.5530106471172429
-0.2546000000000001,-0.5576791944067975
-0.2556000000000001,-0.5626306839563251
-0.2566000000000001,-0.5675821735058527
-0.2576000000000001,-0.5726751341853669
-0.2586000000000001,-0.577768094864881
-0.2596000000000001,-0.5830025266743816
-0.2606000000000001,-0.5880954873538957
-0.2616000000000001,-0.5934713902933829
-0.2626000000000001,-0.5988472932328701
-0.2636000000000001,-0.6043646673023436
-0.2646000000000001,-0.6098820413718172
-0.2656000000000001,-0.615399415441291
-0.2666000000000001,-0.6209167895107646
-0.2676000000000001,-0.6268585769701978
-0.2686000000000001,-0.6326588932996443
-0.2696000000000001,-0.638742151889064
-0.2706000000000001,-0.6446839393484972
-0.2716000000000001,-0.6507671979379168
-0.2726000000000001,-0.6569919276573231
-0.2736000000000001,-0.6633581285067156
-0.2746000000000001,-0.6697243293561084
-0.2756000000000001,-0.6762320013354877
-0.2766000000000001,-0.6827396733148667
-0.2776000000000001,-0.6895302875542189
-0.2786000000000001,-0.6963209017935711
-0.2796000000000001,-0.7029700449029368
-0.2806000000000001,-0.7099021302722753
-0.28160000000000013,-0.7166927445116276
-0.28260000000000013,-0.7239077721409393
-0.28360000000000013,-0.7309813286402644
-0.2846,-0.7381963562695761
-0.2856,-0.7454113838988878
-0.2866,-0.7527678826581861
-0.2876,-0.7601243814174842
-0.2886,-0.7677638224367553
-0.2896,-0.7751203211960536
-0.2906,-0.7827597622153247
-0.2916,-0.7903992032345959
-0.2926,-0.7980386442538671
-0.2936,-0.8059610275331113
-0.29460000000000003,-0.8136004685523825
-0.29560000000000003,-0.8212399095716538
-0.29660000000000003,-0.8290208217209115
-0.29760000000000003,-0.8368017338701692
-0.29860000000000003,-0.8444411748894404
-0.29960000000000003,-0.8523635581686846
-0.30060000000000003,-0.8601444703179423
-0.30160000000000003,-0.8679253824672
-0.30260000000000004,-0.8757062946164578
-0.30360000000000004,-0.8836286778957019
-0.30460000000000004,-0.8914095900449596
-0.30560000000000004,-0.8990490310642308
-0.30660000000000004,-0.9068299432134885
-0.30760000000000004,-0.9146108553627462
-0.30860000000000004,-0.9221088252520309
-0.30960000000000004,-0.9296067951413157
-0.31060000000000004,-0.9369632939006136
-0.31160000000000004,-0.9444612637898985
-0.31260000000000004,-0.9518177625491967
-0.31360000000000005,-0.9590327901785084
-0.31460000000000005,-0.9661063466778336
-0.31560000000000005,-0.9731799031771587
-0.31660000000000005,-0.9799705174165111
-0.31760000000000005,-0.9869026027858494
-0.31860000000000005,-0.9936932170252017
-0.31960000000000005,-1.0003423601345676
-0.32060000000000005,-1.00670856098396
-0.32160000000000005,-1.0130747618333529
-0.32260000000000005,-1.019299491552759
-0.32360000000000005,-1.025241279012192
-0.32460000000000006,-1.0310415953416388
-0.32560000000000006,-1.0365589694111124
-0.32660000000000006,-1.042076343480586
-0.32760000000000006,-1.0475937175500596
-0.32860000000000006,-1.0528281493595604
-0.32960000000000006,-1.0577796389090879
-0.33060000000000006,-1.062589657328629
-0.33160000000000006,-1.066975262358211
-0.33260000000000006,-1.0715023385177789
-0.33360000000000006,-1.076029414677347
-0.33460000000000006,-1.0801320774469554
-0.33560000000000006,-1.0840932690865777
-0.33660000000000007,-1.0877715184662267
-0.33760000000000007,-1.0914497678458759
-0.33860000000000007,-1.0949865460955384
-0.33960000000000007,-1.098240382085228
-0.34060000000000007,-1.1012112758149446
-0.34160000000000007,-1.1043236406746475
-0.34260000000000007,-1.107294534404364
-0.34360000000000007,-1.1099824858741079
-0.3446000000000001,-1.112528966213865
-0.3456000000000001,-1.114792504293649
-0.3466000000000001,-1.1171975135034193
-0.34759999999999996,-1.1194610515832033
-0.3486000000000001,-1.1215831185330012
-0.34959999999999997,-1.123563714352812
-0.3506000000000001,-1.1252613679126502
-0.35159999999999997,-1.1269590214724883
-0.3526000000000001,-1.1285152039023398
-0.35359999999999997,-1.1300713863321914
-0.3546000000000001,-1.1314860976320564
-0.35559999999999997,-1.1327593378019347
-0.3566000000000001,-1.1340325779718134
-0.3576,-1.1353058181416917
-0.3586000000000001,-1.136437587181584
-0.3596,-1.137569356221476
-0.3606000000000001,-1.1385596541313816
-0.3616,-1.139549952041287
-0.3626000000000001,-1.1405402499511925
-0.3636,-1.141530547861098
-0.3646000000000001,-1.142379374641017
-0.3656,-1.1433696725509228
-0.3666000000000001,-1.1440770282008552
-0.3676,-1.1449258549807741
-0.3686000000000001,-1.1459161528906798
-0.3696,-1.1466235085406122
-0.3706000000000001,-1.1476138064505177
-0.3716,-1.1484626332304368
-0.3726000000000001,-1.1491699888803693
-0.3736,-1.1501602867902747
-0.3746000000000001,-1.1510091135701939
-0.3756,-1.151857940350113
-0.3766000000000001,-1.152706767130032
-0.3776,-1.1536970650399374
-0.3786000000000001,-1.1548288340798294
-0.3796,-1.1558191319897348
-0.3806000000000001,-1.1568094298996403
-0.3816,-1.1579411989395323
-0.3826000000000001,-1.1590729679794245
-0.3836,-1.1602047370193165
-0.3846000000000001,-1.1614779771891952
-0.3856,-1.1626097462290872
-0.3866000000000001,-1.1638829863989655
-0.3876,-1.1651562265688442
-0.3886000000000001,-1.1665709378687095
-0.3896,-1.1679856491685743
-0.3906000000000001,-1.1692588893384528
-0.3916,-1.1706736006383178
-0.3926000000000001,-1.1723712541981557
-0.3936,-1.1739274366280075
-0.3946000000000001,-1.175483619057859
-0.3956,-1.1770398014877106
-0.3966000000000001,-1.178595983917562
-0.3976,-1.1804351086073865
-0.3986000000000001,-1.1821327621672248
-0.3996,-1.1839718868570492
-0.4006000000000001,-1.1856695404168873
-0.4016,-1.1873671939767252
-0.4026000000000001,-1.1893477897965363
-0.4036,-1.1913283856163475
-0.4046000000000001,-1.1931675103061719
-0.4056,-1.195148106125983
-0.40660000000000013,-1.1971287019457941
-0.4076,-1.1992507688955918
-0.40860000000000013,-1.201372835845389
-0.4096,-1.2034949027951867
-0.41060000000000013,-1.2056169697449843
-0.4116,-1.207739036694782
-0.41260000000000013,-1.210002574774566
-0.4136,-1.2124075839843365
-0.41460000000000014,-1.2146711220641204
-0.4156,-1.2170761312738911
-0.41660000000000014,-1.2194811404836614
-0.4176,-1.2218861496934323
-0.41860000000000014,-1.2245741011631757
-0.41960000000000003,-1.2269791103729464
-0.42060000000000014,-1.2293841195827169
-0.42160000000000003,-1.232213542182447
-0.42260000000000014,-1.2351844359121635
-0.42360000000000003,-1.237872387381907
-0.42460000000000014,-1.2405603388516506
-0.42560000000000003,-1.2432482903213944
-0.42660000000000015,-1.2460777129211242
-0.42760000000000004,-1.2490486066508408
-0.42860000000000015,-1.2520195003805574
-0.42960000000000004,-1.2548489229802875
-0.43060000000000015,-1.2576783455800176
-0.43160000000000004,-1.2606492393097344
-0.43260000000000015,-1.2636201330394508
-0.43360000000000004,-1.2667324978991539
-0.43460000000000015,-1.2698448627588568
-0.43560000000000004,-1.27295722761856
-0.43660000000000015,-1.2759281213482767
-0.43760000000000004,-1.2793234284679527
-0.43860000000000016,-1.2825772644576423
-0.43960000000000005,-1.2856896293173452
-0.44060000000000016,-1.2888019941770483
-0.44160000000000005,-1.2919143590367514
-0.44260000000000016,-1.2954511372864141
-0.44360000000000005,-1.2989879155360766
