July 11, 2024   04:23:25
Linear Sweep Voltammetry
File: c:/users/guazh/data/20240709_batch67/2024-07-10-exp7\1acid_3ac-2024-07-11t04_20_11-lsvinphos\1acid_3ac_lsv_50mvs_efin_-2300mv.bin
Data Source:  Experiment
Instrument Model:  CHI760E
Header: LSV ran at 50 mVs with Efin at -2300mV
Note: 

Init E (V) = -0.6
Final E (V) = -2.3
Scan Rate (V/s) = 0.05
Sample Interval (V) = 0.001
Quiet Time (sec) = 2
Sensitivity (A/V) = 1e-4
Comp R (ohm) = 8.9

Results:

Channel 1:
Ep = -1.906V
ip = 7.530e-4A
Ah = 1.091e-3C

Potential/V, Current/A

-0.600, 2.537e-6
-0.601, 2.614e-6
-0.602, 2.657e-6
-0.603, 2.689e-6
-0.604, 2.719e-6
-0.605, 2.750e-6
-0.606, 2.783e-6
-0.607, 2.815e-6
-0.608, 2.843e-6
-0.609, 2.870e-6
-0.610, 2.901e-6
-0.611, 2.934e-6
-0.612, 2.966e-6
-0.613, 2.992e-6
-0.614, 3.021e-6
-0.615, 3.052e-6
-0.616, 3.084e-6
-0.617, 3.117e-6
-0.618, 3.145e-6
-0.619, 3.174e-6
-0.620, 3.204e-6
-0.621, 3.237e-6
-0.622, 3.269e-6
-0.623, 3.297e-6
-0.624, 3.327e-6
-0.625, 3.358e-6
-0.626, 3.393e-6
-0.627, 3.427e-6
-0.628, 3.456e-6
-0.629, 3.485e-6
-0.630, 3.517e-6
-0.631, 3.552e-6
-0.632, 3.586e-6
-0.633, 3.616e-6
-0.634, 3.647e-6
-0.635, 3.680e-6
-0.636, 3.715e-6
-0.637, 3.749e-6
-0.638, 3.781e-6
-0.639, 3.813e-6
-0.640, 3.848e-6
-0.641, 3.885e-6
-0.642, 3.920e-6
-0.643, 3.950e-6
-0.644, 3.983e-6
-0.645, 4.016e-6
-0.646, 4.054e-6
-0.647, 4.089e-6
-0.648, 4.121e-6
-0.649, 4.154e-6
-0.650, 4.186e-6
-0.651, 4.223e-6
-0.652, 4.259e-6
-0.653, 4.292e-6
-0.654, 4.326e-6
-0.655, 4.360e-6
-0.656, 4.398e-6
-0.657, 4.436e-6
-0.658, 4.469e-6
-0.659, 4.506e-6
-0.660, 4.541e-6
-0.661, 4.580e-6
-0.662, 4.619e-6
-0.663, 4.653e-6
-0.664, 4.686e-6
-0.665, 4.722e-6
-0.666, 4.763e-6
-0.667, 4.803e-6
-0.668, 4.837e-6
-0.669, 4.870e-6
-0.670, 4.906e-6
-0.671, 4.944e-6
-0.672, 4.984e-6
-0.673, 5.020e-6
-0.674, 5.055e-6
-0.675, 5.092e-6
-0.676, 5.131e-6
-0.677, 5.168e-6
-0.678, 5.205e-6
-0.679, 5.240e-6
-0.680, 5.277e-6
-0.681, 5.318e-6
-0.682, 5.356e-6
-0.683, 5.391e-6
-0.684, 5.425e-6
-0.685, 5.462e-6
-0.686, 5.503e-6
-0.687, 5.540e-6
-0.688, 5.577e-6
-0.689, 5.612e-6
-0.690, 5.647e-6
-0.691, 5.688e-6
-0.692, 5.727e-6
-0.693, 5.761e-6
-0.694, 5.797e-6
-0.695, 5.834e-6
-0.696, 5.873e-6
-0.697, 5.909e-6
-0.698, 5.942e-6
-0.699, 5.974e-6
-0.700, 6.009e-6
-0.701, 6.049e-6
-0.702, 6.087e-6
-0.703, 6.119e-6
-0.704, 6.153e-6
-0.705, 6.187e-6
-0.706, 6.221e-6
-0.707, 6.258e-6
-0.708, 6.290e-6
-0.709, 6.324e-6
-0.710, 6.358e-6
-0.711, 6.395e-6
-0.712, 6.431e-6
-0.713, 6.463e-6
-0.714, 6.494e-6
-0.715, 6.527e-6
-0.716, 6.563e-6
-0.717, 6.600e-6
-0.718, 6.630e-6
-0.719, 6.660e-6
-0.720, 6.692e-6
-0.721, 6.727e-6
-0.722, 6.759e-6
-0.723, 6.789e-6
-0.724, 6.818e-6
-0.725, 6.850e-6
-0.726, 6.882e-6
-0.727, 6.912e-6
-0.728, 6.941e-6
-0.729, 6.968e-6
-0.730, 6.998e-6
-0.731, 7.029e-6
-0.732, 7.060e-6
-0.733, 7.085e-6
-0.734, 7.112e-6
-0.735, 7.139e-6
-0.736, 7.170e-6
-0.737, 7.199e-6
-0.738, 7.224e-6
-0.739, 7.248e-6
-0.740, 7.271e-6
-0.741, 7.299e-6
-0.742, 7.327e-6
-0.743, 7.349e-6
-0.744, 7.371e-6
-0.745, 7.394e-6
-0.746, 7.419e-6
-0.747, 7.445e-6
-0.748, 7.466e-6
-0.749, 7.488e-6
-0.750, 7.510e-6
-0.751, 7.533e-6
-0.752, 7.557e-6
-0.753, 7.577e-6
-0.754, 7.595e-6
-0.755, 7.615e-6
-0.756, 7.638e-6
-0.757, 7.659e-6
-0.758, 7.675e-6
-0.759, 7.693e-6
-0.760, 7.711e-6
-0.761, 7.733e-6
-0.762, 7.752e-6
-0.763, 7.767e-6
-0.764, 7.780e-6
-0.765, 7.796e-6
-0.766, 7.815e-6
-0.767, 7.832e-6
-0.768, 7.845e-6
-0.769, 7.860e-6
-0.770, 7.873e-6
-0.771, 7.890e-6
-0.772, 7.905e-6
-0.773, 7.916e-6
-0.774, 7.928e-6
-0.775, 7.940e-6
-0.776, 7.955e-6
-0.777, 7.969e-6
-0.778, 7.977e-6
-0.779, 7.986e-6
-0.780, 7.997e-6
-0.781, 8.009e-6
-0.782, 8.021e-6
-0.783, 8.028e-6
-0.784, 8.035e-6
-0.785, 8.043e-6
-0.786, 8.054e-6
-0.787, 8.065e-6
-0.788, 8.070e-6
-0.789, 8.075e-6
-0.790, 8.082e-6
-0.791, 8.091e-6
-0.792, 8.100e-6
-0.793, 8.105e-6
-0.794, 8.108e-6
-0.795, 8.114e-6
-0.796, 8.121e-6
-0.797, 8.129e-6
-0.798, 8.130e-6
-0.799, 8.133e-6
-0.800, 8.136e-6
-0.801, 8.143e-6
-0.802, 8.148e-6
-0.803, 8.149e-6
-0.804, 8.151e-6
-0.805, 8.152e-6
-0.806, 8.158e-6
-0.807, 8.163e-6
-0.808, 8.162e-6
-0.809, 8.163e-6
-0.810, 8.164e-6
-0.811, 8.168e-6
-0.812, 8.172e-6
-0.813, 8.172e-6
-0.814, 8.171e-6
-0.815, 8.172e-6
-0.816, 8.175e-6
-0.817, 8.177e-6
-0.818, 8.174e-6
-0.819, 8.176e-6
-0.820, 8.177e-6
-0.821, 8.176e-6
-0.822, 8.176e-6
-0.823, 8.173e-6
-0.824, 8.170e-6
-0.825, 8.168e-6
-0.826, 8.170e-6
-0.827, 8.170e-6
-0.828, 8.167e-6
-0.829, 8.164e-6
-0.830, 8.160e-6
-0.831, 8.161e-6
-0.832, 8.163e-6
-0.833, 8.159e-6
-0.834, 8.153e-6
-0.835, 8.149e-6
-0.836, 8.150e-6
-0.837, 8.150e-6
-0.838, 8.146e-6
-0.839, 8.141e-6
-0.840, 8.138e-6
-0.841, 8.137e-6
-0.842, 8.136e-6
-0.843, 8.132e-6
-0.844, 8.126e-6
-0.845, 8.123e-6
-0.846, 8.123e-6
-0.847, 8.121e-6
-0.848, 8.116e-6
-0.849, 8.110e-6
-0.850, 8.107e-6
-0.851, 8.106e-6
-0.852, 8.104e-6
-0.853, 8.099e-6
-0.854, 8.094e-6
-0.855, 8.089e-6
-0.856, 8.088e-6
-0.857, 8.087e-6
-0.858, 8.082e-6
-0.859, 8.077e-6
-0.860, 8.072e-6
-0.861, 8.070e-6
-0.862, 8.070e-6
-0.863, 8.063e-6
-0.864, 8.057e-6
-0.865, 8.053e-6
-0.866, 8.051e-6
-0.867, 8.051e-6
-0.868, 8.046e-6
-0.869, 8.039e-6
-0.870, 8.036e-6
-0.871, 8.036e-6
-0.872, 8.033e-6
-0.873, 8.027e-6
-0.874, 8.021e-6
-0.875, 8.016e-6
-0.876, 8.015e-6
-0.877, 8.014e-6
-0.878, 8.008e-6
-0.879, 8.004e-6
-0.880, 7.998e-6
-0.881, 7.997e-6
-0.882, 7.995e-6
-0.883, 7.989e-6
-0.884, 7.984e-6
-0.885, 7.979e-6
-0.886, 7.980e-6
-0.887, 7.977e-6
-0.888, 7.971e-6
-0.889, 7.967e-6
-0.890, 7.962e-6
-0.891, 7.961e-6
-0.892, 7.961e-6
-0.893, 7.954e-6
-0.894, 7.949e-6
-0.895, 7.945e-6
-0.896, 7.944e-6
-0.897, 7.943e-6
-0.898, 7.937e-6
-0.899, 7.933e-6
-0.900, 7.929e-6
-0.901, 7.927e-6
-0.902, 7.927e-6
-0.903, 7.922e-6
-0.904, 7.917e-6
-0.905, 7.912e-6
-0.906, 7.912e-6
-0.907, 7.909e-6
-0.908, 7.905e-6
-0.909, 7.906e-6
-0.910, 7.914e-6
-0.911, 7.913e-6
-0.912, 7.912e-6
-0.913, 7.908e-6
-0.914, 7.905e-6
-0.915, 7.902e-6
-0.916, 7.901e-6
-0.917, 7.903e-6
-0.918, 7.897e-6
-0.919, 7.891e-6
-0.920, 7.887e-6
-0.921, 7.888e-6
-0.922, 7.887e-6
-0.923, 7.884e-6
-0.924, 7.879e-6
-0.925, 7.877e-6
-0.926, 7.876e-6
-0.927, 7.874e-6
-0.928, 7.870e-6
-0.929, 7.866e-6
-0.930, 7.861e-6
-0.931, 7.862e-6
-0.932, 7.863e-6
-0.933, 7.859e-6
-0.934, 7.854e-6
-0.935, 7.852e-6
-0.936, 7.850e-6
-0.937, 7.852e-6
-0.938, 7.848e-6
-0.939, 7.844e-6
-0.940, 7.841e-6
-0.941, 7.842e-6
-0.942, 7.841e-6
-0.943, 7.837e-6
-0.944, 7.833e-6
-0.945, 7.830e-6
-0.946, 7.830e-6
-0.947, 7.831e-6
-0.948, 7.828e-6
-0.949, 7.824e-6
-0.950, 7.822e-6
-0.951, 7.823e-6
-0.952, 7.823e-6
-0.953, 7.820e-6
-0.954, 7.815e-6
-0.955, 7.814e-6
-0.956, 7.816e-6
-0.957, 7.817e-6
-0.958, 7.814e-6
-0.959, 7.810e-6
-0.960, 7.809e-6
-0.961, 7.810e-6
-0.962, 7.812e-6
-0.963, 7.808e-6
-0.964, 7.805e-6
-0.965, 7.802e-6
-0.966, 7.805e-6
-0.967, 7.804e-6
-0.968, 7.801e-6
-0.969, 7.797e-6
-0.970, 7.795e-6
-0.971, 7.796e-6
-0.972, 7.798e-6
-0.973, 7.796e-6
-0.974, 7.793e-6
-0.975, 7.790e-6
-0.976, 7.793e-6
-0.977, 7.794e-6
-0.978, 7.791e-6
-0.979, 7.789e-6
-0.980, 7.788e-6
-0.981, 7.788e-6
-0.982, 7.791e-6
-0.983, 7.787e-6
-0.984, 7.784e-6
-0.985, 7.784e-6
-0.986, 7.786e-6
-0.987, 7.788e-6
-0.988, 7.785e-6
-0.989, 7.783e-6
-0.990, 7.782e-6
-0.991, 7.782e-6
-0.992, 7.785e-6
-0.993, 7.782e-6
-0.994, 7.780e-6
-0.995, 7.779e-6
-0.996, 7.780e-6
-0.997, 7.782e-6
-0.998, 7.780e-6
-0.999, 7.778e-6
-1.000, 7.778e-6
-1.001, 7.780e-6
-1.002, 7.781e-6
-1.003, 7.779e-6
-1.004, 7.778e-6
-1.005, 7.778e-6
-1.006, 7.779e-6
-1.007, 7.780e-6
-1.008, 7.778e-6
-1.009, 7.776e-6
-1.010, 7.775e-6
-1.011, 7.779e-6
-1.012, 7.781e-6
-1.013, 7.778e-6
-1.014, 7.777e-6
-1.015, 7.777e-6
-1.016, 7.779e-6
-1.017, 7.782e-6
-1.018, 7.781e-6
-1.019, 7.780e-6
-1.020, 7.779e-6
-1.021, 7.782e-6
-1.022, 7.784e-6
-1.023, 7.782e-6
-1.024, 7.781e-6
-1.025, 7.782e-6
-1.026, 7.784e-6
-1.027, 7.786e-6
-1.028, 7.785e-6
-1.029, 7.784e-6
-1.030, 7.783e-6
-1.031, 7.787e-6
-1.032, 7.789e-6
-1.033, 7.787e-6
-1.034, 7.788e-6
-1.035, 7.788e-6
-1.036, 7.791e-6
-1.037, 7.795e-6
-1.038, 7.794e-6
-1.039, 7.792e-6
-1.040, 7.793e-6
-1.041, 7.796e-6
-1.042, 7.800e-6
-1.043, 7.800e-6
-1.044, 7.800e-6
-1.045, 7.800e-6
-1.046, 7.803e-6
-1.047, 7.806e-6
-1.048, 7.806e-6
-1.049, 7.805e-6
-1.050, 7.806e-6
-1.051, 7.810e-6
-1.052, 7.815e-6
-1.053, 7.815e-6
-1.054, 7.814e-6
-1.055, 7.815e-6
-1.056, 7.819e-6
-1.057, 7.823e-6
-1.058, 7.822e-6
-1.059, 7.823e-6
-1.060, 7.823e-6
-1.061, 7.825e-6
-1.062, 7.831e-6
-1.063, 7.833e-6
-1.064, 7.831e-6
-1.065, 7.832e-6
-1.066, 7.836e-6
-1.067, 7.842e-6
-1.068, 7.842e-6
-1.069, 7.842e-6
-1.070, 7.845e-6
-1.071, 7.849e-6
-1.072, 7.854e-6
-1.073, 7.856e-6
-1.074, 7.854e-6
-1.075, 7.858e-6
-1.076, 7.865e-6
-1.077, 7.870e-6
-1.078, 7.871e-6
-1.079, 7.871e-6
-1.080, 7.874e-6
-1.081, 7.879e-6
-1.082, 7.883e-6
-1.083, 7.884e-6
-1.084, 7.885e-6
-1.085, 7.888e-6
-1.086, 7.894e-6
-1.087, 7.900e-6
-1.088, 7.903e-6
-1.089, 7.904e-6
-1.090, 7.906e-6
-1.091, 7.912e-6
-1.092, 7.918e-6
-1.093, 7.920e-6
-1.094, 7.921e-6
-1.095, 7.924e-6
-1.096, 7.931e-6
-1.097, 7.935e-6
-1.098, 7.938e-6
-1.099, 7.939e-6
-1.100, 7.941e-6
-1.101, 7.947e-6
-1.102, 7.955e-6
-1.103, 7.956e-6
-1.104, 7.959e-6
-1.105, 7.962e-6
-1.106, 7.967e-6
-1.107, 7.975e-6
-1.108, 7.977e-6
-1.109, 7.979e-6
-1.110, 7.984e-6
-1.111, 7.990e-6
-1.112, 7.999e-6
-1.113, 8.002e-6
-1.114, 8.003e-6
-1.115, 8.006e-6
-1.116, 8.013e-6
-1.117, 8.020e-6
-1.118, 8.025e-6
-1.119, 8.026e-6
-1.120, 8.031e-6
-1.121, 8.037e-6
-1.122, 8.045e-6
-1.123, 8.049e-6
-1.124, 8.051e-6
-1.125, 8.057e-6
-1.126, 8.065e-6
-1.127, 8.072e-6
-1.128, 8.076e-6
-1.129, 8.079e-6
-1.130, 8.083e-6
-1.131, 8.092e-6
-1.132, 8.100e-6
-1.133, 8.105e-6
-1.134, 8.110e-6
-1.135, 8.114e-6
-1.136, 8.122e-6
-1.137, 8.135e-6
-1.138, 8.143e-6
-1.139, 8.147e-6
-1.140, 8.153e-6
-1.141, 8.162e-6
-1.142, 8.173e-6
-1.143, 8.180e-6
-1.144, 8.183e-6
-1.145, 8.190e-6
-1.146, 8.200e-6
-1.147, 8.207e-6
-1.148, 8.211e-6
-1.149, 8.215e-6
-1.150, 8.221e-6
-1.151, 8.230e-6
-1.152, 8.241e-6
-1.153, 8.248e-6
-1.154, 8.254e-6
-1.155, 8.260e-6
-1.156, 8.269e-6
-1.157, 8.278e-6
-1.158, 8.285e-6
-1.159, 8.290e-6
-1.160, 8.298e-6
-1.161, 8.306e-6
-1.162, 8.317e-6
-1.163, 8.323e-6
-1.164, 8.329e-6
-1.165, 8.337e-6
-1.166, 8.347e-6
-1.167, 8.358e-6
-1.168, 8.365e-6
-1.169, 8.370e-6
-1.170, 8.378e-6
-1.171, 8.389e-6
-1.172, 8.400e-6
-1.173, 8.407e-6
-1.174, 8.415e-6
-1.175, 8.423e-6
-1.176, 8.434e-6
-1.177, 8.448e-6
-1.178, 8.457e-6
-1.179, 8.465e-6
-1.180, 8.472e-6
-1.181, 8.484e-6
-1.182, 8.498e-6
-1.183, 8.505e-6
-1.184, 8.515e-6
-1.185, 8.523e-6
-1.186, 8.534e-6
-1.187, 8.548e-6
-1.188, 8.557e-6
-1.189, 8.562e-6
-1.190, 8.571e-6
-1.191, 8.584e-6
-1.192, 8.597e-6
-1.193, 8.606e-6
-1.194, 8.615e-6
-1.195, 8.623e-6
-1.196, 8.637e-6
-1.197, 8.649e-6
-1.198, 8.660e-6
-1.199, 8.669e-6
-1.200, 8.680e-6
-1.201, 8.695e-6
-1.202, 8.709e-6
-1.203, 8.720e-6
-1.204, 8.731e-6
-1.205, 8.742e-6
-1.206, 8.757e-6
-1.207, 8.772e-6
-1.208, 8.785e-6
-1.209, 8.794e-6
-1.210, 8.805e-6
-1.211, 8.820e-6
-1.212, 8.835e-6
-1.213, 8.847e-6
-1.214, 8.857e-6
-1.215, 8.868e-6
-1.216, 8.884e-6
-1.217, 8.899e-6
-1.218, 8.911e-6
-1.219, 8.924e-6
-1.220, 8.934e-6
-1.221, 8.950e-6
-1.222, 8.967e-6
-1.223, 8.980e-6
-1.224, 8.991e-6
-1.225, 9.004e-6
-1.226, 9.020e-6
-1.227, 9.038e-6
-1.228, 9.052e-6
-1.229, 9.068e-6
-1.230, 9.081e-6
-1.231, 9.096e-6
-1.232, 9.114e-6
-1.233, 9.129e-6
-1.234, 9.139e-6
-1.235, 9.154e-6
-1.236, 9.172e-6
-1.237, 9.190e-6
-1.238, 9.206e-6
-1.239, 9.219e-6
-1.240, 9.234e-6
-1.241, 9.251e-6
-1.242, 9.270e-6
-1.243, 9.285e-6
-1.244, 9.299e-6
-1.245, 9.314e-6
-1.246, 9.333e-6
-1.247, 9.350e-6
-1.248, 9.365e-6
-1.249, 9.379e-6
-1.250, 9.394e-6
-1.251, 9.412e-6
-1.252, 9.433e-6
-1.253, 9.450e-6
-1.254, 9.465e-6
-1.255, 9.482e-6
-1.256, 9.502e-6
-1.257, 9.522e-6
-1.258, 9.537e-6
-1.259, 9.553e-6
-1.260, 9.570e-6
-1.261, 9.591e-6
-1.262, 9.612e-6
-1.263, 9.628e-6
-1.264, 9.644e-6
-1.265, 9.660e-6
-1.266, 9.679e-6
-1.267, 9.702e-6
-1.268, 9.720e-6
-1.269, 9.735e-6
-1.270, 9.753e-6
-1.271, 9.772e-6
-1.272, 9.795e-6
-1.273, 9.814e-6
-1.274, 9.831e-6
-1.275, 9.849e-6
-1.276, 9.870e-6
-1.277, 9.894e-6
-1.278, 9.913e-6
-1.279, 9.931e-6
-1.280, 9.952e-6
-1.281, 9.977e-6
-1.282, 9.998e-6
-1.283, 1.002e-5
-1.284, 1.004e-5
-1.285, 1.006e-5
-1.286, 1.008e-5
-1.287, 1.011e-5
-1.288, 1.013e-5
-1.289, 1.015e-5
-1.290, 1.017e-5
-1.291, 1.019e-5
-1.292, 1.021e-5
-1.293, 1.023e-5
-1.294, 1.025e-5
-1.295, 1.026e-5
-1.296, 1.029e-5
-1.297, 1.031e-5
-1.298, 1.033e-5
-1.299, 1.035e-5
-1.300, 1.037e-5
-1.301, 1.040e-5
-1.302, 1.042e-5
-1.303, 1.045e-5
-1.304, 1.047e-5
-1.305, 1.049e-5
-1.306, 1.051e-5
-1.307, 1.054e-5
-1.308, 1.056e-5
-1.309, 1.059e-5
-1.310, 1.061e-5
-1.311, 1.063e-5
-1.312, 1.067e-5
-1.313, 1.069e-5
-1.314, 1.071e-5
-1.315, 1.073e-5
-1.316, 1.076e-5
-1.317, 1.078e-5
-1.318, 1.081e-5
-1.319, 1.083e-5
-1.320, 1.085e-5
-1.321, 1.087e-5
-1.322, 1.090e-5
-1.323, 1.092e-5
-1.324, 1.094e-5
-1.325, 1.096e-5
-1.326, 1.099e-5
-1.327, 1.102e-5
-1.328, 1.104e-5
-1.329, 1.107e-5
-1.330, 1.109e-5
-1.331, 1.112e-5
-1.332, 1.115e-5
-1.333, 1.117e-5
-1.334, 1.120e-5
-1.335, 1.122e-5
-1.336, 1.125e-5
-1.337, 1.128e-5
-1.338, 1.131e-5
-1.339, 1.134e-5
-1.340, 1.136e-5
-1.341, 1.139e-5
-1.342, 1.143e-5
-1.343, 1.145e-5
-1.344, 1.148e-5
-1.345, 1.151e-5
-1.346, 1.154e-5
-1.347, 1.160e-5
-1.348, 1.165e-5
-1.349, 1.168e-5
-1.350, 1.171e-5
-1.351, 1.175e-5
-1.352, 1.178e-5
-1.353, 1.181e-5
-1.354, 1.184e-5
-1.355, 1.187e-5
-1.356, 1.190e-5
-1.357, 1.194e-5
-1.358, 1.197e-5
-1.359, 1.200e-5
-1.360, 1.202e-5
-1.361, 1.205e-5
-1.362, 1.208e-5
-1.363, 1.211e-5
-1.364, 1.214e-5
-1.365, 1.217e-5
-1.366, 1.221e-5
-1.367, 1.225e-5
-1.368, 1.228e-5
-1.369, 1.231e-5
-1.370, 1.235e-5
-1.371, 1.238e-5
-1.372, 1.242e-5
-1.373, 1.246e-5
-1.374, 1.249e-5
-1.375, 1.252e-5
-1.376, 1.256e-5
-1.377, 1.260e-5
-1.378, 1.264e-5
-1.379, 1.267e-5
-1.380, 1.271e-5
-1.381, 1.275e-5
-1.382, 1.279e-5
-1.383, 1.283e-5
-1.384, 1.287e-5
-1.385, 1.291e-5
-1.386, 1.295e-5
-1.387, 1.299e-5
-1.388, 1.303e-5
-1.389, 1.307e-5
-1.390, 1.311e-5
-1.391, 1.315e-5
-1.392, 1.320e-5
-1.393, 1.324e-5
-1.394, 1.328e-5
-1.395, 1.332e-5
-1.396, 1.336e-5
-1.397, 1.341e-5
-1.398, 1.345e-5
-1.399, 1.350e-5
-1.400, 1.354e-5
-1.401, 1.359e-5
-1.402, 1.364e-5
-1.403, 1.369e-5
-1.404, 1.373e-5
-1.405, 1.378e-5
-1.406, 1.383e-5
-1.407, 1.388e-5
-1.408, 1.392e-5
-1.409, 1.397e-5
-1.410, 1.402e-5
-1.411, 1.407e-5
-1.412, 1.413e-5
-1.413, 1.418e-5
-1.414, 1.422e-5
-1.415, 1.427e-5
-1.416, 1.432e-5
-1.417, 1.438e-5
-1.418, 1.444e-5
-1.419, 1.449e-5
-1.420, 1.454e-5
-1.421, 1.460e-5
-1.422, 1.466e-5
-1.423, 1.471e-5
-1.424, 1.477e-5
-1.425, 1.482e-5
-1.426, 1.488e-5
-1.427, 1.495e-5
-1.428, 1.501e-5
-1.429, 1.506e-5
-1.430, 1.512e-5
-1.431, 1.519e-5
-1.432, 1.526e-5
-1.433, 1.532e-5
-1.434, 1.538e-5
-1.435, 1.545e-5
-1.436, 1.551e-5
-1.437, 1.558e-5
-1.438, 1.565e-5
-1.439, 1.571e-5
-1.440, 1.578e-5
-1.441, 1.585e-5
-1.442, 1.592e-5
-1.443, 1.600e-5
-1.444, 1.607e-5
-1.445, 1.614e-5
-1.446, 1.622e-5
-1.447, 1.630e-5
-1.448, 1.637e-5
-1.449, 1.645e-5
-1.450, 1.652e-5
-1.451, 1.660e-5
-1.452, 1.669e-5
-1.453, 1.677e-5
-1.454, 1.685e-5
-1.455, 1.693e-5
-1.456, 1.701e-5
-1.457, 1.710e-5
-1.458, 1.719e-5
-1.459, 1.727e-5
-1.460, 1.736e-5
-1.461, 1.745e-5
-1.462, 1.755e-5
-1.463, 1.764e-5
-1.464, 1.773e-5
-1.465, 1.782e-5
-1.466, 1.791e-5
-1.467, 1.801e-5
-1.468, 1.811e-5
-1.469, 1.820e-5
-1.470, 1.830e-5
-1.471, 1.840e-5
-1.472, 1.851e-5
-1.473, 1.861e-5
-1.474, 1.871e-5
-1.475, 1.882e-5
-1.476, 1.893e-5
-1.477, 1.904e-5
-1.478, 1.915e-5
-1.479, 1.926e-5
-1.480, 1.937e-5
-1.481, 1.949e-5
-1.482, 1.961e-5
-1.483, 1.972e-5
-1.484, 1.983e-5
-1.485, 1.995e-5
-1.486, 2.007e-5
-1.487, 2.019e-5
-1.488, 2.031e-5
-1.489, 2.044e-5
-1.490, 2.056e-5
-1.491, 2.068e-5
-1.492, 2.082e-5
-1.493, 2.094e-5
-1.494, 2.107e-5
-1.495, 2.120e-5
-1.496, 2.133e-5
-1.497, 2.147e-5
-1.498, 2.161e-5
-1.499, 2.174e-5
-1.500, 2.188e-5
-1.501, 2.201e-5
-1.502, 2.216e-5
-1.503, 2.230e-5
-1.504, 2.244e-5
-1.505, 2.258e-5
-1.506, 2.272e-5
-1.507, 2.288e-5
-1.508, 2.305e-5
-1.509, 2.321e-5
-1.510, 2.336e-5
-1.511, 2.351e-5
-1.512, 2.367e-5
-1.513, 2.383e-5
-1.514, 2.398e-5
-1.515, 2.414e-5
-1.516, 2.430e-5
-1.517, 2.446e-5
-1.518, 2.463e-5
-1.519, 2.478e-5
-1.520, 2.494e-5
-1.521, 2.511e-5
-1.522, 2.527e-5
-1.523, 2.544e-5
-1.524, 2.560e-5
-1.525, 2.577e-5
-1.526, 2.594e-5
-1.527, 2.611e-5
-1.528, 2.628e-5
-1.529, 2.645e-5
-1.530, 2.662e-5
-1.531, 2.679e-5
-1.532, 2.697e-5
-1.533, 2.715e-5
-1.534, 2.733e-5
-1.535, 2.750e-5
-1.536, 2.768e-5
-1.537, 2.787e-5
-1.538, 2.805e-5
-1.539, 2.823e-5
-1.540, 2.841e-5
-1.541, 2.859e-5
-1.542, 2.879e-5
-1.543, 2.898e-5
-1.544, 2.917e-5
-1.545, 2.935e-5
-1.546, 2.955e-5
-1.547, 2.975e-5
-1.548, 2.994e-5
-1.549, 3.013e-5
-1.550, 3.032e-5
-1.551, 3.052e-5
-1.552, 3.073e-5
-1.553, 3.094e-5
-1.554, 3.114e-5
-1.555, 3.135e-5
-1.556, 3.155e-5
-1.557, 3.176e-5
-1.558, 3.199e-5
-1.559, 3.220e-5
-1.560, 3.241e-5
-1.561, 3.262e-5
-1.562, 3.284e-5
-1.563, 3.306e-5
-1.564, 3.328e-5
-1.565, 3.350e-5
-1.566, 3.372e-5
-1.567, 3.396e-5
-1.568, 3.419e-5
-1.569, 3.442e-5
-1.570, 3.464e-5
-1.571, 3.488e-5
-1.572, 3.512e-5
-1.573, 3.536e-5
-1.574, 3.560e-5
-1.575, 3.584e-5
-1.576, 3.609e-5
-1.577, 3.635e-5
-1.578, 3.659e-5
-1.579, 3.684e-5
-1.580, 3.710e-5
-1.581, 3.736e-5
-1.582, 3.762e-5
-1.583, 3.788e-5
-1.584, 3.814e-5
-1.585, 3.841e-5
-1.586, 3.868e-5
-1.587, 3.896e-5
-1.588, 3.925e-5
-1.589, 3.952e-5
-1.590, 3.980e-5
-1.591, 4.009e-5
-1.592, 4.039e-5
-1.593, 4.068e-5
-1.594, 4.097e-5
-1.595, 4.126e-5
-1.596, 4.157e-5
-1.597, 4.187e-5
-1.598, 4.219e-5
-1.599, 4.250e-5
-1.600, 4.281e-5
-1.601, 4.313e-5
-1.602, 4.345e-5
-1.603, 4.377e-5
-1.604, 4.409e-5
-1.605, 4.442e-5
-1.606, 4.476e-5
-1.607, 4.510e-5
-1.608, 4.545e-5
-1.609, 4.580e-5
-1.610, 4.615e-5
-1.611, 4.651e-5
-1.612, 4.687e-5
-1.613, 4.725e-5
-1.614, 4.762e-5
-1.615, 4.798e-5
-1.616, 4.836e-5
-1.617, 4.875e-5
-1.618, 4.914e-5
-1.619, 4.953e-5
-1.620, 4.991e-5
-1.621, 5.031e-5
-1.622, 5.073e-5
-1.623, 5.114e-5
-1.624, 5.155e-5
-1.625, 5.197e-5
-1.626, 5.240e-5
-1.627, 5.284e-5
-1.628, 5.328e-5
-1.629, 5.372e-5
-1.630, 5.415e-5
-1.631, 5.459e-5
-1.632, 5.506e-5
-1.633, 5.553e-5
-1.634, 5.600e-5
-1.635, 5.647e-5
-1.636, 5.695e-5
-1.637, 5.744e-5
-1.638, 5.794e-5
-1.639, 5.845e-5
-1.640, 5.894e-5
-1.641, 5.945e-5
-1.642, 5.997e-5
-1.643, 6.050e-5
-1.644, 6.103e-5
-1.645, 6.155e-5
-1.646, 6.208e-5
-1.647, 6.264e-5
-1.648, 6.321e-5
-1.649, 6.377e-5
-1.650, 6.433e-5
-1.651, 6.490e-5
-1.652, 6.548e-5
-1.653, 6.608e-5
-1.654, 6.667e-5
-1.655, 6.726e-5
-1.656, 6.785e-5
-1.657, 6.848e-5
-1.658, 6.912e-5
-1.659, 6.974e-5
-1.660, 7.036e-5
-1.661, 7.100e-5
-1.662, 7.167e-5
-1.663, 7.233e-5
-1.664, 7.300e-5
-1.665, 7.367e-5
-1.666, 7.435e-5
-1.667, 7.504e-5
-1.668, 7.573e-5
-1.669, 7.644e-5
-1.670, 7.714e-5
-1.671, 7.786e-5
-1.672, 7.860e-5
-1.673, 7.935e-5
-1.674, 8.011e-5
-1.675, 8.086e-5
-1.676, 8.162e-5
-1.677, 8.241e-5
-1.678, 8.320e-5
-1.679, 8.399e-5
-1.680, 8.478e-5
-1.681, 8.558e-5
-1.682, 8.641e-5
-1.683, 8.725e-5
-1.684, 8.811e-5
-1.685, 8.894e-5
-1.686, 8.980e-5
-1.687, 9.068e-5
-1.688, 9.155e-5
-1.689, 9.244e-5
-1.690, 9.334e-5
-1.691, 9.426e-5
-1.692, 9.518e-5
-1.693, 9.613e-5
-1.694, 9.707e-5
-1.695, 9.802e-5
-1.696, 9.897e-5
-1.697, 9.996e-5
-1.698, 1.010e-4
-1.699, 1.020e-4
-1.700, 1.030e-4
-1.701, 1.040e-4
-1.702, 1.050e-4
-1.703, 1.061e-4
-1.704, 1.072e-4
-1.705, 1.082e-4
-1.706, 1.093e-4
-1.707, 1.104e-4
-1.708, 1.116e-4
-1.709, 1.127e-4
-1.710, 1.138e-4
-1.711, 1.150e-4
-1.712, 1.162e-4
-1.713, 1.174e-4
-1.714, 1.186e-4
-1.715, 1.198e-4
-1.716, 1.211e-4
-1.717, 1.223e-4
-1.718, 1.236e-4
-1.719, 1.249e-4
-1.720, 1.262e-4
-1.721, 1.275e-4
-1.722, 1.289e-4
-1.723, 1.302e-4
-1.724, 1.316e-4
-1.725, 1.330e-4
-1.726, 1.344e-4
-1.727, 1.359e-4
-1.728, 1.374e-4
-1.729, 1.388e-4
-1.730, 1.403e-4
-1.731, 1.418e-4
-1.732, 1.434e-4
-1.733, 1.450e-4
-1.734, 1.465e-4
-1.735, 1.481e-4
-1.736, 1.498e-4
-1.737, 1.514e-4
-1.738, 1.532e-4
-1.739, 1.549e-4
-1.740, 1.566e-4
-1.741, 1.584e-4
-1.742, 1.602e-4
-1.743, 1.621e-4
-1.744, 1.639e-4
-1.745, 1.658e-4
-1.746, 1.677e-4
-1.747, 1.697e-4
-1.748, 1.717e-4
-1.749, 1.737e-4
-1.750, 1.758e-4
-1.751, 1.779e-4
-1.752, 1.800e-4
-1.753, 1.823e-4
-1.754, 1.845e-4
-1.755, 1.867e-4
-1.756, 1.890e-4
-1.757, 1.915e-4
-1.758, 1.939e-4
-1.759, 1.964e-4
-1.760, 1.989e-4
-1.761, 2.015e-4
-1.762, 2.041e-4
-1.763, 2.069e-4
-1.764, 2.097e-4
-1.765, 2.125e-4
-1.766, 2.155e-4
-1.767, 2.186e-4
-1.768, 2.217e-4
-1.769, 2.250e-4
-1.770, 2.284e-4
-1.771, 2.319e-4
-1.772, 2.355e-4
-1.773, 2.393e-4
-1.774, 2.432e-4
-1.775, 2.472e-4
-1.776, 2.513e-4
-1.777, 2.556e-4
-1.778, 2.599e-4
-1.779, 2.636e-4
-1.780, 2.680e-4
-1.781, 2.725e-4
-1.782, 2.773e-4
-1.783, 2.822e-4
-1.784, 2.871e-4
-1.785, 2.921e-4
-1.786, 2.972e-4
-1.787, 3.023e-4
-1.788, 3.074e-4
-1.789, 3.126e-4
-1.790, 3.179e-4
-1.791, 3.231e-4
-1.792, 3.283e-4
-1.793, 3.335e-4
-1.794, 3.388e-4
-1.795, 3.440e-4
-1.796, 3.492e-4
-1.797, 3.545e-4
-1.798, 3.598e-4
-1.799, 3.651e-4
-1.800, 3.703e-4
-1.801, 3.756e-4
-1.802, 3.809e-4
-1.803, 3.862e-4
-1.804, 3.914e-4
-1.805, 3.967e-4
-1.806, 4.020e-4
-1.807, 4.073e-4
-1.808, 4.126e-4
-1.809, 4.179e-4
-1.810, 4.232e-4
-1.811, 4.285e-4
-1.812, 4.338e-4
-1.813, 4.392e-4
-1.814, 4.445e-4
-1.815, 4.498e-4
-1.816, 4.552e-4
-1.817, 4.605e-4
-1.818, 4.660e-4
-1.819, 4.714e-4
-1.820, 4.768e-4
-1.821, 4.821e-4
-1.822, 4.876e-4
-1.823, 4.931e-4
-1.824, 4.986e-4
-1.825, 5.040e-4
-1.826, 5.094e-4
-1.827, 5.149e-4
-1.828, 5.204e-4
-1.829, 5.259e-4
-1.830, 5.315e-4
-1.831, 5.370e-4
-1.832, 5.426e-4
-1.833, 5.482e-4
-1.834, 5.538e-4
-1.835, 5.595e-4
-1.836, 5.651e-4
-1.837, 5.707e-4
-1.838, 5.764e-4
-1.839, 5.821e-4
-1.840, 5.878e-4
-1.841, 5.935e-4
-1.842, 5.993e-4
-1.843, 6.051e-4
-1.844, 6.110e-4
-1.845, 6.167e-4
-1.846, 6.225e-4
-1.847, 6.284e-4
-1.848, 6.343e-4
-1.849, 6.401e-4
-1.850, 6.460e-4
-1.851, 6.517e-4
-1.852, 6.575e-4
-1.853, 6.634e-4
-1.854, 6.695e-4
-1.855, 6.755e-4
-1.856, 6.815e-4
-1.857, 6.876e-4
-1.858, 6.937e-4
-1.859, 6.998e-4
-1.860, 7.058e-4
-1.861, 7.119e-4
-1.862, 7.179e-4
-1.863, 7.242e-4
-1.864, 7.304e-4
-1.865, 7.366e-4
-1.866, 7.429e-4
-1.867, 7.492e-4
-1.868, 7.555e-4
-1.869, 7.619e-4
-1.870, 7.682e-4
-1.871, 7.746e-4
-1.872, 7.807e-4
-1.873, 7.871e-4
-1.874, 7.936e-4
-1.875, 8.000e-4
-1.876, 8.065e-4
-1.877, 8.131e-4
-1.878, 8.197e-4
-1.879, 8.264e-4
-1.880, 8.330e-4
-1.881, 8.396e-4
-1.882, 8.465e-4
-1.883, 8.533e-4
-1.884, 8.601e-4
-1.885, 8.669e-4
-1.886, 8.736e-4
-1.887, 8.807e-4
-1.888, 8.877e-4
-1.889, 8.946e-4
-1.890, 9.015e-4
-1.891, 9.085e-4
-1.892, 9.154e-4
-1.893, 9.225e-4
-1.894, 9.296e-4
-1.895, 9.367e-4
-1.896, 9.437e-4
-1.897, 9.509e-4
-1.898, 9.582e-4
-1.899, 9.653e-4
-1.900, 9.726e-4
-1.901, 9.799e-4
-1.902, 9.873e-4
-1.903, 9.946e-4
-1.904, 1.002e-3
-1.905, 1.009e-3
-1.906, 1.011e-3
-1.907, 1.011e-3
-1.908, 1.011e-3
-1.909, 1.011e-3
-1.910, 1.011e-3
-1.911, 1.011e-3
-1.912, 1.011e-3
-1.913, 1.011e-3
-1.914, 1.011e-3
-1.915, 1.011e-3
-1.916, 1.011e-3
-1.917, 1.011e-3
-1.918, 1.011e-3
-1.919, 1.011e-3
-1.920, 1.011e-3
-1.921, 1.011e-3
-1.922, 1.011e-3
-1.923, 1.011e-3
-1.924, 1.011e-3
-1.925, 1.011e-3
-1.926, 1.011e-3
-1.927, 1.011e-3
-1.928, 1.011e-3
-1.929, 1.011e-3
-1.930, 1.011e-3
-1.931, 1.011e-3
-1.932, 1.011e-3
-1.933, 1.011e-3
-1.934, 1.011e-3
-1.935, 1.011e-3
-1.936, 1.011e-3
-1.937, 1.011e-3
-1.938, 1.011e-3
-1.939, 1.011e-3
-1.940, 1.011e-3
-1.941, 1.011e-3
-1.942, 1.011e-3
-1.943, 1.011e-3
-1.944, 1.011e-3
-1.945, 1.011e-3
-1.946, 1.011e-3
-1.947, 1.011e-3
-1.948, 1.011e-3
-1.949, 1.011e-3
-1.950, 1.011e-3
-1.951, 1.011e-3
-1.952, 1.011e-3
-1.953, 1.011e-3
-1.954, 1.011e-3
-1.955, 1.011e-3
-1.956, 1.011e-3
-1.957, 1.011e-3
-1.958, 1.011e-3
-1.959, 1.011e-3
-1.960, 1.011e-3
-1.961, 1.011e-3
-1.962, 1.011e-3
-1.963, 1.011e-3
-1.964, 1.011e-3
-1.965, 1.011e-3
-1.966, 1.011e-3
-1.967, 1.011e-3
-1.968, 1.011e-3
-1.969, 1.011e-3
-1.970, 1.011e-3
-1.971, 1.011e-3
-1.972, 1.011e-3
-1.973, 1.011e-3
-1.974, 1.011e-3
-1.975, 1.011e-3
-1.976, 1.011e-3
-1.977, 1.011e-3
-1.978, 1.011e-3
-1.979, 1.011e-3
-1.980, 1.011e-3
-1.981, 1.011e-3
-1.982, 1.011e-3
-1.983, 1.011e-3
-1.984, 1.011e-3
-1.985, 1.011e-3
-1.986, 1.011e-3
-1.987, 1.011e-3
-1.988, 1.011e-3
-1.989, 1.011e-3
-1.990, 1.011e-3
-1.991, 1.011e-3
-1.992, 1.011e-3
-1.993, 1.011e-3
-1.994, 1.011e-3
-1.995, 1.011e-3
-1.996, 1.011e-3
-1.997, 1.011e-3
-1.998, 1.011e-3
-1.999, 1.011e-3
-2.000, 1.011e-3
-2.001, 1.011e-3
-2.002, 1.011e-3
-2.003, 1.011e-3
-2.004, 1.011e-3
-2.005, 1.011e-3
-2.006, 1.011e-3
-2.007, 1.011e-3
-2.008, 1.011e-3
-2.009, 1.011e-3
-2.010, 1.011e-3
-2.011, 1.011e-3
-2.012, 1.011e-3
-2.013, 1.011e-3
-2.014, 1.011e-3
-2.015, 1.011e-3
-2.016, 1.011e-3
-2.017, 1.011e-3
-2.018, 1.011e-3
-2.019, 1.011e-3
-2.020, 1.011e-3
-2.021, 1.011e-3
-2.022, 1.011e-3
-2.023, 1.011e-3
-2.024, 1.011e-3
-2.025, 1.011e-3
-2.026, 1.011e-3
-2.027, 1.011e-3
-2.028, 1.011e-3
-2.029, 1.011e-3
-2.030, 1.011e-3
-2.031, 1.011e-3
-2.032, 1.011e-3
-2.033, 1.011e-3
-2.034, 1.011e-3
-2.035, 1.011e-3
-2.036, 1.011e-3
-2.037, 1.011e-3
-2.038, 1.011e-3
-2.039, 1.011e-3
-2.040, 1.011e-3
-2.041, 1.011e-3
-2.042, 1.011e-3
-2.043, 1.011e-3
-2.044, 1.011e-3
-2.045, 1.011e-3
-2.046, 1.011e-3
-2.047, 1.011e-3
-2.048, 1.011e-3
-2.049, 1.011e-3
-2.050, 1.011e-3
-2.051, 1.011e-3
-2.052, 1.011e-3
-2.053, 1.011e-3
-2.054, 1.011e-3
-2.055, 1.011e-3
-2.056, 1.011e-3
-2.057, 1.011e-3
-2.058, 1.011e-3
-2.059, 1.011e-3
-2.060, 1.011e-3
-2.061, 1.011e-3
-2.062, 1.011e-3
-2.063, 1.011e-3
-2.064, 1.011e-3
-2.065, 1.011e-3
-2.066, 1.011e-3
-2.067, 1.011e-3
-2.068, 1.011e-3
-2.069, 1.011e-3
-2.070, 1.011e-3
-2.071, 1.011e-3
-2.072, 1.011e-3
-2.073, 1.011e-3
-2.074, 1.011e-3
-2.075, 1.011e-3
-2.076, 1.011e-3
-2.077, 1.011e-3
-2.078, 1.011e-3
-2.079, 1.011e-3
-2.080, 1.011e-3
-2.081, 1.011e-3
-2.082, 1.011e-3
-2.083, 1.011e-3
-2.084, 1.011e-3
-2.085, 1.011e-3
-2.086, 1.011e-3
-2.087, 1.011e-3
-2.088, 1.011e-3
-2.089, 1.011e-3
-2.090, 1.011e-3
-2.091, 1.011e-3
-2.092, 1.011e-3
-2.093, 1.011e-3
-2.094, 1.011e-3
-2.095, 1.011e-3
-2.096, 1.011e-3
-2.097, 1.011e-3
-2.098, 1.011e-3
-2.099, 1.011e-3
-2.100, 1.011e-3
-2.101, 1.011e-3
-2.102, 1.011e-3
-2.103, 1.011e-3
-2.104, 1.011e-3
-2.105, 1.011e-3
-2.106, 1.011e-3
-2.107, 1.011e-3
-2.108, 1.011e-3
-2.109, 1.011e-3
-2.110, 1.011e-3
-2.111, 1.011e-3
-2.112, 1.011e-3
-2.113, 1.011e-3
-2.114, 1.011e-3
-2.115, 1.011e-3
-2.116, 1.011e-3
-2.117, 1.011e-3
-2.118, 1.011e-3
-2.119, 1.011e-3
-2.120, 1.011e-3
-2.121, 1.011e-3
-2.122, 1.011e-3
-2.123, 1.011e-3
-2.124, 1.011e-3
-2.125, 1.011e-3
-2.126, 1.011e-3
-2.127, 1.011e-3
-2.128, 1.011e-3
-2.129, 1.011e-3
-2.130, 1.011e-3
-2.131, 1.011e-3
-2.132, 1.011e-3
-2.133, 1.011e-3
-2.134, 1.011e-3
-2.135, 1.011e-3
-2.136, 1.011e-3
-2.137, 1.011e-3
-2.138, 1.011e-3
-2.139, 1.011e-3
-2.140, 1.011e-3
-2.141, 1.011e-3
-2.142, 1.011e-3
-2.143, 1.011e-3
-2.144, 1.011e-3
-2.145, 1.011e-3
-2.146, 1.011e-3
-2.147, 1.011e-3
-2.148, 1.011e-3
-2.149, 1.011e-3
-2.150, 1.011e-3
-2.151, 1.011e-3
-2.152, 1.011e-3
-2.153, 1.011e-3
-2.154, 1.011e-3
-2.155, 1.011e-3
-2.156, 1.011e-3
-2.157, 1.011e-3
-2.158, 1.011e-3
-2.159, 1.011e-3
-2.160, 1.011e-3
-2.161, 1.011e-3
-2.162, 1.011e-3
-2.163, 1.011e-3
-2.164, 1.011e-3
-2.165, 1.011e-3
-2.166, 1.011e-3
-2.167, 1.011e-3
-2.168, 1.011e-3
-2.169, 1.011e-3
-2.170, 1.011e-3
-2.171, 1.011e-3
-2.172, 1.011e-3
-2.173, 1.011e-3
-2.174, 1.011e-3
-2.175, 1.011e-3
-2.176, 1.011e-3
-2.177, 1.011e-3
-2.178, 1.011e-3
-2.179, 1.011e-3
-2.180, 1.011e-3
-2.181, 1.011e-3
-2.182, 1.011e-3
-2.183, 1.011e-3
-2.184, 1.011e-3
-2.185, 1.011e-3
-2.186, 1.011e-3
-2.187, 1.011e-3
-2.188, 1.011e-3
-2.189, 1.011e-3
-2.190, 1.011e-3
-2.191, 1.011e-3
-2.192, 1.011e-3
-2.193, 1.011e-3
-2.194, 1.011e-3
-2.195, 1.011e-3
-2.196, 1.011e-3
-2.197, 1.011e-3
-2.198, 1.011e-3
-2.199, 1.011e-3
-2.200, 1.011e-3
-2.201, 1.011e-3
-2.202, 1.011e-3
-2.203, 1.011e-3
-2.204, 1.011e-3
-2.205, 1.011e-3
-2.206, 1.011e-3
-2.207, 1.011e-3
-2.208, 1.011e-3
-2.209, 1.011e-3
-2.210, 1.011e-3
-2.211, 1.011e-3
-2.212, 1.011e-3
-2.213, 1.011e-3
-2.214, 1.011e-3
-2.215, 1.011e-3
-2.216, 1.011e-3
-2.217, 1.011e-3
-2.218, 1.011e-3
-2.219, 1.011e-3
-2.220, 1.011e-3
-2.221, 1.011e-3
-2.222, 1.011e-3
-2.223, 1.011e-3
-2.224, 1.011e-3
-2.225, 1.011e-3
-2.226, 1.011e-3
-2.227, 1.011e-3
-2.228, 1.011e-3
-2.229, 1.011e-3
-2.230, 1.011e-3
-2.231, 1.011e-3
-2.232, 1.011e-3
-2.233, 1.011e-3
-2.234, 1.011e-3
-2.235, 1.011e-3
-2.236, 1.011e-3
-2.237, 1.011e-3
-2.238, 1.011e-3
-2.239, 1.011e-3
-2.240, 1.011e-3
-2.241, 1.011e-3
-2.242, 1.011e-3
-2.243, 1.011e-3
-2.244, 1.011e-3
-2.245, 1.011e-3
-2.246, 1.011e-3
-2.247, 1.011e-3
-2.248, 1.011e-3
-2.249, 1.011e-3
-2.250, 1.011e-3
-2.251, 1.011e-3
-2.252, 1.011e-3
-2.253, 1.011e-3
-2.254, 1.011e-3
-2.255, 1.011e-3
-2.256, 1.011e-3
-2.257, 1.011e-3
-2.258, 1.011e-3
-2.259, 1.011e-3
-2.260, 1.011e-3
-2.261, 1.011e-3
-2.262, 1.011e-3
-2.263, 1.011e-3
-2.264, 1.011e-3
-2.265, 1.011e-3
-2.266, 1.011e-3
-2.267, 1.011e-3
-2.268, 1.011e-3
-2.269, 1.011e-3
-2.270, 1.011e-3
-2.271, 1.011e-3
-2.272, 1.011e-3
-2.273, 1.011e-3
-2.274, 1.011e-3
-2.275, 1.011e-3
-2.276, 1.011e-3
-2.277, 1.011e-3
-2.278, 1.011e-3
-2.279, 1.011e-3
-2.280, 1.011e-3
-2.281, 1.011e-3
-2.282, 1.011e-3
-2.283, 1.011e-3
-2.284, 1.011e-3
-2.285, 1.011e-3
-2.286, 1.011e-3
-2.287, 1.011e-3
-2.288, 1.011e-3
-2.289, 1.011e-3
-2.290, 1.011e-3
-2.291, 1.011e-3
-2.292, 1.011e-3
-2.293, 1.011e-3
-2.294, 1.011e-3
-2.295, 1.011e-3
-2.296, 1.011e-3
-2.297, 1.011e-3
-2.298, 1.011e-3
-2.299, 1.011e-3
