Potential V vs RHE, Current mA cm-2
0.013299999999999867,0.1890054296619689
0.012299999999999978,0.12382968007718667
0.011299999999999866,0.0946583330739696
0.010299999999999976,0.0774978850066067
0.009299999999999864,0.06032328982624517
0.008299999999999974,0.04664303155655026
0.007299999999999862,0.03184515135996198
0.006299999999999972,0.022225114520879725
0.00529999999999986,0.013845779491779115
0.0042999999999999705,0.0019820105311109163
0.0032999999999998586,-0.007090533034923564
0.0022999999999999687,-0.014486643710617976
0.0012999999999998568,-0.02426229879268538
0.00029999999999996696,-0.03193003403795388
-0.000700000000000145,-0.0404465960631414
-0.0017000000000000348,-0.04742112277147603
-0.0027000000000001467,-0.054820062869770175
-0.0037000000000000366,-0.06069111476421007
-0.0047000000000001485,-0.0690662056594111
-0.005700000000000038,-0.0765924697746931
-0.00670000000000015,-0.08162884200221261
-0.00770000000000004,-0.08622665372677399
-0.008700000000000152,-0.09320118043510862
-0.009700000000000042,-0.09823755266262815
-0.010700000000000154,-0.10673996757481702
-0.011700000000000044,-0.11149339754236354
-0.012700000000000156,-0.11623268039691143
-0.013700000000000045,-0.12126905262443094
-0.014700000000000157,-0.1272674285358587
-0.015700000000000047,-0.13214818252039306
-0.01670000000000016,-0.13745334989488697
-0.01770000000000005,-0.14458349484620675
-0.01870000000000016,-0.14868615761581536
-0.01970000000000005,-0.15335470490536995
-0.020700000000000163,-0.15901355010483012
-0.021700000000000053,-0.1617015015745737
-0.022700000000000164,-0.16835064468393937
-0.023700000000000054,-0.17231183632356148
-0.024700000000000166,-0.17655597022315658
-0.025700000000000056,-0.18235628655260325
-0.026700000000000168,-0.18631747819222533
-0.027700000000000058,-0.18914690079195542
-0.02870000000000017,-0.19480574599141554
-0.02970000000000006,-0.19834252424107812
-0.03070000000000017,-0.20470872509047083
-0.03170000000000006,-0.20598196526034934
-0.03270000000000017,-0.21107492593986346
-0.03370000000000006,-0.21659230000933713
-0.034700000000000175,-0.2195631937390537
-0.035700000000000065,-0.2250805678085273
-0.03670000000000018,-0.22691969249835187
-0.03770000000000007,-0.2310223552679605
-0.03870000000000018,-0.2354079602975421
-0.03970000000000007,-0.23767149837732615
-0.04070000000000018,-0.2443206414866918
-0.04170000000000007,-0.24799889086634092
-0.04270000000000018,-0.25096978459605745
-0.04370000000000007,-0.25450656284572004
-0.044700000000000184,-0.25507244736566614
-0.045700000000000074,-0.2610142348250993
-0.046700000000000186,-0.26412659968480234
-0.047700000000000076,-0.268795146974357
-0.04870000000000019,-0.2728978097439656
-0.04970000000000008,-0.2762931168636417
-0.05070000000000019,-0.27912253946337173
-0.05170000000000008,-0.2803957796332503
-0.05270000000000019,-0.28676198048264295
-0.05370000000000008,-0.29072317212226506
-0.05470000000000019,-0.2921378834221301
-0.05570000000000008,-0.29906996879146874
-0.056700000000000195,-0.30147497800123935
-0.057700000000000085,-0.3028896893011043
-0.058700000000000196,-0.30600205416080745
-0.059700000000000086,-0.308407063370578
-0.0607000000000002,-0.31548061986990317
-0.06170000000000009,-0.3173197445597277
-0.0627000000000002,-0.32255417636922834
-0.06370000000000009,-0.3246762433190259
-0.0647000000000002,-0.3252421278389719
-0.06570000000000009,-0.33259862659827016
-0.0667000000000002,-0.33344745337818915
-0.0677000000000001,-0.33698423162785174
-0.0687000000000002,-0.3422186634373524
-0.0697000000000001,-0.3430674902172714
-0.07070000000000021,-0.34872633541673154
-0.0717000000000001,-0.34915074880669106
-0.07270000000000021,-0.35183870027643466
-0.0737000000000001,-0.3570731320859353
-0.07470000000000021,-0.3586293145157868
-0.0757000000000001,-0.3661272844050715
-0.07670000000000021,-0.36683464005500405
-0.0777000000000001,-0.37079583169462615
-0.07870000000000021,-0.3727764275144372
-0.0797000000000001,-0.3760302635041267
-0.08070000000000022,-0.38211352209354643
-0.0817000000000001,-0.38338676226342494
-0.08270000000000022,-0.38508441582326297
-0.08370000000000011,-0.3910262032826961
-0.08470000000000022,-0.3917335589326287
-0.08570000000000011,-0.39739240413208876
-0.08670000000000022,-0.3982412309120078
-0.08770000000000011,-0.4024853648116029
-0.08870000000000022,-0.4034756627215085
-0.08970000000000011,-0.4071539121011576
-0.09070000000000022,-0.41054921922083365
-0.09170000000000011,-0.4126712861706312
-0.09270000000000023,-0.4163495355502803
-0.09370000000000012,-0.41833013137009134
-0.09470000000000023,-0.42200838074974045
-0.09570000000000012,-0.42582810125937604
-0.09670000000000023,-0.4263939857793221
-0.09770000000000012,-0.4333260711486608
-0.09870000000000023,-0.43304312888868773
-0.09970000000000012,-0.4355896092284448
-0.10070000000000023,-0.44167286781786447
-0.10170000000000012,-0.4401166853880129
-0.10270000000000024,-0.4442193481576215
-0.10370000000000013,-0.44775612640728407
-0.10470000000000024,-0.44931230883713563
-0.10570000000000013,-0.45341497160674427
-0.10670000000000024,-0.45341497160674427
-0.10770000000000013,-0.45681027872642027
-0.10870000000000024,-0.46091294149602896
-0.10970000000000013,-0.4621861816659074
-0.11070000000000024,-0.46685472895546215
-0.11170000000000013,-0.4671376712154351
-0.11270000000000002,-0.47109886285505725
-0.11370000000000013,-0.4736453431948142
-0.11470000000000002,-0.4749185833646928
-0.11570000000000014,-0.47944565952426094
-0.11670000000000003,-0.4815677264740585
-0.11770000000000014,-0.48227508212399106
-0.11870000000000003,-0.48609480263362664
-0.11970000000000014,-0.4896315808832892
-0.12070000000000003,-0.49161217670310015
-0.12170000000000014,-0.4943001281728438
-0.12270000000000003,-0.49557336834272236
-0.12370000000000014,-0.4978369064225064
-0.12470000000000003,-0.5017980980621284
-0.12570000000000014,-0.5043445784018855
-0.12670000000000003,-0.505334876311791
-0.12770000000000015,-0.5095790102113862
-0.12870000000000004,-0.5114181349012108
-0.12970000000000015,-0.5133987307210217
-0.13070000000000004,-0.5166525667107114
-0.13170000000000015,-0.5165110955807248
-0.13270000000000004,-0.5216040562602391
-0.13370000000000015,-0.5216040562602391
-0.13470000000000004,-0.5252823056398881
-0.13570000000000015,-0.5285361416295777
-0.13670000000000004,-0.5293849684094968
-0.13770000000000016,-0.5323558621392133
-0.13870000000000005,-0.5347608713489839
-0.13970000000000016,-0.5374488228187275
-0.14070000000000005,-0.5428247257582146
-0.14170000000000016,-0.5429661968882011
-0.14270000000000005,-0.5456541483579447
-0.14370000000000016,-0.5472103307877962
-0.14470000000000005,-0.5510300512974318
-0.14570000000000016,-0.5549912429370539
-0.14670000000000005,-0.5542838872871214
-0.14770000000000016,-0.5581036077967569
-0.14870000000000005,-0.5609330303964871
-0.14970000000000017,-0.562913626216298
-0.15070000000000006,-0.5687139425457448
-0.15170000000000017,-0.5716848362754614
-0.15270000000000006,-0.5723921919253939
-0.15370000000000017,-0.5773436814749214
-0.15470000000000006,-0.5793242772947326
-0.15570000000000017,-0.5839928245842871
-0.15670000000000006,-0.5839928245842871
-0.15770000000000017,-0.5885199007438553
-0.15870000000000006,-0.5916322656035584
-0.15970000000000018,-0.5944616882032884
-0.16070000000000007,-0.6018181869625866
-0.16170000000000018,-0.601959658092573
-0.16270000000000007,-0.6060623208621817
-0.16370000000000018,-0.6086088012019387
-0.16470000000000007,-0.6151164731813179
-0.16570000000000018,-0.6185117803009941
-0.16670000000000007,-0.6179458957810481
-0.16770000000000018,-0.6227559142005892
-0.16870000000000007,-0.6270000481001843
-0.16970000000000018,-0.6316685953897389
-0.17070000000000007,-0.6360542004193205
-0.17170000000000019,-0.638742151889064
-0.17270000000000008,-0.6432692280486321
-0.1737000000000002,-0.6451083527384567
-0.17470000000000008,-0.6504842556779438
-0.1757000000000002,-0.6564260431373771
-0.17670000000000008,-0.659255465737107
-0.1777000000000002,-0.6639240130266617
-0.17870000000000008,-0.6684510891862299
-0.1797000000000002,-0.6704316850060409
-0.18070000000000008,-0.678071126025312
-0.1817000000000002,-0.6793443661951906
-0.18270000000000008,-0.6854276247846103
-0.1837000000000002,-0.6910864699840705
-0.1847000000000001,-0.6939158925838005
-0.1857000000000002,-0.7018382758630447
-0.1867000000000001,-0.7046676984627748
-0.1877000000000002,-0.7076385921924914
-0.1887000000000001,-0.7158439177317085
-0.1897000000000002,-0.7181074558114927
-0.1907000000000001,-0.7264542524806964
-0.1917000000000001,-0.7278689637805613
-0.19269999999999998,-0.7349425202798866
-0.1937000000000001,-0.7400354809594006
-0.19469999999999998,-0.7448454993789418
-0.1957000000000001,-0.7519190558782669
-0.19669999999999999,-0.7564461320378352
-0.1977000000000001,-0.7608317370674167
-0.1987,-0.76960294712658
-0.1997000000000001,-0.7737056098961885
-0.2007,-0.7813450509154597
-0.2017000000000001,-0.7829012333453113
-0.2027,-0.788984491934731
-0.2037000000000001,-0.7986045287738132
-0.2047,-0.8015754225035298
-0.2057000000000001,-0.810346632562693
-0.2067,-0.81289311290245
-0.2077000000000001,-0.8230790342614784
-0.2087,-0.827747581551033
-0.2097000000000001,-0.8345381957903852
-0.2107,-0.841187338899751
-0.2117000000000001,-0.84769501087913
-0.2127,-0.8549100385084417
-0.2137000000000001,-0.8626909506576994
-0.2147,-0.8707548050669301
-0.2157000000000001,-0.8809407264259583
-0.2167,-0.8847604469355939
-0.21770000000000012,-0.8916925323049326
-0.2187,-0.8989075599342444
-0.21970000000000012,-0.9034346360938125
-0.2207,-0.9156011532726518
-0.22170000000000012,-0.9211185273421254
-0.2227,-0.9294653240113291
-0.22370000000000012,-0.9395097742403707
-0.2247,-0.9447442060498714
-0.22570000000000012,-0.9545057140189402
-0.2267,-0.9593157324384813
-0.22770000000000012,-0.9706334228374016
-0.22870000000000001,-0.979687575156538
-0.22970000000000013,-0.9880343718257415
-0.23070000000000002,-0.9977958797948104
-0.23170000000000013,-1.0038791383842298
-0.23270000000000002,-1.0134991752233122
-0.23370000000000013,-1.0231192120623944
-0.23470000000000002,-1.0310415953416388
-0.23570000000000013,-1.0419348723505995
-0.23670000000000002,-1.0501401978898166
-0.2376999999999999,-1.05891140794898
-0.23870000000000002,-1.0699461560879273
-0.2396999999999999,-1.078010010497158
-0.24070000000000003,-1.0896106431560515
-0.24169999999999991,-1.100220977905039
-0.24270000000000003,-1.1074360055343508
-0.24369999999999992,-1.1201684072331362
-0.24470000000000003,-1.1303543285921644
-0.24569999999999992,-1.1419549612510576
-0.24670000000000003,-1.1517164692201263
-0.24769999999999992,-1.1627512173590735
-0.24870000000000003,-1.175483619057859
-0.24969999999999992,-1.1859524826768604
-0.25070000000000003,-1.1961384040358884
-0.2516999999999999,-1.2058999120049574
-0.25270000000000004,-1.219339669353675
-0.2536999999999999,-1.231930599922474
-0.25470000000000004,-1.244804472751246
-0.2556999999999999,-1.256122163150166
-0.25670000000000004,-1.2680057380690324
-0.25769999999999993,-1.2831431489775882
-0.25870000000000004,-1.2936120125965895
-0.25969999999999993,-1.3053541163854694
-0.26070000000000004,-1.3220477097238768
-0.26169999999999993,-1.331101862043013
-0.26270000000000004,-1.345956330691596
-0.26369999999999993,-1.3586887323903811
-0.26470000000000005,-1.370713778439234
-0.26569999999999994,-1.3879732562975873
-0.26670000000000005,-1.4014130136463054
-0.26769999999999994,-1.4142868864750773
-0.26870000000000005,-1.431687835463417
-0.26969999999999994,-1.4415908145624723
-0.27070000000000005,-1.4557379275611226
-0.27169999999999994,-1.471299751859638
-0.27270000000000005,-1.4868615761581534
-0.27369999999999994,-1.499593977856939
-0.27470000000000006,-1.512326379555724
-0.27569999999999995,-1.5293029151541047
-0.27670000000000006,-1.54203531685289
-0.27769999999999995,-1.5561824298515403
-0.27870000000000006,-1.5745736767497858
-0.27969999999999995,-1.585891367148706
-0.28070000000000006,-1.6042826140469515
-0.28169999999999995,-1.6156003044458718
-0.28270000000000006,-1.6283327061446573
-0.28369999999999995,-1.643894530443173
-0.28470000000000006,-1.660871066041553
-0.28569999999999995,-1.6736034677403384
-0.28670000000000007,-1.6863358694391237
-0.28769999999999996,-1.700482982437774
-0.28870000000000007,-1.7146300954364246
-0.28969999999999996,-1.72736249713521
-0.29070000000000007,-1.7415096101338603
-0.29169999999999996,-1.7528273005327806
-0.29270000000000007,-1.766974413531431
-0.29369999999999996,-1.778292103930351
-0.2947000000000001,-1.7896097943292715
-0.29569999999999996,-1.8037569073279218
-0.2967000000000001,-1.8122451751271118
-0.29769999999999996,-1.8249775768258971
-0.2987000000000001,-1.8334658446250875
-0.29969999999999997,-1.8433688237241426
-0.3007000000000001,-1.8546865141230628
-0.30169999999999997,-1.8631747819222533
-0.3027000000000001,-1.8744924723211736
-0.30369999999999997,-1.8801513175206337
-0.3047000000000001,-1.8886395853198237
-0.30569999999999997,-1.9013719870186092
-0.3067000000000001,-1.9027866983184742
-0.3077,-1.9112749661176645
-0.3087000000000001,-1.9183485226169896
-0.3097,-1.925422079116315
-0.3107000000000001,-1.9324956356156402
-0.3117,-1.9367397695152353
-0.3127000000000001,-1.9423986147146954
-0.3137,-1.9480574599141556
-0.3147000000000001,-1.9523015938137507
-0.3157,-1.9579604390132106
-0.3167000000000001,-1.9579604390132106
-0.3177,-1.963619284212671
-0.3187000000000001,-1.9692781294121309
-0.3197,-1.972107552011861
-0.3207000000000001,-1.9777663972113213
-0.3217,-1.9791811085111866
-0.3227000000000001,-1.9862546650105113
-0.3237,-1.9890840876102414
-0.3247000000000001,-1.9947429328097017
-0.3257,-1.9989870667092968
-0.3267000000000001,-2.001816489309027
-0.3277,-2.008890045808352
-0.3287000000000001,-2.013134179707947
-0.3297,-2.017378313607542
-0.3307000000000001,-2.0244518701068674
-0.3317,-2.0244518701068674
-0.3327000000000001,-2.0315254266061924
-0.3337,-2.0371842718056525
-0.3347000000000001,-2.042843117005113
-0.3357,-2.051331384804303
-0.3367000000000001,-2.0569902300037635
-0.3377,-2.0640637865030884
-0.3387000000000001,-2.071137343002414
-0.3397,-2.0782108995017388
-0.3407000000000001,-2.0895285899006595
-0.3417,-2.0937727238002544
-0.3427000000000001,-2.10367570289931
-0.3437,-2.1149933932982297
-0.3447000000000001,-2.124896372397285
-0.3457,-2.1347993514963406
-0.3467000000000001,-2.1432876192955304
-0.3477,-2.1602641548939108
-0.3487000000000001,-2.1701671339929662
-0.3497,-2.1800701130920217
-0.3507000000000001,-2.1956319373905373
-0.3517,-2.206949627789457
-0.3527000000000001,-2.2225114520879723
-0.3537,-2.2366585650866226
-0.3547000000000001,-2.250805678085273
-0.3557,-2.2677822136836534
-0.35670000000000013,-2.283344037982169
-0.3577,-2.3003205735805494
-0.35870000000000013,-2.3201265317786604
-0.3597,-2.3371030673770408
-0.36070000000000013,-2.359738448174881
-0.3617,-2.3767149837732613
-0.3626999999999999,-2.3993503645711023
-0.3637,-2.420571034069078
-0.3646999999999999,-2.4417917035670533
-0.3657,-2.463012373065029
-0.3666999999999999,-2.4842330425630044
-0.3677,-2.5111125572604402
-0.3686999999999999,-2.536577360658011
-0.36970000000000003,-2.5648715866553116
-0.3706999999999999,-2.590336390052882
-0.37170000000000003,-2.6172159047503176
-0.3726999999999999,-2.6469248420474836
-0.37370000000000003,-2.6752190680447843
-0.3746999999999999,-2.706342716641815
-0.37570000000000003,-2.738881076538711
-0.3766999999999999,-2.770004725135742
-0.37770000000000004,-2.8025430850326374
-0.3786999999999999,-2.8379108675292635
-0.37970000000000004,-2.870449227426159
-0.3806999999999999,-2.9072317212226504
-0.38170000000000004,-2.941184792419411
-0.38269999999999993,-2.9793819975157674
-0.38370000000000004,-3.0189939139119883
-0.38469999999999993,-3.0586058303082093
-0.38570000000000004,-3.10104716930416
-0.38669999999999993,-3.1434885083001114
-0.38770000000000004,-3.1887592698957925
-0.38869999999999993,-3.2297858975918787
-0.38970000000000005,-3.276471370487425
-0.39069999999999994,-3.321742132083106
-0.39170000000000005,-3.3641834710790572
-0.39269999999999994,-3.4179425004739286
-0.39370000000000005,-3.4646279733694745
-0.39469999999999994,-3.5169722914644814
-0.39570000000000005,-3.5707313208593527
-0.39669999999999994,-3.6174167937548987
-0.39770000000000005,-3.67966409094896
-0.39869999999999994,-3.7376672542434273
-0.39970000000000006,-3.7900115723384333
-0.40069999999999995,-3.85084415823263
-0.40170000000000006,-3.9116767441268263
-0.40269999999999995,-3.9725093300210226
-0.40370000000000006,-4.034756627215084
-0.40469999999999995,-4.101248058308742
-0.40570000000000006,-4.171983623301993
-0.40669999999999995,-4.256866301293895
-0.40770000000000006,-4.329016577587013
-0.40869999999999995,-4.391263874781075
-0.40970000000000006,-4.449267038075541
-0.41069999999999995,-4.518587891768927
-0.41170000000000007,-4.594982301961639
-0.41269999999999996,-4.672791423454216
-0.41370000000000007,-4.7463564110471985
-0.41469999999999996,-4.826994955139505
-0.41570000000000007,-4.910462921831542
-0.41669999999999996,-4.98827204332412
-0.41770000000000007,-5.075984143915751
-0.41869999999999996,-5.163696244507384
-0.4197000000000001,-5.257067190298477
-0.42069999999999996,-5.351852847389433
-0.4217000000000001,-5.443809081880661
-0.42269999999999996,-5.552741851970269
-0.4237000000000001,-5.654601065560552
-0.42469999999999997,-5.7437278774520495
-0.4257000000000001,-5.828610555443951
-0.42669999999999997,-5.917737367335448
-0.4277000000000001,-6.026670137425056
-0.42869999999999997,-6.131358773615069
-0.4297000000000001,-6.231803275905486
-0.43069999999999997,-6.34498017989469
-0.4317000000000001,-6.460986506483622
-0.4327,-6.5769928330725556
-0.4337000000000001,-6.6958285822612185
-0.4347,-6.813249620150017
-0.4357000000000001,-6.936329503238276
-0.4367,-7.060824097626399
-0.4377000000000001,-7.185318692014522
-0.4387,-7.3183015542018355
-0.4397000000000001,-7.444210859889823
-0.4407,-7.57294958817754
-0.4417000000000001,-7.703103027765124
-0.4427,-7.837500601252304
-0.4437000000000001,-7.978971731238807
-0.4447,-8.121857572525176
-0.4457000000000001,-8.26615812511141
-0.4467,-8.401970409898452
-0.4477000000000001,-8.564662209382933
-0.4487,-8.711792184568896
-0.4497000000000001,-8.851848603255535
-0.4507,-9.008881557540553
-0.4517000000000001,-9.161670377925978
-0.4527,-9.322947466110591
-0.4537000000000001,-9.48280984299534
-0.4547,-9.666722311977795
-0.4557000000000001,-9.871855450458227
-0.4567,-10.08689156803771
-0.4577000000000001,-10.292024706518141
-0.4587,-10.478766598100327
-0.4597000000000001,-10.642873108884672
-0.4607,-10.778685393671715
-0.4617000000000001,-10.918741812358354
-0.4627,-11.109727837840133
-0.4637000000000001,-11.279493193823937
-0.4647,-11.466235085406122
-0.4657000000000001,-11.660050533487633
-0.4667,-11.863768960668198
-0.4677000000000001,-12.080219789547549
-0.4687,-12.283938216728114
-0.4697000000000001,-12.49331548910814
-0.4707,-12.698448627588569
-0.4717000000000001,-12.91207003386819
-0.4727,-13.112959038449025
-0.4737000000000001,-13.31950688822932
-0.4747,-13.530298871909212
-0.4757000000000001,-13.743920278188831
-0.4767,-13.960371107068182
-0.4777000000000001,-14.217848563643619
-0.4787,-14.401761032626075
-0.4797000000000001,-14.585673501608527
-0.4807,-14.840321535584234
-0.48170000000000013,-15.10911668255859
-0.4827,-15.307176264539699
-0.48370000000000013,-15.519382959519453
-0.4847,-15.77403099349516
-0.48570000000000013,-16.000384801473565
-0.4867,-16.22673860945197
-0.4876999999999999,-16.481386643427676
-0.4887,-16.736034677403385
-0.4896999999999999,-16.97653559838044
-0.4907,-17.20288940635885
-0.4916999999999999,-17.429243214337255
-0.4927,-17.655597022315657
-0.4936999999999999,-17.867803717295413
-0.49470000000000003,-18.10830463827247
-0.4956999999999999,-18.348805559249524
-0.49670000000000003,-18.589306480226583
-0.4976999999999999,-18.858101627200938
-0.49870000000000003,-19.070308322180697
-0.4996999999999999,-19.367397695152352
-0.5007,-19.622045729128057
