Potential V vs RHE, Current mA cm-2
0.013299999999999867,-0.3947044526623452
0.012299999999999978,-1.4415908145624723
0.011299999999999866,-2.1390434853959355
0.010299999999999976,-2.7501987669376318
0.009299999999999864,-3.2297858975918787
0.008299999999999974,-3.623075638954359
0.007299999999999862,-3.971094618721158
0.006299999999999972,-4.23281620919619
0.00529999999999986,-4.494537799671222
0.0042999999999999705,-4.668547289554621
0.0032999999999998586,-4.800115440442069
0.0022999999999999687,-4.9302688800296535
0.0012999999999998568,-5.0618370309171015
0.00029999999999996696,-5.105693081212917
-0.000700000000000145,-5.191990470504685
-0.0017000000000000348,-5.279702571096316
-0.0027000000000001467,-5.367414671687949
-0.0037000000000000366,-5.453712060979717
-0.0047000000000001485,-5.5414241615713475
-0.005700000000000038,-5.585280211867165
-0.00670000000000015,-5.672992312458796
-0.00770000000000004,-5.715433651454749
-0.008700000000000152,-5.759289701750564
-0.009700000000000042,-5.759289701750564
-0.010700000000000154,-5.80314575204638
-0.011700000000000044,-5.80314575204638
-0.012700000000000156,-5.80314575204638
-0.013700000000000045,-5.80314575204638
-0.014700000000000157,-5.847001802342197
-0.015700000000000047,-5.847001802342197
-0.01670000000000016,-5.890857852638012
-0.01770000000000005,-5.9347139029338285
-0.01870000000000016,-5.977155241929781
-0.01970000000000005,-6.021011292225596
-0.020700000000000163,-6.021011292225596
-0.021700000000000053,-6.021011292225596
-0.022700000000000164,-6.021011292225596
-0.023700000000000054,-6.021011292225596
-0.024700000000000166,-6.021011292225596
-0.025700000000000056,-6.021011292225596
-0.026700000000000168,-6.021011292225596
-0.027700000000000058,-6.021011292225596
-0.02870000000000017,-6.021011292225596
-0.02970000000000006,-6.064867342521412
-0.03070000000000017,-6.064867342521412
-0.03170000000000006,-6.108723392817228
-0.03270000000000017,-6.152579443113044
-0.03370000000000006,-6.152579443113044
-0.034700000000000175,-6.152579443113044
-0.035700000000000065,-6.152579443113044
-0.03670000000000018,-6.152579443113044
-0.03770000000000007,-6.152579443113044
-0.03870000000000018,-6.152579443113044
-0.03970000000000007,-6.108723392817228
-0.04070000000000018,-6.108723392817228
-0.04170000000000007,-6.152579443113044
-0.04270000000000018,-6.152579443113044
-0.04370000000000007,-6.196435493408861
-0.044700000000000184,-6.196435493408861
-0.045700000000000074,-6.196435493408861
-0.046700000000000186,-6.282732882700628
-0.047700000000000076,-6.238876832404812
-0.04870000000000019,-6.282732882700628
-0.04970000000000008,-6.282732882700628
-0.05070000000000019,-6.238876832404812
-0.05170000000000008,-6.238876832404812
-0.05270000000000019,-6.196435493408861
-0.05370000000000008,-6.238876832404812
-0.05470000000000019,-6.238876832404812
-0.05570000000000008,-6.238876832404812
-0.056700000000000195,-6.282732882700628
-0.057700000000000085,-6.282732882700628
-0.058700000000000196,-6.326588932996443
-0.059700000000000086,-6.37044498329226
-0.0607000000000002,-6.37044498329226
-0.06170000000000009,-6.37044498329226
-0.0627000000000002,-6.37044498329226
-0.06370000000000009,-6.37044498329226
-0.0647000000000002,-6.37044498329226
-0.06570000000000009,-6.326588932996443
-0.0667000000000002,-6.326588932996443
-0.0677000000000001,-6.326588932996443
-0.0687000000000002,-6.326588932996443
-0.0697000000000001,-6.37044498329226
-0.07070000000000021,-6.37044498329226
-0.0717000000000001,-6.414301033588076
-0.07270000000000021,-6.458157083883892
-0.0737000000000001,-6.458157083883892
-0.07470000000000021,-6.458157083883892
-0.0757000000000001,-6.458157083883892
-0.07670000000000021,-6.458157083883892
-0.0777000000000001,-6.458157083883892
-0.07870000000000021,-6.458157083883892
-0.0797000000000001,-6.414301033588076
-0.08070000000000022,-6.414301033588076
-0.0817000000000001,-6.414301033588076
-0.08270000000000022,-6.458157083883892
-0.08370000000000011,-6.500598422879844
-0.08470000000000022,-6.500598422879844
-0.08570000000000011,-6.54445447317566
-0.08670000000000022,-6.588310523471475
-0.08770000000000011,-6.588310523471475
-0.08870000000000022,-6.588310523471475
-0.08970000000000011,-6.588310523471475
-0.09070000000000022,-6.588310523471475
-0.09170000000000011,-6.588310523471475
-0.09270000000000023,-6.54445447317566
-0.09370000000000012,-6.588310523471475
-0.09470000000000023,-6.588310523471475
-0.09570000000000012,-6.588310523471475
-0.09670000000000023,-6.632166573767292
-0.09770000000000012,-6.632166573767292
-0.09870000000000023,-6.6760226240631075
-0.09970000000000012,-6.719878674358924
-0.10070000000000023,-6.719878674358924
-0.10170000000000012,-6.719878674358924
-0.10270000000000024,-6.719878674358924
-0.10370000000000013,-6.719878674358924
-0.10470000000000024,-6.719878674358924
-0.10570000000000013,-6.719878674358924
-0.10670000000000024,-6.719878674358924
-0.10770000000000013,-6.719878674358924
-0.10870000000000024,-6.719878674358924
-0.10970000000000013,-6.762320013354876
-0.11070000000000024,-6.806176063650692
-0.11170000000000013,-6.806176063650692
-0.11270000000000002,-6.850032113946507
-0.11370000000000013,-6.893888164242324
-0.11470000000000002,-6.893888164242324
-0.11570000000000014,-6.893888164242324
-0.11670000000000003,-6.893888164242324
-0.11770000000000014,-6.893888164242324
-0.11870000000000003,-6.893888164242324
-0.11970000000000014,-6.850032113946507
-0.12070000000000003,-6.893888164242324
-0.12170000000000014,-6.893888164242324
-0.12270000000000003,-6.893888164242324
-0.12370000000000014,-6.981600264833956
-0.12470000000000003,-6.981600264833956
-0.12570000000000014,-7.024041603829907
-0.12670000000000003,-7.067897654125724
-0.12770000000000015,-7.067897654125724
-0.12870000000000004,-7.067897654125724
-0.12970000000000015,-7.111753704421539
-0.13070000000000004,-7.067897654125724
-0.13170000000000015,-7.067897654125724
-0.13270000000000004,-7.067897654125724
-0.13370000000000015,-7.067897654125724
-0.13470000000000004,-7.067897654125724
-0.13570000000000015,-7.111753704421539
-0.13670000000000004,-7.155609754717355
-0.13770000000000016,-7.199465805013171
-0.13870000000000005,-7.199465805013171
-0.13970000000000016,-7.243321855308987
-0.14070000000000005,-7.28576319430494
-0.14170000000000016,-7.28576319430494
-0.14270000000000005,-7.28576319430494
-0.14370000000000016,-7.28576319430494
-0.14470000000000005,-7.28576319430494
-0.14570000000000016,-7.28576319430494
-0.14670000000000005,-7.28576319430494
-0.14770000000000016,-7.329619244600755
-0.14870000000000005,-7.28576319430494
-0.14970000000000017,-7.329619244600755
-0.15070000000000006,-7.4173313451923875
-0.15170000000000017,-7.4173313451923875
-0.15270000000000006,-7.461187395488204
-0.15370000000000017,-7.50504344578402
-0.15470000000000006,-7.50504344578402
-0.15570000000000017,-7.50504344578402
-0.15670000000000006,-7.50504344578402
-0.15770000000000017,-7.50504344578402
-0.15870000000000006,-7.5474847847799715
-0.15970000000000018,-7.50504344578402
-0.16070000000000007,-7.5474847847799715
-0.16170000000000018,-7.5474847847799715
-0.16270000000000007,-7.591340835075788
-0.16370000000000018,-7.635196885371603
-0.16470000000000007,-7.679052935667419
-0.16570000000000018,-7.722908985963235
-0.16670000000000007,-7.7653503249591855
-0.16770000000000018,-7.722908985963235
-0.16870000000000007,-7.7653503249591855
-0.16970000000000018,-7.809206375255003
-0.17070000000000007,-7.7653503249591855
-0.17170000000000019,-7.809206375255003
-0.17270000000000008,-7.7653503249591855
-0.1737000000000002,-7.809206375255003
-0.17470000000000008,-7.809206375255003
-0.1757000000000002,-7.853062425550818
-0.17670000000000008,-7.853062425550818
-0.1777000000000002,-7.896918475846635
-0.17870000000000008,-7.940774526142452
-0.1797000000000002,-7.984630576438266
-0.18070000000000008,-8.027071915434218
-0.1817000000000002,-8.070927965730034
-0.18270000000000008,-8.027071915434218
-0.1837000000000002,-8.027071915434218
-0.1847000000000001,-8.027071915434218
-0.1857000000000002,-8.070927965730034
-0.1867000000000001,-8.070927965730034
-0.1877000000000002,-8.11478401602585
-0.1887000000000001,-8.11478401602585
-0.1897000000000002,-8.158640066321666
-0.1907000000000001,-8.202496116617484
-0.1917000000000001,-8.246352166913299
-0.19269999999999998,-8.288793505909249
-0.1937000000000001,-8.288793505909249
-0.19469999999999998,-8.332649556205066
-0.1957000000000001,-8.332649556205066
-0.19669999999999999,-8.332649556205066
-0.1977000000000001,-8.332649556205066
-0.1987,-8.376505606500881
-0.1997000000000001,-8.332649556205066
-0.2007,-8.376505606500881
-0.2017000000000001,-8.376505606500881
-0.2027,-8.4203616567967
-0.2037000000000001,-8.464217707092514
-0.2047,-8.508073757388331
-0.2057000000000001,-8.55051509638428
-0.2067,-8.55051509638428
-0.2077000000000001,-8.594371146680096
-0.2087,-8.594371146680096
-0.2097000000000001,-8.594371146680096
-0.2107,-8.638227196975913
-0.2117000000000001,-8.594371146680096
-0.2127,-8.594371146680096
-0.2137000000000001,-8.638227196975913
-0.2147,-8.68208324727173
-0.2157000000000001,-8.725939297567548
-0.2167,-8.769795347863363
-0.21770000000000012,-8.812236686859313
-0.2187,-8.812236686859313
-0.21970000000000012,-8.85609273715513
-0.2207,-8.85609273715513
-0.22170000000000012,-8.899948787450944
-0.2227,-8.899948787450944
-0.22370000000000012,-8.85609273715513
-0.2247,-8.85609273715513
-0.22570000000000012,-8.85609273715513
-0.2267,-8.85609273715513
-0.22770000000000012,-8.899948787450944
-0.22870000000000001,-8.899948787450944
-0.22970000000000013,-8.943804837746763
-0.23070000000000002,-9.031516938338395
-0.23170000000000013,-8.987660888042578
-0.23270000000000002,-9.073958277334345
-0.23370000000000013,-9.073958277334345
-0.23470000000000002,-9.073958277334345
-0.23570000000000013,-9.11781432763016
-0.23670000000000002,-9.11781432763016
-0.2376999999999999,-9.11781432763016
-0.23870000000000002,-9.11781432763016
-0.2396999999999999,-9.11781432763016
-0.24070000000000003,-9.11781432763016
-0.24169999999999991,-9.11781432763016
-0.24270000000000003,-9.161670377925978
-0.24369999999999992,-9.205526428221793
-0.24470000000000003,-9.24938247851761
-0.24569999999999992,-9.293238528813426
-0.24670000000000003,-9.293238528813426
-0.24769999999999992,-9.335679867809377
-0.24870000000000003,-9.335679867809377
-0.24969999999999992,-9.335679867809377
-0.25070000000000003,-9.335679867809377
-0.2516999999999999,-9.335679867809377
-0.25270000000000004,-9.335679867809377
-0.2536999999999999,-9.335679867809377
-0.25470000000000004,-9.335679867809377
-0.2556999999999999,-9.379535918105192
-0.25670000000000004,-9.423391968401008
-0.25769999999999993,-9.423391968401008
-0.25870000000000004,-9.467248018696827
-0.25969999999999993,-9.55496011928846
-0.26070000000000004,-9.55496011928846
-0.26169999999999993,-9.59740145828441
-0.26270000000000004,-9.59740145828441
-0.26369999999999993,-9.59740145828441
-0.26470000000000005,-9.59740145828441
-0.26569999999999994,-9.59740145828441
-0.26670000000000005,-9.59740145828441
-0.26769999999999994,-9.641257508580225
-0.26870000000000005,-9.641257508580225
-0.26969999999999994,-9.685113558876042
-0.27070000000000005,-9.728969609171857
-0.27169999999999994,-9.772825659467674
-0.27270000000000005,-9.81668170976349
-0.27369999999999994,-9.85912304875944
-0.27470000000000006,-9.85912304875944
-0.27569999999999995,-9.902979099055257
-0.27670000000000006,-9.946835149351072
-0.27769999999999995,-9.946835149351072
-0.27870000000000006,-9.99069119964689
-0.27969999999999995,-9.99069119964689
-0.28070000000000006,-9.99069119964689
-0.28169999999999995,-10.034547249942705
-0.28270000000000006,-10.078403300238522
-0.28369999999999995,-10.120844639234473
-0.28470000000000006,-10.208556739826104
-0.28569999999999995,-10.25241279012192
-0.28670000000000007,-10.340124890713554
-0.28769999999999996,-10.340124890713554
-0.28870000000000007,-10.42642228000532
-0.28969999999999996,-10.42642228000532
-0.29070000000000007,-10.470278330301136
-0.29169999999999996,-10.514134380596953
-0.29270000000000007,-10.557990430892769
-0.29369999999999996,-10.601846481188586
-0.2947000000000001,-10.644287820184536
-0.29569999999999996,-10.731999920776168
-0.2967000000000001,-10.775855971071984
-0.29769999999999996,-10.863568071663616
-0.2987000000000001,-10.949865460955383
-0.29969999999999997,-11.037577561547016
-0.3007000000000001,-11.123874950838783
-0.30169999999999997,-11.1677310011346
-0.3027000000000001,-11.255443101726232
-0.30369999999999997,-11.299299152022046
-0.3047000000000001,-11.385596541313816
-0.30569999999999997,-11.473308641905447
-0.3067000000000001,-11.517164692201263
-0.3077,-11.647318131788847
-0.3087000000000001,-11.73503023238048
-0.3097,-11.82274233297211
-0.3107000000000001,-11.952895772559694
-0.3117,-12.084463923447142
-0.3127000000000001,-12.214617363034726
-0.3137,-12.346185513922174
-0.3147000000000001,-12.476338953509758
-0.3157,-12.56405105410139
-0.3167000000000001,-12.694204493688973
-0.3177,-12.781916594280606
-0.3187000000000001,-12.955926084164007
-0.3197,-13.043638184755638
-0.3207000000000001,-13.217647674639037
-0.3217,-13.3930718758223
-0.3227000000000001,-13.567081365705702
-0.3237,-13.741090855589102
-0.3247000000000001,-13.960371107068182
-0.3257,-14.175407224647667
-0.3267000000000001,-14.401761032626075
-0.3277,-14.57152638860988
-0.3287000000000001,-14.783733083589633
-0.3297,-15.01008689156804
-0.3307000000000001,-15.222293586547794
-0.3317,-15.448647394526201
-0.3327000000000001,-15.70329542850191
-0.3337,-15.972090575476265
-0.3347000000000001,-16.269179948447924
-0.3357,-16.580416434418233
-0.3367000000000001,-16.919947146385837
-0.3377,-17.231183632356142
-0.3387000000000001,-17.627302796318357
-0.3397,-18.009274847281915
-0.3407000000000001,-18.40539401124413
-0.3417,-18.80151317520634
-0.3427000000000001,-19.2400736781645
-0.3437,-19.678634181122664
-0.3447000000000001,-20.10304757108217
-0.3457,-20.626490752032236
-0.3467000000000001,-21.149933932982297
-0.3477,-21.729965565926964
-0.3487000000000001,-22.33829142486893
-0.3497,-22.989058622806844
-0.3507000000000001,-23.724708498736668
-0.3517,-24.474505487665134
-0.3527000000000001,-25.295038041586857
-0.3537,-26.129717708507226
-0.3547000000000001,-27.091721392415455
-0.3557,-28.05372507632368
-0.35670000000000013,-29.14305277721976
-0.3577,-30.274821817111786
-0.35870000000000013,-31.49147353499572
-0.3597,-32.807155043870196
-0.36070000000000013,-34.193572117737936
-0.3617,-35.721460321592176
-0.3626999999999999,-37.376672542434264
-0.3637,-39.130914554266916
-0.3646999999999999,-40.99833347008877
-0.3657,-43.007223515897124
-0.3666999999999999,-45.143437578693316
-0.3677,-47.36453431948143
-0.3686999999999999,-49.76954352925199
-0.36970000000000003,-52.2169940780185
-0.3706999999999999,-54.834209982768826
-0.37170000000000003,-57.53630856551105
-0.3726999999999999,-60.36573116524111
-0.37370000000000003,-63.20930087796983
-0.3746999999999999,-66.20848883368372
-0.37570000000000003,-69.26426524139221
-0.3766999999999999,-72.36248298809663
-0.37770000000000004,-75.50314207379701
-0.3786999999999999,-78.64380115949739
-0.37970000000000004,-81.86934292318966
-0.3806999999999999,-84.96756066989411
-0.38170000000000004,-88.10821975559449
-0.38269999999999993,-91.16399616330297
-0.38370000000000004,-94.17733123201549
-0.38469999999999993,-97.26140186572127
-0.38570000000000004,-100.18985425644189
-0.38669999999999993,-102.02897894626645
-0.38570000000000004,-102.36850965823406
-0.38469999999999993,-102.84951150018817
-0.38370000000000004,-103.33051334214227
-0.38269999999999993,-103.76907384510045
-0.38170000000000004,-104.25007568705455
-0.3806999999999999,-104.41984104303836
-0.37970000000000004,-104.58960639902216
-0.3786999999999999,-104.68863619001272
-0.37770000000000004,-104.58960639902216
-0.3766999999999999,-104.41984104303836
-0.37570000000000003,-104.25007568705455
-0.3746999999999999,-104.02372187907615
-0.37370000000000003,-103.7266325061045
-0.3726999999999999,-103.28807200314633
-0.37170000000000003,-102.89195283918411
-0.3706999999999999,-102.4958336752219
-0.36970000000000003,-101.97239049427183
-0.3686999999999999,-101.54797710431234
-0.3677,-101.02453392336226
-0.3666999999999999,-100.58597342040412
-0.3657,-100.02008890045809
-0.3646999999999999,-99.35517458952152
-0.3637,-98.57708337459576
-0.3626999999999999,-97.84143349866595
-0.3617,-97.26140186572127
-0.36070000000000013,-96.4833106507955
-0.3597,-95.69107232287108
-0.35870000000000013,-94.99786378593721
-0.3577,-94.17733123201549
-0.35670000000000013,-93.30021022609918
-0.3557,-92.6918843671572
-0.3547000000000001,-91.77232202224494
-0.3537,-90.99423080731917
-0.3527000000000001,-90.11710980140283
-0.3517,-89.15510611749461
-0.3507000000000001,-88.23554377258235
-0.3497,-87.62721791364037
-0.3487000000000001,-86.80668535971866
-0.3477,-85.80224033681448
-0.3467000000000001,-84.92511933089816
-0.3457,-84.00555698598588
-0.3447000000000001,-83.14258309306821
-0.3437,-82.26546208715187
-0.3427000000000001,-81.3458997422396
-0.3417,-80.34145471933543
-0.3407000000000001,-79.64824618240156
-0.3397,-78.60135982050144
-0.3387000000000001,-77.80912149257702
-0.3377,-76.86126492166746
-0.3367000000000001,-75.94170257675518
-0.3357,-75.02214023184291
-0.3347000000000001,-74.10257788693062
-0.3337,-73.2820453330089
-0.3327000000000001,-72.48980700508447
-0.3317,-71.6268331121668
-0.3307000000000001,-70.66482942825859
-0.3297,-69.74526708334632
-0.3287000000000001,-68.91058741642594
-0.3277,-68.0900548625042
-0.3267000000000001,-67.128051178596
-0.3257,-66.20848883368372
-0.3247000000000001,-65.3030736017701
-0.3237,-64.77963042082003
-0.3227000000000001,-64.02983343189156
-0.3217,-62.98294706999144
-0.3207000000000001,-61.97850204708726
-0.3197,-60.93161568518713
-0.3187000000000001,-60.19596580925731
-0.3177,-59.36128614233694
-0.3167000000000001,-58.498312249419264
-0.3157,-57.66363258249889
-0.3147000000000001,-56.74407023758662
-0.3137,-55.881096344668954
-0.3127000000000001,-55.088858016744524
-0.3117,-54.26832546282281
-0.3107000000000001,-53.56096981289029
-0.3097,-52.78287859796452
-0.3087000000000001,-51.90575759204819
-0.3077,-51.127666377122424
-0.3067000000000001,-50.37786938819396
-0.30569999999999997,-49.557336834272235
-0.3047000000000001,-48.68021582835591
-0.30369999999999997,-47.8879775004315
-0.3027000000000001,-47.067444946509774
-0.30169999999999997,-46.27520661858535
-0.3007000000000001,-45.581998081651484
-0.29969999999999997,-44.84634820572166
-0.2987000000000001,-44.054109877797245
-0.29769999999999996,-43.31846000186743
-0.2967000000000001,-42.71013414292546
-0.29569999999999996,-41.91789581500104
-0.2947000000000001,-41.267128617063115
-0.29369999999999996,-40.43244895014274
-0.29270000000000007,-39.78168175220483
-0.29169999999999996,-38.94700208528445
-0.29070000000000007,-38.211352209354644
-0.28969999999999996,-37.47570233342482
-0.28870000000000007,-36.768346683492304
-0.28769999999999996,-36.07513814655844
-0.28670000000000007,-35.42437094862052
-0.28569999999999995,-34.8018979766799
-0.28470000000000006,-34.10868943974604
-0.28369999999999995,-33.373039563816214
-0.28270000000000006,-32.62324257488775
-0.28169999999999995,-32.01491671594578
-0.28070000000000006,-31.321708179011907
-0.27969999999999995,-30.614352529079397
-0.27870000000000006,-29.921143992145527
-0.27769999999999995,-29.27037679420761
-0.27670000000000006,-28.662050935265643
-0.27569999999999995,-28.09616641531963
-0.27470000000000006,-27.530281895373616
-0.27369999999999994,-26.907808923433
-0.27270000000000005,-26.21460038649913
-0.27169999999999994,-25.648715866553115
-0.27070000000000005,-25.0828313466071
-0.26969999999999994,-24.474505487665134
-0.26870000000000005,-23.86617962872317
-0.26769999999999994,-23.24370665678255
-0.26670000000000005,-22.67782213683654
-0.26569999999999994,-22.069496277894572
-0.26470000000000005,-21.461170418952605
-0.26369999999999993,-20.93772723800254
-0.26270000000000004,-20.371842718056527
