Mar. 10, 2025   07:36:08
Cyclic Voltammetry
File: c:/users/guazh/data/banditlqround7_x0exp891_r5/2025-03-03-exp864\exp864-2025-03-10t07_29_48-h2koh\exp864_cv_sr_200mvs_efin_-1400mv.bin
Data Source:  Experiment
Instrument Model:  CHI760E
Header: CV ran at 200 mVs
Note: 

Init E (V) = -1
High E (V) = -1
Low E (V) = -1.4
Final E (V) = -1
Init P/N = N
Scan Rate (V/s) = 0.2
Segment = 3
Sample Interval (V) = 0.001
Quiet Time (sec) = 2
Sensitivity (A/V) = 0.01
Comp R (ohm) = 1.9

Results:

Channel 1:
Segment 1:

Segment 2:

Segment 3:

Potential/V, Current/A

-1.000, 2.191e-5
-1.001, 6.690e-5
-1.002, 8.406e-5
-1.003, 9.370e-5
-1.004, 1.055e-4
-1.005, 1.101e-4
-1.006, 1.098e-4
-1.007, 1.158e-4
-1.008, 1.195e-4
-1.009, 1.176e-4
-1.010, 1.194e-4
-1.011, 1.247e-4
-1.012, 1.232e-4
-1.013, 1.218e-4
-1.014, 1.269e-4
-1.015, 1.274e-4
-1.016, 1.240e-4
-1.017, 1.278e-4
-1.018, 1.306e-4
-1.019, 1.272e-4
-1.020, 1.283e-4
-1.021, 1.323e-4
-1.022, 1.296e-4
-1.023, 1.280e-4
-1.024, 1.323e-4
-1.025, 1.328e-4
-1.026, 1.300e-4
-1.027, 1.329e-4
-1.028, 1.351e-4
-1.029, 1.313e-4
-1.030, 1.322e-4
-1.031, 1.362e-4
-1.032, 1.337e-4
-1.033, 1.322e-4
-1.034, 1.365e-4
-1.035, 1.362e-4
-1.036, 1.331e-4
-1.037, 1.364e-4
-1.038, 1.383e-4
-1.039, 1.348e-4
-1.040, 1.351e-4
-1.041, 1.392e-4
-1.042, 1.367e-4
-1.043, 1.348e-4
-1.044, 1.395e-4
-1.045, 1.390e-4
-1.046, 1.352e-4
-1.047, 1.386e-4
-1.048, 1.402e-4
-1.049, 1.368e-4
-1.050, 1.372e-4
-1.051, 1.416e-4
-1.052, 1.390e-4
-1.053, 1.370e-4
-1.054, 1.413e-4
-1.055, 1.411e-4
-1.056, 1.372e-4
-1.057, 1.406e-4
-1.058, 1.426e-4
-1.059, 1.385e-4
-1.060, 1.394e-4
-1.061, 1.434e-4
-1.062, 1.406e-4
-1.063, 1.394e-4
-1.064, 1.432e-4
-1.065, 1.428e-4
-1.066, 1.391e-4
-1.067, 1.424e-4
-1.068, 1.445e-4
-1.069, 1.406e-4
-1.070, 1.410e-4
-1.071, 1.457e-4
-1.072, 1.425e-4
-1.073, 1.410e-4
-1.074, 1.452e-4
-1.075, 1.454e-4
-1.076, 1.418e-4
-1.077, 1.446e-4
-1.078, 1.466e-4
-1.079, 1.426e-4
-1.080, 1.433e-4
-1.081, 1.475e-4
-1.082, 1.444e-4
-1.083, 1.429e-4
-1.084, 1.477e-4
-1.085, 1.470e-4
-1.086, 1.434e-4
-1.087, 1.468e-4
-1.088, 1.484e-4
-1.089, 1.451e-4
-1.090, 1.458e-4
-1.091, 1.499e-4
-1.092, 1.469e-4
-1.093, 1.453e-4
-1.094, 1.498e-4
-1.095, 1.499e-4
-1.096, 1.457e-4
-1.097, 1.494e-4
-1.098, 1.510e-4
-1.099, 1.475e-4
-1.100, 1.484e-4
-1.101, 1.524e-4
-1.102, 1.495e-4
-1.103, 1.486e-4
-1.104, 1.527e-4
-1.105, 1.524e-4
-1.106, 1.489e-4
-1.107, 1.523e-4
-1.108, 1.546e-4
-1.109, 1.503e-4
-1.110, 1.515e-4
-1.111, 1.561e-4
-1.112, 1.528e-4
-1.113, 1.514e-4
-1.114, 1.561e-4
-1.115, 1.555e-4
-1.116, 1.526e-4
-1.117, 1.561e-4
-1.118, 1.580e-4
-1.119, 1.545e-4
-1.120, 1.552e-4
-1.121, 1.597e-4
-1.122, 1.568e-4
-1.123, 1.557e-4
-1.124, 1.604e-4
-1.125, 1.599e-4
-1.126, 1.569e-4
-1.127, 1.605e-4
-1.128, 1.619e-4
-1.129, 1.587e-4
-1.130, 1.598e-4
-1.131, 1.640e-4
-1.132, 1.615e-4
-1.133, 1.599e-4
-1.134, 1.640e-4
-1.135, 1.652e-4
-1.136, 1.611e-4
-1.137, 1.643e-4
-1.138, 1.666e-4
-1.139, 1.637e-4
-1.140, 1.650e-4
-1.141, 1.689e-4
-1.142, 1.665e-4
-1.143, 1.657e-4
-1.144, 1.696e-4
-1.145, 1.695e-4
-1.146, 1.666e-4
-1.147, 1.704e-4
-1.148, 1.728e-4
-1.149, 1.688e-4
-1.150, 1.703e-4
-1.151, 1.750e-4
-1.152, 1.719e-4
-1.153, 1.710e-4
-1.154, 1.758e-4
-1.155, 1.756e-4
-1.156, 1.721e-4
-1.157, 1.756e-4
-1.158, 1.784e-4
-1.159, 1.750e-4
-1.160, 1.758e-4
-1.161, 1.806e-4
-1.162, 1.778e-4
-1.163, 1.772e-4
-1.164, 1.819e-4
-1.165, 1.815e-4
-1.166, 1.784e-4
-1.167, 1.824e-4
-1.168, 1.842e-4
-1.169, 1.808e-4
-1.170, 1.822e-4
-1.171, 1.866e-4
-1.172, 1.839e-4
-1.173, 1.829e-4
-1.174, 1.877e-4
-1.175, 1.878e-4
-1.176, 1.845e-4
-1.177, 1.890e-4
-1.178, 1.916e-4
-1.179, 1.877e-4
-1.180, 1.889e-4
-1.181, 1.935e-4
-1.182, 1.907e-4
-1.183, 1.897e-4
-1.184, 1.945e-4
-1.185, 1.946e-4
-1.186, 1.912e-4
-1.187, 1.948e-4
-1.188, 1.976e-4
-1.189, 1.939e-4
-1.190, 1.952e-4
-1.191, 1.997e-4
-1.192, 1.970e-4
-1.193, 1.964e-4
-1.194, 2.012e-4
-1.195, 2.009e-4
-1.196, 1.980e-4
-1.197, 2.019e-4
-1.198, 2.040e-4
-1.199, 2.004e-4
-1.200, 2.020e-4
-1.201, 2.069e-4
-1.202, 2.044e-4
-1.203, 2.033e-4
-1.204, 2.085e-4
-1.205, 2.077e-4
-1.206, 2.048e-4
-1.207, 2.088e-4
-1.208, 2.103e-4
-1.209, 2.073e-4
-1.210, 2.089e-4
-1.211, 2.135e-4
-1.212, 2.110e-4
-1.213, 2.099e-4
-1.214, 2.148e-4
-1.215, 2.150e-4
-1.216, 2.122e-4
-1.217, 2.164e-4
-1.218, 2.185e-4
-1.219, 2.148e-4
-1.220, 2.163e-4
-1.221, 2.207e-4
-1.222, 2.180e-4
-1.223, 2.170e-4
-1.224, 2.218e-4
-1.225, 2.219e-4
-1.226, 2.197e-4
-1.227, 2.240e-4
-1.228, 2.271e-4
-1.229, 2.245e-4
-1.230, 2.258e-4
-1.231, 2.303e-4
-1.232, 2.272e-4
-1.233, 2.265e-4
-1.234, 2.318e-4
-1.235, 2.314e-4
-1.236, 2.291e-4
-1.237, 2.334e-4
-1.238, 2.360e-4
-1.239, 2.333e-4
-1.240, 2.353e-4
-1.241, 2.405e-4
-1.242, 2.381e-4
-1.243, 2.379e-4
-1.244, 2.437e-4
-1.245, 2.437e-4
-1.246, 2.414e-4
-1.247, 2.464e-4
-1.248, 2.491e-4
-1.249, 2.467e-4
-1.250, 2.494e-4
-1.251, 2.543e-4
-1.252, 2.529e-4
-1.253, 2.529e-4
-1.254, 2.591e-4
-1.255, 2.600e-4
-1.256, 2.573e-4
-1.257, 2.628e-4
-1.258, 2.663e-4
-1.259, 2.647e-4
-1.260, 2.678e-4
-1.261, 2.736e-4
-1.262, 2.727e-4
-1.263, 2.739e-4
-1.264, 2.806e-4
-1.265, 2.820e-4
-1.266, 2.811e-4
-1.267, 2.873e-4
-1.268, 2.915e-4
-1.269, 2.904e-4
-1.270, 2.946e-4
-1.271, 3.017e-4
-1.272, 3.013e-4
-1.273, 3.037e-4
-1.274, 3.116e-4
-1.275, 3.140e-4
-1.276, 3.149e-4
-1.277, 3.221e-4
-1.278, 3.281e-4
-1.279, 3.288e-4
-1.280, 3.354e-4
-1.281, 3.438e-4
-1.282, 3.457e-4
-1.283, 3.491e-4
-1.284, 3.594e-4
-1.285, 3.641e-4
-1.286, 3.672e-4
-1.287, 3.775e-4
-1.288, 3.854e-4
-1.289, 3.890e-4
-1.290, 3.981e-4
-1.291, 4.096e-4
-1.292, 4.152e-4
-1.293, 4.224e-4
-1.294, 4.362e-4
-1.295, 4.455e-4
-1.296, 4.534e-4
-1.297, 4.688e-4
-1.298, 4.824e-4
-1.299, 4.920e-4
-1.300, 5.075e-4
-1.301, 5.266e-4
-1.302, 5.401e-4
-1.303, 5.575e-4
-1.304, 5.815e-4
-1.305, 6.011e-4
-1.306, 6.209e-4
-1.307, 6.487e-4
-1.308, 6.775e-4
-1.309, 7.025e-4
-1.310, 7.357e-4
-1.311, 7.747e-4
-1.312, 8.090e-4
-1.313, 8.504e-4
-1.314, 9.004e-4
-1.315, 9.483e-4
-1.316, 9.992e-4
-1.317, 1.062e-3
-1.318, 1.128e-3
-1.319, 1.195e-3
-1.320, 1.271e-3
-1.321, 1.358e-3
-1.322, 1.444e-3
-1.323, 1.539e-3
-1.324, 1.648e-3
-1.325, 1.757e-3
-1.326, 1.872e-3
-1.327, 2.002e-3
-1.328, 2.138e-3
-1.329, 2.272e-3
-1.330, 2.423e-3
-1.331, 2.593e-3
-1.332, 2.749e-3
-1.333, 2.910e-3
-1.334, 3.085e-3
-1.335, 3.269e-3
-1.336, 3.453e-3
-1.337, 3.637e-3
-1.338, 3.822e-3
-1.339, 4.009e-3
-1.340, 4.187e-3
-1.341, 4.368e-3
-1.342, 4.531e-3
-1.343, 4.691e-3
-1.344, 4.852e-3
-1.345, 5.015e-3
-1.346, 5.158e-3
-1.347, 5.291e-3
-1.348, 5.427e-3
-1.349, 5.528e-3
-1.350, 5.646e-3
-1.351, 5.763e-3
-1.352, 5.868e-3
-1.353, 5.934e-3
-1.354, 6.019e-3
-1.355, 6.115e-3
-1.356, 6.181e-3
-1.357, 6.253e-3
-1.358, 6.334e-3
-1.359, 6.401e-3
-1.360, 6.495e-3
-1.361, 6.548e-3
-1.362, 6.602e-3
-1.363, 6.702e-3
-1.364, 6.760e-3
-1.365, 6.815e-3
-1.366, 6.892e-3
-1.367, 6.956e-3
-1.368, 7.032e-3
-1.369, 7.101e-3
-1.370, 7.160e-3
-1.371, 7.235e-3
-1.372, 7.283e-3
-1.373, 7.327e-3
-1.374, 7.378e-3
-1.375, 7.469e-3
-1.376, 7.526e-3
-1.377, 7.563e-3
-1.378, 7.606e-3
-1.379, 7.670e-3
-1.380, 7.728e-3
-1.381, 7.785e-3
-1.382, 7.845e-3
-1.383, 7.866e-3
-1.384, 7.954e-3
-1.385, 8.024e-3
-1.386, 8.074e-3
-1.387, 8.127e-3
-1.388, 8.191e-3
-1.389, 8.272e-3
-1.390, 8.328e-3
-1.391, 8.389e-3
-1.392, 8.432e-3
-1.393, 8.511e-3
-1.394, 8.601e-3
-1.395, 8.660e-3
-1.396, 8.729e-3
-1.397, 8.759e-3
-1.398, 8.797e-3
-1.399, 8.851e-3
-1.400, 8.836e-3
-1.399, 8.750e-3
-1.398, 8.659e-3
-1.397, 8.567e-3
-1.396, 8.481e-3
-1.395, 8.410e-3
-1.394, 8.307e-3
-1.393, 8.222e-3
-1.392, 8.159e-3
-1.391, 8.083e-3
-1.390, 7.982e-3
-1.389, 7.917e-3
-1.388, 7.826e-3
-1.387, 7.752e-3
-1.386, 7.687e-3
-1.385, 7.566e-3
-1.384, 7.471e-3
-1.383, 7.447e-3
-1.382, 7.358e-3
-1.381, 7.261e-3
-1.380, 7.198e-3
-1.379, 7.152e-3
-1.378, 7.051e-3
-1.377, 6.983e-3
-1.376, 6.930e-3
-1.375, 6.834e-3
-1.374, 6.781e-3
-1.373, 6.710e-3
-1.372, 6.636e-3
-1.371, 6.562e-3
-1.370, 6.490e-3
-1.369, 6.428e-3
-1.368, 6.375e-3
-1.367, 6.300e-3
-1.366, 6.240e-3
-1.365, 6.207e-3
-1.364, 6.117e-3
-1.363, 6.053e-3
-1.362, 6.022e-3
-1.361, 5.947e-3
-1.360, 5.891e-3
-1.359, 5.830e-3
-1.358, 5.753e-3
-1.357, 5.659e-3
-1.356, 5.568e-3
-1.355, 5.514e-3
-1.354, 5.452e-3
-1.353, 5.374e-3
-1.352, 5.297e-3
-1.351, 5.237e-3
-1.350, 5.185e-3
-1.349, 5.152e-3
-1.348, 5.069e-3
-1.347, 4.998e-3
-1.346, 4.953e-3
-1.345, 4.893e-3
-1.344, 4.806e-3
-1.343, 4.758e-3
-1.342, 4.702e-3
-1.341, 4.644e-3
-1.340, 4.580e-3
-1.339, 4.517e-3
-1.338, 4.435e-3
-1.337, 4.372e-3
-1.336, 4.303e-3
-1.335, 4.242e-3
-1.334, 4.183e-3
-1.333, 4.119e-3
-1.332, 4.065e-3
-1.331, 4.004e-3
-1.330, 3.937e-3
-1.329, 3.881e-3
-1.328, 3.812e-3
-1.327, 3.745e-3
-1.326, 3.695e-3
-1.325, 3.656e-3
-1.324, 3.611e-3
-1.323, 3.560e-3
-1.322, 3.503e-3
-1.321, 3.433e-3
-1.320, 3.381e-3
-1.319, 3.319e-3
-1.318, 3.280e-3
-1.317, 3.237e-3
-1.316, 3.184e-3
-1.315, 3.129e-3
-1.314, 3.077e-3
-1.313, 3.018e-3
-1.312, 2.973e-3
-1.311, 2.912e-3
-1.310, 2.857e-3
-1.309, 2.809e-3
-1.308, 2.750e-3
-1.307, 2.714e-3
-1.306, 2.679e-3
-1.305, 2.626e-3
-1.304, 2.572e-3
-1.303, 2.528e-3
-1.302, 2.477e-3
-1.301, 2.428e-3
-1.300, 2.381e-3
-1.299, 2.341e-3
-1.298, 2.290e-3
-1.297, 2.244e-3
-1.296, 2.195e-3
-1.295, 2.142e-3
-1.294, 2.102e-3
-1.293, 2.069e-3
-1.292, 2.034e-3
-1.291, 1.984e-3
-1.290, 1.945e-3
-1.289, 1.905e-3
-1.288, 1.858e-3
-1.287, 1.816e-3
-1.286, 1.779e-3
-1.285, 1.739e-3
-1.284, 1.690e-3
-1.283, 1.649e-3
-1.282, 1.609e-3
-1.281, 1.575e-3
-1.280, 1.548e-3
-1.279, 1.520e-3
-1.278, 1.483e-3
-1.277, 1.443e-3
-1.276, 1.407e-3
-1.275, 1.369e-3
-1.274, 1.329e-3
-1.273, 1.297e-3
-1.272, 1.262e-3
-1.271, 1.233e-3
-1.270, 1.204e-3
-1.269, 1.172e-3
-1.268, 1.137e-3
-1.267, 1.107e-3
-1.266, 1.078e-3
-1.265, 1.044e-3
-1.264, 1.014e-3
-1.263, 9.891e-4
-1.262, 9.572e-4
-1.261, 9.250e-4
-1.260, 9.005e-4
-1.259, 8.759e-4
-1.258, 8.446e-4
-1.257, 8.161e-4
-1.256, 7.973e-4
-1.255, 7.727e-4
-1.254, 7.452e-4
-1.253, 7.256e-4
-1.252, 7.003e-4
-1.251, 6.721e-4
-1.250, 6.521e-4
-1.249, 6.331e-4
-1.248, 6.076e-4
-1.247, 5.865e-4
-1.246, 5.697e-4
-1.245, 5.464e-4
-1.244, 5.250e-4
-1.243, 5.073e-4
-1.242, 4.881e-4
-1.241, 4.654e-4
-1.240, 4.502e-4
-1.239, 4.340e-4
-1.238, 4.129e-4
-1.237, 3.985e-4
-1.236, 3.857e-4
-1.235, 3.673e-4
-1.234, 3.482e-4
-1.233, 3.353e-4
-1.232, 3.206e-4
-1.231, 3.019e-4
-1.230, 2.895e-4
-1.229, 2.764e-4
-1.228, 2.596e-4
-1.227, 2.462e-4
-1.226, 2.376e-4
-1.225, 2.227e-4
-1.224, 2.086e-4
-1.223, 2.005e-4
-1.222, 1.881e-4
-1.221, 1.730e-4
-1.220, 1.643e-4
-1.219, 1.559e-4
-1.218, 1.426e-4
-1.217, 1.318e-4
-1.216, 1.262e-4
-1.215, 1.145e-4
-1.214, 1.031e-4
-1.213, 9.750e-5
-1.212, 8.866e-5
-1.211, 7.715e-5
-1.210, 7.106e-5
-1.209, 6.514e-5
-1.208, 5.428e-5
-1.207, 4.646e-5
-1.206, 4.306e-5
-1.205, 3.366e-5
-1.204, 2.381e-5
-1.203, 2.082e-5
-1.202, 1.454e-5
-1.201, 4.428e-6
-1.200, 8.169e-7
-1.199, -2.686e-6
-1.198, -1.231e-5
-1.197, -1.805e-5
-1.196, -1.971e-5
-1.195, -2.645e-5
-1.194, -3.386e-5
-1.193, -3.539e-5
-1.192, -3.945e-5
-1.191, -4.810e-5
-1.190, -5.067e-5
-1.189, -5.207e-5
-1.188, -5.974e-5
-1.187, -6.430e-5
-1.186, -6.424e-5
-1.185, -7.037e-5
-1.184, -7.613e-5
-1.183, -7.599e-5
-1.182, -7.929e-5
-1.181, -8.614e-5
-1.180, -8.735e-5
-1.179, -8.791e-5
-1.178, -9.543e-5
-1.177, -9.893e-5
-1.176, -9.703e-5
-1.175, -1.018e-4
-1.174, -1.071e-4
-1.173, -1.057e-4
-1.172, -1.083e-4
-1.171, -1.150e-4
-1.170, -1.143e-4
-1.169, -1.144e-4
-1.168, -1.197e-4
-1.167, -1.225e-4
-1.166, -1.205e-4
-1.165, -1.263e-4
-1.164, -1.310e-4
-1.163, -1.286e-4
-1.162, -1.295e-4
-1.161, -1.348e-4
-1.160, -1.335e-4
-1.159, -1.328e-4
-1.158, -1.381e-4
-1.157, -1.401e-4
-1.156, -1.380e-4
-1.155, -1.417e-4
-1.154, -1.453e-4
-1.153, -1.427e-4
-1.152, -1.437e-4
-1.151, -1.493e-4
-1.150, -1.480e-4
-1.149, -1.463e-4
-1.148, -1.516e-4
-1.147, -1.532e-4
-1.146, -1.499e-4
-1.145, -1.537e-4
-1.144, -1.573e-4
-1.143, -1.546e-4
-1.142, -1.552e-4
-1.141, -1.596e-4
-1.140, -1.585e-4
-1.139, -1.572e-4
-1.138, -1.617e-4
-1.137, -1.630e-4
-1.136, -1.595e-4
-1.135, -1.634e-4
-1.134, -1.665e-4
-1.133, -1.632e-4
-1.132, -1.639e-4
-1.131, -1.680e-4
-1.130, -1.666e-4
-1.129, -1.647e-4
-1.128, -1.686e-4
-1.127, -1.699e-4
-1.126, -1.669e-4
-1.125, -1.697e-4
-1.124, -1.735e-4
-1.123, -1.698e-4
-1.122, -1.698e-4
-1.121, -1.739e-4
-1.120, -1.714e-4
-1.119, -1.700e-4
-1.118, -1.742e-4
-1.117, -1.745e-4
-1.116, -1.717e-4
-1.115, -1.737e-4
-1.114, -1.767e-4
-1.113, -1.739e-4
-1.112, -1.737e-4
-1.111, -1.781e-4
-1.110, -1.765e-4
-1.109, -1.744e-4
-1.108, -1.781e-4
-1.107, -1.791e-4
-1.106, -1.759e-4
-1.105, -1.791e-4
-1.104, -1.812e-4
-1.103, -1.777e-4
-1.102, -1.784e-4
-1.101, -1.838e-4
-1.100, -1.811e-4
-1.099, -1.781e-4
-1.098, -1.817e-4
-1.097, -1.826e-4
-1.096, -1.784e-4
-1.095, -1.807e-4
-1.094, -1.834e-4
-1.093, -1.799e-4
-1.092, -1.799e-4
-1.091, -1.843e-4
-1.090, -1.817e-4
-1.089, -1.801e-4
-1.088, -1.840e-4
-1.087, -1.846e-4
-1.086, -1.811e-4
-1.085, -1.831e-4
-1.084, -1.862e-4
-1.083, -1.829e-4
-1.082, -1.824e-4
-1.081, -1.865e-4
-1.080, -1.843e-4
-1.079, -1.823e-4
-1.078, -1.863e-4
-1.077, -1.868e-4
-1.076, -1.830e-4
-1.075, -1.862e-4
-1.074, -1.884e-4
-1.073, -1.849e-4
-1.072, -1.849e-4
-1.071, -1.890e-4
-1.070, -1.874e-4
-1.069, -1.849e-4
-1.068, -1.891e-4
-1.067, -1.905e-4
-1.066, -1.871e-4
-1.065, -1.892e-4
-1.064, -1.909e-4
-1.063, -1.869e-4
-1.062, -1.877e-4
-1.061, -1.915e-4
-1.060, -1.892e-4
-1.059, -1.870e-4
-1.058, -1.915e-4
-1.057, -1.920e-4
-1.056, -1.879e-4
-1.055, -1.907e-4
-1.054, -1.934e-4
-1.053, -1.900e-4
-1.052, -1.904e-4
-1.051, -1.945e-4
-1.050, -1.921e-4
-1.049, -1.909e-4
-1.048, -1.946e-4
-1.047, -1.953e-4
-1.046, -1.922e-4
-1.045, -1.955e-4
-1.044, -1.977e-4
-1.043, -1.939e-4
-1.042, -1.945e-4
-1.041, -1.988e-4
-1.040, -1.962e-4
-1.039, -1.949e-4
-1.038, -1.990e-4
-1.037, -1.993e-4
-1.036, -1.962e-4
-1.035, -1.989e-4
-1.034, -2.018e-4
-1.033, -1.985e-4
-1.032, -1.990e-4
-1.031, -2.074e-4
-1.030, -2.037e-4
-1.029, -2.008e-4
-1.028, -2.043e-4
-1.027, -2.050e-4
-1.026, -2.011e-4
-1.025, -2.051e-4
-1.024, -2.077e-4
-1.023, -2.046e-4
-1.022, -2.048e-4
-1.021, -2.089e-4
-1.020, -2.076e-4
-1.019, -2.076e-4
-1.018, -2.115e-4
-1.017, -2.116e-4
-1.016, -2.077e-4
-1.015, -2.118e-4
-1.014, -2.165e-4
-1.013, -2.117e-4
-1.012, -2.121e-4
-1.011, -2.163e-4
-1.010, -2.144e-4
-1.009, -2.132e-4
-1.008, -2.173e-4
-1.007, -2.183e-4
-1.006, -2.151e-4
-1.005, -2.184e-4
-1.004, -2.214e-4
-1.003, -2.185e-4
-1.002, -2.193e-4
-1.001, -2.241e-4
