Potential V vs RHE, Current mA cm-2
0.013299999999999867,-0.3511313446265021
0.012299999999999978,-1.1798692240874404
0.011299999999999866,-1.7033124050375041
0.010299999999999976,-2.052746096104168
0.009299999999999864,-2.2706116362833835
0.008299999999999974,-2.4446211261667834
0.007299999999999862,-2.618630616050183
0.006299999999999972,-2.7501987669376318
0.00529999999999986,-2.8803522065252145
0.0042999999999999705,-2.968064307116847
0.0032999999999998586,-3.0119203574126634
0.0022999999999999687,-3.0119203574126634
0.0012999999999998568,-3.055776407708479
0.00029999999999996696,-3.0996324580042955
-0.000700000000000145,-3.1859298472960624
-0.0017000000000000348,-3.2297858975918787
-0.0027000000000001467,-3.2297858975918787
-0.0037000000000000366,-3.2297858975918787
-0.0047000000000001485,-3.2297858975918787
-0.005700000000000038,-3.2297858975918787
-0.00670000000000015,-3.317497998183511
-0.00770000000000004,-3.361354048479327
-0.008700000000000152,-3.403795387475278
-0.009700000000000042,-3.361354048479327
-0.010700000000000154,-3.361354048479327
-0.011700000000000044,-3.361354048479327
-0.012700000000000156,-3.361354048479327
-0.013700000000000045,-3.403795387475278
-0.014700000000000157,-3.4915074880669104
-0.015700000000000047,-3.447651437771094
-0.01670000000000016,-3.447651437771094
-0.01770000000000005,-3.403795387475278
-0.01870000000000016,-3.403795387475278
-0.01970000000000005,-3.447651437771094
-0.020700000000000163,-3.4915074880669104
-0.021700000000000053,-3.4915074880669104
-0.022700000000000164,-3.5353635383627267
-0.023700000000000054,-3.447651437771094
-0.024700000000000166,-3.447651437771094
-0.025700000000000056,-3.447651437771094
-0.026700000000000168,-3.4915074880669104
-0.027700000000000058,-3.5353635383627267
-0.02870000000000017,-3.5353635383627267
-0.02970000000000006,-3.5353635383627267
-0.03070000000000017,-3.5353635383627267
-0.03170000000000006,-3.4915074880669104
-0.03270000000000017,-3.4915074880669104
-0.03370000000000006,-3.5353635383627267
-0.034700000000000175,-3.579219588658543
-0.035700000000000065,-3.579219588658543
-0.03670000000000018,-3.5353635383627267
-0.03770000000000007,-3.5353635383627267
-0.03870000000000018,-3.4915074880669104
-0.03970000000000007,-3.5353635383627267
-0.04070000000000018,-3.579219588658543
-0.04170000000000007,-3.623075638954359
-0.04270000000000018,-3.579219588658543
-0.04370000000000007,-3.579219588658543
-0.044700000000000184,-3.5353635383627267
-0.045700000000000074,-3.579219588658543
-0.046700000000000186,-3.579219588658543
-0.047700000000000076,-3.623075638954359
-0.04870000000000019,-3.623075638954359
-0.04970000000000008,-3.623075638954359
-0.05070000000000019,-3.579219588658543
-0.05170000000000008,-3.579219588658543
-0.05270000000000019,-3.579219588658543
-0.05370000000000008,-3.623075638954359
-0.05470000000000019,-3.6655169779503103
-0.05570000000000008,-3.6655169779503103
-0.056700000000000195,-3.6655169779503103
-0.057700000000000085,-3.623075638954359
-0.058700000000000196,-3.623075638954359
-0.059700000000000086,-3.6655169779503103
-0.0607000000000002,-3.7093730282461257
-0.06170000000000009,-3.7093730282461257
-0.0627000000000002,-3.7093730282461257
-0.06370000000000009,-3.6655169779503103
-0.0647000000000002,-3.623075638954359
-0.06570000000000009,-3.6655169779503103
-0.0667000000000002,-3.6655169779503103
-0.0677000000000001,-3.7093730282461257
-0.0687000000000002,-3.7532290785419424
-0.0697000000000001,-3.7532290785419424
-0.07070000000000021,-3.7093730282461257
-0.0717000000000001,-3.6655169779503103
-0.07270000000000021,-3.6655169779503103
-0.0737000000000001,-3.7093730282461257
-0.07470000000000021,-3.7532290785419424
-0.0757000000000001,-3.7532290785419424
-0.07670000000000021,-3.7093730282461257
-0.0777000000000001,-3.7093730282461257
-0.07870000000000021,-3.7093730282461257
-0.0797000000000001,-3.7093730282461257
-0.08070000000000022,-3.7532290785419424
-0.0817000000000001,-3.7970851288377587
-0.08270000000000022,-3.7970851288377587
-0.08370000000000011,-3.7532290785419424
-0.08470000000000022,-3.7532290785419424
-0.08570000000000011,-3.7532290785419424
-0.08670000000000022,-3.7970851288377587
-0.08770000000000011,-3.840941179133574
-0.08870000000000022,-3.840941179133574
-0.08970000000000011,-3.7970851288377587
-0.09070000000000022,-3.7970851288377587
-0.09170000000000011,-3.7970851288377587
-0.09270000000000023,-3.7970851288377587
-0.09370000000000012,-3.840941179133574
-0.09470000000000023,-3.884797229429391
-0.09570000000000012,-3.884797229429391
-0.09670000000000023,-3.884797229429391
-0.09770000000000012,-3.840941179133574
-0.09870000000000023,-3.840941179133574
-0.09970000000000012,-3.884797229429391
-0.10070000000000023,-3.884797229429391
-0.10170000000000012,-3.927238568425342
-0.10270000000000024,-3.927238568425342
-0.10370000000000013,-3.927238568425342
-0.10470000000000024,-3.884797229429391
-0.10570000000000013,-3.884797229429391
-0.10670000000000024,-3.927238568425342
-0.10770000000000013,-3.971094618721158
-0.10870000000000024,-3.971094618721158
-0.10970000000000013,-3.971094618721158
-0.11070000000000024,-3.927238568425342
-0.11170000000000013,-3.927238568425342
-0.11270000000000002,-3.971094618721158
-0.11370000000000013,-4.014950669016974
-0.11470000000000002,-4.0588067193127895
-0.11570000000000014,-4.0588067193127895
-0.11670000000000003,-4.014950669016974
-0.11770000000000014,-4.014950669016974
-0.11870000000000003,-4.014950669016974
-0.11970000000000014,-4.014950669016974
-0.12070000000000003,-4.102662769608606
-0.12170000000000014,-4.102662769608606
-0.12270000000000003,-4.102662769608606
-0.12370000000000014,-4.102662769608606
-0.12470000000000003,-4.0588067193127895
-0.12570000000000014,-4.0588067193127895
-0.12670000000000003,-4.102662769608606
-0.12770000000000015,-4.146518819904423
-0.12870000000000004,-4.1889601589003735
-0.12970000000000015,-4.146518819904423
-0.13070000000000004,-4.146518819904423
-0.13170000000000015,-4.102662769608606
-0.13270000000000004,-4.146518819904423
-0.13370000000000015,-4.1889601589003735
-0.13470000000000004,-4.23281620919619
-0.13570000000000015,-4.23281620919619
-0.13670000000000004,-4.23281620919619
-0.13770000000000016,-4.1889601589003735
-0.13870000000000005,-4.1889601589003735
-0.13970000000000016,-4.23281620919619
-0.14070000000000005,-4.276672259492005
-0.14170000000000016,-4.3205283097878215
-0.14270000000000005,-4.3205283097878215
-0.14370000000000016,-4.276672259492005
-0.14470000000000005,-4.276672259492005
-0.14570000000000016,-4.276672259492005
-0.14670000000000005,-4.3205283097878215
-0.14770000000000016,-4.364384360083638
-0.14870000000000005,-4.406825699079589
-0.14970000000000017,-4.364384360083638
-0.15070000000000006,-4.364384360083638
-0.15170000000000017,-4.364384360083638
-0.15270000000000006,-4.364384360083638
-0.15370000000000017,-4.450681749375406
-0.15470000000000006,-4.494537799671222
-0.15570000000000017,-4.494537799671222
-0.15670000000000006,-4.450681749375406
-0.15770000000000017,-4.450681749375406
-0.15870000000000006,-4.450681749375406
-0.15970000000000018,-4.494537799671222
-0.16070000000000007,-4.538393849967037
-0.16170000000000018,-4.582249900262854
-0.16270000000000007,-4.582249900262854
-0.16370000000000018,-4.582249900262854
-0.16470000000000007,-4.538393849967037
-0.16570000000000018,-4.538393849967037
-0.16670000000000007,-4.626105950558669
-0.16770000000000018,-4.668547289554621
-0.16870000000000007,-4.668547289554621
-0.16970000000000018,-4.668547289554621
-0.17070000000000007,-4.626105950558669
-0.17170000000000019,-4.626105950558669
-0.17270000000000008,-4.668547289554621
-0.1737000000000002,-4.712403339850438
-0.17470000000000008,-4.756259390146253
-0.1757000000000002,-4.756259390146253
-0.17670000000000008,-4.756259390146253
-0.1777000000000002,-4.756259390146253
-0.17870000000000008,-4.712403339850438
-0.1797000000000002,-4.756259390146253
-0.18070000000000008,-4.800115440442069
-0.1817000000000002,-4.843971490737885
-0.18270000000000008,-4.843971490737885
-0.1837000000000002,-4.800115440442069
-0.1847000000000001,-4.800115440442069
-0.1857000000000002,-4.843971490737885
-0.1867000000000001,-4.887827541033701
-0.1877000000000002,-4.9302688800296535
-0.1887000000000001,-4.974124930325469
-0.1897000000000002,-4.9302688800296535
-0.1907000000000001,-4.887827541033701
-0.1917000000000001,-4.9302688800296535
-0.19269999999999998,-4.9302688800296535
-0.1937000000000001,-4.974124930325469
-0.19469999999999998,-5.017980980621284
-0.1957000000000001,-5.0618370309171015
-0.19669999999999999,-5.017980980621284
-0.1977000000000001,-5.017980980621284
-0.1987,-5.017980980621284
-0.1997000000000001,-5.0618370309171015
-0.2007,-5.105693081212917
-0.2017000000000001,-5.149549131508733
-0.2027,-5.105693081212917
-0.2037000000000001,-5.105693081212917
-0.2047,-5.105693081212917
-0.2057000000000001,-5.105693081212917
-0.2067,-5.149549131508733
-0.2077000000000001,-5.191990470504685
-0.2087,-5.235846520800501
-0.2097000000000001,-5.191990470504685
-0.2107,-5.191990470504685
-0.2117000000000001,-5.191990470504685
-0.2127,-5.191990470504685
-0.2137000000000001,-5.279702571096316
-0.2147,-5.323558621392133
-0.2157000000000001,-5.367414671687949
-0.2167,-5.323558621392133
-0.21770000000000012,-5.279702571096316
-0.2187,-5.279702571096316
-0.21970000000000012,-5.323558621392133
-0.2207,-5.367414671687949
-0.22170000000000012,-5.411270721983764
-0.2227,-5.411270721983764
-0.22370000000000012,-5.367414671687949
-0.2247,-5.367414671687949
-0.22570000000000012,-5.411270721983764
-0.2267,-5.411270721983764
-0.22770000000000012,-5.453712060979717
-0.22870000000000001,-5.497568111275533
-0.22970000000000013,-5.453712060979717
-0.23070000000000002,-5.453712060979717
-0.23170000000000013,-5.453712060979717
-0.23270000000000002,-5.497568111275533
-0.23370000000000013,-5.5414241615713475
-0.23470000000000002,-5.585280211867165
-0.23570000000000013,-5.629136262162981
-0.23670000000000002,-5.585280211867165
-0.2376999999999999,-5.585280211867165
-0.23870000000000002,-5.585280211867165
-0.2396999999999999,-5.629136262162981
-0.24070000000000003,-5.672992312458796
-0.24169999999999991,-5.715433651454749
-0.24270000000000003,-5.715433651454749
-0.24369999999999992,-5.715433651454749
-0.24470000000000003,-5.672992312458796
-0.24569999999999992,-5.715433651454749
-0.24670000000000003,-5.759289701750564
-0.24769999999999992,-5.80314575204638
-0.24870000000000003,-5.847001802342197
-0.24969999999999992,-5.847001802342197
-0.25070000000000003,-5.847001802342197
-0.2516999999999999,-5.847001802342197
-0.25270000000000004,-5.890857852638012
-0.2536999999999999,-5.890857852638012
-0.25470000000000004,-5.977155241929781
-0.2556999999999999,-5.977155241929781
-0.25670000000000004,-5.977155241929781
-0.25769999999999993,-6.021011292225596
-0.25870000000000004,-6.021011292225596
-0.25969999999999993,-6.064867342521412
-0.26070000000000004,-6.152579443113044
-0.26169999999999993,-6.196435493408861
-0.26270000000000004,-6.196435493408861
-0.26369999999999993,-6.196435493408861
-0.26470000000000005,-6.196435493408861
-0.26569999999999994,-6.238876832404812
-0.26670000000000005,-6.326588932996443
-0.26769999999999994,-6.414301033588076
-0.26870000000000005,-6.458157083883892
-0.26969999999999994,-6.458157083883892
-0.27070000000000005,-6.458157083883892
-0.27169999999999994,-6.500598422879844
-0.27270000000000005,-6.54445447317566
-0.27369999999999994,-6.632166573767292
-0.27470000000000006,-6.719878674358924
-0.27569999999999995,-6.762320013354876
-0.27670000000000006,-6.806176063650692
-0.27769999999999995,-6.806176063650692
-0.27870000000000006,-6.850032113946507
-0.27969999999999995,-6.93774421453814
-0.28070000000000006,-7.067897654125724
-0.28169999999999995,-7.155609754717355
-0.28270000000000006,-7.199465805013171
-0.28369999999999995,-7.243321855308987
-0.28470000000000006,-7.28576319430494
-0.28569999999999995,-7.37347529489657
-0.28670000000000007,-7.461187395488204
-0.28769999999999996,-7.591340835075788
-0.28870000000000007,-7.679052935667419
-0.28969999999999996,-7.722908985963235
-0.29070000000000007,-7.809206375255003
-0.29169999999999996,-7.896918475846635
-0.29270000000000007,-7.984630576438266
-0.29369999999999996,-8.158640066321666
-0.2947000000000001,-8.288793505909249
-0.29569999999999996,-8.376505606500881
-0.2967000000000001,-8.464217707092514
-0.29769999999999996,-8.55051509638428
-0.2987000000000001,-8.68208324727173
-0.29969999999999997,-8.85609273715513
-0.3007000000000001,-9.031516938338395
-0.30169999999999997,-9.205526428221793
-0.3027000000000001,-9.335679867809377
-0.30369999999999997,-9.511104068992642
-0.3047000000000001,-9.641257508580225
-0.30569999999999997,-9.81668170976349
-0.3067000000000001,-10.034547249942705
-0.3077,-10.296268840417738
-0.3087000000000001,-10.514134380596953
-0.3097,-10.688143870480351
-0.3107000000000001,-10.906009410659568
-0.3117,-11.1677310011346
-0.3127000000000001,-11.473308641905447
-0.3137,-11.778886282676295
-0.3147000000000001,-12.084463923447142
-0.3157,-12.432482903213943
-0.3167000000000001,-12.73806054398479
-0.3177,-13.087494235051453
-0.3187000000000001,-13.47936926511407
-0.3197,-13.916515056772363
-0.3207000000000001,-14.401761032626075
-0.3217,-14.925204213576137
-0.3227000000000001,-15.448647394526201
-0.3237,-16.014531914472215
-0.3247000000000001,-16.580416434418233
-0.3257,-17.231183632356142
-0.3267000000000001,-17.966833508285966
-0.3277,-18.716630497214435
-0.3287000000000001,-19.579604390132108
-0.3297,-20.456725396048434
-0.3307000000000001,-21.418729079956652
-0.3317,-22.46561544185678
-0.3327000000000001,-23.639825820744765
-0.3337,-24.95550732961925
-0.3347000000000001,-26.29948306449103
-0.3357,-27.742488590353368
-0.3367000000000001,-29.27037679420761
-0.3377,-30.925589015049702
-0.3387000000000001,-32.70812525287965
-0.3397,-34.67457395969205
-0.3407000000000001,-36.6834640055004
-0.3417,-38.94700208528445
-0.3427000000000001,-41.22468727806717
-0.3437,-43.61554937483908
-0.3447000000000001,-46.147882601597495
-0.3457,-48.72265716735186
-0.3467000000000001,-51.46719708909004
-0.3477,-54.2117370108282
-0.3487000000000001,-57.012865384560975
-0.3497,-59.7998466452951
-0.3507000000000001,-62.58682790602922
-0.3517,-65.60016297474175
-0.3527000000000001,-68.57105670445833
-0.3537,-71.58439177317086
-0.3547000000000001,-74.45625571189689
-0.3557,-77.28567831162695
-0.35670000000000013,-80.04436534636378
-0.3577,-82.70402259011003
-0.35870000000000013,-85.36367983385631
-0.3597,-88.19310243358639
-0.36070000000000013,-90.81031833833671
-0.3617,-93.34265156509512
-0.3626999999999999,-95.87498479185354
-0.3637,-98.05364019364569
-0.3646999999999999,-100.10497157844999
-0.3657,-102.19874430225026
-0.3666999999999999,-104.16519300906265
-0.3677,-106.15993594187235
-0.3686999999999999,-108.04150197069285
-0.36970000000000003,-109.78159686952685
-0.3706999999999999,-111.394367751373
-0.37170000000000003,-112.83737327723534
-0.3726999999999999,-114.28037880309766
-0.37370000000000003,-115.85070834594785
-0.3746999999999999,-117.25127253281424
-0.37570000000000003,-118.82160207566443
-0.3766999999999999,-120.25046048852812
-0.37770000000000004,-121.2549055114323
-0.3786999999999999,-122.78279371528653
-0.37970000000000004,-124.09847522416102
-0.3806999999999999,-125.23024426405304
-0.38170000000000004,-126.40445464294103
-0.38269999999999993,-127.66354769982091
-0.38370000000000004,-128.71043406172103
-0.38469999999999993,-129.75732042362114
-0.38570000000000004,-130.63444142953747
-0.38669999999999993,-131.1154432714916
-0.38570000000000004,-129.89879155360765
-0.38469999999999993,-128.62555138372915
-0.38370000000000004,-127.36645832684925
-0.38269999999999993,-126.19224794796128
-0.38170000000000004,-125.14536158606113
-0.3806999999999999,-123.70235606019881
-0.37970000000000004,-122.61302835930273
-0.3786999999999999,-121.38222952842017
-0.37770000000000004,-120.12313647154028
-0.3766999999999999,-118.76501362366983
-0.37570000000000003,-117.46347922779398
-0.3746999999999999,-116.33171018790196
-0.37370000000000003,-115.01602867902749
-0.3726999999999999,-114.1530547861098
-0.37170000000000003,-113.00713863321914
-0.3706999999999999,-112.05928206230955
-0.36970000000000003,-111.22460239538917
-0.3686999999999999,-109.8806266605174
-0.3677,-108.69226916863077
-0.3666999999999999,-107.20682230377247
-0.3657,-105.94772924689259
-0.3646999999999999,-104.94328422398843
-0.3637,-103.89639786208829
-0.3626999999999999,-102.93439417818009
-0.3617,-101.80262513828804
-0.36070000000000013,-100.58597342040412
-0.3597,-99.53908705850398
-0.35870000000000013,-98.26584688862545
-0.3577,-97.00675383174556
-0.35670000000000013,-95.95986746984543
-0.3557,-94.91298110794531
-0.3547000000000001,-93.86609474604518
-0.3537,-92.6918843671572
-0.3527000000000001,-91.77232202224494
-0.3517,-90.47078762636909
-0.3507000000000001,-89.42390126446898
-0.3497,-88.5892215975486
-0.3487000000000001,-87.49989389665252
-0.3477,-86.58033155174023
-0.3467000000000001,-85.49100385084417
-0.3457,-84.52900016693594
-0.3447000000000001,-83.52455514403178
-0.3437,-82.30790342614785
-0.3427000000000001,-81.47322375922747
-0.3417,-80.56780852731384
-0.3407000000000001,-79.2945683574353
-0.3397,-78.38915312552167
-0.3387000000000001,-77.80912149257702
-0.3377,-76.86126492166746
-0.3367000000000001,-75.81437855976732
-0.3357,-74.89481621485504
-0.3347000000000001,-73.93281253094682
-0.3337,-72.84348483005074
-0.3327000000000001,-71.7965984681506
-0.3317,-71.18827260920865
-0.3307000000000001,-70.14138624730852
-0.3297,-69.22182390239624
-0.3287000000000001,-68.0051721845123
-0.3277,-66.9582858226122
-0.3267000000000001,-66.08116481669586
-0.3257,-65.2464851497755
-0.3247000000000001,-64.42595259585376
-0.3237,-63.77518539791585
-0.3227000000000001,-62.89806439199953
-0.3217,-62.02094338608321
-0.3207000000000001,-61.15796949316553
-0.3197,-60.28084848724921
-0.3187000000000001,-59.36128614233694
-0.3177,-58.39928245842871
-0.3167000000000001,-57.57874990450699
-0.3157,-56.74407023758662
-0.3147000000000001,-56.008420361656796
-0.3137,-55.046416677748574
-0.3127000000000001,-54.1268543328363
-0.3117,-53.433645795902436
-0.3107000000000001,-52.55652478998611
-0.3097,-51.73599223606439
-0.3087000000000001,-50.943753908139975
-0.3077,-50.12322135421825
-0.3067000000000001,-49.642219512264134
-0.30569999999999997,-48.76509850634781
-0.3047000000000001,-47.987007291422046
-0.30369999999999997,-47.23721030249357
-0.3027000000000001,-46.3176479575813
-0.30169999999999997,-45.497115403659585
-0.3007000000000001,-44.84634820572166
-0.29969999999999997,-43.92678586080939
-0.2987000000000001,-43.17698887188092
-0.29769999999999996,-42.6111043519349
-0.2967000000000001,-41.91789581500104
-0.29569999999999996,-41.139804600075266
-0.2947000000000001,-40.43244895014274
-0.29369999999999996,-39.78168175220483
-0.29270000000000007,-39.08847321527096
-0.29169999999999996,-38.38111756533845
-0.29070000000000007,-37.73035036740053
-0.28969999999999996,-36.89567070048016
-0.28870000000000007,-36.16002082455034
-0.28769999999999996,-35.50925362661242
-0.28670000000000007,-34.75945663768395
-0.28569999999999995,-34.15113077874198
-0.28470000000000006,-33.54280491980002
-0.28369999999999995,-32.84959638286615
-0.28270000000000006,-32.14224073293363
-0.28169999999999995,-31.49147353499572
-0.28070000000000006,-30.88314767605375
-0.27969999999999995,-30.359704495103685
-0.27870000000000006,-29.921143992145527
-0.27769999999999995,-29.22793545521166
-0.27670000000000006,-28.577168257273744
-0.27569999999999995,-28.011283737327723
-0.27470000000000006,-27.34636942639116
-0.27369999999999994,-26.822926245441096
-0.27270000000000005,-26.257041725495082
-0.27169999999999994,-25.77603988354097
-0.27070000000000005,-25.210155363594954
-0.26969999999999994,-24.559388165657033
-0.26870000000000005,-23.951062306715073
-0.26769999999999994,-23.342736447773106
-0.26670000000000005,-22.776851927827092
-0.26569999999999994,-22.253408746877028
