Aug. 30, 2024   20:36:22
Linear Sweep Voltammetry
File: c:/users/guazh/data/20240829_batch_215_500/2024-08-29-exp223\pre-regen-2024-08-30t20_33_20-lsvinphos\pre-regen_lsv_50mvs_efin_-1900mv.bin
Data Source:  Experiment
Instrument Model:  CHI760E
Header: LSV ran at 50 mVs with Efin at -1900mV
Note: 

Init E (V) = -0.6
Final E (V) = -1.9
Scan Rate (V/s) = 0.05
Sample Interval (V) = 0.001
Quiet Time (sec) = 2
Sensitivity (A/V) = 1e-4
Comp R (ohm) = 7.0

Results:

Channel 1:
Ep = -0.881V
ip = 4.885e-5A
Ah = 6.339e-5C

Ep = -1.613V
ip = 4.452e-4A
Ah = 6.462e-4C

Potential/V, Current/A

-0.600, 9.904e-6
-0.601, 1.253e-5
-0.602, 1.386e-5
-0.603, 1.435e-5
-0.604, 1.461e-5
-0.605, 1.483e-5
-0.606, 1.502e-5
-0.607, 1.516e-5
-0.608, 1.530e-5
-0.609, 1.542e-5
-0.610, 1.552e-5
-0.611, 1.562e-5
-0.612, 1.571e-5
-0.613, 1.580e-5
-0.614, 1.590e-5
-0.615, 1.599e-5
-0.616, 1.604e-5
-0.617, 1.611e-5
-0.618, 1.616e-5
-0.619, 1.623e-5
-0.620, 1.628e-5
-0.621, 1.635e-5
-0.622, 1.641e-5
-0.623, 1.645e-5
-0.624, 1.653e-5
-0.625, 1.657e-5
-0.626, 1.660e-5
-0.627, 1.666e-5
-0.628, 1.672e-5
-0.629, 1.675e-5
-0.630, 1.680e-5
-0.631, 1.683e-5
-0.632, 1.687e-5
-0.633, 1.692e-5
-0.634, 1.696e-5
-0.635, 1.699e-5
-0.636, 1.703e-5
-0.637, 1.707e-5
-0.638, 1.711e-5
-0.639, 1.713e-5
-0.640, 1.717e-5
-0.641, 1.720e-5
-0.642, 1.722e-5
-0.643, 1.727e-5
-0.644, 1.729e-5
-0.645, 1.732e-5
-0.646, 1.735e-5
-0.647, 1.736e-5
-0.648, 1.740e-5
-0.649, 1.742e-5
-0.650, 1.744e-5
-0.651, 1.748e-5
-0.652, 1.751e-5
-0.653, 1.752e-5
-0.654, 1.755e-5
-0.655, 1.755e-5
-0.656, 1.758e-5
-0.657, 1.760e-5
-0.658, 1.762e-5
-0.659, 1.764e-5
-0.660, 1.765e-5
-0.661, 1.766e-5
-0.662, 1.769e-5
-0.663, 1.770e-5
-0.664, 1.773e-5
-0.665, 1.774e-5
-0.666, 1.777e-5
-0.667, 1.778e-5
-0.668, 1.777e-5
-0.669, 1.779e-5
-0.670, 1.780e-5
-0.671, 1.780e-5
-0.672, 1.783e-5
-0.673, 1.784e-5
-0.674, 1.783e-5
-0.675, 1.785e-5
-0.676, 1.786e-5
-0.677, 1.787e-5
-0.678, 1.788e-5
-0.679, 1.788e-5
-0.680, 1.790e-5
-0.681, 1.790e-5
-0.682, 1.789e-5
-0.683, 1.792e-5
-0.684, 1.792e-5
-0.685, 1.791e-5
-0.686, 1.792e-5
-0.687, 1.792e-5
-0.688, 1.791e-5
-0.689, 1.792e-5
-0.690, 1.793e-5
-0.691, 1.793e-5
-0.692, 1.793e-5
-0.693, 1.793e-5
-0.694, 1.793e-5
-0.695, 1.792e-5
-0.696, 1.794e-5
-0.697, 1.794e-5
-0.698, 1.794e-5
-0.699, 1.795e-5
-0.700, 1.794e-5
-0.701, 1.794e-5
-0.702, 1.795e-5
-0.703, 1.795e-5
-0.704, 1.795e-5
-0.705, 1.796e-5
-0.706, 1.795e-5
-0.707, 1.797e-5
-0.708, 1.797e-5
-0.709, 1.797e-5
-0.710, 1.799e-5
-0.711, 1.798e-5
-0.712, 1.798e-5
-0.713, 1.799e-5
-0.714, 1.800e-5
-0.715, 1.802e-5
-0.716, 1.803e-5
-0.717, 1.804e-5
-0.718, 1.806e-5
-0.719, 1.807e-5
-0.720, 1.808e-5
-0.721, 1.810e-5
-0.722, 1.811e-5
-0.723, 1.814e-5
-0.724, 1.816e-5
-0.725, 1.817e-5
-0.726, 1.820e-5
-0.727, 1.822e-5
-0.728, 1.826e-5
-0.729, 1.830e-5
-0.730, 1.832e-5
-0.731, 1.837e-5
-0.732, 1.839e-5
-0.733, 1.843e-5
-0.734, 1.848e-5
-0.735, 1.852e-5
-0.736, 1.857e-5
-0.737, 1.862e-5
-0.738, 1.867e-5
-0.739, 1.875e-5
-0.740, 1.880e-5
-0.741, 1.887e-5
-0.742, 1.894e-5
-0.743, 1.900e-5
-0.744, 1.909e-5
-0.745, 1.917e-5
-0.746, 1.924e-5
-0.747, 1.933e-5
-0.748, 1.942e-5
-0.749, 1.951e-5
-0.750, 1.963e-5
-0.751, 1.973e-5
-0.752, 1.984e-5
-0.753, 1.996e-5
-0.754, 2.009e-5
-0.755, 2.022e-5
-0.756, 2.034e-5
-0.757, 2.049e-5
-0.758, 2.064e-5
-0.759, 2.077e-5
-0.760, 2.094e-5
-0.761, 2.111e-5
-0.762, 2.128e-5
-0.763, 2.147e-5
-0.764, 2.164e-5
-0.765, 2.183e-5
-0.766, 2.203e-5
-0.767, 2.222e-5
-0.768, 2.246e-5
-0.769, 2.269e-5
-0.770, 2.290e-5
-0.771, 2.314e-5
-0.772, 2.337e-5
-0.773, 2.363e-5
-0.774, 2.389e-5
-0.775, 2.415e-5
-0.776, 2.442e-5
-0.777, 2.470e-5
-0.778, 2.498e-5
-0.779, 2.528e-5
-0.780, 2.558e-5
-0.781, 2.590e-5
-0.782, 2.622e-5
-0.783, 2.653e-5
-0.784, 2.687e-5
-0.785, 2.721e-5
-0.786, 2.756e-5
-0.787, 2.790e-5
-0.788, 2.826e-5
-0.789, 2.864e-5
-0.790, 2.902e-5
-0.791, 2.940e-5
-0.792, 2.979e-5
-0.793, 3.019e-5
-0.794, 3.058e-5
-0.795, 3.099e-5
-0.796, 3.138e-5
-0.797, 3.181e-5
-0.798, 3.225e-5
-0.799, 3.266e-5
-0.800, 3.310e-5
-0.801, 3.354e-5
-0.802, 3.398e-5
-0.803, 3.444e-5
-0.804, 3.491e-5
-0.805, 3.548e-5
-0.806, 3.595e-5
-0.807, 3.637e-5
-0.808, 3.680e-5
-0.809, 3.726e-5
-0.810, 3.771e-5
-0.811, 3.820e-5
-0.812, 3.867e-5
-0.813, 3.917e-5
-0.814, 3.966e-5
-0.815, 4.015e-5
-0.816, 4.066e-5
-0.817, 4.116e-5
-0.818, 4.167e-5
-0.819, 4.221e-5
-0.820, 4.278e-5
-0.821, 4.327e-5
-0.822, 4.376e-5
-0.823, 4.427e-5
-0.824, 4.478e-5
-0.825, 4.531e-5
-0.826, 4.584e-5
-0.827, 4.637e-5
-0.828, 4.691e-5
-0.829, 4.744e-5
-0.830, 4.799e-5
-0.831, 4.853e-5
-0.832, 4.909e-5
-0.833, 4.964e-5
-0.834, 5.018e-5
-0.835, 5.074e-5
-0.836, 5.128e-5
-0.837, 5.182e-5
-0.838, 5.239e-5
-0.839, 5.291e-5
-0.840, 5.347e-5
-0.841, 5.402e-5
-0.842, 5.456e-5
-0.843, 5.511e-5
-0.844, 5.565e-5
-0.845, 5.621e-5
-0.846, 5.675e-5
-0.847, 5.725e-5
-0.848, 5.777e-5
-0.849, 5.828e-5
-0.850, 5.878e-5
-0.851, 5.928e-5
-0.852, 5.975e-5
-0.853, 6.023e-5
-0.854, 6.070e-5
-0.855, 6.115e-5
-0.856, 6.159e-5
-0.857, 6.203e-5
-0.858, 6.244e-5
-0.859, 6.285e-5
-0.860, 6.322e-5
-0.861, 6.360e-5
-0.862, 6.397e-5
-0.863, 6.429e-5
-0.864, 6.463e-5
-0.865, 6.494e-5
-0.866, 6.523e-5
-0.867, 6.552e-5
-0.868, 6.576e-5
-0.869, 6.599e-5
-0.870, 6.622e-5
-0.871, 6.644e-5
-0.872, 6.661e-5
-0.873, 6.677e-5
-0.874, 6.689e-5
-0.875, 6.701e-5
-0.876, 6.710e-5
-0.877, 6.717e-5
-0.878, 6.724e-5
-0.879, 6.726e-5
-0.880, 6.729e-5
-0.881, 6.730e-5
-0.882, 6.726e-5
-0.883, 6.723e-5
-0.884, 6.719e-5
-0.885, 6.710e-5
-0.886, 6.701e-5
-0.887, 6.690e-5
-0.888, 6.679e-5
-0.889, 6.665e-5
-0.890, 6.648e-5
-0.891, 6.633e-5
-0.892, 6.615e-5
-0.893, 6.596e-5
-0.894, 6.574e-5
-0.895, 6.552e-5
-0.896, 6.530e-5
-0.897, 6.506e-5
-0.898, 6.482e-5
-0.899, 6.457e-5
-0.900, 6.430e-5
-0.901, 6.403e-5
-0.902, 6.376e-5
-0.903, 6.347e-5
-0.904, 6.319e-5
-0.905, 6.290e-5
-0.906, 6.261e-5
-0.907, 6.232e-5
-0.908, 6.202e-5
-0.909, 6.174e-5
-0.910, 6.145e-5
-0.911, 6.115e-5
-0.912, 6.087e-5
-0.913, 6.059e-5
-0.914, 6.030e-5
-0.915, 6.002e-5
-0.916, 5.974e-5
-0.917, 5.947e-5
-0.918, 5.921e-5
-0.919, 5.893e-5
-0.920, 5.868e-5
-0.921, 5.843e-5
-0.922, 5.818e-5
-0.923, 5.794e-5
-0.924, 5.771e-5
-0.925, 5.749e-5
-0.926, 5.728e-5
-0.927, 5.705e-5
-0.928, 5.685e-5
-0.929, 5.665e-5
-0.930, 5.644e-5
-0.931, 5.627e-5
-0.932, 5.609e-5
-0.933, 5.593e-5
-0.934, 5.578e-5
-0.935, 5.561e-5
-0.936, 5.548e-5
-0.937, 5.535e-5
-0.938, 5.522e-5
-0.939, 5.511e-5
-0.940, 5.501e-5
-0.941, 5.491e-5
-0.942, 5.484e-5
-0.943, 5.475e-5
-0.944, 5.468e-5
-0.945, 5.462e-5
-0.946, 5.456e-5
-0.947, 5.452e-5
-0.948, 5.448e-5
-0.949, 5.444e-5
-0.950, 5.442e-5
-0.951, 5.439e-5
-0.952, 5.438e-5
-0.953, 5.437e-5
-0.954, 5.437e-5
-0.955, 5.438e-5
-0.956, 5.440e-5
-0.957, 5.443e-5
-0.958, 5.448e-5
-0.959, 5.450e-5
-0.960, 5.455e-5
-0.961, 5.460e-5
-0.962, 5.466e-5
-0.963, 5.474e-5
-0.964, 5.482e-5
-0.965, 5.490e-5
-0.966, 5.498e-5
-0.967, 5.506e-5
-0.968, 5.517e-5
-0.969, 5.527e-5
-0.970, 5.538e-5
-0.971, 5.552e-5
-0.972, 5.563e-5
-0.973, 5.578e-5
-0.974, 5.590e-5
-0.975, 5.600e-5
-0.976, 5.615e-5
-0.977, 5.630e-5
-0.978, 5.645e-5
-0.979, 5.662e-5
-0.980, 5.677e-5
-0.981, 5.693e-5
-0.982, 5.712e-5
-0.983, 5.727e-5
-0.984, 5.745e-5
-0.985, 5.762e-5
-0.986, 5.781e-5
-0.987, 5.801e-5
-0.988, 5.819e-5
-0.989, 5.838e-5
-0.990, 5.858e-5
-0.991, 5.876e-5
-0.992, 5.897e-5
-0.993, 5.917e-5
-0.994, 5.935e-5
-0.995, 5.954e-5
-0.996, 5.975e-5
-0.997, 5.999e-5
-0.998, 6.024e-5
-0.999, 6.050e-5
-1.000, 6.068e-5
-1.001, 6.089e-5
-1.002, 6.107e-5
-1.003, 6.128e-5
-1.004, 6.149e-5
-1.005, 6.171e-5
-1.006, 6.194e-5
-1.007, 6.216e-5
-1.008, 6.239e-5
-1.009, 6.261e-5
-1.010, 6.282e-5
-1.011, 6.304e-5
-1.012, 6.325e-5
-1.013, 6.351e-5
-1.014, 6.385e-5
-1.015, 6.399e-5
-1.016, 6.420e-5
-1.017, 6.441e-5
-1.018, 6.461e-5
-1.019, 6.483e-5
-1.020, 6.505e-5
-1.021, 6.528e-5
-1.022, 6.550e-5
-1.023, 6.572e-5
-1.024, 6.595e-5
-1.025, 6.616e-5
-1.026, 6.634e-5
-1.027, 6.657e-5
-1.028, 6.676e-5
-1.029, 6.696e-5
-1.030, 6.717e-5
-1.031, 6.735e-5
-1.032, 6.755e-5
-1.033, 6.775e-5
-1.034, 6.791e-5
-1.035, 6.811e-5
-1.036, 6.828e-5
-1.037, 6.847e-5
-1.038, 6.866e-5
-1.039, 6.880e-5
-1.040, 6.895e-5
-1.041, 6.910e-5
-1.042, 6.924e-5
-1.043, 6.938e-5
-1.044, 6.949e-5
-1.045, 6.960e-5
-1.046, 6.974e-5
-1.047, 6.986e-5
-1.048, 6.999e-5
-1.049, 7.009e-5
-1.050, 7.018e-5
-1.051, 7.029e-5
-1.052, 7.036e-5
-1.053, 7.045e-5
-1.054, 7.053e-5
-1.055, 7.057e-5
-1.056, 7.065e-5
-1.057, 7.070e-5
-1.058, 7.073e-5
-1.059, 7.078e-5
-1.060, 7.081e-5
-1.061, 7.083e-5
-1.062, 7.085e-5
-1.063, 7.085e-5
-1.064, 7.088e-5
-1.065, 7.089e-5
-1.066, 7.087e-5
-1.067, 7.089e-5
-1.068, 7.090e-5
-1.069, 7.089e-5
-1.070, 7.086e-5
-1.071, 7.081e-5
-1.072, 7.080e-5
-1.073, 7.077e-5
-1.074, 7.075e-5
-1.075, 7.072e-5
-1.076, 7.073e-5
-1.077, 7.067e-5
-1.078, 7.062e-5
-1.079, 7.053e-5
-1.080, 7.049e-5
-1.081, 7.044e-5
-1.082, 7.036e-5
-1.083, 7.030e-5
-1.084, 7.022e-5
-1.085, 7.015e-5
-1.086, 7.009e-5
-1.087, 7.001e-5
-1.088, 6.996e-5
-1.089, 6.988e-5
-1.090, 6.981e-5
-1.091, 6.975e-5
-1.092, 6.968e-5
-1.093, 6.962e-5
-1.094, 6.961e-5
-1.095, 6.952e-5
-1.096, 6.944e-5
-1.097, 6.936e-5
-1.098, 6.929e-5
-1.099, 6.922e-5
-1.100, 6.914e-5
-1.101, 6.909e-5
-1.102, 6.902e-5
-1.103, 6.895e-5
-1.104, 6.889e-5
-1.105, 6.884e-5
-1.106, 6.879e-5
-1.107, 6.874e-5
-1.108, 6.869e-5
-1.109, 6.863e-5
-1.110, 6.858e-5
-1.111, 6.852e-5
-1.112, 6.849e-5
-1.113, 6.845e-5
-1.114, 6.839e-5
-1.115, 6.838e-5
-1.116, 6.839e-5
-1.117, 6.833e-5
-1.118, 6.828e-5
-1.119, 6.824e-5
-1.120, 6.822e-5
-1.121, 6.821e-5
-1.122, 6.819e-5
-1.123, 6.817e-5
-1.124, 6.816e-5
-1.125, 6.817e-5
-1.126, 6.815e-5
-1.127, 6.812e-5
-1.128, 6.811e-5
-1.129, 6.810e-5
-1.130, 6.809e-5
-1.131, 6.809e-5
-1.132, 6.808e-5
-1.133, 6.810e-5
-1.134, 6.815e-5
-1.135, 6.813e-5
-1.136, 6.812e-5
-1.137, 6.814e-5
-1.138, 6.816e-5
-1.139, 6.818e-5
-1.140, 6.818e-5
-1.141, 6.819e-5
-1.142, 6.821e-5
-1.143, 6.821e-5
-1.144, 6.826e-5
-1.145, 6.829e-5
-1.146, 6.832e-5
-1.147, 6.838e-5
-1.148, 6.843e-5
-1.149, 6.846e-5
-1.150, 6.850e-5
-1.151, 6.854e-5
-1.152, 6.861e-5
-1.153, 6.864e-5
-1.154, 6.868e-5
-1.155, 6.873e-5
-1.156, 6.877e-5
-1.157, 6.883e-5
-1.158, 6.892e-5
-1.159, 6.896e-5
-1.160, 6.902e-5
-1.161, 6.908e-5
-1.162, 6.913e-5
-1.163, 6.921e-5
-1.164, 6.927e-5
-1.165, 6.934e-5
-1.166, 6.943e-5
-1.167, 6.951e-5
-1.168, 6.958e-5
-1.169, 6.966e-5
-1.170, 6.975e-5
-1.171, 6.985e-5
-1.172, 6.994e-5
-1.173, 7.004e-5
-1.174, 7.012e-5
-1.175, 7.021e-5
-1.176, 7.033e-5
-1.177, 7.043e-5
-1.178, 7.054e-5
-1.179, 7.064e-5
-1.180, 7.081e-5
-1.181, 7.101e-5
-1.182, 7.115e-5
-1.183, 7.127e-5
-1.184, 7.139e-5
-1.185, 7.153e-5
-1.186, 7.165e-5
-1.187, 7.178e-5
-1.188, 7.191e-5
-1.189, 7.203e-5
-1.190, 7.218e-5
-1.191, 7.231e-5
-1.192, 7.246e-5
-1.193, 7.260e-5
-1.194, 7.274e-5
-1.195, 7.291e-5
-1.196, 7.304e-5
-1.197, 7.317e-5
-1.198, 7.334e-5
-1.199, 7.346e-5
-1.200, 7.360e-5
-1.201, 7.377e-5
-1.202, 7.394e-5
-1.203, 7.411e-5
-1.204, 7.429e-5
-1.205, 7.446e-5
-1.206, 7.465e-5
-1.207, 7.482e-5
-1.208, 7.501e-5
-1.209, 7.518e-5
-1.210, 7.536e-5
-1.211, 7.559e-5
-1.212, 7.576e-5
-1.213, 7.596e-5
-1.214, 7.619e-5
-1.215, 7.638e-5
-1.216, 7.660e-5
-1.217, 7.684e-5
-1.218, 7.703e-5
-1.219, 7.723e-5
-1.220, 7.745e-5
-1.221, 7.768e-5
-1.222, 7.788e-5
-1.223, 7.812e-5
-1.224, 7.836e-5
-1.225, 7.859e-5
-1.226, 7.882e-5
-1.227, 7.909e-5
-1.228, 7.934e-5
-1.229, 7.964e-5
-1.230, 7.987e-5
-1.231, 8.009e-5
-1.232, 8.036e-5
-1.233, 8.061e-5
-1.234, 8.087e-5
-1.235, 8.115e-5
-1.236, 8.143e-5
-1.237, 8.171e-5
-1.238, 8.201e-5
-1.239, 8.228e-5
-1.240, 8.260e-5
-1.241, 8.290e-5
-1.242, 8.321e-5
-1.243, 8.353e-5
-1.244, 8.387e-5
-1.245, 8.421e-5
-1.246, 8.458e-5
-1.247, 8.494e-5
-1.248, 8.529e-5
-1.249, 8.564e-5
-1.250, 8.599e-5
-1.251, 8.638e-5
-1.252, 8.676e-5
-1.253, 8.713e-5
-1.254, 8.751e-5
-1.255, 8.789e-5
-1.256, 8.829e-5
-1.257, 8.870e-5
-1.258, 8.909e-5
-1.259, 8.949e-5
-1.260, 8.989e-5
-1.261, 9.030e-5
-1.262, 9.073e-5
-1.263, 9.114e-5
-1.264, 9.159e-5
-1.265, 9.202e-5
-1.266, 9.249e-5
-1.267, 9.298e-5
-1.268, 9.346e-5
-1.269, 9.390e-5
-1.270, 9.437e-5
-1.271, 9.481e-5
-1.272, 9.530e-5
-1.273, 9.578e-5
-1.274, 9.626e-5
-1.275, 9.679e-5
-1.276, 9.730e-5
-1.277, 9.784e-5
-1.278, 9.837e-5
-1.279, 9.886e-5
-1.280, 9.940e-5
-1.281, 9.998e-5
-1.282, 1.005e-4
-1.283, 1.011e-4
-1.284, 1.017e-4
-1.285, 1.022e-4
-1.286, 1.028e-4
-1.287, 1.034e-4
-1.288, 1.040e-4
-1.289, 1.046e-4
-1.290, 1.052e-4
-1.291, 1.058e-4
-1.292, 1.065e-4
-1.293, 1.071e-4
-1.294, 1.077e-4
-1.295, 1.084e-4
-1.296, 1.090e-4
-1.297, 1.097e-4
-1.298, 1.104e-4
-1.299, 1.111e-4
-1.300, 1.118e-4
-1.301, 1.125e-4
-1.302, 1.132e-4
-1.303, 1.139e-4
-1.304, 1.146e-4
-1.305, 1.154e-4
-1.306, 1.161e-4
-1.307, 1.169e-4
-1.308, 1.177e-4
-1.309, 1.184e-4
-1.310, 1.192e-4
-1.311, 1.200e-4
-1.312, 1.208e-4
-1.313, 1.217e-4
-1.314, 1.225e-4
-1.315, 1.233e-4
-1.316, 1.241e-4
-1.317, 1.250e-4
-1.318, 1.258e-4
-1.319, 1.267e-4
-1.320, 1.276e-4
-1.321, 1.285e-4
-1.322, 1.294e-4
-1.323, 1.303e-4
-1.324, 1.312e-4
-1.325, 1.321e-4
-1.326, 1.331e-4
-1.327, 1.340e-4
-1.328, 1.350e-4
-1.329, 1.360e-4
-1.330, 1.369e-4
-1.331, 1.379e-4
-1.332, 1.389e-4
-1.333, 1.399e-4
-1.334, 1.410e-4
-1.335, 1.420e-4
-1.336, 1.430e-4
-1.337, 1.441e-4
-1.338, 1.452e-4
-1.339, 1.462e-4
-1.340, 1.474e-4
-1.341, 1.485e-4
-1.342, 1.496e-4
-1.343, 1.507e-4
-1.344, 1.518e-4
-1.345, 1.529e-4
-1.346, 1.540e-4
-1.347, 1.552e-4
-1.348, 1.563e-4
-1.349, 1.575e-4
-1.350, 1.587e-4
-1.351, 1.599e-4
-1.352, 1.611e-4
-1.353, 1.623e-4
-1.354, 1.636e-4
-1.355, 1.648e-4
-1.356, 1.660e-4
-1.357, 1.673e-4
-1.358, 1.686e-4
-1.359, 1.698e-4
-1.360, 1.712e-4
-1.361, 1.725e-4
-1.362, 1.738e-4
-1.363, 1.752e-4
-1.364, 1.765e-4
-1.365, 1.778e-4
-1.366, 1.792e-4
-1.367, 1.806e-4
-1.368, 1.820e-4
-1.369, 1.834e-4
-1.370, 1.848e-4
-1.371, 1.862e-4
-1.372, 1.876e-4
-1.373, 1.891e-4
-1.374, 1.906e-4
-1.375, 1.921e-4
-1.376, 1.935e-4
-1.377, 1.950e-4
-1.378, 1.965e-4
-1.379, 1.981e-4
-1.380, 1.996e-4
-1.381, 2.012e-4
-1.382, 2.027e-4
-1.383, 2.043e-4
-1.384, 2.059e-4
-1.385, 2.075e-4
-1.386, 2.091e-4
-1.387, 2.108e-4
-1.388, 2.124e-4
-1.389, 2.141e-4
-1.390, 2.157e-4
-1.391, 2.174e-4
-1.392, 2.191e-4
-1.393, 2.208e-4
-1.394, 2.225e-4
-1.395, 2.242e-4
-1.396, 2.259e-4
-1.397, 2.277e-4
-1.398, 2.295e-4
-1.399, 2.313e-4
-1.400, 2.331e-4
-1.401, 2.348e-4
-1.402, 2.366e-4
-1.403, 2.385e-4
-1.404, 2.403e-4
-1.405, 2.422e-4
-1.406, 2.440e-4
-1.407, 2.459e-4
-1.408, 2.478e-4
-1.409, 2.497e-4
-1.410, 2.516e-4
-1.411, 2.536e-4
-1.412, 2.555e-4
-1.413, 2.575e-4
-1.414, 2.595e-4
-1.415, 2.615e-4
-1.416, 2.635e-4
-1.417, 2.655e-4
-1.418, 2.675e-4
-1.419, 2.696e-4
-1.420, 2.716e-4
-1.421, 2.737e-4
-1.422, 2.758e-4
-1.423, 2.779e-4
-1.424, 2.800e-4
-1.425, 2.821e-4
-1.426, 2.843e-4
-1.427, 2.864e-4
-1.428, 2.886e-4
-1.429, 2.908e-4
-1.430, 2.930e-4
-1.431, 2.952e-4
-1.432, 2.974e-4
-1.433, 2.997e-4
-1.434, 3.020e-4
-1.435, 3.043e-4
-1.436, 3.065e-4
-1.437, 3.088e-4
-1.438, 3.112e-4
-1.439, 3.135e-4
-1.440, 3.158e-4
-1.441, 3.182e-4
-1.442, 3.206e-4
-1.443, 3.230e-4
-1.444, 3.254e-4
-1.445, 3.278e-4
-1.446, 3.303e-4
-1.447, 3.327e-4
-1.448, 3.352e-4
-1.449, 3.377e-4
-1.450, 3.402e-4
-1.451, 3.427e-4
-1.452, 3.452e-4
-1.453, 3.478e-4
-1.454, 3.504e-4
-1.455, 3.529e-4
-1.456, 3.555e-4
-1.457, 3.582e-4
-1.458, 3.608e-4
-1.459, 3.635e-4
-1.460, 3.661e-4
-1.461, 3.688e-4
-1.462, 3.715e-4
-1.463, 3.742e-4
-1.464, 3.770e-4
-1.465, 3.797e-4
-1.466, 3.825e-4
-1.467, 3.853e-4
-1.468, 3.880e-4
-1.469, 3.909e-4
-1.470, 3.937e-4
-1.471, 3.965e-4
-1.472, 3.994e-4
-1.473, 4.024e-4
-1.474, 4.053e-4
-1.475, 4.082e-4
-1.476, 4.111e-4
-1.477, 4.141e-4
-1.478, 4.170e-4
-1.479, 4.200e-4
-1.480, 4.231e-4
-1.481, 4.261e-4
-1.482, 4.292e-4
-1.483, 4.322e-4
-1.484, 4.353e-4
-1.485, 4.384e-4
-1.486, 4.416e-4
-1.487, 4.447e-4
-1.488, 4.479e-4
-1.489, 4.511e-4
-1.490, 4.543e-4
-1.491, 4.575e-4
-1.492, 4.608e-4
-1.493, 4.640e-4
-1.494, 4.673e-4
-1.495, 4.706e-4
-1.496, 4.740e-4
-1.497, 4.773e-4
-1.498, 4.807e-4
-1.499, 4.841e-4
-1.500, 4.874e-4
-1.501, 4.908e-4
-1.502, 4.943e-4
-1.503, 4.977e-4
-1.504, 5.012e-4
-1.505, 5.047e-4
-1.506, 5.082e-4
-1.507, 5.118e-4
-1.508, 5.153e-4
-1.509, 5.189e-4
-1.510, 5.226e-4
-1.511, 5.262e-4
-1.512, 5.298e-4
-1.513, 5.335e-4
-1.514, 5.372e-4
-1.515, 5.409e-4
-1.516, 5.446e-4
-1.517, 5.484e-4
-1.518, 5.522e-4
-1.519, 5.560e-4
-1.520, 5.598e-4
-1.521, 5.636e-4
-1.522, 5.675e-4
-1.523, 5.714e-4
-1.524, 5.753e-4
-1.525, 5.793e-4
-1.526, 5.832e-4
-1.527, 5.872e-4
-1.528, 5.912e-4
-1.529, 5.953e-4
-1.530, 5.994e-4
-1.531, 6.035e-4
-1.532, 6.075e-4
-1.533, 6.117e-4
-1.534, 6.158e-4
-1.535, 6.200e-4
-1.536, 6.242e-4
-1.537, 6.284e-4
-1.538, 6.327e-4
-1.539, 6.369e-4
-1.540, 6.412e-4
-1.541, 6.455e-4
-1.542, 6.499e-4
-1.543, 6.542e-4
-1.544, 6.587e-4
-1.545, 6.630e-4
-1.546, 6.674e-4
-1.547, 6.719e-4
-1.548, 6.763e-4
-1.549, 6.809e-4
-1.550, 6.854e-4
-1.551, 6.899e-4
-1.552, 6.946e-4
-1.553, 6.992e-4
-1.554, 7.038e-4
-1.555, 7.085e-4
-1.556, 7.132e-4
-1.557, 7.178e-4
-1.558, 7.226e-4
-1.559, 7.272e-4
-1.560, 7.320e-4
-1.561, 7.367e-4
-1.562, 7.415e-4
-1.563, 7.464e-4
-1.564, 7.512e-4
-1.565, 7.561e-4
-1.566, 7.609e-4
-1.567, 7.658e-4
-1.568, 7.707e-4
-1.569, 7.756e-4
-1.570, 7.807e-4
-1.571, 7.858e-4
-1.572, 7.908e-4
-1.573, 7.958e-4
-1.574, 8.009e-4
-1.575, 8.060e-4
-1.576, 8.112e-4
-1.577, 8.163e-4
-1.578, 8.215e-4
-1.579, 8.267e-4
-1.580, 8.319e-4
-1.581, 8.371e-4
-1.582, 8.424e-4
-1.583, 8.477e-4
-1.584, 8.531e-4
-1.585, 8.588e-4
-1.586, 8.642e-4
-1.587, 8.696e-4
-1.588, 8.750e-4
-1.589, 8.805e-4
-1.590, 8.859e-4
-1.591, 8.915e-4
-1.592, 8.973e-4
-1.593, 9.027e-4
-1.594, 9.082e-4
-1.595, 9.137e-4
-1.596, 9.193e-4
-1.597, 9.248e-4
-1.598, 9.303e-4
-1.599, 9.359e-4
-1.600, 9.415e-4
-1.601, 9.471e-4
-1.602, 9.527e-4
-1.603, 9.583e-4
-1.604, 9.638e-4
-1.605, 9.695e-4
-1.606, 9.752e-4
-1.607, 9.809e-4
-1.608, 9.866e-4
-1.609, 9.924e-4
-1.610, 9.984e-4
-1.611, 1.004e-3
-1.612, 1.010e-3
-1.613, 1.011e-3
-1.614, 1.011e-3
-1.615, 1.011e-3
-1.616, 1.011e-3
-1.617, 1.011e-3
-1.618, 1.011e-3
-1.619, 1.011e-3
-1.620, 1.011e-3
-1.621, 1.011e-3
-1.622, 1.011e-3
-1.623, 1.011e-3
-1.624, 1.011e-3
-1.625, 1.011e-3
-1.626, 1.011e-3
-1.627, 1.011e-3
-1.628, 1.011e-3
-1.629, 1.011e-3
-1.630, 1.011e-3
-1.631, 1.011e-3
-1.632, 1.011e-3
-1.633, 1.011e-3
-1.634, 1.011e-3
-1.635, 1.011e-3
-1.636, 1.011e-3
-1.637, 1.011e-3
-1.638, 1.011e-3
-1.639, 1.011e-3
-1.640, 1.011e-3
-1.641, 1.011e-3
-1.642, 1.011e-3
-1.643, 1.011e-3
-1.644, 1.011e-3
-1.645, 1.011e-3
-1.646, 1.011e-3
-1.647, 1.011e-3
-1.648, 1.011e-3
-1.649, 1.011e-3
-1.650, 1.011e-3
-1.651, 1.011e-3
-1.652, 1.011e-3
-1.653, 1.011e-3
-1.654, 1.011e-3
-1.655, 1.011e-3
-1.656, 1.011e-3
-1.657, 1.011e-3
-1.658, 1.011e-3
-1.659, 1.011e-3
-1.660, 1.011e-3
-1.661, 1.011e-3
-1.662, 1.011e-3
-1.663, 1.011e-3
-1.664, 1.011e-3
-1.665, 1.011e-3
-1.666, 1.011e-3
-1.667, 1.011e-3
-1.668, 1.011e-3
-1.669, 1.011e-3
-1.670, 1.011e-3
-1.671, 1.011e-3
-1.672, 1.011e-3
-1.673, 1.011e-3
-1.674, 1.011e-3
-1.675, 1.011e-3
-1.676, 1.011e-3
-1.677, 1.011e-3
-1.678, 1.011e-3
-1.679, 1.011e-3
-1.680, 1.011e-3
-1.681, 1.011e-3
-1.682, 1.011e-3
-1.683, 1.011e-3
-1.684, 1.011e-3
-1.685, 1.011e-3
-1.686, 1.011e-3
-1.687, 1.011e-3
-1.688, 1.011e-3
-1.689, 1.011e-3
-1.690, 1.011e-3
-1.691, 1.011e-3
-1.692, 1.011e-3
-1.693, 1.011e-3
-1.694, 1.011e-3
-1.695, 1.011e-3
-1.696, 1.011e-3
-1.697, 1.011e-3
-1.698, 1.011e-3
-1.699, 1.011e-3
-1.700, 1.011e-3
-1.701, 1.011e-3
-1.702, 1.011e-3
-1.703, 1.011e-3
-1.704, 1.011e-3
-1.705, 1.011e-3
-1.706, 1.011e-3
-1.707, 1.011e-3
-1.708, 1.011e-3
-1.709, 1.011e-3
-1.710, 1.011e-3
-1.711, 1.011e-3
-1.712, 1.011e-3
-1.713, 1.011e-3
-1.714, 1.011e-3
-1.715, 1.011e-3
-1.716, 1.011e-3
-1.717, 1.011e-3
-1.718, 1.011e-3
-1.719, 1.011e-3
-1.720, 1.011e-3
-1.721, 1.011e-3
-1.722, 1.011e-3
-1.723, 1.011e-3
-1.724, 1.011e-3
-1.725, 1.011e-3
-1.726, 1.011e-3
-1.727, 1.011e-3
-1.728, 1.011e-3
-1.729, 1.011e-3
-1.730, 1.011e-3
-1.731, 1.011e-3
-1.732, 1.011e-3
-1.733, 1.011e-3
-1.734, 1.011e-3
-1.735, 1.011e-3
-1.736, 1.011e-3
-1.737, 1.011e-3
-1.738, 1.011e-3
-1.739, 1.011e-3
-1.740, 1.011e-3
-1.741, 1.011e-3
-1.742, 1.011e-3
-1.743, 1.011e-3
-1.744, 1.011e-3
-1.745, 1.011e-3
-1.746, 1.011e-3
-1.747, 1.011e-3
-1.748, 1.011e-3
-1.749, 1.011e-3
-1.750, 1.011e-3
-1.751, 1.011e-3
-1.752, 1.011e-3
-1.753, 1.011e-3
-1.754, 1.011e-3
-1.755, 1.011e-3
-1.756, 1.011e-3
-1.757, 1.011e-3
-1.758, 1.011e-3
-1.759, 1.011e-3
-1.760, 1.011e-3
-1.761, 1.011e-3
-1.762, 1.011e-3
-1.763, 1.011e-3
-1.764, 1.011e-3
-1.765, 1.011e-3
-1.766, 1.011e-3
-1.767, 1.011e-3
-1.768, 1.011e-3
-1.769, 1.011e-3
-1.770, 1.011e-3
-1.771, 1.011e-3
-1.772, 1.011e-3
-1.773, 1.011e-3
-1.774, 1.011e-3
-1.775, 1.011e-3
-1.776, 1.011e-3
-1.777, 1.011e-3
-1.778, 1.011e-3
-1.779, 1.011e-3
-1.780, 1.011e-3
-1.781, 1.011e-3
-1.782, 1.011e-3
-1.783, 1.011e-3
-1.784, 1.011e-3
-1.785, 1.011e-3
-1.786, 1.011e-3
-1.787, 1.011e-3
-1.788, 1.011e-3
-1.789, 1.011e-3
-1.790, 1.011e-3
-1.791, 1.011e-3
-1.792, 1.011e-3
-1.793, 1.011e-3
-1.794, 1.011e-3
-1.795, 1.011e-3
-1.796, 1.011e-3
-1.797, 1.011e-3
-1.798, 1.011e-3
-1.799, 1.011e-3
-1.800, 1.011e-3
-1.801, 1.011e-3
-1.802, 1.011e-3
-1.803, 1.011e-3
-1.804, 1.011e-3
-1.805, 1.011e-3
-1.806, 1.011e-3
-1.807, 1.011e-3
-1.808, 1.011e-3
-1.809, 1.011e-3
-1.810, 1.011e-3
-1.811, 1.011e-3
-1.812, 1.011e-3
-1.813, 1.011e-3
-1.814, 1.011e-3
-1.815, 1.011e-3
-1.816, 1.011e-3
-1.817, 1.011e-3
-1.818, 1.011e-3
-1.819, 1.011e-3
-1.820, 1.011e-3
-1.821, 1.011e-3
-1.822, 1.011e-3
-1.823, 1.011e-3
-1.824, 1.011e-3
-1.825, 1.011e-3
-1.826, 1.011e-3
-1.827, 1.011e-3
-1.828, 1.011e-3
-1.829, 1.011e-3
-1.830, 1.011e-3
-1.831, 1.011e-3
-1.832, 1.011e-3
-1.833, 1.011e-3
-1.834, 1.011e-3
-1.835, 1.011e-3
-1.836, 1.011e-3
-1.837, 1.011e-3
-1.838, 1.011e-3
-1.839, 1.011e-3
-1.840, 1.011e-3
-1.841, 1.011e-3
-1.842, 1.011e-3
-1.843, 1.011e-3
-1.844, 1.011e-3
-1.845, 1.011e-3
-1.846, 1.011e-3
-1.847, 1.011e-3
-1.848, 1.011e-3
-1.849, 1.011e-3
-1.850, 1.011e-3
-1.851, 1.011e-3
-1.852, 1.011e-3
-1.853, 1.011e-3
-1.854, 1.011e-3
-1.855, 1.011e-3
-1.856, 1.011e-3
-1.857, 1.011e-3
-1.858, 1.011e-3
-1.859, 1.011e-3
-1.860, 1.011e-3
-1.861, 1.011e-3
-1.862, 1.011e-3
-1.863, 1.011e-3
-1.864, 1.011e-3
-1.865, 1.011e-3
-1.866, 1.011e-3
-1.867, 1.011e-3
-1.868, 1.011e-3
-1.869, 1.011e-3
-1.870, 1.011e-3
-1.871, 1.011e-3
-1.872, 1.011e-3
-1.873, 1.011e-3
-1.874, 1.011e-3
-1.875, 1.011e-3
-1.876, 1.011e-3
-1.877, 1.011e-3
-1.878, 1.011e-3
-1.879, 1.011e-3
-1.880, 1.011e-3
-1.881, 1.011e-3
-1.882, 1.011e-3
-1.883, 1.011e-3
-1.884, 1.011e-3
-1.885, 1.011e-3
-1.886, 1.011e-3
-1.887, 1.011e-3
-1.888, 1.011e-3
-1.889, 1.011e-3
-1.890, 1.011e-3
-1.891, 1.011e-3
-1.892, 1.011e-3
-1.893, 1.011e-3
-1.894, 1.011e-3
-1.895, 1.011e-3
-1.896, 1.011e-3
-1.897, 1.011e-3
-1.898, 1.011e-3
-1.899, 1.011e-3
