Potential V vs RHE, Current mA cm-2
0.05339999999999995,-0.14011300713863326
0.05239999999999995,-0.1772633258730891
0.051399999999999946,-0.19607898616129407
0.050399999999999945,-0.20301107153063278
0.049399999999999944,-0.2066893209102819
0.04839999999999994,-0.20980168576998495
0.04739999999999994,-0.21248963723972852
0.04639999999999994,-0.21447023305953958
0.04539999999999994,-0.2164508288793506
0.04439999999999994,-0.2181484824391887
0.04339999999999994,-0.2195631937390537
0.04239999999999994,-0.22097790503891873
0.04139999999999994,-0.22225114520879727
0.040399999999999936,-0.2235243853786758
0.039399999999999935,-0.22493909667854084
0.038399999999999934,-0.22621233684841938
0.03739999999999993,-0.22691969249835187
0.03639999999999993,-0.2279099904082574
0.03539999999999993,-0.22861734605818995
0.03439999999999993,-0.22960764396809544
0.03339999999999993,-0.23031499961802795
0.03239999999999993,-0.2313052975279335
0.03139999999999993,-0.2321541243078525
0.030399999999999927,-0.23272000882779853
0.029399999999999926,-0.23385177786769054
0.028399999999999925,-0.23441766238763656
0.027399999999999924,-0.23484207577759608
0.026399999999999924,-0.2356909025575151
0.025399999999999923,-0.2365397293374341
0.024399999999999922,-0.23696414272739363
0.02339999999999992,-0.23767149837732615
0.02239999999999992,-0.23809591176728565
0.02139999999999992,-0.2386617962872317
0.020399999999999918,-0.2393691519371642
0.019399999999999917,-0.2399350364571102
0.018399999999999916,-0.24035944984706975
0.017399999999999916,-0.24092533436701574
0.016399999999999915,-0.24149121888696176
0.015399999999999914,-0.2420571034069078
0.014399999999999913,-0.2423400456668808
0.013399999999999912,-0.2429059301868268
0.012399999999999911,-0.24333034357678635
0.01139999999999991,-0.24361328583675934
0.01039999999999991,-0.2443206414866918
0.009399999999999908,-0.2446035837466648
0.008399999999999908,-0.24502799713662435
0.007399999999999907,-0.24545241052658387
0.006399999999999906,-0.24559388165657034
0.005399999999999905,-0.24615976617651636
0.004399999999999904,-0.24644270843648935
0.003399999999999903,-0.24672565069646235
0.002399999999999902,-0.24729153521640837
0.0013999999999999013,-0.2477159486063679
0.00039999999999990044,-0.24785741973635445
-0.0006000000000001005,-0.2482818331263139
-0.0016000000000001013,-0.2482818331263139
-0.0026000000000001022,-0.24870624651627343
-0.003600000000000103,-0.24898918877624646
-0.004600000000000104,-0.24927213103621945
-0.005600000000000105,-0.24955507329619245
-0.006600000000000106,-0.24969654442617895
-0.007600000000000107,-0.24983801555616547
-0.008600000000000108,-0.25026242894612494
-0.009600000000000108,-0.25040390007611146
-0.01060000000000011,-0.250828313466071
-0.01160000000000011,-0.25096978459605745
-0.012600000000000111,-0.25139419798601703
-0.013600000000000112,-0.2515356691160035
-0.014600000000000113,-0.25139419798601703
-0.015600000000000114,-0.25167714024599
-0.016600000000000115,-0.2518186113759765
-0.017600000000000116,-0.2518186113759765
-0.018600000000000116,-0.252243024765936
-0.019600000000000117,-0.2523844958959225
-0.020600000000000118,-0.252243024765936
-0.02160000000000012,-0.252525967025909
-0.02260000000000012,-0.2526674381558955
-0.02360000000000012,-0.252808909285882
-0.024600000000000122,-0.25295038041586854
-0.025600000000000123,-0.25295038041586854
-0.026600000000000124,-0.2532333226758416
-0.027600000000000124,-0.2532333226758416
-0.028600000000000125,-0.25309185154585506
-0.029600000000000126,-0.2535162649358146
-0.030600000000000127,-0.2535162649358146
-0.03160000000000013,-0.25337479380582806
-0.03260000000000013,-0.2535162649358146
-0.03360000000000013,-0.2535162649358146
-0.03460000000000002,-0.25337479380582806
-0.03560000000000002,-0.2535162649358146
-0.03660000000000002,-0.25365773606580105
-0.03760000000000002,-0.25365773606580105
-0.03860000000000002,-0.25365773606580105
-0.039600000000000024,-0.25365773606580105
-0.040600000000000025,-0.25365773606580105
-0.041600000000000026,-0.2535162649358146
-0.04260000000000003,-0.2537992071957876
-0.04360000000000003,-0.2537992071957876
-0.04460000000000003,-0.2537992071957876
-0.04560000000000003,-0.25394067832577405
-0.04660000000000003,-0.2537992071957876
-0.04760000000000003,-0.2537992071957876
-0.04860000000000003,-0.25394067832577405
-0.04960000000000003,-0.25394067832577405
-0.050600000000000034,-0.25394067832577405
-0.051600000000000035,-0.2540821494557606
-0.052600000000000036,-0.25394067832577405
-0.053600000000000037,-0.25422362058574705
-0.05460000000000004,-0.25422362058574705
-0.05560000000000004,-0.25422362058574705
-0.05660000000000004,-0.25450656284572004
-0.05760000000000004,-0.25436509171573357
-0.05860000000000004,-0.25436509171573357
-0.05960000000000004,-0.25450656284572004
-0.06060000000000004,-0.25464803397570657
-0.061600000000000044,-0.25493097623567956
-0.06260000000000004,-0.25507244736566614
-0.06360000000000005,-0.2552139184956526
-0.06460000000000005,-0.2554968607556256
-0.06560000000000005,-0.25563833188561214
-0.06660000000000005,-0.2557798030155986
-0.06760000000000005,-0.2560627452755716
-0.06860000000000005,-0.2562042164055581
-0.06960000000000005,-0.25662862979551765
-0.07060000000000005,-0.25691157205549064
-0.07160000000000005,-0.25705304318547717
-0.07260000000000005,-0.2574774565754367
-0.07360000000000005,-0.2577603988354097
-0.07460000000000006,-0.2583262833553557
-0.07560000000000006,-0.2588921678753017
-0.07660000000000006,-0.2591751101352747
-0.07760000000000006,-0.25988246578520724
-0.07860000000000006,-0.26016540804518024
-0.07960000000000006,-0.2607312925651262
-0.08060000000000006,-0.2614386482150588
-0.08160000000000006,-0.2620045327350048
-0.08260000000000006,-0.2627118883849373
-0.08360000000000006,-0.2634192440348699
-0.08460000000000006,-0.26412659968480234
-0.08560000000000006,-0.2652583687246944
-0.08660000000000007,-0.2659657243746269
-0.08760000000000007,-0.26695602228453247
-0.08860000000000007,-0.267946320194438
-0.08960000000000007,-0.268795146974357
-0.09060000000000007,-0.2700683871442355
-0.09160000000000007,-0.27120015618412757
-0.09260000000000007,-0.27219045409403303
-0.09360000000000007,-0.2734636942639116
-0.09460000000000007,-0.27473693443379016
-0.09560000000000007,-0.27601017460366867
-0.09660000000000007,-0.2777078281635067
-0.09760000000000008,-0.27912253946337173
-0.09860000000000008,-0.2806787218932233
-0.09960000000000008,-0.2823763754530613
-0.10060000000000008,-0.2842155001428859
-0.10160000000000008,-0.28605462483271044
-0.10260000000000008,-0.28775227839254847
-0.10360000000000008,-0.289874345342346
-0.10460000000000008,-0.29199641229214357
-0.10560000000000008,-0.2938355369819681
-0.10660000000000008,-0.2962405461917387
-0.10760000000000008,-0.2986455554015092
-0.10860000000000009,-0.30105056461127977
-0.10960000000000009,-0.30373851608102337
-0.11060000000000009,-0.3061435252907939
-0.11160000000000009,-0.30883147676053746
-0.11260000000000009,-0.3116608993602676
-0.11360000000000009,-0.31434885083001113
-0.11460000000000009,-0.3177441579496872
-0.11560000000000009,-0.32099799393937684
-0.11660000000000009,-0.3239688876690934
-0.1176000000000001,-0.32736419478876944
-0.1186000000000001,-0.3306180307784591
-0.1196000000000001,-0.3342962801581082
-0.1206000000000001,-0.3379745295377573
-0.1216000000000001,-0.3416527789174064
-0.1226000000000001,-0.345472499427042
-0.1236000000000001,-0.3494336910666641
-0.1246000000000001,-0.3533948827062862
-0.1256000000000001,-0.35763901660588127
-0.1266000000000001,-0.36188315050547637
-0.1276000000000001,-0.36641022666504447
-0.1286000000000001,-0.3709373028246126
-0.1296000000000001,-0.3753229078541942
-0.1306000000000001,-0.38013292627373535
-0.1316000000000001,-0.38494294469327645
-0.1326000000000001,-0.3898944342428041
-0.1336000000000001,-0.3947044526623452
-0.1346000000000001,-0.39979741334185936
-0.1356000000000001,-0.4051733162813465
-0.1366000000000001,-0.41054921922083365
-0.1376000000000001,-0.4159251221603208
-0.1386000000000001,-0.42144249622979446
-0.1396000000000001,-0.4271013414292546
-0.1406000000000001,-0.43261871549872827
-0.14160000000000011,-0.4384190318281749
-0.14260000000000012,-0.44393640589764854
-0.14360000000000012,-0.4500196644870682
-0.14460000000000012,-0.4562443942064743
-0.14560000000000012,-0.462044710535921
-0.14660000000000012,-0.4682694402553271
-0.14760000000000012,-0.4744941699747333
-0.14860000000000012,-0.4807188996941395
-0.14960000000000012,-0.4872265716735187
-0.15060000000000012,-0.49387571478288433
-0.15160000000000012,-0.5019395691921149
-0.15260000000000012,-0.5085887123014806
-0.15360000000000013,-0.5145304997609139
-0.15460000000000013,-0.5206137583503335
-0.15560000000000013,-0.5271214303297127
-0.15660000000000013,-0.5334876311791055
-0.15760000000000013,-0.540419716548444
-0.15860000000000013,-0.5470688596578097
-0.15960000000000002,-0.5541424161571349
-0.16060000000000002,-0.5610745015264736
-0.16160000000000002,-0.5680065868958123
-0.16260000000000002,-0.5752216145251239
-0.16360000000000002,-0.582295171024449
-0.16460000000000002,-0.5895101986537608
-0.16560000000000002,-0.5971496396730319
-0.16660000000000003,-0.6052134940822627
-0.16760000000000003,-0.6121455794516013
-0.16860000000000003,-0.6190776648209401
-0.16960000000000003,-0.6262926924502518
-0.17060000000000003,-0.6335077200795635
-0.17160000000000003,-0.6410056899688481
-0.17260000000000003,-0.6485036598581327
-0.17360000000000003,-0.6560016297474174
-0.17460000000000003,-0.6636410707666887
-0.17560000000000003,-0.6711390406559734
-0.17660000000000003,-0.6789199528052311
-0.17760000000000004,-0.6865593938245023
-0.17860000000000004,-0.6944817771037465
-0.17960000000000004,-0.7022626892530042
-0.18060000000000004,-0.7099021302722753
-0.18160000000000004,-0.7178245135515195
-0.18260000000000004,-0.7254639545707907
-0.18360000000000004,-0.733103395590062
-0.18460000000000004,-0.7411672499992927
-0.18560000000000004,-0.7485237487585908
-0.18660000000000004,-0.7564461320378352
-0.18760000000000004,-0.7642270441870929
-0.18860000000000005,-0.771866485206364
-0.18960000000000005,-0.7796473973556217
-0.19060000000000005,-0.7872868383748929
-0.19160000000000005,-0.7952092216541371
-0.19260000000000005,-0.8028486626734083
-0.19360000000000005,-0.8099222191727334
-0.19460000000000005,-0.8172787179320317
-0.19560000000000005,-0.8244937455613434
-0.19660000000000005,-0.8315673020606686
-0.19760000000000005,-0.8386408585599938
-0.19860000000000005,-0.8452900016693595
-0.19960000000000006,-0.8520806159087115
-0.20060000000000006,-0.8587297590180772
-0.20160000000000006,-0.8650959598674699
-0.20260000000000006,-0.871320689586876
-0.20360000000000006,-0.8775454193062823
-0.20460000000000006,-0.8833457356357289
-0.20560000000000006,-0.8891460519651755
-0.20660000000000006,-0.894380483774676
-0.20760000000000006,-0.8997563867141634
-0.20860000000000006,-0.9049908185236639
-0.20960000000000006,-0.909517894683232
-0.21060000000000006,-0.9143279131027732
-0.21160000000000007,-0.9187135181323548
-0.21260000000000007,-0.9228161809019634
-0.21360000000000007,-0.926918843671572
-0.21460000000000007,-0.930314150791248
-0.21560000000000007,-0.9335679867809377
-0.21660000000000007,-0.9368218227706272
-0.21760000000000007,-0.9399341876303302
-0.21860000000000007,-0.9423391968401009
-0.21960000000000007,-0.9446027349198849
-0.22060000000000007,-0.9463003884797231
-0.22160000000000007,-0.947998042039561
-0.22260000000000008,-0.9492712822094397
-0.22360000000000008,-0.9502615801193451
-0.22460000000000008,-0.9512518780292506
-0.22560000000000008,-0.9515348202892236
-0.22660000000000008,-0.9519592336791831
-0.22760000000000008,-0.9521007048091696
-0.22860000000000008,-0.9515348202892236
-0.22960000000000008,-0.9511104068992642
-0.23060000000000008,-0.9505445223793181
-0.23160000000000008,-0.9492712822094397
-0.23260000000000008,-0.947998042039561
-0.23360000000000009,-0.9464418596097095
-0.2346000000000001,-0.9448856771798579
-0.2356000000000001,-0.9429050813600469
-0.2366000000000001,-0.9405000721502763
-0.2376000000000001,-0.9383780052004788
-0.2386000000000001,-0.9358315248607216
-0.2396000000000001,-0.9331435733909781
-0.2406000000000001,-0.9300312085312752
-0.2416000000000001,-0.926918843671572
-0.2426000000000001,-0.923806478811869
-0.2436000000000001,-0.9204111716921929
-0.2446000000000001,-0.9170158645725168
-0.2456000000000001,-0.9134790863228541
-0.2466000000000001,-0.9096593658132186
-0.2476000000000001,-0.9058396453035829
-0.2486000000000001,-0.9020199247939473
-0.2496000000000001,-0.8979172620243387
-0.2506000000000001,-0.8939560703847166
-0.2516000000000001,-0.889853407615108
-0.2526000000000001,-0.8857507448454994
-0.2536000000000001,-0.8816480820758908
-0.2546000000000001,-0.8774039481762959
-0.2556000000000001,-0.8734427565366737
-0.2566000000000001,-0.8693400937670651
-0.2576000000000001,-0.8650959598674699
-0.2586000000000001,-0.8611347682278478
-0.2596000000000001,-0.8571735765882258
-0.2606000000000001,-0.8530709138186172
-0.2616000000000001,-0.849109722178995
-0.2626000000000001,-0.845148530539373
-0.2636000000000001,-0.8413288100297374
-0.2646000000000001,-0.8376505606500882
-0.2656000000000001,-0.8336893690104662
-0.2666000000000001,-0.8301525907608036
-0.2676000000000001,-0.826615812511141
-0.2686000000000001,-0.8230790342614784
-0.2696000000000001,-0.8196837271418023
-0.2706000000000001,-0.8164298911521127
-0.2716000000000001,-0.8133175262924096
-0.2726000000000001,-0.810346632562693
-0.2736000000000001,-0.8070927965730035
-0.2746000000000001,-0.8042633739732733
-0.2756000000000001,-0.8014339513735432
-0.2766000000000001,-0.7984630576438266
-0.2776000000000001,-0.7960580484340561
-0.2786000000000001,-0.793511568094299
-0.2796000000000001,-0.791248030014515
-0.2806000000000001,-0.7891259630647174
-0.28160000000000013,-0.7867209538549468
-0.28260000000000013,-0.7848818291651223
-0.28360000000000013,-0.7830427044752977
-0.2846,-0.7812035797854733
-0.2856,-0.7796473973556217
-0.2866,-0.7782326860557566
-0.2876,-0.7768179747558916
-0.2886,-0.7758276768459861
-0.2896,-0.7745544366761076
-0.2906,-0.773564138766202
-0.2916,-0.7727153119862831
-0.2926,-0.771866485206364
-0.2936,-0.7713006006864179
-0.29460000000000003,-0.7707347161664719
-0.29560000000000003,-0.7701688316465259
-0.29660000000000003,-0.7698858893865529
-0.29760000000000003,-0.7694614759965934
-0.29860000000000003,-0.7693200048666069
-0.29960000000000003,-0.7691785337366205
-0.30060000000000003,-0.7691785337366205
-0.30160000000000003,-0.7693200048666069
-0.30260000000000004,-0.76960294712658
-0.30360000000000004,-0.7700273605165394
-0.30460000000000004,-0.7707347161664719
-0.30560000000000004,-0.771017658426445
-0.30660000000000004,-0.7717250140763775
-0.30760000000000004,-0.77243236972631
-0.30860000000000004,-0.7732811965062291
-0.30960000000000004,-0.774412965546121
-0.31060000000000004,-0.7755447345860131
-0.31160000000000004,-0.7766765036259051
-0.31260000000000004,-0.7778082726657971
-0.31360000000000005,-0.7789400417056891
-0.31460000000000005,-0.7804962241355408
-0.31560000000000005,-0.7819109354354057
-0.31660000000000005,-0.7834671178652574
-0.31760000000000005,-0.7854477136850683
-0.31860000000000005,-0.7870038961149198
-0.31960000000000005,-0.7891259630647174
-0.32060000000000005,-0.7908236166245554
-0.32160000000000005,-0.7922383279244205
-0.32260000000000005,-0.7943603948742181
-0.32360000000000005,-0.7964824618240156
-0.32460000000000006,-0.7986045287738132
-0.32560000000000006,-0.8010095379835837
-0.32660000000000006,-0.8031316049333813
-0.32760000000000006,-0.8053951430131653
-0.32860000000000006,-0.8080830944829089
-0.32960000000000006,-0.8102051614327065
-0.33060000000000006,-0.8127516417724636
-0.33160000000000006,-0.8151566509822342
-0.33260000000000006,-0.8178446024519777
-0.33360000000000006,-0.8206740250517078
-0.33460000000000006,-0.8232205053914649
-0.33560000000000006,-0.8259084568612085
-0.33660000000000007,-0.8287378794609385
-0.33760000000000007,-0.8312843598006956
-0.33860000000000007,-0.8342552535304122
-0.33960000000000007,-0.8370846761301421
-0.34060000000000007,-0.8396311564698993
-0.34160000000000007,-0.8423191079396429
-0.34260000000000007,-0.8452900016693595
-0.34360000000000007,-0.8486853087890355
-0.3446000000000001,-0.8522220870386981
-0.3456000000000001,-0.8559003364183472
-0.3466000000000001,-0.8584468167581043
-0.34759999999999996,-0.8614177104878209
-0.3486000000000001,-0.8639641908275778
-0.34959999999999997,-0.8669350845572944
-0.3506000000000001,-0.869905978287011
-0.35159999999999997,-0.8730183431467142
-0.3526000000000001,-0.8762721791364039
-0.35359999999999997,-0.8793845439961068
-0.3546000000000001,-0.8826383799857964
-0.35559999999999997,-0.8857507448454994
-0.3566000000000001,-0.888721638575216
-0.3576,-0.8918340034349193
-0.3586000000000001,-0.8948048971646357
-0.3596,-0.8984831465442846
-0.3606000000000001,-0.9032931649638258
-0.3616,-0.905273760783637
-0.3626000000000001,-0.9082446545133536
-0.3636,-0.9112155482430702
-0.3646000000000001,-0.9140449708428002
-0.3656,-0.9171573357025032
-0.3666000000000001,-0.9202697005622062
-0.3676,-0.9235235365518959
-0.3686000000000001,-0.9266359014115991
-0.3696,-0.9297482662713021
-0.3706000000000001,-0.9330021022609917
-0.3716,-0.9359729959907083
-0.3726000000000001,-0.9385194763304654
-0.3736,-0.9417733123201548
-0.3746000000000001,-0.9444612637898985
-0.3756,-0.9472906863896284
-0.3766000000000001,-0.9502615801193451
-0.3776,-0.9528080604591023
-0.3786000000000001,-0.9556374830588322
-0.3796,-0.9584669056585623
-0.3806000000000001,-0.9607304437383465
-0.3816,-0.9635598663380764
-0.3826000000000001,-0.965964875547847
-0.3836,-0.9686528270175907
-0.3846000000000001,-0.9713407784873341
-0.3856,-0.9733213743071454
-0.3866000000000001,-0.9754434412569427
-0.3876,-0.9775655082067403
-0.3886000000000001,-0.9795461040265513
-0.3896,-0.9815266998463624
-0.3906000000000001,-0.983082882276214
-0.3916,-0.9846390647060654
-0.3926000000000001,-0.9866196605258766
-0.3936,-0.9883173140857145
-0.3946000000000001,-0.9901564387755392
-0.3956,-0.9915711500754043
-0.3966000000000001,-0.9928443902452826
-0.3976,-0.9944005726751344
-0.3986000000000001,-0.9953908705850397
-0.3996,-0.9966641107549185
-0.4006000000000001,-0.9977958797948104
-0.4016,-0.9983617643147563
-0.4026000000000001,-0.9994935333546484
-0.4036,-1.0002008890045808
-0.4046000000000001,-1.0006253023945404
-0.4056,-1.0013326580444728
-0.40660000000000013,-1.0017570714344324
-0.4076,-1.0020400136944054
-0.40860000000000013,-1.0023229559543785
-0.4096,-1.0023229559543785
-0.41060000000000013,-1.0027473693443378
-0.4116,-1.0028888404743244
-0.41260000000000013,-1.0026058982143515
-0.4136,-1.0028888404743244
-0.41460000000000014,-1.0030303116043109
-0.4156,-1.0028888404743244
-0.41660000000000014,-1.0024644270843648
-0.4176,-1.0017570714344324
-0.41860000000000014,-1.0016156003044459
-0.41960000000000003,-1.0011911869144865
-0.42060000000000014,-1.0009082446545134
-0.42160000000000003,-1.0004838312645539
-0.42260000000000014,-1.0006253023945404
-0.42360000000000003,-0.9997764756146215
-0.42460000000000014,-0.9990691199646888
-0.42560000000000003,-0.9977958797948104
-0.42660000000000015,-0.9972299952748643
-0.42760000000000004,-0.9965226396249317
-0.42860000000000015,-0.9953908705850397
-0.42960000000000004,-0.9945420438051207
-0.43060000000000015,-0.9934102747652287
-0.43160000000000004,-0.9924199768553232
-0.43260000000000015,-0.9915711500754043
-0.43360000000000004,-0.9904393810355122
-0.43460000000000015,-0.9897320253855796
-0.43560000000000004,-0.9886002563456876
-0.43660000000000015,-0.9876099584357821
-0.43760000000000004,-0.9867611316558631
-0.43860000000000016,-0.9857708337459574
-0.43960000000000005,-0.9849220069660385
-0.44060000000000016,-0.9847805358360522
-0.44160000000000005,-0.9835072956661735
-0.44260000000000016,-0.9823755266262814
-0.44360000000000005,-0.9812437575863894
-0.44460000000000016,-0.9802534596764839
-0.44560000000000005,-0.9792631617665783
