Potential V vs RHE, Current mA cm-2
0.013299999999999867,-0.09938346881551882
0.012299999999999978,-0.15222293586547794
0.011299999999999866,-0.18730777610213087
0.010299999999999976,-0.21588494435940458
0.009299999999999864,-0.24389622809673234
0.008299999999999974,-0.2697854448842625
0.007299999999999862,-0.2931281813320356
0.006299999999999972,-0.31477326421997065
0.00529999999999986,-0.3350036358080407
0.0042999999999999705,-0.3543851806161917
0.0032999999999998586,-0.3753229078541942
0.0022999999999999687,-0.3942800392723857
0.0012999999999998568,-0.4122468727806717
0.00029999999999996696,-0.42837458159913316
-0.000700000000000145,-0.4456340594574866
-0.0017000000000000348,-0.4636008929657725
-0.0027000000000001467,-0.47972860178423393
-0.0037000000000000366,-0.49557336834272236
-0.0047000000000001485,-0.5109937215112512
-0.005700000000000038,-0.5249993633799152
-0.00670000000000015,-0.539570889768525
-0.00770000000000004,-0.5530106471172429
-0.008700000000000152,-0.5656015776860417
-0.009700000000000042,-0.5813048731145436
-0.010700000000000154,-0.5961593417631265
-0.011700000000000044,-0.6104479258917633
-0.012700000000000156,-0.6226144430706027
-0.013700000000000045,-0.6343565468594824
-0.014700000000000157,-0.6466645351683082
-0.015700000000000047,-0.6585481100871745
-0.01670000000000016,-0.671846396305906
-0.01770000000000005,-0.6852861536546238
-0.01870000000000016,-0.695472075013652
-0.01970000000000005,-0.7060824097626398
-0.020700000000000163,-0.7172586290315736
-0.021700000000000053,-0.7301325018603455
-0.022700000000000164,-0.7418746056492252
-0.023700000000000054,-0.7526264115281995
-0.024700000000000166,-0.7629538040172142
-0.025700000000000056,-0.773564138766202
-0.026700000000000168,-0.7837500601252303
-0.027700000000000058,-0.7943603948742181
-0.02870000000000017,-0.8039804317133004
-0.02970000000000006,-0.8126101706424771
-0.03070000000000017,-0.8230790342614784
-0.03170000000000006,-0.8343967246603987
-0.03270000000000017,-0.8452900016693595
-0.03370000000000006,-0.8539197405985361
-0.034700000000000175,-0.8631153640476589
-0.035700000000000065,-0.8718865741068222
-0.03670000000000018,-0.8819310243358639
-0.03770000000000007,-0.8914095900449596
-0.03870000000000018,-0.8984831465442846
-0.03970000000000007,-0.9073958277334346
-0.04070000000000018,-0.9170158645725168
-0.04170000000000007,-0.9264944302816125
-0.04270000000000018,-0.9356900537307352
-0.04370000000000007,-0.9451686194398311
-0.044700000000000184,-0.9532324738490617
-0.045700000000000074,-0.9586083767885488
-0.046700000000000186,-0.9652575198979146
-0.047700000000000076,-0.9741702010870643
-0.04870000000000019,-0.9827999400162409
-0.04970000000000008,-0.9908637944254716
-0.05070000000000019,-0.9992105910946756
-0.05170000000000008,-1.0085476856737847
-0.05270000000000019,-1.0184506647728397
-0.05370000000000008,-1.0267974614420434
-0.05470000000000019,-1.0317489509915712
-0.05570000000000008,-1.0371248539310585
-0.056700000000000195,-1.0464619485101676
-0.057700000000000085,-1.0549502163093578
-0.058700000000000196,-1.0627311284586156
-0.059700000000000086,-1.0696632138279543
-0.0607000000000002,-1.0764538280673064
-0.06170000000000009,-1.0853665092564562
-0.0627000000000002,-1.0928644791457407
-0.06370000000000009,-1.098240382085228
-0.0647000000000002,-1.104182169544661
-0.06570000000000009,-1.110972783784013
-0.0667000000000002,-1.119036638193244
-0.0677000000000001,-1.1271004926024746
-0.0687000000000002,-1.1336081645818537
-0.0697000000000001,-1.139549952041287
-0.07070000000000021,-1.1478967487104907
-0.0717000000000001,-1.1568094298996403
-0.07270000000000021,-1.1623268039691141
-0.0737000000000001,-1.1681271202985608
-0.07470000000000021,-1.174068907757994
-0.0757000000000001,-1.180576579737373
-0.07670000000000021,-1.190055145446469
-0.0777000000000001,-1.2017972492353488
-0.07870000000000021,-1.2084463923447144
-0.0797000000000001,-1.213963766414188
-0.08070000000000022,-1.216793189013918
-0.0817000000000001,-1.2228764476033378
-0.08270000000000022,-1.230798830882582
-0.08370000000000011,-1.240135925461691
-0.08470000000000022,-1.2465021263110838
-0.08570000000000011,-1.2510292024706522
-0.08670000000000022,-1.2602248259197746
-0.08770000000000011,-1.269561920498884
-0.08870000000000022,-1.276352534738236
-0.08970000000000011,-1.280879610897804
-0.09070000000000022,-1.2861140427073048
-0.09170000000000011,-1.2954511372864141
-0.09270000000000023,-1.3052126452554829
-0.09370000000000012,-1.3121447306248215
-0.09470000000000023,-1.3186524026042006
-0.09570000000000012,-1.324311247803661
-0.09670000000000023,-1.332233631082905
-0.09770000000000012,-1.3419951390519738
-0.09870000000000023,-1.3500589934612044
-0.09970000000000012,-1.3571325499605296
-0.10070000000000023,-1.3609522704701653
-0.10170000000000012,-1.3694405382693555
-0.10270000000000024,-1.3800508730183432
-0.10370000000000013,-1.3896709098574256
-0.10470000000000024,-1.3967444663567505
-0.10570000000000013,-1.4021203692962378
-0.10670000000000024,-1.4079206856256845
-0.10770000000000013,-1.4189554337646317
-0.10870000000000024,-1.4302731241635522
-0.10970000000000013,-1.4373466806628774
-0.11070000000000024,-1.4444202371622026
-0.11170000000000013,-1.4486643710617975
-0.11270000000000002,-1.4529085049613928
-0.11370000000000013,-1.4642261953603128
-0.11470000000000002,-1.4741291744593683
-0.11570000000000014,-1.4868615761581534
-0.11670000000000003,-1.4953498439573436
-0.11770000000000014,-1.506667534356264
-0.11870000000000003,-1.5151558021554543
-0.11970000000000014,-1.5222293586547795
-0.12070000000000003,-1.5321323377538347
-0.12170000000000014,-1.540620605553025
-0.12270000000000003,-1.5519382959519452
-0.12370000000000014,-1.5632559863508655
-0.12470000000000003,-1.5717442541500557
-0.12570000000000014,-1.5788178106493809
-0.12670000000000003,-1.5901355010483011
-0.12770000000000015,-1.6042826140469515
-0.12870000000000004,-1.614185593146007
-0.12970000000000015,-1.6212591496453321
-0.13070000000000004,-1.6339915513441174
-0.13170000000000015,-1.6453092417430377
-0.13270000000000004,-1.656626932141958
-0.13370000000000015,-1.6665299112410132
-0.13470000000000004,-1.6778476016399335
-0.13570000000000015,-1.6877505807389888
-0.13670000000000004,-1.6990682711379093
-0.13770000000000016,-1.7103859615368293
-0.13870000000000005,-1.7202889406358846
-0.13970000000000016,-1.7330213423346699
-0.14070000000000005,-1.7443390327335901
-0.14170000000000016,-1.7556567231325106
-0.14270000000000005,-1.769803836131161
-0.14370000000000016,-1.7825362378299463
-0.14470000000000005,-1.7938539282288664
-0.14570000000000016,-1.8037569073279218
-0.14670000000000005,-1.8207334429263025
-0.14770000000000016,-1.8334658446250875
-0.14870000000000005,-1.8433688237241426
-0.14970000000000017,-1.8546865141230628
-0.15070000000000006,-1.8716630497214433
-0.15170000000000017,-1.8858101627200938
-0.15270000000000006,-1.9027866983184742
-0.15370000000000017,-1.9169338113171246
-0.15470000000000006,-1.9296662130159101
-0.15570000000000017,-1.9438133260145605
-0.15670000000000006,-1.9650339955125358
-0.15770000000000017,-1.9820105311109162
-0.15870000000000006,-1.9848399537106465
-0.15970000000000018,-1.9961576441095665
-0.16070000000000007,-2.011719468408082
-0.16170000000000018,-2.0315254266061924
-0.16270000000000007,-2.049916673504438
-0.16370000000000018,-2.0654784978029537
-0.16470000000000007,-2.082455033401334
-0.16570000000000018,-2.0980168576998492
-0.16670000000000007,-2.113578681998365
-0.16770000000000018,-2.1305552175967453
-0.16870000000000007,-2.1432876192955304
-0.16970000000000018,-2.1602641548939108
-0.17070000000000007,-2.177240690492291
-0.17170000000000019,-2.1956319373905373
-0.17270000000000008,-2.215437895588648
-0.1737000000000002,-2.235243853786758
-0.17470000000000008,-2.2522203893851382
-0.1757000000000002,-2.2691969249835187
-0.17670000000000008,-2.286173460581899
-0.1777000000000002,-2.3045647074801447
-0.17870000000000008,-2.321541243078525
-0.1797000000000002,-2.3371030673770408
-0.18070000000000008,-2.354079602975421
-0.1817000000000002,-2.3753002724733965
-0.18270000000000008,-2.3979356532712375
-0.1837000000000002,-2.4163269001694827
-0.1847000000000001,-2.436132858367593
-0.1857000000000002,-2.4531093939659736
-0.1867000000000001,-2.4715006408642193
-0.1877000000000002,-2.49413602166206
-0.1887000000000001,-2.5139419798601703
-0.1897000000000002,-2.533747938058281
-0.1907000000000001,-2.552139184956526
-0.1917000000000001,-2.5719451431546365
-0.19269999999999998,-2.5959952352523423
-0.1937000000000001,-2.615801193450453
-0.19469999999999998,-2.634192440348698
-0.1957000000000001,-2.6525836872469437
-0.19669999999999999,-2.6808779132442444
-0.1977000000000001,-2.69643973754276
-0.1987,-2.720489829640466
-0.1997000000000001,-2.738881076538711
-0.2007,-2.7530281895373614
-0.2017000000000001,-2.7770782816350668
-0.2027,-2.8039577963325026
-0.2037000000000001,-2.8251784658304784
-0.2047,-2.8478138466283185
-0.2057000000000001,-2.8690345161262942
-0.2067,-2.893084608224
-0.2077000000000001,-2.91571998902184
-0.2087,-2.9397700811195464
-0.2097000000000001,-2.9595760393176564
-0.2107,-2.9807967088156326
-0.2117000000000001,-3.0076762235130676
-0.2127,-3.031726315610774
-0.2137000000000001,-3.0487028512091543
-0.2147,-3.069923520707129
-0.2157000000000001,-3.1024618806040256
-0.2167,-3.1279266840015962
-0.21770000000000012,-3.1576356212987617
-0.2187,-3.1774415794968722
-0.21970000000000012,-3.1972475376949827
-0.2207,-3.2212976297926885
-0.22170000000000012,-3.249591855789989
-0.2227,-3.27505665918756
-0.22370000000000012,-3.3019361738849957
-0.2247,-3.325986265982701
-0.22570000000000012,-3.3486216467805416
-0.2267,-3.3726717388782474
-0.22770000000000012,-3.402380676175413
-0.22870000000000001,-3.4335043247724437
-0.22970000000000013,-3.45472499427042
-0.23070000000000002,-3.4801897976679905
-0.23170000000000013,-3.505654601065561
-0.23270000000000002,-3.532534115762996
-0.23370000000000013,-3.5608283417602973
-0.23470000000000002,-3.5877078564577327
-0.23570000000000013,-3.6117579485554394
-0.23670000000000002,-3.6315639067535495
-0.2376999999999999,-3.65702871015112
-0.23870000000000002,-3.6853229361484203
-0.2396999999999999,-3.7178612960453163
-0.24070000000000003,-3.7404966768431565
-0.24169999999999991,-3.765961480240728
-0.24270000000000003,-3.8041586853370832
-0.24369999999999992,-3.823964643535194
-0.24470000000000003,-3.85084415823263
-0.24569999999999992,-3.86782069383101
-0.24670000000000003,-3.8833825181295256
-0.24769999999999992,-3.9046031876275014
-0.24870000000000003,-3.932897413624801
-0.24969999999999992,-3.9682651961214277
-0.25070000000000003,-3.9979741334185936
-0.2516999999999999,-4.03617133851495
-0.25270000000000004,-4.070124409711711
-0.2536999999999999,-4.097003924409146
-0.25470000000000004,-4.116809882607257
-0.2556999999999999,-4.147933531204288
-0.25670000000000004,-4.167739489402398
-0.25769999999999993,-4.194619004099834
-0.25870000000000004,-4.222913230097134
-0.25969999999999993,-4.251207456094435
-0.26070000000000004,-4.27525754819214
-0.26169999999999993,-4.3063811967891725
-0.26270000000000004,-4.337504845386203
-0.26369999999999993,-4.367213782683368
-0.26470000000000005,-4.398337431280399
-0.26569999999999994,-4.41814338947851
-0.26670000000000005,-4.447852326775675
-0.26769999999999994,-4.476146552772976
-0.26870000000000005,-4.508684912669872
-0.26969999999999994,-4.535564427367307
-0.27070000000000005,-4.562443942064744
-0.27169999999999994,-4.5893234567621795
-0.27270000000000005,-4.619032394059345
-0.27369999999999994,-4.645911908756781
-0.27470000000000006,-4.679864979953542
-0.27569999999999995,-4.709573917250707
-0.27670000000000006,-4.736453431948143
-0.27769999999999995,-4.760503524045848
-0.27870000000000006,-4.790212461343015
-0.27969999999999995,-4.814262553440719
-0.28070000000000006,-4.841142068138156
-0.28169999999999995,-4.882168695834241
-0.28270000000000006,-4.911877633131407
-0.28369999999999995,-4.924610034830192
-0.28470000000000006,-4.947245415628033
-0.28569999999999995,-4.979783775524929
-0.28670000000000007,-5.012322135421825
-0.28769999999999996,-5.037786938819395
-0.28870000000000007,-5.067495876116562
-0.28969999999999996,-5.092960679514132
-0.29070000000000007,-5.122669616811298
-0.29169999999999996,-5.153793265408329
-0.29270000000000007,-5.1863316253052245
-0.29369999999999996,-5.216040562602391
-0.2947000000000001,-5.234431809500635
-0.29569999999999996,-5.261311324198071
-0.2967000000000001,-5.288190838895507
-0.29769999999999996,-5.320729198792402
-0.2987000000000001,-5.351852847389433
-0.29969999999999997,-5.3815617846866
-0.3007000000000001,-5.407026588084171
-0.30169999999999997,-5.4296619688820105
-0.3027000000000001,-5.469273885278232
-0.30369999999999997,-5.497568111275533
-0.3047000000000001,-5.530106471172428
-0.30569999999999997,-5.552741851970269
-0.3067000000000001,-5.585280211867165
-0.3077,-5.62064799436379
-0.3087000000000001,-5.654601065560552
-0.3097,-5.684310002857718
-0.3107000000000001,-5.712604228855018
-0.3117,-5.74938672265151
-0.3127000000000001,-5.781925082548405
-0.3137,-5.814463442445301
-0.3147000000000001,-5.8427576684426015
-0.3157,-5.871051894439902
-0.3167000000000001,-5.913493233435854
-0.3177,-5.948861015932479
-0.3187000000000001,-5.977155241929781
-0.3197,-6.012523024426406
-0.3207000000000001,-6.049305518222896
-0.3217,-6.090332145918983
-0.3227000000000001,-6.125699928415609
-0.3237,-6.166726556111695
-0.3247000000000001,-6.199264916008591
-0.3257,-6.230388564605621
-0.3267000000000001,-6.264341635802381
-0.3277,-6.301124129598874
-0.3287000000000001,-6.3407360459950945
-0.3297,-6.377518539791585
-0.3307000000000001,-6.407227477088751
-0.3317,-6.435521703086052
-0.3327000000000001,-6.469474774282813
-0.3337,-6.520404381077953
-0.3347000000000001,-6.56143100877404
-0.3357,-6.595384079970801
-0.3367000000000001,-6.629337151167562
-0.3377,-6.670363778863648
-0.3387000000000001,-6.718463963059059
-0.3397,-6.759490590755146
-0.3407000000000001,-6.799102507151367
-0.3417,-6.842958557447183
-0.3427000000000001,-6.879741051243673
-0.3437,-6.9250118128393545
-0.3447000000000001,-6.967453151835306
-0.3457,-7.011309202131122
-0.3467000000000001,-7.052335829827209
-0.3477,-7.0891183236236985
-0.3487000000000001,-7.137218507819109
-0.3497,-7.183903980714656
-0.3507000000000001,-7.230589453610202
-0.3517,-7.277274926505749
-0.3527000000000001,-7.323960399401294
-0.3537,-7.383378273995626
-0.3547000000000001,-7.434307880790768
-0.3557,-7.48523748758591
-0.35670000000000013,-7.5347523830811864
-0.3577,-7.580023144676867
-0.35870000000000013,-7.630952751472008
-0.3597,-7.683297069567015
-0.36070000000000013,-7.73564138766202
-0.3617,-7.786570994457163
-0.3626999999999999,-7.847403580351358
-0.3637,-7.922383279244204
-0.3646999999999999,-7.990289421637726
-0.3657,-8.027071915434218
-0.3666999999999999,-8.046877873632328
-0.3677,-8.022827781534623
-0.3686999999999999,-8.076586810929495
-0.36970000000000003,-8.151566509822342
-0.3706999999999999,-8.222302074815595
-0.37170000000000003,-8.28596408330952
-0.3726999999999999,-8.34538195790385
-0.37370000000000003,-8.396311564698992
-0.3746999999999999,-8.464217707092514
-0.37570000000000003,-8.520806159087115
-0.3766999999999999,-8.568906343282526
-0.37770000000000004,-8.6226653726774
-0.3786999999999999,-8.689156803771056
-0.37970000000000004,-8.764136502663902
-0.3806999999999999,-8.857507448454994
-0.38170000000000004,-8.92116945694892
-0.38269999999999993,-8.991905021942173
-0.38370000000000004,-9.061225875635559
-0.38469999999999993,-9.131961440628812
-0.38570000000000004,-9.192794026523009
-0.38669999999999993,-9.25504132371707
-0.38770000000000004,-9.3144591983114
-0.38869999999999993,-9.385194763304654
-0.38970000000000005,-9.464418596097095
-0.39069999999999994,-9.55496011928846
-0.39170000000000005,-9.60871914868333
-0.39269999999999994,-9.6624781780782
-0.39370000000000005,-9.717651918772937
-0.39469999999999994,-9.791216906365918
-0.39570000000000005,-9.884587852157011
-0.39669999999999994,-9.953908705850399
-0.39770000000000005,-10.026058982143516
-0.39869999999999994,-10.102453392336226
-0.39970000000000006,-10.178847802528939
-0.40069999999999995,-10.241095099723
-0.40170000000000006,-10.311830664716252
-0.40269999999999995,-10.38398094100937
-0.40370000000000006,-10.467448907701408
-0.40469999999999995,-10.567893409991825
-0.40570000000000006,-10.645702531484401
-0.40669999999999995,-10.723511652976978
-0.40770000000000006,-10.798491351869824
-0.40869999999999995,-10.883374029861727
-0.40970000000000006,-10.9654272852539
-0.41069999999999995,-11.041821695446613
-0.41170000000000007,-11.115386683039594
-0.41269999999999996,-11.194610515832036
-0.41370000000000007,-11.278078482524071
-0.41469999999999996,-11.357302315316513
-0.41570000000000007,-11.43794085940882
-0.41669999999999996,-11.519994114800994
-0.41770000000000007,-11.599217947593436
-0.41869999999999996,-11.682685914285473
-0.4197000000000001,-11.766153880977509
-0.42069999999999996,-11.846792425069816
-0.4217000000000001,-11.926016257862258
-0.42269999999999996,-12.017972492353486
-0.4237000000000001,-12.11134343814458
-0.42469999999999997,-12.193396693536751
-0.4257000000000001,-12.282523505428248
-0.42669999999999997,-12.377309162519206
-0.4277000000000001,-12.462191840511109
-0.42869999999999997,-12.545659807203146
-0.4297000000000001,-12.634786619094642
-0.43069999999999997,-12.7295722761856
-0.4317000000000001,-12.825772644576423
-0.4327,-12.950267238964546
-0.4337000000000001,-13.019588092657932
-0.4347,-13.08042067855213
-0.4357000000000001,-13.16530335654403
-0.4367,-13.268577281434178
-0.4377000000000001,-13.395901298422032
-0.4387,-13.49351637811272
-0.4397000000000001,-13.568496077005566
-0.4407,-13.67035529059585
-0.4417000000000001,-13.773629215485999
-0.4427,-13.883976696875468
-0.4437000000000001,-13.994324178264941
-0.4447,-14.082036278856576
-0.4457000000000001,-14.147112998650368
-0.4467,-14.24614278964092
-0.4477000000000001,-14.359319693630123
-0.4487,-14.472496597619326
-0.4497000000000001,-14.57152638860988
-0.4507,-14.684703292599082
-0.4517000000000001,-14.769585970590983
-0.4527,-14.882762874580186
-0.4537000000000001,-14.98179266557074
-0.4547,-15.06667534356264
-0.4557000000000001,-15.165705134553193
-0.4567,-15.264734925543747
-0.4577000000000001,-15.363764716534297
-0.4587,-15.462794507524851
-0.4597000000000001,-15.547677185516752
-0.4607,-15.660854089505953
-0.4617000000000001,-15.78817810649381
-0.4627,-15.901355010483012
-0.4637000000000001,-16.04282614046952
-0.4647,-16.15600304445872
-0.4657000000000001,-16.29747417444522
-0.4667,-16.438945304431726
-0.4677000000000001,-16.55212220842093
-0.4687,-16.679446225408782
-0.4697000000000001,-16.806770242396635
-0.4707,-16.90580003338719
-0.4717000000000001,-17.018976937376394
-0.4727,-17.146300954364243
-0.4737000000000001,-17.2736249713521
-0.4747,-17.386801875341302
-0.4757000000000001,-17.514125892329155
-0.4767,-17.613155683319707
-0.4777000000000001,-17.71218547431026
-0.4787,-17.853656604296763
-0.4797000000000001,-17.966833508285966
-0.4807,-18.08001041227517
-0.48170000000000013,-18.207334429263025
-0.4827,-18.334658446250877
-0.48370000000000013,-18.44783535024008
-0.4847,-18.589306480226583
-0.48570000000000013,-18.730777610213085
-0.4867,-18.716630497214435
-0.48570000000000013,-18.589306480226583
-0.4847,-18.461982463238726
-0.48370000000000013,-18.362952672248177
-0.4827,-18.263922881257624
-0.48170000000000013,-18.17904020326572
-0.4807,-18.08001041227517
-0.4797000000000001,-17.980980621284615
-0.4787,-17.881950830294063
-0.4777000000000001,-17.75462681330621
-0.4767,-17.655597022315657
-0.4757000000000001,-17.584861457322408
-0.4747,-17.48583166633185
-0.4737000000000001,-17.40094898833995
-0.4727,-17.28777208435075
-0.4717000000000001,-17.188742293360193
-0.4707,-17.089712502369647
-0.4697000000000001,-16.99068271137909
-0.4687,-16.90580003338719
-0.4677000000000001,-16.806770242396635
-0.4667,-16.70774045140608
