Potential V vs RHE, Current mA cm-2
0.013299999999999867,-0.17061418276372342
0.012299999999999978,-0.20131341797079472
0.011299999999999866,-0.22097790503891873
0.010299999999999976,-0.23696414272739363
0.009299999999999864,-0.24969654442617895
0.008299999999999974,-0.26129717708507233
0.007299999999999862,-0.27303928087395213
0.006299999999999972,-0.28534726918277786
0.00529999999999986,-0.29680643071168467
0.0042999999999999705,-0.3064264675507669
0.0032999999999998586,-0.3164709177798087
0.0022999999999999687,-0.326656839138837
0.0012999999999998568,-0.33769158727778426
0.00029999999999996696,-0.34759456637683955
-0.000700000000000145,-0.3567901898259622
-0.0017000000000000348,-0.3652784576251525
-0.0027000000000001467,-0.3747570233342482
-0.0037000000000000366,-0.38508441582326297
-0.0047000000000001485,-0.3951288660523047
-0.005700000000000038,-0.4034756627215085
-0.00670000000000015,-0.4118224593907122
-0.00770000000000004,-0.4205936694498755
-0.008700000000000152,-0.4299307640289846
-0.009700000000000042,-0.43955080086806686
-0.010700000000000154,-0.4478975975372706
-0.011700000000000044,-0.4558199808165148
-0.012700000000000156,-0.46459119087567796
-0.013700000000000045,-0.47378681432480074
-0.014700000000000157,-0.48284096664393705
-0.015700000000000047,-0.49048040766320816
-0.01670000000000016,-0.4985442620724389
-0.01770000000000005,-0.5071740010016156
-0.01870000000000016,-0.5153793265408328
-0.01970000000000005,-0.5244334788599692
-0.020700000000000163,-0.5326388043991863
-0.021700000000000053,-0.5394294186385385
-0.022700000000000164,-0.5476347441777557
-0.023700000000000054,-0.557820665536784
-0.024700000000000166,-0.5660259910760012
-0.025700000000000056,-0.5742313166152184
-0.026700000000000168,-0.5810219308545705
-0.027700000000000058,-0.5889443141338148
-0.02870000000000017,-0.5977155241929779
-0.02970000000000006,-0.6063452631221548
-0.03070000000000017,-0.6139847041414259
-0.03170000000000006,-0.6209167895107646
-0.03270000000000017,-0.6278488748801032
-0.03370000000000006,-0.6366200849392665
-0.034700000000000175,-0.6456742372584027
-0.035700000000000065,-0.6526063226277414
-0.03670000000000018,-0.6602457636470126
-0.03770000000000007,-0.6680266757962704
-0.03870000000000018,-0.6777881837653391
-0.03970000000000007,-0.6861349804345428
-0.04070000000000018,-0.69434030597376
-0.04170000000000007,-0.7022626892530042
-0.04270000000000018,-0.7076385921924914
-0.04370000000000007,-0.7174001001615601
-0.044700000000000184,-0.7256054257007774
-0.045700000000000074,-0.733103395590062
-0.046700000000000186,-0.7389037119195087
-0.047700000000000076,-0.7472505085887123
-0.04870000000000019,-0.7567290742978081
-0.04970000000000008,-0.7659246977469308
-0.05070000000000019,-0.771866485206364
-0.05170000000000008,-0.7792229839656621
-0.05270000000000019,-0.7874283095048794
-0.05370000000000008,-0.7957751061740831
-0.05470000000000019,-0.8038389605833138
-0.05570000000000008,-0.810912517082639
-0.056700000000000195,-0.8186934292318968
-0.057700000000000085,-0.8252011012112759
-0.058700000000000196,-0.8341137824004257
-0.059700000000000086,-0.8424605790696293
-0.0607000000000002,-0.850241491218887
-0.06170000000000009,-0.8573150477182123
-0.0627000000000002,-0.8649544887374835
-0.06370000000000009,-0.8731598142767006
-0.0647000000000002,-0.8819310243358639
-0.06570000000000009,-0.8892875230951621
-0.0667000000000002,-0.8976343197643657
-0.0677000000000001,-0.904141991743745
-0.0687000000000002,-0.9106496637231241
-0.0697000000000001,-0.9191379315223143
-0.07070000000000021,-0.9279091415814775
-0.0717000000000001,-0.9362559382506813
-0.07270000000000021,-0.943753908139966
-0.0737000000000001,-0.9526665893291157
-0.07470000000000021,-0.9604475014783734
-0.0757000000000001,-0.9668137023277661
-0.07670000000000021,-0.9738872588270913
-0.0777000000000001,-0.9813852287163759
-0.07870000000000021,-0.9904393810355122
-0.0797000000000001,-0.9983617643147563
-0.08070000000000022,-1.005859734204041
-0.0817000000000001,-1.0143480020032312
-0.08270000000000022,-1.020148318332678
-0.08370000000000011,-1.0296268840417737
-0.08470000000000022,-1.0391054497508694
-0.08570000000000011,-1.0451887083402893
-0.08670000000000022,-1.052969620489547
-0.08770000000000011,-1.0615993594187236
-0.08870000000000022,-1.0695217426979677
-0.08970000000000011,-1.079424721797023
-0.09070000000000022,-1.0866397494263347
-0.09170000000000011,-1.0944206615755925
-0.09270000000000023,-1.1024845159848229
-0.09370000000000012,-1.1112557260439861
-0.09470000000000023,-1.1207342917530823
-0.09570000000000012,-1.1299299152022049
-0.09670000000000023,-1.1371449428315166
-0.09770000000000012,-1.1445014415908148
-0.09870000000000023,-1.1539800072999105
-0.09970000000000012,-1.1623268039691141
-0.10070000000000023,-1.1703906583783448
-0.10170000000000012,-1.178595983917562
-0.10270000000000024,-1.1868013094567793
-0.10370000000000013,-1.1958554617759156
-0.10470000000000024,-1.2050510852250382
-0.10570000000000013,-1.212831997374296
-0.10670000000000024,-1.2203299672635808
-0.10770000000000013,-1.228535292802798
-0.10870000000000024,-1.2388626852918128
-0.10970000000000013,-1.2469265397010434
-0.11070000000000024,-1.2554148075002334
-0.11170000000000013,-1.2639030752994236
-0.11270000000000002,-1.2728157564885734
-0.11370000000000013,-1.2834260912375612
-0.11470000000000002,-1.2921973012967245
-0.11570000000000014,-1.2992708577960497
-0.11670000000000003,-1.3076176544652534
-0.11770000000000014,-1.3166718067843897
-0.11870000000000003,-1.3275650837933504
-0.11970000000000014,-1.3380339474123517
-0.12070000000000003,-1.347088099731488
-0.12170000000000014,-1.3562837231806106
-0.12270000000000003,-1.365054933239774
-0.12370000000000014,-1.3742505566888967
-0.12470000000000003,-1.3851438336978574
-0.12570000000000014,-1.3944809282769666
-0.12670000000000003,-1.4031106672061433
-0.12770000000000015,-1.4125892329152392
-0.12870000000000004,-1.423199567664227
-0.12970000000000015,-1.4345172580631471
-0.13070000000000004,-1.4444202371622026
-0.13170000000000015,-1.4529085049613928
-0.13270000000000004,-1.462811484060448
-0.13370000000000015,-1.472714463159503
-0.13470000000000004,-1.4826174422585585
-0.13570000000000015,-1.4939351326574788
-0.13670000000000004,-1.5038381117565338
-0.13770000000000016,-1.5137410908555893
-0.13870000000000005,-1.5236440699546445
-0.13970000000000016,-1.5363764716534298
-0.14070000000000005,-1.54769416205235
-0.14170000000000016,-1.5561824298515403
-0.14270000000000005,-1.5675001202504606
-0.14370000000000016,-1.580232521949246
-0.14470000000000005,-1.5915502123481662
-0.14570000000000016,-1.6014531914472214
-0.14670000000000005,-1.612770881846142
-0.14770000000000016,-1.6226738609451972
-0.14870000000000005,-1.6354062626439825
-0.14970000000000017,-1.6481386643427678
-0.15070000000000006,-1.660871066041553
-0.15170000000000017,-1.6707740451406083
-0.15270000000000006,-1.6835064468393939
-0.15370000000000017,-1.6976535598380442
-0.15470000000000006,-1.7075565389370995
-0.15570000000000017,-1.7202889406358846
-0.15670000000000006,-1.7301919197349398
-0.15770000000000017,-1.7443390327335901
-0.15870000000000006,-1.7570714344323757
-0.15970000000000018,-1.771218547431026
-0.16070000000000007,-1.7853656604296764
-0.16170000000000018,-1.7966833508285964
-0.16270000000000007,-1.8094157525273817
-0.16370000000000018,-1.8249775768258971
-0.16470000000000007,-1.8419541124242775
-0.16570000000000018,-1.8546865141230628
-0.16670000000000007,-1.8674189158218486
-0.16770000000000018,-1.8801513175206337
-0.16870000000000007,-1.895713141819149
-0.16970000000000018,-1.9098602548177994
-0.17070000000000007,-1.922592656516585
-0.17170000000000019,-1.9367397695152353
-0.17270000000000008,-1.9537163051136157
-0.1737000000000002,-1.9692781294121309
-0.17470000000000008,-1.9834252424107812
-0.1757000000000002,-1.9975723554094316
-0.17670000000000008,-2.013134179707947
-0.1777000000000002,-2.0301107153063276
-0.17870000000000008,-2.047087250904708
-0.1797000000000002,-2.0654784978029537
-0.18070000000000008,-2.081040322101469
-0.1817000000000002,-2.0966021463999844
-0.18270000000000008,-2.113578681998365
-0.1837000000000002,-2.12914050629688
-0.1847000000000001,-2.1447023305953956
-0.1857000000000002,-2.158849443594046
-0.1867000000000001,-2.1828995356917518
-0.1877000000000002,-2.1984613599902674
-0.1887000000000001,-2.2182673181883774
-0.1897000000000002,-2.2366585650866226
-0.1907000000000001,-2.2550498119848683
-0.1917000000000001,-2.272026347583249
-0.19269999999999998,-2.2932470170812245
-0.1937000000000001,-2.3158823978790646
-0.19469999999999998,-2.3356883560771755
-0.1957000000000001,-2.352664891675556
-0.19669999999999999,-2.3696414272739363
-0.1977000000000001,-2.3908620967719116
-0.1987,-2.4106680549700226
-0.1997000000000001,-2.430474013168133
-0.2007,-2.4545241052658384
-0.2017000000000001,-2.4715006408642193
-0.2027,-2.49413602166206
-0.2037000000000001,-2.5139419798601703
-0.2047,-2.5379920719578757
-0.2057000000000001,-2.557798030155986
-0.2067,-2.576189277054232
-0.2077000000000001,-2.5959952352523423
-0.2087,-2.6200453273500477
-0.2097000000000001,-2.641265996848024
-0.2107,-2.663901377645864
-0.2117000000000001,-2.6851220471438397
-0.2127,-2.706342716641815
-0.2137000000000001,-2.7318075200393857
-0.2147,-2.7516134782374966
-0.2157000000000001,-2.775663570335202
-0.2167,-2.7997136624329078
-0.21770000000000012,-2.819519620631018
-0.2187,-2.844984424028589
-0.21970000000000012,-2.870449227426159
-0.2207,-2.893084608224
-0.22170000000000012,-2.9143052777219753
-0.2227,-2.9369406585198163
-0.22370000000000012,-2.9624054619173865
-0.2247,-2.9878702653149576
-0.22570000000000012,-3.0161644913122583
-0.2267,-3.031726315610774
-0.22770000000000012,-3.0614352529079394
-0.22870000000000001,-3.082655922405915
-0.22970000000000013,-3.1052913032037557
-0.23070000000000002,-3.1321708179011907
-0.23170000000000013,-3.1548061986990317
-0.23270000000000002,-3.1831004246963324
-0.23370000000000013,-3.2156387845932284
-0.23470000000000002,-3.243933010590529
-0.23570000000000013,-3.265153680088505
-0.23670000000000002,-3.2920331947859403
-0.2376999999999999,-3.3203274207832414
-0.23870000000000002,-3.3500363580804073
-0.2396999999999999,-3.3783305840777076
-0.24070000000000003,-3.402380676175413
-0.24169999999999991,-3.427845479572984
-0.24270000000000003,-3.45472499427042
-0.24369999999999992,-3.4858486428674507
-0.24470000000000003,-3.5141428688647514
-0.24569999999999992,-3.543851806161917
-0.24670000000000003,-3.573560743459083
-0.24769999999999992,-3.5990255468566534
-0.24870000000000003,-3.6259050615540893
-0.24969999999999992,-3.6485404423519294
-0.25070000000000003,-3.6725905344496357
-0.2516999999999999,-3.699470049147071
-0.25270000000000004,-3.730593697744102
-0.2536999999999999,-3.7560585011416725
-0.25470000000000004,-3.7744497480399173
-0.2556999999999999,-3.8055733966369485
-0.25670000000000004,-3.8282087774347895
-0.25769999999999993,-3.8621618486315503
-0.25870000000000004,-3.8989443424280408
-0.25969999999999993,-3.9258238571254775
-0.26070000000000004,-3.945629815323587
-0.26169999999999993,-3.971094618721158
-0.26270000000000004,-3.9965594221187284
-0.26369999999999993,-4.009291823817514
-0.26470000000000005,-4.03617133851495
-0.26569999999999994,-4.0644655645122505
-0.26670000000000005,-4.094174501809416
-0.26769999999999994,-4.132371706905772
-0.26870000000000005,-4.163495355502803
-0.26969999999999994,-4.191789581500104
-0.27070000000000005,-4.220083807497405
-0.27169999999999994,-4.24696332219484
-0.27270000000000005,-4.276672259492005
-0.27369999999999994,-4.310625330688767
-0.27470000000000006,-4.338919556686067
-0.27569999999999995,-4.351651958384853
-0.27670000000000006,-4.379946184382153
-0.27769999999999995,-4.426631657277699
-0.27870000000000006,-4.454925883275001
-0.27969999999999995,-4.486049531872031
-0.28070000000000006,-4.511514335269602
-0.28169999999999995,-4.541223272566767
-0.28270000000000006,-4.566688075964338
-0.28369999999999995,-4.604885281060694
-0.28470000000000006,-4.631764795758129
-0.28569999999999995,-4.655814887855835
-0.28670000000000007,-4.699670938151652
-0.28769999999999996,-4.733624009348413
-0.28870000000000007,-4.757674101446118
-0.28969999999999996,-4.788797750043149
-0.29070000000000007,-4.819921398640179
-0.29169999999999996,-4.849630335937346
-0.29270000000000007,-4.876509850634781
-0.29369999999999996,-4.910462921831542
-0.2947000000000001,-4.943001281728439
-0.29569999999999996,-4.9698807964258735
-0.2967000000000001,-5.001004445022905
-0.29769999999999996,-5.026469248420476
-0.2987000000000001,-5.047689917918451
-0.29969999999999997,-5.0816429891152115
-0.3007000000000001,-5.1212549055114325
-0.30169999999999997,-5.165110955807249
-0.3027000000000001,-5.190575759204819
-0.30369999999999997,-5.237261232100366
-0.3047000000000001,-5.264140746797801
-0.30569999999999997,-5.296679106694698
-0.3067000000000001,-5.323558621392133
-0.3077,-5.354682269989163
-0.3087000000000001,-5.39853832028498
-0.3097,-5.431076680181876
-0.3107000000000001,-5.450882638379986
-0.3117,-5.486250420876612
-0.3127000000000001,-5.555571274569999
-0.3137,-5.59518319096622
-0.3147000000000001,-5.624892128263387
-0.3157,-5.658845199460147
-0.3167000000000001,-5.694212981956773
-0.3177,-5.681480580257988
-0.3187000000000001,-5.7111895175551535
-0.3197,-5.762119124350295
-0.3207000000000001,-5.7974869068469195
-0.3217,-5.830025266743816
-0.3227000000000001,-5.866807760540307
-0.3237,-5.899346120437204
-0.3247000000000001,-5.930469769034234
-0.3257,-5.953105149832074
-0.3267000000000001,-5.98281408712924
-0.3277,-6.009693601826676
-0.3287000000000001,-6.023840714825327
-0.3297,-6.049305518222896
-0.3307000000000001,-6.0719408990207375
-0.3317,-6.081843878119792
-0.3327000000000001,-6.112967526716823
-0.3337,-6.139847041414258
-0.3347000000000001,-6.163897133511965
-0.3357,-6.186532514309805
-0.3367000000000001,-6.2558533680031925
-0.3377,-6.306782974798334
-0.3387000000000001,-6.337906623395364
-0.3397,-6.371859694592125
-0.3407000000000001,-6.405812765788886
-0.3417,-6.429862857886591
-0.3427000000000001,-6.472304196882543
-0.3437,-6.4850365985813285
-0.3447000000000001,-6.511916113278764
-0.3457,-6.543039761875795
-0.3467000000000001,-6.57274869917296
-0.3477,-6.612360615569181
-0.3487000000000001,-6.653387243265268
-0.3497,-6.694413870961354
-0.3507000000000001,-6.724122808258519
-0.3517,-6.759490590755146
-0.3527000000000001,-6.800517218451231
-0.3537,-6.834470289647991
-0.3547000000000001,-6.868423360844753
-0.3557,-6.915108833740299
-0.35670000000000013,-6.9646237292355755
-0.3577,-7.002820934331931
-0.35870000000000013,-7.039603428128422
-0.3597,-7.086288901023969
-0.36070000000000013,-7.1216566835205946
-0.3617,-7.166927445116276
-0.3626999999999999,-7.224930608410742
-0.3637,-7.275860215205883
-0.3646999999999999,-7.323960399401294
-0.3657,-7.372060583596706
-0.3666999999999999,-7.414501922592657
-0.3677,-7.459772684188338
-0.3686999999999999,-7.507872868383751
-0.36970000000000003,-7.555973052579161
-0.3706999999999999,-7.6069026593743025
-0.37170000000000003,-7.649343998370253
-0.3726999999999999,-7.71017658426445
-0.37370000000000003,-7.759691479759726
-0.3746999999999999,-7.812035797854732
-0.37570000000000003,-7.874283095048795
-0.3766999999999999,-7.942189237442316
-0.37770000000000004,-7.995948266837187
-0.3786999999999999,-8.052536718831789
-0.37970000000000004,-8.107710459526524
-0.3806999999999999,-8.161469488921396
-0.38170000000000004,-8.213813807016404
-0.38269999999999993,-8.263328702511679
-0.38370000000000004,-8.324161288405875
-0.38469999999999993,-8.382164451700342
-0.38570000000000004,-8.437338192395078
-0.38669999999999993,-8.411873388997508
-0.38570000000000004,-8.324161288405875
-0.38469999999999993,-8.253425723412624
-0.38370000000000004,-8.181275447119509
-0.38269999999999993,-8.085075078728684
-0.38170000000000004,-7.9945335555373225
-0.3806999999999999,-7.911065588845285
-0.37970000000000004,-7.827597622153248
-0.3786999999999999,-7.7582767684598615
-0.37770000000000004,-7.687541203466609
-0.3766999999999999,-7.5941702576755175
-0.37570000000000003,-7.523434692682265
-0.3746999999999999,-7.456943261588608
-0.37370000000000003,-7.387622407895222
-0.3726999999999999,-7.32254568810143
-0.37170000000000003,-7.246151277908718
-0.3706999999999999,-7.174001001615601
-0.36970000000000003,-7.107509570521944
-0.3686999999999999,-7.0367740055286925
-0.3677,-6.963209017935711
-0.3666999999999999,-6.874082206044213
-0.3657,-6.799102507151367
-0.3646999999999999,-6.72695223085825
-0.3637,-6.6689490675637835
-0.3626999999999999,-6.5967987912706665
-0.3617,-6.528892648877145
-0.36070000000000013,-6.462401217783487
-0.3597,-6.398739209289561
-0.35870000000000013,-6.332247778195904
-0.3577,-6.267171058402113
-0.35670000000000013,-6.2035090499081855
-0.3557,-6.141261752714124
-0.3547000000000001,-6.083258589419658
-0.3537,-6.023840714825327
-0.3527000000000001,-5.964422840230995
-0.3517,-5.906419676936528
-0.3507000000000001,-5.844172379742466
-0.3497,-5.787583927747865
-0.3487000000000001,-5.735239609652858
-0.3477,-5.672992312458796
-0.3467000000000001,-5.613574437864465
-0.3457,-5.549912429370539
-0.3447000000000001,-5.496153399975667
-0.3437,-5.440979659280932
-0.3427000000000001,-5.38722062988606
-0.3417,-5.3306321778914585
-0.3407000000000001,-5.282531993696048
-0.3397,-5.237261232100366
-0.3387000000000001,-5.197649315704145
-0.3377,-5.150963842808599
-0.3367000000000001,-5.102863658613187
-0.3357,-5.053348763117911
-0.3347000000000001,-5.006663290222365
-0.3337,-4.959977817326819
-0.3327000000000001,-4.916121767031002
-0.3317,-4.863777448935997
-0.3307000000000001,-4.815677264740584
-0.3297,-4.773235925744634
-0.3287000000000001,-4.725135741549222
-0.3277,-4.681279691253407
-0.3267000000000001,-4.626105950558669
-0.3257,-4.579420477663124
-0.3247000000000001,-4.5369791386671725
-0.3237,-4.487464243171897
-0.3227000000000001,-4.443608192876081
-0.3217,-4.396922719980535
-0.3207000000000001,-4.351651958384853
-0.3197,-4.307795908089036
-0.3187000000000001,-4.2611104351934905
-0.3177,-4.220083807497405
-0.3167000000000001,-4.1762277572015885
-0.3157,-4.135201129505503
-0.3147000000000001,-4.095589213109282
-0.3137,-4.05314787411333
-0.3127000000000001,-4.009291823817514
-0.3117,-3.9682651961214277
-0.3107000000000001,-3.9258238571254775
-0.3097,-3.8947002085284463
-0.3087000000000001,-3.8565030034320897
-0.3077,-3.815476375736004
-0.3067000000000001,-3.780108593239378
-0.30569999999999997,-3.7419113881430217
-0.3047000000000001,-3.702299471746801
-0.30369999999999997,-3.6655169779503103
-0.3027000000000001,-3.627319772853954
-0.30169999999999997,-3.590537279057463
-0.3007000000000001,-3.552340073961107
-0.29969999999999997,-3.5169722914644814
-0.2987000000000001,-3.4816045089678553
-0.29769999999999996,-3.447651437771094
-0.2967000000000001,-3.4094542326747383
-0.29569999999999996,-3.3726717388782474
-0.2947000000000001,-3.3401333789813514
-0.29369999999999996,-3.303350885184861
-0.29270000000000007,-3.265153680088505
-0.29169999999999996,-3.232615320191609
-0.29070000000000007,-3.198662248994848
-0.28969999999999996,-3.164709177798087
-0.28870000000000007,-3.1307561066013263
-0.28769999999999996,-3.0968030354045655
-0.28670000000000007,-3.0656793868075347
-0.28569999999999995,-3.0373851608102336
-0.28470000000000006,-3.000602667013743
-0.28369999999999995,-2.970893729716577
-0.28270000000000006,-2.9397700811195464
-0.28169999999999995,-2.9072317212226504
-0.28070000000000006,-2.8761080726256196
-0.27969999999999995,-2.844984424028589
-0.27870000000000006,-2.8166901980312877
-0.27769999999999995,-2.785566549434257
-0.27670000000000006,-2.7572723234369563
-0.27569999999999995,-2.7247339635400607
-0.27470000000000006,-2.697854448842625
-0.27369999999999994,-2.6681455115454593
-0.27270000000000005,-2.637021862948428
-0.27169999999999994,-2.6073129256512626
-0.27070000000000005,-2.5776039883540967
-0.26969999999999994,-2.549309762356796
-0.26870000000000005,-2.5224302476593605
