Potential V vs RHE, Current mA cm-2
0.013299999999999867,11.009283335549716
0.012299999999999978,9.508274646392913
0.011299999999999866,8.27181697031087
0.010299999999999976,7.213612918011822
0.009299999999999864,6.299709418299008
0.008299999999999974,5.537180027671754
0.007299999999999862,4.819921398640179
0.006299999999999972,4.112565748707662
0.00529999999999986,3.447651437771094
0.0042999999999999705,2.854887403127644
0.0032999999999998586,2.3356883560771755
0.0022999999999999687,1.8249775768258971
0.0012999999999998568,1.2988464444060903
0.00029999999999996696,0.7943603948742181
-0.000700000000000145,0.33726717388782473
-0.0017000000000000348,-0.07437137303390498
-0.0027000000000001467,-0.47520152562466583
-0.0037000000000000366,-0.9088105390332994
-0.0047000000000001485,-1.322896536503796
-0.005700000000000038,-1.6990682711379093
-0.00670000000000015,-2.0371842718056525
-0.00770000000000004,-2.3653972933743415
-0.008700000000000152,-2.730392808739521
-0.009700000000000042,-3.0911441902051053
-0.010700000000000154,-3.4207719230736586
-0.011700000000000044,-3.698055337847206
-0.012700000000000156,-3.971094618721158
-0.013700000000000045,-4.279501682091736
-0.014700000000000157,-4.599226435861234
-0.015700000000000047,-4.873680428035052
-0.01670000000000016,-5.1212549055114325
-0.01770000000000005,-5.371658805587544
-0.01870000000000016,-5.644698086461496
-0.01970000000000005,-5.919152078635313
-0.020700000000000163,-6.155408865712774
-0.021700000000000053,-6.371859694592125
-0.022700000000000164,-6.595384079970801
-0.023700000000000054,-6.837299712247723
-0.024700000000000166,-7.101850725322484
-0.025700000000000056,-7.331033955900621
-0.026700000000000168,-7.512117002283345
-0.027700000000000058,-7.714420718164044
-0.02870000000000017,-7.939359814842586
-0.02970000000000006,-8.182690158419373
-0.03070000000000017,-8.394896853399128
-0.03170000000000006,-8.559003364183472
-0.03270000000000017,-8.744330544465791
-0.03370000000000006,-8.963610795944874
-0.034700000000000175,-9.188549892623413
-0.035700000000000065,-9.376706495505463
-0.03670000000000018,-9.540813006289808
-0.03770000000000007,-9.714822496173207
-0.03870000000000018,-9.921370345953502
-0.03970000000000007,-10.130747618333528
-0.04070000000000018,-10.321733643815307
-0.04170000000000007,-10.48018130940019
-0.04270000000000018,-10.618823016786965
-0.04370000000000007,-10.805564908369151
-0.044700000000000184,-11.012112758149446
-0.045700000000000074,-11.201684072331359
-0.046700000000000186,-11.37569356221476
-0.047700000000000076,-11.538385361699238
-0.04870000000000019,-11.727956675881154
-0.04970000000000008,-11.911869144863608
-0.05070000000000019,-12.073146233048224
-0.05170000000000008,-12.223105630833915
-0.05270000000000019,-12.36740618342015
-0.05370000000000008,-12.549903941102741
-0.05470000000000019,-12.759281213482765
-0.05570000000000008,-12.92621714686684
-0.056700000000000195,-13.084664812451724
-0.057700000000000085,-13.22896536503796
-0.058700000000000196,-13.391657164522437
-0.059700000000000086,-13.585472612603946
-0.0607000000000002,-13.74674970078856
-0.06170000000000009,-13.898123809874122
-0.0627000000000002,-14.045253785060085
-0.06370000000000009,-14.203701450644967
-0.0647000000000002,-14.415908145624723
-0.06570000000000009,-14.557379275611227
-0.0667000000000002,-14.67055617960043
-0.0677000000000001,-14.812027309586934
-0.0687000000000002,-14.967645552572087
-0.0697000000000001,-15.151558021554543
-0.07070000000000021,-15.321323377538347
-0.0717000000000001,-15.448647394526201
-0.07270000000000021,-15.590118524512702
-0.0737000000000001,-15.77403099349516
-0.07470000000000021,-15.957943462477614
-0.0757000000000001,-16.11356170546277
-0.07670000000000021,-16.21259149645332
-0.0777000000000001,-16.354062626439823
-0.07870000000000021,-16.52382798242363
-0.0797000000000001,-16.70774045140608
-0.08070000000000022,-16.863358694391238
-0.0817000000000001,-16.97653559838044
-0.08270000000000022,-17.118006728366943
-0.08370000000000011,-17.301919197349395
-0.08470000000000022,-17.45753744033455
-0.08570000000000011,-17.584861457322408
-0.08670000000000022,-17.71218547431026
-0.08770000000000011,-17.825362378299463
-0.08870000000000022,-18.009274847281915
-0.08970000000000011,-18.17904020326572
-0.09070000000000022,-18.306364220253574
-0.09170000000000011,-18.461982463238726
-0.09270000000000023,-18.617600706223882
-0.09370000000000012,-18.744924723211735
-0.09470000000000023,-18.900542966196888
-0.09570000000000012,-19.056161209182044
-0.09670000000000023,-19.169338113171246
-0.09770000000000012,-19.31080924315775
-0.09870000000000023,-19.49472171214021
-0.09970000000000012,-19.65033995512536
-0.10070000000000023,-19.77766397211321
-0.10170000000000012,-19.862546650105116
-0.10270000000000024,-20.03231200608892
-0.10370000000000013,-20.202077362072725
-0.10470000000000024,-20.371842718056527
-0.10570000000000013,-20.51331384804303
-0.10670000000000024,-20.626490752032236
-0.10770000000000013,-20.76796188201874
-0.10870000000000024,-20.966021463999844
-0.10970000000000013,-21.1782281589796
-0.11070000000000024,-21.319699288966106
-0.11170000000000013,-21.418729079956652
-0.11270000000000002,-21.560200209943158
-0.11370000000000013,-21.758259791924264
-0.11470000000000002,-21.95631937390537
-0.11570000000000014,-22.111937616890522
-0.11670000000000003,-22.239261633878378
-0.11770000000000014,-22.38073276386488
-0.11870000000000003,-22.564645232847337
-0.11970000000000014,-22.734410588831135
-0.12070000000000003,-22.904175944814945
-0.12170000000000014,-23.045647074801447
-0.12270000000000003,-23.187118204787954
-0.12370000000000014,-23.356883560771752
-0.12470000000000003,-23.55494314275286
-0.12570000000000014,-23.738855611735314
-0.12670000000000003,-23.894473854720466
-0.12770000000000015,-24.035944984706973
-0.12870000000000004,-24.21985745368943
-0.12970000000000015,-24.44621126166783
-0.13070000000000004,-24.61597661765164
-0.13170000000000015,-24.771594860636792
-0.13270000000000004,-24.927213103621945
-0.13370000000000015,-25.09697845960575
-0.13470000000000004,-25.280890928588207
-0.13570000000000015,-25.45065628457201
-0.13670000000000004,-25.648715866553115
-0.13770000000000016,-25.80433410953827
-0.13870000000000005,-26.002393691519377
-0.13970000000000016,-26.22874749949778
-0.14070000000000005,-26.440954194477534
-0.14170000000000016,-26.61071955046134
-0.14270000000000005,-26.723896454450543
-0.14370000000000016,-26.921956036431645
-0.14470000000000005,-27.190751183406004
-0.14570000000000016,-27.40295787838576
-0.14670000000000005,-27.558576121370916
-0.14770000000000016,-27.756635703352025
-0.14870000000000005,-28.02543085032638
-0.14970000000000017,-28.251784658304786
-0.15070000000000006,-28.463991353284538
-0.15170000000000017,-28.633756709268344
-0.15270000000000006,-28.8459634042481
-0.15370000000000017,-29.058170099227848
-0.15470000000000006,-29.31281813320356
-0.15570000000000017,-29.525024828183312
-0.15670000000000006,-29.708937297165768
-0.15770000000000017,-29.935291105144174
-0.15870000000000006,-30.21823336511718
-0.15970000000000018,-30.45873428609424
-0.16070000000000007,-30.656793868075347
-0.16170000000000018,-30.88314767605375
-0.16270000000000007,-31.12364859703081
-0.16370000000000018,-31.37829663100651
-0.16470000000000007,-31.64709177798087
-0.16570000000000018,-31.873445585959274
-0.16670000000000007,-32.09979939393769
-0.16770000000000018,-32.31200608891744
-0.16870000000000007,-32.52421278389719
-0.16970000000000018,-32.8637434958648
-0.17070000000000007,-33.14668575583781
-0.17170000000000019,-33.373039563816214
-0.17270000000000008,-33.61354048479327
-0.1737000000000002,-33.825747179773025
-0.17470000000000008,-34.10868943974604
-0.1757000000000002,-34.41992592571634
-0.17670000000000008,-34.67457395969205
-0.1777000000000002,-34.8867806546718
-0.17870000000000008,-35.198017140642115
-0.1797000000000002,-35.55169496560837
-0.18070000000000008,-35.93366701657193
-0.1817000000000002,-36.10343237255574
-0.18270000000000008,-36.35808040653144
-0.1837000000000002,-36.64102266650445
-0.1847000000000001,-36.9381120394761
-0.1857000000000002,-37.235201412447765
-0.1867000000000001,-37.50399655942213
-0.1877000000000002,-37.77279170639648
-0.1887000000000001,-38.08402819236679
-0.1897000000000002,-38.39526467833709
-0.1907000000000001,-38.706501164307404
-0.1917000000000001,-38.98944342428042
-0.19269999999999998,-39.272385684253415
-0.1937000000000001,-39.61191639622103
-0.19469999999999998,-39.92315288219133
-0.1957000000000001,-40.26268359415894
-0.19669999999999999,-40.503184515136
-0.1977000000000001,-40.78612677510901
-0.1987,-41.12565748707661
-0.1997000000000001,-41.46518819904423
-0.2007,-41.81886602401048
-0.2017000000000001,-42.073514057986195
-0.2027,-42.3564563179592
-0.2037000000000001,-42.72428125592411
-0.2047,-43.06381196789171
-0.2057000000000001,-43.36090134086337
-0.2067,-43.629696487837734
-0.2077000000000001,-43.98337431280399
-0.2087,-44.3511992507689
-0.2097000000000001,-44.704877075735155
-0.2107,-45.00196644870681
-0.2117000000000001,-45.32735004767578
-0.2127,-45.652733646644734
-0.2137000000000001,-46.034705697608295
-0.2147,-46.41667774857186
-0.2157000000000001,-46.69962000854486
-0.2167,-46.94012092952192
-0.21770000000000012,-47.25135741549222
-0.2187,-47.67577080545174
-0.21970000000000012,-48.12847842140855
-0.2207,-48.49630335937346
-0.22170000000000012,-48.77924561934647
-0.2227,-49.076334992318124
-0.22370000000000012,-49.41586570428573
-0.2247,-49.79783775524929
-0.22570000000000012,-50.179809806212845
-0.2267,-50.547634744177756
-0.22770000000000012,-50.92960679514132
-0.22870000000000001,-51.33987307210218
-0.22970000000000013,-51.77843357506035
-0.23070000000000002,-52.075522948032
-0.23170000000000013,-52.33017098200771
-0.23270000000000002,-52.72629014596991
-0.23370000000000013,-53.12240930993213
-0.23470000000000002,-53.447792908901086
-0.23570000000000013,-53.80147073386735
-0.23670000000000002,-54.1268543328363
-0.2376999999999999,-54.494679270801214
-0.23870000000000002,-54.947386886758025
-0.2396999999999999,-55.32935893772159
-0.24070000000000003,-55.64059542369189
-0.24169999999999991,-56.03671458765411
-0.24270000000000003,-56.333803960625765
-0.24369999999999992,-56.546010655605514
-0.24470000000000003,-56.91383559357042
-0.24569999999999992,-57.33824898352994
-0.24670000000000003,-57.7202210344935
-0.24769999999999992,-58.17292865045031
-0.24870000000000003,-58.65393049240442
-0.24969999999999992,-59.050049656366625
-0.25070000000000003,-59.36128614233694
-0.2516999999999999,-59.67252262830725
-0.25270000000000004,-60.02620045327351
-0.2536999999999999,-60.43646673023436
-0.25470000000000004,-60.86088012019388
-0.2556999999999999,-61.25699928415608
-0.25670000000000004,-61.5965299961237
-0.25769999999999993,-61.936060708091304
-0.25870000000000004,-62.30388564605621
-0.25969999999999993,-62.68585769701977
-0.26070000000000004,-63.02538840898739
-0.26169999999999993,-63.39321334695229
-0.26270000000000004,-63.803479623913155
-0.26369999999999993,-64.18545167487672
-0.26470000000000005,-64.60986506483623
-0.26569999999999994,-64.97769000280114
-0.26670000000000005,-65.33136782776738
-0.26769999999999994,-65.670898539735
-0.26870000000000005,-66.0670177036972
-0.26969999999999994,-66.51972531965401
-0.27070000000000005,-66.9582858226122
-0.27169999999999994,-67.24122808258521
-0.27270000000000005,-67.52417034255821
-0.27369999999999994,-67.8071126025312
-0.27470000000000006,-68.20323176649342
-0.27569999999999995,-68.59935093045563
-0.27670000000000006,-68.85399896443133
-0.27769999999999995,-69.1227941114057
-0.27870000000000006,-69.46232482337331
-0.27969999999999995,-69.91503243933012
-0.28070000000000006,-70.31115160329232
-0.28169999999999995,-70.80630055824508
-0.28270000000000006,-71.28730240019921
-0.28369999999999995,-71.58439177317086
-0.28470000000000006,-71.95221671113578
-0.28569999999999995,-72.36248298809663
-0.28670000000000007,-72.63127813507097
-0.28769999999999996,-72.90007328204534
-0.28870000000000007,-73.3952222369981
-0.28969999999999996,-73.6781644969711
-0.29070000000000007,-73.91866541794816
-0.29169999999999996,-74.41381437290093
-0.29270000000000007,-74.7391979718699
-0.29369999999999996,-74.9938460058456
-0.2947000000000001,-75.36167094381051
-0.29569999999999996,-75.5880247517889
-0.2967000000000001,-75.8992612377592
-0.29769999999999996,-76.42270441870929
-0.2987000000000001,-76.86126492166746
-0.29969999999999997,-77.25738408562965
-0.3007000000000001,-77.55447345860131
-0.30169999999999997,-77.76668015358106
-0.3027000000000001,-78.07791663955136
-0.30369999999999997,-78.44574157751629
-0.3047000000000001,-78.7852722894839
-0.30569999999999997,-79.08236166245555
-0.3067000000000001,-79.3228625834326
-0.3077,-79.63409906940291
-0.3087000000000001,-79.97362978137053
-0.3097,-80.29901338033947
-0.3107000000000001,-80.56780852731384
-0.3117,-80.86489790028548
-0.3127000000000001,-81.10539882126255
-0.3137,-81.41663530723285
-0.3147000000000001,-81.75616601920048
-0.3157,-82.05325539217212
-0.3167000000000001,-82.32205053914649
-0.3177,-82.54840434712489
-0.3187000000000001,-82.8313466070979
-0.3197,-83.07184752807495
-0.3207000000000001,-83.51040803103311
-0.3217,-83.8216445170034
-0.3227000000000001,-84.06214543798048
-0.3237,-84.42997037594539
-0.3247000000000001,-84.6563241839238
-0.3257,-84.9392664438968
-0.3267000000000001,-85.1939144778725
-0.3277,-85.44856251184822
-0.3287000000000001,-85.81638744981312
-0.3297,-86.11347682278479
-0.3307000000000001,-86.36812485676049
-0.3317,-86.7642440207227
-0.3327000000000001,-86.9623036027038
-0.3337,-87.20280452368085
-0.3347000000000001,-87.66965925263632
-0.3357,-88.17895532058775
-0.3367000000000001,-88.36286778957019
-0.3377,-88.49019180655806
-0.3387000000000001,-88.82972251852566
-0.3397,-89.16925323049325
-0.3407000000000001,-89.46634260346492
-0.3417,-89.77757908943524
-0.3427000000000001,-90.17369825339743
-0.3437,-90.41419917437449
-0.3447000000000001,-90.71128854734616
-0.3457,-91.10740771130837
-0.3467000000000001,-91.44693842327598
-0.3477,-91.64499800525708
-0.3487000000000001,-91.99867583022333
-0.3497,-92.42308922018285
-0.3507000000000001,-92.81920838414506
-0.3517,-93.05970930512211
-0.3527000000000001,-93.35679867809377
-0.3537,-93.92268319803979
-0.3547000000000001,-94.30465524900335
-0.3557,-94.58759750897636
-0.35670000000000013,-94.91298110794531
-0.3577,-95.32324738490618
-0.35870000000000013,-95.67692520987244
-0.3597,-96.11548571283059
-0.36070000000000013,-96.63892889378066
-0.3617,-97.11993073573475
-0.3626999999999999,-97.47360856070102
-0.3637,-97.98290462865245
-0.3646999999999999,-98.4780535836052
-0.3657,-98.91661408656337
-0.3666999999999999,-99.32688036352423
-0.3677,-99.73714664048508
-0.3686999999999999,-100.21814848243919
-0.36970000000000003,-100.7274445503906
-0.3706999999999999,-101.27918195733798
-0.37170000000000003,-101.7318895732948
-0.3726999999999999,-102.2694798672435
-0.37370000000000003,-102.89195283918411
-0.3746999999999999,-103.21733643815308
-0.37570000000000003,-103.65589694111124
-0.3766999999999999,-104.22178146105726
-0.37770000000000004,-104.56131217302486
-0.3786999999999999,-104.84425443299787
-0.37970000000000004,-105.56575719592904
-0.3806999999999999,-106.49946665383996
-0.38170000000000004,-107.20682230377247
-0.38269999999999993,-107.8010010497158
-0.38370000000000004,-108.3102971176672
-0.38469999999999993,-108.96106431560513
-0.38570000000000004,-109.54109594854978
-0.38669999999999993,-108.50835669964832
-0.38570000000000004,-105.86284656890071
-0.38469999999999993,-103.64174982811258
-0.38370000000000004,-101.71774246029614
-0.38269999999999993,-99.93520622246619
-0.38170000000000004,-98.16681709763489
-0.3806999999999999,-96.3701337468063
-0.37970000000000004,-94.70077441296557
-0.3786999999999999,-93.11629775711671
-0.37770000000000004,-91.54596821426652
-0.3766999999999999,-90.03222712341093
-0.37570000000000003,-88.60336871054724
-0.3746999999999999,-87.20280452368085
-0.37370000000000003,-85.68906343282526
-0.3726999999999999,-84.16117522897105
-0.37170000000000003,-82.67572836411274
-0.3706999999999999,-81.13369304725985
-0.36970000000000003,-79.56336350440966
-0.3686999999999999,-78.14865220454463
-0.3677,-76.84711780866878
-0.3666999999999999,-75.51728918679565
-0.3657,-74.07428366093333
-0.3646999999999999,-72.74445503906018
-0.3637,-71.35803796519245
-0.3626999999999999,-70.07065068231528
-0.3617,-68.72667494744348
-0.36070000000000013,-67.43928766456631
-0.3597,-66.12360615569182
-0.35870000000000013,-64.83621887281464
-0.3577,-63.64786138092801
-0.35670000000000013,-62.28973853305756
-0.3557,-61.01649836317903
-0.3547000000000001,-59.78569953229645
-0.3537,-58.45587091042332
-0.3527000000000001,-57.182630740544774
-0.3517,-55.8952434576676
-0.3507000000000001,-54.69273885278232
-0.3497,-53.58926403888759
-0.3487000000000001,-52.471642111994214
-0.3477,-51.29743173310623
-0.3467000000000001,-50.1656626932142
-0.3457,-48.991452314326224
-0.3447000000000001,-47.8879775004315
-0.3437,-46.89767959052597
-0.3427000000000001,-45.85079322862584
-0.3417,-44.83220109272301
-0.3407000000000001,-43.75702050482558
-0.3397,-42.78086970791871
-0.3387000000000001,-41.81886602401048
-0.3377,-40.828568114104954
-0.3367000000000001,-39.85241731719808
-0.3357,-38.90456074628851
-0.3347000000000001,-37.92840994938163
-0.3337,-37.02299471746801
-0.3327000000000001,-36.13172659855304
-0.3317,-35.240458479638065
-0.3307000000000001,-34.39163169971904
-0.3297,-33.55695203279867
-0.3287000000000001,-32.7505665918756
-0.3277,-31.873445585959274
-0.3267000000000001,-30.982177467044306
-0.3257,-30.147497800123933
-0.3247000000000001,-29.369406585198163
-0.3237,-28.56302114427509
-0.3227000000000001,-27.742488590353368
-0.3217,-26.9643973754276
-0.3207000000000001,-26.11557059550858
-0.3197,-25.36577360658011
-0.3187000000000001,-24.686712182644893
-0.3177,-23.993503645711023
-0.3167000000000001,-23.229559543783903
-0.3157,-22.479762554855434
-0.3147000000000001,-21.758259791924264
-0.3137,-21.065051254990397
-0.3127000000000001,-20.371842718056527
-0.3117,-19.678634181122664
-0.3107000000000001,-18.97127853119014
-0.3097,-18.320511333252224
-0.3087000000000001,-17.669744135314307
-0.3077,-17.047271163373694
-0.3067000000000001,-16.438945304431726
-0.30569999999999997,-15.77403099349516
-0.3047000000000001,-15.137410908555893
-0.30369999999999997,-14.557379275611227
-0.3027000000000001,-13.988665333065482
-0.30169999999999997,-13.40014543232163
-0.3007000000000001,-12.80313726377858
-0.29969999999999997,-12.227349764733512
-0.2987000000000001,-11.689759470784798
-0.29769999999999996,-11.106898415240401
-0.2967000000000001,-10.499987267598303
-0.29569999999999996,-9.925614479853097
-0.2947000000000001,-9.393683031103844
-0.29369999999999996,-8.880142829252835
-0.29270000000000007,-8.35387022570304
-0.29169999999999996,-7.795059262256351
-0.29070000000000007,-7.267371947406693
-0.28969999999999996,-6.739684632557035
-0.28870000000000007,-6.245950388904137
-0.28769999999999996,-5.762119124350295
-0.28670000000000007,-5.2386759434002315
-0.28569999999999995,-4.706744494650977
-0.28470000000000006,-4.22149851879727
-0.28369999999999995,-3.7702056141403233
-0.28270000000000006,-3.328815688582431
-0.28169999999999995,-2.8379108675292635
-0.28070000000000006,-2.3441766238763657
-0.27969999999999995,-1.8872248740199586
-0.27870000000000006,-1.4529085049613928
-0.27769999999999995,-1.0180262513828802
-0.27670000000000006,-0.5425417834982416
-0.27569999999999995,-0.054268325462822814
-0.27470000000000006,0.3818305798335734
-0.27369999999999994,0.7845988869051493
-0.27270000000000005,1.2083049212147279
-0.27169999999999994,1.658041643441823
-0.27070000000000005,2.1065051254990395
-0.26969999999999994,2.5210155363594953
-0.26870000000000005,2.9143052777219753
-0.26769999999999994,3.325986265982701
-0.26670000000000005,3.7702056141403233
-0.26569999999999994,4.20735140579862
-0.26470000000000005,4.597811724561368
