Potential V vs RHE, Current mA cm-2
0.013299999999999867,9.593157324384812
0.012299999999999978,7.7186648520636405
0.011299999999999866,5.9729111080301855
0.010299999999999976,4.360140226184043
0.009299999999999864,2.7898106833338523
0.008299999999999974,1.219056727093702
0.007299999999999862,-0.3947044526623452
0.006299999999999972,-2.008890045808352
0.00529999999999986,-3.579219588658543
0.0042999999999999705,-5.149549131508733
0.0032999999999998586,-6.632166573767292
0.0022999999999999687,-8.027071915434218
0.0012999999999998568,-9.335679867809377
0.00029999999999996696,-10.601846481188586
-0.000700000000000145,-11.82274233297211
-0.0017000000000000348,-13.087494235051453
-0.0027000000000001467,-14.345172580631472
-0.0037000000000000366,-15.660854089505953
-0.0047000000000001485,-17.018976937376394
-0.005700000000000038,-18.27806999425627
-0.00670000000000015,-19.537163051136158
-0.00770000000000004,-20.683079204026836
-0.008700000000000152,-21.772406904922917
-0.009700000000000042,-22.819293266823045
-0.010700000000000154,-23.823738289727217
-0.011700000000000044,-24.870624651627345
-0.012700000000000156,-25.959952352523427
-0.013700000000000045,-27.091721392415455
-0.014700000000000157,-28.22349043230748
-0.015700000000000047,-29.31281813320356
-0.01670000000000016,-30.402145834099635
-0.01770000000000005,-31.40659085700382
-0.01870000000000016,-32.32615320191609
-0.01970000000000005,-33.231568433829715
-0.020700000000000163,-34.06624810075008
-0.021700000000000053,-34.98581044566235
-0.022700000000000164,-35.94781412957058
-0.023700000000000054,-36.95225915247476
-0.024700000000000166,-37.94255706238028
-0.025700000000000056,-38.94700208528445
-0.026700000000000168,-39.86656443019674
-0.027700000000000058,-40.78612677510901
-0.02870000000000017,-41.56421799003478
-0.02970000000000006,-42.3564563179592
-0.03070000000000017,-43.09210619388902
-0.03170000000000006,-43.92678586080939
-0.03270000000000017,-44.80390686672572
-0.03370000000000006,-45.666880759643384
-0.034700000000000175,-46.586443104555656
-0.035700000000000065,-47.54844678846388
-0.03670000000000018,-48.41142068138156
-0.03770000000000007,-49.20365900930597
-0.03870000000000018,-49.939308885235796
-0.03970000000000007,-50.64666453516831
-0.04070000000000018,-51.33987307210218
-0.04170000000000007,-52.033081609036046
-0.04270000000000018,-52.82531993696047
-0.04370000000000007,-53.64585249088219
-0.044700000000000184,-54.52297349679851
-0.045700000000000074,-55.357653163718886
-0.046700000000000186,-56.1781857176406
-0.047700000000000076,-56.927982706569075
-0.04870000000000019,-57.66363258249889
-0.04970000000000008,-58.31439978043681
-0.05070000000000019,-58.97931409137338
-0.05170000000000008,-59.6300812893113
-0.05270000000000019,-60.36573116524111
-0.05370000000000008,-61.15796949316553
-0.05470000000000019,-61.97850204708726
-0.05570000000000008,-62.77074037501168
-0.056700000000000195,-63.59127292893339
-0.057700000000000085,-64.29862857886593
-0.058700000000000196,-64.94939577680383
-0.059700000000000086,-65.60016297474175
-0.0607000000000002,-66.20848883368372
-0.06170000000000009,-66.87340314462028
-0.0627000000000002,-67.65149435954605
-0.06370000000000009,-68.38714423547587
-0.0647000000000002,-69.1793825634003
-0.06570000000000009,-70.01406223032066
-0.0667000000000002,-70.79215344524643
-0.0677000000000001,-71.48536198218031
-0.0687000000000002,-72.10783495412092
-0.0697000000000001,-72.71616081306288
-0.07070000000000021,-73.32448667200485
-0.0717000000000001,-73.97525386994278
-0.07270000000000021,-74.66846240687663
-0.0737000000000001,-75.46070073480107
-0.07470000000000021,-76.23879194972683
-0.0757000000000001,-77.03103027765125
-0.07670000000000021,-77.76668015358106
-0.0777000000000001,-78.47403580351359
-0.07870000000000021,-79.08236166245555
-0.0797000000000001,-79.69068752139752
-0.08070000000000022,-80.34145471933543
-0.0817000000000001,-80.9497805782774
-0.08270000000000022,-81.65713622820991
-0.08370000000000011,-82.39278610413973
-0.08470000000000022,-83.18502443206415
-0.08570000000000011,-84.00555698598588
-0.08670000000000022,-84.75535397491434
-0.08770000000000011,-85.40612117285227
-0.08870000000000022,-86.01444703179425
-0.08970000000000011,-86.5378902127443
-0.09070000000000022,-87.10377473269031
-0.09170000000000011,-87.71210059163228
-0.09270000000000023,-88.37701490256885
-0.09370000000000012,-89.15510611749461
-0.09470000000000023,-89.98978578441499
-0.09570000000000012,-90.76787699934074
-0.09670000000000023,-91.56011532726518
-0.09770000000000012,-92.2108825252031
-0.09870000000000023,-92.81920838414506
-0.09970000000000012,-93.42753424308701
-0.10070000000000023,-94.03586010202899
-0.10170000000000012,-94.70077441296557
-0.10270000000000024,-95.43642428889537
-0.10370000000000013,-96.17207416482519
-0.10470000000000024,-97.00675383174556
-0.10570000000000013,-97.78484504667132
-0.10670000000000024,-98.5346420355998
-0.10770000000000013,-99.22785057253368
-0.10870000000000024,-99.83617643147564
-0.10970000000000013,-100.5010907424122
-0.11070000000000024,-101.10941660135417
-0.11170000000000013,-101.76018379929208
-0.11270000000000002,-102.4958336752219
-0.11370000000000013,-103.33051334214227
-0.11470000000000002,-104.2076343480586
-0.11570000000000014,-105.02816690198033
-0.11670000000000003,-105.7779638909088
-0.11770000000000014,-106.51361376683862
-0.11870000000000003,-107.16438096477653
-0.11970000000000014,-107.78685393671715
-0.12070000000000003,-108.39517979565912
-0.12170000000000014,-109.04594699359701
-0.12270000000000003,-109.69671419153494
-0.12370000000000014,-110.40406984146746
-0.12470000000000003,-111.09727837840134
-0.12570000000000014,-111.91781093232305
-0.12670000000000003,-112.79493193823936
-0.12770000000000015,-113.53058181416918
-0.12870000000000004,-114.28037880309766
-0.12970000000000015,-114.97358734003153
-0.13070000000000004,-115.62435453796945
-0.13170000000000015,-116.28926884890602
-0.13270000000000004,-116.94003604684394
-0.13370000000000015,-117.67568592277377
-0.13470000000000004,-118.51036558969413
-0.13570000000000015,-119.2884568046199
-0.13670000000000004,-120.08069513254432
-0.13770000000000016,-120.81634500847414
-0.13870000000000005,-121.48125931941068
-0.13970000000000016,-122.1320265173486
-0.14070000000000005,-122.74035237629057
-0.14170000000000016,-123.34867823523254
-0.14270000000000005,-124.05603388516508
-0.14370000000000016,-124.7916837610949
-0.14470000000000005,-125.62636342801528
-0.14570000000000016,-126.44689598193698
-0.14670000000000005,-127.23913430986138
-0.14770000000000016,-127.97478418579122
-0.14870000000000005,-128.5831100447332
-0.14970000000000017,-129.19143590367514
-0.15070000000000006,-129.79976176261712
-0.15170000000000017,-130.50711741254963
-0.15270000000000006,-131.24276728847948
-0.15370000000000017,-131.99256427740792
-0.15470000000000006,-132.72821415333775
-0.15570000000000017,-133.52045248126214
-0.15670000000000006,-134.29854369618792
-0.15770000000000017,-135.03419357211774
-0.15870000000000006,-135.6991078830543
-0.15970000000000018,-136.30743374199628
-0.16070000000000007,-136.91575960093826
-0.16170000000000018,-137.52408545988024
-0.16270000000000007,-138.17485265781812
-0.16370000000000018,-138.92464964674662
-0.16470000000000007,-139.70274086167237
-0.16570000000000018,-140.45253785060083
-0.16670000000000007,-141.14574638753473
-0.16770000000000018,-141.89554337646317
-0.16870000000000007,-142.4614278964092
-0.16970000000000018,-143.0273124163552
-0.17070000000000007,-143.5931969363012
-0.17170000000000019,-144.30055258623375
-0.17270000000000008,-144.86643710617977
-0.1737000000000002,-145.57379275611228
-0.17470000000000008,-146.4226195360313
-0.1757000000000002,-147.1299751859638
-0.17670000000000008,-147.97880196588284
-0.1777000000000002,-148.54468648582886
-0.17870000000000008,-149.25204213576137
-0.1797000000000002,-149.8179266557074
-0.18070000000000008,-150.38381117565342
-0.1817000000000002,-150.94969569559944
-0.18270000000000008,-151.65705134553193
-0.1837000000000002,-152.36440699546444
-0.1847000000000001,-153.07176264539694
-0.1857000000000002,-153.77911829532948
-0.1867000000000001,-154.6279450752485
-0.1877000000000002,-155.19382959519453
-0.1887000000000001,-155.90118524512707
-0.1897000000000002,-156.46706976507306
-0.1907000000000001,-157.03295428501906
-0.1917000000000001,-157.59883880496508
-0.19269999999999998,-158.3061944548976
-0.1937000000000001,-159.15502123481662
-0.19469999999999998,-159.86237688474912
-0.1957000000000001,-160.71120366466818
-0.19669999999999999,-161.41855931460069
-0.1977000000000001,-162.12591496453322
-0.1987,-162.6917994844792
-0.1997000000000001,-163.25768400442522
-0.2007,-163.82356852437124
-0.2017000000000001,-164.38945304431726
-0.2027,-165.09680869424977
-0.2037000000000001,-165.8041643441823
-0.2047,-166.51151999411482
-0.2057000000000001,-167.36034677403384
-0.2067,-168.20917355395284
-0.2077000000000001,-169.0580003338719
-0.2087,-169.7653559838044
-0.2097000000000001,-170.33124050375042
-0.2107,-170.75565389370993
-0.2117000000000001,-171.32153841365593
-0.2127,-172.0288940635885
-0.2137000000000001,-172.73624971352098
-0.2147,-173.44360536345349
-0.2157000000000001,-174.43390327335902
-0.2167,-175.28273005327804
-0.21770000000000012,-175.99008570321055
-0.2187,-176.6974413531431
-0.21970000000000012,-177.2633258730891
-0.2207,-177.82921039303508
-0.22170000000000012,-178.3950949129811
-0.2227,-178.96097943292713
-0.22370000000000012,-179.66833508285964
-0.2247,-180.5171618627787
-0.22570000000000012,-181.36598864269772
-0.2267,-182.21481542261674
-0.22770000000000012,-182.92217107254925
-0.22870000000000001,-183.48805559249527
-0.22970000000000013,-184.05394011244127
-0.23070000000000002,-184.6198246323873
-0.23170000000000013,-185.3271802823198
-0.23270000000000002,-186.03453593225234
-0.23370000000000013,-186.88336271217133
-0.23470000000000002,-187.59071836210387
-0.23570000000000013,-188.4395451420229
-0.23670000000000002,-189.1469007919554
-0.2376999999999999,-189.71278531190143
-0.23870000000000002,-190.42014096183394
-0.2396999999999999,-191.12749661176645
-0.24070000000000003,-191.69338113171247
-0.24169999999999991,-192.54220791163152
-0.24270000000000003,-193.249563561564
-0.24369999999999992,-194.09839034148303
-0.24470000000000003,-194.80574599141553
-0.24569999999999992,-195.51310164134807
-0.24670000000000003,-196.2204572912806
-0.24769999999999992,-196.92781294121312
-0.24870000000000003,-197.49369746115914
-0.24969999999999992,-198.05958198110514
-0.25070000000000003,-198.62546650105114
-0.2516999999999999,-199.19135102099716
-0.25270000000000004,-200.04017780091618
-0.2536999999999999,-200.7475334508487
-0.25470000000000004,-201.59636023076774
-0.2556999999999999,-202.44518701068677
-0.25670000000000004,-203.29401379060576
-0.25769999999999993,-204.0013694405383
-0.25870000000000004,-204.5672539604843
-0.25969999999999993,-205.13313848043032
-0.26070000000000004,-205.69902300037634
-0.26169999999999993,-206.26490752032234
-0.26270000000000004,-206.97226317025488
-0.26369999999999993,-207.8210899501739
-0.26470000000000005,-208.52844560010638
-0.26569999999999994,-209.37727238002543
-0.26670000000000005,-209.94315689997146
-0.26769999999999994,-210.65051254990397
-0.26870000000000005,-211.21639706985
-0.26969999999999994,-211.782281589796
-0.27070000000000005,-212.48963723972852
-0.27169999999999994,-213.19699288966103
-0.27270000000000005,-213.90434853959354
-0.27369999999999994,-214.61170418952605
-0.27470000000000006,-215.4605309694451
-0.27569999999999995,-216.3093577493641
-0.27670000000000006,-217.15818452928315
-0.27769999999999995,-217.86554017921566
-0.27870000000000006,-218.57289582914817
-0.27969999999999995,-219.13878034909416
-0.28070000000000006,-219.8461359990267
-0.28169999999999995,-220.5534916489592
-0.28270000000000006,-221.26084729889175
-0.28369999999999995,-221.96820294882426
-0.28470000000000006,-222.6755585987568
-0.28569999999999995,-223.38291424868927
-0.28670000000000007,-224.2317410286083
-0.28769999999999996,-224.93909667854084
-0.28870000000000007,-225.50498119848683
-0.28969999999999996,-226.21233684841937
-0.29070000000000007,-226.63675023837888
-0.29169999999999996,-227.34410588831142
-0.29270000000000007,-228.0514615382439
-0.29369999999999996,-228.75881718817644
-0.2947000000000001,-229.60764396809546
-0.29569999999999996,-230.31499961802797
-0.2967000000000001,-231.0223552679605
-0.29769999999999996,-231.8711820478795
-0.2987000000000001,-232.43706656782552
-0.29969999999999997,-233.1444222177581
-0.3007000000000001,-233.71030673770406
-0.30169999999999997,-234.4176623876366
-0.3027000000000001,-234.9835469075826
-0.30369999999999997,-235.69090255751513
-0.3047000000000001,-236.53972933743412
-0.30569999999999997,-237.38855611735315
-0.3067000000000001,-238.2373828972722
-0.3077,-238.94473854720468
-0.3087000000000001,-239.65209419713722
-0.3097,-240.21797871708318
-0.3107000000000001,-240.78386323702924
-0.3117,-241.34974775697523
-0.3127000000000001,-242.05710340690777
-0.3137,-242.90593018682682
-0.3147000000000001,-243.75475696674582
-0.3157,-244.60358374666484
-0.3167000000000001,-245.31093939659738
-0.3177,-246.15976617651637
-0.3187000000000001,-246.8671218264489
-0.3197,-247.57447747638145
-0.3207000000000001,-248.28183312631393
-0.3217,-248.84771764625998
-0.3227000000000001,-249.5550732961925
-0.3237,-250.262428946125
-0.3247000000000001,-250.9697845960575
-0.3257,-251.81861137597656
-0.3267000000000001,-252.66743815589555
-0.3277,-253.37479380582806
-0.3287000000000001,-254.08214945576057
-0.3297,-254.78950510569314
-0.3307000000000001,-255.35538962563913
-0.3317,-255.92127414558513
-0.3327000000000001,-256.62862979551767
-0.3337,-257.6189277054232
-0.3347000000000001,-258.4677544853422
-0.3357,-259.3165812652612
-0.3367000000000001,-260.3068791751668
-0.3377,-261.01423482509927
-0.3387000000000001,-261.7215904750318
-0.3397,-262.42894612496434
-0.3407000000000001,-262.9948306449103
-0.3417,-263.56071516485633
-0.3427000000000001,-264.2680708147888
-0.3437,-265.11689759470784
-0.3447000000000001,-266.1071955046134
-0.3457,-266.9560222845325
-0.3467000000000001,-267.94632019443793
-0.3477,-268.79514697435695
-0.3487000000000001,-269.5025026242895
-0.3497,-270.35132940420846
-0.3507000000000001,-271.05868505414105
-0.3517,-271.9075118340601
-0.3527000000000001,-272.7563386139791
-0.3537,-273.60516539389806
-0.3547000000000001,-274.4539921738171
-0.3557,-275.44429008372265
-0.35670000000000013,-276.29311686364167
-0.3577,-277.2834147735472
-0.35870000000000013,-278.2737126834527
-0.3597,-279.1225394633717
-0.36070000000000013,-279.97136624329073
-0.3617,-280.82019302320975
-0.3626999999999999,-281.52754867314235
-0.3637,-282.2349043230748
-0.3646999999999999,-283.08373110299385
-0.3657,-284.07402901289936
-0.3666999999999999,-285.0643269228049
-0.3677,-286.0546248327104
-0.3686999999999999,-286.9034516126294
-0.36970000000000003,-287.7522783925485
-0.3706999999999999,-288.3181629124945
-0.37170000000000003,-289.02551856242695
-0.3726999999999999,-289.87434534234603
-0.37370000000000003,-290.723172122265
-0.3746999999999999,-291.571998902184
-0.37570000000000003,-292.70376794207607
-0.3766999999999999,-293.55259472199515
-0.37770000000000004,-294.4014215019141
-0.3786999999999999,-295.10877715184665
-0.37970000000000004,-295.8161328017792
-0.3806999999999999,-296.52348845171167
-0.38170000000000004,-297.23084410164427
-0.38269999999999993,-297.9381997515767
-0.38370000000000004,-298.78702653149577
-0.38469999999999993,-299.6358533114148
-0.38570000000000004,-300.48468009133376
-0.38669999999999993,-300.06026670137425
-0.38570000000000004,-296.94790184167124
-0.38469999999999993,-293.9770081119546
-0.38370000000000004,-291.0061143822381
-0.38269999999999993,-288.03522065252145
-0.38170000000000004,-285.2057980527914
-0.3806999999999999,-282.3763754530613
-0.37970000000000004,-279.6884239833177
-0.3786999999999999,-276.8590013835877
-0.37770000000000004,-274.1710499138441
-0.3766999999999999,-271.62456957408705
-0.37570000000000003,-269.07808923433
-0.3746999999999999,-266.2486666345999
-0.37370000000000003,-263.56071516485633
-0.3726999999999999,-260.8727636951128
-0.37170000000000003,-258.32628335535566
-0.3706999999999999,-255.77980301559862
-0.36970000000000003,-253.37479380582806
-0.3686999999999999,-250.828313466071
-0.3677,-248.42330425630044
-0.3666999999999999,-246.01829504652986
-0.3657,-243.47181470677282
-0.3646999999999999,-240.92533436701575
-0.3637,-238.5203251572452
-0.3626999999999999,-235.97384481748813
-0.3617,-233.4273644777311
-0.36070000000000013,-231.0223552679605
-0.3597,-228.61734605818995
-0.35870000000000013,-226.35380797840588
-0.3577,-224.09026989862178
-0.35670000000000013,-221.82673181883774
-0.3557,-219.5631937390537
-0.3547000000000001,-217.15818452928315
-0.3537,-214.75317531951256
-0.3527000000000001,-212.2066949797555
-0.3517,-209.8016857699849
-0.3507000000000001,-207.5381476902009
-0.3497,-205.41608074040332
-0.3487000000000001,-203.15254266061928
-0.3477,-200.88900458083523
-0.3467000000000001,-198.62546650105114
-0.3457,-196.3619284212671
-0.3447000000000001,-194.09839034148303
-0.3437,-191.83485226169896
-0.3427000000000001,-189.42984305192843
-0.3417,-187.16630497214436
-0.3407000000000001,-185.0442380223468
-0.3397,-182.92217107254925
-0.3387000000000001,-180.8001041227517
-0.3377,-178.67803717295413
-0.3367000000000001,-176.55597022315658
-0.3357,-174.43390327335902
-0.3347000000000001,-172.31183632356147
-0.3337,-170.0482982437774
-0.3327000000000001,-167.92623129397984
-0.3317,-165.8041643441823
-0.3307000000000001,-163.68209739438475
-0.3297,-161.70150157457368
-0.3287000000000001,-159.57943462477613
-0.3277,-157.7403099349516
-0.3267000000000001,-155.75971411514055
-0.3257,-153.77911829532948
-0.3247000000000001,-151.65705134553193
-0.3237,-149.39351326574788
-0.3227000000000001,-147.27144631595033
-0.3217,-145.14937936615277
-0.3207000000000001,-143.16878354634173
-0.3197,-141.27307040452254
-0.3187000000000001,-139.3207688107088
-0.3177,-137.43920278188833
-0.3167000000000001,-135.47275407507593
-0.3157,-133.46386402926754
-0.3147000000000001,-131.46912109645783
-0.3137,-129.4602310506495
-0.3127000000000001,-127.4088996658452
-0.3117,-125.40000962003687
-0.3107000000000001,-123.43356091322445
-0.3097,-121.60858333639854
-0.3087000000000001,-119.769458646574
-0.3077,-118.02936374774
-0.3067000000000001,-116.20438617091412
-0.30569999999999997,-114.36526148108955
-0.3047000000000001,-112.39881277427718
-0.30369999999999997,-110.4465111804634
-0.3027000000000001,-108.48006247365102
-0.30169999999999997,-106.59849644483052
-0.3007000000000001,-104.81596020700057
-0.29969999999999997,-103.07586530816658
-0.2987000000000001,-101.32162329633393
-0.29769999999999996,-99.62396973649588
-0.2967000000000001,-97.92631617665783
-0.29569999999999996,-96.17207416482519
-0.2947000000000001,-94.30465524900335
-0.29369999999999996,-92.42308922018285
-0.29270000000000007,-90.55567030436099
-0.29169999999999996,-88.71654561453644
-0.29070000000000007,-87.01889205469841
-0.28969999999999996,-85.36367983385631
-0.28870000000000007,-83.75090895201016
-0.28769999999999996,-82.13813807016405
-0.28670000000000007,-80.46877873632329
-0.28569999999999995,-78.77112517648524
-0.28470000000000006,-77.03103027765125
-0.28369999999999995,-75.2484940398213
-0.28270000000000006,-73.45181068899271
-0.28169999999999995,-71.66927445116276
-0.28070000000000006,-69.95747377832606
-0.27969999999999995,-68.34470289647993
-0.27870000000000006,-66.73193201463377
-0.27769999999999995,-65.20404381077954
-0.27670000000000006,-63.633714267929356
-0.27569999999999995,-62.02094338608321
-0.27470000000000006,-60.36573116524111
-0.27369999999999994,-58.66807760540307
-0.27270000000000005,-56.97042404556503
-0.27169999999999994,-55.31521182472294
-0.27070000000000005,-53.64585249088219
-0.26969999999999994,-52.11796428702795
-0.26870000000000005,-50.64666453516831
