Potential V vs RHE, Current mA cm-2
0.05339999999999995,-0.027190751183406005
0.05239999999999995,-0.028364961562293983
0.051399999999999946,-0.028860110517246747
0.050399999999999945,-0.029256229681208955
0.049399999999999944,-0.029609907506175218
0.04839999999999994,-0.029892849766148224
0.04739999999999994,-0.03018993913911988
0.04639999999999994,-0.030501175625090193
0.04539999999999994,-0.030840706337057794
0.04439999999999994,-0.031151942823028106
0.04339999999999994,-0.03139244374400516
0.04239999999999994,-0.03170368022997547
0.04139999999999994,-0.03198662248994848
0.040399999999999936,-0.03229785897591879
0.039399999999999935,-0.032637389687886396
0.038399999999999934,-0.0329203319478594
0.03739999999999993,-0.03321742132083106
0.03639999999999993,-0.03352865780680137
0.03539999999999993,-0.03386818851876898
0.03439999999999993,-0.034179425004739285
0.03339999999999993,-0.03444822015171364
0.03239999999999993,-0.034745309524685304
0.03139999999999993,-0.03507069312365426
0.030399999999999927,-0.03541022383562187
0.029399999999999926,-0.03573560743459083
0.028399999999999925,-0.036032696807562485
0.027399999999999924,-0.03634393329353279
0.026399999999999924,-0.0366834640055004
0.025399999999999923,-0.03703714183046666
0.024399999999999922,-0.03736252542943562
0.02339999999999992,-0.037673761915405925
0.02239999999999992,-0.03798499840137624
0.02139999999999992,-0.0383103820003452
0.020399999999999918,-0.03866405982531145
0.019399999999999917,-0.039003590537279066
0.018399999999999916,-0.039328974136248016
0.017399999999999916,-0.03965435773521698
0.016399999999999915,-0.03999388844718459
0.015399999999999914,-0.040375860498148154
0.014399999999999913,-0.040729538323114406
0.013399999999999912,-0.04106906903508201
0.012399999999999911,-0.04140859974704963
0.01139999999999991,-0.041748130459017235
0.01039999999999991,-0.042130102509980796
0.009399999999999908,-0.04248378033494705
0.008399999999999908,-0.042809163933916004
0.007399999999999907,-0.04317698887188092
0.006399999999999906,-0.04351651958384853
0.005399999999999905,-0.043912638747810734
0.004399999999999904,-0.0442946107987743
0.003399999999999903,-0.04464828862374056
0.002399999999999902,-0.04501611356170547
0.0013999999999999013,-0.04538393849967037
0.00039999999999990044,-0.045794204776631244
-0.0006000000000001005,-0.046162029714596146
-0.0016000000000001013,-0.04650156042656376
-0.0026000000000001022,-0.046883532477527315
-0.003600000000000103,-0.04727965164148953
-0.004600000000000104,-0.04770406503144904
-0.005600000000000105,-0.0481143313084099
-0.006600000000000106,-0.04848215624637481
-0.007600000000000107,-0.04884998118433972
-0.008600000000000108,-0.04923195323530328
-0.009600000000000108,-0.04967051373826144
-0.01060000000000011,-0.050052485789225
-0.01160000000000011,-0.05042031072718991
-0.012600000000000111,-0.05083057700415077
-0.013600000000000112,-0.05122669616811298
-0.014600000000000113,-0.05167940378406979
-0.015600000000000114,-0.05208967006103065
-0.016600000000000115,-0.05247164211199421
-0.017600000000000116,-0.05285361416295777
-0.018600000000000116,-0.05327802755291729
-0.019600000000000117,-0.05374488228187274
-0.020600000000000118,-0.0541551485588336
-0.02160000000000012,-0.05455126772279582
-0.02260000000000012,-0.05496153399975667
-0.02360000000000012,-0.05537180027671754
-0.024600000000000122,-0.055838655005673
-0.025600000000000123,-0.05626306839563251
-0.026600000000000124,-0.05665918755959472
-0.027600000000000124,-0.05708360094955423
-0.028600000000000125,-0.05750801433951374
-0.029600000000000126,-0.057974869068469215
-0.030600000000000127,-0.058399282458428715
-0.03160000000000013,-0.05879540162239092
-0.03260000000000013,-0.05920566789935178
-0.03360000000000013,-0.0596300812893113
-0.03460000000000002,-0.06008278890526811
-0.03560000000000002,-0.060507202295227616
-0.03660000000000002,-0.060903321459189835
-0.03760000000000002,-0.06134188196214799
-0.03860000000000002,-0.06179458957810481
-0.039600000000000024,-0.062261444307060265
-0.040600000000000025,-0.06272829903601573
-0.041600000000000026,-0.06315271242597524
-0.04260000000000003,-0.06357712581593475
-0.04360000000000003,-0.0640439805448902
-0.04460000000000003,-0.06453912949984296
-0.04560000000000003,-0.06499183711579978
-0.04660000000000003,-0.06543039761875795
-0.04760000000000003,-0.06585481100871747
-0.04860000000000003,-0.06632166573767292
-0.04960000000000003,-0.06678852046662838
-0.050600000000000034,-0.0672412280825852
-0.051600000000000035,-0.0676656414725447
-0.052600000000000036,-0.06810420197550286
-0.053600000000000037,-0.06858520381745697
-0.05460000000000004,-0.06905205854641244
-0.05560000000000004,-0.06950476616236925
-0.05660000000000004,-0.06992917955232876
-0.05760000000000004,-0.07035359294228827
-0.05860000000000004,-0.07083459478424238
-0.05960000000000004,-0.07132974373919515
-0.06060000000000004,-0.0717965984681506
-0.061600000000000044,-0.07220686474511147
-0.06260000000000004,-0.07264542524806963
-0.06360000000000005,-0.0731122799770251
-0.06460000000000005,-0.07359328181897921
-0.06560000000000005,-0.07404598943493602
-0.06660000000000005,-0.07447040282489553
-0.06760000000000005,-0.0749089633278537
-0.06860000000000005,-0.07536167094381051
-0.06960000000000005,-0.07585681989876326
-0.07060000000000005,-0.07629538040172142
-0.07160000000000005,-0.07667735245268498
-0.07260000000000005,-0.07711591295564316
-0.07360000000000005,-0.07756862057159995
-0.07460000000000006,-0.07804962241355407
-0.07560000000000006,-0.07850233002951089
-0.07660000000000006,-0.07891259630647175
-0.07760000000000006,-0.07933700969643126
-0.07860000000000006,-0.07978971731238807
-0.07960000000000006,-0.08022827781534624
-0.08060000000000006,-0.08065269120530574
-0.08160000000000006,-0.08106295748226659
-0.08260000000000006,-0.08147322375922747
-0.08360000000000006,-0.08194007848818292
-0.08460000000000006,-0.08237863899114109
-0.08560000000000006,-0.08278890526810194
-0.08660000000000007,-0.0831708773190655
-0.08760000000000007,-0.08353870225703043
-0.08860000000000007,-0.08393482142099262
-0.08960000000000007,-0.08437338192395079
-0.09060000000000007,-0.08478364820091165
-0.09160000000000007,-0.08516562025187521
-0.09260000000000007,-0.08553344518984012
-0.09360000000000007,-0.08595785857979962
-0.09460000000000007,-0.08639641908275779
-0.09560000000000007,-0.0867642440207227
-0.09660000000000007,-0.0871037747326903
-0.09760000000000008,-0.08745745255765658
-0.09860000000000008,-0.08782527749562147
-0.09960000000000008,-0.08820724954658503
-0.10060000000000008,-0.0885609273715513
-0.10160000000000008,-0.08892875230951619
-0.10260000000000008,-0.08928243013448246
-0.10360000000000008,-0.08965025507244738
-0.10460000000000008,-0.09004637423640958
-0.10560000000000008,-0.09037175783537854
-0.10660000000000008,-0.0906971414343475
-0.10760000000000008,-0.09103667214631511
-0.10860000000000009,-0.09139034997128137
-0.10960000000000009,-0.09172988068324898
-0.11060000000000009,-0.09206941139521659
-0.11160000000000009,-0.0923523536551896
-0.11260000000000009,-0.09266359014115991
-0.11360000000000009,-0.09298897374012885
-0.11460000000000009,-0.09337094579109242
-0.11560000000000009,-0.09366803516406408
-0.11660000000000009,-0.0939226831980398
-0.1176000000000001,-0.0942056254580128
-0.1186000000000001,-0.09451686194398311
-0.1196000000000001,-0.0948280984299534
-0.1206000000000001,-0.0951110406899264
-0.1216000000000001,-0.09532324738490616
-0.1226000000000001,-0.09557789541888188
-0.1236000000000001,-0.0958608376788549
-0.1246000000000001,-0.09617207416482519
-0.1256000000000001,-0.09641257508580224
-0.1266000000000001,-0.09663892889378066
-0.1276000000000001,-0.09686528270175906
-0.1286000000000001,-0.09713407784873342
-0.1296000000000001,-0.09736043165671183
-0.1306000000000001,-0.09758678546469024
-0.1316000000000001,-0.0977706979336727
-0.1326000000000001,-0.09795461040265514
-0.1336000000000001,-0.09818096421063353
-0.1346000000000001,-0.09843561224460926
-0.1356000000000001,-0.09861952471359171
-0.1366000000000001,-0.09877514295657686
-0.1376000000000001,-0.09894490831256067
-0.1386000000000001,-0.09912882078154311
-0.1396000000000001,-0.09935517458952153
-0.1406000000000001,-0.09949664571950805
-0.14160000000000011,-0.09962396973649587
-0.14260000000000012,-0.0997654408664824
-0.14360000000000012,-0.09993520622246618
-0.14460000000000012,-0.10011911869144864
-0.14560000000000012,-0.10026058982143515
-0.14660000000000012,-0.10037376672542435
-0.14760000000000012,-0.10048694362941356
-0.14860000000000012,-0.1006142676464014
-0.14960000000000012,-0.10078403300238521
-0.15060000000000012,-0.10088306279337576
-0.15160000000000012,-0.10096794547136766
-0.15260000000000012,-0.10106697526235821
-0.15360000000000013,-0.10116600505334877
-0.15460000000000013,-0.10130747618333527
-0.15560000000000013,-0.10137821174832852
-0.15660000000000013,-0.10142065308732448
-0.15760000000000013,-0.10147724153931909
-0.15860000000000013,-0.10156212421731098
-0.15960000000000002,-0.10167530112130019
-0.16060000000000002,-0.10174603668629344
-0.16160000000000002,-0.1017601837992921
-0.16260000000000002,-0.10180262513828804
-0.16360000000000002,-0.10185921359028265
-0.16460000000000002,-0.1019299491552759
-0.16560000000000002,-0.1020148318332678
-0.16660000000000003,-0.1020431260592651
-0.16760000000000003,-0.10205727317226375
-0.16860000000000003,-0.10208556739826105
-0.16960000000000003,-0.10214215585025564
-0.17060000000000003,-0.102128008737257
-0.17160000000000003,-0.10211386162425835
-0.17260000000000003,-0.10209971451125968
-0.17360000000000003,-0.10211386162425835
-0.17460000000000003,-0.10217045007625294
-0.17560000000000003,-0.1021563029632543
-0.17660000000000003,-0.102128008737257
-0.17760000000000004,-0.1020714202852624
-0.17860000000000004,-0.10209971451125968
-0.17960000000000004,-0.10209971451125968
-0.18060000000000004,-0.10205727317226375
-0.18160000000000004,-0.1020148318332678
-0.18260000000000004,-0.10195824338127318
-0.18360000000000004,-0.10194409626827454
-0.18460000000000004,-0.10194409626827454
-0.18560000000000004,-0.1019016549292786
-0.18660000000000004,-0.10181677225128669
-0.18760000000000004,-0.1017601837992921
-0.18860000000000005,-0.10173188957329479
-0.18960000000000005,-0.10171774246029613
-0.19060000000000005,-0.10164700689530289
-0.19160000000000005,-0.10157627133030964
-0.19260000000000005,-0.10150553576531639
-0.19360000000000005,-0.10144894731332177
-0.19460000000000005,-0.10142065308732448
-0.19560000000000005,-0.10134991752233123
-0.19660000000000005,-0.10123674061834202
-0.19760000000000005,-0.10116600505334877
-0.19860000000000005,-0.10110941660135417
-0.19960000000000006,-0.10105282814935958
-0.20060000000000006,-0.10096794547136766
-0.20160000000000006,-0.10085476856737846
-0.20260000000000006,-0.10075573877638791
-0.20360000000000006,-0.10069915032439332
-0.20460000000000006,-0.10065670898539736
-0.20560000000000006,-0.10055767919440682
-0.20660000000000006,-0.10043035517741895
-0.20760000000000006,-0.1003313253864284
-0.20860000000000006,-0.10026058982143515
-0.20960000000000006,-0.10018985425644189
-0.21060000000000006,-0.1000766773524527
-0.21160000000000007,-0.09996350044846349
-0.21260000000000007,-0.09983617643147565
-0.21360000000000007,-0.0997654408664824
-0.21460000000000007,-0.09970885241448779
-0.21560000000000007,-0.09958152839749992
-0.21660000000000007,-0.09948249860650937
-0.21760000000000007,-0.09936932170252018
-0.21860000000000007,-0.09928443902452828
-0.21960000000000007,-0.09921370345953502
-0.22060000000000007,-0.09907223232954852
-0.22160000000000007,-0.09895905542555931
-0.22260000000000008,-0.09884587852157012
-0.22360000000000008,-0.09874684873057955
-0.22460000000000008,-0.0986761131655863
-0.22560000000000008,-0.09856293626159711
-0.22660000000000008,-0.0984214651316106
-0.22760000000000008,-0.0983082882276214
-0.22860000000000008,-0.09820925843663084
-0.22960000000000008,-0.09812437575863896
-0.23060000000000008,-0.09802534596764839
-0.23160000000000008,-0.0978838748376619
-0.23260000000000008,-0.0977706979336727
-0.23360000000000009,-0.09767166814268213
-0.2346000000000001,-0.09760093257768888
-0.2356000000000001,-0.09748775567369967
-0.2366000000000001,-0.09734628454371318
-0.2376000000000001,-0.09723310763972397
-0.2386000000000001,-0.09714822496173206
-0.2396000000000001,-0.09706334228374017
-0.2406000000000001,-0.09695016537975096
-0.2416000000000001,-0.0967945471367658
-0.2426000000000001,-0.09669551734577525
-0.2436000000000001,-0.096624781780782
-0.2446000000000001,-0.0965116048767928
-0.2456000000000001,-0.09638428085980494
-0.2466000000000001,-0.0962569568428171
-0.2476000000000001,-0.09614377993882789
-0.2486000000000001,-0.09604475014783734
-0.2496000000000001,-0.09597401458284409
-0.2506000000000001,-0.09590327901785084
-0.2516000000000001,-0.09573351366186703
-0.2526000000000001,-0.09559204253188053
-0.2536000000000001,-0.09550715985388863
-0.2546000000000001,-0.09543642428889539
-0.2556000000000001,-0.09530910027190752
-0.2566000000000001,-0.09521007048091697
-0.2576000000000001,-0.09509689357692777
-0.2586000000000001,-0.09501201089893586
-0.2596000000000001,-0.09494127533394262
-0.2606000000000001,-0.09479980420395612
-0.2616000000000001,-0.09468662729996691
-0.2626000000000001,-0.09457345039597771
-0.2636000000000001,-0.09450271483098445
-0.2646000000000001,-0.09443197926599119
-0.2656000000000001,-0.09433294947500065
-0.2666000000000001,-0.0942056254580128
-0.2676000000000001,-0.09409244855402359
-0.2686000000000001,-0.09402171298903034
-0.2696000000000001,-0.09396512453703573
-0.2706000000000001,-0.09385194763304654
-0.2716000000000001,-0.09371047650306003
-0.2726000000000001,-0.09362559382506812
-0.2736000000000001,-0.09354071114707624
-0.2746000000000001,-0.09349826980808028
-0.2756000000000001,-0.09339924001708971
-0.2766000000000001,-0.09325776888710322
-0.2776000000000001,-0.09317288620911131
-0.2786000000000001,-0.09311629775711672
-0.2796000000000001,-0.09303141507912481
-0.2806000000000001,-0.0929465324011329
-0.28160000000000013,-0.09283335549714371
-0.28260000000000013,-0.0927484728191518
-0.28360000000000013,-0.09266359014115991
-0.2846,-0.09262114880216396
-0.2856,-0.0925221190111734
-0.2866,-0.09239479499418554
-0.2876,-0.09230991231619365
-0.2886,-0.09225332386419903
-0.2896,-0.09221088252520308
-0.2906,-0.09211185273421253
-0.2916,-0.09199867583022334
-0.2926,-0.09189964603923279
-0.2936,-0.09187135181323548
-0.29460000000000003,-0.09182891047423952
-0.29560000000000003,-0.09171573357025031
-0.29660000000000003,-0.09163085089225843
-0.29760000000000003,-0.09154596821426653
-0.29860000000000003,-0.09148937976227192
-0.29960000000000003,-0.09147523264927326
-0.30060000000000003,-0.09139034997128137
-0.30160000000000003,-0.09129132018029082
-0.30260000000000004,-0.09119229038930025
-0.30360000000000004,-0.09116399616330297
-0.30460000000000004,-0.091121554824307
-0.30560000000000004,-0.09102252503331647
-0.30660000000000004,-0.09093764235532456
-0.30760000000000004,-0.09086690679033131
-0.30860000000000004,-0.09082446545133536
-0.30960000000000004,-0.09079617122533806
-0.31060000000000004,-0.09071128854734616
-0.31160000000000004,-0.09061225875635559
-0.31260000000000004,-0.090555670304361
-0.31360000000000005,-0.09051322896536505
-0.31460000000000005,-0.09048493473936775
-0.31560000000000005,-0.09042834628737315
-0.31660000000000005,-0.0903293164963826
-0.31760000000000005,-0.09027272804438799
-0.31860000000000005,-0.09024443381839069
-0.31960000000000005,-0.09024443381839069
-0.32060000000000005,-0.09014540402740015
-0.32160000000000005,-0.09006052134940823
-0.32260000000000005,-0.08998978578441498
-0.32360000000000005,-0.08998978578441498
-0.32460000000000006,-0.08994734444541903
-0.32560000000000006,-0.08990490310642309
-0.32660000000000006,-0.08982002042843118
-0.32760000000000006,-0.08973513775043927
-0.32860000000000006,-0.08972099063744063
-0.32960000000000006,-0.08969269641144333
-0.33060000000000006,-0.08965025507244738
-0.33160000000000006,-0.08957951950745412
-0.33260000000000006,-0.08950878394246087
-0.33360000000000006,-0.08949463682946222
-0.33460000000000006,-0.08948048971646357
-0.33560000000000006,-0.08940975415147032
-0.33660000000000007,-0.08936731281247437
-0.33760000000000007,-0.08929657724748112
-0.33860000000000007,-0.08928243013448246
-0.33960000000000007,-0.08926828302148382
-0.34060000000000007,-0.08921169456948921
-0.34160000000000007,-0.08915510611749461
-0.34260000000000007,-0.08908437055250136
-0.34360000000000007,-0.0890985176655
-0.3446000000000001,-0.0890985176655
-0.3456000000000001,-0.08902778210050676
-0.3466000000000001,-0.0889570465355135
-0.34759999999999996,-0.08892875230951619
-0.3486000000000001,-0.08891460519651756
-0.34959999999999997,-0.08891460519651756
-0.3506000000000001,-0.08884386963152431
-0.35159999999999997,-0.08878728117952969
-0.3526000000000001,-0.0887589869535324
-0.35359999999999997,-0.0887589869535324
-0.3546000000000001,-0.08874483984053375
-0.35559999999999997,-0.0887023985015378
-0.3566000000000001,-0.0886458100495432
-0.3576,-0.08861751582354589
-0.3586000000000001,-0.08861751582354589
-0.3596,-0.08863166293654455
-0.3606000000000001,-0.0885609273715513
-0.3616,-0.08851848603255535
-0.3626000000000001,-0.08847604469355938
-0.3636,-0.08849019180655805
-0.3646000000000001,-0.0885043389195567
-0.3656,-0.08846189758056075
-0.3666000000000001,-0.08840530912856613
-0.3676,-0.08836286778957018
-0.3686000000000001,-0.08837701490256884
-0.3696,-0.08837701490256884
-0.3706000000000001,-0.08836286778957018
-0.3716,-0.08833457356357288
-0.3726000000000001,-0.08827798511157829
-0.3736,-0.08827798511157829
-0.3746000000000001,-0.0883062793375756
-0.3756,-0.08827798511157829
-0.3766000000000001,-0.08823554377258234
-0.3776,-0.08820724954658503
-0.3786000000000001,-0.08823554377258234
-0.3796,-0.08822139665958369
-0.3806000000000001,-0.08817895532058774
-0.3816,-0.08815066109459044
-0.3826000000000001,-0.08812236686859314
-0.3836,-0.08813651398159178
-0.3846000000000001,-0.08816480820758908
-0.3856,-0.08812236686859314
-0.3866000000000001,-0.08809407264259583
-0.3876,-0.08807992552959719
-0.3886000000000001,-0.08809407264259583
-0.3896,-0.08812236686859314
-0.3906000000000001,-0.08809407264259583
-0.3916,-0.08805163130359987
-0.3926000000000001,-0.08802333707760258
-0.3936,-0.08805163130359987
-0.3946000000000001,-0.08806577841659853
-0.3956,-0.08805163130359987
-0.3966000000000001,-0.08800918996460394
-0.3976,-0.08800918996460394
-0.3986000000000001,-0.08802333707760258
-0.3996,-0.08803748419060124
-0.4006000000000001,-0.08800918996460394
-0.4016,-0.08798089573860662
-0.4026000000000001,-0.08795260151260934
-0.4036,-0.08798089573860662
-0.4046000000000001,-0.08802333707760258
-0.4056,-0.08798089573860662
-0.40660000000000013,-0.08796674862560798
-0.4076,-0.08795260151260934
-0.40860000000000013,-0.08800918996460394
-0.4096,-0.08800918996460394
-0.41060000000000013,-0.08798089573860662
-0.4116,-0.08798089573860662
-0.41260000000000013,-0.08795260151260934
-0.4136,-0.08798089573860662
-0.41460000000000014,-0.08800918996460394
-0.4156,-0.08799504285160528
-0.41660000000000014,-0.08798089573860662
-0.4176,-0.08796674862560798
-0.41860000000000014,-0.08799504285160528
-0.41960000000000003,-0.08803748419060124
-0.42060000000000014,-0.08799504285160528
-0.42160000000000003,-0.08799504285160528
-0.42260000000000014,-0.08802333707760258
-0.42360000000000003,-0.08803748419060124
-0.42460000000000014,-0.08805163130359987
-0.42560000000000003,-0.08803748419060124
-0.42660000000000015,-0.08805163130359987
-0.42760000000000004,-0.08803748419060124
-0.42860000000000015,-0.08806577841659853
-0.42960000000000004,-0.08810821975559449
-0.43060000000000015,-0.08807992552959719
-0.43160000000000004,-0.08805163130359987
-0.43260000000000015,-0.08806577841659853
-0.43360000000000004,-0.08810821975559449
-0.43460000000000015,-0.08813651398159178
-0.43560000000000004,-0.08813651398159178
-0.43660000000000015,-0.08810821975559449
