Potential V vs RHE, Current mA cm-2
0.013299999999999867,2.0980168576998492
0.012299999999999978,1.0207142028526242
0.011299999999999866,0.3050117562509019
0.010299999999999976,-0.24884771764625993
0.009299999999999864,-0.7148536198218031
0.008299999999999974,-1.0693802715679812
0.007299999999999862,-1.344258677131758
0.006299999999999972,-1.587306078448571
0.00529999999999986,-1.822148154226167
0.0042999999999999705,-2.051331384804303
0.0032999999999998586,-2.235243853786758
0.0022999999999999687,-2.389447385472047
0.0012999999999998568,-2.533747938058281
0.00029999999999996696,-2.689366181043435
-0.000700000000000145,-2.8492285579281837
-0.0017000000000000348,-2.9822114201154974
-0.0027000000000001467,-3.082655922405915
-0.0037000000000000366,-3.1845151359961976
-0.0047000000000001485,-3.3005214625851305
-0.005700000000000038,-3.4236013456733887
-0.00670000000000015,-3.5268752705635364
-0.00770000000000004,-3.5990255468566534
-0.008700000000000152,-3.681078802248825
-0.009700000000000042,-3.780108593239378
-0.010700000000000154,-3.901773765027771
-0.011700000000000044,-3.995144710818863
-0.012700000000000156,-4.05314787411333
-0.013700000000000045,-4.109736326107932
-0.014700000000000157,-4.20452198319889
-0.015700000000000047,-4.289404661190791
-0.01670000000000016,-4.370043205283098
-0.01770000000000005,-4.42380223467797
-0.01870000000000016,-4.470487707573516
-0.01970000000000005,-4.553955674265553
-0.020700000000000163,-4.64308248615705
-0.021700000000000053,-4.715232762450168
-0.022700000000000164,-4.767577080545174
-0.023700000000000054,-4.798700729142205
-0.024700000000000166,-4.869436294135457
-0.025700000000000056,-4.955733683427223
-0.026700000000000168,-5.01939569192115
-0.027700000000000058,-5.060422319617237
-0.02870000000000017,-5.100034236013457
-0.02970000000000006,-5.162281533207518
-0.03070000000000017,-5.2457494998995555
-0.03170000000000006,-5.300923240594293
-0.03270000000000017,-5.3306321778914585
-0.03370000000000006,-5.365999960388084
-0.034700000000000175,-5.419758989782956
-0.035700000000000065,-5.504641667774858
-0.03670000000000018,-5.5598154084695945
-0.03770000000000007,-5.585280211867165
-0.03870000000000018,-5.6192332830639256
-0.03970000000000007,-5.6715776011589325
-0.04070000000000018,-5.740898454852318
-0.04170000000000007,-5.788998639047731
-0.04270000000000018,-5.805975174646111
-0.04370000000000007,-5.827195844144086
-0.044700000000000184,-5.873881317039633
-0.045700000000000074,-5.9347139029338285
-0.046700000000000186,-5.9884729323287
-0.047700000000000076,-6.001205334027486
-0.04870000000000019,-6.016767158326001
-0.04970000000000008,-6.062037919921682
-0.05070000000000019,-6.114382238016689
-0.05170000000000008,-6.169555978711425
-0.05270000000000019,-6.182288380410211
-0.05370000000000008,-6.192191359509266
-0.05470000000000019,-6.233217987205351
-0.05570000000000008,-6.286977016600223
-0.056700000000000195,-6.31951537649712
-0.057700000000000085,-6.326588932996443
-0.058700000000000196,-6.330833066896039
-0.059700000000000086,-6.378933251091451
-0.0607000000000002,-6.436936414385917
-0.06170000000000009,-6.476548330782138
-0.0627000000000002,-6.499183711579978
-0.06370000000000009,-6.499183711579978
-0.0647000000000002,-6.533136782776739
-0.06570000000000009,-6.579822255672285
-0.0667000000000002,-6.599628213870396
-0.0677000000000001,-6.603872347769991
-0.0687000000000002,-6.605287059069856
-0.0697000000000001,-6.626507728567832
-0.07070000000000021,-6.673193201463377
-0.0717000000000001,-6.698658004860949
-0.07270000000000021,-6.702902138760544
-0.0737000000000001,-6.711390406559734
-0.07470000000000021,-6.73261107605771
-0.0757000000000001,-6.7877848167524455
-0.07670000000000021,-6.807590774950556
-0.0777000000000001,-6.803346641050961
-0.07870000000000021,-6.803346641050961
-0.0797000000000001,-6.817493754049612
-0.08070000000000022,-6.861349804345428
-0.0817000000000001,-6.889644030342729
-0.08270000000000022,-6.879741051243673
-0.08370000000000011,-6.879741051243673
-0.08470000000000022,-6.906620565941108
-0.08570000000000011,-6.94623248233733
-0.08670000000000022,-6.973111997034766
-0.08770000000000011,-6.966038440535441
-0.08870000000000022,-6.9646237292355755
-0.08970000000000011,-6.98584439873355
-0.09070000000000022,-7.016968047330582
-0.09170000000000011,-7.043847562028017
-0.09270000000000023,-7.0367740055286925
-0.09370000000000012,-7.048091695927613
-0.09470000000000023,-7.0565799637268025
-0.09570000000000012,-7.093362457523294
-0.09670000000000023,-7.125900817420191
-0.09770000000000012,-7.140047930418839
-0.09870000000000023,-7.12873024001992
-0.09970000000000012,-7.137218507819109
-0.10070000000000023,-7.174001001615601
-0.10170000000000012,-7.190977537213982
-0.10270000000000024,-7.193806959813711
-0.10370000000000013,-7.178245135515196
-0.10470000000000024,-7.200880516313037
-0.10570000000000013,-7.247565989208583
-0.10670000000000024,-7.277274926505749
-0.10770000000000013,-7.290007328204534
-0.10870000000000024,-7.290007328204534
-0.10970000000000013,-7.305569152503049
-0.11070000000000024,-7.349425202798865
-0.11170000000000013,-7.35649875929819
-0.11270000000000002,-7.346595780199135
-0.11370000000000013,-7.340936934999675
-0.11470000000000002,-7.35366933669846
-0.11570000000000014,-7.401769520893872
-0.11670000000000003,-7.430063746891172
-0.11770000000000014,-7.439966725990228
-0.11870000000000003,-7.439966725990228
-0.11970000000000014,-7.455528550288744
-0.12070000000000003,-7.49655517798483
-0.12170000000000014,-7.517775847482805
-0.12270000000000003,-7.51919055878267
-0.12370000000000014,-7.517775847482805
-0.12470000000000003,-7.531922960481456
-0.12570000000000014,-7.564461320378352
-0.12670000000000003,-7.595584968975381
-0.12770000000000015,-7.591340835075788
-0.12870000000000004,-7.585681989876327
-0.12970000000000015,-7.609732081974033
-0.13070000000000004,-7.650758709670118
-0.13170000000000015,-7.680467646967284
-0.13270000000000004,-7.677638224367555
-0.13370000000000015,-7.671979379168095
-0.13470000000000004,-7.69037062606634
-0.13570000000000015,-7.71017658426445
-0.13670000000000004,-7.744129655461211
-0.13770000000000016,-7.7512032119605365
-0.13870000000000005,-7.7328119650622895
-0.13970000000000016,-7.755447345860131
-0.14070000000000005,-7.804962241355407
-0.14170000000000016,-7.840330023852035
-0.14270000000000005,-7.845988869051494
-0.14370000000000016,-7.829012333453114
-0.14470000000000005,-7.841744735151897
-0.14570000000000016,-7.868624249849334
-0.14670000000000005,-7.871453672449064
-0.14770000000000016,-7.8445741577516275
-0.14870000000000005,-7.819109354354057
-0.14970000000000017,-7.840330023852035
-0.15070000000000006,-7.894089053246905
-0.15170000000000017,-7.9153097227448805
-0.15270000000000006,-7.930871547043396
-0.15370000000000017,-7.929456835743531
-0.15470000000000006,-7.942189237442316
-0.15570000000000017,-7.964824618240158
-0.15670000000000006,-7.971898174739481
-0.15770000000000017,-7.961995195640427
-0.15870000000000006,-7.9549216391411015
-0.15970000000000018,-7.966239329540022
-0.16070000000000007,-8.008680668535973
-0.16170000000000018,-8.035560183233407
-0.16270000000000007,-8.027071915434218
-0.16370000000000018,-8.019998358934892
-0.16470000000000007,-8.029901338033948
-0.16570000000000018,-8.034145471933543
-0.16670000000000007,-8.055366141431518
-0.16770000000000018,-8.042633739732734
-0.16870000000000007,-8.035560183233407
-0.16970000000000018,-8.059610275331114
-0.17070000000000007,-8.082245656128954
-0.17170000000000019,-8.102051614327065
-0.17270000000000008,-8.10346632562693
-0.1737000000000002,-8.07800152222936
-0.17470000000000008,-8.08366036742882
-0.1757000000000002,-8.110539882126256
-0.17670000000000008,-8.124686995124907
-0.1777000000000002,-8.121857572525176
-0.17870000000000008,-8.104881036926795
-0.1797000000000002,-8.124686995124907
-0.18070000000000008,-8.150151798522476
-0.1817000000000002,-8.168543045420723
-0.18270000000000008,-8.169957756720587
-0.1837000000000002,-8.158640066321666
-0.1847000000000001,-8.17420189062018
-0.1857000000000002,-8.210984384416673
-0.1867000000000001,-8.230790342614783
-0.1877000000000002,-8.227960920015054
-0.1887000000000001,-8.208154961816943
-0.1897000000000002,-8.198251982717888
-0.1907000000000001,-8.230790342614783
-0.1917000000000001,-8.24918158951303
-0.19269999999999998,-8.246352166913299
-0.1937000000000001,-8.236449187814243
-0.19469999999999998,-8.229375631314918
-0.1957000000000001,-8.263328702511679
-0.19669999999999999,-8.290208217209116
-0.1977000000000001,-8.287378794609385
-0.1987,-8.26898754771114
-0.1997000000000001,-8.267572836411274
-0.2007,-8.315673020606686
-0.2017000000000001,-8.358114359602638
-0.2027,-8.358114359602638
-0.2037000000000001,-8.325575999705741
-0.2047,-8.325575999705741
-0.2057000000000001,-8.349626091803447
-0.2067,-8.390652719499533
-0.2077000000000001,-8.401970409898452
-0.2087,-8.403385121198317
-0.2097000000000001,-8.428849924595887
-0.2107,-8.45431472799346
-0.2117000000000001,-8.49392664438968
-0.2127,-8.48826779919022
-0.2137000000000001,-8.478364820091164
-0.2147,-8.506659046088465
-0.2157000000000001,-8.571735765882257
-0.2167,-8.598615280579693
-0.21770000000000012,-8.602859414479289
-0.2187,-8.592956435380232
-0.21970000000000012,-8.62549479527713
-0.2207,-8.66793613427308
-0.22170000000000012,-8.699059782870112
-0.2227,-8.7075480506693
-0.22370000000000012,-8.703303916769705
-0.2247,-8.734427565366737
-0.22570000000000012,-8.781113038262282
-0.2267,-8.820724954658504
-0.22770000000000012,-8.849019180655803
-0.22870000000000001,-8.85609273715513
-0.22970000000000013,-8.885801674452297
-0.23070000000000002,-8.93531656994757
-0.23170000000000013,-8.974928486343794
-0.23270000000000002,-8.996149155841769
-0.23370000000000013,-9.01878453663961
-0.23470000000000002,-9.054152319136236
-0.23570000000000013,-9.119229038930026
-0.23670000000000002,-9.174402779624762
-0.2376999999999999,-9.194208737822873
-0.23870000000000002,-9.22391767512004
-0.2396999999999999,-9.27201785931545
-0.24070000000000003,-9.339924001708972
-0.24169999999999991,-9.414903700601819
-0.24270000000000003,-9.438953792699524
-0.24369999999999992,-9.475736286496016
-0.24470000000000003,-9.532324738490617
-0.24569999999999992,-9.598816169584273
-0.24670000000000003,-9.676625291076851
-0.24769999999999992,-9.716237207473073
-0.24870000000000003,-9.755849123869291
-0.24969999999999992,-9.826584688862544
-0.25070000000000003,-9.921370345953502
-0.2516999999999999,-10.009082446545134
-0.25270000000000004,-10.051523785541084
-0.2536999999999999,-10.101038681036362
-0.25470000000000004,-10.185921359028264
-0.2556999999999999,-10.287780572618546
-0.25670000000000004,-10.391054497508694
-0.25769999999999993,-10.473107752900868
-0.25870000000000004,-10.529696204895469
-0.25969999999999993,-10.630140707185886
-0.26070000000000004,-10.75746472417374
-0.26169999999999993,-10.870641628162943
-0.26270000000000004,-10.972500841753224
-0.26369999999999993,-11.063042364944588
-0.26470000000000005,-11.18470753673298
-0.26569999999999994,-11.333252223218809
-0.26670000000000005,-11.500188156602883
-0.26769999999999994,-11.647318131788847
-0.26870000000000005,-11.763324458377781
-0.26969999999999994,-11.899136743164824
-0.27070000000000005,-12.084463923447142
-0.27169999999999994,-12.257058702030678
-0.27270000000000005,-12.431068191914079
-0.27369999999999994,-12.589515857498961
-0.27470000000000006,-12.790404862079797
-0.27569999999999995,-13.042223473455774
-0.27670000000000006,-13.27706554923337
-0.27769999999999995,-13.51615175891056
-0.27870000000000006,-13.758067391187481
-0.27969999999999995,-14.045253785060085
-0.28070000000000006,-14.359319693630123
-0.28169999999999995,-14.71299751859638
-0.28270000000000006,-15.05252823056399
-0.28369999999999995,-15.4203531685289
-0.28470000000000006,-15.858913671487063
-0.28569999999999995,-16.339915513441174
-0.28670000000000007,-16.849211581392588
-0.28769999999999996,-17.358507649344002
-0.28870000000000007,-17.938539282288666
-0.28969999999999996,-18.617600706223882
-0.29070000000000007,-19.395691921149652
-0.29169999999999996,-20.230371588070028
-0.29270000000000007,-21.149933932982297
-0.29369999999999996,-22.140231842887825
-0.2947000000000001,-23.257853769781203
-0.29569999999999996,-24.488652600663784
-0.2967000000000001,-25.80433410953827
-0.29769999999999996,-27.204898296404657
-0.2987000000000001,-28.676198048264297
-0.29969999999999997,-30.274821817111786
-0.3007000000000001,-31.95832826395118
-0.30169999999999997,-33.698423162785176
-0.3027000000000001,-35.53754785260972
-0.30369999999999997,-37.376672542434264
-0.3047000000000001,-39.20165011926017
-0.30569999999999997,-41.111510374077966
-0.3067000000000001,-43.02137062889577
-0.3077,-44.90293665771627
-0.3087000000000001,-46.74206134754081
-0.3097,-48.63777448935996
-0.3107000000000001,-50.57592897017506
-0.3117,-52.41505365999961
-0.3127000000000001,-54.26832546282281
-0.3137,-56.093303039648696
-0.3147000000000001,-57.974869068469204
-0.3157,-59.7715524192978
-0.3167000000000001,-61.525794431130436
-0.3177,-63.15271242597524
-0.3187000000000001,-64.83621887281464
-0.3197,-66.59046088464727
-0.3207000000000001,-68.27396733148667
-0.3217,-69.87259110033416
-0.3227000000000001,-71.45706775618301
-0.3237,-72.97080884703858
-0.3247000000000001,-74.56943261588609
-0.3257,-76.12561504573763
-0.3267000000000001,-77.7525330405824
-0.3277,-79.36530392242857
-0.3287000000000001,-80.87904501328414
-0.3297,-82.42108033013703
-0.3307000000000001,-83.93482142099262
-0.3317,-85.44856251184822
-0.3327000000000001,-86.9057151507092
-0.3337,-88.37701490256885
-0.3347000000000001,-89.80587331543254
-0.3357,-91.19229038930027
-0.3367000000000001,-92.6918843671572
-0.3377,-94.13488989301955
-0.3387000000000001,-95.54960119288457
-0.3397,-96.8511355887604
-0.3407000000000001,-98.19511132363219
-0.3417,-99.5107928325067
-0.3427000000000001,-100.89720990637443
-0.3437,-102.14215585025565
-0.3447000000000001,-103.5568671501207
-0.3457,-105.05646112797763
-0.3467000000000001,-106.4004368628494
-0.3477,-107.631235693732
-0.3487000000000001,-108.76300473362402
-0.3497,-109.86647954751875
-0.3507000000000001,-111.05483703940537
-0.3517,-112.20075319229606
-0.3527000000000001,-113.3325222321881
-0.3537,-114.54917395007203
-0.3547000000000001,-115.77997278095461
-0.3557,-117.13809562882503
-0.35670000000000013,-118.15668776472786
-0.3577,-119.1186914486361
-0.35870000000000013,-120.30704894052272
-0.3597,-121.33978818942418
-0.36070000000000013,-122.51399856831216
-0.3617,-123.82968007718667
-0.3626999999999999,-125.01803756907329
-0.3637,-126.14980660896532
-0.3646999999999999,-127.16839874486816
-0.3657,-128.21528510676828
-0.3666999999999999,-129.5168195026441
-0.3677,-130.7476183335267
-0.3686999999999999,-132.03500561640385
-0.36970000000000003,-133.2233631082905
-0.3706999999999999,-134.3126908091866
-0.37170000000000003,-135.3029887190921
-0.3726999999999999,-136.7318471319558
-0.37370000000000003,-137.66555658986672
-0.3746999999999999,-138.5568247087817
-0.37570000000000003,-139.57541684468453
-0.3766999999999999,-140.6364503195833
-0.37770000000000004,-141.75407224647665
-0.3786999999999999,-142.7443701563822
-0.37970000000000004,-144.01761032626072
-0.3806999999999999,-145.29085049613926
-0.38170000000000004,-147.4129174459368
-0.38269999999999993,-149.8179266557074
-0.38370000000000004,-150.8082245656129
-0.38469999999999993,-151.5155802155454
-0.38570000000000004,-151.65705134553193
-0.38669999999999993,-150.8082245656129
-0.38570000000000004,-148.96909987578834
-0.38469999999999993,-147.1299751859638
-0.38370000000000004,-145.00790823616626
-0.38269999999999993,-143.4517258063147
-0.38170000000000004,-141.75407224647665
-0.3806999999999999,-140.28277249461703
-0.37970000000000004,-138.78317851676007
-0.3786999999999999,-137.0996720699207
-0.37770000000000004,-135.37372428408534
-0.3766999999999999,-133.83168896723245
-0.37570000000000003,-132.7423612663364
-0.3746999999999999,-130.9456779155078
-0.37370000000000003,-129.16314167767783
-0.3726999999999999,-127.60695924782631
-0.37170000000000003,-126.09321815697072
-0.3706999999999999,-124.81997798709217
-0.36970000000000003,-123.5042964782177
-0.3686999999999999,-121.87737848337291
-0.3677,-120.32119605352138
-0.3666999999999999,-118.89233764065769
-0.3657,-117.8030099397616
-0.3646999999999999,-116.16194483191815
-0.3637,-114.87455754904099
-0.3626999999999999,-113.3325222321881
-0.3617,-112.15831185330009
-0.36070000000000013,-111.22460239538917
-0.3597,-109.9655093385093
-0.35870000000000013,-108.0839433096888
-0.3577,-106.83899736580757
-0.35670000000000013,-105.29696204895468
-0.3557,-103.79736807109774
-0.3547000000000001,-102.92024706518143
-0.3537,-101.23674061834203
-0.3527000000000001,-100.37376672542435
-0.3517,-98.97320253855796
-0.3507000000000001,-97.58678546469022
-0.3497,-96.17207416482519
-0.3487000000000001,-94.88468688194801
-0.3477,-93.62559382506812
-0.3467000000000001,-92.16844118620713
-0.3457,-90.9517894683232
-0.3447000000000001,-89.70684352444198
-0.3437,-88.36286778957019
-0.3427000000000001,-87.10377473269031
-0.3417,-86.00029991879558
-0.3407000000000001,-84.8543837659049
-0.3397,-83.68017338701692
-0.3387000000000001,-82.50596300812894
-0.3377,-81.3458997422396
-0.3367000000000001,-80.15754225035298
-0.3357,-79.18139145344611
-0.3347000000000001,-77.69594458858782
-0.3337,-76.80467646967284
-0.3327000000000001,-75.64461320378352
-0.3317,-74.56943261588609
-0.3307000000000001,-73.46595780199135
-0.3297,-72.13612918011822
-0.3287000000000001,-70.94777168823158
-0.3277,-69.92917955232878
-0.3267000000000001,-68.89644030342728
-0.3257,-67.86370105452582
-0.3247000000000001,-66.94413870961354
-0.3237,-65.82651678272015
-0.3227000000000001,-64.65230640383218
-0.3217,-63.60542004193205
-0.3207000000000001,-62.74244614901438
-0.3197,-61.5965299961237
-0.3187000000000001,-60.67696765121143
-0.3177,-59.70081685430455
-0.3167000000000001,-58.75296028339497
-0.3157,-57.8333979384827
-0.3147000000000001,-56.97042404556503
-0.3137,-55.951831909662204
-0.3127000000000001,-54.919092660760725
-0.3117,-53.942941863853854
-0.3107000000000001,-52.92434972795102
-0.3097,-51.86331625305225
-0.3087000000000001,-50.83057700415076
-0.3077,-49.8261319812466
-0.3067000000000001,-48.89242252333566
-0.30569999999999997,-48.01530151741934
-0.3047000000000001,-47.067444946509774
-0.30369999999999997,-46.10544126260155
-0.3027000000000001,-45.36979138667173
-0.30169999999999997,-44.535111719751356
-0.3007000000000001,-43.53066669684718
-0.29969999999999997,-42.568663012938956
-0.2987000000000001,-41.70568912002128
-0.29769999999999996,-40.87100945310091
-0.2967000000000001,-40.06462401217784
-0.29569999999999996,-39.35726836224533
-0.2947000000000001,-38.593324260318205
-0.29369999999999996,-37.81523304539243
-0.29270000000000007,-36.89567070048016
-0.29169999999999996,-36.16002082455034
-0.29070000000000007,-35.339488270628614
-0.28969999999999996,-34.56139705570285
-0.28870000000000007,-33.76915872777842
-0.28769999999999996,-33.09009730384321
-0.28670000000000007,-32.49591855789989
-0.28569999999999995,-31.57635621298762
-0.28470000000000006,-30.741676546067247
-0.28369999999999995,-30.317263156107735
-0.28270000000000006,-29.39770081119546
-0.28169999999999995,-28.718639387260247
-0.28070000000000006,-27.997136624329073
-0.27969999999999995,-27.233192522401957
-0.27870000000000006,-26.469248420474838
-0.27769999999999995,-25.761892770542314
-0.27670000000000006,-25.06868423360845
-0.27569999999999995,-24.36132858367593
-0.27470000000000006,-23.795444063729917
-0.27369999999999994,-23.187118204787954
-0.27270000000000005,-22.592939458844636
-0.27169999999999994,-21.95631937390537
-0.27070000000000005,-21.30555217596745
-0.26969999999999994,-20.668932091028186
-0.26870000000000005,-20.01816489309027
-0.26769999999999994,-19.409839034148305
-0.26670000000000005,-18.91469007919554
-0.26569999999999994,-18.377099785246827
-0.26470000000000005,-17.910245056291366
