Dec. 18, 2024   02:33:52
Linear Sweep Voltammetry
File: c:/users/guazh/data/banditlqround7_x0exp667_r5/2024-12-16-exp686\post-regen1-2024-12-18t02_30_38-lsvinphos\post-regen1_lsv_50mvs_efin_-2300mv.bin
Data Source:  Experiment
Instrument Model:  CHI760E
Header: LSV ran at 50 mVs with Efin at -2300mV
Note: 

Init E (V) = -0.6
Final E (V) = -2.3
Scan Rate (V/s) = 0.05
Sample Interval (V) = 0.001
Quiet Time (sec) = 2
Sensitivity (A/V) = 1e-4
Comp R (ohm) = 8.5

Results:

Channel 1:
Ep = -2.002V
ip = 8.398e-4A
Ah = 1.328e-3C

Potential/V, Current/A

-0.600, 1.978e-6
-0.601, 2.068e-6
-0.602, 2.103e-6
-0.603, 2.126e-6
-0.604, 2.149e-6
-0.605, 2.171e-6
-0.606, 2.197e-6
-0.607, 2.219e-6
-0.608, 2.239e-6
-0.609, 2.259e-6
-0.610, 2.281e-6
-0.611, 2.306e-6
-0.612, 2.329e-6
-0.613, 2.348e-6
-0.614, 2.370e-6
-0.615, 2.394e-6
-0.616, 2.419e-6
-0.617, 2.442e-6
-0.618, 2.460e-6
-0.619, 2.481e-6
-0.620, 2.505e-6
-0.621, 2.530e-6
-0.622, 2.555e-6
-0.623, 2.574e-6
-0.624, 2.595e-6
-0.625, 2.621e-6
-0.626, 2.647e-6
-0.627, 2.671e-6
-0.628, 2.693e-6
-0.629, 2.714e-6
-0.630, 2.738e-6
-0.631, 2.765e-6
-0.632, 2.789e-6
-0.633, 2.813e-6
-0.634, 2.835e-6
-0.635, 2.859e-6
-0.636, 2.888e-6
-0.637, 2.912e-6
-0.638, 2.937e-6
-0.639, 2.959e-6
-0.640, 2.987e-6
-0.641, 3.014e-6
-0.642, 3.039e-6
-0.643, 3.064e-6
-0.644, 3.088e-6
-0.645, 3.114e-6
-0.646, 3.144e-6
-0.647, 3.171e-6
-0.648, 3.196e-6
-0.649, 3.219e-6
-0.650, 3.246e-6
-0.651, 3.275e-6
-0.652, 3.303e-6
-0.653, 3.329e-6
-0.654, 3.355e-6
-0.655, 3.383e-6
-0.656, 3.414e-6
-0.657, 3.443e-6
-0.658, 3.467e-6
-0.659, 3.494e-6
-0.660, 3.522e-6
-0.661, 3.552e-6
-0.662, 3.582e-6
-0.663, 3.608e-6
-0.664, 3.635e-6
-0.665, 3.666e-6
-0.666, 3.700e-6
-0.667, 3.727e-6
-0.668, 3.754e-6
-0.669, 3.782e-6
-0.670, 3.812e-6
-0.671, 3.845e-6
-0.672, 3.877e-6
-0.673, 3.904e-6
-0.674, 3.931e-6
-0.675, 3.960e-6
-0.676, 3.993e-6
-0.677, 4.024e-6
-0.678, 4.053e-6
-0.679, 4.082e-6
-0.680, 4.112e-6
-0.681, 4.146e-6
-0.682, 4.176e-6
-0.683, 4.203e-6
-0.684, 4.231e-6
-0.685, 4.263e-6
-0.686, 4.297e-6
-0.687, 4.328e-6
-0.688, 4.356e-6
-0.689, 4.385e-6
-0.690, 4.417e-6
-0.691, 4.453e-6
-0.692, 4.485e-6
-0.693, 4.515e-6
-0.694, 4.545e-6
-0.695, 4.578e-6
-0.696, 4.612e-6
-0.697, 4.645e-6
-0.698, 4.675e-6
-0.699, 4.705e-6
-0.700, 4.738e-6
-0.701, 4.771e-6
-0.702, 4.804e-6
-0.703, 4.834e-6
-0.704, 4.865e-6
-0.705, 4.896e-6
-0.706, 4.930e-6
-0.707, 4.963e-6
-0.708, 4.992e-6
-0.709, 5.023e-6
-0.710, 5.055e-6
-0.711, 5.091e-6
-0.712, 5.123e-6
-0.713, 5.153e-6
-0.714, 5.181e-6
-0.715, 5.213e-6
-0.716, 5.248e-6
-0.717, 5.282e-6
-0.718, 5.311e-6
-0.719, 5.340e-6
-0.720, 5.371e-6
-0.721, 5.406e-6
-0.722, 5.436e-6
-0.723, 5.466e-6
-0.724, 5.496e-6
-0.725, 5.526e-6
-0.726, 5.560e-6
-0.727, 5.592e-6
-0.728, 5.619e-6
-0.729, 5.649e-6
-0.730, 5.678e-6
-0.731, 5.711e-6
-0.732, 5.742e-6
-0.733, 5.769e-6
-0.734, 5.797e-6
-0.735, 5.827e-6
-0.736, 5.860e-6
-0.737, 5.889e-6
-0.738, 5.912e-6
-0.739, 5.938e-6
-0.740, 5.964e-6
-0.741, 5.995e-6
-0.742, 6.026e-6
-0.743, 6.050e-6
-0.744, 6.076e-6
-0.745, 6.103e-6
-0.746, 6.132e-6
-0.747, 6.159e-6
-0.748, 6.181e-6
-0.749, 6.204e-6
-0.750, 6.228e-6
-0.751, 6.254e-6
-0.752, 6.281e-6
-0.753, 6.304e-6
-0.754, 6.326e-6
-0.755, 6.350e-6
-0.756, 6.379e-6
-0.757, 6.403e-6
-0.758, 6.424e-6
-0.759, 6.444e-6
-0.760, 6.466e-6
-0.761, 6.491e-6
-0.762, 6.513e-6
-0.763, 6.532e-6
-0.764, 6.551e-6
-0.765, 6.571e-6
-0.766, 6.595e-6
-0.767, 6.616e-6
-0.768, 6.634e-6
-0.769, 6.654e-6
-0.770, 6.670e-6
-0.771, 6.691e-6
-0.772, 6.710e-6
-0.773, 6.724e-6
-0.774, 6.740e-6
-0.775, 6.756e-6
-0.776, 6.775e-6
-0.777, 6.794e-6
-0.778, 6.806e-6
-0.779, 6.819e-6
-0.780, 6.834e-6
-0.781, 6.852e-6
-0.782, 6.867e-6
-0.783, 6.877e-6
-0.784, 6.888e-6
-0.785, 6.899e-6
-0.786, 6.914e-6
-0.787, 6.928e-6
-0.788, 6.937e-6
-0.789, 6.945e-6
-0.790, 6.956e-6
-0.791, 6.968e-6
-0.792, 6.979e-6
-0.793, 6.987e-6
-0.794, 6.994e-6
-0.795, 7.001e-6
-0.796, 7.012e-6
-0.797, 7.021e-6
-0.798, 7.027e-6
-0.799, 7.031e-6
-0.800, 7.037e-6
-0.801, 7.046e-6
-0.802, 7.053e-6
-0.803, 7.056e-6
-0.804, 7.059e-6
-0.805, 7.063e-6
-0.806, 7.071e-6
-0.807, 7.076e-6
-0.808, 7.078e-6
-0.809, 7.079e-6
-0.810, 7.079e-6
-0.811, 7.086e-6
-0.812, 7.091e-6
-0.813, 7.090e-6
-0.814, 7.089e-6
-0.815, 7.088e-6
-0.816, 7.092e-6
-0.817, 7.095e-6
-0.818, 7.092e-6
-0.819, 7.092e-6
-0.820, 7.093e-6
-0.821, 7.093e-6
-0.822, 7.093e-6
-0.823, 7.089e-6
-0.824, 7.086e-6
-0.825, 7.082e-6
-0.826, 7.082e-6
-0.827, 7.083e-6
-0.828, 7.077e-6
-0.829, 7.070e-6
-0.830, 7.065e-6
-0.831, 7.064e-6
-0.832, 7.063e-6
-0.833, 7.057e-6
-0.834, 7.049e-6
-0.835, 7.044e-6
-0.836, 7.042e-6
-0.837, 7.039e-6
-0.838, 7.032e-6
-0.839, 7.024e-6
-0.840, 7.018e-6
-0.841, 7.015e-6
-0.842, 7.011e-6
-0.843, 7.001e-6
-0.844, 6.995e-6
-0.845, 6.985e-6
-0.846, 6.982e-6
-0.847, 6.977e-6
-0.848, 6.968e-6
-0.849, 6.959e-6
-0.850, 6.949e-6
-0.851, 6.945e-6
-0.852, 6.940e-6
-0.853, 6.930e-6
-0.854, 6.919e-6
-0.855, 6.910e-6
-0.856, 6.905e-6
-0.857, 6.900e-6
-0.858, 6.889e-6
-0.859, 6.880e-6
-0.860, 6.871e-6
-0.861, 6.864e-6
-0.862, 6.858e-6
-0.863, 6.847e-6
-0.864, 6.836e-6
-0.865, 6.826e-6
-0.866, 6.819e-6
-0.867, 6.813e-6
-0.868, 6.801e-6
-0.869, 6.789e-6
-0.870, 6.781e-6
-0.871, 6.774e-6
-0.872, 6.767e-6
-0.873, 6.755e-6
-0.874, 6.743e-6
-0.875, 6.732e-6
-0.876, 6.726e-6
-0.877, 6.718e-6
-0.878, 6.707e-6
-0.879, 6.695e-6
-0.880, 6.685e-6
-0.881, 6.678e-6
-0.882, 6.671e-6
-0.883, 6.660e-6
-0.884, 6.648e-6
-0.885, 6.636e-6
-0.886, 6.630e-6
-0.887, 6.622e-6
-0.888, 6.610e-6
-0.889, 6.600e-6
-0.890, 6.588e-6
-0.891, 6.582e-6
-0.892, 6.574e-6
-0.893, 6.562e-6
-0.894, 6.550e-6
-0.895, 6.539e-6
-0.896, 6.533e-6
-0.897, 6.527e-6
-0.898, 6.515e-6
-0.899, 6.503e-6
-0.900, 6.493e-6
-0.901, 6.486e-6
-0.902, 6.479e-6
-0.903, 6.468e-6
-0.904, 6.457e-6
-0.905, 6.448e-6
-0.906, 6.440e-6
-0.907, 6.435e-6
-0.908, 6.424e-6
-0.909, 6.412e-6
-0.910, 6.403e-6
-0.911, 6.396e-6
-0.912, 6.390e-6
-0.913, 6.380e-6
-0.914, 6.366e-6
-0.915, 6.357e-6
-0.916, 6.353e-6
-0.917, 6.346e-6
-0.918, 6.335e-6
-0.919, 6.324e-6
-0.920, 6.315e-6
-0.921, 6.309e-6
-0.922, 6.304e-6
-0.923, 6.294e-6
-0.924, 6.282e-6
-0.925, 6.272e-6
-0.926, 6.268e-6
-0.927, 6.262e-6
-0.928, 6.252e-6
-0.929, 6.243e-6
-0.930, 6.234e-6
-0.931, 6.228e-6
-0.932, 6.224e-6
-0.933, 6.214e-6
-0.934, 6.205e-6
-0.935, 6.197e-6
-0.936, 6.192e-6
-0.937, 6.188e-6
-0.938, 6.178e-6
-0.939, 6.169e-6
-0.940, 6.162e-6
-0.941, 6.157e-6
-0.942, 6.153e-6
-0.943, 6.144e-6
-0.944, 6.134e-6
-0.945, 6.126e-6
-0.946, 6.121e-6
-0.947, 6.118e-6
-0.948, 6.110e-6
-0.949, 6.100e-6
-0.950, 6.092e-6
-0.951, 6.087e-6
-0.952, 6.085e-6
-0.953, 6.076e-6
-0.954, 6.066e-6
-0.955, 6.058e-6
-0.956, 6.054e-6
-0.957, 6.050e-6
-0.958, 6.043e-6
-0.959, 6.034e-6
-0.960, 6.027e-6
-0.961, 6.024e-6
-0.962, 6.019e-6
-0.963, 6.012e-6
-0.964, 6.003e-6
-0.965, 5.996e-6
-0.966, 5.993e-6
-0.967, 5.990e-6
-0.968, 5.983e-6
-0.969, 5.974e-6
-0.970, 5.966e-6
-0.971, 5.964e-6
-0.972, 5.961e-6
-0.973, 5.957e-6
-0.974, 5.949e-6
-0.975, 5.943e-6
-0.976, 5.940e-6
-0.977, 5.936e-6
-0.978, 5.930e-6
-0.979, 5.923e-6
-0.980, 5.917e-6
-0.981, 5.915e-6
-0.982, 5.912e-6
-0.983, 5.906e-6
-0.984, 5.899e-6
-0.985, 5.894e-6
-0.986, 5.892e-6
-0.987, 5.890e-6
-0.988, 5.884e-6
-0.989, 5.876e-6
-0.990, 5.870e-6
-0.991, 5.867e-6
-0.992, 5.865e-6
-0.993, 5.860e-6
-0.994, 5.853e-6
-0.995, 5.849e-6
-0.996, 5.846e-6
-0.997, 5.843e-6
-0.998, 5.838e-6
-0.999, 5.832e-6
-1.000, 5.825e-6
-1.001, 5.824e-6
-1.002, 5.822e-6
-1.003, 5.817e-6
-1.004, 5.810e-6
-1.005, 5.804e-6
-1.006, 5.803e-6
-1.007, 5.800e-6
-1.008, 5.796e-6
-1.009, 5.790e-6
-1.010, 5.784e-6
-1.011, 5.783e-6
-1.012, 5.783e-6
-1.013, 5.776e-6
-1.014, 5.771e-6
-1.015, 5.765e-6
-1.016, 5.765e-6
-1.017, 5.763e-6
-1.018, 5.757e-6
-1.019, 5.753e-6
-1.020, 5.747e-6
-1.021, 5.745e-6
-1.022, 5.745e-6
-1.023, 5.740e-6
-1.024, 5.735e-6
-1.025, 5.731e-6
-1.026, 5.728e-6
-1.027, 5.728e-6
-1.028, 5.723e-6
-1.029, 5.716e-6
-1.030, 5.714e-6
-1.031, 5.712e-6
-1.032, 5.712e-6
-1.033, 5.709e-6
-1.034, 5.702e-6
-1.035, 5.698e-6
-1.036, 5.696e-6
-1.037, 5.697e-6
-1.038, 5.692e-6
-1.039, 5.686e-6
-1.040, 5.683e-6
-1.041, 5.681e-6
-1.042, 5.681e-6
-1.043, 5.679e-6
-1.044, 5.674e-6
-1.045, 5.670e-6
-1.046, 5.668e-6
-1.047, 5.667e-6
-1.048, 5.664e-6
-1.049, 5.660e-6
-1.050, 5.655e-6
-1.051, 5.655e-6
-1.052, 5.656e-6
-1.053, 5.653e-6
-1.054, 5.647e-6
-1.055, 5.643e-6
-1.056, 5.643e-6
-1.057, 5.643e-6
-1.058, 5.640e-6
-1.059, 5.636e-6
-1.060, 5.632e-6
-1.061, 5.631e-6
-1.062, 5.632e-6
-1.063, 5.628e-6
-1.064, 5.623e-6
-1.065, 5.620e-6
-1.066, 5.620e-6
-1.067, 5.621e-6
-1.068, 5.618e-6
-1.069, 5.614e-6
-1.070, 5.611e-6
-1.071, 5.610e-6
-1.072, 5.611e-6
-1.073, 5.608e-6
-1.074, 5.603e-6
-1.075, 5.601e-6
-1.076, 5.601e-6
-1.077, 5.601e-6
-1.078, 5.600e-6
-1.079, 5.594e-6
-1.080, 5.592e-6
-1.081, 5.592e-6
-1.082, 5.593e-6
-1.083, 5.590e-6
-1.084, 5.586e-6
-1.085, 5.582e-6
-1.086, 5.583e-6
-1.087, 5.584e-6
-1.088, 5.582e-6
-1.089, 5.578e-6
-1.090, 5.576e-6
-1.091, 5.575e-6
-1.092, 5.576e-6
-1.093, 5.575e-6
-1.094, 5.570e-6
-1.095, 5.567e-6
-1.096, 5.568e-6
-1.097, 5.569e-6
-1.098, 5.567e-6
-1.099, 5.563e-6
-1.100, 5.561e-6
-1.101, 5.561e-6
-1.102, 5.564e-6
-1.103, 5.562e-6
-1.104, 5.557e-6
-1.105, 5.555e-6
-1.106, 5.555e-6
-1.107, 5.558e-6
-1.108, 5.555e-6
-1.109, 5.550e-6
-1.110, 5.550e-6
-1.111, 5.549e-6
-1.112, 5.551e-6
-1.113, 5.550e-6
-1.114, 5.547e-6
-1.115, 5.545e-6
-1.116, 5.546e-6
-1.117, 5.547e-6
-1.118, 5.546e-6
-1.119, 5.542e-6
-1.120, 5.541e-6
-1.121, 5.540e-6
-1.122, 5.542e-6
-1.123, 5.541e-6
-1.124, 5.538e-6
-1.125, 5.536e-6
-1.126, 5.538e-6
-1.127, 5.539e-6
-1.128, 5.538e-6
-1.129, 5.536e-6
-1.130, 5.533e-6
-1.131, 5.533e-6
-1.132, 5.536e-6
-1.133, 5.536e-6
-1.134, 5.533e-6
-1.135, 5.529e-6
-1.136, 5.531e-6
-1.137, 5.533e-6
-1.138, 5.533e-6
-1.139, 5.530e-6
-1.140, 5.530e-6
-1.141, 5.529e-6
-1.142, 5.534e-6
-1.143, 5.532e-6
-1.144, 5.528e-6
-1.145, 5.526e-6
-1.146, 5.527e-6
-1.147, 5.531e-6
-1.148, 5.529e-6
-1.149, 5.527e-6
-1.150, 5.526e-6
-1.151, 5.527e-6
-1.152, 5.530e-6
-1.153, 5.530e-6
-1.154, 5.526e-6
-1.155, 5.525e-6
-1.156, 5.526e-6
-1.157, 5.529e-6
-1.158, 5.529e-6
-1.159, 5.526e-6
-1.160, 5.524e-6
-1.161, 5.526e-6
-1.162, 5.528e-6
-1.163, 5.529e-6
-1.164, 5.526e-6
-1.165, 5.526e-6
-1.166, 5.527e-6
-1.167, 5.530e-6
-1.168, 5.530e-6
-1.169, 5.528e-6
-1.170, 5.526e-6
-1.171, 5.527e-6
-1.172, 5.531e-6
-1.173, 5.530e-6
-1.174, 5.528e-6
-1.175, 5.527e-6
-1.176, 5.528e-6
-1.177, 5.532e-6
-1.178, 5.533e-6
-1.179, 5.530e-6
-1.180, 5.529e-6
-1.181, 5.529e-6
-1.182, 5.535e-6
-1.183, 5.534e-6
-1.184, 5.532e-6
-1.185, 5.531e-6
-1.186, 5.532e-6
-1.187, 5.536e-6
-1.188, 5.536e-6
-1.189, 5.532e-6
-1.190, 5.533e-6
-1.191, 5.535e-6
-1.192, 5.538e-6
-1.193, 5.538e-6
-1.194, 5.536e-6
-1.195, 5.535e-6
-1.196, 5.537e-6
-1.197, 5.540e-6
-1.198, 5.541e-6
-1.199, 5.539e-6
-1.200, 5.538e-6
-1.201, 5.540e-6
-1.202, 5.543e-6
-1.203, 5.545e-6
-1.204, 5.543e-6
-1.205, 5.540e-6
-1.206, 5.543e-6
-1.207, 5.547e-6
-1.208, 5.546e-6
-1.209, 5.545e-6
-1.210, 5.544e-6
-1.211, 5.545e-6
-1.212, 5.549e-6
-1.213, 5.550e-6
-1.214, 5.548e-6
-1.215, 5.547e-6
-1.216, 5.549e-6
-1.217, 5.554e-6
-1.218, 5.553e-6
-1.219, 5.552e-6
-1.220, 5.551e-6
-1.221, 5.552e-6
-1.222, 5.556e-6
-1.223, 5.556e-6
-1.224, 5.554e-6
-1.225, 5.553e-6
-1.226, 5.555e-6
-1.227, 5.559e-6
-1.228, 5.560e-6
-1.229, 5.562e-6
-1.230, 5.561e-6
-1.231, 5.561e-6
-1.232, 5.565e-6
-1.233, 5.566e-6
-1.234, 5.564e-6
-1.235, 5.564e-6
-1.236, 5.564e-6
-1.237, 5.568e-6
-1.238, 5.569e-6
-1.239, 5.568e-6
-1.240, 5.567e-6
-1.241, 5.569e-6
-1.242, 5.571e-6
-1.243, 5.573e-6
-1.244, 5.574e-6
-1.245, 5.572e-6
-1.246, 5.573e-6
-1.247, 5.577e-6
-1.248, 5.579e-6
-1.249, 5.578e-6
-1.250, 5.575e-6
-1.251, 5.577e-6
-1.252, 5.582e-6
-1.253, 5.584e-6
-1.254, 5.582e-6
-1.255, 5.582e-6
-1.256, 5.583e-6
-1.257, 5.587e-6
-1.258, 5.588e-6
-1.259, 5.586e-6
-1.260, 5.587e-6
-1.261, 5.588e-6
-1.262, 5.592e-6
-1.263, 5.593e-6
-1.264, 5.592e-6
-1.265, 5.591e-6
-1.266, 5.592e-6
-1.267, 5.598e-6
-1.268, 5.600e-6
-1.269, 5.598e-6
-1.270, 5.598e-6
-1.271, 5.599e-6
-1.272, 5.603e-6
-1.273, 5.606e-6
-1.274, 5.603e-6
-1.275, 5.603e-6
-1.276, 5.605e-6
-1.277, 5.610e-6
-1.278, 5.611e-6
-1.279, 5.610e-6
-1.280, 5.611e-6
-1.281, 5.613e-6
-1.282, 5.615e-6
-1.283, 5.619e-6
-1.284, 5.617e-6
-1.285, 5.616e-6
-1.286, 5.617e-6
-1.287, 5.624e-6
-1.288, 5.625e-6
-1.289, 5.625e-6
-1.290, 5.624e-6
-1.291, 5.625e-6
-1.292, 5.630e-6
-1.293, 5.633e-6
-1.294, 5.632e-6
-1.295, 5.630e-6
-1.296, 5.632e-6
-1.297, 5.636e-6
-1.298, 5.639e-6
-1.299, 5.639e-6
-1.300, 5.638e-6
-1.301, 5.639e-6
-1.302, 5.645e-6
-1.303, 5.647e-6
-1.304, 5.647e-6
-1.305, 5.646e-6
-1.306, 5.647e-6
-1.307, 5.653e-6
-1.308, 5.656e-6
-1.309, 5.654e-6
-1.310, 5.654e-6
-1.311, 5.657e-6
-1.312, 5.661e-6
-1.313, 5.664e-6
-1.314, 5.663e-6
-1.315, 5.664e-6
-1.316, 5.665e-6
-1.317, 5.670e-6
-1.318, 5.674e-6
-1.319, 5.674e-6
-1.320, 5.674e-6
-1.321, 5.676e-6
-1.322, 5.679e-6
-1.323, 5.684e-6
-1.324, 5.683e-6
-1.325, 5.683e-6
-1.326, 5.685e-6
-1.327, 5.690e-6
-1.328, 5.694e-6
-1.329, 5.694e-6
-1.330, 5.692e-6
-1.331, 5.695e-6
-1.332, 5.700e-6
-1.333, 5.705e-6
-1.334, 5.705e-6
-1.335, 5.704e-6
-1.336, 5.705e-6
-1.337, 5.713e-6
-1.338, 5.717e-6
-1.339, 5.715e-6
-1.340, 5.715e-6
-1.341, 5.717e-6
-1.342, 5.724e-6
-1.343, 5.727e-6
-1.344, 5.728e-6
-1.345, 5.729e-6
-1.346, 5.730e-6
-1.347, 5.737e-6
-1.348, 5.740e-6
-1.349, 5.740e-6
-1.350, 5.739e-6
-1.351, 5.742e-6
-1.352, 5.748e-6
-1.353, 5.753e-6
-1.354, 5.754e-6
-1.355, 5.753e-6
-1.356, 5.755e-6
-1.357, 5.761e-6
-1.358, 5.767e-6
-1.359, 5.765e-6
-1.360, 5.766e-6
-1.361, 5.770e-6
-1.362, 5.774e-6
-1.363, 5.779e-6
-1.364, 5.781e-6
-1.365, 5.780e-6
-1.366, 5.783e-6
-1.367, 5.788e-6
-1.368, 5.793e-6
-1.369, 5.795e-6
-1.370, 5.795e-6
-1.371, 5.796e-6
-1.372, 5.803e-6
-1.373, 5.809e-6
-1.374, 5.811e-6
-1.375, 5.810e-6
-1.376, 5.812e-6
-1.377, 5.819e-6
-1.378, 5.823e-6
-1.379, 5.825e-6
-1.380, 5.825e-6
-1.381, 5.827e-6
-1.382, 5.834e-6
-1.383, 5.842e-6
-1.384, 5.840e-6
-1.385, 5.842e-6
-1.386, 5.844e-6
-1.387, 5.851e-6
-1.388, 5.856e-6
-1.389, 5.857e-6
-1.390, 5.858e-6
-1.391, 5.860e-6
-1.392, 5.866e-6
-1.393, 5.872e-6
-1.394, 5.872e-6
-1.395, 5.873e-6
-1.396, 5.877e-6
-1.397, 5.884e-6
-1.398, 5.889e-6
-1.399, 5.890e-6
-1.400, 5.891e-6
-1.401, 5.894e-6
-1.402, 5.900e-6
-1.403, 5.906e-6
-1.404, 5.907e-6
-1.405, 5.909e-6
-1.406, 5.912e-6
-1.407, 5.918e-6
-1.408, 5.925e-6
-1.409, 5.928e-6
-1.410, 5.927e-6
-1.411, 5.930e-6
-1.412, 5.936e-6
-1.413, 5.943e-6
-1.414, 5.945e-6
-1.415, 5.945e-6
-1.416, 5.949e-6
-1.417, 5.957e-6
-1.418, 5.963e-6
-1.419, 5.964e-6
-1.420, 5.967e-6
-1.421, 5.969e-6
-1.422, 5.979e-6
-1.423, 5.985e-6
-1.424, 5.987e-6
-1.425, 5.990e-6
-1.426, 5.990e-6
-1.427, 5.999e-6
-1.428, 6.008e-6
-1.429, 6.009e-6
-1.430, 6.011e-6
-1.431, 6.014e-6
-1.432, 6.023e-6
-1.433, 6.031e-6
-1.434, 6.034e-6
-1.435, 6.035e-6
-1.436, 6.039e-6
-1.437, 6.046e-6
-1.438, 6.056e-6
-1.439, 6.057e-6
-1.440, 6.058e-6
-1.441, 6.061e-6
-1.442, 6.069e-6
-1.443, 6.078e-6
-1.444, 6.082e-6
-1.445, 6.081e-6
-1.446, 6.086e-6
-1.447, 6.093e-6
-1.448, 6.102e-6
-1.449, 6.105e-6
-1.450, 6.105e-6
-1.451, 6.110e-6
-1.452, 6.118e-6
-1.453, 6.125e-6
-1.454, 6.129e-6
-1.455, 6.130e-6
-1.456, 6.133e-6
-1.457, 6.141e-6
-1.458, 6.149e-6
-1.459, 6.152e-6
-1.460, 6.154e-6
-1.461, 6.157e-6
-1.462, 6.166e-6
-1.463, 6.174e-6
-1.464, 6.176e-6
-1.465, 6.177e-6
-1.466, 6.180e-6
-1.467, 6.189e-6
-1.468, 6.197e-6
-1.469, 6.200e-6
-1.470, 6.202e-6
-1.471, 6.205e-6
-1.472, 6.215e-6
-1.473, 6.222e-6
-1.474, 6.225e-6
-1.475, 6.227e-6
-1.476, 6.231e-6
-1.477, 6.240e-6
-1.478, 6.250e-6
-1.479, 6.253e-6
-1.480, 6.254e-6
-1.481, 6.259e-6
-1.482, 6.267e-6
-1.483, 6.277e-6
-1.484, 6.282e-6
-1.485, 6.286e-6
-1.486, 6.288e-6
-1.487, 6.296e-6
-1.488, 6.307e-6
-1.489, 6.312e-6
-1.490, 6.314e-6
-1.491, 6.317e-6
-1.492, 6.328e-6
-1.493, 6.337e-6
-1.494, 6.343e-6
-1.495, 6.346e-6
-1.496, 6.348e-6
-1.497, 6.360e-6
-1.498, 6.370e-6
-1.499, 6.375e-6
-1.500, 6.378e-6
-1.501, 6.382e-6
-1.502, 6.393e-6
-1.503, 6.403e-6
-1.504, 6.409e-6
-1.505, 6.411e-6
-1.506, 6.415e-6
-1.507, 6.426e-6
-1.508, 6.437e-6
-1.509, 6.444e-6
-1.510, 6.447e-6
-1.511, 6.451e-6
-1.512, 6.462e-6
-1.513, 6.473e-6
-1.514, 6.478e-6
-1.515, 6.484e-6
-1.516, 6.487e-6
-1.517, 6.498e-6
-1.518, 6.512e-6
-1.519, 6.517e-6
-1.520, 6.519e-6
-1.521, 6.526e-6
-1.522, 6.535e-6
-1.523, 6.549e-6
-1.524, 6.556e-6
-1.525, 6.559e-6
-1.526, 6.568e-6
-1.527, 6.577e-6
-1.528, 6.591e-6
-1.529, 6.599e-6
-1.530, 6.601e-6
-1.531, 6.608e-6
-1.532, 6.620e-6
-1.533, 6.633e-6
-1.534, 6.641e-6
-1.535, 6.645e-6
-1.536, 6.652e-6
-1.537, 6.665e-6
-1.538, 6.677e-6
-1.539, 6.686e-6
-1.540, 6.691e-6
-1.541, 6.697e-6
-1.542, 6.711e-6
-1.543, 6.725e-6
-1.544, 6.733e-6
-1.545, 6.738e-6
-1.546, 6.746e-6
-1.547, 6.758e-6
-1.548, 6.773e-6
-1.549, 6.783e-6
-1.550, 6.790e-6
-1.551, 6.797e-6
-1.552, 6.811e-6
-1.553, 6.826e-6
-1.554, 6.836e-6
-1.555, 6.843e-6
-1.556, 6.849e-6
-1.557, 6.865e-6
-1.558, 6.881e-6
-1.559, 6.891e-6
-1.560, 6.899e-6
-1.561, 6.908e-6
-1.562, 6.922e-6
-1.563, 6.940e-6
-1.564, 6.950e-6
-1.565, 6.959e-6
-1.566, 6.968e-6
-1.567, 6.984e-6
-1.568, 7.000e-6
-1.569, 7.014e-6
-1.570, 7.023e-6
-1.571, 7.034e-6
-1.572, 7.049e-6
-1.573, 7.068e-6
-1.574, 7.082e-6
-1.575, 7.090e-6
-1.576, 7.103e-6
-1.577, 7.121e-6
-1.578, 7.139e-6
-1.579, 7.154e-6
-1.580, 7.164e-6
-1.581, 7.177e-6
-1.582, 7.197e-6
-1.583, 7.216e-6
-1.584, 7.231e-6
-1.585, 7.244e-6
-1.586, 7.255e-6
-1.587, 7.276e-6
-1.588, 7.299e-6
-1.589, 7.313e-6
-1.590, 7.324e-6
-1.591, 7.339e-6
-1.592, 7.360e-6
-1.593, 7.382e-6
-1.594, 7.399e-6
-1.595, 7.413e-6
-1.596, 7.428e-6
-1.597, 7.448e-6
-1.598, 7.475e-6
-1.599, 7.493e-6
-1.600, 7.509e-6
-1.601, 7.525e-6
-1.602, 7.547e-6
-1.603, 7.574e-6
-1.604, 7.593e-6
-1.605, 7.608e-6
-1.606, 7.627e-6
-1.607, 7.652e-6
-1.608, 7.680e-6
-1.609, 7.702e-6
-1.610, 7.719e-6
-1.611, 7.740e-6
-1.612, 7.767e-6
-1.613, 7.796e-6
-1.614, 7.819e-6
-1.615, 7.837e-6
-1.616, 7.858e-6
-1.617, 7.885e-6
-1.618, 7.917e-6
-1.619, 7.942e-6
-1.620, 7.963e-6
-1.621, 7.985e-6
-1.622, 8.015e-6
-1.623, 8.047e-6
-1.624, 8.074e-6
-1.625, 8.098e-6
-1.626, 8.122e-6
-1.627, 8.154e-6
-1.628, 8.191e-6
-1.629, 8.220e-6
-1.630, 8.248e-6
-1.631, 8.273e-6
-1.632, 8.308e-6
-1.633, 8.344e-6
-1.634, 8.373e-6
-1.635, 8.401e-6
-1.636, 8.430e-6
-1.637, 8.466e-6
-1.638, 8.509e-6
-1.639, 8.551e-6
-1.640, 8.574e-6
-1.641, 8.603e-6
-1.642, 8.639e-6
-1.643, 8.679e-6
-1.644, 8.717e-6
-1.645, 8.751e-6
-1.646, 8.785e-6
-1.647, 8.824e-6
-1.648, 8.868e-6
-1.649, 8.907e-6
-1.650, 8.941e-6
-1.651, 8.979e-6
-1.652, 9.023e-6
-1.653, 9.069e-6
-1.654, 9.112e-6
-1.655, 9.147e-6
-1.656, 9.187e-6
-1.657, 9.236e-6
-1.658, 9.286e-6
-1.659, 9.335e-6
-1.660, 9.375e-6
-1.661, 9.414e-6
-1.662, 9.465e-6
-1.663, 9.520e-6
-1.664, 9.571e-6
-1.665, 9.618e-6
-1.666, 9.663e-6
-1.667, 9.720e-6
-1.668, 9.778e-6
-1.669, 9.831e-6
-1.670, 9.882e-6
-1.671, 9.932e-6
-1.672, 9.990e-6
-1.673, 1.005e-5
-1.674, 1.011e-5
-1.675, 1.017e-5
-1.676, 1.022e-5
-1.677, 1.028e-5
-1.678, 1.035e-5
-1.679, 1.041e-5
-1.680, 1.047e-5
-1.681, 1.054e-5
-1.682, 1.061e-5
-1.683, 1.068e-5
-1.684, 1.075e-5
-1.685, 1.082e-5
-1.686, 1.089e-5
-1.687, 1.096e-5
-1.688, 1.104e-5
-1.689, 1.112e-5
-1.690, 1.120e-5
-1.691, 1.127e-5
-1.692, 1.135e-5
-1.693, 1.144e-5
-1.694, 1.153e-5
-1.695, 1.161e-5
-1.696, 1.169e-5
-1.697, 1.179e-5
-1.698, 1.188e-5
-1.699, 1.198e-5
-1.700, 1.206e-5
-1.701, 1.214e-5
-1.702, 1.225e-5
-1.703, 1.235e-5
-1.704, 1.246e-5
-1.705, 1.256e-5
-1.706, 1.267e-5
-1.707, 1.278e-5
-1.708, 1.290e-5
-1.709, 1.297e-5
-1.710, 1.307e-5
-1.711, 1.317e-5
-1.712, 1.329e-5
-1.713, 1.342e-5
-1.714, 1.354e-5
-1.715, 1.367e-5
-1.716, 1.380e-5
-1.717, 1.393e-5
-1.718, 1.408e-5
-1.719, 1.423e-5
-1.720, 1.437e-5
-1.721, 1.452e-5
-1.722, 1.468e-5
-1.723, 1.484e-5
-1.724, 1.501e-5
-1.725, 1.518e-5
-1.726, 1.535e-5
-1.727, 1.552e-5
-1.728, 1.572e-5
-1.729, 1.589e-5
-1.730, 1.599e-5
-1.731, 1.615e-5
-1.732, 1.634e-5
-1.733, 1.655e-5
-1.734, 1.675e-5
-1.735, 1.696e-5
-1.736, 1.717e-5
-1.737, 1.739e-5
-1.738, 1.761e-5
-1.739, 1.785e-5
-1.740, 1.808e-5
-1.741, 1.832e-5
-1.742, 1.858e-5
-1.743, 1.885e-5
-1.744, 1.912e-5
-1.745, 1.940e-5
-1.746, 1.967e-5
-1.747, 1.997e-5
-1.748, 2.028e-5
-1.749, 2.059e-5
-1.750, 2.091e-5
-1.751, 2.123e-5
-1.752, 2.157e-5
-1.753, 2.193e-5
-1.754, 2.229e-5
-1.755, 2.265e-5
-1.756, 2.302e-5
-1.757, 2.342e-5
-1.758, 2.383e-5
-1.759, 2.425e-5
-1.760, 2.467e-5
-1.761, 2.511e-5
-1.762, 2.556e-5
-1.763, 2.603e-5
-1.764, 2.652e-5
-1.765, 2.704e-5
-1.766, 2.754e-5
-1.767, 2.801e-5
-1.768, 2.853e-5
-1.769, 2.907e-5
-1.770, 2.962e-5
-1.771, 3.020e-5
-1.772, 3.080e-5
-1.773, 3.143e-5
-1.774, 3.208e-5
-1.775, 3.273e-5
-1.776, 3.340e-5
-1.777, 3.409e-5
-1.778, 3.481e-5
-1.779, 3.556e-5
-1.780, 3.631e-5
-1.781, 3.709e-5
-1.782, 3.789e-5
-1.783, 3.871e-5
-1.784, 3.956e-5
-1.785, 4.042e-5
-1.786, 4.132e-5
-1.787, 4.225e-5
-1.788, 4.321e-5
-1.789, 4.416e-5
-1.790, 4.516e-5
-1.791, 4.617e-5
-1.792, 4.724e-5
-1.793, 4.833e-5
-1.794, 4.942e-5
-1.795, 5.052e-5
-1.796, 5.168e-5
-1.797, 5.289e-5
-1.798, 5.413e-5
-1.799, 5.541e-5
-1.800, 5.672e-5
-1.801, 5.807e-5
-1.802, 5.944e-5
-1.803, 6.085e-5
-1.804, 6.227e-5
-1.805, 6.374e-5
-1.806, 6.527e-5
-1.807, 6.683e-5
-1.808, 6.845e-5
-1.809, 7.010e-5
-1.810, 7.180e-5
-1.811, 7.353e-5
-1.812, 7.526e-5
-1.813, 7.709e-5
-1.814, 7.898e-5
-1.815, 8.089e-5
-1.816, 8.284e-5
-1.817, 8.486e-5
-1.818, 8.695e-5
-1.819, 8.907e-5
-1.820, 9.122e-5
-1.821, 9.342e-5
-1.822, 9.569e-5
-1.823, 9.799e-5
-1.824, 1.003e-4
-1.825, 1.027e-4
-1.826, 1.052e-4
-1.827, 1.077e-4
-1.828, 1.103e-4
-1.829, 1.130e-4
-1.830, 1.157e-4
-1.831, 1.184e-4
-1.832, 1.212e-4
-1.833, 1.241e-4
-1.834, 1.271e-4
-1.835, 1.301e-4
-1.836, 1.331e-4
-1.837, 1.362e-4
-1.838, 1.394e-4
-1.839, 1.426e-4
-1.840, 1.459e-4
-1.841, 1.493e-4
-1.842, 1.527e-4
-1.843, 1.562e-4
-1.844, 1.598e-4
-1.845, 1.635e-4
-1.846, 1.672e-4
-1.847, 1.709e-4
-1.848, 1.747e-4
-1.849, 1.786e-4
-1.850, 1.825e-4
-1.851, 1.865e-4
-1.852, 1.905e-4
-1.853, 1.946e-4
-1.854, 1.987e-4
-1.855, 2.029e-4
-1.856, 2.071e-4
-1.857, 2.113e-4
-1.858, 2.155e-4
-1.859, 2.198e-4
-1.860, 2.240e-4
-1.861, 2.282e-4
-1.862, 2.324e-4
-1.863, 2.366e-4
-1.864, 2.407e-4
-1.865, 2.447e-4
-1.866, 2.487e-4
-1.867, 2.528e-4
-1.868, 2.568e-4
-1.869, 2.608e-4
-1.870, 2.647e-4
-1.871, 2.685e-4
-1.872, 2.724e-4
-1.873, 2.762e-4
-1.874, 2.799e-4
-1.875, 2.837e-4
-1.876, 2.874e-4
-1.877, 2.911e-4
-1.878, 2.948e-4
-1.879, 2.986e-4
-1.880, 3.023e-4
-1.881, 3.060e-4
-1.882, 3.098e-4
-1.883, 3.135e-4
-1.884, 3.174e-4
-1.885, 3.212e-4
-1.886, 3.251e-4
-1.887, 3.290e-4
-1.888, 3.330e-4
-1.889, 3.370e-4
-1.890, 3.410e-4
-1.891, 3.451e-4
-1.892, 3.491e-4
-1.893, 3.533e-4
-1.894, 3.574e-4
-1.895, 3.616e-4
-1.896, 3.659e-4
-1.897, 3.701e-4
-1.898, 3.744e-4
-1.899, 3.788e-4
-1.900, 3.832e-4
-1.901, 3.877e-4
-1.902, 3.922e-4
-1.903, 3.967e-4
-1.904, 4.013e-4
-1.905, 4.059e-4
-1.906, 4.105e-4
-1.907, 4.151e-4
-1.908, 4.198e-4
-1.909, 4.245e-4
-1.910, 4.293e-4
-1.911, 4.341e-4
-1.912, 4.390e-4
-1.913, 4.439e-4
-1.914, 4.489e-4
-1.915, 4.538e-4
-1.916, 4.588e-4
-1.917, 4.638e-4
-1.918, 4.689e-4
-1.919, 4.741e-4
-1.920, 4.793e-4
-1.921, 4.844e-4
-1.922, 4.896e-4
-1.923, 4.949e-4
-1.924, 5.003e-4
-1.925, 5.056e-4
-1.926, 5.110e-4
-1.927, 5.165e-4
-1.928, 5.219e-4
-1.929, 5.273e-4
-1.930, 5.327e-4
-1.931, 5.382e-4
-1.932, 5.437e-4
-1.933, 5.493e-4
-1.934, 5.550e-4
-1.935, 5.606e-4
-1.936, 5.663e-4
-1.937, 5.721e-4
-1.938, 5.779e-4
-1.939, 5.836e-4
-1.940, 5.894e-4
-1.941, 5.952e-4
-1.942, 6.011e-4
-1.943, 6.071e-4
-1.944, 6.131e-4
-1.945, 6.190e-4
-1.946, 6.251e-4
-1.947, 6.312e-4
-1.948, 6.374e-4
-1.949, 6.436e-4
-1.950, 6.497e-4
-1.951, 6.559e-4
-1.952, 6.622e-4
-1.953, 6.685e-4
-1.954, 6.747e-4
-1.955, 6.811e-4
-1.956, 6.875e-4
-1.957, 6.939e-4
-1.958, 7.004e-4
-1.959, 7.069e-4
-1.960, 7.135e-4
-1.961, 7.200e-4
-1.962, 7.266e-4
-1.963, 7.333e-4
-1.964, 7.400e-4
-1.965, 7.467e-4
-1.966, 7.534e-4
-1.967, 7.603e-4
-1.968, 7.671e-4
-1.969, 7.740e-4
-1.970, 7.810e-4
-1.971, 7.880e-4
-1.972, 7.949e-4
-1.973, 8.019e-4
-1.974, 8.090e-4
-1.975, 8.162e-4
-1.976, 8.233e-4
-1.977, 8.305e-4
-1.978, 8.376e-4
-1.979, 8.449e-4
-1.980, 8.523e-4
-1.981, 8.597e-4
-1.982, 8.670e-4
-1.983, 8.744e-4
-1.984, 8.818e-4
-1.985, 8.892e-4
-1.986, 8.967e-4
-1.987, 9.042e-4
-1.988, 9.117e-4
-1.989, 9.193e-4
-1.990, 9.270e-4
-1.991, 9.345e-4
-1.992, 9.421e-4
-1.993, 9.497e-4
-1.994, 9.574e-4
-1.995, 9.652e-4
-1.996, 9.730e-4
-1.997, 9.808e-4
-1.998, 9.887e-4
-1.999, 9.965e-4
-2.000, 1.004e-3
-2.001, 1.010e-3
-2.002, 1.011e-3
-2.003, 1.011e-3
-2.004, 1.011e-3
-2.005, 1.011e-3
-2.006, 1.011e-3
-2.007, 1.011e-3
-2.008, 1.011e-3
-2.009, 1.011e-3
-2.010, 1.011e-3
-2.011, 1.011e-3
-2.012, 1.011e-3
-2.013, 1.011e-3
-2.014, 1.011e-3
-2.015, 1.011e-3
-2.016, 1.011e-3
-2.017, 1.011e-3
-2.018, 1.011e-3
-2.019, 1.011e-3
-2.020, 1.011e-3
-2.021, 1.011e-3
-2.022, 1.011e-3
-2.023, 1.011e-3
-2.024, 1.011e-3
-2.025, 1.011e-3
-2.026, 1.011e-3
-2.027, 1.011e-3
-2.028, 1.011e-3
-2.029, 1.011e-3
-2.030, 1.011e-3
-2.031, 1.011e-3
-2.032, 1.011e-3
-2.033, 1.011e-3
-2.034, 1.011e-3
-2.035, 1.011e-3
-2.036, 1.011e-3
-2.037, 1.011e-3
-2.038, 1.011e-3
-2.039, 1.011e-3
-2.040, 1.011e-3
-2.041, 1.011e-3
-2.042, 1.011e-3
-2.043, 1.011e-3
-2.044, 1.011e-3
-2.045, 1.011e-3
-2.046, 1.011e-3
-2.047, 1.011e-3
-2.048, 1.011e-3
-2.049, 1.011e-3
-2.050, 1.011e-3
-2.051, 1.011e-3
-2.052, 1.011e-3
-2.053, 1.011e-3
-2.054, 1.011e-3
-2.055, 1.011e-3
-2.056, 1.011e-3
-2.057, 1.011e-3
-2.058, 1.011e-3
-2.059, 1.011e-3
-2.060, 1.011e-3
-2.061, 1.011e-3
-2.062, 1.011e-3
-2.063, 1.011e-3
-2.064, 1.011e-3
-2.065, 1.011e-3
-2.066, 1.011e-3
-2.067, 1.011e-3
-2.068, 1.011e-3
-2.069, 1.011e-3
-2.070, 1.011e-3
-2.071, 1.011e-3
-2.072, 1.011e-3
-2.073, 1.011e-3
-2.074, 1.011e-3
-2.075, 1.011e-3
-2.076, 1.011e-3
-2.077, 1.011e-3
-2.078, 1.011e-3
-2.079, 1.011e-3
-2.080, 1.011e-3
-2.081, 1.011e-3
-2.082, 1.011e-3
-2.083, 1.011e-3
-2.084, 1.011e-3
-2.085, 1.011e-3
-2.086, 1.011e-3
-2.087, 1.011e-3
-2.088, 1.011e-3
-2.089, 1.011e-3
-2.090, 1.011e-3
-2.091, 1.011e-3
-2.092, 1.011e-3
-2.093, 1.011e-3
-2.094, 1.011e-3
-2.095, 1.011e-3
-2.096, 1.011e-3
-2.097, 1.011e-3
-2.098, 1.011e-3
-2.099, 1.011e-3
-2.100, 1.011e-3
-2.101, 1.011e-3
-2.102, 1.011e-3
-2.103, 1.011e-3
-2.104, 1.011e-3
-2.105, 1.011e-3
-2.106, 1.011e-3
-2.107, 1.011e-3
-2.108, 1.011e-3
-2.109, 1.011e-3
-2.110, 1.011e-3
-2.111, 1.011e-3
-2.112, 1.011e-3
-2.113, 1.011e-3
-2.114, 1.011e-3
-2.115, 1.011e-3
-2.116, 1.011e-3
-2.117, 1.011e-3
-2.118, 1.011e-3
-2.119, 1.011e-3
-2.120, 1.011e-3
-2.121, 1.011e-3
-2.122, 1.011e-3
-2.123, 1.011e-3
-2.124, 1.011e-3
-2.125, 1.011e-3
-2.126, 1.011e-3
-2.127, 1.011e-3
-2.128, 1.011e-3
-2.129, 1.011e-3
-2.130, 1.011e-3
-2.131, 1.011e-3
-2.132, 1.011e-3
-2.133, 1.011e-3
-2.134, 1.011e-3
-2.135, 1.011e-3
-2.136, 1.011e-3
-2.137, 1.011e-3
-2.138, 1.011e-3
-2.139, 1.011e-3
-2.140, 1.011e-3
-2.141, 1.011e-3
-2.142, 1.011e-3
-2.143, 1.011e-3
-2.144, 1.011e-3
-2.145, 1.011e-3
-2.146, 1.011e-3
-2.147, 1.011e-3
-2.148, 1.011e-3
-2.149, 1.011e-3
-2.150, 1.011e-3
-2.151, 1.011e-3
-2.152, 1.011e-3
-2.153, 1.011e-3
-2.154, 1.011e-3
-2.155, 1.011e-3
-2.156, 1.011e-3
-2.157, 1.011e-3
-2.158, 1.011e-3
-2.159, 1.011e-3
-2.160, 1.011e-3
-2.161, 1.011e-3
-2.162, 1.011e-3
-2.163, 1.011e-3
-2.164, 1.011e-3
-2.165, 1.011e-3
-2.166, 1.011e-3
-2.167, 1.011e-3
-2.168, 1.011e-3
-2.169, 1.011e-3
-2.170, 1.011e-3
-2.171, 1.011e-3
-2.172, 1.011e-3
-2.173, 1.011e-3
-2.174, 1.011e-3
-2.175, 1.011e-3
-2.176, 1.011e-3
-2.177, 1.011e-3
-2.178, 1.011e-3
-2.179, 1.011e-3
-2.180, 1.011e-3
-2.181, 1.011e-3
-2.182, 1.011e-3
-2.183, 1.011e-3
-2.184, 1.011e-3
-2.185, 1.011e-3
-2.186, 1.011e-3
-2.187, 1.011e-3
-2.188, 1.011e-3
-2.189, 1.011e-3
-2.190, 1.011e-3
-2.191, 1.011e-3
-2.192, 1.011e-3
-2.193, 1.011e-3
-2.194, 1.011e-3
-2.195, 1.011e-3
-2.196, 1.011e-3
-2.197, 1.011e-3
-2.198, 1.011e-3
-2.199, 1.011e-3
-2.200, 1.011e-3
-2.201, 1.011e-3
-2.202, 1.011e-3
-2.203, 1.011e-3
-2.204, 1.011e-3
-2.205, 1.011e-3
-2.206, 1.011e-3
-2.207, 1.011e-3
-2.208, 1.011e-3
-2.209, 1.011e-3
-2.210, 1.011e-3
-2.211, 1.011e-3
-2.212, 1.011e-3
-2.213, 1.011e-3
-2.214, 1.011e-3
-2.215, 1.011e-3
-2.216, 1.011e-3
-2.217, 1.011e-3
-2.218, 1.011e-3
-2.219, 1.011e-3
-2.220, 1.011e-3
-2.221, 1.011e-3
-2.222, 1.011e-3
-2.223, 1.011e-3
-2.224, 1.011e-3
-2.225, 1.011e-3
-2.226, 1.011e-3
-2.227, 1.011e-3
-2.228, 1.011e-3
-2.229, 1.011e-3
-2.230, 1.011e-3
-2.231, 1.011e-3
-2.232, 1.011e-3
-2.233, 1.011e-3
-2.234, 1.011e-3
-2.235, 1.011e-3
-2.236, 1.011e-3
-2.237, 1.011e-3
-2.238, 1.011e-3
-2.239, 1.011e-3
-2.240, 1.011e-3
-2.241, 1.011e-3
-2.242, 1.011e-3
-2.243, 1.011e-3
-2.244, 1.011e-3
-2.245, 1.011e-3
-2.246, 1.011e-3
-2.247, 1.011e-3
-2.248, 1.011e-3
-2.249, 1.011e-3
-2.250, 1.011e-3
-2.251, 1.011e-3
-2.252, 1.011e-3
-2.253, 1.011e-3
-2.254, 1.011e-3
-2.255, 1.011e-3
-2.256, 1.011e-3
-2.257, 1.011e-3
-2.258, 1.011e-3
-2.259, 1.011e-3
-2.260, 1.011e-3
-2.261, 1.011e-3
-2.262, 1.011e-3
-2.263, 1.011e-3
-2.264, 1.011e-3
-2.265, 1.011e-3
-2.266, 1.011e-3
-2.267, 1.011e-3
-2.268, 1.011e-3
-2.269, 1.011e-3
-2.270, 1.011e-3
-2.271, 1.011e-3
-2.272, 1.011e-3
-2.273, 1.011e-3
-2.274, 1.011e-3
-2.275, 1.011e-3
-2.276, 1.011e-3
-2.277, 1.011e-3
-2.278, 1.011e-3
-2.279, 1.011e-3
-2.280, 1.011e-3
-2.281, 1.011e-3
-2.282, 1.011e-3
-2.283, 1.011e-3
-2.284, 1.011e-3
-2.285, 1.011e-3
-2.286, 1.011e-3
-2.287, 1.011e-3
-2.288, 1.011e-3
-2.289, 1.011e-3
-2.290, 1.011e-3
-2.291, 1.011e-3
-2.292, 1.011e-3
-2.293, 1.011e-3
-2.294, 1.011e-3
-2.295, 1.011e-3
-2.296, 1.011e-3
-2.297, 1.011e-3
-2.298, 1.011e-3
-2.299, 1.011e-3
