Mar. 15, 2025   14:14:35
Cyclic Voltammetry
File: c:/users/guazh/data/banditlqround7_x0exp891_r5/2025-03-03-exp903\exp903-2025-03-15t14_00_34-h2koh\exp903_cv_sr_200mvs_efin_-1600mv.bin
Data Source:  Experiment
Instrument Model:  CHI760E
Header: CV ran at 200 mVs
Note: 

Init E (V) = -1
High E (V) = -1
Low E (V) = -1.6
Final E (V) = -1
Init P/N = N
Scan Rate (V/s) = 0.2
Segment = 3
Sample Interval (V) = 0.001
Quiet Time (sec) = 2
Sensitivity (A/V) = 0.01
Comp R (ohm) = 2.0

Results:

Channel 1:
Segment 1:

Segment 2:

Segment 3:

Potential/V, Current/A

-1.000, 1.426e-5
-1.001, 2.288e-5
-1.002, 2.633e-5
-1.003, 2.603e-5
-1.004, 2.487e-5
-1.005, 2.624e-5
-1.006, 2.734e-5
-1.007, 2.566e-5
-1.008, 2.591e-5
-1.009, 2.732e-5
-1.010, 2.602e-5
-1.011, 2.566e-5
-1.012, 2.803e-5
-1.013, 2.746e-5
-1.014, 2.558e-5
-1.015, 2.697e-5
-1.016, 2.769e-5
-1.017, 2.595e-5
-1.018, 2.678e-5
-1.019, 2.822e-5
-1.020, 2.693e-5
-1.021, 2.653e-5
-1.022, 2.800e-5
-1.023, 2.752e-5
-1.024, 2.631e-5
-1.025, 2.752e-5
-1.026, 2.861e-5
-1.027, 2.668e-5
-1.028, 2.702e-5
-1.029, 2.853e-5
-1.030, 2.689e-5
-1.031, 2.654e-5
-1.032, 2.844e-5
-1.033, 2.777e-5
-1.034, 2.666e-5
-1.035, 2.733e-5
-1.036, 2.818e-5
-1.037, 2.718e-5
-1.038, 2.777e-5
-1.039, 2.911e-5
-1.040, 2.721e-5
-1.041, 2.628e-5
-1.042, 2.835e-5
-1.043, 2.819e-5
-1.044, 2.685e-5
-1.045, 2.841e-5
-1.046, 2.862e-5
-1.047, 2.683e-5
-1.048, 2.714e-5
-1.049, 2.864e-5
-1.050, 2.761e-5
-1.051, 2.692e-5
-1.052, 2.856e-5
-1.053, 2.819e-5
-1.054, 2.667e-5
-1.055, 2.815e-5
-1.056, 2.854e-5
-1.057, 2.705e-5
-1.058, 2.729e-5
-1.059, 2.869e-5
-1.060, 2.727e-5
-1.061, 2.671e-5
-1.062, 2.872e-5
-1.063, 2.830e-5
-1.064, 2.713e-5
-1.065, 2.836e-5
-1.066, 2.844e-5
-1.067, 2.690e-5
-1.068, 2.743e-5
-1.069, 2.892e-5
-1.070, 2.792e-5
-1.071, 2.745e-5
-1.072, 2.863e-5
-1.073, 2.793e-5
-1.074, 2.657e-5
-1.075, 2.855e-5
-1.076, 2.946e-5
-1.077, 2.743e-5
-1.078, 2.770e-5
-1.079, 2.910e-5
-1.080, 2.747e-5
-1.081, 2.717e-5
-1.082, 2.923e-5
-1.083, 2.840e-5
-1.084, 2.726e-5
-1.085, 2.822e-5
-1.086, 2.880e-5
-1.087, 2.710e-5
-1.088, 2.767e-5
-1.089, 2.931e-5
-1.090, 2.789e-5
-1.091, 2.708e-5
-1.092, 2.908e-5
-1.093, 2.835e-5
-1.094, 2.713e-5
-1.095, 2.879e-5
-1.096, 2.884e-5
-1.097, 2.732e-5
-1.098, 2.777e-5
-1.099, 2.899e-5
-1.100, 2.753e-5
-1.101, 2.695e-5
-1.102, 2.895e-5
-1.103, 2.861e-5
-1.104, 2.745e-5
-1.105, 2.872e-5
-1.106, 2.870e-5
-1.107, 2.714e-5
-1.108, 2.754e-5
-1.109, 2.910e-5
-1.110, 2.824e-5
-1.111, 2.769e-5
-1.112, 2.915e-5
-1.113, 2.854e-5
-1.114, 2.732e-5
-1.115, 2.842e-5
-1.116, 2.918e-5
-1.117, 2.762e-5
-1.118, 2.820e-5
-1.119, 2.959e-5
-1.120, 2.768e-5
-1.121, 2.738e-5
-1.122, 2.913e-5
-1.123, 2.833e-5
-1.124, 2.752e-5
-1.125, 2.890e-5
-1.126, 2.894e-5
-1.127, 2.762e-5
-1.128, 2.783e-5
-1.129, 2.934e-5
-1.130, 2.812e-5
-1.131, 2.785e-5
-1.132, 2.967e-5
-1.133, 2.869e-5
-1.134, 2.763e-5
-1.135, 2.908e-5
-1.136, 2.910e-5
-1.137, 2.811e-5
-1.138, 2.826e-5
-1.139, 2.991e-5
-1.140, 2.844e-5
-1.141, 2.782e-5
-1.142, 2.959e-5
-1.143, 2.944e-5
-1.144, 2.826e-5
-1.145, 2.965e-5
-1.146, 2.961e-5
-1.147, 2.786e-5
-1.148, 2.868e-5
-1.149, 3.045e-5
-1.150, 2.935e-5
-1.151, 2.865e-5
-1.152, 3.020e-5
-1.153, 2.950e-5
-1.154, 2.848e-5
-1.155, 3.006e-5
-1.156, 3.059e-5
-1.157, 2.901e-5
-1.158, 2.928e-5
-1.159, 3.079e-5
-1.160, 2.954e-5
-1.161, 2.949e-5
-1.162, 3.136e-5
-1.163, 3.024e-5
-1.164, 2.964e-5
-1.165, 3.095e-5
-1.166, 3.124e-5
-1.167, 3.030e-5
-1.168, 3.048e-5
-1.169, 3.212e-5
-1.170, 3.080e-5
-1.171, 3.019e-5
-1.172, 3.219e-5
-1.173, 3.155e-5
-1.174, 3.074e-5
-1.175, 3.217e-5
-1.176, 3.241e-5
-1.177, 3.163e-5
-1.178, 3.233e-5
-1.179, 3.314e-5
-1.180, 3.205e-5
-1.181, 3.164e-5
-1.182, 3.369e-5
-1.183, 3.362e-5
-1.184, 3.245e-5
-1.185, 3.425e-5
-1.186, 3.419e-5
-1.187, 3.298e-5
-1.188, 3.387e-5
-1.189, 3.554e-5
-1.190, 3.454e-5
-1.191, 3.412e-5
-1.192, 3.601e-5
-1.193, 3.531e-5
-1.194, 3.468e-5
-1.195, 3.632e-5
-1.196, 3.672e-5
-1.197, 3.567e-5
-1.198, 3.649e-5
-1.199, 3.789e-5
-1.200, 3.660e-5
-1.201, 3.682e-5
-1.202, 3.866e-5
-1.203, 3.837e-5
-1.204, 3.800e-5
-1.205, 3.924e-5
-1.206, 3.988e-5
-1.207, 3.924e-5
-1.208, 4.008e-5
-1.209, 4.200e-5
-1.210, 4.072e-5
-1.211, 4.048e-5
-1.212, 4.236e-5
-1.213, 4.229e-5
-1.214, 4.203e-5
-1.215, 4.433e-5
-1.216, 4.468e-5
-1.217, 4.363e-5
-1.218, 4.471e-5
-1.219, 4.577e-5
-1.220, 4.585e-5
-1.221, 4.649e-5
-1.222, 4.837e-5
-1.223, 4.808e-5
-1.224, 4.685e-5
-1.225, 4.872e-5
-1.226, 5.079e-5
-1.227, 5.017e-5
-1.228, 5.138e-5
-1.229, 5.289e-5
-1.230, 5.174e-5
-1.231, 5.277e-5
-1.232, 5.546e-5
-1.233, 5.581e-5
-1.234, 5.559e-5
-1.235, 5.689e-5
-1.236, 5.784e-5
-1.237, 5.738e-5
-1.238, 5.903e-5
-1.239, 6.154e-5
-1.240, 6.109e-5
-1.241, 6.175e-5
-1.242, 6.410e-5
-1.243, 6.406e-5
-1.244, 6.454e-5
-1.245, 6.708e-5
-1.246, 6.849e-5
-1.247, 6.829e-5
-1.248, 6.983e-5
-1.249, 7.165e-5
-1.250, 7.150e-5
-1.251, 7.382e-5
-1.252, 7.650e-5
-1.253, 7.560e-5
-1.254, 7.747e-5
-1.255, 8.044e-5
-1.256, 8.387e-5
-1.257, 8.389e-5
-1.258, 8.302e-5
-1.259, 8.427e-5
-1.260, 8.442e-5
-1.261, 8.779e-5
-1.262, 9.409e-5
-1.263, 9.534e-5
-1.264, 9.499e-5
-1.265, 9.594e-5
-1.266, 9.691e-5
-1.267, 9.666e-5
-1.268, 1.002e-4
-1.269, 1.056e-4
-1.270, 1.075e-4
-1.271, 1.100e-4
-1.272, 1.125e-4
-1.273, 1.128e-4
-1.274, 1.142e-4
-1.275, 1.176e-4
-1.276, 1.214e-4
-1.277, 1.235e-4
-1.278, 1.266e-4
-1.279, 1.302e-4
-1.280, 1.307e-4
-1.281, 1.329e-4
-1.282, 1.380e-4
-1.283, 1.410e-4
-1.284, 1.433e-4
-1.285, 1.462e-4
-1.286, 1.484e-4
-1.287, 1.508e-4
-1.288, 1.552e-4
-1.289, 1.612e-4
-1.290, 1.641e-4
-1.291, 1.668e-4
-1.292, 1.708e-4
-1.293, 1.724e-4
-1.294, 1.751e-4
-1.295, 1.822e-4
-1.296, 1.885e-4
-1.297, 1.924e-4
-1.298, 1.955e-4
-1.299, 1.991e-4
-1.300, 2.018e-4
-1.301, 2.066e-4
-1.302, 2.143e-4
-1.303, 2.183e-4
-1.304, 2.209e-4
-1.305, 2.269e-4
-1.306, 2.335e-4
-1.307, 2.390e-4
-1.308, 2.448e-4
-1.309, 2.503e-4
-1.310, 2.527e-4
-1.311, 2.587e-4
-1.312, 2.674e-4
-1.313, 2.744e-4
-1.314, 2.806e-4
-1.315, 2.866e-4
-1.316, 2.904e-4
-1.317, 2.967e-4
-1.318, 3.046e-4
-1.319, 3.127e-4
-1.320, 3.183e-4
-1.321, 3.236e-4
-1.322, 3.349e-4
-1.323, 3.452e-4
-1.324, 3.524e-4
-1.325, 3.610e-4
-1.326, 3.653e-4
-1.327, 3.719e-4
-1.328, 3.818e-4
-1.329, 3.937e-4
-1.330, 4.028e-4
-1.331, 4.101e-4
-1.332, 4.202e-4
-1.333, 4.274e-4
-1.334, 4.371e-4
-1.335, 4.525e-4
-1.336, 4.625e-4
-1.337, 4.718e-4
-1.338, 4.808e-4
-1.339, 4.918e-4
-1.340, 5.034e-4
-1.341, 5.150e-4
-1.342, 5.296e-4
-1.343, 5.406e-4
-1.344, 5.523e-4
-1.345, 5.669e-4
-1.346, 5.807e-4
-1.347, 5.933e-4
-1.348, 6.059e-4
-1.349, 6.193e-4
-1.350, 6.310e-4
-1.351, 6.448e-4
-1.352, 6.622e-4
-1.353, 6.773e-4
-1.354, 6.921e-4
-1.355, 7.078e-4
-1.356, 7.195e-4
-1.357, 7.306e-4
-1.358, 7.452e-4
-1.359, 7.728e-4
-1.360, 7.945e-4
-1.361, 8.115e-4
-1.362, 8.280e-4
-1.363, 8.381e-4
-1.364, 8.556e-4
-1.365, 8.781e-4
-1.366, 8.992e-4
-1.367, 9.206e-4
-1.368, 9.390e-4
-1.369, 9.649e-4
-1.370, 9.847e-4
-1.371, 9.993e-4
-1.372, 1.022e-3
-1.373, 1.037e-3
-1.374, 1.064e-3
-1.375, 1.087e-3
-1.376, 1.106e-3
-1.377, 1.133e-3
-1.378, 1.155e-3
-1.379, 1.191e-3
-1.380, 1.209e-3
-1.381, 1.228e-3
-1.382, 1.255e-3
-1.383, 1.275e-3
-1.384, 1.308e-3
-1.385, 1.336e-3
-1.386, 1.365e-3
-1.387, 1.394e-3
-1.388, 1.418e-3
-1.389, 1.451e-3
-1.390, 1.472e-3
-1.391, 1.499e-3
-1.392, 1.526e-3
-1.393, 1.559e-3
-1.394, 1.600e-3
-1.395, 1.624e-3
-1.396, 1.647e-3
-1.397, 1.665e-3
-1.398, 1.692e-3
-1.399, 1.743e-3
-1.400, 1.777e-3
-1.401, 1.814e-3
-1.402, 1.841e-3
-1.403, 1.857e-3
-1.404, 1.891e-3
-1.405, 1.922e-3
-1.406, 1.966e-3
-1.407, 2.007e-3
-1.408, 2.036e-3
-1.409, 2.072e-3
-1.410, 2.091e-3
-1.411, 2.113e-3
-1.412, 2.155e-3
-1.413, 2.190e-3
-1.414, 2.231e-3
-1.415, 2.269e-3
-1.416, 2.302e-3
-1.417, 2.337e-3
-1.418, 2.365e-3
-1.419, 2.405e-3
-1.420, 2.442e-3
-1.421, 2.471e-3
-1.422, 2.506e-3
-1.423, 2.538e-3
-1.424, 2.573e-3
-1.425, 2.618e-3
-1.426, 2.660e-3
-1.427, 2.693e-3
-1.428, 2.724e-3
-1.429, 2.749e-3
-1.430, 2.770e-3
-1.431, 2.806e-3
-1.432, 2.859e-3
-1.433, 2.907e-3
-1.434, 2.930e-3
-1.435, 2.958e-3
-1.436, 2.987e-3
-1.437, 3.024e-3
-1.438, 3.086e-3
-1.439, 3.129e-3
-1.440, 3.189e-3
-1.441, 3.192e-3
-1.442, 3.162e-3
-1.443, 3.193e-3
-1.444, 3.231e-3
-1.445, 3.309e-3
-1.446, 3.377e-3
-1.447, 3.383e-3
-1.448, 3.405e-3
-1.449, 3.408e-3
-1.450, 3.429e-3
-1.451, 3.479e-3
-1.452, 3.536e-3
-1.453, 3.592e-3
-1.454, 3.609e-3
-1.455, 3.612e-3
-1.456, 3.626e-3
-1.457, 3.661e-3
-1.458, 3.712e-3
-1.459, 3.763e-3
-1.460, 3.803e-3
-1.461, 3.824e-3
-1.462, 3.845e-3
-1.463, 3.884e-3
-1.464, 3.916e-3
-1.465, 3.952e-3
-1.466, 3.981e-3
-1.467, 4.006e-3
-1.468, 4.045e-3
-1.469, 4.082e-3
-1.470, 4.125e-3
-1.471, 4.159e-3
-1.472, 4.184e-3
-1.473, 4.214e-3
-1.474, 4.248e-3
-1.475, 4.293e-3
-1.476, 4.326e-3
-1.477, 4.355e-3
-1.478, 4.392e-3
-1.479, 4.418e-3
-1.480, 4.443e-3
-1.481, 4.444e-3
-1.482, 4.437e-3
-1.483, 4.477e-3
-1.484, 4.516e-3
-1.485, 4.557e-3
-1.486, 4.592e-3
-1.487, 4.623e-3
-1.488, 4.652e-3
-1.489, 4.686e-3
-1.490, 4.721e-3
-1.491, 4.745e-3
-1.492, 4.785e-3
-1.493, 4.822e-3
-1.494, 4.866e-3
-1.495, 4.907e-3
-1.496, 4.936e-3
-1.497, 4.968e-3
-1.498, 4.998e-3
-1.499, 5.048e-3
-1.500, 5.084e-3
-1.501, 5.119e-3
-1.502, 5.153e-3
-1.503, 5.170e-3
-1.504, 5.183e-3
-1.505, 5.201e-3
-1.506, 5.234e-3
-1.507, 5.272e-3
-1.508, 5.297e-3
-1.509, 5.355e-3
-1.510, 5.400e-3
-1.511, 5.426e-3
-1.512, 5.460e-3
-1.513, 5.487e-3
-1.514, 5.525e-3
-1.515, 5.551e-3
-1.516, 5.574e-3
-1.517, 5.611e-3
-1.518, 5.661e-3
-1.519, 5.713e-3
-1.520, 5.756e-3
-1.521, 5.768e-3
-1.522, 5.796e-3
-1.523, 5.849e-3
-1.524, 5.890e-3
-1.525, 5.955e-3
-1.526, 5.999e-3
-1.527, 6.009e-3
-1.528, 6.020e-3
-1.529, 5.973e-3
-1.530, 5.974e-3
-1.531, 6.041e-3
-1.532, 6.167e-3
-1.533, 6.230e-3
-1.534, 6.287e-3
-1.535, 6.333e-3
-1.536, 6.385e-3
-1.537, 6.427e-3
-1.538, 6.473e-3
-1.539, 6.491e-3
-1.540, 6.500e-3
-1.541, 6.496e-3
-1.542, 6.530e-3
-1.543, 6.607e-3
-1.544, 6.670e-3
-1.545, 6.702e-3
-1.546, 6.712e-3
-1.547, 6.740e-3
-1.548, 6.809e-3
-1.549, 6.917e-3
-1.550, 7.097e-3
-1.551, 7.158e-3
-1.552, 7.134e-3
-1.553, 7.097e-3
-1.554, 7.040e-3
-1.555, 7.098e-3
-1.556, 7.198e-3
-1.557, 7.255e-3
-1.558, 7.287e-3
-1.559, 7.226e-3
-1.560, 7.224e-3
-1.561, 7.255e-3
-1.562, 7.381e-3
-1.563, 7.482e-3
-1.564, 7.539e-3
-1.565, 7.520e-3
-1.566, 7.483e-3
-1.567, 7.489e-3
-1.568, 7.579e-3
-1.569, 7.659e-3
-1.570, 7.760e-3
-1.571, 7.788e-3
-1.572, 7.758e-3
-1.573, 7.754e-3
-1.574, 7.791e-3
-1.575, 7.907e-3
-1.576, 7.986e-3
-1.577, 8.030e-3
-1.578, 8.012e-3
-1.579, 8.007e-3
-1.580, 8.075e-3
-1.581, 8.111e-3
-1.582, 8.191e-3
-1.583, 8.233e-3
-1.584, 8.228e-3
-1.585, 8.201e-3
-1.586, 8.201e-3
-1.587, 8.254e-3
-1.588, 8.322e-3
-1.589, 8.471e-3
-1.590, 8.609e-3
-1.591, 8.577e-3
-1.592, 8.523e-3
-1.593, 8.511e-3
-1.594, 8.513e-3
-1.595, 8.606e-3
-1.596, 8.661e-3
-1.597, 8.709e-3
-1.598, 8.818e-3
-1.599, 8.861e-3
-1.600, 8.826e-3
-1.599, 8.744e-3
-1.598, 8.645e-3
-1.597, 8.592e-3
-1.596, 8.507e-3
-1.595, 8.437e-3
-1.594, 8.436e-3
-1.593, 8.342e-3
-1.592, 8.247e-3
-1.591, 8.161e-3
-1.590, 8.136e-3
-1.589, 8.111e-3
-1.588, 8.054e-3
-1.587, 7.996e-3
-1.586, 7.903e-3
-1.585, 7.819e-3
-1.584, 7.732e-3
-1.583, 7.707e-3
-1.582, 7.671e-3
-1.581, 7.615e-3
-1.580, 7.543e-3
-1.579, 7.482e-3
-1.578, 7.429e-3
-1.577, 7.388e-3
-1.576, 7.322e-3
-1.575, 7.308e-3
-1.574, 7.260e-3
-1.573, 7.133e-3
-1.572, 7.054e-3
-1.571, 7.013e-3
-1.570, 7.028e-3
-1.569, 7.076e-3
-1.568, 7.050e-3
-1.567, 7.005e-3
-1.566, 6.903e-3
-1.565, 6.825e-3
-1.564, 6.803e-3
-1.563, 6.778e-3
-1.562, 6.744e-3
-1.561, 6.690e-3
-1.560, 6.654e-3
-1.559, 6.605e-3
-1.558, 6.554e-3
-1.557, 6.499e-3
-1.556, 6.384e-3
-1.555, 6.314e-3
-1.554, 6.266e-3
-1.553, 6.272e-3
-1.552, 6.243e-3
-1.551, 6.195e-3
-1.550, 6.127e-3
-1.549, 6.044e-3
-1.548, 5.993e-3
-1.547, 5.933e-3
-1.546, 5.929e-3
-1.545, 5.913e-3
-1.544, 5.880e-3
-1.543, 5.769e-3
-1.542, 5.644e-3
-1.541, 5.580e-3
-1.540, 5.599e-3
-1.539, 5.598e-3
-1.538, 5.609e-3
-1.537, 5.600e-3
-1.536, 5.537e-3
-1.535, 5.471e-3
-1.534, 5.448e-3
-1.533, 5.385e-3
-1.532, 5.331e-3
-1.531, 5.285e-3
-1.530, 5.259e-3
-1.529, 5.250e-3
-1.528, 5.240e-3
-1.527, 5.194e-3
-1.526, 5.104e-3
-1.525, 5.033e-3
-1.524, 4.980e-3
-1.523, 4.979e-3
-1.522, 4.973e-3
-1.521, 4.932e-3
-1.520, 4.886e-3
-1.519, 4.827e-3
-1.518, 4.760e-3
-1.517, 4.738e-3
-1.516, 4.698e-3
-1.515, 4.672e-3
-1.514, 4.623e-3
-1.513, 4.546e-3
-1.512, 4.502e-3
-1.511, 4.463e-3
-1.510, 4.433e-3
-1.509, 4.397e-3
-1.508, 4.358e-3
-1.507, 4.310e-3
-1.506, 4.260e-3
-1.505, 4.221e-3
-1.504, 4.199e-3
-1.503, 4.165e-3
-1.502, 4.114e-3
-1.501, 4.055e-3
-1.500, 4.003e-3
-1.499, 3.950e-3
-1.498, 3.893e-3
-1.497, 3.839e-3
-1.496, 3.802e-3
-1.495, 3.815e-3
-1.494, 3.837e-3
-1.493, 3.824e-3
-1.492, 3.719e-3
-1.491, 3.583e-3
-1.490, 3.516e-3
-1.489, 3.484e-3
-1.488, 3.544e-3
-1.487, 3.550e-3
-1.486, 3.525e-3
-1.485, 3.485e-3
-1.484, 3.407e-3
-1.483, 3.342e-3
-1.482, 3.308e-3
-1.481, 3.279e-3
-1.480, 3.260e-3
-1.479, 3.227e-3
-1.478, 3.192e-3
-1.477, 3.158e-3
-1.476, 3.101e-3
-1.475, 3.062e-3
-1.474, 3.027e-3
-1.473, 3.000e-3
-1.472, 2.985e-3
-1.471, 2.936e-3
-1.470, 2.897e-3
-1.469, 2.857e-3
-1.468, 2.818e-3
-1.467, 2.802e-3
-1.466, 2.777e-3
-1.465, 2.755e-3
-1.464, 2.721e-3
-1.463, 2.672e-3
-1.462, 2.637e-3
-1.461, 2.609e-3
-1.460, 2.589e-3
-1.459, 2.566e-3
-1.458, 2.534e-3
-1.457, 2.500e-3
-1.456, 2.448e-3
-1.455, 2.408e-3
-1.454, 2.394e-3
-1.453, 2.372e-3
-1.452, 2.363e-3
-1.451, 2.326e-3
-1.450, 2.285e-3
-1.449, 2.258e-3
-1.448, 2.250e-3
-1.447, 2.233e-3
-1.446, 2.202e-3
-1.445, 2.160e-3
-1.444, 2.115e-3
-1.443, 2.065e-3
-1.442, 2.058e-3
-1.441, 2.044e-3
-1.440, 2.011e-3
-1.439, 1.968e-3
-1.438, 1.935e-3
-1.437, 1.916e-3
-1.436, 1.902e-3
-1.435, 1.879e-3
-1.434, 1.846e-3
-1.433, 1.806e-3
-1.432, 1.784e-3
-1.431, 1.764e-3
-1.430, 1.740e-3
-1.429, 1.704e-3
-1.428, 1.668e-3
-1.427, 1.650e-3
-1.426, 1.664e-3
-1.425, 1.666e-3
-1.424, 1.617e-3
-1.423, 1.576e-3
-1.422, 1.511e-3
-1.421, 1.485e-3
-1.420, 1.497e-3
-1.419, 1.487e-3
-1.418, 1.467e-3
-1.417, 1.416e-3
-1.416, 1.375e-3
-1.415, 1.365e-3
-1.414, 1.366e-3
-1.413, 1.369e-3
-1.412, 1.341e-3
-1.411, 1.313e-3
-1.410, 1.271e-3
-1.409, 1.245e-3
-1.408, 1.242e-3
-1.407, 1.233e-3
-1.406, 1.212e-3
-1.405, 1.186e-3
-1.404, 1.151e-3
-1.403, 1.127e-3
-1.402, 1.118e-3
-1.401, 1.107e-3
-1.400, 1.092e-3
-1.399, 1.070e-3
-1.398, 1.045e-3
-1.397, 1.023e-3
-1.396, 9.983e-4
-1.395, 9.878e-4
-1.394, 9.759e-4
-1.393, 9.569e-4
-1.392, 9.375e-4
-1.391, 9.146e-4
-1.390, 8.965e-4
-1.389, 8.815e-4
-1.388, 8.701e-4
-1.387, 8.578e-4
-1.386, 8.390e-4
-1.385, 8.221e-4
-1.384, 8.060e-4
-1.383, 7.917e-4
-1.382, 7.821e-4
-1.381, 7.717e-4
-1.380, 7.547e-4
-1.379, 7.363e-4
-1.378, 7.213e-4
-1.377, 7.103e-4
-1.376, 7.022e-4
-1.375, 6.965e-4
-1.374, 6.775e-4
-1.373, 6.565e-4
-1.372, 6.461e-4
-1.371, 6.387e-4
-1.370, 6.306e-4
-1.369, 6.195e-4
-1.368, 6.115e-4
-1.367, 5.908e-4
-1.366, 5.681e-4
-1.365, 5.523e-4
-1.364, 5.410e-4
-1.363, 5.380e-4
-1.362, 5.364e-4
-1.361, 5.286e-4
-1.360, 5.111e-4
-1.359, 4.908e-4
-1.358, 4.780e-4
-1.357, 4.714e-4
-1.356, 4.676e-4
-1.355, 4.664e-4
-1.354, 4.580e-4
-1.353, 4.424e-4
-1.352, 4.296e-4
-1.351, 4.183e-4
-1.350, 4.136e-4
-1.349, 4.115e-4
-1.348, 4.047e-4
-1.347, 3.958e-4
-1.346, 3.826e-4
-1.345, 3.729e-4
-1.344, 3.642e-4
-1.343, 3.561e-4
-1.342, 3.531e-4
-1.341, 3.475e-4
-1.340, 3.375e-4
-1.339, 3.286e-4
-1.338, 3.208e-4
-1.337, 3.149e-4
-1.336, 3.091e-4
-1.335, 3.035e-4
-1.334, 2.964e-4
-1.333, 2.878e-4
-1.332, 2.818e-4
-1.331, 2.762e-4
-1.330, 2.692e-4
-1.329, 2.641e-4
-1.328, 2.574e-4
-1.327, 2.497e-4
-1.326, 2.428e-4
-1.325, 2.401e-4
-1.324, 2.363e-4
-1.323, 2.312e-4
-1.322, 2.274e-4
-1.321, 2.225e-4
-1.320, 2.132e-4
-1.319, 2.061e-4
-1.318, 2.053e-4
-1.317, 2.059e-4
-1.316, 1.989e-4
-1.315, 1.912e-4
-1.314, 1.819e-4
-1.313, 1.748e-4
-1.312, 1.770e-4
-1.311, 1.779e-4
-1.310, 1.714e-4
-1.309, 1.648e-4
-1.308, 1.587e-4
-1.307, 1.534e-4
-1.306, 1.504e-4
-1.305, 1.502e-4
-1.304, 1.473e-4
-1.303, 1.404e-4
-1.302, 1.363e-4
-1.301, 1.333e-4
-1.300, 1.296e-4
-1.299, 1.265e-4
-1.298, 1.241e-4
-1.297, 1.196e-4
-1.296, 1.159e-4
-1.295, 1.143e-4
-1.294, 1.110e-4
-1.293, 1.065e-4
-1.292, 1.039e-4
-1.291, 1.013e-4
-1.290, 9.787e-5
-1.289, 9.547e-5
-1.288, 9.467e-5
-1.287, 9.039e-5
-1.286, 8.679e-5
-1.285, 8.491e-5
-1.284, 8.233e-5
-1.283, 7.873e-5
-1.282, 7.770e-5
-1.281, 7.602e-5
-1.280, 7.222e-5
-1.279, 7.010e-5
-1.278, 6.873e-5
-1.277, 6.584e-5
-1.276, 6.351e-5
-1.275, 6.299e-5
-1.274, 5.995e-5
-1.273, 5.649e-5
-1.272, 5.504e-5
-1.271, 5.384e-5
-1.270, 5.167e-5
-1.269, 5.085e-5
-1.268, 5.036e-5
-1.267, 4.655e-5
-1.266, 4.366e-5
-1.265, 4.271e-5
-1.264, 4.115e-5
-1.263, 3.926e-5
-1.262, 3.866e-5
-1.261, 3.793e-5
-1.260, 3.417e-5
-1.259, 3.273e-5
-1.258, 3.266e-5
-1.257, 2.995e-5
-1.256, 2.828e-5
-1.255, 2.894e-5
-1.254, 2.686e-5
-1.253, 2.477e-5
-1.252, 2.427e-5
-1.251, 2.280e-5
-1.250, 2.039e-5
-1.249, 1.858e-5
-1.248, 1.970e-5
-1.247, 1.751e-5
-1.246, 1.554e-5
-1.245, 1.608e-5
-1.244, 1.438e-5
-1.243, 1.215e-5
-1.242, 1.249e-5
-1.241, 1.207e-5
-1.240, 9.657e-6
-1.239, 8.276e-6
-1.238, 8.404e-6
-1.237, 6.963e-6
-1.236, 5.947e-6
-1.235, 6.569e-6
-1.234, 5.296e-6
-1.233, 2.770e-6
-1.232, 3.145e-6
-1.231, 3.056e-6
-1.230, 1.261e-6
-1.229, -3.177e-7
-1.228, 2.841e-7
-1.227, -1.018e-6
-1.226, -2.034e-6
-1.225, -1.215e-6
-1.224, -2.666e-6
-1.223, -4.659e-6
-1.222, -4.363e-6
-1.221, -4.323e-6
-1.220, -5.330e-6
-1.219, -5.941e-6
-1.218, -5.339e-6
-1.217, -7.658e-6
-1.216, -8.408e-6
-1.215, -7.214e-6
-1.214, -8.280e-6
-1.213, -9.759e-6
-1.212, -9.562e-6
-1.211, -9.345e-6
-1.210, -1.110e-5
-1.209, -1.146e-5
-1.208, -1.011e-5
-1.207, -1.193e-5
-1.206, -1.317e-5
-1.205, -1.167e-5
-1.204, -1.268e-5
-1.203, -1.433e-5
-1.202, -1.355e-5
-1.201, -1.341e-5
-1.200, -1.515e-5
-1.199, -1.511e-5
-1.198, -1.419e-5
-1.197, -1.578e-5
-1.196, -1.680e-5
-1.195, -1.557e-5
-1.194, -1.600e-5
-1.193, -1.769e-5
-1.192, -1.676e-5
-1.191, -1.672e-5
-1.190, -1.840e-5
-1.189, -1.818e-5
-1.188, -1.713e-5
-1.187, -1.868e-5
-1.186, -1.945e-5
-1.185, -1.862e-5
-1.184, -1.894e-5
-1.183, -2.014e-5
-1.182, -1.925e-5
-1.181, -1.885e-5
-1.180, -2.091e-5
-1.179, -2.090e-5
-1.178, -1.980e-5
-1.177, -2.103e-5
-1.176, -2.168e-5
-1.175, -2.038e-5
-1.174, -2.145e-5
-1.173, -2.233e-5
-1.172, -2.150e-5
-1.171, -2.118e-5
-1.170, -2.215e-5
-1.169, -2.263e-5
-1.168, -2.143e-5
-1.167, -2.307e-5
-1.166, -2.425e-5
-1.165, -2.224e-5
-1.164, -2.271e-5
-1.163, -2.382e-5
-1.162, -2.284e-5
-1.161, -2.290e-5
-1.160, -2.448e-5
-1.159, -2.436e-5
-1.158, -2.312e-5
-1.157, -2.394e-5
-1.156, -2.496e-5
-1.155, -2.369e-5
-1.154, -2.479e-5
-1.153, -2.620e-5
-1.152, -2.511e-5
-1.151, -2.414e-5
-1.150, -2.509e-5
-1.149, -2.497e-5
-1.148, -2.451e-5
-1.147, -2.612e-5
-1.146, -2.693e-5
-1.145, -2.535e-5
-1.144, -2.541e-5
-1.143, -2.614e-5
-1.142, -2.529e-5
-1.141, -2.562e-5
-1.140, -2.749e-5
-1.139, -2.719e-5
-1.138, -2.497e-5
-1.137, -2.614e-5
-1.136, -2.693e-5
-1.135, -2.598e-5
-1.134, -2.726e-5
-1.133, -2.787e-5
-1.132, -2.637e-5
-1.131, -2.576e-5
-1.130, -2.725e-5
-1.129, -2.789e-5
-1.128, -2.653e-5
-1.127, -2.767e-5
-1.126, -2.834e-5
-1.125, -2.635e-5
-1.124, -2.767e-5
-1.123, -2.917e-5
-1.122, -2.794e-5
-1.121, -2.700e-5
-1.120, -2.790e-5
-1.119, -2.779e-5
-1.118, -2.738e-5
-1.117, -2.900e-5
-1.116, -2.989e-5
-1.115, -2.793e-5
-1.114, -2.809e-5
-1.113, -2.947e-5
-1.112, -2.822e-5
-1.111, -2.799e-5
-1.110, -2.972e-5
-1.109, -2.942e-5
-1.108, -2.797e-5
-1.107, -2.906e-5
-1.106, -2.993e-5
-1.105, -2.864e-5
-1.104, -2.916e-5
-1.103, -3.030e-5
-1.102, -2.876e-5
-1.101, -2.827e-5
-1.100, -2.983e-5
-1.099, -3.010e-5
-1.098, -2.911e-5
-1.097, -3.096e-5
-1.096, -3.143e-5
-1.095, -2.936e-5
-1.094, -2.985e-5
-1.093, -3.131e-5
-1.092, -3.035e-5
-1.091, -2.996e-5
-1.090, -3.128e-5
-1.089, -3.117e-5
-1.088, -2.965e-5
-1.087, -3.124e-5
-1.086, -3.201e-5
-1.085, -3.031e-5
-1.084, -3.058e-5
-1.083, -3.195e-5
-1.082, -3.089e-5
-1.081, -3.053e-5
-1.080, -3.228e-5
-1.079, -3.184e-5
-1.078, -3.035e-5
-1.077, -3.122e-5
-1.076, -3.298e-5
-1.075, -3.143e-5
-1.074, -3.173e-5
-1.073, -3.296e-5
-1.072, -3.126e-5
-1.071, -3.095e-5
-1.070, -3.296e-5
-1.069, -3.265e-5
-1.068, -3.150e-5
-1.067, -3.277e-5
-1.066, -3.320e-5
-1.065, -3.123e-5
-1.064, -3.246e-5
-1.063, -3.390e-5
-1.062, -3.289e-5
-1.061, -3.207e-5
-1.060, -3.368e-5
-1.059, -3.344e-5
-1.058, -3.190e-5
-1.057, -3.347e-5
-1.056, -3.432e-5
-1.055, -3.225e-5
-1.054, -3.300e-5
-1.053, -3.436e-5
-1.052, -3.307e-5
-1.051, -3.287e-5
-1.050, -3.442e-5
-1.049, -3.429e-5
-1.048, -3.250e-5
-1.047, -3.364e-5
-1.046, -3.468e-5
-1.045, -3.293e-5
-1.044, -3.411e-5
-1.043, -3.527e-5
-1.042, -3.360e-5
-1.041, -3.343e-5
-1.040, -3.466e-5
-1.039, -3.447e-5
-1.038, -3.312e-5
-1.037, -3.464e-5
-1.036, -3.553e-5
-1.035, -3.402e-5
-1.034, -3.422e-5
-1.033, -3.601e-5
-1.032, -3.419e-5
-1.031, -3.375e-5
-1.030, -3.527e-5
-1.029, -3.495e-5
-1.028, -3.387e-5
-1.027, -3.566e-5
-1.026, -3.628e-5
-1.025, -3.458e-5
-1.024, -3.477e-5
-1.023, -3.603e-5
-1.022, -3.544e-5
-1.021, -3.484e-5
-1.020, -3.698e-5
-1.019, -3.619e-5
-1.018, -3.437e-5
-1.017, -3.643e-5
-1.016, -3.662e-5
-1.015, -3.461e-5
-1.014, -3.553e-5
-1.013, -3.702e-5
-1.012, -3.560e-5
-1.011, -3.531e-5
-1.010, -3.723e-5
-1.009, -3.698e-5
-1.008, -3.465e-5
-1.007, -3.607e-5
-1.006, -3.721e-5
-1.005, -3.588e-5
-1.004, -3.663e-5
-1.003, -3.851e-5
-1.002, -3.665e-5
-1.001, -3.587e-5
