Potential V vs RHE, Current mA cm-2
0.013299999999999867,0.17231183632356148
0.012299999999999978,-1.3543031273607997
0.011299999999999866,-2.706342716641815
0.010299999999999976,-3.927238568425342
0.009299999999999864,-5.017980980621284
0.008299999999999974,-5.9347139029338285
0.007299999999999862,-6.719878674358924
0.006299999999999972,-7.329619244600755
0.00529999999999986,-7.853062425550818
0.0042999999999999705,-8.288793505909249
0.0032999999999998586,-8.68208324727173
0.0022999999999999687,-9.11781432763016
0.0012999999999998568,-9.55496011928846
0.00029999999999996696,-9.99069119964689
-0.000700000000000145,-10.470278330301136
-0.0017000000000000348,-10.863568071663616
-0.0027000000000001467,-11.1677310011346
-0.0037000000000000366,-11.42945259160963
-0.0047000000000001485,-11.604876792792895
-0.005700000000000038,-11.691174182084664
-0.00670000000000015,-11.86659838326793
-0.00770000000000004,-11.996751822855511
-0.008700000000000152,-12.258473413330542
-0.009700000000000042,-12.56405105410139
-0.010700000000000154,-12.825772644576423
-0.011700000000000044,-13.043638184755638
-0.012700000000000156,-13.217647674639037
-0.013700000000000045,-13.349215825526485
-0.014700000000000157,-13.349215825526485
-0.015700000000000047,-13.349215825526485
-0.01670000000000016,-13.3930718758223
-0.01770000000000005,-13.47936926511407
-0.01870000000000016,-13.610937416001518
-0.01970000000000005,-13.828802956180734
-0.020700000000000163,-14.002812446064135
-0.021700000000000053,-14.175407224647667
-0.022700000000000164,-14.30273124163552
-0.023700000000000054,-14.30273124163552
-0.024700000000000166,-14.30273124163552
-0.025700000000000056,-14.30273124163552
-0.026700000000000168,-14.30273124163552
-0.027700000000000058,-14.401761032626075
-0.02870000000000017,-14.486643710617974
-0.02970000000000006,-14.65640906660178
-0.03070000000000017,-14.826174422585586
-0.03170000000000006,-14.967645552572087
-0.03270000000000017,-15.094969569559943
-0.03370000000000006,-15.094969569559943
-0.034700000000000175,-15.094969569559943
-0.035700000000000065,-15.094969569559943
-0.03670000000000018,-15.094969569559943
-0.03770000000000007,-15.094969569559943
-0.03870000000000018,-15.222293586547794
-0.03970000000000007,-15.3920589425316
-0.04070000000000018,-15.533530072518102
-0.04170000000000007,-15.70329542850191
-0.04270000000000018,-15.74573676749786
-0.04370000000000007,-15.74573676749786
-0.044700000000000184,-15.70329542850191
-0.045700000000000074,-15.618412750510005
-0.046700000000000186,-15.575971411514052
-0.047700000000000076,-15.575971411514052
-0.04870000000000019,-15.660854089505953
-0.04970000000000008,-15.78817810649381
-0.05070000000000019,-15.972090575476265
-0.05170000000000008,-16.141855931460068
-0.05270000000000019,-16.22673860945197
-0.05370000000000008,-16.269179948447924
-0.05470000000000019,-16.269179948447924
-0.05570000000000008,-16.269179948447924
-0.056700000000000195,-16.269179948447924
-0.057700000000000085,-16.311621287443874
-0.058700000000000196,-16.396503965435777
-0.059700000000000086,-16.53797509542228
-0.0607000000000002,-16.665299112410132
-0.06170000000000009,-16.70774045140608
-0.0627000000000002,-16.750181790402035
-0.06370000000000009,-16.70774045140608
-0.0647000000000002,-16.622857773414182
-0.06570000000000009,-16.495533756426326
-0.0667000000000002,-16.495533756426326
-0.0677000000000001,-16.580416434418233
-0.0687000000000002,-16.70774045140608
-0.0697000000000001,-16.877505807389888
-0.07070000000000021,-17.061418276372343
-0.0717000000000001,-17.146300954364243
-0.07270000000000021,-17.2736249713521
-0.0737000000000001,-17.231183632356142
-0.07470000000000021,-17.146300954364243
-0.0757000000000001,-17.061418276372343
-0.07670000000000021,-17.018976937376394
-0.0777000000000001,-16.962388485381787
-0.07870000000000021,-17.061418276372343
-0.0797000000000001,-17.188742293360193
-0.08070000000000022,-17.316066310348052
-0.0817000000000001,-17.40094898833995
-0.08270000000000022,-17.48583166633185
-0.08370000000000011,-17.48583166633185
-0.08470000000000022,-17.4433903273359
-0.08570000000000011,-17.40094898833995
-0.08670000000000022,-17.358507649344002
-0.08770000000000011,-17.40094898833995
-0.08870000000000022,-17.48583166633185
-0.08970000000000011,-17.627302796318357
-0.09070000000000022,-17.797068152302163
-0.09170000000000011,-17.881950830294063
-0.09270000000000023,-17.966833508285966
-0.09370000000000012,-17.924392169290012
-0.09470000000000023,-17.839509491298113
-0.09570000000000012,-17.797068152302163
-0.09670000000000023,-17.75462681330621
-0.09770000000000012,-17.75462681330621
-0.09870000000000023,-17.839509491298113
-0.09970000000000012,-17.924392169290012
-0.10070000000000023,-18.10830463827247
-0.10170000000000012,-18.23562865526032
-0.10270000000000024,-18.27806999425627
-0.10370000000000013,-18.27806999425627
-0.10470000000000024,-18.23562865526032
-0.10570000000000013,-18.19318731626437
-0.10670000000000024,-18.15074597726842
-0.10770000000000013,-18.15074597726842
-0.10870000000000024,-18.23562865526032
-0.10970000000000013,-18.362952672248177
-0.11070000000000024,-18.53271802823198
-0.11170000000000013,-18.631747819222536
-0.11270000000000002,-18.674189158218486
-0.11370000000000013,-18.674189158218486
-0.11470000000000002,-18.631747819222536
-0.11570000000000014,-18.53271802823198
-0.11670000000000003,-18.49027668923603
-0.11770000000000014,-18.49027668923603
-0.11870000000000003,-18.53271802823198
-0.11970000000000014,-18.631747819222536
-0.12070000000000003,-18.80151317520634
-0.12170000000000014,-18.88639585319824
-0.12270000000000003,-18.92883719219419
-0.12370000000000014,-18.92883719219419
-0.12470000000000003,-18.843954514202288
-0.12570000000000014,-18.80151317520634
-0.12670000000000003,-18.80151317520634
-0.12770000000000015,-18.80151317520634
-0.12870000000000004,-18.92883719219419
-0.12970000000000015,-19.112749661176647
-0.13070000000000004,-19.2400736781645
-0.13170000000000015,-19.367397695152352
-0.13270000000000004,-19.49472171214021
-0.13370000000000015,-19.49472171214021
-0.13470000000000004,-19.409839034148305
-0.13570000000000015,-19.367397695152352
-0.13670000000000004,-19.3249563561564
-0.13770000000000016,-19.3249563561564
-0.13870000000000005,-19.367397695152352
-0.13970000000000016,-19.49472171214021
-0.14070000000000005,-19.579604390132108
-0.14170000000000016,-19.721075520118614
-0.14270000000000005,-19.763516859114564
-0.14370000000000016,-19.721075520118614
-0.14470000000000005,-19.678634181122664
-0.14570000000000016,-19.636192842126707
-0.14670000000000005,-19.537163051136158
-0.14770000000000016,-19.579604390132108
-0.14870000000000005,-19.678634181122664
-0.14970000000000017,-19.805958198110513
-0.15070000000000006,-19.93328221509837
-0.15170000000000017,-20.06060623208622
-0.15270000000000006,-20.10304757108217
-0.15370000000000017,-20.159636023076775
-0.15470000000000006,-20.10304757108217
-0.15570000000000017,-20.01816489309027
-0.15670000000000006,-19.97572355409432
-0.15770000000000017,-20.01816489309027
-0.15870000000000006,-20.10304757108217
-0.15970000000000018,-20.244518701068674
-0.16070000000000007,-20.414284057052477
-0.16170000000000018,-20.499166735044383
-0.16270000000000007,-20.541608074040333
-0.16370000000000018,-20.541608074040333
-0.16470000000000007,-20.499166735044383
-0.16570000000000018,-20.414284057052477
-0.16670000000000007,-20.414284057052477
-0.16770000000000018,-20.371842718056527
-0.16870000000000007,-20.456725396048434
-0.16970000000000018,-20.584049413036283
-0.17070000000000007,-20.72552054302279
-0.17170000000000019,-20.810403221014692
-0.17270000000000008,-20.89528589900659
-0.1737000000000002,-20.89528589900659
-0.17470000000000008,-20.85284456001064
-0.1757000000000002,-20.76796188201874
-0.17670000000000008,-20.76796188201874
-0.1777000000000002,-20.76796188201874
-0.17870000000000008,-20.810403221014692
-0.1797000000000002,-20.980168576998494
-0.18070000000000008,-21.107492593986347
-0.1817000000000002,-21.2065223849769
-0.18270000000000008,-21.291405062968803
-0.1837000000000002,-21.291405062968803
-0.1847000000000001,-21.2065223849769
-0.1857000000000002,-21.149933932982297
-0.1867000000000001,-21.107492593986347
-0.1877000000000002,-21.107492593986347
-0.1887000000000001,-21.2065223849769
-0.1897000000000002,-21.376287740960702
-0.1907000000000001,-21.503611757948562
-0.1917000000000001,-21.58849443594046
-0.19269999999999998,-21.67337711393236
-0.1937000000000001,-21.67337711393236
-0.19469999999999998,-21.63093577493641
-0.1957000000000001,-21.54605309694451
-0.19669999999999999,-21.503611757948562
-0.1977000000000001,-21.54605309694451
-0.1987,-21.63093577493641
-0.1997000000000001,-21.772406904922917
-0.2007,-21.94217226090672
-0.2017000000000001,-22.027054938898623
-0.2027,-22.111937616890522
-0.2037000000000001,-22.111937616890522
-0.2047,-22.069496277894572
-0.2057000000000001,-22.027054938898623
-0.2067,-21.98461359990267
-0.2077000000000001,-21.98461359990267
-0.2087,-22.111937616890522
-0.2097000000000001,-22.253408746877028
-0.2107,-22.38073276386488
-0.2117000000000001,-22.508056780852733
-0.2127,-22.550498119848687
-0.2137000000000001,-22.550498119848687
-0.2147,-22.508056780852733
-0.2157000000000001,-22.508056780852733
-0.2167,-22.508056780852733
-0.21770000000000012,-22.508056780852733
-0.2187,-22.550498119848687
-0.21970000000000012,-22.67782213683654
-0.2207,-22.819293266823045
-0.22170000000000012,-22.904175944814945
-0.2227,-22.946617283810895
-0.22370000000000012,-22.989058622806844
-0.2247,-22.946617283810895
-0.22570000000000012,-22.904175944814945
-0.2267,-22.904175944814945
-0.22770000000000012,-22.946617283810895
-0.22870000000000001,-23.073941300798747
-0.22970000000000013,-23.24370665678255
-0.23070000000000002,-23.427619125765005
-0.23170000000000013,-23.51250180375691
-0.23270000000000002,-23.597384481748815
-0.23370000000000013,-23.597384481748815
-0.23470000000000002,-23.55494314275286
-0.23570000000000013,-23.51250180375691
-0.23670000000000002,-23.47006046476096
-0.2376999999999999,-23.47006046476096
-0.23870000000000002,-23.55494314275286
-0.2396999999999999,-23.682267159740714
-0.24070000000000003,-23.767149837732617
-0.24169999999999991,-23.908620967719123
-0.24270000000000003,-23.993503645711023
-0.24369999999999992,-24.035944984706973
-0.24470000000000003,-23.993503645711023
-0.24569999999999992,-23.908620967719123
-0.24670000000000003,-23.908620967719123
-0.24769999999999992,-23.908620967719123
-0.24870000000000003,-24.035944984706973
-0.24969999999999992,-24.16326900169483
-0.25070000000000003,-24.290593018682678
-0.2516999999999999,-24.432064148669184
-0.25270000000000004,-24.474505487665134
-0.2536999999999999,-24.474505487665134
-0.25470000000000004,-24.474505487665134
-0.2556999999999999,-24.432064148669184
-0.25670000000000004,-24.389622809673234
-0.25769999999999993,-24.389622809673234
-0.25870000000000004,-24.474505487665134
-0.25969999999999993,-24.601829504652986
-0.26070000000000004,-24.729153521640843
-0.26169999999999993,-24.814036199632742
-0.26270000000000004,-24.870624651627345
-0.26369999999999993,-24.870624651627345
-0.26470000000000005,-24.814036199632742
-0.26569999999999994,-24.771594860636792
-0.26670000000000005,-24.729153521640843
-0.26769999999999994,-24.729153521640843
-0.26870000000000005,-24.814036199632742
-0.26969999999999994,-24.9130659906233
-0.27070000000000005,-25.0828313466071
-0.27169999999999994,-25.167714024599
-0.27270000000000005,-25.252596702590903
-0.27369999999999994,-25.295038041586857
-0.27470000000000006,-25.252596702590903
-0.27569999999999995,-25.210155363594954
-0.27670000000000006,-25.210155363594954
-0.27769999999999995,-25.167714024599
-0.27870000000000006,-25.210155363594954
-0.27969999999999995,-25.295038041586857
-0.28070000000000006,-25.39406783257741
-0.28169999999999995,-25.39406783257741
-0.28270000000000006,-25.43650917157336
-0.28369999999999995,-25.39406783257741
-0.28470000000000006,-25.295038041586857
-0.28569999999999995,-25.210155363594954
-0.28670000000000007,-25.167714024599
-0.28769999999999996,-25.167714024599
-0.28870000000000007,-25.252596702590903
-0.28969999999999996,-25.39406783257741
-0.29070000000000007,-25.521391849565262
-0.29169999999999996,-25.60627452755716
-0.29270000000000007,-25.648715866553115
-0.29369999999999996,-25.563833188561212
-0.2947000000000001,-25.43650917157336
-0.29569999999999996,-25.337479380582806
-0.2967000000000001,-25.252596702590903
-0.29769999999999996,-25.210155363594954
-0.2987000000000001,-25.252596702590903
-0.29969999999999997,-25.39406783257741
-0.3007000000000001,-25.478950510569312
-0.30169999999999997,-25.521391849565262
-0.3027000000000001,-25.60627452755716
-0.30369999999999997,-25.521391849565262
-0.3047000000000001,-25.43650917157336
-0.30569999999999997,-25.337479380582806
-0.3067000000000001,-25.295038041586857
-0.3077,-25.295038041586857
-0.3087000000000001,-25.337479380582806
-0.3097,-25.478950510569312
-0.3107000000000001,-25.521391849565262
-0.3117,-25.563833188561212
-0.3127000000000001,-25.521391849565262
-0.3137,-25.39406783257741
-0.3147000000000001,-25.252596702590903
-0.3157,-25.0828313466071
-0.3167000000000001,-24.997948668615198
-0.3177,-24.95550732961925
-0.3187000000000001,-25.04039000761115
-0.3197,-25.12527268560305
-0.3207000000000001,-25.252596702590903
-0.3217,-25.39406783257741
-0.3227000000000001,-25.478950510569312
-0.3237,-25.478950510569312
-0.3247000000000001,-25.39406783257741
-0.3257,-25.252596702590903
-0.3267000000000001,-25.167714024599
-0.3277,-25.12527268560305
-0.3287000000000001,-25.12527268560305
-0.3297,-25.210155363594954
-0.3307000000000001,-25.252596702590903
-0.3317,-25.252596702590903
-0.3327000000000001,-25.167714024599
-0.3337,-25.04039000761115
-0.3347000000000001,-24.9130659906233
-0.3357,-24.729153521640843
-0.3367000000000001,-24.64427084364894
-0.3377,-24.601829504652986
-0.3387000000000001,-24.64427084364894
-0.3397,-24.771594860636792
-0.3407000000000001,-24.9130659906233
-0.3417,-24.997948668615198
-0.3427000000000001,-25.0828313466071
-0.3437,-25.0828313466071
-0.3447000000000001,-24.997948668615198
-0.3457,-24.9130659906233
-0.3467000000000001,-24.870624651627345
-0.3477,-24.814036199632742
-0.3487000000000001,-24.870624651627345
-0.3497,-24.95550732961925
-0.3507000000000001,-25.04039000761115
-0.3517,-25.12527268560305
-0.3527000000000001,-25.210155363594954
-0.3537,-25.210155363594954
-0.3547000000000001,-25.210155363594954
-0.3557,-25.167714024599
-0.35670000000000013,-25.12527268560305
-0.3577,-25.167714024599
-0.35870000000000013,-25.252596702590903
-0.3597,-25.39406783257741
-0.36070000000000013,-25.521391849565262
-0.3617,-25.691157205549064
-0.3626999999999999,-25.73359854454502
-0.3637,-25.77603988354097
-0.3646999999999999,-25.73359854454502
-0.3657,-25.691157205549064
-0.3666999999999999,-25.648715866553115
-0.3677,-25.691157205549064
-0.3686999999999999,-25.81848122253692
-0.36970000000000003,-26.002393691519377
-0.3706999999999999,-26.17215904750318
-0.37170000000000003,-26.34192440348698
-0.3726999999999999,-26.483395533473487
-0.37370000000000003,-26.525836872469437
-0.3746999999999999,-26.483395533473487
-0.37570000000000003,-26.38436574248293
-0.3766999999999999,-26.38436574248293
-0.37770000000000004,-26.440954194477534
-0.3786999999999999,-26.568278211465387
-0.37970000000000004,-26.738043567449193
-0.3806999999999999,-27.00683871442355
-0.38170000000000004,-27.176604070407354
-0.38269999999999993,-27.34636942639116
-0.38370000000000004,-27.43125210438306
-0.38469999999999993,-27.487840556377662
-0.38570000000000004,-27.487840556377662
-0.38669999999999993,-27.487840556377662
-0.38770000000000004,-27.615164573365515
-0.38869999999999993,-27.742488590353368
-0.38970000000000005,-28.011283737327723
-0.39069999999999994,-28.22349043230748
-0.39170000000000005,-28.435697127287238
-0.39269999999999994,-28.662050935265643
-0.39370000000000005,-28.831816291249446
-0.39469999999999994,-28.8742576302454
-0.39570000000000005,-29.001581647233255
-0.39669999999999994,-29.100611438223805
-0.39770000000000005,-29.27037679420761
-0.39869999999999994,-29.482583489187363
-0.39970000000000006,-29.751378636161718
-0.40069999999999995,-30.04846800913338
-0.40170000000000006,-30.317263156107735
-0.40269999999999995,-30.571911190083444
-0.40370000000000006,-30.79826499806185
-0.40469999999999995,-30.925589015049702
-0.40570000000000006,-31.095354371033505
-0.40669999999999995,-31.23682550102001
-0.40770000000000006,-31.449032195999767
-0.40869999999999995,-31.76026868197007
-0.40970000000000006,-32.01491671594578
-0.41069999999999995,-32.368594540912035
-0.41170000000000007,-32.62324257488775
-0.41269999999999996,-32.892037721862096
-0.41370000000000007,-33.06180307784591
-0.41469999999999996,-33.231568433829715
-0.41570000000000007,-33.41548090281216
-0.41669999999999996,-33.627687597791926
-0.41770000000000007,-33.89648274476628
-0.41869999999999996,-34.236013456733886
-0.4197000000000001,-34.632132620696105
-0.42069999999999996,-35.02825178465831
-0.4217000000000001,-35.46681228761647
-0.42269999999999996,-35.806342999584075
-0.4237000000000001,-36.11757948555439
-0.42469999999999997,-36.37222751953009
-0.4257000000000001,-36.64102266650445
-0.42669999999999997,-36.95225915247476
-0.4277000000000001,-37.249348525446415
-0.42869999999999997,-37.645467689408626
-0.4297000000000001,-38.08402819236679
-0.43069999999999997,-38.5650300343209
-0.4317000000000001,-38.94700208528445
-0.4327,-39.30067991025072
-0.4337000000000001,-39.654357735216976
-0.4347,-39.95144710818864
-0.4357000000000001,-40.220242255162994
-0.4367,-40.559772967130606
-0.4377000000000001,-40.95589213109281
-0.4387,-41.43689397304693
-0.4397000000000001,-42.00277849299294
-0.4407,-42.526221673943
-0.4417000000000001,-43.007223515897124
-0.4427,-43.44578401885527
-0.4437000000000001,-43.75702050482558
-0.4447,-43.96922719980534
-0.4457000000000001,-44.223875233781044
-0.4467,-44.577553058747306
-0.4477000000000001,-44.97367222270952
-0.4487,-45.497115403659585
-0.4497000000000001,-46.062999923605595
-0.4507,-46.713767121543505
-0.4517000000000001,-47.32209298048547
-0.4527,-47.93041883942744
-0.4537000000000001,-48.45386202037751
-0.4547,-48.97730520132757
-0.4557000000000001,-49.50074838227763
-0.4567,-50.024191563227696
-0.4577000000000001,-50.547634744177756
-0.4587,-51.127666377122424
-0.4597000000000001,-51.77843357506035
-0.4607,-52.386759434002315
-0.4617000000000001,-53.03752663194023
-0.4627,-53.603411151886235
-0.4637000000000001,-54.08441299384035
-0.4647,-54.56541483579447
-0.4657000000000001,-55.003975338752625
-0.4667,-55.484977180706736
-0.4677000000000001,-56.008420361656796
-0.4687,-56.57430488160282
-0.4697000000000001,-57.26751341853669
-0.4707,-57.974869068469204
-0.4717000000000001,-58.71051894439902
-0.4727,-59.403727481332886
-0.4737000000000001,-59.9696120012789
-0.4747,-60.59208497321952
-0.4757000000000001,-61.20041083216149
-0.4767,-61.851178030099405
-0.4777000000000001,-62.58682790602922
-0.4787,-63.37906623395363
-0.4797000000000001,-64.25618723986996
-0.4807,-65.11916113278764
-0.48170000000000013,-65.95384079970802
-0.4827,-66.68949067563783
-0.48370000000000013,-67.39684632557035
-0.4847,-68.04761352350828
-0.48570000000000013,-68.61349804345427
-0.4867,-69.26426524139221
-0.4876999999999999,-69.91503243933012
-0.4887,-70.62238808926263
-0.4896999999999999,-71.44292064318435
-0.4907,-72.32004164910067
-0.4916999999999999,-73.197162655017
-0.4927,-74.06013654793468
-0.4936999999999999,-74.89481621485504
-0.49470000000000003,-75.6729074297808
-0.4956999999999999,-76.46514575770523
-0.49670000000000003,-77.28567831162695
-0.4976999999999999,-78.16279931754329
-0.49870000000000003,-79.08236166245555
-0.4996999999999999,-80.08680668535972
-0.5007,-81.04881036926795
-0.5016999999999999,-81.95422560118158
-0.5027,-82.87378794609386
-0.5036999999999999,-83.70846761301424
-0.5047,-84.48655882793999
-0.5056999999999999,-85.32123849486035
-0.5067,-86.09932970978613
