Sept. 18, 2024   04:40:56
Cyclic Voltammetry
File: c:/users/guazh/data/20240903_batch_252_500/2024-09-03-exp385\exp385-2024-09-18t04_24_28-h2koh\exp385_cv_50mvs_efin_-1700mv.bin
Data Source:  Experiment
Instrument Model:  CHI760E
Header: CV ran at 50 mVs
Note: 

Init E (V) = -1
High E (V) = -1
Low E (V) = -1.7
Final E (V) = -1
Init P/N = N
Scan Rate (V/s) = 0.05
Segment = 7
Sample Interval (V) = 0.001
Quiet Time (sec) = 60
Sensitivity (A/V) = 0.001
Comp R (ohm) = 2.4

Results:

Channel 1:
Segment 1:

Segment 2:

Segment 3:

Segment 4:

Segment 5:

Segment 6:

Segment 7:

Potential/V, Current/A

-1.000, 2.090e-7
-1.001, 3.875e-7
-1.002, 4.418e-7
-1.003, 4.941e-7
-1.004, 6.154e-7
-1.005, 6.411e-7
-1.006, 7.220e-7
-1.007, 7.733e-7
-1.008, 7.713e-7
-1.009, 7.960e-7
-1.010, 8.710e-7
-1.011, 8.680e-7
-1.012, 9.203e-7
-1.013, 9.627e-7
-1.014, 1.000e-6
-1.015, 1.017e-6
-1.016, 1.049e-6
-1.017, 1.070e-6
-1.018, 1.122e-6
-1.019, 1.129e-6
-1.020, 1.181e-6
-1.021, 1.207e-6
-1.022, 1.175e-6
-1.023, 1.216e-6
-1.024, 1.263e-6
-1.025, 1.254e-6
-1.026, 1.311e-6
-1.027, 1.308e-6
-1.028, 1.312e-6
-1.029, 1.364e-6
-1.030, 1.351e-6
-1.031, 1.355e-6
-1.032, 1.458e-6
-1.033, 1.432e-6
-1.034, 1.420e-6
-1.035, 1.450e-6
-1.036, 1.431e-6
-1.037, 1.484e-6
-1.038, 1.478e-6
-1.039, 1.521e-6
-1.040, 1.564e-6
-1.041, 1.533e-6
-1.042, 1.521e-6
-1.043, 1.534e-6
-1.044, 1.526e-6
-1.045, 1.559e-6
-1.046, 1.603e-6
-1.047, 1.604e-6
-1.048, 1.594e-6
-1.049, 1.621e-6
-1.050, 1.633e-6
-1.051, 1.684e-6
-1.052, 1.654e-6
-1.053, 1.695e-6
-1.054, 1.715e-6
-1.055, 1.716e-6
-1.056, 1.756e-6
-1.057, 1.800e-6
-1.058, 1.744e-6
-1.059, 1.810e-6
-1.060, 1.779e-6
-1.061, 1.775e-6
-1.062, 1.795e-6
-1.063, 1.820e-6
-1.064, 1.858e-6
-1.065, 1.921e-6
-1.066, 1.855e-6
-1.067, 1.907e-6
-1.068, 1.887e-6
-1.069, 1.876e-6
-1.070, 1.923e-6
-1.071, 1.886e-6
-1.072, 1.818e-6
-1.073, 1.827e-6
-1.074, 1.809e-6
-1.075, 1.819e-6
-1.076, 1.874e-6
-1.077, 1.881e-6
-1.078, 1.893e-6
-1.079, 1.961e-6
-1.080, 1.896e-6
-1.081, 1.904e-6
-1.082, 1.956e-6
-1.083, 1.952e-6
-1.084, 1.964e-6
-1.085, 1.982e-6
-1.086, 1.939e-6
-1.087, 2.009e-6
-1.088, 2.010e-6
-1.089, 1.996e-6
-1.090, 2.071e-6
-1.091, 2.057e-6
-1.092, 2.100e-6
-1.093, 2.054e-6
-1.094, 1.988e-6
-1.095, 2.022e-6
-1.096, 2.044e-6
-1.097, 2.077e-6
-1.098, 2.202e-6
-1.099, 2.149e-6
-1.100, 2.090e-6
-1.101, 2.151e-6
-1.102, 2.134e-6
-1.103, 2.144e-6
-1.104, 2.158e-6
-1.105, 2.109e-6
-1.106, 2.121e-6
-1.107, 2.160e-6
-1.108, 2.157e-6
-1.109, 2.181e-6
-1.110, 2.141e-6
-1.111, 2.191e-6
-1.112, 2.251e-6
-1.113, 2.214e-6
-1.114, 2.224e-6
-1.115, 2.261e-6
-1.116, 2.168e-6
-1.117, 2.206e-6
-1.118, 2.288e-6
-1.119, 2.275e-6
-1.120, 2.293e-6
-1.121, 2.325e-6
-1.122, 2.299e-6
-1.123, 2.327e-6
-1.124, 2.335e-6
-1.125, 2.253e-6
-1.126, 2.276e-6
-1.127, 2.219e-6
-1.128, 2.304e-6
-1.129, 2.328e-6
-1.130, 2.349e-6
-1.131, 2.415e-6
-1.132, 2.451e-6
-1.133, 2.382e-6
-1.134, 2.365e-6
-1.135, 2.390e-6
-1.136, 2.359e-6
-1.137, 2.443e-6
-1.138, 2.456e-6
-1.139, 2.414e-6
-1.140, 2.380e-6
-1.141, 2.382e-6
-1.142, 2.415e-6
-1.143, 2.480e-6
-1.144, 2.429e-6
-1.145, 2.473e-6
-1.146, 2.506e-6
-1.147, 2.513e-6
-1.148, 2.506e-6
-1.149, 2.573e-6
-1.150, 2.523e-6
-1.151, 2.587e-6
-1.152, 2.582e-6
-1.153, 2.570e-6
-1.154, 2.598e-6
-1.155, 2.640e-6
-1.156, 2.660e-6
-1.157, 2.701e-6
-1.158, 2.746e-6
-1.159, 2.729e-6
-1.160, 2.745e-6
-1.161, 2.717e-6
-1.162, 2.697e-6
-1.163, 2.727e-6
-1.164, 2.745e-6
-1.165, 2.819e-6
-1.166, 2.859e-6
-1.167, 2.857e-6
-1.168, 2.774e-6
-1.169, 2.795e-6
-1.170, 2.773e-6
-1.171, 2.846e-6
-1.172, 2.887e-6
-1.173, 2.903e-6
-1.174, 2.827e-6
-1.175, 2.869e-6
-1.176, 2.915e-6
-1.177, 2.953e-6
-1.178, 2.965e-6
-1.179, 3.091e-6
-1.180, 3.161e-6
-1.181, 3.237e-6
-1.182, 3.256e-6
-1.183, 3.252e-6
-1.184, 3.192e-6
-1.185, 3.202e-6
-1.186, 3.174e-6
-1.187, 3.082e-6
-1.188, 3.166e-6
-1.189, 3.237e-6
-1.190, 3.130e-6
-1.191, 3.212e-6
-1.192, 3.350e-6
-1.193, 3.322e-6
-1.194, 3.274e-6
-1.195, 3.263e-6
-1.196, 3.235e-6
-1.197, 3.316e-6
-1.198, 3.326e-6
-1.199, 3.343e-6
-1.200, 3.325e-6
-1.201, 3.355e-6
-1.202, 3.330e-6
-1.203, 3.236e-6
-1.204, 3.304e-6
-1.205, 3.314e-6
-1.206, 3.318e-6
-1.207, 3.309e-6
-1.208, 3.309e-6
-1.209, 3.352e-6
-1.210, 3.334e-6
-1.211, 3.377e-6
-1.212, 3.437e-6
-1.213, 3.501e-6
-1.214, 3.451e-6
-1.215, 3.420e-6
-1.216, 3.516e-6
-1.217, 3.567e-6
-1.218, 3.570e-6
-1.219, 3.654e-6
-1.220, 3.600e-6
-1.221, 3.656e-6
-1.222, 3.682e-6
-1.223, 3.673e-6
-1.224, 3.796e-6
-1.225, 3.816e-6
-1.226, 3.754e-6
-1.227, 3.827e-6
-1.228, 3.740e-6
-1.229, 3.757e-6
-1.230, 3.890e-6
-1.231, 3.894e-6
-1.232, 3.897e-6
-1.233, 3.885e-6
-1.234, 3.827e-6
-1.235, 3.795e-6
-1.236, 4.116e-6
-1.237, 4.131e-6
-1.238, 4.000e-6
-1.239, 4.012e-6
-1.240, 4.022e-6
-1.241, 3.979e-6
-1.242, 4.106e-6
-1.243, 4.180e-6
-1.244, 4.176e-6
-1.245, 4.173e-6
-1.246, 4.088e-6
-1.247, 4.133e-6
-1.248, 4.182e-6
-1.249, 4.191e-6
-1.250, 4.252e-6
-1.251, 4.303e-6
-1.252, 4.427e-6
-1.253, 4.615e-6
-1.254, 4.580e-6
-1.255, 4.598e-6
-1.256, 4.628e-6
-1.257, 4.692e-6
-1.258, 4.645e-6
-1.259, 4.716e-6
-1.260, 4.686e-6
-1.261, 4.666e-6
-1.262, 4.735e-6
-1.263, 4.820e-6
-1.264, 4.788e-6
-1.265, 4.806e-6
-1.266, 4.851e-6
-1.267, 4.918e-6
-1.268, 4.826e-6
-1.269, 4.932e-6
-1.270, 5.063e-6
-1.271, 5.070e-6
-1.272, 4.943e-6
-1.273, 5.026e-6
-1.274, 5.214e-6
-1.275, 5.452e-6
-1.276, 5.451e-6
-1.277, 5.610e-6
-1.278, 5.629e-6
-1.279, 5.668e-6
-1.280, 5.558e-6
-1.281, 5.558e-6
-1.282, 5.763e-6
-1.283, 5.790e-6
-1.284, 5.671e-6
-1.285, 5.744e-6
-1.286, 5.711e-6
-1.287, 5.994e-6
-1.288, 5.847e-6
-1.289, 5.928e-6
-1.290, 5.874e-6
-1.291, 5.871e-6
-1.292, 5.914e-6
-1.293, 6.148e-6
-1.294, 6.146e-6
-1.295, 5.879e-6
-1.296, 5.828e-6
-1.297, 5.728e-6
-1.298, 5.800e-6
-1.299, 5.862e-6
-1.300, 5.910e-6
-1.301, 6.053e-6
-1.302, 6.060e-6
-1.303, 5.924e-6
-1.304, 6.055e-6
-1.305, 6.200e-6
-1.306, 6.283e-6
-1.307, 6.208e-6
-1.308, 6.275e-6
-1.309, 6.401e-6
-1.310, 6.433e-6
-1.311, 6.515e-6
-1.312, 6.514e-6
-1.313, 6.504e-6
-1.314, 6.595e-6
-1.315, 6.501e-6
-1.316, 6.644e-6
-1.317, 6.643e-6
-1.318, 6.824e-6
-1.319, 7.043e-6
-1.320, 6.959e-6
-1.321, 7.004e-6
-1.322, 7.188e-6
-1.323, 7.382e-6
-1.324, 7.476e-6
-1.325, 7.449e-6
-1.326, 7.475e-6
-1.327, 7.495e-6
-1.328, 7.436e-6
-1.329, 7.494e-6
-1.330, 7.694e-6
-1.331, 7.855e-6
-1.332, 7.927e-6
-1.333, 8.032e-6
-1.334, 8.049e-6
-1.335, 8.146e-6
-1.336, 8.300e-6
-1.337, 8.419e-6
-1.338, 8.604e-6
-1.339, 8.711e-6
-1.340, 8.849e-6
-1.341, 8.907e-6
-1.342, 9.194e-6
-1.343, 9.051e-6
-1.344, 8.985e-6
-1.345, 9.164e-6
-1.346, 9.014e-6
-1.347, 9.260e-6
-1.348, 9.239e-6
-1.349, 9.435e-6
-1.350, 9.575e-6
-1.351, 9.682e-6
-1.352, 9.813e-6
-1.353, 9.835e-6
-1.354, 9.867e-6
-1.355, 9.851e-6
-1.356, 9.880e-6
-1.357, 1.010e-5
-1.358, 1.044e-5
-1.359, 1.060e-5
-1.360, 1.071e-5
-1.361, 1.074e-5
-1.362, 1.077e-5
-1.363, 1.122e-5
-1.364, 1.098e-5
-1.365, 1.112e-5
-1.366, 1.127e-5
-1.367, 1.136e-5
-1.368, 1.155e-5
-1.369, 1.173e-5
-1.370, 1.186e-5
-1.371, 1.200e-5
-1.372, 1.204e-5
-1.373, 1.212e-5
-1.374, 1.218e-5
-1.375, 1.227e-5
-1.376, 1.246e-5
-1.377, 1.261e-5
-1.378, 1.267e-5
-1.379, 1.244e-5
-1.380, 1.248e-5
-1.381, 1.260e-5
-1.382, 1.260e-5
-1.383, 1.278e-5
-1.384, 1.291e-5
-1.385, 1.294e-5
-1.386, 1.301e-5
-1.387, 1.316e-5
-1.388, 1.325e-5
-1.389, 1.334e-5
-1.390, 1.346e-5
-1.391, 1.368e-5
-1.392, 1.396e-5
-1.393, 1.402e-5
-1.394, 1.421e-5
-1.395, 1.426e-5
-1.396, 1.463e-5
-1.397, 1.482e-5
-1.398, 1.497e-5
-1.399, 1.493e-5
-1.400, 1.514e-5
-1.401, 1.526e-5
-1.402, 1.535e-5
-1.403, 1.577e-5
-1.404, 1.621e-5
-1.405, 1.595e-5
-1.406, 1.610e-5
-1.407, 1.624e-5
-1.408, 1.645e-5
-1.409, 1.638e-5
-1.410, 1.675e-5
-1.411, 1.728e-5
-1.412, 1.757e-5
-1.413, 1.736e-5
-1.414, 1.786e-5
-1.415, 1.810e-5
-1.416, 1.796e-5
-1.417, 1.764e-5
-1.418, 1.781e-5
-1.419, 1.800e-5
-1.420, 1.810e-5
-1.421, 1.825e-5
-1.422, 1.855e-5
-1.423, 1.867e-5
-1.424, 1.880e-5
-1.425, 1.889e-5
-1.426, 1.897e-5
-1.427, 1.909e-5
-1.428, 1.931e-5
-1.429, 1.912e-5
-1.430, 1.951e-5
-1.431, 1.975e-5
-1.432, 1.959e-5
-1.433, 1.954e-5
-1.434, 1.986e-5
-1.435, 2.010e-5
-1.436, 2.053e-5
-1.437, 2.066e-5
-1.438, 2.099e-5
-1.439, 2.122e-5
-1.440, 2.163e-5
-1.441, 2.166e-5
-1.442, 2.206e-5
-1.443, 2.210e-5
-1.444, 2.218e-5
-1.445, 2.247e-5
-1.446, 2.271e-5
-1.447, 2.283e-5
-1.448, 2.347e-5
-1.449, 2.188e-5
-1.450, 2.269e-5
-1.451, 2.365e-5
-1.452, 2.359e-5
-1.453, 2.392e-5
-1.454, 2.446e-5
-1.455, 2.403e-5
-1.456, 2.532e-5
-1.457, 2.525e-5
-1.458, 2.583e-5
-1.459, 2.602e-5
-1.460, 2.625e-5
-1.461, 2.402e-5
-1.462, 2.399e-5
-1.463, 2.451e-5
-1.464, 2.345e-5
-1.465, 2.311e-5
-1.466, 2.363e-5
-1.467, 2.429e-5
-1.468, 2.444e-5
-1.469, 2.406e-5
-1.470, 2.302e-5
-1.471, 2.366e-5
-1.472, 2.367e-5
-1.473, 2.370e-5
-1.474, 2.372e-5
-1.475, 2.461e-5
-1.476, 2.465e-5
-1.477, 2.483e-5
-1.478, 2.484e-5
-1.479, 2.510e-5
-1.480, 2.573e-5
-1.481, 2.613e-5
-1.482, 2.589e-5
-1.483, 2.643e-5
-1.484, 2.678e-5
-1.485, 2.700e-5
-1.486, 2.736e-5
-1.487, 2.783e-5
-1.488, 2.835e-5
-1.489, 2.863e-5
-1.490, 2.802e-5
-1.491, 2.889e-5
-1.492, 2.871e-5
-1.493, 2.974e-5
-1.494, 3.060e-5
-1.495, 3.067e-5
-1.496, 3.068e-5
-1.497, 3.136e-5
-1.498, 3.178e-5
-1.499, 3.231e-5
-1.500, 3.309e-5
-1.501, 3.267e-5
-1.502, 3.281e-5
-1.503, 3.341e-5
-1.504, 3.392e-5
-1.505, 3.402e-5
-1.506, 3.447e-5
-1.507, 3.529e-5
-1.508, 3.594e-5
-1.509, 3.634e-5
-1.510, 3.589e-5
-1.511, 3.598e-5
-1.512, 3.729e-5
-1.513, 3.719e-5
-1.514, 3.745e-5
-1.515, 3.630e-5
-1.516, 3.527e-5
-1.517, 3.480e-5
-1.518, 3.535e-5
-1.519, 3.567e-5
-1.520, 3.605e-5
-1.521, 3.785e-5
-1.522, 3.786e-5
-1.523, 3.730e-5
-1.524, 3.709e-5
-1.525, 3.825e-5
-1.526, 3.810e-5
-1.527, 3.868e-5
-1.528, 3.995e-5
-1.529, 4.070e-5
-1.530, 4.091e-5
-1.531, 4.063e-5
-1.532, 4.075e-5
-1.533, 4.224e-5
-1.534, 4.330e-5
-1.535, 4.336e-5
-1.536, 4.323e-5
-1.537, 4.186e-5
-1.538, 4.158e-5
-1.539, 4.160e-5
-1.540, 4.098e-5
-1.541, 4.149e-5
-1.542, 4.231e-5
-1.543, 4.274e-5
-1.544, 4.333e-5
-1.545, 4.491e-5
-1.546, 4.585e-5
-1.547, 4.632e-5
-1.548, 4.559e-5
-1.549, 4.572e-5
-1.550, 4.722e-5
-1.551, 4.852e-5
-1.552, 4.739e-5
-1.553, 4.771e-5
-1.554, 4.535e-5
-1.555, 4.547e-5
-1.556, 4.703e-5
-1.557, 4.827e-5
-1.558, 4.888e-5
-1.559, 4.918e-5
-1.560, 4.949e-5
-1.561, 4.945e-5
-1.562, 5.081e-5
-1.563, 5.230e-5
-1.564, 5.298e-5
-1.565, 5.255e-5
-1.566, 5.133e-5
-1.567, 5.034e-5
-1.568, 5.131e-5
-1.569, 5.281e-5
-1.570, 5.293e-5
-1.571, 5.382e-5
-1.572, 5.402e-5
-1.573, 5.492e-5
-1.574, 5.488e-5
-1.575, 5.352e-5
-1.576, 5.719e-5
-1.577, 5.889e-5
-1.578, 5.879e-5
-1.579, 5.736e-5
-1.580, 5.981e-5
-1.581, 5.831e-5
-1.582, 5.773e-5
-1.583, 5.782e-5
-1.584, 5.588e-5
-1.585, 5.798e-5
-1.586, 5.771e-5
-1.587, 5.725e-5
-1.588, 5.899e-5
-1.589, 6.468e-5
-1.590, 6.370e-5
-1.591, 6.387e-5
-1.592, 6.448e-5
-1.593, 6.453e-5
-1.594, 6.518e-5
-1.595, 6.560e-5
-1.596, 6.378e-5
-1.597, 6.418e-5
-1.598, 6.479e-5
-1.599, 6.702e-5
-1.600, 6.705e-5
-1.601, 7.029e-5
-1.602, 6.706e-5
-1.603, 6.956e-5
-1.604, 7.002e-5
-1.605, 7.240e-5
-1.606, 7.458e-5
-1.607, 7.817e-5
-1.608, 7.813e-5
-1.609, 7.869e-5
-1.610, 7.587e-5
-1.611, 7.784e-5
-1.612, 7.674e-5
-1.613, 7.466e-5
-1.614, 7.357e-5
-1.615, 7.616e-5
-1.616, 7.742e-5
-1.617, 8.053e-5
-1.618, 8.172e-5
-1.619, 8.214e-5
-1.620, 8.369e-5
-1.621, 8.348e-5
-1.622, 8.452e-5
-1.623, 8.663e-5
-1.624, 8.519e-5
-1.625, 8.512e-5
-1.626, 8.747e-5
-1.627, 8.849e-5
-1.628, 8.957e-5
-1.629, 9.118e-5
-1.630, 9.336e-5
-1.631, 9.469e-5
-1.632, 9.974e-5
-1.633, 9.926e-5
-1.634, 1.009e-4
-1.635, 1.058e-4
-1.636, 1.076e-4
-1.637, 1.075e-4
-1.638, 1.066e-4
-1.639, 1.022e-4
-1.640, 1.034e-4
-1.641, 1.039e-4
-1.642, 1.093e-4
-1.643, 1.101e-4
-1.644, 1.118e-4
-1.645, 1.080e-4
-1.646, 1.117e-4
-1.647, 1.139e-4
-1.648, 1.165e-4
-1.649, 1.130e-4
-1.650, 1.119e-4
-1.651, 1.141e-4
-1.652, 1.147e-4
-1.653, 1.144e-4
-1.654, 1.153e-4
-1.655, 1.177e-4
-1.656, 1.178e-4
-1.657, 1.207e-4
-1.658, 1.229e-4
-1.659, 1.283e-4
-1.660, 1.269e-4
-1.661, 1.268e-4
-1.662, 1.250e-4
-1.663, 1.251e-4
-1.664, 1.272e-4
-1.665, 1.278e-4
-1.666, 1.314e-4
-1.667, 1.376e-4
-1.668, 1.379e-4
-1.669, 1.396e-4
-1.670, 1.431e-4
-1.671, 1.439e-4
-1.672, 1.458e-4
-1.673, 1.481e-4
-1.674, 1.459e-4
-1.675, 1.510e-4
-1.676, 1.544e-4
-1.677, 1.650e-4
-1.678, 1.666e-4
-1.679, 1.668e-4
-1.680, 1.691e-4
-1.681, 1.721e-4
-1.682, 1.751e-4
-1.683, 1.750e-4
-1.684, 1.753e-4
-1.685, 1.774e-4
-1.686, 1.833e-4
-1.687, 1.860e-4
-1.688, 1.865e-4
-1.689, 1.895e-4
-1.690, 1.951e-4
-1.691, 1.991e-4
-1.692, 1.977e-4
-1.693, 1.988e-4
-1.694, 2.051e-4
-1.695, 2.121e-4
-1.696, 2.141e-4
-1.697, 2.210e-4
-1.698, 2.240e-4
-1.699, 2.329e-4
-1.700, 2.363e-4
-1.699, 2.329e-4
-1.698, 2.288e-4
-1.697, 2.262e-4
-1.696, 2.257e-4
-1.695, 2.262e-4
-1.694, 2.260e-4
-1.693, 2.235e-4
-1.692, 2.177e-4
-1.691, 2.170e-4
-1.690, 2.144e-4
-1.689, 2.112e-4
-1.688, 2.064e-4
-1.687, 2.043e-4
-1.686, 2.017e-4
-1.685, 2.034e-4
-1.684, 2.015e-4
-1.683, 1.986e-4
-1.682, 1.990e-4
-1.681, 1.941e-4
-1.680, 1.877e-4
-1.679, 1.908e-4
-1.678, 1.864e-4
-1.677, 1.858e-4
-1.676, 1.810e-4
-1.675, 1.700e-4
-1.674, 1.707e-4
-1.673, 1.652e-4
-1.672, 1.642e-4
-1.671, 1.600e-4
-1.670, 1.627e-4
-1.669, 1.597e-4
-1.668, 1.587e-4
-1.667, 1.573e-4
-1.666, 1.532e-4
-1.665, 1.530e-4
-1.664, 1.563e-4
-1.663, 1.527e-4
-1.662, 1.520e-4
-1.661, 1.484e-4
-1.660, 1.503e-4
-1.659, 1.481e-4
-1.658, 1.442e-4
-1.657, 1.422e-4
-1.656, 1.436e-4
-1.655, 1.398e-4
-1.654, 1.353e-4
-1.653, 1.361e-4
-1.652, 1.381e-4
-1.651, 1.375e-4
-1.650, 1.347e-4
-1.649, 1.330e-4
-1.648, 1.277e-4
-1.647, 1.302e-4
-1.646, 1.281e-4
-1.645, 1.273e-4
-1.644, 1.327e-4
-1.643, 1.287e-4
-1.642, 1.263e-4
-1.641, 1.245e-4
-1.640, 1.236e-4
-1.639, 1.255e-4
-1.638, 1.193e-4
-1.637, 1.157e-4
-1.636, 1.123e-4
-1.635, 1.130e-4
-1.634, 1.153e-4
-1.633, 1.156e-4
-1.632, 1.160e-4
-1.631, 1.175e-4
-1.630, 1.137e-4
-1.629, 1.066e-4
-1.628, 1.079e-4
-1.627, 1.110e-4
-1.626, 1.110e-4
-1.625, 1.126e-4
-1.624, 1.100e-4
-1.623, 1.120e-4
-1.622, 1.097e-4
-1.621, 1.034e-4
-1.620, 9.630e-5
-1.619, 9.752e-5
-1.618, 9.793e-5
-1.617, 1.048e-4
-1.616, 1.025e-4
-1.615, 1.078e-4
-1.614, 1.047e-4
-1.613, 1.048e-4
-1.612, 1.054e-4
-1.611, 1.022e-4
-1.610, 9.980e-5
-1.609, 1.014e-4
-1.608, 9.947e-5
-1.607, 9.860e-5
-1.606, 9.408e-5
-1.605, 9.166e-5
-1.604, 9.857e-5
-1.603, 9.409e-5
-1.602, 9.518e-5
-1.601, 9.850e-5
-1.600, 9.375e-5
-1.599, 9.552e-5
-1.598, 9.158e-5
-1.597, 8.771e-5
-1.596, 8.937e-5
-1.595, 8.832e-5
-1.594, 8.654e-5
-1.593, 8.368e-5
-1.592, 8.360e-5
-1.591, 8.305e-5
-1.590, 8.431e-5
-1.589, 8.452e-5
-1.588, 8.535e-5
-1.587, 8.118e-5
-1.586, 8.369e-5
-1.585, 8.171e-5
-1.584, 7.934e-5
-1.583, 7.805e-5
-1.582, 8.076e-5
-1.581, 8.080e-5
-1.580, 8.033e-5
-1.579, 7.960e-5
-1.578, 8.063e-5
-1.577, 7.898e-5
-1.576, 8.009e-5
-1.575, 7.765e-5
-1.574, 7.170e-5
-1.573, 7.591e-5
-1.572, 7.455e-5
-1.571, 7.011e-5
-1.570, 7.271e-5
-1.569, 7.058e-5
-1.568, 6.749e-5
-1.567, 6.616e-5
-1.566, 6.605e-5
-1.565, 6.977e-5
-1.564, 7.239e-5
-1.563, 7.075e-5
-1.562, 6.816e-5
-1.561, 6.186e-5
-1.560, 6.043e-5
-1.559, 6.233e-5
-1.558, 6.381e-5
-1.557, 6.873e-5
-1.556, 7.033e-5
-1.555, 7.094e-5
-1.554, 6.682e-5
-1.553, 6.627e-5
-1.552, 6.574e-5
-1.551, 6.536e-5
-1.550, 6.522e-5
-1.549, 6.548e-5
-1.548, 6.295e-5
-1.547, 6.499e-5
-1.546, 6.328e-5
-1.545, 6.005e-5
-1.544, 6.066e-5
-1.543, 5.696e-5
-1.542, 5.223e-5
-1.541, 5.315e-5
-1.540, 5.384e-5
-1.539, 5.335e-5
-1.538, 5.381e-5
-1.537, 5.419e-5
-1.536, 5.152e-5
-1.535, 5.383e-5
-1.534, 5.392e-5
-1.533, 5.235e-5
-1.532, 5.241e-5
-1.531, 5.337e-5
-1.530, 4.901e-5
-1.529, 4.744e-5
-1.528, 4.573e-5
-1.527, 4.993e-5
-1.526, 4.921e-5
-1.525, 4.600e-5
-1.524, 4.620e-5
-1.523, 4.650e-5
-1.522, 4.457e-5
-1.521, 4.505e-5
-1.520, 4.294e-5
-1.519, 4.243e-5
-1.518, 4.102e-5
-1.517, 4.210e-5
-1.516, 4.191e-5
-1.515, 3.967e-5
-1.514, 4.134e-5
-1.513, 4.288e-5
-1.512, 4.169e-5
-1.511, 4.150e-5
-1.510, 4.216e-5
-1.509, 4.392e-5
-1.508, 4.382e-5
-1.507, 4.194e-5
-1.506, 4.194e-5
-1.505, 4.117e-5
-1.504, 4.262e-5
-1.503, 4.314e-5
-1.502, 4.081e-5
-1.501, 4.158e-5
-1.500, 4.282e-5
-1.499, 4.257e-5
-1.498, 4.186e-5
-1.497, 3.810e-5
-1.496, 3.928e-5
-1.495, 3.915e-5
-1.494, 3.835e-5
-1.493, 4.005e-5
-1.492, 4.061e-5
-1.491, 3.911e-5
-1.490, 3.658e-5
-1.489, 3.804e-5
-1.488, 3.666e-5
-1.487, 3.609e-5
-1.486, 3.527e-5
-1.485, 3.554e-5
-1.484, 3.584e-5
-1.483, 3.535e-5
-1.482, 3.336e-5
-1.481, 3.274e-5
-1.480, 3.118e-5
-1.479, 3.122e-5
-1.478, 3.205e-5
-1.477, 3.125e-5
-1.476, 2.935e-5
-1.475, 2.820e-5
-1.474, 2.890e-5
-1.473, 2.932e-5
-1.472, 2.922e-5
-1.471, 2.981e-5
-1.470, 3.049e-5
-1.469, 3.017e-5
-1.468, 2.997e-5
-1.467, 2.962e-5
-1.466, 2.901e-5
-1.465, 2.906e-5
-1.464, 3.069e-5
-1.463, 3.046e-5
-1.462, 3.042e-5
-1.461, 2.865e-5
-1.460, 2.715e-5
-1.459, 2.786e-5
-1.458, 2.794e-5
-1.457, 2.858e-5
-1.456, 2.824e-5
-1.455, 2.689e-5
-1.454, 2.579e-5
-1.453, 2.586e-5
-1.452, 2.563e-5
-1.451, 2.510e-5
-1.450, 2.459e-5
-1.449, 2.381e-5
-1.448, 2.471e-5
-1.447, 2.407e-5
-1.446, 2.377e-5
-1.445, 2.279e-5
-1.444, 2.234e-5
-1.443, 2.237e-5
-1.442, 2.218e-5
-1.441, 2.237e-5
-1.440, 2.283e-5
-1.439, 1.911e-5
-1.438, 1.950e-5
-1.437, 2.057e-5
-1.436, 1.997e-5
-1.435, 2.081e-5
-1.434, 2.089e-5
-1.433, 2.010e-5
-1.432, 1.960e-5
-1.431, 1.983e-5
-1.430, 1.959e-5
-1.429, 1.988e-5
-1.428, 2.000e-5
-1.427, 1.919e-5
-1.426, 1.809e-5
-1.425, 1.842e-5
-1.424, 1.815e-5
-1.423, 1.787e-5
-1.422, 1.793e-5
-1.421, 1.767e-5
-1.420, 1.752e-5
-1.419, 1.740e-5
-1.418, 1.670e-5
-1.417, 1.604e-5
-1.416, 1.693e-5
-1.415, 1.635e-5
-1.414, 1.649e-5
-1.413, 1.670e-5
-1.412, 1.709e-5
-1.411, 1.488e-5
-1.410, 1.567e-5
-1.409, 1.550e-5
-1.408, 1.539e-5
-1.407, 1.538e-5
-1.406, 1.552e-5
-1.405, 1.516e-5
-1.404, 1.430e-5
-1.403, 1.449e-5
-1.402, 1.388e-5
-1.401, 1.513e-5
-1.400, 1.398e-5
-1.399, 1.318e-5
-1.398, 1.353e-5
-1.397, 1.350e-5
-1.396, 1.302e-5
-1.395, 1.276e-5
-1.394, 1.217e-5
-1.393, 1.254e-5
-1.392, 1.355e-5
-1.391, 1.325e-5
-1.390, 1.257e-5
-1.389, 1.288e-5
-1.388, 1.285e-5
-1.387, 1.250e-5
-1.386, 1.226e-5
-1.385, 1.210e-5
-1.384, 1.201e-5
-1.383, 1.158e-5
-1.382, 1.159e-5
-1.381, 1.145e-5
-1.380, 1.112e-5
-1.379, 1.120e-5
-1.378, 1.061e-5
-1.377, 1.108e-5
-1.376, 1.046e-5
-1.375, 1.087e-5
-1.374, 1.096e-5
-1.373, 1.043e-5
-1.372, 9.900e-6
-1.371, 9.598e-6
-1.370, 9.845e-6
-1.369, 9.722e-6
-1.368, 9.336e-6
-1.367, 9.042e-6
-1.366, 8.664e-6
-1.365, 8.513e-6
-1.364, 8.824e-6
-1.363, 8.613e-6
-1.362, 8.766e-6
-1.361, 8.814e-6
-1.360, 8.501e-6
-1.359, 8.527e-6
-1.358, 8.262e-6
-1.357, 7.707e-6
-1.356, 7.529e-6
-1.355, 7.878e-6
-1.354, 7.379e-6
-1.353, 7.317e-6
-1.352, 7.077e-6
-1.351, 6.952e-6
-1.350, 6.477e-6
-1.349, 6.777e-6
-1.348, 6.604e-6
-1.347, 6.896e-6
-1.346, 6.563e-6
-1.345, 6.184e-6
-1.344, 6.085e-6
-1.343, 6.117e-6
-1.342, 6.043e-6
-1.341, 6.057e-6
-1.340, 6.060e-6
-1.339, 5.995e-6
-1.338, 5.608e-6
-1.337, 5.718e-6
-1.336, 5.600e-6
-1.335, 5.597e-6
-1.334, 4.990e-6
-1.333, 5.011e-6
-1.332, 5.123e-6
-1.331, 4.991e-6
-1.330, 4.984e-6
-1.329, 4.875e-6
-1.328, 4.531e-6
-1.327, 4.649e-6
-1.326, 4.578e-6
-1.325, 4.352e-6
-1.324, 4.411e-6
-1.323, 4.117e-6
-1.322, 3.958e-6
-1.321, 4.458e-6
-1.320, 4.529e-6
-1.319, 4.235e-6
-1.318, 4.084e-6
-1.317, 3.998e-6
-1.316, 3.856e-6
-1.315, 3.569e-6
-1.314, 3.644e-6
-1.313, 3.543e-6
-1.312, 3.373e-6
-1.311, 3.464e-6
-1.310, 3.494e-6
-1.309, 3.128e-6
-1.308, 3.120e-6
-1.307, 3.349e-6
-1.306, 3.019e-6
-1.305, 2.764e-6
-1.304, 2.810e-6
-1.303, 2.728e-6
-1.302, 2.670e-6
-1.301, 2.543e-6
-1.300, 2.529e-6
-1.299, 2.365e-6
-1.298, 2.396e-6
-1.297, 2.375e-6
-1.296, 2.310e-6
-1.295, 2.232e-6
-1.294, 2.205e-6
-1.293, 2.131e-6
-1.292, 2.074e-6
-1.291, 1.995e-6
-1.290, 2.008e-6
-1.289, 1.865e-6
-1.288, 1.901e-6
-1.287, 1.749e-6
-1.286, 1.771e-6
-1.285, 1.652e-6
-1.284, 1.519e-6
-1.283, 1.585e-6
-1.282, 1.604e-6
-1.281, 1.545e-6
-1.280, 1.540e-6
-1.279, 1.422e-6
-1.278, 1.433e-6
-1.277, 1.253e-6
-1.276, 1.294e-6
-1.275, 1.181e-6
-1.274, 1.182e-6
-1.273, 1.161e-6
-1.272, 1.057e-6
-1.271, 1.062e-6
-1.270, 1.050e-6
-1.269, 9.795e-7
-1.268, 9.371e-7
-1.267, 8.690e-7
-1.266, 8.502e-7
-1.265, 8.690e-7
-1.264, 7.634e-7
-1.263, 6.825e-7
-1.262, 7.279e-7
-1.261, 6.815e-7
-1.260, 6.381e-7
-1.259, 5.789e-7
-1.258, 5.661e-7
-1.257, 5.562e-7
-1.256, 5.405e-7
-1.255, 4.349e-7
-1.254, 4.319e-7
-1.253, 4.132e-7
-1.252, 3.865e-7
-1.251, 3.195e-7
-1.250, 3.155e-7
-1.249, 2.553e-7
-1.248, 2.425e-7
-1.247, 2.553e-7
-1.246, 1.409e-7
-1.245, 1.922e-7
-1.244, 1.685e-7
-1.243, 1.409e-7
-1.242, 1.172e-7
-1.241, 8.070e-8
-1.240, 3.532e-8
-1.239, 3.631e-8
-1.238, 1.066e-8
-1.237, -3.177e-8
-1.236, -3.966e-8
-1.235, -6.630e-8
-1.234, -1.659e-7
-1.233, -7.025e-8
-1.232, -1.166e-7
-1.231, -1.758e-7
-1.230, -1.847e-7
-1.229, -2.015e-7
-1.228, -2.498e-7
-1.227, -2.439e-7
-1.226, -2.903e-7
-1.225, -2.834e-7
-1.224, -2.863e-7
-1.223, -3.179e-7
-1.222, -3.554e-7
-1.221, -3.485e-7
-1.220, -4.215e-7
-1.219, -4.146e-7
-1.218, -4.077e-7
-1.217, -4.234e-7
-1.216, -4.669e-7
-1.215, -4.915e-7
-1.214, -5.231e-7
-1.213, -4.925e-7
-1.212, -5.024e-7
-1.211, -5.566e-7
-1.210, -5.744e-7
-1.209, -5.566e-7
-1.208, -6.267e-7
-1.207, -6.050e-7
-1.206, -6.504e-7
-1.205, -6.671e-7
-1.204, -6.366e-7
-1.203, -7.135e-7
-1.202, -6.967e-7
-1.201, -7.184e-7
-1.200, -7.500e-7
-1.199, -7.323e-7
-1.198, -7.204e-7
-1.197, -7.806e-7
-1.196, -8.043e-7
-1.195, -8.201e-7
-1.194, -7.944e-7
-1.193, -8.013e-7
-1.192, -7.974e-7
-1.191, -8.556e-7
-1.190, -8.832e-7
-1.189, -8.743e-7
-1.188, -9.207e-7
-1.187, -8.950e-7
-1.186, -9.345e-7
-1.185, -9.444e-7
-1.184, -8.931e-7
-1.183, -9.947e-7
-1.182, -9.799e-7
-1.181, -9.562e-7
-1.180, -9.671e-7
-1.179, -1.032e-6
-1.178, -1.039e-6
-1.177, -1.078e-6
-1.176, -1.025e-6
-1.175, -1.044e-6
-1.174, -1.091e-6
-1.173, -1.065e-6
-1.172, -1.094e-6
-1.171, -1.108e-6
-1.170, -1.110e-6
-1.169, -1.106e-6
-1.168, -1.129e-6
-1.167, -1.107e-6
-1.166, -1.155e-6
-1.165, -1.156e-6
-1.164, -1.166e-6
-1.163, -1.209e-6
-1.162, -1.196e-6
-1.161, -1.218e-6
-1.160, -1.245e-6
-1.159, -1.240e-6
-1.158, -1.284e-6
-1.157, -1.281e-6
-1.156, -1.307e-6
-1.155, -1.315e-6
-1.154, -1.315e-6
-1.153, -1.307e-6
-1.152, -1.311e-6
-1.151, -1.372e-6
-1.150, -1.375e-6
-1.149, -1.394e-6
-1.148, -1.367e-6
-1.147, -1.410e-6
-1.146, -1.450e-6
-1.145, -1.429e-6
-1.144, -1.455e-6
-1.143, -1.430e-6
-1.142, -1.490e-6
-1.141, -1.550e-6
-1.140, -1.497e-6
-1.139, -1.489e-6
-1.138, -1.568e-6
-1.137, -1.560e-6
-1.136, -1.548e-6
-1.135, -1.594e-6
-1.134, -1.588e-6
-1.133, -1.613e-6
-1.132, -1.597e-6
-1.131, -1.578e-6
-1.130, -1.615e-6
-1.129, -1.626e-6
-1.128, -1.584e-6
-1.127, -1.608e-6
-1.126, -1.655e-6
-1.125, -1.690e-6
-1.124, -1.668e-6
-1.123, -1.689e-6
-1.122, -1.715e-6
-1.121, -1.771e-6
-1.120, -1.745e-6
-1.119, -1.741e-6
-1.118, -1.797e-6
-1.117, -1.744e-6
-1.116, -1.810e-6
-1.115, -1.858e-6
-1.114, -1.830e-6
-1.113, -1.914e-6
-1.112, -1.891e-6
-1.111, -1.883e-6
-1.110, -1.924e-6
-1.109, -1.945e-6
-1.108, -1.914e-6
-1.107, -1.963e-6
-1.106, -2.013e-6
-1.105, -2.014e-6
-1.104, -2.029e-6
-1.103, -1.991e-6
-1.102, -2.065e-6
-1.101, -2.157e-6
-1.100, -2.211e-6
-1.099, -2.158e-6
-1.098, -2.113e-6
-1.097, -2.135e-6
-1.096, -2.191e-6
-1.095, -2.204e-6
-1.094, -2.226e-6
-1.093, -2.227e-6
-1.092, -2.227e-6
-1.091, -2.263e-6
-1.090, -2.279e-6
-1.089, -2.257e-6
-1.088, -2.324e-6
-1.087, -2.338e-6
-1.086, -2.295e-6
-1.085, -2.391e-6
-1.084, -2.397e-6
-1.083, -2.410e-6
-1.082, -2.461e-6
-1.081, -2.442e-6
-1.080, -2.499e-6
-1.079, -2.469e-6
-1.078, -2.497e-6
-1.077, -2.522e-6
-1.076, -2.525e-6
-1.075, -2.591e-6
-1.074, -2.647e-6
-1.073, -2.646e-6
-1.072, -2.706e-6
-1.071, -2.670e-6
-1.070, -2.773e-6
-1.069, -2.811e-6
-1.068, -2.653e-6
-1.067, -2.696e-6
-1.066, -2.768e-6
-1.065, -2.796e-6
-1.064, -2.904e-6
-1.063, -2.901e-6
-1.062, -2.854e-6
-1.061, -2.960e-6
-1.060, -2.960e-6
-1.059, -2.912e-6
-1.058, -2.962e-6
-1.057, -3.040e-6
-1.056, -3.016e-6
-1.055, -3.067e-6
-1.054, -3.002e-6
-1.053, -3.182e-6
-1.052, -3.155e-6
-1.051, -3.174e-6
-1.050, -3.214e-6
-1.049, -3.086e-6
-1.048, -3.209e-6
-1.047, -3.279e-6
-1.046, -3.310e-6
-1.045, -3.218e-6
-1.044, -3.249e-6
-1.043, -3.377e-6
-1.042, -3.484e-6
-1.041, -3.350e-6
-1.040, -3.421e-6
-1.039, -3.464e-6
-1.038, -3.503e-6
-1.037, -3.531e-6
-1.036, -3.560e-6
-1.035, -3.554e-6
-1.034, -3.589e-6
-1.033, -3.574e-6
-1.032, -3.561e-6
-1.031, -3.712e-6
-1.030, -3.645e-6
-1.029, -3.726e-6
-1.028, -3.711e-6
-1.027, -3.698e-6
-1.026, -3.591e-6
-1.025, -3.653e-6
-1.024, -3.735e-6
-1.023, -3.857e-6
-1.022, -3.972e-6
-1.021, -4.009e-6
-1.020, -4.136e-6
-1.019, -4.026e-6
-1.018, -4.115e-6
-1.017, -4.034e-6
-1.016, -4.012e-6
-1.015, -4.155e-6
-1.014, -4.034e-6
-1.013, -4.023e-6
-1.012, -4.124e-6
-1.011, -4.101e-6
-1.010, -4.193e-6
-1.009, -4.174e-6
-1.008, -4.126e-6
-1.007, -4.275e-6
-1.006, -4.350e-6
-1.005, -4.295e-6
-1.004, -4.361e-6
-1.003, -4.485e-6
-1.002, -4.379e-6
-1.001, -4.442e-6
-1.000, -4.000e-6
-1.001, -3.663e-6
-1.002, -3.334e-6
-1.003, -3.185e-6
-1.004, -3.007e-6
-1.005, -2.844e-6
-1.006, -2.651e-6
-1.007, -2.550e-6
-1.008, -2.383e-6
-1.009, -2.249e-6
-1.010, -2.155e-6
-1.011, -2.053e-6
-1.012, -1.977e-6
-1.013, -1.867e-6
-1.014, -1.743e-6
-1.015, -1.654e-6
-1.016, -1.611e-6
-1.017, -1.483e-6
-1.018, -1.452e-6
-1.019, -1.367e-6
-1.020, -1.277e-6
-1.021, -1.190e-6
-1.022, -1.130e-6
-1.023, -1.075e-6
-1.024, -1.002e-6
-1.025, -9.266e-7
-1.026, -8.931e-7
-1.027, -8.250e-7
-1.028, -7.993e-7
-1.029, -7.382e-7
-1.030, -6.987e-7
-1.031, -6.405e-7
-1.032, -6.129e-7
-1.033, -5.576e-7
-1.034, -5.122e-7
-1.035, -4.955e-7
-1.036, -4.432e-7
-1.037, -3.564e-7
-1.038, -3.465e-7
-1.039, -3.169e-7
-1.040, -3.021e-7
-1.041, -2.547e-7
-1.042, -1.817e-7
-1.043, -1.867e-7
-1.044, -1.265e-7
-1.045, -1.107e-7
-1.046, -9.491e-8
-1.047, -1.204e-8
-1.048, -4.361e-8
-1.049, 3.729e-8
-1.050, 4.223e-8
-1.051, 5.703e-8
-1.052, 9.550e-8
-1.053, 1.438e-7
-1.054, 1.310e-7
-1.055, 1.744e-7
-1.056, 2.001e-7
-1.057, 2.169e-7
-1.058, 2.247e-7
-1.059, 2.613e-7
-1.060, 2.356e-7
-1.061, 2.800e-7
-1.062, 3.283e-7
-1.063, 2.918e-7
-1.064, 3.806e-7
-1.065, 3.451e-7
-1.066, 3.717e-7
-1.067, 4.142e-7
-1.068, 4.270e-7
-1.069, 4.586e-7
-1.070, 4.517e-7
-1.071, 4.852e-7
-1.072, 5.365e-7
-1.073, 5.128e-7
-1.074, 5.118e-7
-1.075, 5.513e-7
-1.076, 5.661e-7
-1.077, 5.957e-7
-1.078, 6.312e-7
-1.079, 5.898e-7
-1.080, 6.332e-7
-1.081, 6.549e-7
-1.082, 6.529e-7
-1.083, 6.796e-7
-1.084, 6.993e-7
-1.085, 6.500e-7
-1.086, 6.884e-7
-1.087, 6.934e-7
-1.088, 7.467e-7
-1.089, 7.624e-7
-1.090, 7.348e-7
-1.091, 7.891e-7
-1.092, 8.206e-7
-1.093, 8.118e-7
-1.094, 8.433e-7
-1.095, 7.980e-7
-1.096, 8.157e-7
-1.097, 8.562e-7
-1.098, 8.502e-7
-1.099, 8.572e-7
-1.100, 8.749e-7
-1.101, 8.798e-7
-1.102, 8.779e-7
-1.103, 9.390e-7
-1.104, 9.183e-7
-1.105, 9.637e-7
-1.106, 9.746e-7
-1.107, 9.558e-7
-1.108, 9.795e-7
-1.109, 9.864e-7
-1.110, 9.765e-7
-1.111, 9.973e-7
-1.112, 9.736e-7
-1.113, 1.051e-6
-1.114, 1.068e-6
-1.115, 1.022e-6
-1.116, 1.088e-6
-1.117, 1.090e-6
-1.118, 1.089e-6
-1.119, 1.121e-6
-1.120, 1.093e-6
-1.121, 1.137e-6
-1.122, 1.176e-6
-1.123, 1.137e-6
-1.124, 1.171e-6
-1.125, 1.141e-6
-1.126, 1.161e-6
-1.127, 1.173e-6
-1.128, 1.177e-6
-1.129, 1.188e-6
-1.130, 1.233e-6
-1.131, 1.191e-6
-1.132, 1.233e-6
-1.133, 1.246e-6
-1.134, 1.228e-6
-1.135, 1.240e-6
-1.136, 1.298e-6
-1.137, 1.252e-6
-1.138, 1.378e-6
-1.139, 1.360e-6
-1.140, 1.347e-6
-1.141, 1.338e-6
-1.142, 1.337e-6
-1.143, 1.349e-6
-1.144, 1.397e-6
-1.145, 1.332e-6
-1.146, 1.386e-6
-1.147, 1.357e-6
-1.148, 1.333e-6
-1.149, 1.426e-6
-1.150, 1.379e-6
-1.151, 1.416e-6
-1.152, 1.431e-6
-1.153, 1.412e-6
-1.154, 1.424e-6
-1.155, 1.447e-6
-1.156, 1.445e-6
-1.157, 1.480e-6
-1.158, 1.487e-6
-1.159, 1.479e-6
-1.160, 1.504e-6
-1.161, 1.524e-6
-1.162, 1.502e-6
-1.163, 1.536e-6
-1.164, 1.540e-6
-1.165, 1.575e-6
-1.166, 1.566e-6
-1.167, 1.579e-6
-1.168, 1.603e-6
-1.169, 1.626e-6
-1.170, 1.605e-6
-1.171, 1.630e-6
-1.172, 1.639e-6
-1.173, 1.671e-6
-1.174, 1.695e-6
-1.175, 1.626e-6
-1.176, 1.692e-6
-1.177, 1.663e-6
-1.178, 1.731e-6
-1.179, 1.717e-6
-1.180, 1.712e-6
-1.181, 1.742e-6
-1.182, 1.765e-6
-1.183, 1.761e-6
-1.184, 1.811e-6
-1.185, 1.779e-6
-1.186, 1.796e-6
-1.187, 1.862e-6
-1.188, 1.862e-6
-1.189, 1.858e-6
-1.190, 1.890e-6
-1.191, 1.876e-6
-1.192, 1.920e-6
-1.193, 1.937e-6
-1.194, 1.917e-6
-1.195, 1.975e-6
-1.196, 1.939e-6
-1.197, 1.954e-6
-1.198, 2.026e-6
-1.199, 2.020e-6
-1.200, 2.049e-6
-1.201, 2.045e-6
-1.202, 2.030e-6
-1.203, 2.068e-6
-1.204, 2.101e-6
-1.205, 2.097e-6
-1.206, 2.155e-6
-1.207, 2.106e-6
-1.208, 2.158e-6
-1.209, 2.204e-6
-1.210, 2.168e-6
-1.211, 2.191e-6
-1.212, 2.252e-6
-1.213, 2.216e-6
-1.214, 2.273e-6
-1.215, 2.248e-6
-1.216, 2.307e-6
-1.217, 2.330e-6
-1.218, 2.305e-6
-1.219, 2.346e-6
-1.220, 2.368e-6
-1.221, 2.358e-6
-1.222, 2.394e-6
-1.223, 2.409e-6
-1.224, 2.402e-6
-1.225, 2.428e-6
-1.226, 2.445e-6
-1.227, 2.491e-6
-1.228, 2.490e-6
-1.229, 2.520e-6
-1.230, 2.567e-6
-1.231, 2.583e-6
-1.232, 2.560e-6
-1.233, 2.603e-6
-1.234, 2.647e-6
-1.235, 2.679e-6
-1.236, 2.695e-6
-1.237, 2.695e-6
-1.238, 2.737e-6
-1.239, 2.756e-6
-1.240, 2.764e-6
-1.241, 2.797e-6
-1.242, 2.844e-6
-1.243, 2.874e-6
-1.244, 2.887e-6
-1.245, 2.875e-6
-1.246, 2.881e-6
-1.247, 2.966e-6
-1.248, 2.996e-6
-1.249, 3.003e-6
-1.250, 3.022e-6
-1.251, 3.038e-6
-1.252, 3.106e-6
-1.253, 3.078e-6
-1.254, 3.107e-6
-1.255, 3.118e-6
-1.256, 3.169e-6
-1.257, 3.201e-6
-1.258, 3.232e-6
-1.259, 3.245e-6
-1.260, 3.271e-6
-1.261, 3.342e-6
-1.262, 3.332e-6
-1.263, 3.375e-6
-1.264, 3.429e-6
-1.265, 3.385e-6
-1.266, 3.468e-6
-1.267, 3.552e-6
-1.268, 3.563e-6
-1.269, 3.564e-6
-1.270, 3.600e-6
-1.271, 3.595e-6
-1.272, 3.689e-6
-1.273, 3.676e-6
-1.274, 3.827e-6
-1.275, 3.800e-6
-1.276, 3.810e-6
-1.277, 3.847e-6
-1.278, 3.953e-6
-1.279, 4.014e-6
-1.280, 4.042e-6
-1.281, 4.079e-6
-1.282, 4.096e-6
-1.283, 4.202e-6
-1.284, 4.186e-6
-1.285, 4.241e-6
-1.286, 4.298e-6
-1.287, 4.405e-6
-1.288, 4.442e-6
-1.289, 4.467e-6
-1.290, 4.389e-6
-1.291, 4.446e-6
-1.292, 4.608e-6
-1.293, 4.630e-6
-1.294, 4.761e-6
-1.295, 4.733e-6
-1.296, 4.763e-6
-1.297, 4.826e-6
-1.298, 4.858e-6
-1.299, 4.955e-6
-1.300, 4.999e-6
-1.301, 5.103e-6
-1.302, 5.133e-6
-1.303, 5.268e-6
-1.304, 5.307e-6
-1.305, 5.323e-6
-1.306, 5.401e-6
-1.307, 5.439e-6
-1.308, 5.528e-6
-1.309, 5.618e-6
-1.310, 5.572e-6
-1.311, 5.671e-6
-1.312, 5.740e-6
-1.313, 5.782e-6
-1.314, 5.929e-6
-1.315, 5.922e-6
-1.316, 5.970e-6
-1.317, 6.051e-6
-1.318, 6.115e-6
-1.319, 6.151e-6
-1.320, 6.231e-6
-1.321, 6.263e-6
-1.322, 6.313e-6
-1.323, 6.609e-6
-1.324, 6.658e-6
-1.325, 6.685e-6
-1.326, 6.721e-6
-1.327, 6.821e-6
-1.328, 6.929e-6
-1.329, 7.013e-6
-1.330, 6.996e-6
-1.331, 7.049e-6
-1.332, 7.241e-6
-1.333, 7.249e-6
-1.334, 7.375e-6
-1.335, 7.444e-6
-1.336, 7.454e-6
-1.337, 7.445e-6
-1.338, 7.573e-6
-1.339, 7.716e-6
-1.340, 7.633e-6
-1.341, 7.757e-6
-1.342, 7.768e-6
-1.343, 7.788e-6
-1.344, 7.947e-6
-1.345, 8.077e-6
-1.346, 8.131e-6
-1.347, 8.161e-6
-1.348, 8.264e-6
-1.349, 8.406e-6
-1.350, 8.511e-6
-1.351, 8.547e-6
-1.352, 8.510e-6
-1.353, 8.630e-6
-1.354, 8.756e-6
-1.355, 8.963e-6
-1.356, 9.019e-6
-1.357, 9.169e-6
-1.358, 9.278e-6
-1.359, 9.199e-6
-1.360, 9.352e-6
-1.361, 9.388e-6
-1.362, 9.359e-6
-1.363, 9.530e-6
-1.364, 9.604e-6
-1.365, 9.644e-6
-1.366, 9.677e-6
-1.367, 9.736e-6
-1.368, 9.873e-6
-1.369, 1.007e-5
-1.370, 1.017e-5
-1.371, 9.968e-6
-1.372, 1.013e-5
-1.373, 1.021e-5
-1.374, 1.031e-5
-1.375, 1.030e-5
-1.376, 1.047e-5
-1.377, 1.072e-5
-1.378, 1.090e-5
-1.379, 1.092e-5
-1.380, 1.104e-5
-1.381, 1.150e-5
-1.382, 1.148e-5
-1.383, 1.159e-5
-1.384, 1.159e-5
-1.385, 1.170e-5
-1.386, 1.184e-5
-1.387, 1.207e-5
-1.388, 1.217e-5
-1.389, 1.235e-5
-1.390, 1.229e-5
-1.391, 1.242e-5
-1.392, 1.243e-5
-1.393, 1.262e-5
-1.394, 1.293e-5
-1.395, 1.317e-5
-1.396, 1.341e-5
-1.397, 1.354e-5
-1.398, 1.356e-5
-1.399, 1.372e-5
-1.400, 1.357e-5
-1.401, 1.372e-5
-1.402, 1.394e-5
-1.403, 1.354e-5
-1.404, 1.359e-5
-1.405, 1.408e-5
-1.406, 1.427e-5
-1.407, 1.441e-5
-1.408, 1.462e-5
-1.409, 1.466e-5
-1.410, 1.476e-5
-1.411, 1.485e-5
-1.412, 1.552e-5
-1.413, 1.569e-5
-1.414, 1.571e-5
-1.415, 1.598e-5
-1.416, 1.619e-5
-1.417, 1.633e-5
-1.418, 1.655e-5
-1.419, 1.654e-5
-1.420, 1.665e-5
-1.421, 1.703e-5
-1.422, 1.710e-5
-1.423, 1.718e-5
-1.424, 1.738e-5
-1.425, 1.753e-5
-1.426, 1.756e-5
-1.427, 1.766e-5
-1.428, 1.799e-5
-1.429, 1.825e-5
-1.430, 1.818e-5
-1.431, 1.862e-5
-1.432, 1.890e-5
-1.433, 1.908e-5
-1.434, 1.933e-5
-1.435, 1.979e-5
-1.436, 2.000e-5
-1.437, 2.049e-5
-1.438, 2.071e-5
-1.439, 2.133e-5
-1.440, 2.157e-5
-1.441, 2.159e-5
-1.442, 2.147e-5
-1.443, 1.965e-5
-1.444, 2.041e-5
-1.445, 2.108e-5
-1.446, 2.137e-5
-1.447, 2.181e-5
-1.448, 2.156e-5
-1.449, 2.182e-5
-1.450, 2.216e-5
-1.451, 2.238e-5
-1.452, 2.244e-5
-1.453, 2.298e-5
-1.454, 2.336e-5
-1.455, 2.366e-5
-1.456, 2.426e-5
-1.457, 2.453e-5
-1.458, 2.446e-5
-1.459, 2.513e-5
-1.460, 2.285e-5
-1.461, 2.207e-5
-1.462, 2.270e-5
-1.463, 2.309e-5
-1.464, 2.355e-5
-1.465, 2.387e-5
-1.466, 2.354e-5
-1.467, 2.413e-5
-1.468, 2.396e-5
-1.469, 2.472e-5
-1.470, 2.393e-5
-1.471, 2.427e-5
-1.472, 2.479e-5
-1.473, 2.492e-5
-1.474, 2.506e-5
-1.475, 2.663e-5
-1.476, 2.655e-5
-1.477, 2.633e-5
-1.478, 2.600e-5
-1.479, 2.563e-5
-1.480, 2.510e-5
-1.481, 2.442e-5
-1.482, 2.525e-5
-1.483, 2.570e-5
-1.484, 2.616e-5
-1.485, 2.664e-5
-1.486, 2.655e-5
-1.487, 2.658e-5
-1.488, 2.732e-5
-1.489, 2.744e-5
-1.490, 2.782e-5
-1.491, 2.799e-5
-1.492, 2.835e-5
-1.493, 2.875e-5
-1.494, 2.915e-5
-1.495, 2.985e-5
-1.496, 3.020e-5
-1.497, 3.091e-5
-1.498, 3.114e-5
-1.499, 3.199e-5
-1.500, 3.090e-5
-1.501, 2.900e-5
-1.502, 2.961e-5
-1.503, 3.254e-5
-1.504, 3.273e-5
-1.505, 3.318e-5
-1.506, 3.374e-5
-1.507, 3.457e-5
-1.508, 3.415e-5
-1.509, 3.433e-5
-1.510, 3.559e-5
-1.511, 3.601e-5
-1.512, 3.634e-5
-1.513, 3.536e-5
-1.514, 3.619e-5
-1.515, 3.594e-5
-1.516, 3.628e-5
-1.517, 3.739e-5
-1.518, 3.830e-5
-1.519, 3.817e-5
-1.520, 3.773e-5
-1.521, 3.940e-5
-1.522, 4.010e-5
-1.523, 4.065e-5
-1.524, 3.760e-5
-1.525, 3.895e-5
-1.526, 3.992e-5
-1.527, 3.815e-5
-1.528, 3.911e-5
-1.529, 3.936e-5
-1.530, 3.935e-5
-1.531, 4.009e-5
-1.532, 4.064e-5
-1.533, 4.120e-5
-1.534, 4.118e-5
-1.535, 3.905e-5
-1.536, 3.960e-5
-1.537, 4.134e-5
-1.538, 4.145e-5
-1.539, 4.257e-5
-1.540, 4.343e-5
-1.541, 4.446e-5
-1.542, 4.136e-5
-1.543, 4.169e-5
-1.544, 4.018e-5
-1.545, 4.041e-5
-1.546, 4.114e-5
-1.547, 4.145e-5
-1.548, 4.056e-5
-1.549, 4.203e-5
-1.550, 4.194e-5
-1.551, 4.082e-5
-1.552, 4.166e-5
-1.553, 4.166e-5
-1.554, 4.428e-5
-1.555, 4.513e-5
-1.556, 4.583e-5
-1.557, 4.660e-5
-1.558, 4.630e-5
-1.559, 4.644e-5
-1.560, 4.719e-5
-1.561, 4.831e-5
-1.562, 4.937e-5
-1.563, 4.976e-5
-1.564, 4.617e-5
-1.565, 4.668e-5
-1.566, 4.585e-5
-1.567, 4.675e-5
-1.568, 4.702e-5
-1.569, 4.819e-5
-1.570, 4.929e-5
-1.571, 4.963e-5
-1.572, 5.048e-5
-1.573, 5.278e-5
-1.574, 5.492e-5
-1.575, 5.570e-5
-1.576, 5.727e-5
-1.577, 6.013e-5
-1.578, 5.567e-5
-1.579, 5.867e-5
-1.580, 5.935e-5
-1.581, 6.113e-5
-1.582, 6.110e-5
-1.583, 5.989e-5
-1.584, 5.748e-5
-1.585, 5.496e-5
-1.586, 5.528e-5
-1.587, 5.607e-5
-1.588, 5.560e-5
-1.589, 5.577e-5
-1.590, 5.677e-5
-1.591, 5.886e-5
-1.592, 5.789e-5
-1.593, 5.601e-5
-1.594, 5.682e-5
-1.595, 5.927e-5
-1.596, 5.935e-5
-1.597, 5.827e-5
-1.598, 6.106e-5
-1.599, 6.376e-5
-1.600, 6.590e-5
-1.601, 6.026e-5
-1.602, 6.066e-5
-1.603, 6.571e-5
-1.604, 6.095e-5
-1.605, 6.329e-5
-1.606, 6.424e-5
-1.607, 6.237e-5
-1.608, 6.121e-5
-1.609, 6.099e-5
-1.610, 6.202e-5
-1.611, 6.124e-5
-1.612, 6.291e-5
-1.613, 6.246e-5
-1.614, 6.142e-5
-1.615, 6.172e-5
-1.616, 6.322e-5
-1.617, 6.112e-5
-1.618, 6.121e-5
-1.619, 6.316e-5
-1.620, 6.237e-5
-1.621, 6.340e-5
-1.622, 6.411e-5
-1.623, 6.444e-5
-1.624, 6.649e-5
-1.625, 6.755e-5
-1.626, 6.786e-5
-1.627, 6.813e-5
-1.628, 6.473e-5
-1.629, 6.762e-5
-1.630, 7.171e-5
-1.631, 7.232e-5
-1.632, 7.523e-5
-1.633, 7.508e-5
-1.634, 7.647e-5
-1.635, 7.791e-5
-1.636, 7.746e-5
-1.637, 7.664e-5
-1.638, 7.697e-5
-1.639, 7.674e-5
-1.640, 7.564e-5
-1.641, 7.746e-5
-1.642, 7.969e-5
-1.643, 8.166e-5
-1.644, 8.079e-5
-1.645, 7.605e-5
-1.646, 7.717e-5
-1.647, 7.652e-5
-1.648, 7.729e-5
-1.649, 8.050e-5
-1.650, 8.129e-5
-1.651, 8.500e-5
-1.652, 8.689e-5
-1.653, 8.652e-5
-1.654, 8.888e-5
-1.655, 9.161e-5
-1.656, 9.560e-5
-1.657, 9.432e-5
-1.658, 9.483e-5
-1.659, 9.582e-5
-1.660, 9.713e-5
-1.661, 1.015e-4
-1.662, 1.019e-4
-1.663, 1.093e-4
-1.664, 1.090e-4
-1.665, 1.092e-4
-1.666, 1.078e-4
-1.667, 9.466e-5
-1.668, 7.798e-5
-1.669, 7.922e-5
-1.670, 8.105e-5
-1.671, 8.034e-5
-1.672, 8.160e-5
-1.673, 8.311e-5
-1.674, 8.262e-5
-1.675, 8.336e-5
-1.676, 8.521e-5
-1.677, 8.786e-5
-1.678, 9.080e-5
-1.679, 8.954e-5
-1.680, 9.104e-5
-1.681, 9.230e-5
-1.682, 9.456e-5
-1.683, 9.678e-5
-1.684, 9.769e-5
-1.685, 1.002e-4
-1.686, 9.975e-5
-1.687, 1.029e-4
-1.688, 1.052e-4
-1.689, 1.083e-4
-1.690, 1.109e-4
-1.691, 1.080e-4
-1.692, 1.091e-4
-1.693, 1.114e-4
-1.694, 1.152e-4
-1.695, 1.195e-4
-1.696, 1.234e-4
-1.697, 1.278e-4
-1.698, 1.317e-4
-1.699, 1.311e-4
-1.700, 1.340e-4
-1.699, 1.311e-4
-1.698, 1.207e-4
-1.697, 1.132e-4
-1.696, 1.151e-4
-1.695, 1.151e-4
-1.694, 1.129e-4
-1.693, 1.108e-4
-1.692, 1.086e-4
-1.691, 1.072e-4
-1.690, 1.037e-4
-1.689, 1.030e-4
-1.688, 1.017e-4
-1.687, 9.823e-5
-1.686, 9.836e-5
-1.685, 9.942e-5
-1.684, 9.622e-5
-1.683, 9.467e-5
-1.682, 9.349e-5
-1.681, 9.149e-5
-1.680, 9.010e-5
-1.679, 9.001e-5
-1.678, 8.748e-5
-1.677, 8.838e-5
-1.676, 8.521e-5
-1.675, 8.587e-5
-1.674, 8.416e-5
-1.673, 8.253e-5
-1.672, 7.994e-5
-1.671, 7.882e-5
-1.670, 7.752e-5
-1.669, 7.389e-5
-1.668, 7.316e-5
-1.667, 7.292e-5
-1.666, 7.091e-5
-1.665, 7.067e-5
-1.664, 7.059e-5
-1.663, 6.725e-5
-1.662, 7.027e-5
-1.661, 6.988e-5
-1.660, 6.617e-5
-1.659, 6.316e-5
-1.658, 6.225e-5
-1.657, 6.272e-5
-1.656, 6.165e-5
-1.655, 6.232e-5
-1.654, 6.003e-5
-1.653, 5.972e-5
-1.652, 5.898e-5
-1.651, 5.640e-5
-1.650, 5.589e-5
-1.649, 5.361e-5
-1.648, 5.370e-5
-1.647, 5.313e-5
-1.646, 5.268e-5
-1.645, 5.352e-5
-1.644, 5.160e-5
-1.643, 4.927e-5
-1.642, 5.178e-5
-1.641, 4.748e-5
-1.640, 4.701e-5
-1.639, 4.792e-5
-1.638, 4.600e-5
-1.637, 4.700e-5
-1.636, 4.616e-5
-1.635, 4.601e-5
-1.634, 4.643e-5
-1.633, 4.628e-5
-1.632, 4.564e-5
-1.631, 4.347e-5
-1.630, 4.295e-5
-1.629, 4.139e-5
-1.628, 3.970e-5
-1.627, 4.184e-5
-1.626, 3.991e-5
-1.625, 4.083e-5
-1.624, 4.076e-5
-1.623, 3.990e-5
-1.622, 4.123e-5
-1.621, 3.893e-5
-1.620, 3.777e-5
-1.619, 3.657e-5
-1.618, 3.658e-5
-1.617, 3.708e-5
-1.616, 3.698e-5
-1.615, 3.420e-5
-1.614, 3.431e-5
-1.613, 3.341e-5
-1.612, 3.442e-5
-1.611, 3.405e-5
-1.610, 3.290e-5
-1.609, 3.098e-5
-1.608, 3.040e-5
-1.607, 3.018e-5
-1.606, 3.137e-5
-1.605, 3.197e-5
-1.604, 2.998e-5
-1.603, 3.056e-5
-1.602, 2.982e-5
-1.601, 3.076e-5
-1.600, 3.060e-5
-1.599, 3.055e-5
-1.598, 2.956e-5
-1.597, 2.959e-5
-1.596, 2.883e-5
-1.595, 2.846e-5
-1.594, 2.828e-5
-1.593, 2.611e-5
-1.592, 2.682e-5
-1.591, 2.679e-5
-1.590, 2.795e-5
-1.589, 2.868e-5
-1.588, 2.806e-5
-1.587, 2.715e-5
-1.586, 2.430e-5
-1.585, 2.487e-5
-1.584, 2.441e-5
-1.583, 2.313e-5
-1.582, 2.372e-5
-1.581, 2.438e-5
-1.580, 2.423e-5
-1.579, 2.143e-5
-1.578, 2.173e-5
-1.577, 2.150e-5
-1.576, 2.160e-5
-1.575, 2.196e-5
-1.574, 2.133e-5
-1.573, 2.215e-5
-1.572, 2.126e-5
-1.571, 2.196e-5
-1.570, 2.184e-5
-1.569, 2.139e-5
-1.568, 2.000e-5
-1.567, 2.092e-5
-1.566, 2.205e-5
-1.565, 2.033e-5
-1.564, 1.799e-5
-1.563, 1.853e-5
-1.562, 1.858e-5
-1.561, 2.019e-5
-1.560, 1.916e-5
-1.559, 2.063e-5
-1.558, 1.765e-5
-1.557, 1.767e-5
-1.556, 1.634e-5
-1.555, 1.666e-5
-1.554, 1.632e-5
-1.553, 1.584e-5
-1.552, 1.611e-5
-1.551, 1.546e-5
-1.550, 1.591e-5
-1.549, 1.592e-5
-1.548, 1.631e-5
-1.547, 1.624e-5
-1.546, 1.522e-5
-1.545, 1.456e-5
-1.544, 1.439e-5
-1.543, 1.484e-5
-1.542, 1.444e-5
-1.541, 1.543e-5
-1.540, 1.428e-5
-1.539, 1.403e-5
-1.538, 1.624e-5
-1.537, 1.532e-5
-1.536, 1.423e-5
-1.535, 1.433e-5
-1.534, 1.395e-5
-1.533, 1.430e-5
-1.532, 1.552e-5
-1.531, 1.476e-5
-1.530, 1.345e-5
-1.529, 1.187e-5
-1.528, 1.053e-5
-1.527, 1.092e-5
-1.526, 1.189e-5
-1.525, 1.106e-5
-1.524, 1.140e-5
-1.523, 1.090e-5
-1.522, 1.162e-5
-1.521, 1.122e-5
-1.520, 1.078e-5
-1.519, 1.088e-5
-1.518, 1.032e-5
-1.517, 9.590e-6
-1.516, 9.651e-6
-1.515, 9.365e-6
-1.514, 9.857e-6
-1.513, 9.509e-6
-1.512, 1.005e-5
-1.511, 9.885e-6
-1.510, 1.062e-5
-1.509, 1.031e-5
-1.508, 1.040e-5
-1.507, 1.096e-5
-1.506, 1.041e-5
-1.505, 1.064e-5
-1.504, 1.056e-5
-1.503, 8.197e-6
-1.502, 8.151e-6
-1.501, 8.060e-6
-1.500, 8.724e-6
-1.499, 8.559e-6
-1.498, 8.205e-6
-1.497, 8.329e-6
-1.496, 8.996e-6
-1.495, 8.936e-6
-1.494, 8.774e-6
-1.493, 8.577e-6
-1.492, 8.989e-6
-1.491, 8.786e-6
-1.490, 8.334e-6
-1.489, 8.422e-6
-1.488, 8.631e-6
-1.487, 8.721e-6
-1.486, 8.783e-6
-1.485, 8.599e-6
-1.484, 8.415e-6
-1.483, 8.542e-6
-1.482, 7.300e-6
-1.481, 6.915e-6
-1.480, 7.691e-6
-1.479, 7.726e-6
-1.478, 7.343e-6
-1.477, 7.366e-6
-1.476, 7.652e-6
-1.475, 7.876e-6
-1.474, 7.498e-6
-1.473, 8.101e-6
-1.472, 8.015e-6
-1.471, 8.007e-6
-1.470, 7.829e-6
-1.469, 7.099e-6
-1.468, 5.937e-6
-1.467, 6.205e-6
-1.466, 6.181e-6
-1.465, 6.262e-6
-1.464, 5.643e-6
-1.463, 6.709e-6
-1.462, 6.528e-6
-1.461, 6.470e-6
-1.460, 6.268e-6
-1.459, 6.525e-6
-1.458, 6.096e-6
-1.457, 6.206e-6
-1.456, 6.125e-6
-1.455, 6.263e-6
-1.454, 6.304e-6
-1.453, 6.260e-6
-1.452, 6.367e-6
-1.451, 6.451e-6
-1.450, 6.473e-6
-1.449, 6.702e-6
-1.448, 6.475e-6
-1.447, 6.740e-6
-1.446, 6.719e-6
-1.445, 5.364e-6
-1.444, 5.197e-6
-1.443, 5.191e-6
-1.442, 4.993e-6
-1.441, 4.839e-6
-1.440, 4.739e-6
-1.439, 4.759e-6
-1.438, 4.929e-6
-1.437, 4.664e-6
-1.436, 4.548e-6
-1.435, 4.372e-6
-1.434, 4.775e-6
-1.433, 4.120e-6
-1.432, 4.195e-6
-1.431, 4.468e-6
-1.430, 4.598e-6
-1.429, 4.369e-6
-1.428, 4.253e-6
-1.427, 4.708e-6
-1.426, 4.603e-6
-1.425, 4.368e-6
-1.424, 4.071e-6
-1.423, 4.441e-6
-1.422, 4.566e-6
-1.421, 4.469e-6
-1.420, 4.569e-6
-1.419, 4.507e-6
-1.418, 4.425e-6
-1.417, 4.400e-6
-1.416, 3.865e-6
-1.415, 3.546e-6
-1.414, 3.921e-6
-1.413, 3.566e-6
-1.412, 3.359e-6
-1.411, 3.258e-6
-1.410, 3.275e-6
-1.409, 3.351e-6
-1.408, 3.110e-6
-1.407, 3.319e-6
-1.406, 3.501e-6
-1.405, 3.466e-6
-1.404, 3.382e-6
-1.403, 3.096e-6
-1.402, 3.112e-6
-1.401, 3.064e-6
-1.400, 3.059e-6
-1.399, 3.055e-6
-1.398, 2.896e-6
-1.397, 2.887e-6
-1.396, 3.125e-6
-1.395, 3.328e-6
-1.394, 3.270e-6
-1.393, 3.207e-6
-1.392, 3.149e-6
-1.391, 3.136e-6
-1.390, 3.143e-6
-1.389, 3.112e-6
-1.388, 2.931e-6
-1.387, 2.741e-6
-1.386, 3.380e-6
-1.385, 3.326e-6
-1.384, 3.310e-6
-1.383, 2.859e-6
-1.382, 3.164e-6
-1.381, 2.880e-6
-1.380, 2.904e-6
-1.379, 2.897e-6
-1.378, 2.847e-6
-1.377, 2.979e-6
-1.376, 2.930e-6
-1.375, 2.803e-6
-1.374, 2.711e-6
-1.373, 2.437e-6
-1.372, 2.215e-6
-1.371, 2.411e-6
-1.370, 2.233e-6
-1.369, 2.262e-6
-1.368, 2.266e-6
-1.367, 2.306e-6
-1.366, 3.050e-6
-1.365, 2.966e-6
-1.364, 2.788e-6
-1.363, 2.658e-6
-1.362, 2.651e-6
-1.361, 2.626e-6
-1.360, 2.605e-6
-1.359, 1.832e-6
-1.358, 2.108e-6
-1.357, 2.544e-6
-1.356, 2.502e-6
-1.355, 2.441e-6
-1.354, 2.356e-6
-1.353, 2.279e-6
-1.352, 2.234e-6
-1.351, 2.178e-6
-1.350, 2.092e-6
-1.349, 1.784e-6
-1.348, 1.643e-6
-1.347, 1.701e-6
-1.346, 1.700e-6
-1.345, 2.150e-6
-1.344, 2.218e-6
-1.343, 2.055e-6
-1.342, 1.941e-6
-1.341, 1.970e-6
-1.340, 1.783e-6
-1.339, 1.874e-6
-1.338, 1.862e-6
-1.337, 1.733e-6
-1.336, 1.246e-6
-1.335, 1.300e-6
-1.334, 1.290e-6
-1.333, 1.372e-6
-1.332, 1.308e-6
-1.331, 1.288e-6
-1.330, 1.312e-6
-1.329, 1.420e-6
-1.328, 1.392e-6
-1.327, 1.398e-6
-1.326, 1.374e-6
-1.325, 1.290e-6
-1.324, 1.271e-6
-1.323, 1.275e-6
-1.322, 1.198e-6
-1.321, 1.126e-6
-1.320, 1.147e-6
-1.319, 1.236e-6
-1.318, 1.182e-6
-1.317, 1.221e-6
-1.316, 1.188e-6
-1.315, 1.273e-6
-1.314, 1.325e-6
-1.313, 1.194e-6
-1.312, 1.249e-6
-1.311, 1.201e-6
-1.310, 1.032e-6
-1.309, 1.007e-6
-1.308, 9.321e-7
-1.307, 7.693e-7
-1.306, 7.634e-7
-1.305, 7.901e-7
-1.304, 7.693e-7
-1.303, 7.723e-7
-1.302, 8.246e-7
-1.301, 8.325e-7
-1.300, 8.256e-7
-1.299, 7.220e-7
-1.298, 6.993e-7
-1.297, 6.766e-7
-1.296, 6.440e-7
-1.295, 6.411e-7
-1.294, 6.006e-7
-1.293, 5.701e-7
-1.292, 6.322e-7
-1.291, 6.638e-7
-1.290, 7.447e-7
-1.289, 7.536e-7
-1.288, 6.411e-7
-1.287, 5.651e-7
-1.286, 4.319e-7
-1.285, 5.257e-7
-1.284, 4.645e-7
-1.283, 3.826e-7
-1.282, 4.112e-7
-1.281, 4.211e-7
-1.280, 5.069e-7
-1.279, 4.882e-7
-1.278, 4.625e-7
-1.277, 4.536e-7
-1.276, 5.020e-7
-1.275, 3.816e-7
-1.274, 3.293e-7
-1.273, 3.984e-7
-1.272, 3.323e-7
-1.271, 3.234e-7
-1.270, 2.543e-7
-1.269, 2.543e-7
-1.268, 2.455e-7
-1.267, 2.149e-7
-1.266, 1.843e-7
-1.265, 2.188e-7
-1.264, 1.932e-7
-1.263, 2.346e-7
-1.262, 2.080e-7
-1.261, 1.389e-7
-1.260, 1.803e-7
-1.259, 1.024e-7
-1.258, 6.886e-8
-1.257, 1.231e-7
-1.256, 5.209e-8
-1.255, 7.577e-8
-1.254, 2.447e-8
-1.253, -2.486e-8
-1.252, 1.362e-8
-1.251, -5.130e-9
-1.250, -7.103e-9
-1.249, 2.762e-9
-1.248, -6.926e-8
-1.247, -9.688e-8
-1.246, -7.518e-8
-1.245, -9.984e-8
-1.244, -8.307e-8
-1.243, -1.097e-7
-1.242, -1.344e-7
-1.241, -1.117e-7
-1.240, -1.294e-7
-1.239, -1.521e-7
-1.238, -1.650e-7
-1.237, -2.074e-7
-1.236, -1.630e-7
-1.235, -2.005e-7
-1.234, -2.182e-7
-1.233, -1.946e-7
-1.232, -2.686e-7
-1.231, -2.626e-7
-1.230, -2.508e-7
-1.229, -2.607e-7
-1.228, -3.060e-7
-1.227, -3.593e-7
-1.226, -3.583e-7
-1.225, -3.120e-7
-1.224, -3.080e-7
-1.223, -3.958e-7
-1.222, -3.633e-7
-1.221, -4.165e-7
-1.220, -3.869e-7
-1.219, -3.948e-7
-1.218, -4.333e-7
-1.217, -4.333e-7
-1.216, -4.639e-7
-1.215, -4.195e-7
-1.214, -4.501e-7
-1.213, -4.826e-7
-1.212, -4.777e-7
-1.211, -4.866e-7
-1.210, -5.063e-7
-1.209, -4.895e-7
-1.208, -4.905e-7
-1.207, -5.458e-7
-1.206, -5.537e-7
-1.205, -5.616e-7
-1.204, -5.685e-7
-1.203, -5.468e-7
-1.202, -6.306e-7
-1.201, -5.734e-7
-1.200, -5.892e-7
-1.199, -6.237e-7
-1.198, -6.089e-7
-1.197, -6.168e-7
-1.196, -6.385e-7
-1.195, -6.829e-7
-1.194, -6.918e-7
-1.193, -6.563e-7
-1.192, -6.602e-7
-1.191, -7.115e-7
-1.190, -6.849e-7
-1.189, -6.957e-7
-1.188, -6.829e-7
-1.187, -7.401e-7
-1.186, -7.411e-7
-1.185, -7.421e-7
-1.184, -7.530e-7
-1.183, -7.579e-7
-1.182, -7.263e-7
-1.181, -7.697e-7
-1.180, -7.648e-7
-1.179, -7.421e-7
-1.178, -7.895e-7
-1.177, -8.161e-7
-1.176, -8.122e-7
-1.175, -8.398e-7
-1.174, -8.072e-7
-1.173, -8.497e-7
-1.172, -8.536e-7
-1.171, -8.654e-7
-1.170, -9.108e-7
-1.169, -8.950e-7
-1.168, -9.010e-7
-1.167, -9.355e-7
-1.166, -9.167e-7
-1.165, -9.079e-7
-1.164, -9.641e-7
-1.163, -9.404e-7
-1.162, -9.503e-7
-1.161, -9.256e-7
-1.160, -9.523e-7
-1.159, -9.671e-7
-1.158, -9.424e-7
-1.157, -9.562e-7
-1.156, -9.927e-7
-1.155, -1.032e-6
-1.154, -1.071e-6
-1.153, -1.029e-6
-1.152, -1.022e-6
-1.151, -1.066e-6
-1.150, -1.167e-6
-1.149, -1.146e-6
-1.148, -1.171e-6
-1.147, -1.142e-6
-1.146, -1.179e-6
-1.145, -1.135e-6
-1.144, -1.176e-6
-1.143, -1.122e-6
-1.142, -1.154e-6
-1.141, -1.153e-6
-1.140, -1.159e-6
-1.139, -1.180e-6
-1.138, -1.251e-6
-1.137, -1.322e-6
-1.136, -1.309e-6
-1.135, -1.301e-6
-1.134, -1.228e-6
-1.133, -1.222e-6
-1.132, -1.258e-6
-1.131, -1.275e-6
-1.130, -1.269e-6
-1.129, -1.319e-6
-1.128, -1.281e-6
-1.127, -1.322e-6
-1.126, -1.287e-6
-1.125, -1.296e-6
-1.124, -1.334e-6
-1.123, -1.352e-6
-1.122, -1.371e-6
-1.121, -1.396e-6
-1.120, -1.400e-6
-1.119, -1.421e-6
-1.118, -1.447e-6
-1.117, -1.430e-6
-1.116, -1.466e-6
-1.115, -1.447e-6
-1.114, -1.416e-6
-1.113, -1.479e-6
-1.112, -1.514e-6
-1.111, -1.454e-6
-1.110, -1.506e-6
-1.109, -1.475e-6
-1.108, -1.499e-6
-1.107, -1.541e-6
-1.106, -1.519e-6
-1.105, -1.543e-6
-1.104, -1.583e-6
-1.103, -1.577e-6
-1.102, -1.627e-6
-1.101, -1.622e-6
-1.100, -1.636e-6
-1.099, -1.665e-6
-1.098, -1.642e-6
-1.097, -1.692e-6
-1.096, -1.697e-6
-1.095, -1.712e-6
-1.094, -1.781e-6
-1.093, -1.771e-6
-1.092, -1.778e-6
-1.091, -1.859e-6
-1.090, -1.842e-6
-1.089, -1.844e-6
-1.088, -1.926e-6
-1.087, -1.909e-6
-1.086, -1.921e-6
-1.085, -1.960e-6
-1.084, -1.892e-6
-1.083, -1.938e-6
-1.082, -2.119e-6
-1.081, -2.236e-6
-1.080, -2.263e-6
-1.079, -2.305e-6
-1.078, -2.380e-6
-1.077, -2.460e-6
-1.076, -2.460e-6
-1.075, -2.332e-6
-1.074, -2.297e-6
-1.073, -2.284e-6
-1.072, -2.280e-6
-1.071, -2.301e-6
-1.070, -2.363e-6
-1.069, -2.401e-6
-1.068, -2.381e-6
-1.067, -2.482e-6
-1.066, -2.610e-6
-1.065, -2.650e-6
-1.064, -2.619e-6
-1.063, -2.618e-6
-1.062, -2.540e-6
-1.061, -2.695e-6
-1.060, -2.876e-6
-1.059, -2.726e-6
-1.058, -2.547e-6
-1.057, -2.589e-6
-1.056, -2.533e-6
-1.055, -2.494e-6
-1.054, -2.560e-6
-1.053, -2.639e-6
-1.052, -2.588e-6
-1.051, -2.625e-6
-1.050, -2.631e-6
-1.049, -2.642e-6
-1.048, -2.699e-6
-1.047, -2.656e-6
-1.046, -2.708e-6
-1.045, -2.715e-6
-1.044, -2.699e-6
-1.043, -2.801e-6
-1.042, -2.808e-6
-1.041, -2.809e-6
-1.040, -2.845e-6
-1.039, -2.958e-6
-1.038, -3.023e-6
-1.037, -3.090e-6
-1.036, -3.085e-6
-1.035, -3.097e-6
-1.034, -3.138e-6
-1.033, -4.173e-6
-1.032, -4.013e-6
-1.031, -3.732e-6
-1.030, -3.602e-6
-1.029, -3.114e-6
-1.028, -3.075e-6
-1.027, -3.159e-6
-1.026, -3.263e-6
-1.025, -3.172e-6
-1.024, -3.182e-6
-1.023, -3.173e-6
-1.022, -3.239e-6
-1.021, -3.354e-6
-1.020, -3.288e-6
-1.019, -3.243e-6
-1.018, -3.351e-6
-1.017, -3.336e-6
-1.016, -3.397e-6
-1.015, -3.427e-6
-1.014, -3.331e-6
-1.013, -3.433e-6
-1.012, -3.410e-6
-1.011, -3.410e-6
-1.010, -3.518e-6
-1.009, -3.545e-6
-1.008, -3.541e-6
-1.007, -3.549e-6
-1.006, -3.588e-6
-1.005, -3.596e-6
-1.004, -3.692e-6
-1.003, -3.653e-6
-1.002, -3.644e-6
-1.001, -3.661e-6
-1.000, -3.397e-6
-1.001, -3.243e-6
-1.002, -3.088e-6
-1.003, -2.710e-6
-1.004, -2.557e-6
-1.005, -2.354e-6
-1.006, -2.233e-6
-1.007, -2.131e-6
-1.008, -2.048e-6
-1.009, -1.976e-6
-1.010, -1.937e-6
-1.011, -1.778e-6
-1.012, -1.683e-6
-1.013, -1.567e-6
-1.014, -1.482e-6
-1.015, -1.436e-6
-1.016, -1.323e-6
-1.017, -1.311e-6
-1.018, -1.207e-6
-1.019, -1.161e-6
-1.020, -1.132e-6
-1.021, -1.027e-6
-1.022, -1.004e-6
-1.023, -9.740e-7
-1.024, -8.941e-7
-1.025, -8.605e-7
-1.026, -8.102e-7
-1.027, -7.569e-7
-1.028, -7.668e-7
-1.029, -6.760e-7
-1.030, -6.464e-7
-1.031, -6.227e-7
-1.032, -5.882e-7
-1.033, -5.616e-7
-1.034, -5.428e-7
-1.035, -4.866e-7
-1.036, -4.471e-7
-1.037, -4.452e-7
-1.038, -3.879e-7
-1.039, -3.899e-7
-1.040, -3.672e-7
-1.041, -3.100e-7
-1.042, -3.337e-7
-1.043, -2.577e-7
-1.044, -2.192e-7
-1.045, -2.281e-7
-1.046, -1.798e-7
-1.047, -1.679e-7
-1.048, -1.719e-7
-1.049, -1.067e-7
-1.050, -9.491e-8
-1.051, -6.433e-8
-1.052, -6.334e-8
-1.053, -5.051e-8
-1.054, 4.736e-9
-1.055, -3.177e-8
-1.056, -1.105e-8
-1.057, 7.380e-8
-1.058, 5.703e-8
-1.059, 6.196e-8
-1.060, 8.958e-8
-1.061, 6.590e-8
-1.062, 1.231e-7
-1.063, 1.379e-7
-1.064, 1.221e-7
-1.065, 1.458e-7
-1.066, 2.021e-7
-1.067, 1.419e-7
-1.068, 2.030e-7
-1.069, 2.336e-7
-1.070, 2.001e-7
-1.071, 2.445e-7
-1.072, 2.149e-7
-1.073, 2.435e-7
-1.074, 2.899e-7
-1.075, 2.958e-7
-1.076, 2.800e-7
-1.077, 3.165e-7
-1.078, 3.155e-7
-1.079, 3.737e-7
-1.080, 3.925e-7
-1.081, 3.520e-7
-1.082, 4.112e-7
-1.083, 3.925e-7
-1.084, 4.004e-7
-1.085, 4.388e-7
-1.086, 4.566e-7
-1.087, 4.260e-7
-1.088, 4.517e-7
-1.089, 4.872e-7
-1.090, 4.773e-7
-1.091, 5.178e-7
-1.092, 4.645e-7
-1.093, 4.852e-7
-1.094, 5.375e-7
-1.095, 5.227e-7
-1.096, 5.434e-7
-1.097, 5.257e-7
-1.098, 5.523e-7
-1.099, 5.799e-7
-1.100, 6.016e-7
-1.101, 5.661e-7
-1.102, 6.046e-7
-1.103, 6.214e-7
-1.104, 5.997e-7
-1.105, 6.322e-7
-1.106, 6.243e-7
-1.107, 6.115e-7
-1.108, 6.579e-7
-1.109, 6.559e-7
-1.110, 6.598e-7
-1.111, 6.835e-7
-1.112, 6.855e-7
-1.113, 6.993e-7
-1.114, 7.358e-7
-1.115, 6.855e-7
-1.116, 7.111e-7
-1.117, 7.516e-7
-1.118, 7.516e-7
-1.119, 7.585e-7
-1.120, 7.624e-7
-1.121, 7.565e-7
-1.122, 8.019e-7
-1.123, 7.615e-7
-1.124, 8.364e-7
-1.125, 8.424e-7
-1.126, 8.670e-7
-1.127, 8.562e-7
-1.128, 8.532e-7
-1.129, 9.094e-7
-1.130, 8.453e-7
-1.131, 9.045e-7
-1.132, 8.946e-7
-1.133, 8.641e-7
-1.134, 9.213e-7
-1.135, 8.976e-7
-1.136, 8.858e-7
-1.137, 9.223e-7
-1.138, 9.459e-7
-1.139, 9.716e-7
-1.140, 1.003e-6
-1.141, 9.874e-7
-1.142, 9.548e-7
-1.143, 9.815e-7
-1.144, 9.874e-7
-1.145, 9.578e-7
-1.146, 9.963e-7
-1.147, 1.011e-6
-1.148, 1.017e-6
-1.149, 1.039e-6
-1.150, 9.992e-7
-1.151, 1.041e-6
-1.152, 1.091e-6
-1.153, 1.048e-6
-1.154, 1.077e-6
-1.155, 1.094e-6
-1.156, 1.052e-6
-1.157, 1.098e-6
-1.158, 1.144e-6
-1.159, 1.144e-6
-1.160, 1.139e-6
-1.161, 1.158e-6
-1.162, 1.113e-6
-1.163, 1.140e-6
-1.164, 1.166e-6
-1.165, 1.133e-6
-1.166, 1.161e-6
-1.167, 1.191e-6
-1.168, 1.197e-6
-1.169, 1.278e-6
-1.170, 1.222e-6
-1.171, 1.233e-6
-1.172, 1.268e-6
-1.173, 1.246e-6
-1.174, 1.283e-6
-1.175, 1.302e-6
-1.176, 1.289e-6
-1.177, 1.282e-6
-1.178, 1.311e-6
-1.179, 1.369e-6
-1.180, 1.417e-6
-1.181, 1.425e-6
-1.182, 1.374e-6
-1.183, 1.386e-6
-1.184, 1.431e-6
-1.185, 1.393e-6
-1.186, 1.423e-6
-1.187, 1.379e-6
-1.188, 1.407e-6
-1.189, 1.438e-6
-1.190, 1.431e-6
-1.191, 1.422e-6
-1.192, 1.462e-6
-1.193, 1.439e-6
-1.194, 1.470e-6
-1.195, 1.492e-6
-1.196, 1.515e-6
-1.197, 1.480e-6
-1.198, 1.514e-6
-1.199, 1.543e-6
-1.200, 1.528e-6
-1.201, 1.583e-6
-1.202, 1.548e-6
-1.203, 1.575e-6
-1.204, 1.617e-6
-1.205, 1.576e-6
-1.206, 1.570e-6
-1.207, 1.618e-6
-1.208, 1.629e-6
-1.209, 1.678e-6
-1.210, 1.688e-6
-1.211, 1.668e-6
-1.212, 1.682e-6
-1.213, 1.701e-6
-1.214, 1.718e-6
-1.215, 1.715e-6
-1.216, 1.735e-6
-1.217, 1.720e-6
-1.218, 1.753e-6
-1.219, 1.763e-6
-1.220, 1.762e-6
-1.221, 1.791e-6
-1.222, 1.788e-6
-1.223, 1.806e-6
-1.224, 1.845e-6
-1.225, 1.849e-6
-1.226, 1.847e-6
-1.227, 1.972e-6
-1.228, 1.895e-6
-1.229, 1.875e-6
-1.230, 1.964e-6
-1.231, 1.960e-6
-1.232, 1.933e-6
-1.233, 1.993e-6
-1.234, 2.026e-6
-1.235, 2.030e-6
-1.236, 2.074e-6
-1.237, 2.062e-6
-1.238, 2.075e-6
-1.239, 2.087e-6
-1.240, 2.105e-6
-1.241, 2.087e-6
-1.242, 2.114e-6
-1.243, 2.134e-6
-1.244, 2.137e-6
-1.245, 2.214e-6
-1.246, 2.221e-6
-1.247, 2.227e-6
-1.248, 2.268e-6
-1.249, 2.324e-6
-1.250, 2.286e-6
-1.251, 2.242e-6
-1.252, 2.312e-6
-1.253, 2.294e-6
-1.254, 2.332e-6
-1.255, 2.367e-6
-1.256, 2.389e-6
-1.257, 2.406e-6
-1.258, 2.431e-6
-1.259, 2.386e-6
-1.260, 2.456e-6
-1.261, 2.500e-6
-1.262, 2.504e-6
-1.263, 2.546e-6
-1.264, 2.581e-6
-1.265, 2.546e-6
-1.266, 2.593e-6
-1.267, 2.623e-6
-1.268, 2.633e-6
-1.269, 2.645e-6
-1.270, 2.709e-6
-1.271, 2.690e-6
-1.272, 2.727e-6
-1.273, 2.774e-6
-1.274, 2.764e-6
-1.275, 2.824e-6
-1.276, 2.840e-6
-1.277, 2.817e-6
-1.278, 2.878e-6
-1.279, 2.906e-6
-1.280, 2.929e-6
-1.281, 2.963e-6
-1.282, 3.036e-6
-1.283, 3.051e-6
-1.284, 3.166e-6
-1.285, 3.151e-6
-1.286, 3.077e-6
-1.287, 3.085e-6
-1.288, 3.161e-6
-1.289, 3.153e-6
-1.290, 3.195e-6
-1.291, 3.187e-6
-1.292, 3.283e-6
-1.293, 3.336e-6
-1.294, 3.272e-6
-1.295, 3.286e-6
-1.296, 3.341e-6
-1.297, 3.317e-6
-1.298, 3.412e-6
-1.299, 3.398e-6
-1.300, 3.402e-6
-1.301, 3.458e-6
-1.302, 3.607e-6
-1.303, 3.585e-6
-1.304, 3.622e-6
-1.305, 3.599e-6
-1.306, 3.653e-6
-1.307, 3.843e-6
-1.308, 3.779e-6
-1.309, 3.753e-6
-1.310, 3.779e-6
-1.311, 3.749e-6
-1.312, 3.797e-6
-1.313, 3.834e-6
-1.314, 3.857e-6
-1.315, 3.875e-6
-1.316, 3.915e-6
-1.317, 3.920e-6
-1.318, 4.049e-6
-1.319, 4.176e-6
-1.320, 4.213e-6
-1.321, 4.195e-6
-1.322, 4.177e-6
-1.323, 3.969e-6
-1.324, 4.054e-6
-1.325, 4.096e-6
-1.326, 4.081e-6
-1.327, 4.152e-6
-1.328, 4.173e-6
-1.329, 4.180e-6
-1.330, 4.237e-6
-1.331, 4.265e-6
-1.332, 4.229e-6
-1.333, 4.319e-6
-1.334, 4.323e-6
-1.335, 4.365e-6
-1.336, 4.408e-6
-1.337, 4.401e-6
-1.338, 4.434e-6
-1.339, 4.472e-6
-1.340, 4.491e-6
-1.341, 4.431e-6
-1.342, 4.499e-6
-1.343, 4.509e-6
-1.344, 4.551e-6
-1.345, 4.619e-6
-1.346, 4.693e-6
-1.347, 4.662e-6
-1.348, 4.753e-6
-1.349, 4.810e-6
-1.350, 4.880e-6
-1.351, 4.924e-6
-1.352, 4.907e-6
-1.353, 4.966e-6
-1.354, 4.969e-6
-1.355, 4.990e-6
-1.356, 5.042e-6
-1.357, 5.159e-6
-1.358, 5.216e-6
-1.359, 5.203e-6
-1.360, 5.277e-6
-1.361, 5.220e-6
-1.362, 5.205e-6
-1.363, 5.254e-6
-1.364, 5.273e-6
-1.365, 5.266e-6
-1.366, 5.370e-6
-1.367, 5.414e-6
-1.368, 5.419e-6
-1.369, 5.490e-6
-1.370, 5.510e-6
-1.371, 5.568e-6
-1.372, 5.613e-6
-1.373, 5.652e-6
-1.374, 5.712e-6
-1.375, 5.770e-6
-1.376, 5.824e-6
-1.377, 5.725e-6
-1.378, 5.799e-6
-1.379, 5.846e-6
-1.380, 5.953e-6
-1.381, 6.066e-6
-1.382, 6.169e-6
-1.383, 6.211e-6
-1.384, 6.281e-6
-1.385, 6.301e-6
-1.386, 6.312e-6
-1.387, 6.368e-6
-1.388, 6.587e-6
-1.389, 6.561e-6
-1.390, 6.560e-6
-1.391, 6.319e-6
-1.392, 6.383e-6
-1.393, 6.618e-6
-1.394, 6.589e-6
-1.395, 6.529e-6
-1.396, 6.633e-6
-1.397, 6.720e-6
-1.398, 6.710e-6
-1.399, 6.806e-6
-1.400, 6.810e-6
-1.401, 6.899e-6
-1.402, 7.017e-6
-1.403, 6.844e-6
-1.404, 6.857e-6
-1.405, 6.914e-6
-1.406, 6.938e-6
-1.407, 6.807e-6
-1.408, 7.068e-6
-1.409, 7.002e-6
-1.410, 6.968e-6
-1.411, 6.928e-6
-1.412, 6.896e-6
-1.413, 6.882e-6
-1.414, 7.032e-6
-1.415, 7.276e-6
-1.416, 7.293e-6
-1.417, 7.375e-6
-1.418, 7.414e-6
-1.419, 7.454e-6
-1.420, 7.452e-6
-1.421, 7.430e-6
-1.422, 7.444e-6
-1.423, 7.562e-6
-1.424, 7.599e-6
-1.425, 7.634e-6
-1.426, 7.724e-6
-1.427, 7.746e-6
-1.428, 7.794e-6
-1.429, 7.817e-6
-1.430, 7.868e-6
-1.431, 7.911e-6
-1.432, 7.974e-6
-1.433, 8.018e-6
-1.434, 8.106e-6
-1.435, 8.202e-6
-1.436, 8.218e-6
-1.437, 8.241e-6
-1.438, 8.271e-6
-1.439, 8.346e-6
-1.440, 8.339e-6
-1.441, 8.438e-6
-1.442, 8.505e-6
-1.443, 8.531e-6
-1.444, 8.614e-6
-1.445, 8.586e-6
-1.446, 8.700e-6
-1.447, 8.710e-6
-1.448, 8.802e-6
-1.449, 8.947e-6
-1.450, 8.946e-6
-1.451, 9.042e-6
-1.452, 9.082e-6
-1.453, 9.152e-6
-1.454, 9.287e-6
-1.455, 9.288e-6
-1.456, 9.356e-6
-1.457, 9.431e-6
-1.458, 9.531e-6
-1.459, 9.731e-6
-1.460, 9.832e-6
-1.461, 9.800e-6
-1.462, 9.767e-6
-1.463, 9.897e-6
-1.464, 1.009e-5
-1.465, 1.017e-5
-1.466, 1.014e-5
-1.467, 1.010e-5
-1.468, 1.018e-5
-1.469, 1.030e-5
-1.470, 1.025e-5
-1.471, 1.041e-5
-1.472, 1.048e-5
-1.473, 1.053e-5
-1.474, 1.051e-5
-1.475, 1.069e-5
-1.476, 1.079e-5
-1.477, 1.082e-5
-1.478, 1.102e-5
-1.479, 1.122e-5
-1.480, 1.131e-5
-1.481, 1.129e-5
-1.482, 1.137e-5
-1.483, 1.149e-5
-1.484, 1.149e-5
-1.485, 1.154e-5
-1.486, 1.163e-5
-1.487, 1.172e-5
-1.488, 1.174e-5
-1.489, 1.179e-5
-1.490, 1.191e-5
-1.491, 1.196e-5
-1.492, 1.196e-5
-1.493, 1.192e-5
-1.494, 1.186e-5
-1.495, 1.187e-5
-1.496, 1.236e-5
-1.497, 1.201e-5
-1.498, 1.217e-5
-1.499, 1.220e-5
-1.500, 1.231e-5
-1.501, 1.255e-5
-1.502, 1.256e-5
-1.503, 1.260e-5
-1.504, 1.264e-5
-1.505, 1.267e-5
-1.506, 1.296e-5
-1.507, 1.301e-5
-1.508, 1.319e-5
-1.509, 1.327e-5
-1.510, 1.352e-5
-1.511, 1.354e-5
-1.512, 1.366e-5
-1.513, 1.394e-5
-1.514, 1.398e-5
-1.515, 1.411e-5
-1.516, 1.428e-5
-1.517, 1.433e-5
-1.518, 1.443e-5
-1.519, 1.449e-5
-1.520, 1.446e-5
-1.521, 1.471e-5
-1.522, 1.486e-5
-1.523, 1.510e-5
-1.524, 1.515e-5
-1.525, 1.527e-5
-1.526, 1.535e-5
-1.527, 1.545e-5
-1.528, 1.580e-5
-1.529, 1.619e-5
-1.530, 1.596e-5
-1.531, 1.620e-5
-1.532, 1.621e-5
-1.533, 1.606e-5
-1.534, 1.610e-5
-1.535, 1.531e-5
-1.536, 1.566e-5
-1.537, 1.705e-5
-1.538, 1.641e-5
-1.539, 1.647e-5
-1.540, 1.683e-5
-1.541, 1.681e-5
-1.542, 1.688e-5
-1.543, 1.703e-5
-1.544, 1.725e-5
-1.545, 1.754e-5
-1.546, 1.764e-5
-1.547, 1.780e-5
-1.548, 1.675e-5
-1.549, 1.814e-5
-1.550, 1.813e-5
-1.551, 1.837e-5
-1.552, 1.863e-5
-1.553, 1.866e-5
-1.554, 1.882e-5
-1.555, 1.887e-5
-1.556, 1.897e-5
-1.557, 1.876e-5
-1.558, 1.925e-5
-1.559, 1.947e-5
-1.560, 1.955e-5
-1.561, 1.981e-5
-1.562, 1.981e-5
-1.563, 1.956e-5
-1.564, 2.008e-5
-1.565, 2.041e-5
-1.566, 2.096e-5
-1.567, 2.085e-5
-1.568, 2.095e-5
-1.569, 2.055e-5
-1.570, 2.038e-5
-1.571, 2.029e-5
-1.572, 2.023e-5
-1.573, 2.037e-5
-1.574, 2.054e-5
-1.575, 2.065e-5
-1.576, 2.075e-5
-1.577, 2.096e-5
-1.578, 2.122e-5
-1.579, 2.142e-5
-1.580, 2.109e-5
-1.581, 2.030e-5
-1.582, 2.038e-5
-1.583, 2.086e-5
-1.584, 2.088e-5
-1.585, 2.103e-5
-1.586, 2.079e-5
-1.587, 2.101e-5
-1.588, 2.127e-5
-1.589, 2.149e-5
-1.590, 2.185e-5
-1.591, 2.203e-5
-1.592, 2.233e-5
-1.593, 2.240e-5
-1.594, 2.277e-5
-1.595, 2.306e-5
-1.596, 2.341e-5
-1.597, 2.344e-5
-1.598, 2.350e-5
-1.599, 2.376e-5
-1.600, 2.394e-5
-1.601, 2.419e-5
-1.602, 2.475e-5
-1.603, 2.469e-5
-1.604, 2.472e-5
-1.605, 2.431e-5
-1.606, 2.465e-5
-1.607, 2.489e-5
-1.608, 2.525e-5
-1.609, 2.541e-5
-1.610, 2.563e-5
-1.611, 2.586e-5
-1.612, 2.609e-5
-1.613, 2.635e-5
-1.614, 2.690e-5
-1.615, 2.732e-5
-1.616, 2.781e-5
-1.617, 2.829e-5
-1.618, 2.860e-5
-1.619, 2.843e-5
-1.620, 2.854e-5
-1.621, 2.862e-5
-1.622, 2.902e-5
-1.623, 2.909e-5
-1.624, 2.931e-5
-1.625, 2.971e-5
-1.626, 2.993e-5
-1.627, 3.034e-5
-1.628, 3.079e-5
-1.629, 3.119e-5
-1.630, 3.128e-5
-1.631, 3.131e-5
-1.632, 3.088e-5
-1.633, 3.157e-5
-1.634, 3.219e-5
-1.635, 3.283e-5
-1.636, 3.188e-5
-1.637, 3.231e-5
-1.638, 3.288e-5
-1.639, 3.319e-5
-1.640, 3.355e-5
-1.641, 3.386e-5
-1.642, 3.438e-5
-1.643, 3.492e-5
-1.644, 3.551e-5
-1.645, 3.617e-5
-1.646, 3.600e-5
-1.647, 3.707e-5
-1.648, 3.774e-5
-1.649, 3.850e-5
-1.650, 3.953e-5
-1.651, 4.017e-5
-1.652, 4.076e-5
-1.653, 4.095e-5
-1.654, 4.184e-5
-1.655, 4.265e-5
-1.656, 4.327e-5
-1.657, 4.340e-5
-1.658, 4.311e-5
-1.659, 4.266e-5
-1.660, 4.375e-5
-1.661, 4.493e-5
-1.662, 4.557e-5
-1.663, 4.644e-5
-1.664, 4.769e-5
-1.665, 4.836e-5
-1.666, 4.883e-5
-1.667, 4.963e-5
-1.668, 5.041e-5
-1.669, 5.128e-5
-1.670, 5.248e-5
-1.671, 5.346e-5
-1.672, 5.439e-5
-1.673, 5.663e-5
-1.674, 5.738e-5
-1.675, 5.867e-5
-1.676, 6.023e-5
-1.677, 6.086e-5
-1.678, 6.197e-5
-1.679, 6.330e-5
-1.680, 6.508e-5
-1.681, 6.693e-5
-1.682, 6.781e-5
-1.683, 6.892e-5
-1.684, 7.030e-5
-1.685, 7.162e-5
-1.686, 7.348e-5
-1.687, 7.522e-5
-1.688, 7.711e-5
-1.689, 7.872e-5
-1.690, 8.078e-5
-1.691, 8.216e-5
-1.692, 8.522e-5
-1.693, 8.822e-5
-1.694, 8.995e-5
-1.695, 9.289e-5
-1.696, 9.554e-5
-1.697, 9.809e-5
-1.698, 1.003e-4
-1.699, 1.042e-4
-1.700, 1.051e-4
-1.699, 1.036e-4
-1.698, 1.022e-4
-1.697, 1.015e-4
-1.696, 9.877e-5
-1.695, 9.539e-5
-1.694, 9.313e-5
-1.693, 9.259e-5
-1.692, 9.184e-5
-1.691, 9.072e-5
-1.690, 8.915e-5
-1.689, 8.839e-5
-1.688, 8.723e-5
-1.687, 8.640e-5
-1.686, 8.445e-5
-1.685, 8.218e-5
-1.684, 8.119e-5
-1.683, 8.065e-5
-1.682, 7.993e-5
-1.681, 7.874e-5
-1.680, 7.721e-5
-1.679, 7.516e-5
-1.678, 7.335e-5
-1.677, 7.265e-5
-1.676, 7.131e-5
-1.675, 7.018e-5
-1.674, 6.949e-5
-1.673, 6.814e-5
-1.672, 6.708e-5
-1.671, 6.616e-5
-1.670, 6.488e-5
-1.669, 6.418e-5
-1.668, 6.303e-5
-1.667, 6.175e-5
-1.666, 6.015e-5
-1.665, 5.820e-5
-1.664, 5.715e-5
-1.663, 5.696e-5
-1.662, 5.576e-5
-1.661, 5.483e-5
-1.660, 5.400e-5
-1.659, 5.285e-5
-1.658, 5.127e-5
-1.657, 4.878e-5
-1.656, 4.803e-5
-1.655, 4.738e-5
-1.654, 4.737e-5
-1.653, 4.601e-5
-1.652, 4.556e-5
-1.651, 4.520e-5
-1.650, 4.457e-5
-1.649, 4.385e-5
-1.648, 4.297e-5
-1.647, 4.225e-5
-1.646, 4.207e-5
-1.645, 4.132e-5
-1.644, 4.076e-5
-1.643, 4.007e-5
-1.642, 3.947e-5
-1.641, 3.863e-5
-1.640, 3.781e-5
-1.639, 3.758e-5
-1.638, 3.661e-5
-1.637, 3.595e-5
-1.636, 3.570e-5
-1.635, 3.487e-5
-1.634, 3.442e-5
-1.633, 3.436e-5
-1.632, 3.353e-5
-1.631, 3.117e-5
-1.630, 3.047e-5
-1.629, 3.025e-5
-1.628, 2.996e-5
-1.627, 2.937e-5
-1.626, 2.857e-5
-1.625, 2.884e-5
-1.624, 2.857e-5
-1.623, 2.887e-5
-1.622, 2.797e-5
-1.621, 2.786e-5
-1.620, 2.820e-5
-1.619, 2.719e-5
-1.618, 2.670e-5
-1.617, 2.630e-5
-1.616, 2.637e-5
-1.615, 2.491e-5
-1.614, 2.515e-5
-1.613, 2.418e-5
-1.612, 2.304e-5
-1.611, 2.360e-5
-1.610, 2.280e-5
-1.609, 2.229e-5
-1.608, 2.149e-5
-1.607, 2.197e-5
-1.606, 2.156e-5
-1.605, 2.082e-5
-1.604, 2.089e-5
-1.603, 2.112e-5
-1.602, 2.061e-5
-1.601, 2.045e-5
-1.600, 1.905e-5
-1.599, 1.866e-5
-1.598, 1.841e-5
-1.597, 1.926e-5
-1.596, 1.788e-5
-1.595, 1.729e-5
-1.594, 1.725e-5
-1.593, 1.593e-5
-1.592, 1.571e-5
-1.591, 1.561e-5
-1.590, 1.549e-5
-1.589, 1.539e-5
-1.588, 1.537e-5
-1.587, 1.469e-5
-1.586, 1.453e-5
-1.585, 1.422e-5
-1.584, 1.403e-5
-1.583, 1.409e-5
-1.582, 1.438e-5
-1.581, 1.382e-5
-1.580, 1.343e-5
-1.579, 1.340e-5
-1.578, 1.331e-5
-1.577, 1.321e-5
-1.576, 1.314e-5
-1.575, 1.280e-5
-1.574, 1.268e-5
-1.573, 1.235e-5
-1.572, 1.213e-5
-1.571, 1.197e-5
-1.570, 1.187e-5
-1.569, 1.189e-5
-1.568, 1.179e-5
-1.567, 1.145e-5
-1.566, 1.119e-5
-1.565, 1.107e-5
-1.564, 1.114e-5
-1.563, 1.107e-5
-1.562, 1.092e-5
-1.561, 1.070e-5
-1.560, 1.061e-5
-1.559, 1.062e-5
-1.558, 1.071e-5
-1.557, 1.053e-5
-1.556, 1.061e-5
-1.555, 1.058e-5
-1.554, 1.032e-5
-1.553, 1.047e-5
-1.552, 1.012e-5
-1.551, 9.833e-6
-1.550, 9.666e-6
-1.549, 9.668e-6
-1.548, 9.433e-6
-1.547, 9.269e-6
-1.546, 8.873e-6
-1.545, 8.900e-6
-1.544, 9.373e-6
-1.543, 9.065e-6
-1.542, 8.946e-6
-1.541, 8.971e-6
-1.540, 8.825e-6
-1.539, 8.468e-6
-1.538, 8.368e-6
-1.537, 8.125e-6
-1.536, 7.879e-6
-1.535, 7.884e-6
-1.534, 8.324e-6
-1.533, 8.151e-6
-1.532, 8.268e-6
-1.531, 8.367e-6
-1.530, 8.399e-6
-1.529, 8.124e-6
-1.528, 8.060e-6
-1.527, 7.806e-6
-1.526, 7.546e-6
-1.525, 7.715e-6
-1.524, 7.702e-6
-1.523, 7.573e-6
-1.522, 7.628e-6
-1.521, 7.433e-6
-1.520, 7.339e-6
-1.519, 6.867e-6
-1.518, 6.881e-6
-1.517, 7.022e-6
-1.516, 6.833e-6
-1.515, 6.829e-6
-1.514, 6.661e-6
-1.513, 6.180e-6
-1.512, 6.433e-6
-1.511, 6.737e-6
-1.510, 6.710e-6
-1.509, 6.439e-6
-1.508, 6.361e-6
-1.507, 6.262e-6
-1.506, 6.304e-6
-1.505, 6.238e-6
-1.504, 6.091e-6
-1.503, 6.051e-6
-1.502, 5.992e-6
-1.501, 5.918e-6
-1.500, 5.858e-6
-1.499, 5.942e-6
-1.498, 5.819e-6
-1.497, 5.729e-6
-1.496, 5.743e-6
-1.495, 5.793e-6
-1.494, 5.838e-6
-1.493, 5.823e-6
-1.492, 5.760e-6
-1.491, 5.804e-6
-1.490, 5.773e-6
-1.489, 5.771e-6
-1.488, 5.886e-6
-1.487, 5.830e-6
-1.486, 5.564e-6
-1.485, 5.376e-6
-1.484, 5.300e-6
-1.483, 4.975e-6
-1.482, 4.975e-6
-1.481, 4.956e-6
-1.480, 5.445e-6
-1.479, 5.017e-6
-1.478, 4.913e-6
-1.477, 4.788e-6
-1.476, 4.579e-6
-1.475, 4.399e-6
-1.474, 4.381e-6
-1.473, 4.203e-6
-1.472, 4.461e-6
-1.471, 4.345e-6
-1.470, 4.241e-6
-1.469, 4.265e-6
-1.468, 4.303e-6
-1.467, 4.288e-6
-1.466, 4.335e-6
-1.465, 4.266e-6
-1.464, 4.153e-6
-1.463, 4.072e-6
-1.462, 4.037e-6
-1.461, 3.963e-6
-1.460, 3.924e-6
-1.459, 3.811e-6
-1.458, 3.876e-6
-1.457, 4.061e-6
-1.456, 3.926e-6
-1.455, 3.744e-6
-1.454, 3.843e-6
-1.453, 3.728e-6
-1.452, 3.730e-6
-1.451, 3.859e-6
-1.450, 3.790e-6
-1.449, 3.783e-6
-1.448, 3.778e-6
-1.447, 3.762e-6
-1.446, 3.789e-6
-1.445, 3.745e-6
-1.444, 3.636e-6
-1.443, 3.618e-6
-1.442, 3.619e-6
-1.441, 3.651e-6
-1.440, 3.584e-6
-1.439, 3.517e-6
-1.438, 3.566e-6
-1.437, 3.523e-6
-1.436, 3.529e-6
-1.435, 3.468e-6
-1.434, 3.402e-6
-1.433, 3.428e-6
-1.432, 3.533e-6
-1.431, 3.405e-6
-1.430, 3.444e-6
-1.429, 3.363e-6
-1.428, 3.365e-6
-1.427, 3.458e-6
-1.426, 3.311e-6
-1.425, 3.250e-6
-1.424, 3.306e-6
-1.423, 3.222e-6
-1.422, 3.051e-6
-1.421, 2.790e-6
-1.420, 2.545e-6
-1.419, 2.472e-6
-1.418, 2.859e-6
-1.417, 2.765e-6
-1.416, 2.798e-6
-1.415, 2.738e-6
-1.414, 2.683e-6
-1.413, 2.470e-6
-1.412, 2.240e-6
-1.411, 2.385e-6
-1.410, 2.479e-6
-1.409, 2.801e-6
-1.408, 2.785e-6
-1.407, 2.802e-6
-1.406, 2.676e-6
-1.405, 2.652e-6
-1.404, 2.562e-6
-1.403, 2.617e-6
-1.402, 2.611e-6
-1.401, 2.535e-6
-1.400, 2.571e-6
-1.399, 2.503e-6
-1.398, 2.547e-6
-1.397, 2.478e-6
-1.396, 2.403e-6
-1.395, 2.525e-6
-1.394, 2.349e-6
-1.393, 2.646e-6
-1.392, 2.657e-6
-1.391, 2.397e-6
-1.390, 2.294e-6
-1.389, 2.243e-6
-1.388, 2.244e-6
-1.387, 2.406e-6
-1.386, 2.482e-6
-1.385, 2.067e-6
-1.384, 1.791e-6
-1.383, 1.727e-6
-1.382, 1.847e-6
-1.381, 1.797e-6
-1.380, 1.785e-6
-1.379, 1.595e-6
-1.378, 1.588e-6
-1.377, 1.597e-6
-1.376, 1.718e-6
-1.375, 1.674e-6
-1.374, 1.577e-6
-1.373, 1.735e-6
-1.372, 1.746e-6
-1.371, 1.781e-6
-1.370, 1.719e-6
-1.369, 1.621e-6
-1.368, 1.525e-6
-1.367, 1.515e-6
-1.366, 1.493e-6
-1.365, 1.551e-6
-1.364, 1.575e-6
-1.363, 1.439e-6
-1.362, 1.461e-6
-1.361, 1.364e-6
-1.360, 1.341e-6
-1.359, 1.465e-6
-1.358, 1.416e-6
-1.357, 1.334e-6
-1.356, 1.364e-6
-1.355, 1.234e-6
-1.354, 1.244e-6
-1.353, 1.237e-6
-1.352, 1.273e-6
-1.351, 1.197e-6
-1.350, 1.217e-6
-1.349, 1.265e-6
-1.348, 1.166e-6
-1.347, 1.071e-6
-1.346, 1.181e-6
-1.345, 1.115e-6
-1.344, 1.054e-6
-1.343, 1.000e-6
-1.342, 1.035e-6
-1.341, 1.019e-6
-1.340, 1.022e-6
-1.339, 1.057e-6
-1.338, 1.001e-6
-1.337, 9.716e-7
-1.336, 9.943e-7
-1.335, 1.046e-6
-1.334, 1.019e-6
-1.333, 9.963e-7
-1.332, 9.716e-7
-1.331, 1.029e-6
-1.330, 9.390e-7
-1.329, 9.400e-7
-1.328, 9.006e-7
-1.327, 8.986e-7
-1.326, 9.203e-7
-1.325, 8.848e-7
-1.324, 8.414e-7
-1.323, 8.552e-7
-1.322, 7.753e-7
-1.321, 8.137e-7
-1.320, 8.147e-7
-1.319, 7.989e-7
-1.318, 7.703e-7
-1.317, 7.171e-7
-1.316, 7.763e-7
-1.315, 6.954e-7
-1.314, 6.697e-7
-1.313, 6.697e-7
-1.312, 6.243e-7
-1.311, 6.145e-7
-1.310, 5.858e-7
-1.309, 5.602e-7
-1.308, 5.612e-7
-1.307, 5.464e-7
-1.306, 5.197e-7
-1.305, 5.306e-7
-1.304, 4.931e-7
-1.303, 5.118e-7
-1.302, 5.118e-7
-1.301, 5.217e-7
-1.300, 6.697e-7
-1.299, 6.845e-7
-1.298, 5.789e-7
-1.297, 4.457e-7
-1.296, 4.280e-7
-1.295, 4.517e-7
-1.294, 5.188e-7
-1.293, 4.576e-7
-1.292, 3.727e-7
-1.291, 4.171e-7
-1.290, 4.112e-7
-1.289, 3.481e-7
-1.288, 2.948e-7
-1.287, 2.583e-7
-1.286, 2.583e-7
-1.285, 2.751e-7
-1.284, 2.021e-7
-1.283, 2.514e-7
-1.282, 2.356e-7
-1.281, 1.675e-7
-1.280, 1.981e-7
-1.279, 1.656e-7
-1.278, 1.803e-7
-1.277, 1.626e-7
-1.276, 1.133e-7
-1.275, 1.438e-7
-1.274, 1.251e-7
-1.273, 1.488e-7
-1.272, 1.636e-7
-1.271, 1.212e-7
-1.270, 1.675e-7
-1.269, 1.498e-7
-1.268, 1.212e-7
-1.267, 1.034e-7
-1.266, 6.788e-8
-1.265, 8.761e-8
-1.264, 3.433e-8
-1.263, 5.998e-8
-1.262, 2.841e-8
-1.261, 6.709e-9
-1.260, 3.729e-8
-1.259, -1.993e-8
-1.258, 5.722e-9
-1.257, 7.695e-9
-1.256, -2.881e-8
-1.255, -3.374e-8
-1.254, -3.275e-8
-1.253, -6.531e-8
-1.252, -8.406e-8
-1.251, -1.294e-7
-1.250, -1.087e-7
-1.249, -1.442e-7
-1.248, -1.521e-7
-1.247, -1.620e-7
-1.246, -1.936e-7
-1.245, -2.005e-7
-1.244, -1.590e-7
-1.243, -1.965e-7
-1.242, -2.202e-7
-1.241, -2.074e-7
-1.240, -2.478e-7
-1.239, -2.439e-7
-1.238, -2.695e-7
-1.237, -2.942e-7
-1.236, -2.804e-7
-1.235, -3.248e-7
-1.234, -3.356e-7
-1.233, -2.991e-7
-1.232, -3.751e-7
-1.231, -3.416e-7
-1.230, -3.712e-7
-1.229, -3.790e-7
-1.228, -4.096e-7
-1.227, -4.225e-7
-1.226, -3.889e-7
-1.225, -4.254e-7
-1.224, -4.225e-7
-1.223, -4.412e-7
-1.222, -4.649e-7
-1.221, -4.491e-7
-1.220, -4.708e-7
-1.219, -4.797e-7
-1.218, -4.649e-7
-1.217, -5.172e-7
-1.216, -4.935e-7
-1.215, -4.984e-7
-1.214, -5.261e-7
-1.213, -5.270e-7
-1.212, -5.576e-7
-1.211, -5.448e-7
-1.210, -5.478e-7
-1.209, -5.892e-7
-1.208, -5.823e-7
-1.207, -6.139e-7
-1.206, -5.852e-7
-1.205, -5.912e-7
-1.204, -6.178e-7
-1.203, -5.961e-7
-1.202, -6.356e-7
-1.201, -6.375e-7
-1.200, -6.494e-7
-1.199, -6.938e-7
-1.198, -6.612e-7
-1.197, -6.997e-7
-1.196, -7.086e-7
-1.195, -7.056e-7
-1.194, -7.194e-7
-1.193, -6.948e-7
-1.192, -7.145e-7
-1.191, -7.737e-7
-1.190, -7.540e-7
-1.189, -7.717e-7
-1.188, -7.954e-7
-1.187, -7.648e-7
-1.186, -8.299e-7
-1.185, -8.102e-7
-1.184, -8.003e-7
-1.183, -8.319e-7
-1.182, -8.013e-7
-1.181, -8.575e-7
-1.180, -8.358e-7
-1.179, -8.723e-7
-1.178, -9.651e-7
-1.177, -9.759e-7
-1.176, -9.661e-7
-1.175, -8.674e-7
-1.174, -8.388e-7
-1.173, -9.276e-7
-1.172, -9.907e-7
-1.171, -1.014e-6
-1.170, -9.720e-7
-1.169, -9.276e-7
-1.168, -9.641e-7
-1.167, -9.621e-7
-1.166, -1.016e-6
-1.165, -1.005e-6
-1.164, -9.858e-7
-1.163, -1.016e-6
-1.162, -9.947e-7
-1.161, -1.028e-6
-1.160, -1.069e-6
-1.159, -1.010e-6
-1.158, -1.028e-6
-1.157, -1.053e-6
-1.156, -1.073e-6
-1.155, -1.092e-6
-1.154, -1.043e-6
-1.153, -1.106e-6
-1.152, -1.123e-6
-1.151, -1.105e-6
-1.150, -1.148e-6
-1.149, -1.124e-6
-1.148, -1.116e-6
-1.147, -1.172e-6
-1.146, -1.158e-6
-1.145, -1.199e-6
-1.144, -1.182e-6
-1.143, -1.180e-6
-1.142, -1.247e-6
-1.141, -1.198e-6
-1.140, -1.217e-6
-1.139, -1.226e-6
-1.138, -1.253e-6
-1.137, -1.283e-6
-1.136, -1.255e-6
-1.135, -1.281e-6
-1.134, -1.280e-6
-1.133, -1.274e-6
-1.132, -1.391e-6
-1.131, -1.413e-6
-1.130, -1.392e-6
-1.129, -1.383e-6
-1.128, -1.338e-6
-1.127, -1.419e-6
-1.126, -1.392e-6
-1.125, -1.394e-6
-1.124, -1.437e-6
-1.123, -1.464e-6
-1.122, -1.470e-6
-1.121, -1.400e-6
-1.120, -1.446e-6
-1.119, -1.460e-6
-1.118, -1.440e-6
-1.117, -1.477e-6
-1.116, -1.492e-6
-1.115, -1.477e-6
-1.114, -1.526e-6
-1.113, -1.501e-6
-1.112, -1.553e-6
-1.111, -1.543e-6
-1.110, -1.569e-6
-1.109, -1.571e-6
-1.108, -1.560e-6
-1.107, -1.609e-6
-1.106, -1.572e-6
-1.105, -1.612e-6
-1.104, -1.647e-6
-1.103, -1.599e-6
-1.102, -1.610e-6
-1.101, -1.667e-6
-1.100, -1.662e-6
-1.099, -1.713e-6
-1.098, -1.684e-6
-1.097, -1.742e-6
-1.096, -1.729e-6
-1.095, -1.750e-6
-1.094, -1.791e-6
-1.093, -1.777e-6
-1.092, -1.816e-6
-1.091, -1.844e-6
-1.090, -1.836e-6
-1.089, -1.899e-6
-1.088, -1.902e-6
-1.087, -1.858e-6
-1.086, -1.842e-6
-1.085, -1.906e-6
-1.084, -2.017e-6
-1.083, -1.943e-6
-1.082, -1.981e-6
-1.081, -2.021e-6
-1.080, -1.979e-6
-1.079, -1.968e-6
-1.078, -1.953e-6
-1.077, -1.994e-6
-1.076, -2.033e-6
-1.075, -2.027e-6
-1.074, -2.025e-6
-1.073, -2.041e-6
-1.072, -2.030e-6
-1.071, -2.098e-6
-1.070, -2.108e-6
-1.069, -2.125e-6
-1.068, -2.148e-6
-1.067, -2.134e-6
-1.066, -2.210e-6
-1.065, -2.190e-6
-1.064, -2.231e-6
-1.063, -2.260e-6
-1.062, -2.315e-6
-1.061, -2.376e-6
-1.060, -2.278e-6
-1.059, -2.308e-6
-1.058, -2.301e-6
-1.057, -2.313e-6
-1.056, -2.333e-6
-1.055, -2.367e-6
-1.054, -2.350e-6
-1.053, -2.434e-6
-1.052, -2.430e-6
-1.051, -2.484e-6
-1.050, -2.515e-6
-1.049, -2.495e-6
-1.048, -2.545e-6
-1.047, -2.528e-6
-1.046, -2.571e-6
-1.045, -2.586e-6
-1.044, -2.584e-6
-1.043, -2.707e-6
-1.042, -2.724e-6
-1.041, -2.735e-6
-1.040, -2.800e-6
-1.039, -2.852e-6
-1.038, -2.901e-6
-1.037, -2.917e-6
-1.036, -2.894e-6
-1.035, -2.922e-6
-1.034, -2.877e-6
-1.033, -2.905e-6
-1.032, -2.981e-6
-1.031, -2.940e-6
-1.030, -2.965e-6
-1.029, -2.966e-6
-1.028, -2.971e-6
-1.027, -3.036e-6
-1.026, -2.997e-6
-1.025, -3.055e-6
-1.024, -3.100e-6
-1.023, -3.159e-6
-1.022, -3.224e-6
-1.021, -3.223e-6
-1.020, -3.209e-6
-1.019, -3.266e-6
-1.018, -3.322e-6
-1.017, -3.383e-6
-1.016, -3.313e-6
-1.015, -3.248e-6
-1.014, -3.282e-6
-1.013, -3.233e-6
-1.012, -3.253e-6
-1.011, -3.305e-6
-1.010, -3.319e-6
-1.009, -3.342e-6
-1.008, -3.380e-6
-1.007, -3.421e-6
-1.006, -3.470e-6
-1.005, -3.446e-6
-1.004, -3.474e-6
-1.003, -3.569e-6
-1.002, -3.565e-6
-1.001, -3.600e-6
