Sept. 13, 2024   03:47:26
Cyclic Voltammetry
File: c:/users/guazh/data/20240903_batch_252_500/2024-09-03-exp339\exp339-2024-09-13t03_42_33-arkoh\exp339_cv_50mvs_efin_-1400mv.bin
Data Source:  Experiment
Instrument Model:  CHI760E
Header: CV ran at 50 mVs
Note: 

Init E (V) = -1
High E (V) = -1
Low E (V) = -1.4
Final E (V) = -1
Init P/N = N
Scan Rate (V/s) = 0.05
Segment = 7
Sample Interval (V) = 0.001
Quiet Time (sec) = 60
Sensitivity (A/V) = 0.001
Comp R (ohm) = 1.9

Results:

Channel 1:
Segment 1:

Segment 2:

Segment 3:

Segment 4:

Segment 5:

Segment 6:

Segment 7:

Potential/V, Current/A

-1.000, 7.685e-6
-1.001, 1.088e-5
-1.002, 1.188e-5
-1.003, 1.264e-5
-1.004, 1.338e-5
-1.005, 1.400e-5
-1.006, 1.438e-5
-1.007, 1.471e-5
-1.008, 1.507e-5
-1.009, 1.543e-5
-1.010, 1.582e-5
-1.011, 1.602e-5
-1.012, 1.621e-5
-1.013, 1.642e-5
-1.014, 1.676e-5
-1.015, 1.695e-5
-1.016, 1.709e-5
-1.017, 1.715e-5
-1.018, 1.736e-5
-1.019, 1.753e-5
-1.020, 1.774e-5
-1.021, 1.789e-5
-1.022, 1.778e-5
-1.023, 1.805e-5
-1.024, 1.826e-5
-1.025, 1.833e-5
-1.026, 1.847e-5
-1.027, 1.837e-5
-1.028, 1.860e-5
-1.029, 1.875e-5
-1.030, 1.881e-5
-1.031, 1.892e-5
-1.032, 1.883e-5
-1.033, 1.887e-5
-1.034, 1.919e-5
-1.035, 1.922e-5
-1.036, 1.927e-5
-1.037, 1.920e-5
-1.038, 1.933e-5
-1.039, 1.952e-5
-1.040, 1.951e-5
-1.041, 1.959e-5
-1.042, 1.955e-5
-1.043, 1.959e-5
-1.044, 1.978e-5
-1.045, 1.983e-5
-1.046, 1.983e-5
-1.047, 1.983e-5
-1.048, 1.982e-5
-1.049, 2.004e-5
-1.050, 2.017e-5
-1.051, 2.005e-5
-1.052, 2.007e-5
-1.053, 2.009e-5
-1.054, 2.025e-5
-1.055, 2.038e-5
-1.056, 2.036e-5
-1.057, 2.023e-5
-1.058, 2.038e-5
-1.059, 2.055e-5
-1.060, 2.054e-5
-1.061, 2.055e-5
-1.062, 2.048e-5
-1.063, 2.071e-5
-1.064, 2.068e-5
-1.065, 2.078e-5
-1.066, 2.082e-5
-1.067, 2.069e-5
-1.068, 2.085e-5
-1.069, 2.098e-5
-1.070, 2.106e-5
-1.071, 2.108e-5
-1.072, 2.088e-5
-1.073, 2.104e-5
-1.074, 2.123e-5
-1.075, 2.141e-5
-1.076, 2.125e-5
-1.077, 2.117e-5
-1.078, 2.128e-5
-1.079, 2.153e-5
-1.080, 2.144e-5
-1.081, 2.139e-5
-1.082, 2.146e-5
-1.083, 2.149e-5
-1.084, 2.165e-5
-1.085, 2.174e-5
-1.086, 2.165e-5
-1.087, 2.174e-5
-1.088, 2.168e-5
-1.089, 2.199e-5
-1.090, 2.192e-5
-1.091, 2.184e-5
-1.092, 2.189e-5
-1.093, 2.197e-5
-1.094, 2.210e-5
-1.095, 2.220e-5
-1.096, 2.207e-5
-1.097, 2.207e-5
-1.098, 2.228e-5
-1.099, 2.226e-5
-1.100, 2.238e-5
-1.101, 2.234e-5
-1.102, 2.230e-5
-1.103, 2.245e-5
-1.104, 2.250e-5
-1.105, 2.259e-5
-1.106, 2.262e-5
-1.107, 2.253e-5
-1.108, 2.262e-5
-1.109, 2.280e-5
-1.110, 2.276e-5
-1.111, 2.288e-5
-1.112, 2.277e-5
-1.113, 2.283e-5
-1.114, 2.304e-5
-1.115, 2.305e-5
-1.116, 2.304e-5
-1.117, 2.294e-5
-1.118, 2.310e-5
-1.119, 2.330e-5
-1.120, 2.330e-5
-1.121, 2.318e-5
-1.122, 2.335e-5
-1.123, 2.329e-5
-1.124, 2.345e-5
-1.125, 2.363e-5
-1.126, 2.345e-5
-1.127, 2.352e-5
-1.128, 2.350e-5
-1.129, 2.370e-5
-1.130, 2.380e-5
-1.131, 2.368e-5
-1.132, 2.372e-5
-1.133, 2.381e-5
-1.134, 2.393e-5
-1.135, 2.408e-5
-1.136, 2.396e-5
-1.137, 2.394e-5
-1.138, 2.406e-5
-1.139, 2.422e-5
-1.140, 2.422e-5
-1.141, 2.417e-5
-1.142, 2.419e-5
-1.143, 2.439e-5
-1.144, 2.439e-5
-1.145, 2.448e-5
-1.146, 2.447e-5
-1.147, 2.444e-5
-1.148, 2.458e-5
-1.149, 2.468e-5
-1.150, 2.469e-5
-1.151, 2.475e-5
-1.152, 2.471e-5
-1.153, 2.479e-5
-1.154, 2.502e-5
-1.155, 2.493e-5
-1.156, 2.498e-5
-1.157, 2.502e-5
-1.158, 2.506e-5
-1.159, 2.526e-5
-1.160, 2.528e-5
-1.161, 2.520e-5
-1.162, 2.529e-5
-1.163, 2.533e-5
-1.164, 2.554e-5
-1.165, 2.557e-5
-1.166, 2.551e-5
-1.167, 2.554e-5
-1.168, 2.566e-5
-1.169, 2.569e-5
-1.170, 2.588e-5
-1.171, 2.582e-5
-1.172, 2.582e-5
-1.173, 2.591e-5
-1.174, 2.609e-5
-1.175, 2.623e-5
-1.176, 2.613e-5
-1.177, 2.612e-5
-1.178, 2.635e-5
-1.179, 2.633e-5
-1.180, 2.652e-5
-1.181, 2.640e-5
-1.182, 2.650e-5
-1.183, 2.662e-5
-1.184, 2.672e-5
-1.185, 2.686e-5
-1.186, 2.688e-5
-1.187, 2.678e-5
-1.188, 2.695e-5
-1.189, 2.718e-5
-1.190, 2.710e-5
-1.191, 2.720e-5
-1.192, 2.713e-5
-1.193, 2.732e-5
-1.194, 2.759e-5
-1.195, 2.752e-5
-1.196, 2.761e-5
-1.197, 2.760e-5
-1.198, 2.775e-5
-1.199, 2.805e-5
-1.200, 2.797e-5
-1.201, 2.803e-5
-1.202, 2.812e-5
-1.203, 2.822e-5
-1.204, 2.839e-5
-1.205, 2.849e-5
-1.206, 2.859e-5
-1.207, 2.862e-5
-1.208, 2.867e-5
-1.209, 2.897e-5
-1.210, 2.910e-5
-1.211, 2.906e-5
-1.212, 2.915e-5
-1.213, 2.937e-5
-1.214, 2.954e-5
-1.215, 2.974e-5
-1.216, 2.975e-5
-1.217, 2.975e-5
-1.218, 3.007e-5
-1.219, 3.030e-5
-1.220, 3.032e-5
-1.221, 3.051e-5
-1.222, 3.050e-5
-1.223, 3.087e-5
-1.224, 3.102e-5
-1.225, 3.109e-5
-1.226, 3.133e-5
-1.227, 3.136e-5
-1.228, 3.176e-5
-1.229, 3.209e-5
-1.230, 3.208e-5
-1.231, 3.236e-5
-1.232, 3.228e-5
-1.233, 3.262e-5
-1.234, 3.305e-5
-1.235, 3.311e-5
-1.236, 3.334e-5
-1.237, 3.344e-5
-1.238, 3.376e-5
-1.239, 3.420e-5
-1.240, 3.425e-5
-1.241, 3.452e-5
-1.242, 3.483e-5
-1.243, 3.508e-5
-1.244, 3.551e-5
-1.245, 3.581e-5
-1.246, 3.592e-5
-1.247, 3.630e-5
-1.248, 3.660e-5
-1.249, 3.699e-5
-1.250, 3.735e-5
-1.251, 3.764e-5
-1.252, 3.796e-5
-1.253, 3.839e-5
-1.254, 3.879e-5
-1.255, 3.930e-5
-1.256, 3.949e-5
-1.257, 3.992e-5
-1.258, 4.037e-5
-1.259, 4.093e-5
-1.260, 4.136e-5
-1.261, 4.169e-5
-1.262, 4.211e-5
-1.263, 4.280e-5
-1.264, 4.322e-5
-1.265, 4.378e-5
-1.266, 4.431e-5
-1.267, 4.468e-5
-1.268, 4.543e-5
-1.269, 4.601e-5
-1.270, 4.660e-5
-1.271, 4.722e-5
-1.272, 4.764e-5
-1.273, 4.844e-5
-1.274, 4.925e-5
-1.275, 4.978e-5
-1.276, 5.048e-5
-1.277, 5.104e-5
-1.278, 5.189e-5
-1.279, 5.289e-5
-1.280, 5.360e-5
-1.281, 5.417e-5
-1.282, 5.505e-5
-1.283, 5.592e-5
-1.284, 5.687e-5
-1.285, 5.769e-5
-1.286, 5.848e-5
-1.287, 5.941e-5
-1.288, 6.034e-5
-1.289, 6.145e-5
-1.290, 6.249e-5
-1.291, 6.325e-5
-1.292, 6.429e-5
-1.293, 6.548e-5
-1.294, 6.660e-5
-1.295, 6.776e-5
-1.296, 6.867e-5
-1.297, 6.983e-5
-1.298, 7.114e-5
-1.299, 7.240e-5
-1.300, 7.366e-5
-1.301, 7.484e-5
-1.302, 7.597e-5
-1.303, 7.745e-5
-1.304, 7.890e-5
-1.305, 8.022e-5
-1.306, 8.161e-5
-1.307, 8.287e-5
-1.308, 8.455e-5
-1.309, 8.614e-5
-1.310, 8.758e-5
-1.311, 8.909e-5
-1.312, 9.057e-5
-1.313, 9.231e-5
-1.314, 9.414e-5
-1.315, 9.563e-5
-1.316, 9.736e-5
-1.317, 9.904e-5
-1.318, 1.009e-4
-1.319, 1.029e-4
-1.320, 1.046e-4
-1.321, 1.063e-4
-1.322, 1.084e-4
-1.323, 1.104e-4
-1.324, 1.125e-4
-1.325, 1.146e-4
-1.326, 1.164e-4
-1.327, 1.186e-4
-1.328, 1.207e-4
-1.329, 1.230e-4
-1.330, 1.253e-4
-1.331, 1.273e-4
-1.332, 1.296e-4
-1.333, 1.321e-4
-1.334, 1.344e-4
-1.335, 1.370e-4
-1.336, 1.392e-4
-1.337, 1.418e-4
-1.338, 1.444e-4
-1.339, 1.470e-4
-1.340, 1.495e-4
-1.341, 1.522e-4
-1.342, 1.548e-4
-1.343, 1.578e-4
-1.344, 1.605e-4
-1.345, 1.633e-4
-1.346, 1.662e-4
-1.347, 1.690e-4
-1.348, 1.722e-4
-1.349, 1.753e-4
-1.350, 1.783e-4
-1.351, 1.815e-4
-1.352, 1.844e-4
-1.353, 1.877e-4
-1.354, 1.910e-4
-1.355, 1.943e-4
-1.356, 1.977e-4
-1.357, 2.010e-4
-1.358, 2.046e-4
-1.359, 2.080e-4
-1.360, 2.116e-4
-1.361, 2.150e-4
-1.362, 2.187e-4
-1.363, 2.224e-4
-1.364, 2.264e-4
-1.365, 2.301e-4
-1.366, 2.339e-4
-1.367, 2.377e-4
-1.368, 2.416e-4
-1.369, 2.458e-4
-1.370, 2.499e-4
-1.371, 2.538e-4
-1.372, 2.578e-4
-1.373, 2.623e-4
-1.374, 2.665e-4
-1.375, 2.708e-4
-1.376, 2.751e-4
-1.377, 2.794e-4
-1.378, 2.841e-4
-1.379, 2.885e-4
-1.380, 2.932e-4
-1.381, 2.976e-4
-1.382, 3.024e-4
-1.383, 3.072e-4
-1.384, 3.120e-4
-1.385, 3.169e-4
-1.386, 3.218e-4
-1.387, 3.266e-4
-1.388, 3.318e-4
-1.389, 3.367e-4
-1.390, 3.418e-4
-1.391, 3.470e-4
-1.392, 3.522e-4
-1.393, 3.575e-4
-1.394, 3.630e-4
-1.395, 3.683e-4
-1.396, 3.737e-4
-1.397, 3.793e-4
-1.398, 3.850e-4
-1.399, 3.906e-4
-1.400, 3.760e-4
-1.399, 3.631e-4
-1.398, 3.527e-4
-1.397, 3.434e-4
-1.396, 3.344e-4
-1.395, 3.255e-4
-1.394, 3.173e-4
-1.393, 3.091e-4
-1.392, 3.015e-4
-1.391, 2.942e-4
-1.390, 2.868e-4
-1.389, 2.799e-4
-1.388, 2.731e-4
-1.387, 2.666e-4
-1.386, 2.604e-4
-1.385, 2.540e-4
-1.384, 2.480e-4
-1.383, 2.421e-4
-1.382, 2.364e-4
-1.381, 2.310e-4
-1.380, 2.255e-4
-1.379, 2.201e-4
-1.378, 2.150e-4
-1.377, 2.101e-4
-1.376, 2.053e-4
-1.375, 2.005e-4
-1.374, 1.956e-4
-1.373, 1.913e-4
-1.372, 1.869e-4
-1.371, 1.826e-4
-1.370, 1.783e-4
-1.369, 1.741e-4
-1.368, 1.701e-4
-1.367, 1.663e-4
-1.366, 1.624e-4
-1.365, 1.586e-4
-1.364, 1.548e-4
-1.363, 1.512e-4
-1.362, 1.478e-4
-1.361, 1.443e-4
-1.360, 1.410e-4
-1.359, 1.376e-4
-1.358, 1.343e-4
-1.357, 1.313e-4
-1.356, 1.283e-4
-1.355, 1.251e-4
-1.354, 1.222e-4
-1.353, 1.192e-4
-1.352, 1.166e-4
-1.351, 1.138e-4
-1.350, 1.110e-4
-1.349, 1.083e-4
-1.348, 1.057e-4
-1.347, 1.033e-4
-1.346, 1.008e-4
-1.345, 9.824e-5
-1.344, 9.586e-5
-1.343, 9.352e-5
-1.342, 9.124e-5
-1.341, 8.912e-5
-1.340, 8.692e-5
-1.339, 8.457e-5
-1.338, 8.254e-5
-1.337, 8.044e-5
-1.336, 7.862e-5
-1.335, 7.656e-5
-1.334, 7.445e-5
-1.333, 7.262e-5
-1.332, 7.098e-5
-1.331, 6.903e-5
-1.330, 6.734e-5
-1.329, 6.536e-5
-1.328, 6.374e-5
-1.327, 6.219e-5
-1.326, 6.043e-5
-1.325, 5.901e-5
-1.324, 5.732e-5
-1.323, 5.563e-5
-1.322, 5.435e-5
-1.321, 5.282e-5
-1.320, 5.149e-5
-1.319, 4.988e-5
-1.318, 4.849e-5
-1.317, 4.732e-5
-1.316, 4.607e-5
-1.315, 4.456e-5
-1.314, 4.339e-5
-1.313, 4.205e-5
-1.312, 4.100e-5
-1.311, 3.983e-5
-1.310, 3.862e-5
-1.309, 3.729e-5
-1.308, 3.628e-5
-1.307, 3.522e-5
-1.306, 3.427e-5
-1.305, 3.312e-5
-1.304, 3.210e-5
-1.303, 3.107e-5
-1.302, 3.005e-5
-1.301, 2.935e-5
-1.300, 2.828e-5
-1.299, 2.717e-5
-1.298, 2.641e-5
-1.297, 2.551e-5
-1.296, 2.480e-5
-1.295, 2.391e-5
-1.294, 2.283e-5
-1.293, 2.223e-5
-1.292, 2.149e-5
-1.291, 2.069e-5
-1.290, 1.999e-5
-1.289, 1.904e-5
-1.288, 1.842e-5
-1.287, 1.782e-5
-1.286, 1.701e-5
-1.285, 1.652e-5
-1.284, 1.568e-5
-1.283, 1.498e-5
-1.282, 1.446e-5
-1.281, 1.387e-5
-1.280, 1.313e-5
-1.279, 1.255e-5
-1.278, 1.189e-5
-1.277, 1.154e-5
-1.276, 1.104e-5
-1.275, 1.037e-5
-1.274, 9.817e-6
-1.273, 9.209e-6
-1.272, 8.834e-6
-1.271, 8.435e-6
-1.270, 7.882e-6
-1.269, 7.286e-6
-1.268, 6.883e-6
-1.267, 6.460e-6
-1.266, 6.099e-6
-1.265, 5.561e-6
-1.264, 5.065e-6
-1.263, 4.650e-6
-1.262, 4.384e-6
-1.261, 3.947e-6
-1.260, 3.614e-6
-1.259, 2.924e-6
-1.258, 2.786e-6
-1.257, 2.463e-6
-1.256, 2.137e-6
-1.255, 1.776e-6
-1.254, 1.117e-6
-1.253, 1.062e-6
-1.252, 7.516e-7
-1.251, 4.625e-7
-1.250, 1.290e-7
-1.249, -3.199e-7
-1.248, -5.339e-7
-1.247, -6.879e-7
-1.246, -1.113e-6
-1.245, -1.297e-6
-1.244, -1.706e-6
-1.243, -1.966e-6
-1.242, -2.111e-6
-1.241, -2.385e-6
-1.240, -2.588e-6
-1.239, -2.904e-6
-1.238, -3.270e-6
-1.237, -3.265e-6
-1.236, -3.499e-6
-1.235, -3.899e-6
-1.234, -4.101e-6
-1.233, -4.304e-6
-1.232, -4.394e-6
-1.231, -4.595e-6
-1.230, -4.933e-6
-1.229, -5.387e-6
-1.228, -5.343e-6
-1.227, -5.469e-6
-1.226, -5.597e-6
-1.225, -5.866e-6
-1.224, -6.063e-6
-1.223, -6.185e-6
-1.222, -6.399e-6
-1.221, -6.426e-6
-1.220, -6.707e-6
-1.219, -7.018e-6
-1.218, -7.030e-6
-1.217, -7.224e-6
-1.216, -7.231e-6
-1.215, -7.503e-6
-1.214, -7.767e-6
-1.213, -7.843e-6
-1.212, -7.804e-6
-1.211, -8.068e-6
-1.210, -8.249e-6
-1.209, -8.516e-6
-1.208, -8.475e-6
-1.207, -8.573e-6
-1.206, -8.722e-6
-1.205, -8.924e-6
-1.204, -9.066e-6
-1.203, -9.262e-6
-1.202, -9.132e-6
-1.201, -9.386e-6
-1.200, -9.539e-6
-1.199, -9.673e-6
-1.198, -9.868e-6
-1.197, -9.850e-6
-1.196, -9.904e-6
-1.195, -1.018e-5
-1.194, -1.022e-5
-1.193, -1.043e-5
-1.192, -1.039e-5
-1.191, -1.043e-5
-1.190, -1.078e-5
-1.189, -1.084e-5
-1.188, -1.086e-5
-1.187, -1.102e-5
-1.186, -1.104e-5
-1.185, -1.133e-5
-1.184, -1.138e-5
-1.183, -1.146e-5
-1.182, -1.153e-5
-1.181, -1.154e-5
-1.180, -1.178e-5
-1.179, -1.199e-5
-1.178, -1.208e-5
-1.177, -1.205e-5
-1.176, -1.212e-5
-1.175, -1.224e-5
-1.174, -1.257e-5
-1.173, -1.248e-5
-1.172, -1.253e-5
-1.171, -1.271e-5
-1.170, -1.286e-5
-1.169, -1.299e-5
-1.168, -1.298e-5
-1.167, -1.298e-5
-1.166, -1.324e-5
-1.165, -1.331e-5
-1.164, -1.345e-5
-1.163, -1.367e-5
-1.162, -1.349e-5
-1.161, -1.366e-5
-1.160, -1.384e-5
-1.159, -1.395e-5
-1.158, -1.410e-5
-1.157, -1.403e-5
-1.156, -1.417e-5
-1.155, -1.443e-5
-1.154, -1.446e-5
-1.153, -1.459e-5
-1.152, -1.454e-5
-1.151, -1.466e-5
-1.150, -1.493e-5
-1.149, -1.497e-5
-1.148, -1.501e-5
-1.147, -1.516e-5
-1.146, -1.515e-5
-1.145, -1.546e-5
-1.144, -1.545e-5
-1.143, -1.556e-5
-1.142, -1.560e-5
-1.141, -1.570e-5
-1.140, -1.587e-5
-1.139, -1.609e-5
-1.138, -1.605e-5
-1.137, -1.613e-5
-1.136, -1.619e-5
-1.135, -1.645e-5
-1.134, -1.664e-5
-1.133, -1.659e-5
-1.132, -1.664e-5
-1.131, -1.681e-5
-1.130, -1.694e-5
-1.129, -1.713e-5
-1.128, -1.712e-5
-1.127, -1.721e-5
-1.126, -1.733e-5
-1.125, -1.747e-5
-1.124, -1.768e-5
-1.123, -1.775e-5
-1.122, -1.780e-5
-1.121, -1.792e-5
-1.120, -1.801e-5
-1.119, -1.826e-5
-1.118, -1.838e-5
-1.117, -1.831e-5
-1.116, -1.841e-5
-1.115, -1.874e-5
-1.114, -1.881e-5
-1.113, -1.901e-5
-1.112, -1.894e-5
-1.111, -1.901e-5
-1.110, -1.934e-5
-1.109, -1.947e-5
-1.108, -1.955e-5
-1.107, -1.962e-5
-1.106, -1.971e-5
-1.105, -1.994e-5
-1.104, -2.016e-5
-1.103, -2.011e-5
-1.102, -2.034e-5
-1.101, -2.029e-5
-1.100, -2.054e-5
-1.099, -2.088e-5
-1.098, -2.085e-5
-1.097, -2.098e-5
-1.096, -2.100e-5
-1.095, -2.122e-5
-1.094, -2.154e-5
-1.093, -2.156e-5
-1.092, -2.162e-5
-1.091, -2.184e-5
-1.090, -2.199e-5
-1.089, -2.225e-5
-1.088, -2.227e-5
-1.087, -2.237e-5
-1.086, -2.261e-5
-1.085, -2.274e-5
-1.084, -2.302e-5
-1.083, -2.315e-5
-1.082, -2.309e-5
-1.081, -2.338e-5
-1.080, -2.361e-5
-1.079, -2.380e-5
-1.078, -2.404e-5
-1.077, -2.395e-5
-1.076, -2.425e-5
-1.075, -2.454e-5
-1.074, -2.476e-5
-1.073, -2.490e-5
-1.072, -2.489e-5
-1.071, -2.510e-5
-1.070, -2.545e-5
-1.069, -2.562e-5
-1.068, -2.577e-5
-1.067, -2.589e-5
-1.066, -2.607e-5
-1.065, -2.636e-5
-1.064, -2.662e-5
-1.063, -2.676e-5
-1.062, -2.701e-5
-1.061, -2.707e-5
-1.060, -2.740e-5
-1.059, -2.775e-5
-1.058, -2.783e-5
-1.057, -2.806e-5
-1.056, -2.819e-5
-1.055, -2.848e-5
-1.054, -2.890e-5
-1.053, -2.901e-5
-1.052, -2.902e-5
-1.051, -2.944e-5
-1.050, -2.968e-5
-1.049, -3.008e-5
-1.048, -3.015e-5
-1.047, -3.032e-5
-1.046, -3.069e-5
-1.045, -3.095e-5
-1.044, -3.126e-5
-1.043, -3.155e-5
-1.042, -3.161e-5
-1.041, -3.204e-5
-1.040, -3.231e-5
-1.039, -3.259e-5
-1.038, -3.288e-5
-1.037, -3.302e-5
-1.036, -3.331e-5
-1.035, -3.381e-5
-1.034, -3.399e-5
-1.033, -3.437e-5
-1.032, -3.450e-5
-1.031, -3.481e-5
-1.030, -3.528e-5
-1.029, -3.555e-5
-1.028, -3.575e-5
-1.027, -3.607e-5
-1.026, -3.627e-5
-1.025, -3.681e-5
-1.024, -3.718e-5
-1.023, -3.731e-5
-1.022, -3.774e-5
-1.021, -3.792e-5
-1.020, -3.837e-5
-1.019, -3.877e-5
-1.018, -3.902e-5
-1.017, -3.931e-5
-1.016, -3.959e-5
-1.015, -3.996e-5
-1.014, -4.047e-5
-1.013, -4.064e-5
-1.012, -4.089e-5
-1.011, -4.141e-5
-1.010, -4.177e-5
-1.009, -4.221e-5
-1.008, -4.241e-5
-1.007, -4.263e-5
-1.006, -4.318e-5
-1.005, -4.351e-5
-1.004, -4.388e-5
-1.003, -4.431e-5
-1.002, -4.447e-5
-1.001, -4.497e-5
-1.000, -2.751e-5
-1.001, -1.910e-5
-1.002, -1.508e-5
-1.003, -1.205e-5
-1.004, -9.528e-6
-1.005, -7.480e-6
-1.006, -5.653e-6
-1.007, -3.801e-6
-1.008, -2.318e-6
-1.009, -8.635e-7
-1.010, 2.859e-7
-1.011, 1.338e-6
-1.012, 2.580e-6
-1.013, 3.610e-6
-1.014, 4.446e-6
-1.015, 5.265e-6
-1.016, 5.834e-6
-1.017, 6.696e-6
-1.018, 7.584e-6
-1.019, 8.022e-6
-1.020, 8.574e-6
-1.021, 9.043e-6
-1.022, 9.694e-6
-1.023, 1.035e-5
-1.024, 1.071e-5
-1.025, 1.100e-5
-1.026, 1.139e-5
-1.027, 1.186e-5
-1.028, 1.227e-5
-1.029, 1.255e-5
-1.030, 1.273e-5
-1.031, 1.318e-5
-1.032, 1.340e-5
-1.033, 1.376e-5
-1.034, 1.399e-5
-1.035, 1.415e-5
-1.036, 1.435e-5
-1.037, 1.471e-5
-1.038, 1.489e-5
-1.039, 1.511e-5
-1.040, 1.515e-5
-1.041, 1.526e-5
-1.042, 1.562e-5
-1.043, 1.578e-5
-1.044, 1.590e-5
-1.045, 1.594e-5
-1.046, 1.601e-5
-1.047, 1.633e-5
-1.048, 1.644e-5
-1.049, 1.652e-5
-1.050, 1.654e-5
-1.051, 1.660e-5
-1.052, 1.685e-5
-1.053, 1.697e-5
-1.054, 1.697e-5
-1.055, 1.703e-5
-1.056, 1.709e-5
-1.057, 1.719e-5
-1.058, 1.749e-5
-1.059, 1.730e-5
-1.060, 1.739e-5
-1.061, 1.741e-5
-1.062, 1.758e-5
-1.063, 1.773e-5
-1.064, 1.766e-5
-1.065, 1.761e-5
-1.066, 1.775e-5
-1.067, 1.783e-5
-1.068, 1.786e-5
-1.069, 1.795e-5
-1.070, 1.782e-5
-1.071, 1.796e-5
-1.072, 1.804e-5
-1.073, 1.805e-5
-1.074, 1.815e-5
-1.075, 1.817e-5
-1.076, 1.808e-5
-1.077, 1.822e-5
-1.078, 1.825e-5
-1.079, 1.832e-5
-1.080, 1.817e-5
-1.081, 1.812e-5
-1.082, 1.840e-5
-1.083, 1.835e-5
-1.084, 1.844e-5
-1.085, 1.831e-5
-1.086, 1.821e-5
-1.087, 1.850e-5
-1.088, 1.846e-5
-1.089, 1.844e-5
-1.090, 1.841e-5
-1.091, 1.832e-5
-1.092, 1.858e-5
-1.093, 1.861e-5
-1.094, 1.844e-5
-1.095, 1.854e-5
-1.096, 1.837e-5
-1.097, 1.858e-5
-1.098, 1.868e-5
-1.099, 1.859e-5
-1.100, 1.851e-5
-1.101, 1.850e-5
-1.102, 1.867e-5
-1.103, 1.873e-5
-1.104, 1.855e-5
-1.105, 1.853e-5
-1.106, 1.866e-5
-1.107, 1.865e-5
-1.108, 1.878e-5
-1.109, 1.871e-5
-1.110, 1.860e-5
-1.111, 1.863e-5
-1.112, 1.875e-5
-1.113, 1.867e-5
-1.114, 1.877e-5
-1.115, 1.866e-5
-1.116, 1.868e-5
-1.117, 1.884e-5
-1.118, 1.877e-5
-1.119, 1.887e-5
-1.120, 1.870e-5
-1.121, 1.863e-5
-1.122, 1.886e-5
-1.123, 1.887e-5
-1.124, 1.877e-5
-1.125, 1.878e-5
-1.126, 1.869e-5
-1.127, 1.894e-5
-1.128, 1.883e-5
-1.129, 1.883e-5
-1.130, 1.881e-5
-1.131, 1.870e-5
-1.132, 1.892e-5
-1.133, 1.896e-5
-1.134, 1.884e-5
-1.135, 1.888e-5
-1.136, 1.877e-5
-1.137, 1.891e-5
-1.138, 1.903e-5
-1.139, 1.896e-5
-1.140, 1.880e-5
-1.141, 1.891e-5
-1.142, 1.893e-5
-1.143, 1.903e-5
-1.144, 1.896e-5
-1.145, 1.889e-5
-1.146, 1.895e-5
-1.147, 1.897e-5
-1.148, 1.910e-5
-1.149, 1.903e-5
-1.150, 1.894e-5
-1.151, 1.905e-5
-1.152, 1.905e-5
-1.153, 1.912e-5
-1.154, 1.921e-5
-1.155, 1.895e-5
-1.156, 1.904e-5
-1.157, 1.915e-5
-1.158, 1.917e-5
-1.159, 1.927e-5
-1.160, 1.908e-5
-1.161, 1.902e-5
-1.162, 1.927e-5
-1.163, 1.924e-5
-1.164, 1.924e-5
-1.165, 1.921e-5
-1.166, 1.913e-5
-1.167, 1.936e-5
-1.168, 1.938e-5
-1.169, 1.936e-5
-1.170, 1.929e-5
-1.171, 1.920e-5
-1.172, 1.945e-5
-1.173, 1.955e-5
-1.174, 1.942e-5
-1.175, 1.945e-5
-1.176, 1.941e-5
-1.177, 1.958e-5
-1.178, 1.961e-5
-1.179, 1.954e-5
-1.180, 1.958e-5
-1.181, 1.951e-5
-1.182, 1.966e-5
-1.183, 1.982e-5
-1.184, 1.972e-5
-1.185, 1.960e-5
-1.186, 1.973e-5
-1.187, 1.974e-5
-1.188, 1.994e-5
-1.189, 1.989e-5
-1.190, 1.983e-5
-1.191, 1.988e-5
-1.192, 1.995e-5
-1.193, 2.006e-5
-1.194, 2.016e-5
-1.195, 1.996e-5
-1.196, 2.004e-5
-1.197, 2.025e-5
-1.198, 2.022e-5
-1.199, 2.034e-5
-1.200, 2.022e-5
-1.201, 2.024e-5
-1.202, 2.049e-5
-1.203, 2.050e-5
-1.204, 2.064e-5
-1.205, 2.052e-5
-1.206, 2.052e-5
-1.207, 2.077e-5
-1.208, 2.082e-5
-1.209, 2.085e-5
-1.210, 2.082e-5
-1.211, 2.088e-5
-1.212, 2.109e-5
-1.213, 2.118e-5
-1.214, 2.121e-5
-1.215, 2.118e-5
-1.216, 2.125e-5
-1.217, 2.148e-5
-1.218, 2.161e-5
-1.219, 2.163e-5
-1.220, 2.162e-5
-1.221, 2.170e-5
-1.222, 2.198e-5
-1.223, 2.207e-5
-1.224, 2.214e-5
-1.225, 2.206e-5
-1.226, 2.238e-5
-1.227, 2.242e-5
-1.228, 2.282e-5
-1.229, 2.284e-5
-1.230, 2.270e-5
-1.231, 2.299e-5
-1.232, 2.311e-5
-1.233, 2.330e-5
-1.234, 2.345e-5
-1.235, 2.337e-5
-1.236, 2.364e-5
-1.237, 2.396e-5
-1.238, 2.400e-5
-1.239, 2.424e-5
-1.240, 2.422e-5
-1.241, 2.446e-5
-1.242, 2.476e-5
-1.243, 2.493e-5
-1.244, 2.513e-5
-1.245, 2.520e-5
-1.246, 2.546e-5
-1.247, 2.574e-5
-1.248, 2.597e-5
-1.249, 2.618e-5
-1.250, 2.637e-5
-1.251, 2.655e-5
-1.252, 2.694e-5
-1.253, 2.726e-5
-1.254, 2.739e-5
-1.255, 2.763e-5
-1.256, 2.783e-5
-1.257, 2.826e-5
-1.258, 2.863e-5
-1.259, 2.881e-5
-1.260, 2.903e-5
-1.261, 2.947e-5
-1.262, 2.981e-5
-1.263, 3.022e-5
-1.264, 3.046e-5
-1.265, 3.075e-5
-1.266, 3.118e-5
-1.267, 3.166e-5
-1.268, 3.201e-5
-1.269, 3.247e-5
-1.270, 3.268e-5
-1.271, 3.324e-5
-1.272, 3.366e-5
-1.273, 3.409e-5
-1.274, 3.470e-5
-1.275, 3.492e-5
-1.276, 3.545e-5
-1.277, 3.604e-5
-1.278, 3.657e-5
-1.279, 3.713e-5
-1.280, 3.757e-5
-1.281, 3.800e-5
-1.282, 3.881e-5
-1.283, 3.932e-5
-1.284, 3.994e-5
-1.285, 4.044e-5
-1.286, 4.104e-5
-1.287, 4.190e-5
-1.288, 4.252e-5
-1.289, 4.306e-5
-1.290, 4.377e-5
-1.291, 4.442e-5
-1.292, 4.529e-5
-1.293, 4.613e-5
-1.294, 4.671e-5
-1.295, 4.753e-5
-1.296, 4.816e-5
-1.297, 4.924e-5
-1.298, 5.008e-5
-1.299, 5.086e-5
-1.300, 5.164e-5
-1.301, 5.261e-5
-1.302, 5.357e-5
-1.303, 5.462e-5
-1.304, 5.543e-5
-1.305, 5.633e-5
-1.306, 5.755e-5
-1.307, 5.848e-5
-1.308, 5.971e-5
-1.309, 6.063e-5
-1.310, 6.172e-5
-1.311, 6.289e-5
-1.312, 6.411e-5
-1.313, 6.524e-5
-1.314, 6.654e-5
-1.315, 6.754e-5
-1.316, 6.886e-5
-1.317, 7.034e-5
-1.318, 7.162e-5
-1.319, 7.299e-5
-1.320, 7.418e-5
-1.321, 7.562e-5
-1.322, 7.727e-5
-1.323, 7.866e-5
-1.324, 8.000e-5
-1.325, 8.154e-5
-1.326, 8.315e-5
-1.327, 8.487e-5
-1.328, 8.636e-5
-1.329, 8.794e-5
-1.330, 8.975e-5
-1.331, 9.136e-5
-1.332, 9.327e-5
-1.333, 9.507e-5
-1.334, 9.668e-5
-1.335, 9.871e-5
-1.336, 1.004e-4
-1.337, 1.025e-4
-1.338, 1.045e-4
-1.339, 1.064e-4
-1.340, 1.084e-4
-1.341, 1.105e-4
-1.342, 1.127e-4
-1.343, 1.149e-4
-1.344, 1.170e-4
-1.345, 1.192e-4
-1.346, 1.215e-4
-1.347, 1.238e-4
-1.348, 1.263e-4
-1.349, 1.285e-4
-1.350, 1.310e-4
-1.351, 1.336e-4
-1.352, 1.360e-4
-1.353, 1.386e-4
-1.354, 1.412e-4
-1.355, 1.438e-4
-1.356, 1.466e-4
-1.357, 1.494e-4
-1.358, 1.522e-4
-1.359, 1.551e-4
-1.360, 1.578e-4
-1.361, 1.608e-4
-1.362, 1.640e-4
-1.363, 1.669e-4
-1.364, 1.700e-4
-1.365, 1.732e-4
-1.366, 1.763e-4
-1.367, 1.798e-4
-1.368, 1.829e-4
-1.369, 1.863e-4
-1.370, 1.898e-4
-1.371, 1.931e-4
-1.372, 1.968e-4
-1.373, 2.003e-4
-1.374, 2.039e-4
-1.375, 2.076e-4
-1.376, 2.113e-4
-1.377, 2.151e-4
-1.378, 2.192e-4
-1.379, 2.228e-4
-1.380, 2.268e-4
-1.381, 2.310e-4
-1.382, 2.352e-4
-1.383, 2.393e-4
-1.384, 2.435e-4
-1.385, 2.477e-4
-1.386, 2.519e-4
-1.387, 2.564e-4
-1.388, 2.610e-4
-1.389, 2.655e-4
-1.390, 2.699e-4
-1.391, 2.746e-4
-1.392, 2.792e-4
-1.393, 2.841e-4
-1.394, 2.888e-4
-1.395, 2.935e-4
-1.396, 2.987e-4
-1.397, 3.037e-4
-1.398, 3.088e-4
-1.399, 3.139e-4
-1.400, 2.999e-4
-1.399, 2.892e-4
-1.398, 2.810e-4
-1.397, 2.735e-4
-1.396, 2.661e-4
-1.395, 2.590e-4
-1.394, 2.523e-4
-1.393, 2.458e-4
-1.392, 2.397e-4
-1.391, 2.335e-4
-1.390, 2.276e-4
-1.389, 2.221e-4
-1.388, 2.167e-4
-1.387, 2.113e-4
-1.386, 2.060e-4
-1.385, 2.008e-4
-1.384, 1.962e-4
-1.383, 1.914e-4
-1.382, 1.867e-4
-1.381, 1.821e-4
-1.380, 1.777e-4
-1.379, 1.734e-4
-1.378, 1.694e-4
-1.377, 1.652e-4
-1.376, 1.614e-4
-1.375, 1.574e-4
-1.374, 1.536e-4
-1.373, 1.501e-4
-1.372, 1.465e-4
-1.371, 1.428e-4
-1.370, 1.393e-4
-1.369, 1.360e-4
-1.368, 1.330e-4
-1.367, 1.297e-4
-1.366, 1.265e-4
-1.365, 1.235e-4
-1.364, 1.206e-4
-1.363, 1.176e-4
-1.362, 1.149e-4
-1.361, 1.119e-4
-1.360, 1.092e-4
-1.359, 1.066e-4
-1.358, 1.041e-4
-1.357, 1.016e-4
-1.356, 9.892e-5
-1.355, 9.640e-5
-1.354, 9.416e-5
-1.353, 9.186e-5
-1.352, 8.966e-5
-1.351, 8.731e-5
-1.350, 8.503e-5
-1.349, 8.302e-5
-1.348, 8.099e-5
-1.347, 7.890e-5
-1.346, 7.683e-5
-1.345, 7.474e-5
-1.344, 7.298e-5
-1.343, 7.126e-5
-1.342, 6.920e-5
-1.341, 6.761e-5
-1.340, 6.567e-5
-1.339, 6.397e-5
-1.338, 6.238e-5
-1.337, 6.066e-5
-1.336, 5.901e-5
-1.335, 5.753e-5
-1.334, 5.591e-5
-1.333, 5.460e-5
-1.332, 5.304e-5
-1.331, 5.143e-5
-1.330, 5.003e-5
-1.329, 4.867e-5
-1.328, 4.745e-5
-1.327, 4.614e-5
-1.326, 4.467e-5
-1.325, 4.347e-5
-1.324, 4.230e-5
-1.323, 4.103e-5
-1.322, 3.997e-5
-1.321, 3.866e-5
-1.320, 3.751e-5
-1.319, 3.646e-5
-1.318, 3.541e-5
-1.317, 3.440e-5
-1.316, 3.327e-5
-1.315, 3.213e-5
-1.314, 3.125e-5
-1.313, 3.033e-5
-1.312, 2.950e-5
-1.311, 2.839e-5
-1.310, 2.738e-5
-1.309, 2.659e-5
-1.308, 2.586e-5
-1.307, 2.488e-5
-1.306, 2.402e-5
-1.305, 2.309e-5
-1.304, 2.239e-5
-1.303, 2.179e-5
-1.302, 2.085e-5
-1.301, 2.012e-5
-1.300, 1.932e-5
-1.299, 1.867e-5
-1.298, 1.807e-5
-1.297, 1.728e-5
-1.296, 1.667e-5
-1.295, 1.590e-5
-1.294, 1.531e-5
-1.293, 1.478e-5
-1.292, 1.420e-5
-1.291, 1.336e-5
-1.290, 1.286e-5
-1.289, 1.225e-5
-1.288, 1.186e-5
-1.287, 1.134e-5
-1.286, 1.060e-5
-1.285, 1.014e-5
-1.284, 9.685e-6
-1.283, 9.162e-6
-1.282, 8.774e-6
-1.281, 8.083e-6
-1.280, 7.522e-6
-1.279, 7.245e-6
-1.278, 6.795e-6
-1.277, 6.538e-6
-1.276, 5.970e-6
-1.275, 5.396e-6
-1.274, 5.048e-6
-1.273, 4.809e-6
-1.272, 4.356e-6
-1.271, 3.977e-6
-1.270, 3.392e-6
-1.269, 3.260e-6
-1.268, 2.982e-6
-1.267, 2.526e-6
-1.266, 2.175e-6
-1.265, 1.669e-6
-1.264, 1.537e-6
-1.263, 1.347e-6
-1.262, 8.354e-7
-1.261, 5.168e-7
-1.260, 2.652e-7
-1.259, -6.926e-8
-1.258, -1.610e-7
-1.257, -5.339e-7
-1.256, -8.852e-7
-1.255, -1.233e-6
-1.254, -1.409e-6
-1.253, -1.521e-6
-1.252, -1.806e-6
-1.251, -2.247e-6
-1.250, -2.387e-6
-1.249, -2.707e-6
-1.248, -2.704e-6
-1.247, -2.988e-6
-1.246, -3.381e-6
-1.245, -3.556e-6
-1.244, -3.640e-6
-1.243, -3.841e-6
-1.242, -4.079e-6
-1.241, -4.358e-6
-1.240, -4.573e-6
-1.239, -4.673e-6
-1.238, -4.804e-6
-1.237, -4.939e-6
-1.236, -5.240e-6
-1.235, -5.585e-6
-1.234, -5.532e-6
-1.233, -5.732e-6
-1.232, -5.786e-6
-1.231, -6.051e-6
-1.230, -6.401e-6
-1.229, -6.589e-6
-1.228, -6.470e-6
-1.227, -6.702e-6
-1.226, -6.907e-6
-1.225, -7.169e-6
-1.224, -7.118e-6
-1.223, -7.117e-6
-1.222, -7.446e-6
-1.221, -7.603e-6
-1.220, -7.759e-6
-1.219, -7.825e-6
-1.218, -7.852e-6
-1.217, -8.074e-6
-1.216, -8.292e-6
-1.215, -8.453e-6
-1.214, -8.472e-6
-1.213, -8.456e-6
-1.212, -8.678e-6
-1.211, -8.883e-6
-1.210, -9.033e-6
-1.209, -9.022e-6
-1.208, -9.011e-6
-1.207, -9.210e-6
-1.206, -9.498e-6
-1.205, -9.544e-6
-1.204, -9.528e-6
-1.203, -9.693e-6
-1.202, -9.752e-6
-1.201, -9.983e-6
-1.200, -1.009e-5
-1.199, -1.003e-5
-1.198, -1.025e-5
-1.197, -1.027e-5
-1.196, -1.042e-5
-1.195, -1.072e-5
-1.194, -1.051e-5
-1.193, -1.070e-5
-1.192, -1.072e-5
-1.191, -1.096e-5
-1.190, -1.114e-5
-1.189, -1.103e-5
-1.188, -1.112e-5
-1.187, -1.132e-5
-1.186, -1.141e-5
-1.185, -1.165e-5
-1.184, -1.146e-5
-1.183, -1.160e-5
-1.182, -1.186e-5
-1.181, -1.188e-5
-1.180, -1.200e-5
-1.179, -1.204e-5
-1.178, -1.218e-5
-1.177, -1.223e-5
-1.176, -1.238e-5
-1.175, -1.244e-5
-1.174, -1.253e-5
-1.173, -1.252e-5
-1.172, -1.261e-5
-1.171, -1.285e-5
-1.170, -1.295e-5
-1.169, -1.299e-5
-1.168, -1.297e-5
-1.167, -1.308e-5
-1.166, -1.330e-5
-1.165, -1.343e-5
-1.164, -1.336e-5
-1.163, -1.351e-5
-1.162, -1.355e-5
-1.161, -1.380e-5
-1.160, -1.385e-5
-1.159, -1.381e-5
-1.158, -1.397e-5
-1.157, -1.399e-5
-1.156, -1.418e-5
-1.155, -1.445e-5
-1.154, -1.424e-5
-1.153, -1.447e-5
-1.152, -1.450e-5
-1.151, -1.468e-5
-1.150, -1.487e-5
-1.149, -1.469e-5
-1.148, -1.482e-5
-1.147, -1.505e-5
-1.146, -1.514e-5
-1.145, -1.532e-5
-1.144, -1.528e-5
-1.143, -1.531e-5
-1.142, -1.557e-5
-1.141, -1.559e-5
-1.140, -1.579e-5
-1.139, -1.584e-5
-1.138, -1.580e-5
-1.137, -1.600e-5
-1.136, -1.610e-5
-1.135, -1.622e-5
-1.134, -1.641e-5
-1.133, -1.634e-5
-1.132, -1.645e-5
-1.131, -1.676e-5
-1.130, -1.681e-5
-1.129, -1.685e-5
-1.128, -1.688e-5
-1.127, -1.701e-5
-1.126, -1.731e-5
-1.125, -1.736e-5
-1.124, -1.732e-5
-1.123, -1.752e-5
-1.122, -1.761e-5
-1.121, -1.779e-5
-1.120, -1.790e-5
-1.119, -1.790e-5
-1.118, -1.811e-5
-1.117, -1.813e-5
-1.116, -1.839e-5
-1.115, -1.853e-5
-1.114, -1.849e-5
-1.113, -1.859e-5
-1.112, -1.876e-5
-1.111, -1.897e-5
-1.110, -1.915e-5
-1.109, -1.901e-5
-1.108, -1.923e-5
-1.107, -1.941e-5
-1.106, -1.961e-5
-1.105, -1.978e-5
-1.104, -1.974e-5
-1.103, -1.985e-5
-1.102, -2.003e-5
-1.101, -2.021e-5
-1.100, -2.032e-5
-1.099, -2.047e-5
-1.098, -2.050e-5
-1.097, -2.076e-5
-1.096, -2.079e-5
-1.095, -2.110e-5
-1.094, -2.120e-5
-1.093, -2.116e-5
-1.092, -2.136e-5
-1.091, -2.171e-5
-1.090, -2.174e-5
-1.089, -2.186e-5
-1.088, -2.195e-5
-1.087, -2.208e-5
-1.086, -2.241e-5
-1.085, -2.255e-5
-1.084, -2.257e-5
-1.083, -2.273e-5
-1.082, -2.287e-5
-1.081, -2.327e-5
-1.080, -2.331e-5
-1.079, -2.341e-5
-1.078, -2.358e-5
-1.077, -2.373e-5
-1.076, -2.408e-5
-1.075, -2.424e-5
-1.074, -2.428e-5
-1.073, -2.452e-5
-1.072, -2.463e-5
-1.071, -2.494e-5
-1.070, -2.511e-5
-1.069, -2.514e-5
-1.068, -2.530e-5
-1.067, -2.570e-5
-1.066, -2.590e-5
-1.065, -2.613e-5
-1.064, -2.614e-5
-1.063, -2.640e-5
-1.062, -2.666e-5
-1.061, -2.694e-5
-1.060, -2.711e-5
-1.059, -2.734e-5
-1.058, -2.751e-5
-1.057, -2.776e-5
-1.056, -2.804e-5
-1.055, -2.826e-5
-1.054, -2.848e-5
-1.053, -2.861e-5
-1.052, -2.883e-5
-1.051, -2.927e-5
-1.050, -2.949e-5
-1.049, -2.964e-5
-1.048, -2.983e-5
-1.047, -3.011e-5
-1.046, -3.060e-5
-1.045, -3.075e-5
-1.044, -3.094e-5
-1.043, -3.125e-5
-1.042, -3.150e-5
-1.041, -3.193e-5
-1.040, -3.218e-5
-1.039, -3.234e-5
-1.038, -3.268e-5
-1.037, -3.283e-5
-1.036, -3.345e-5
-1.035, -3.372e-5
-1.034, -3.385e-5
-1.033, -3.420e-5
-1.032, -3.450e-5
-1.031, -3.496e-5
-1.030, -3.535e-5
-1.029, -3.548e-5
-1.028, -3.573e-5
-1.027, -3.617e-5
-1.026, -3.660e-5
-1.025, -3.697e-5
-1.024, -3.726e-5
-1.023, -3.753e-5
-1.022, -3.797e-5
-1.021, -3.837e-5
-1.020, -3.869e-5
-1.019, -3.908e-5
-1.018, -3.927e-5
-1.017, -3.977e-5
-1.016, -4.024e-5
-1.015, -4.060e-5
-1.014, -4.093e-5
-1.013, -4.122e-5
-1.012, -4.161e-5
-1.011, -4.224e-5
-1.010, -4.250e-5
-1.009, -4.282e-5
-1.008, -4.319e-5
-1.007, -4.353e-5
-1.006, -4.421e-5
-1.005, -4.444e-5
-1.004, -4.488e-5
-1.003, -4.527e-5
-1.002, -4.570e-5
-1.001, -4.632e-5
-1.000, -2.875e-5
-1.001, -2.008e-5
-1.002, -1.608e-5
-1.003, -1.310e-5
-1.004, -1.063e-5
-1.005, -8.358e-6
-1.006, -6.473e-6
-1.007, -4.557e-6
-1.008, -3.157e-6
-1.009, -1.838e-6
-1.010, -4.886e-7
-1.011, 8.315e-7
-1.012, 1.873e-6
-1.013, 2.828e-6
-1.014, 3.653e-6
-1.015, 4.550e-6
-1.016, 5.443e-6
-1.017, 6.189e-6
-1.018, 6.960e-6
-1.019, 7.387e-6
-1.020, 8.076e-6
-1.021, 8.659e-6
-1.022, 9.274e-6
-1.023, 9.714e-6
-1.024, 1.012e-5
-1.025, 1.051e-5
-1.026, 1.120e-5
-1.027, 1.140e-5
-1.028, 1.186e-5
-1.029, 1.205e-5
-1.030, 1.242e-5
-1.031, 1.291e-5
-1.032, 1.311e-5
-1.033, 1.332e-5
-1.034, 1.358e-5
-1.035, 1.378e-5
-1.036, 1.416e-5
-1.037, 1.439e-5
-1.038, 1.453e-5
-1.039, 1.466e-5
-1.040, 1.487e-5
-1.041, 1.509e-5
-1.042, 1.537e-5
-1.043, 1.534e-5
-1.044, 1.560e-5
-1.045, 1.569e-5
-1.046, 1.589e-5
-1.047, 1.611e-5
-1.048, 1.606e-5
-1.049, 1.616e-5
-1.050, 1.636e-5
-1.051, 1.640e-5
-1.052, 1.667e-5
-1.053, 1.663e-5
-1.054, 1.664e-5
-1.055, 1.684e-5
-1.056, 1.689e-5
-1.057, 1.702e-5
-1.058, 1.707e-5
-1.059, 1.706e-5
-1.060, 1.722e-5
-1.061, 1.729e-5
-1.062, 1.733e-5
-1.063, 1.743e-5
-1.064, 1.733e-5
-1.065, 1.737e-5
-1.066, 1.758e-5
-1.067, 1.760e-5
-1.068, 1.764e-5
-1.069, 1.759e-5
-1.070, 1.760e-5
-1.071, 1.784e-5
-1.072, 1.779e-5
-1.073, 1.770e-5
-1.074, 1.784e-5
-1.075, 1.787e-5
-1.076, 1.794e-5
-1.077, 1.799e-5
-1.078, 1.786e-5
-1.079, 1.799e-5
-1.080, 1.791e-5
-1.081, 1.801e-5
-1.082, 1.813e-5
-1.083, 1.797e-5
-1.084, 1.801e-5
-1.085, 1.802e-5
-1.086, 1.812e-5
-1.087, 1.819e-5
-1.088, 1.804e-5
-1.089, 1.804e-5
-1.090, 1.820e-5
-1.091, 1.815e-5
-1.092, 1.826e-5
-1.093, 1.809e-5
-1.094, 1.808e-5
-1.095, 1.819e-5
-1.096, 1.821e-5
-1.097, 1.825e-5
-1.098, 1.816e-5
-1.099, 1.807e-5
-1.100, 1.819e-5
-1.101, 1.831e-5
-1.102, 1.823e-5
-1.103, 1.826e-5
-1.104, 1.811e-5
-1.105, 1.819e-5
-1.106, 1.833e-5
-1.107, 1.831e-5
-1.108, 1.818e-5
-1.109, 1.819e-5
-1.110, 1.820e-5
-1.111, 1.834e-5
-1.112, 1.838e-5
-1.113, 1.816e-5
-1.114, 1.830e-5
-1.115, 1.821e-5
-1.116, 1.834e-5
-1.117, 1.835e-5
-1.118, 1.828e-5
-1.119, 1.825e-5
-1.120, 1.825e-5
-1.121, 1.831e-5
-1.122, 1.840e-5
-1.123, 1.825e-5
-1.124, 1.827e-5
-1.125, 1.833e-5
-1.126, 1.835e-5
-1.127, 1.847e-5
-1.128, 1.833e-5
-1.129, 1.824e-5
-1.130, 1.835e-5
-1.131, 1.839e-5
-1.132, 1.842e-5
-1.133, 1.835e-5
-1.134, 1.826e-5
-1.135, 1.840e-5
-1.136, 1.835e-5
-1.137, 1.845e-5
-1.138, 1.838e-5
-1.139, 1.825e-5
-1.140, 1.836e-5
-1.141, 1.849e-5
-1.142, 1.845e-5
-1.143, 1.846e-5
-1.144, 1.833e-5
-1.145, 1.840e-5
-1.146, 1.855e-5
-1.147, 1.853e-5
-1.148, 1.842e-5
-1.149, 1.839e-5
-1.150, 1.845e-5
-1.151, 1.857e-5
-1.152, 1.849e-5
-1.153, 1.851e-5
-1.154, 1.843e-5
-1.155, 1.843e-5
-1.156, 1.858e-5
-1.157, 1.860e-5
-1.158, 1.844e-5
-1.159, 1.854e-5
-1.160, 1.847e-5
-1.161, 1.860e-5
-1.162, 1.864e-5
-1.163, 1.855e-5
-1.164, 1.850e-5
-1.165, 1.859e-5
-1.166, 1.860e-5
-1.167, 1.877e-5
-1.168, 1.858e-5
-1.169, 1.849e-5
-1.170, 1.872e-5
-1.171, 1.872e-5
-1.172, 1.873e-5
-1.173, 1.868e-5
-1.174, 1.860e-5
-1.175, 1.873e-5
-1.176, 1.881e-5
-1.177, 1.881e-5
-1.178, 1.879e-5
-1.179, 1.866e-5
-1.180, 1.882e-5
-1.181, 1.889e-5
-1.182, 1.890e-5
-1.183, 1.890e-5
-1.184, 1.871e-5
-1.185, 1.881e-5
-1.186, 1.905e-5
-1.187, 1.892e-5
-1.188, 1.894e-5
-1.189, 1.890e-5
-1.190, 1.894e-5
-1.191, 1.917e-5
-1.192, 1.909e-5
-1.193, 1.898e-5
-1.194, 1.909e-5
-1.195, 1.916e-5
-1.196, 1.929e-5
-1.197, 1.922e-5
-1.198, 1.920e-5
-1.199, 1.923e-5
-1.200, 1.929e-5
-1.201, 1.948e-5
-1.202, 1.950e-5
-1.203, 1.936e-5
-1.204, 1.939e-5
-1.205, 1.956e-5
-1.206, 1.963e-5
-1.207, 1.972e-5
-1.208, 1.959e-5
-1.209, 1.963e-5
-1.210, 1.986e-5
-1.211, 1.989e-5
-1.212, 1.994e-5
-1.213, 1.994e-5
-1.214, 1.991e-5
-1.215, 2.011e-5
-1.216, 2.024e-5
-1.217, 2.020e-5
-1.218, 2.039e-5
-1.219, 2.015e-5
-1.220, 2.047e-5
-1.221, 2.062e-5
-1.222, 2.060e-5
-1.223, 2.074e-5
-1.224, 2.066e-5
-1.225, 2.085e-5
-1.226, 2.114e-5
-1.227, 2.112e-5
-1.228, 2.124e-5
-1.229, 2.126e-5
-1.230, 2.137e-5
-1.231, 2.162e-5
-1.232, 2.162e-5
-1.233, 2.162e-5
-1.234, 2.181e-5
-1.235, 2.198e-5
-1.236, 2.217e-5
-1.237, 2.223e-5
-1.238, 2.231e-5
-1.239, 2.250e-5
-1.240, 2.262e-5
-1.241, 2.286e-5
-1.242, 2.306e-5
-1.243, 2.300e-5
-1.244, 2.323e-5
-1.245, 2.342e-5
-1.246, 2.373e-5
-1.247, 2.389e-5
-1.248, 2.396e-5
-1.249, 2.402e-5
-1.250, 2.441e-5
-1.251, 2.465e-5
-1.252, 2.484e-5
-1.253, 2.497e-5
-1.254, 2.511e-5
-1.255, 2.556e-5
-1.256, 2.579e-5
-1.257, 2.595e-5
-1.258, 2.612e-5
-1.259, 2.635e-5
-1.260, 2.676e-5
-1.261, 2.709e-5
-1.262, 2.727e-5
-1.263, 2.759e-5
-1.264, 2.771e-5
-1.265, 2.817e-5
-1.266, 2.863e-5
-1.267, 2.877e-5
-1.268, 2.913e-5
-1.269, 2.938e-5
-1.270, 2.981e-5
-1.271, 3.032e-5
-1.272, 3.060e-5
-1.273, 3.085e-5
-1.274, 3.128e-5
-1.275, 3.173e-5
-1.276, 3.222e-5
-1.277, 3.263e-5
-1.278, 3.295e-5
-1.279, 3.347e-5
-1.280, 3.398e-5
-1.281, 3.452e-5
-1.282, 3.502e-5
-1.283, 3.532e-5
-1.284, 3.587e-5
-1.285, 3.650e-5
-1.286, 3.701e-5
-1.287, 3.764e-5
-1.288, 3.807e-5
-1.289, 3.854e-5
-1.290, 3.946e-5
-1.291, 3.993e-5
-1.292, 4.067e-5
-1.293, 4.117e-5
-1.294, 4.177e-5
-1.295, 4.265e-5
-1.296, 4.323e-5
-1.297, 4.405e-5
-1.298, 4.467e-5
-1.299, 4.535e-5
-1.300, 4.626e-5
-1.301, 4.712e-5
-1.302, 4.783e-5
-1.303, 4.867e-5
-1.304, 4.939e-5
-1.305, 5.038e-5
-1.306, 5.133e-5
-1.307, 5.218e-5
-1.308, 5.305e-5
-1.309, 5.390e-5
-1.310, 5.506e-5
-1.311, 5.610e-5
-1.312, 5.707e-5
-1.313, 5.801e-5
-1.314, 5.908e-5
-1.315, 6.025e-5
-1.316, 6.137e-5
-1.317, 6.253e-5
-1.318, 6.358e-5
-1.319, 6.473e-5
-1.320, 6.603e-5
-1.321, 6.734e-5
-1.322, 6.868e-5
-1.323, 6.974e-5
-1.324, 7.115e-5
-1.325, 7.258e-5
-1.326, 7.388e-5
-1.327, 7.543e-5
-1.328, 7.670e-5
-1.329, 7.811e-5
-1.330, 7.976e-5
-1.331, 8.132e-5
-1.332, 8.283e-5
-1.333, 8.439e-5
-1.334, 8.589e-5
-1.335, 8.779e-5
-1.336, 8.946e-5
-1.337, 9.106e-5
-1.338, 9.290e-5
-1.339, 9.451e-5
-1.340, 9.659e-5
-1.341, 9.844e-5
-1.342, 1.003e-4
-1.343, 1.022e-4
-1.344, 1.040e-4
-1.345, 1.061e-4
-1.346, 1.084e-4
-1.347, 1.103e-4
-1.348, 1.124e-4
-1.349, 1.145e-4
-1.350, 1.168e-4
-1.351, 1.191e-4
-1.352, 1.214e-4
-1.353, 1.235e-4
-1.354, 1.259e-4
-1.355, 1.285e-4
-1.356, 1.310e-4
-1.357, 1.334e-4
-1.358, 1.358e-4
-1.359, 1.386e-4
-1.360, 1.411e-4
-1.361, 1.439e-4
-1.362, 1.466e-4
-1.363, 1.493e-4
-1.364, 1.522e-4
-1.365, 1.551e-4
-1.366, 1.580e-4
-1.367, 1.611e-4
-1.368, 1.639e-4
-1.369, 1.670e-4
-1.370, 1.703e-4
-1.371, 1.734e-4
-1.372, 1.767e-4
-1.373, 1.799e-4
-1.374, 1.833e-4
-1.375, 1.868e-4
-1.376, 1.902e-4
-1.377, 1.936e-4
-1.378, 1.971e-4
-1.379, 2.008e-4
-1.380, 2.045e-4
-1.381, 2.084e-4
-1.382, 2.122e-4
-1.383, 2.160e-4
-1.384, 2.197e-4
-1.385, 2.238e-4
-1.386, 2.280e-4
-1.387, 2.320e-4
-1.388, 2.360e-4
-1.389, 2.402e-4
-1.390, 2.447e-4
-1.391, 2.490e-4
-1.392, 2.534e-4
-1.393, 2.578e-4
-1.394, 2.624e-4
-1.395, 2.669e-4
-1.396, 2.715e-4
-1.397, 2.763e-4
-1.398, 2.809e-4
-1.399, 2.859e-4
-1.400, 2.722e-4
-1.399, 2.621e-4
-1.398, 2.547e-4
-1.397, 2.477e-4
-1.396, 2.410e-4
-1.395, 2.346e-4
-1.394, 2.286e-4
-1.393, 2.225e-4
-1.392, 2.168e-4
-1.391, 2.113e-4
-1.390, 2.059e-4
-1.389, 2.008e-4
-1.388, 1.959e-4
-1.387, 1.909e-4
-1.386, 1.861e-4
-1.385, 1.816e-4
-1.384, 1.772e-4
-1.383, 1.727e-4
-1.382, 1.683e-4
-1.381, 1.643e-4
-1.380, 1.604e-4
-1.379, 1.564e-4
-1.378, 1.527e-4
-1.377, 1.487e-4
-1.376, 1.452e-4
-1.375, 1.418e-4
-1.374, 1.383e-4
-1.373, 1.350e-4
-1.372, 1.316e-4
-1.371, 1.284e-4
-1.370, 1.254e-4
-1.369, 1.223e-4
-1.368, 1.193e-4
-1.367, 1.164e-4
-1.366, 1.135e-4
-1.365, 1.109e-4
-1.364, 1.082e-4
-1.363, 1.054e-4
-1.362, 1.027e-4
-1.361, 1.002e-4
-1.360, 9.790e-5
-1.359, 9.545e-5
-1.358, 9.297e-5
-1.357, 9.054e-5
-1.356, 8.837e-5
-1.355, 8.622e-5
-1.354, 8.408e-5
-1.353, 8.197e-5
-1.352, 7.975e-5
-1.351, 7.774e-5
-1.350, 7.579e-5
-1.349, 7.387e-5
-1.348, 7.204e-5
-1.347, 6.989e-5
-1.346, 6.827e-5
-1.345, 6.646e-5
-1.344, 6.482e-5
-1.343, 6.311e-5
-1.342, 6.120e-5
-1.341, 5.975e-5
-1.340, 5.823e-5
-1.339, 5.657e-5
-1.338, 5.506e-5
-1.337, 5.346e-5
-1.336, 5.208e-5
-1.335, 5.080e-5
-1.334, 4.935e-5
-1.333, 4.799e-5
-1.332, 4.657e-5
-1.331, 4.513e-5
-1.330, 4.405e-5
-1.329, 4.282e-5
-1.328, 4.159e-5
-1.327, 4.028e-5
-1.326, 3.905e-5
-1.325, 3.819e-5
-1.324, 3.703e-5
-1.323, 3.574e-5
-1.322, 3.463e-5
-1.321, 3.365e-5
-1.320, 3.276e-5
-1.319, 3.180e-5
-1.318, 3.062e-5
-1.317, 2.966e-5
-1.316, 2.879e-5
-1.315, 2.792e-5
-1.314, 2.710e-5
-1.313, 2.604e-5
-1.312, 2.516e-5
-1.311, 2.436e-5
-1.310, 2.370e-5
-1.309, 2.286e-5
-1.308, 2.198e-5
-1.307, 2.112e-5
-1.306, 2.048e-5
-1.305, 1.973e-5
-1.304, 1.915e-5
-1.303, 1.832e-5
-1.302, 1.747e-5
-1.301, 1.693e-5
-1.300, 1.640e-5
-1.299, 1.563e-5
-1.298, 1.500e-5
-1.297, 1.427e-5
-1.296, 1.380e-5
-1.295, 1.329e-5
-1.294, 1.267e-5
-1.293, 1.209e-5
-1.292, 1.152e-5
-1.291, 1.092e-5
-1.290, 1.056e-5
-1.289, 9.995e-6
-1.288, 9.509e-6
-1.287, 8.949e-6
-1.286, 8.377e-6
-1.285, 8.133e-6
-1.284, 7.713e-6
-1.283, 7.091e-6
-1.282, 6.600e-6
-1.281, 6.193e-6
-1.280, 5.765e-6
-1.279, 5.554e-6
-1.278, 4.959e-6
-1.277, 4.600e-6
-1.276, 4.241e-6
-1.275, 3.787e-6
-1.274, 3.615e-6
-1.273, 3.093e-6
-1.272, 2.717e-6
-1.271, 2.454e-6
-1.270, 2.126e-6
-1.269, 1.935e-6
-1.268, 1.459e-6
-1.267, 9.785e-7
-1.266, 8.897e-7
-1.265, 6.085e-7
-1.264, 3.066e-7
-1.263, -2.486e-8
-1.262, -4.313e-7
-1.261, -6.060e-7
-1.260, -7.984e-7
-1.259, -1.055e-6
-1.258, -1.391e-6
-1.257, -1.759e-6
-1.256, -1.878e-6
-1.255, -2.044e-6
-1.254, -2.335e-6
-1.253, -2.605e-6
-1.252, -2.805e-6
-1.251, -3.101e-6
-1.250, -3.164e-6
-1.249, -3.395e-6
-1.248, -3.725e-6
-1.247, -3.885e-6
-1.246, -4.070e-6
-1.245, -4.127e-6
-1.244, -4.364e-6
-1.243, -4.726e-6
-1.242, -4.820e-6
-1.241, -5.010e-6
-1.240, -5.110e-6
-1.239, -5.210e-6
-1.238, -5.571e-6
-1.237, -5.719e-6
-1.236, -5.770e-6
-1.235, -5.957e-6
-1.234, -6.030e-6
-1.233, -6.346e-6
-1.232, -6.426e-6
-1.231, -6.573e-6
-1.230, -6.658e-6
-1.229, -6.993e-6
-1.228, -7.070e-6
-1.227, -7.256e-6
-1.226, -7.236e-6
-1.225, -7.443e-6
-1.224, -7.453e-6
-1.223, -7.609e-6
-1.222, -7.994e-6
-1.221, -7.858e-6
-1.220, -7.949e-6
-1.219, -8.091e-6
-1.218, -8.276e-6
-1.217, -8.544e-6
-1.216, -8.487e-6
-1.215, -8.550e-6
-1.214, -8.732e-6
-1.213, -8.735e-6
-1.212, -9.039e-6
-1.211, -9.151e-6
-1.210, -9.078e-6
-1.209, -9.248e-6
-1.208, -9.339e-6
-1.207, -9.549e-6
-1.206, -9.622e-6
-1.205, -9.587e-6
-1.204, -9.738e-6
-1.203, -9.954e-6
-1.202, -1.007e-5
-1.201, -1.018e-5
-1.200, -1.005e-5
-1.199, -1.017e-5
-1.198, -1.045e-5
-1.197, -1.056e-5
-1.196, -1.052e-5
-1.195, -1.065e-5
-1.194, -1.068e-5
-1.193, -1.090e-5
-1.192, -1.098e-5
-1.191, -1.095e-5
-1.190, -1.107e-5
-1.189, -1.118e-5
-1.188, -1.129e-5
-1.187, -1.157e-5
-1.186, -1.139e-5
-1.185, -1.156e-5
-1.184, -1.152e-5
-1.183, -1.175e-5
-1.182, -1.198e-5
-1.181, -1.191e-5
-1.180, -1.197e-5
-1.179, -1.211e-5
-1.178, -1.232e-5
-1.177, -1.238e-5
-1.176, -1.239e-5
-1.175, -1.234e-5
-1.174, -1.258e-5
-1.173, -1.270e-5
-1.172, -1.275e-5
-1.171, -1.294e-5
-1.170, -1.277e-5
-1.169, -1.303e-5
-1.168, -1.313e-5
-1.167, -1.323e-5
-1.166, -1.339e-5
-1.165, -1.328e-5
-1.164, -1.337e-5
-1.163, -1.362e-5
-1.162, -1.367e-5
-1.161, -1.379e-5
-1.160, -1.373e-5
-1.159, -1.386e-5
-1.158, -1.412e-5
-1.157, -1.411e-5
-1.156, -1.423e-5
-1.155, -1.423e-5
-1.154, -1.426e-5
-1.153, -1.455e-5
-1.152, -1.461e-5
-1.151, -1.470e-5
-1.150, -1.469e-5
-1.149, -1.472e-5
-1.148, -1.498e-5
-1.147, -1.518e-5
-1.146, -1.514e-5
-1.145, -1.518e-5
-1.144, -1.521e-5
-1.143, -1.544e-5
-1.142, -1.568e-5
-1.141, -1.555e-5
-1.140, -1.564e-5
-1.139, -1.584e-5
-1.138, -1.590e-5
-1.137, -1.613e-5
-1.136, -1.605e-5
-1.135, -1.614e-5
-1.134, -1.634e-5
-1.133, -1.642e-5
-1.132, -1.657e-5
-1.131, -1.672e-5
-1.130, -1.652e-5
-1.129, -1.683e-5
-1.128, -1.690e-5
-1.127, -1.710e-5
-1.126, -1.718e-5
-1.125, -1.716e-5
-1.124, -1.721e-5
-1.123, -1.759e-5
-1.122, -1.764e-5
-1.121, -1.770e-5
-1.120, -1.769e-5
-1.119, -1.785e-5
-1.118, -1.806e-5
-1.117, -1.817e-5
-1.116, -1.822e-5
-1.115, -1.829e-5
-1.114, -1.838e-5
-1.113, -1.866e-5
-1.112, -1.875e-5
-1.111, -1.880e-5
-1.110, -1.892e-5
-1.109, -1.891e-5
-1.108, -1.915e-5
-1.107, -1.941e-5
-1.106, -1.943e-5
-1.105, -1.943e-5
-1.104, -1.956e-5
-1.103, -1.979e-5
-1.102, -2.004e-5
-1.101, -2.003e-5
-1.100, -2.002e-5
-1.099, -2.033e-5
-1.098, -2.041e-5
-1.097, -2.069e-5
-1.096, -2.061e-5
-1.095, -2.068e-5
-1.094, -2.095e-5
-1.093, -2.113e-5
-1.092, -2.133e-5
-1.091, -2.146e-5
-1.090, -2.139e-5
-1.089, -2.167e-5
-1.088, -2.185e-5
-1.087, -2.204e-5
-1.086, -2.216e-5
-1.085, -2.213e-5
-1.084, -2.239e-5
-1.083, -2.266e-5
-1.082, -2.280e-5
-1.081, -2.295e-5
-1.080, -2.292e-5
-1.079, -2.316e-5
-1.078, -2.349e-5
-1.077, -2.362e-5
-1.076, -2.375e-5
-1.075, -2.389e-5
-1.074, -2.401e-5
-1.073, -2.435e-5
-1.072, -2.449e-5
-1.071, -2.459e-5
-1.070, -2.485e-5
-1.069, -2.491e-5
-1.068, -2.524e-5
-1.067, -2.555e-5
-1.066, -2.550e-5
-1.065, -2.577e-5
-1.064, -2.586e-5
-1.063, -2.623e-5
-1.062, -2.659e-5
-1.061, -2.653e-5
-1.060, -2.671e-5
-1.059, -2.707e-5
-1.058, -2.729e-5
-1.057, -2.764e-5
-1.056, -2.763e-5
-1.055, -2.785e-5
-1.054, -2.820e-5
-1.053, -2.840e-5
-1.052, -2.879e-5
-1.051, -2.891e-5
-1.050, -2.908e-5
-1.049, -2.941e-5
-1.048, -2.975e-5
-1.047, -2.998e-5
-1.046, -3.016e-5
-1.045, -3.034e-5
-1.044, -3.063e-5
-1.043, -3.112e-5
-1.042, -3.139e-5
-1.041, -3.156e-5
-1.040, -3.177e-5
-1.039, -3.204e-5
-1.038, -3.259e-5
-1.037, -3.284e-5
-1.036, -3.298e-5
-1.035, -3.338e-5
-1.034, -3.352e-5
-1.033, -3.412e-5
-1.032, -3.438e-5
-1.031, -3.459e-5
-1.030, -3.491e-5
-1.029, -3.520e-5
-1.028, -3.571e-5
-1.027, -3.614e-5
-1.026, -3.619e-5
-1.025, -3.671e-5
-1.024, -3.703e-5
-1.023, -3.749e-5
-1.022, -3.787e-5
-1.021, -3.802e-5
-1.020, -3.835e-5
-1.019, -3.892e-5
-1.018, -3.926e-5
-1.017, -3.978e-5
-1.016, -3.991e-5
-1.015, -4.032e-5
-1.014, -4.086e-5
-1.013, -4.124e-5
-1.012, -4.160e-5
-1.011, -4.211e-5
-1.010, -4.238e-5
-1.009, -4.284e-5
-1.008, -4.325e-5
-1.007, -4.370e-5
-1.006, -4.414e-5
-1.005, -4.439e-5
-1.004, -4.495e-5
-1.003, -4.547e-5
-1.002, -4.596e-5
-1.001, -4.631e-5
