Dec. 14, 2024   13:23:53
Cyclic Voltammetry
File: c:/users/guazh/data/banditlqround7_x0exp59_r20/2024-12-09-exp658\exp658-2024-12-14t13_10_48-arkoh\exp658_cv_sr_50mvs_efin_-1600mv.bin
Data Source:  Experiment
Instrument Model:  CHI760E
Header: CV ran at 50 mVs
Note: 

Init E (V) = -1
High E (V) = -1
Low E (V) = -1.6
Final E (V) = -1
Init P/N = N
Scan Rate (V/s) = 0.05
Segment = 3
Sample Interval (V) = 0.001
Quiet Time (sec) = 2
Sensitivity (A/V) = 0.01
Comp R (ohm) = 1.4

Results:

Channel 1:
Segment 1:

Segment 2:

Segment 3:

Potential/V, Current/A

-1.000, -1.235e-6
-1.001, 4.420e-7
-1.002, 1.281e-6
-1.003, 1.942e-6
-1.004, 2.790e-6
-1.005, 3.441e-6
-1.006, 3.856e-6
-1.007, 4.092e-6
-1.008, 4.477e-6
-1.009, 5.128e-6
-1.010, 5.572e-6
-1.011, 5.760e-6
-1.012, 5.947e-6
-1.013, 6.312e-6
-1.014, 6.736e-6
-1.015, 7.259e-6
-1.016, 7.171e-6
-1.017, 7.299e-6
-1.018, 7.674e-6
-1.019, 8.206e-6
-1.020, 8.650e-6
-1.021, 8.562e-6
-1.022, 8.581e-6
-1.023, 8.838e-6
-1.024, 9.430e-6
-1.025, 9.667e-6
-1.026, 9.825e-6
-1.027, 9.755e-6
-1.028, 9.982e-6
-1.029, 1.051e-5
-1.030, 1.086e-5
-1.031, 1.088e-5
-1.032, 1.082e-5
-1.033, 1.113e-5
-1.034, 1.173e-5
-1.035, 1.196e-5
-1.036, 1.189e-5
-1.037, 1.205e-5
-1.038, 1.221e-5
-1.039, 1.268e-5
-1.040, 1.289e-5
-1.041, 1.305e-5
-1.042, 1.310e-5
-1.043, 1.325e-5
-1.044, 1.376e-5
-1.045, 1.416e-5
-1.046, 1.414e-5
-1.047, 1.420e-5
-1.048, 1.437e-5
-1.049, 1.494e-5
-1.050, 1.531e-5
-1.051, 1.523e-5
-1.052, 1.534e-5
-1.053, 1.566e-5
-1.054, 1.608e-5
-1.055, 1.647e-5
-1.056, 1.646e-5
-1.057, 1.656e-5
-1.058, 1.679e-5
-1.059, 1.715e-5
-1.060, 1.756e-5
-1.061, 1.755e-5
-1.062, 1.767e-5
-1.063, 1.801e-5
-1.064, 1.844e-5
-1.065, 1.883e-5
-1.066, 1.895e-5
-1.067, 1.890e-5
-1.068, 1.922e-5
-1.069, 1.967e-5
-1.070, 2.004e-5
-1.071, 2.008e-5
-1.072, 2.009e-5
-1.073, 2.029e-5
-1.074, 2.083e-5
-1.075, 2.125e-5
-1.076, 2.137e-5
-1.077, 2.126e-5
-1.078, 2.169e-5
-1.079, 2.217e-5
-1.080, 2.239e-5
-1.081, 2.239e-5
-1.082, 2.254e-5
-1.083, 2.260e-5
-1.084, 2.314e-5
-1.085, 2.354e-5
-1.086, 2.336e-5
-1.087, 2.342e-5
-1.088, 2.370e-5
-1.089, 2.416e-5
-1.090, 2.444e-5
-1.091, 2.428e-5
-1.092, 2.432e-5
-1.093, 2.454e-5
-1.094, 2.490e-5
-1.095, 2.510e-5
-1.096, 2.509e-5
-1.097, 2.494e-5
-1.098, 2.499e-5
-1.099, 2.536e-5
-1.100, 2.548e-5
-1.101, 2.552e-5
-1.102, 2.529e-5
-1.103, 2.526e-5
-1.104, 2.565e-5
-1.105, 2.573e-5
-1.106, 2.550e-5
-1.107, 2.524e-5
-1.108, 2.519e-5
-1.109, 2.554e-5
-1.110, 2.549e-5
-1.111, 2.529e-5
-1.112, 2.491e-5
-1.113, 2.471e-5
-1.114, 2.514e-5
-1.115, 2.495e-5
-1.116, 2.450e-5
-1.117, 2.419e-5
-1.118, 2.402e-5
-1.119, 2.420e-5
-1.120, 2.407e-5
-1.121, 2.354e-5
-1.122, 2.309e-5
-1.123, 2.288e-5
-1.124, 2.300e-5
-1.125, 2.268e-5
-1.126, 2.221e-5
-1.127, 2.192e-5
-1.128, 2.159e-5
-1.129, 2.162e-5
-1.130, 2.144e-5
-1.131, 2.074e-5
-1.132, 2.036e-5
-1.133, 2.007e-5
-1.134, 1.997e-5
-1.135, 1.975e-5
-1.136, 1.919e-5
-1.137, 1.881e-5
-1.138, 1.841e-5
-1.139, 1.842e-5
-1.140, 1.818e-5
-1.141, 1.769e-5
-1.142, 1.713e-5
-1.143, 1.698e-5
-1.144, 1.694e-5
-1.145, 1.667e-5
-1.146, 1.620e-5
-1.147, 1.573e-5
-1.148, 1.548e-5
-1.149, 1.554e-5
-1.150, 1.521e-5
-1.151, 1.478e-5
-1.152, 1.436e-5
-1.153, 1.421e-5
-1.154, 1.416e-5
-1.155, 1.406e-5
-1.156, 1.361e-5
-1.157, 1.319e-5
-1.158, 1.303e-5
-1.159, 1.320e-5
-1.160, 1.294e-5
-1.161, 1.260e-5
-1.162, 1.227e-5
-1.163, 1.206e-5
-1.164, 1.228e-5
-1.165, 1.214e-5
-1.166, 1.176e-5
-1.167, 1.156e-5
-1.168, 1.144e-5
-1.169, 1.154e-5
-1.170, 1.144e-5
-1.171, 1.104e-5
-1.172, 1.081e-5
-1.173, 1.077e-5
-1.174, 1.095e-5
-1.175, 1.080e-5
-1.176, 1.055e-5
-1.177, 1.038e-5
-1.178, 1.041e-5
-1.179, 1.047e-5
-1.180, 1.039e-5
-1.181, 1.012e-5
-1.182, 9.923e-6
-1.183, 9.805e-6
-1.184, 1.014e-5
-1.185, 9.953e-6
-1.186, 9.706e-6
-1.187, 9.509e-6
-1.188, 9.548e-6
-1.189, 9.677e-6
-1.190, 9.598e-6
-1.191, 9.479e-6
-1.192, 9.292e-6
-1.193, 9.272e-6
-1.194, 9.529e-6
-1.195, 9.420e-6
-1.196, 9.075e-6
-1.197, 8.986e-6
-1.198, 9.055e-6
-1.199, 9.292e-6
-1.200, 9.085e-6
-1.201, 8.887e-6
-1.202, 8.759e-6
-1.203, 8.877e-6
-1.204, 9.006e-6
-1.205, 9.035e-6
-1.206, 8.710e-6
-1.207, 8.611e-6
-1.208, 8.581e-6
-1.209, 8.858e-6
-1.210, 8.828e-6
-1.211, 8.512e-6
-1.212, 8.305e-6
-1.213, 8.502e-6
-1.214, 8.631e-6
-1.215, 8.572e-6
-1.216, 8.483e-6
-1.217, 8.335e-6
-1.218, 8.384e-6
-1.219, 8.631e-6
-1.220, 8.512e-6
-1.221, 8.226e-6
-1.222, 8.206e-6
-1.223, 8.256e-6
-1.224, 8.493e-6
-1.225, 8.335e-6
-1.226, 8.236e-6
-1.227, 8.068e-6
-1.228, 8.246e-6
-1.229, 8.572e-6
-1.230, 8.394e-6
-1.231, 8.246e-6
-1.232, 8.039e-6
-1.233, 8.147e-6
-1.234, 8.443e-6
-1.235, 8.216e-6
-1.236, 8.206e-6
-1.237, 8.078e-6
-1.238, 8.108e-6
-1.239, 8.493e-6
-1.240, 8.305e-6
-1.241, 8.137e-6
-1.242, 8.088e-6
-1.243, 8.108e-6
-1.244, 8.424e-6
-1.245, 8.354e-6
-1.246, 8.108e-6
-1.247, 8.059e-6
-1.248, 8.118e-6
-1.249, 8.374e-6
-1.250, 8.374e-6
-1.251, 8.137e-6
-1.252, 8.068e-6
-1.253, 8.128e-6
-1.254, 8.433e-6
-1.255, 8.424e-6
-1.256, 8.147e-6
-1.257, 8.108e-6
-1.258, 8.295e-6
-1.259, 8.483e-6
-1.260, 8.345e-6
-1.261, 8.206e-6
-1.262, 8.206e-6
-1.263, 8.384e-6
-1.264, 8.542e-6
-1.265, 8.453e-6
-1.266, 8.384e-6
-1.267, 8.276e-6
-1.268, 8.473e-6
-1.269, 8.720e-6
-1.270, 8.670e-6
-1.271, 8.493e-6
-1.272, 8.433e-6
-1.273, 8.562e-6
-1.274, 9.025e-6
-1.275, 8.828e-6
-1.276, 8.789e-6
-1.277, 8.729e-6
-1.278, 8.739e-6
-1.279, 9.094e-6
-1.280, 9.016e-6
-1.281, 8.887e-6
-1.282, 8.946e-6
-1.283, 8.976e-6
-1.284, 9.311e-6
-1.285, 9.371e-6
-1.286, 9.272e-6
-1.287, 9.114e-6
-1.288, 9.321e-6
-1.289, 9.607e-6
-1.290, 9.677e-6
-1.291, 9.420e-6
-1.292, 9.509e-6
-1.293, 9.746e-6
-1.294, 1.004e-5
-1.295, 9.943e-6
-1.296, 9.963e-6
-1.297, 9.844e-6
-1.298, 1.013e-5
-1.299, 1.040e-5
-1.300, 1.043e-5
-1.301, 1.038e-5
-1.302, 1.038e-5
-1.303, 1.058e-5
-1.304, 1.087e-5
-1.305, 1.088e-5
-1.306, 1.089e-5
-1.307, 1.097e-5
-1.308, 1.112e-5
-1.309, 1.154e-5
-1.310, 1.161e-5
-1.311, 1.151e-5
-1.312, 1.171e-5
-1.313, 1.189e-5
-1.314, 1.239e-5
-1.315, 1.243e-5
-1.316, 1.241e-5
-1.317, 1.244e-5
-1.318, 1.282e-5
-1.319, 1.325e-5
-1.320, 1.337e-5
-1.321, 1.334e-5
-1.322, 1.356e-5
-1.323, 1.388e-5
-1.324, 1.422e-5
-1.325, 1.446e-5
-1.326, 1.469e-5
-1.327, 1.483e-5
-1.328, 1.525e-5
-1.329, 1.565e-5
-1.330, 1.590e-5
-1.331, 1.599e-5
-1.332, 1.641e-5
-1.333, 1.683e-5
-1.334, 1.739e-5
-1.335, 1.766e-5
-1.336, 1.790e-5
-1.337, 1.814e-5
-1.338, 1.877e-5
-1.339, 1.956e-5
-1.340, 1.982e-5
-1.341, 2.016e-5
-1.342, 2.059e-5
-1.343, 2.119e-5
-1.344, 2.197e-5
-1.345, 2.243e-5
-1.346, 2.298e-5
-1.347, 2.345e-5
-1.348, 2.427e-5
-1.349, 2.528e-5
-1.350, 2.589e-5
-1.351, 2.643e-5
-1.352, 2.716e-5
-1.353, 2.813e-5
-1.354, 2.929e-5
-1.355, 3.001e-5
-1.356, 3.081e-5
-1.357, 3.195e-5
-1.358, 3.315e-5
-1.359, 3.452e-5
-1.360, 3.549e-5
-1.361, 3.668e-5
-1.362, 3.781e-5
-1.363, 3.936e-5
-1.364, 4.101e-5
-1.365, 4.251e-5
-1.366, 4.401e-5
-1.367, 4.563e-5
-1.368, 4.760e-5
-1.369, 4.984e-5
-1.370, 5.182e-5
-1.371, 5.369e-5
-1.372, 5.604e-5
-1.373, 5.870e-5
-1.374, 6.144e-5
-1.375, 6.413e-5
-1.376, 6.707e-5
-1.377, 6.996e-5
-1.378, 7.363e-5
-1.379, 7.730e-5
-1.380, 8.111e-5
-1.381, 8.504e-5
-1.382, 8.944e-5
-1.383, 9.434e-5
-1.384, 9.946e-5
-1.385, 1.049e-4
-1.386, 1.103e-4
-1.387, 1.162e-4
-1.388, 1.228e-4
-1.389, 1.300e-4
-1.390, 1.373e-4
-1.391, 1.450e-4
-1.392, 1.534e-4
-1.393, 1.622e-4
-1.394, 1.718e-4
-1.395, 1.817e-4
-1.396, 1.920e-4
-1.397, 2.032e-4
-1.398, 2.149e-4
-1.399, 2.270e-4
-1.400, 2.396e-4
-1.401, 2.525e-4
-1.402, 2.666e-4
-1.403, 2.813e-4
-1.404, 2.966e-4
-1.405, 3.117e-4
-1.406, 3.278e-4
-1.407, 3.443e-4
-1.408, 3.622e-4
-1.409, 3.801e-4
-1.410, 3.988e-4
-1.411, 4.178e-4
-1.412, 4.377e-4
-1.413, 4.582e-4
-1.414, 4.797e-4
-1.415, 5.013e-4
-1.416, 5.233e-4
-1.417, 5.466e-4
-1.418, 5.695e-4
-1.419, 5.935e-4
-1.420, 6.174e-4
-1.421, 6.423e-4
-1.422, 6.667e-4
-1.423, 6.936e-4
-1.424, 7.189e-4
-1.425, 7.462e-4
-1.426, 7.729e-4
-1.427, 7.993e-4
-1.428, 8.256e-4
-1.429, 8.544e-4
-1.430, 8.834e-4
-1.431, 9.115e-4
-1.432, 9.409e-4
-1.433, 9.690e-4
-1.434, 9.979e-4
-1.435, 1.027e-3
-1.436, 1.056e-3
-1.437, 1.087e-3
-1.438, 1.118e-3
-1.439, 1.151e-3
-1.440, 1.183e-3
-1.441, 1.213e-3
-1.442, 1.245e-3
-1.443, 1.279e-3
-1.444, 1.313e-3
-1.445, 1.347e-3
-1.446, 1.378e-3
-1.447, 1.416e-3
-1.448, 1.448e-3
-1.449, 1.487e-3
-1.450, 1.521e-3
-1.451, 1.556e-3
-1.452, 1.590e-3
-1.453, 1.623e-3
-1.454, 1.650e-3
-1.455, 1.688e-3
-1.456, 1.720e-3
-1.457, 1.760e-3
-1.458, 1.797e-3
-1.459, 1.832e-3
-1.460, 1.874e-3
-1.461, 1.911e-3
-1.462, 1.943e-3
-1.463, 1.980e-3
-1.464, 2.015e-3
-1.465, 2.042e-3
-1.466, 2.072e-3
-1.467, 2.104e-3
-1.468, 2.142e-3
-1.469, 2.181e-3
-1.470, 2.220e-3
-1.471, 2.257e-3
-1.472, 2.291e-3
-1.473, 2.327e-3
-1.474, 2.361e-3
-1.475, 2.398e-3
-1.476, 2.438e-3
-1.477, 2.472e-3
-1.478, 2.511e-3
-1.479, 2.547e-3
-1.480, 2.589e-3
-1.481, 2.625e-3
-1.482, 2.659e-3
-1.483, 2.690e-3
-1.484, 2.722e-3
-1.485, 2.754e-3
-1.486, 2.787e-3
-1.487, 2.815e-3
-1.488, 2.844e-3
-1.489, 2.873e-3
-1.490, 2.901e-3
-1.491, 2.923e-3
-1.492, 2.952e-3
-1.493, 2.974e-3
-1.494, 3.007e-3
-1.495, 3.032e-3
-1.496, 3.062e-3
-1.497, 3.101e-3
-1.498, 3.130e-3
-1.499, 3.159e-3
-1.500, 3.202e-3
-1.501, 3.236e-3
-1.502, 3.264e-3
-1.503, 3.296e-3
-1.504, 3.327e-3
-1.505, 3.354e-3
-1.506, 3.386e-3
-1.507, 3.407e-3
-1.508, 3.462e-3
-1.509, 3.500e-3
-1.510, 3.530e-3
-1.511, 3.553e-3
-1.512, 3.590e-3
-1.513, 3.616e-3
-1.514, 3.645e-3
-1.515, 3.663e-3
-1.516, 3.710e-3
-1.517, 3.750e-3
-1.518, 3.801e-3
-1.519, 3.833e-3
-1.520, 3.885e-3
-1.521, 3.927e-3
-1.522, 3.955e-3
-1.523, 3.992e-3
-1.524, 4.022e-3
-1.525, 4.059e-3
-1.526, 4.108e-3
-1.527, 4.125e-3
-1.528, 4.158e-3
-1.529, 4.195e-3
-1.530, 4.257e-3
-1.531, 4.256e-3
-1.532, 4.298e-3
-1.533, 4.366e-3
-1.534, 4.416e-3
-1.535, 4.456e-3
-1.536, 4.492e-3
-1.537, 4.541e-3
-1.538, 4.605e-3
-1.539, 4.644e-3
-1.540, 4.680e-3
-1.541, 4.723e-3
-1.542, 4.790e-3
-1.543, 4.828e-3
-1.544, 4.849e-3
-1.545, 4.859e-3
-1.546, 4.919e-3
-1.547, 4.977e-3
-1.548, 5.013e-3
-1.549, 5.051e-3
-1.550, 5.076e-3
-1.551, 5.100e-3
-1.552, 5.118e-3
-1.553, 5.153e-3
-1.554, 5.200e-3
-1.555, 5.250e-3
-1.556, 5.262e-3
-1.557, 5.286e-3
-1.558, 5.300e-3
-1.559, 5.325e-3
-1.560, 5.337e-3
-1.561, 5.355e-3
-1.562, 5.386e-3
-1.563, 5.435e-3
-1.564, 5.485e-3
-1.565, 5.528e-3
-1.566, 5.622e-3
-1.567, 5.644e-3
-1.568, 5.679e-3
-1.569, 5.733e-3
-1.570, 5.799e-3
-1.571, 5.841e-3
-1.572, 5.835e-3
-1.573, 5.830e-3
-1.574, 5.891e-3
-1.575, 5.933e-3
-1.576, 5.987e-3
-1.577, 6.077e-3
-1.578, 6.079e-3
-1.579, 6.102e-3
-1.580, 6.144e-3
-1.581, 6.232e-3
-1.582, 6.277e-3
-1.583, 6.321e-3
-1.584, 6.343e-3
-1.585, 6.379e-3
-1.586, 6.426e-3
-1.587, 6.444e-3
-1.588, 6.501e-3
-1.589, 6.549e-3
-1.590, 6.568e-3
-1.591, 6.605e-3
-1.592, 6.692e-3
-1.593, 6.747e-3
-1.594, 6.775e-3
-1.595, 6.855e-3
-1.596, 6.921e-3
-1.597, 6.946e-3
-1.598, 6.980e-3
-1.599, 6.951e-3
-1.600, 6.930e-3
-1.599, 6.871e-3
-1.598, 6.809e-3
-1.597, 6.738e-3
-1.596, 6.679e-3
-1.595, 6.691e-3
-1.594, 6.710e-3
-1.593, 6.657e-3
-1.592, 6.621e-3
-1.591, 6.554e-3
-1.590, 6.507e-3
-1.589, 6.821e-3
-1.588, 6.784e-3
-1.587, 6.700e-3
-1.586, 6.585e-3
-1.585, 6.518e-3
-1.584, 6.504e-3
-1.583, 6.566e-3
-1.582, 6.484e-3
-1.581, 6.439e-3
-1.580, 6.361e-3
-1.579, 6.330e-3
-1.578, 6.274e-3
-1.577, 6.238e-3
-1.576, 6.205e-3
-1.575, 6.111e-3
-1.574, 5.994e-3
-1.573, 5.908e-3
-1.572, 5.844e-3
-1.571, 5.777e-3
-1.570, 5.777e-3
-1.569, 5.727e-3
-1.568, 5.644e-3
-1.567, 5.588e-3
-1.566, 5.549e-3
-1.565, 5.508e-3
-1.564, 5.490e-3
-1.563, 5.455e-3
-1.562, 5.426e-3
-1.561, 5.356e-3
-1.560, 5.301e-3
-1.559, 5.253e-3
-1.558, 5.183e-3
-1.557, 5.152e-3
-1.556, 5.077e-3
-1.555, 5.048e-3
-1.554, 4.988e-3
-1.553, 4.923e-3
-1.552, 4.870e-3
-1.551, 4.842e-3
-1.550, 4.793e-3
-1.549, 4.745e-3
-1.548, 4.680e-3
-1.547, 4.605e-3
-1.546, 4.602e-3
-1.545, 4.545e-3
-1.544, 4.505e-3
-1.543, 4.470e-3
-1.542, 4.433e-3
-1.541, 4.385e-3
-1.540, 4.370e-3
-1.539, 4.313e-3
-1.538, 4.296e-3
-1.537, 4.288e-3
-1.536, 4.226e-3
-1.535, 4.181e-3
-1.534, 4.122e-3
-1.533, 4.063e-3
-1.532, 4.006e-3
-1.531, 3.951e-3
-1.530, 3.969e-3
-1.529, 3.935e-3
-1.528, 3.929e-3
-1.527, 3.896e-3
-1.526, 3.863e-3
-1.525, 3.798e-3
-1.524, 3.741e-3
-1.523, 3.680e-3
-1.522, 3.623e-3
-1.521, 3.573e-3
-1.520, 3.547e-3
-1.519, 3.521e-3
-1.518, 3.475e-3
-1.517, 3.436e-3
-1.516, 3.394e-3
-1.515, 3.348e-3
-1.514, 3.316e-3
-1.513, 3.275e-3
-1.512, 3.249e-3
-1.511, 3.191e-3
-1.510, 3.151e-3
-1.509, 3.106e-3
-1.508, 3.074e-3
-1.507, 3.034e-3
-1.506, 2.999e-3
-1.505, 2.968e-3
-1.504, 2.931e-3
-1.503, 2.897e-3
-1.502, 2.869e-3
-1.501, 2.832e-3
-1.500, 2.790e-3
-1.499, 2.744e-3
-1.498, 2.714e-3
-1.497, 2.679e-3
-1.496, 2.650e-3
-1.495, 2.612e-3
-1.494, 2.585e-3
-1.493, 2.560e-3
-1.492, 2.517e-3
-1.491, 2.487e-3
-1.490, 2.445e-3
-1.489, 2.417e-3
-1.488, 2.363e-3
-1.487, 2.338e-3
-1.486, 2.290e-3
-1.485, 2.242e-3
-1.484, 2.221e-3
-1.483, 2.180e-3
-1.482, 2.149e-3
-1.481, 2.121e-3
-1.480, 2.092e-3
-1.479, 2.065e-3
-1.478, 2.022e-3
-1.477, 1.986e-3
-1.476, 1.950e-3
-1.475, 1.917e-3
-1.474, 1.882e-3
-1.473, 1.846e-3
-1.472, 1.815e-3
-1.471, 1.778e-3
-1.470, 1.743e-3
-1.469, 1.713e-3
-1.468, 1.685e-3
-1.467, 1.650e-3
-1.466, 1.620e-3
-1.465, 1.585e-3
-1.464, 1.561e-3
-1.463, 1.532e-3
-1.462, 1.504e-3
-1.461, 1.474e-3
-1.460, 1.452e-3
-1.459, 1.424e-3
-1.458, 1.398e-3
-1.457, 1.375e-3
-1.456, 1.354e-3
-1.455, 1.332e-3
-1.454, 1.301e-3
-1.453, 1.270e-3
-1.452, 1.245e-3
-1.451, 1.218e-3
-1.450, 1.193e-3
-1.449, 1.165e-3
-1.448, 1.141e-3
-1.447, 1.112e-3
-1.446, 1.085e-3
-1.445, 1.060e-3
-1.444, 1.038e-3
-1.443, 1.016e-3
-1.442, 9.978e-4
-1.441, 9.771e-4
-1.440, 9.547e-4
-1.439, 9.332e-4
-1.438, 9.096e-4
-1.437, 8.881e-4
-1.436, 8.660e-4
-1.435, 8.435e-4
-1.434, 8.230e-4
-1.433, 7.985e-4
-1.432, 7.791e-4
-1.431, 7.590e-4
-1.430, 7.389e-4
-1.429, 7.194e-4
-1.428, 7.008e-4
-1.427, 6.853e-4
-1.426, 6.699e-4
-1.425, 6.550e-4
-1.424, 6.378e-4
-1.423, 6.224e-4
-1.422, 6.066e-4
-1.421, 5.919e-4
-1.420, 5.782e-4
-1.419, 5.618e-4
-1.418, 5.467e-4
-1.417, 5.321e-4
-1.416, 5.172e-4
-1.415, 5.026e-4
-1.414, 4.886e-4
-1.413, 4.742e-4
-1.412, 4.617e-4
-1.411, 4.478e-4
-1.410, 4.358e-4
-1.409, 4.220e-4
-1.408, 4.093e-4
-1.407, 3.977e-4
-1.406, 3.859e-4
-1.405, 3.737e-4
-1.404, 3.618e-4
-1.403, 3.506e-4
-1.402, 3.398e-4
-1.401, 3.289e-4
-1.400, 3.185e-4
-1.399, 3.083e-4
-1.398, 2.982e-4
-1.397, 2.882e-4
-1.396, 2.784e-4
-1.395, 2.690e-4
-1.394, 2.602e-4
-1.393, 2.515e-4
-1.392, 2.436e-4
-1.391, 2.354e-4
-1.390, 2.276e-4
-1.389, 2.199e-4
-1.388, 2.126e-4
-1.387, 2.058e-4
-1.386, 1.984e-4
-1.385, 1.920e-4
-1.384, 1.851e-4
-1.383, 1.789e-4
-1.382, 1.729e-4
-1.381, 1.669e-4
-1.380, 1.608e-4
-1.379, 1.549e-4
-1.378, 1.496e-4
-1.377, 1.444e-4
-1.376, 1.394e-4
-1.375, 1.342e-4
-1.374, 1.292e-4
-1.373, 1.247e-4
-1.372, 1.202e-4
-1.371, 1.161e-4
-1.370, 1.120e-4
-1.369, 1.081e-4
-1.368, 1.041e-4
-1.367, 1.003e-4
-1.366, 9.659e-5
-1.365, 9.289e-5
-1.364, 8.925e-5
-1.363, 8.589e-5
-1.362, 8.298e-5
-1.361, 7.983e-5
-1.360, 7.659e-5
-1.359, 7.355e-5
-1.358, 7.085e-5
-1.357, 6.836e-5
-1.356, 6.552e-5
-1.355, 6.306e-5
-1.354, 6.032e-5
-1.353, 5.818e-5
-1.352, 5.619e-5
-1.351, 5.372e-5
-1.350, 5.113e-5
-1.349, 4.899e-5
-1.348, 4.696e-5
-1.347, 4.520e-5
-1.346, 4.304e-5
-1.345, 4.105e-5
-1.344, 3.918e-5
-1.343, 3.756e-5
-1.342, 3.622e-5
-1.341, 3.481e-5
-1.340, 3.300e-5
-1.339, 3.137e-5
-1.338, 3.007e-5
-1.337, 2.890e-5
-1.336, 2.761e-5
-1.335, 2.623e-5
-1.334, 2.488e-5
-1.333, 2.375e-5
-1.332, 2.294e-5
-1.331, 2.160e-5
-1.330, 2.041e-5
-1.329, 1.922e-5
-1.328, 1.844e-5
-1.327, 1.771e-5
-1.326, 1.664e-5
-1.325, 1.568e-5
-1.324, 1.475e-5
-1.323, 1.399e-5
-1.322, 1.342e-5
-1.321, 1.266e-5
-1.320, 1.176e-5
-1.319, 1.098e-5
-1.318, 1.040e-5
-1.317, 1.002e-5
-1.316, 9.242e-6
-1.315, 8.562e-6
-1.314, 7.674e-6
-1.313, 7.309e-6
-1.312, 6.884e-6
-1.311, 6.431e-6
-1.310, 5.661e-6
-1.309, 5.148e-6
-1.308, 4.882e-6
-1.307, 4.635e-6
-1.306, 3.905e-6
-1.305, 3.343e-6
-1.304, 2.820e-6
-1.303, 2.770e-6
-1.302, 2.514e-6
-1.301, 2.159e-6
-1.300, 1.744e-6
-1.299, 1.133e-6
-1.298, 9.452e-7
-1.297, 8.465e-7
-1.296, 5.703e-7
-1.295, 1.263e-7
-1.294, -3.670e-7
-1.293, -4.558e-7
-1.292, -5.939e-7
-1.291, -8.702e-7
-1.290, -1.413e-6
-1.289, -1.679e-6
-1.288, -1.640e-6
-1.287, -1.807e-6
-1.286, -2.103e-6
-1.285, -2.271e-6
-1.284, -2.577e-6
-1.283, -2.735e-6
-1.282, -2.528e-6
-1.281, -2.755e-6
-1.280, -2.972e-6
-1.279, -3.268e-6
-1.278, -3.465e-6
-1.277, -3.386e-6
-1.276, -3.623e-6
-1.275, -3.988e-6
-1.274, -4.136e-6
-1.273, -4.116e-6
-1.272, -3.860e-6
-1.271, -4.057e-6
-1.270, -4.471e-6
-1.269, -4.688e-6
-1.268, -4.688e-6
-1.267, -4.619e-6
-1.266, -4.787e-6
-1.265, -4.905e-6
-1.264, -5.162e-6
-1.263, -4.955e-6
-1.262, -4.787e-6
-1.261, -5.004e-6
-1.260, -5.270e-6
-1.259, -5.527e-6
-1.258, -5.300e-6
-1.257, -5.241e-6
-1.256, -5.290e-6
-1.255, -5.330e-6
-1.254, -5.734e-6
-1.253, -5.566e-6
-1.252, -5.320e-6
-1.251, -5.497e-6
-1.250, -5.675e-6
-1.249, -5.695e-6
-1.248, -5.645e-6
-1.247, -5.379e-6
-1.246, -5.438e-6
-1.245, -5.537e-6
-1.244, -5.645e-6
-1.243, -5.635e-6
-1.242, -5.487e-6
-1.241, -5.764e-6
-1.240, -5.922e-6
-1.239, -6.020e-6
-1.238, -5.833e-6
-1.237, -5.566e-6
-1.236, -5.695e-6
-1.235, -5.981e-6
-1.234, -6.000e-6
-1.233, -5.862e-6
-1.232, -5.695e-6
-1.231, -5.823e-6
-1.230, -6.089e-6
-1.229, -6.277e-6
-1.228, -6.040e-6
-1.227, -5.803e-6
-1.226, -6.060e-6
-1.225, -6.198e-6
-1.224, -6.208e-6
-1.223, -5.941e-6
-1.222, -5.764e-6
-1.221, -5.902e-6
-1.220, -6.010e-6
-1.219, -6.129e-6
-1.218, -5.991e-6
-1.217, -5.813e-6
-1.216, -5.941e-6
-1.215, -6.050e-6
-1.214, -6.158e-6
-1.213, -5.971e-6
-1.212, -5.754e-6
-1.211, -5.892e-6
-1.210, -6.139e-6
-1.209, -6.208e-6
-1.208, -6.079e-6
-1.207, -5.931e-6
-1.206, -6.000e-6
-1.205, -6.050e-6
-1.204, -6.237e-6
-1.203, -5.991e-6
-1.202, -5.852e-6
-1.201, -5.941e-6
-1.200, -6.158e-6
-1.199, -6.168e-6
-1.198, -5.951e-6
-1.197, -5.823e-6
-1.196, -5.991e-6
-1.195, -6.247e-6
-1.194, -6.326e-6
-1.193, -6.119e-6
-1.192, -5.902e-6
-1.191, -6.040e-6
-1.190, -6.296e-6
-1.189, -6.257e-6
-1.188, -6.000e-6
-1.187, -6.070e-6
-1.186, -6.099e-6
-1.185, -6.208e-6
-1.184, -6.375e-6
-1.183, -6.218e-6
-1.182, -6.139e-6
-1.181, -6.158e-6
-1.180, -6.306e-6
-1.179, -6.464e-6
-1.178, -6.326e-6
-1.177, -6.129e-6
-1.176, -6.247e-6
-1.175, -6.464e-6
-1.174, -6.592e-6
-1.173, -6.356e-6
-1.172, -6.188e-6
-1.171, -6.415e-6
-1.170, -6.592e-6
-1.169, -6.711e-6
-1.168, -6.514e-6
-1.167, -6.336e-6
-1.166, -6.444e-6
-1.165, -6.681e-6
-1.164, -6.760e-6
-1.163, -6.573e-6
-1.162, -6.563e-6
-1.161, -6.731e-6
-1.160, -6.809e-6
-1.159, -6.957e-6
-1.158, -6.740e-6
-1.157, -6.671e-6
-1.156, -6.790e-6
-1.155, -6.977e-6
-1.154, -7.076e-6
-1.153, -6.908e-6
-1.152, -6.819e-6
-1.151, -6.948e-6
-1.150, -7.253e-6
-1.149, -7.323e-6
-1.148, -7.105e-6
-1.147, -6.957e-6
-1.146, -7.184e-6
-1.145, -7.352e-6
-1.144, -7.372e-6
-1.143, -7.273e-6
-1.142, -7.194e-6
-1.141, -7.224e-6
-1.140, -7.540e-6
-1.139, -7.707e-6
-1.138, -7.599e-6
-1.137, -7.382e-6
-1.136, -7.618e-6
-1.135, -7.875e-6
-1.134, -7.934e-6
-1.133, -7.766e-6
-1.132, -7.599e-6
-1.131, -7.885e-6
-1.130, -8.043e-6
-1.129, -8.220e-6
-1.128, -7.984e-6
-1.127, -7.895e-6
-1.126, -8.191e-6
-1.125, -8.408e-6
-1.124, -8.536e-6
-1.123, -8.388e-6
-1.122, -8.250e-6
-1.121, -8.516e-6
-1.120, -8.674e-6
-1.119, -8.832e-6
-1.118, -8.763e-6
-1.117, -8.536e-6
-1.116, -8.871e-6
-1.115, -8.931e-6
-1.114, -9.158e-6
-1.113, -9.049e-6
-1.112, -9.010e-6
-1.111, -9.197e-6
-1.110, -9.493e-6
-1.109, -9.641e-6
-1.108, -9.523e-6
-1.107, -9.473e-6
-1.106, -9.671e-6
-1.105, -9.947e-6
-1.104, -1.005e-5
-1.103, -1.008e-5
-1.102, -9.986e-6
-1.101, -1.014e-5
-1.100, -1.059e-5
-1.099, -1.072e-5
-1.098, -1.059e-5
-1.097, -1.061e-5
-1.096, -1.070e-5
-1.095, -1.112e-5
-1.094, -1.133e-5
-1.093, -1.124e-5
-1.092, -1.118e-5
-1.091, -1.151e-5
-1.090, -1.181e-5
-1.089, -1.197e-5
-1.088, -1.192e-5
-1.087, -1.193e-5
-1.086, -1.213e-5
-1.085, -1.249e-5
-1.084, -1.267e-5
-1.083, -1.268e-5
-1.082, -1.256e-5
-1.081, -1.289e-5
-1.080, -1.329e-5
-1.079, -1.344e-5
-1.078, -1.349e-5
-1.077, -1.332e-5
-1.076, -1.365e-5
-1.075, -1.410e-5
-1.074, -1.431e-5
-1.073, -1.433e-5
-1.072, -1.427e-5
-1.071, -1.454e-5
-1.070, -1.488e-5
-1.069, -1.524e-5
-1.068, -1.522e-5
-1.067, -1.518e-5
-1.066, -1.545e-5
-1.065, -1.597e-5
-1.064, -1.613e-5
-1.063, -1.617e-5
-1.062, -1.619e-5
-1.061, -1.643e-5
-1.060, -1.693e-5
-1.059, -1.729e-5
-1.058, -1.726e-5
-1.057, -1.724e-5
-1.056, -1.771e-5
-1.055, -1.818e-5
-1.054, -1.841e-5
-1.053, -1.835e-5
-1.052, -1.850e-5
-1.051, -1.888e-5
-1.050, -1.936e-5
-1.049, -1.984e-5
-1.048, -1.983e-5
-1.047, -1.983e-5
-1.046, -2.036e-5
-1.045, -2.076e-5
-1.044, -2.112e-5
-1.043, -2.129e-5
-1.042, -2.130e-5
-1.041, -2.173e-5
-1.040, -2.226e-5
-1.039, -2.258e-5
-1.038, -2.281e-5
-1.037, -2.286e-5
-1.036, -2.332e-5
-1.035, -2.385e-5
-1.034, -2.434e-5
-1.033, -2.440e-5
-1.032, -2.459e-5
-1.031, -2.497e-5
-1.030, -2.558e-5
-1.029, -2.606e-5
-1.028, -2.613e-5
-1.027, -2.640e-5
-1.026, -2.668e-5
-1.025, -2.743e-5
-1.024, -2.808e-5
-1.023, -2.810e-5
-1.022, -2.829e-5
-1.021, -2.881e-5
-1.020, -2.937e-5
-1.019, -2.993e-5
-1.018, -3.010e-5
-1.017, -3.026e-5
-1.016, -3.069e-5
-1.015, -3.128e-5
-1.014, -3.184e-5
-1.013, -3.189e-5
-1.012, -3.213e-5
-1.011, -3.271e-5
-1.010, -3.327e-5
-1.009, -3.386e-5
-1.008, -3.391e-5
-1.007, -3.408e-5
-1.006, -3.465e-5
-1.005, -3.517e-5
-1.004, -3.561e-5
-1.003, -3.579e-5
-1.002, -3.592e-5
-1.001, -3.645e-5
