July 12, 2024   04:15:09
Cyclic Voltammetry
File: c:/users/guazh/data/20240709_batch67/2024-07-10-exp18\exp18-2024-07-12t04_09_07-arkoh\exp18_cv_sr_100mvs_efin_-1400mv.bin
Data Source:  Experiment
Instrument Model:  CHI760E
Header: CV ran at 100 mVs
Note: 

Init E (V) = -1
High E (V) = -1
Low E (V) = -1.4
Final E (V) = -1
Init P/N = N
Scan Rate (V/s) = 0.1
Segment = 3
Sample Interval (V) = 0.001
Quiet Time (sec) = 2
Sensitivity (A/V) = 0.01
Comp R (ohm) = 1.6

Results:

Channel 1:
Segment 1:

Segment 2:

Segment 3:

Potential/V, Current/A

-1.000, 5.109e-6
-1.001, 1.909e-5
-1.002, 1.938e-5
-1.003, 2.134e-5
-1.004, 2.592e-5
-1.005, 2.253e-5
-1.006, 2.815e-5
-1.007, 2.606e-5
-1.008, 2.654e-5
-1.009, 3.043e-5
-1.010, 2.627e-5
-1.011, 3.133e-5
-1.012, 2.915e-5
-1.013, 2.926e-5
-1.014, 3.259e-5
-1.015, 2.848e-5
-1.016, 3.319e-5
-1.017, 3.077e-5
-1.018, 3.062e-5
-1.019, 3.384e-5
-1.020, 2.958e-5
-1.021, 3.420e-5
-1.022, 3.187e-5
-1.023, 3.151e-5
-1.024, 3.494e-5
-1.025, 3.033e-5
-1.026, 3.500e-5
-1.027, 3.246e-5
-1.028, 3.215e-5
-1.029, 3.552e-5
-1.030, 3.084e-5
-1.031, 3.542e-5
-1.032, 3.273e-5
-1.033, 3.242e-5
-1.034, 3.590e-5
-1.035, 3.093e-5
-1.036, 3.571e-5
-1.037, 3.303e-5
-1.038, 3.264e-5
-1.039, 3.597e-5
-1.040, 3.103e-5
-1.041, 3.557e-5
-1.042, 3.335e-5
-1.043, 3.251e-5
-1.044, 3.610e-5
-1.045, 3.121e-5
-1.046, 3.561e-5
-1.047, 3.327e-5
-1.048, 3.249e-5
-1.049, 3.597e-5
-1.050, 3.130e-5
-1.051, 3.560e-5
-1.052, 3.330e-5
-1.053, 3.257e-5
-1.054, 3.594e-5
-1.055, 3.136e-5
-1.056, 3.556e-5
-1.057, 3.308e-5
-1.058, 3.255e-5
-1.059, 3.600e-5
-1.060, 3.115e-5
-1.061, 3.552e-5
-1.062, 3.322e-5
-1.063, 3.253e-5
-1.064, 3.589e-5
-1.065, 3.109e-5
-1.066, 3.544e-5
-1.067, 3.307e-5
-1.068, 3.243e-5
-1.069, 3.584e-5
-1.070, 3.098e-5
-1.071, 3.541e-5
-1.072, 3.305e-5
-1.073, 3.221e-5
-1.074, 3.575e-5
-1.075, 3.114e-5
-1.076, 3.545e-5
-1.077, 3.317e-5
-1.078, 3.230e-5
-1.079, 3.576e-5
-1.080, 3.104e-5
-1.081, 3.525e-5
-1.082, 3.333e-5
-1.083, 3.203e-5
-1.084, 3.586e-5
-1.085, 3.101e-5
-1.086, 3.516e-5
-1.087, 3.326e-5
-1.088, 3.217e-5
-1.089, 3.578e-5
-1.090, 3.108e-5
-1.091, 3.505e-5
-1.092, 3.330e-5
-1.093, 3.211e-5
-1.094, 3.575e-5
-1.095, 3.116e-5
-1.096, 3.514e-5
-1.097, 3.312e-5
-1.098, 3.223e-5
-1.099, 3.577e-5
-1.100, 3.107e-5
-1.101, 3.537e-5
-1.102, 3.334e-5
-1.103, 3.214e-5
-1.104, 3.581e-5
-1.105, 3.127e-5
-1.106, 3.526e-5
-1.107, 3.324e-5
-1.108, 3.232e-5
-1.109, 3.590e-5
-1.110, 3.112e-5
-1.111, 3.530e-5
-1.112, 3.334e-5
-1.113, 3.212e-5
-1.114, 3.592e-5
-1.115, 3.115e-5
-1.116, 3.535e-5
-1.117, 3.351e-5
-1.118, 3.226e-5
-1.119, 3.588e-5
-1.120, 3.134e-5
-1.121, 3.515e-5
-1.122, 3.352e-5
-1.123, 3.211e-5
-1.124, 3.609e-5
-1.125, 3.129e-5
-1.126, 3.524e-5
-1.127, 3.367e-5
-1.128, 3.240e-5
-1.129, 3.603e-5
-1.130, 3.150e-5
-1.131, 3.517e-5
-1.132, 3.360e-5
-1.133, 3.245e-5
-1.134, 3.613e-5
-1.135, 3.143e-5
-1.136, 3.515e-5
-1.137, 3.377e-5
-1.138, 3.221e-5
-1.139, 3.588e-5
-1.140, 3.157e-5
-1.141, 3.517e-5
-1.142, 3.371e-5
-1.143, 3.236e-5
-1.144, 3.609e-5
-1.145, 3.153e-5
-1.146, 3.531e-5
-1.147, 3.398e-5
-1.148, 3.252e-5
-1.149, 3.606e-5
-1.150, 3.172e-5
-1.151, 3.536e-5
-1.152, 3.390e-5
-1.153, 3.258e-5
-1.154, 3.624e-5
-1.155, 3.162e-5
-1.156, 3.538e-5
-1.157, 3.395e-5
-1.158, 3.241e-5
-1.159, 3.631e-5
-1.160, 3.171e-5
-1.161, 3.532e-5
-1.162, 3.414e-5
-1.163, 3.248e-5
-1.164, 3.632e-5
-1.165, 3.194e-5
-1.166, 3.551e-5
-1.167, 3.439e-5
-1.168, 3.261e-5
-1.169, 3.632e-5
-1.170, 3.212e-5
-1.171, 3.538e-5
-1.172, 3.445e-5
-1.173, 3.290e-5
-1.174, 3.656e-5
-1.175, 3.240e-5
-1.176, 3.576e-5
-1.177, 3.483e-5
-1.178, 3.316e-5
-1.179, 3.687e-5
-1.180, 3.268e-5
-1.181, 3.591e-5
-1.182, 3.491e-5
-1.183, 3.345e-5
-1.184, 3.716e-5
-1.185, 3.290e-5
-1.186, 3.635e-5
-1.187, 3.526e-5
-1.188, 3.377e-5
-1.189, 3.747e-5
-1.190, 3.336e-5
-1.191, 3.673e-5
-1.192, 3.595e-5
-1.193, 3.420e-5
-1.194, 3.807e-5
-1.195, 3.390e-5
-1.196, 3.739e-5
-1.197, 3.653e-5
-1.198, 3.474e-5
-1.199, 3.868e-5
-1.200, 3.465e-5
-1.201, 3.780e-5
-1.202, 3.735e-5
-1.203, 3.560e-5
-1.204, 3.943e-5
-1.205, 3.546e-5
-1.206, 3.884e-5
-1.207, 3.843e-5
-1.208, 3.677e-5
-1.209, 4.056e-5
-1.210, 3.676e-5
-1.211, 3.986e-5
-1.212, 3.972e-5
-1.213, 3.793e-5
-1.214, 4.196e-5
-1.215, 3.817e-5
-1.216, 4.144e-5
-1.217, 4.106e-5
-1.218, 3.968e-5
-1.219, 4.352e-5
-1.220, 3.986e-5
-1.221, 4.305e-5
-1.222, 4.316e-5
-1.223, 4.174e-5
-1.224, 4.562e-5
-1.225, 4.225e-5
-1.226, 4.566e-5
-1.227, 4.537e-5
-1.228, 4.424e-5
-1.229, 4.851e-5
-1.230, 4.499e-5
-1.231, 4.858e-5
-1.232, 4.869e-5
-1.233, 4.746e-5
-1.234, 5.170e-5
-1.235, 4.854e-5
-1.236, 5.219e-5
-1.237, 5.251e-5
-1.238, 5.127e-5
-1.239, 5.577e-5
-1.240, 5.290e-5
-1.241, 5.665e-5
-1.242, 5.749e-5
-1.243, 5.603e-5
-1.244, 6.102e-5
-1.245, 5.850e-5
-1.246, 6.238e-5
-1.247, 6.341e-5
-1.248, 6.270e-5
-1.249, 6.776e-5
-1.250, 6.545e-5
-1.251, 6.970e-5
-1.252, 7.097e-5
-1.253, 7.063e-5
-1.254, 7.603e-5
-1.255, 7.431e-5
-1.256, 7.885e-5
-1.257, 8.079e-5
-1.258, 8.112e-5
-1.259, 8.659e-5
-1.260, 8.573e-5
-1.261, 9.067e-5
-1.262, 9.314e-5
-1.263, 9.416e-5
-1.264, 1.006e-4
-1.265, 1.004e-4
-1.266, 1.063e-4
-1.267, 1.096e-4
-1.268, 1.117e-4
-1.269, 1.191e-4
-1.270, 1.199e-4
-1.271, 1.272e-4
-1.272, 1.317e-4
-1.273, 1.354e-4
-1.274, 1.445e-4
-1.275, 1.468e-4
-1.276, 1.559e-4
-1.277, 1.628e-4
-1.278, 1.685e-4
-1.279, 1.801e-4
-1.280, 1.856e-4
-1.281, 1.976e-4
-1.282, 2.077e-4
-1.283, 2.172e-4
-1.284, 2.326e-4
-1.285, 2.425e-4
-1.286, 2.600e-4
-1.287, 2.759e-4
-1.288, 2.920e-4
-1.289, 3.150e-4
-1.290, 3.336e-4
-1.291, 3.604e-4
-1.292, 3.865e-4
-1.293, 4.148e-4
-1.294, 4.503e-4
-1.295, 4.833e-4
-1.296, 5.259e-4
-1.297, 5.687e-4
-1.298, 6.142e-4
-1.299, 6.664e-4
-1.300, 7.151e-4
-1.301, 7.718e-4
-1.302, 8.250e-4
-1.303, 8.794e-4
-1.304, 9.360e-4
-1.305, 9.856e-4
-1.306, 1.041e-3
-1.307, 1.089e-3
-1.308, 1.138e-3
-1.309, 1.186e-3
-1.310, 1.224e-3
-1.311, 1.268e-3
-1.312, 1.303e-3
-1.313, 1.339e-3
-1.314, 1.375e-3
-1.315, 1.404e-3
-1.316, 1.440e-3
-1.317, 1.469e-3
-1.318, 1.502e-3
-1.319, 1.536e-3
-1.320, 1.564e-3
-1.321, 1.601e-3
-1.322, 1.630e-3
-1.323, 1.661e-3
-1.324, 1.695e-3
-1.325, 1.724e-3
-1.326, 1.762e-3
-1.327, 1.792e-3
-1.328, 1.825e-3
-1.329, 1.860e-3
-1.330, 1.889e-3
-1.331, 1.927e-3
-1.332, 1.958e-3
-1.333, 1.993e-3
-1.334, 2.030e-3
-1.335, 2.058e-3
-1.336, 2.095e-3
-1.337, 2.125e-3
-1.338, 2.161e-3
-1.339, 2.199e-3
-1.340, 2.228e-3
-1.341, 2.267e-3
-1.342, 2.301e-3
-1.343, 2.337e-3
-1.344, 2.373e-3
-1.345, 2.402e-3
-1.346, 2.446e-3
-1.347, 2.479e-3
-1.348, 2.514e-3
-1.349, 2.551e-3
-1.350, 2.580e-3
-1.351, 2.616e-3
-1.352, 2.645e-3
-1.353, 2.678e-3
-1.354, 2.713e-3
-1.355, 2.744e-3
-1.356, 2.785e-3
-1.357, 2.832e-3
-1.358, 2.864e-3
-1.359, 2.916e-3
-1.360, 2.948e-3
-1.361, 2.983e-3
-1.362, 3.016e-3
-1.363, 3.055e-3
-1.364, 3.098e-3
-1.365, 3.128e-3
-1.366, 3.171e-3
-1.367, 3.204e-3
-1.368, 3.256e-3
-1.369, 3.297e-3
-1.370, 3.329e-3
-1.371, 3.375e-3
-1.372, 3.408e-3
-1.373, 3.451e-3
-1.374, 3.490e-3
-1.375, 3.516e-3
-1.376, 3.561e-3
-1.377, 3.594e-3
-1.378, 3.634e-3
-1.379, 3.675e-3
-1.380, 3.707e-3
-1.381, 3.762e-3
-1.382, 3.806e-3
-1.383, 3.841e-3
-1.384, 3.885e-3
-1.385, 3.910e-3
-1.386, 3.957e-3
-1.387, 3.995e-3
-1.388, 4.037e-3
-1.389, 4.086e-3
-1.390, 4.130e-3
-1.391, 4.173e-3
-1.392, 4.203e-3
-1.393, 4.244e-3
-1.394, 4.293e-3
-1.395, 4.344e-3
-1.396, 4.395e-3
-1.397, 4.429e-3
-1.398, 4.470e-3
-1.399, 4.507e-3
-1.400, 4.493e-3
-1.399, 4.439e-3
-1.398, 4.386e-3
-1.397, 4.326e-3
-1.396, 4.276e-3
-1.395, 4.213e-3
-1.394, 4.174e-3
-1.393, 4.120e-3
-1.392, 4.071e-3
-1.391, 4.020e-3
-1.390, 3.964e-3
-1.389, 3.920e-3
-1.388, 3.874e-3
-1.387, 3.835e-3
-1.386, 3.790e-3
-1.385, 3.736e-3
-1.384, 3.688e-3
-1.383, 3.640e-3
-1.382, 3.589e-3
-1.381, 3.539e-3
-1.380, 3.484e-3
-1.379, 3.459e-3
-1.378, 3.407e-3
-1.377, 3.366e-3
-1.376, 3.321e-3
-1.375, 3.283e-3
-1.374, 3.228e-3
-1.373, 3.174e-3
-1.372, 3.128e-3
-1.371, 3.086e-3
-1.370, 3.031e-3
-1.369, 2.996e-3
-1.368, 2.947e-3
-1.367, 2.899e-3
-1.366, 2.857e-3
-1.365, 2.809e-3
-1.364, 2.772e-3
-1.363, 2.731e-3
-1.362, 2.698e-3
-1.361, 2.652e-3
-1.360, 2.604e-3
-1.359, 2.563e-3
-1.358, 2.518e-3
-1.357, 2.483e-3
-1.356, 2.442e-3
-1.355, 2.400e-3
-1.354, 2.365e-3
-1.353, 2.318e-3
-1.352, 2.279e-3
-1.351, 2.244e-3
-1.350, 2.202e-3
-1.349, 2.170e-3
-1.348, 2.129e-3
-1.347, 2.111e-3
-1.346, 2.074e-3
-1.345, 2.031e-3
-1.344, 1.998e-3
-1.343, 1.957e-3
-1.342, 1.919e-3
-1.341, 1.886e-3
-1.340, 1.847e-3
-1.339, 1.813e-3
-1.338, 1.777e-3
-1.337, 1.743e-3
-1.336, 1.712e-3
-1.335, 1.674e-3
-1.334, 1.643e-3
-1.333, 1.608e-3
-1.332, 1.575e-3
-1.331, 1.545e-3
-1.330, 1.509e-3
-1.329, 1.482e-3
-1.328, 1.448e-3
-1.327, 1.419e-3
-1.326, 1.393e-3
-1.325, 1.358e-3
-1.324, 1.332e-3
-1.323, 1.302e-3
-1.322, 1.277e-3
-1.321, 1.253e-3
-1.320, 1.220e-3
-1.319, 1.197e-3
-1.318, 1.168e-3
-1.317, 1.144e-3
-1.316, 1.120e-3
-1.315, 1.091e-3
-1.314, 1.067e-3
-1.313, 1.042e-3
-1.312, 1.017e-3
-1.311, 9.954e-4
-1.310, 9.685e-4
-1.309, 9.493e-4
-1.308, 9.253e-4
-1.307, 9.000e-4
-1.306, 8.797e-4
-1.305, 8.530e-4
-1.304, 8.329e-4
-1.303, 8.117e-4
-1.302, 7.881e-4
-1.301, 7.707e-4
-1.300, 7.465e-4
-1.299, 7.291e-4
-1.298, 7.075e-4
-1.297, 6.854e-4
-1.296, 6.698e-4
-1.295, 6.474e-4
-1.294, 6.288e-4
-1.293, 6.063e-4
-1.292, 5.871e-4
-1.291, 5.727e-4
-1.290, 5.527e-4
-1.289, 5.384e-4
-1.288, 5.215e-4
-1.287, 5.035e-4
-1.286, 4.909e-4
-1.285, 4.722e-4
-1.284, 4.669e-4
-1.283, 4.465e-4
-1.282, 4.310e-4
-1.281, 4.193e-4
-1.280, 4.027e-4
-1.279, 3.913e-4
-1.278, 3.782e-4
-1.277, 3.644e-4
-1.276, 3.594e-4
-1.275, 3.469e-4
-1.274, 3.317e-4
-1.273, 3.187e-4
-1.272, 3.058e-4
-1.271, 2.985e-4
-1.270, 2.853e-4
-1.269, 2.769e-4
-1.268, 2.675e-4
-1.267, 2.558e-4
-1.266, 2.498e-4
-1.265, 2.376e-4
-1.264, 2.308e-4
-1.263, 2.229e-4
-1.262, 2.120e-4
-1.261, 2.078e-4
-1.260, 1.971e-4
-1.259, 1.911e-4
-1.258, 1.848e-4
-1.257, 1.753e-4
-1.256, 1.718e-4
-1.255, 1.625e-4
-1.254, 1.579e-4
-1.253, 1.527e-4
-1.252, 1.444e-4
-1.251, 1.422e-4
-1.250, 1.337e-4
-1.249, 1.298e-4
-1.248, 1.257e-4
-1.247, 1.180e-4
-1.246, 1.166e-4
-1.245, 1.090e-4
-1.244, 1.059e-4
-1.243, 1.023e-4
-1.242, 9.532e-5
-1.241, 9.448e-5
-1.240, 8.791e-5
-1.239, 8.510e-5
-1.238, 8.226e-5
-1.237, 7.611e-5
-1.236, 7.596e-5
-1.235, 6.995e-5
-1.234, 6.809e-5
-1.233, 6.594e-5
-1.232, 6.001e-5
-1.231, 6.079e-5
-1.230, 5.500e-5
-1.229, 5.323e-5
-1.228, 5.182e-5
-1.227, 4.644e-5
-1.226, 4.784e-5
-1.225, 4.236e-5
-1.224, 4.162e-5
-1.223, 4.030e-5
-1.222, 3.505e-5
-1.221, 3.673e-5
-1.220, 3.180e-5
-1.219, 3.116e-5
-1.218, 3.037e-5
-1.217, 2.553e-5
-1.216, 2.747e-5
-1.215, 2.294e-5
-1.214, 2.241e-5
-1.213, 2.223e-5
-1.212, 1.746e-5
-1.211, 1.973e-5
-1.210, 1.551e-5
-1.209, 1.513e-5
-1.208, 1.517e-5
-1.207, 1.084e-5
-1.206, 1.319e-5
-1.205, 9.203e-6
-1.204, 9.193e-6
-1.203, 9.242e-6
-1.202, 4.990e-6
-1.201, 7.792e-6
-1.200, 3.935e-6
-1.199, 3.954e-6
-1.198, 4.388e-6
-1.197, 4.124e-7
-1.196, 3.204e-6
-1.195, -7.321e-7
-1.194, -1.598e-7
-1.193, 2.151e-7
-1.192, -3.544e-6
-1.191, -6.630e-7
-1.190, -4.304e-6
-1.189, -3.899e-6
-1.188, -3.268e-6
-1.187, -7.105e-6
-1.186, -4.037e-6
-1.185, -7.618e-6
-1.184, -7.007e-6
-1.183, -6.336e-6
-1.182, -1.013e-5
-1.181, -6.760e-6
-1.180, -9.917e-6
-1.179, -9.730e-6
-1.178, -8.911e-6
-1.177, -1.270e-5
-1.176, -9.296e-6
-1.175, -1.252e-5
-1.174, -1.200e-5
-1.173, -1.101e-5
-1.172, -1.489e-5
-1.171, -1.150e-5
-1.170, -1.455e-5
-1.169, -1.414e-5
-1.168, -1.289e-5
-1.167, -1.671e-5
-1.166, -1.322e-5
-1.165, -1.636e-5
-1.164, -1.596e-5
-1.163, -1.484e-5
-1.162, -1.841e-5
-1.161, -1.505e-5
-1.160, -1.802e-5
-1.159, -1.735e-5
-1.158, -1.639e-5
-1.157, -1.982e-5
-1.156, -1.628e-5
-1.155, -1.963e-5
-1.154, -1.864e-5
-1.153, -1.776e-5
-1.152, -2.135e-5
-1.151, -1.777e-5
-1.150, -2.100e-5
-1.149, -1.995e-5
-1.148, -1.915e-5
-1.147, -2.260e-5
-1.146, -1.896e-5
-1.145, -2.229e-5
-1.144, -2.151e-5
-1.143, -2.024e-5
-1.142, -2.393e-5
-1.141, -2.002e-5
-1.140, -2.339e-5
-1.139, -2.277e-5
-1.138, -2.130e-5
-1.137, -2.531e-5
-1.136, -2.129e-5
-1.135, -2.456e-5
-1.134, -2.387e-5
-1.133, -2.253e-5
-1.132, -2.629e-5
-1.131, -2.257e-5
-1.130, -2.572e-5
-1.129, -2.496e-5
-1.128, -2.363e-5
-1.127, -2.732e-5
-1.126, -2.383e-5
-1.125, -2.701e-5
-1.124, -2.605e-5
-1.123, -2.510e-5
-1.122, -2.859e-5
-1.121, -2.489e-5
-1.120, -2.807e-5
-1.119, -2.727e-5
-1.118, -2.624e-5
-1.117, -2.973e-5
-1.116, -2.596e-5
-1.115, -2.922e-5
-1.114, -2.848e-5
-1.113, -2.732e-5
-1.112, -3.102e-5
-1.111, -2.719e-5
-1.110, -3.054e-5
-1.109, -2.967e-5
-1.108, -2.850e-5
-1.107, -3.241e-5
-1.106, -2.840e-5
-1.105, -3.190e-5
-1.104, -3.075e-5
-1.103, -2.975e-5
-1.102, -3.353e-5
-1.101, -2.962e-5
-1.100, -3.302e-5
-1.099, -3.225e-5
-1.098, -3.099e-5
-1.097, -3.479e-5
-1.096, -3.087e-5
-1.095, -3.442e-5
-1.094, -3.382e-5
-1.093, -3.246e-5
-1.092, -3.615e-5
-1.091, -3.220e-5
-1.090, -3.584e-5
-1.089, -3.507e-5
-1.088, -3.370e-5
-1.087, -3.769e-5
-1.086, -3.371e-5
-1.085, -3.732e-5
-1.084, -3.654e-5
-1.083, -3.555e-5
-1.082, -3.914e-5
-1.081, -3.539e-5
-1.080, -3.878e-5
-1.079, -3.799e-5
-1.078, -3.689e-5
-1.077, -4.080e-5
-1.076, -3.676e-5
-1.075, -4.074e-5
-1.074, -3.955e-5
-1.073, -3.851e-5
-1.072, -4.241e-5
-1.071, -3.833e-5
-1.070, -4.210e-5
-1.069, -4.110e-5
-1.068, -4.014e-5
-1.067, -4.414e-5
-1.066, -3.974e-5
-1.065, -4.394e-5
-1.064, -4.283e-5
-1.063, -4.178e-5
-1.062, -4.585e-5
-1.061, -4.340e-5
-1.060, -4.539e-5
-1.059, -4.445e-5
-1.058, -4.331e-5
-1.057, -4.768e-5
-1.056, -4.350e-5
-1.055, -4.747e-5
-1.054, -4.670e-5
-1.053, -4.554e-5
-1.052, -4.943e-5
-1.051, -4.537e-5
-1.050, -4.938e-5
-1.049, -4.840e-5
-1.048, -4.748e-5
-1.047, -5.158e-5
-1.046, -4.740e-5
-1.045, -5.142e-5
-1.044, -5.075e-5
-1.043, -4.983e-5
-1.042, -5.358e-5
-1.041, -4.959e-5
-1.040, -5.373e-5
-1.039, -5.281e-5
-1.038, -5.181e-5
-1.037, -5.606e-5
-1.036, -5.183e-5
-1.035, -5.597e-5
-1.034, -5.510e-5
-1.033, -5.436e-5
-1.032, -5.827e-5
-1.031, -5.406e-5
-1.030, -5.855e-5
-1.029, -5.729e-5
-1.028, -5.663e-5
-1.027, -6.081e-5
-1.026, -5.649e-5
-1.025, -6.096e-5
-1.024, -6.013e-5
-1.023, -5.923e-5
-1.022, -6.347e-5
-1.021, -5.911e-5
-1.020, -6.362e-5
-1.019, -6.258e-5
-1.018, -6.221e-5
-1.017, -6.633e-5
-1.016, -6.186e-5
-1.015, -6.671e-5
-1.014, -6.558e-5
-1.013, -6.451e-5
-1.012, -6.884e-5
-1.011, -6.510e-5
-1.010, -6.956e-5
-1.009, -6.879e-5
-1.008, -6.769e-5
-1.007, -7.220e-5
-1.006, -6.809e-5
-1.005, -7.290e-5
-1.004, -7.205e-5
-1.003, -7.143e-5
-1.002, -7.584e-5
-1.001, -7.172e-5
