Potential V vs RHE, Current mA cm-2
0.05339999999999995,-0.039527033718229125
0.05239999999999995,-0.041988631379994285
0.051399999999999946,-0.04314869464588362
0.050399999999999945,-0.04398337431280399
0.049399999999999944,-0.044676582849737856
0.04839999999999994,-0.045313202934677124
0.04739999999999994,-0.04592152879361909
0.04639999999999994,-0.0464874133135651
0.04539999999999994,-0.04708159205950842
0.04439999999999994,-0.047647476579454444
0.04339999999999994,-0.048170919760404496
0.04239999999999994,-0.04869436294135456
0.04139999999999994,-0.04923195323530328
0.040399999999999936,-0.04975539641625334
0.039399999999999935,-0.05027883959720341
0.038399999999999934,-0.05080228277815346
0.03739999999999993,-0.051297431733106226
0.03639999999999993,-0.05180672780105764
0.03539999999999993,-0.052316023869009055
0.03439999999999993,-0.05283946704995912
0.03339999999999993,-0.05330632177891458
0.03239999999999993,-0.05380147073386734
0.03139999999999993,-0.054324913914817405
0.030399999999999927,-0.054820062869770175
0.029399999999999926,-0.05531521182472293
0.028399999999999925,-0.055796213666677044
0.027399999999999924,-0.056291362621629815
0.026399999999999924,-0.05678651157658257
0.025399999999999923,-0.05730995475753263
0.024399999999999922,-0.05779095659948674
0.02339999999999992,-0.05825781132844222
0.02239999999999992,-0.058752960283394974
0.02139999999999992,-0.059233962125349086
0.020399999999999918,-0.0597432581933005
0.019399999999999917,-0.06022426003525461
0.018399999999999916,-0.060705261877208726
0.017399999999999916,-0.06120041083216149
0.016399999999999915,-0.06169555978711426
0.015399999999999914,-0.06223315008106296
0.014399999999999913,-0.06271415192301708
0.013399999999999912,-0.06322344799096849
0.012399999999999911,-0.06374689117191855
0.01139999999999991,-0.06427033435286862
0.01039999999999991,-0.06480792464681732
0.009399999999999908,-0.0653030736017701
0.008399999999999908,-0.06578407544372422
0.007399999999999907,-0.06630751862467427
0.006399999999999906,-0.06683096180562433
0.005399999999999905,-0.06734025787357575
0.004399999999999904,-0.0678637010545258
0.003399999999999903,-0.06834470289647993
0.002399999999999902,-0.06886814607742998
0.0013999999999999013,-0.06936329503238275
0.00039999999999990044,-0.06990088532633146
-0.0006000000000001005,-0.07042432850728152
-0.0016000000000001013,-0.07096191880123023
-0.0026000000000001022,-0.07148536198218029
-0.003600000000000103,-0.07200880516313038
-0.004600000000000104,-0.07253224834408044
-0.005600000000000105,-0.07306983863802914
-0.006600000000000106,-0.07357913470598056
-0.007600000000000107,-0.07407428366093333
-0.008600000000000108,-0.07462602106788069
-0.009600000000000108,-0.07514946424883075
-0.01060000000000011,-0.07567290742978082
-0.01160000000000011,-0.07619635061073088
-0.012600000000000111,-0.0767622351306769
-0.013600000000000112,-0.07725738408562965
-0.014600000000000113,-0.07785156283157296
-0.015600000000000114,-0.07834671178652573
-0.016600000000000115,-0.07888430208047445
-0.017600000000000116,-0.07939359814842585
-0.018600000000000116,-0.07993118844237457
-0.019600000000000117,-0.08048292584932194
-0.020600000000000118,-0.08099222191727334
-0.02160000000000012,-0.08151566509822342
-0.02260000000000012,-0.08205325539217213
-0.02360000000000012,-0.0826049927991195
-0.024600000000000122,-0.0831708773190655
-0.025600000000000123,-0.08363773204802097
-0.026600000000000124,-0.08416117522897103
-0.027600000000000124,-0.0846846184099211
-0.028600000000000125,-0.0851939144778725
-0.029600000000000126,-0.08577394611081718
-0.030600000000000127,-0.0862832421787686
-0.03160000000000013,-0.08679253824672
-0.03260000000000013,-0.08731598142767007
-0.03360000000000013,-0.08779698326962418
-0.03460000000000002,-0.08833457356357288
-0.03560000000000002,-0.08888631097052026
-0.03660000000000002,-0.08939560703847166
-0.03760000000000002,-0.08994734444541903
-0.03860000000000002,-0.09045664051337043
-0.039600000000000024,-0.09102252503331647
-0.040600000000000025,-0.09153182110126787
-0.041600000000000026,-0.09204111716921928
-0.04260000000000003,-0.09256456035016934
-0.04360000000000003,-0.09310215064411806
-0.04460000000000003,-0.09362559382506812
-0.04560000000000003,-0.09416318411901684
-0.04660000000000003,-0.0946300388479723
-0.04760000000000003,-0.09515348202892236
-0.04860000000000003,-0.09569107232287108
-0.04960000000000003,-0.0962286626168198
-0.050600000000000034,-0.09673795868477121
-0.051600000000000035,-0.09721896052672531
-0.052600000000000036,-0.09771410948167808
-0.053600000000000037,-0.09823755266262815
-0.05460000000000004,-0.09874684873057955
-0.05560000000000004,-0.09924199768553231
-0.05660000000000004,-0.09975129375348374
-0.05760000000000004,-0.1002464427084365
-0.05860000000000004,-0.10072744455039061
-0.05960000000000004,-0.10125088773134068
-0.06060000000000004,-0.10173188957329479
-0.061600000000000044,-0.1021845971892516
-0.06260000000000004,-0.10265145191820706
-0.06360000000000005,-0.10314660087315983
-0.06460000000000005,-0.10365589694111124
-0.06560000000000005,-0.10410860455706805
-0.06660000000000005,-0.10457545928602352
-0.06760000000000005,-0.10504231401497897
-0.06860000000000005,-0.10549502163093578
-0.06960000000000005,-0.10601846481188584
-0.07060000000000005,-0.10645702531484401
-0.07160000000000005,-0.10688143870480352
-0.07260000000000005,-0.10736244054675763
-0.07360000000000005,-0.10778685393671714
-0.07460000000000006,-0.10826785577867125
-0.07560000000000006,-0.10870641628162941
-0.07660000000000006,-0.10914497678458758
-0.07760000000000006,-0.1095976844005444
-0.07860000000000006,-0.11002209779050391
-0.07960000000000006,-0.11044651118046342
-0.08060000000000006,-0.11088507168342157
-0.08160000000000006,-0.11129533796038243
-0.08260000000000006,-0.11171975135034196
-0.08360000000000006,-0.1121300176273028
-0.08460000000000006,-0.11254028390426365
-0.08560000000000006,-0.11297884440722182
-0.08660000000000007,-0.11334666934518675
-0.08760000000000007,-0.11372864139615031
-0.08860000000000007,-0.11413890767311115
-0.08960000000000007,-0.11453502683707338
-0.09060000000000007,-0.11491699888803693
-0.09160000000000007,-0.11529897093900049
-0.09260000000000007,-0.11566679587696539
-0.09360000000000007,-0.11606291504092761
-0.09460000000000007,-0.11645903420488982
-0.09560000000000007,-0.11682685914285473
-0.09660000000000007,-0.11719468408081965
-0.09760000000000008,-0.11752006767978859
-0.09860000000000008,-0.11787374550475484
-0.09960000000000008,-0.11824157044271978
-0.10060000000000008,-0.11855280692869007
-0.10160000000000008,-0.11887819052765905
-0.10260000000000008,-0.11920357412662799
-0.10360000000000008,-0.11952895772559695
-0.10460000000000008,-0.11988263555056322
-0.10560000000000008,-0.12017972492353488
-0.10660000000000008,-0.12049096140950517
-0.10760000000000008,-0.12080219789547549
-0.10860000000000009,-0.12109928726844714
-0.10960000000000009,-0.1213963766414188
-0.11060000000000009,-0.1216510246753945
-0.11160000000000009,-0.12191981982236885
-0.11260000000000009,-0.12218861496934323
-0.11360000000000009,-0.12244326300331891
-0.11460000000000009,-0.12278279371528653
-0.11560000000000009,-0.1230515888622609
-0.11660000000000009,-0.12326379555724064
-0.1176000000000001,-0.12354673781721365
-0.1186000000000001,-0.12378723873819068
-0.1196000000000001,-0.12405603388516506
-0.1206000000000001,-0.12428238769314345
-0.1216000000000001,-0.12450874150112187
-0.1226000000000001,-0.12474924242209892
-0.1236000000000001,-0.1249614491170787
-0.1246000000000001,-0.12518780292505707
-0.1256000000000001,-0.12540000962003686
-0.1266000000000001,-0.12559806920201796
-0.1276000000000001,-0.12579612878399907
-0.1286000000000001,-0.12600833547897883
-0.1296000000000001,-0.12620639506095993
-0.1306000000000001,-0.1264186017559397
-0.1316000000000001,-0.1266166613379208
-0.1326000000000001,-0.12678642669390458
-0.1336000000000001,-0.1269561920498884
-0.1346000000000001,-0.1271542516318695
-0.1356000000000001,-0.12732401698785328
-0.1366000000000001,-0.12750792945683576
-0.1376000000000001,-0.1276352534738236
-0.1386000000000001,-0.12779087171680875
-0.1396000000000001,-0.1280030784117885
-0.1406000000000001,-0.12815869665477364
-0.14160000000000011,-0.1283001677847602
-0.14260000000000012,-0.1284416389147467
-0.14360000000000012,-0.12859725715773185
-0.14460000000000012,-0.128752875400717
-0.14560000000000012,-0.12886605230470619
-0.14660000000000012,-0.12900752343469268
-0.14760000000000012,-0.1291207003386819
-0.14860000000000012,-0.12924802435566976
-0.14960000000000012,-0.12940364259865492
-0.15060000000000012,-0.12953096661564276
-0.15160000000000012,-0.12964414351963197
-0.15260000000000012,-0.12974317331062254
-0.15360000000000013,-0.12984220310161304
-0.15460000000000013,-0.1299978213445982
-0.15560000000000013,-0.13011099824858743
-0.15660000000000013,-0.13021002803957799
-0.15760000000000013,-0.13032320494356717
-0.15860000000000013,-0.13045052896055503
-0.15960000000000002,-0.13056370586454422
-0.16060000000000002,-0.13064858854253616
-0.16160000000000002,-0.1307476183335267
-0.16260000000000002,-0.13081835389851995
-0.16360000000000002,-0.13091738368951047
-0.16460000000000002,-0.13105885481949697
-0.16560000000000002,-0.1312003259494835
-0.16660000000000003,-0.13134179707947
-0.16760000000000003,-0.13135594419246865
-0.16860000000000003,-0.13146912109645786
-0.16960000000000003,-0.13156815088744844
-0.17060000000000003,-0.131624739339443
-0.17160000000000003,-0.1316813277914376
-0.17260000000000003,-0.13175206335643086
-0.17360000000000003,-0.13185109314742144
-0.17460000000000003,-0.13196427005141062
-0.17560000000000003,-0.13200671139040657
-0.17660000000000003,-0.1320915940683985
-0.17760000000000004,-0.13216232963339172
-0.17860000000000004,-0.13224721231138362
-0.17960000000000004,-0.1323462421023742
-0.18060000000000004,-0.13241697766736746
-0.18160000000000004,-0.1324877132323607
-0.18260000000000004,-0.13253015457135664
-0.18360000000000004,-0.13261503724934853
-0.18460000000000004,-0.1327140670403391
-0.18560000000000004,-0.13277065549233372
-0.18660000000000004,-0.13282724394432827
-0.18760000000000004,-0.13289797950932153
-0.18860000000000005,-0.13296871507431476
-0.18960000000000005,-0.1330535977523067
-0.19060000000000005,-0.1331384804302986
-0.19160000000000005,-0.1332233631082905
-0.19260000000000005,-0.13329409867328376
-0.19360000000000005,-0.13337898135127566
-0.19460000000000005,-0.1334921582552649
-0.19560000000000005,-0.1335911880462554
-0.19660000000000005,-0.13364777649825
-0.19760000000000005,-0.13370436495024463
-0.19860000000000005,-0.13378924762823652
-0.19960000000000006,-0.13391657164522439
-0.20060000000000006,-0.133973160097219
-0.20160000000000006,-0.13404389566221223
-0.20260000000000006,-0.1341146312272055
-0.20360000000000006,-0.13424195524419333
-0.20460000000000006,-0.13432683792218525
-0.20560000000000006,-0.1343975734871785
-0.20660000000000006,-0.13441172060017711
-0.20760000000000006,-0.13456733884316227
-0.20860000000000006,-0.13473710419914608
-0.20960000000000006,-0.1348502811031353
-0.21060000000000006,-0.13492101666812856
-0.21160000000000007,-0.13493516378112722
-0.21260000000000007,-0.13500589934612045
-0.21360000000000007,-0.13511907625010966
-0.21460000000000007,-0.1352746944930948
-0.21560000000000007,-0.13540201851008268
-0.21660000000000007,-0.13547275407507592
-0.21760000000000007,-0.13552934252707052
-0.21860000000000007,-0.13565666654405836
-0.21960000000000007,-0.13576984344804757
-0.22060000000000007,-0.13585472612603947
-0.22160000000000007,-0.13593960880403136
-0.22260000000000008,-0.13605278570802057
-0.22360000000000008,-0.13609522704701651
-0.22460000000000008,-0.13622255106400438
-0.22560000000000008,-0.13629328662899765
-0.22660000000000008,-0.1363923164199882
-0.22760000000000008,-0.13651964043697606
-0.22860000000000008,-0.13666111156696256
-0.22960000000000008,-0.1369016124879396
-0.23060000000000008,-0.13714211340891666
-0.23160000000000008,-0.13742505566888966
-0.23260000000000008,-0.1375523796858775
-0.23360000000000009,-0.13750993834688158
-0.2346000000000001,-0.1375806739118748
-0.2356000000000001,-0.13769385081586402
-0.2366000000000001,-0.13773629215485997
-0.2376000000000001,-0.13784946905884918
-0.2386000000000001,-0.1379626459628384
-0.2396000000000001,-0.13816070554481946
-0.2406000000000001,-0.1382738824488087
-0.2416000000000001,-0.1383587651268006
-0.2426000000000001,-0.138542677595783
-0.2436000000000001,-0.13876903140376146
-0.2446000000000001,-0.13893879675974524
-0.2456000000000001,-0.13908026788973174
-0.2466000000000001,-0.1392358861327169
-0.2476000000000001,-0.13939150437570205
-0.2486000000000001,-0.13956126973168587
-0.2496000000000001,-0.13973103508766968
-0.2506000000000001,-0.13987250621765618
-0.2516000000000001,-0.14002812446064133
-0.2526000000000001,-0.1402261840426224
-0.2536000000000001,-0.1404100965116049
-0.2546000000000001,-0.14059400898058735
-0.2556000000000001,-0.14076377433657114
-0.2566000000000001,-0.1409759810315509
-0.2576000000000001,-0.14111745216153743
-0.2586000000000001,-0.14127307040452258
-0.2596000000000001,-0.14147112998650369
-0.2606000000000001,-0.14161260111649018
-0.2616000000000001,-0.14189554337646318
-0.2626000000000001,-0.1420370145064497
-0.2636000000000001,-0.1421784856364362
-0.2646000000000001,-0.1424614278964092
-0.2656000000000001,-0.1426028990263957
-0.2666000000000001,-0.1427443701563822
-0.2676000000000001,-0.14316878354634172
-0.2686000000000001,-0.1433102546763282
-0.2696000000000001,-0.1435931969363012
-0.2706000000000001,-0.1437346680662877
-0.2716000000000001,-0.14387613919627423
-0.2726000000000001,-0.14415908145624726
-0.2736000000000001,-0.14430055258623375
-0.2746000000000001,-0.14458349484620675
-0.2756000000000001,-0.14486643710617977
-0.2766000000000001,-0.14500790823616627
-0.2776000000000001,-0.14529085049613927
-0.2786000000000001,-0.14557379275611226
-0.2796000000000001,-0.1458567350160853
-0.2806000000000001,-0.14599820614607179
-0.28160000000000013,-0.14628114840604478
-0.28260000000000013,-0.1465640906660178
-0.28360000000000013,-0.1467055617960043
-0.2846,-0.14698850405597733
-0.2856,-0.14727144631595032
-0.2866,-0.14755438857592332
-0.2876,-0.14783733083589634
-0.2886,-0.14812027309586934
-0.2896,-0.14840321535584233
-0.2906,-0.14868615761581536
-0.2916,-0.14896909987578838
-0.2926,-0.14925204213576138
-0.2936,-0.14953498439573437
-0.29460000000000003,-0.1499593977856939
-0.29560000000000003,-0.1502423400456669
-0.29660000000000003,-0.15052528230563988
-0.29760000000000003,-0.1508082245656129
-0.29860000000000003,-0.1510911668255859
-0.29960000000000003,-0.1513741090855589
-0.30060000000000003,-0.15165705134553195
-0.30160000000000003,-0.15193999360550495
-0.30260000000000004,-0.15236440699546444
-0.30360000000000004,-0.15264734925543746
-0.30460000000000004,-0.15293029151541046
-0.30560000000000004,-0.15335470490536995
-0.30660000000000004,-0.15363764716534298
-0.30760000000000004,-0.1540620605553025
-0.30860000000000004,-0.1543450028152755
-0.30960000000000004,-0.15476941620523502
-0.31060000000000004,-0.155052358465208
-0.31160000000000004,-0.15547677185516753
-0.31260000000000004,-0.15575971411514053
-0.31360000000000005,-0.15618412750510002
-0.31460000000000005,-0.15646706976507307
-0.31560000000000005,-0.15689148315503257
-0.31660000000000005,-0.15717442541500556
-0.31760000000000005,-0.15759883880496509
-0.31860000000000005,-0.15802325219492458
-0.31960000000000005,-0.1584476655848841
-0.32060000000000005,-0.1588720789748436
-0.32160000000000005,-0.15915502123481662
-0.32260000000000005,-0.15957943462477614
-0.32360000000000005,-0.16000384801473563
-0.32460000000000006,-0.16042826140469515
-0.32560000000000006,-0.16085267479465465
-0.32660000000000006,-0.16127708818461417
-0.32760000000000006,-0.1618429727045602
-0.32860000000000006,-0.1622673860945197
-0.32960000000000006,-0.1626917994844792
-0.33060000000000006,-0.16311621287443873
-0.33160000000000006,-0.16354062626439822
-0.33260000000000006,-0.16396503965435774
-0.33360000000000006,-0.16453092417430376
-0.33460000000000006,-0.16495533756426325
-0.33560000000000006,-0.16537975095422278
-0.33660000000000007,-0.1659456354741688
-0.33760000000000007,-0.16637004886412832
-0.33860000000000007,-0.1667944622540878
-0.33960000000000007,-0.16736034677403386
-0.34060000000000007,-0.16778476016399335
-0.34160000000000007,-0.16835064468393937
-0.34260000000000007,-0.16877505807389886
-0.34360000000000007,-0.1693409425938449
-0.3446000000000001,-0.16990682711379093
-0.3456000000000001,-0.17033124050375043
-0.3466000000000001,-0.17075565389370992
-0.34759999999999996,-0.17132153841365594
-0.3486000000000001,-0.17188742293360199
-0.34959999999999997,-0.17245330745354798
-0.3506000000000001,-0.173019191973494
-0.35159999999999997,-0.1737265476234265
-0.3526000000000001,-0.17429243214337253
-0.35359999999999997,-0.17499978779330505
-0.3546000000000001,-0.17542420118326454
-0.35559999999999997,-0.17599008570321056
-0.3566000000000001,-0.1766974413531431
-0.3576,-0.1774047970030756
-0.3586000000000001,-0.17797068152302162
-0.3596,-0.17867803717295414
-0.3606000000000001,-0.17938539282288665
-0.3616,-0.17995127734283267
-0.3626000000000001,-0.1805171618627787
-0.3636,-0.18122451751271118
-0.3646000000000001,-0.18207334429263022
-0.3656,-0.18278069994256274
-0.3666000000000001,-0.18348805559249526
-0.3676,-0.18405394011244128
-0.3686000000000001,-0.1847612957623738
-0.3696,-0.1854686514123063
-0.3706000000000001,-0.18631747819222533
-0.3716,-0.18702483384215784
-0.3726000000000001,-0.18787366062207686
-0.3736,-0.18872248740199588
-0.3746000000000001,-0.18957131418191492
-0.3756,-0.19027866983184744
-0.3766000000000001,-0.19112749661176645
-0.3776,-0.1919763233916855
-0.3786000000000001,-0.19282515017160448
-0.3796,-0.193532505821537
-0.3806000000000001,-0.19423986147146954
-0.3816,-0.19508868825138856
-0.3826000000000001,-0.19579604390132105
-0.3836,-0.1966448706812401
-0.3846000000000001,-0.1974936974611591
-0.3856,-0.19834252424107812
-0.3866000000000001,-0.19919135102099716
-0.3876,-0.20004017780091618
-0.3886000000000001,-0.2008890045808352
-0.3896,-0.20173783136075424
-0.3906000000000001,-0.20258665814067325
-0.3916,-0.20343548492059227
-0.3926000000000001,-0.2044257828304978
-0.3936,-0.20527460961041682
-0.3946000000000001,-0.20612343639033584
-0.3956,-0.20697226317025488
-0.3966000000000001,-0.2079625610801604
-0.3976,-0.2088113878600794
-0.3986000000000001,-0.20966021463999845
-0.3996,-0.21065051254990397
-0.4006000000000001,-0.21149933932982298
-0.4016,-0.21234816610974203
-0.4026000000000001,-0.21333846401964754
-0.4036,-0.21432876192955308
-0.4046000000000001,-0.2153190598394586
-0.4056,-0.21630935774936413
-0.40660000000000013,-0.21729965565926962
-0.4076,-0.21828995356917516
-0.40860000000000013,-0.2192802514790807
-0.4096,-0.2202705493889862
-0.41060000000000013,-0.22140231842887825
-0.4116,-0.22253408746877026
-0.41260000000000013,-0.22338291424868928
-0.4136,-0.22437321215859482
-0.41460000000000014,-0.22550498119848683
-0.4156,-0.22649527910839237
-0.41660000000000014,-0.2276270481482844
-0.4176,-0.22875881718817642
-0.41860000000000014,-0.22989058622806843
-0.41960000000000003,-0.2310223552679605
-0.42060000000000014,-0.2321541243078525
-0.42160000000000003,-0.23328589334774452
-0.42260000000000014,-0.23441766238763656
-0.42360000000000003,-0.23554943142752863
-0.42460000000000014,-0.23668120046742064
-0.42560000000000003,-0.23781296950731265
-0.42660000000000015,-0.2389447385472047
-0.42760000000000004,-0.24007650758709673
-0.42860000000000015,-0.24134974775697526
-0.42960000000000004,-0.2426229879268538
-0.43060000000000015,-0.24389622809673234
-0.43160000000000004,-0.24516946826661082
-0.43260000000000015,-0.24644270843648935
-0.43360000000000004,-0.2477159486063679
-0.43460000000000015,-0.24884771764625993
-0.43560000000000004,-0.25026242894612494
-0.43660000000000015,-0.2515356691160035
-0.43760000000000004,-0.25295038041586854
