Potential V vs RHE, Current mA cm-2
0.4132999999999999,-0.016948241372383138
0.4122999999999999,-0.018546865141230634
0.4112999999999999,-0.01897127853119014
0.4102999999999999,-0.019211779452167198
0.4092999999999999,-0.019381544808151
0.4082999999999999,-0.019537163051136158
0.4072999999999999,-0.01969278129412131
0.4062999999999999,-0.019791811085111865
0.4052999999999999,-0.019919135102099715
0.4042999999999999,-0.02003231200608892
0.4032999999999999,-0.02011719468408082
0.4022999999999999,-0.020244518701068675
0.4012999999999999,-0.02032940137906058
0.4002999999999999,-0.02042843117005113
0.3992999999999999,-0.02052746096104168
0.3982999999999999,-0.020654784978029535
0.3972999999999999,-0.02073966765602144
0.3962999999999999,-0.02079625610801604
0.3952999999999999,-0.020895285899006594
0.3942999999999999,-0.020966021463999843
0.39329999999999987,-0.021036757028993096
0.39229999999999987,-0.021135786819983647
0.39129999999999987,-0.0212065223849769
0.39029999999999987,-0.021277257949970152
0.38929999999999987,-0.021376287740960703
0.38829999999999987,-0.021461170418952607
0.38729999999999987,-0.021546053096944507
0.38629999999999987,-0.021645082887935062
0.38529999999999986,-0.021758259791924264
0.38429999999999986,-0.02185728958291482
0.38329999999999986,-0.02199876071290132
0.38229999999999986,-0.02205534916489592
0.38129999999999986,-0.02208364339089322
0.38029999999999986,-0.022168526068885124
0.37929999999999986,-0.022210967407881078
0.37829999999999986,-0.02226755585987568
0.37729999999999986,-0.02235243853786758
0.37629999999999986,-0.02242317410286083
0.37529999999999986,-0.022522203893851383
0.37429999999999986,-0.022592939458844635
0.37329999999999985,-0.02267782213683654
0.37229999999999985,-0.02272026347583249
0.37129999999999985,-0.02276270481482844
0.37029999999999985,-0.022833440379821688
0.36929999999999985,-0.022918323057813595
0.36829999999999985,-0.022974911509808196
0.36729999999999985,-0.0230597941878001
0.36629999999999985,-0.023144676865792004
0.36529999999999985,-0.023215412430785252
0.36429999999999985,-0.023257853769781203
0.36329999999999985,-0.023300295108777156
0.36229999999999984,-0.023356883560771757
0.36129999999999984,-0.023441766238763657
0.36029999999999984,-0.023498354690758262
0.35929999999999984,-0.02359738448174881
0.35829999999999984,-0.02365397293374341
0.35729999999999984,-0.02373885561173532
0.35629999999999984,-0.023809591176728567
0.35529999999999984,-0.02385203251572452
0.35429999999999984,-0.02392276808071777
0.35329999999999984,-0.02400765075870967
0.35229999999999984,-0.024064239210704275
0.35129999999999983,-0.024120827662698876
0.35029999999999983,-0.02417741611469348
0.34929999999999983,-0.02426229879268538
0.34829999999999983,-0.02434718147067728
0.34729999999999983,-0.024432064148669184
0.34629999999999983,-0.024502799713662437
0.34529999999999983,-0.02457353527865569
0.34429999999999983,-0.024601829504652988
0.3432999999999998,-0.02467256506964624
0.3422999999999998,-0.024729153521640842
0.3412999999999998,-0.02475744774763814
0.3402999999999998,-0.024856477538628696
0.3392999999999998,-0.024898918877624646
0.3382999999999998,-0.024983801555616546
0.3372999999999998,-0.025040390007611147
0.3362999999999998,-0.0250828313466071
0.3352999999999998,-0.02515356691160035
0.3342999999999998,-0.025210155363594954
0.3332999999999998,-0.025266743815589552
0.3322999999999998,-0.02535162649358146
0.3312999999999998,-0.02537992071957876
0.3302999999999998,-0.02546480339757066
0.3292999999999998,-0.025507244736566608
0.3282999999999998,-0.025577980301559864
0.3272999999999998,-0.025691157205549067
0.3262999999999998,-0.025747745657543668
0.3252999999999999,-0.02580433410953827
0.3242999999999999,-0.025846775448534223
0.3232999999999999,-0.025889216787530173
0.3222999999999999,-0.025959952352523425
0.3212999999999999,-0.02600239369151937
0.3202999999999999,-0.026073129256512624
0.3192999999999999,-0.02614386482150588
0.3182999999999999,-0.02624289461249643
0.3172999999999999,-0.026313630177489684
0.3162999999999999,-0.026356071516485634
0.3152999999999999,-0.026412659968480235
0.3142999999999999,-0.026440954194477534
0.3132999999999999,-0.026483395533473487
0.3122999999999999,-0.026539983985468085
0.3112999999999999,-0.02659657243746269
0.3102999999999999,-0.026667308002455942
0.3092999999999999,-0.026723896454450544
0.3082999999999999,-0.026794632019443793
0.3072999999999999,-0.02682292624544109
0.3062999999999999,-0.026893661810434347
0.3052999999999999,-0.02695025026242895
0.3042999999999999,-0.026992691601424906
0.3032999999999999,-0.027049280053419503
0.3022999999999999,-0.027120015618412752
0.3012999999999999,-0.027162456957408702
0.3002999999999999,-0.027247339635400606
0.2992999999999999,-0.027261486748399254
0.2982999999999999,-0.02734636942639116
0.2972999999999999,-0.02740295787838576
0.2962999999999999,-0.027445399217381712
0.2952999999999999,-0.027516134782374965
0.2942999999999999,-0.02755857612137091
0.2932999999999999,-0.02762931168636417
0.2922999999999999,-0.02770004725135742
0.2912999999999999,-0.02772834147735472
0.2902999999999999,-0.027784929929349323
0.2892999999999999,-0.027855665494342572
0.2882999999999999,-0.027898106833338522
0.2872999999999999,-0.02796884239833177
0.2862999999999999,-0.027982989511330426
0.2852999999999999,-0.028053725076323675
0.2842999999999999,-0.028124460641316927
0.2832999999999999,-0.028166901980312884
0.2822999999999999,-0.028265931771303435
0.2812999999999999,-0.028322520223298033
0.2802999999999999,-0.028407402901289937
0.2792999999999999,-0.028449844240285887
0.2782999999999999,-0.02850643269228049
0.2772999999999999,-0.02854887403127644
0.2762999999999999,-0.028591315370272388
0.2752999999999999,-0.028633756709268345
0.2742999999999999,-0.028732786500258897
0.2732999999999999,-0.028817669178250797
0.2722999999999999,-0.028874257630245398
0.2712999999999999,-0.02893084608224
0.2702999999999999,-0.028973287421235953
0.2692999999999999,-0.029015728760231903
0.26829999999999987,-0.029058170099227856
0.26729999999999987,-0.029114758551222454
0.26629999999999987,-0.029157199890218404
0.26529999999999987,-0.02922793545521166
0.26429999999999987,-0.029284523907206258
0.26329999999999987,-0.029369406585198165
0.26229999999999987,-0.02941184792419411
0.26129999999999987,-0.02945428926319007
0.26029999999999986,-0.029525024828183317
0.25929999999999986,-0.029581613280177915
0.25829999999999986,-0.029638201732172516
0.25729999999999986,-0.02970893729716577
0.25629999999999986,-0.029751378636161722
0.25529999999999986,-0.02982211420115497
0.25429999999999986,-0.02986455554015093
0.25329999999999986,-0.029935291105144177
0.25229999999999986,-0.03000602667013743
0.25129999999999986,-0.030034320896134725
0.25029999999999986,-0.030175792026121234
0.24929999999999986,-0.03018993913911988
0.24829999999999985,-0.030232380478115835
0.24729999999999985,-0.030303116043109087
0.24629999999999985,-0.030359704495103685
0.24529999999999985,-0.030430440060096934
0.24429999999999985,-0.030487028512091542
0.24329999999999985,-0.030529469851087492
0.24229999999999985,-0.030600205416080745
0.24129999999999985,-0.03065679386807535
0.24029999999999985,-0.030713382320069947
0.23929999999999985,-0.030784117885063196
0.23829999999999985,-0.030812412111060502
0.23729999999999984,-0.030897294789052406
0.23629999999999984,-0.030939736128048352
0.23529999999999984,-0.03099632458004295
0.23429999999999984,-0.03103876591903891
0.23329999999999984,-0.031095354371033508
0.23229999999999984,-0.031151942823028106
0.23129999999999984,-0.031222678388021355
0.23029999999999984,-0.03127926684001596
0.22929999999999984,-0.031350002405009215
0.22829999999999984,-0.031434885083001116
0.22729999999999984,-0.031505620647994365
0.22629999999999983,-0.03157635621298762
0.22529999999999983,-0.03161879755198357
0.22429999999999983,-0.03164709177798087
0.22329999999999983,-0.03170368022997547
0.22229999999999983,-0.031788562907967374
0.22129999999999983,-0.03181685713396468
0.22029999999999983,-0.03193003403795388
0.21929999999999983,-0.03198662248994848
0.21829999999999983,-0.032071505167940384
0.21729999999999983,-0.03212809361993498
0.21629999999999983,-0.032184682071929586
0.21529999999999982,-0.032255417636922835
0.21429999999999982,-0.03229785897591879
0.21329999999999982,-0.03236859454091204
0.21229999999999982,-0.03243933010590529
0.21129999999999982,-0.03248177144490124
0.21029999999999982,-0.03258080123589179
0.20929999999999982,-0.032637389687886396
0.20829999999999982,-0.032693978139880994
0.20729999999999982,-0.0327788608178729
0.20629999999999982,-0.0328354492698675
0.20529999999999982,-0.0329203319478594
0.20429999999999982,-0.032991067512852655
0.20329999999999981,-0.033090097303843206
0.2022999999999998,-0.033174979981835113
0.2012999999999998,-0.03325986265982701
0.20029999999999992,-0.03333059822482026
0.19929999999999992,-0.03341548090281216
0.19829999999999992,-0.03350036358080407
0.19729999999999992,-0.03359939337179463
0.19629999999999992,-0.033698423162785165
0.19529999999999992,-0.03378330584077707
0.19429999999999992,-0.033967218309759524
0.19329999999999992,-0.03408039521374873
0.19229999999999992,-0.03416527789174064
0.19129999999999991,-0.03429260190872849
0.1902999999999999,-0.03444822015171364
0.1892999999999999,-0.0346038383946988
0.1882999999999999,-0.03480189797667991
0.1872999999999999,-0.034999957558661005
0.1862999999999999,-0.03521216425364076
0.1852999999999999,-0.03548095940061512
0.1842999999999999,-0.03579219588658543
0.1832999999999999,-0.036160020824550346
0.1822999999999999,-0.03655613998851255
0.1812999999999999,-0.03702299471746801
0.1802999999999999,-0.03753229078541943
0.1792999999999999,-0.03806988107936814
0.1782999999999999,-0.03866405982531145
0.1772999999999999,-0.039328974136248016
0.1762999999999999,-0.04002218267318189
0.1752999999999999,-0.040814421001106306
0.1742999999999999,-0.04167739489402397
0.1732999999999999,-0.04259695723893625
0.1722999999999999,-0.04357310803584313
0.1712999999999999,-0.04453511171975136
0.1702999999999999,-0.04558199808165148
0.1692999999999999,-0.046614737330552956
0.1682999999999999,-0.04771821214444769
0.1672999999999999,-0.048807539845343764
0.1662999999999999,-0.0498827204332412
0.1652999999999999,-0.05097204813413727
0.1642999999999999,-0.0521038171740293
0.1632999999999999,-0.053150703535929426
0.1622999999999999,-0.054254178349824156
0.1612999999999999,-0.05528691759872562
0.1602999999999999,-0.05626306839563251
0.1592999999999999,-0.05723921919253938
0.15829999999999989,-0.058144634424453
0.15729999999999988,-0.05902175543036933
0.15629999999999988,-0.0598281408712924
0.15529999999999988,-0.06063452631221547
0.15429999999999988,-0.061412617527141236
0.15329999999999988,-0.06216241451606971
0.15229999999999988,-0.06285562305300357
0.15129999999999988,-0.06352053736394014
0.15029999999999988,-0.06417130456187807
0.14929999999999988,-0.06477963042082002
0.14829999999999988,-0.06534551494076604
0.14729999999999988,-0.06585481100871747
0.14629999999999987,-0.06636410707666887
0.14529999999999987,-0.0668168146926257
0.14429999999999987,-0.0672412280825852
0.14329999999999987,-0.0676656414725447
0.14229999999999987,-0.06807590774950557
0.14129999999999987,-0.06842958557447182
0.14029999999999987,-0.06879741051243674
0.13929999999999987,-0.06910864699840705
0.13829999999999987,-0.069434030597376
0.13729999999999987,-0.06971697285734901
0.13629999999999987,-0.06995747377832606
0.13529999999999986,-0.07019797469930313
0.13429999999999986,-0.07043847562028017
0.13329999999999986,-0.07073556499325184
0.13229999999999986,-0.07100436014022618
0.13129999999999986,-0.0712307139482046
0.13029999999999986,-0.07145706775618299
0.12929999999999986,-0.0715985388861695
0.12829999999999986,-0.07174001001615601
0.12729999999999986,-0.07190977537213981
0.12629999999999986,-0.07206539361512497
0.12529999999999986,-0.07222101185811013
0.12429999999999986,-0.07240492432709257
0.12329999999999985,-0.07253224834408044
0.12229999999999985,-0.07268786658706558
0.12129999999999985,-0.07281519060405345
0.12029999999999985,-0.072914220395044
0.11929999999999985,-0.0730273972990332
0.11829999999999985,-0.07312642709002375
0.11729999999999985,-0.0732537511070116
0.11629999999999985,-0.07338107512399945
0.11529999999999985,-0.07348010491499
0.11429999999999985,-0.07360742893197786
0.11329999999999985,-0.07370645872296841
0.11229999999999984,-0.07377719428796166
0.11129999999999984,-0.07386207696595355
0.11029999999999984,-0.0739328125309468
0.10929999999999984,-0.07398940098294142
0.10829999999999984,-0.07407428366093333
0.10729999999999984,-0.07411672499992927
0.10629999999999984,-0.07415916633892522
0.10529999999999984,-0.07422990190391847
0.10429999999999984,-0.07428649035591307
0.10329999999999984,-0.07434307880790768
0.10229999999999984,-0.07441381437290093
0.10129999999999983,-0.07448454993789419
0.10029999999999983,-0.07456943261588608
0.09929999999999983,-0.07459772684188339
0.09829999999999983,-0.07464016818087933
0.09729999999999983,-0.07465431529387798
0.09629999999999983,-0.07466846240687663
0.09529999999999983,-0.07471090374587258
0.09429999999999983,-0.07475334508486854
0.09329999999999983,-0.07476749219786719
0.09229999999999983,-0.07482408064986179
0.09129999999999983,-0.07480993353686313
0.09029999999999982,-0.07482408064986179
0.08929999999999982,-0.07480993353686313
0.08829999999999982,-0.07483822776286045
0.08729999999999982,-0.0749089633278537
0.08629999999999982,-0.07495140466684964
0.08529999999999982,-0.07500799311884425
0.08429999999999982,-0.07506458157083885
0.08329999999999982,-0.0750504344578402
0.08229999999999982,-0.0750787286838375
0.08129999999999982,-0.07503628734484155
0.08029999999999982,-0.0750221402318429
0.07929999999999982,-0.07503628734484155
0.07829999999999981,-0.0750504344578402
0.07729999999999981,-0.0750787286838375
0.07629999999999981,-0.0750787286838375
0.07529999999999992,-0.0750504344578402
0.07429999999999992,-0.07506458157083885
0.07329999999999992,-0.0750504344578402
0.07229999999999992,-0.07506458157083885
0.07129999999999992,-0.0750787286838375
0.07029999999999992,-0.0750787286838375
0.06929999999999992,-0.0750787286838375
0.06829999999999992,-0.07506458157083885
0.06729999999999992,-0.07503628734484155
0.06629999999999991,-0.0750504344578402
0.06529999999999991,-0.07509287579683614
0.06429999999999991,-0.0751070229098348
0.06329999999999991,-0.0751353171358321
0.06229999999999991,-0.0751070229098348
0.06129999999999991,-0.07509287579683614
0.06029999999999991,-0.0751353171358321
0.05929999999999991,-0.07516361136182939
0.05829999999999991,-0.0751919055878267
0.05729999999999991,-0.07522019981382401
0.056299999999999906,-0.07516361136182939
0.055299999999999905,-0.07514946424883075
0.054299999999999904,-0.07509287579683614
0.0532999999999999,-0.07516361136182939
0.0522999999999999,-0.07523434692682264
0.0512999999999999,-0.07529093537881726
0.0502999999999999,-0.0753333767178132
0.0492999999999999,-0.07543240650880376
0.0482999999999999,-0.0754465536218024
0.0472999999999999,-0.07548899496079836
0.0462999999999999,-0.07540411228280645
0.045299999999999896,-0.07536167094381051
0.044299999999999895,-0.07530508249181589
0.043299999999999894,-0.0752767882658186
0.04229999999999989,-0.0752767882658186
0.04129999999999989,-0.07534752383081185
0.04029999999999989,-0.07546070073480106
0.03929999999999989,-0.07551728918679566
0.03829999999999989,-0.07557387763879025
0.03729999999999989,-0.0756446132037835
0.03629999999999989,-0.07570120165577811
0.03529999999999989,-0.07572949588177541
0.034299999999999886,-0.07577193722077137
0.033299999999999885,-0.07575779010777271
0.032299999999999884,-0.07570120165577811
0.031299999999999883,-0.07565876031678216
0.030299999999999883,-0.0756163189777862
0.02929999999999988,-0.0756163189777862
0.02829999999999988,-0.07565876031678216
0.02729999999999988,-0.07568705454277945
0.02629999999999988,-0.07574364299477407
0.025299999999999878,-0.07580023144676866
0.024299999999999877,-0.07585681989876326
0.023299999999999876,-0.07591340835075787
0.022299999999999875,-0.07594170257675517
0.021299999999999875,-0.07589926123775922
0.020299999999999874,-0.07582852567276598
0.019299999999999873,-0.07578608433377002
0.018299999999999872,-0.07580023144676866
0.01729999999999987,-0.07592755546375651
0.01629999999999987,-0.07611146793273897
0.01529999999999987,-0.07625293906272547
0.014299999999999868,-0.07626708617572413
0.013299999999999867,-0.07621049772372954
0.012299999999999978,-0.07616805638473358
0.011299999999999866,-0.07611146793273897
0.010299999999999976,-0.07615390927173492
0.009299999999999864,-0.07623879194972684
0.008299999999999974,-0.07630952751472009
0.007299999999999862,-0.07630952751472009
0.006299999999999972,-0.07625293906272547
0.00529999999999986,-0.07621049772372954
0.0042999999999999705,-0.07619635061073088
0.0032999999999998586,-0.07618220349773222
0.0022999999999999687,-0.07621049772372954
0.0012999999999998568,-0.07622464483672817
0.00029999999999996696,-0.07632367462771873
-0.000700000000000145,-0.07639441019271198
-0.0017000000000000348,-0.07636611596671468
-0.0027000000000001467,-0.07640855730571063
-0.0037000000000000366,-0.07647929287070389
-0.0047000000000001485,-0.07655002843569715
-0.005700000000000038,-0.0765924697746931
-0.00670000000000015,-0.07656417554869578
-0.00770000000000004,-0.07649343998370253
-0.008700000000000152,-0.07640855730571063
-0.009700000000000042,-0.07632367462771873
-0.010700000000000154,-0.07630952751472009
-0.011700000000000044,-0.07629538040172142
-0.012700000000000156,-0.07626708617572413
-0.013700000000000045,-0.07630952751472009
-0.014700000000000157,-0.07633782174071738
-0.015700000000000047,-0.07638026307971334
-0.01670000000000016,-0.07646514575770523
-0.01770000000000005,-0.07650758709670118
-0.01870000000000016,-0.07657832266169443
-0.01970000000000005,-0.07664905822668767
-0.020700000000000163,-0.0767339409046796
-0.021700000000000053,-0.07683297069567015
-0.022700000000000164,-0.07694614759965934
-0.023700000000000054,-0.07701688316465259
-0.024700000000000166,-0.07705932450364854
-0.025700000000000056,-0.07708761872964585
-0.026700000000000168,-0.07724323697263101
-0.027700000000000058,-0.07751203211960536
-0.02870000000000017,-0.07756862057159995
-0.02970000000000006,-0.07746959078060942
-0.03070000000000017,-0.0772998254246256
-0.03170000000000006,-0.07708761872964585
-0.03270000000000017,-0.07696029471265799
-0.03370000000000006,-0.07684711780866879
-0.034700000000000175,-0.07686126492166745
-0.035700000000000065,-0.07696029471265799
-0.03670000000000018,-0.0771300600686418
-0.03770000000000007,-0.0773281196506229
-0.03870000000000018,-0.0774978850066067
-0.03970000000000007,-0.077526179232604
-0.04070000000000018,-0.07737056098961885
-0.04170000000000007,-0.0771866485206364
-0.04270000000000018,-0.07708761872964585
-0.04370000000000007,-0.07704517739064991
-0.044700000000000184,-0.0770734716166472
-0.045700000000000074,-0.07724323697263101
-0.046700000000000186,-0.07748373789360806
-0.047700000000000076,-0.0776393561365932
-0.04870000000000019,-0.0776393561365932
-0.04970000000000008,-0.07748373789360806
-0.05070000000000019,-0.0773281196506229
-0.05170000000000008,-0.0772149427466337
-0.05270000000000019,-0.07720079563363505
-0.05370000000000008,-0.07728567831162694
-0.05470000000000019,-0.07739885521561615
-0.05570000000000008,-0.0774978850066067
-0.056700000000000195,-0.07751203211960536
-0.057700000000000085,-0.07742714944161345
-0.058700000000000196,-0.07737056098961885
-0.059700000000000086,-0.07738470810261751
-0.0607000000000002,-0.07741300232861481
-0.06170000000000009,-0.0774978850066067
-0.0627000000000002,-0.07761106191059591
-0.06370000000000009,-0.07761106191059591
-0.0647000000000002,-0.07762520902359457
-0.06570000000000009,-0.0776393561365932
-0.0667000000000002,-0.0776393561365932
-0.0677000000000001,-0.07773838592758377
-0.0687000000000002,-0.07780912149257702
-0.0697000000000001,-0.07789400417056892
-0.07070000000000021,-0.07797888684856082
