Potential V vs RHE, Current mA cm-2
0.05339999999999995,8.993319733242037
0.05239999999999995,8.861751582354591
0.051399999999999946,8.693400937670651
0.050399999999999945,8.537782694685495
0.049399999999999944,8.389238008199667
0.04839999999999994,8.246352166913299
0.04739999999999994,8.107710459526524
0.04639999999999994,7.970483463439617
0.04539999999999994,7.836085889952438
0.04439999999999994,7.70451773906499
0.04339999999999994,7.5743642994774065
0.04239999999999994,7.447040282489553
0.04139999999999994,7.3183015542018355
0.040399999999999936,7.192392248513847
0.039399999999999935,7.066482942825859
0.038399999999999934,6.941988348437734
0.03739999999999993,6.818908465349477
0.03639999999999993,6.6958285822612185
0.03539999999999993,6.574163410472826
0.03439999999999993,6.453912949984297
0.03339999999999993,6.335077200795634
0.03239999999999993,6.214826740307106
0.03139999999999993,6.095990991118443
0.030399999999999927,5.978569953229646
0.029399999999999926,5.8625636266407115
0.028399999999999925,5.746557300051779
0.027399999999999924,5.631965684762711
0.026399999999999924,5.517374069473643
0.025399999999999923,5.4027824541845755
0.024399999999999922,5.289605550195372
0.02339999999999992,5.177843357506034
0.02239999999999992,5.067495876116562
0.02139999999999992,4.955733683427223
0.020399999999999918,4.8453862020377505
0.019399999999999917,4.736453431948143
0.018399999999999916,4.6289353731583995
0.017399999999999916,4.521417314368658
0.016399999999999915,4.415313966878779
0.015399999999999914,4.309210619388901
0.014399999999999913,4.20452198319889
0.013399999999999912,4.099833347008876
0.012399999999999911,3.9965594221187284
0.01139999999999991,3.8947002085284463
0.01039999999999991,3.7928409949381634
0.009399999999999908,3.690981781347881
0.008399999999999908,3.591951990357328
0.007399999999999907,3.492922199366775
0.006399999999999906,3.3953071196760884
0.005399999999999905,3.2976920399854004
0.004399999999999904,3.201491671594578
0.003399999999999903,3.1067060145036205
0.002399999999999902,3.0119203574126634
0.0013999999999999013,2.9185494116215707
0.00039999999999990044,2.8251784658304784
-0.0006000000000001005,2.7332222313392514
-0.0016000000000001013,2.6426807081478887
-0.0026000000000001022,2.552139184956526
-0.003600000000000103,2.463012373065029
-0.004600000000000104,2.3753002724733965
-0.005600000000000105,2.2875881718817643
-0.006600000000000106,2.202705493889862
-0.007600000000000107,2.116408104598095
-0.008600000000000108,2.0315254266061924
-0.009600000000000108,1.9480574599141556
-0.01060000000000011,1.8645894932221183
-0.01160000000000011,1.7839509491298113
-0.012600000000000111,1.701897693737639
-0.013600000000000112,1.6212591496453321
-0.014600000000000113,1.54203531685289
-0.015600000000000114,1.4642261953603128
-0.016600000000000115,1.3882561985575603
-0.017600000000000116,1.3127106151447676
-0.018600000000000116,1.237589445121934
-0.019600000000000117,1.163175630749033
-0.020600000000000118,1.0900350565460108
-0.02160000000000012,1.0178847802528939
-0.02260000000000012,0.9474321575196151
-0.02360000000000012,0.8771210059163228
-0.024600000000000122,0.8073757388329764
-0.025600000000000123,0.7390451830494952
-0.026600000000000124,0.6717049251759195
-0.027600000000000124,0.6057793786022087
-0.028600000000000125,0.540136774288471
-0.029600000000000126,0.47520152562466583
-0.030600000000000127,0.4113980460007527
-0.03160000000000013,0.34886780654671806
-0.03260000000000013,0.28761080726256194
-0.03360000000000013,0.2267782213683654
-0.03460000000000002,0.16608710660415532
-0.03560000000000002,0.10678240891381298
-0.03660000000000002,0.04935927725229113
-0.03760000000000002,-0.007585681989876327
-0.03860000000000002,-0.06412886322288211
-0.039600000000000024,-0.12015143069753757
-0.040600000000000025,-0.17443390327335903
-0.041600000000000026,-0.22720263475832486
-0.04260000000000003,-0.2799713662432907
-0.04360000000000003,-0.3318912709483376
-0.04460000000000003,-0.38338676226342494
-0.04560000000000003,-0.43403342679859325
-0.04660000000000003,-0.48284096664393705
-0.04760000000000003,-0.5307996797093618
-0.04860000000000003,-0.5786169216447999
-0.04960000000000003,-0.6255853368003192
-0.050600000000000034,-0.6719878674358926
-0.051600000000000035,-0.7168342156416141
-0.052600000000000036,-0.7606902659374303
-0.053600000000000037,-0.8046877873632328
-0.05460000000000004,-0.8472705974891704
-0.05560000000000004,-0.8899948787450946
-0.05660000000000004,-0.9310215064411805
-0.05760000000000004,-0.9706334228374016
-0.05860000000000004,-1.010952694883555
-0.05960000000000004,-1.0505646112797762
-0.06060000000000004,-1.0886203452461456
-0.061600000000000044,-1.125827252432596
-0.06260000000000004,-1.1621853328391276
-0.06360000000000005,-1.1988263555056322
-0.06460000000000005,-1.2350429647821768
-0.06560000000000005,-1.2697033916288705
-0.06660000000000005,-1.3032320494356717
-0.06760000000000005,-1.3363362938525138
-0.06860000000000005,-1.3691575960093827
-0.06960000000000005,-1.4019788981662513
-0.07060000000000005,-1.433102546763282
-0.07160000000000005,-1.4642261953603128
-0.07260000000000005,-1.4953498439573436
-0.07360000000000005,-1.5236440699546445
-0.07460000000000006,-1.5547677185516753
-0.07560000000000006,-1.583061944548976
-0.07660000000000006,-1.6113561705462767
-0.07760000000000006,-1.6382356852437125
-0.07860000000000006,-1.6651151999411482
-0.07960000000000006,-1.693409425938449
-0.08060000000000006,-1.7188742293360195
-0.08160000000000006,-1.7443390327335901
-0.08260000000000006,-1.769803836131161
-0.08360000000000006,-1.7938539282288664
-0.08460000000000006,-1.8193187316264372
-0.08560000000000006,-1.8433688237241426
-0.08660000000000007,-1.8660042045219833
-0.08760000000000007,-1.8886395853198237
-0.08860000000000007,-1.9112749661176645
-0.08960000000000007,-1.933910346915505
-0.09060000000000007,-1.9565457277133458
-0.09160000000000007,-1.9777663972113213
-0.09260000000000007,-1.9975723554094316
-0.09360000000000007,-2.0187930249074073
-0.09460000000000007,-2.038598983105518
-0.09560000000000007,-2.0584049413036287
-0.09660000000000007,-2.0782108995017388
-0.09760000000000008,-2.0966021463999844
-0.09860000000000008,-2.1149933932982297
-0.09960000000000008,-2.1347993514963406
-0.10060000000000008,-2.1531905983945863
-0.10160000000000008,-2.1701671339929662
-0.10260000000000008,-2.1885583808912115
-0.10360000000000008,-2.205534916489592
-0.10460000000000008,-2.2225114520879723
-0.10560000000000008,-2.2394879876863527
-0.10660000000000008,-2.2564645232847336
-0.10760000000000008,-2.272026347583249
-0.10860000000000009,-2.2875881718817643
-0.10960000000000009,-2.3045647074801447
-0.11060000000000009,-2.3201265317786604
-0.11160000000000009,-2.3356883560771755
-0.11260000000000009,-2.349835469075826
-0.11360000000000009,-2.3639825820744766
-0.11460000000000009,-2.379544406372992
-0.11560000000000009,-2.396520941971372
-0.11660000000000009,-2.4092533436701573
-0.1176000000000001,-2.4234004566688077
-0.1186000000000001,-2.436132858367593
-0.1196000000000001,-2.4502799713662435
-0.1206000000000001,-2.463012373065029
-0.1216000000000001,-2.475744774763814
-0.1226000000000001,-2.4884771764625997
-0.1236000000000001,-2.5012095781613843
-0.1246000000000001,-2.5139419798601703
-0.1256000000000001,-2.5266743815589554
-0.1266000000000001,-2.5379920719578757
-0.1276000000000001,-2.550724473656661
-0.1286000000000001,-2.5620421640555815
-0.1296000000000001,-2.5733598544545018
-0.1306000000000001,-2.586092256153287
-0.1316000000000001,-2.597409946552207
-0.1326000000000001,-2.6087276369511274
-0.1336000000000001,-2.6200453273500477
-0.1346000000000001,-2.629948306449103
-0.1356000000000001,-2.641265996848024
-0.1366000000000001,-2.6525836872469437
-0.1376000000000001,-2.662486666345999
-0.1386000000000001,-2.6723896454450546
-0.1396000000000001,-2.6837073358439745
-0.1406000000000001,-2.6950250262428948
-0.14160000000000011,-2.7049280053419507
-0.14260000000000012,-2.7134162731411404
-0.14360000000000012,-2.7233192522401954
-0.14460000000000012,-2.734636942639116
-0.14560000000000012,-2.744539921738171
-0.14660000000000012,-2.7530281895373614
-0.14760000000000012,-2.7629311686364164
-0.14860000000000012,-2.7714194364356066
-0.14960000000000012,-2.7813224155346625
-0.15060000000000012,-2.791225394633717
-0.15160000000000012,-2.8011283737327726
-0.15260000000000012,-2.8096166415319628
-0.15360000000000013,-2.818104909331153
-0.15460000000000013,-2.8280078884302084
-0.15560000000000013,-2.8379108675292635
-0.15660000000000013,-2.844984424028589
-0.15760000000000013,-2.8534726918277786
-0.15860000000000013,-2.863375670926834
-0.15960000000000002,-2.8718639387260247
-0.16060000000000002,-2.8817669178250793
-0.16160000000000002,-2.888840474324405
-0.16260000000000002,-2.8987434534234597
-0.16360000000000002,-2.9072317212226504
-0.16460000000000002,-2.9171347003217054
-0.16560000000000002,-2.927037679420761
-0.16660000000000003,-2.9397700811195464
-0.16760000000000003,-2.9468436376188714
-0.16860000000000003,-2.9553319054180616
-0.16960000000000003,-2.963820173217252
-0.17060000000000003,-2.973723152316307
-0.17160000000000003,-2.9807967088156326
-0.17260000000000003,-2.9878702653149576
-0.17360000000000003,-2.997773244414013
-0.17460000000000003,-3.006261512213203
-0.17560000000000003,-3.0161644913122583
-0.17660000000000003,-3.024652759111448
-0.17760000000000004,-3.0331410269106387
-0.17860000000000004,-3.041629294709829
-0.17960000000000004,-3.0515322738088844
-0.18060000000000004,-3.0614352529079394
-0.18160000000000004,-3.069923520707129
-0.18260000000000004,-3.07841178850632
-0.18360000000000004,-3.0883147676053753
-0.18460000000000004,-3.0982177467044303
-0.18560000000000004,-3.1081207258034858
-0.18660000000000004,-3.1180237049025408
-0.18760000000000004,-3.126511972701731
-0.18860000000000005,-3.1364149518007864
-0.18960000000000005,-3.1477326421997063
-0.19060000000000005,-3.1576356212987617
-0.19160000000000005,-3.168953311697682
-0.19260000000000005,-3.178856290796737
-0.19360000000000005,-3.1887592698957925
-0.19460000000000005,-3.200076960294713
-0.19560000000000005,-3.211394650693633
-0.19660000000000005,-3.2227123410925533
-0.19760000000000005,-3.232615320191609
-0.19860000000000005,-3.243933010590529
-0.19960000000000006,-3.2566654122893146
-0.20060000000000006,-3.2693978139880997
-0.20160000000000006,-3.28071550438702
-0.20260000000000006,-3.2920331947859403
-0.20360000000000006,-3.3047655964847262
-0.20460000000000006,-3.317497998183511
-0.20560000000000006,-3.3302303998822964
-0.20660000000000006,-3.3429628015810815
-0.20760000000000006,-3.355695203279867
-0.20860000000000006,-3.3698423162785174
-0.20960000000000006,-3.3839894292771677
-0.21060000000000006,-3.3981365422758185
-0.21160000000000007,-3.412283655274469
-0.21260000000000007,-3.4250160569732535
-0.21360000000000007,-3.440577881271769
-0.21460000000000007,-3.45472499427042
-0.21560000000000007,-3.4702868185689346
-0.21660000000000007,-3.4858486428674507
-0.21760000000000007,-3.502825178465831
-0.21860000000000007,-3.519801714064211
-0.21960000000000007,-3.5353635383627267
-0.22060000000000007,-3.550925362661242
-0.22160000000000007,-3.5679018982596227
-0.22260000000000008,-3.5848784338580026
-0.22360000000000008,-3.6018549694563835
-0.22460000000000008,-3.6188315050547635
-0.22560000000000008,-3.6372227519530096
-0.22660000000000008,-3.6556139988512544
-0.22760000000000008,-3.6725905344496357
-0.22860000000000008,-3.690981781347881
-0.22960000000000008,-3.710787739545991
-0.23060000000000008,-3.730593697744102
-0.23160000000000008,-3.7503996559422124
-0.23260000000000008,-3.768790902840458
-0.23360000000000009,-3.788596861038568
-0.2346000000000001,-3.8098175305365434
-0.2356000000000001,-3.8310382000345196
-0.2366000000000001,-3.852258869532495
-0.2376000000000001,-3.8734795390304706
-0.2386000000000001,-3.8947002085284463
-0.2396000000000001,-3.9173355893262864
-0.2406000000000001,-3.939970970124127
-0.2416000000000001,-3.962606350921967
-0.2426000000000001,-3.9852417317198086
-0.2436000000000001,-4.009291823817514
-0.2446000000000001,-4.033341915915219
-0.2456000000000001,-4.057392008012925
-0.2466000000000001,-4.081442100110631
-0.2476000000000001,-4.105492192208336
-0.2486000000000001,-4.1295422843060425
-0.2496000000000001,-4.155007087703612
-0.2506000000000001,-4.181886602401049
-0.2516000000000001,-4.20735140579862
-0.2526000000000001,-4.23281620919619
-0.2536000000000001,-4.259695723893626
-0.2546000000000001,-4.286575238591061
-0.2556000000000001,-4.313454753288497
-0.2566000000000001,-4.341748979285797
-0.2576000000000001,-4.368628493983234
-0.2586000000000001,-4.396922719980535
-0.2596000000000001,-4.425216945977835
-0.2606000000000001,-4.453511171975136
-0.2616000000000001,-4.483220109272302
-0.2626000000000001,-4.511514335269602
-0.2636000000000001,-4.541223272566767
-0.2646000000000001,-4.572346921163798
-0.2656000000000001,-4.6020558584609645
-0.2666000000000001,-4.633179507057995
-0.2676000000000001,-4.66288844435516
-0.2686000000000001,-4.694012092952192
-0.2696000000000001,-4.725135741549222
-0.2706000000000001,-4.757674101446118
-0.2716000000000001,-4.788797750043149
-0.2726000000000001,-4.819921398640179
-0.2736000000000001,-4.852459758537076
-0.2746000000000001,-4.886412829733837
-0.2756000000000001,-4.918951189630732
-0.2766000000000001,-4.951489549527628
-0.2776000000000001,-4.9840279094245235
-0.2786000000000001,-5.017980980621284
-0.2796000000000001,-5.051934051818047
-0.2806000000000001,-5.085887123014808
-0.28160000000000013,-5.1198401942115686
-0.28260000000000013,-5.153793265408329
-0.28360000000000013,-5.18774633660509
-0.2846,-5.221699407801851
-0.2856,-5.257067190298477
-0.2866,-5.2924349727951014
-0.2876,-5.327802755291728
-0.2886,-5.3631705377883545
-0.2896,-5.39853832028498
-0.2906,-5.433906102781606
-0.2916,-5.469273885278232
-0.2926,-5.504641667774858
-0.2936,-5.540009450271484
-0.29460000000000003,-5.576791944067974
-0.29560000000000003,-5.613574437864465
-0.29660000000000003,-5.648942220361092
-0.29760000000000003,-5.684310002857718
-0.29860000000000003,-5.721092496654209
-0.29960000000000003,-5.757874990450699
-0.30060000000000003,-5.793242772947325
-0.30160000000000003,-5.830025266743816
-0.30260000000000004,-5.865393049240442
-0.30360000000000004,-5.902175543036933
-0.30460000000000004,-5.940372748133289
-0.30560000000000004,-5.975740530629915
-0.30660000000000004,-6.012523024426406
-0.30760000000000004,-6.047890806923031
-0.30860000000000004,-6.084673300719523
-0.30960000000000004,-6.121455794516013
-0.31060000000000004,-6.158238288312504
-0.31160000000000004,-6.195020782108996
-0.31260000000000004,-6.230388564605621
-0.31360000000000005,-6.265756347102247
-0.31460000000000005,-6.303953552198603
-0.31560000000000005,-6.339321334695229
-0.31660000000000005,-6.376103828491721
-0.31760000000000005,-6.411471610988346
-0.31860000000000005,-6.446839393484972
-0.31960000000000005,-6.483621887281464
-0.32060000000000005,-6.520404381077953
-0.32160000000000005,-6.55577216357458
-0.32260000000000005,-6.591139946071206
-0.32360000000000005,-6.626507728567832
-0.32460000000000006,-6.660460799764593
-0.32560000000000006,-6.6958285822612185
-0.32660000000000006,-6.731196364757845
-0.32760000000000006,-6.765149435954606
-0.32860000000000006,-6.799102507151367
-0.32960000000000006,-6.833055578348127
-0.33060000000000006,-6.868423360844753
-0.33160000000000006,-6.902376432041514
-0.33260000000000006,-6.934914791938409
-0.33360000000000006,-6.968867863135171
-0.33460000000000006,-7.001406223032068
-0.33560000000000006,-7.035359294228828
-0.33660000000000007,-7.067897654125724
-0.33760000000000007,-7.100436014022619
-0.33860000000000007,-7.131559662619649
-0.33960000000000007,-7.164098022516545
-0.34060000000000007,-7.195221671113577
-0.34160000000000007,-7.226345319710607
-0.34260000000000007,-7.257468968307639
-0.34360000000000007,-7.287177905604803
-0.3446000000000001,-7.3183015542018355
-0.3456000000000001,-7.348010491499002
-0.3466000000000001,-7.3777194287961665
-0.34759999999999996,-7.406013654793467
-0.3486000000000001,-7.434307880790768
-0.34959999999999997,-7.462602106788069
-0.3506000000000001,-7.49089633278537
-0.35159999999999997,-7.51919055878267
-0.3526000000000001,-7.544655362180241
-0.35359999999999997,-7.571534876877676
-0.3546000000000001,-7.596999680275248
-0.35559999999999997,-7.623879194972683
-0.3566000000000001,-7.647929287070388
-0.3576,-7.671979379168095
-0.3586000000000001,-7.6960294712658
-0.3596,-7.720079563363504
-0.3606000000000001,-7.742714944161346
-0.3616,-7.763935613659322
-0.3626000000000001,-7.7851562831572965
-0.3636,-7.806376952655272
-0.3646000000000001,-7.827597622153248
-0.3656,-7.847403580351358
-0.3666000000000001,-7.865794827249602
-0.3676,-7.884186074147851
-0.3686000000000001,-7.901162609746229
-0.3696,-7.918139145344611
-0.3706000000000001,-7.935115680942991
-0.3716,-7.950677505241506
-0.3726000000000001,-7.964824618240158
-0.3736,-7.978971731238807
-0.3746000000000001,-7.991704132937592
-0.3756,-8.003021823336512
-0.3766000000000001,-8.01433951373543
-0.3776,-8.022827781534623
-0.3786000000000001,-8.031316049333814
-0.3796,-8.039804317133003
-0.3806000000000001,-8.046877873632328
-0.3816,-8.052536718831789
-0.3826000000000001,-8.056780852731386
-0.3836,-8.061024986630978
-0.3846000000000001,-8.065269120530575
-0.3856,-8.066683831830439
-0.3866000000000001,-8.066683831830439
-0.3876,-8.065269120530575
-0.3886000000000001,-8.062439697930845
-0.3896,-8.059610275331114
-0.3906000000000001,-8.055366141431518
-0.3916,-8.049707296232057
-0.3926000000000001,-8.042633739732734
-0.3936,-8.034145471933543
-0.3946000000000001,-8.025657204134353
-0.3956,-8.01433951373543
-0.3966000000000001,-8.001607112036647
-0.3976,-7.9888747103378615
-0.3986000000000001,-7.973312886039348
-0.3996,-7.95775106174083
-0.4006000000000001,-7.940774526142452
-0.4016,-7.92096856794434
-0.4026000000000001,-7.901162609746229
-0.4036,-7.878527228948389
-0.4046000000000001,-7.857306559450413
-0.4056,-7.833256467352707
-0.40660000000000013,-7.807791663955138
-0.4076,-7.780912149257703
-0.40860000000000013,-7.754032634560266
-0.4096,-7.727153119862831
-0.41060000000000013,-7.697444182565665
-0.4116,-7.6663205339686336
-0.41260000000000013,-7.6337821740717375
-0.4136,-7.6012438141748415
-0.41460000000000014,-7.568705454277946
-0.4156,-7.53616709438105
-0.41660000000000014,-7.500799311884425
-0.4176,-7.465431529387798
-0.41860000000000014,-7.428649035591308
-0.41960000000000003,-7.393281253094682
-0.42060000000000014,-7.355084047998325
-0.42160000000000003,-7.3183015542018355
-0.42260000000000014,-7.281519060405343
-0.42360000000000003,-7.243321855308987
-0.42460000000000014,-7.205124650212632
-0.42560000000000003,-7.166927445116276
-0.42660000000000015,-7.127315528720055
-0.42760000000000004,-7.087703612323834
-0.42860000000000015,-7.049506407227478
-0.42960000000000004,-7.009894490831256
-0.43060000000000015,-6.973111997034766
-0.43160000000000004,-6.933500080638546
-0.43260000000000015,-6.895302875542188
-0.43360000000000004,-6.855690959145968
-0.43460000000000015,-6.818908465349477
-0.43560000000000004,-6.782125971552985
-0.43660000000000015,-6.745343477756495
-0.43760000000000004,-6.707146272660138
-0.43860000000000016,-6.670363778863648
-0.43960000000000005,-6.634995996367022
-0.44060000000000016,-6.601042925170261
-0.44160000000000005,-6.565675142673635
-0.44260000000000016,-6.5317220714768744
-0.44360000000000005,-6.497769000280114
-0.44460000000000016,-6.465230640383218
-0.44560000000000005,-6.434106991786186
-0.44660000000000016,-6.40156863188929
-0.44760000000000005,-6.37044498329226
-0.44860000000000017,-6.3407360459950945
-0.44960000000000006,-6.311027108697928
-0.45060000000000017,-6.282732882700628
-0.45160000000000006,-6.253023945403462
-0.45260000000000017,-6.224729719406161
-0.45360000000000006,-6.197850204708726
-0.45460000000000017,-6.172385401311155
-0.45560000000000006,-6.146920597913584
-0.4566000000000002,-6.121455794516013
