Potential V vs RHE, Current mA cm-2
0.4132999999999999,-0.004938757147828843
0.4122999999999999,-0.006695828582261218
0.4112999999999999,-0.007315472131602104
0.4102999999999999,-0.007582852567276597
0.4092999999999999,-0.007780912149257702
0.4082999999999999,-0.007926627413143799
0.4072999999999999,-0.008102051614327066
0.4062999999999999,-0.00824069332171384
0.4052999999999999,-0.00832840542230547
0.4042999999999999,-0.00842319107939643
0.4032999999999999,-0.00849109722178995
0.4022999999999999,-0.008611347682278479
0.4012999999999999,-0.008718865741068222
0.4002999999999999,-0.008766965925263631
0.3992999999999999,-0.008846189758056074
0.3982999999999999,-0.008922584168248787
0.3972999999999999,-0.00899331973324204
0.3962999999999999,-0.009085275967733264
0.3952999999999999,-0.009124887884129487
0.3942999999999999,-0.009154596821426653
0.39329999999999987,-0.009219673541220445
0.39229999999999987,-0.009298897374012887
0.39129999999999987,-0.009383780052004787
0.39029999999999987,-0.00941207427800209
0.38929999999999987,-0.009427636102300603
0.38829999999999987,-0.009475736286496016
0.38729999999999987,-0.009536568872390213
0.38629999999999987,-0.009627110395581574
0.38529999999999986,-0.00966530760067793
0.38429999999999986,-0.009672381157177255
0.38329999999999986,-0.009713407784873344
0.38229999999999986,-0.009761507969068751
0.38129999999999986,-0.009837902379261465
0.38029999999999986,-0.009883173140857146
0.37929999999999986,-0.009901564387755392
0.37829999999999986,-0.009936932170252018
0.37729999999999986,-0.00999635004484635
0.37629999999999986,-0.01005293849684095
0.37529999999999986,-0.010099623969736496
0.37429999999999986,-0.010109526948835552
0.37329999999999985,-0.010146309442632043
0.37229999999999985,-0.010217045007625295
0.37129999999999985,-0.010267974614420437
0.37029999999999985,-0.010300512974317333
0.36929999999999985,-0.010313245376016118
0.36829999999999985,-0.010327392489014767
0.36729999999999985,-0.010391054497508694
0.36629999999999985,-0.010450472372103026
0.36529999999999985,-0.010485840154599652
0.36429999999999985,-0.010502816690198032
0.36329999999999985,-0.010524037359696007
0.36229999999999984,-0.010570722832591554
0.36129999999999984,-0.010648531954084132
0.36029999999999984,-0.010652776087983727
0.35929999999999984,-0.010682485025280892
0.35829999999999984,-0.010698046849579406
0.35729999999999984,-0.01076595299197293
0.35629999999999984,-0.010843762113465508
0.35529999999999984,-0.010855079803864428
0.35429999999999984,-0.010867812205563212
0.35329999999999984,-0.010887618163761324
0.35229999999999984,-0.010941377193156193
0.35129999999999983,-0.011012112758149445
0.35029999999999983,-0.011033333427647422
0.34929999999999983,-0.011036162850247149
0.34829999999999983,-0.011057383519745126
0.34729999999999983,-0.011139436775137297
0.34629999999999983,-0.011196025227131898
0.34529999999999983,-0.011220075319229606
0.34429999999999983,-0.011215831185330009
0.3432999999999998,-0.011237051854827986
0.3422999999999998,-0.011279493193823938
0.3412999999999998,-0.011351643470117054
0.3402999999999998,-0.011375693562214758
0.3392999999999998,-0.011377108273514625
0.3382999999999998,-0.011394084809113006
0.3372999999999998,-0.011464820374106257
0.3362999999999998,-0.011498773445303019
0.3352999999999998,-0.011548288340798294
0.3342999999999998,-0.011563850165096808
0.3332999999999998,-0.011589314968494382
0.3322999999999998,-0.011628926884890601
0.3312999999999998,-0.011698247738583988
0.3302999999999998,-0.011698247738583988
0.3292999999999998,-0.01173220080978075
0.3282999999999998,-0.011747762634079265
0.3272999999999998,-0.011802936374774
0.3262999999999998,-0.011858110115468737
0.3252999999999999,-0.011877916073666847
0.3242999999999999,-0.011896307320565094
0.3232999999999999,-0.011899136743164824
0.3222999999999999,-0.011978360575957265
0.3212999999999999,-0.012026460760152678
0.3202999999999999,-0.012044852007050922
0.3192999999999999,-0.012057584408749707
0.3182999999999999,-0.012063243253949167
0.3172999999999999,-0.012114172860744309
0.3162999999999999,-0.012184908425737561
0.3152999999999999,-0.012200470250036077
0.3142999999999999,-0.012213202651734862
0.3132999999999999,-0.012221690919534053
0.3122999999999999,-0.012254229279430947
0.3112999999999999,-0.012334867823523254
0.3102999999999999,-0.012340526668722714
0.3092999999999999,-0.012357503204321095
0.3082999999999999,-0.01237306502861961
0.3072999999999999,-0.012404188677216642
0.3062999999999999,-0.0124706801083103
0.3052999999999999,-0.012508877313406655
0.3042999999999999,-0.01250746260210679
0.3032999999999999,-0.012528683271604767
0.3022999999999999,-0.012566880476701122
0.3012999999999999,-0.012654592577292753
0.3002999999999999,-0.012677227958090592
0.2992999999999999,-0.012661666133792078
0.2982999999999999,-0.012674398535490863
0.2972999999999999,-0.012733816410085195
0.2962999999999999,-0.012808796108978043
0.2952999999999999,-0.012822943221976694
0.2942999999999999,-0.012810210820277905
0.2932999999999999,-0.012844163891474669
0.2922999999999999,-0.012885190519170754
0.2912999999999999,-0.01294319368246522
0.2902999999999999,-0.012970073197162656
0.2892999999999999,-0.012978561464961846
0.2882999999999999,-0.012991293866660631
0.2872999999999999,-0.013039394050856043
0.2862999999999999,-0.013086079523751591
0.2852999999999999,-0.01312286201754808
0.2842999999999999,-0.01313135028534727
0.2832999999999999,-0.013138423841846596
0.2822999999999999,-0.013189353448641737
0.2812999999999999,-0.013254430168435529
0.2802999999999999,-0.013272821415333773
0.2792999999999999,-0.013281309683132965
0.2782999999999999,-0.013286968528332426
0.2772999999999999,-0.01332233631082905
0.2762999999999999,-0.013404389566221224
0.2752999999999999,-0.013404389566221224
0.2742999999999999,-0.013415707256620142
0.2732999999999999,-0.013448245616517038
0.2722999999999999,-0.01347936926511407
0.2712999999999999,-0.013561422520506242
0.2702999999999999,-0.013567081365705703
0.2692999999999999,-0.013585472612603948
0.26829999999999987,-0.013598205014302733
0.26729999999999987,-0.013630743374199627
0.26629999999999987,-0.013694405382693555
0.26529999999999987,-0.013731187876490048
0.26429999999999987,-0.013732602587789912
0.26329999999999987,-0.013753823257287886
0.26229999999999987,-0.013786361617184781
0.26129999999999987,-0.013837291223979923
0.26029999999999986,-0.013879732562975875
0.25929999999999986,-0.013867000161277088
0.25829999999999986,-0.013902367943773714
0.25729999999999986,-0.01393773572627034
0.25629999999999986,-0.013981591776566157
0.25529999999999986,-0.014028277249461702
0.25429999999999986,-0.014019788981662512
0.25329999999999986,-0.014048083207659816
0.25229999999999986,-0.014093353969255496
0.25129999999999986,-0.014144283576050635
0.25029999999999986,-0.014175407224647668
0.24929999999999986,-0.014189554337646317
0.24829999999999985,-0.014189554337646317
0.24729999999999985,-0.01424614278964092
0.24629999999999985,-0.01430273124163552
0.24529999999999985,-0.014373466806628774
0.24429999999999985,-0.014387613919627423
0.24329999999999985,-0.014373466806628774
0.24229999999999985,-0.014415908145624722
0.24129999999999985,-0.014486643710617976
0.24029999999999985,-0.014500790823616624
0.23929999999999985,-0.014514937936615275
0.23829999999999985,-0.014514937936615275
0.23729999999999984,-0.014571526388609878
0.23629999999999984,-0.014642261953603129
0.23529999999999984,-0.01465640906660178
0.23429999999999984,-0.014670556179600431
0.23329999999999984,-0.01469885040559773
0.23229999999999984,-0.014712997518596381
0.23129999999999984,-0.014797880196588285
0.23029999999999984,-0.014854468648582884
0.22929999999999984,-0.014840321535584235
0.22829999999999984,-0.014854468648582884
0.22729999999999984,-0.014882762874580187
0.22629999999999983,-0.014953498439573438
0.22529999999999983,-0.014995939778569388
0.22429999999999983,-0.014995939778569388
0.22329999999999983,-0.01503838111756534
0.22229999999999983,-0.015066675343562642
0.22129999999999983,-0.015151558021554544
0.22029999999999983,-0.015193999360550494
0.21929999999999983,-0.015193999360550494
0.21829999999999983,-0.015222293586547794
0.21729999999999983,-0.015250587812545097
0.21629999999999983,-0.015293029151541045
0.21529999999999982,-0.015349617603535646
0.21429999999999982,-0.015349617603535646
0.21329999999999982,-0.0153637647165343
0.21229999999999982,-0.015406206055530251
0.21129999999999982,-0.01546279450752485
0.21029999999999982,-0.015505235846520802
0.20929999999999982,-0.015519382959519455
0.20829999999999982,-0.015533530072518101
0.20729999999999982,-0.015575971411514053
0.20629999999999982,-0.015646706976507305
0.20529999999999982,-0.015675001202504608
0.20429999999999982,-0.015675001202504608
0.20329999999999981,-0.01568914831550326
0.2022999999999998,-0.01573158965449921
0.2012999999999998,-0.01580232521949246
0.20029999999999992,-0.01581647233249111
0.19929999999999992,-0.01583061944548976
0.19829999999999992,-0.01584476655848841
0.19729999999999992,-0.015901355010483013
0.19629999999999992,-0.01597209057547626
0.19529999999999992,-0.016000384801473564
0.19429999999999992,-0.016056973253468165
0.19329999999999992,-0.01611356170546277
0.19229999999999992,-0.016071120366466816
0.19129999999999991,-0.01614185593146007
0.1902999999999999,-0.01619844438345467
0.1892999999999999,-0.016212591496453318
0.1882999999999999,-0.016226738609451972
0.1872999999999999,-0.01625503283544927
0.1862999999999999,-0.016354062626439823
0.1852999999999999,-0.016368209739438477
0.1842999999999999,-0.01638235685243712
0.1832999999999999,-0.016396503965435776
0.1822999999999999,-0.016438945304431726
0.1812999999999999,-0.01652382798242363
0.1802999999999999,-0.01656626932141958
0.1792999999999999,-0.01658041643441823
0.1782999999999999,-0.01662285777341418
0.1772999999999999,-0.01665115199941148
0.1762999999999999,-0.01670774045140608
0.1752999999999999,-0.016778476016399334
0.1742999999999999,-0.016778476016399334
0.1732999999999999,-0.016792623129397985
0.1722999999999999,-0.016820917355395284
0.1712999999999999,-0.01687750580738989
0.1702999999999999,-0.016948241372383138
0.1692999999999999,-0.01693409425938449
0.1682999999999999,-0.01697653559838044
0.1672999999999999,-0.01703312405037504
0.1662999999999999,-0.017089712502369642
0.1652999999999999,-0.017132153841365592
0.1642999999999999,-0.017174595180361543
0.1632999999999999,-0.017160448067362895
0.1622999999999999,-0.017217036519357496
0.1612999999999999,-0.017273624971352097
0.1602999999999999,-0.01734436053634535
0.1592999999999999,-0.017358507649344
0.15829999999999989,-0.017372654762342652
0.15729999999999988,-0.0173868018753413
0.15629999999999988,-0.017471684553333203
0.15529999999999988,-0.0175282730053278
0.15429999999999988,-0.017542420118326456
0.15329999999999988,-0.017556567231325104
0.15229999999999988,-0.017584861457322406
0.15129999999999988,-0.01766974413531431
0.15029999999999988,-0.01772633258730891
0.14929999999999988,-0.01772633258730891
0.14829999999999988,-0.017754626813306213
0.14729999999999988,-0.017782921039303512
0.14629999999999987,-0.01785365660429676
0.14529999999999987,-0.017896097943292714
0.14429999999999987,-0.017924392169290013
0.14329999999999987,-0.017966833508285963
0.14229999999999987,-0.018023421960280565
0.14129999999999987,-0.018065863299276518
0.14029999999999987,-0.01812245175127112
0.13929999999999987,-0.01813659886426977
0.13829999999999987,-0.01816489309026707
0.13729999999999987,-0.018193187316264375
0.13629999999999987,-0.018263922881257624
0.13529999999999986,-0.018348805559249524
0.13429999999999986,-0.018362952672248176
0.13329999999999986,-0.018362952672248176
0.13229999999999986,-0.018419541124242777
0.13129999999999986,-0.01847612957623738
0.13029999999999986,-0.018546865141230634
0.12929999999999986,-0.01858930648022658
0.12829999999999986,-0.018575159367227933
0.12729999999999986,-0.018631747819222534
0.12629999999999986,-0.018716630497214438
0.12529999999999986,-0.018773218949209036
0.12429999999999986,-0.018815660288204986
0.12329999999999985,-0.018815660288204986
0.12229999999999985,-0.01887224874019959
0.12129999999999985,-0.018942984305192843
0.12029999999999985,-0.018985425644188793
0.11929999999999985,-0.019013719870186095
0.11829999999999985,-0.019042014096183394
0.11729999999999985,-0.019070308322180696
0.11629999999999985,-0.019169338113171244
0.11529999999999985,-0.01922592656516585
0.11429999999999985,-0.01922592656516585
0.11329999999999985,-0.019254220791163148
0.11229999999999984,-0.0192966621301591
0.11129999999999984,-0.019395691921149656
0.11029999999999984,-0.019438133260145606
0.10929999999999984,-0.019466427486142905
0.10829999999999984,-0.01950886882513886
0.10729999999999984,-0.019537163051136158
0.10629999999999984,-0.019607898616129407
0.10529999999999984,-0.01967863418112266
0.10429999999999984,-0.01969278129412131
0.10329999999999984,-0.01973522263311726
0.10229999999999984,-0.019763516859114563
0.10129999999999983,-0.019848399537106463
0.10029999999999983,-0.019947429328097017
0.09929999999999983,-0.019947429328097017
0.09829999999999983,-0.01997572355409432
0.09729999999999983,-0.02000401778009162
0.09629999999999983,-0.02008890045808352
0.09529999999999983,-0.020173783136075422
0.09429999999999983,-0.020187930249074077
0.09329999999999983,-0.020244518701068675
0.09229999999999983,-0.020258665814067326
0.09129999999999983,-0.020371842718056525
0.09029999999999982,-0.02041428405705248
0.08929999999999982,-0.020442578283049778
0.08829999999999982,-0.02048501962204573
0.08729999999999982,-0.02052746096104168
0.08629999999999982,-0.020598196526034934
0.08529999999999982,-0.020697226317025485
0.08429999999999982,-0.020725520543022787
0.08329999999999982,-0.020725520543022787
0.08229999999999982,-0.02078210899501739
0.08129999999999982,-0.02085284456001064
0.08029999999999982,-0.020937727238002544
0.07929999999999982,-0.020966021463999843
0.07829999999999981,-0.020994315689997142
0.07729999999999981,-0.021036757028993096
0.07629999999999981,-0.021135786819983647
0.07529999999999992,-0.02119237527197825
0.07429999999999992,-0.0212348166109742
0.07329999999999992,-0.0212631108369715
0.07229999999999992,-0.021305552175967454
0.07129999999999992,-0.021404581966958002
0.07029999999999992,-0.021461170418952607
0.06929999999999992,-0.021489464644949906
0.06829999999999992,-0.02153190598394586
0.06729999999999992,-0.02157434732294181
0.06629999999999991,-0.021687524226931015
0.06529999999999991,-0.021772406904922915
0.06429999999999991,-0.021786554017921567
0.06329999999999991,-0.021828995356917517
0.06229999999999991,-0.02185728958291482
0.06129999999999991,-0.021956319373905367
0.06029999999999991,-0.02205534916489592
0.05929999999999991,-0.02208364339089322
0.05829999999999991,-0.022140231842887825
0.05729999999999991,-0.02218267318188378
0.056299999999999906,-0.022253408746877028
0.055299999999999905,-0.022338291424868928
0.054299999999999904,-0.022366585650866227
0.0532999999999999,-0.022437321215859483
0.0522999999999999,-0.022479762554855433
0.0512999999999999,-0.022550498119848682
0.0502999999999999,-0.02264952791083924
0.0492999999999999,-0.02267782213683654
0.0482999999999999,-0.02270611636283384
0.0472999999999999,-0.02277685192782709
0.0462999999999999,-0.02287588171881764
0.045299999999999896,-0.022946617283810897
0.044299999999999895,-0.0230032057358055
0.043299999999999894,-0.023017352848804146
0.04229999999999989,-0.0230597941878001
0.04129999999999989,-0.023158823978790648
0.04029999999999989,-0.023286147995778505
0.03929999999999989,-0.023314442221775804
0.03829999999999989,-0.023328589334774455
0.03729999999999989,-0.023399324899767704
0.03629999999999989,-0.023498354690758262
0.03529999999999989,-0.02356909025575151
0.034299999999999886,-0.023625678707746112
0.033299999999999885,-0.023668120046742062
0.032299999999999884,-0.023710561385738016
0.031299999999999883,-0.023809591176728567
0.030299999999999883,-0.02389447385472047
0.02929999999999988,-0.02393691519371642
0.02829999999999988,-0.023993503645711022
0.02729999999999988,-0.024035944984706972
0.02629999999999988,-0.024134974775697527
0.025299999999999878,-0.024219857453689427
0.024299999999999877,-0.02426229879268538
0.023299999999999876,-0.024318887244679982
0.022299999999999875,-0.024375475696674583
0.021299999999999875,-0.024488652600663786
0.020299999999999874,-0.02457353527865569
0.019299999999999873,-0.02461597661765164
0.018299999999999872,-0.024644270843648942
0.01729999999999987,-0.024729153521640842
0.01629999999999987,-0.02479988908663409
0.01529999999999987,-0.024927213103621948
0.014299999999999868,-0.024969654442617898
0.013299999999999867,-0.025012095781613848
0.012299999999999978,-0.02506868423360845
0.011299999999999866,-0.02515356691160035
0.010299999999999976,-0.025266743815589552
0.009299999999999864,-0.025295038041586858
0.008299999999999974,-0.025337479380582808
0.007299999999999862,-0.02539406783257741
0.006299999999999972,-0.025493097623567964
0.00529999999999986,-0.025592127414558512
0.0042999999999999705,-0.025677010092550415
0.0032999999999998586,-0.025705304318547718
0.0022999999999999687,-0.025790186996539618
0.0012999999999998568,-0.02590336390052882
0.00029999999999996696,-0.025974099465522073
-0.000700000000000145,-0.026058982143513973
-0.0017000000000000348,-0.026073129256512624
-0.0027000000000001467,-0.026101423482509926
-0.0037000000000000366,-0.02620045327350048
-0.0047000000000001485,-0.02629948306449103
-0.005700000000000038,-0.026370218629484285
-0.00670000000000015,-0.026412659968480235
-0.00770000000000004,-0.026426807081478886
-0.008700000000000152,-0.026539983985468085
-0.009700000000000042,-0.026639013776458643
-0.010700000000000154,-0.02673804356744919
-0.011700000000000044,-0.026780484906445145
-0.012700000000000156,-0.026837073358439746
-0.013700000000000045,-0.026907808923433
-0.014700000000000157,-0.02703513294042085
-0.015700000000000047,-0.027063427166418155
-0.01670000000000016,-0.027120015618412752
-0.01770000000000005,-0.027148309844410055
-0.01870000000000016,-0.027247339635400606
-0.01970000000000005,-0.02736051653938981
-0.020700000000000163,-0.02738881076538711
-0.021700000000000053,-0.027445399217381712
-0.022700000000000164,-0.027516134782374965
-0.023700000000000054,-0.027601017460366868
-0.024700000000000166,-0.02770004725135742
-0.025700000000000056,-0.02775663570335202
-0.026700000000000168,-0.027813224155346622
-0.027700000000000058,-0.027869812607341227
-0.02870000000000017,-0.027954695285333123
-0.02970000000000006,-0.028082019302320977
-0.03070000000000017,-0.028124460641316927
-0.03170000000000006,-0.028166901980312884
-0.03270000000000017,-0.028237637545306133
-0.03370000000000006,-0.028308373110299385
-0.034700000000000175,-0.028421550014288588
-0.035700000000000065,-0.02849228557928184
-0.03670000000000018,-0.028534726918277787
-0.03770000000000007,-0.02860546248327104
-0.03870000000000018,-0.028690345161262943
-0.03970000000000007,-0.02880352206525215
-0.04070000000000018,-0.028874257630245398
-0.04170000000000007,-0.028874257630245398
-0.04270000000000018,-0.02893084608224
-0.04370000000000007,-0.029044022986229205
-0.044700000000000184,-0.029157199890218404
-0.045700000000000074,-0.02922793545521166
-0.046700000000000186,-0.02927037679420761
-0.047700000000000076,-0.029326965246202208
-0.04870000000000019,-0.029425995037192763
-0.04970000000000008,-0.029525024828183317
-0.05070000000000019,-0.029581613280177915
-0.05170000000000008,-0.029624054619173872
-0.05270000000000019,-0.02968064307116847
-0.05370000000000008,-0.029779672862159025
-0.05470000000000019,-0.02986455554015093
-0.05570000000000008,-0.029921143992145526
-0.056700000000000195,-0.029991879557138775
-0.057700000000000085,-0.030034320896134725
-0.058700000000000196,-0.03014749780012393
-0.059700000000000086,-0.030246527591114486
-0.0607000000000002,-0.030274821817111785
-0.06170000000000009,-0.030373851608102336
-0.0627000000000002,-0.030416292947098293
-0.06370000000000009,-0.030487028512091542
