Dec. 13, 2024   01:33:31
Cyclic Voltammetry
File: c:/users/guazh/data/banditlqround7_x0exp59_r20/2024-12-09-exp643\exp643-2024-12-13t01_28_38-arkoh\exp643_cv_50mvs_efin_-1400mv.bin
Data Source:  Experiment
Instrument Model:  CHI760E
Header: CV ran at 50 mVs
Note: 

Init E (V) = -1
High E (V) = -1
Low E (V) = -1.4
Final E (V) = -1
Init P/N = N
Scan Rate (V/s) = 0.05
Segment = 7
Sample Interval (V) = 0.001
Quiet Time (sec) = 60
Sensitivity (A/V) = 0.001
Comp R (ohm) = 1.4

Results:

Channel 1:
Segment 1:

Segment 2:

Segment 3:

Segment 4:

Segment 5:

Segment 6:

Segment 7:

Potential/V, Current/A

-1.000, 4.544e-5
-1.001, 1.135e-4
-1.002, 1.451e-4
-1.003, 1.602e-4
-1.004, 1.669e-4
-1.005, 1.683e-4
-1.006, 1.701e-4
-1.007, 1.730e-4
-1.008, 1.750e-4
-1.009, 1.758e-4
-1.010, 1.748e-4
-1.011, 1.748e-4
-1.012, 1.767e-4
-1.013, 1.780e-4
-1.014, 1.779e-4
-1.015, 1.767e-4
-1.016, 1.759e-4
-1.017, 1.778e-4
-1.018, 1.793e-4
-1.019, 1.790e-4
-1.020, 1.780e-4
-1.021, 1.767e-4
-1.022, 1.785e-4
-1.023, 1.803e-4
-1.024, 1.804e-4
-1.025, 1.786e-4
-1.026, 1.774e-4
-1.027, 1.785e-4
-1.028, 1.804e-4
-1.029, 1.795e-4
-1.030, 1.782e-4
-1.031, 1.778e-4
-1.032, 1.789e-4
-1.033, 1.808e-4
-1.034, 1.800e-4
-1.035, 1.780e-4
-1.036, 1.777e-4
-1.037, 1.788e-4
-1.038, 1.808e-4
-1.039, 1.803e-4
-1.040, 1.780e-4
-1.041, 1.778e-4
-1.042, 1.790e-4
-1.043, 1.802e-4
-1.044, 1.801e-4
-1.045, 1.779e-4
-1.046, 1.773e-4
-1.047, 1.789e-4
-1.048, 1.801e-4
-1.049, 1.801e-4
-1.050, 1.789e-4
-1.051, 1.776e-4
-1.052, 1.793e-4
-1.053, 1.803e-4
-1.054, 1.801e-4
-1.055, 1.785e-4
-1.056, 1.776e-4
-1.057, 1.791e-4
-1.058, 1.809e-4
-1.059, 1.800e-4
-1.060, 1.785e-4
-1.061, 1.775e-4
-1.062, 1.788e-4
-1.063, 1.807e-4
-1.064, 1.800e-4
-1.065, 1.780e-4
-1.066, 1.778e-4
-1.067, 1.792e-4
-1.068, 1.809e-4
-1.069, 1.800e-4
-1.070, 1.786e-4
-1.071, 1.783e-4
-1.072, 1.790e-4
-1.073, 1.808e-4
-1.074, 1.805e-4
-1.075, 1.794e-4
-1.076, 1.790e-4
-1.077, 1.796e-4
-1.078, 1.806e-4
-1.079, 1.806e-4
-1.080, 1.788e-4
-1.081, 1.786e-4
-1.082, 1.795e-4
-1.083, 1.809e-4
-1.084, 1.810e-4
-1.085, 1.788e-4
-1.086, 1.788e-4
-1.087, 1.801e-4
-1.088, 1.813e-4
-1.089, 1.814e-4
-1.090, 1.796e-4
-1.091, 1.788e-4
-1.092, 1.805e-4
-1.093, 1.815e-4
-1.094, 1.816e-4
-1.095, 1.801e-4
-1.096, 1.789e-4
-1.097, 1.805e-4
-1.098, 1.822e-4
-1.099, 1.820e-4
-1.100, 1.807e-4
-1.101, 1.796e-4
-1.102, 1.810e-4
-1.103, 1.831e-4
-1.104, 1.820e-4
-1.105, 1.804e-4
-1.106, 1.801e-4
-1.107, 1.812e-4
-1.108, 1.833e-4
-1.109, 1.829e-4
-1.110, 1.815e-4
-1.111, 1.813e-4
-1.112, 1.822e-4
-1.113, 1.841e-4
-1.114, 1.837e-4
-1.115, 1.819e-4
-1.116, 1.819e-4
-1.117, 1.825e-4
-1.118, 1.849e-4
-1.119, 1.849e-4
-1.120, 1.828e-4
-1.121, 1.828e-4
-1.122, 1.844e-4
-1.123, 1.857e-4
-1.124, 1.858e-4
-1.125, 1.836e-4
-1.126, 1.834e-4
-1.127, 1.853e-4
-1.128, 1.863e-4
-1.129, 1.863e-4
-1.130, 1.850e-4
-1.131, 1.843e-4
-1.132, 1.864e-4
-1.133, 1.875e-4
-1.134, 1.877e-4
-1.135, 1.865e-4
-1.136, 1.858e-4
-1.137, 1.873e-4
-1.138, 1.893e-4
-1.139, 1.889e-4
-1.140, 1.880e-4
-1.141, 1.870e-4
-1.142, 1.888e-4
-1.143, 1.913e-4
-1.144, 1.909e-4
-1.145, 1.894e-4
-1.146, 1.890e-4
-1.147, 1.906e-4
-1.148, 1.928e-4
-1.149, 1.924e-4
-1.150, 1.913e-4
-1.151, 1.913e-4
-1.152, 1.925e-4
-1.153, 1.946e-4
-1.154, 1.946e-4
-1.155, 1.932e-4
-1.156, 1.936e-4
-1.157, 1.949e-4
-1.158, 1.969e-4
-1.159, 1.974e-4
-1.160, 1.956e-4
-1.161, 1.956e-4
-1.162, 1.975e-4
-1.163, 1.998e-4
-1.164, 2.005e-4
-1.165, 1.986e-4
-1.166, 1.987e-4
-1.167, 2.008e-4
-1.168, 2.028e-4
-1.169, 2.033e-4
-1.170, 2.019e-4
-1.171, 2.017e-4
-1.172, 2.041e-4
-1.173, 2.062e-4
-1.174, 2.071e-4
-1.175, 2.062e-4
-1.176, 2.058e-4
-1.177, 2.091e-4
-1.178, 2.116e-4
-1.179, 2.113e-4
-1.180, 2.105e-4
-1.181, 2.102e-4
-1.182, 2.130e-4
-1.183, 2.161e-4
-1.184, 2.159e-4
-1.185, 2.160e-4
-1.186, 2.162e-4
-1.187, 2.183e-4
-1.188, 2.216e-4
-1.189, 2.217e-4
-1.190, 2.218e-4
-1.191, 2.226e-4
-1.192, 2.248e-4
-1.193, 2.276e-4
-1.194, 2.291e-4
-1.195, 2.284e-4
-1.196, 2.294e-4
-1.197, 2.319e-4
-1.198, 2.355e-4
-1.199, 2.368e-4
-1.200, 2.363e-4
-1.201, 2.377e-4
-1.202, 2.408e-4
-1.203, 2.446e-4
-1.204, 2.464e-4
-1.205, 2.460e-4
-1.206, 2.476e-4
-1.207, 2.512e-4
-1.208, 2.546e-4
-1.209, 2.567e-4
-1.210, 2.570e-4
-1.211, 2.583e-4
-1.212, 2.623e-4
-1.213, 2.662e-4
-1.214, 2.689e-4
-1.215, 2.699e-4
-1.216, 2.720e-4
-1.217, 2.765e-4
-1.218, 2.809e-4
-1.219, 2.835e-4
-1.220, 2.852e-4
-1.221, 2.871e-4
-1.222, 2.920e-4
-1.223, 2.971e-4
-1.224, 2.999e-4
-1.225, 3.020e-4
-1.226, 3.050e-4
-1.227, 3.105e-4
-1.228, 3.168e-4
-1.229, 3.225e-4
-1.230, 3.239e-4
-1.231, 3.269e-4
-1.232, 3.322e-4
-1.233, 3.388e-4
-1.234, 3.426e-4
-1.235, 3.461e-4
-1.236, 3.504e-4
-1.237, 3.568e-4
-1.238, 3.641e-4
-1.239, 3.700e-4
-1.240, 3.732e-4
-1.241, 3.780e-4
-1.242, 3.858e-4
-1.243, 3.937e-4
-1.244, 4.005e-4
-1.245, 4.046e-4
-1.246, 4.110e-4
-1.247, 4.198e-4
-1.248, 4.283e-4
-1.249, 4.353e-4
-1.250, 4.417e-4
-1.251, 4.486e-4
-1.252, 4.585e-4
-1.253, 4.682e-4
-1.254, 4.775e-4
-1.255, 4.846e-4
-1.256, 4.921e-4
-1.257, 5.027e-4
-1.258, 5.138e-4
-1.259, 5.236e-4
-1.260, 5.325e-4
-1.261, 5.429e-4
-1.262, 5.551e-4
-1.263, 5.684e-4
-1.264, 5.791e-4
-1.265, 5.886e-4
-1.266, 5.996e-4
-1.267, 6.138e-4
-1.268, 6.293e-4
-1.269, 6.416e-4
-1.270, 6.534e-4
-1.271, 6.672e-4
-1.272, 6.824e-4
-1.273, 6.989e-4
-1.274, 7.127e-4
-1.275, 7.254e-4
-1.276, 7.411e-4
-1.277, 7.583e-4
-1.278, 7.766e-4
-1.279, 7.941e-4
-1.280, 8.113e-4
-1.281, 8.279e-4
-1.282, 8.470e-4
-1.283, 8.669e-4
-1.284, 8.865e-4
-1.285, 9.038e-4
-1.286, 9.229e-4
-1.287, 9.451e-4
-1.288, 9.676e-4
-1.289, 9.887e-4
-1.290, 1.009e-3
-1.291, 1.032e-3
-1.292, 1.057e-3
-1.293, 1.080e-3
-1.294, 1.104e-3
-1.295, 1.127e-3
-1.296, 1.152e-3
-1.297, 1.180e-3
-1.298, 1.207e-3
-1.299, 1.233e-3
-1.300, 1.259e-3
-1.301, 1.287e-3
-1.302, 1.316e-3
-1.303, 1.347e-3
-1.304, 1.374e-3
-1.305, 1.403e-3
-1.306, 1.433e-3
-1.307, 1.466e-3
-1.308, 1.500e-3
-1.309, 1.533e-3
-1.310, 1.565e-3
-1.311, 1.598e-3
-1.312, 1.632e-3
-1.313, 1.669e-3
-1.314, 1.705e-3
-1.315, 1.739e-3
-1.316, 1.776e-3
-1.317, 1.814e-3
-1.318, 1.853e-3
-1.319, 1.893e-3
-1.320, 1.929e-3
-1.321, 1.968e-3
-1.322, 2.010e-3
-1.323, 2.051e-3
-1.324, 2.094e-3
-1.325, 2.134e-3
-1.326, 2.173e-3
-1.327, 2.218e-3
-1.328, 2.260e-3
-1.329, 2.307e-3
-1.330, 2.351e-3
-1.331, 2.397e-3
-1.332, 2.445e-3
-1.333, 2.493e-3
-1.334, 2.539e-3
-1.335, 2.587e-3
-1.336, 2.632e-3
-1.337, 2.680e-3
-1.338, 2.735e-3
-1.339, 2.786e-3
-1.340, 2.836e-3
-1.341, 2.887e-3
-1.342, 2.939e-3
-1.343, 2.992e-3
-1.344, 3.044e-3
-1.345, 3.096e-3
-1.346, 3.147e-3
-1.347, 3.202e-3
-1.348, 3.259e-3
-1.349, 3.313e-3
-1.350, 3.368e-3
-1.351, 3.426e-3
-1.352, 3.483e-3
-1.353, 3.541e-3
-1.354, 3.598e-3
-1.355, 3.654e-3
-1.356, 3.712e-3
-1.357, 3.772e-3
-1.358, 3.832e-3
-1.359, 3.890e-3
-1.360, 3.950e-3
-1.361, 4.010e-3
-1.362, 4.073e-3
-1.363, 4.137e-3
-1.364, 4.189e-3
-1.365, 4.247e-3
-1.366, 4.310e-3
-1.367, 4.376e-3
-1.368, 4.442e-3
-1.369, 4.506e-3
-1.370, 4.566e-3
-1.371, 4.631e-3
-1.372, 4.696e-3
-1.373, 4.760e-3
-1.374, 4.824e-3
-1.375, 4.889e-3
-1.376, 4.952e-3
-1.377, 5.020e-3
-1.378, 5.088e-3
-1.379, 5.148e-3
-1.380, 5.215e-3
-1.381, 5.278e-3
-1.382, 5.349e-3
-1.383, 5.414e-3
-1.384, 5.478e-3
-1.385, 5.542e-3
-1.386, 5.609e-3
-1.387, 5.676e-3
-1.388, 5.741e-3
-1.389, 5.804e-3
-1.390, 5.858e-3
-1.391, 5.921e-3
-1.392, 5.992e-3
-1.393, 6.061e-3
-1.394, 6.125e-3
-1.395, 6.196e-3
-1.396, 6.267e-3
-1.397, 6.330e-3
-1.398, 6.390e-3
-1.399, 6.450e-3
-1.400, 6.410e-3
-1.399, 6.283e-3
-1.398, 6.188e-3
-1.397, 6.094e-3
-1.396, 6.011e-3
-1.395, 5.936e-3
-1.394, 5.850e-3
-1.393, 5.763e-3
-1.392, 5.673e-3
-1.391, 5.598e-3
-1.390, 5.513e-3
-1.389, 5.429e-3
-1.388, 5.350e-3
-1.387, 5.271e-3
-1.386, 5.194e-3
-1.385, 5.106e-3
-1.384, 5.024e-3
-1.383, 4.952e-3
-1.382, 4.884e-3
-1.381, 4.813e-3
-1.380, 4.742e-3
-1.379, 4.666e-3
-1.378, 4.595e-3
-1.377, 4.523e-3
-1.376, 4.435e-3
-1.375, 4.370e-3
-1.374, 4.308e-3
-1.373, 4.246e-3
-1.372, 4.181e-3
-1.371, 4.120e-3
-1.370, 4.054e-3
-1.369, 3.987e-3
-1.368, 3.924e-3
-1.367, 3.857e-3
-1.366, 3.790e-3
-1.365, 3.730e-3
-1.364, 3.671e-3
-1.363, 3.616e-3
-1.362, 3.559e-3
-1.361, 3.494e-3
-1.360, 3.441e-3
-1.359, 3.378e-3
-1.358, 3.322e-3
-1.357, 3.266e-3
-1.356, 3.204e-3
-1.355, 3.143e-3
-1.354, 3.084e-3
-1.353, 3.034e-3
-1.352, 2.979e-3
-1.351, 2.912e-3
-1.350, 2.856e-3
-1.349, 2.811e-3
-1.348, 2.768e-3
-1.347, 2.720e-3
-1.346, 2.668e-3
-1.345, 2.615e-3
-1.344, 2.565e-3
-1.343, 2.513e-3
-1.342, 2.466e-3
-1.341, 2.417e-3
-1.340, 2.366e-3
-1.339, 2.317e-3
-1.338, 2.273e-3
-1.337, 2.228e-3
-1.336, 2.181e-3
-1.335, 2.134e-3
-1.334, 2.088e-3
-1.333, 2.047e-3
-1.332, 2.001e-3
-1.331, 1.957e-3
-1.330, 1.913e-3
-1.329, 1.868e-3
-1.328, 1.826e-3
-1.327, 1.792e-3
-1.326, 1.754e-3
-1.325, 1.705e-3
-1.324, 1.662e-3
-1.323, 1.633e-3
-1.322, 1.601e-3
-1.321, 1.562e-3
-1.320, 1.522e-3
-1.319, 1.484e-3
-1.318, 1.451e-3
-1.317, 1.417e-3
-1.316, 1.380e-3
-1.315, 1.346e-3
-1.314, 1.309e-3
-1.313, 1.275e-3
-1.312, 1.244e-3
-1.311, 1.212e-3
-1.310, 1.181e-3
-1.309, 1.147e-3
-1.308, 1.115e-3
-1.307, 1.085e-3
-1.306, 1.053e-3
-1.305, 1.021e-3
-1.304, 9.932e-4
-1.303, 9.664e-4
-1.302, 9.388e-4
-1.301, 9.108e-4
-1.300, 8.823e-4
-1.299, 8.548e-4
-1.298, 8.285e-4
-1.297, 8.025e-4
-1.296, 7.779e-4
-1.295, 7.550e-4
-1.294, 7.322e-4
-1.293, 7.097e-4
-1.292, 6.879e-4
-1.291, 6.628e-4
-1.290, 6.366e-4
-1.289, 6.118e-4
-1.288, 5.911e-4
-1.287, 5.715e-4
-1.286, 5.514e-4
-1.285, 5.312e-4
-1.284, 5.121e-4
-1.283, 4.929e-4
-1.282, 4.746e-4
-1.281, 4.556e-4
-1.280, 4.350e-4
-1.279, 4.159e-4
-1.278, 3.990e-4
-1.277, 3.831e-4
-1.276, 3.654e-4
-1.275, 3.477e-4
-1.274, 3.313e-4
-1.273, 3.167e-4
-1.272, 3.029e-4
-1.271, 2.874e-4
-1.270, 2.713e-4
-1.269, 2.563e-4
-1.268, 2.429e-4
-1.267, 2.302e-4
-1.266, 2.171e-4
-1.265, 2.031e-4
-1.264, 1.905e-4
-1.263, 1.787e-4
-1.262, 1.677e-4
-1.261, 1.559e-4
-1.260, 1.426e-4
-1.259, 1.307e-4
-1.258, 1.214e-4
-1.257, 1.123e-4
-1.256, 1.024e-4
-1.255, 9.089e-5
-1.254, 8.013e-5
-1.253, 7.231e-5
-1.252, 6.395e-5
-1.251, 5.529e-5
-1.250, 4.514e-5
-1.249, 3.558e-5
-1.248, 2.859e-5
-1.247, 2.230e-5
-1.246, 1.419e-5
-1.245, 5.417e-6
-1.244, -2.440e-6
-1.243, -8.379e-6
-1.242, -1.393e-5
-1.241, -2.113e-5
-1.240, -2.853e-5
-1.239, -3.569e-5
-1.238, -4.086e-5
-1.237, -4.480e-5
-1.236, -5.091e-5
-1.235, -5.782e-5
-1.234, -6.374e-5
-1.233, -6.823e-5
-1.232, -7.128e-5
-1.231, -7.623e-5
-1.230, -8.267e-5
-1.229, -8.993e-5
-1.228, -9.290e-5
-1.227, -9.483e-5
-1.226, -9.822e-5
-1.225, -1.038e-4
-1.224, -1.085e-4
-1.223, -1.108e-4
-1.222, -1.130e-4
-1.221, -1.160e-4
-1.220, -1.216e-4
-1.219, -1.254e-4
-1.218, -1.273e-4
-1.217, -1.289e-4
-1.216, -1.314e-4
-1.215, -1.357e-4
-1.214, -1.389e-4
-1.213, -1.408e-4
-1.212, -1.418e-4
-1.211, -1.442e-4
-1.210, -1.478e-4
-1.209, -1.515e-4
-1.208, -1.521e-4
-1.207, -1.527e-4
-1.206, -1.550e-4
-1.205, -1.579e-4
-1.204, -1.610e-4
-1.203, -1.617e-4
-1.202, -1.616e-4
-1.201, -1.640e-4
-1.200, -1.668e-4
-1.199, -1.688e-4
-1.198, -1.696e-4
-1.197, -1.692e-4
-1.196, -1.705e-4
-1.195, -1.730e-4
-1.194, -1.750e-4
-1.193, -1.756e-4
-1.192, -1.747e-4
-1.191, -1.766e-4
-1.190, -1.798e-4
-1.189, -1.811e-4
-1.188, -1.810e-4
-1.187, -1.802e-4
-1.186, -1.812e-4
-1.185, -1.838e-4
-1.184, -1.848e-4
-1.183, -1.849e-4
-1.182, -1.844e-4
-1.181, -1.846e-4
-1.180, -1.870e-4
-1.179, -1.887e-4
-1.178, -1.887e-4
-1.177, -1.882e-4
-1.176, -1.881e-4
-1.175, -1.903e-4
-1.174, -1.916e-4
-1.173, -1.908e-4
-1.172, -1.900e-4
-1.171, -1.902e-4
-1.170, -1.922e-4
-1.169, -1.936e-4
-1.168, -1.929e-4
-1.167, -1.919e-4
-1.166, -1.930e-4
-1.165, -1.944e-4
-1.164, -1.957e-4
-1.163, -1.950e-4
-1.162, -1.936e-4
-1.161, -1.946e-4
-1.160, -1.953e-4
-1.159, -1.970e-4
-1.158, -1.967e-4
-1.157, -1.948e-4
-1.156, -1.953e-4
-1.155, -1.970e-4
-1.154, -1.981e-4
-1.153, -1.977e-4
-1.152, -1.957e-4
-1.151, -1.964e-4
-1.150, -1.982e-4
-1.149, -1.991e-4
-1.148, -1.981e-4
-1.147, -1.966e-4
-1.146, -1.971e-4
-1.145, -1.990e-4
-1.144, -1.995e-4
-1.143, -1.987e-4
-1.142, -1.975e-4
-1.141, -1.976e-4
-1.140, -1.998e-4
-1.139, -2.005e-4
-1.138, -1.992e-4
-1.137, -1.979e-4
-1.136, -1.976e-4
-1.135, -1.995e-4
-1.134, -2.011e-4
-1.133, -2.000e-4
-1.132, -1.988e-4
-1.131, -1.990e-4
-1.130, -2.001e-4
-1.129, -2.015e-4
-1.128, -1.999e-4
-1.127, -1.985e-4
-1.126, -1.991e-4
-1.125, -2.005e-4
-1.124, -2.020e-4
-1.123, -2.008e-4
-1.122, -1.991e-4
-1.121, -2.001e-4
-1.120, -2.006e-4
-1.119, -2.021e-4
-1.118, -2.018e-4
-1.117, -1.993e-4
-1.116, -1.998e-4
-1.115, -2.013e-4
-1.114, -2.019e-4
-1.113, -2.018e-4
-1.112, -2.002e-4
-1.111, -2.005e-4
-1.110, -2.023e-4
-1.109, -2.030e-4
-1.108, -2.020e-4
-1.107, -2.004e-4
-1.106, -2.006e-4
-1.105, -2.025e-4
-1.104, -2.030e-4
-1.103, -2.024e-4
-1.102, -2.012e-4
-1.101, -2.012e-4
-1.100, -2.034e-4
-1.099, -2.041e-4
-1.098, -2.033e-4
-1.097, -2.018e-4
-1.096, -2.015e-4
-1.095, -2.032e-4
-1.094, -2.043e-4
-1.093, -2.032e-4
-1.092, -2.021e-4
-1.091, -2.023e-4
-1.090, -2.039e-4
-1.089, -2.051e-4
-1.088, -2.040e-4
-1.087, -2.025e-4
-1.086, -2.029e-4
-1.085, -2.040e-4
-1.084, -2.053e-4
-1.083, -2.044e-4
-1.082, -2.027e-4
-1.081, -2.037e-4
-1.080, -2.051e-4
-1.079, -2.059e-4
-1.078, -2.053e-4
-1.077, -2.039e-4
-1.076, -2.048e-4
-1.075, -2.070e-4
-1.074, -2.073e-4
-1.073, -2.066e-4
-1.072, -2.042e-4
-1.071, -2.046e-4
-1.070, -2.065e-4
-1.069, -2.072e-4
-1.068, -2.071e-4
-1.067, -2.057e-4
-1.066, -2.057e-4
-1.065, -2.078e-4
-1.064, -2.082e-4
-1.063, -2.077e-4
-1.062, -2.064e-4
-1.061, -2.067e-4
-1.060, -2.086e-4
-1.059, -2.095e-4
-1.058, -2.089e-4
-1.057, -2.078e-4
-1.056, -2.076e-4
-1.055, -2.095e-4
-1.054, -2.109e-4
-1.053, -2.100e-4
-1.052, -2.089e-4
-1.051, -2.089e-4
-1.050, -2.109e-4
-1.049, -2.127e-4
-1.048, -2.112e-4
-1.047, -2.101e-4
-1.046, -2.106e-4
-1.045, -2.123e-4
-1.044, -2.135e-4
-1.043, -2.130e-4
-1.042, -2.116e-4
-1.041, -2.121e-4
-1.040, -2.137e-4
-1.039, -2.156e-4
-1.038, -2.157e-4
-1.037, -2.134e-4
-1.036, -2.142e-4
-1.035, -2.162e-4
-1.034, -2.171e-4
-1.033, -2.169e-4
-1.032, -2.155e-4
-1.031, -2.161e-4
-1.030, -2.185e-4
-1.029, -2.197e-4
-1.028, -2.193e-4
-1.027, -2.188e-4
-1.026, -2.183e-4
-1.025, -2.207e-4
-1.024, -2.226e-4
-1.023, -2.225e-4
-1.022, -2.211e-4
-1.021, -2.216e-4
-1.020, -2.240e-4
-1.019, -2.253e-4
-1.018, -2.253e-4
-1.017, -2.242e-4
-1.016, -2.240e-4
-1.015, -2.263e-4
-1.014, -2.282e-4
-1.013, -2.287e-4
-1.012, -2.292e-4
-1.011, -2.295e-4
-1.010, -2.314e-4
-1.009, -2.340e-4
-1.008, -2.329e-4
-1.007, -2.328e-4
-1.006, -2.339e-4
-1.005, -2.361e-4
-1.004, -2.387e-4
-1.003, -2.391e-4
-1.002, -2.384e-4
-1.001, -2.398e-4
-1.000, -1.466e-4
-1.001, -1.539e-5
-1.002, 5.062e-5
-1.003, 8.669e-5
-1.004, 1.075e-4
-1.005, 1.176e-4
-1.006, 1.251e-4
-1.007, 1.321e-4
-1.008, 1.380e-4
-1.009, 1.422e-4
-1.010, 1.435e-4
-1.011, 1.448e-4
-1.012, 1.486e-4
-1.013, 1.518e-4
-1.014, 1.539e-4
-1.015, 1.541e-4
-1.016, 1.540e-4
-1.017, 1.565e-4
-1.018, 1.593e-4
-1.019, 1.602e-4
-1.020, 1.602e-4
-1.021, 1.596e-4
-1.022, 1.615e-4
-1.023, 1.644e-4
-1.024, 1.654e-4
-1.025, 1.643e-4
-1.026, 1.635e-4
-1.027, 1.648e-4
-1.028, 1.672e-4
-1.029, 1.676e-4
-1.030, 1.665e-4
-1.031, 1.662e-4
-1.032, 1.670e-4
-1.033, 1.690e-4
-1.034, 1.695e-4
-1.035, 1.680e-4
-1.036, 1.678e-4
-1.037, 1.684e-4
-1.038, 1.704e-4
-1.039, 1.712e-4
-1.040, 1.692e-4
-1.041, 1.689e-4
-1.042, 1.698e-4
-1.043, 1.713e-4
-1.044, 1.721e-4
-1.045, 1.705e-4
-1.046, 1.698e-4
-1.047, 1.707e-4
-1.048, 1.721e-4
-1.049, 1.726e-4
-1.050, 1.714e-4
-1.051, 1.703e-4
-1.052, 1.713e-4
-1.053, 1.727e-4
-1.054, 1.735e-4
-1.055, 1.718e-4
-1.056, 1.707e-4
-1.057, 1.716e-4
-1.058, 1.733e-4
-1.059, 1.733e-4
-1.060, 1.723e-4
-1.061, 1.711e-4
-1.062, 1.721e-4
-1.063, 1.740e-4
-1.064, 1.736e-4
-1.065, 1.725e-4
-1.066, 1.715e-4
-1.067, 1.720e-4
-1.068, 1.741e-4
-1.069, 1.740e-4
-1.070, 1.730e-4
-1.071, 1.721e-4
-1.072, 1.722e-4
-1.073, 1.740e-4
-1.074, 1.744e-4
-1.075, 1.736e-4
-1.076, 1.727e-4
-1.077, 1.730e-4
-1.078, 1.743e-4
-1.079, 1.743e-4
-1.080, 1.726e-4
-1.081, 1.720e-4
-1.082, 1.726e-4
-1.083, 1.742e-4
-1.084, 1.750e-4
-1.085, 1.732e-4
-1.086, 1.724e-4
-1.087, 1.733e-4
-1.088, 1.743e-4
-1.089, 1.748e-4
-1.090, 1.730e-4
-1.091, 1.724e-4
-1.092, 1.734e-4
-1.093, 1.748e-4
-1.094, 1.754e-4
-1.095, 1.738e-4
-1.096, 1.724e-4
-1.097, 1.733e-4
-1.098, 1.748e-4
-1.099, 1.754e-4
-1.100, 1.742e-4
-1.101, 1.729e-4
-1.102, 1.739e-4
-1.103, 1.758e-4
-1.104, 1.757e-4
-1.105, 1.744e-4
-1.106, 1.734e-4
-1.107, 1.737e-4
-1.108, 1.758e-4
-1.109, 1.759e-4
-1.110, 1.752e-4
-1.111, 1.740e-4
-1.112, 1.741e-4
-1.113, 1.762e-4
-1.114, 1.767e-4
-1.115, 1.751e-4
-1.116, 1.743e-4
-1.117, 1.746e-4
-1.118, 1.764e-4
-1.119, 1.773e-4
-1.120, 1.760e-4
-1.121, 1.752e-4
-1.122, 1.757e-4
-1.123, 1.771e-4
-1.124, 1.781e-4
-1.125, 1.765e-4
-1.126, 1.757e-4
-1.127, 1.762e-4
-1.128, 1.778e-4
-1.129, 1.784e-4
-1.130, 1.775e-4
-1.131, 1.763e-4
-1.132, 1.773e-4
-1.133, 1.785e-4
-1.134, 1.794e-4
-1.135, 1.785e-4
-1.136, 1.768e-4
-1.137, 1.777e-4
-1.138, 1.797e-4
-1.139, 1.802e-4
-1.140, 1.795e-4
-1.141, 1.784e-4
-1.142, 1.793e-4
-1.143, 1.819e-4
-1.144, 1.819e-4
-1.145, 1.808e-4
-1.146, 1.798e-4
-1.147, 1.801e-4
-1.148, 1.826e-4
-1.149, 1.831e-4
-1.150, 1.822e-4
-1.151, 1.820e-4
-1.152, 1.835e-4
-1.153, 1.851e-4
-1.154, 1.855e-4
-1.155, 1.840e-4
-1.156, 1.833e-4
-1.157, 1.839e-4
-1.158, 1.861e-4
-1.159, 1.871e-4
-1.160, 1.861e-4
-1.161, 1.855e-4
-1.162, 1.864e-4
-1.163, 1.883e-4
-1.164, 1.892e-4
-1.165, 1.881e-4
-1.166, 1.876e-4
-1.167, 1.888e-4
-1.168, 1.903e-4
-1.169, 1.920e-4
-1.170, 1.915e-4
-1.171, 1.906e-4
-1.172, 1.921e-4
-1.173, 1.937e-4
-1.174, 1.950e-4
-1.175, 1.946e-4
-1.176, 1.939e-4
-1.177, 1.960e-4
-1.178, 1.983e-4
-1.179, 1.989e-4
-1.180, 1.987e-4
-1.181, 1.979e-4
-1.182, 1.992e-4
-1.183, 2.020e-4
-1.184, 2.032e-4
-1.185, 2.032e-4
-1.186, 2.027e-4
-1.187, 2.040e-4
-1.188, 2.070e-4
-1.189, 2.079e-4
-1.190, 2.080e-4
-1.191, 2.081e-4
-1.192, 2.090e-4
-1.193, 2.124e-4
-1.194, 2.145e-4
-1.195, 2.147e-4
-1.196, 2.153e-4
-1.197, 2.161e-4
-1.198, 2.194e-4
-1.199, 2.214e-4
-1.200, 2.213e-4
-1.201, 2.215e-4
-1.202, 2.238e-4
-1.203, 2.273e-4
-1.204, 2.301e-4
-1.205, 2.298e-4
-1.206, 2.307e-4
-1.207, 2.332e-4
-1.208, 2.367e-4
-1.209, 2.393e-4
-1.210, 2.402e-4
-1.211, 2.406e-4
-1.212, 2.439e-4
-1.213, 2.473e-4
-1.214, 2.505e-4
-1.215, 2.521e-4
-1.216, 2.528e-4
-1.217, 2.564e-4
-1.218, 2.600e-4
-1.219, 2.633e-4
-1.220, 2.652e-4
-1.221, 2.664e-4
-1.222, 2.704e-4
-1.223, 2.754e-4
-1.224, 2.791e-4
-1.225, 2.815e-4
-1.226, 2.834e-4
-1.227, 2.873e-4
-1.228, 2.932e-4
-1.229, 2.995e-4
-1.230, 3.008e-4
-1.231, 3.032e-4
-1.232, 3.072e-4
-1.233, 3.129e-4
-1.234, 3.181e-4
-1.235, 3.212e-4
-1.236, 3.249e-4
-1.237, 3.294e-4
-1.238, 3.363e-4
-1.239, 3.428e-4
-1.240, 3.468e-4
-1.241, 3.509e-4
-1.242, 3.565e-4
-1.243, 3.639e-4
-1.244, 3.713e-4
-1.245, 3.761e-4
-1.246, 3.809e-4
-1.247, 3.867e-4
-1.248, 3.952e-4
-1.249, 4.038e-4
-1.250, 4.097e-4
-1.251, 4.154e-4
-1.252, 4.234e-4
-1.253, 4.319e-4
-1.254, 4.409e-4
-1.255, 4.490e-4
-1.256, 4.559e-4
-1.257, 4.650e-4
-1.258, 4.749e-4
-1.259, 4.848e-4
-1.260, 4.940e-4
-1.261, 5.018e-4
-1.262, 5.125e-4
-1.263, 5.242e-4
-1.264, 5.352e-4
-1.265, 5.454e-4
-1.266, 5.552e-4
-1.267, 5.670e-4
-1.268, 5.803e-4
-1.269, 5.926e-4
-1.270, 6.042e-4
-1.271, 6.162e-4
-1.272, 6.288e-4
-1.273, 6.425e-4
-1.274, 6.581e-4
-1.275, 6.713e-4
-1.276, 6.848e-4
-1.277, 6.993e-4
-1.278, 7.166e-4
-1.279, 7.327e-4
-1.280, 7.481e-4
-1.281, 7.627e-4
-1.282, 7.794e-4
-1.283, 7.988e-4
-1.284, 8.173e-4
-1.285, 8.334e-4
-1.286, 8.501e-4
-1.287, 8.706e-4
-1.288, 8.914e-4
-1.289, 9.120e-4
-1.290, 9.312e-4
-1.291, 9.493e-4
-1.292, 9.699e-4
-1.293, 9.929e-4
-1.294, 1.017e-3
-1.295, 1.039e-3
-1.296, 1.061e-3
-1.297, 1.086e-3
-1.298, 1.111e-3
-1.299, 1.134e-3
-1.300, 1.158e-3
-1.301, 1.180e-3
-1.302, 1.205e-3
-1.303, 1.233e-3
-1.304, 1.262e-3
-1.305, 1.290e-3
-1.306, 1.317e-3
-1.307, 1.346e-3
-1.308, 1.377e-3
-1.309, 1.408e-3
-1.310, 1.436e-3
-1.311, 1.464e-3
-1.312, 1.497e-3
-1.313, 1.531e-3
-1.314, 1.565e-3
-1.315, 1.598e-3
-1.316, 1.630e-3
-1.317, 1.665e-3
-1.318, 1.699e-3
-1.319, 1.736e-3
-1.320, 1.771e-3
-1.321, 1.806e-3
-1.322, 1.842e-3
-1.323, 1.881e-3
-1.324, 1.921e-3
-1.325, 1.958e-3
-1.326, 1.996e-3
-1.327, 2.037e-3
-1.328, 2.077e-3
-1.329, 2.118e-3
-1.330, 2.157e-3
-1.331, 2.197e-3
-1.332, 2.241e-3
-1.333, 2.284e-3
-1.334, 2.331e-3
-1.335, 2.374e-3
-1.336, 2.415e-3
-1.337, 2.457e-3
-1.338, 2.503e-3
-1.339, 2.548e-3
-1.340, 2.595e-3
-1.341, 2.639e-3
-1.342, 2.688e-3
-1.343, 2.742e-3
-1.344, 2.790e-3
-1.345, 2.839e-3
-1.346, 2.886e-3
-1.347, 2.936e-3
-1.348, 2.987e-3
-1.349, 3.039e-3
-1.350, 3.090e-3
-1.351, 3.140e-3
-1.352, 3.191e-3
-1.353, 3.250e-3
-1.354, 3.303e-3
-1.355, 3.353e-3
-1.356, 3.403e-3
-1.357, 3.457e-3
-1.358, 3.518e-3
-1.359, 3.574e-3
-1.360, 3.631e-3
-1.361, 3.687e-3
-1.362, 3.743e-3
-1.363, 3.799e-3
-1.364, 3.858e-3
-1.365, 3.917e-3
-1.366, 3.979e-3
-1.367, 4.034e-3
-1.368, 4.099e-3
-1.369, 4.155e-3
-1.370, 4.214e-3
-1.371, 4.278e-3
-1.372, 4.329e-3
-1.373, 4.385e-3
-1.374, 4.450e-3
-1.375, 4.512e-3
-1.376, 4.567e-3
-1.377, 4.629e-3
-1.378, 4.699e-3
-1.379, 4.761e-3
-1.380, 4.824e-3
-1.381, 4.880e-3
-1.382, 4.949e-3
-1.383, 5.011e-3
-1.384, 5.071e-3
-1.385, 5.127e-3
-1.386, 5.191e-3
-1.387, 5.258e-3
-1.388, 5.318e-3
-1.389, 5.387e-3
-1.390, 5.458e-3
-1.391, 5.516e-3
-1.392, 5.579e-3
-1.393, 5.644e-3
-1.394, 5.705e-3
-1.395, 5.758e-3
-1.396, 5.828e-3
-1.397, 5.899e-3
-1.398, 5.957e-3
-1.399, 6.011e-3
-1.400, 5.972e-3
-1.399, 5.874e-3
-1.398, 5.788e-3
-1.397, 5.703e-3
-1.396, 5.627e-3
-1.395, 5.544e-3
-1.394, 5.469e-3
-1.393, 5.400e-3
-1.392, 5.313e-3
-1.391, 5.264e-3
-1.390, 5.179e-3
-1.389, 5.104e-3
-1.388, 5.030e-3
-1.387, 4.967e-3
-1.386, 4.889e-3
-1.385, 4.814e-3
-1.384, 4.743e-3
-1.383, 4.670e-3
-1.382, 4.603e-3
-1.381, 4.539e-3
-1.380, 4.475e-3
-1.379, 4.422e-3
-1.378, 4.355e-3
-1.377, 4.275e-3
-1.376, 4.207e-3
-1.375, 4.141e-3
-1.374, 4.073e-3
-1.373, 4.010e-3
-1.372, 3.953e-3
-1.371, 3.891e-3
-1.370, 3.837e-3
-1.369, 3.791e-3
-1.368, 3.724e-3
-1.367, 3.671e-3
-1.366, 3.612e-3
-1.365, 3.552e-3
-1.364, 3.486e-3
-1.363, 3.420e-3
-1.362, 3.364e-3
-1.361, 3.311e-3
-1.360, 3.257e-3
-1.359, 3.198e-3
-1.358, 3.145e-3
-1.357, 3.088e-3
-1.356, 3.032e-3
-1.355, 2.979e-3
-1.354, 2.926e-3
-1.353, 2.875e-3
-1.352, 2.822e-3
-1.351, 2.773e-3
-1.350, 2.736e-3
-1.349, 2.692e-3
-1.348, 2.646e-3
-1.347, 2.587e-3
-1.346, 2.538e-3
-1.345, 2.493e-3
-1.344, 2.453e-3
-1.343, 2.406e-3
-1.342, 2.364e-3
-1.341, 2.321e-3
-1.340, 2.276e-3
-1.339, 2.230e-3
-1.338, 2.188e-3
-1.337, 2.142e-3
-1.336, 2.100e-3
-1.335, 2.057e-3
-1.334, 2.012e-3
-1.333, 1.970e-3
-1.332, 1.927e-3
-1.331, 1.885e-3
-1.330, 1.842e-3
-1.329, 1.799e-3
-1.328, 1.757e-3
-1.327, 1.722e-3
-1.326, 1.683e-3
-1.325, 1.644e-3
-1.324, 1.604e-3
-1.323, 1.567e-3
-1.322, 1.530e-3
-1.321, 1.495e-3
-1.320, 1.457e-3
-1.319, 1.421e-3
-1.318, 1.382e-3
-1.317, 1.347e-3
-1.316, 1.314e-3
-1.315, 1.281e-3
-1.314, 1.247e-3
-1.313, 1.213e-3
-1.312, 1.186e-3
-1.311, 1.154e-3
-1.310, 1.122e-3
-1.309, 1.090e-3
-1.308, 1.059e-3
-1.307, 1.030e-3
-1.306, 1.003e-3
-1.305, 9.731e-4
-1.304, 9.426e-4
-1.303, 9.110e-4
-1.302, 8.838e-4
-1.301, 8.604e-4
-1.300, 8.321e-4
-1.299, 8.085e-4
-1.298, 7.812e-4
-1.297, 7.548e-4
-1.296, 7.323e-4
-1.295, 7.120e-4
-1.294, 6.918e-4
-1.293, 6.695e-4
-1.292, 6.470e-4
-1.291, 6.265e-4
-1.290, 6.034e-4
-1.289, 5.798e-4
-1.288, 5.581e-4
-1.287, 5.381e-4
-1.286, 5.200e-4
-1.285, 5.005e-4
-1.284, 4.777e-4
-1.283, 4.573e-4
-1.282, 4.405e-4
-1.281, 4.274e-4
-1.280, 4.100e-4
-1.279, 3.915e-4
-1.278, 3.733e-4
-1.277, 3.579e-4
-1.276, 3.430e-4
-1.275, 3.275e-4
-1.274, 3.109e-4
-1.273, 2.951e-4
-1.272, 2.824e-4
-1.271, 2.693e-4
-1.270, 2.547e-4
-1.269, 2.412e-4
-1.268, 2.261e-4
-1.267, 2.139e-4
-1.266, 2.031e-4
-1.265, 1.904e-4
-1.264, 1.770e-4
-1.263, 1.645e-4
-1.262, 1.543e-4
-1.261, 1.446e-4
-1.260, 1.335e-4
-1.259, 1.218e-4
-1.258, 1.112e-4
-1.257, 1.021e-4
-1.256, 9.398e-5
-1.255, 8.418e-5
-1.254, 7.326e-5
-1.253, 6.427e-5
-1.252, 5.667e-5
-1.251, 4.944e-5
-1.250, 4.120e-5
-1.249, 3.126e-5
-1.248, 2.358e-5
-1.247, 1.709e-5
-1.246, 1.109e-5
-1.245, 4.173e-6
-1.244, -4.516e-6
-1.243, -1.192e-5
-1.242, -1.695e-5
-1.241, -2.251e-5
-1.240, -2.821e-5
-1.239, -3.577e-5
-1.238, -4.214e-5
-1.237, -4.623e-5
-1.236, -5.047e-5
-1.235, -5.604e-5
-1.234, -6.246e-5
-1.233, -6.837e-5
-1.232, -7.119e-5
-1.231, -7.460e-5
-1.230, -7.936e-5
-1.229, -8.728e-5
-1.228, -9.186e-5
-1.227, -9.413e-5
-1.226, -9.602e-5
-1.225, -1.002e-4
-1.224, -1.045e-4
-1.223, -1.086e-4
-1.222, -1.112e-4
-1.221, -1.127e-4
-1.220, -1.165e-4
-1.219, -1.207e-4
-1.218, -1.244e-4
-1.217, -1.269e-4
-1.216, -1.278e-4
-1.215, -1.309e-4
-1.214, -1.349e-4
-1.213, -1.374e-4
-1.212, -1.386e-4
-1.211, -1.399e-4
-1.210, -1.421e-4
-1.209, -1.463e-4
-1.208, -1.485e-4
-1.207, -1.496e-4
-1.206, -1.503e-4
-1.205, -1.518e-4
-1.204, -1.557e-4
-1.203, -1.581e-4
-1.202, -1.584e-4
-1.201, -1.586e-4
-1.200, -1.600e-4
-1.199, -1.630e-4
-1.198, -1.653e-4
-1.197, -1.653e-4
-1.196, -1.658e-4
-1.195, -1.670e-4
-1.194, -1.695e-4
-1.193, -1.718e-4
-1.192, -1.715e-4
-1.191, -1.710e-4
-1.190, -1.726e-4
-1.189, -1.749e-4
-1.188, -1.770e-4
-1.187, -1.766e-4
-1.186, -1.759e-4
-1.185, -1.774e-4
-1.184, -1.790e-4
-1.183, -1.805e-4
-1.182, -1.804e-4
-1.181, -1.793e-4
-1.180, -1.807e-4
-1.179, -1.834e-4
-1.178, -1.848e-4
-1.177, -1.847e-4
-1.176, -1.836e-4
-1.175, -1.850e-4
-1.174, -1.867e-4
-1.173, -1.870e-4
-1.172, -1.869e-4
-1.171, -1.858e-4
-1.170, -1.862e-4
-1.169, -1.885e-4
-1.168, -1.891e-4
-1.167, -1.888e-4
-1.166, -1.879e-4
-1.165, -1.883e-4
-1.164, -1.901e-4
-1.163, -1.908e-4
-1.162, -1.901e-4
-1.161, -1.894e-4
-1.160, -1.895e-4
-1.159, -1.914e-4
-1.158, -1.927e-4
-1.157, -1.916e-4
-1.156, -1.905e-4
-1.155, -1.905e-4
-1.154, -1.925e-4
-1.153, -1.943e-4
-1.152, -1.928e-4
-1.151, -1.922e-4
-1.150, -1.930e-4
-1.149, -1.944e-4
-1.148, -1.954e-4
-1.147, -1.946e-4
-1.146, -1.931e-4
-1.145, -1.940e-4
-1.144, -1.950e-4
-1.143, -1.961e-4
-1.142, -1.953e-4
-1.141, -1.936e-4
-1.140, -1.945e-4
-1.139, -1.961e-4
-1.138, -1.968e-4
-1.137, -1.965e-4
-1.136, -1.944e-4
-1.135, -1.945e-4
-1.134, -1.966e-4
-1.133, -1.967e-4
-1.132, -1.964e-4
-1.131, -1.950e-4
-1.130, -1.951e-4
-1.129, -1.973e-4
-1.128, -1.975e-4
-1.127, -1.970e-4
-1.126, -1.959e-4
-1.125, -1.961e-4
-1.124, -1.972e-4
-1.123, -1.980e-4
-1.122, -1.974e-4
-1.121, -1.964e-4
-1.120, -1.962e-4
-1.119, -1.981e-4
-1.118, -1.995e-4
-1.117, -1.983e-4
-1.116, -1.965e-4
-1.115, -1.969e-4
-1.114, -1.986e-4
-1.113, -1.997e-4
-1.112, -1.986e-4
-1.111, -1.976e-4
-1.110, -1.980e-4
-1.109, -1.993e-4
-1.108, -2.000e-4
-1.107, -1.993e-4
-1.106, -1.980e-4
-1.105, -1.981e-4
-1.104, -1.997e-4
-1.103, -2.008e-4
-1.102, -2.005e-4
-1.101, -1.988e-4
-1.100, -1.990e-4
-1.099, -2.002e-4
-1.098, -2.011e-4
-1.097, -2.009e-4
-1.096, -1.991e-4
-1.095, -1.994e-4
-1.094, -2.010e-4
-1.093, -2.017e-4
-1.092, -2.010e-4
-1.091, -1.997e-4
-1.090, -1.999e-4
-1.089, -2.023e-4
-1.088, -2.030e-4
-1.087, -2.028e-4
-1.086, -2.011e-4
-1.085, -2.008e-4
-1.084, -2.028e-4
-1.083, -2.036e-4
-1.082, -2.025e-4
-1.081, -2.015e-4
-1.080, -2.015e-4
-1.079, -2.032e-4
-1.078, -2.043e-4
-1.077, -2.034e-4
-1.076, -2.026e-4
-1.075, -2.033e-4
-1.074, -2.043e-4
-1.073, -2.059e-4
-1.072, -2.048e-4
-1.071, -2.033e-4
-1.070, -2.035e-4
-1.069, -2.050e-4
-1.068, -2.068e-4
-1.067, -2.057e-4
-1.066, -2.041e-4
-1.065, -2.047e-4
-1.064, -2.053e-4
-1.063, -2.073e-4
-1.062, -2.075e-4
-1.061, -2.061e-4
-1.060, -2.068e-4
-1.059, -2.092e-4
-1.058, -2.094e-4
-1.057, -2.089e-4
-1.056, -2.068e-4
-1.055, -2.072e-4
-1.054, -2.086e-4
-1.053, -2.099e-4
-1.052, -2.102e-4
-1.051, -2.113e-4
-1.050, -2.113e-4
-1.049, -2.129e-4
-1.048, -2.127e-4
-1.047, -2.121e-4
-1.046, -2.112e-4
-1.045, -2.109e-4
-1.044, -2.133e-4
-1.043, -2.143e-4
-1.042, -2.140e-4
-1.041, -2.134e-4
-1.040, -2.125e-4
-1.039, -2.148e-4
-1.038, -2.165e-4
-1.037, -2.163e-4
-1.036, -2.153e-4
-1.035, -2.154e-4
-1.034, -2.168e-4
-1.033, -2.188e-4
-1.032, -2.182e-4
-1.031, -2.173e-4
-1.030, -2.179e-4
-1.029, -2.200e-4
-1.028, -2.215e-4
-1.027, -2.210e-4
-1.026, -2.200e-4
-1.025, -2.211e-4
-1.024, -2.236e-4
-1.023, -2.250e-4
-1.022, -2.271e-4
-1.021, -2.269e-4
-1.020, -2.262e-4
-1.019, -2.277e-4
-1.018, -2.290e-4
-1.017, -2.288e-4
-1.016, -2.280e-4
-1.015, -2.284e-4
-1.014, -2.304e-4
-1.013, -2.324e-4
-1.012, -2.333e-4
-1.011, -2.325e-4
-1.010, -2.335e-4
-1.009, -2.366e-4
-1.008, -2.380e-4
-1.007, -2.386e-4
-1.006, -2.389e-4
-1.005, -2.394e-4
-1.004, -2.420e-4
-1.003, -2.440e-4
-1.002, -2.446e-4
-1.001, -2.450e-4
-1.000, -1.508e-4
-1.001, -1.806e-5
-1.002, 4.686e-5
-1.003, 8.301e-5
-1.004, 1.056e-4
-1.005, 1.184e-4
-1.006, 1.256e-4
-1.007, 1.309e-4
-1.008, 1.361e-4
-1.009, 1.416e-4
-1.010, 1.451e-4
-1.011, 1.467e-4
-1.012, 1.480e-4
-1.013, 1.503e-4
-1.014, 1.540e-4
-1.015, 1.562e-4
-1.016, 1.562e-4
-1.017, 1.573e-4
-1.018, 1.593e-4
-1.019, 1.615e-4
-1.020, 1.630e-4
-1.021, 1.617e-4
-1.022, 1.615e-4
-1.023, 1.631e-4
-1.024, 1.659e-4
-1.025, 1.674e-4
-1.026, 1.663e-4
-1.027, 1.655e-4
-1.028, 1.670e-4
-1.029, 1.685e-4
-1.030, 1.693e-4
-1.031, 1.688e-4
-1.032, 1.676e-4
-1.033, 1.687e-4
-1.034, 1.708e-4
-1.035, 1.714e-4
-1.036, 1.705e-4
-1.037, 1.692e-4
-1.038, 1.702e-4
-1.039, 1.725e-4
-1.040, 1.725e-4
-1.041, 1.718e-4
-1.042, 1.705e-4
-1.043, 1.713e-4
-1.044, 1.734e-4
-1.045, 1.737e-4
-1.046, 1.723e-4
-1.047, 1.714e-4
-1.048, 1.723e-4
-1.049, 1.738e-4
-1.050, 1.745e-4
-1.051, 1.730e-4
-1.052, 1.723e-4
-1.053, 1.727e-4
-1.054, 1.744e-4
-1.055, 1.747e-4
-1.056, 1.730e-4
-1.057, 1.725e-4
-1.058, 1.727e-4
-1.059, 1.747e-4
-1.060, 1.754e-4
-1.061, 1.737e-4
-1.062, 1.729e-4
-1.063, 1.732e-4
-1.064, 1.749e-4
-1.065, 1.754e-4
-1.066, 1.739e-4
-1.067, 1.726e-4
-1.068, 1.736e-4
-1.069, 1.746e-4
-1.070, 1.752e-4
-1.071, 1.739e-4
-1.072, 1.722e-4
-1.073, 1.732e-4
-1.074, 1.752e-4
-1.075, 1.765e-4
-1.076, 1.754e-4
-1.077, 1.730e-4
-1.078, 1.736e-4
-1.079, 1.755e-4
-1.080, 1.753e-4
-1.081, 1.741e-4
-1.082, 1.731e-4
-1.083, 1.734e-4
-1.084, 1.755e-4
-1.085, 1.753e-4
-1.086, 1.742e-4
-1.087, 1.735e-4
-1.088, 1.735e-4
-1.089, 1.756e-4
-1.090, 1.760e-4
-1.091, 1.743e-4
-1.092, 1.737e-4
-1.093, 1.737e-4
-1.094, 1.753e-4
-1.095, 1.763e-4
-1.096, 1.746e-4
-1.097, 1.735e-4
-1.098, 1.741e-4
-1.099, 1.756e-4
-1.100, 1.765e-4
-1.101, 1.748e-4
-1.102, 1.737e-4
-1.103, 1.744e-4
-1.104, 1.756e-4
-1.105, 1.766e-4
-1.106, 1.752e-4
-1.107, 1.738e-4
-1.108, 1.747e-4
-1.109, 1.763e-4
-1.110, 1.770e-4
-1.111, 1.754e-4
-1.112, 1.743e-4
-1.113, 1.751e-4
-1.114, 1.766e-4
-1.115, 1.772e-4
-1.116, 1.760e-4
-1.117, 1.744e-4
-1.118, 1.753e-4
-1.119, 1.771e-4
-1.120, 1.777e-4
-1.121, 1.762e-4
-1.122, 1.755e-4
-1.123, 1.759e-4
-1.124, 1.777e-4
-1.125, 1.780e-4
-1.126, 1.770e-4
-1.127, 1.762e-4
-1.128, 1.768e-4
-1.129, 1.783e-4
-1.130, 1.793e-4
-1.131, 1.780e-4
-1.132, 1.771e-4
-1.133, 1.767e-4
-1.134, 1.788e-4
-1.135, 1.798e-4
-1.136, 1.780e-4
-1.137, 1.776e-4
-1.138, 1.781e-4
-1.139, 1.796e-4
-1.140, 1.805e-4
-1.141, 1.790e-4
-1.142, 1.785e-4
-1.143, 1.789e-4
-1.144, 1.807e-4
-1.145, 1.818e-4
-1.146, 1.810e-4
-1.147, 1.799e-4
-1.148, 1.807e-4
-1.149, 1.820e-4
-1.150, 1.830e-4
-1.151, 1.826e-4
-1.152, 1.817e-4
-1.153, 1.821e-4
-1.154, 1.837e-4
-1.155, 1.845e-4
-1.156, 1.839e-4
-1.157, 1.826e-4
-1.158, 1.833e-4
-1.159, 1.857e-4
-1.160, 1.862e-4
-1.161, 1.861e-4
-1.162, 1.852e-4
-1.163, 1.855e-4
-1.164, 1.880e-4
-1.165, 1.887e-4
-1.166, 1.878e-4
-1.167, 1.872e-4
-1.168, 1.877e-4
-1.169, 1.903e-4
-1.170, 1.916e-4
-1.171, 1.905e-4
-1.172, 1.904e-4
-1.173, 1.905e-4
-1.174, 1.930e-4
-1.175, 1.945e-4
-1.176, 1.941e-4
-1.177, 1.934e-4
-1.178, 1.955e-4
-1.179, 1.972e-4
-1.180, 1.986e-4
-1.181, 1.977e-4
-1.182, 1.973e-4
-1.183, 1.985e-4
-1.184, 2.007e-4
-1.185, 2.023e-4
-1.186, 2.020e-4
-1.187, 2.012e-4
-1.188, 2.032e-4
-1.189, 2.054e-4
-1.190, 2.072e-4
-1.191, 2.074e-4
-1.192, 2.066e-4
-1.193, 2.083e-4
-1.194, 2.108e-4
-1.195, 2.129e-4
-1.196, 2.134e-4
-1.197, 2.134e-4
-1.198, 2.149e-4
-1.199, 2.186e-4
-1.200, 2.205e-4
-1.201, 2.206e-4
-1.202, 2.204e-4
-1.203, 2.224e-4
-1.204, 2.257e-4
-1.205, 2.276e-4
-1.206, 2.285e-4
-1.207, 2.294e-4
-1.208, 2.310e-4
-1.209, 2.347e-4
-1.210, 2.379e-4
-1.211, 2.387e-4
-1.212, 2.394e-4
-1.213, 2.413e-4
-1.214, 2.453e-4
-1.215, 2.486e-4
-1.216, 2.497e-4
-1.217, 2.512e-4
-1.218, 2.537e-4
-1.219, 2.583e-4
-1.220, 2.620e-4
-1.221, 2.633e-4
-1.222, 2.650e-4
-1.223, 2.684e-4
-1.224, 2.728e-4
-1.225, 2.769e-4
-1.226, 2.790e-4
-1.227, 2.811e-4
-1.228, 2.858e-4
-1.229, 2.927e-4
-1.230, 2.956e-4
-1.231, 2.977e-4
-1.232, 2.993e-4
-1.233, 3.041e-4
-1.234, 3.101e-4
-1.235, 3.155e-4
-1.236, 3.191e-4
-1.237, 3.219e-4
-1.238, 3.272e-4
-1.239, 3.340e-4
-1.240, 3.393e-4
-1.241, 3.439e-4
-1.242, 3.470e-4
-1.243, 3.527e-4
-1.244, 3.606e-4
-1.245, 3.682e-4
-1.246, 3.727e-4
-1.247, 3.784e-4
-1.248, 3.846e-4
-1.249, 3.935e-4
-1.250, 4.000e-4
-1.251, 4.059e-4
-1.252, 4.121e-4
-1.253, 4.199e-4
-1.254, 4.293e-4
-1.255, 4.379e-4
-1.256, 4.448e-4
-1.257, 4.519e-4
-1.258, 4.607e-4
-1.259, 4.708e-4
-1.260, 4.815e-4
-1.261, 4.890e-4
-1.262, 4.974e-4
-1.263, 5.076e-4
-1.264, 5.189e-4
-1.265, 5.307e-4
-1.266, 5.403e-4
-1.267, 5.511e-4
-1.268, 5.623e-4
-1.269, 5.750e-4
-1.270, 5.863e-4
-1.271, 5.988e-4
-1.272, 6.100e-4
-1.273, 6.244e-4
-1.274, 6.387e-4
-1.275, 6.533e-4
-1.276, 6.659e-4
-1.277, 6.765e-4
-1.278, 6.922e-4
-1.279, 7.094e-4
-1.280, 7.262e-4
-1.281, 7.415e-4
-1.282, 7.554e-4
-1.283, 7.725e-4
-1.284, 7.893e-4
-1.285, 8.081e-4
-1.286, 8.243e-4
-1.287, 8.421e-4
-1.288, 8.612e-4
-1.289, 8.818e-4
-1.290, 9.020e-4
-1.291, 9.205e-4
-1.292, 9.403e-4
-1.293, 9.606e-4
-1.294, 9.833e-4
-1.295, 1.007e-3
-1.296, 1.028e-3
-1.297, 1.049e-3
-1.298, 1.073e-3
-1.299, 1.097e-3
-1.300, 1.121e-3
-1.301, 1.145e-3
-1.302, 1.168e-3
-1.303, 1.195e-3
-1.304, 1.221e-3
-1.305, 1.251e-3
-1.306, 1.278e-3
-1.307, 1.302e-3
-1.308, 1.330e-3
-1.309, 1.359e-3
-1.310, 1.388e-3
-1.311, 1.416e-3
-1.312, 1.447e-3
-1.313, 1.477e-3
-1.314, 1.511e-3
-1.315, 1.543e-3
-1.316, 1.573e-3
-1.317, 1.605e-3
-1.318, 1.639e-3
-1.319, 1.674e-3
-1.320, 1.708e-3
-1.321, 1.741e-3
-1.322, 1.776e-3
-1.323, 1.810e-3
-1.324, 1.848e-3
-1.325, 1.886e-3
-1.326, 1.922e-3
-1.327, 1.960e-3
-1.328, 1.996e-3
-1.329, 2.036e-3
-1.330, 2.076e-3
-1.331, 2.116e-3
-1.332, 2.156e-3
-1.333, 2.197e-3
-1.334, 2.241e-3
-1.335, 2.284e-3
-1.336, 2.325e-3
-1.337, 2.369e-3
-1.338, 2.411e-3
-1.339, 2.456e-3
-1.340, 2.499e-3
-1.341, 2.542e-3
-1.342, 2.585e-3
-1.343, 2.636e-3
-1.344, 2.686e-3
-1.345, 2.731e-3
-1.346, 2.778e-3
-1.347, 2.824e-3
-1.348, 2.876e-3
-1.349, 2.925e-3
-1.350, 2.978e-3
-1.351, 3.022e-3
-1.352, 3.072e-3
-1.353, 3.121e-3
-1.354, 3.175e-3
-1.355, 3.229e-3
-1.356, 3.279e-3
-1.357, 3.330e-3
-1.358, 3.384e-3
-1.359, 3.439e-3
-1.360, 3.493e-3
-1.361, 3.550e-3
-1.362, 3.603e-3
-1.363, 3.659e-3
-1.364, 3.714e-3
-1.365, 3.769e-3
-1.366, 3.823e-3
-1.367, 3.878e-3
-1.368, 3.934e-3
-1.369, 3.992e-3
-1.370, 4.049e-3
-1.371, 4.102e-3
-1.372, 4.158e-3
-1.373, 4.220e-3
-1.374, 4.275e-3
-1.375, 4.339e-3
-1.376, 4.396e-3
-1.377, 4.460e-3
-1.378, 4.520e-3
-1.379, 4.586e-3
-1.380, 4.650e-3
-1.381, 4.713e-3
-1.382, 4.771e-3
-1.383, 4.829e-3
-1.384, 4.895e-3
-1.385, 4.963e-3
-1.386, 5.022e-3
-1.387, 5.082e-3
-1.388, 5.143e-3
-1.389, 5.210e-3
-1.390, 5.270e-3
-1.391, 5.333e-3
-1.392, 5.395e-3
-1.393, 5.456e-3
-1.394, 5.518e-3
-1.395, 5.575e-3
-1.396, 5.628e-3
-1.397, 5.696e-3
-1.398, 5.763e-3
-1.399, 5.824e-3
-1.400, 5.794e-3
-1.399, 5.689e-3
-1.398, 5.602e-3
-1.397, 5.525e-3
-1.396, 5.453e-3
-1.395, 5.409e-3
-1.394, 5.332e-3
-1.393, 5.248e-3
-1.392, 5.161e-3
-1.391, 5.074e-3
-1.390, 4.997e-3
-1.389, 4.937e-3
-1.388, 4.878e-3
-1.387, 4.807e-3
-1.386, 4.743e-3
-1.385, 4.669e-3
-1.384, 4.601e-3
-1.383, 4.530e-3
-1.382, 4.472e-3
-1.381, 4.413e-3
-1.380, 4.340e-3
-1.379, 4.284e-3
-1.378, 4.210e-3
-1.377, 4.147e-3
-1.376, 4.089e-3
-1.375, 4.018e-3
-1.374, 3.953e-3
-1.373, 3.893e-3
-1.372, 3.831e-3
-1.371, 3.772e-3
-1.370, 3.716e-3
-1.369, 3.655e-3
-1.368, 3.589e-3
-1.367, 3.537e-3
-1.366, 3.483e-3
-1.365, 3.426e-3
-1.364, 3.361e-3
-1.363, 3.305e-3
-1.362, 3.244e-3
-1.361, 3.179e-3
-1.360, 3.134e-3
-1.359, 3.105e-3
-1.358, 3.079e-3
-1.357, 3.017e-3
-1.356, 2.964e-3
-1.355, 2.909e-3
-1.354, 2.858e-3
-1.353, 2.805e-3
-1.352, 2.750e-3
-1.351, 2.709e-3
-1.350, 2.654e-3
-1.349, 2.614e-3
-1.348, 2.566e-3
-1.347, 2.512e-3
-1.346, 2.467e-3
-1.345, 2.419e-3
-1.344, 2.372e-3
-1.343, 2.327e-3
-1.342, 2.288e-3
-1.341, 2.242e-3
-1.340, 2.195e-3
-1.339, 2.148e-3
-1.338, 2.108e-3
-1.337, 2.060e-3
-1.336, 2.014e-3
-1.335, 1.977e-3
-1.334, 1.940e-3
-1.333, 1.900e-3
-1.332, 1.857e-3
-1.331, 1.820e-3
-1.330, 1.780e-3
-1.329, 1.740e-3
-1.328, 1.698e-3
-1.327, 1.660e-3
-1.326, 1.624e-3
-1.325, 1.590e-3
-1.324, 1.552e-3
-1.323, 1.514e-3
-1.322, 1.475e-3
-1.321, 1.441e-3
-1.320, 1.409e-3
-1.319, 1.378e-3
-1.318, 1.339e-3
-1.317, 1.308e-3
-1.316, 1.275e-3
-1.315, 1.247e-3
-1.314, 1.219e-3
-1.313, 1.183e-3
-1.312, 1.148e-3
-1.311, 1.120e-3
-1.310, 1.089e-3
-1.309, 1.070e-3
-1.308, 1.035e-3
-1.307, 1.004e-3
-1.306, 9.758e-4
-1.305, 9.470e-4
-1.304, 9.200e-4
-1.303, 8.892e-4
-1.302, 8.656e-4
-1.301, 8.390e-4
-1.300, 8.171e-4
-1.299, 7.925e-4
-1.298, 7.689e-4
-1.297, 7.449e-4
-1.296, 7.213e-4
-1.295, 6.980e-4
-1.294, 6.752e-4
-1.293, 6.508e-4
-1.292, 6.283e-4
-1.291, 6.074e-4
-1.290, 5.888e-4
-1.289, 5.690e-4
-1.288, 5.475e-4
-1.287, 5.285e-4
-1.286, 5.089e-4
-1.285, 4.897e-4
-1.284, 4.697e-4
-1.283, 4.505e-4
-1.282, 4.326e-4
-1.281, 4.158e-4
-1.280, 3.993e-4
-1.279, 3.820e-4
-1.278, 3.649e-4
-1.277, 3.485e-4
-1.276, 3.341e-4
-1.275, 3.191e-4
-1.274, 3.043e-4
-1.273, 2.881e-4
-1.272, 2.735e-4
-1.271, 2.609e-4
-1.270, 2.483e-4
-1.269, 2.349e-4
-1.268, 2.200e-4
-1.267, 2.069e-4
-1.266, 1.955e-4
-1.265, 1.849e-4
-1.264, 1.729e-4
-1.263, 1.600e-4
-1.262, 1.484e-4
-1.261, 1.389e-4
-1.260, 1.296e-4
-1.259, 1.190e-4
-1.258, 1.080e-4
-1.257, 9.720e-5
-1.256, 8.957e-5
-1.255, 8.111e-5
-1.254, 7.198e-5
-1.253, 6.184e-5
-1.252, 5.271e-5
-1.251, 4.591e-5
-1.250, 3.932e-5
-1.249, 3.066e-5
-1.248, 2.212e-5
-1.247, 1.445e-5
-1.246, 8.142e-6
-1.245, 2.980e-6
-1.244, -4.382e-6
-1.243, -1.221e-5
-1.242, -1.921e-5
-1.241, -2.437e-5
-1.240, -2.835e-5
-1.239, -3.468e-5
-1.238, -4.180e-5
-1.237, -4.710e-5
-1.236, -5.195e-5
-1.235, -5.556e-5
-1.234, -6.066e-5
-1.233, -6.707e-5
-1.232, -7.178e-5
-1.231, -7.532e-5
-1.230, -7.831e-5
-1.229, -8.506e-5
-1.228, -9.027e-5
-1.227, -9.379e-5
-1.226, -9.591e-5
-1.225, -9.850e-5
-1.224, -1.020e-4
-1.223, -1.069e-4
-1.222, -1.109e-4
-1.221, -1.126e-4
-1.220, -1.145e-4
-1.219, -1.176e-4
-1.218, -1.219e-4
-1.217, -1.257e-4
-1.216, -1.268e-4
-1.215, -1.281e-4
-1.214, -1.310e-4
-1.213, -1.345e-4
-1.212, -1.380e-4
-1.211, -1.386e-4
-1.210, -1.394e-4
-1.209, -1.423e-4
-1.208, -1.450e-4
-1.207, -1.480e-4
-1.206, -1.486e-4
-1.205, -1.487e-4
-1.204, -1.514e-4
-1.203, -1.544e-4
-1.202, -1.565e-4
-1.201, -1.573e-4
-1.200, -1.570e-4
-1.199, -1.592e-4
-1.198, -1.623e-4
-1.197, -1.641e-4
-1.196, -1.642e-4
-1.195, -1.640e-4
-1.194, -1.655e-4
-1.193, -1.683e-4
-1.192, -1.695e-4
-1.191, -1.694e-4
-1.190, -1.693e-4
-1.189, -1.705e-4
-1.188, -1.734e-4
-1.187, -1.745e-4
-1.186, -1.745e-4
-1.185, -1.745e-4
-1.184, -1.754e-4
-1.183, -1.772e-4
-1.182, -1.792e-4
-1.181, -1.781e-4
-1.180, -1.775e-4
-1.179, -1.789e-4
-1.178, -1.811e-4
-1.177, -1.829e-4
-1.176, -1.818e-4
-1.175, -1.808e-4
-1.174, -1.817e-4
-1.173, -1.835e-4
-1.172, -1.849e-4
-1.171, -1.838e-4
-1.170, -1.830e-4
-1.169, -1.841e-4
-1.168, -1.854e-4
-1.167, -1.868e-4
-1.166, -1.865e-4
-1.165, -1.851e-4
-1.164, -1.858e-4
-1.163, -1.877e-4
-1.162, -1.883e-4
-1.161, -1.885e-4
-1.160, -1.871e-4
-1.159, -1.877e-4
-1.158, -1.899e-4
-1.157, -1.903e-4
-1.156, -1.893e-4
-1.155, -1.885e-4
-1.154, -1.886e-4
-1.153, -1.909e-4
-1.152, -1.916e-4
-1.151, -1.910e-4
-1.150, -1.896e-4
-1.149, -1.892e-4
-1.148, -1.900e-4
-1.147, -1.911e-4
-1.146, -1.895e-4
-1.145, -1.886e-4
-1.144, -1.886e-4
-1.143, -1.901e-4
-1.142, -1.914e-4
-1.141, -1.901e-4
-1.140, -1.891e-4
-1.139, -1.893e-4
-1.138, -1.908e-4
-1.137, -1.923e-4
-1.136, -1.908e-4
-1.135, -1.901e-4
-1.134, -1.902e-4
-1.133, -1.915e-4
-1.132, -1.925e-4
-1.131, -1.916e-4
-1.130, -1.899e-4
-1.129, -2.017e-4
-1.128, -2.079e-4
-1.127, -2.026e-4
-1.126, -1.985e-4
-1.125, -1.954e-4
-1.124, -1.948e-4
-1.123, -1.955e-4
-1.122, -1.960e-4
-1.121, -1.956e-4
-1.120, -1.938e-4
-1.119, -1.940e-4
-1.118, -1.959e-4
-1.117, -1.963e-4
-1.116, -1.956e-4
-1.115, -1.946e-4
-1.114, -1.948e-4
-1.113, -1.963e-4
-1.112, -1.972e-4
-1.111, -1.967e-4
-1.110, -1.953e-4
-1.109, -1.954e-4
-1.108, -1.975e-4
-1.107, -1.981e-4
-1.106, -1.970e-4
-1.105, -1.959e-4
-1.104, -1.961e-4
-1.103, -1.977e-4
-1.102, -1.988e-4
-1.101, -1.982e-4
-1.100, -1.968e-4
-1.099, -1.970e-4
-1.098, -1.984e-4
-1.097, -1.994e-4
-1.096, -1.984e-4
-1.095, -1.973e-4
-1.094, -1.979e-4
-1.093, -1.990e-4
-1.092, -1.999e-4
-1.091, -1.986e-4
-1.090, -1.975e-4
-1.089, -1.985e-4
-1.088, -1.997e-4
-1.087, -2.010e-4
-1.086, -2.007e-4
-1.085, -1.988e-4
-1.084, -1.993e-4
-1.083, -2.003e-4
-1.082, -2.014e-4
-1.081, -2.012e-4
-1.080, -1.998e-4
-1.079, -2.003e-4
-1.078, -2.029e-4
-1.077, -2.030e-4
-1.076, -2.031e-4
-1.075, -2.016e-4
-1.074, -2.019e-4
-1.073, -2.036e-4
-1.072, -2.034e-4
-1.071, -2.034e-4
-1.070, -2.022e-4
-1.069, -2.024e-4
-1.068, -2.040e-4
-1.067, -2.050e-4
-1.066, -2.046e-4
-1.065, -2.035e-4
-1.064, -2.031e-4
-1.063, -2.052e-4
-1.062, -2.065e-4
-1.061, -2.057e-4
-1.060, -2.048e-4
-1.059, -2.049e-4
-1.058, -2.064e-4
-1.057, -2.079e-4
-1.056, -2.072e-4
-1.055, -2.059e-4
-1.054, -2.064e-4
-1.053, -2.081e-4
-1.052, -2.093e-4
-1.051, -2.090e-4
-1.050, -2.079e-4
-1.049, -2.088e-4
-1.048, -2.098e-4
-1.047, -2.112e-4
-1.046, -2.110e-4
-1.045, -2.096e-4
-1.044, -2.102e-4
-1.043, -2.118e-4
-1.042, -2.128e-4
-1.041, -2.135e-4
-1.040, -2.117e-4
-1.039, -2.126e-4
-1.038, -2.145e-4
-1.037, -2.158e-4
-1.036, -2.157e-4
-1.035, -2.146e-4
-1.034, -2.148e-4
-1.033, -2.171e-4
-1.032, -2.179e-4
-1.031, -2.181e-4
-1.030, -2.172e-4
-1.029, -2.179e-4
-1.028, -2.205e-4
-1.027, -2.218e-4
-1.026, -2.215e-4
-1.025, -2.213e-4
-1.024, -2.221e-4
-1.023, -2.235e-4
-1.022, -2.253e-4
-1.021, -2.257e-4
-1.020, -2.246e-4
-1.019, -2.255e-4
-1.018, -2.275e-4
-1.017, -2.302e-4
-1.016, -2.302e-4
-1.015, -2.290e-4
-1.014, -2.300e-4
-1.013, -2.319e-4
-1.012, -2.344e-4
-1.011, -2.348e-4
-1.010, -2.349e-4
-1.009, -2.359e-4
-1.008, -2.381e-4
-1.007, -2.403e-4
-1.006, -2.413e-4
-1.005, -2.413e-4
-1.004, -2.426e-4
-1.003, -2.457e-4
-1.002, -2.485e-4
-1.001, -2.492e-4
