Potential V vs RHE, Current mA cm-2
0.05339999999999995,-0.1496764555257209
0.05239999999999995,-0.1540620605553025
0.051399999999999946,-0.15575971411514053
0.050399999999999945,-0.15646706976507307
0.049399999999999944,-0.15689148315503257
0.04839999999999994,-0.15731589654499206
0.04739999999999994,-0.15759883880496509
0.04639999999999994,-0.15788178106493808
0.04539999999999994,-0.1583061944548976
0.04439999999999994,-0.1585891367148706
0.04339999999999994,-0.1588720789748436
0.04239999999999994,-0.15901355010483012
0.04139999999999994,-0.15929649236480314
0.040399999999999936,-0.15957943462477614
0.039399999999999935,-0.15972090575476264
0.038399999999999934,-0.15986237688474914
0.03739999999999993,-0.16014531914472213
0.03639999999999993,-0.16042826140469515
0.03539999999999993,-0.16071120366466815
0.03439999999999993,-0.16085267479465465
0.03339999999999993,-0.16099414592464115
0.03239999999999993,-0.16127708818461417
0.03139999999999993,-0.1615600304445872
0.030399999999999927,-0.1618429727045602
0.029399999999999926,-0.1619844438345467
0.028399999999999925,-0.16212591496453319
0.027399999999999924,-0.1622673860945197
0.026399999999999924,-0.1625503283544927
0.025399999999999923,-0.1626917994844792
0.024399999999999922,-0.1628332706144657
0.02339999999999992,-0.16311621287443873
0.02239999999999992,-0.16339915513441172
0.02139999999999992,-0.16354062626439822
0.020399999999999918,-0.16368209739438472
0.019399999999999917,-0.16368209739438472
0.018399999999999916,-0.16396503965435774
0.017399999999999916,-0.16424798191433077
0.016399999999999915,-0.16424798191433077
0.015399999999999914,-0.16453092417430376
0.014399999999999913,-0.16467239530429026
0.013399999999999912,-0.16509680869424978
0.012399999999999911,-0.16523827982423628
0.01139999999999991,-0.16537975095422278
0.01039999999999991,-0.1656626932141958
0.009399999999999908,-0.1658041643441823
0.008399999999999908,-0.1659456354741688
0.007399999999999907,-0.16608710660415532
0.006399999999999906,-0.16637004886412832
0.005399999999999905,-0.1666529911241013
0.004399999999999904,-0.1666529911241013
0.003399999999999903,-0.1667944622540878
0.002399999999999902,-0.16707740451406086
0.0013999999999999013,-0.16736034677403386
0.00039999999999990044,-0.16764328903400685
-0.0006000000000001005,-0.16778476016399335
-0.0016000000000001013,-0.16778476016399335
-0.0026000000000001022,-0.16806770242396638
-0.003600000000000103,-0.16835064468393937
-0.004600000000000104,-0.16849211581392587
-0.005600000000000105,-0.16849211581392587
-0.006600000000000106,-0.16863358694391237
-0.007600000000000107,-0.1689165292038854
-0.008600000000000108,-0.16919947146385841
-0.009600000000000108,-0.1693409425938449
-0.01060000000000011,-0.1693409425938449
-0.01160000000000011,-0.1693409425938449
-0.012600000000000111,-0.1696238848538179
-0.013600000000000112,-0.16990682711379093
-0.014600000000000113,-0.16990682711379093
-0.015600000000000114,-0.17004829824377743
-0.016600000000000115,-0.17018976937376393
-0.017600000000000116,-0.17033124050375043
-0.018600000000000116,-0.17047271163373692
-0.019600000000000117,-0.17061418276372342
-0.020600000000000118,-0.17061418276372342
-0.02160000000000012,-0.17075565389370992
-0.02260000000000012,-0.17089712502369644
-0.02360000000000012,-0.17103859615368294
-0.024600000000000122,-0.17132153841365594
-0.025600000000000123,-0.17132153841365594
-0.026600000000000124,-0.17132153841365594
-0.027600000000000124,-0.17160448067362896
-0.028600000000000125,-0.17188742293360199
-0.029600000000000126,-0.17202889406358848
-0.030600000000000127,-0.17202889406358848
-0.03160000000000013,-0.17217036519357498
-0.03260000000000013,-0.17231183632356148
-0.03360000000000013,-0.17259477858353447
-0.03460000000000002,-0.1728777208435075
-0.03560000000000002,-0.1728777208435075
-0.03660000000000002,-0.173019191973494
-0.03760000000000002,-0.173302134233467
-0.03860000000000002,-0.1734436053634535
-0.039600000000000024,-0.17358507649344
-0.040600000000000025,-0.1737265476234265
-0.041600000000000026,-0.173868018753413
-0.04260000000000003,-0.17400948988339954
-0.04360000000000003,-0.17429243214337253
-0.04460000000000003,-0.17429243214337253
-0.04560000000000003,-0.17443390327335903
-0.04660000000000003,-0.17457537440334553
-0.04760000000000003,-0.17485831666331855
-0.04860000000000003,-0.17499978779330505
-0.04960000000000003,-0.17528273005327805
-0.050600000000000034,-0.17528273005327805
-0.051600000000000035,-0.17542420118326454
-0.052600000000000036,-0.17556567231325104
-0.053600000000000037,-0.17584861457322407
-0.05460000000000004,-0.17584861457322407
-0.05560000000000004,-0.17599008570321056
-0.05660000000000004,-0.17599008570321056
-0.05760000000000004,-0.17613155683319706
-0.05860000000000004,-0.17655597022315658
-0.05960000000000004,-0.17655597022315658
-0.06060000000000004,-0.17655597022315658
-0.061600000000000044,-0.1766974413531431
-0.06260000000000004,-0.1769803836131161
-0.06360000000000005,-0.1772633258730891
-0.06460000000000005,-0.1774047970030756
-0.06560000000000005,-0.1774047970030756
-0.06660000000000005,-0.1774047970030756
-0.06760000000000005,-0.17768773926304862
-0.06860000000000005,-0.17797068152302162
-0.06960000000000005,-0.17797068152302162
-0.07060000000000005,-0.17797068152302162
-0.07160000000000005,-0.17811215265300812
-0.07260000000000005,-0.1782536237829946
-0.07360000000000005,-0.17853656604296764
-0.07460000000000006,-0.17867803717295414
-0.07560000000000006,-0.17881950830294063
-0.07660000000000006,-0.17881950830294063
-0.07760000000000006,-0.17896097943292713
-0.07860000000000006,-0.17924392169290015
-0.07960000000000006,-0.17938539282288665
-0.08060000000000006,-0.17938539282288665
-0.08160000000000006,-0.17924392169290015
-0.08260000000000006,-0.17952686395287318
-0.08360000000000006,-0.17995127734283267
-0.08460000000000006,-0.17995127734283267
-0.08560000000000006,-0.18009274847281917
-0.08660000000000007,-0.18009274847281917
-0.08760000000000007,-0.18023421960280567
-0.08860000000000007,-0.1806586329927652
-0.08960000000000007,-0.1808001041227517
-0.09060000000000007,-0.1806586329927652
-0.09160000000000007,-0.1806586329927652
-0.09260000000000007,-0.1808001041227517
-0.09360000000000007,-0.18094157525273818
-0.09460000000000007,-0.18108304638272468
-0.09560000000000007,-0.18122451751271118
-0.09660000000000007,-0.18122451751271118
-0.09760000000000008,-0.18136598864269768
-0.09860000000000008,-0.18150745977268423
-0.09960000000000008,-0.18164893090267073
-0.10060000000000008,-0.18164893090267073
-0.10160000000000008,-0.18179040203265723
-0.10260000000000008,-0.18193187316264373
-0.10360000000000008,-0.18207334429263022
-0.10460000000000008,-0.18221481542261672
-0.10560000000000008,-0.18221481542261672
-0.10660000000000008,-0.18221481542261672
-0.10760000000000008,-0.18221481542261672
-0.10860000000000009,-0.18249775768258975
-0.10960000000000009,-0.18249775768258975
-0.11060000000000009,-0.18249775768258975
-0.11160000000000009,-0.18249775768258975
-0.11260000000000009,-0.18278069994256274
-0.11360000000000009,-0.18292217107254924
-0.11460000000000009,-0.18306364220253574
-0.11560000000000009,-0.18306364220253574
-0.11660000000000009,-0.18292217107254924
-0.1176000000000001,-0.18306364220253574
-0.1186000000000001,-0.18334658446250876
-0.1196000000000001,-0.18348805559249526
-0.1206000000000001,-0.18348805559249526
-0.1216000000000001,-0.18348805559249526
-0.1226000000000001,-0.18362952672248176
-0.1236000000000001,-0.18377099785246825
-0.1246000000000001,-0.18377099785246825
-0.1256000000000001,-0.18391246898245475
-0.1266000000000001,-0.18405394011244128
-0.1276000000000001,-0.18419541124242778
-0.1286000000000001,-0.1843368823724143
-0.1296000000000001,-0.1843368823724143
-0.1306000000000001,-0.1843368823724143
-0.1316000000000001,-0.1843368823724143
-0.1326000000000001,-0.1844783535024008
-0.1336000000000001,-0.1847612957623738
-0.1346000000000001,-0.1847612957623738
-0.1356000000000001,-0.1847612957623738
-0.1366000000000001,-0.1847612957623738
-0.1376000000000001,-0.1849027668923603
-0.1386000000000001,-0.1850442380223468
-0.1396000000000001,-0.1851857091523333
-0.1406000000000001,-0.1851857091523333
-0.14160000000000011,-0.18532718028231981
-0.14260000000000012,-0.1854686514123063
-0.14360000000000012,-0.1856101225422928
-0.14460000000000012,-0.1856101225422928
-0.14560000000000012,-0.1854686514123063
-0.14660000000000012,-0.1854686514123063
-0.14760000000000012,-0.1857515936722793
-0.14860000000000012,-0.1858930648022658
-0.14960000000000012,-0.1860345359322523
-0.15060000000000012,-0.1858930648022658
-0.15160000000000012,-0.1860345359322523
-0.15260000000000012,-0.1861760070622388
-0.15360000000000013,-0.18631747819222533
-0.15460000000000013,-0.18645894932221183
-0.15560000000000013,-0.18645894932221183
-0.15660000000000013,-0.18645894932221183
-0.15760000000000013,-0.18660042045219835
-0.15860000000000013,-0.18688336271217135
-0.15960000000000002,-0.18688336271217135
-0.16060000000000002,-0.18660042045219835
-0.16160000000000002,-0.18674189158218485
-0.16260000000000002,-0.18702483384215784
-0.16360000000000002,-0.18730777610213087
-0.16460000000000002,-0.18730777610213087
-0.16560000000000002,-0.18759071836210386
-0.16660000000000003,-0.18759071836210386
-0.16760000000000003,-0.18773218949209036
-0.16860000000000003,-0.18801513175206336
-0.16960000000000003,-0.18801513175206336
-0.17060000000000003,-0.18801513175206336
-0.17160000000000003,-0.18815660288204988
-0.17260000000000003,-0.18843954514202288
-0.17360000000000003,-0.18858101627200938
-0.17460000000000003,-0.18872248740199588
-0.17560000000000003,-0.18872248740199588
-0.17660000000000003,-0.18886395853198237
-0.17760000000000004,-0.18914690079195542
-0.17860000000000004,-0.18942984305192842
-0.17960000000000004,-0.18957131418191492
-0.18060000000000004,-0.18957131418191492
-0.18160000000000004,-0.18985425644188791
-0.18260000000000004,-0.1899957275718744
-0.18360000000000004,-0.19013719870186094
-0.18460000000000004,-0.19042014096183393
-0.18560000000000004,-0.19056161209182043
-0.18660000000000004,-0.19056161209182043
-0.18760000000000004,-0.19084455435179343
-0.18860000000000005,-0.19112749661176645
-0.18960000000000005,-0.19112749661176645
-0.19060000000000005,-0.19141043887173945
-0.19160000000000005,-0.19155191000172597
-0.19260000000000005,-0.19183485226169897
-0.19360000000000005,-0.192117794521672
-0.19460000000000005,-0.1922592656516585
-0.19560000000000005,-0.192400736781645
-0.19660000000000005,-0.19268367904161798
-0.19760000000000005,-0.192966621301591
-0.19860000000000005,-0.1933910346915505
-0.19960000000000006,-0.193532505821537
-0.20060000000000006,-0.1936739769515235
-0.20160000000000006,-0.19381544808151
-0.20260000000000006,-0.19409839034148305
-0.20360000000000006,-0.19438133260145604
-0.20460000000000006,-0.19466427486142904
-0.20560000000000006,-0.19480574599141554
-0.20660000000000006,-0.19494721712140206
-0.20760000000000006,-0.19523015938137506
-0.20860000000000006,-0.19565457277133455
-0.20960000000000006,-0.19593751503130757
-0.21060000000000006,-0.19607898616129407
-0.21160000000000007,-0.19636192842126707
-0.21260000000000007,-0.19678634181122662
-0.21360000000000007,-0.1972107552011861
-0.21460000000000007,-0.1973522263311726
-0.21560000000000007,-0.1973522263311726
-0.21660000000000007,-0.19777663972113213
-0.21760000000000007,-0.19820105311109162
-0.21860000000000007,-0.19862546650105112
-0.21960000000000007,-0.19876693763103764
-0.22060000000000007,-0.19876693763103764
-0.22160000000000007,-0.19904987989101067
-0.22260000000000008,-0.19947429328097016
-0.22360000000000008,-0.19989870667092968
-0.22460000000000008,-0.20018164893090268
-0.22560000000000008,-0.20032312006088918
-0.22660000000000008,-0.2007475334508487
-0.22760000000000008,-0.2010304757108217
-0.22860000000000008,-0.20131341797079472
-0.22960000000000008,-0.20173783136075424
-0.23060000000000008,-0.20216224475071373
-0.23160000000000008,-0.20258665814067325
-0.23260000000000008,-0.20301107153063278
-0.23360000000000009,-0.20343548492059227
-0.2346000000000001,-0.2038598983105518
-0.2356000000000001,-0.20428431170051128
-0.2366000000000001,-0.2044257828304978
-0.2376000000000001,-0.20499166735044383
-0.2386000000000001,-0.20541608074040332
-0.2396000000000001,-0.20569902300037635
-0.2406000000000001,-0.20612343639033584
-0.2416000000000001,-0.2065478497802954
-0.2426000000000001,-0.20711373430024138
-0.2436000000000001,-0.2075381476902009
-0.2446000000000001,-0.2079625610801604
-0.2456000000000001,-0.2082455033401334
-0.2466000000000001,-0.20852844560010642
-0.2476000000000001,-0.20909433012005244
-0.2486000000000001,-0.20966021463999845
-0.2496000000000001,-0.20994315689997145
-0.2506000000000001,-0.21022609915994445
-0.2516000000000001,-0.21065051254990397
-0.2526000000000001,-0.21121639706985
-0.2536000000000001,-0.211782281589796
-0.2546000000000001,-0.21220669497975553
-0.2556000000000001,-0.21263110836971502
-0.2566000000000001,-0.21319699288966104
-0.2576000000000001,-0.21362140627962053
-0.2586000000000001,-0.21418729079956658
-0.2596000000000001,-0.21475317531951257
-0.2606000000000001,-0.2151775887094721
-0.2616000000000001,-0.2156020020994316
-0.2626000000000001,-0.2161678866193776
-0.2636000000000001,-0.2167337711393236
-0.2646000000000001,-0.21729965565926962
-0.2656000000000001,-0.21758259791924262
-0.2666000000000001,-0.2181484824391887
-0.2676000000000001,-0.21871436695913468
-0.2686000000000001,-0.2192802514790807
-0.2696000000000001,-0.2198461359990267
-0.2706000000000001,-0.22012907825899972
-0.2716000000000001,-0.2206949627789457
-0.2726000000000001,-0.22140231842887825
-0.2736000000000001,-0.22196820294882427
-0.2746000000000001,-0.22253408746877026
-0.2756000000000001,-0.2228170297287433
-0.2766000000000001,-0.22338291424868928
-0.2776000000000001,-0.22409026989862182
-0.2786000000000001,-0.22479762554855431
-0.2796000000000001,-0.22522203893851384
-0.2806000000000001,-0.22564645232847336
-0.28160000000000013,-0.22621233684841938
-0.28260000000000013,-0.2267782213683654
-0.28360000000000013,-0.22748557701829786
-0.2846,-0.2279099904082574
-0.2856,-0.2284758749282034
-0.2866,-0.22904175944814942
-0.2876,-0.22960764396809544
-0.2886,-0.23031499961802795
-0.2896,-0.23088088413797397
-0.2906,-0.2313052975279335
-0.2916,-0.23187118204787951
-0.2926,-0.23243706656782553
-0.2936,-0.23314442221775805
-0.29460000000000003,-0.23342736447773108
-0.29560000000000003,-0.23399324899767707
-0.29660000000000003,-0.2345591335176231
-0.29760000000000003,-0.23526648916755558
-0.29860000000000003,-0.23583237368750162
-0.29960000000000003,-0.23639825820744764
-0.30060000000000003,-0.2368226715974071
-0.30160000000000003,-0.23738855611735316
-0.30260000000000004,-0.23809591176728565
-0.30360000000000004,-0.2386617962872317
-0.30460000000000004,-0.23908620967719119
-0.30560000000000004,-0.2395106230671507
-0.30660000000000004,-0.24007650758709673
-0.30760000000000004,-0.24078386323702924
-0.30860000000000004,-0.24134974775697526
-0.30960000000000004,-0.24191563227692126
-0.31060000000000004,-0.2423400456668808
-0.31160000000000004,-0.2429059301868268
-0.31260000000000004,-0.24361328583675934
-0.31360000000000005,-0.24417917035670533
-0.31460000000000005,-0.2446035837466648
-0.31560000000000005,-0.24516946826661082
-0.31660000000000005,-0.24573535278655687
-0.31760000000000005,-0.24644270843648935
-0.31860000000000005,-0.2468671218264489
-0.31960000000000005,-0.2474330063463949
-0.32060000000000005,-0.24799889086634092
-0.32160000000000005,-0.24842330425630044
-0.32260000000000005,-0.24927213103621945
-0.32360000000000005,-0.24983801555616547
-0.32460000000000006,-0.25012095781613847
-0.32560000000000006,-0.25068684233608446
-0.32660000000000006,-0.2512527268560305
-0.32760000000000006,-0.251960082505963
-0.32860000000000006,-0.2523844958959225
-0.32960000000000006,-0.25295038041586854
-0.33060000000000006,-0.25337479380582806
-0.33160000000000006,-0.25394067832577405
-0.33260000000000006,-0.25436509171573357
-0.33360000000000006,-0.25507244736566614
-0.33460000000000006,-0.2554968607556256
-0.33560000000000006,-0.25592127414558513
-0.33660000000000007,-0.25634568753554465
-0.33760000000000007,-0.25691157205549064
-0.33860000000000007,-0.2574774565754367
-0.33960000000000007,-0.25790186996539616
-0.34060000000000007,-0.2584677544853422
-0.34160000000000007,-0.25903363900528825
-0.34260000000000007,-0.25959952352523424
-0.34360000000000007,-0.26016540804518024
-0.3446000000000001,-0.26058982143513976
-0.3456000000000001,-0.2610142348250993
-0.3466000000000001,-0.2617215904750318
-0.34759999999999996,-0.2624289461249643
-0.3486000000000001,-0.26299483064491036
-0.34959999999999997,-0.26327777290488336
-0.3506000000000001,-0.26384365742482935
-0.35159999999999997,-0.26426807081478887
-0.3526000000000001,-0.2648339553347349
-0.35359999999999997,-0.2653998398546809
-0.3546000000000001,-0.2656827821146539
-0.35559999999999997,-0.2659657243746269
-0.3566000000000001,-0.2665316088945729
-0.3576,-0.26709749341451894
-0.3586000000000001,-0.26766337793446493
-0.3596,-0.26808779132442445
-0.3606000000000001,-0.26851220471438403
-0.3616,-0.268795146974357
-0.3626000000000001,-0.269361031494303
-0.3636,-0.270209858274222
-0.3646000000000001,-0.27077574279416805
-0.3656,-0.2709172139241546
-0.3666000000000001,-0.27162456957408704
-0.3676,-0.27190751183406003
-0.3686000000000001,-0.2723319252240196
-0.3696,-0.2727563386139791
-0.3706000000000001,-0.2733222231339251
-0.3716,-0.2738881076538711
-0.3726000000000001,-0.27431252104383064
-0.3736,-0.27473693443379016
-0.3746000000000001,-0.2751613478237496
-0.3756,-0.27558576121370915
-0.3766000000000001,-0.27601017460366867
-0.3776,-0.2765760591236147
-0.3786000000000001,-0.2770004725135742
-0.3796,-0.2772834147735472
-0.3806000000000001,-0.27784929929349317
-0.3816,-0.27827371268345275
-0.3826000000000001,-0.27898106833338526
-0.3836,-0.27940548172334473
-0.3846000000000001,-0.27982989511330425
-0.3856,-0.28025430850326377
-0.3866000000000001,-0.2808201930232098
-0.3876,-0.2813860775431558
-0.3886000000000001,-0.2818104909331153
-0.3896,-0.28223490432307485
-0.3906000000000001,-0.28251784658304785
-0.3916,-0.28294225997300737
-0.3926000000000001,-0.28350814449295336
-0.3936,-0.2839325578829129
-0.3946000000000001,-0.2842155001428859
-0.3956,-0.28478138466283187
-0.3966000000000001,-0.2854887403127644
-0.3976,-0.28605462483271044
-0.3986000000000001,-0.2866205093526564
-0.3996,-0.2869034516126294
-0.4006000000000001,-0.2874693361325754
-0.4016,-0.288176691782508
-0.4026000000000001,-0.288742576302454
-0.4036,-0.28930846082239997
-0.4046000000000001,-0.28973287421235955
-0.4056,-0.290157287602319
-0.40660000000000013,-0.29072317212226506
-0.4076,-0.2914305277721975
-0.40860000000000013,-0.29199641229214357
-0.4096,-0.29256229681208956
-0.41060000000000013,-0.2931281813320356
-0.4116,-0.29355259472199513
-0.41260000000000013,-0.2941184792419411
-0.4136,-0.2946843637618871
-0.41460000000000014,-0.2955331905418062
-0.4156,-0.2959576039317657
-0.41660000000000014,-0.2963820173217252
-0.4176,-0.2972308441016442
-0.41860000000000014,-0.29793819975157676
-0.41960000000000003,-0.29850408427152275
-0.42060000000000014,-0.2989284976614822
-0.42160000000000003,-0.29977732444140126
-0.42260000000000014,-0.3006261512213203
-0.42360000000000003,-0.3011920357412663
-0.42460000000000014,-0.3018993913911988
-0.42560000000000003,-0.30232380478115833
-0.42660000000000015,-0.30303116043109085
-0.42760000000000004,-0.3035970449510369
-0.42860000000000015,-0.3041629294709829
-0.42960000000000004,-0.30487028512091535
-0.43060000000000015,-0.3055776407708479
-0.43160000000000004,-0.30628499642078044
-0.43260000000000015,-0.3071338232006995
-0.43360000000000004,-0.3076997077206455
-0.43460000000000015,-0.308124121110605
-0.43560000000000004,-0.30883147676053746
-0.43660000000000015,-0.3099632458004295
-0.43760000000000004,-0.3108120725803486
-0.43860000000000016,-0.3116608993602676
-0.43960000000000005,-0.31180237049025405
