Apr. 3, 2025   08:31:13
Cyclic Voltammetry
File: c:/users/guazh/data/banditlqround7_x0exp518_r20/2025-03-28-exp1028\exp1028-2025-04-03t08_20_14-h2koh\exp1028_cv_sr_500mvs_efin_-1500mv.bin
Data Source:  Experiment
Instrument Model:  CHI760E
Header: CV ran at 500 mVs
Note: 

Init E (V) = -1
High E (V) = -1
Low E (V) = -1.5
Final E (V) = -1
Init P/N = N
Scan Rate (V/s) = 0.5
Segment = 3
Sample Interval (V) = 0.001
Quiet Time (sec) = 2
Sensitivity (A/V) = 0.01
Comp R (ohm) = 1.9

Results:

Channel 1:
Segment 1:

Segment 2:

Segment 3:

Potential/V, Current/A

-1.000, 2.790e-5
-1.001, 1.574e-4
-1.002, 2.591e-4
-1.003, 3.393e-4
-1.004, 4.010e-4
-1.005, 4.472e-4
-1.006, 4.873e-4
-1.007, 5.212e-4
-1.008, 5.520e-4
-1.009, 5.829e-4
-1.010, 6.044e-4
-1.011, 6.260e-4
-1.012, 6.414e-4
-1.013, 6.507e-4
-1.014, 6.599e-4
-1.015, 6.661e-4
-1.016, 6.784e-4
-1.017, 6.877e-4
-1.018, 6.969e-4
-1.019, 7.062e-4
-1.020, 7.093e-4
-1.021, 7.124e-4
-1.022, 7.124e-4
-1.023, 7.154e-4
-1.024, 7.185e-4
-1.025, 7.247e-4
-1.026, 7.309e-4
-1.027, 7.370e-4
-1.028, 7.401e-4
-1.029, 7.370e-4
-1.030, 7.370e-4
-1.031, 7.370e-4
-1.032, 7.370e-4
-1.033, 7.401e-4
-1.034, 7.463e-4
-1.035, 7.524e-4
-1.036, 7.586e-4
-1.037, 7.586e-4
-1.038, 7.555e-4
-1.039, 7.524e-4
-1.040, 7.494e-4
-1.041, 7.524e-4
-1.042, 7.555e-4
-1.043, 7.586e-4
-1.044, 7.617e-4
-1.045, 7.617e-4
-1.046, 7.617e-4
-1.047, 7.555e-4
-1.048, 7.586e-4
-1.049, 7.586e-4
-1.050, 7.617e-4
-1.051, 7.648e-4
-1.052, 7.679e-4
-1.053, 7.709e-4
-1.054, 7.709e-4
-1.055, 7.648e-4
-1.056, 7.648e-4
-1.057, 7.648e-4
-1.058, 7.648e-4
-1.059, 7.679e-4
-1.060, 7.740e-4
-1.061, 7.740e-4
-1.062, 7.740e-4
-1.063, 7.740e-4
-1.064, 7.709e-4
-1.065, 7.709e-4
-1.066, 7.709e-4
-1.067, 7.740e-4
-1.068, 7.802e-4
-1.069, 7.802e-4
-1.070, 7.802e-4
-1.071, 7.802e-4
-1.072, 7.740e-4
-1.073, 7.740e-4
-1.074, 7.709e-4
-1.075, 7.740e-4
-1.076, 7.802e-4
-1.077, 7.833e-4
-1.078, 7.833e-4
-1.079, 7.833e-4
-1.080, 7.802e-4
-1.081, 7.771e-4
-1.082, 7.771e-4
-1.083, 7.771e-4
-1.084, 7.802e-4
-1.085, 7.863e-4
-1.086, 7.894e-4
-1.087, 7.863e-4
-1.088, 7.833e-4
-1.089, 7.802e-4
-1.090, 7.771e-4
-1.091, 7.802e-4
-1.092, 7.833e-4
-1.093, 7.863e-4
-1.094, 7.925e-4
-1.095, 7.925e-4
-1.096, 7.894e-4
-1.097, 7.863e-4
-1.098, 7.863e-4
-1.099, 7.833e-4
-1.100, 7.863e-4
-1.101, 7.894e-4
-1.102, 7.925e-4
-1.103, 7.956e-4
-1.104, 7.925e-4
-1.105, 7.894e-4
-1.106, 7.863e-4
-1.107, 7.863e-4
-1.108, 7.894e-4
-1.109, 7.894e-4
-1.110, 7.956e-4
-1.111, 7.987e-4
-1.112, 7.956e-4
-1.113, 7.956e-4
-1.114, 7.925e-4
-1.115, 7.925e-4
-1.116, 7.925e-4
-1.117, 7.956e-4
-1.118, 7.987e-4
-1.119, 8.018e-4
-1.120, 8.018e-4
-1.121, 7.987e-4
-1.122, 7.956e-4
-1.123, 7.925e-4
-1.124, 7.925e-4
-1.125, 7.956e-4
-1.126, 7.987e-4
-1.127, 8.048e-4
-1.128, 8.079e-4
-1.129, 8.048e-4
-1.130, 8.018e-4
-1.131, 7.956e-4
-1.132, 7.956e-4
-1.133, 7.987e-4
-1.134, 8.018e-4
-1.135, 8.048e-4
-1.136, 8.079e-4
-1.137, 8.048e-4
-1.138, 8.048e-4
-1.139, 8.018e-4
-1.140, 8.018e-4
-1.141, 8.018e-4
-1.142, 8.079e-4
-1.143, 8.110e-4
-1.144, 8.141e-4
-1.145, 8.141e-4
-1.146, 8.141e-4
-1.147, 8.079e-4
-1.148, 8.079e-4
-1.149, 8.048e-4
-1.150, 8.110e-4
-1.151, 8.141e-4
-1.152, 8.141e-4
-1.153, 8.172e-4
-1.154, 8.172e-4
-1.155, 8.172e-4
-1.156, 8.110e-4
-1.157, 8.110e-4
-1.158, 8.141e-4
-1.159, 8.203e-4
-1.160, 8.233e-4
-1.161, 8.264e-4
-1.162, 8.264e-4
-1.163, 8.264e-4
-1.164, 8.233e-4
-1.165, 8.203e-4
-1.166, 8.233e-4
-1.167, 8.233e-4
-1.168, 8.264e-4
-1.169, 8.326e-4
-1.170, 8.326e-4
-1.171, 8.295e-4
-1.172, 8.295e-4
-1.173, 8.264e-4
-1.174, 8.264e-4
-1.175, 8.295e-4
-1.176, 8.357e-4
-1.177, 8.388e-4
-1.178, 8.449e-4
-1.179, 8.418e-4
-1.180, 8.418e-4
-1.181, 8.357e-4
-1.182, 8.357e-4
-1.183, 8.388e-4
-1.184, 8.388e-4
-1.185, 8.449e-4
-1.186, 8.480e-4
-1.187, 8.449e-4
-1.188, 8.449e-4
-1.189, 8.449e-4
-1.190, 8.449e-4
-1.191, 8.449e-4
-1.192, 8.480e-4
-1.193, 8.542e-4
-1.194, 8.573e-4
-1.195, 8.573e-4
-1.196, 8.573e-4
-1.197, 8.542e-4
-1.198, 8.511e-4
-1.199, 8.511e-4
-1.200, 8.542e-4
-1.201, 8.603e-4
-1.202, 8.634e-4
-1.203, 8.696e-4
-1.204, 8.696e-4
-1.205, 8.696e-4
-1.206, 8.665e-4
-1.207, 8.665e-4
-1.208, 8.665e-4
-1.209, 8.727e-4
-1.210, 8.758e-4
-1.211, 8.788e-4
-1.212, 8.788e-4
-1.213, 8.758e-4
-1.214, 8.758e-4
-1.215, 8.788e-4
-1.216, 8.788e-4
-1.217, 8.850e-4
-1.218, 8.881e-4
-1.219, 8.943e-4
-1.220, 8.973e-4
-1.221, 8.943e-4
-1.222, 8.943e-4
-1.223, 8.943e-4
-1.224, 8.943e-4
-1.225, 9.004e-4
-1.226, 9.066e-4
-1.227, 9.097e-4
-1.228, 9.158e-4
-1.229, 9.189e-4
-1.230, 9.189e-4
-1.231, 9.189e-4
-1.232, 9.189e-4
-1.233, 9.220e-4
-1.234, 9.251e-4
-1.235, 9.313e-4
-1.236, 9.374e-4
-1.237, 9.374e-4
-1.238, 9.374e-4
-1.239, 9.374e-4
-1.240, 9.374e-4
-1.241, 9.405e-4
-1.242, 9.436e-4
-1.243, 9.498e-4
-1.244, 9.559e-4
-1.245, 9.590e-4
-1.246, 9.621e-4
-1.247, 9.590e-4
-1.248, 9.590e-4
-1.249, 9.652e-4
-1.250, 9.683e-4
-1.251, 9.744e-4
-1.252, 9.837e-4
-1.253, 9.868e-4
-1.254, 9.929e-4
-1.255, 9.929e-4
-1.256, 9.929e-4
-1.257, 9.960e-4
-1.258, 9.991e-4
-1.259, 1.008e-3
-1.260, 1.014e-3
-1.261, 1.021e-3
-1.262, 1.027e-3
-1.263, 1.027e-3
-1.264, 1.030e-3
-1.265, 1.030e-3
-1.266, 1.036e-3
-1.267, 1.042e-3
-1.268, 1.051e-3
-1.269, 1.058e-3
-1.270, 1.064e-3
-1.271, 1.067e-3
-1.272, 1.067e-3
-1.273, 1.070e-3
-1.274, 1.076e-3
-1.275, 1.082e-3
-1.276, 1.095e-3
-1.277, 1.104e-3
-1.278, 1.110e-3
-1.279, 1.116e-3
-1.280, 1.119e-3
-1.281, 1.122e-3
-1.282, 1.125e-3
-1.283, 1.132e-3
-1.284, 1.138e-3
-1.285, 1.150e-3
-1.286, 1.162e-3
-1.287, 1.169e-3
-1.288, 1.178e-3
-1.289, 1.184e-3
-1.290, 1.193e-3
-1.291, 1.199e-3
-1.292, 1.209e-3
-1.293, 1.218e-3
-1.294, 1.227e-3
-1.295, 1.233e-3
-1.296, 1.240e-3
-1.297, 1.246e-3
-1.298, 1.252e-3
-1.299, 1.258e-3
-1.300, 1.273e-3
-1.301, 1.286e-3
-1.302, 1.301e-3
-1.303, 1.314e-3
-1.304, 1.323e-3
-1.305, 1.329e-3
-1.306, 1.332e-3
-1.307, 1.338e-3
-1.308, 1.354e-3
-1.309, 1.369e-3
-1.310, 1.391e-3
-1.311, 1.409e-3
-1.312, 1.425e-3
-1.313, 1.437e-3
-1.314, 1.443e-3
-1.315, 1.452e-3
-1.316, 1.455e-3
-1.317, 1.465e-3
-1.318, 1.477e-3
-1.319, 1.486e-3
-1.320, 1.499e-3
-1.321, 1.514e-3
-1.322, 1.532e-3
-1.323, 1.548e-3
-1.324, 1.566e-3
-1.325, 1.588e-3
-1.326, 1.610e-3
-1.327, 1.628e-3
-1.328, 1.643e-3
-1.329, 1.656e-3
-1.330, 1.665e-3
-1.331, 1.674e-3
-1.332, 1.690e-3
-1.333, 1.708e-3
-1.334, 1.730e-3
-1.335, 1.754e-3
-1.336, 1.779e-3
-1.337, 1.801e-3
-1.338, 1.816e-3
-1.339, 1.832e-3
-1.340, 1.847e-3
-1.341, 1.865e-3
-1.342, 1.890e-3
-1.343, 1.912e-3
-1.344, 1.930e-3
-1.345, 1.952e-3
-1.346, 1.970e-3
-1.347, 1.989e-3
-1.348, 2.010e-3
-1.349, 2.035e-3
-1.350, 2.063e-3
-1.351, 2.091e-3
-1.352, 2.115e-3
-1.353, 2.140e-3
-1.354, 2.158e-3
-1.355, 2.180e-3
-1.356, 2.198e-3
-1.357, 2.220e-3
-1.358, 2.248e-3
-1.359, 2.279e-3
-1.360, 2.309e-3
-1.361, 2.343e-3
-1.362, 2.371e-3
-1.363, 2.399e-3
-1.364, 2.423e-3
-1.365, 2.451e-3
-1.366, 2.479e-3
-1.367, 2.510e-3
-1.368, 2.541e-3
-1.369, 2.571e-3
-1.370, 2.602e-3
-1.371, 2.627e-3
-1.372, 2.658e-3
-1.373, 2.686e-3
-1.374, 2.719e-3
-1.375, 2.756e-3
-1.376, 2.797e-3
-1.377, 2.837e-3
-1.378, 2.874e-3
-1.379, 2.904e-3
-1.380, 2.935e-3
-1.381, 2.963e-3
-1.382, 2.994e-3
-1.383, 3.028e-3
-1.384, 3.062e-3
-1.385, 3.099e-3
-1.386, 3.136e-3
-1.387, 3.176e-3
-1.388, 3.216e-3
-1.389, 3.250e-3
-1.390, 3.290e-3
-1.391, 3.333e-3
-1.392, 3.379e-3
-1.393, 3.419e-3
-1.394, 3.462e-3
-1.395, 3.503e-3
-1.396, 3.540e-3
-1.397, 3.577e-3
-1.398, 3.614e-3
-1.399, 3.657e-3
-1.400, 3.706e-3
-1.401, 3.765e-3
-1.402, 3.817e-3
-1.403, 3.860e-3
-1.404, 3.900e-3
-1.405, 3.937e-3
-1.406, 3.977e-3
-1.407, 4.017e-3
-1.408, 4.067e-3
-1.409, 4.119e-3
-1.410, 4.178e-3
-1.411, 4.233e-3
-1.412, 4.283e-3
-1.413, 4.332e-3
-1.414, 4.378e-3
-1.415, 4.424e-3
-1.416, 4.468e-3
-1.417, 4.517e-3
-1.418, 4.569e-3
-1.419, 4.622e-3
-1.420, 4.677e-3
-1.421, 4.727e-3
-1.422, 4.779e-3
-1.423, 4.834e-3
-1.424, 4.890e-3
-1.425, 4.949e-3
-1.426, 5.004e-3
-1.427, 5.060e-3
-1.428, 5.112e-3
-1.429, 5.164e-3
-1.430, 5.226e-3
-1.431, 5.282e-3
-1.432, 5.340e-3
-1.433, 5.402e-3
-1.434, 5.460e-3
-1.435, 5.522e-3
-1.436, 5.581e-3
-1.437, 5.642e-3
-1.438, 5.698e-3
-1.439, 5.753e-3
-1.440, 5.809e-3
-1.441, 5.864e-3
-1.442, 5.923e-3
-1.443, 5.984e-3
-1.444, 6.043e-3
-1.445, 6.105e-3
-1.446, 6.169e-3
-1.447, 6.237e-3
-1.448, 6.305e-3
-1.449, 6.382e-3
-1.450, 6.456e-3
-1.451, 6.527e-3
-1.452, 6.595e-3
-1.453, 6.660e-3
-1.454, 6.724e-3
-1.455, 6.783e-3
-1.456, 6.842e-3
-1.457, 6.897e-3
-1.458, 6.959e-3
-1.459, 7.023e-3
-1.460, 7.091e-3
-1.461, 7.159e-3
-1.462, 7.227e-3
-1.463, 7.298e-3
-1.464, 7.366e-3
-1.465, 7.443e-3
-1.466, 7.514e-3
-1.467, 7.594e-3
-1.468, 7.674e-3
-1.469, 7.745e-3
-1.470, 7.813e-3
-1.471, 7.878e-3
-1.472, 7.942e-3
-1.473, 8.010e-3
-1.474, 8.081e-3
-1.475, 8.155e-3
-1.476, 8.232e-3
-1.477, 8.309e-3
-1.478, 8.386e-3
-1.479, 8.463e-3
-1.480, 8.534e-3
-1.481, 8.605e-3
-1.482, 8.676e-3
-1.483, 8.756e-3
-1.484, 8.833e-3
-1.485, 8.917e-3
-1.486, 9.000e-3
-1.487, 9.077e-3
-1.488, 9.151e-3
-1.489, 9.222e-3
-1.490, 9.293e-3
-1.491, 9.370e-3
-1.492, 9.453e-3
-1.493, 9.539e-3
-1.494, 9.619e-3
-1.495, 9.700e-3
-1.496, 9.774e-3
-1.497, 9.848e-3
-1.498, 9.922e-3
-1.499, 9.999e-3
-1.500, 9.977e-3
-1.499, 9.801e-3
-1.498, 9.653e-3
-1.497, 9.524e-3
-1.496, 9.410e-3
-1.495, 9.305e-3
-1.494, 9.200e-3
-1.493, 9.101e-3
-1.492, 9.006e-3
-1.491, 8.913e-3
-1.490, 8.818e-3
-1.489, 8.725e-3
-1.488, 8.627e-3
-1.487, 8.525e-3
-1.486, 8.429e-3
-1.485, 8.328e-3
-1.484, 8.232e-3
-1.483, 8.140e-3
-1.482, 8.056e-3
-1.481, 7.973e-3
-1.480, 7.884e-3
-1.479, 7.794e-3
-1.478, 7.705e-3
-1.477, 7.622e-3
-1.476, 7.535e-3
-1.475, 7.449e-3
-1.474, 7.356e-3
-1.473, 7.270e-3
-1.472, 7.187e-3
-1.471, 7.107e-3
-1.470, 7.030e-3
-1.469, 6.956e-3
-1.468, 6.879e-3
-1.467, 6.798e-3
-1.466, 6.712e-3
-1.465, 6.623e-3
-1.464, 6.539e-3
-1.463, 6.453e-3
-1.462, 6.364e-3
-1.461, 6.277e-3
-1.460, 6.191e-3
-1.459, 6.114e-3
-1.458, 6.037e-3
-1.457, 5.969e-3
-1.456, 5.904e-3
-1.455, 5.833e-3
-1.454, 5.759e-3
-1.453, 5.688e-3
-1.452, 5.618e-3
-1.451, 5.544e-3
-1.450, 5.467e-3
-1.449, 5.389e-3
-1.448, 5.312e-3
-1.447, 5.229e-3
-1.446, 5.149e-3
-1.445, 5.069e-3
-1.444, 4.992e-3
-1.443, 4.924e-3
-1.442, 4.862e-3
-1.441, 4.801e-3
-1.440, 4.739e-3
-1.439, 4.671e-3
-1.438, 4.603e-3
-1.437, 4.526e-3
-1.436, 4.452e-3
-1.435, 4.384e-3
-1.434, 4.313e-3
-1.433, 4.246e-3
-1.432, 4.187e-3
-1.431, 4.125e-3
-1.430, 4.058e-3
-1.429, 3.996e-3
-1.428, 3.928e-3
-1.427, 3.866e-3
-1.426, 3.808e-3
-1.425, 3.749e-3
-1.424, 3.691e-3
-1.423, 3.632e-3
-1.422, 3.573e-3
-1.421, 3.515e-3
-1.420, 3.453e-3
-1.419, 3.388e-3
-1.418, 3.327e-3
-1.417, 3.268e-3
-1.416, 3.213e-3
-1.415, 3.160e-3
-1.414, 3.111e-3
-1.413, 3.056e-3
-1.412, 3.003e-3
-1.411, 2.951e-3
-1.410, 2.898e-3
-1.409, 2.840e-3
-1.408, 2.784e-3
-1.407, 2.729e-3
-1.406, 2.679e-3
-1.405, 2.627e-3
-1.404, 2.571e-3
-1.403, 2.519e-3
-1.402, 2.470e-3
-1.401, 2.420e-3
-1.400, 2.377e-3
-1.399, 2.331e-3
-1.398, 2.288e-3
-1.397, 2.242e-3
-1.396, 2.192e-3
-1.395, 2.143e-3
-1.394, 2.094e-3
-1.393, 2.047e-3
-1.392, 2.004e-3
-1.391, 1.964e-3
-1.390, 1.924e-3
-1.389, 1.881e-3
-1.388, 1.838e-3
-1.387, 1.795e-3
-1.386, 1.745e-3
-1.385, 1.702e-3
-1.384, 1.659e-3
-1.383, 1.619e-3
-1.382, 1.582e-3
-1.381, 1.545e-3
-1.380, 1.505e-3
-1.379, 1.465e-3
-1.378, 1.425e-3
-1.377, 1.384e-3
-1.376, 1.347e-3
-1.375, 1.310e-3
-1.374, 1.277e-3
-1.373, 1.246e-3
-1.372, 1.212e-3
-1.371, 1.175e-3
-1.370, 1.135e-3
-1.369, 1.098e-3
-1.368, 1.061e-3
-1.367, 1.027e-3
-1.366, 9.991e-4
-1.365, 9.713e-4
-1.364, 9.405e-4
-1.363, 9.066e-4
-1.362, 8.727e-4
-1.361, 8.388e-4
-1.360, 8.048e-4
-1.359, 7.740e-4
-1.358, 7.463e-4
-1.357, 7.185e-4
-1.356, 6.939e-4
-1.355, 6.661e-4
-1.354, 6.353e-4
-1.353, 6.044e-4
-1.352, 5.736e-4
-1.351, 5.428e-4
-1.350, 5.181e-4
-1.349, 4.935e-4
-1.348, 4.719e-4
-1.347, 4.472e-4
-1.346, 4.225e-4
-1.345, 3.948e-4
-1.344, 3.670e-4
-1.343, 3.393e-4
-1.342, 3.177e-4
-1.341, 2.961e-4
-1.340, 2.776e-4
-1.339, 2.561e-4
-1.338, 2.314e-4
-1.337, 2.067e-4
-1.336, 1.821e-4
-1.335, 1.574e-4
-1.334, 1.358e-4
-1.333, 1.173e-4
-1.332, 1.019e-4
-1.331, 8.340e-5
-1.330, 6.490e-5
-1.329, 4.332e-5
-1.328, 1.865e-5
-1.327, -2.927e-6
-1.326, -2.451e-5
-1.325, -3.992e-5
-1.324, -5.534e-5
-1.323, -7.076e-5
-1.322, -8.617e-5
-1.321, -1.078e-4
-1.320, -1.263e-4
-1.319, -1.448e-4
-1.318, -1.632e-4
-1.317, -1.787e-4
-1.316, -1.910e-4
-1.315, -2.033e-4
-1.314, -2.187e-4
-1.313, -2.342e-4
-1.312, -2.527e-4
-1.311, -2.681e-4
-1.310, -2.866e-4
-1.309, -3.020e-4
-1.308, -3.143e-4
-1.307, -3.236e-4
-1.306, -3.359e-4
-1.305, -3.482e-4
-1.304, -3.606e-4
-1.303, -3.760e-4
-1.302, -3.914e-4
-1.301, -4.037e-4
-1.300, -4.161e-4
-1.299, -4.253e-4
-1.298, -4.315e-4
-1.297, -4.407e-4
-1.296, -4.561e-4
-1.295, -4.685e-4
-1.294, -4.839e-4
-1.293, -4.962e-4
-1.292, -5.055e-4
-1.291, -5.147e-4
-1.290, -5.209e-4
-1.289, -5.301e-4
-1.288, -5.394e-4
-1.287, -5.517e-4
-1.286, -5.641e-4
-1.285, -5.733e-4
-1.284, -5.856e-4
-1.283, -5.887e-4
-1.282, -5.949e-4
-1.281, -6.011e-4
-1.280, -6.103e-4
-1.279, -6.226e-4
-1.278, -6.319e-4
-1.277, -6.442e-4
-1.276, -6.535e-4
-1.275, -6.596e-4
-1.274, -6.627e-4
-1.273, -6.658e-4
-1.272, -6.689e-4
-1.271, -6.781e-4
-1.270, -6.874e-4
-1.269, -6.966e-4
-1.268, -7.059e-4
-1.267, -7.120e-4
-1.266, -7.151e-4
-1.265, -7.182e-4
-1.264, -7.213e-4
-1.263, -7.305e-4
-1.262, -7.367e-4
-1.261, -7.460e-4
-1.260, -7.552e-4
-1.259, -7.614e-4
-1.258, -7.645e-4
-1.257, -7.645e-4
-1.256, -7.675e-4
-1.255, -7.706e-4
-1.254, -7.768e-4
-1.253, -7.830e-4
-1.252, -7.922e-4
-1.251, -7.922e-4
-1.250, -7.984e-4
-1.249, -7.984e-4
-1.248, -8.015e-4
-1.247, -8.076e-4
-1.246, -8.138e-4
-1.245, -8.230e-4
-1.244, -8.292e-4
-1.243, -8.323e-4
-1.242, -8.385e-4
-1.241, -8.354e-4
-1.240, -8.354e-4
-1.239, -8.354e-4
-1.238, -8.385e-4
-1.237, -8.446e-4
-1.236, -8.508e-4
-1.235, -8.569e-4
-1.234, -8.631e-4
-1.233, -8.631e-4
-1.232, -8.631e-4
-1.231, -8.631e-4
-1.230, -8.631e-4
-1.229, -8.693e-4
-1.228, -8.754e-4
-1.227, -8.816e-4
-1.226, -8.847e-4
-1.225, -8.847e-4
-1.224, -8.847e-4
-1.223, -8.847e-4
-1.222, -8.847e-4
-1.221, -8.878e-4
-1.220, -8.939e-4
-1.219, -8.970e-4
-1.218, -9.001e-4
-1.217, -9.001e-4
-1.216, -9.001e-4
-1.215, -9.001e-4
-1.214, -8.970e-4
-1.213, -9.001e-4
-1.212, -9.032e-4
-1.211, -9.094e-4
-1.210, -9.155e-4
-1.209, -9.155e-4
-1.208, -9.155e-4
-1.207, -9.124e-4
-1.206, -9.124e-4
-1.205, -9.124e-4
-1.204, -9.155e-4
-1.203, -9.186e-4
-1.202, -9.248e-4
-1.201, -9.309e-4
-1.200, -9.309e-4
-1.199, -9.309e-4
-1.198, -9.279e-4
-1.197, -9.279e-4
-1.196, -9.309e-4
-1.195, -9.340e-4
-1.194, -9.371e-4
-1.193, -9.402e-4
-1.192, -9.371e-4
-1.191, -9.340e-4
-1.190, -9.309e-4
-1.189, -9.309e-4
-1.188, -9.340e-4
-1.187, -9.340e-4
-1.186, -9.402e-4
-1.185, -9.464e-4
-1.184, -9.464e-4
-1.183, -9.464e-4
-1.182, -9.433e-4
-1.181, -9.433e-4
-1.180, -9.433e-4
-1.179, -9.433e-4
-1.178, -9.494e-4
-1.177, -9.525e-4
-1.176, -9.525e-4
-1.175, -9.525e-4
-1.174, -9.494e-4
-1.173, -9.464e-4
-1.172, -9.494e-4
-1.171, -9.494e-4
-1.170, -9.556e-4
-1.169, -9.587e-4
-1.168, -9.618e-4
-1.167, -9.618e-4
-1.166, -9.587e-4
-1.165, -9.587e-4
-1.164, -9.556e-4
-1.163, -9.556e-4
-1.162, -9.556e-4
-1.161, -9.587e-4
-1.160, -9.587e-4
-1.159, -9.587e-4
-1.158, -9.556e-4
-1.157, -9.525e-4
-1.156, -9.525e-4
-1.155, -9.525e-4
-1.154, -9.556e-4
-1.153, -9.618e-4
-1.152, -9.679e-4
-1.151, -9.679e-4
-1.150, -9.679e-4
-1.149, -9.649e-4
-1.148, -9.587e-4
-1.147, -9.556e-4
-1.146, -9.556e-4
-1.145, -9.587e-4
-1.144, -9.649e-4
-1.143, -9.679e-4
-1.142, -9.649e-4
-1.141, -9.649e-4
-1.140, -9.618e-4
-1.139, -9.587e-4
-1.138, -9.618e-4
-1.137, -9.649e-4
-1.136, -9.679e-4
-1.135, -9.710e-4
-1.134, -9.741e-4
-1.133, -9.679e-4
-1.132, -9.649e-4
-1.131, -9.587e-4
-1.130, -9.556e-4
-1.129, -9.587e-4
-1.128, -9.587e-4
-1.127, -9.649e-4
-1.126, -9.679e-4
-1.125, -9.679e-4
-1.124, -9.679e-4
-1.123, -9.649e-4
-1.122, -9.649e-4
-1.121, -9.679e-4
-1.120, -9.710e-4
-1.119, -9.741e-4
-1.118, -9.741e-4
-1.117, -9.741e-4
-1.116, -9.741e-4
-1.115, -9.710e-4
-1.114, -9.710e-4
-1.113, -9.710e-4
-1.112, -9.741e-4
-1.111, -9.772e-4
-1.110, -9.803e-4
-1.109, -9.834e-4
-1.108, -9.772e-4
-1.107, -9.741e-4
-1.106, -9.679e-4
-1.105, -9.679e-4
-1.104, -9.710e-4
-1.103, -9.772e-4
-1.102, -9.803e-4
-1.101, -9.834e-4
-1.100, -9.834e-4
-1.099, -9.803e-4
-1.098, -9.772e-4
-1.097, -9.772e-4
-1.096, -9.772e-4
-1.095, -9.803e-4
-1.094, -9.834e-4
-1.093, -9.895e-4
-1.092, -9.895e-4
-1.091, -9.864e-4
-1.090, -9.834e-4
-1.089, -9.834e-4
-1.088, -9.834e-4
-1.087, -9.864e-4
-1.086, -9.895e-4
-1.085, -9.895e-4
-1.084, -9.926e-4
-1.083, -9.864e-4
-1.082, -9.864e-4
-1.081, -9.834e-4
-1.080, -9.803e-4
-1.079, -9.834e-4
-1.078, -9.864e-4
-1.077, -9.895e-4
-1.076, -9.957e-4
-1.075, -9.957e-4
-1.074, -9.957e-4
-1.073, -9.957e-4
-1.072, -9.957e-4
-1.071, -9.988e-4
-1.070, -9.988e-4
-1.069, -1.002e-3
-1.068, -1.005e-3
-1.067, -1.005e-3
-1.066, -1.002e-3
-1.065, -9.988e-4
-1.064, -9.957e-4
-1.063, -9.926e-4
-1.062, -9.988e-4
-1.061, -1.002e-3
-1.060, -1.005e-3
-1.059, -1.008e-3
-1.058, -1.008e-3
-1.057, -1.008e-3
-1.056, -1.005e-3
-1.055, -1.005e-3
-1.054, -1.008e-3
-1.053, -1.011e-3
-1.052, -1.017e-3
-1.051, -1.020e-3
-1.050, -1.020e-3
-1.049, -1.017e-3
-1.048, -1.017e-3
-1.047, -1.014e-3
-1.046, -1.017e-3
-1.045, -1.020e-3
-1.044, -1.023e-3
-1.043, -1.027e-3
-1.042, -1.027e-3
-1.041, -1.027e-3
-1.040, -1.023e-3
-1.039, -1.023e-3
-1.038, -1.023e-3
-1.037, -1.030e-3
-1.036, -1.036e-3
-1.035, -1.039e-3
-1.034, -1.042e-3
-1.033, -1.042e-3
-1.032, -1.036e-3
-1.031, -1.036e-3
-1.030, -1.036e-3
-1.029, -1.036e-3
-1.028, -1.042e-3
-1.027, -1.048e-3
-1.026, -1.051e-3
-1.025, -1.054e-3
-1.024, -1.054e-3
-1.023, -1.051e-3
-1.022, -1.051e-3
-1.021, -1.054e-3
-1.020, -1.060e-3
-1.019, -1.064e-3
-1.018, -1.070e-3
-1.017, -1.070e-3
-1.016, -1.067e-3
-1.015, -1.064e-3
-1.014, -1.064e-3
-1.013, -1.067e-3
-1.012, -1.070e-3
-1.011, -1.079e-3
-1.010, -1.085e-3
-1.009, -1.091e-3
-1.008, -1.094e-3
-1.007, -1.094e-3
-1.006, -1.094e-3
-1.005, -1.094e-3
-1.004, -1.101e-3
-1.003, -1.104e-3
-1.002, -1.107e-3
-1.001, -1.110e-3
