Potential V vs RHE, Current mA cm-2
0.05339999999999995,-0.5920566789935179
0.05239999999999995,-0.6021011292225595
0.051399999999999946,-0.6084673300719523
0.050399999999999945,-0.6134188196214798
0.049399999999999944,-0.6189361936909535
0.04839999999999994,-0.6313856531297658
0.04739999999999994,-0.637327440589199
0.04639999999999994,-0.640439805448902
0.04539999999999994,-0.6435521703086051
0.04439999999999994,-0.6466645351683082
0.04339999999999994,-0.6502013134179708
0.04239999999999994,-0.6557186874874444
0.04139999999999994,-0.6605287059069856
0.040399999999999936,-0.6667534356263918
0.039399999999999935,-0.6736855209957305
0.038399999999999934,-0.6789199528052311
0.03739999999999993,-0.6838714423547588
0.03639999999999993,-0.6905205854641244
0.03539999999999993,-0.6980185553534091
0.03439999999999993,-0.7038188716828558
0.03339999999999993,-0.7100436014022619
0.03239999999999993,-0.7179659846815062
0.03139999999999993,-0.7263127813507099
0.030399999999999927,-0.7342351646299541
0.029399999999999926,-0.7417331345192387
0.028399999999999925,-0.7503628734484155
0.027399999999999924,-0.7592755546375651
0.026399999999999924,-0.767905293566742
0.025399999999999923,-0.7773838592758376
0.024399999999999922,-0.7865794827249604
0.02339999999999992,-0.7961995195640427
0.02239999999999992,-0.806385440923071
0.02139999999999992,-0.8164298911521127
0.020399999999999918,-0.8273231681610735
0.019399999999999917,-0.8379335029100613
0.018399999999999916,-0.8488267799190221
0.017399999999999916,-0.8602859414479289
0.016399999999999915,-0.8718865741068222
0.015399999999999914,-0.8839116201556749
0.014399999999999913,-0.8969269641144332
0.013399999999999912,-0.909800836943205
0.012399999999999911,-0.9232405942919228
0.01139999999999991,-0.9361144671206947
0.01039999999999991,-0.9504030512493317
0.009399999999999908,-0.9644086931179956
0.008399999999999908,-0.9803949308064704
0.007399999999999907,-0.9952493994550534
0.006399999999999906,-1.0105282814935956
0.005399999999999905,-1.02693893257203
0.004399999999999904,-1.0434910547804512
0.003399999999999903,-1.0599017058588855
0.002399999999999902,-1.078010010497158
0.0013999999999999013,-1.0948450749655518
0.00039999999999990044,-1.112528966213865
-0.0006000000000001005,-1.1316275687620427
-0.0016000000000001013,-1.1498773445303017
-0.0026000000000001022,-1.1689759470784797
-0.003600000000000103,-1.1886404341466037
-0.004600000000000104,-1.2081634500847414
-0.005600000000000105,-1.228818235062771
-0.006600000000000106,-1.250746260210679
-0.007600000000000107,-1.2722498719686275
-0.008600000000000108,-1.2941778971165354
-0.009600000000000108,-1.3166718067843897
-0.01060000000000011,-1.3395901298422033
-0.01160000000000011,-1.3633572796799358
-0.012600000000000111,-1.387265900647655
-0.013600000000000112,-1.4118818772653066
-0.014600000000000113,-1.4373466806628774
-0.015600000000000114,-1.4642261953603128
-0.016600000000000115,-1.4896909987578837
-0.017600000000000116,-1.5165705134553193
-0.018600000000000116,-1.543450028152755
-0.019600000000000117,-1.5717442541500557
-0.020600000000000118,-1.6000384801473564
-0.02160000000000012,-1.6283327061446573
-0.02260000000000012,-1.656626932141958
-0.02360000000000012,-1.6877505807389888
-0.024600000000000122,-1.7188742293360195
-0.025600000000000123,-1.7499978779330503
-0.026600000000000124,-1.781121526530081
-0.027600000000000124,-1.813659886426977
-0.028600000000000125,-1.8461982463238729
-0.029600000000000126,-1.8815660288204987
-0.030600000000000127,-1.9155191000172598
-0.03160000000000013,-1.9494721712140204
-0.03260000000000013,-1.9848399537106465
-0.03360000000000013,-2.0216224475071374
-0.03460000000000002,-2.0584049413036287
-0.03560000000000002,-2.095187435100119
-0.03660000000000002,-2.13196992889661
-0.03760000000000002,-2.1701671339929662
-0.03860000000000002,-2.2097790503891876
-0.039600000000000024,-2.250805678085273
-0.040600000000000025,-2.2904175944814944
-0.041600000000000026,-2.33144422217758
-0.04260000000000003,-2.3724708498736664
-0.04360000000000003,-2.414912188869618
-0.04460000000000003,-2.457353527865569
-0.04560000000000003,-2.49979486686152
-0.04660000000000003,-2.543650917157336
-0.04760000000000003,-2.587506967453152
-0.04860000000000003,-2.6327777290488332
-0.04960000000000003,-2.6780484906445143
-0.050600000000000034,-2.7247339635400607
-0.051600000000000035,-2.7714194364356066
-0.052600000000000036,-2.818104909331153
-0.053600000000000037,-2.866205093526564
-0.05460000000000004,-2.9143052777219753
-0.05560000000000004,-2.963820173217252
-0.05660000000000004,-3.0119203574126634
-0.05760000000000004,-3.0614352529079394
-0.05860000000000004,-3.1123648597030806
-0.05960000000000004,-3.1632944664982214
-0.06060000000000004,-3.214224073293363
-0.061600000000000044,-3.2637389687886396
-0.06260000000000004,-3.314668575583781
-0.06360000000000005,-3.3670128936787878
-0.06460000000000005,-3.4193572117737934
-0.06560000000000005,-3.4717015298688
-0.06660000000000005,-3.5240458479638064
-0.06760000000000005,-3.5778048773586777
-0.06860000000000005,-3.6315639067535495
-0.06960000000000005,-3.6853229361484203
-0.07060000000000005,-3.7404966768431565
-0.07160000000000005,-3.795670417537894
-0.07260000000000005,-3.849429446932765
-0.07360000000000005,-3.9046031876275014
-0.07460000000000006,-3.961191639622102
-0.07560000000000006,-4.01636538031684
-0.07660000000000006,-4.0715391210115754
-0.07760000000000006,-4.128127573006177
-0.07860000000000006,-4.1833013137009125
-0.07960000000000006,-4.2413044769953805
-0.08060000000000006,-4.297892928989982
-0.08160000000000006,-4.354481380984582
-0.08260000000000006,-4.411069832979184
-0.08360000000000006,-4.467658284973785
-0.08460000000000006,-4.525661448268252
-0.08560000000000006,-4.583664611562719
-0.08660000000000007,-4.6416677748571855
-0.08760000000000007,-4.699670938151652
-0.08860000000000007,-4.759088812745984
-0.08960000000000007,-4.81709197604045
-0.09060000000000007,-4.875095139334916
-0.09160000000000007,-4.934513013929248
-0.09260000000000007,-4.992516177223715
-0.09360000000000007,-5.051934051818047
-0.09460000000000007,-5.112766637712243
-0.09560000000000007,-5.173599223606439
-0.09660000000000007,-5.23301709820077
-0.09760000000000008,-5.2924349727951014
-0.09860000000000008,-5.353267558689299
-0.09960000000000008,-5.414100144583495
-0.10060000000000008,-5.474932730477692
-0.10160000000000008,-5.535765316371888
-0.10260000000000008,-5.596597902266086
-0.10360000000000008,-5.657430488160282
-0.10460000000000008,-5.721092496654209
-0.10560000000000008,-5.781925082548405
-0.10660000000000008,-5.844172379742466
-0.10760000000000008,-5.906419676936528
-0.10860000000000009,-5.968666974130589
-0.10960000000000009,-6.030914271324651
-0.11060000000000009,-6.0917468572188485
-0.11160000000000009,-6.152579443113044
-0.11260000000000009,-6.214826740307106
-0.11360000000000009,-6.277074037501167
-0.11460000000000009,-6.339321334695229
-0.11560000000000009,-6.402983343189156
-0.11660000000000009,-6.463815929083352
-0.1176000000000001,-6.5246485149775495
-0.1186000000000001,-6.586895812171611
-0.1196000000000001,-6.6491431093656725
-0.1206000000000001,-6.709975695259868
-0.1216000000000001,-6.77222299245393
-0.1226000000000001,-6.834470289647991
-0.1236000000000001,-6.893888164242324
-0.1246000000000001,-6.953306038836654
-0.1256000000000001,-7.014138624730852
-0.1266000000000001,-7.0763859219249134
-0.1276000000000001,-7.135803796519245
-0.1286000000000001,-7.19663638241344
-0.1296000000000001,-7.254639545707908
-0.1306000000000001,-7.31405742030224
-0.1316000000000001,-7.372060583596706
-0.1326000000000001,-7.430063746891172
-0.1336000000000001,-7.489481621485504
-0.1346000000000001,-7.5474847847799715
-0.1356000000000001,-7.6069026593743025
-0.1366000000000001,-7.663491111368903
-0.1376000000000001,-7.7186648520636405
-0.1386000000000001,-7.775253304058242
-0.1396000000000001,-7.830427044752977
-0.1406000000000001,-7.88701549674758
-0.14160000000000011,-7.942189237442316
-0.14260000000000012,-7.995948266837187
-0.14360000000000012,-8.052536718831789
-0.14460000000000012,-8.107710459526524
-0.14560000000000012,-8.161469488921396
-0.14660000000000012,-8.215228518316268
-0.14760000000000012,-8.26615812511141
-0.14860000000000012,-8.31991715450628
-0.14960000000000012,-8.372261472601286
-0.15060000000000012,-8.424605790696294
-0.15160000000000012,-8.476950108791302
-0.15260000000000012,-8.52787971558644
-0.15360000000000013,-8.580224033681448
-0.15460000000000013,-8.632568351776454
-0.15560000000000013,-8.683497958571595
-0.15660000000000013,-8.733012854066871
-0.15760000000000013,-8.78252774956215
-0.15860000000000013,-8.830627933757558
-0.15960000000000002,-8.878728117952969
-0.16060000000000002,-8.925413590848516
-0.16160000000000002,-8.972099063744063
-0.16260000000000002,-9.017369825339744
-0.16360000000000002,-9.061225875635559
-0.16460000000000002,-9.105081925931376
-0.16560000000000002,-9.148937976227192
-0.16660000000000003,-9.192794026523009
-0.16760000000000003,-9.232405942919229
-0.16860000000000003,-9.270603148015587
-0.16960000000000003,-9.310215064411805
-0.17060000000000003,-9.348412269508163
-0.17160000000000003,-9.385194763304654
-0.17260000000000003,-9.419147834501414
-0.17360000000000003,-9.453100905698175
-0.17460000000000003,-9.48563926559507
-0.17560000000000003,-9.516762914192102
-0.17660000000000003,-9.546471851489269
-0.17760000000000004,-9.573351366186703
-0.17860000000000004,-9.600230880884139
-0.17960000000000004,-9.627110395581575
-0.18060000000000004,-9.652575198979145
-0.18160000000000004,-9.675210579776985
-0.18260000000000004,-9.697845960574826
-0.18360000000000004,-9.7190666300728
-0.18460000000000004,-9.738872588270914
-0.18560000000000004,-9.760093257768888
-0.18660000000000004,-9.778484504667134
-0.18760000000000004,-9.796875751565379
-0.18860000000000005,-9.812437575863894
-0.18960000000000005,-9.82516997756268
-0.19060000000000005,-9.837902379261465
-0.19160000000000005,-9.85063478096025
-0.19260000000000005,-9.860537760059307
-0.19360000000000005,-9.871855450458227
-0.19460000000000005,-9.881758429557282
-0.19560000000000005,-9.887417274756743
-0.19660000000000005,-9.893076119956202
-0.19760000000000005,-9.895905542555932
-0.19860000000000005,-9.900149676455525
-0.19960000000000006,-9.902979099055257
-0.20060000000000006,-9.902979099055257
-0.20160000000000006,-9.902979099055257
-0.20260000000000006,-9.898734965155663
-0.20360000000000006,-9.893076119956202
-0.20460000000000006,-9.887417274756743
-0.20560000000000006,-9.880343718257414
-0.20660000000000006,-9.870440739158362
-0.20760000000000006,-9.860537760059307
-0.20860000000000006,-9.846390647060655
-0.20960000000000006,-9.832243534062004
-0.21060000000000006,-9.81668170976349
-0.21160000000000007,-9.799705174165108
-0.21260000000000007,-9.779899215967
-0.21360000000000007,-9.758678546469023
-0.21460000000000007,-9.737457876971048
-0.21560000000000007,-9.716237207473073
-0.21660000000000007,-9.692187115375367
-0.21760000000000007,-9.669551734577526
-0.21860000000000007,-9.644086931179956
-0.21960000000000007,-9.61720741648252
-0.22060000000000007,-9.588913190485219
-0.22160000000000007,-9.560618964487917
-0.22260000000000008,-9.530910027190751
-0.22360000000000008,-9.501201089893586
-0.22460000000000008,-9.472906863896286
-0.22560000000000008,-9.44602734919885
-0.22660000000000008,-9.417733123201549
-0.22760000000000008,-9.389438897204249
-0.22860000000000008,-9.363974093806679
-0.22960000000000008,-9.337094579109243
-0.23060000000000008,-9.313044487011537
-0.23160000000000008,-9.28899439491383
-0.23260000000000008,-9.264944302816126
-0.23360000000000009,-9.239479499418556
-0.2346000000000001,-9.21542940732085
-0.2356000000000001,-9.194208737822873
-0.2366000000000001,-9.175817490924628
-0.2376000000000001,-9.158840955326248
-0.2386000000000001,-9.141864419727867
-0.2396000000000001,-9.124887884129487
-0.2406000000000001,-9.110740771130837
-0.2416000000000001,-9.096593658132186
-0.2426000000000001,-9.083861256433401
-0.2436000000000001,-9.071128854734614
-0.2446000000000001,-9.059811164335693
-0.2456000000000001,-9.051322896536504
-0.2466000000000001,-9.04141991743745
-0.2476000000000001,-9.03293164963826
-0.2486000000000001,-9.023028670539205
-0.2496000000000001,-9.01878453663961
-0.2506000000000001,-9.011710980140284
-0.2516000000000001,-9.004637423640958
-0.2526000000000001,-8.998978578441498
-0.2536000000000001,-8.994734444541903
-0.2546000000000001,-8.993319733242037
-0.2556000000000001,-8.990490310642308
-0.2566000000000001,-8.987660888042578
-0.2576000000000001,-8.986246176742714
-0.2586000000000001,-8.986246176742714
-0.2596000000000001,-8.983416754142983
-0.2606000000000001,-8.982002042843117
-0.2616000000000001,-8.982002042843117
-0.2626000000000001,-8.982002042843117
-0.2636000000000001,-8.984831465442848
-0.2646000000000001,-8.989075599342444
-0.2656000000000001,-8.991905021942173
-0.2666000000000001,-8.991905021942173
-0.2676000000000001,-8.994734444541903
-0.2686000000000001,-8.998978578441498
-0.2696000000000001,-9.001808001041228
-0.2706000000000001,-9.006052134940823
-0.2716000000000001,-9.01029626884042
-0.2726000000000001,-9.013125691440148
-0.2736000000000001,-9.014540402740012
-0.2746000000000001,-9.020199247939473
-0.2756000000000001,-9.023028670539205
-0.2766000000000001,-9.028687515738664
-0.2776000000000001,-9.030102227038528
-0.2786000000000001,-9.035761072237987
-0.2796000000000001,-9.040005206137584
-0.2806000000000001,-9.045664051337045
-0.28160000000000013,-9.049908185236639
-0.28260000000000013,-9.054152319136236
-0.28360000000000013,-9.05839645303583
-0.2846,-9.062640586935425
-0.2856,-9.065470009535154
-0.2866,-9.06971414343475
-0.2876,-9.07537298863421
-0.2886,-9.079617122533806
-0.2896,-9.083861256433401
-0.2906,-9.090934812932726
-0.2916,-9.09517894683232
-0.2926,-9.09800836943205
-0.2936,-9.102252503331647
-0.29460000000000003,-9.107911348531106
-0.29560000000000003,-9.110740771130837
-0.29660000000000003,-9.11498490503043
-0.29760000000000003,-9.11781432763016
-0.29860000000000003,-9.126302595429351
-0.29960000000000003,-9.126302595429351
-0.30060000000000003,-9.130546729328946
-0.30160000000000003,-9.133376151928676
-0.30260000000000004,-9.139034997128135
-0.30360000000000004,-9.144693842327596
-0.30460000000000004,-9.148937976227192
-0.30560000000000004,-9.148937976227192
-0.30660000000000004,-9.151767398826921
-0.30760000000000004,-9.153182110126787
-0.30860000000000004,-9.156011532726518
-0.30960000000000004,-9.161670377925978
-0.31060000000000004,-9.165914511825573
-0.31160000000000004,-9.168743934425303
-0.31260000000000004,-9.171573357025034
-0.31360000000000005,-9.172988068324898
-0.31460000000000005,-9.177232202224493
-0.31560000000000005,-9.178646913524359
-0.31660000000000005,-9.178646913524359
-0.31760000000000005,-9.184305758723816
-0.31860000000000005,-9.188549892623413
-0.31960000000000005,-9.189964603923277
-0.32060000000000005,-9.194208737822873
-0.32160000000000005,-9.198452871722468
-0.32260000000000005,-9.201282294322198
-0.32360000000000005,-9.205526428221793
-0.32460000000000006,-9.211185273421254
-0.32560000000000006,-9.216844118620713
-0.32660000000000006,-9.221088252520309
-0.32760000000000006,-9.22391767512004
-0.32860000000000006,-9.228161809019635
-0.32960000000000006,-9.232405942919229
-0.33060000000000006,-9.236650076818824
-0.33160000000000006,-9.24089421071842
-0.33260000000000006,-9.245138344618015
-0.33360000000000006,-9.24938247851761
-0.33460000000000006,-9.253626612417206
-0.33560000000000006,-9.259285457616667
-0.33660000000000007,-9.264944302816126
-0.33760000000000007,-9.270603148015587
-0.33860000000000007,-9.27484728191518
-0.33960000000000007,-9.279091415814774
-0.34060000000000007,-9.283335549714371
-0.34160000000000007,-9.28899439491383
-0.34260000000000007,-9.293238528813426
-0.34360000000000007,-9.296067951413157
-0.3446000000000001,-9.301726796612616
-0.3456000000000001,-9.304556219212346
-0.3466000000000001,-9.308800353111941
-0.34759999999999996,-9.3144591983114
-0.3486000000000001,-9.317288620911132
-0.34959999999999997,-9.321532754810727
-0.3506000000000001,-9.327191600010188
-0.35159999999999997,-9.331435733909782
-0.3526000000000001,-9.335679867809377
-0.35359999999999997,-9.341338713008836
-0.3546000000000001,-9.345582846908432
-0.35559999999999997,-9.352656403407758
-0.3566000000000001,-9.355485826007486
-0.3576,-9.359729959907083
-0.3586000000000001,-9.361144671206947
-0.3596,-9.362559382506815
-0.3606000000000001,-9.366803516406407
-0.3616,-9.369632939006138
-0.3626000000000001,-9.372462361605868
-0.3636,-9.373877072905733
-0.3646000000000001,-9.373877072905733
-0.3656,-9.376706495505463
-0.3666000000000001,-9.38378005200479
-0.3676,-9.388024185904383
-0.3686000000000001,-9.389438897204249
-0.3696,-9.393683031103844
-0.3706000000000001,-9.39792716500344
-0.3716,-9.402171298903033
-0.3726000000000001,-9.406415432802628
-0.3736,-9.407830144102494
-0.3746000000000001,-9.407830144102494
-0.3756,-9.407830144102494
-0.3766000000000001,-9.40924485540236
-0.3776,-9.412074278002088
-0.3786000000000001,-9.413488989301953
-0.3796,-9.416318411901685
-0.3806000000000001,-9.417733123201549
-0.3816,-9.419147834501414
-0.3826000000000001,-9.423391968401008
-0.3836,-9.423391968401008
-0.3846000000000001,-9.424806679700875
-0.3856,-9.427636102300605
-0.3866000000000001,-9.429050813600469
-0.3876,-9.4318802362002
-0.3886000000000001,-9.434709658799928
-0.3896,-9.438953792699524
-0.3906000000000001,-9.441783215299255
-0.3916,-9.444612637898985
-0.3926000000000001,-9.444612637898985
-0.3936,-9.444612637898985
-0.3946000000000001,-9.447442060498714
-0.3956,-9.450271483098444
-0.3966000000000001,-9.453100905698175
-0.3976,-9.453100905698175
-0.3986000000000001,-9.45451561699804
-0.3996,-9.458759750897634
-0.4006000000000001,-9.458759750897634
-0.4016,-9.463003884797232
-0.4026000000000001,-9.467248018696827
-0.4036,-9.470077441296555
-0.4046000000000001,-9.468662729996689
-0.4056,-9.472906863896286
-0.40660000000000013,-9.477150997795881
-0.4076,-9.478565709095745
-0.40860000000000013,-9.478565709095745
-0.4096,-9.478565709095745
-0.41060000000000013,-9.48280984299534
-0.4116,-9.487053976894938
-0.41260000000000013,-9.487053976894938
-0.4136,-9.488468688194802
-0.41460000000000014,-9.488468688194802
-0.4156,-9.488468688194802
-0.41660000000000014,-9.489883399494666
-0.4176,-9.489883399494666
-0.41860000000000014,-9.494127533394261
-0.41960000000000003,-9.494127533394261
-0.42060000000000014,-9.495542244694127
-0.42160000000000003,-9.498371667293856
-0.42260000000000014,-9.501201089893586
-0.42360000000000003,-9.504030512493316
-0.42460000000000014,-9.508274646392913
-0.42560000000000003,-9.512518780292506
-0.42660000000000015,-9.515348202892236
-0.42760000000000004,-9.518177625491967
-0.42860000000000015,-9.525251181991292
-0.42960000000000004,-9.529495315890887
-0.43060000000000015,-9.532324738490617
-0.43160000000000004,-9.533739449790483
-0.43260000000000015,-9.53656887239021
-0.43360000000000004,-9.539398294989942
-0.43460000000000015,-9.542227717589672
-0.43560000000000004,-9.545057140189403
-0.43660000000000015,-9.549301274088998
-0.43760000000000004,-9.55496011928846
-0.43860000000000016,-9.560618964487917
-0.43960000000000005,-9.566277809687378
-0.44060000000000016,-9.567692520987244
-0.44160000000000005,-9.573351366186703
-0.44260000000000016,-9.577595500086298
-0.44360000000000005,-9.581839633985894
-0.44460000000000016,-9.590327901785084
-0.44560000000000005,-9.595986746984543
-0.44660000000000016,-9.600230880884139
-0.44760000000000005,-9.605889726083598
-0.44860000000000017,-9.61154857128306
-0.44960000000000006,-9.624280972981845
-0.45060000000000017,-9.628525106881439
-0.45160000000000006,-9.6341839520809
-0.45260000000000017,-9.639842797280359
-0.45360000000000006,-9.646916353779686
-0.45460000000000017,-9.65398991027901
-0.45560000000000006,-9.661063466778335
-0.4566000000000002,-9.666722311977795
-0.45760000000000006,-9.675210579776985
-0.4586000000000002,-9.685113558876042
