Potential V vs RHE, Current mA cm-2
0.013299999999999867,-0.3947044526623452
0.012299999999999978,-1.3107300193249565
0.011299999999999866,-1.7471684553333202
0.010299999999999976,-2.008890045808352
0.009299999999999864,-2.2706116362833835
0.008299999999999974,-2.4884771764625997
0.007299999999999862,-2.706342716641815
0.006299999999999972,-2.794054817233447
0.00529999999999986,-2.8379108675292635
0.0042999999999999705,-2.794054817233447
0.0032999999999998586,-2.7501987669376318
0.0022999999999999687,-2.618630616050183
0.0012999999999998568,-2.532333226758415
0.00029999999999996696,-2.4884771764625997
-0.000700000000000145,-2.532333226758415
-0.0017000000000000348,-2.618630616050183
-0.0027000000000001467,-2.7501987669376318
-0.0037000000000000366,-2.924208256821031
-0.0047000000000001485,-3.0119203574126634
-0.005700000000000038,-3.0996324580042955
-0.00670000000000015,-3.0996324580042955
-0.00770000000000004,-3.0119203574126634
-0.008700000000000152,-2.8803522065252145
-0.009700000000000042,-2.7501987669376318
-0.010700000000000154,-2.706342716641815
-0.011700000000000044,-2.662486666345999
-0.012700000000000156,-2.706342716641815
-0.013700000000000045,-2.8379108675292635
-0.014700000000000157,-2.968064307116847
-0.015700000000000047,-3.0996324580042955
-0.01670000000000016,-3.1859298472960624
-0.01770000000000005,-3.1859298472960624
-0.01870000000000016,-3.1859298472960624
-0.01970000000000005,-3.0996324580042955
-0.020700000000000163,-2.968064307116847
-0.021700000000000053,-2.8379108675292635
-0.022700000000000164,-2.794054817233447
-0.023700000000000054,-2.7501987669376318
-0.024700000000000166,-2.8379108675292635
-0.025700000000000056,-2.968064307116847
-0.026700000000000168,-3.0996324580042955
-0.027700000000000058,-3.2297858975918787
-0.02870000000000017,-3.273641947887695
-0.02970000000000006,-3.273641947887695
-0.03070000000000017,-3.2297858975918787
-0.03170000000000006,-3.0996324580042955
-0.03270000000000017,-3.0119203574126634
-0.03370000000000006,-2.8803522065252145
-0.034700000000000175,-2.8379108675292635
-0.035700000000000065,-2.8379108675292635
-0.03670000000000018,-2.924208256821031
-0.03770000000000007,-3.055776407708479
-0.03870000000000018,-3.1859298472960624
-0.03970000000000007,-3.273641947887695
-0.04070000000000018,-3.361354048479327
-0.04170000000000007,-3.317497998183511
-0.04270000000000018,-3.2297858975918787
-0.04370000000000007,-3.0996324580042955
-0.044700000000000184,-3.0119203574126634
-0.045700000000000074,-2.8803522065252145
-0.046700000000000186,-2.8803522065252145
-0.047700000000000076,-2.924208256821031
-0.04870000000000019,-3.0119203574126634
-0.04970000000000008,-3.1420737970002466
-0.05070000000000019,-3.273641947887695
-0.05170000000000008,-3.361354048479327
-0.05270000000000019,-3.361354048479327
-0.05370000000000008,-3.317497998183511
-0.05470000000000019,-3.2297858975918787
-0.05570000000000008,-3.0996324580042955
-0.056700000000000195,-2.968064307116847
-0.057700000000000085,-2.924208256821031
-0.058700000000000196,-2.8803522065252145
-0.059700000000000086,-2.968064307116847
-0.0607000000000002,-3.055776407708479
-0.06170000000000009,-3.2297858975918787
-0.0627000000000002,-3.361354048479327
-0.06370000000000009,-3.361354048479327
-0.0647000000000002,-3.361354048479327
-0.06570000000000009,-3.317497998183511
-0.0667000000000002,-3.1859298472960624
-0.0677000000000001,-3.055776407708479
-0.0687000000000002,-2.968064307116847
-0.0697000000000001,-2.8803522065252145
-0.07070000000000021,-2.924208256821031
-0.0717000000000001,-3.0119203574126634
-0.07270000000000021,-3.0996324580042955
-0.0737000000000001,-3.273641947887695
-0.07470000000000021,-3.361354048479327
-0.0757000000000001,-3.403795387475278
-0.07670000000000021,-3.361354048479327
-0.0777000000000001,-3.273641947887695
-0.07870000000000021,-3.1859298472960624
-0.0797000000000001,-3.0119203574126634
-0.08070000000000022,-2.924208256821031
-0.0817000000000001,-2.924208256821031
-0.08270000000000022,-2.924208256821031
-0.08370000000000011,-3.055776407708479
-0.08470000000000022,-3.1420737970002466
-0.08570000000000011,-3.317497998183511
-0.08670000000000022,-3.361354048479327
-0.08770000000000011,-3.361354048479327
-0.08870000000000022,-3.317497998183511
-0.08970000000000011,-3.2297858975918787
-0.09070000000000022,-3.0996324580042955
-0.09170000000000011,-2.968064307116847
-0.09270000000000023,-2.8803522065252145
-0.09370000000000012,-2.8803522065252145
-0.09470000000000023,-2.968064307116847
-0.09570000000000012,-3.055776407708479
-0.09670000000000023,-3.1859298472960624
-0.09770000000000012,-3.317497998183511
-0.09870000000000023,-3.361354048479327
-0.09970000000000012,-3.361354048479327
-0.10070000000000023,-3.273641947887695
-0.10170000000000012,-3.1420737970002466
-0.10270000000000024,-3.055776407708479
-0.10370000000000013,-2.924208256821031
-0.10470000000000024,-2.8803522065252145
-0.10570000000000013,-2.924208256821031
-0.10670000000000024,-2.968064307116847
-0.10770000000000013,-3.0996324580042955
-0.10870000000000024,-3.2297858975918787
-0.10970000000000013,-3.317497998183511
-0.11070000000000024,-3.361354048479327
-0.11170000000000013,-3.317497998183511
-0.11270000000000002,-3.2297858975918787
-0.11370000000000013,-3.0996324580042955
-0.11470000000000002,-2.968064307116847
-0.11570000000000014,-2.924208256821031
-0.11670000000000003,-2.8803522065252145
-0.11770000000000014,-2.924208256821031
-0.11870000000000003,-3.0119203574126634
-0.11970000000000014,-3.1420737970002466
-0.12070000000000003,-3.273641947887695
-0.12170000000000014,-3.317497998183511
-0.12270000000000003,-3.361354048479327
-0.12370000000000014,-3.317497998183511
-0.12470000000000003,-3.1859298472960624
-0.12570000000000014,-3.055776407708479
-0.12670000000000003,-2.924208256821031
-0.12770000000000015,-2.8803522065252145
-0.12870000000000004,-2.8803522065252145
-0.12970000000000015,-2.924208256821031
-0.13070000000000004,-3.055776407708479
-0.13170000000000015,-3.1859298472960624
-0.13270000000000004,-3.273641947887695
-0.13370000000000015,-3.361354048479327
-0.13470000000000004,-3.317497998183511
-0.13570000000000015,-3.2297858975918787
-0.13670000000000004,-3.1420737970002466
-0.13770000000000016,-3.0119203574126634
-0.13870000000000005,-2.8803522065252145
-0.13970000000000016,-2.8803522065252145
-0.14070000000000005,-2.8803522065252145
-0.14170000000000016,-2.968064307116847
-0.14270000000000005,-3.0996324580042955
-0.14370000000000016,-3.2297858975918787
-0.14470000000000005,-3.317497998183511
-0.14570000000000016,-3.361354048479327
-0.14670000000000005,-3.317497998183511
-0.14770000000000016,-3.2297858975918787
-0.14870000000000005,-3.0996324580042955
-0.14970000000000017,-2.968064307116847
-0.15070000000000006,-2.8803522065252145
-0.15170000000000017,-2.8379108675292635
-0.15270000000000006,-2.8803522065252145
-0.15370000000000017,-3.0119203574126634
-0.15470000000000006,-3.0996324580042955
-0.15570000000000017,-3.273641947887695
-0.15670000000000006,-3.317497998183511
-0.15770000000000017,-3.317497998183511
-0.15870000000000006,-3.273641947887695
-0.15970000000000018,-3.1420737970002466
-0.16070000000000007,-3.055776407708479
-0.16170000000000018,-2.924208256821031
-0.16270000000000007,-2.8803522065252145
-0.16370000000000018,-2.8803522065252145
-0.16470000000000007,-2.924208256821031
-0.16570000000000018,-3.055776407708479
-0.16670000000000007,-3.1420737970002466
-0.16770000000000018,-3.273641947887695
-0.16870000000000007,-3.317497998183511
-0.16970000000000018,-3.317497998183511
-0.17070000000000007,-3.2297858975918787
-0.17170000000000019,-3.1420737970002466
-0.17270000000000008,-3.0119203574126634
-0.1737000000000002,-2.924208256821031
-0.17470000000000008,-2.8803522065252145
-0.1757000000000002,-2.8803522065252145
-0.17670000000000008,-2.968064307116847
-0.1777000000000002,-3.0996324580042955
-0.17870000000000008,-3.2297858975918787
-0.1797000000000002,-3.317497998183511
-0.18070000000000008,-3.361354048479327
-0.1817000000000002,-3.317497998183511
-0.18270000000000008,-3.2297858975918787
-0.1837000000000002,-3.0996324580042955
-0.1847000000000001,-2.968064307116847
-0.1857000000000002,-2.924208256821031
-0.1867000000000001,-2.8803522065252145
-0.1877000000000002,-2.924208256821031
-0.1887000000000001,-3.0119203574126634
-0.1897000000000002,-3.1420737970002466
-0.1907000000000001,-3.273641947887695
-0.1917000000000001,-3.361354048479327
-0.19269999999999998,-3.361354048479327
-0.1937000000000001,-3.317497998183511
-0.19469999999999998,-3.1859298472960624
-0.1957000000000001,-3.0996324580042955
-0.19669999999999999,-2.968064307116847
-0.1977000000000001,-2.924208256821031
-0.1987,-2.924208256821031
-0.1997000000000001,-2.968064307116847
-0.2007,-3.0996324580042955
-0.2017000000000001,-3.2297858975918787
-0.2027,-3.317497998183511
-0.2037000000000001,-3.361354048479327
-0.2047,-3.361354048479327
-0.2057000000000001,-3.273641947887695
-0.2067,-3.1859298472960624
-0.2077000000000001,-3.055776407708479
-0.2087,-2.968064307116847
-0.2097000000000001,-2.924208256821031
-0.2107,-2.924208256821031
-0.2117000000000001,-3.055776407708479
-0.2127,-3.1420737970002466
-0.2137000000000001,-3.273641947887695
-0.2147,-3.361354048479327
-0.2157000000000001,-3.447651437771094
-0.2167,-3.403795387475278
-0.21770000000000012,-3.273641947887695
-0.2187,-3.1859298472960624
-0.21970000000000012,-3.055776407708479
-0.2207,-2.968064307116847
-0.22170000000000012,-2.968064307116847
-0.2227,-3.0119203574126634
-0.22370000000000012,-3.0996324580042955
-0.2247,-3.2297858975918787
-0.22570000000000012,-3.361354048479327
-0.2267,-3.447651437771094
-0.22770000000000012,-3.447651437771094
-0.22870000000000001,-3.403795387475278
-0.22970000000000013,-3.273641947887695
-0.23070000000000002,-3.1859298472960624
-0.23170000000000013,-3.055776407708479
-0.23270000000000002,-3.0119203574126634
-0.23370000000000013,-3.0119203574126634
-0.23470000000000002,-3.0996324580042955
-0.23570000000000013,-3.1859298472960624
-0.23670000000000002,-3.317497998183511
-0.2376999999999999,-3.447651437771094
-0.23870000000000002,-3.4915074880669104
-0.2396999999999999,-3.4915074880669104
-0.24070000000000003,-3.403795387475278
-0.24169999999999991,-3.317497998183511
-0.24270000000000003,-3.1859298472960624
-0.24369999999999992,-3.0996324580042955
-0.24470000000000003,-3.055776407708479
-0.24569999999999992,-3.0996324580042955
-0.24670000000000003,-3.1859298472960624
-0.24769999999999992,-3.273641947887695
-0.24870000000000003,-3.447651437771094
-0.24969999999999992,-3.5353635383627267
-0.25070000000000003,-3.579219588658543
-0.2516999999999999,-3.5353635383627267
-0.25270000000000004,-3.447651437771094
-0.2536999999999999,-3.361354048479327
-0.25470000000000004,-3.273641947887695
-0.2556999999999999,-3.1420737970002466
-0.25670000000000004,-3.1420737970002466
-0.25769999999999993,-3.1859298472960624
-0.25870000000000004,-3.317497998183511
-0.25969999999999993,-3.447651437771094
-0.26070000000000004,-3.579219588658543
-0.26169999999999993,-3.623075638954359
-0.26270000000000004,-3.6655169779503103
-0.26369999999999993,-3.623075638954359
-0.26470000000000005,-3.5353635383627267
-0.26569999999999994,-3.403795387475278
-0.26670000000000005,-3.317497998183511
-0.26769999999999994,-3.273641947887695
-0.26870000000000005,-3.273641947887695
-0.26969999999999994,-3.317497998183511
-0.27070000000000005,-3.447651437771094
-0.27169999999999994,-3.579219588658543
-0.27270000000000005,-3.7093730282461257
-0.27369999999999994,-3.7970851288377587
-0.27470000000000006,-3.7532290785419424
-0.27569999999999995,-3.7093730282461257
-0.27670000000000006,-3.623075638954359
-0.27769999999999995,-3.4915074880669104
-0.27870000000000006,-3.403795387475278
-0.27969999999999995,-3.361354048479327
-0.28070000000000006,-3.403795387475278
-0.28169999999999995,-3.4915074880669104
-0.28270000000000006,-3.623075638954359
-0.28369999999999995,-3.7532290785419424
-0.28470000000000006,-3.840941179133574
-0.28569999999999995,-3.927238568425342
-0.28670000000000007,-3.884797229429391
-0.28769999999999996,-3.7970851288377587
-0.28870000000000007,-3.7093730282461257
-0.28969999999999996,-3.623075638954359
-0.29070000000000007,-3.5353635383627267
-0.29169999999999996,-3.5353635383627267
-0.29270000000000007,-3.579219588658543
-0.29369999999999996,-3.6655169779503103
-0.2947000000000001,-3.840941179133574
-0.29569999999999996,-3.971094618721158
-0.2967000000000001,-4.0588067193127895
-0.29769999999999996,-4.102662769608606
-0.2987000000000001,-4.0588067193127895
-0.29969999999999997,-3.971094618721158
-0.3007000000000001,-3.840941179133574
-0.30169999999999997,-3.7532290785419424
-0.3027000000000001,-3.7093730282461257
-0.30369999999999997,-3.7093730282461257
-0.3047000000000001,-3.7970851288377587
-0.30569999999999997,-3.927238568425342
-0.3067000000000001,-4.102662769608606
-0.3077,-4.1889601589003735
-0.3087000000000001,-4.276672259492005
-0.3097,-4.276672259492005
-0.3107000000000001,-4.23281620919619
-0.3117,-4.146518819904423
-0.3127000000000001,-4.0588067193127895
-0.3137,-3.927238568425342
-0.3147000000000001,-3.927238568425342
-0.3157,-3.971094618721158
-0.3167000000000001,-4.102662769608606
-0.3177,-4.1889601589003735
-0.3187000000000001,-4.364384360083638
-0.3197,-4.450681749375406
-0.3207000000000001,-4.538393849967037
-0.3217,-4.538393849967037
-0.3227000000000001,-4.450681749375406
-0.3237,-4.406825699079589
-0.3247000000000001,-4.276672259492005
-0.3257,-4.23281620919619
-0.3267000000000001,-4.23281620919619
-0.3277,-4.276672259492005
-0.3287000000000001,-4.406825699079589
-0.3297,-4.582249900262854
-0.3307000000000001,-4.712403339850438
-0.3317,-4.843971490737885
-0.3327000000000001,-4.887827541033701
-0.3337,-4.843971490737885
-0.3347000000000001,-4.756259390146253
-0.3357,-4.668547289554621
-0.3367000000000001,-4.582249900262854
-0.3377,-4.582249900262854
-0.3387000000000001,-4.582249900262854
-0.3397,-4.668547289554621
-0.3407000000000001,-4.843971490737885
-0.3417,-4.974124930325469
-0.3427000000000001,-5.105693081212917
-0.3437,-5.235846520800501
-0.3447000000000001,-5.279702571096316
-0.3457,-5.235846520800501
-0.3467000000000001,-5.149549131508733
-0.3477,-5.0618370309171015
-0.3487000000000001,-4.974124930325469
-0.3497,-4.974124930325469
-0.3507000000000001,-5.017980980621284
-0.3517,-5.149549131508733
-0.3527000000000001,-5.323558621392133
-0.3537,-5.497568111275533
-0.3547000000000001,-5.629136262162981
-0.3557,-5.715433651454749
-0.35670000000000013,-5.715433651454749
-0.3577,-5.672992312458796
-0.35870000000000013,-5.629136262162981
-0.3597,-5.5414241615713475
-0.36070000000000013,-5.497568111275533
-0.3617,-5.497568111275533
-0.3626999999999999,-5.585280211867165
-0.3637,-5.759289701750564
-0.3646999999999999,-5.890857852638012
-0.3657,-6.064867342521412
-0.3666999999999999,-6.196435493408861
-0.3677,-6.282732882700628
-0.3686999999999999,-6.282732882700628
-0.36970000000000003,-6.238876832404812
-0.3706999999999999,-6.152579443113044
-0.37170000000000003,-6.108723392817228
-0.3726999999999999,-6.108723392817228
-0.37370000000000003,-6.152579443113044
-0.3746999999999999,-6.282732882700628
-0.37570000000000003,-6.414301033588076
-0.3766999999999999,-6.588310523471475
-0.37770000000000004,-6.806176063650692
-0.3786999999999999,-6.893888164242324
-0.37970000000000004,-6.981600264833956
-0.3806999999999999,-6.981600264833956
-0.38170000000000004,-6.93774421453814
-0.38269999999999993,-6.893888164242324
-0.38370000000000004,-6.806176063650692
-0.38469999999999993,-6.850032113946507
-0.38570000000000004,-6.93774421453814
-0.38669999999999993,-7.067897654125724
-0.38770000000000004,-7.243321855308987
-0.38869999999999993,-7.461187395488204
-0.38970000000000005,-7.635196885371603
-0.39069999999999994,-7.722908985963235
-0.39170000000000005,-7.7653503249591855
-0.39269999999999994,-7.7653503249591855
-0.39370000000000005,-7.722908985963235
-0.39469999999999994,-7.679052935667419
-0.39570000000000005,-7.679052935667419
-0.39669999999999994,-7.722908985963235
-0.39770000000000005,-7.809206375255003
-0.39869999999999994,-7.984630576438266
-0.39970000000000006,-8.202496116617484
-0.40069999999999995,-8.4203616567967
-0.40170000000000006,-8.594371146680096
-0.40269999999999995,-8.68208324727173
-0.40370000000000006,-8.725939297567548
-0.40469999999999995,-8.725939297567548
-0.40570000000000006,-8.68208324727173
-0.40669999999999995,-8.68208324727173
-0.40770000000000006,-8.68208324727173
-0.40869999999999995,-8.769795347863363
-0.40970000000000006,-8.899948787450944
-0.41069999999999995,-9.11781432763016
-0.41170000000000007,-9.335679867809377
-0.41269999999999996,-9.55496011928846
-0.41370000000000007,-9.685113558876042
-0.41469999999999996,-9.81668170976349
-0.41570000000000007,-9.85912304875944
-0.41669999999999996,-9.85912304875944
-0.41770000000000007,-9.81668170976349
-0.41869999999999996,-9.81668170976349
-0.4197000000000001,-9.85912304875944
-0.42069999999999996,-9.946835149351072
-0.4217000000000001,-10.164700689530287
-0.42269999999999996,-10.382566229709504
-0.4237000000000001,-10.601846481188586
-0.42469999999999997,-10.819712021367803
-0.4257000000000001,-10.993721511251199
-0.42669999999999997,-11.081433611842833
-0.4277000000000001,-11.123874950838783
-0.42869999999999997,-11.123874950838783
-0.4297000000000001,-11.123874950838783
-0.43069999999999997,-11.1677310011346
-0.4317000000000001,-11.211587051430415
-0.4327,-11.385596541313816
-0.4337000000000001,-11.604876792792895
-0.4347,-11.82274233297211
-0.4357000000000001,-12.084463923447142
-0.4367,-12.302329463626359
-0.4377000000000001,-12.476338953509758
-0.4387,-12.56405105410139
-0.4397000000000001,-12.56405105410139
-0.4407,-12.607907104397206
-0.4417000000000001,-12.607907104397206
-0.4427,-12.651763154693022
-0.4437000000000001,-12.781916594280606
-0.4447,-12.955926084164007
-0.4457000000000001,-13.175206335643086
-0.4467,-13.47936926511407
-0.4477000000000001,-13.698649516593148
-0.4487,-13.916515056772363
-0.4497000000000001,-14.090524546655764
-0.4507,-14.175407224647667
-0.4517000000000001,-14.26028990263957
-0.4527,-14.26028990263957
-0.4537000000000001,-14.30273124163552
-0.4547,-14.401761032626075
-0.4557000000000001,-14.529085049613924
-0.4567,-14.741291744593681
-0.4577000000000001,-15.01008689156804
-0.4587,-15.307176264539699
-0.4597000000000001,-15.575971411514052
-0.4607,-15.78817810649381
-0.4617000000000001,-15.91550212348166
-0.4627,-16.056973253468165
-0.4637000000000001,-16.099414592464115
-0.4647,-16.141855931460068
-0.4657000000000001,-16.184297270456018
-0.4667,-16.311621287443874
-0.4677000000000001,-16.495533756426326
-0.4687,-16.750181790402035
-0.4697000000000001,-17.018976937376394
-0.4707,-17.316066310348052
-0.4717000000000001,-17.584861457322408
-0.4727,-17.797068152302163
-0.4737000000000001,-17.966833508285966
-0.4747,-18.06586329927652
-0.4757000000000001,-18.15074597726842
-0.4767,-18.19318731626437
-0.4777000000000001,-18.27806999425627
-0.4787,-18.44783535024008
-0.4797000000000001,-18.674189158218486
-0.4807,-18.92883719219419
-0.48170000000000013,-19.2400736781645
-0.4827,-19.579604390132108
-0.48370000000000013,-19.848399537106463
-0.4847,-20.06060623208622
-0.48570000000000013,-20.244518701068674
-0.4867,-20.329401379060574
-0.4876999999999999,-20.414284057052477
-0.4887,-20.499166735044383
-0.4896999999999999,-20.626490752032236
-0.4907,-20.810403221014692
-0.4916999999999999,-21.065051254990397
-0.4927,-21.418729079956652
-0.4936999999999999,-21.729965565926964
-0.49470000000000003,-22.069496277894572
-0.4956999999999999,-22.38073276386488
-0.49670000000000003,-22.592939458844636
-0.4976999999999999,-22.776851927827092
-0.49870000000000003,-22.861734605818995
-0.4996999999999999,-22.946617283810895
-0.5007,-23.073941300798747
-0.5016999999999999,-23.24370665678255
-0.5027,-23.47006046476096
-0.5036999999999999,-23.767149837732617
-0.5047,-24.120827662698876
-0.5056999999999999,-24.516946826661083
-0.5067,-24.814036199632742
-0.5076999999999999,-25.12527268560305
