Apr. 6, 2025   19:43:31
Cyclic Voltammetry
File: c:/users/guazh/data/banditlqround7_x0exp994_r5/2025-03-28-exp1002\exp1002-2025-04-06t19_31_10-h2koh\exp1002_cv_sr_800mvs_efin_-1500mv.bin
Data Source:  Experiment
Instrument Model:  CHI760E
Header: CV ran at 800 mVs
Note: 

Init E (V) = -1
High E (V) = -1
Low E (V) = -1.5
Final E (V) = -1
Init P/N = N
Scan Rate (V/s) = 0.8
Segment = 3
Sample Interval (V) = 0.001
Quiet Time (sec) = 2
Sensitivity (A/V) = 0.01
Comp R (ohm) = 2.0

Results:

Channel 1:
Segment 1:

Segment 2:

Segment 3:

Potential/V, Current/A

-1.000, 1.865e-5
-1.001, 3.715e-5
-1.002, 4.332e-5
-1.003, 4.332e-5
-1.004, 4.949e-5
-1.005, 4.949e-5
-1.006, 4.949e-5
-1.007, 5.257e-5
-1.008, 5.257e-5
-1.009, 5.565e-5
-1.010, 5.565e-5
-1.011, 5.565e-5
-1.012, 5.873e-5
-1.013, 5.873e-5
-1.014, 6.182e-5
-1.015, 6.182e-5
-1.016, 6.490e-5
-1.017, 6.490e-5
-1.018, 6.490e-5
-1.019, 6.798e-5
-1.020, 6.798e-5
-1.021, 6.798e-5
-1.022, 6.798e-5
-1.023, 7.107e-5
-1.024, 7.107e-5
-1.025, 7.107e-5
-1.026, 7.415e-5
-1.027, 7.415e-5
-1.028, 7.723e-5
-1.029, 7.723e-5
-1.030, 7.723e-5
-1.031, 8.032e-5
-1.032, 8.032e-5
-1.033, 8.032e-5
-1.034, 8.340e-5
-1.035, 8.340e-5
-1.036, 8.340e-5
-1.037, 8.648e-5
-1.038, 8.648e-5
-1.039, 8.648e-5
-1.040, 8.648e-5
-1.041, 8.957e-5
-1.042, 9.265e-5
-1.043, 9.265e-5
-1.044, 9.573e-5
-1.045, 9.573e-5
-1.046, 9.573e-5
-1.047, 9.573e-5
-1.048, 9.573e-5
-1.049, 9.882e-5
-1.050, 9.882e-5
-1.051, 1.019e-4
-1.052, 1.019e-4
-1.053, 1.050e-4
-1.054, 1.050e-4
-1.055, 1.081e-4
-1.056, 1.081e-4
-1.057, 1.081e-4
-1.058, 1.111e-4
-1.059, 1.111e-4
-1.060, 1.111e-4
-1.061, 1.111e-4
-1.062, 1.142e-4
-1.063, 1.142e-4
-1.064, 1.142e-4
-1.065, 1.173e-4
-1.066, 1.173e-4
-1.067, 1.204e-4
-1.068, 1.204e-4
-1.069, 1.235e-4
-1.070, 1.266e-4
-1.071, 1.266e-4
-1.072, 1.266e-4
-1.073, 1.266e-4
-1.074, 1.296e-4
-1.075, 1.296e-4
-1.076, 1.327e-4
-1.077, 1.327e-4
-1.078, 1.327e-4
-1.079, 1.358e-4
-1.080, 1.327e-4
-1.081, 1.358e-4
-1.082, 1.358e-4
-1.083, 1.389e-4
-1.084, 1.389e-4
-1.085, 1.420e-4
-1.086, 1.420e-4
-1.087, 1.420e-4
-1.088, 1.451e-4
-1.089, 1.451e-4
-1.090, 1.451e-4
-1.091, 1.451e-4
-1.092, 1.481e-4
-1.093, 1.481e-4
-1.094, 1.512e-4
-1.095, 1.512e-4
-1.096, 1.512e-4
-1.097, 1.512e-4
-1.098, 1.543e-4
-1.099, 1.543e-4
-1.100, 1.543e-4
-1.101, 1.543e-4
-1.102, 1.574e-4
-1.103, 1.574e-4
-1.104, 1.574e-4
-1.105, 1.574e-4
-1.106, 1.605e-4
-1.107, 1.605e-4
-1.108, 1.605e-4
-1.109, 1.636e-4
-1.110, 1.636e-4
-1.111, 1.636e-4
-1.112, 1.666e-4
-1.113, 1.636e-4
-1.114, 1.666e-4
-1.115, 1.666e-4
-1.116, 1.666e-4
-1.117, 1.666e-4
-1.118, 1.697e-4
-1.119, 1.697e-4
-1.120, 1.728e-4
-1.121, 1.697e-4
-1.122, 1.728e-4
-1.123, 1.759e-4
-1.124, 1.728e-4
-1.125, 1.728e-4
-1.126, 1.759e-4
-1.127, 1.759e-4
-1.128, 1.759e-4
-1.129, 1.759e-4
-1.130, 1.759e-4
-1.131, 1.759e-4
-1.132, 1.790e-4
-1.133, 1.790e-4
-1.134, 1.790e-4
-1.135, 1.821e-4
-1.136, 1.790e-4
-1.137, 1.821e-4
-1.138, 1.821e-4
-1.139, 1.821e-4
-1.140, 1.851e-4
-1.141, 1.821e-4
-1.142, 1.821e-4
-1.143, 1.851e-4
-1.144, 1.851e-4
-1.145, 1.851e-4
-1.146, 1.851e-4
-1.147, 1.882e-4
-1.148, 1.882e-4
-1.149, 1.882e-4
-1.150, 1.882e-4
-1.151, 1.882e-4
-1.152, 1.882e-4
-1.153, 1.913e-4
-1.154, 1.882e-4
-1.155, 1.913e-4
-1.156, 1.913e-4
-1.157, 1.913e-4
-1.158, 1.913e-4
-1.159, 1.913e-4
-1.160, 1.913e-4
-1.161, 1.944e-4
-1.162, 1.944e-4
-1.163, 1.944e-4
-1.164, 1.944e-4
-1.165, 1.944e-4
-1.166, 1.944e-4
-1.167, 1.944e-4
-1.168, 1.944e-4
-1.169, 1.944e-4
-1.170, 1.944e-4
-1.171, 1.944e-4
-1.172, 1.944e-4
-1.173, 1.975e-4
-1.174, 1.975e-4
-1.175, 1.975e-4
-1.176, 1.975e-4
-1.177, 1.975e-4
-1.178, 1.975e-4
-1.179, 1.975e-4
-1.180, 1.975e-4
-1.181, 2.006e-4
-1.182, 1.975e-4
-1.183, 1.975e-4
-1.184, 1.975e-4
-1.185, 1.975e-4
-1.186, 1.975e-4
-1.187, 2.006e-4
-1.188, 2.006e-4
-1.189, 2.006e-4
-1.190, 2.006e-4
-1.191, 2.006e-4
-1.192, 2.006e-4
-1.193, 2.006e-4
-1.194, 2.006e-4
-1.195, 2.006e-4
-1.196, 2.006e-4
-1.197, 1.975e-4
-1.198, 2.006e-4
-1.199, 2.006e-4
-1.200, 2.006e-4
-1.201, 2.006e-4
-1.202, 2.006e-4
-1.203, 2.006e-4
-1.204, 2.006e-4
-1.205, 2.006e-4
-1.206, 2.006e-4
-1.207, 2.006e-4
-1.208, 2.006e-4
-1.209, 2.006e-4
-1.210, 2.006e-4
-1.211, 1.975e-4
-1.212, 1.975e-4
-1.213, 1.975e-4
-1.214, 1.975e-4
-1.215, 2.006e-4
-1.216, 2.006e-4
-1.217, 2.006e-4
-1.218, 2.006e-4
-1.219, 2.006e-4
-1.220, 2.006e-4
-1.221, 1.975e-4
-1.222, 1.975e-4
-1.223, 1.975e-4
-1.224, 1.975e-4
-1.225, 1.975e-4
-1.226, 1.975e-4
-1.227, 1.975e-4
-1.228, 1.975e-4
-1.229, 2.006e-4
-1.230, 1.975e-4
-1.231, 1.975e-4
-1.232, 1.975e-4
-1.233, 1.975e-4
-1.234, 1.975e-4
-1.235, 1.975e-4
-1.236, 1.975e-4
-1.237, 1.975e-4
-1.238, 1.944e-4
-1.239, 1.975e-4
-1.240, 1.944e-4
-1.241, 1.975e-4
-1.242, 1.975e-4
-1.243, 1.975e-4
-1.244, 1.975e-4
-1.245, 1.975e-4
-1.246, 1.975e-4
-1.247, 1.975e-4
-1.248, 1.944e-4
-1.249, 1.975e-4
-1.250, 1.944e-4
-1.251, 1.944e-4
-1.252, 1.944e-4
-1.253, 1.944e-4
-1.254, 1.944e-4
-1.255, 1.975e-4
-1.256, 1.975e-4
-1.257, 1.975e-4
-1.258, 1.944e-4
-1.259, 1.975e-4
-1.260, 1.944e-4
-1.261, 1.944e-4
-1.262, 1.944e-4
-1.263, 1.944e-4
-1.264, 1.944e-4
-1.265, 1.944e-4
-1.266, 1.944e-4
-1.267, 1.975e-4
-1.268, 1.944e-4
-1.269, 1.944e-4
-1.270, 1.975e-4
-1.271, 1.975e-4
-1.272, 1.975e-4
-1.273, 1.975e-4
-1.274, 1.975e-4
-1.275, 1.975e-4
-1.276, 1.975e-4
-1.277, 1.975e-4
-1.278, 1.975e-4
-1.279, 1.975e-4
-1.280, 1.975e-4
-1.281, 1.975e-4
-1.282, 1.975e-4
-1.283, 1.975e-4
-1.284, 2.006e-4
-1.285, 2.006e-4
-1.286, 2.006e-4
-1.287, 2.006e-4
-1.288, 2.006e-4
-1.289, 2.006e-4
-1.290, 2.006e-4
-1.291, 2.006e-4
-1.292, 2.036e-4
-1.293, 2.036e-4
-1.294, 2.036e-4
-1.295, 2.036e-4
-1.296, 2.067e-4
-1.297, 2.067e-4
-1.298, 2.067e-4
-1.299, 2.067e-4
-1.300, 2.098e-4
-1.301, 2.098e-4
-1.302, 2.098e-4
-1.303, 2.129e-4
-1.304, 2.129e-4
-1.305, 2.129e-4
-1.306, 2.160e-4
-1.307, 2.160e-4
-1.308, 2.191e-4
-1.309, 2.191e-4
-1.310, 2.221e-4
-1.311, 2.221e-4
-1.312, 2.221e-4
-1.313, 2.252e-4
-1.314, 2.283e-4
-1.315, 2.283e-4
-1.316, 2.314e-4
-1.317, 2.314e-4
-1.318, 2.345e-4
-1.319, 2.376e-4
-1.320, 2.406e-4
-1.321, 2.406e-4
-1.322, 2.468e-4
-1.323, 2.468e-4
-1.324, 2.499e-4
-1.325, 2.561e-4
-1.326, 2.561e-4
-1.327, 2.622e-4
-1.328, 2.653e-4
-1.329, 2.684e-4
-1.330, 2.715e-4
-1.331, 2.776e-4
-1.332, 2.838e-4
-1.333, 2.869e-4
-1.334, 2.931e-4
-1.335, 2.961e-4
-1.336, 3.023e-4
-1.337, 3.085e-4
-1.338, 3.146e-4
-1.339, 3.239e-4
-1.340, 3.300e-4
-1.341, 3.362e-4
-1.342, 3.424e-4
-1.343, 3.516e-4
-1.344, 3.609e-4
-1.345, 3.701e-4
-1.346, 3.794e-4
-1.347, 3.886e-4
-1.348, 4.010e-4
-1.349, 4.102e-4
-1.350, 4.225e-4
-1.351, 4.349e-4
-1.352, 4.472e-4
-1.353, 4.595e-4
-1.354, 4.750e-4
-1.355, 4.904e-4
-1.356, 5.058e-4
-1.357, 5.212e-4
-1.358, 5.397e-4
-1.359, 5.582e-4
-1.360, 5.767e-4
-1.361, 6.014e-4
-1.362, 6.199e-4
-1.363, 6.445e-4
-1.364, 6.661e-4
-1.365, 6.939e-4
-1.366, 7.185e-4
-1.367, 7.463e-4
-1.368, 7.740e-4
-1.369, 8.048e-4
-1.370, 8.357e-4
-1.371, 8.665e-4
-1.372, 9.004e-4
-1.373, 9.343e-4
-1.374, 9.713e-4
-1.375, 1.008e-3
-1.376, 1.045e-3
-1.377, 1.088e-3
-1.378, 1.132e-3
-1.379, 1.172e-3
-1.380, 1.215e-3
-1.381, 1.258e-3
-1.382, 1.304e-3
-1.383, 1.354e-3
-1.384, 1.400e-3
-1.385, 1.449e-3
-1.386, 1.499e-3
-1.387, 1.551e-3
-1.388, 1.606e-3
-1.389, 1.659e-3
-1.390, 1.714e-3
-1.391, 1.770e-3
-1.392, 1.825e-3
-1.393, 1.884e-3
-1.394, 1.943e-3
-1.395, 2.001e-3
-1.396, 2.060e-3
-1.397, 2.121e-3
-1.398, 2.183e-3
-1.399, 2.242e-3
-1.400, 2.303e-3
-1.401, 2.368e-3
-1.402, 2.433e-3
-1.403, 2.494e-3
-1.404, 2.559e-3
-1.405, 2.621e-3
-1.406, 2.686e-3
-1.407, 2.750e-3
-1.408, 2.815e-3
-1.409, 2.880e-3
-1.410, 2.945e-3
-1.411, 3.012e-3
-1.412, 3.077e-3
-1.413, 3.145e-3
-1.414, 3.216e-3
-1.415, 3.284e-3
-1.416, 3.351e-3
-1.417, 3.422e-3
-1.418, 3.490e-3
-1.419, 3.561e-3
-1.420, 3.629e-3
-1.421, 3.700e-3
-1.422, 3.771e-3
-1.423, 3.842e-3
-1.424, 3.910e-3
-1.425, 3.984e-3
-1.426, 4.054e-3
-1.427, 4.128e-3
-1.428, 4.202e-3
-1.429, 4.280e-3
-1.430, 4.357e-3
-1.431, 4.431e-3
-1.432, 4.508e-3
-1.433, 4.585e-3
-1.434, 4.665e-3
-1.435, 4.745e-3
-1.436, 4.825e-3
-1.437, 4.905e-3
-1.438, 4.982e-3
-1.439, 5.060e-3
-1.440, 5.137e-3
-1.441, 5.217e-3
-1.442, 5.297e-3
-1.443, 5.374e-3
-1.444, 5.454e-3
-1.445, 5.534e-3
-1.446, 5.614e-3
-1.447, 5.695e-3
-1.448, 5.775e-3
-1.449, 5.855e-3
-1.450, 5.935e-3
-1.451, 6.012e-3
-1.452, 6.095e-3
-1.453, 6.176e-3
-1.454, 6.262e-3
-1.455, 6.348e-3
-1.456, 6.435e-3
-1.457, 6.524e-3
-1.458, 6.617e-3
-1.459, 6.709e-3
-1.460, 6.801e-3
-1.461, 6.894e-3
-1.462, 6.986e-3
-1.463, 7.079e-3
-1.464, 7.168e-3
-1.465, 7.258e-3
-1.466, 7.344e-3
-1.467, 7.434e-3
-1.468, 7.523e-3
-1.469, 7.609e-3
-1.470, 7.699e-3
-1.471, 7.785e-3
-1.472, 7.868e-3
-1.473, 7.948e-3
-1.474, 8.035e-3
-1.475, 8.121e-3
-1.476, 8.214e-3
-1.477, 8.300e-3
-1.478, 8.389e-3
-1.479, 8.479e-3
-1.480, 8.565e-3
-1.481, 8.654e-3
-1.482, 8.750e-3
-1.483, 8.849e-3
-1.484, 8.944e-3
-1.485, 9.040e-3
-1.486, 9.126e-3
-1.487, 9.216e-3
-1.488, 9.305e-3
-1.489, 9.401e-3
-1.490, 9.496e-3
-1.491, 9.598e-3
-1.492, 9.697e-3
-1.493, 9.792e-3
-1.494, 9.888e-3
-1.495, 9.986e-3
-1.496, 1.008e-2
-1.497, 1.018e-2
-1.498, 1.028e-2
-1.499, 1.037e-2
-1.500, 1.040e-2
-1.499, 1.031e-2
-1.498, 1.022e-2
-1.497, 1.012e-2
-1.496, 1.003e-2
-1.495, 9.931e-3
-1.494, 9.838e-3
-1.493, 9.746e-3
-1.492, 9.653e-3
-1.491, 9.567e-3
-1.490, 9.487e-3
-1.489, 9.404e-3
-1.488, 9.323e-3
-1.487, 9.243e-3
-1.486, 9.160e-3
-1.485, 9.077e-3
-1.484, 8.994e-3
-1.483, 8.910e-3
-1.482, 8.824e-3
-1.481, 8.738e-3
-1.480, 8.651e-3
-1.479, 8.562e-3
-1.478, 8.476e-3
-1.477, 8.389e-3
-1.476, 8.303e-3
-1.475, 8.217e-3
-1.474, 8.136e-3
-1.473, 8.056e-3
-1.472, 7.979e-3
-1.471, 7.902e-3
-1.470, 7.825e-3
-1.469, 7.745e-3
-1.468, 7.659e-3
-1.467, 7.572e-3
-1.466, 7.489e-3
-1.465, 7.406e-3
-1.464, 7.326e-3
-1.463, 7.245e-3
-1.462, 7.165e-3
-1.461, 7.082e-3
-1.460, 6.993e-3
-1.459, 6.903e-3
-1.458, 6.814e-3
-1.457, 6.728e-3
-1.456, 6.641e-3
-1.455, 6.558e-3
-1.454, 6.475e-3
-1.453, 6.395e-3
-1.452, 6.314e-3
-1.451, 6.237e-3
-1.450, 6.160e-3
-1.449, 6.086e-3
-1.448, 6.012e-3
-1.447, 5.941e-3
-1.446, 5.870e-3
-1.445, 5.799e-3
-1.444, 5.725e-3
-1.443, 5.651e-3
-1.442, 5.578e-3
-1.441, 5.504e-3
-1.440, 5.430e-3
-1.439, 5.356e-3
-1.438, 5.282e-3
-1.437, 5.204e-3
-1.436, 5.127e-3
-1.435, 5.053e-3
-1.434, 4.979e-3
-1.433, 4.908e-3
-1.432, 4.838e-3
-1.431, 4.767e-3
-1.430, 4.696e-3
-1.429, 4.628e-3
-1.428, 4.563e-3
-1.427, 4.498e-3
-1.426, 4.434e-3
-1.425, 4.369e-3
-1.424, 4.304e-3
-1.423, 4.239e-3
-1.422, 4.175e-3
-1.421, 4.110e-3
-1.420, 4.045e-3
-1.419, 3.980e-3
-1.418, 3.913e-3
-1.417, 3.848e-3
-1.416, 3.783e-3
-1.415, 3.718e-3
-1.414, 3.657e-3
-1.413, 3.592e-3
-1.412, 3.530e-3
-1.411, 3.469e-3
-1.410, 3.410e-3
-1.409, 3.348e-3
-1.408, 3.290e-3
-1.407, 3.231e-3
-1.406, 3.173e-3
-1.405, 3.114e-3
-1.404, 3.059e-3
-1.403, 3.003e-3
-1.402, 2.948e-3
-1.401, 2.892e-3
-1.400, 2.843e-3
-1.399, 2.787e-3
-1.398, 2.738e-3
-1.397, 2.686e-3
-1.396, 2.633e-3
-1.395, 2.581e-3
-1.394, 2.531e-3
-1.393, 2.479e-3
-1.392, 2.427e-3
-1.391, 2.374e-3
-1.390, 2.325e-3
-1.389, 2.275e-3
-1.388, 2.229e-3
-1.387, 2.180e-3
-1.386, 2.137e-3
-1.385, 2.091e-3
-1.384, 2.044e-3
-1.383, 2.001e-3
-1.382, 1.958e-3
-1.381, 1.915e-3
-1.380, 1.872e-3
-1.379, 1.832e-3
-1.378, 1.788e-3
-1.377, 1.748e-3
-1.376, 1.708e-3
-1.375, 1.668e-3
-1.374, 1.628e-3
-1.373, 1.591e-3
-1.372, 1.554e-3
-1.371, 1.517e-3
-1.370, 1.480e-3
-1.369, 1.446e-3
-1.368, 1.409e-3
-1.367, 1.375e-3
-1.366, 1.338e-3
-1.365, 1.304e-3
-1.364, 1.273e-3
-1.363, 1.240e-3
-1.362, 1.209e-3
-1.361, 1.178e-3
-1.360, 1.147e-3
-1.359, 1.116e-3
-1.358, 1.088e-3
-1.357, 1.061e-3
-1.356, 1.030e-3
-1.355, 1.005e-3
-1.354, 9.775e-4
-1.353, 9.498e-4
-1.352, 9.251e-4
-1.351, 9.004e-4
-1.350, 8.727e-4
-1.349, 8.480e-4
-1.348, 8.233e-4
-1.347, 8.018e-4
-1.346, 7.802e-4
-1.345, 7.555e-4
-1.344, 7.370e-4
-1.343, 7.154e-4
-1.342, 6.939e-4
-1.341, 6.723e-4
-1.340, 6.538e-4
-1.339, 6.322e-4
-1.338, 6.137e-4
-1.337, 5.952e-4
-1.336, 5.767e-4
-1.335, 5.582e-4
-1.334, 5.428e-4
-1.333, 5.243e-4
-1.332, 5.089e-4
-1.331, 4.935e-4
-1.330, 4.780e-4
-1.329, 4.626e-4
-1.328, 4.472e-4
-1.327, 4.318e-4
-1.326, 4.195e-4
-1.325, 4.040e-4
-1.324, 3.917e-4
-1.323, 3.794e-4
-1.322, 3.670e-4
-1.321, 3.547e-4
-1.320, 3.424e-4
-1.319, 3.300e-4
-1.318, 3.208e-4
-1.317, 3.085e-4
-1.316, 2.961e-4
-1.315, 2.869e-4
-1.314, 2.746e-4
-1.313, 2.653e-4
-1.312, 2.561e-4
-1.311, 2.468e-4
-1.310, 2.376e-4
-1.309, 2.283e-4
-1.308, 2.191e-4
-1.307, 2.129e-4
-1.306, 2.036e-4
-1.305, 1.944e-4
-1.304, 1.882e-4
-1.303, 1.790e-4
-1.302, 1.728e-4
-1.301, 1.666e-4
-1.300, 1.574e-4
-1.299, 1.512e-4
-1.298, 1.451e-4
-1.297, 1.389e-4
-1.296, 1.327e-4
-1.295, 1.266e-4
-1.294, 1.204e-4
-1.293, 1.173e-4
-1.292, 1.081e-4
-1.291, 1.050e-4
-1.290, 9.882e-5
-1.289, 9.265e-5
-1.288, 8.957e-5
-1.287, 8.340e-5
-1.286, 8.032e-5
-1.285, 7.415e-5
-1.284, 7.107e-5
-1.283, 6.490e-5
-1.282, 6.182e-5
-1.281, 5.873e-5
-1.280, 5.257e-5
-1.279, 5.257e-5
-1.278, 4.640e-5
-1.277, 4.332e-5
-1.276, 4.024e-5
-1.275, 3.715e-5
-1.274, 3.407e-5
-1.273, 2.790e-5
-1.272, 2.482e-5
-1.271, 2.174e-5
-1.270, 1.865e-5
-1.269, 1.557e-5
-1.268, 1.249e-5
-1.267, 9.405e-6
-1.266, 9.405e-6
-1.265, 6.322e-6
-1.264, 3.239e-6
-1.263, 1.559e-7
-1.262, 1.559e-7
-1.261, -2.927e-6
-1.260, -6.010e-6
-1.259, -9.093e-6
-1.258, -1.218e-5
-1.257, -1.218e-5
-1.256, -1.526e-5
-1.255, -1.834e-5
-1.254, -2.143e-5
-1.253, -2.143e-5
-1.252, -2.451e-5
-1.251, -2.451e-5
-1.250, -2.759e-5
-1.249, -2.759e-5
-1.248, -3.068e-5
-1.247, -3.376e-5
-1.246, -3.376e-5
-1.245, -3.684e-5
-1.244, -3.684e-5
-1.243, -3.992e-5
-1.242, -3.992e-5
-1.241, -4.301e-5
-1.240, -4.301e-5
-1.239, -4.609e-5
-1.238, -4.609e-5
-1.237, -4.609e-5
-1.236, -4.917e-5
-1.235, -4.917e-5
-1.234, -4.917e-5
-1.233, -5.226e-5
-1.232, -5.534e-5
-1.231, -5.534e-5
-1.230, -5.842e-5
-1.229, -6.151e-5
-1.228, -6.151e-5
-1.227, -6.151e-5
-1.226, -6.151e-5
-1.225, -6.459e-5
-1.224, -6.459e-5
-1.223, -6.459e-5
-1.222, -6.767e-5
-1.221, -6.767e-5
-1.220, -6.767e-5
-1.219, -7.076e-5
-1.218, -7.384e-5
-1.217, -7.384e-5
-1.216, -7.384e-5
-1.215, -7.384e-5
-1.214, -7.692e-5
-1.213, -7.692e-5
-1.212, -7.692e-5
-1.211, -7.692e-5
-1.210, -8.000e-5
-1.209, -8.309e-5
-1.208, -8.309e-5
-1.207, -8.309e-5
-1.206, -8.309e-5
-1.205, -8.617e-5
-1.204, -8.617e-5
-1.203, -8.617e-5
-1.202, -8.925e-5
-1.201, -8.925e-5
-1.200, -8.925e-5
-1.199, -9.234e-5
-1.198, -9.234e-5
-1.197, -9.234e-5
-1.196, -9.234e-5
-1.195, -9.542e-5
-1.194, -9.542e-5
-1.193, -9.542e-5
-1.192, -9.850e-5
-1.191, -9.850e-5
-1.190, -1.016e-4
-1.189, -1.016e-4
-1.188, -1.016e-4
-1.187, -1.016e-4
-1.186, -1.047e-4
-1.185, -1.047e-4
-1.184, -1.047e-4
-1.183, -1.047e-4
-1.182, -1.078e-4
-1.181, -1.078e-4
-1.180, -1.108e-4
-1.179, -1.108e-4
-1.178, -1.108e-4
-1.177, -1.139e-4
-1.176, -1.139e-4
-1.175, -1.139e-4
-1.174, -1.170e-4
-1.173, -1.139e-4
-1.172, -1.170e-4
-1.171, -1.170e-4
-1.170, -1.201e-4
-1.169, -1.201e-4
-1.168, -1.201e-4
-1.167, -1.232e-4
-1.166, -1.232e-4
-1.165, -1.232e-4
-1.164, -1.232e-4
-1.163, -1.263e-4
-1.162, -1.263e-4
-1.161, -1.293e-4
-1.160, -1.293e-4
-1.159, -1.293e-4
-1.158, -1.293e-4
-1.157, -1.293e-4
-1.156, -1.324e-4
-1.155, -1.324e-4
-1.154, -1.324e-4
-1.153, -1.355e-4
-1.152, -1.355e-4
-1.151, -1.386e-4
-1.150, -1.386e-4
-1.149, -1.417e-4
-1.148, -1.417e-4
-1.147, -1.417e-4
-1.146, -1.417e-4
-1.145, -1.448e-4
-1.144, -1.448e-4
-1.143, -1.448e-4
-1.142, -1.448e-4
-1.141, -1.478e-4
-1.140, -1.478e-4
-1.139, -1.478e-4
-1.138, -1.509e-4
-1.137, -1.509e-4
-1.136, -1.509e-4
-1.135, -1.540e-4
-1.134, -1.540e-4
-1.133, -1.571e-4
-1.132, -1.571e-4
-1.131, -1.571e-4
-1.130, -1.571e-4
-1.129, -1.602e-4
-1.128, -1.602e-4
-1.127, -1.602e-4
-1.126, -1.632e-4
-1.125, -1.632e-4
-1.124, -1.663e-4
-1.123, -1.663e-4
-1.122, -1.663e-4
-1.121, -1.694e-4
-1.120, -1.694e-4
-1.119, -1.694e-4
-1.118, -1.725e-4
-1.117, -1.725e-4
-1.116, -1.725e-4
-1.115, -1.725e-4
-1.114, -1.756e-4
-1.113, -1.756e-4
-1.112, -1.787e-4
-1.111, -1.787e-4
-1.110, -1.817e-4
-1.109, -1.817e-4
-1.108, -1.848e-4
-1.107, -1.817e-4
-1.106, -1.848e-4
-1.105, -1.848e-4
-1.104, -1.848e-4
-1.103, -1.848e-4
-1.102, -1.879e-4
-1.101, -1.879e-4
-1.100, -1.910e-4
-1.099, -1.941e-4
-1.098, -1.941e-4
-1.097, -1.972e-4
-1.096, -1.941e-4
-1.095, -1.972e-4
-1.094, -1.972e-4
-1.093, -2.002e-4
-1.092, -2.002e-4
-1.091, -2.002e-4
-1.090, -2.033e-4
-1.089, -2.033e-4
-1.088, -2.033e-4
-1.087, -2.064e-4
-1.086, -2.064e-4
-1.085, -2.095e-4
-1.084, -2.095e-4
-1.083, -2.126e-4
-1.082, -2.126e-4
-1.081, -2.126e-4
-1.080, -2.126e-4
-1.079, -2.157e-4
-1.078, -2.157e-4
-1.077, -2.157e-4
-1.076, -2.187e-4
-1.075, -2.187e-4
-1.074, -2.218e-4
-1.073, -2.218e-4
-1.072, -2.249e-4
-1.071, -2.249e-4
-1.070, -2.249e-4
-1.069, -2.280e-4
-1.068, -2.280e-4
-1.067, -2.280e-4
-1.066, -2.311e-4
-1.065, -2.311e-4
-1.064, -2.311e-4
-1.063, -2.342e-4
-1.062, -2.342e-4
-1.061, -2.342e-4
-1.060, -2.372e-4
-1.059, -2.372e-4
-1.058, -2.403e-4
-1.057, -2.434e-4
-1.056, -2.434e-4
-1.055, -2.434e-4
-1.054, -2.465e-4
-1.053, -2.465e-4
-1.052, -2.496e-4
-1.051, -2.496e-4
-1.050, -2.496e-4
-1.049, -2.527e-4
-1.048, -2.527e-4
-1.047, -2.557e-4
-1.046, -2.557e-4
-1.045, -2.557e-4
-1.044, -2.588e-4
-1.043, -2.588e-4
-1.042, -2.619e-4
-1.041, -2.619e-4
-1.040, -2.650e-4
-1.039, -2.650e-4
-1.038, -2.650e-4
-1.037, -2.650e-4
-1.036, -2.681e-4
-1.035, -2.712e-4
-1.034, -2.712e-4
-1.033, -2.712e-4
-1.032, -2.742e-4
-1.031, -2.742e-4
-1.030, -2.773e-4
-1.029, -2.773e-4
-1.028, -2.804e-4
-1.027, -2.804e-4
-1.026, -2.835e-4
-1.025, -2.835e-4
-1.024, -2.835e-4
-1.023, -2.835e-4
-1.022, -2.866e-4
-1.021, -2.866e-4
-1.020, -2.897e-4
-1.019, -2.897e-4
-1.018, -2.927e-4
-1.017, -2.958e-4
-1.016, -2.958e-4
-1.015, -2.989e-4
-1.014, -2.989e-4
-1.013, -2.989e-4
-1.012, -3.020e-4
-1.011, -3.020e-4
-1.010, -3.020e-4
-1.009, -3.051e-4
-1.008, -3.051e-4
-1.007, -3.082e-4
-1.006, -3.112e-4
-1.005, -3.112e-4
-1.004, -3.143e-4
-1.003, -3.143e-4
-1.002, -3.174e-4
-1.001, -3.205e-4
