Dec. 20, 2024   09:24:18
Linear Sweep Voltammetry
File: c:/users/guazh/data/banditlqround7_x0exp667_r5/2024-12-16-exp709\regeneratedgce-2024-12-20t09_19_40-lsvinkoh\regeneratedgce_lsv_50mvs_efin_-1900mv.bin
Data Source:  Experiment
Instrument Model:  CHI760E
Header: LSV ran at 50 mVs with Efin at -1900mV
Note: 

Init E (V) = -0.6
Final E (V) = -1.9
Scan Rate (V/s) = 0.05
Sample Interval (V) = 0.001
Quiet Time (sec) = 2
Sensitivity (A/V) = 1e-4
Comp R (ohm) = 1.3

Results:

Channel 1:

Potential/V, Current/A

-0.600, -4.953e-7
-0.601, -3.626e-7
-0.602, -3.249e-7
-0.603, -2.996e-7
-0.604, -2.796e-7
-0.605, -2.652e-7
-0.606, -2.527e-7
-0.607, -2.405e-7
-0.608, -2.246e-7
-0.609, -2.106e-7
-0.610, -2.015e-7
-0.611, -1.901e-7
-0.612, -1.795e-7
-0.613, -1.670e-7
-0.614, -1.528e-7
-0.615, -1.434e-7
-0.616, -1.367e-7
-0.617, -1.284e-7
-0.618, -1.171e-7
-0.619, -1.057e-7
-0.620, -9.947e-8
-0.621, -9.325e-8
-0.622, -8.309e-8
-0.623, -7.372e-8
-0.624, -6.356e-8
-0.625, -5.803e-8
-0.626, -5.073e-8
-0.627, -4.225e-8
-0.628, -3.070e-8
-0.629, -2.320e-8
-0.630, -1.758e-8
-0.631, -1.156e-8
-0.632, -4.558e-9
-0.633, 5.407e-9
-0.634, 1.369e-8
-0.635, 1.863e-8
-0.636, 2.425e-8
-0.637, 3.017e-8
-0.638, 4.013e-8
-0.639, 4.763e-8
-0.640, 5.188e-8
-0.641, 5.770e-8
-0.642, 6.312e-8
-0.643, 7.230e-8
-0.644, 8.019e-8
-0.645, 8.266e-8
-0.646, 8.917e-8
-0.647, 9.430e-8
-0.648, 1.032e-7
-0.649, 1.102e-7
-0.650, 1.133e-7
-0.651, 1.180e-7
-0.652, 1.252e-7
-0.653, 1.339e-7
-0.654, 1.396e-7
-0.655, 1.423e-7
-0.656, 1.474e-7
-0.657, 1.537e-7
-0.658, 1.609e-7
-0.659, 1.687e-7
-0.660, 1.713e-7
-0.661, 1.748e-7
-0.662, 1.817e-7
-0.663, 1.872e-7
-0.664, 1.951e-7
-0.665, 1.990e-7
-0.666, 2.049e-7
-0.667, 2.089e-7
-0.668, 2.170e-7
-0.669, 2.214e-7
-0.670, 2.246e-7
-0.671, 2.288e-7
-0.672, 2.350e-7
-0.673, 2.423e-7
-0.674, 2.472e-7
-0.675, 2.515e-7
-0.676, 2.548e-7
-0.677, 2.596e-7
-0.678, 2.689e-7
-0.679, 2.734e-7
-0.680, 2.764e-7
-0.681, 2.809e-7
-0.682, 2.855e-7
-0.683, 2.929e-7
-0.684, 2.981e-7
-0.685, 2.998e-7
-0.686, 3.045e-7
-0.687, 3.099e-7
-0.688, 3.164e-7
-0.689, 3.218e-7
-0.690, 3.245e-7
-0.691, 3.279e-7
-0.692, 3.344e-7
-0.693, 3.402e-7
-0.694, 3.462e-7
-0.695, 3.475e-7
-0.696, 3.509e-7
-0.697, 3.564e-7
-0.698, 3.620e-7
-0.699, 3.664e-7
-0.700, 3.691e-7
-0.701, 3.721e-7
-0.702, 3.778e-7
-0.703, 3.851e-7
-0.704, 3.904e-7
-0.705, 3.925e-7
-0.706, 3.941e-7
-0.707, 3.996e-7
-0.708, 4.062e-7
-0.709, 4.094e-7
-0.710, 4.120e-7
-0.711, 4.154e-7
-0.712, 4.207e-7
-0.713, 4.282e-7
-0.714, 4.311e-7
-0.715, 4.337e-7
-0.716, 4.368e-7
-0.717, 4.417e-7
-0.718, 4.490e-7
-0.719, 4.523e-7
-0.720, 4.541e-7
-0.721, 4.583e-7
-0.722, 4.614e-7
-0.723, 4.694e-7
-0.724, 4.726e-7
-0.725, 4.738e-7
-0.726, 4.775e-7
-0.727, 4.811e-7
-0.728, 4.877e-7
-0.729, 4.922e-7
-0.730, 4.928e-7
-0.731, 4.969e-7
-0.732, 5.023e-7
-0.733, 5.082e-7
-0.734, 5.103e-7
-0.735, 5.111e-7
-0.736, 5.160e-7
-0.737, 5.206e-7
-0.738, 5.255e-7
-0.739, 5.294e-7
-0.740, 5.300e-7
-0.741, 5.321e-7
-0.742, 5.392e-7
-0.743, 5.451e-7
-0.744, 5.478e-7
-0.745, 5.492e-7
-0.746, 5.533e-7
-0.747, 5.577e-7
-0.748, 5.637e-7
-0.749, 5.661e-7
-0.750, 5.672e-7
-0.751, 5.690e-7
-0.752, 5.744e-7
-0.753, 5.807e-7
-0.754, 5.837e-7
-0.755, 5.850e-7
-0.756, 5.882e-7
-0.757, 5.917e-7
-0.758, 5.985e-7
-0.759, 6.010e-7
-0.760, 6.020e-7
-0.761, 6.056e-7
-0.762, 6.101e-7
-0.763, 6.163e-7
-0.764, 6.179e-7
-0.765, 6.200e-7
-0.766, 6.223e-7
-0.767, 6.278e-7
-0.768, 6.363e-7
-0.769, 6.381e-7
-0.770, 6.378e-7
-0.771, 6.423e-7
-0.772, 6.470e-7
-0.773, 6.532e-7
-0.774, 6.566e-7
-0.775, 6.574e-7
-0.776, 6.595e-7
-0.777, 6.652e-7
-0.778, 6.698e-7
-0.779, 6.730e-7
-0.780, 6.749e-7
-0.781, 6.765e-7
-0.782, 6.829e-7
-0.783, 6.883e-7
-0.784, 6.919e-7
-0.785, 6.928e-7
-0.786, 6.947e-7
-0.787, 6.997e-7
-0.788, 7.070e-7
-0.789, 7.077e-7
-0.790, 7.096e-7
-0.791, 7.120e-7
-0.792, 7.162e-7
-0.793, 7.224e-7
-0.794, 7.253e-7
-0.795, 7.262e-7
-0.796, 7.286e-7
-0.797, 7.332e-7
-0.798, 7.393e-7
-0.799, 7.410e-7
-0.800, 7.434e-7
-0.801, 7.466e-7
-0.802, 7.495e-7
-0.803, 7.562e-7
-0.804, 7.579e-7
-0.805, 7.590e-7
-0.806, 7.628e-7
-0.807, 7.679e-7
-0.808, 7.738e-7
-0.809, 7.759e-7
-0.810, 7.771e-7
-0.811, 7.808e-7
-0.812, 7.865e-7
-0.813, 7.917e-7
-0.814, 7.939e-7
-0.815, 7.947e-7
-0.816, 7.974e-7
-0.817, 8.031e-7
-0.818, 8.082e-7
-0.819, 8.152e-7
-0.820, 8.174e-7
-0.821, 8.166e-7
-0.822, 8.225e-7
-0.823, 8.275e-7
-0.824, 8.296e-7
-0.825, 8.323e-7
-0.826, 8.337e-7
-0.827, 8.396e-7
-0.828, 8.455e-7
-0.829, 8.474e-7
-0.830, 8.486e-7
-0.831, 8.517e-7
-0.832, 8.574e-7
-0.833, 8.629e-7
-0.834, 8.645e-7
-0.835, 8.675e-7
-0.836, 8.693e-7
-0.837, 8.746e-7
-0.838, 8.818e-7
-0.839, 8.829e-7
-0.840, 8.833e-7
-0.841, 8.876e-7
-0.842, 8.915e-7
-0.843, 8.984e-7
-0.844, 9.000e-7
-0.845, 9.020e-7
-0.846, 9.058e-7
-0.847, 9.100e-7
-0.848, 9.165e-7
-0.849, 9.178e-7
-0.850, 9.175e-7
-0.851, 9.229e-7
-0.852, 9.276e-7
-0.853, 9.319e-7
-0.854, 9.350e-7
-0.855, 9.373e-7
-0.856, 9.401e-7
-0.857, 9.472e-7
-0.858, 9.520e-7
-0.859, 9.538e-7
-0.860, 9.550e-7
-0.861, 9.578e-7
-0.862, 9.656e-7
-0.863, 9.697e-7
-0.864, 9.720e-7
-0.865, 9.740e-7
-0.866, 9.767e-7
-0.867, 9.815e-7
-0.868, 9.878e-7
-0.869, 9.894e-7
-0.870, 9.929e-7
-0.871, 9.969e-7
-0.872, 1.000e-6
-0.873, 1.007e-6
-0.874, 1.007e-6
-0.875, 1.009e-6
-0.876, 1.012e-6
-0.877, 1.018e-6
-0.878, 1.025e-6
-0.879, 1.026e-6
-0.880, 1.027e-6
-0.881, 1.031e-6
-0.882, 1.037e-6
-0.883, 1.043e-6
-0.884, 1.044e-6
-0.885, 1.046e-6
-0.886, 1.051e-6
-0.887, 1.056e-6
-0.888, 1.061e-6
-0.889, 1.064e-6
-0.890, 1.067e-6
-0.891, 1.068e-6
-0.892, 1.075e-6
-0.893, 1.080e-6
-0.894, 1.083e-6
-0.895, 1.084e-6
-0.896, 1.088e-6
-0.897, 1.094e-6
-0.898, 1.099e-6
-0.899, 1.101e-6
-0.900, 1.104e-6
-0.901, 1.106e-6
-0.902, 1.113e-6
-0.903, 1.118e-6
-0.904, 1.120e-6
-0.905, 1.122e-6
-0.906, 1.124e-6
-0.907, 1.130e-6
-0.908, 1.137e-6
-0.909, 1.139e-6
-0.910, 1.141e-6
-0.911, 1.144e-6
-0.912, 1.150e-6
-0.913, 1.156e-6
-0.914, 1.158e-6
-0.915, 1.160e-6
-0.916, 1.163e-6
-0.917, 1.170e-6
-0.918, 1.176e-6
-0.919, 1.178e-6
-0.920, 1.180e-6
-0.921, 1.186e-6
-0.922, 1.192e-6
-0.923, 1.198e-6
-0.924, 1.200e-6
-0.925, 1.202e-6
-0.926, 1.208e-6
-0.927, 1.211e-6
-0.928, 1.217e-6
-0.929, 1.219e-6
-0.930, 1.221e-6
-0.931, 1.224e-6
-0.932, 1.232e-6
-0.933, 1.237e-6
-0.934, 1.240e-6
-0.935, 1.242e-6
-0.936, 1.247e-6
-0.937, 1.253e-6
-0.938, 1.256e-6
-0.939, 1.258e-6
-0.940, 1.262e-6
-0.941, 1.267e-6
-0.942, 1.272e-6
-0.943, 1.277e-6
-0.944, 1.280e-6
-0.945, 1.283e-6
-0.946, 1.287e-6
-0.947, 1.295e-6
-0.948, 1.300e-6
-0.949, 1.300e-6
-0.950, 1.306e-6
-0.951, 1.309e-6
-0.952, 1.316e-6
-0.953, 1.322e-6
-0.954, 1.324e-6
-0.955, 1.328e-6
-0.956, 1.332e-6
-0.957, 1.338e-6
-0.958, 1.343e-6
-0.959, 1.345e-6
-0.960, 1.349e-6
-0.961, 1.354e-6
-0.962, 1.362e-6
-0.963, 1.367e-6
-0.964, 1.369e-6
-0.965, 1.371e-6
-0.966, 1.378e-6
-0.967, 1.384e-6
-0.968, 1.389e-6
-0.969, 1.393e-6
-0.970, 1.394e-6
-0.971, 1.400e-6
-0.972, 1.407e-6
-0.973, 1.415e-6
-0.974, 1.416e-6
-0.975, 1.417e-6
-0.976, 1.423e-6
-0.977, 1.431e-6
-0.978, 1.435e-6
-0.979, 1.438e-6
-0.980, 1.443e-6
-0.981, 1.447e-6
-0.982, 1.456e-6
-0.983, 1.460e-6
-0.984, 1.463e-6
-0.985, 1.467e-6
-0.986, 1.471e-6
-0.987, 1.480e-6
-0.988, 1.485e-6
-0.989, 1.488e-6
-0.990, 1.492e-6
-0.991, 1.495e-6
-0.992, 1.503e-6
-0.993, 1.510e-6
-0.994, 1.511e-6
-0.995, 1.515e-6
-0.996, 1.521e-6
-0.997, 1.529e-6
-0.998, 1.536e-6
-0.999, 1.538e-6
-1.000, 1.541e-6
-1.001, 1.547e-6
-1.002, 1.554e-6
-1.003, 1.561e-6
-1.004, 1.564e-6
-1.005, 1.568e-6
-1.006, 1.573e-6
-1.007, 1.581e-6
-1.008, 1.587e-6
-1.009, 1.589e-6
-1.010, 1.593e-6
-1.011, 1.599e-6
-1.012, 1.608e-6
-1.013, 1.612e-6
-1.014, 1.618e-6
-1.015, 1.620e-6
-1.016, 1.625e-6
-1.017, 1.635e-6
-1.018, 1.640e-6
-1.019, 1.643e-6
-1.020, 1.648e-6
-1.021, 1.653e-6
-1.022, 1.662e-6
-1.023, 1.666e-6
-1.024, 1.671e-6
-1.025, 1.676e-6
-1.026, 1.681e-6
-1.027, 1.689e-6
-1.028, 1.696e-6
-1.029, 1.699e-6
-1.030, 1.704e-6
-1.031, 1.710e-6
-1.032, 1.719e-6
-1.033, 1.725e-6
-1.034, 1.728e-6
-1.035, 1.733e-6
-1.036, 1.740e-6
-1.037, 1.749e-6
-1.038, 1.754e-6
-1.039, 1.757e-6
-1.040, 1.761e-6
-1.041, 1.768e-6
-1.042, 1.775e-6
-1.043, 1.782e-6
-1.044, 1.787e-6
-1.045, 1.789e-6
-1.046, 1.797e-6
-1.047, 1.806e-6
-1.048, 1.811e-6
-1.049, 1.815e-6
-1.050, 1.820e-6
-1.051, 1.826e-6
-1.052, 1.835e-6
-1.053, 1.841e-6
-1.054, 1.844e-6
-1.055, 1.848e-6
-1.056, 1.855e-6
-1.057, 1.865e-6
-1.058, 1.869e-6
-1.059, 1.874e-6
-1.060, 1.878e-6
-1.061, 1.884e-6
-1.062, 1.894e-6
-1.063, 1.899e-6
-1.064, 1.902e-6
-1.065, 1.909e-6
-1.066, 1.913e-6
-1.067, 1.922e-6
-1.068, 1.927e-6
-1.069, 1.930e-6
-1.070, 1.935e-6
-1.071, 1.943e-6
-1.072, 1.951e-6
-1.073, 1.957e-6
-1.074, 1.959e-6
-1.075, 1.967e-6
-1.076, 1.974e-6
-1.077, 1.980e-6
-1.078, 1.986e-6
-1.079, 1.989e-6
-1.080, 1.995e-6
-1.081, 2.003e-6
-1.082, 2.012e-6
-1.083, 2.016e-6
-1.084, 2.021e-6
-1.085, 2.023e-6
-1.086, 2.033e-6
-1.087, 2.040e-6
-1.088, 2.047e-6
-1.089, 2.053e-6
-1.090, 2.057e-6
-1.091, 2.063e-6
-1.092, 2.072e-6
-1.093, 2.079e-6
-1.094, 2.083e-6
-1.095, 2.087e-6
-1.096, 2.095e-6
-1.097, 2.104e-6
-1.098, 2.109e-6
-1.099, 2.113e-6
-1.100, 2.119e-6
-1.101, 2.125e-6
-1.102, 2.135e-6
-1.103, 2.140e-6
-1.104, 2.144e-6
-1.105, 2.150e-6
-1.106, 2.156e-6
-1.107, 2.167e-6
-1.108, 2.171e-6
-1.109, 2.176e-6
-1.110, 2.180e-6
-1.111, 2.187e-6
-1.112, 2.196e-6
-1.113, 2.203e-6
-1.114, 2.207e-6
-1.115, 2.212e-6
-1.116, 2.220e-6
-1.117, 2.227e-6
-1.118, 2.232e-6
-1.119, 2.236e-6
-1.120, 2.241e-6
-1.121, 2.250e-6
-1.122, 2.258e-6
-1.123, 2.264e-6
-1.124, 2.266e-6
-1.125, 2.272e-6
-1.126, 2.281e-6
-1.127, 2.289e-6
-1.128, 2.294e-6
-1.129, 2.298e-6
-1.130, 2.302e-6
-1.131, 2.313e-6
-1.132, 2.321e-6
-1.133, 2.326e-6
-1.134, 2.331e-6
-1.135, 2.335e-6
-1.136, 2.344e-6
-1.137, 2.354e-6
-1.138, 2.357e-6
-1.139, 2.363e-6
-1.140, 2.370e-6
-1.141, 2.375e-6
-1.142, 2.386e-6
-1.143, 2.392e-6
-1.144, 2.395e-6
-1.145, 2.401e-6
-1.146, 2.410e-6
-1.147, 2.420e-6
-1.148, 2.426e-6
-1.149, 2.428e-6
-1.150, 2.435e-6
-1.151, 2.442e-6
-1.152, 2.452e-6
-1.153, 2.458e-6
-1.154, 2.459e-6
-1.155, 2.465e-6
-1.156, 2.473e-6
-1.157, 2.481e-6
-1.158, 2.489e-6
-1.159, 2.492e-6
-1.160, 2.497e-6
-1.161, 2.506e-6
-1.162, 2.514e-6
-1.163, 2.520e-6
-1.164, 2.525e-6
-1.165, 2.529e-6
-1.166, 2.538e-6
-1.167, 2.548e-6
-1.168, 2.553e-6
-1.169, 2.560e-6
-1.170, 2.563e-6
-1.171, 2.572e-6
-1.172, 2.582e-6
-1.173, 2.586e-6
-1.174, 2.591e-6
-1.175, 2.596e-6
-1.176, 2.605e-6
-1.177, 2.614e-6
-1.178, 2.622e-6
-1.179, 2.625e-6
-1.180, 2.630e-6
-1.181, 2.638e-6
-1.182, 2.648e-6
-1.183, 2.652e-6
-1.184, 2.656e-6
-1.185, 2.663e-6
-1.186, 2.670e-6
-1.187, 2.680e-6
-1.188, 2.686e-6
-1.189, 2.690e-6
-1.190, 2.695e-6
-1.191, 2.703e-6
-1.192, 2.713e-6
-1.193, 2.718e-6
-1.194, 2.720e-6
-1.195, 2.726e-6
-1.196, 2.735e-6
-1.197, 2.744e-6
-1.198, 2.748e-6
-1.199, 2.752e-6
-1.200, 2.757e-6
-1.201, 2.766e-6
-1.202, 2.774e-6
-1.203, 2.780e-6
-1.204, 2.785e-6
-1.205, 2.788e-6
-1.206, 2.798e-6
-1.207, 2.806e-6
-1.208, 2.811e-6
-1.209, 2.814e-6
-1.210, 2.820e-6
-1.211, 2.829e-6
-1.212, 2.839e-6
-1.213, 2.843e-6
-1.214, 2.848e-6
-1.215, 2.851e-6
-1.216, 2.859e-6
-1.217, 2.869e-6
-1.218, 2.872e-6
-1.219, 2.877e-6
-1.220, 2.880e-6
-1.221, 2.889e-6
-1.222, 2.898e-6
-1.223, 2.901e-6
-1.224, 2.904e-6
-1.225, 2.910e-6
-1.226, 2.917e-6
-1.227, 2.926e-6
-1.228, 2.929e-6
-1.229, 2.938e-6
-1.230, 2.941e-6
-1.231, 2.945e-6
-1.232, 2.952e-6
-1.233, 2.955e-6
-1.234, 2.958e-6
-1.235, 2.963e-6
-1.236, 2.971e-6
-1.237, 2.976e-6
-1.238, 2.980e-6
-1.239, 2.980e-6
-1.240, 2.984e-6
-1.241, 2.992e-6
-1.242, 2.998e-6
-1.243, 3.001e-6
-1.244, 3.003e-6
-1.245, 3.005e-6
-1.246, 3.014e-6
-1.247, 3.020e-6
-1.248, 3.020e-6
-1.249, 3.023e-6
-1.250, 3.024e-6
-1.251, 3.031e-6
-1.252, 3.038e-6
-1.253, 3.037e-6
-1.254, 3.039e-6
-1.255, 3.042e-6
-1.256, 3.047e-6
-1.257, 3.053e-6
-1.258, 3.052e-6
-1.259, 3.054e-6
-1.260, 3.057e-6
-1.261, 3.060e-6
-1.262, 3.066e-6
-1.263, 3.068e-6
-1.264, 3.067e-6
-1.265, 3.067e-6
-1.266, 3.073e-6
-1.267, 3.077e-6
-1.268, 3.077e-6
-1.269, 3.078e-6
-1.270, 3.080e-6
-1.271, 3.083e-6
-1.272, 3.088e-6
-1.273, 3.089e-6
-1.274, 3.087e-6
-1.275, 3.088e-6
-1.276, 3.094e-6
-1.277, 3.097e-6
-1.278, 3.097e-6
-1.279, 3.096e-6
-1.280, 3.100e-6
-1.281, 3.105e-6
-1.282, 3.106e-6
-1.283, 3.107e-6
-1.284, 3.108e-6
-1.285, 3.106e-6
-1.286, 3.112e-6
-1.287, 3.115e-6
-1.288, 3.113e-6
-1.289, 3.114e-6
-1.290, 3.113e-6
-1.291, 3.120e-6
-1.292, 3.124e-6
-1.293, 3.123e-6
-1.294, 3.121e-6
-1.295, 3.121e-6
-1.296, 3.125e-6
-1.297, 3.130e-6
-1.298, 3.128e-6
-1.299, 3.129e-6
-1.300, 3.130e-6
-1.301, 3.134e-6
-1.302, 3.139e-6
-1.303, 3.138e-6
-1.304, 3.137e-6
-1.305, 3.138e-6
-1.306, 3.142e-6
-1.307, 3.146e-6
-1.308, 3.147e-6
-1.309, 3.148e-6
-1.310, 3.151e-6
-1.311, 3.156e-6
-1.312, 3.160e-6
-1.313, 3.159e-6
-1.314, 3.156e-6
-1.315, 3.158e-6
-1.316, 3.164e-6
-1.317, 3.166e-6
-1.318, 3.168e-6
-1.319, 3.168e-6
-1.320, 3.172e-6
-1.321, 3.177e-6
-1.322, 3.180e-6
-1.323, 3.181e-6
-1.324, 3.180e-6
-1.325, 3.180e-6
-1.326, 3.188e-6
-1.327, 3.191e-6
-1.328, 3.191e-6
-1.329, 3.194e-6
-1.330, 3.195e-6
-1.331, 3.201e-6
-1.332, 3.206e-6
-1.333, 3.205e-6
-1.334, 3.208e-6
-1.335, 3.209e-6
-1.336, 3.216e-6
-1.337, 3.222e-6
-1.338, 3.221e-6
-1.339, 3.222e-6
-1.340, 3.226e-6
-1.341, 3.232e-6
-1.342, 3.239e-6
-1.343, 3.239e-6
-1.344, 3.243e-6
-1.345, 3.246e-6
-1.346, 3.252e-6
-1.347, 3.259e-6
-1.348, 3.259e-6
-1.349, 3.262e-6
-1.350, 3.266e-6
-1.351, 3.274e-6
-1.352, 3.281e-6
-1.353, 3.283e-6
-1.354, 3.285e-6
-1.355, 3.289e-6
-1.356, 3.298e-6
-1.357, 3.304e-6
-1.358, 3.308e-6
-1.359, 3.309e-6
-1.360, 3.315e-6
-1.361, 3.325e-6
-1.362, 3.330e-6
-1.363, 3.335e-6
-1.364, 3.337e-6
-1.365, 3.343e-6
-1.366, 3.354e-6
-1.367, 3.360e-6
-1.368, 3.361e-6
-1.369, 3.366e-6
-1.370, 3.371e-6
-1.371, 3.386e-6
-1.372, 3.392e-6
-1.373, 3.396e-6
-1.374, 3.401e-6
-1.375, 3.405e-6
-1.376, 3.417e-6
-1.377, 3.423e-6
-1.378, 3.428e-6
-1.379, 3.432e-6
-1.380, 3.439e-6
-1.381, 3.450e-6
-1.382, 3.462e-6
-1.383, 3.466e-6
-1.384, 3.469e-6
-1.385, 3.478e-6
-1.386, 3.487e-6
-1.387, 3.499e-6
-1.388, 3.503e-6
-1.389, 3.507e-6
-1.390, 3.517e-6
-1.391, 3.529e-6
-1.392, 3.539e-6
-1.393, 3.544e-6
-1.394, 3.549e-6
-1.395, 3.558e-6
-1.396, 3.572e-6
-1.397, 3.580e-6
-1.398, 3.589e-6
-1.399, 3.594e-6
-1.400, 3.604e-6
-1.401, 3.618e-6
-1.402, 3.628e-6
-1.403, 3.636e-6
-1.404, 3.642e-6
-1.405, 3.651e-6
-1.406, 3.665e-6
-1.407, 3.674e-6
-1.408, 3.681e-6
-1.409, 3.689e-6
-1.410, 3.696e-6
-1.411, 3.709e-6
-1.412, 3.721e-6
-1.413, 3.725e-6
-1.414, 3.731e-6
-1.415, 3.739e-6
-1.416, 3.749e-6
-1.417, 3.760e-6
-1.418, 3.761e-6
-1.419, 3.767e-6
-1.420, 3.776e-6
-1.421, 3.786e-6
-1.422, 3.794e-6
-1.423, 3.796e-6
-1.424, 3.800e-6
-1.425, 3.807e-6
-1.426, 3.816e-6
-1.427, 3.823e-6
-1.428, 3.826e-6
-1.429, 3.827e-6
-1.430, 3.835e-6
-1.431, 3.843e-6
-1.432, 3.850e-6
-1.433, 3.852e-6
-1.434, 3.856e-6
-1.435, 3.861e-6
-1.436, 3.867e-6
-1.437, 3.873e-6
-1.438, 3.876e-6
-1.439, 3.877e-6
-1.440, 3.881e-6
-1.441, 3.887e-6
-1.442, 3.892e-6
-1.443, 3.895e-6
-1.444, 3.895e-6
-1.445, 3.901e-6
-1.446, 3.909e-6
-1.447, 3.912e-6
-1.448, 3.912e-6
-1.449, 3.914e-6
-1.450, 3.918e-6
-1.451, 3.928e-6
-1.452, 3.930e-6
-1.453, 3.931e-6
-1.454, 3.934e-6
-1.455, 3.936e-6
-1.456, 3.943e-6
-1.457, 3.948e-6
-1.458, 3.948e-6
-1.459, 3.949e-6
-1.460, 3.954e-6
-1.461, 3.961e-6
-1.462, 3.965e-6
-1.463, 3.964e-6
-1.464, 3.967e-6
-1.465, 3.972e-6
-1.466, 3.979e-6
-1.467, 3.985e-6
-1.468, 3.983e-6
-1.469, 3.983e-6
-1.470, 3.990e-6
-1.471, 3.996e-6
-1.472, 4.002e-6
-1.473, 4.004e-6
-1.474, 4.005e-6
-1.475, 4.010e-6
-1.476, 4.019e-6
-1.477, 4.024e-6
-1.478, 4.024e-6
-1.479, 4.025e-6
-1.480, 4.029e-6
-1.481, 4.040e-6
-1.482, 4.042e-6
-1.483, 4.045e-6
-1.484, 4.047e-6
-1.485, 4.057e-6
-1.486, 4.067e-6
-1.487, 4.069e-6
-1.488, 4.071e-6
-1.489, 4.073e-6
-1.490, 4.078e-6
-1.491, 4.090e-6
-1.492, 4.095e-6
-1.493, 4.097e-6
-1.494, 4.102e-6
-1.495, 4.109e-6
-1.496, 4.119e-6
-1.497, 4.126e-6
-1.498, 4.128e-6
-1.499, 4.133e-6
-1.500, 4.141e-6
-1.501, 4.150e-6
-1.502, 4.161e-6
-1.503, 4.162e-6
-1.504, 4.168e-6
-1.505, 4.175e-6
-1.506, 4.187e-6
-1.507, 4.195e-6
-1.508, 4.198e-6
-1.509, 4.204e-6
-1.510, 4.215e-6
-1.511, 4.227e-6
-1.512, 4.235e-6
-1.513, 4.240e-6
-1.514, 4.244e-6
-1.515, 4.255e-6
-1.516, 4.270e-6
-1.517, 4.277e-6
-1.518, 4.285e-6
-1.519, 4.291e-6
-1.520, 4.304e-6
-1.521, 4.319e-6
-1.522, 4.326e-6
-1.523, 4.335e-6
-1.524, 4.342e-6
-1.525, 4.354e-6
-1.526, 4.372e-6
-1.527, 4.381e-6
-1.528, 4.390e-6
-1.529, 4.400e-6
-1.530, 4.413e-6
-1.531, 4.429e-6
-1.532, 4.443e-6
-1.533, 4.450e-6
-1.534, 4.462e-6
-1.535, 4.476e-6
-1.536, 4.495e-6
-1.537, 4.509e-6
-1.538, 4.516e-6
-1.539, 4.530e-6
-1.540, 4.547e-6
-1.541, 4.566e-6
-1.542, 4.582e-6
-1.543, 4.592e-6
-1.544, 4.602e-6
-1.545, 4.623e-6
-1.546, 4.639e-6
-1.547, 4.656e-6
-1.548, 4.669e-6
-1.549, 4.682e-6
-1.550, 4.703e-6
-1.551, 4.722e-6
-1.552, 4.738e-6
-1.553, 4.752e-6
-1.554, 4.764e-6
-1.555, 4.785e-6
-1.556, 4.809e-6
-1.557, 4.827e-6
-1.558, 4.842e-6
-1.559, 4.859e-6
-1.560, 4.880e-6
-1.561, 4.907e-6
-1.562, 4.924e-6
-1.563, 4.940e-6
-1.564, 4.956e-6
-1.565, 4.981e-6
-1.566, 5.009e-6
-1.567, 5.029e-6
-1.568, 5.046e-6
-1.569, 5.067e-6
-1.570, 5.090e-6
-1.571, 5.119e-6
-1.572, 5.140e-6
-1.573, 5.158e-6
-1.574, 5.182e-6
-1.575, 5.207e-6
-1.576, 5.236e-6
-1.577, 5.263e-6
-1.578, 5.281e-6
-1.579, 5.307e-6
-1.580, 5.336e-6
-1.581, 5.367e-6
-1.582, 5.394e-6
-1.583, 5.413e-6
-1.584, 5.437e-6
-1.585, 5.470e-6
-1.586, 5.501e-6
-1.587, 5.533e-6
-1.588, 5.559e-6
-1.589, 5.582e-6
-1.590, 5.617e-6
-1.591, 5.649e-6
-1.592, 5.679e-6
-1.593, 5.705e-6
-1.594, 5.732e-6
-1.595, 5.769e-6
-1.596, 5.807e-6
-1.597, 5.839e-6
-1.598, 5.865e-6
-1.599, 5.894e-6
-1.600, 5.930e-6
-1.601, 5.968e-6
-1.602, 6.001e-6
-1.603, 6.033e-6
-1.604, 6.067e-6
-1.605, 6.107e-6
-1.606, 6.150e-6
-1.607, 6.183e-6
-1.608, 6.211e-6
-1.609, 6.248e-6
-1.610, 6.284e-6
-1.611, 6.332e-6
-1.612, 6.371e-6
-1.613, 6.409e-6
-1.614, 6.447e-6
-1.615, 6.489e-6
-1.616, 6.535e-6
-1.617, 6.578e-6
-1.618, 6.614e-6
-1.619, 6.655e-6
-1.620, 6.702e-6
-1.621, 6.750e-6
-1.622, 6.796e-6
-1.623, 6.832e-6
-1.624, 6.877e-6
-1.625, 6.927e-6
-1.626, 6.977e-6
-1.627, 7.023e-6
-1.628, 7.066e-6
-1.629, 7.114e-6
-1.630, 7.165e-6
-1.631, 7.220e-6
-1.632, 7.268e-6
-1.633, 7.315e-6
-1.634, 7.362e-6
-1.635, 7.420e-6
-1.636, 7.477e-6
-1.637, 7.528e-6
-1.638, 7.585e-6
-1.639, 7.647e-6
-1.640, 7.700e-6
-1.641, 7.763e-6
-1.642, 7.815e-6
-1.643, 7.870e-6
-1.644, 7.927e-6
-1.645, 7.987e-6
-1.646, 8.052e-6
-1.647, 8.114e-6
-1.648, 8.174e-6
-1.649, 8.242e-6
-1.650, 8.310e-6
-1.651, 8.380e-6
-1.652, 8.441e-6
-1.653, 8.497e-6
-1.654, 8.560e-6
-1.655, 8.625e-6
-1.656, 8.694e-6
-1.657, 8.761e-6
-1.658, 8.816e-6
-1.659, 8.882e-6
-1.660, 8.955e-6
-1.661, 9.027e-6
-1.662, 9.099e-6
-1.663, 9.167e-6
-1.664, 9.240e-6
-1.665, 9.322e-6
-1.666, 9.400e-6
-1.667, 9.476e-6
-1.668, 9.550e-6
-1.669, 9.622e-6
-1.670, 9.708e-6
-1.671, 9.793e-6
-1.672, 9.870e-6
-1.673, 9.948e-6
-1.674, 1.002e-5
-1.675, 1.011e-5
-1.676, 1.020e-5
-1.677, 1.028e-5
-1.678, 1.036e-5
-1.679, 1.044e-5
-1.680, 1.053e-5
-1.681, 1.063e-5
-1.682, 1.072e-5
-1.683, 1.080e-5
-1.684, 1.089e-5
-1.685, 1.099e-5
-1.686, 1.109e-5
-1.687, 1.119e-5
-1.688, 1.128e-5
-1.689, 1.138e-5
-1.690, 1.149e-5
-1.691, 1.159e-5
-1.692, 1.169e-5
-1.693, 1.179e-5
-1.694, 1.191e-5
-1.695, 1.201e-5
-1.696, 1.210e-5
-1.697, 1.219e-5
-1.698, 1.227e-5
-1.699, 1.236e-5
-1.700, 1.246e-5
-1.701, 1.255e-5
-1.702, 1.263e-5
-1.703, 1.270e-5
-1.704, 1.274e-5
-1.705, 1.279e-5
-1.706, 1.286e-5
-1.707, 1.294e-5
-1.708, 1.303e-5
-1.709, 1.310e-5
-1.710, 1.320e-5
-1.711, 1.329e-5
-1.712, 1.339e-5
-1.713, 1.348e-5
-1.714, 1.359e-5
-1.715, 1.371e-5
-1.716, 1.384e-5
-1.717, 1.396e-5
-1.718, 1.409e-5
-1.719, 1.421e-5
-1.720, 1.435e-5
-1.721, 1.449e-5
-1.722, 1.461e-5
-1.723, 1.474e-5
-1.724, 1.487e-5
-1.725, 1.500e-5
-1.726, 1.514e-5
-1.727, 1.528e-5
-1.728, 1.542e-5
-1.729, 1.557e-5
-1.730, 1.573e-5
-1.731, 1.589e-5
-1.732, 1.605e-5
-1.733, 1.620e-5
-1.734, 1.635e-5
-1.735, 1.651e-5
-1.736, 1.669e-5
-1.737, 1.685e-5
-1.738, 1.703e-5
-1.739, 1.719e-5
-1.740, 1.734e-5
-1.741, 1.751e-5
-1.742, 1.769e-5
-1.743, 1.789e-5
-1.744, 1.808e-5
-1.745, 1.827e-5
-1.746, 1.846e-5
-1.747, 1.865e-5
-1.748, 1.884e-5
-1.749, 1.906e-5
-1.750, 1.929e-5
-1.751, 1.952e-5
-1.752, 1.975e-5
-1.753, 2.000e-5
-1.754, 2.026e-5
-1.755, 2.051e-5
-1.756, 2.076e-5
-1.757, 2.099e-5
-1.758, 2.121e-5
-1.759, 2.146e-5
-1.760, 2.173e-5
-1.761, 2.200e-5
-1.762, 2.230e-5
-1.763, 2.257e-5
-1.764, 2.289e-5
-1.765, 2.321e-5
-1.766, 2.353e-5
-1.767, 2.385e-5
-1.768, 2.420e-5
-1.769, 2.456e-5
-1.770, 2.492e-5
-1.771, 2.528e-5
-1.772, 2.565e-5
-1.773, 2.603e-5
-1.774, 2.641e-5
-1.775, 2.677e-5
-1.776, 2.718e-5
-1.777, 2.761e-5
-1.778, 2.800e-5
-1.779, 2.840e-5
-1.780, 2.889e-5
-1.781, 2.939e-5
-1.782, 2.984e-5
-1.783, 3.029e-5
-1.784, 3.078e-5
-1.785, 3.133e-5
-1.786, 3.184e-5
-1.787, 3.235e-5
-1.788, 3.291e-5
-1.789, 3.356e-5
-1.790, 3.420e-5
-1.791, 3.481e-5
-1.792, 3.544e-5
-1.793, 3.609e-5
-1.794, 3.681e-5
-1.795, 3.751e-5
-1.796, 3.818e-5
-1.797, 3.889e-5
-1.798, 3.966e-5
-1.799, 4.043e-5
-1.800, 4.119e-5
-1.801, 4.199e-5
-1.802, 4.284e-5
-1.803, 4.371e-5
-1.804, 4.464e-5
-1.805, 4.558e-5
-1.806, 4.655e-5
-1.807, 4.751e-5
-1.808, 4.846e-5
-1.809, 4.941e-5
-1.810, 5.041e-5
-1.811, 5.146e-5
-1.812, 5.249e-5
-1.813, 5.363e-5
-1.814, 5.481e-5
-1.815, 5.599e-5
-1.816, 5.717e-5
-1.817, 5.841e-5
-1.818, 5.962e-5
-1.819, 6.087e-5
-1.820, 6.223e-5
-1.821, 6.363e-5
-1.822, 6.504e-5
-1.823, 6.648e-5
-1.824, 6.794e-5
-1.825, 6.960e-5
-1.826, 7.129e-5
-1.827, 7.292e-5
-1.828, 7.458e-5
-1.829, 7.623e-5
-1.830, 7.790e-5
-1.831, 7.967e-5
-1.832, 8.144e-5
-1.833, 8.319e-5
-1.834, 8.503e-5
-1.835, 8.687e-5
-1.836, 8.887e-5
-1.837, 9.085e-5
-1.838, 9.292e-5
-1.839, 9.499e-5
-1.840, 9.720e-5
-1.841, 9.941e-5
-1.842, 1.016e-4
-1.843, 1.038e-4
-1.844, 1.061e-4
-1.845, 1.085e-4
-1.846, 1.110e-4
-1.847, 1.136e-4
-1.848, 1.163e-4
-1.849, 1.190e-4
-1.850, 1.218e-4
-1.851, 1.245e-4
-1.852, 1.274e-4
-1.853, 1.303e-4
-1.854, 1.333e-4
-1.855, 1.362e-4
-1.856, 1.392e-4
-1.857, 1.423e-4
-1.858, 1.455e-4
-1.859, 1.488e-4
-1.860, 1.522e-4
-1.861, 1.557e-4
-1.862, 1.592e-4
-1.863, 1.629e-4
-1.864, 1.666e-4
-1.865, 1.705e-4
-1.866, 1.745e-4
-1.867, 1.785e-4
-1.868, 1.826e-4
-1.869, 1.868e-4
-1.870, 1.911e-4
-1.871, 1.955e-4
-1.872, 2.000e-4
-1.873, 2.045e-4
-1.874, 2.091e-4
-1.875, 2.138e-4
-1.876, 2.186e-4
-1.877, 2.236e-4
-1.878, 2.286e-4
-1.879, 2.338e-4
-1.880, 2.392e-4
-1.881, 2.447e-4
-1.882, 2.503e-4
-1.883, 2.559e-4
-1.884, 2.618e-4
-1.885, 2.676e-4
-1.886, 2.737e-4
-1.887, 2.798e-4
-1.888, 2.861e-4
-1.889, 2.925e-4
-1.890, 2.990e-4
-1.891, 3.057e-4
-1.892, 3.125e-4
-1.893, 3.194e-4
-1.894, 3.265e-4
-1.895, 3.337e-4
-1.896, 3.410e-4
-1.897, 3.484e-4
-1.898, 3.560e-4
-1.899, 3.638e-4
