Sept. 14, 2024   01:06:37
Cyclic Voltammetry
File: c:/users/guazh/data/20240903_batch_252_500/2024-09-03-exp347\exp347-2024-09-14t00_41_59-h2koh\exp347_cv_sr_300mvs_efin_-2000mv.bin
Data Source:  Experiment
Instrument Model:  CHI760E
Header: CV ran at 300 mVs
Note: 

Init E (V) = -1
High E (V) = -1
Low E (V) = -2
Final E (V) = -1
Init P/N = N
Scan Rate (V/s) = 0.3
Segment = 3
Sample Interval (V) = 0.001
Quiet Time (sec) = 2
Sensitivity (A/V) = 0.01
Comp R (ohm) = 2.1

Results:

Channel 1:
Segment 1:

Segment 2:

Segment 3:

Potential/V, Current/A

-1.000, 1.559e-7
-1.001, 1.559e-7
-1.002, 1.559e-7
-1.003, 1.559e-7
-1.004, 1.559e-7
-1.005, 3.239e-6
-1.006, 1.559e-7
-1.007, 3.239e-6
-1.008, 3.239e-6
-1.009, 1.559e-7
-1.010, 1.559e-7
-1.011, 3.239e-6
-1.012, 3.239e-6
-1.013, 1.559e-7
-1.014, 3.239e-6
-1.015, 1.559e-7
-1.016, 1.559e-7
-1.017, 1.559e-7
-1.018, 1.559e-7
-1.019, 3.239e-6
-1.020, 3.239e-6
-1.021, 1.559e-7
-1.022, 3.239e-6
-1.023, 3.239e-6
-1.024, 3.239e-6
-1.025, 1.559e-7
-1.026, 3.239e-6
-1.027, 3.239e-6
-1.028, 1.559e-7
-1.029, 3.239e-6
-1.030, 3.239e-6
-1.031, 3.239e-6
-1.032, 3.239e-6
-1.033, 3.239e-6
-1.034, 3.239e-6
-1.035, 1.559e-7
-1.036, 3.239e-6
-1.037, 3.239e-6
-1.038, 3.239e-6
-1.039, 3.239e-6
-1.040, 3.239e-6
-1.041, 3.239e-6
-1.042, 3.239e-6
-1.043, 3.239e-6
-1.044, 3.239e-6
-1.045, 3.239e-6
-1.046, 3.239e-6
-1.047, 3.239e-6
-1.048, 3.239e-6
-1.049, 3.239e-6
-1.050, 3.239e-6
-1.051, 3.239e-6
-1.052, 3.239e-6
-1.053, 3.239e-6
-1.054, 3.239e-6
-1.055, 3.239e-6
-1.056, 3.239e-6
-1.057, 3.239e-6
-1.058, 3.239e-6
-1.059, 1.559e-7
-1.060, 3.239e-6
-1.061, 1.559e-7
-1.062, 3.239e-6
-1.063, 3.239e-6
-1.064, 3.239e-6
-1.065, 3.239e-6
-1.066, 3.239e-6
-1.067, 3.239e-6
-1.068, 3.239e-6
-1.069, 3.239e-6
-1.070, 3.239e-6
-1.071, 3.239e-6
-1.072, 3.239e-6
-1.073, 3.239e-6
-1.074, 3.239e-6
-1.075, 3.239e-6
-1.076, 3.239e-6
-1.077, 3.239e-6
-1.078, 3.239e-6
-1.079, 3.239e-6
-1.080, 3.239e-6
-1.081, 3.239e-6
-1.082, 3.239e-6
-1.083, 3.239e-6
-1.084, 3.239e-6
-1.085, 3.239e-6
-1.086, 3.239e-6
-1.087, 3.239e-6
-1.088, 3.239e-6
-1.089, 3.239e-6
-1.090, 3.239e-6
-1.091, 3.239e-6
-1.092, 3.239e-6
-1.093, 3.239e-6
-1.094, 3.239e-6
-1.095, 3.239e-6
-1.096, 3.239e-6
-1.097, 3.239e-6
-1.098, 3.239e-6
-1.099, 3.239e-6
-1.100, 3.239e-6
-1.101, 3.239e-6
-1.102, 3.239e-6
-1.103, 3.239e-6
-1.104, 3.239e-6
-1.105, 3.239e-6
-1.106, 3.239e-6
-1.107, 3.239e-6
-1.108, 3.239e-6
-1.109, 3.239e-6
-1.110, 3.239e-6
-1.111, 3.239e-6
-1.112, 3.239e-6
-1.113, 3.239e-6
-1.114, 3.239e-6
-1.115, 3.239e-6
-1.116, 3.239e-6
-1.117, 3.239e-6
-1.118, 3.239e-6
-1.119, 3.239e-6
-1.120, 3.239e-6
-1.121, 3.239e-6
-1.122, 3.239e-6
-1.123, 3.239e-6
-1.124, 3.239e-6
-1.125, 3.239e-6
-1.126, 3.239e-6
-1.127, 3.239e-6
-1.128, 3.239e-6
-1.129, 3.239e-6
-1.130, 3.239e-6
-1.131, 3.239e-6
-1.132, 3.239e-6
-1.133, 3.239e-6
-1.134, 3.239e-6
-1.135, 3.239e-6
-1.136, 3.239e-6
-1.137, 3.239e-6
-1.138, 3.239e-6
-1.139, 3.239e-6
-1.140, 3.239e-6
-1.141, 3.239e-6
-1.142, 3.239e-6
-1.143, 3.239e-6
-1.144, 3.239e-6
-1.145, 3.239e-6
-1.146, 3.239e-6
-1.147, 3.239e-6
-1.148, 3.239e-6
-1.149, 3.239e-6
-1.150, 3.239e-6
-1.151, 3.239e-6
-1.152, 3.239e-6
-1.153, 3.239e-6
-1.154, 3.239e-6
-1.155, 3.239e-6
-1.156, 3.239e-6
-1.157, 3.239e-6
-1.158, 3.239e-6
-1.159, 3.239e-6
-1.160, 3.239e-6
-1.161, 3.239e-6
-1.162, 3.239e-6
-1.163, 3.239e-6
-1.164, 3.239e-6
-1.165, 3.239e-6
-1.166, 3.239e-6
-1.167, 3.239e-6
-1.168, 3.239e-6
-1.169, 3.239e-6
-1.170, 3.239e-6
-1.171, 3.239e-6
-1.172, 3.239e-6
-1.173, 3.239e-6
-1.174, 3.239e-6
-1.175, 3.239e-6
-1.176, 3.239e-6
-1.177, 3.239e-6
-1.178, 3.239e-6
-1.179, 3.239e-6
-1.180, 3.239e-6
-1.181, 3.239e-6
-1.182, 3.239e-6
-1.183, 3.239e-6
-1.184, 3.239e-6
-1.185, 3.239e-6
-1.186, 3.239e-6
-1.187, 3.239e-6
-1.188, 3.239e-6
-1.189, 3.239e-6
-1.190, 3.239e-6
-1.191, 3.239e-6
-1.192, 3.239e-6
-1.193, 3.239e-6
-1.194, 3.239e-6
-1.195, 3.239e-6
-1.196, 3.239e-6
-1.197, 3.239e-6
-1.198, 3.239e-6
-1.199, 3.239e-6
-1.200, 3.239e-6
-1.201, 3.239e-6
-1.202, 3.239e-6
-1.203, 3.239e-6
-1.204, 3.239e-6
-1.205, 3.239e-6
-1.206, 3.239e-6
-1.207, 3.239e-6
-1.208, 3.239e-6
-1.209, 3.239e-6
-1.210, 3.239e-6
-1.211, 3.239e-6
-1.212, 3.239e-6
-1.213, 3.239e-6
-1.214, 3.239e-6
-1.215, 3.239e-6
-1.216, 3.239e-6
-1.217, 3.239e-6
-1.218, 3.239e-6
-1.219, 3.239e-6
-1.220, 3.239e-6
-1.221, 3.239e-6
-1.222, 3.239e-6
-1.223, 3.239e-6
-1.224, 3.239e-6
-1.225, 3.239e-6
-1.226, 3.239e-6
-1.227, 3.239e-6
-1.228, 3.239e-6
-1.229, 3.239e-6
-1.230, 3.239e-6
-1.231, 3.239e-6
-1.232, 3.239e-6
-1.233, 3.239e-6
-1.234, 3.239e-6
-1.235, 3.239e-6
-1.236, 3.239e-6
-1.237, 3.239e-6
-1.238, 3.239e-6
-1.239, 3.239e-6
-1.240, 3.239e-6
-1.241, 3.239e-6
-1.242, 3.239e-6
-1.243, 6.322e-6
-1.244, 3.239e-6
-1.245, 3.239e-6
-1.246, 3.239e-6
-1.247, 3.239e-6
-1.248, 3.239e-6
-1.249, 3.239e-6
-1.250, 3.239e-6
-1.251, 3.239e-6
-1.252, 3.239e-6
-1.253, 3.239e-6
-1.254, 3.239e-6
-1.255, 6.322e-6
-1.256, 3.239e-6
-1.257, 3.239e-6
-1.258, 3.239e-6
-1.259, 3.239e-6
-1.260, 3.239e-6
-1.261, 3.239e-6
-1.262, 6.322e-6
-1.263, 3.239e-6
-1.264, 3.239e-6
-1.265, 3.239e-6
-1.266, 3.239e-6
-1.267, 6.322e-6
-1.268, 3.239e-6
-1.269, 3.239e-6
-1.270, 6.322e-6
-1.271, 3.239e-6
-1.272, 3.239e-6
-1.273, 3.239e-6
-1.274, 3.239e-6
-1.275, 6.322e-6
-1.276, 6.322e-6
-1.277, 6.322e-6
-1.278, 3.239e-6
-1.279, 3.239e-6
-1.280, 6.322e-6
-1.281, 3.239e-6
-1.282, 6.322e-6
-1.283, 6.322e-6
-1.284, 6.322e-6
-1.285, 3.239e-6
-1.286, 6.322e-6
-1.287, 6.322e-6
-1.288, 3.239e-6
-1.289, 3.239e-6
-1.290, 6.322e-6
-1.291, 3.239e-6
-1.292, 3.239e-6
-1.293, 6.322e-6
-1.294, 3.239e-6
-1.295, 6.322e-6
-1.296, 6.322e-6
-1.297, 6.322e-6
-1.298, 3.239e-6
-1.299, 6.322e-6
-1.300, 6.322e-6
-1.301, 3.239e-6
-1.302, 3.239e-6
-1.303, 6.322e-6
-1.304, 6.322e-6
-1.305, 6.322e-6
-1.306, 6.322e-6
-1.307, 3.239e-6
-1.308, 3.239e-6
-1.309, 6.322e-6
-1.310, 6.322e-6
-1.311, 6.322e-6
-1.312, 6.322e-6
-1.313, 6.322e-6
-1.314, 3.239e-6
-1.315, 3.239e-6
-1.316, 3.239e-6
-1.317, 6.322e-6
-1.318, 3.239e-6
-1.319, 6.322e-6
-1.320, 3.239e-6
-1.321, 3.239e-6
-1.322, 6.322e-6
-1.323, 6.322e-6
-1.324, 3.239e-6
-1.325, 6.322e-6
-1.326, 3.239e-6
-1.327, 6.322e-6
-1.328, 6.322e-6
-1.329, 3.239e-6
-1.330, 6.322e-6
-1.331, 6.322e-6
-1.332, 6.322e-6
-1.333, 6.322e-6
-1.334, 6.322e-6
-1.335, 3.239e-6
-1.336, 6.322e-6
-1.337, 6.322e-6
-1.338, 6.322e-6
-1.339, 6.322e-6
-1.340, 6.322e-6
-1.341, 6.322e-6
-1.342, 6.322e-6
-1.343, 6.322e-6
-1.344, 6.322e-6
-1.345, 6.322e-6
-1.346, 6.322e-6
-1.347, 6.322e-6
-1.348, 6.322e-6
-1.349, 6.322e-6
-1.350, 6.322e-6
-1.351, 6.322e-6
-1.352, 6.322e-6
-1.353, 3.239e-6
-1.354, 6.322e-6
-1.355, 6.322e-6
-1.356, 6.322e-6
-1.357, 6.322e-6
-1.358, 6.322e-6
-1.359, 6.322e-6
-1.360, 6.322e-6
-1.361, 6.322e-6
-1.362, 6.322e-6
-1.363, 6.322e-6
-1.364, 6.322e-6
-1.365, 6.322e-6
-1.366, 6.322e-6
-1.367, 6.322e-6
-1.368, 6.322e-6
-1.369, 6.322e-6
-1.370, 6.322e-6
-1.371, 6.322e-6
-1.372, 6.322e-6
-1.373, 6.322e-6
-1.374, 6.322e-6
-1.375, 6.322e-6
-1.376, 6.322e-6
-1.377, 6.322e-6
-1.378, 6.322e-6
-1.379, 6.322e-6
-1.380, 6.322e-6
-1.381, 6.322e-6
-1.382, 6.322e-6
-1.383, 6.322e-6
-1.384, 6.322e-6
-1.385, 6.322e-6
-1.386, 6.322e-6
-1.387, 6.322e-6
-1.388, 6.322e-6
-1.389, 6.322e-6
-1.390, 6.322e-6
-1.391, 6.322e-6
-1.392, 6.322e-6
-1.393, 6.322e-6
-1.394, 6.322e-6
-1.395, 6.322e-6
-1.396, 6.322e-6
-1.397, 6.322e-6
-1.398, 6.322e-6
-1.399, 6.322e-6
-1.400, 6.322e-6
-1.401, 6.322e-6
-1.402, 6.322e-6
-1.403, 6.322e-6
-1.404, 6.322e-6
-1.405, 6.322e-6
-1.406, 6.322e-6
-1.407, 6.322e-6
-1.408, 6.322e-6
-1.409, 6.322e-6
-1.410, 6.322e-6
-1.411, 6.322e-6
-1.412, 6.322e-6
-1.413, 6.322e-6
-1.414, 6.322e-6
-1.415, 6.322e-6
-1.416, 6.322e-6
-1.417, 6.322e-6
-1.418, 6.322e-6
-1.419, 6.322e-6
-1.420, 6.322e-6
-1.421, 6.322e-6
-1.422, 6.322e-6
-1.423, 6.322e-6
-1.424, 6.322e-6
-1.425, 6.322e-6
-1.426, 6.322e-6
-1.427, 6.322e-6
-1.428, 6.322e-6
-1.429, 6.322e-6
-1.430, 6.322e-6
-1.431, 6.322e-6
-1.432, 6.322e-6
-1.433, 6.322e-6
-1.434, 6.322e-6
-1.435, 6.322e-6
-1.436, 6.322e-6
-1.437, 9.405e-6
-1.438, 6.322e-6
-1.439, 6.322e-6
-1.440, 6.322e-6
-1.441, 6.322e-6
-1.442, 6.322e-6
-1.443, 6.322e-6
-1.444, 6.322e-6
-1.445, 6.322e-6
-1.446, 6.322e-6
-1.447, 6.322e-6
-1.448, 6.322e-6
-1.449, 6.322e-6
-1.450, 6.322e-6
-1.451, 6.322e-6
-1.452, 6.322e-6
-1.453, 6.322e-6
-1.454, 6.322e-6
-1.455, 6.322e-6
-1.456, 6.322e-6
-1.457, 6.322e-6
-1.458, 6.322e-6
-1.459, 6.322e-6
-1.460, 6.322e-6
-1.461, 9.405e-6
-1.462, 9.405e-6
-1.463, 6.322e-6
-1.464, 6.322e-6
-1.465, 6.322e-6
-1.466, 6.322e-6
-1.467, 9.405e-6
-1.468, 9.405e-6
-1.469, 9.405e-6
-1.470, 9.405e-6
-1.471, 9.405e-6
-1.472, 9.405e-6
-1.473, 9.405e-6
-1.474, 6.322e-6
-1.475, 9.405e-6
-1.476, 9.405e-6
-1.477, 9.405e-6
-1.478, 6.322e-6
-1.479, 6.322e-6
-1.480, 9.405e-6
-1.481, 9.405e-6
-1.482, 9.405e-6
-1.483, 9.405e-6
-1.484, 9.405e-6
-1.485, 9.405e-6
-1.486, 9.405e-6
-1.487, 9.405e-6
-1.488, 9.405e-6
-1.489, 9.405e-6
-1.490, 9.405e-6
-1.491, 9.405e-6
-1.492, 9.405e-6
-1.493, 9.405e-6
-1.494, 9.405e-6
-1.495, 9.405e-6
-1.496, 9.405e-6
-1.497, 9.405e-6
-1.498, 9.405e-6
-1.499, 9.405e-6
-1.500, 9.405e-6
-1.501, 9.405e-6
-1.502, 9.405e-6
-1.503, 9.405e-6
-1.504, 9.405e-6
-1.505, 9.405e-6
-1.506, 9.405e-6
-1.507, 9.405e-6
-1.508, 9.405e-6
-1.509, 9.405e-6
-1.510, 9.405e-6
-1.511, 9.405e-6
-1.512, 9.405e-6
-1.513, 9.405e-6
-1.514, 9.405e-6
-1.515, 9.405e-6
-1.516, 9.405e-6
-1.517, 9.405e-6
-1.518, 9.405e-6
-1.519, 9.405e-6
-1.520, 9.405e-6
-1.521, 9.405e-6
-1.522, 1.249e-5
-1.523, 9.405e-6
-1.524, 9.405e-6
-1.525, 9.405e-6
-1.526, 1.249e-5
-1.527, 1.249e-5
-1.528, 9.405e-6
-1.529, 1.249e-5
-1.530, 1.249e-5
-1.531, 1.249e-5
-1.532, 9.405e-6
-1.533, 1.249e-5
-1.534, 1.249e-5
-1.535, 1.249e-5
-1.536, 1.249e-5
-1.537, 1.249e-5
-1.538, 1.249e-5
-1.539, 1.249e-5
-1.540, 1.249e-5
-1.541, 1.249e-5
-1.542, 1.249e-5
-1.543, 1.249e-5
-1.544, 1.249e-5
-1.545, 1.249e-5
-1.546, 1.249e-5
-1.547, 1.249e-5
-1.548, 1.249e-5
-1.549, 1.249e-5
-1.550, 1.249e-5
-1.551, 1.249e-5
-1.552, 1.249e-5
-1.553, 1.249e-5
-1.554, 1.249e-5
-1.555, 1.249e-5
-1.556, 1.557e-5
-1.557, 1.557e-5
-1.558, 1.249e-5
-1.559, 1.557e-5
-1.560, 1.557e-5
-1.561, 1.557e-5
-1.562, 1.557e-5
-1.563, 1.557e-5
-1.564, 1.557e-5
-1.565, 1.557e-5
-1.566, 1.557e-5
-1.567, 1.557e-5
-1.568, 1.557e-5
-1.569, 1.557e-5
-1.570, 1.557e-5
-1.571, 1.557e-5
-1.572, 1.557e-5
-1.573, 1.557e-5
-1.574, 1.557e-5
-1.575, 1.557e-5
-1.576, 1.557e-5
-1.577, 1.865e-5
-1.578, 1.557e-5
-1.579, 1.865e-5
-1.580, 1.865e-5
-1.581, 1.865e-5
-1.582, 1.865e-5
-1.583, 1.865e-5
-1.584, 1.865e-5
-1.585, 1.865e-5
-1.586, 1.865e-5
-1.587, 1.865e-5
-1.588, 1.865e-5
-1.589, 1.865e-5
-1.590, 1.865e-5
-1.591, 1.865e-5
-1.592, 1.865e-5
-1.593, 1.865e-5
-1.594, 2.174e-5
-1.595, 2.174e-5
-1.596, 2.174e-5
-1.597, 2.174e-5
-1.598, 2.174e-5
-1.599, 2.174e-5
-1.600, 2.174e-5
-1.601, 2.174e-5
-1.602, 2.174e-5
-1.603, 2.174e-5
-1.604, 2.174e-5
-1.605, 2.174e-5
-1.606, 2.482e-5
-1.607, 2.482e-5
-1.608, 2.482e-5
-1.609, 2.482e-5
-1.610, 2.482e-5
-1.611, 2.482e-5
-1.612, 2.482e-5
-1.613, 2.482e-5
-1.614, 2.482e-5
-1.615, 2.482e-5
-1.616, 2.482e-5
-1.617, 2.790e-5
-1.618, 2.790e-5
-1.619, 2.790e-5
-1.620, 2.790e-5
-1.621, 2.790e-5
-1.622, 2.790e-5
-1.623, 2.790e-5
-1.624, 3.099e-5
-1.625, 3.099e-5
-1.626, 3.099e-5
-1.627, 3.099e-5
-1.628, 3.099e-5
-1.629, 3.099e-5
-1.630, 3.099e-5
-1.631, 3.407e-5
-1.632, 3.407e-5
-1.633, 3.407e-5
-1.634, 3.407e-5
-1.635, 3.407e-5
-1.636, 3.407e-5
-1.637, 3.407e-5
-1.638, 3.407e-5
-1.639, 3.715e-5
-1.640, 3.715e-5
-1.641, 3.715e-5
-1.642, 3.715e-5
-1.643, 3.715e-5
-1.644, 4.024e-5
-1.645, 4.024e-5
-1.646, 4.024e-5
-1.647, 4.024e-5
-1.648, 4.024e-5
-1.649, 4.024e-5
-1.650, 4.332e-5
-1.651, 4.332e-5
-1.652, 4.332e-5
-1.653, 4.332e-5
-1.654, 4.332e-5
-1.655, 4.332e-5
-1.656, 4.332e-5
-1.657, 4.640e-5
-1.658, 4.640e-5
-1.659, 4.640e-5
-1.660, 4.949e-5
-1.661, 4.949e-5
-1.662, 4.949e-5
-1.663, 4.949e-5
-1.664, 5.257e-5
-1.665, 5.257e-5
-1.666, 5.257e-5
-1.667, 5.257e-5
-1.668, 5.257e-5
-1.669, 5.257e-5
-1.670, 5.565e-5
-1.671, 5.565e-5
-1.672, 5.873e-5
-1.673, 5.873e-5
-1.674, 5.873e-5
-1.675, 5.873e-5
-1.676, 6.182e-5
-1.677, 6.182e-5
-1.678, 6.182e-5
-1.679, 6.182e-5
-1.680, 6.490e-5
-1.681, 6.490e-5
-1.682, 6.798e-5
-1.683, 6.798e-5
-1.684, 6.798e-5
-1.685, 6.798e-5
-1.686, 7.107e-5
-1.687, 7.107e-5
-1.688, 7.415e-5
-1.689, 7.415e-5
-1.690, 7.415e-5
-1.691, 7.723e-5
-1.692, 7.723e-5
-1.693, 8.032e-5
-1.694, 8.032e-5
-1.695, 8.032e-5
-1.696, 8.032e-5
-1.697, 8.340e-5
-1.698, 8.340e-5
-1.699, 8.648e-5
-1.700, 8.648e-5
-1.701, 8.957e-5
-1.702, 8.957e-5
-1.703, 9.265e-5
-1.704, 9.265e-5
-1.705, 9.573e-5
-1.706, 9.573e-5
-1.707, 9.882e-5
-1.708, 9.882e-5
-1.709, 1.019e-4
-1.710, 1.019e-4
-1.711, 1.019e-4
-1.712, 1.050e-4
-1.713, 1.081e-4
-1.714, 1.081e-4
-1.715, 1.111e-4
-1.716, 1.111e-4
-1.717, 1.142e-4
-1.718, 1.142e-4
-1.719, 1.173e-4
-1.720, 1.204e-4
-1.721, 1.235e-4
-1.722, 1.235e-4
-1.723, 1.266e-4
-1.724, 1.266e-4
-1.725, 1.296e-4
-1.726, 1.296e-4
-1.727, 1.327e-4
-1.728, 1.358e-4
-1.729, 1.389e-4
-1.730, 1.420e-4
-1.731, 1.420e-4
-1.732, 1.451e-4
-1.733, 1.481e-4
-1.734, 1.512e-4
-1.735, 1.512e-4
-1.736, 1.543e-4
-1.737, 1.574e-4
-1.738, 1.605e-4
-1.739, 1.636e-4
-1.740, 1.666e-4
-1.741, 1.697e-4
-1.742, 1.728e-4
-1.743, 1.759e-4
-1.744, 1.759e-4
-1.745, 1.790e-4
-1.746, 1.821e-4
-1.747, 1.851e-4
-1.748, 1.882e-4
-1.749, 1.913e-4
-1.750, 1.944e-4
-1.751, 1.975e-4
-1.752, 2.036e-4
-1.753, 2.036e-4
-1.754, 2.098e-4
-1.755, 2.129e-4
-1.756, 2.160e-4
-1.757, 2.191e-4
-1.758, 2.221e-4
-1.759, 2.252e-4
-1.760, 2.314e-4
-1.761, 2.345e-4
-1.762, 2.406e-4
-1.763, 2.437e-4
-1.764, 2.468e-4
-1.765, 2.499e-4
-1.766, 2.561e-4
-1.767, 2.591e-4
-1.768, 2.653e-4
-1.769, 2.684e-4
-1.770, 2.746e-4
-1.771, 2.776e-4
-1.772, 2.838e-4
-1.773, 2.869e-4
-1.774, 2.931e-4
-1.775, 2.961e-4
-1.776, 3.023e-4
-1.777, 3.085e-4
-1.778, 3.115e-4
-1.779, 3.208e-4
-1.780, 3.239e-4
-1.781, 3.300e-4
-1.782, 3.362e-4
-1.783, 3.424e-4
-1.784, 3.485e-4
-1.785, 3.516e-4
-1.786, 3.578e-4
-1.787, 3.670e-4
-1.788, 3.732e-4
-1.789, 3.794e-4
-1.790, 3.855e-4
-1.791, 3.917e-4
-1.792, 3.979e-4
-1.793, 4.040e-4
-1.794, 4.133e-4
-1.795, 4.195e-4
-1.796, 4.256e-4
-1.797, 4.349e-4
-1.798, 4.410e-4
-1.799, 4.472e-4
-1.800, 4.565e-4
-1.801, 4.657e-4
-1.802, 4.719e-4
-1.803, 4.811e-4
-1.804, 4.873e-4
-1.805, 4.965e-4
-1.806, 5.058e-4
-1.807, 5.150e-4
-1.808, 5.212e-4
-1.809, 5.305e-4
-1.810, 5.428e-4
-1.811, 5.489e-4
-1.812, 5.582e-4
-1.813, 5.705e-4
-1.814, 5.798e-4
-1.815, 5.890e-4
-1.816, 5.983e-4
-1.817, 6.106e-4
-1.818, 6.199e-4
-1.819, 6.291e-4
-1.820, 6.414e-4
-1.821, 6.507e-4
-1.822, 6.630e-4
-1.823, 6.754e-4
-1.824, 6.846e-4
-1.825, 6.969e-4
-1.826, 7.093e-4
-1.827, 7.216e-4
-1.828, 7.309e-4
-1.829, 7.432e-4
-1.830, 7.555e-4
-1.831, 7.709e-4
-1.832, 7.833e-4
-1.833, 7.925e-4
-1.834, 8.079e-4
-1.835, 8.203e-4
-1.836, 8.357e-4
-1.837, 8.511e-4
-1.838, 8.634e-4
-1.839, 8.758e-4
-1.840, 8.912e-4
-1.841, 9.035e-4
-1.842, 9.189e-4
-1.843, 9.343e-4
-1.844, 9.498e-4
-1.845, 9.652e-4
-1.846, 9.806e-4
-1.847, 9.960e-4
-1.848, 1.011e-3
-1.849, 1.027e-3
-1.850, 1.042e-3
-1.851, 1.061e-3
-1.852, 1.079e-3
-1.853, 1.095e-3
-1.854, 1.110e-3
-1.855, 1.129e-3
-1.856, 1.147e-3
-1.857, 1.166e-3
-1.858, 1.181e-3
-1.859, 1.199e-3
-1.860, 1.215e-3
-1.861, 1.233e-3
-1.862, 1.252e-3
-1.863, 1.270e-3
-1.864, 1.292e-3
-1.865, 1.310e-3
-1.866, 1.329e-3
-1.867, 1.351e-3
-1.868, 1.372e-3
-1.869, 1.391e-3
-1.870, 1.412e-3
-1.871, 1.431e-3
-1.872, 1.452e-3
-1.873, 1.474e-3
-1.874, 1.495e-3
-1.875, 1.517e-3
-1.876, 1.539e-3
-1.877, 1.560e-3
-1.878, 1.582e-3
-1.879, 1.603e-3
-1.880, 1.628e-3
-1.881, 1.650e-3
-1.882, 1.674e-3
-1.883, 1.696e-3
-1.884, 1.721e-3
-1.885, 1.742e-3
-1.886, 1.767e-3
-1.887, 1.791e-3
-1.888, 1.816e-3
-1.889, 1.841e-3
-1.890, 1.865e-3
-1.891, 1.890e-3
-1.892, 1.915e-3
-1.893, 1.939e-3
-1.894, 1.964e-3
-1.895, 1.992e-3
-1.896, 2.017e-3
-1.897, 2.044e-3
-1.898, 2.069e-3
-1.899, 2.097e-3
-1.900, 2.121e-3
-1.901, 2.152e-3
-1.902, 2.177e-3
-1.903, 2.205e-3
-1.904, 2.232e-3
-1.905, 2.260e-3
-1.906, 2.288e-3
-1.907, 2.316e-3
-1.908, 2.343e-3
-1.909, 2.371e-3
-1.910, 2.399e-3
-1.911, 2.430e-3
-1.912, 2.460e-3
-1.913, 2.488e-3
-1.914, 2.519e-3
-1.915, 2.547e-3
-1.916, 2.578e-3
-1.917, 2.608e-3
-1.918, 2.639e-3
-1.919, 2.667e-3
-1.920, 2.701e-3
-1.921, 2.732e-3
-1.922, 2.763e-3
-1.923, 2.793e-3
-1.924, 2.824e-3
-1.925, 2.855e-3
-1.926, 2.886e-3
-1.927, 2.920e-3
-1.928, 2.951e-3
-1.929, 2.985e-3
-1.930, 3.015e-3
-1.931, 3.049e-3
-1.932, 3.083e-3
-1.933, 3.117e-3
-1.934, 3.151e-3
-1.935, 3.182e-3
-1.936, 3.219e-3
-1.937, 3.256e-3
-1.938, 3.290e-3
-1.939, 3.324e-3
-1.940, 3.358e-3
-1.941, 3.388e-3
-1.942, 3.422e-3
-1.943, 3.459e-3
-1.944, 3.493e-3
-1.945, 3.530e-3
-1.946, 3.564e-3
-1.947, 3.598e-3
-1.948, 3.638e-3
-1.949, 3.672e-3
-1.950, 3.706e-3
-1.951, 3.746e-3
-1.952, 3.783e-3
-1.953, 3.817e-3
-1.954, 3.857e-3
-1.955, 3.891e-3
-1.956, 3.925e-3
-1.957, 3.962e-3
-1.958, 4.002e-3
-1.959, 4.039e-3
-1.960, 4.076e-3
-1.961, 4.110e-3
-1.962, 4.150e-3
-1.963, 4.193e-3
-1.964, 4.227e-3
-1.965, 4.261e-3
-1.966, 4.301e-3
-1.967, 4.338e-3
-1.968, 4.375e-3
-1.969, 4.418e-3
-1.970, 4.455e-3
-1.971, 4.492e-3
-1.972, 4.526e-3
-1.973, 4.566e-3
-1.974, 4.609e-3
-1.975, 4.653e-3
-1.976, 4.696e-3
-1.977, 4.739e-3
-1.978, 4.776e-3
-1.979, 4.816e-3
-1.980, 4.859e-3
-1.981, 4.902e-3
-1.982, 4.939e-3
-1.983, 4.982e-3
-1.984, 5.019e-3
-1.985, 5.063e-3
-1.986, 5.106e-3
-1.987, 5.152e-3
-1.988, 5.195e-3
-1.989, 5.238e-3
-1.990, 5.282e-3
-1.991, 5.322e-3
-1.992, 5.365e-3
-1.993, 5.408e-3
-1.994, 5.454e-3
-1.995, 5.497e-3
-1.996, 5.541e-3
-1.997, 5.587e-3
-1.998, 5.627e-3
-1.999, 5.670e-3
-2.000, 5.688e-3
-1.999, 5.655e-3
-1.998, 5.630e-3
-1.997, 5.599e-3
-1.996, 5.562e-3
-1.995, 5.531e-3
-1.994, 5.504e-3
-1.993, 5.463e-3
-1.992, 5.433e-3
-1.991, 5.399e-3
-1.990, 5.362e-3
-1.989, 5.328e-3
-1.988, 5.291e-3
-1.987, 5.257e-3
-1.986, 5.229e-3
-1.985, 5.192e-3
-1.984, 5.161e-3
-1.983, 5.130e-3
-1.982, 5.093e-3
-1.981, 5.060e-3
-1.980, 5.026e-3
-1.979, 4.992e-3
-1.978, 4.955e-3
-1.977, 4.924e-3
-1.976, 4.893e-3
-1.975, 4.859e-3
-1.974, 4.822e-3
-1.973, 4.788e-3
-1.972, 4.754e-3
-1.971, 4.723e-3
-1.970, 4.690e-3
-1.969, 4.656e-3
-1.968, 4.625e-3
-1.967, 4.591e-3
-1.966, 4.557e-3
-1.965, 4.514e-3
-1.964, 4.477e-3
-1.963, 4.446e-3
-1.962, 4.418e-3
-1.961, 4.391e-3
-1.960, 4.360e-3
-1.959, 4.326e-3
-1.958, 4.292e-3
-1.957, 4.258e-3
-1.956, 4.227e-3
-1.955, 4.190e-3
-1.954, 4.162e-3
-1.953, 4.132e-3
-1.952, 4.101e-3
-1.951, 4.067e-3
-1.950, 4.033e-3
-1.949, 4.002e-3
-1.948, 3.971e-3
-1.947, 3.940e-3
-1.946, 3.913e-3
-1.945, 3.882e-3
-1.944, 3.848e-3
-1.943, 3.817e-3
-1.942, 3.789e-3
-1.941, 3.758e-3
-1.940, 3.728e-3
-1.939, 3.697e-3
-1.938, 3.669e-3
-1.937, 3.632e-3
-1.936, 3.601e-3
-1.935, 3.570e-3
-1.934, 3.540e-3
-1.933, 3.515e-3
-1.932, 3.484e-3
-1.931, 3.453e-3
-1.930, 3.425e-3
-1.929, 3.395e-3
-1.928, 3.367e-3
-1.927, 3.336e-3
-1.926, 3.305e-3
-1.925, 3.278e-3
-1.924, 3.250e-3
-1.923, 3.222e-3
-1.922, 3.191e-3
-1.921, 3.160e-3
-1.920, 3.133e-3
-1.919, 3.108e-3
-1.918, 3.080e-3
-1.917, 3.049e-3
-1.916, 3.022e-3
-1.915, 2.997e-3
-1.914, 2.969e-3
-1.913, 2.941e-3
-1.912, 2.914e-3
-1.911, 2.886e-3
-1.910, 2.858e-3
-1.909, 2.834e-3
-1.908, 2.806e-3
-1.907, 2.781e-3
-1.906, 2.753e-3
-1.905, 2.723e-3
-1.904, 2.698e-3
-1.903, 2.673e-3
-1.902, 2.649e-3
-1.901, 2.627e-3
-1.900, 2.599e-3
-1.899, 2.571e-3
-1.898, 2.547e-3
-1.897, 2.522e-3
-1.896, 2.497e-3
-1.895, 2.473e-3
-1.894, 2.448e-3
-1.893, 2.423e-3
-1.892, 2.399e-3
-1.891, 2.374e-3
-1.890, 2.349e-3
-1.889, 2.328e-3
-1.888, 2.303e-3
-1.887, 2.282e-3
-1.886, 2.257e-3
-1.885, 2.232e-3
-1.884, 2.211e-3
-1.883, 2.189e-3
-1.882, 2.168e-3
-1.881, 2.146e-3
-1.880, 2.121e-3
-1.879, 2.100e-3
-1.878, 2.078e-3
-1.877, 2.057e-3
-1.876, 2.035e-3
-1.875, 2.013e-3
-1.874, 1.992e-3
-1.873, 1.970e-3
-1.872, 1.949e-3
-1.871, 1.927e-3
-1.870, 1.906e-3
-1.869, 1.884e-3
-1.868, 1.862e-3
-1.867, 1.844e-3
-1.866, 1.822e-3
-1.865, 1.801e-3
-1.864, 1.782e-3
-1.863, 1.761e-3
-1.862, 1.739e-3
-1.861, 1.721e-3
-1.860, 1.702e-3
-1.859, 1.680e-3
-1.858, 1.665e-3
-1.857, 1.643e-3
-1.856, 1.625e-3
-1.855, 1.606e-3
-1.854, 1.588e-3
-1.853, 1.569e-3
-1.852, 1.551e-3
-1.851, 1.532e-3
-1.850, 1.514e-3
-1.849, 1.495e-3
-1.848, 1.477e-3
-1.847, 1.462e-3
-1.846, 1.443e-3
-1.845, 1.425e-3
-1.844, 1.409e-3
-1.843, 1.394e-3
-1.842, 1.375e-3
-1.841, 1.360e-3
-1.840, 1.344e-3
-1.839, 1.326e-3
-1.838, 1.310e-3
-1.837, 1.295e-3
-1.836, 1.277e-3
-1.835, 1.261e-3
-1.834, 1.246e-3
-1.833, 1.233e-3
-1.832, 1.218e-3
-1.831, 1.203e-3
-1.830, 1.190e-3
-1.829, 1.175e-3
-1.828, 1.159e-3
-1.827, 1.144e-3
-1.826, 1.132e-3
-1.825, 1.116e-3
-1.824, 1.104e-3
-1.823, 1.088e-3
-1.822, 1.073e-3
-1.821, 1.061e-3
-1.820, 1.048e-3
-1.819, 1.033e-3
-1.818, 1.021e-3
-1.817, 1.008e-3
-1.816, 9.960e-4
-1.815, 9.806e-4
-1.814, 9.683e-4
-1.813, 9.559e-4
-1.812, 9.405e-4
-1.811, 9.313e-4
-1.810, 9.189e-4
-1.809, 9.066e-4
-1.808, 8.943e-4
-1.807, 8.819e-4
-1.806, 8.696e-4
-1.805, 8.603e-4
-1.804, 8.480e-4
-1.803, 8.357e-4
-1.802, 8.264e-4
-1.801, 8.141e-4
-1.800, 8.018e-4
-1.799, 7.894e-4
-1.798, 7.802e-4
-1.797, 7.679e-4
-1.796, 7.586e-4
-1.795, 7.494e-4
-1.794, 7.370e-4
-1.793, 7.278e-4
-1.792, 7.185e-4
-1.791, 7.093e-4
-1.790, 7.000e-4
-1.789, 6.877e-4
-1.788, 6.815e-4
-1.787, 6.692e-4
-1.786, 6.630e-4
-1.785, 6.507e-4
-1.784, 6.414e-4
-1.783, 6.353e-4
-1.782, 6.260e-4
-1.781, 6.168e-4
-1.780, 6.075e-4
-1.779, 5.983e-4
-1.778, 5.921e-4
-1.777, 5.829e-4
-1.776, 5.736e-4
-1.775, 5.674e-4
-1.774, 5.582e-4
-1.773, 5.489e-4
-1.772, 5.428e-4
-1.771, 5.335e-4
-1.770, 5.274e-4
-1.769, 5.181e-4
-1.768, 5.120e-4
-1.767, 5.058e-4
-1.766, 4.965e-4
-1.765, 4.904e-4
-1.764, 4.842e-4
-1.763, 4.780e-4
-1.762, 4.688e-4
-1.761, 4.626e-4
-1.760, 4.565e-4
-1.759, 4.503e-4
-1.758, 4.410e-4
-1.757, 4.349e-4
-1.756, 4.287e-4
-1.755, 4.225e-4
-1.754, 4.164e-4
-1.753, 4.102e-4
-1.752, 4.040e-4
-1.751, 3.979e-4
-1.750, 3.917e-4
-1.749, 3.886e-4
-1.748, 3.825e-4
-1.747, 3.763e-4
-1.746, 3.701e-4
-1.745, 3.640e-4
-1.744, 3.609e-4
-1.743, 3.547e-4
-1.742, 3.485e-4
-1.741, 3.424e-4
-1.740, 3.393e-4
-1.739, 3.331e-4
-1.738, 3.300e-4
-1.737, 3.239e-4
-1.736, 3.177e-4
-1.735, 3.146e-4
-1.734, 3.085e-4
-1.733, 3.054e-4
-1.732, 2.992e-4
-1.731, 2.931e-4
-1.730, 2.900e-4
-1.729, 2.869e-4
-1.728, 2.807e-4
-1.727, 2.776e-4
-1.726, 2.746e-4
-1.725, 2.684e-4
-1.724, 2.653e-4
-1.723, 2.622e-4
-1.722, 2.561e-4
-1.721, 2.530e-4
-1.720, 2.499e-4
-1.719, 2.437e-4
-1.718, 2.406e-4
-1.717, 2.376e-4
-1.716, 2.345e-4
-1.715, 2.314e-4
-1.714, 2.252e-4
-1.713, 2.221e-4
-1.712, 2.191e-4
-1.711, 2.160e-4
-1.710, 2.129e-4
-1.709, 2.098e-4
-1.708, 2.067e-4
-1.707, 2.036e-4
-1.706, 2.006e-4
-1.705, 1.975e-4
-1.704, 1.944e-4
-1.703, 1.913e-4
-1.702, 1.882e-4
-1.701, 1.851e-4
-1.700, 1.821e-4
-1.699, 1.790e-4
-1.698, 1.759e-4
-1.697, 1.728e-4
-1.696, 1.697e-4
-1.695, 1.666e-4
-1.694, 1.666e-4
-1.693, 1.636e-4
-1.692, 1.605e-4
-1.691, 1.574e-4
-1.690, 1.543e-4
-1.689, 1.512e-4
-1.688, 1.512e-4
-1.687, 1.481e-4
-1.686, 1.451e-4
-1.685, 1.420e-4
-1.684, 1.389e-4
-1.683, 1.389e-4
-1.682, 1.358e-4
-1.681, 1.327e-4
-1.680, 1.296e-4
-1.679, 1.296e-4
-1.678, 1.266e-4
-1.677, 1.266e-4
-1.676, 1.235e-4
-1.675, 1.204e-4
-1.674, 1.173e-4
-1.673, 1.173e-4
-1.672, 1.142e-4
-1.671, 1.142e-4
-1.670, 1.111e-4
-1.669, 1.081e-4
-1.668, 1.081e-4
-1.667, 1.050e-4
-1.666, 1.050e-4
-1.665, 1.019e-4
-1.664, 9.882e-5
-1.663, 9.882e-5
-1.662, 9.573e-5
-1.661, 9.573e-5
-1.660, 9.265e-5
-1.659, 9.265e-5
-1.658, 8.957e-5
-1.657, 8.957e-5
-1.656, 8.648e-5
-1.655, 8.648e-5
-1.654, 8.340e-5
-1.653, 8.340e-5
-1.652, 8.340e-5
-1.651, 8.032e-5
-1.650, 8.032e-5
-1.649, 7.723e-5
-1.648, 7.723e-5
-1.647, 7.415e-5
-1.646, 7.415e-5
-1.645, 7.107e-5
-1.644, 7.107e-5
-1.643, 7.107e-5
-1.642, 6.798e-5
-1.641, 6.798e-5
-1.640, 6.798e-5
-1.639, 6.490e-5
-1.638, 6.490e-5
-1.637, 6.182e-5
-1.636, 6.182e-5
-1.635, 6.182e-5
-1.634, 5.873e-5
-1.633, 5.873e-5
-1.632, 5.873e-5
-1.631, 5.565e-5
-1.630, 5.565e-5
-1.629, 5.565e-5
-1.628, 5.257e-5
-1.627, 5.257e-5
-1.626, 5.257e-5
-1.625, 4.949e-5
-1.624, 4.949e-5
-1.623, 4.949e-5
-1.622, 4.640e-5
-1.621, 4.640e-5
-1.620, 4.640e-5
-1.619, 4.640e-5
-1.618, 4.332e-5
-1.617, 4.332e-5
-1.616, 4.332e-5
-1.615, 4.332e-5
-1.614, 4.024e-5
-1.613, 4.024e-5
-1.612, 4.024e-5
-1.611, 3.715e-5
-1.610, 3.715e-5
-1.609, 3.715e-5
-1.608, 3.715e-5
-1.607, 3.715e-5
-1.606, 3.715e-5
-1.605, 3.407e-5
-1.604, 3.407e-5
-1.603, 3.407e-5
-1.602, 3.407e-5
-1.601, 3.099e-5
-1.600, 3.099e-5
-1.599, 3.099e-5
-1.598, 3.099e-5
-1.597, 3.099e-5
-1.596, 3.099e-5
-1.595, 2.790e-5
-1.594, 2.790e-5
-1.593, 2.790e-5
-1.592, 2.790e-5
-1.591, 2.790e-5
-1.590, 2.790e-5
-1.589, 2.790e-5
-1.588, 2.482e-5
-1.587, 2.482e-5
-1.586, 2.482e-5
-1.585, 2.482e-5
-1.584, 2.482e-5
-1.583, 2.174e-5
-1.582, 2.174e-5
-1.581, 2.174e-5
-1.580, 2.174e-5
-1.579, 2.174e-5
-1.578, 2.174e-5
-1.577, 1.865e-5
-1.576, 1.865e-5
-1.575, 1.865e-5
-1.574, 1.865e-5
-1.573, 1.865e-5
-1.572, 1.865e-5
-1.571, 1.865e-5
-1.570, 1.557e-5
-1.569, 1.865e-5
-1.568, 1.557e-5
-1.567, 1.557e-5
-1.566, 1.557e-5
-1.565, 1.557e-5
-1.564, 1.557e-5
-1.563, 1.557e-5
-1.562, 1.557e-5
-1.561, 1.557e-5
-1.560, 1.557e-5
-1.559, 1.249e-5
-1.558, 1.249e-5
-1.557, 1.249e-5
-1.556, 1.249e-5
-1.555, 1.249e-5
-1.554, 1.249e-5
-1.553, 1.249e-5
-1.552, 1.249e-5
-1.551, 1.249e-5
-1.550, 1.249e-5
-1.549, 1.249e-5
-1.548, 1.249e-5
-1.547, 9.405e-6
-1.546, 9.405e-6
-1.545, 9.405e-6
-1.544, 1.249e-5
-1.543, 9.405e-6
-1.542, 9.405e-6
-1.541, 9.405e-6
-1.540, 9.405e-6
-1.539, 9.405e-6
-1.538, 9.405e-6
-1.537, 9.405e-6
-1.536, 9.405e-6
-1.535, 9.405e-6
-1.534, 9.405e-6
-1.533, 9.405e-6
-1.532, 9.405e-6
-1.531, 9.405e-6
-1.530, 6.322e-6
-1.529, 6.322e-6
-1.528, 6.322e-6
-1.527, 6.322e-6
-1.526, 6.322e-6
-1.525, 6.322e-6
-1.524, 6.322e-6
-1.523, 6.322e-6
-1.522, 6.322e-6
-1.521, 6.322e-6
-1.520, 6.322e-6
-1.519, 6.322e-6
-1.518, 6.322e-6
-1.517, 6.322e-6
-1.516, 6.322e-6
-1.515, 6.322e-6
-1.514, 6.322e-6
-1.513, 6.322e-6
-1.512, 6.322e-6
-1.511, 6.322e-6
-1.510, 6.322e-6
-1.509, 3.239e-6
-1.508, 6.322e-6
-1.507, 3.239e-6
-1.506, 3.239e-6
-1.505, 6.322e-6
-1.504, 3.239e-6
-1.503, 3.239e-6
-1.502, 3.239e-6
-1.501, 3.239e-6
-1.500, 3.239e-6
-1.499, 3.239e-6
-1.498, 3.239e-6
-1.497, 3.239e-6
-1.496, 3.239e-6
-1.495, 3.239e-6
-1.494, 3.239e-6
-1.493, 3.239e-6
-1.492, 3.239e-6
-1.491, 3.239e-6
-1.490, 3.239e-6
-1.489, 3.239e-6
-1.488, 3.239e-6
-1.487, 3.239e-6
-1.486, 3.239e-6
-1.485, 3.239e-6
-1.484, 3.239e-6
-1.483, 3.239e-6
-1.482, 3.239e-6
-1.481, 3.239e-6
-1.480, 3.239e-6
-1.479, 3.239e-6
-1.478, 3.239e-6
-1.477, 3.239e-6
-1.476, 3.239e-6
-1.475, 3.239e-6
-1.474, 3.239e-6
-1.473, 3.239e-6
-1.472, 1.559e-7
-1.471, 3.239e-6
-1.470, 3.239e-6
-1.469, 3.239e-6
-1.468, 3.239e-6
-1.467, 1.559e-7
-1.466, 1.559e-7
-1.465, 1.559e-7
-1.464, 1.559e-7
-1.463, 3.239e-6
-1.462, 1.559e-7
-1.461, 1.559e-7
-1.460, 3.239e-6
-1.459, 1.559e-7
-1.458, 3.239e-6
-1.457, 1.559e-7
-1.456, 1.559e-7
-1.455, 1.559e-7
-1.454, 1.559e-7
-1.453, 1.559e-7
-1.452, 1.559e-7
-1.451, 1.559e-7
-1.450, 1.559e-7
-1.449, 1.559e-7
-1.448, 1.559e-7
-1.447, 1.559e-7
-1.446, 1.559e-7
-1.445, 1.559e-7
-1.444, 1.559e-7
-1.443, 1.559e-7
-1.442, 1.559e-7
-1.441, 1.559e-7
-1.440, 1.559e-7
-1.439, 1.559e-7
-1.438, 1.559e-7
-1.437, 1.559e-7
-1.436, 1.559e-7
-1.435, 1.559e-7
-1.434, 1.559e-7
-1.433, 1.559e-7
-1.432, 1.559e-7
-1.431, 1.559e-7
-1.430, 1.559e-7
-1.429, 1.559e-7
-1.428, 1.559e-7
-1.427, 1.559e-7
-1.426, 1.559e-7
-1.425, 1.559e-7
-1.424, 1.559e-7
-1.423, 1.559e-7
-1.422, 1.559e-7
-1.421, 1.559e-7
-1.420, 1.559e-7
-1.419, 1.559e-7
-1.418, 1.559e-7
-1.417, 1.559e-7
-1.416, 1.559e-7
-1.415, 1.559e-7
-1.414, 1.559e-7
-1.413, 1.559e-7
-1.412, 1.559e-7
-1.411, 1.559e-7
-1.410, 1.559e-7
-1.409, 1.559e-7
-1.408, 1.559e-7
-1.407, 1.559e-7
-1.406, 1.559e-7
-1.405, 1.559e-7
-1.404, 1.559e-7
-1.403, 1.559e-7
-1.402, 1.559e-7
-1.401, 1.559e-7
-1.400, 1.559e-7
-1.399, 1.559e-7
-1.398, 1.559e-7
-1.397, 1.559e-7
-1.396, 1.559e-7
-1.395, 1.559e-7
-1.394, 1.559e-7
-1.393, 1.559e-7
-1.392, 1.559e-7
-1.391, 1.559e-7
-1.390, 1.559e-7
-1.389, 1.559e-7
-1.388, 1.559e-7
-1.387, 1.559e-7
-1.386, 1.559e-7
-1.385, 1.559e-7
-1.384, 1.559e-7
-1.383, 1.559e-7
-1.382, 1.559e-7
-1.381, 1.559e-7
-1.380, 1.559e-7
-1.379, 1.559e-7
-1.378, 1.559e-7
-1.377, 1.559e-7
-1.376, 1.559e-7
-1.375, 1.559e-7
-1.374, 1.559e-7
-1.373, 1.559e-7
-1.372, 1.559e-7
-1.371, 1.559e-7
-1.370, 1.559e-7
-1.369, 1.559e-7
-1.368, 1.559e-7
-1.367, 1.559e-7
-1.366, 1.559e-7
-1.365, 1.559e-7
-1.364, 1.559e-7
-1.363, 1.559e-7
-1.362, 1.559e-7
-1.361, 1.559e-7
-1.360, 1.559e-7
-1.359, 1.559e-7
-1.358, 1.559e-7
-1.357, 1.559e-7
-1.356, 1.559e-7
-1.355, 1.559e-7
-1.354, 1.559e-7
-1.353, 1.559e-7
-1.352, 1.559e-7
-1.351, 1.559e-7
-1.350, 1.559e-7
-1.349, 1.559e-7
-1.348, 1.559e-7
-1.347, 1.559e-7
-1.346, 1.559e-7
-1.345, 1.559e-7
-1.344, 1.559e-7
-1.343, 1.559e-7
-1.342, 1.559e-7
-1.341, 1.559e-7
-1.340, 1.559e-7
-1.339, 1.559e-7
-1.338, 1.559e-7
-1.337, 1.559e-7
-1.336, 1.559e-7
-1.335, 1.559e-7
-1.334, 1.559e-7
-1.333, 1.559e-7
-1.332, 1.559e-7
-1.331, 1.559e-7
-1.330, 1.559e-7
-1.329, 1.559e-7
-1.328, 1.559e-7
-1.327, 1.559e-7
-1.326, 1.559e-7
-1.325, 1.559e-7
-1.324, 1.559e-7
-1.323, 1.559e-7
-1.322, 1.559e-7
-1.321, 1.559e-7
-1.320, 1.559e-7
-1.319, 1.559e-7
-1.318, 1.559e-7
-1.317, 1.559e-7
-1.316, 1.559e-7
-1.315, 1.559e-7
-1.314, 1.559e-7
-1.313, 1.559e-7
-1.312, 1.559e-7
-1.311, 1.559e-7
-1.310, 1.559e-7
-1.309, 1.559e-7
-1.308, 1.559e-7
-1.307, 1.559e-7
-1.306, 1.559e-7
-1.305, 1.559e-7
-1.304, 1.559e-7
-1.303, 1.559e-7
-1.302, 1.559e-7
-1.301, 1.559e-7
-1.300, 1.559e-7
-1.299, -2.927e-6
-1.298, 1.559e-7
-1.297, 1.559e-7
-1.296, 1.559e-7
-1.295, 1.559e-7
-1.294, 1.559e-7
-1.293, 1.559e-7
-1.292, 1.559e-7
-1.291, 1.559e-7
-1.290, 1.559e-7
-1.289, 1.559e-7
-1.288, 1.559e-7
-1.287, 1.559e-7
-1.286, 1.559e-7
-1.285, 1.559e-7
-1.284, 1.559e-7
-1.283, 1.559e-7
-1.282, 1.559e-7
-1.281, 1.559e-7
-1.280, 1.559e-7
-1.279, 1.559e-7
-1.278, 1.559e-7
-1.277, 1.559e-7
-1.276, 1.559e-7
-1.275, 1.559e-7
-1.274, 1.559e-7
-1.273, 1.559e-7
-1.272, 1.559e-7
-1.271, 1.559e-7
-1.270, 1.559e-7
-1.269, -2.927e-6
-1.268, 1.559e-7
-1.267, 1.559e-7
-1.266, -2.927e-6
-1.265, 1.559e-7
-1.264, 1.559e-7
-1.263, 1.559e-7
-1.262, -2.927e-6
-1.261, 1.559e-7
-1.260, -2.927e-6
-1.259, -2.927e-6
-1.258, 1.559e-7
-1.257, -2.927e-6
-1.256, -2.927e-6
-1.255, 1.559e-7
-1.254, 1.559e-7
-1.253, 1.559e-7
-1.252, 1.559e-7
-1.251, 1.559e-7
-1.250, 1.559e-7
-1.249, 1.559e-7
-1.248, 1.559e-7
-1.247, -2.927e-6
-1.246, 1.559e-7
-1.245, 1.559e-7
-1.244, 1.559e-7
-1.243, 1.559e-7
-1.242, 1.559e-7
-1.241, 1.559e-7
-1.240, 1.559e-7
-1.239, 1.559e-7
-1.238, 1.559e-7
-1.237, 1.559e-7
-1.236, 1.559e-7
-1.235, 1.559e-7
-1.234, 1.559e-7
-1.233, 1.559e-7
-1.232, 1.559e-7
-1.231, 1.559e-7
-1.230, 1.559e-7
-1.229, -2.927e-6
-1.228, -2.927e-6
-1.227, 1.559e-7
-1.226, 1.559e-7
-1.225, 1.559e-7
-1.224, 1.559e-7
-1.223, 1.559e-7
-1.222, -2.927e-6
-1.221, 1.559e-7
-1.220, -2.927e-6
-1.219, 1.559e-7
-1.218, 1.559e-7
-1.217, 1.559e-7
-1.216, 1.559e-7
-1.215, 1.559e-7
-1.214, 1.559e-7
-1.213, 1.559e-7
-1.212, 1.559e-7
-1.211, 1.559e-7
-1.210, 1.559e-7
-1.209, 1.559e-7
-1.208, 1.559e-7
-1.207, 1.559e-7
-1.206, 1.559e-7
-1.205, 1.559e-7
-1.204, 1.559e-7
-1.203, 1.559e-7
-1.202, 1.559e-7
-1.201, 1.559e-7
-1.200, -2.927e-6
-1.199, 1.559e-7
-1.198, 1.559e-7
-1.197, 1.559e-7
-1.196, 1.559e-7
-1.195, 1.559e-7
-1.194, -2.927e-6
-1.193, 1.559e-7
-1.192, 1.559e-7
-1.191, -2.927e-6
-1.190, 1.559e-7
-1.189, -2.927e-6
-1.188, 1.559e-7
-1.187, 1.559e-7
-1.186, -2.927e-6
-1.185, 1.559e-7
-1.184, 1.559e-7
-1.183, 1.559e-7
-1.182, -2.927e-6
-1.181, -2.927e-6
-1.180, 1.559e-7
-1.179, -2.927e-6
-1.178, 1.559e-7
-1.177, -2.927e-6
-1.176, -2.927e-6
-1.175, 1.559e-7
-1.174, -2.927e-6
-1.173, 1.559e-7
-1.172, 1.559e-7
-1.171, 1.559e-7
-1.170, -2.927e-6
-1.169, 1.559e-7
-1.168, 1.559e-7
-1.167, -2.927e-6
-1.166, 1.559e-7
-1.165, 1.559e-7
-1.164, -2.927e-6
-1.163, 1.559e-7
-1.162, -2.927e-6
-1.161, 1.559e-7
-1.160, 1.559e-7
-1.159, 1.559e-7
-1.158, 1.559e-7
-1.157, 1.559e-7
-1.156, 1.559e-7
-1.155, 1.559e-7
-1.154, -2.927e-6
-1.153, 1.559e-7
-1.152, -2.927e-6
-1.151, -2.927e-6
-1.150, -2.927e-6
-1.149, -2.927e-6
-1.148, -2.927e-6
-1.147, 1.559e-7
-1.146, -2.927e-6
-1.145, -2.927e-6
-1.144, -2.927e-6
-1.143, 1.559e-7
-1.142, 1.559e-7
-1.141, 1.559e-7
-1.140, 1.559e-7
-1.139, 1.559e-7
-1.138, 1.559e-7
-1.137, -2.927e-6
-1.136, -2.927e-6
-1.135, -2.927e-6
-1.134, -2.927e-6
-1.133, 1.559e-7
-1.132, -2.927e-6
-1.131, 1.559e-7
-1.130, -2.927e-6
-1.129, -2.927e-6
-1.128, 1.559e-7
-1.127, -2.927e-6
-1.126, -2.927e-6
-1.125, 1.559e-7
-1.124, -2.927e-6
-1.123, -2.927e-6
-1.122, 1.559e-7
-1.121, 1.559e-7
-1.120, 1.559e-7
-1.119, -2.927e-6
-1.118, -2.927e-6
-1.117, -2.927e-6
-1.116, -2.927e-6
-1.115, -2.927e-6
-1.114, -2.927e-6
-1.113, 1.559e-7
-1.112, 1.559e-7
-1.111, 1.559e-7
-1.110, -2.927e-6
-1.109, 1.559e-7
-1.108, 1.559e-7
-1.107, -2.927e-6
-1.106, 1.559e-7
-1.105, -2.927e-6
-1.104, 1.559e-7
-1.103, 1.559e-7
-1.102, 1.559e-7
-1.101, -2.927e-6
-1.100, -2.927e-6
-1.099, -2.927e-6
-1.098, 1.559e-7
-1.097, -2.927e-6
-1.096, -2.927e-6
-1.095, 1.559e-7
-1.094, -2.927e-6
-1.093, 1.559e-7
-1.092, 1.559e-7
-1.091, -2.927e-6
-1.090, 1.559e-7
-1.089, 1.559e-7
-1.088, 1.559e-7
-1.087, -2.927e-6
-1.086, -2.927e-6
-1.085, -2.927e-6
-1.084, -2.927e-6
-1.083, -2.927e-6
-1.082, 1.559e-7
-1.081, -2.927e-6
-1.080, -2.927e-6
-1.079, -2.927e-6
-1.078, 1.559e-7
-1.077, -2.927e-6
-1.076, 1.559e-7
-1.075, -2.927e-6
-1.074, -2.927e-6
-1.073, 1.559e-7
-1.072, -2.927e-6
-1.071, -2.927e-6
-1.070, -2.927e-6
-1.069, -2.927e-6
-1.068, -2.927e-6
-1.067, 1.559e-7
-1.066, -2.927e-6
-1.065, -2.927e-6
-1.064, -2.927e-6
-1.063, -2.927e-6
-1.062, -2.927e-6
-1.061, -2.927e-6
-1.060, -2.927e-6
-1.059, -2.927e-6
-1.058, -2.927e-6
-1.057, -2.927e-6
-1.056, -2.927e-6
-1.055, 1.559e-7
-1.054, -2.927e-6
-1.053, 1.559e-7
-1.052, 1.559e-7
-1.051, -2.927e-6
-1.050, 1.559e-7
-1.049, -2.927e-6
-1.048, -2.927e-6
-1.047, 1.559e-7
-1.046, -2.927e-6
-1.045, 1.559e-7
-1.044, -2.927e-6
-1.043, -2.927e-6
-1.042, 1.559e-7
-1.041, -2.927e-6
-1.040, -2.927e-6
-1.039, 1.559e-7
-1.038, -2.927e-6
-1.037, -2.927e-6
-1.036, 1.559e-7
-1.035, -2.927e-6
-1.034, -2.927e-6
-1.033, 1.559e-7
-1.032, -2.927e-6
-1.031, -2.927e-6
-1.030, -2.927e-6
-1.029, -2.927e-6
-1.028, 1.559e-7
-1.027, -2.927e-6
-1.026, -2.927e-6
-1.025, -2.927e-6
-1.024, -2.927e-6
-1.023, 1.559e-7
-1.022, -2.927e-6
-1.021, -2.927e-6
-1.020, -2.927e-6
-1.019, -2.927e-6
-1.018, 1.559e-7
-1.017, -2.927e-6
-1.016, -2.927e-6
-1.015, -2.927e-6
-1.014, -2.927e-6
-1.013, 1.559e-7
-1.012, -2.927e-6
-1.011, -2.927e-6
-1.010, -2.927e-6
-1.009, -2.927e-6
-1.008, -2.927e-6
-1.007, -2.927e-6
-1.006, -2.927e-6
-1.005, -2.927e-6
-1.004, -2.927e-6
-1.003, 1.559e-7
-1.002, -2.927e-6
-1.001, -2.927e-6
