Dec. 13, 2024   15:35:35
Cyclic Voltammetry
File: c:/users/guazh/data/banditlqround7_x0exp59_r20/2024-12-09-exp649\exp649-2024-12-13t15_28_37-arkoh\exp649_cv_sr_300mvs_efin_-1400mv.bin
Data Source:  Experiment
Instrument Model:  CHI760E
Header: CV ran at 300 mVs
Note: 

Init E (V) = -1
High E (V) = -1
Low E (V) = -1.4
Final E (V) = -1
Init P/N = N
Scan Rate (V/s) = 0.3
Segment = 3
Sample Interval (V) = 0.001
Quiet Time (sec) = 2
Sensitivity (A/V) = 0.01
Comp R (ohm) = 1.3

Results:

Channel 1:
Segment 1:

Segment 2:

Segment 3:

Potential/V, Current/A

-1.000, -9.234e-5
-1.001, -4.917e-5
-1.002, -1.526e-5
-1.003, 1.865e-5
-1.004, 5.565e-5
-1.005, 8.648e-5
-1.006, 1.111e-4
-1.007, 1.327e-4
-1.008, 1.574e-4
-1.009, 1.851e-4
-1.010, 2.129e-4
-1.011, 2.283e-4
-1.012, 2.468e-4
-1.013, 2.653e-4
-1.014, 2.869e-4
-1.015, 3.085e-4
-1.016, 3.239e-4
-1.017, 3.362e-4
-1.018, 3.516e-4
-1.019, 3.732e-4
-1.020, 3.917e-4
-1.021, 4.040e-4
-1.022, 4.133e-4
-1.023, 4.256e-4
-1.024, 4.441e-4
-1.025, 4.595e-4
-1.026, 4.719e-4
-1.027, 4.811e-4
-1.028, 4.935e-4
-1.029, 5.058e-4
-1.030, 5.212e-4
-1.031, 5.305e-4
-1.032, 5.366e-4
-1.033, 5.459e-4
-1.034, 5.613e-4
-1.035, 5.736e-4
-1.036, 5.798e-4
-1.037, 5.829e-4
-1.038, 5.921e-4
-1.039, 6.044e-4
-1.040, 6.168e-4
-1.041, 6.229e-4
-1.042, 6.291e-4
-1.043, 6.353e-4
-1.044, 6.476e-4
-1.045, 6.599e-4
-1.046, 6.661e-4
-1.047, 6.661e-4
-1.048, 6.723e-4
-1.049, 6.846e-4
-1.050, 6.939e-4
-1.051, 6.969e-4
-1.052, 7.000e-4
-1.053, 7.062e-4
-1.054, 7.185e-4
-1.055, 7.278e-4
-1.056, 7.339e-4
-1.057, 7.339e-4
-1.058, 7.370e-4
-1.059, 7.463e-4
-1.060, 7.555e-4
-1.061, 7.586e-4
-1.062, 7.586e-4
-1.063, 7.586e-4
-1.064, 7.679e-4
-1.065, 7.771e-4
-1.066, 7.771e-4
-1.067, 7.771e-4
-1.068, 7.833e-4
-1.069, 7.925e-4
-1.070, 7.987e-4
-1.071, 8.018e-4
-1.072, 8.018e-4
-1.073, 8.048e-4
-1.074, 8.141e-4
-1.075, 8.233e-4
-1.076, 8.233e-4
-1.077, 8.203e-4
-1.078, 8.233e-4
-1.079, 8.295e-4
-1.080, 8.357e-4
-1.081, 8.388e-4
-1.082, 8.357e-4
-1.083, 8.388e-4
-1.084, 8.418e-4
-1.085, 8.480e-4
-1.086, 8.511e-4
-1.087, 8.511e-4
-1.088, 8.511e-4
-1.089, 8.603e-4
-1.090, 8.665e-4
-1.091, 8.696e-4
-1.092, 8.696e-4
-1.093, 8.665e-4
-1.094, 8.727e-4
-1.095, 8.758e-4
-1.096, 8.727e-4
-1.097, 8.696e-4
-1.098, 8.696e-4
-1.099, 8.758e-4
-1.100, 8.819e-4
-1.101, 8.819e-4
-1.102, 8.788e-4
-1.103, 8.819e-4
-1.104, 8.912e-4
-1.105, 8.943e-4
-1.106, 8.912e-4
-1.107, 8.881e-4
-1.108, 8.850e-4
-1.109, 8.912e-4
-1.110, 8.943e-4
-1.111, 8.943e-4
-1.112, 8.912e-4
-1.113, 8.912e-4
-1.114, 8.973e-4
-1.115, 9.004e-4
-1.116, 8.973e-4
-1.117, 8.943e-4
-1.118, 8.973e-4
-1.119, 9.035e-4
-1.120, 9.097e-4
-1.121, 9.066e-4
-1.122, 9.004e-4
-1.123, 9.004e-4
-1.124, 9.066e-4
-1.125, 9.097e-4
-1.126, 9.097e-4
-1.127, 9.066e-4
-1.128, 9.066e-4
-1.129, 9.128e-4
-1.130, 9.189e-4
-1.131, 9.220e-4
-1.132, 9.189e-4
-1.133, 9.189e-4
-1.134, 9.251e-4
-1.135, 9.251e-4
-1.136, 9.251e-4
-1.137, 9.189e-4
-1.138, 9.158e-4
-1.139, 9.189e-4
-1.140, 9.282e-4
-1.141, 9.251e-4
-1.142, 9.220e-4
-1.143, 9.189e-4
-1.144, 9.220e-4
-1.145, 9.282e-4
-1.146, 9.251e-4
-1.147, 9.189e-4
-1.148, 9.189e-4
-1.149, 9.220e-4
-1.150, 9.251e-4
-1.151, 9.251e-4
-1.152, 9.220e-4
-1.153, 9.220e-4
-1.154, 9.251e-4
-1.155, 9.313e-4
-1.156, 9.313e-4
-1.157, 9.282e-4
-1.158, 9.282e-4
-1.159, 9.343e-4
-1.160, 9.405e-4
-1.161, 9.374e-4
-1.162, 9.313e-4
-1.163, 9.313e-4
-1.164, 9.343e-4
-1.165, 9.405e-4
-1.166, 9.405e-4
-1.167, 9.374e-4
-1.168, 9.374e-4
-1.169, 9.436e-4
-1.170, 9.467e-4
-1.171, 9.436e-4
-1.172, 9.405e-4
-1.173, 9.374e-4
-1.174, 9.436e-4
-1.175, 9.498e-4
-1.176, 9.467e-4
-1.177, 9.436e-4
-1.178, 9.436e-4
-1.179, 9.467e-4
-1.180, 9.528e-4
-1.181, 9.528e-4
-1.182, 9.467e-4
-1.183, 9.436e-4
-1.184, 9.559e-4
-1.185, 9.683e-4
-1.186, 9.652e-4
-1.187, 9.528e-4
-1.188, 9.528e-4
-1.189, 9.621e-4
-1.190, 9.775e-4
-1.191, 9.775e-4
-1.192, 9.652e-4
-1.193, 9.621e-4
-1.194, 9.683e-4
-1.195, 9.744e-4
-1.196, 9.713e-4
-1.197, 9.652e-4
-1.198, 9.621e-4
-1.199, 9.713e-4
-1.200, 9.775e-4
-1.201, 9.775e-4
-1.202, 9.744e-4
-1.203, 9.744e-4
-1.204, 9.806e-4
-1.205, 9.837e-4
-1.206, 9.837e-4
-1.207, 9.775e-4
-1.208, 9.806e-4
-1.209, 9.868e-4
-1.210, 9.929e-4
-1.211, 9.929e-4
-1.212, 9.898e-4
-1.213, 9.898e-4
-1.214, 9.960e-4
-1.215, 1.002e-3
-1.216, 1.002e-3
-1.217, 9.991e-4
-1.218, 9.991e-4
-1.219, 1.005e-3
-1.220, 1.011e-3
-1.221, 1.011e-3
-1.222, 1.008e-3
-1.223, 1.008e-3
-1.224, 1.018e-3
-1.225, 1.021e-3
-1.226, 1.024e-3
-1.227, 1.021e-3
-1.228, 1.024e-3
-1.229, 1.030e-3
-1.230, 1.033e-3
-1.231, 1.033e-3
-1.232, 1.030e-3
-1.233, 1.033e-3
-1.234, 1.042e-3
-1.235, 1.048e-3
-1.236, 1.048e-3
-1.237, 1.042e-3
-1.238, 1.045e-3
-1.239, 1.051e-3
-1.240, 1.058e-3
-1.241, 1.058e-3
-1.242, 1.055e-3
-1.243, 1.055e-3
-1.244, 1.061e-3
-1.245, 1.070e-3
-1.246, 1.073e-3
-1.247, 1.070e-3
-1.248, 1.070e-3
-1.249, 1.076e-3
-1.250, 1.082e-3
-1.251, 1.082e-3
-1.252, 1.079e-3
-1.253, 1.079e-3
-1.254, 1.085e-3
-1.255, 1.092e-3
-1.256, 1.092e-3
-1.257, 1.088e-3
-1.258, 1.088e-3
-1.259, 1.098e-3
-1.260, 1.104e-3
-1.261, 1.110e-3
-1.262, 1.107e-3
-1.263, 1.104e-3
-1.264, 1.113e-3
-1.265, 1.119e-3
-1.266, 1.119e-3
-1.267, 1.119e-3
-1.268, 1.122e-3
-1.269, 1.129e-3
-1.270, 1.138e-3
-1.271, 1.138e-3
-1.272, 1.135e-3
-1.273, 1.135e-3
-1.274, 1.144e-3
-1.275, 1.150e-3
-1.276, 1.153e-3
-1.277, 1.150e-3
-1.278, 1.153e-3
-1.279, 1.159e-3
-1.280, 1.169e-3
-1.281, 1.172e-3
-1.282, 1.172e-3
-1.283, 1.175e-3
-1.284, 1.184e-3
-1.285, 1.193e-3
-1.286, 1.193e-3
-1.287, 1.193e-3
-1.288, 1.193e-3
-1.289, 1.199e-3
-1.290, 1.209e-3
-1.291, 1.212e-3
-1.292, 1.212e-3
-1.293, 1.212e-3
-1.294, 1.221e-3
-1.295, 1.230e-3
-1.296, 1.233e-3
-1.297, 1.230e-3
-1.298, 1.236e-3
-1.299, 1.243e-3
-1.300, 1.252e-3
-1.301, 1.255e-3
-1.302, 1.255e-3
-1.303, 1.258e-3
-1.304, 1.267e-3
-1.305, 1.280e-3
-1.306, 1.283e-3
-1.307, 1.283e-3
-1.308, 1.286e-3
-1.309, 1.295e-3
-1.310, 1.307e-3
-1.311, 1.310e-3
-1.312, 1.314e-3
-1.313, 1.317e-3
-1.314, 1.326e-3
-1.315, 1.335e-3
-1.316, 1.341e-3
-1.317, 1.344e-3
-1.318, 1.351e-3
-1.319, 1.360e-3
-1.320, 1.372e-3
-1.321, 1.378e-3
-1.322, 1.381e-3
-1.323, 1.388e-3
-1.324, 1.400e-3
-1.325, 1.415e-3
-1.326, 1.421e-3
-1.327, 1.425e-3
-1.328, 1.434e-3
-1.329, 1.452e-3
-1.330, 1.468e-3
-1.331, 1.477e-3
-1.332, 1.486e-3
-1.333, 1.495e-3
-1.334, 1.514e-3
-1.335, 1.529e-3
-1.336, 1.539e-3
-1.337, 1.542e-3
-1.338, 1.548e-3
-1.339, 1.566e-3
-1.340, 1.579e-3
-1.341, 1.588e-3
-1.342, 1.594e-3
-1.343, 1.606e-3
-1.344, 1.631e-3
-1.345, 1.656e-3
-1.346, 1.659e-3
-1.347, 1.677e-3
-1.348, 1.699e-3
-1.349, 1.721e-3
-1.350, 1.742e-3
-1.351, 1.748e-3
-1.352, 1.764e-3
-1.353, 1.788e-3
-1.354, 1.825e-3
-1.355, 1.853e-3
-1.356, 1.872e-3
-1.357, 1.887e-3
-1.358, 1.912e-3
-1.359, 1.946e-3
-1.360, 1.983e-3
-1.361, 2.010e-3
-1.362, 2.041e-3
-1.363, 2.081e-3
-1.364, 2.121e-3
-1.365, 2.161e-3
-1.366, 2.201e-3
-1.367, 2.245e-3
-1.368, 2.297e-3
-1.369, 2.349e-3
-1.370, 2.405e-3
-1.371, 2.460e-3
-1.372, 2.516e-3
-1.373, 2.581e-3
-1.374, 2.655e-3
-1.375, 2.732e-3
-1.376, 2.806e-3
-1.377, 2.883e-3
-1.378, 2.960e-3
-1.379, 3.043e-3
-1.380, 3.133e-3
-1.381, 3.219e-3
-1.382, 3.302e-3
-1.383, 3.392e-3
-1.384, 3.484e-3
-1.385, 3.577e-3
-1.386, 3.663e-3
-1.387, 3.749e-3
-1.388, 3.839e-3
-1.389, 3.934e-3
-1.390, 4.033e-3
-1.391, 4.125e-3
-1.392, 4.218e-3
-1.393, 4.313e-3
-1.394, 4.412e-3
-1.395, 4.511e-3
-1.396, 4.606e-3
-1.397, 4.693e-3
-1.398, 4.788e-3
-1.399, 4.887e-3
-1.400, 4.942e-3
-1.399, 4.924e-3
-1.398, 4.908e-3
-1.397, 4.896e-3
-1.396, 4.890e-3
-1.395, 4.884e-3
-1.394, 4.871e-3
-1.393, 4.850e-3
-1.392, 4.834e-3
-1.391, 4.822e-3
-1.390, 4.804e-3
-1.389, 4.788e-3
-1.388, 4.770e-3
-1.387, 4.745e-3
-1.386, 4.723e-3
-1.385, 4.702e-3
-1.384, 4.686e-3
-1.383, 4.659e-3
-1.382, 4.631e-3
-1.381, 4.609e-3
-1.380, 4.588e-3
-1.379, 4.560e-3
-1.378, 4.529e-3
-1.377, 4.498e-3
-1.376, 4.471e-3
-1.375, 4.446e-3
-1.374, 4.409e-3
-1.373, 4.375e-3
-1.372, 4.350e-3
-1.371, 4.326e-3
-1.370, 4.298e-3
-1.369, 4.267e-3
-1.368, 4.227e-3
-1.367, 4.187e-3
-1.366, 4.156e-3
-1.365, 4.125e-3
-1.364, 4.098e-3
-1.363, 4.058e-3
-1.362, 4.021e-3
-1.361, 3.987e-3
-1.360, 3.953e-3
-1.359, 3.922e-3
-1.358, 3.885e-3
-1.357, 3.851e-3
-1.356, 3.817e-3
-1.355, 3.789e-3
-1.354, 3.755e-3
-1.353, 3.712e-3
-1.352, 3.672e-3
-1.351, 3.644e-3
-1.350, 3.614e-3
-1.349, 3.580e-3
-1.348, 3.543e-3
-1.347, 3.499e-3
-1.346, 3.466e-3
-1.345, 3.435e-3
-1.344, 3.410e-3
-1.343, 3.373e-3
-1.342, 3.333e-3
-1.341, 3.299e-3
-1.340, 3.268e-3
-1.339, 3.234e-3
-1.338, 3.197e-3
-1.337, 3.157e-3
-1.336, 3.126e-3
-1.335, 3.093e-3
-1.334, 3.059e-3
-1.333, 3.019e-3
-1.332, 2.991e-3
-1.331, 2.966e-3
-1.330, 2.929e-3
-1.329, 2.892e-3
-1.328, 2.852e-3
-1.327, 2.821e-3
-1.326, 2.793e-3
-1.325, 2.760e-3
-1.324, 2.726e-3
-1.323, 2.689e-3
-1.322, 2.652e-3
-1.321, 2.618e-3
-1.320, 2.590e-3
-1.319, 2.553e-3
-1.318, 2.519e-3
-1.317, 2.488e-3
-1.316, 2.457e-3
-1.315, 2.423e-3
-1.314, 2.390e-3
-1.313, 2.349e-3
-1.312, 2.316e-3
-1.311, 2.285e-3
-1.310, 2.260e-3
-1.309, 2.229e-3
-1.308, 2.192e-3
-1.307, 2.152e-3
-1.306, 2.124e-3
-1.305, 2.097e-3
-1.304, 2.069e-3
-1.303, 2.029e-3
-1.302, 1.998e-3
-1.301, 1.967e-3
-1.300, 1.939e-3
-1.299, 1.909e-3
-1.298, 1.875e-3
-1.297, 1.844e-3
-1.296, 1.819e-3
-1.295, 1.795e-3
-1.294, 1.761e-3
-1.293, 1.721e-3
-1.292, 1.684e-3
-1.291, 1.653e-3
-1.290, 1.631e-3
-1.289, 1.606e-3
-1.288, 1.576e-3
-1.287, 1.539e-3
-1.286, 1.505e-3
-1.285, 1.480e-3
-1.284, 1.452e-3
-1.283, 1.421e-3
-1.282, 1.388e-3
-1.281, 1.363e-3
-1.280, 1.338e-3
-1.279, 1.310e-3
-1.278, 1.277e-3
-1.277, 1.249e-3
-1.276, 1.221e-3
-1.275, 1.199e-3
-1.274, 1.169e-3
-1.273, 1.138e-3
-1.272, 1.110e-3
-1.271, 1.085e-3
-1.270, 1.064e-3
-1.269, 1.036e-3
-1.268, 1.005e-3
-1.267, 9.744e-4
-1.266, 9.528e-4
-1.265, 9.313e-4
-1.264, 9.035e-4
-1.263, 8.758e-4
-1.262, 8.449e-4
-1.261, 8.203e-4
-1.260, 8.018e-4
-1.259, 7.802e-4
-1.258, 7.494e-4
-1.257, 7.216e-4
-1.256, 7.000e-4
-1.255, 6.815e-4
-1.254, 6.569e-4
-1.253, 6.291e-4
-1.252, 6.014e-4
-1.251, 5.829e-4
-1.250, 5.644e-4
-1.249, 5.428e-4
-1.248, 5.150e-4
-1.247, 4.904e-4
-1.246, 4.719e-4
-1.245, 4.565e-4
-1.244, 4.318e-4
-1.243, 4.071e-4
-1.242, 3.825e-4
-1.241, 3.640e-4
-1.240, 3.485e-4
-1.239, 3.300e-4
-1.238, 3.023e-4
-1.237, 2.807e-4
-1.236, 2.653e-4
-1.235, 2.499e-4
-1.234, 2.314e-4
-1.233, 2.067e-4
-1.232, 1.851e-4
-1.231, 1.697e-4
-1.230, 1.543e-4
-1.229, 1.358e-4
-1.228, 1.111e-4
-1.227, 9.265e-5
-1.226, 7.723e-5
-1.225, 6.490e-5
-1.224, 4.640e-5
-1.223, 2.482e-5
-1.222, 6.322e-6
-1.221, -9.093e-6
-1.220, -2.143e-5
-1.219, -3.684e-5
-1.218, -5.842e-5
-1.217, -7.692e-5
-1.216, -8.617e-5
-1.215, -9.850e-5
-1.214, -1.139e-4
-1.213, -1.324e-4
-1.212, -1.509e-4
-1.211, -1.632e-4
-1.210, -1.725e-4
-1.209, -1.848e-4
-1.208, -2.033e-4
-1.207, -2.218e-4
-1.206, -2.311e-4
-1.205, -2.403e-4
-1.204, -2.557e-4
-1.203, -2.712e-4
-1.202, -2.866e-4
-1.201, -2.958e-4
-1.200, -3.051e-4
-1.199, -3.174e-4
-1.198, -3.359e-4
-1.197, -3.482e-4
-1.196, -3.575e-4
-1.195, -3.637e-4
-1.194, -3.760e-4
-1.193, -3.914e-4
-1.192, -4.037e-4
-1.191, -4.130e-4
-1.190, -4.191e-4
-1.189, -4.284e-4
-1.188, -4.438e-4
-1.187, -4.561e-4
-1.186, -4.654e-4
-1.185, -4.716e-4
-1.184, -4.808e-4
-1.183, -4.962e-4
-1.182, -5.055e-4
-1.181, -5.116e-4
-1.180, -5.178e-4
-1.179, -5.271e-4
-1.178, -5.425e-4
-1.177, -5.548e-4
-1.176, -5.610e-4
-1.175, -5.641e-4
-1.174, -5.733e-4
-1.173, -5.856e-4
-1.172, -5.980e-4
-1.171, -6.011e-4
-1.170, -6.041e-4
-1.169, -6.134e-4
-1.168, -6.257e-4
-1.167, -6.319e-4
-1.166, -6.380e-4
-1.165, -6.442e-4
-1.164, -6.535e-4
-1.163, -6.658e-4
-1.162, -6.720e-4
-1.161, -6.750e-4
-1.160, -6.750e-4
-1.159, -6.843e-4
-1.158, -6.966e-4
-1.157, -7.059e-4
-1.156, -7.090e-4
-1.155, -7.090e-4
-1.154, -7.151e-4
-1.153, -7.244e-4
-1.152, -7.336e-4
-1.151, -7.398e-4
-1.150, -7.398e-4
-1.149, -7.429e-4
-1.148, -7.521e-4
-1.147, -7.614e-4
-1.146, -7.645e-4
-1.145, -7.675e-4
-1.144, -7.737e-4
-1.143, -7.830e-4
-1.142, -7.891e-4
-1.141, -7.922e-4
-1.140, -7.922e-4
-1.139, -7.984e-4
-1.138, -8.076e-4
-1.137, -8.169e-4
-1.136, -8.169e-4
-1.135, -8.169e-4
-1.134, -8.230e-4
-1.133, -8.323e-4
-1.132, -8.415e-4
-1.131, -8.415e-4
-1.130, -8.415e-4
-1.129, -8.446e-4
-1.128, -8.508e-4
-1.127, -8.600e-4
-1.126, -8.631e-4
-1.125, -8.631e-4
-1.124, -8.662e-4
-1.123, -8.754e-4
-1.122, -8.785e-4
-1.121, -8.785e-4
-1.120, -8.785e-4
-1.119, -8.847e-4
-1.118, -8.939e-4
-1.117, -9.001e-4
-1.116, -9.001e-4
-1.115, -8.970e-4
-1.114, -9.001e-4
-1.113, -9.094e-4
-1.112, -9.124e-4
-1.111, -9.124e-4
-1.110, -9.124e-4
-1.109, -9.155e-4
-1.108, -9.217e-4
-1.107, -9.279e-4
-1.106, -9.279e-4
-1.105, -9.279e-4
-1.104, -9.309e-4
-1.103, -9.340e-4
-1.102, -9.402e-4
-1.101, -9.402e-4
-1.100, -9.433e-4
-1.099, -9.494e-4
-1.098, -9.556e-4
-1.097, -9.587e-4
-1.096, -9.556e-4
-1.095, -9.525e-4
-1.094, -9.587e-4
-1.093, -9.710e-4
-1.092, -9.803e-4
-1.091, -9.803e-4
-1.090, -9.772e-4
-1.089, -9.772e-4
-1.088, -9.864e-4
-1.087, -9.926e-4
-1.086, -9.926e-4
-1.085, -9.895e-4
-1.084, -9.895e-4
-1.083, -9.957e-4
-1.082, -9.988e-4
-1.081, -9.988e-4
-1.080, -1.002e-3
-1.079, -1.008e-3
-1.078, -1.011e-3
-1.077, -1.011e-3
-1.076, -1.014e-3
-1.075, -1.011e-3
-1.074, -1.014e-3
-1.073, -1.017e-3
-1.072, -1.020e-3
-1.071, -1.023e-3
-1.070, -1.020e-3
-1.069, -1.023e-3
-1.068, -1.030e-3
-1.067, -1.036e-3
-1.066, -1.033e-3
-1.065, -1.033e-3
-1.064, -1.033e-3
-1.063, -1.042e-3
-1.062, -1.048e-3
-1.061, -1.048e-3
-1.060, -1.045e-3
-1.059, -1.048e-3
-1.058, -1.054e-3
-1.057, -1.060e-3
-1.056, -1.060e-3
-1.055, -1.060e-3
-1.054, -1.060e-3
-1.053, -1.067e-3
-1.052, -1.073e-3
-1.051, -1.073e-3
-1.050, -1.073e-3
-1.049, -1.073e-3
-1.048, -1.082e-3
-1.047, -1.088e-3
-1.046, -1.088e-3
-1.045, -1.088e-3
-1.044, -1.091e-3
-1.043, -1.101e-3
-1.042, -1.107e-3
-1.041, -1.107e-3
-1.040, -1.104e-3
-1.039, -1.107e-3
-1.038, -1.113e-3
-1.037, -1.119e-3
-1.036, -1.119e-3
-1.035, -1.116e-3
-1.034, -1.119e-3
-1.033, -1.128e-3
-1.032, -1.134e-3
-1.031, -1.134e-3
-1.030, -1.134e-3
-1.029, -1.138e-3
-1.028, -1.144e-3
-1.027, -1.153e-3
-1.026, -1.156e-3
-1.025, -1.156e-3
-1.024, -1.159e-3
-1.023, -1.165e-3
-1.022, -1.171e-3
-1.021, -1.171e-3
-1.020, -1.171e-3
-1.019, -1.175e-3
-1.018, -1.184e-3
-1.017, -1.193e-3
-1.016, -1.193e-3
-1.015, -1.193e-3
-1.014, -1.196e-3
-1.013, -1.202e-3
-1.012, -1.212e-3
-1.011, -1.212e-3
-1.010, -1.212e-3
-1.009, -1.215e-3
-1.008, -1.224e-3
-1.007, -1.230e-3
-1.006, -1.233e-3
-1.005, -1.233e-3
-1.004, -1.239e-3
-1.003, -1.249e-3
-1.002, -1.255e-3
-1.001, -1.258e-3
