Potential V vs RHE, Current mA cm-2
0.013299999999999867,1.0446228238203432
0.012299999999999978,0.3467457395969205
0.011299999999999866,-0.30755823659065895
0.010299999999999976,-0.9181476336124089
0.009299999999999864,-1.5293029151541047
0.008299999999999974,-2.095187435100119
0.007299999999999862,-2.618630616050183
0.006299999999999972,-3.1420737970002466
0.00529999999999986,-3.6655169779503103
0.0042999999999999705,-4.146518819904423
0.0032999999999998586,-4.626105950558669
0.0022999999999999687,-5.0618370309171015
0.0012999999999998568,-5.497568111275533
0.00029999999999996696,-5.890857852638012
-0.000700000000000145,-6.326588932996443
-0.0017000000000000348,-6.719878674358924
-0.0027000000000001467,-7.067897654125724
-0.0037000000000000366,-7.461187395488204
-0.0047000000000001485,-7.809206375255003
-0.005700000000000038,-8.202496116617484
-0.00670000000000015,-8.55051509638428
-0.00770000000000004,-8.899948787450944
-0.008700000000000152,-9.293238528813426
-0.009700000000000042,-9.641257508580225
-0.010700000000000154,-9.99069119964689
-0.011700000000000044,-10.340124890713554
-0.012700000000000156,-10.644287820184536
-0.013700000000000045,-10.949865460955383
-0.014700000000000157,-11.299299152022046
-0.015700000000000047,-11.56102074249708
-0.01670000000000016,-11.86659838326793
-0.01770000000000005,-12.12831997374296
-0.01870000000000016,-12.390041564217992
-0.01970000000000005,-12.694204493688973
-0.020700000000000163,-12.955926084164007
-0.021700000000000053,-13.261503724934855
-0.022700000000000164,-13.567081365705702
-0.023700000000000054,-13.828802956180734
-0.024700000000000166,-14.13438059695158
-0.025700000000000056,-14.444202371622024
-0.026700000000000168,-14.69885040559773
-0.027700000000000058,-14.967645552572087
-0.02870000000000017,-15.179852247551842
-0.02970000000000006,-15.448647394526201
-0.03070000000000017,-15.660854089505953
-0.03170000000000006,-15.91550212348166
-0.03270000000000017,-16.099414592464115
-0.03370000000000006,-16.354062626439823
-0.034700000000000175,-16.580416434418233
-0.035700000000000065,-16.835064468393938
-0.03670000000000018,-17.061418276372343
-0.03770000000000007,-17.2736249713521
-0.03870000000000018,-17.48583166633185
-0.03970000000000007,-17.71218547431026
-0.04070000000000018,-17.966833508285966
-0.04170000000000007,-18.15074597726842
-0.04270000000000018,-18.362952672248177
-0.04370000000000007,-18.53271802823198
-0.044700000000000184,-18.716630497214435
-0.045700000000000074,-18.88639585319824
-0.046700000000000186,-19.056161209182044
-0.047700000000000076,-19.2400736781645
-0.04870000000000019,-19.409839034148305
-0.04970000000000008,-19.579604390132108
-0.05070000000000019,-19.721075520118614
-0.05170000000000008,-19.890840876102416
-0.05270000000000019,-20.06060623208622
-0.05370000000000008,-20.286960040064624
-0.05470000000000019,-20.456725396048434
-0.05570000000000008,-20.626490752032236
-0.056700000000000195,-20.85284456001064
-0.057700000000000085,-20.980168576998494
-0.058700000000000196,-21.149933932982297
-0.059700000000000086,-21.376287740960702
-0.0607000000000002,-21.503611757948562
-0.06170000000000009,-21.67337711393236
-0.0627000000000002,-21.857289582914817
-0.06370000000000009,-22.027054938898623
-0.0647000000000002,-22.15437895588647
-0.06570000000000009,-22.33829142486893
-0.0667000000000002,-22.46561544185678
-0.0677000000000001,-22.67782213683654
-0.0687000000000002,-22.861734605818995
-0.0697000000000001,-23.031499961802798
-0.07070000000000021,-23.2012653177866
-0.0717000000000001,-23.342736447773106
-0.07270000000000021,-23.51250180375691
-0.0737000000000001,-23.597384481748815
-0.07470000000000021,-23.724708498736668
-0.0757000000000001,-23.823738289727217
-0.07670000000000021,-23.908620967719123
-0.0777000000000001,-23.993503645711023
-0.07870000000000021,-24.120827662698876
-0.0797000000000001,-24.24815167968673
-0.08070000000000022,-24.389622809673234
-0.0817000000000001,-24.474505487665134
-0.08270000000000022,-24.64427084364894
-0.08370000000000011,-24.814036199632742
-0.08470000000000022,-24.95550732961925
-0.08570000000000011,-25.12527268560305
-0.08670000000000022,-25.252596702590903
-0.08770000000000011,-25.39406783257741
-0.08870000000000022,-25.478950510569312
-0.08970000000000011,-25.563833188561212
-0.09070000000000022,-25.60627452755716
-0.09170000000000011,-25.691157205549064
-0.09270000000000023,-25.73359854454502
-0.09370000000000012,-25.81848122253692
-0.09470000000000023,-25.91751101352747
-0.09570000000000012,-26.002393691519377
-0.09670000000000023,-26.087276369511276
-0.09770000000000012,-26.21460038649913
-0.09870000000000023,-26.34192440348698
-0.09970000000000012,-26.440954194477534
-0.10070000000000023,-26.568278211465387
-0.10170000000000012,-26.69560222845324
-0.10270000000000024,-26.822926245441096
-0.10370000000000013,-26.9643973754276
-0.10470000000000024,-27.049280053419505
-0.10570000000000013,-27.134162731411404
-0.10670000000000024,-27.176604070407354
-0.10770000000000013,-27.219045409403304
-0.10870000000000024,-27.261486748399253
-0.10970000000000013,-27.38881076538711
-0.11070000000000024,-27.487840556377662
-0.11170000000000013,-27.572723234369565
-0.11270000000000002,-27.700047251357418
-0.11370000000000013,-27.827371268345274
-0.11470000000000002,-27.954695285333123
-0.11570000000000014,-28.09616641531963
-0.11670000000000003,-28.22349043230748
-0.11770000000000014,-28.308373110299385
-0.11870000000000003,-28.350814449295335
-0.11970000000000014,-28.435697127287238
-0.12070000000000003,-28.478138466283188
-0.12170000000000014,-28.53472691827779
-0.12270000000000003,-28.577168257273744
-0.12370000000000014,-28.577168257273744
-0.12470000000000003,-28.619609596269694
-0.12570000000000014,-28.662050935265643
-0.12670000000000003,-28.704492274261593
-0.12770000000000015,-28.789374952253496
-0.12870000000000004,-28.91669896924135
-0.12970000000000015,-29.001581647233255
-0.13070000000000004,-29.100611438223805
-0.13170000000000015,-29.18549411621571
-0.13270000000000004,-29.27037679420761
-0.13370000000000015,-29.35525947219951
-0.13470000000000004,-29.39770081119546
-0.13570000000000015,-29.482583489187363
-0.13670000000000004,-29.525024828183312
-0.13770000000000016,-29.581613280177915
-0.13870000000000005,-29.581613280177915
-0.13970000000000016,-29.66649595816982
-0.14070000000000005,-29.708937297165768
-0.14170000000000016,-29.793819975157668
-0.14270000000000005,-29.921143992145527
-0.14370000000000016,-30.00602667013743
-0.14470000000000005,-30.147497800123933
-0.14570000000000016,-30.232380478115836
-0.14670000000000005,-30.317263156107735
-0.14770000000000016,-30.444587173095588
-0.14870000000000005,-30.487028512091538
-0.14970000000000017,-30.529469851087494
-0.15070000000000006,-30.529469851087494
-0.15170000000000017,-30.571911190083444
-0.15270000000000006,-30.529469851087494
-0.15370000000000017,-30.614352529079397
-0.15470000000000006,-30.614352529079397
-0.15570000000000017,-30.614352529079397
-0.15670000000000006,-30.670940981073993
-0.15770000000000017,-30.71338232006995
-0.15870000000000006,-30.79826499806185
-0.15970000000000018,-30.8407063370578
-0.16070000000000007,-30.925589015049702
-0.16170000000000018,-31.010471693041605
-0.16270000000000007,-31.052913032037555
-0.16370000000000018,-31.095354371033505
-0.16470000000000007,-31.137795710029454
-0.16570000000000018,-31.19438416202406
-0.16670000000000007,-31.23682550102001
-0.16770000000000018,-31.27926684001596
-0.16870000000000007,-31.321708179011907
-0.16970000000000018,-31.40659085700382
-0.17070000000000007,-31.49147353499572
-0.17170000000000019,-31.57635621298762
-0.17270000000000008,-31.661238890979522
-0.1737000000000002,-31.802710020966025
-0.17470000000000008,-31.930034037953877
-0.1757000000000002,-32.01491671594578
-0.17670000000000008,-32.09979939393769
-0.1777000000000002,-32.184682071929586
-0.17870000000000008,-32.24127052392419
-0.1797000000000002,-32.283711862920136
-0.18070000000000008,-32.32615320191609
-0.1817000000000002,-32.368594540912035
-0.18270000000000008,-32.368594540912035
-0.1837000000000002,-32.41103587990799
-0.1847000000000001,-32.45347721890394
-0.1857000000000002,-32.45347721890394
-0.1867000000000001,-32.49591855789989
-0.1877000000000002,-32.53835989689585
-0.1887000000000001,-32.58080123589179
-0.1897000000000002,-32.62324257488775
-0.1907000000000001,-32.66568391388369
-0.1917000000000001,-32.70812525287965
-0.19269999999999998,-32.70812525287965
-0.1937000000000001,-32.70812525287965
-0.19469999999999998,-32.70812525287965
-0.1957000000000001,-32.764713704874254
-0.19669999999999999,-32.764713704874254
-0.1977000000000001,-32.764713704874254
-0.1987,-32.807155043870196
-0.1997000000000001,-32.84959638286615
-0.2007,-32.93447906085806
-0.2017000000000001,-32.97692039985401
-0.2027,-33.10424441684186
-0.2037000000000001,-33.18912709483376
-0.2047,-33.330598224820264
-0.2057000000000001,-33.41548090281216
-0.2067,-33.54280491980002
-0.2077000000000001,-33.670128936787876
-0.2087,-33.712570275783825
-0.2097000000000001,-33.81160006677438
-0.2107,-33.85404140577033
-0.2117000000000001,-33.89648274476628
-0.2127,-33.89648274476628
-0.2137000000000001,-33.98136542275818
-0.2147,-33.98136542275818
-0.2157000000000001,-34.06624810075008
-0.2167,-34.10868943974604
-0.21770000000000012,-34.15113077874198
-0.2187,-34.193572117737936
-0.21970000000000012,-34.236013456733886
-0.2207,-34.278454795729836
-0.22170000000000012,-34.33504324772444
-0.2227,-34.377484586720385
-0.22370000000000012,-34.377484586720385
-0.2247,-34.41992592571634
-0.22570000000000012,-34.41992592571634
-0.2267,-34.41992592571634
-0.22770000000000012,-34.41992592571634
-0.22870000000000001,-34.462367264712285
-0.22970000000000013,-34.462367264712285
-0.23070000000000002,-34.50480860370825
-0.23170000000000013,-34.5472499427042
-0.23270000000000002,-34.632132620696105
-0.23370000000000013,-34.717015298688004
-0.23470000000000002,-34.85848642867451
-0.23570000000000013,-34.98581044566235
-0.23670000000000002,-35.07069312365426
-0.2376999999999999,-35.198017140642115
-0.23870000000000002,-35.240458479638065
-0.2396999999999999,-35.32534115762997
-0.24070000000000003,-35.38192960962457
-0.24169999999999991,-35.42437094862052
-0.24270000000000003,-35.46681228761647
-0.24369999999999992,-35.50925362661242
-0.24470000000000003,-35.55169496560837
-0.24569999999999992,-35.55169496560837
-0.24670000000000003,-35.679018982596226
-0.24769999999999992,-35.721460321592176
-0.24870000000000003,-35.806342999584075
-0.24969999999999992,-35.848784338580025
-0.25070000000000003,-35.94781412957058
-0.2516999999999999,-36.03269680756248
-0.25270000000000004,-36.07513814655844
-0.2536999999999999,-36.11757948555439
-0.25470000000000004,-36.16002082455034
-0.2556999999999999,-36.20246216354629
-0.25670000000000004,-36.20246216354629
-0.25769999999999993,-36.20246216354629
-0.25870000000000004,-36.244903502542236
-0.25969999999999993,-36.28734484153819
-0.26070000000000004,-36.329786180534136
-0.26169999999999993,-36.37222751953009
-0.26270000000000004,-36.47125731052064
-0.26369999999999993,-36.5136986495166
-0.26470000000000005,-36.5985813275085
-0.26569999999999994,-36.6834640055004
-0.26670000000000005,-36.725905344496354
-0.26769999999999994,-36.8532293614842
-0.26870000000000005,-36.8532293614842
-0.26969999999999994,-36.95225915247476
-0.27070000000000005,-37.037141830466666
-0.27169999999999994,-37.07958316946261
-0.27270000000000005,-37.122024508458566
-0.27369999999999994,-37.206907186450465
-0.27470000000000006,-37.249348525446415
-0.27569999999999995,-37.334231203438314
-0.27670000000000006,-37.376672542434264
-0.27769999999999995,-37.51814367242077
-0.27870000000000006,-37.60302635041268
-0.27969999999999995,-37.687909028404576
-0.28070000000000006,-37.77279170639648
-0.28169999999999995,-37.85767438438838
-0.28270000000000006,-37.90011572338433
-0.28369999999999995,-37.99914551437489
-0.28470000000000006,-37.99914551437489
-0.28569999999999995,-38.04158685337084
-0.28670000000000007,-38.08402819236679
-0.28769999999999996,-38.08402819236679
-0.28870000000000007,-38.16891087035869
-0.28969999999999996,-38.16891087035869
-0.29070000000000007,-38.211352209354644
-0.29169999999999996,-38.29623488734655
-0.29270000000000007,-38.33867622634249
-0.29369999999999996,-38.42355890433439
-0.2947000000000001,-38.5650300343209
-0.29569999999999996,-38.6499127123128
-0.2967000000000001,-38.734795390304704
-0.29769999999999996,-38.81967806829661
-0.2987000000000001,-38.86211940729255
-0.29969999999999997,-38.94700208528445
-0.3007000000000001,-39.046031876275016
-0.30169999999999997,-39.08847321527096
-0.3027000000000001,-39.130914554266916
-0.30369999999999997,-39.173355893262865
-0.3047000000000001,-39.21579723225882
-0.30569999999999997,-39.30067991025072
-0.3067000000000001,-39.34312124924667
-0.3077,-39.47044526623452
-0.3087000000000001,-39.51288660523048
-0.3097,-39.654357735216976
-0.3107000000000001,-39.739240413208876
-0.3117,-39.82412309120078
-0.3127000000000001,-39.90900576919269
-0.3137,-39.95144710818864
-0.3147000000000001,-40.03632978618054
-0.3157,-40.135359577171094
-0.3167000000000001,-40.177800916167044
-0.3177,-40.220242255162994
-0.3187000000000001,-40.26268359415894
-0.3197,-40.34756627215084
-0.3207000000000001,-40.3900076111468
-0.3217,-40.4748902891387
-0.3227000000000001,-40.616361419125205
-0.3237,-40.701244097117105
-0.3247000000000001,-40.78612677510901
-0.3257,-40.91345079209687
-0.3267000000000001,-40.95589213109281
-0.3277,-41.083216148080666
-0.3287000000000001,-41.139804600075266
-0.3297,-41.182245939071215
-0.3307000000000001,-41.267128617063115
-0.3317,-41.30956995605907
-0.3327000000000001,-41.39445263405098
-0.3337,-41.47933531204288
-0.3347000000000001,-41.56421799003478
-0.3357,-41.66324778102533
-0.3367000000000001,-41.74813045901723
-0.3377,-41.87545447600508
-0.3387000000000001,-41.96033715399699
-0.3397,-42.087661170984845
-0.3407000000000001,-42.229132300971344
-0.3417,-42.3564563179592
-0.3427000000000001,-42.4413389959511
-0.3437,-42.526221673943
-0.3447000000000001,-42.6111043519349
-0.3457,-42.71013414292546
-0.3467000000000001,-42.752575481921404
-0.3477,-42.79501682091736
-0.3487000000000001,-42.87989949890926
-0.3497,-43.007223515897124
-0.3507000000000001,-43.09210619388902
-0.3517,-43.23357732387552
-0.3527000000000001,-43.36090134086337
-0.3537,-43.53066669684718
-0.3547000000000001,-43.657990713835034
-0.3557,-43.84190318281749
-0.35670000000000013,-44.011668538801295
-0.3577,-44.181433894785094
-0.35870000000000013,-44.3229050247716
-0.3597,-44.4077877027635
-0.36070000000000013,-44.4926703807554
-0.3617,-44.535111719751356
-0.3626999999999999,-44.66243573673921
-0.3637,-44.80390686672572
-0.3646999999999999,-44.93123088371356
-0.3657,-45.10099623969737
-0.3666999999999999,-45.27076159568118
-0.3677,-45.497115403659585
-0.3686999999999999,-45.70932209863933
-0.36970000000000003,-45.89323456762179
-0.3706999999999999,-46.10544126260155
-0.37170000000000003,-46.2327652795894
-0.3726999999999999,-46.41667774857186
-0.37370000000000003,-46.544001765559706
-0.3746999999999999,-46.67132578254756
-0.37570000000000003,-46.79864979953541
-0.3766999999999999,-46.982562268517874
-0.37770000000000004,-47.15232762450167
-0.3786999999999999,-47.36453431948143
-0.37970000000000004,-47.590888127459834
-0.3806999999999999,-47.76065348344364
-0.38170000000000004,-48.029448630417996
-0.38269999999999993,-48.2840966643937
-0.38370000000000004,-48.59533315036401
-0.38469999999999993,-48.89242252333566
-0.38570000000000004,-49.20365900930597
-0.38669999999999993,-48.89242252333566
-0.38570000000000004,-47.633329466455784
-0.38469999999999993,-46.501560426563756
-0.38370000000000004,-45.53955674265553
-0.38269999999999993,-44.619994397743255
-0.38170000000000004,-43.75702050482558
-0.3806999999999999,-42.92234083790521
-0.37970000000000004,-42.087661170984845
-0.3786999999999999,-41.352011295055014
-0.37770000000000004,-40.65880275812115
-0.3766999999999999,-39.90900576919269
-0.37570000000000003,-39.30067991025072
-0.3746999999999999,-38.692354051308754
-0.37370000000000003,-38.08402819236679
-0.3726999999999999,-37.51814367242077
-0.37170000000000003,-36.95225915247476
-0.3706999999999999,-36.4288159715247
-0.36970000000000003,-35.848784338580025
-0.3686999999999999,-35.282899818634014
-0.3677,-34.717015298688004
-0.3666999999999999,-34.193572117737936
-0.3657,-33.627687597791926
-0.3646999999999999,-33.10424441684186
-0.3637,-32.53835989689585
-0.3626999999999999,-32.01491671594578
-0.3617,-31.49147353499572
-0.36070000000000013,-30.968030354045652
-0.3597,-30.487028512091538
-0.35870000000000013,-30.00602667013743
-0.3577,-29.581613280177915
-0.35670000000000013,-29.100611438223805
-0.3557,-28.662050935265643
-0.3547000000000001,-28.22349043230748
-0.3537,-27.742488590353368
-0.3527000000000001,-27.34636942639116
-0.3517,-26.86536758443705
-0.3507000000000001,-26.38436574248293
-0.3497,-26.002393691519377
-0.3487000000000001,-25.563833188561212
-0.3477,-25.167714024599
-0.3467000000000001,-24.771594860636792
-0.3457,-24.389622809673234
-0.3447000000000001,-24.035944984706973
-0.3437,-23.639825820744765
-0.3427000000000001,-23.24370665678255
-0.3417,-22.861734605818995
-0.3407000000000001,-22.46561544185678
-0.3397,-22.027054938898623
-0.3387000000000001,-21.63093577493641
-0.3377,-21.2065223849769
-0.3367000000000001,-20.810403221014692
-0.3357,-20.371842718056527
-0.3347000000000001,-19.93328221509837
-0.3337,-19.537163051136158
-0.3327000000000001,-19.155191000172596
-0.3317,-18.759071836210385
-0.3307000000000001,-18.40539401124413
-0.3297,-18.009274847281915
-0.3287000000000001,-17.669744135314307
-0.3277,-17.316066310348052
-0.3267000000000001,-16.962388485381787
-0.3257,-16.580416434418233
-0.3247000000000001,-16.184297270456018
-0.3237,-15.74573676749786
-0.3227000000000001,-15.349617603535648
-0.3217,-14.967645552572087
-0.3207000000000001,-14.529085049613924
-0.3197,-14.175407224647667
-0.3187000000000001,-13.784946905884919
-0.3177,-13.436927926118118
-0.3167000000000001,-13.087494235051453
-0.3157,-12.694204493688973
-0.3147000000000001,-12.390041564217992
-0.3137,-12.084463923447142
-0.3127000000000001,-11.73503023238048
-0.3117,-11.42945259160963
-0.3107000000000001,-11.081433611842833
-0.3097,-10.731999920776168
-0.3087000000000001,-10.382566229709504
-0.3077,-10.034547249942705
-0.3067000000000001,-9.685113558876042
-0.30569999999999997,-9.293238528813426
-0.3047000000000001,-8.943804837746763
-0.30369999999999997,-8.594371146680096
-0.3027000000000001,-8.246352166913299
-0.30169999999999997,-7.896918475846635
-0.3007000000000001,-7.591340835075788
-0.29969999999999997,-7.28576319430494
-0.2987000000000001,-7.024041603829907
-0.29769999999999996,-6.6760226240631075
-0.2967000000000001,-6.414301033588076
-0.29569999999999996,-6.108723392817228
-0.2947000000000001,-5.759289701750564
-0.29369999999999996,-5.453712060979717
-0.29270000000000007,-5.105693081212917
-0.29169999999999996,-4.800115440442069
-0.29070000000000007,-4.450681749375406
-0.28969999999999996,-4.146518819904423
-0.28870000000000007,-3.7970851288377587
-0.28769999999999996,-3.4915074880669104
-0.28670000000000007,-3.1859298472960624
-0.28569999999999995,-2.924208256821031
-0.28470000000000006,-2.618630616050183
-0.28369999999999995,-2.3569090255751513
-0.28270000000000006,-2.095187435100119
-0.28169999999999995,-1.8334658446250875
-0.28070000000000006,-1.5717442541500557
-0.27969999999999995,-1.2234423321232837
-0.27870000000000006,-0.9617207416482519
-0.27769999999999995,-0.6564260431373771
-0.27670000000000006,-0.3511313446265021
-0.27569999999999995,-0.002205534916489592
-0.27470000000000006,0.2594580523952477
-0.27369999999999994,0.5647527509061226
-0.27270000000000005,0.8264743413811545
-0.27169999999999994,1.0881959318561862
-0.27070000000000005,1.349917522331218
-0.26969999999999994,1.5675001202504606
-0.26870000000000005,1.8292217107254924
-0.26769999999999994,2.048501962204573
-0.26670000000000005,2.352664891675556
