Potential V vs RHE, Current mA cm-2
0.05339999999999995,-0.032425182992906636
0.05239999999999995,-0.033698423162785165
0.051399999999999946,-0.03420771923073659
0.050399999999999945,-0.034617985507697444
0.049399999999999944,-0.03498581044566235
0.04839999999999994,-0.035297046931632665
0.04739999999999994,-0.035650724756598924
0.04639999999999994,-0.03599025546856653
0.04539999999999994,-0.03632978618053414
0.04439999999999994,-0.03669761111849905
0.04339999999999994,-0.03700884760446936
0.04239999999999994,-0.03734837831643697
0.04139999999999994,-0.037673761915405925
0.040399999999999936,-0.03799914551437489
0.039399999999999935,-0.0383669704523398
0.038399999999999934,-0.03866405982531145
0.03739999999999993,-0.03897529631128176
0.03639999999999993,-0.039314827023249364
0.03539999999999993,-0.03965435773521698
0.03439999999999993,-0.04002218267318189
0.03339999999999993,-0.040347566272150845
0.03239999999999993,-0.04065880275812116
0.03139999999999993,-0.04097003924409146
0.030399999999999927,-0.04132371706905772
0.029399999999999926,-0.04167739489402397
0.028399999999999925,-0.042016925605991594
0.027399999999999924,-0.04231401497896324
0.026399999999999924,-0.042667692803929506
0.025399999999999923,-0.04303551774189441
0.024399999999999922,-0.043389195566860675
0.02339999999999992,-0.043757020504825585
0.02239999999999992,-0.04406825699079589
0.02139999999999992,-0.0444077877027635
0.020399999999999918,-0.04478975975372706
0.019399999999999917,-0.04517173180469062
0.018399999999999916,-0.04549711540365958
0.017399999999999916,-0.04583664611562719
0.016399999999999915,-0.0461761768275948
0.015399999999999914,-0.04655814887855836
0.014399999999999913,-0.04694012092952192
0.013399999999999912,-0.04732209298048548
0.012399999999999911,-0.04767577080545173
0.01139999999999991,-0.04804359574341665
0.01039999999999991,-0.0484538620203775
0.009399999999999908,-0.04883583407134107
0.008399999999999908,-0.049189511896307325
0.007399999999999907,-0.049571483947270886
0.006399999999999906,-0.049925161772237145
0.005399999999999905,-0.0503071338232007
0.004399999999999904,-0.050731547213160214
0.003399999999999903,-0.051113519264123775
0.002399999999999902,-0.051481344202088684
0.0013999999999999013,-0.051863316253052245
0.00039999999999990044,-0.05225943541701446
-0.0006000000000001005,-0.052683848806973965
-0.0016000000000001013,-0.05307996797093617
-0.0026000000000001022,-0.05346194002189974
-0.003600000000000103,-0.0538439120728633
-0.004600000000000104,-0.054268325462822814
-0.005600000000000105,-0.05469273885278232
-0.006600000000000106,-0.055074710903745876
-0.007600000000000107,-0.05545668295470944
-0.008600000000000108,-0.05585280211867165
-0.009600000000000108,-0.05626306839563251
-0.01060000000000011,-0.05671577601158932
-0.01160000000000011,-0.057126042288550186
-0.012600000000000111,-0.05755045567850969
-0.013600000000000112,-0.05796072195547055
-0.014600000000000113,-0.05837098823243141
-0.015600000000000114,-0.05878125450939227
-0.016600000000000115,-0.05920566789935178
-0.017600000000000116,-0.059573492837316694
-0.018600000000000116,-0.0599979062272762
-0.019600000000000117,-0.060422319617235716
-0.020600000000000118,-0.060846733007195224
-0.02160000000000012,-0.06127114639715474
-0.02260000000000012,-0.06169555978711426
-0.02360000000000012,-0.062134120290072405
-0.024600000000000122,-0.06257268079303058
-0.025600000000000123,-0.06302538840898737
-0.026600000000000124,-0.06346394891194555
-0.027600000000000124,-0.06388836230190505
-0.028600000000000125,-0.06432692280486321
-0.029600000000000126,-0.06479377753381868
-0.030600000000000127,-0.06523233803677685
-0.03160000000000013,-0.06568504565273366
-0.03260000000000013,-0.06612360615569181
-0.03360000000000013,-0.06654801954565133
-0.03460000000000002,-0.0669865800486095
-0.03560000000000002,-0.06745343477756495
-0.03660000000000002,-0.06789199528052312
-0.03760000000000002,-0.06834470289647993
-0.03860000000000002,-0.06878326339943809
-0.039600000000000024,-0.06922182390239626
-0.040600000000000025,-0.0696886786313517
-0.041600000000000026,-0.07014138624730852
-0.04260000000000003,-0.07059409386326533
-0.04360000000000003,-0.07104680147922215
-0.04460000000000003,-0.07149950909517895
-0.04560000000000003,-0.07199465805013172
-0.04660000000000003,-0.07241907144009123
-0.04760000000000003,-0.07285763194304938
-0.04860000000000003,-0.0733103395590062
-0.04960000000000003,-0.07376304717496303
-0.050600000000000034,-0.07422990190391847
-0.051600000000000035,-0.07469675663287394
-0.052600000000000036,-0.0751070229098348
-0.053600000000000037,-0.07558802475178891
-0.05460000000000004,-0.07604073236774572
-0.05560000000000004,-0.07649343998370253
-0.05660000000000004,-0.07694614759965934
-0.05760000000000004,-0.07737056098961885
-0.05860000000000004,-0.07783741571857432
-0.05960000000000004,-0.07830427044752979
-0.06060000000000004,-0.0787852722894839
-0.061600000000000044,-0.07922383279244205
-0.06260000000000004,-0.07966239329540022
-0.06360000000000005,-0.08008680668535972
-0.06460000000000005,-0.08053951430131655
-0.06560000000000005,-0.081006369030272
-0.06660000000000005,-0.08145907664622881
-0.06760000000000005,-0.08189763714918698
-0.06860000000000005,-0.08232205053914649
-0.06960000000000005,-0.08277475815510331
-0.07060000000000005,-0.08322746577106012
-0.07160000000000005,-0.08360943782202368
-0.07260000000000005,-0.08400555698598587
-0.07360000000000005,-0.08441582326294673
-0.07460000000000006,-0.08484023665290626
-0.07560000000000006,-0.08530709138186171
-0.07660000000000006,-0.08570321054582393
-0.07760000000000006,-0.08614177104878207
-0.07860000000000006,-0.08655203732574294
-0.07960000000000006,-0.08696230360270381
-0.08060000000000006,-0.08738671699266332
-0.08160000000000006,-0.08775454193062822
-0.08260000000000006,-0.08813651398159178
-0.08360000000000006,-0.088532633145554
-0.08460000000000006,-0.08892875230951619
-0.08560000000000006,-0.08936731281247437
-0.08660000000000007,-0.08974928486343793
-0.08760000000000007,-0.09013125691440148
-0.08860000000000007,-0.09052737607836371
-0.08960000000000007,-0.0909234952423259
-0.09060000000000007,-0.09131961440628812
-0.09160000000000007,-0.09168743934425302
-0.09260000000000007,-0.09202697005622064
-0.09360000000000007,-0.09239479499418554
-0.09460000000000007,-0.0927767670451491
-0.09560000000000007,-0.09315873909611266
-0.09660000000000007,-0.09352656403407757
-0.09760000000000008,-0.09386609474604518
-0.09860000000000008,-0.09421977257101144
-0.09960000000000008,-0.09455930328297905
-0.10060000000000008,-0.09489883399494665
-0.10160000000000008,-0.09525251181991291
-0.10260000000000008,-0.09556374830588323
-0.10360000000000008,-0.09588913190485218
-0.10460000000000008,-0.09621451550382115
-0.10560000000000008,-0.09656819332878741
-0.10660000000000008,-0.09685113558876042
-0.10760000000000008,-0.09714822496173206
-0.10860000000000009,-0.09744531433470371
-0.10960000000000009,-0.09772825659467674
-0.11060000000000009,-0.09803949308064704
-0.11160000000000009,-0.0983365824536187
-0.11260000000000009,-0.09861952471359171
-0.11360000000000009,-0.09887417274756742
-0.11460000000000009,-0.09915711500754042
-0.11560000000000009,-0.09945420438051207
-0.11660000000000009,-0.09970885241448779
-0.1176000000000001,-0.09992105910946754
-0.1186000000000001,-0.10018985425644189
-0.1196000000000001,-0.10043035517741895
-0.1206000000000001,-0.10069915032439332
-0.1216000000000001,-0.10092550413237171
-0.1226000000000001,-0.10113771082735147
-0.1236000000000001,-0.10136406463532988
-0.1246000000000001,-0.10156212421731098
-0.1256000000000001,-0.1017884780252894
-0.1266000000000001,-0.10200068472026914
-0.1276000000000001,-0.10217045007625294
-0.1286000000000001,-0.10235436254523542
-0.1296000000000001,-0.10253827501421786
-0.1306000000000001,-0.10273633459619896
-0.1316000000000001,-0.10292024706518142
-0.1326000000000001,-0.10304757108216928
-0.1336000000000001,-0.10323148355115172
-0.1346000000000001,-0.10337295468113822
-0.1356000000000001,-0.10354272003712203
-0.1366000000000001,-0.1036983382801072
-0.1376000000000001,-0.10382566229709504
-0.1386000000000001,-0.1039529863140829
-0.1396000000000001,-0.1040944574440694
-0.1406000000000001,-0.10425007568705455
-0.14160000000000011,-0.1043491054780451
-0.14260000000000012,-0.10444813526903567
-0.14360000000000012,-0.10451887083402892
-0.14460000000000012,-0.10463204773801811
-0.14560000000000012,-0.1047452246420073
-0.14660000000000012,-0.10484425443299787
-0.14760000000000012,-0.10490084288499248
-0.14860000000000012,-0.10497157844998573
-0.14960000000000012,-0.10504231401497897
-0.15060000000000012,-0.10514134380596953
-0.15160000000000012,-0.10519793225796412
-0.15260000000000012,-0.10525452070995873
-0.15360000000000013,-0.10531110916195333
-0.15460000000000013,-0.10533940338795064
-0.15560000000000013,-0.10542428606594254
-0.15660000000000013,-0.10546672740493848
-0.15760000000000013,-0.10549502163093578
-0.15860000000000013,-0.10552331585693309
-0.15960000000000002,-0.10553746296993173
-0.16060000000000002,-0.10557990430892769
-0.16160000000000002,-0.10557990430892769
-0.16260000000000002,-0.10556575719592905
-0.16360000000000002,-0.10557990430892769
-0.16460000000000002,-0.10559405142192634
-0.16560000000000002,-0.10562234564792364
-0.16660000000000003,-0.10567893409991824
-0.16760000000000003,-0.10562234564792364
-0.16860000000000003,-0.10559405142192634
-0.16960000000000003,-0.10556575719592905
-0.17060000000000003,-0.10555161008293039
-0.17160000000000003,-0.10553746296993173
-0.17260000000000003,-0.10548087451793714
-0.17360000000000003,-0.10545258029193984
-0.17460000000000003,-0.10541013895294389
-0.17560000000000003,-0.10536769761394793
-0.17660000000000003,-0.10533940338795064
-0.17760000000000004,-0.10526866782295738
-0.17860000000000004,-0.10522622648396143
-0.17960000000000004,-0.10515549091896817
-0.18060000000000004,-0.10512719669297087
-0.18160000000000004,-0.10507060824097628
-0.18260000000000004,-0.10498572556298437
-0.18360000000000004,-0.10491498999799112
-0.18460000000000004,-0.10484425443299787
-0.18560000000000004,-0.10477351886800461
-0.18660000000000004,-0.10470278330301136
-0.18760000000000004,-0.10463204773801811
-0.18860000000000005,-0.10453301794702756
-0.18960000000000005,-0.10446228238203431
-0.19060000000000005,-0.10437739970404242
-0.19160000000000005,-0.1043208112520478
-0.19260000000000005,-0.10422178146105725
-0.19360000000000005,-0.10413689878306535
-0.19460000000000005,-0.10402372187907614
-0.19560000000000005,-0.10396713342708154
-0.19660000000000005,-0.10388225074908965
-0.19760000000000005,-0.10378322095809908
-0.19860000000000005,-0.10365589694111124
-0.19960000000000006,-0.10354272003712203
-0.20060000000000006,-0.10345783735913014
-0.20160000000000006,-0.10335880756813957
-0.20260000000000006,-0.10323148355115172
-0.20360000000000006,-0.10316074798615847
-0.20460000000000006,-0.10304757108216928
-0.20560000000000006,-0.10296268840417737
-0.20660000000000006,-0.10286365861318682
-0.20760000000000006,-0.1027221874832003
-0.20860000000000006,-0.10260901057921111
-0.20960000000000006,-0.10249583367522191
-0.21060000000000006,-0.10243924522322731
-0.21160000000000007,-0.1023826567712327
-0.21260000000000007,-0.10222703852824755
-0.21360000000000007,-0.10209971451125968
-0.21460000000000007,-0.10198653760727049
-0.21560000000000007,-0.10188750781627993
-0.21660000000000007,-0.1017884780252894
-0.21760000000000007,-0.10167530112130019
-0.21860000000000007,-0.10154797710431233
-0.21960000000000007,-0.10143480020032314
-0.22060000000000007,-0.10133577040933257
-0.22160000000000007,-0.10122259350534336
-0.22260000000000008,-0.10109526948835552
-0.22360000000000008,-0.10098209258436633
-0.22460000000000008,-0.10086891568037712
-0.22560000000000008,-0.10076988588938657
-0.22660000000000008,-0.10065670898539736
-0.22760000000000008,-0.10052938496840952
-0.22860000000000008,-0.10041620806442031
-0.22960000000000008,-0.10030303116043109
-0.23060000000000008,-0.10023229559543784
-0.23160000000000008,-0.10011911869144864
-0.23260000000000008,-0.0999917946744608
-0.23360000000000009,-0.09986447065747293
-0.2346000000000001,-0.09975129375348374
-0.2356000000000001,-0.09968055818849049
-0.2366000000000001,-0.09955323417150262
-0.2376000000000001,-0.09942591015451478
-0.2386000000000001,-0.09931273325052556
-0.2396000000000001,-0.09921370345953502
-0.2406000000000001,-0.09912882078154311
-0.2416000000000001,-0.09902979099055256
-0.2426000000000001,-0.09891661408656337
-0.2436000000000001,-0.0988175842955728
-0.2446000000000001,-0.09869026027858496
-0.2456000000000001,-0.09860537760059306
-0.2466000000000001,-0.09852049492260115
-0.2476000000000001,-0.09839317090561331
-0.2486000000000001,-0.09832243534062005
-0.2496000000000001,-0.09820925843663084
-0.2506000000000001,-0.09812437575863896
-0.2516000000000001,-0.09802534596764839
-0.2526000000000001,-0.09792631617665784
-0.2536000000000001,-0.09782728638566728
-0.2546000000000001,-0.09771410948167808
-0.2556000000000001,-0.09767166814268213
-0.2566000000000001,-0.09760093257768888
-0.2576000000000001,-0.09747360856070103
-0.2586000000000001,-0.09738872588270912
-0.2596000000000001,-0.09730384320471722
-0.2606000000000001,-0.09721896052672531
-0.2616000000000001,-0.09717651918772936
-0.2626000000000001,-0.09707748939673881
-0.2636000000000001,-0.09697845960574826
-0.2646000000000001,-0.09689357692775637
-0.2656000000000001,-0.09683698847576175
-0.2666000000000001,-0.09678040002376717
-0.2676000000000001,-0.09670966445877392
-0.2686000000000001,-0.096624781780782
-0.2696000000000001,-0.09655404621578875
-0.2706000000000001,-0.09649745776379416
-0.2716000000000001,-0.0964267221988009
-0.2726000000000001,-0.09635598663380765
-0.2736000000000001,-0.0962852510688144
-0.2746000000000001,-0.09621451550382115
-0.2756000000000001,-0.09617207416482519
-0.2766000000000001,-0.09612963282582924
-0.2776000000000001,-0.09604475014783734
-0.2786000000000001,-0.09597401458284409
-0.2796000000000001,-0.09588913190485218
-0.2806000000000001,-0.09587498479185352
-0.28160000000000013,-0.09583254345285759
-0.28260000000000013,-0.09576180788786433
-0.28360000000000013,-0.09570521943586972
-0.2846,-0.09563448387087647
-0.2856,-0.09563448387087647
-0.2866,-0.09559204253188053
-0.2876,-0.09554960119288458
-0.2886,-0.09549301274088996
-0.2896,-0.09540813006289808
-0.2906,-0.09542227717589671
-0.2916,-0.09539398294989941
-0.2926,-0.09533739449790483
-0.2936,-0.09532324738490616
-0.29460000000000003,-0.09528080604591022
-0.29560000000000003,-0.09525251181991291
-0.29660000000000003,-0.09525251181991291
-0.29760000000000003,-0.09521007048091697
-0.29860000000000003,-0.09518177625491966
-0.29960000000000003,-0.09515348202892236
-0.30060000000000003,-0.09513933491592372
-0.30160000000000003,-0.09512518780292507
-0.30260000000000004,-0.0951110406899264
-0.30360000000000004,-0.09508274646392911
-0.30460000000000004,-0.09505445223793182
-0.30560000000000004,-0.09505445223793182
-0.30660000000000004,-0.09508274646392911
-0.30760000000000004,-0.09508274646392911
-0.30860000000000004,-0.09505445223793182
-0.30960000000000004,-0.09505445223793182
-0.31060000000000004,-0.09505445223793182
-0.31160000000000004,-0.09505445223793182
-0.31260000000000004,-0.09505445223793182
-0.31360000000000005,-0.09505445223793182
-0.31460000000000005,-0.09504030512493315
-0.31560000000000005,-0.09508274646392911
-0.31660000000000005,-0.0951110406899264
-0.31760000000000005,-0.0951110406899264
-0.31860000000000005,-0.09513933491592372
-0.31960000000000005,-0.09515348202892236
-0.32060000000000005,-0.09515348202892236
-0.32160000000000005,-0.09518177625491966
-0.32260000000000005,-0.09521007048091697
-0.32360000000000005,-0.09522421759391562
-0.32460000000000006,-0.09521007048091697
-0.32560000000000006,-0.09526665893291157
-0.32660000000000006,-0.09532324738490616
-0.32760000000000006,-0.09532324738490616
-0.32860000000000006,-0.09536568872390214
-0.32960000000000006,-0.09536568872390214
-0.33060000000000006,-0.09543642428889539
-0.33160000000000006,-0.09550715985388863
-0.33260000000000006,-0.09553545407988592
-0.33360000000000006,-0.09559204253188053
-0.33460000000000006,-0.09560618964487919
-0.33560000000000006,-0.09564863098387513
-0.33660000000000007,-0.09574766077486568
-0.33760000000000007,-0.09577595500086299
-0.33860000000000007,-0.09583254345285759
-0.33960000000000007,-0.09587498479185352
-0.34060000000000007,-0.09594572035684679
-0.34160000000000007,-0.09604475014783734
-0.34260000000000007,-0.09607304437383464
-0.34360000000000007,-0.09612963282582924
-0.3446000000000001,-0.0962003683908225
-0.3456000000000001,-0.09627110395581574
-0.3466000000000001,-0.09637013374680631
-0.34759999999999996,-0.09645501642479819
-0.3486000000000001,-0.0965116048767928
-0.34959999999999997,-0.09656819332878741
-0.3506000000000001,-0.0966530760067793
-0.35159999999999997,-0.09678040002376717
-0.3526000000000001,-0.09685113558876042
-0.35359999999999997,-0.09692187115375367
-0.3546000000000001,-0.0970209009447442
-0.35559999999999997,-0.09714822496173206
-0.3566000000000001,-0.09726140186572127
-0.3576,-0.09736043165671183
-0.3586000000000001,-0.09747360856070103
-0.3596,-0.09754434412569428
-0.3606000000000001,-0.09768581525568078
-0.3616,-0.09775655082067403
-0.3626000000000001,-0.0978838748376619
-0.3636,-0.09798290462865245
-0.3646000000000001,-0.09809608153264164
-0.3656,-0.0981951113236322
-0.3666000000000001,-0.09832243534062005
-0.3676,-0.09843561224460926
-0.3686000000000001,-0.09856293626159711
-0.3696,-0.0986761131655863
-0.3706000000000001,-0.09884587852157012
-0.3716,-0.09901564387755392
-0.3726000000000001,-0.09912882078154311
-0.3736,-0.09927029191152963
-0.3746000000000001,-0.09938346881551882
-0.3756,-0.0995673812845013
-0.3766000000000001,-0.09973714664048508
-0.3776,-0.09987861777047159
-0.3786000000000001,-0.10002008890045809
-0.3796,-0.10018985425644189
-0.3806000000000001,-0.10034547249942705
-0.3816,-0.10055767919440682
-0.3826000000000001,-0.10069915032439332
-0.3836,-0.10086891568037712
-0.3846000000000001,-0.10103868103636092
-0.3856,-0.10123674061834202
-0.3866000000000001,-0.10147724153931909
-0.3876,-0.10164700689530289
-0.3886000000000001,-0.10180262513828804
-0.3896,-0.10198653760727049
-0.3906000000000001,-0.1021845971892516
-0.3916,-0.1023826567712327
-0.3926000000000001,-0.10256656924021516
-0.3936,-0.10275048170919761
-0.3946000000000001,-0.10294854129117871
-0.3956,-0.10316074798615847
-0.3966000000000001,-0.10338710179413689
-0.3976,-0.10359930848911664
-0.3986000000000001,-0.10378322095809908
-0.3996,-0.10396713342708154
-0.4006000000000001,-0.1042076343480586
-0.4016,-0.10444813526903567
-0.4026000000000001,-0.10467448907701406
-0.4036,-0.10491498999799112
-0.4046000000000001,-0.10512719669297087
-0.4056,-0.10538184472694657
-0.40660000000000013,-0.10565063987392094
-0.4076,-0.105891140794898
-0.40860000000000013,-0.1061457888288737
-0.4096,-0.1063721426368521
-0.41060000000000013,-0.10662679067082782
-0.4116,-0.10692388004379948
-0.41260000000000013,-0.10719267519077383
-0.4136,-0.10744732322474954
-0.41460000000000014,-0.10770197125872524
-0.4156,-0.10795661929270095
-0.41660000000000014,-0.10825370866567262
-0.4176,-0.10850835669964831
-0.41860000000000014,-0.10879129895962131
-0.41960000000000003,-0.10908838833259296
-0.42060000000000014,-0.10937133059256597
-0.42160000000000003,-0.1096825670785363
-0.42260000000000014,-0.10995136222551065
-0.42360000000000003,-0.11020601025948636
-0.42460000000000014,-0.11054554097145397
-0.42560000000000003,-0.11085677745742427
-0.42660000000000015,-0.11116801394339458
-0.42760000000000004,-0.11145095620336758
-0.42860000000000015,-0.11171975135034196
-0.42960000000000004,-0.1119885464973163
-0.43060000000000015,-0.11229978298328659
-0.43160000000000004,-0.1126393136952542
-0.43260000000000015,-0.11293640306822587
-0.43360000000000004,-0.11323349244119754
-0.43460000000000015,-0.11354472892716785
-0.43560000000000004,-0.11387011252613681
