Mar. 30, 2025   01:41:12
Cyclic Voltammetry
File: c:/users/guazh/data/banditlqround7_x0exp518_r20/2025-03-28-exp985\exp985-2025-03-30t01_36_15-arkoh\exp985_cv_50mvs_efin_-1400mv.bin
Data Source:  Experiment
Instrument Model:  CHI760E
Header: CV ran at 50 mVs
Note: 

Init E (V) = -1
High E (V) = -1
Low E (V) = -1.4
Final E (V) = -1
Init P/N = N
Scan Rate (V/s) = 0.05
Segment = 7
Sample Interval (V) = 0.001
Quiet Time (sec) = 60
Sensitivity (A/V) = 0.001
Comp R (ohm) = 1.8

Results:

Channel 1:
Segment 1:

Segment 2:

Segment 3:

Segment 4:

Segment 5:

Segment 6:

Segment 7:

Potential/V, Current/A

-1.000, 5.266e-7
-1.001, 5.533e-7
-1.002, 5.918e-7
-1.003, 6.056e-7
-1.004, 6.223e-7
-1.005, 6.480e-7
-1.006, 6.460e-7
-1.007, 6.687e-7
-1.008, 6.855e-7
-1.009, 6.855e-7
-1.010, 7.003e-7
-1.011, 7.328e-7
-1.012, 7.358e-7
-1.013, 7.437e-7
-1.014, 7.565e-7
-1.015, 7.634e-7
-1.016, 7.693e-7
-1.017, 7.763e-7
-1.018, 7.960e-7
-1.019, 7.920e-7
-1.020, 8.098e-7
-1.021, 8.197e-7
-1.022, 8.226e-7
-1.023, 8.236e-7
-1.024, 8.325e-7
-1.025, 8.641e-7
-1.026, 8.611e-7
-1.027, 8.522e-7
-1.028, 8.660e-7
-1.029, 8.670e-7
-1.030, 9.183e-7
-1.031, 8.986e-7
-1.032, 9.016e-7
-1.033, 9.035e-7
-1.034, 9.262e-7
-1.035, 9.272e-7
-1.036, 9.292e-7
-1.037, 9.262e-7
-1.038, 9.292e-7
-1.039, 9.548e-7
-1.040, 9.657e-7
-1.041, 9.667e-7
-1.042, 9.765e-7
-1.043, 9.795e-7
-1.044, 1.004e-6
-1.045, 1.006e-6
-1.046, 1.009e-6
-1.047, 1.021e-6
-1.048, 1.018e-6
-1.049, 1.029e-6
-1.050, 1.049e-6
-1.051, 1.046e-6
-1.052, 1.054e-6
-1.053, 1.053e-6
-1.054, 1.074e-6
-1.055, 1.086e-6
-1.056, 1.092e-6
-1.057, 1.101e-6
-1.058, 1.088e-6
-1.059, 1.126e-6
-1.060, 1.123e-6
-1.061, 1.137e-6
-1.062, 1.133e-6
-1.063, 1.153e-6
-1.064, 1.166e-6
-1.065, 1.171e-6
-1.066, 1.184e-6
-1.067, 1.189e-6
-1.068, 1.187e-6
-1.069, 1.203e-6
-1.070, 1.208e-6
-1.071, 1.225e-6
-1.072, 1.217e-6
-1.073, 1.231e-6
-1.074, 1.255e-6
-1.075, 1.276e-6
-1.076, 1.277e-6
-1.077, 1.290e-6
-1.078, 1.285e-6
-1.079, 1.309e-6
-1.080, 1.328e-6
-1.081, 1.328e-6
-1.082, 1.328e-6
-1.083, 1.339e-6
-1.084, 1.356e-6
-1.085, 1.362e-6
-1.086, 1.374e-6
-1.087, 1.403e-6
-1.088, 1.396e-6
-1.089, 1.415e-6
-1.090, 1.418e-6
-1.091, 1.420e-6
-1.092, 1.443e-6
-1.093, 1.455e-6
-1.094, 1.467e-6
-1.095, 1.499e-6
-1.096, 1.477e-6
-1.097, 1.489e-6
-1.098, 1.514e-6
-1.099, 1.524e-6
-1.100, 1.547e-6
-1.101, 1.558e-6
-1.102, 1.585e-6
-1.103, 1.589e-6
-1.104, 1.589e-6
-1.105, 1.613e-6
-1.106, 1.615e-6
-1.107, 1.638e-6
-1.108, 1.658e-6
-1.109, 1.683e-6
-1.110, 1.687e-6
-1.111, 1.711e-6
-1.112, 1.716e-6
-1.113, 1.731e-6
-1.114, 1.741e-6
-1.115, 1.760e-6
-1.116, 1.774e-6
-1.117, 1.792e-6
-1.118, 1.815e-6
-1.119, 1.827e-6
-1.120, 1.827e-6
-1.121, 1.849e-6
-1.122, 1.866e-6
-1.123, 1.873e-6
-1.124, 1.887e-6
-1.125, 1.915e-6
-1.126, 1.923e-6
-1.127, 1.960e-6
-1.128, 1.987e-6
-1.129, 1.994e-6
-1.130, 2.009e-6
-1.131, 2.021e-6
-1.132, 2.030e-6
-1.133, 2.048e-6
-1.134, 2.076e-6
-1.135, 2.099e-6
-1.136, 2.100e-6
-1.137, 2.107e-6
-1.138, 2.130e-6
-1.139, 2.153e-6
-1.140, 2.189e-6
-1.141, 2.185e-6
-1.142, 2.193e-6
-1.143, 2.221e-6
-1.144, 2.243e-6
-1.145, 2.259e-6
-1.146, 2.272e-6
-1.147, 2.276e-6
-1.148, 2.300e-6
-1.149, 2.326e-6
-1.150, 2.343e-6
-1.151, 2.353e-6
-1.152, 2.376e-6
-1.153, 2.388e-6
-1.154, 2.408e-6
-1.155, 2.444e-6
-1.156, 2.453e-6
-1.157, 2.450e-6
-1.158, 2.478e-6
-1.159, 2.513e-6
-1.160, 2.517e-6
-1.161, 2.516e-6
-1.162, 2.533e-6
-1.163, 2.536e-6
-1.164, 2.559e-6
-1.165, 2.582e-6
-1.166, 2.586e-6
-1.167, 2.601e-6
-1.168, 2.636e-6
-1.169, 2.622e-6
-1.170, 2.639e-6
-1.171, 2.651e-6
-1.172, 2.670e-6
-1.173, 2.670e-6
-1.174, 2.685e-6
-1.175, 2.719e-6
-1.176, 2.702e-6
-1.177, 2.730e-6
-1.178, 2.728e-6
-1.179, 2.733e-6
-1.180, 2.758e-6
-1.181, 2.759e-6
-1.182, 2.786e-6
-1.183, 2.790e-6
-1.184, 2.810e-6
-1.185, 2.832e-6
-1.186, 2.859e-6
-1.187, 2.817e-6
-1.188, 2.830e-6
-1.189, 2.830e-6
-1.190, 2.860e-6
-1.191, 2.848e-6
-1.192, 2.860e-6
-1.193, 2.864e-6
-1.194, 2.860e-6
-1.195, 2.890e-6
-1.196, 2.874e-6
-1.197, 2.876e-6
-1.198, 2.907e-6
-1.199, 2.899e-6
-1.200, 2.903e-6
-1.201, 2.906e-6
-1.202, 2.907e-6
-1.203, 2.920e-6
-1.204, 2.931e-6
-1.205, 2.920e-6
-1.206, 2.918e-6
-1.207, 2.937e-6
-1.208, 2.947e-6
-1.209, 2.928e-6
-1.210, 2.962e-6
-1.211, 2.958e-6
-1.212, 2.955e-6
-1.213, 2.975e-6
-1.214, 2.981e-6
-1.215, 2.984e-6
-1.216, 2.988e-6
-1.217, 2.988e-6
-1.218, 3.009e-6
-1.219, 3.008e-6
-1.220, 3.020e-6
-1.221, 3.017e-6
-1.222, 3.020e-6
-1.223, 3.008e-6
-1.224, 3.011e-6
-1.225, 3.047e-6
-1.226, 3.064e-6
-1.227, 3.046e-6
-1.228, 3.039e-6
-1.229, 3.093e-6
-1.230, 3.099e-6
-1.231, 3.103e-6
-1.232, 3.093e-6
-1.233, 3.105e-6
-1.234, 3.129e-6
-1.235, 3.180e-6
-1.236, 3.208e-6
-1.237, 3.224e-6
-1.238, 3.242e-6
-1.239, 3.284e-6
-1.240, 3.291e-6
-1.241, 3.317e-6
-1.242, 3.349e-6
-1.243, 3.366e-6
-1.244, 3.389e-6
-1.245, 3.405e-6
-1.246, 3.433e-6
-1.247, 3.467e-6
-1.248, 3.477e-6
-1.249, 3.519e-6
-1.250, 3.542e-6
-1.251, 3.553e-6
-1.252, 3.576e-6
-1.253, 3.536e-6
-1.254, 3.540e-6
-1.255, 3.537e-6
-1.256, 3.557e-6
-1.257, 3.552e-6
-1.258, 3.600e-6
-1.259, 3.623e-6
-1.260, 3.663e-6
-1.261, 3.654e-6
-1.262, 3.680e-6
-1.263, 3.682e-6
-1.264, 3.712e-6
-1.265, 3.765e-6
-1.266, 3.768e-6
-1.267, 3.778e-6
-1.268, 3.805e-6
-1.269, 3.819e-6
-1.270, 3.868e-6
-1.271, 3.852e-6
-1.272, 3.916e-6
-1.273, 3.902e-6
-1.274, 3.894e-6
-1.275, 3.926e-6
-1.276, 3.941e-6
-1.277, 3.907e-6
-1.278, 3.956e-6
-1.279, 3.960e-6
-1.280, 3.979e-6
-1.281, 3.997e-6
-1.282, 4.025e-6
-1.283, 4.046e-6
-1.284, 4.061e-6
-1.285, 4.045e-6
-1.286, 4.090e-6
-1.287, 4.107e-6
-1.288, 4.068e-6
-1.289, 4.108e-6
-1.290, 4.112e-6
-1.291, 4.148e-6
-1.292, 4.146e-6
-1.293, 4.148e-6
-1.294, 4.171e-6
-1.295, 4.207e-6
-1.296, 4.225e-6
-1.297, 4.221e-6
-1.298, 4.234e-6
-1.299, 4.267e-6
-1.300, 4.255e-6
-1.301, 4.286e-6
-1.302, 4.319e-6
-1.303, 4.305e-6
-1.304, 4.307e-6
-1.305, 4.322e-6
-1.306, 4.322e-6
-1.307, 4.334e-6
-1.308, 4.387e-6
-1.309, 4.372e-6
-1.310, 4.372e-6
-1.311, 4.384e-6
-1.312, 4.405e-6
-1.313, 4.368e-6
-1.314, 4.323e-6
-1.315, 4.343e-6
-1.316, 4.339e-6
-1.317, 4.346e-6
-1.318, 4.365e-6
-1.319, 4.389e-6
-1.320, 4.383e-6
-1.321, 4.393e-6
-1.322, 4.406e-6
-1.323, 4.398e-6
-1.324, 4.430e-6
-1.325, 4.471e-6
-1.326, 4.477e-6
-1.327, 4.460e-6
-1.328, 4.418e-6
-1.329, 4.463e-6
-1.330, 4.529e-6
-1.331, 4.614e-6
-1.332, 4.625e-6
-1.333, 4.580e-6
-1.334, 4.580e-6
-1.335, 4.590e-6
-1.336, 4.564e-6
-1.337, 4.586e-6
-1.338, 4.570e-6
-1.339, 4.559e-6
-1.340, 4.560e-6
-1.341, 4.537e-6
-1.342, 4.562e-6
-1.343, 4.540e-6
-1.344, 4.578e-6
-1.345, 4.566e-6
-1.346, 4.595e-6
-1.347, 4.596e-6
-1.348, 4.559e-6
-1.349, 4.551e-6
-1.350, 4.550e-6
-1.351, 4.544e-6
-1.352, 4.526e-6
-1.353, 4.541e-6
-1.354, 4.537e-6
-1.355, 4.557e-6
-1.356, 4.552e-6
-1.357, 4.550e-6
-1.358, 4.560e-6
-1.359, 4.596e-6
-1.360, 4.617e-6
-1.361, 4.659e-6
-1.362, 4.663e-6
-1.363, 4.669e-6
-1.364, 4.697e-6
-1.365, 4.692e-6
-1.366, 4.681e-6
-1.367, 4.705e-6
-1.368, 4.725e-6
-1.369, 4.768e-6
-1.370, 4.764e-6
-1.371, 4.727e-6
-1.372, 4.723e-6
-1.373, 4.686e-6
-1.374, 4.668e-6
-1.375, 4.664e-6
-1.376, 4.641e-6
-1.377, 4.602e-6
-1.378, 4.611e-6
-1.379, 4.582e-6
-1.380, 4.596e-6
-1.381, 4.569e-6
-1.382, 4.506e-6
-1.383, 4.492e-6
-1.384, 4.486e-6
-1.385, 4.473e-6
-1.386, 4.474e-6
-1.387, 4.496e-6
-1.388, 4.539e-6
-1.389, 4.540e-6
-1.390, 4.512e-6
-1.391, 4.483e-6
-1.392, 4.470e-6
-1.393, 4.455e-6
-1.394, 4.514e-6
-1.395, 4.535e-6
-1.396, 4.604e-6
-1.397, 4.614e-6
-1.398, 4.591e-6
-1.399, 4.617e-6
-1.400, 4.272e-6
-1.399, 3.982e-6
-1.398, 3.807e-6
-1.397, 3.689e-6
-1.396, 3.588e-6
-1.395, 3.432e-6
-1.394, 3.343e-6
-1.393, 3.271e-6
-1.392, 3.181e-6
-1.391, 3.086e-6
-1.390, 3.041e-6
-1.389, 2.959e-6
-1.388, 2.914e-6
-1.387, 2.854e-6
-1.386, 2.809e-6
-1.385, 2.740e-6
-1.384, 2.688e-6
-1.383, 2.640e-6
-1.382, 2.558e-6
-1.381, 2.599e-6
-1.380, 2.561e-6
-1.379, 2.475e-6
-1.378, 2.448e-6
-1.377, 2.394e-6
-1.376, 2.350e-6
-1.375, 2.309e-6
-1.374, 2.250e-6
-1.373, 2.230e-6
-1.372, 2.180e-6
-1.371, 2.156e-6
-1.370, 2.125e-6
-1.369, 2.063e-6
-1.368, 2.070e-6
-1.367, 2.027e-6
-1.366, 2.001e-6
-1.365, 1.972e-6
-1.364, 1.920e-6
-1.363, 1.885e-6
-1.362, 1.856e-6
-1.361, 1.853e-6
-1.360, 1.854e-6
-1.359, 1.941e-6
-1.358, 1.933e-6
-1.357, 1.938e-6
-1.356, 1.919e-6
-1.355, 1.991e-6
-1.354, 1.968e-6
-1.353, 1.929e-6
-1.352, 1.931e-6
-1.351, 1.905e-6
-1.350, 1.883e-6
-1.349, 1.825e-6
-1.348, 1.824e-6
-1.347, 1.782e-6
-1.346, 1.747e-6
-1.345, 1.732e-6
-1.344, 1.698e-6
-1.343, 1.687e-6
-1.342, 1.687e-6
-1.341, 1.650e-6
-1.340, 1.613e-6
-1.339, 1.595e-6
-1.338, 1.567e-6
-1.337, 1.521e-6
-1.336, 1.506e-6
-1.335, 1.491e-6
-1.334, 1.452e-6
-1.333, 1.416e-6
-1.332, 1.417e-6
-1.331, 1.380e-6
-1.330, 1.351e-6
-1.329, 1.318e-6
-1.328, 1.280e-6
-1.327, 1.251e-6
-1.326, 1.244e-6
-1.325, 1.224e-6
-1.324, 1.195e-6
-1.323, 1.169e-6
-1.322, 1.126e-6
-1.321, 1.098e-6
-1.320, 1.096e-6
-1.319, 1.065e-6
-1.318, 1.045e-6
-1.317, 1.039e-6
-1.316, 1.023e-6
-1.315, 1.027e-6
-1.314, 9.834e-7
-1.313, 9.775e-7
-1.312, 9.509e-7
-1.311, 9.331e-7
-1.310, 9.459e-7
-1.309, 9.114e-7
-1.308, 9.006e-7
-1.307, 8.818e-7
-1.306, 8.720e-7
-1.305, 8.473e-7
-1.304, 8.325e-7
-1.303, 8.394e-7
-1.302, 8.068e-7
-1.301, 7.980e-7
-1.300, 7.980e-7
-1.299, 7.930e-7
-1.298, 7.802e-7
-1.297, 7.526e-7
-1.296, 7.309e-7
-1.295, 7.536e-7
-1.294, 7.467e-7
-1.293, 7.111e-7
-1.292, 6.658e-7
-1.291, 6.884e-7
-1.290, 6.904e-7
-1.289, 6.677e-7
-1.288, 6.450e-7
-1.287, 6.362e-7
-1.286, 6.431e-7
-1.285, 6.391e-7
-1.284, 6.214e-7
-1.283, 6.154e-7
-1.282, 6.214e-7
-1.281, 6.046e-7
-1.280, 6.046e-7
-1.279, 5.799e-7
-1.278, 5.740e-7
-1.277, 5.710e-7
-1.276, 5.326e-7
-1.275, 5.257e-7
-1.274, 5.118e-7
-1.273, 5.099e-7
-1.272, 5.040e-7
-1.271, 4.901e-7
-1.270, 5.227e-7
-1.269, 5.069e-7
-1.268, 4.714e-7
-1.267, 4.625e-7
-1.266, 4.704e-7
-1.265, 4.665e-7
-1.264, 4.517e-7
-1.263, 4.379e-7
-1.262, 4.290e-7
-1.261, 4.231e-7
-1.260, 4.270e-7
-1.259, 4.092e-7
-1.258, 4.122e-7
-1.257, 3.954e-7
-1.256, 3.915e-7
-1.255, 3.964e-7
-1.254, 3.737e-7
-1.253, 3.550e-7
-1.252, 3.520e-7
-1.251, 3.550e-7
-1.250, 3.530e-7
-1.249, 3.343e-7
-1.248, 3.313e-7
-1.247, 3.274e-7
-1.246, 3.313e-7
-1.245, 3.372e-7
-1.244, 3.126e-7
-1.243, 3.126e-7
-1.242, 2.948e-7
-1.241, 2.652e-7
-1.240, 2.830e-7
-1.239, 2.849e-7
-1.238, 2.603e-7
-1.237, 2.662e-7
-1.236, 2.553e-7
-1.235, 2.780e-7
-1.234, 2.504e-7
-1.233, 2.395e-7
-1.232, 2.366e-7
-1.231, 2.405e-7
-1.230, 2.297e-7
-1.229, 2.109e-7
-1.228, 2.099e-7
-1.227, 1.902e-7
-1.226, 1.932e-7
-1.225, 2.149e-7
-1.224, 2.099e-7
-1.223, 1.725e-7
-1.222, 1.626e-7
-1.221, 1.803e-7
-1.220, 1.784e-7
-1.219, 1.577e-7
-1.218, 1.527e-7
-1.217, 1.734e-7
-1.216, 1.577e-7
-1.215, 1.517e-7
-1.214, 1.508e-7
-1.213, 1.310e-7
-1.212, 1.113e-7
-1.211, 1.231e-7
-1.210, 1.310e-7
-1.209, 1.300e-7
-1.208, 1.004e-7
-1.207, 1.113e-7
-1.206, 9.353e-8
-1.205, 9.649e-8
-1.204, 1.004e-7
-1.203, 8.366e-8
-1.202, 7.084e-8
-1.201, 6.886e-8
-1.200, 8.169e-8
-1.199, 7.380e-8
-1.198, 6.393e-8
-1.197, 4.124e-8
-1.196, 5.012e-8
-1.195, 5.900e-8
-1.194, 3.729e-8
-1.193, 2.940e-8
-1.192, 3.927e-8
-1.191, 2.940e-8
-1.190, 4.420e-8
-1.189, 3.433e-8
-1.188, 1.657e-8
-1.187, 1.362e-8
-1.186, 5.722e-9
-1.185, -7.103e-9
-1.184, 7.893e-10
-1.183, -9.077e-9
-1.182, -1.204e-8
-1.181, -1.500e-8
-1.180, -1.006e-8
-1.179, -2.092e-8
-1.178, -2.980e-8
-1.177, -4.755e-8
-1.176, -5.347e-8
-1.175, -2.980e-8
-1.174, -4.163e-8
-1.173, -4.755e-8
-1.172, -6.630e-8
-1.171, -5.939e-8
-1.170, -5.446e-8
-1.169, -6.137e-8
-1.168, -6.433e-8
-1.167, -7.321e-8
-1.166, -8.011e-8
-1.165, -7.617e-8
-1.164, -7.715e-8
-1.163, -8.406e-8
-1.162, -8.110e-8
-1.161, -8.800e-8
-1.160, -8.406e-8
-1.159, -1.087e-7
-1.158, -1.156e-7
-1.157, -1.176e-7
-1.156, -1.137e-7
-1.155, -9.984e-8
-1.154, -1.117e-7
-1.153, -1.334e-7
-1.152, -1.285e-7
-1.151, -1.255e-7
-1.150, -1.452e-7
-1.149, -1.383e-7
-1.148, -1.433e-7
-1.147, -1.166e-7
-1.146, -1.403e-7
-1.145, -1.521e-7
-1.144, -1.581e-7
-1.143, -1.442e-7
-1.142, -1.492e-7
-1.141, -1.561e-7
-1.140, -1.423e-7
-1.139, -1.689e-7
-1.138, -1.798e-7
-1.137, -1.650e-7
-1.136, -1.778e-7
-1.135, -1.669e-7
-1.134, -2.054e-7
-1.133, -1.955e-7
-1.132, -1.857e-7
-1.131, -1.995e-7
-1.130, -1.877e-7
-1.129, -1.936e-7
-1.128, -2.005e-7
-1.127, -2.212e-7
-1.126, -2.064e-7
-1.125, -2.103e-7
-1.124, -2.232e-7
-1.123, -2.163e-7
-1.122, -2.242e-7
-1.121, -2.439e-7
-1.120, -2.291e-7
-1.119, -2.311e-7
-1.118, -2.409e-7
-1.117, -2.459e-7
-1.116, -2.478e-7
-1.115, -2.370e-7
-1.114, -2.478e-7
-1.113, -2.587e-7
-1.112, -2.686e-7
-1.111, -2.656e-7
-1.110, -2.439e-7
-1.109, -2.656e-7
-1.108, -2.774e-7
-1.107, -2.755e-7
-1.106, -2.932e-7
-1.105, -2.794e-7
-1.104, -2.932e-7
-1.103, -2.834e-7
-1.102, -3.051e-7
-1.101, -2.922e-7
-1.100, -2.922e-7
-1.099, -2.952e-7
-1.098, -3.051e-7
-1.097, -3.090e-7
-1.096, -3.100e-7
-1.095, -3.110e-7
-1.094, -3.149e-7
-1.093, -3.189e-7
-1.092, -3.179e-7
-1.091, -3.169e-7
-1.090, -3.179e-7
-1.089, -3.445e-7
-1.088, -3.218e-7
-1.087, -3.307e-7
-1.086, -3.337e-7
-1.085, -3.396e-7
-1.084, -3.425e-7
-1.083, -3.524e-7
-1.082, -3.633e-7
-1.081, -3.633e-7
-1.080, -3.554e-7
-1.079, -3.524e-7
-1.078, -3.623e-7
-1.077, -3.544e-7
-1.076, -3.564e-7
-1.075, -3.751e-7
-1.074, -3.919e-7
-1.073, -4.008e-7
-1.072, -3.929e-7
-1.071, -3.889e-7
-1.070, -3.869e-7
-1.069, -3.968e-7
-1.068, -4.057e-7
-1.067, -4.067e-7
-1.066, -4.116e-7
-1.065, -4.067e-7
-1.064, -4.156e-7
-1.063, -4.136e-7
-1.062, -4.185e-7
-1.061, -4.116e-7
-1.060, -4.126e-7
-1.059, -4.274e-7
-1.058, -4.402e-7
-1.057, -4.175e-7
-1.056, -4.382e-7
-1.055, -4.323e-7
-1.054, -4.353e-7
-1.053, -4.294e-7
-1.052, -4.481e-7
-1.051, -4.619e-7
-1.050, -4.471e-7
-1.049, -4.461e-7
-1.048, -4.619e-7
-1.047, -4.728e-7
-1.046, -4.649e-7
-1.045, -4.688e-7
-1.044, -4.708e-7
-1.043, -4.669e-7
-1.042, -4.777e-7
-1.041, -4.856e-7
-1.040, -4.649e-7
-1.039, -4.886e-7
-1.038, -4.836e-7
-1.037, -4.807e-7
-1.036, -4.935e-7
-1.035, -4.876e-7
-1.034, -4.915e-7
-1.033, -4.965e-7
-1.032, -5.004e-7
-1.031, -5.034e-7
-1.030, -4.836e-7
-1.029, -5.103e-7
-1.028, -5.182e-7
-1.027, -5.083e-7
-1.026, -5.132e-7
-1.025, -4.856e-7
-1.024, -5.399e-7
-1.023, -5.320e-7
-1.022, -5.241e-7
-1.021, -5.330e-7
-1.020, -5.409e-7
-1.019, -5.300e-7
-1.018, -5.330e-7
-1.017, -5.379e-7
-1.016, -5.586e-7
-1.015, -5.448e-7
-1.014, -5.537e-7
-1.013, -5.369e-7
-1.012, -5.389e-7
-1.011, -5.645e-7
-1.010, -5.557e-7
-1.009, -5.704e-7
-1.008, -5.665e-7
-1.007, -5.606e-7
-1.006, -5.734e-7
-1.005, -5.665e-7
-1.004, -5.872e-7
-1.003, -5.586e-7
-1.002, -5.823e-7
-1.001, -5.902e-7
-1.000, -4.234e-7
-1.001, -3.031e-7
-1.002, -2.616e-7
-1.003, -2.261e-7
-1.004, -1.886e-7
-1.005, -1.590e-7
-1.006, -1.225e-7
-1.007, -1.028e-7
-1.008, -8.603e-8
-1.009, -5.150e-8
-1.010, -4.657e-8
-1.011, -1.302e-8
-1.012, -1.184e-9
-1.013, 1.855e-8
-1.014, 3.729e-8
-1.015, 6.492e-8
-1.016, 5.407e-8
-1.017, 7.873e-8
-1.018, 8.366e-8
-1.019, 1.172e-7
-1.020, 1.429e-7
-1.021, 1.419e-7
-1.022, 1.448e-7
-1.023, 1.774e-7
-1.024, 1.863e-7
-1.025, 1.951e-7
-1.026, 2.159e-7
-1.027, 2.080e-7
-1.028, 2.317e-7
-1.029, 2.376e-7
-1.030, 2.593e-7
-1.031, 2.731e-7
-1.032, 2.711e-7
-1.033, 2.830e-7
-1.034, 2.810e-7
-1.035, 3.007e-7
-1.036, 3.135e-7
-1.037, 3.155e-7
-1.038, 3.392e-7
-1.039, 3.500e-7
-1.040, 3.540e-7
-1.041, 3.609e-7
-1.042, 3.688e-7
-1.043, 3.796e-7
-1.044, 3.787e-7
-1.045, 3.895e-7
-1.046, 3.865e-7
-1.047, 3.984e-7
-1.048, 4.161e-7
-1.049, 4.240e-7
-1.050, 4.467e-7
-1.051, 4.586e-7
-1.052, 4.596e-7
-1.053, 4.566e-7
-1.054, 4.724e-7
-1.055, 4.931e-7
-1.056, 4.822e-7
-1.057, 4.941e-7
-1.058, 5.010e-7
-1.059, 5.079e-7
-1.060, 5.197e-7
-1.061, 5.336e-7
-1.062, 5.217e-7
-1.063, 5.405e-7
-1.064, 5.414e-7
-1.065, 5.760e-7
-1.066, 5.631e-7
-1.067, 5.710e-7
-1.068, 5.720e-7
-1.069, 5.819e-7
-1.070, 5.987e-7
-1.071, 5.888e-7
-1.072, 6.125e-7
-1.073, 6.056e-7
-1.074, 6.085e-7
-1.075, 6.283e-7
-1.076, 6.214e-7
-1.077, 6.312e-7
-1.078, 6.411e-7
-1.079, 6.470e-7
-1.080, 6.529e-7
-1.081, 6.776e-7
-1.082, 6.707e-7
-1.083, 6.786e-7
-1.084, 6.579e-7
-1.085, 7.013e-7
-1.086, 7.003e-7
-1.087, 7.131e-7
-1.088, 7.230e-7
-1.089, 7.121e-7
-1.090, 7.240e-7
-1.091, 7.210e-7
-1.092, 7.437e-7
-1.093, 7.309e-7
-1.094, 7.476e-7
-1.095, 7.585e-7
-1.096, 7.605e-7
-1.097, 7.624e-7
-1.098, 7.693e-7
-1.099, 7.703e-7
-1.100, 7.822e-7
-1.101, 7.911e-7
-1.102, 8.059e-7
-1.103, 7.980e-7
-1.104, 7.970e-7
-1.105, 8.246e-7
-1.106, 8.206e-7
-1.107, 8.118e-7
-1.108, 8.266e-7
-1.109, 8.443e-7
-1.110, 8.463e-7
-1.111, 8.424e-7
-1.112, 8.453e-7
-1.113, 8.759e-7
-1.114, 8.522e-7
-1.115, 8.710e-7
-1.116, 8.739e-7
-1.117, 8.720e-7
-1.118, 8.779e-7
-1.119, 8.917e-7
-1.120, 9.035e-7
-1.121, 9.075e-7
-1.122, 8.828e-7
-1.123, 8.927e-7
-1.124, 9.163e-7
-1.125, 9.371e-7
-1.126, 9.252e-7
-1.127, 9.459e-7
-1.128, 9.548e-7
-1.129, 9.459e-7
-1.130, 9.677e-7
-1.131, 9.736e-7
-1.132, 9.519e-7
-1.133, 9.667e-7
-1.134, 9.765e-7
-1.135, 9.874e-7
-1.136, 9.775e-7
-1.137, 9.943e-7
-1.138, 9.963e-7
-1.139, 9.933e-7
-1.140, 1.019e-6
-1.141, 1.012e-6
-1.142, 1.038e-6
-1.143, 1.025e-6
-1.144, 1.035e-6
-1.145, 1.050e-6
-1.146, 1.050e-6
-1.147, 1.038e-6
-1.148, 1.054e-6
-1.149, 1.049e-6
-1.150, 1.061e-6
-1.151, 1.067e-6
-1.152, 1.073e-6
-1.153, 1.085e-6
-1.154, 1.092e-6
-1.155, 1.088e-6
-1.156, 1.109e-6
-1.157, 1.091e-6
-1.158, 1.095e-6
-1.159, 1.120e-6
-1.160, 1.107e-6
-1.161, 1.126e-6
-1.162, 1.123e-6
-1.163, 1.147e-6
-1.164, 1.125e-6
-1.165, 1.159e-6
-1.166, 1.163e-6
-1.167, 1.160e-6
-1.168, 1.171e-6
-1.169, 1.171e-6
-1.170, 1.183e-6
-1.171, 1.166e-6
-1.172, 1.182e-6
-1.173, 1.190e-6
-1.174, 1.187e-6
-1.175, 1.215e-6
-1.176, 1.200e-6
-1.177, 1.200e-6
-1.178, 1.206e-6
-1.179, 1.222e-6
-1.180, 1.241e-6
-1.181, 1.243e-6
-1.182, 1.233e-6
-1.183, 1.224e-6
-1.184, 1.260e-6
-1.185, 1.277e-6
-1.186, 1.258e-6
-1.187, 1.277e-6
-1.188, 1.265e-6
-1.189, 1.273e-6
-1.190, 1.285e-6
-1.191, 1.288e-6
-1.192, 1.288e-6
-1.193, 1.293e-6
-1.194, 1.294e-6
-1.195, 1.313e-6
-1.196, 1.312e-6
-1.197, 1.318e-6
-1.198, 1.319e-6
-1.199, 1.323e-6
-1.200, 1.336e-6
-1.201, 1.350e-6
-1.202, 1.340e-6
-1.203, 1.361e-6
-1.204, 1.365e-6
-1.205, 1.385e-6
-1.206, 1.370e-6
-1.207, 1.386e-6
-1.208, 1.374e-6
-1.209, 1.386e-6
-1.210, 1.400e-6
-1.211, 1.397e-6
-1.212, 1.406e-6
-1.213, 1.413e-6
-1.214, 1.412e-6
-1.215, 1.424e-6
-1.216, 1.435e-6
-1.217, 1.434e-6
-1.218, 1.437e-6
-1.219, 1.448e-6
-1.220, 1.460e-6
-1.221, 1.449e-6
-1.222, 1.464e-6
-1.223, 1.480e-6
-1.224, 1.458e-6
-1.225, 1.478e-6
-1.226, 1.491e-6
-1.227, 1.480e-6
-1.228, 1.488e-6
-1.229, 1.523e-6
-1.230, 1.535e-6
-1.231, 1.526e-6
-1.232, 1.518e-6
-1.233, 1.530e-6
-1.234, 1.546e-6
-1.235, 1.532e-6
-1.236, 1.537e-6
-1.237, 1.539e-6
-1.238, 1.555e-6
-1.239, 1.575e-6
-1.240, 1.565e-6
-1.241, 1.560e-6
-1.242, 1.593e-6
-1.243, 1.594e-6
-1.244, 1.609e-6
-1.245, 1.603e-6
-1.246, 1.595e-6
-1.247, 1.598e-6
-1.248, 1.615e-6
-1.249, 1.624e-6
-1.250, 1.640e-6
-1.251, 1.630e-6
-1.252, 1.647e-6
-1.253, 1.641e-6
-1.254, 1.631e-6
-1.255, 1.672e-6
-1.256, 1.671e-6
-1.257, 1.690e-6
-1.258, 1.685e-6
-1.259, 1.668e-6
-1.260, 1.705e-6
-1.261, 1.700e-6
-1.262, 1.692e-6
-1.263, 1.705e-6
-1.264, 1.720e-6
-1.265, 1.737e-6
-1.266, 1.732e-6
-1.267, 1.727e-6
-1.268, 1.760e-6
-1.269, 1.751e-6
-1.270, 1.770e-6
-1.271, 1.761e-6
-1.272, 1.757e-6
-1.273, 1.759e-6
-1.274, 1.784e-6
-1.275, 1.790e-6
-1.276, 1.789e-6
-1.277, 1.791e-6
-1.278, 1.813e-6
-1.279, 1.798e-6
-1.280, 1.824e-6
-1.281, 1.834e-6
-1.282, 1.837e-6
-1.283, 1.848e-6
-1.284, 1.842e-6
-1.285, 1.862e-6
-1.286, 1.871e-6
-1.287, 1.843e-6
-1.288, 1.874e-6
-1.289, 1.871e-6
-1.290, 1.885e-6
-1.291, 1.879e-6
-1.292, 1.891e-6
-1.293, 1.899e-6
-1.294, 1.912e-6
-1.295, 1.933e-6
-1.296, 1.937e-6
-1.297, 1.948e-6
-1.298, 1.959e-6
-1.299, 1.951e-6
-1.300, 1.954e-6
-1.301, 1.966e-6
-1.302, 1.958e-6
-1.303, 1.984e-6
-1.304, 1.974e-6
-1.305, 2.002e-6
-1.306, 1.992e-6
-1.307, 2.002e-6
-1.308, 2.004e-6
-1.309, 2.021e-6
-1.310, 2.047e-6
-1.311, 2.030e-6
-1.312, 2.031e-6
-1.313, 2.045e-6
-1.314, 2.060e-6
-1.315, 2.065e-6
-1.316, 2.083e-6
-1.317, 2.084e-6
-1.318, 2.102e-6
-1.319, 2.120e-6
-1.320, 2.105e-6
-1.321, 2.105e-6
-1.322, 2.133e-6
-1.323, 2.114e-6
-1.324, 2.139e-6
-1.325, 2.162e-6
-1.326, 2.157e-6
-1.327, 2.181e-6
-1.328, 2.180e-6
-1.329, 2.182e-6
-1.330, 2.208e-6
-1.331, 2.203e-6
-1.332, 2.221e-6
-1.333, 2.225e-6
-1.334, 2.223e-6
-1.335, 2.254e-6
-1.336, 2.249e-6
-1.337, 2.268e-6
-1.338, 2.278e-6
-1.339, 2.290e-6
-1.340, 2.315e-6
-1.341, 2.323e-6
-1.342, 2.330e-6
-1.343, 2.345e-6
-1.344, 2.338e-6
-1.345, 2.347e-6
-1.346, 2.359e-6
-1.347, 2.354e-6
-1.348, 2.374e-6
-1.349, 2.372e-6
-1.350, 2.400e-6
-1.351, 2.419e-6
-1.352, 2.410e-6
-1.353, 2.430e-6
-1.354, 2.453e-6
-1.355, 2.459e-6
-1.356, 2.473e-6
-1.357, 2.467e-6
-1.358, 2.470e-6
-1.359, 2.506e-6
-1.360, 2.500e-6
-1.361, 2.515e-6
-1.362, 2.520e-6
-1.363, 2.559e-6
-1.364, 2.567e-6
-1.365, 2.564e-6
-1.366, 2.574e-6
-1.367, 2.598e-6
-1.368, 2.592e-6
-1.369, 2.635e-6
-1.370, 2.667e-6
-1.371, 2.656e-6
-1.372, 2.668e-6
-1.373, 2.682e-6
-1.374, 2.699e-6
-1.375, 2.728e-6
-1.376, 2.716e-6
-1.377, 2.715e-6
-1.378, 2.728e-6
-1.379, 2.746e-6
-1.380, 2.765e-6
-1.381, 2.759e-6
-1.382, 2.777e-6
-1.383, 2.789e-6
-1.384, 2.819e-6
-1.385, 2.833e-6
-1.386, 2.805e-6
-1.387, 2.796e-6
-1.388, 2.825e-6
-1.389, 2.860e-6
-1.390, 2.849e-6
-1.391, 2.868e-6
-1.392, 2.849e-6
-1.393, 2.883e-6
-1.394, 2.910e-6
-1.395, 2.921e-6
-1.396, 2.913e-6
-1.397, 2.930e-6
-1.398, 2.939e-6
-1.399, 2.949e-6
-1.400, 2.660e-6
-1.399, 2.420e-6
-1.398, 2.296e-6
-1.397, 2.217e-6
-1.396, 2.154e-6
-1.395, 2.098e-6
-1.394, 2.055e-6
-1.393, 1.976e-6
-1.392, 1.928e-6
-1.391, 1.896e-6
-1.390, 1.873e-6
-1.389, 1.826e-6
-1.388, 1.770e-6
-1.387, 1.738e-6
-1.386, 1.695e-6
-1.385, 1.667e-6
-1.384, 1.628e-6
-1.383, 1.596e-6
-1.382, 1.572e-6
-1.381, 1.548e-6
-1.380, 1.547e-6
-1.379, 1.488e-6
-1.378, 1.478e-6
-1.377, 1.440e-6
-1.376, 1.404e-6
-1.375, 1.387e-6
-1.374, 1.382e-6
-1.373, 1.348e-6
-1.372, 1.347e-6
-1.371, 1.310e-6
-1.370, 1.331e-6
-1.369, 1.312e-6
-1.368, 1.265e-6
-1.367, 1.279e-6
-1.366, 1.256e-6
-1.365, 1.244e-6
-1.364, 1.231e-6
-1.363, 1.202e-6
-1.362, 1.226e-6
-1.361, 1.200e-6
-1.360, 1.205e-6
-1.359, 1.169e-6
-1.358, 1.161e-6
-1.357, 1.147e-6
-1.356, 1.112e-6
-1.355, 1.125e-6
-1.354, 1.096e-6
-1.353, 1.095e-6
-1.352, 1.080e-6
-1.351, 1.071e-6
-1.350, 1.059e-6
-1.349, 1.046e-6
-1.348, 1.045e-6
-1.347, 1.037e-6
-1.346, 1.037e-6
-1.345, 1.015e-6
-1.344, 1.010e-6
-1.343, 9.923e-7
-1.342, 9.607e-7
-1.341, 9.607e-7
-1.340, 9.765e-7
-1.339, 9.548e-7
-1.338, 9.430e-7
-1.337, 9.341e-7
-1.336, 9.124e-7
-1.335, 9.065e-7
-1.334, 9.114e-7
-1.333, 9.045e-7
-1.332, 8.956e-7
-1.331, 8.542e-7
-1.330, 8.877e-7
-1.329, 8.710e-7
-1.328, 8.680e-7
-1.327, 8.581e-7
-1.326, 8.483e-7
-1.325, 8.384e-7
-1.324, 7.920e-7
-1.323, 7.911e-7
-1.322, 7.980e-7
-1.321, 7.802e-7
-1.320, 7.674e-7
-1.319, 7.496e-7
-1.318, 7.526e-7
-1.317, 7.427e-7
-1.316, 7.210e-7
-1.315, 7.180e-7
-1.314, 7.230e-7
-1.313, 6.845e-7
-1.312, 6.884e-7
-1.311, 6.717e-7
-1.310, 6.766e-7
-1.309, 6.727e-7
-1.308, 6.480e-7
-1.307, 6.194e-7
-1.306, 6.194e-7
-1.305, 6.145e-7
-1.304, 5.977e-7
-1.303, 5.868e-7
-1.302, 5.651e-7
-1.301, 5.602e-7
-1.300, 5.819e-7
-1.299, 5.553e-7
-1.298, 5.345e-7
-1.297, 5.099e-7
-1.296, 5.276e-7
-1.295, 5.148e-7
-1.294, 5.010e-7
-1.293, 4.892e-7
-1.292, 4.704e-7
-1.291, 4.596e-7
-1.290, 4.517e-7
-1.289, 4.615e-7
-1.288, 4.428e-7
-1.287, 4.290e-7
-1.286, 4.418e-7
-1.285, 4.270e-7
-1.284, 4.152e-7
-1.283, 3.925e-7
-1.282, 3.915e-7
-1.281, 3.935e-7
-1.280, 3.836e-7
-1.279, 3.806e-7
-1.278, 3.510e-7
-1.277, 3.540e-7
-1.276, 3.422e-7
-1.275, 3.372e-7
-1.274, 3.323e-7
-1.273, 3.244e-7
-1.272, 3.076e-7
-1.271, 3.066e-7
-1.270, 3.293e-7
-1.269, 2.928e-7
-1.268, 2.839e-7
-1.267, 2.948e-7
-1.266, 2.701e-7
-1.265, 2.780e-7
-1.264, 2.583e-7
-1.263, 2.701e-7
-1.262, 2.691e-7
-1.261, 2.593e-7
-1.260, 2.435e-7
-1.259, 2.455e-7
-1.258, 2.317e-7
-1.257, 2.376e-7
-1.256, 2.198e-7
-1.255, 2.307e-7
-1.254, 1.971e-7
-1.253, 2.070e-7
-1.252, 1.961e-7
-1.251, 1.764e-7
-1.250, 1.971e-7
-1.249, 1.892e-7
-1.248, 1.981e-7
-1.247, 1.744e-7
-1.246, 1.734e-7
-1.245, 1.626e-7
-1.244, 1.537e-7
-1.243, 1.665e-7
-1.242, 1.320e-7
-1.241, 1.281e-7
-1.240, 1.409e-7
-1.239, 1.290e-7
-1.238, 1.271e-7
-1.237, 1.231e-7
-1.236, 1.103e-7
-1.235, 1.142e-7
-1.234, 9.156e-8
-1.233, 8.465e-8
-1.232, 9.649e-8
-1.231, 8.564e-8
-1.230, 1.024e-7
-1.229, 6.492e-8
-1.228, 6.393e-8
-1.227, 5.604e-8
-1.226, 5.801e-8
-1.225, 7.873e-8
-1.224, 4.519e-8
-1.223, 4.025e-8
-1.222, 4.815e-8
-1.221, 1.953e-8
-1.220, 4.223e-8
-1.219, 4.025e-8
-1.218, 3.039e-8
-1.217, 2.644e-8
-1.216, 2.762e-9
-1.215, 1.855e-8
-1.214, -3.157e-9
-1.213, -3.157e-9
-1.212, 8.682e-9
-1.211, -1.006e-8
-1.210, 2.762e-9
-1.209, -2.092e-8
-1.208, -2.881e-8
-1.207, -1.993e-8
-1.206, -4.361e-8
-1.205, -3.966e-8
-1.204, -3.177e-8
-1.203, -4.459e-8
-1.202, -5.051e-8
-1.201, -5.249e-8
-1.200, -4.854e-8
-1.199, -7.025e-8
-1.198, -5.249e-8
-1.197, -6.334e-8
-1.196, -6.729e-8
-1.195, -6.235e-8
-1.194, -7.419e-8
-1.193, -8.307e-8
-1.192, -8.011e-8
-1.191, -9.886e-8
-1.190, -9.984e-8
-1.189, -1.077e-7
-1.188, -9.886e-8
-1.187, -1.117e-7
-1.186, -9.392e-8
-1.185, -9.886e-8
-1.184, -1.107e-7
-1.183, -1.245e-7
-1.182, -1.166e-7
-1.181, -1.117e-7
-1.180, -1.087e-7
-1.179, -1.363e-7
-1.178, -1.334e-7
-1.177, -1.363e-7
-1.176, -1.442e-7
-1.175, -1.393e-7
-1.174, -1.492e-7
-1.173, -1.640e-7
-1.172, -1.511e-7
-1.171, -1.679e-7
-1.170, -1.709e-7
-1.169, -1.630e-7
-1.168, -1.699e-7
-1.167, -1.709e-7
-1.166, -1.778e-7
-1.165, -1.610e-7
-1.164, -1.886e-7
-1.163, -1.995e-7
-1.162, -2.005e-7
-1.161, -2.153e-7
-1.160, -1.985e-7
-1.159, -1.985e-7
-1.158, -2.064e-7
-1.157, -1.995e-7
-1.156, -2.251e-7
-1.155, -2.133e-7
-1.154, -2.074e-7
-1.153, -2.320e-7
-1.152, -2.291e-7
-1.151, -2.370e-7
-1.150, -2.054e-7
-1.149, -2.311e-7
-1.148, -2.291e-7
-1.147, -2.350e-7
-1.146, -2.498e-7
-1.145, -2.468e-7
-1.144, -2.597e-7
-1.143, -2.498e-7
-1.142, -2.557e-7
-1.141, -2.557e-7
-1.140, -2.518e-7
-1.139, -2.676e-7
-1.138, -2.666e-7
-1.137, -2.893e-7
-1.136, -2.725e-7
-1.135, -2.705e-7
-1.134, -2.814e-7
-1.133, -3.139e-7
-1.132, -2.912e-7
-1.131, -2.843e-7
-1.130, -3.159e-7
-1.129, -3.070e-7
-1.128, -2.863e-7
-1.127, -3.100e-7
-1.126, -3.060e-7
-1.125, -3.129e-7
-1.124, -3.199e-7
-1.123, -3.159e-7
-1.122, -3.189e-7
-1.121, -3.337e-7
-1.120, -3.307e-7
-1.119, -3.258e-7
-1.118, -3.435e-7
-1.117, -3.524e-7
-1.116, -3.297e-7
-1.115, -3.623e-7
-1.114, -3.425e-7
-1.113, -3.583e-7
-1.112, -3.386e-7
-1.111, -3.554e-7
-1.110, -3.514e-7
-1.109, -3.514e-7
-1.108, -3.692e-7
-1.107, -3.692e-7
-1.106, -3.721e-7
-1.105, -3.583e-7
-1.104, -3.751e-7
-1.103, -3.761e-7
-1.102, -3.830e-7
-1.101, -3.840e-7
-1.100, -3.899e-7
-1.099, -3.929e-7
-1.098, -3.692e-7
-1.097, -3.850e-7
-1.096, -3.840e-7
-1.095, -3.810e-7
-1.094, -4.077e-7
-1.093, -4.116e-7
-1.092, -4.294e-7
-1.091, -4.234e-7
-1.090, -3.978e-7
-1.089, -4.136e-7
-1.088, -4.363e-7
-1.087, -4.313e-7
-1.086, -4.343e-7
-1.085, -4.175e-7
-1.084, -4.254e-7
-1.083, -4.382e-7
-1.082, -4.244e-7
-1.081, -4.412e-7
-1.080, -4.353e-7
-1.079, -4.373e-7
-1.078, -4.481e-7
-1.077, -4.481e-7
-1.076, -4.521e-7
-1.075, -4.639e-7
-1.074, -4.580e-7
-1.073, -4.600e-7
-1.072, -4.708e-7
-1.071, -4.698e-7
-1.070, -4.570e-7
-1.069, -4.669e-7
-1.068, -4.787e-7
-1.067, -4.866e-7
-1.066, -4.738e-7
-1.065, -4.807e-7
-1.064, -4.757e-7
-1.063, -4.905e-7
-1.062, -4.826e-7
-1.061, -4.935e-7
-1.060, -4.895e-7
-1.059, -4.974e-7
-1.058, -4.965e-7
-1.057, -5.024e-7
-1.056, -5.093e-7
-1.055, -5.024e-7
-1.054, -5.132e-7
-1.053, -5.290e-7
-1.052, -5.162e-7
-1.051, -5.182e-7
-1.050, -5.162e-7
-1.049, -5.359e-7
-1.048, -5.320e-7
-1.047, -5.409e-7
-1.046, -5.438e-7
-1.045, -5.330e-7
-1.044, -5.497e-7
-1.043, -5.576e-7
-1.042, -5.418e-7
-1.041, -5.517e-7
-1.040, -5.438e-7
-1.039, -5.547e-7
-1.038, -5.704e-7
-1.037, -5.675e-7
-1.036, -5.527e-7
-1.035, -5.665e-7
-1.034, -5.734e-7
-1.033, -5.695e-7
-1.032, -5.704e-7
-1.031, -5.764e-7
-1.030, -5.774e-7
-1.029, -5.754e-7
-1.028, -5.793e-7
-1.027, -5.922e-7
-1.026, -6.020e-7
-1.025, -5.892e-7
-1.024, -6.129e-7
-1.023, -5.981e-7
-1.022, -6.070e-7
-1.021, -6.000e-7
-1.020, -6.099e-7
-1.019, -6.227e-7
-1.018, -6.129e-7
-1.017, -6.375e-7
-1.016, -6.316e-7
-1.015, -6.139e-7
-1.014, -6.119e-7
-1.013, -6.188e-7
-1.012, -6.267e-7
-1.011, -6.444e-7
-1.010, -6.296e-7
-1.009, -6.444e-7
-1.008, -6.257e-7
-1.007, -6.553e-7
-1.006, -6.454e-7
-1.005, -6.415e-7
-1.004, -6.504e-7
-1.003, -6.523e-7
-1.002, -6.444e-7
-1.001, -6.622e-7
-1.000, -4.866e-7
-1.001, -3.810e-7
-1.002, -3.396e-7
-1.003, -2.883e-7
-1.004, -2.567e-7
-1.005, -2.350e-7
-1.006, -2.084e-7
-1.007, -1.817e-7
-1.008, -1.590e-7
-1.009, -1.354e-7
-1.010, -1.077e-7
-1.011, -9.195e-8
-1.012, -7.518e-8
-1.013, -6.827e-8
-1.014, -3.571e-8
-1.015, -1.006e-8
-1.016, -4.144e-9
-1.017, 5.722e-9
-1.018, 1.164e-8
-1.019, 2.841e-8
-1.020, 6.196e-8
-1.021, 7.084e-8
-1.022, 7.577e-8
-1.023, 9.057e-8
-1.024, 1.093e-7
-1.025, 1.123e-7
-1.026, 1.261e-7
-1.027, 1.478e-7
-1.028, 1.567e-7
-1.029, 1.675e-7
-1.030, 1.695e-7
-1.031, 1.813e-7
-1.032, 1.951e-7
-1.033, 2.129e-7
-1.034, 2.415e-7
-1.035, 2.169e-7
-1.036, 2.287e-7
-1.037, 2.603e-7
-1.038, 2.534e-7
-1.039, 2.830e-7
-1.040, 2.820e-7
-1.041, 2.820e-7
-1.042, 2.899e-7
-1.043, 3.027e-7
-1.044, 3.155e-7
-1.045, 3.234e-7
-1.046, 3.382e-7
-1.047, 3.313e-7
-1.048, 3.461e-7
-1.049, 3.431e-7
-1.050, 3.717e-7
-1.051, 3.678e-7
-1.052, 3.747e-7
-1.053, 3.925e-7
-1.054, 3.905e-7
-1.055, 4.181e-7
-1.056, 4.102e-7
-1.057, 4.004e-7
-1.058, 4.053e-7
-1.059, 4.181e-7
-1.060, 4.398e-7
-1.061, 4.349e-7
-1.062, 4.388e-7
-1.063, 4.536e-7
-1.064, 4.635e-7
-1.065, 4.724e-7
-1.066, 4.813e-7
-1.067, 4.842e-7
-1.068, 4.970e-7
-1.069, 5.109e-7
-1.070, 5.168e-7
-1.071, 5.099e-7
-1.072, 5.207e-7
-1.073, 5.178e-7
-1.074, 5.257e-7
-1.075, 5.454e-7
-1.076, 5.553e-7
-1.077, 5.612e-7
-1.078, 5.562e-7
-1.079, 5.730e-7
-1.080, 5.927e-7
-1.081, 5.868e-7
-1.082, 5.967e-7
-1.083, 6.026e-7
-1.084, 5.967e-7
-1.085, 6.135e-7
-1.086, 6.371e-7
-1.087, 6.056e-7
-1.088, 6.223e-7
-1.089, 6.470e-7
-1.090, 6.421e-7
-1.091, 6.431e-7
-1.092, 6.648e-7
-1.093, 6.529e-7
-1.094, 6.717e-7
-1.095, 6.825e-7
-1.096, 6.825e-7
-1.097, 6.736e-7
-1.098, 6.924e-7
-1.099, 6.934e-7
-1.100, 7.121e-7
-1.101, 7.151e-7
-1.102, 6.973e-7
-1.103, 7.309e-7
-1.104, 7.190e-7
-1.105, 7.328e-7
-1.106, 7.447e-7
-1.107, 7.289e-7
-1.108, 7.407e-7
-1.109, 7.427e-7
-1.110, 7.743e-7
-1.111, 7.624e-7
-1.112, 7.674e-7
-1.113, 7.575e-7
-1.114, 7.891e-7
-1.115, 7.970e-7
-1.116, 7.841e-7
-1.117, 7.999e-7
-1.118, 7.980e-7
-1.119, 7.999e-7
-1.120, 8.226e-7
-1.121, 8.266e-7
-1.122, 8.266e-7
-1.123, 8.216e-7
-1.124, 8.502e-7
-1.125, 8.562e-7
-1.126, 8.621e-7
-1.127, 8.759e-7
-1.128, 8.828e-7
-1.129, 8.700e-7
-1.130, 8.818e-7
-1.131, 8.779e-7
-1.132, 8.838e-7
-1.133, 8.838e-7
-1.134, 8.956e-7
-1.135, 9.075e-7
-1.136, 8.966e-7
-1.137, 9.065e-7
-1.138, 9.055e-7
-1.139, 9.223e-7
-1.140, 9.390e-7
-1.141, 9.272e-7
-1.142, 9.331e-7
-1.143, 9.371e-7
-1.144, 9.578e-7
-1.145, 9.716e-7
-1.146, 9.519e-7
-1.147, 9.548e-7
-1.148, 9.795e-7
-1.149, 9.923e-7
-1.150, 9.943e-7
-1.151, 9.923e-7
-1.152, 1.005e-6
-1.153, 9.903e-7
-1.154, 1.009e-6
-1.155, 1.016e-6
-1.156, 1.014e-6
-1.157, 1.022e-6
-1.158, 1.016e-6
-1.159, 1.039e-6
-1.160, 1.030e-6
-1.161, 1.029e-6
-1.162, 1.036e-6
-1.163, 1.043e-6
-1.164, 1.046e-6
-1.165, 1.064e-6
-1.166, 1.071e-6
-1.167, 1.064e-6
-1.168, 1.069e-6
-1.169, 1.072e-6
-1.170, 1.069e-6
-1.171, 1.089e-6
-1.172, 1.101e-6
-1.173, 1.105e-6
-1.174, 1.105e-6
-1.175, 1.113e-6
-1.176, 1.110e-6
-1.177, 1.117e-6
-1.178, 1.130e-6
-1.179, 1.146e-6
-1.180, 1.138e-6
-1.181, 1.150e-6
-1.182, 1.148e-6
-1.183, 1.141e-6
-1.184, 1.155e-6
-1.185, 1.164e-6
-1.186, 1.179e-6
-1.187, 1.167e-6
-1.188, 1.170e-6
-1.189, 1.198e-6
-1.190, 1.200e-6
-1.191, 1.192e-6
-1.192, 1.207e-6
-1.193, 1.194e-6
-1.194, 1.221e-6
-1.195, 1.207e-6
-1.196, 1.207e-6
-1.197, 1.217e-6
-1.198, 1.256e-6
-1.199, 1.225e-6
-1.200, 1.255e-6
-1.201, 1.241e-6
-1.202, 1.259e-6
-1.203, 1.258e-6
-1.204, 1.262e-6
-1.205, 1.283e-6
-1.206, 1.267e-6
-1.207, 1.277e-6
-1.208, 1.269e-6
-1.209, 1.289e-6
-1.210, 1.309e-6
-1.211, 1.290e-6
-1.212, 1.279e-6
-1.213, 1.301e-6
-1.214, 1.310e-6
-1.215, 1.325e-6
-1.216, 1.330e-6
-1.217, 1.315e-6
-1.218, 1.338e-6
-1.219, 1.356e-6
-1.220, 1.345e-6
-1.221, 1.340e-6
-1.222, 1.369e-6
-1.223, 1.349e-6
-1.224, 1.367e-6
-1.225, 1.361e-6
-1.226, 1.365e-6
-1.227, 1.363e-6
-1.228, 1.360e-6
-1.229, 1.390e-6
-1.230, 1.413e-6
-1.231, 1.409e-6
-1.232, 1.404e-6
-1.233, 1.416e-6
-1.234, 1.434e-6
-1.235, 1.435e-6
-1.236, 1.428e-6
-1.237, 1.434e-6
-1.238, 1.434e-6
-1.239, 1.462e-6
-1.240, 1.435e-6
-1.241, 1.459e-6
-1.242, 1.468e-6
-1.243, 1.464e-6
-1.244, 1.461e-6
-1.245, 1.489e-6
-1.246, 1.505e-6
-1.247, 1.500e-6
-1.248, 1.482e-6
-1.249, 1.502e-6
-1.250, 1.515e-6
-1.251, 1.499e-6
-1.252, 1.511e-6
-1.253, 1.500e-6
-1.254, 1.528e-6
-1.255, 1.545e-6
-1.256, 1.525e-6
-1.257, 1.545e-6
-1.258, 1.546e-6
-1.259, 1.570e-6
-1.260, 1.571e-6
-1.261, 1.574e-6
-1.262, 1.576e-6
-1.263, 1.579e-6
-1.264, 1.570e-6
-1.265, 1.599e-6
-1.266, 1.588e-6
-1.267, 1.596e-6
-1.268, 1.612e-6
-1.269, 1.615e-6
-1.270, 1.620e-6
-1.271, 1.625e-6
-1.272, 1.618e-6
-1.273, 1.633e-6
-1.274, 1.646e-6
-1.275, 1.648e-6
-1.276, 1.654e-6
-1.277, 1.658e-6
-1.278, 1.653e-6
-1.279, 1.672e-6
-1.280, 1.700e-6
-1.281, 1.671e-6
-1.282, 1.697e-6
-1.283, 1.693e-6
-1.284, 1.700e-6
-1.285, 1.705e-6
-1.286, 1.715e-6
-1.287, 1.723e-6
-1.288, 1.723e-6
-1.289, 1.715e-6
-1.290, 1.723e-6
-1.291, 1.737e-6
-1.292, 1.742e-6
-1.293, 1.764e-6
-1.294, 1.749e-6
-1.295, 1.765e-6
-1.296, 1.758e-6
-1.297, 1.764e-6
-1.298, 1.770e-6
-1.299, 1.790e-6
-1.300, 1.782e-6
-1.301, 1.796e-6
-1.302, 1.795e-6
-1.303, 1.803e-6
-1.304, 1.813e-6
-1.305, 1.828e-6
-1.306, 1.828e-6
-1.307, 1.819e-6
-1.308, 1.836e-6
-1.309, 1.862e-6
-1.310, 1.857e-6
-1.311, 1.851e-6
-1.312, 1.865e-6
-1.313, 1.866e-6
-1.314, 1.876e-6
-1.315, 1.880e-6
-1.316, 1.887e-6
-1.317, 1.884e-6
-1.318, 1.909e-6
-1.319, 1.928e-6
-1.320, 1.913e-6
-1.321, 1.910e-6
-1.322, 1.916e-6
-1.323, 1.934e-6
-1.324, 1.938e-6
-1.325, 1.938e-6
-1.326, 1.943e-6
-1.327, 1.942e-6
-1.328, 1.967e-6
-1.329, 1.970e-6
-1.330, 1.980e-6
-1.331, 1.982e-6
-1.332, 1.990e-6
-1.333, 1.998e-6
-1.334, 2.016e-6
-1.335, 2.009e-6
-1.336, 2.027e-6
-1.337, 2.011e-6
-1.338, 2.042e-6
-1.339, 2.041e-6
-1.340, 2.058e-6
-1.341, 2.033e-6
-1.342, 2.076e-6
-1.343, 2.064e-6
-1.344, 2.094e-6
-1.345, 2.061e-6
-1.346, 2.102e-6
-1.347, 2.105e-6
-1.348, 2.115e-6
-1.349, 2.114e-6
-1.350, 2.125e-6
-1.351, 2.139e-6
-1.352, 2.133e-6
-1.353, 2.133e-6
-1.354, 2.158e-6
-1.355, 2.167e-6
-1.356, 2.161e-6
-1.357, 2.166e-6
-1.358, 2.187e-6
-1.359, 2.198e-6
-1.360, 2.223e-6
-1.361, 2.211e-6
-1.362, 2.223e-6
-1.363, 2.229e-6
-1.364, 2.247e-6
-1.365, 2.277e-6
-1.366, 2.246e-6
-1.367, 2.252e-6
-1.368, 2.281e-6
-1.369, 2.298e-6
-1.370, 2.302e-6
-1.371, 2.306e-6
-1.372, 2.313e-6
-1.373, 2.316e-6
-1.374, 2.343e-6
-1.375, 2.363e-6
-1.376, 2.358e-6
-1.377, 2.360e-6
-1.378, 2.378e-6
-1.379, 2.383e-6
-1.380, 2.390e-6
-1.381, 2.403e-6
-1.382, 2.400e-6
-1.383, 2.411e-6
-1.384, 2.448e-6
-1.385, 2.456e-6
-1.386, 2.444e-6
-1.387, 2.459e-6
-1.388, 2.475e-6
-1.389, 2.490e-6
-1.390, 2.515e-6
-1.391, 2.494e-6
-1.392, 2.513e-6
-1.393, 2.524e-6
-1.394, 2.537e-6
-1.395, 2.535e-6
-1.396, 2.559e-6
-1.397, 2.554e-6
-1.398, 2.578e-6
-1.399, 2.585e-6
-1.400, 2.283e-6
-1.399, 2.058e-6
-1.398, 1.960e-6
-1.397, 1.889e-6
-1.396, 1.833e-6
-1.395, 1.770e-6
-1.394, 1.749e-6
-1.393, 1.693e-6
-1.392, 1.653e-6
-1.391, 1.605e-6
-1.390, 1.596e-6
-1.389, 1.550e-6
-1.388, 1.491e-6
-1.387, 1.479e-6
-1.386, 1.467e-6
-1.385, 1.408e-6
-1.384, 1.408e-6
-1.383, 1.358e-6
-1.382, 1.317e-6
-1.381, 1.317e-6
-1.380, 1.312e-6
-1.379, 1.287e-6
-1.378, 1.243e-6
-1.377, 1.199e-6
-1.376, 1.199e-6
-1.375, 1.180e-6
-1.374, 1.150e-6
-1.373, 1.126e-6
-1.372, 1.136e-6
-1.371, 1.114e-6
-1.370, 1.080e-6
-1.369, 1.063e-6
-1.368, 1.052e-6
-1.367, 1.018e-6
-1.366, 1.024e-6
-1.365, 1.013e-6
-1.364, 9.884e-7
-1.363, 9.667e-7
-1.362, 9.400e-7
-1.361, 9.558e-7
-1.360, 9.400e-7
-1.359, 9.075e-7
-1.358, 9.075e-7
-1.357, 8.759e-7
-1.356, 8.670e-7
-1.355, 8.502e-7
-1.354, 8.631e-7
-1.353, 8.374e-7
-1.352, 8.246e-7
-1.351, 8.305e-7
-1.350, 8.098e-7
-1.349, 7.871e-7
-1.348, 7.861e-7
-1.347, 7.654e-7
-1.346, 7.851e-7
-1.345, 7.565e-7
-1.344, 7.269e-7
-1.343, 7.397e-7
-1.342, 7.180e-7
-1.341, 7.102e-7
-1.340, 6.944e-7
-1.339, 6.924e-7
-1.338, 6.608e-7
-1.337, 6.717e-7
-1.336, 6.786e-7
-1.335, 6.608e-7
-1.334, 6.480e-7
-1.333, 6.223e-7
-1.332, 6.194e-7
-1.331, 6.214e-7
-1.330, 5.997e-7
-1.329, 5.967e-7
-1.328, 5.809e-7
-1.327, 5.839e-7
-1.326, 5.691e-7
-1.325, 5.543e-7
-1.324, 5.355e-7
-1.323, 5.395e-7
-1.322, 5.316e-7
-1.321, 5.276e-7
-1.320, 5.257e-7
-1.319, 5.138e-7
-1.318, 4.961e-7
-1.317, 4.892e-7
-1.316, 5.000e-7
-1.315, 4.892e-7
-1.314, 4.763e-7
-1.313, 4.665e-7
-1.312, 4.576e-7
-1.311, 4.625e-7
-1.310, 4.517e-7
-1.309, 4.497e-7
-1.308, 4.290e-7
-1.307, 4.171e-7
-1.306, 4.211e-7
-1.305, 4.122e-7
-1.304, 4.092e-7
-1.303, 4.161e-7
-1.302, 3.905e-7
-1.301, 3.984e-7
-1.300, 3.806e-7
-1.299, 3.589e-7
-1.298, 3.609e-7
-1.297, 3.510e-7
-1.296, 3.648e-7
-1.295, 3.431e-7
-1.294, 3.392e-7
-1.293, 3.461e-7
-1.292, 3.106e-7
-1.291, 3.313e-7
-1.290, 3.066e-7
-1.289, 3.027e-7
-1.288, 2.948e-7
-1.287, 2.987e-7
-1.286, 3.066e-7
-1.285, 2.908e-7
-1.284, 2.810e-7
-1.283, 2.790e-7
-1.282, 2.603e-7
-1.281, 2.672e-7
-1.280, 2.494e-7
-1.279, 2.484e-7
-1.278, 2.455e-7
-1.277, 2.395e-7
-1.276, 2.445e-7
-1.275, 2.297e-7
-1.274, 2.208e-7
-1.273, 2.080e-7
-1.272, 2.169e-7
-1.271, 2.139e-7
-1.270, 2.040e-7
-1.269, 2.070e-7
-1.268, 2.040e-7
-1.267, 1.715e-7
-1.266, 2.060e-7
-1.265, 1.823e-7
-1.264, 1.715e-7
-1.263, 1.784e-7
-1.262, 1.685e-7
-1.261, 1.675e-7
-1.260, 1.468e-7
-1.259, 1.596e-7
-1.258, 1.399e-7
-1.257, 1.369e-7
-1.256, 1.498e-7
-1.255, 1.271e-7
-1.254, 1.231e-7
-1.253, 1.162e-7
-1.252, 1.093e-7
-1.251, 1.142e-7
-1.250, 9.945e-8
-1.249, 8.761e-8
-1.248, 7.873e-8
-1.247, 9.748e-8
-1.246, 8.169e-8
-1.245, 7.577e-8
-1.244, 8.662e-8
-1.243, 6.689e-8
-1.242, 5.604e-8
-1.241, 6.886e-8
-1.240, 5.407e-8
-1.239, 5.012e-8
-1.238, 4.617e-8
-1.237, 4.025e-8
-1.236, 4.321e-8
-1.235, 2.841e-8
-1.234, 3.039e-8
-1.233, 3.335e-8
-1.232, 1.362e-8
-1.231, 4.223e-8
-1.230, 8.682e-9
-1.229, 1.855e-8
-1.228, 8.682e-9
-1.227, -1.184e-9
-1.226, -1.302e-8
-1.225, -5.130e-9
-1.224, -1.993e-8
-1.223, -2.486e-8
-1.222, -2.486e-8
-1.221, -1.500e-8
-1.220, -2.881e-8
-1.219, -4.163e-8
-1.218, -3.867e-8
-1.217, -4.262e-8
-1.216, -4.163e-8
-1.215, -5.545e-8
-1.214, -4.459e-8
-1.213, -6.729e-8
-1.212, -6.729e-8
-1.211, -7.222e-8
-1.210, -6.630e-8
-1.209, -7.222e-8
-1.208, -6.729e-8
-1.207, -7.715e-8
-1.206, -8.603e-8
-1.205, -8.011e-8
-1.204, -9.590e-8
-1.203, -9.787e-8
-1.202, -1.008e-7
-1.201, -8.208e-8
-1.200, -1.067e-7
-1.199, -9.392e-8
-1.198, -1.048e-7
-1.197, -1.146e-7
-1.196, -1.176e-7
-1.195, -1.176e-7
-1.194, -1.423e-7
-1.193, -1.117e-7
-1.192, -1.275e-7
-1.191, -1.206e-7
-1.190, -1.482e-7
-1.189, -1.551e-7
-1.188, -1.551e-7
-1.187, -1.650e-7
-1.186, -1.521e-7
-1.185, -1.590e-7
-1.184, -1.758e-7
-1.183, -1.748e-7
-1.182, -1.847e-7
-1.181, -1.650e-7
-1.180, -1.709e-7
-1.179, -1.867e-7
-1.178, -1.788e-7
-1.177, -1.837e-7
-1.176, -1.857e-7
-1.175, -1.916e-7
-1.174, -2.034e-7
-1.173, -2.015e-7
-1.172, -2.034e-7
-1.171, -1.896e-7
-1.170, -2.103e-7
-1.169, -2.064e-7
-1.168, -2.133e-7
-1.167, -2.271e-7
-1.166, -2.015e-7
-1.165, -2.271e-7
-1.164, -2.399e-7
-1.163, -2.350e-7
-1.162, -2.488e-7
-1.161, -2.488e-7
-1.160, -2.449e-7
-1.159, -2.439e-7
-1.158, -2.547e-7
-1.157, -2.508e-7
-1.156, -2.498e-7
-1.155, -2.686e-7
-1.154, -2.646e-7
-1.153, -2.626e-7
-1.152, -2.804e-7
-1.151, -2.883e-7
-1.150, -2.863e-7
-1.149, -2.893e-7
-1.148, -2.912e-7
-1.147, -2.942e-7
-1.146, -2.834e-7
-1.145, -2.804e-7
-1.144, -2.942e-7
-1.143, -2.863e-7
-1.142, -2.922e-7
-1.141, -2.883e-7
-1.140, -3.110e-7
-1.139, -3.120e-7
-1.138, -3.129e-7
-1.137, -3.120e-7
-1.136, -3.100e-7
-1.135, -3.199e-7
-1.134, -3.238e-7
-1.133, -3.218e-7
-1.132, -3.258e-7
-1.131, -3.297e-7
-1.130, -3.218e-7
-1.129, -3.465e-7
-1.128, -3.317e-7
-1.127, -3.524e-7
-1.126, -3.534e-7
-1.125, -3.435e-7
-1.124, -3.573e-7
-1.123, -3.603e-7
-1.122, -3.623e-7
-1.121, -3.554e-7
-1.120, -3.761e-7
-1.119, -3.810e-7
-1.118, -3.771e-7
-1.117, -3.593e-7
-1.116, -3.692e-7
-1.115, -3.731e-7
-1.114, -3.830e-7
-1.113, -3.840e-7
-1.112, -3.889e-7
-1.111, -3.741e-7
-1.110, -3.938e-7
-1.109, -4.037e-7
-1.108, -4.037e-7
-1.107, -3.968e-7
-1.106, -3.958e-7
-1.105, -4.057e-7
-1.104, -4.126e-7
-1.103, -4.067e-7
-1.102, -4.185e-7
-1.101, -4.215e-7
-1.100, -4.205e-7
-1.099, -4.195e-7
-1.098, -4.274e-7
-1.097, -4.363e-7
-1.096, -4.185e-7
-1.095, -4.343e-7
-1.094, -4.432e-7
-1.093, -4.412e-7
-1.092, -4.313e-7
-1.091, -4.422e-7
-1.090, -4.432e-7
-1.089, -4.530e-7
-1.088, -4.580e-7
-1.087, -4.530e-7
-1.086, -4.491e-7
-1.085, -4.501e-7
-1.084, -4.580e-7
-1.083, -4.718e-7
-1.082, -4.639e-7
-1.081, -4.787e-7
-1.080, -4.836e-7
-1.079, -4.787e-7
-1.078, -4.905e-7
-1.077, -4.846e-7
-1.076, -4.876e-7
-1.075, -4.866e-7
-1.074, -4.984e-7
-1.073, -4.925e-7
-1.072, -4.994e-7
-1.071, -4.866e-7
-1.070, -5.113e-7
-1.069, -4.974e-7
-1.068, -5.113e-7
-1.067, -5.142e-7
-1.066, -4.955e-7
-1.065, -5.201e-7
-1.064, -5.122e-7
-1.063, -5.093e-7
-1.062, -5.428e-7
-1.061, -4.955e-7
-1.060, -5.300e-7
-1.059, -5.438e-7
-1.058, -5.349e-7
-1.057, -5.507e-7
-1.056, -5.399e-7
-1.055, -5.557e-7
-1.054, -5.557e-7
-1.053, -5.507e-7
-1.052, -5.547e-7
-1.051, -5.448e-7
-1.050, -5.557e-7
-1.049, -5.714e-7
-1.048, -5.734e-7
-1.047, -5.803e-7
-1.046, -5.566e-7
-1.045, -5.774e-7
-1.044, -5.793e-7
-1.043, -5.922e-7
-1.042, -5.862e-7
-1.041, -5.734e-7
-1.040, -5.852e-7
-1.039, -5.704e-7
-1.038, -5.803e-7
-1.037, -5.882e-7
-1.036, -5.961e-7
-1.035, -6.040e-7
-1.034, -5.941e-7
-1.033, -5.941e-7
-1.032, -6.089e-7
-1.031, -6.089e-7
-1.030, -6.129e-7
-1.029, -6.218e-7
-1.028, -6.168e-7
-1.027, -6.178e-7
-1.026, -6.099e-7
-1.025, -6.375e-7
-1.024, -6.454e-7
-1.023, -6.336e-7
-1.022, -6.435e-7
-1.021, -6.425e-7
-1.020, -6.346e-7
-1.019, -6.514e-7
-1.018, -6.464e-7
-1.017, -6.494e-7
-1.016, -6.474e-7
-1.015, -6.612e-7
-1.014, -6.652e-7
-1.013, -6.563e-7
-1.012, -6.671e-7
-1.011, -6.602e-7
-1.010, -6.770e-7
-1.009, -6.622e-7
-1.008, -6.770e-7
-1.007, -6.731e-7
-1.006, -6.652e-7
-1.005, -6.829e-7
-1.004, -6.790e-7
-1.003, -6.908e-7
-1.002, -6.750e-7
-1.001, -6.790e-7
