Apr. 4, 2025   20:15:43
Cyclic Voltammetry
File: c:/users/guazh/data/banditlqround7_x0exp994_r5/2025-03-28-exp983\exp983-2025-04-04t20_03_26-h2koh\exp983_cv_sr_800mvs_efin_-1500mv.bin
Data Source:  Experiment
Instrument Model:  CHI760E
Header: CV ran at 800 mVs
Note: 

Init E (V) = -1
High E (V) = -1
Low E (V) = -1.5
Final E (V) = -1
Init P/N = N
Scan Rate (V/s) = 0.8
Segment = 3
Sample Interval (V) = 0.001
Quiet Time (sec) = 2
Sensitivity (A/V) = 0.01
Comp R (ohm) = 2.1

Results:

Channel 1:
Segment 1:

Segment 2:

Segment 3:

Potential/V, Current/A

-1.000, 1.249e-5
-1.001, 1.358e-4
-1.002, 2.376e-4
-1.003, 3.270e-4
-1.004, 3.979e-4
-1.005, 4.595e-4
-1.006, 5.089e-4
-1.007, 5.489e-4
-1.008, 5.859e-4
-1.009, 6.168e-4
-1.010, 6.414e-4
-1.011, 6.599e-4
-1.012, 6.784e-4
-1.013, 6.939e-4
-1.014, 7.093e-4
-1.015, 7.247e-4
-1.016, 7.370e-4
-1.017, 7.494e-4
-1.018, 7.617e-4
-1.019, 7.709e-4
-1.020, 7.771e-4
-1.021, 7.833e-4
-1.022, 7.863e-4
-1.023, 7.894e-4
-1.024, 7.925e-4
-1.025, 7.956e-4
-1.026, 7.987e-4
-1.027, 8.018e-4
-1.028, 8.048e-4
-1.029, 8.079e-4
-1.030, 8.141e-4
-1.031, 8.172e-4
-1.032, 8.233e-4
-1.033, 8.233e-4
-1.034, 8.264e-4
-1.035, 8.264e-4
-1.036, 8.264e-4
-1.037, 8.264e-4
-1.038, 8.264e-4
-1.039, 8.264e-4
-1.040, 8.295e-4
-1.041, 8.326e-4
-1.042, 8.357e-4
-1.043, 8.388e-4
-1.044, 8.449e-4
-1.045, 8.449e-4
-1.046, 8.480e-4
-1.047, 8.511e-4
-1.048, 8.480e-4
-1.049, 8.480e-4
-1.050, 8.480e-4
-1.051, 8.480e-4
-1.052, 8.480e-4
-1.053, 8.480e-4
-1.054, 8.511e-4
-1.055, 8.542e-4
-1.056, 8.542e-4
-1.057, 8.573e-4
-1.058, 8.603e-4
-1.059, 8.603e-4
-1.060, 8.634e-4
-1.061, 8.603e-4
-1.062, 8.603e-4
-1.063, 8.573e-4
-1.064, 8.573e-4
-1.065, 8.573e-4
-1.066, 8.573e-4
-1.067, 8.573e-4
-1.068, 8.634e-4
-1.069, 8.634e-4
-1.070, 8.696e-4
-1.071, 8.727e-4
-1.072, 8.758e-4
-1.073, 8.788e-4
-1.074, 8.788e-4
-1.075, 8.788e-4
-1.076, 8.788e-4
-1.077, 8.788e-4
-1.078, 8.788e-4
-1.079, 8.788e-4
-1.080, 8.788e-4
-1.081, 8.819e-4
-1.082, 8.850e-4
-1.083, 8.850e-4
-1.084, 8.881e-4
-1.085, 8.912e-4
-1.086, 8.943e-4
-1.087, 8.943e-4
-1.088, 8.943e-4
-1.089, 8.912e-4
-1.090, 8.943e-4
-1.091, 8.912e-4
-1.092, 8.943e-4
-1.093, 8.943e-4
-1.094, 8.973e-4
-1.095, 9.004e-4
-1.096, 9.066e-4
-1.097, 9.097e-4
-1.098, 9.128e-4
-1.099, 9.128e-4
-1.100, 9.158e-4
-1.101, 9.158e-4
-1.102, 9.158e-4
-1.103, 9.158e-4
-1.104, 9.158e-4
-1.105, 9.158e-4
-1.106, 9.158e-4
-1.107, 9.189e-4
-1.108, 9.220e-4
-1.109, 9.251e-4
-1.110, 9.282e-4
-1.111, 9.313e-4
-1.112, 9.343e-4
-1.113, 9.374e-4
-1.114, 9.374e-4
-1.115, 9.374e-4
-1.116, 9.405e-4
-1.117, 9.405e-4
-1.118, 9.374e-4
-1.119, 9.374e-4
-1.120, 9.405e-4
-1.121, 9.436e-4
-1.122, 9.467e-4
-1.123, 9.528e-4
-1.124, 9.559e-4
-1.125, 9.590e-4
-1.126, 9.621e-4
-1.127, 9.652e-4
-1.128, 9.621e-4
-1.129, 9.621e-4
-1.130, 9.621e-4
-1.131, 9.621e-4
-1.132, 9.652e-4
-1.133, 9.652e-4
-1.134, 9.683e-4
-1.135, 9.713e-4
-1.136, 9.744e-4
-1.137, 9.806e-4
-1.138, 9.837e-4
-1.139, 9.837e-4
-1.140, 9.898e-4
-1.141, 9.898e-4
-1.142, 9.898e-4
-1.143, 9.898e-4
-1.144, 9.898e-4
-1.145, 9.929e-4
-1.146, 9.929e-4
-1.147, 9.960e-4
-1.148, 1.002e-3
-1.149, 1.005e-3
-1.150, 1.008e-3
-1.151, 1.011e-3
-1.152, 1.014e-3
-1.153, 1.018e-3
-1.154, 1.021e-3
-1.155, 1.021e-3
-1.156, 1.021e-3
-1.157, 1.021e-3
-1.158, 1.021e-3
-1.159, 1.027e-3
-1.160, 1.027e-3
-1.161, 1.033e-3
-1.162, 1.036e-3
-1.163, 1.042e-3
-1.164, 1.045e-3
-1.165, 1.048e-3
-1.166, 1.051e-3
-1.167, 1.051e-3
-1.168, 1.051e-3
-1.169, 1.055e-3
-1.170, 1.055e-3
-1.171, 1.055e-3
-1.172, 1.058e-3
-1.173, 1.058e-3
-1.174, 1.061e-3
-1.175, 1.067e-3
-1.176, 1.070e-3
-1.177, 1.076e-3
-1.178, 1.082e-3
-1.179, 1.085e-3
-1.180, 1.085e-3
-1.181, 1.088e-3
-1.182, 1.088e-3
-1.183, 1.088e-3
-1.184, 1.088e-3
-1.185, 1.092e-3
-1.186, 1.095e-3
-1.187, 1.095e-3
-1.188, 1.098e-3
-1.189, 1.104e-3
-1.190, 1.107e-3
-1.191, 1.113e-3
-1.192, 1.116e-3
-1.193, 1.122e-3
-1.194, 1.122e-3
-1.195, 1.125e-3
-1.196, 1.129e-3
-1.197, 1.129e-3
-1.198, 1.132e-3
-1.199, 1.135e-3
-1.200, 1.135e-3
-1.201, 1.141e-3
-1.202, 1.144e-3
-1.203, 1.150e-3
-1.204, 1.156e-3
-1.205, 1.159e-3
-1.206, 1.159e-3
-1.207, 1.162e-3
-1.208, 1.162e-3
-1.209, 1.162e-3
-1.210, 1.166e-3
-1.211, 1.166e-3
-1.212, 1.166e-3
-1.213, 1.169e-3
-1.214, 1.172e-3
-1.215, 1.178e-3
-1.216, 1.181e-3
-1.217, 1.187e-3
-1.218, 1.190e-3
-1.219, 1.193e-3
-1.220, 1.199e-3
-1.221, 1.199e-3
-1.222, 1.199e-3
-1.223, 1.203e-3
-1.224, 1.206e-3
-1.225, 1.206e-3
-1.226, 1.209e-3
-1.227, 1.212e-3
-1.228, 1.215e-3
-1.229, 1.224e-3
-1.230, 1.227e-3
-1.231, 1.233e-3
-1.232, 1.236e-3
-1.233, 1.240e-3
-1.234, 1.240e-3
-1.235, 1.243e-3
-1.236, 1.246e-3
-1.237, 1.249e-3
-1.238, 1.249e-3
-1.239, 1.252e-3
-1.240, 1.252e-3
-1.241, 1.258e-3
-1.242, 1.261e-3
-1.243, 1.267e-3
-1.244, 1.273e-3
-1.245, 1.277e-3
-1.246, 1.280e-3
-1.247, 1.280e-3
-1.248, 1.280e-3
-1.249, 1.280e-3
-1.250, 1.280e-3
-1.251, 1.280e-3
-1.252, 1.283e-3
-1.253, 1.283e-3
-1.254, 1.289e-3
-1.255, 1.292e-3
-1.256, 1.298e-3
-1.257, 1.304e-3
-1.258, 1.307e-3
-1.259, 1.314e-3
-1.260, 1.317e-3
-1.261, 1.317e-3
-1.262, 1.320e-3
-1.263, 1.320e-3
-1.264, 1.320e-3
-1.265, 1.320e-3
-1.266, 1.320e-3
-1.267, 1.323e-3
-1.268, 1.326e-3
-1.269, 1.329e-3
-1.270, 1.335e-3
-1.271, 1.341e-3
-1.272, 1.344e-3
-1.273, 1.347e-3
-1.274, 1.351e-3
-1.275, 1.351e-3
-1.276, 1.354e-3
-1.277, 1.354e-3
-1.278, 1.357e-3
-1.279, 1.360e-3
-1.280, 1.363e-3
-1.281, 1.366e-3
-1.282, 1.372e-3
-1.283, 1.375e-3
-1.284, 1.381e-3
-1.285, 1.388e-3
-1.286, 1.391e-3
-1.287, 1.391e-3
-1.288, 1.394e-3
-1.289, 1.394e-3
-1.290, 1.397e-3
-1.291, 1.397e-3
-1.292, 1.400e-3
-1.293, 1.403e-3
-1.294, 1.406e-3
-1.295, 1.412e-3
-1.296, 1.418e-3
-1.297, 1.425e-3
-1.298, 1.431e-3
-1.299, 1.434e-3
-1.300, 1.440e-3
-1.301, 1.446e-3
-1.302, 1.446e-3
-1.303, 1.449e-3
-1.304, 1.452e-3
-1.305, 1.458e-3
-1.306, 1.462e-3
-1.307, 1.465e-3
-1.308, 1.471e-3
-1.309, 1.477e-3
-1.310, 1.486e-3
-1.311, 1.495e-3
-1.312, 1.499e-3
-1.313, 1.508e-3
-1.314, 1.508e-3
-1.315, 1.514e-3
-1.316, 1.517e-3
-1.317, 1.520e-3
-1.318, 1.523e-3
-1.319, 1.529e-3
-1.320, 1.536e-3
-1.321, 1.542e-3
-1.322, 1.551e-3
-1.323, 1.560e-3
-1.324, 1.569e-3
-1.325, 1.576e-3
-1.326, 1.585e-3
-1.327, 1.591e-3
-1.328, 1.597e-3
-1.329, 1.603e-3
-1.330, 1.610e-3
-1.331, 1.616e-3
-1.332, 1.625e-3
-1.333, 1.631e-3
-1.334, 1.643e-3
-1.335, 1.656e-3
-1.336, 1.668e-3
-1.337, 1.680e-3
-1.338, 1.693e-3
-1.339, 1.705e-3
-1.340, 1.717e-3
-1.341, 1.727e-3
-1.342, 1.736e-3
-1.343, 1.745e-3
-1.344, 1.758e-3
-1.345, 1.770e-3
-1.346, 1.782e-3
-1.347, 1.791e-3
-1.348, 1.810e-3
-1.349, 1.822e-3
-1.350, 1.841e-3
-1.351, 1.856e-3
-1.352, 1.872e-3
-1.353, 1.890e-3
-1.354, 1.902e-3
-1.355, 1.918e-3
-1.356, 1.933e-3
-1.357, 1.949e-3
-1.358, 1.967e-3
-1.359, 1.983e-3
-1.360, 1.998e-3
-1.361, 2.020e-3
-1.362, 2.041e-3
-1.363, 2.066e-3
-1.364, 2.087e-3
-1.365, 2.109e-3
-1.366, 2.134e-3
-1.367, 2.155e-3
-1.368, 2.177e-3
-1.369, 2.198e-3
-1.370, 2.223e-3
-1.371, 2.245e-3
-1.372, 2.269e-3
-1.373, 2.294e-3
-1.374, 2.322e-3
-1.375, 2.349e-3
-1.376, 2.377e-3
-1.377, 2.405e-3
-1.378, 2.436e-3
-1.379, 2.464e-3
-1.380, 2.491e-3
-1.381, 2.519e-3
-1.382, 2.550e-3
-1.383, 2.578e-3
-1.384, 2.605e-3
-1.385, 2.633e-3
-1.386, 2.664e-3
-1.387, 2.695e-3
-1.388, 2.726e-3
-1.389, 2.763e-3
-1.390, 2.793e-3
-1.391, 2.830e-3
-1.392, 2.864e-3
-1.393, 2.898e-3
-1.394, 2.932e-3
-1.395, 2.963e-3
-1.396, 2.994e-3
-1.397, 3.022e-3
-1.398, 3.052e-3
-1.399, 3.086e-3
-1.400, 3.120e-3
-1.401, 3.160e-3
-1.402, 3.197e-3
-1.403, 3.237e-3
-1.404, 3.278e-3
-1.405, 3.318e-3
-1.406, 3.361e-3
-1.407, 3.401e-3
-1.408, 3.438e-3
-1.409, 3.478e-3
-1.410, 3.518e-3
-1.411, 3.558e-3
-1.412, 3.601e-3
-1.413, 3.647e-3
-1.414, 3.694e-3
-1.415, 3.743e-3
-1.416, 3.789e-3
-1.417, 3.836e-3
-1.418, 3.879e-3
-1.419, 3.922e-3
-1.420, 3.965e-3
-1.421, 4.005e-3
-1.422, 4.048e-3
-1.423, 4.088e-3
-1.424, 4.128e-3
-1.425, 4.169e-3
-1.426, 4.212e-3
-1.427, 4.255e-3
-1.428, 4.298e-3
-1.429, 4.344e-3
-1.430, 4.394e-3
-1.431, 4.446e-3
-1.432, 4.495e-3
-1.433, 4.551e-3
-1.434, 4.603e-3
-1.435, 4.656e-3
-1.436, 4.711e-3
-1.437, 4.764e-3
-1.438, 4.819e-3
-1.439, 4.871e-3
-1.440, 4.927e-3
-1.441, 4.986e-3
-1.442, 5.047e-3
-1.443, 5.103e-3
-1.444, 5.161e-3
-1.445, 5.217e-3
-1.446, 5.272e-3
-1.447, 5.325e-3
-1.448, 5.377e-3
-1.449, 5.430e-3
-1.450, 5.482e-3
-1.451, 5.537e-3
-1.452, 5.593e-3
-1.453, 5.651e-3
-1.454, 5.716e-3
-1.455, 5.775e-3
-1.456, 5.840e-3
-1.457, 5.901e-3
-1.458, 5.966e-3
-1.459, 6.028e-3
-1.460, 6.089e-3
-1.461, 6.154e-3
-1.462, 6.219e-3
-1.463, 6.284e-3
-1.464, 6.342e-3
-1.465, 6.404e-3
-1.466, 6.462e-3
-1.467, 6.524e-3
-1.468, 6.589e-3
-1.469, 6.647e-3
-1.470, 6.703e-3
-1.471, 6.758e-3
-1.472, 6.808e-3
-1.473, 6.860e-3
-1.474, 6.912e-3
-1.475, 6.971e-3
-1.476, 7.039e-3
-1.477, 7.113e-3
-1.478, 7.190e-3
-1.479, 7.267e-3
-1.480, 7.341e-3
-1.481, 7.418e-3
-1.482, 7.489e-3
-1.483, 7.560e-3
-1.484, 7.625e-3
-1.485, 7.683e-3
-1.486, 7.733e-3
-1.487, 7.782e-3
-1.488, 7.837e-3
-1.489, 7.896e-3
-1.490, 7.961e-3
-1.491, 8.029e-3
-1.492, 8.112e-3
-1.493, 8.198e-3
-1.494, 8.284e-3
-1.495, 8.365e-3
-1.496, 8.445e-3
-1.497, 8.519e-3
-1.498, 8.587e-3
-1.499, 8.645e-3
-1.500, 8.614e-3
-1.499, 8.429e-3
-1.498, 8.284e-3
-1.497, 8.158e-3
-1.496, 8.047e-3
-1.495, 7.936e-3
-1.494, 7.831e-3
-1.493, 7.733e-3
-1.492, 7.637e-3
-1.491, 7.541e-3
-1.490, 7.443e-3
-1.489, 7.350e-3
-1.488, 7.261e-3
-1.487, 7.171e-3
-1.486, 7.091e-3
-1.485, 7.005e-3
-1.484, 6.919e-3
-1.483, 6.832e-3
-1.482, 6.740e-3
-1.481, 6.650e-3
-1.480, 6.561e-3
-1.479, 6.481e-3
-1.478, 6.404e-3
-1.477, 6.336e-3
-1.476, 6.268e-3
-1.475, 6.200e-3
-1.474, 6.129e-3
-1.473, 6.058e-3
-1.472, 5.981e-3
-1.471, 5.910e-3
-1.470, 5.840e-3
-1.469, 5.772e-3
-1.468, 5.704e-3
-1.467, 5.627e-3
-1.466, 5.553e-3
-1.465, 5.479e-3
-1.464, 5.408e-3
-1.463, 5.340e-3
-1.462, 5.275e-3
-1.461, 5.201e-3
-1.460, 5.127e-3
-1.459, 5.044e-3
-1.458, 4.964e-3
-1.457, 4.890e-3
-1.456, 4.819e-3
-1.455, 4.748e-3
-1.454, 4.677e-3
-1.453, 4.609e-3
-1.452, 4.545e-3
-1.451, 4.480e-3
-1.450, 4.418e-3
-1.449, 4.363e-3
-1.448, 4.304e-3
-1.447, 4.246e-3
-1.446, 4.184e-3
-1.445, 4.125e-3
-1.444, 4.064e-3
-1.443, 4.008e-3
-1.442, 3.953e-3
-1.441, 3.894e-3
-1.440, 3.839e-3
-1.439, 3.780e-3
-1.438, 3.725e-3
-1.437, 3.666e-3
-1.436, 3.604e-3
-1.435, 3.543e-3
-1.434, 3.478e-3
-1.433, 3.413e-3
-1.432, 3.348e-3
-1.431, 3.284e-3
-1.430, 3.225e-3
-1.429, 3.167e-3
-1.428, 3.114e-3
-1.427, 3.059e-3
-1.426, 3.009e-3
-1.425, 2.957e-3
-1.424, 2.911e-3
-1.423, 2.861e-3
-1.422, 2.815e-3
-1.421, 2.766e-3
-1.420, 2.716e-3
-1.419, 2.664e-3
-1.418, 2.615e-3
-1.417, 2.562e-3
-1.416, 2.513e-3
-1.415, 2.460e-3
-1.414, 2.411e-3
-1.413, 2.359e-3
-1.412, 2.309e-3
-1.411, 2.260e-3
-1.410, 2.214e-3
-1.409, 2.171e-3
-1.408, 2.124e-3
-1.407, 2.081e-3
-1.406, 2.032e-3
-1.405, 1.989e-3
-1.404, 1.943e-3
-1.403, 1.899e-3
-1.402, 1.853e-3
-1.401, 1.813e-3
-1.400, 1.770e-3
-1.399, 1.730e-3
-1.398, 1.690e-3
-1.397, 1.653e-3
-1.396, 1.613e-3
-1.395, 1.576e-3
-1.394, 1.536e-3
-1.393, 1.495e-3
-1.392, 1.455e-3
-1.391, 1.415e-3
-1.390, 1.378e-3
-1.389, 1.338e-3
-1.388, 1.301e-3
-1.387, 1.264e-3
-1.386, 1.230e-3
-1.385, 1.199e-3
-1.384, 1.169e-3
-1.383, 1.135e-3
-1.382, 1.101e-3
-1.381, 1.073e-3
-1.380, 1.039e-3
-1.379, 1.008e-3
-1.378, 9.744e-4
-1.377, 9.436e-4
-1.376, 9.128e-4
-1.375, 8.788e-4
-1.374, 8.480e-4
-1.373, 8.203e-4
-1.372, 7.894e-4
-1.371, 7.617e-4
-1.370, 7.339e-4
-1.369, 7.062e-4
-1.368, 6.784e-4
-1.367, 6.476e-4
-1.366, 6.199e-4
-1.365, 5.921e-4
-1.364, 5.613e-4
-1.363, 5.335e-4
-1.362, 5.058e-4
-1.361, 4.780e-4
-1.360, 4.534e-4
-1.359, 4.318e-4
-1.358, 4.071e-4
-1.357, 3.886e-4
-1.356, 3.640e-4
-1.355, 3.424e-4
-1.354, 3.208e-4
-1.353, 2.992e-4
-1.352, 2.776e-4
-1.351, 2.530e-4
-1.350, 2.283e-4
-1.349, 2.036e-4
-1.348, 1.821e-4
-1.347, 1.605e-4
-1.346, 1.389e-4
-1.345, 1.204e-4
-1.344, 1.019e-4
-1.343, 8.340e-5
-1.342, 6.798e-5
-1.341, 4.949e-5
-1.340, 3.099e-5
-1.339, 1.249e-5
-1.338, -9.093e-6
-1.337, -2.759e-5
-1.336, -4.917e-5
-1.335, -6.767e-5
-1.334, -8.617e-5
-1.333, -1.016e-4
-1.332, -1.170e-4
-1.331, -1.324e-4
-1.330, -1.448e-4
-1.329, -1.571e-4
-1.328, -1.756e-4
-1.327, -1.879e-4
-1.326, -2.033e-4
-1.325, -2.187e-4
-1.324, -2.372e-4
-1.323, -2.527e-4
-1.322, -2.712e-4
-1.321, -2.835e-4
-1.320, -2.958e-4
-1.319, -3.082e-4
-1.318, -3.205e-4
-1.317, -3.297e-4
-1.316, -3.421e-4
-1.315, -3.513e-4
-1.314, -3.606e-4
-1.313, -3.729e-4
-1.312, -3.821e-4
-1.311, -3.976e-4
-1.310, -4.099e-4
-1.309, -4.222e-4
-1.308, -4.315e-4
-1.307, -4.438e-4
-1.306, -4.531e-4
-1.305, -4.623e-4
-1.304, -4.716e-4
-1.303, -4.808e-4
-1.302, -4.870e-4
-1.301, -4.962e-4
-1.300, -5.055e-4
-1.299, -5.147e-4
-1.298, -5.271e-4
-1.297, -5.363e-4
-1.296, -5.486e-4
-1.295, -5.579e-4
-1.294, -5.671e-4
-1.293, -5.764e-4
-1.292, -5.795e-4
-1.291, -5.856e-4
-1.290, -5.918e-4
-1.289, -5.980e-4
-1.288, -6.041e-4
-1.287, -6.072e-4
-1.286, -6.134e-4
-1.285, -6.226e-4
-1.284, -6.288e-4
-1.283, -6.380e-4
-1.282, -6.442e-4
-1.281, -6.504e-4
-1.280, -6.565e-4
-1.279, -6.627e-4
-1.278, -6.689e-4
-1.277, -6.720e-4
-1.276, -6.781e-4
-1.275, -6.812e-4
-1.274, -6.874e-4
-1.273, -6.966e-4
-1.272, -6.997e-4
-1.271, -7.090e-4
-1.270, -7.151e-4
-1.269, -7.213e-4
-1.268, -7.275e-4
-1.267, -7.305e-4
-1.266, -7.336e-4
-1.265, -7.367e-4
-1.264, -7.398e-4
-1.263, -7.398e-4
-1.262, -7.398e-4
-1.261, -7.429e-4
-1.260, -7.460e-4
-1.259, -7.490e-4
-1.258, -7.521e-4
-1.257, -7.583e-4
-1.256, -7.645e-4
-1.255, -7.706e-4
-1.254, -7.737e-4
-1.253, -7.768e-4
-1.252, -7.799e-4
-1.251, -7.830e-4
-1.250, -7.830e-4
-1.249, -7.830e-4
-1.248, -7.891e-4
-1.247, -7.922e-4
-1.246, -7.953e-4
-1.245, -7.984e-4
-1.244, -8.045e-4
-1.243, -8.045e-4
-1.242, -8.107e-4
-1.241, -8.107e-4
-1.240, -8.138e-4
-1.239, -8.138e-4
-1.238, -8.138e-4
-1.237, -8.138e-4
-1.236, -8.169e-4
-1.235, -8.138e-4
-1.234, -8.169e-4
-1.233, -8.200e-4
-1.232, -8.230e-4
-1.231, -8.292e-4
-1.230, -8.292e-4
-1.229, -8.385e-4
-1.228, -8.415e-4
-1.227, -8.415e-4
-1.226, -8.446e-4
-1.225, -8.415e-4
-1.224, -8.415e-4
-1.223, -8.415e-4
-1.222, -8.385e-4
-1.221, -8.385e-4
-1.220, -8.415e-4
-1.219, -8.415e-4
-1.218, -8.446e-4
-1.217, -8.477e-4
-1.216, -8.508e-4
-1.215, -8.508e-4
-1.214, -8.539e-4
-1.213, -8.569e-4
-1.212, -8.569e-4
-1.211, -8.569e-4
-1.210, -8.569e-4
-1.209, -8.539e-4
-1.208, -8.539e-4
-1.207, -8.569e-4
-1.206, -8.569e-4
-1.205, -8.631e-4
-1.204, -8.662e-4
-1.203, -8.693e-4
-1.202, -8.724e-4
-1.201, -8.754e-4
-1.200, -8.754e-4
-1.199, -8.785e-4
-1.198, -8.754e-4
-1.197, -8.754e-4
-1.196, -8.754e-4
-1.195, -8.724e-4
-1.194, -8.724e-4
-1.193, -8.724e-4
-1.192, -8.754e-4
-1.191, -8.785e-4
-1.190, -8.816e-4
-1.189, -8.847e-4
-1.188, -8.878e-4
-1.187, -8.878e-4
-1.186, -8.878e-4
-1.185, -8.878e-4
-1.184, -8.847e-4
-1.183, -8.847e-4
-1.182, -8.816e-4
-1.181, -8.816e-4
-1.180, -8.816e-4
-1.179, -8.816e-4
-1.178, -8.847e-4
-1.177, -8.878e-4
-1.176, -8.909e-4
-1.175, -8.939e-4
-1.174, -8.939e-4
-1.173, -8.970e-4
-1.172, -8.970e-4
-1.171, -8.970e-4
-1.170, -9.001e-4
-1.169, -8.970e-4
-1.168, -8.970e-4
-1.167, -9.001e-4
-1.166, -9.001e-4
-1.165, -9.032e-4
-1.164, -9.063e-4
-1.163, -9.124e-4
-1.162, -9.124e-4
-1.161, -9.155e-4
-1.160, -9.155e-4
-1.159, -9.155e-4
-1.158, -9.124e-4
-1.157, -9.124e-4
-1.156, -9.094e-4
-1.155, -9.094e-4
-1.154, -9.124e-4
-1.153, -9.124e-4
-1.152, -9.124e-4
-1.151, -9.155e-4
-1.150, -9.155e-4
-1.149, -9.217e-4
-1.148, -9.248e-4
-1.147, -9.248e-4
-1.146, -9.248e-4
-1.145, -9.279e-4
-1.144, -9.248e-4
-1.143, -9.279e-4
-1.142, -9.279e-4
-1.141, -9.279e-4
-1.140, -9.279e-4
-1.139, -9.309e-4
-1.138, -9.309e-4
-1.137, -9.371e-4
-1.136, -9.402e-4
-1.135, -9.433e-4
-1.134, -9.464e-4
-1.133, -9.464e-4
-1.132, -9.433e-4
-1.131, -9.433e-4
-1.130, -9.433e-4
-1.129, -9.433e-4
-1.128, -9.402e-4
-1.127, -9.433e-4
-1.126, -9.464e-4
-1.125, -9.494e-4
-1.124, -9.525e-4
-1.123, -9.556e-4
-1.122, -9.587e-4
-1.121, -9.618e-4
-1.120, -9.649e-4
-1.119, -9.649e-4
-1.118, -9.649e-4
-1.117, -9.649e-4
-1.116, -9.649e-4
-1.115, -9.649e-4
-1.114, -9.679e-4
-1.113, -9.710e-4
-1.112, -9.741e-4
-1.111, -9.772e-4
-1.110, -9.834e-4
-1.109, -9.895e-4
-1.108, -9.926e-4
-1.107, -9.957e-4
-1.106, -9.988e-4
-1.105, -9.988e-4
-1.104, -9.988e-4
-1.103, -9.988e-4
-1.102, -9.957e-4
-1.101, -9.957e-4
-1.100, -9.988e-4
-1.099, -9.988e-4
-1.098, -1.002e-3
-1.097, -1.005e-3
-1.096, -1.005e-3
-1.095, -1.008e-3
-1.094, -1.011e-3
-1.093, -1.014e-3
-1.092, -1.017e-3
-1.091, -1.017e-3
-1.090, -1.020e-3
-1.089, -1.020e-3
-1.088, -1.020e-3
-1.087, -1.027e-3
-1.086, -1.033e-3
-1.085, -1.039e-3
-1.084, -1.045e-3
-1.083, -1.051e-3
-1.082, -1.060e-3
-1.081, -1.064e-3
-1.080, -1.070e-3
-1.079, -1.073e-3
-1.078, -1.076e-3
-1.077, -1.076e-3
-1.076, -1.079e-3
-1.075, -1.082e-3
-1.074, -1.082e-3
-1.073, -1.088e-3
-1.072, -1.091e-3
-1.071, -1.097e-3
-1.070, -1.101e-3
-1.069, -1.110e-3
-1.068, -1.116e-3
-1.067, -1.119e-3
-1.066, -1.125e-3
-1.065, -1.128e-3
-1.064, -1.131e-3
-1.063, -1.134e-3
-1.062, -1.134e-3
-1.061, -1.141e-3
-1.060, -1.144e-3
-1.059, -1.153e-3
-1.058, -1.159e-3
-1.057, -1.165e-3
-1.056, -1.171e-3
-1.055, -1.178e-3
-1.054, -1.184e-3
-1.053, -1.190e-3
-1.052, -1.193e-3
-1.051, -1.196e-3
-1.050, -1.199e-3
-1.049, -1.202e-3
-1.048, -1.205e-3
-1.047, -1.208e-3
-1.046, -1.215e-3
-1.045, -1.221e-3
-1.044, -1.230e-3
-1.043, -1.236e-3
-1.042, -1.242e-3
-1.041, -1.249e-3
-1.040, -1.258e-3
-1.039, -1.261e-3
-1.038, -1.267e-3
-1.037, -1.270e-3
-1.036, -1.276e-3
-1.035, -1.279e-3
-1.034, -1.286e-3
-1.033, -1.292e-3
-1.032, -1.298e-3
-1.031, -1.304e-3
-1.030, -1.310e-3
-1.029, -1.316e-3
-1.028, -1.322e-3
-1.027, -1.329e-3
-1.026, -1.332e-3
-1.025, -1.338e-3
-1.024, -1.341e-3
-1.023, -1.344e-3
-1.022, -1.347e-3
-1.021, -1.353e-3
-1.020, -1.359e-3
-1.019, -1.369e-3
-1.018, -1.375e-3
-1.017, -1.384e-3
-1.016, -1.393e-3
-1.015, -1.403e-3
-1.014, -1.409e-3
-1.013, -1.418e-3
-1.012, -1.424e-3
-1.011, -1.433e-3
-1.010, -1.440e-3
-1.009, -1.446e-3
-1.008, -1.455e-3
-1.007, -1.464e-3
-1.006, -1.474e-3
-1.005, -1.483e-3
-1.004, -1.492e-3
-1.003, -1.501e-3
-1.002, -1.511e-3
-1.001, -1.520e-3
