Potential V vs RHE, Current mA cm-2
0.013299999999999867,-0.08943804837746762
0.012299999999999978,-1.7471684553333202
0.011299999999999866,-2.968064307116847
0.010299999999999976,-3.840941179133574
0.009299999999999864,-4.538393849967037
0.008299999999999974,-4.974124930325469
0.007299999999999862,-5.411270721983764
0.006299999999999972,-5.715433651454749
0.00529999999999986,-6.021011292225596
0.0042999999999999705,-6.282732882700628
0.0032999999999998586,-6.500598422879844
0.0022999999999999687,-6.6760226240631075
0.0012999999999998568,-6.806176063650692
0.00029999999999996696,-6.893888164242324
-0.000700000000000145,-6.893888164242324
-0.0017000000000000348,-6.981600264833956
-0.0027000000000001467,-7.067897654125724
-0.0037000000000000366,-7.155609754717355
-0.0047000000000001485,-7.243321855308987
-0.005700000000000038,-7.329619244600755
-0.00670000000000015,-7.37347529489657
-0.00770000000000004,-7.37347529489657
-0.008700000000000152,-7.37347529489657
-0.009700000000000042,-7.37347529489657
-0.010700000000000154,-7.461187395488204
-0.011700000000000044,-7.50504344578402
-0.012700000000000156,-7.5474847847799715
-0.013700000000000045,-7.635196885371603
-0.014700000000000157,-7.679052935667419
-0.015700000000000047,-7.635196885371603
-0.01670000000000016,-7.635196885371603
-0.01770000000000005,-7.635196885371603
-0.01870000000000016,-7.635196885371603
-0.01970000000000005,-7.679052935667419
-0.020700000000000163,-7.722908985963235
-0.021700000000000053,-7.7653503249591855
-0.022700000000000164,-7.853062425550818
-0.023700000000000054,-7.809206375255003
-0.024700000000000166,-7.809206375255003
-0.025700000000000056,-7.7653503249591855
-0.026700000000000168,-7.7653503249591855
-0.027700000000000058,-7.809206375255003
-0.02870000000000017,-7.853062425550818
-0.02970000000000006,-7.896918475846635
-0.03070000000000017,-7.984630576438266
-0.03170000000000006,-7.984630576438266
-0.03270000000000017,-7.984630576438266
-0.03370000000000006,-7.940774526142452
-0.034700000000000175,-7.940774526142452
-0.035700000000000065,-7.940774526142452
-0.03670000000000018,-8.027071915434218
-0.03770000000000007,-8.070927965730034
-0.03870000000000018,-8.11478401602585
-0.03970000000000007,-8.11478401602585
-0.04070000000000018,-8.11478401602585
-0.04170000000000007,-8.070927965730034
-0.04270000000000018,-8.027071915434218
-0.04370000000000007,-8.027071915434218
-0.044700000000000184,-8.11478401602585
-0.045700000000000074,-8.158640066321666
-0.046700000000000186,-8.246352166913299
-0.047700000000000076,-8.246352166913299
-0.04870000000000019,-8.246352166913299
-0.04970000000000008,-8.202496116617484
-0.05070000000000019,-8.158640066321666
-0.05170000000000008,-8.158640066321666
-0.05270000000000019,-8.202496116617484
-0.05370000000000008,-8.246352166913299
-0.05470000000000019,-8.332649556205066
-0.05570000000000008,-8.332649556205066
-0.056700000000000195,-8.376505606500881
-0.057700000000000085,-8.332649556205066
-0.058700000000000196,-8.288793505909249
-0.059700000000000086,-8.332649556205066
-0.0607000000000002,-8.332649556205066
-0.06170000000000009,-8.376505606500881
-0.0627000000000002,-8.464217707092514
-0.06370000000000009,-8.464217707092514
-0.0647000000000002,-8.508073757388331
-0.06570000000000009,-8.464217707092514
-0.0667000000000002,-8.464217707092514
-0.0677000000000001,-8.4203616567967
-0.0687000000000002,-8.464217707092514
-0.0697000000000001,-8.464217707092514
-0.07070000000000021,-8.508073757388331
-0.0717000000000001,-8.55051509638428
-0.07270000000000021,-8.55051509638428
-0.0737000000000001,-8.594371146680096
-0.07470000000000021,-8.594371146680096
-0.0757000000000001,-8.594371146680096
-0.07670000000000021,-8.594371146680096
-0.0777000000000001,-8.638227196975913
-0.07870000000000021,-8.68208324727173
-0.0797000000000001,-8.725939297567548
-0.08070000000000022,-8.769795347863363
-0.0817000000000001,-8.725939297567548
-0.08270000000000022,-8.68208324727173
-0.08370000000000011,-8.638227196975913
-0.08470000000000022,-8.638227196975913
-0.08570000000000011,-8.68208324727173
-0.08670000000000022,-8.769795347863363
-0.08770000000000011,-8.812236686859313
-0.08870000000000022,-8.899948787450944
-0.08970000000000011,-8.943804837746763
-0.09070000000000022,-8.943804837746763
-0.09170000000000011,-8.943804837746763
-0.09270000000000023,-8.899948787450944
-0.09370000000000012,-8.899948787450944
-0.09470000000000023,-8.943804837746763
-0.09570000000000012,-8.943804837746763
-0.09670000000000023,-9.031516938338395
-0.09770000000000012,-9.073958277334345
-0.09870000000000023,-9.073958277334345
-0.09970000000000012,-9.073958277334345
-0.10070000000000023,-9.031516938338395
-0.10170000000000012,-9.031516938338395
-0.10270000000000024,-9.11781432763016
-0.10370000000000013,-9.161670377925978
-0.10470000000000024,-9.24938247851761
-0.10570000000000013,-9.293238528813426
-0.10670000000000024,-9.293238528813426
-0.10770000000000013,-9.293238528813426
-0.10870000000000024,-9.24938247851761
-0.10970000000000013,-9.24938247851761
-0.11070000000000024,-9.24938247851761
-0.11170000000000013,-9.293238528813426
-0.11270000000000002,-9.379535918105192
-0.11370000000000013,-9.423391968401008
-0.11470000000000002,-9.467248018696827
-0.11570000000000014,-9.423391968401008
-0.11670000000000003,-9.423391968401008
-0.11770000000000014,-9.423391968401008
-0.11870000000000003,-9.423391968401008
-0.11970000000000014,-9.467248018696827
-0.12070000000000003,-9.55496011928846
-0.12170000000000014,-9.641257508580225
-0.12270000000000003,-9.641257508580225
-0.12370000000000014,-9.641257508580225
-0.12470000000000003,-9.641257508580225
-0.12570000000000014,-9.59740145828441
-0.12670000000000003,-9.59740145828441
-0.12770000000000015,-9.641257508580225
-0.12870000000000004,-9.685113558876042
-0.12970000000000015,-9.81668170976349
-0.13070000000000004,-9.902979099055257
-0.13170000000000015,-9.946835149351072
-0.13270000000000004,-9.946835149351072
-0.13370000000000015,-9.902979099055257
-0.13470000000000004,-9.902979099055257
-0.13570000000000015,-9.902979099055257
-0.13670000000000004,-9.902979099055257
-0.13770000000000016,-9.946835149351072
-0.13870000000000005,-9.99069119964689
-0.13970000000000016,-10.078403300238522
-0.14070000000000005,-10.034547249942705
-0.14170000000000016,-10.078403300238522
-0.14270000000000005,-10.078403300238522
-0.14370000000000016,-10.120844639234473
-0.14470000000000005,-10.208556739826104
-0.14570000000000016,-10.296268840417738
-0.14670000000000005,-10.382566229709504
-0.14770000000000016,-10.42642228000532
-0.14870000000000005,-10.42642228000532
-0.14970000000000017,-10.42642228000532
-0.15070000000000006,-10.42642228000532
-0.15170000000000017,-10.42642228000532
-0.15270000000000006,-10.470278330301136
-0.15370000000000017,-10.557990430892769
-0.15470000000000006,-10.601846481188586
-0.15570000000000017,-10.644287820184536
-0.15670000000000006,-10.644287820184536
-0.15770000000000017,-10.644287820184536
-0.15870000000000006,-10.601846481188586
-0.15970000000000018,-10.601846481188586
-0.16070000000000007,-10.644287820184536
-0.16170000000000018,-10.731999920776168
-0.16270000000000007,-10.863568071663616
-0.16370000000000018,-10.949865460955383
-0.16470000000000007,-10.993721511251199
-0.16570000000000018,-10.993721511251199
-0.16670000000000007,-10.949865460955383
-0.16770000000000018,-10.906009410659568
-0.16870000000000007,-10.906009410659568
-0.16970000000000018,-10.949865460955383
-0.17070000000000007,-10.993721511251199
-0.17170000000000019,-11.123874950838783
-0.17270000000000008,-11.123874950838783
-0.1737000000000002,-11.1677310011346
-0.17470000000000008,-11.1677310011346
-0.1757000000000002,-11.1677310011346
-0.17670000000000008,-11.211587051430415
-0.1777000000000002,-11.299299152022046
-0.17870000000000008,-11.385596541313816
-0.1797000000000002,-11.473308641905447
-0.18070000000000008,-11.517164692201263
-0.1817000000000002,-11.56102074249708
-0.18270000000000008,-11.56102074249708
-0.1837000000000002,-11.56102074249708
-0.1847000000000001,-11.56102074249708
-0.1857000000000002,-11.56102074249708
-0.1867000000000001,-11.647318131788847
-0.1877000000000002,-11.691174182084664
-0.1887000000000001,-11.73503023238048
-0.1897000000000002,-11.778886282676295
-0.1907000000000001,-11.778886282676295
-0.1917000000000001,-11.73503023238048
-0.19269999999999998,-11.73503023238048
-0.1937000000000001,-11.778886282676295
-0.19469999999999998,-11.82274233297211
-0.1957000000000001,-11.909039722263879
-0.19669999999999999,-11.996751822855511
-0.1977000000000001,-12.040607873151327
-0.1987,-12.040607873151327
-0.1997000000000001,-12.040607873151327
-0.2007,-12.040607873151327
-0.2017000000000001,-12.040607873151327
-0.2027,-12.084463923447142
-0.2037000000000001,-12.170761312738911
-0.2047,-12.214617363034726
-0.2057000000000001,-12.258473413330542
-0.2067,-12.302329463626359
-0.2077000000000001,-12.302329463626359
-0.2087,-12.258473413330542
-0.2097000000000001,-12.258473413330542
-0.2107,-12.302329463626359
-0.2117000000000001,-12.346185513922174
-0.2127,-12.432482903213943
-0.2137000000000001,-12.432482903213943
-0.2147,-12.520195003805576
-0.2157000000000001,-12.520195003805576
-0.2167,-12.520195003805576
-0.21770000000000012,-12.476338953509758
-0.2187,-12.476338953509758
-0.21970000000000012,-12.520195003805576
-0.2207,-12.607907104397206
-0.22170000000000012,-12.651763154693022
-0.2227,-12.73806054398479
-0.22370000000000012,-12.73806054398479
-0.2247,-12.694204493688973
-0.22570000000000012,-12.651763154693022
-0.2267,-12.651763154693022
-0.22770000000000012,-12.694204493688973
-0.22870000000000001,-12.73806054398479
-0.22970000000000013,-12.781916594280606
-0.23070000000000002,-12.825772644576423
-0.23170000000000013,-12.869628694872238
-0.23270000000000002,-12.869628694872238
-0.23370000000000013,-12.825772644576423
-0.23470000000000002,-12.825772644576423
-0.23570000000000013,-12.869628694872238
-0.23670000000000002,-12.913484745168056
-0.2376999999999999,-12.99978213445982
-0.23870000000000002,-13.043638184755638
-0.2396999999999999,-13.043638184755638
-0.24070000000000003,-12.99978213445982
-0.24169999999999991,-12.99978213445982
-0.24270000000000003,-12.955926084164007
-0.24369999999999992,-12.955926084164007
-0.24470000000000003,-12.99978213445982
-0.24569999999999992,-13.043638184755638
-0.24670000000000003,-13.13135028534727
-0.24769999999999992,-13.175206335643086
-0.24870000000000003,-13.217647674639037
-0.24969999999999992,-13.175206335643086
-0.25070000000000003,-13.175206335643086
-0.2516999999999999,-13.217647674639037
-0.25270000000000004,-13.261503724934855
-0.2536999999999999,-13.30535977523067
-0.25470000000000004,-13.3930718758223
-0.2556999999999999,-13.3930718758223
-0.25670000000000004,-13.436927926118118
-0.25769999999999993,-13.3930718758223
-0.25870000000000004,-13.349215825526485
-0.25969999999999993,-13.349215825526485
-0.26070000000000004,-13.3930718758223
-0.26169999999999993,-13.436927926118118
-0.26270000000000004,-13.523225315409885
-0.26369999999999993,-13.610937416001518
-0.26470000000000005,-13.654793466297335
-0.26569999999999994,-13.654793466297335
-0.26670000000000005,-13.654793466297335
-0.26769999999999994,-13.654793466297335
-0.26870000000000005,-13.654793466297335
-0.26969999999999994,-13.698649516593148
-0.27070000000000005,-13.784946905884919
-0.27169999999999994,-13.828802956180734
-0.27270000000000005,-13.872659006476551
-0.27369999999999994,-13.872659006476551
-0.27470000000000006,-13.872659006476551
-0.27569999999999995,-13.872659006476551
-0.27670000000000006,-13.872659006476551
-0.27769999999999995,-13.916515056772363
-0.27870000000000006,-14.002812446064135
-0.27969999999999995,-14.090524546655764
-0.28070000000000006,-14.175407224647667
-0.28169999999999995,-14.175407224647667
-0.28270000000000006,-14.175407224647667
-0.28369999999999995,-14.175407224647667
-0.28470000000000006,-14.175407224647667
-0.28569999999999995,-14.217848563643619
-0.28670000000000007,-14.30273124163552
-0.28769999999999996,-14.345172580631472
-0.28870000000000007,-14.486643710617974
-0.28969999999999996,-14.529085049613924
-0.29070000000000007,-14.57152638860988
-0.29169999999999996,-14.61396772760583
-0.29270000000000007,-14.65640906660178
-0.29369999999999996,-14.69885040559773
-0.2947000000000001,-14.783733083589633
-0.29569999999999996,-14.868615761581536
-0.2967000000000001,-14.967645552572087
-0.29769999999999996,-15.05252823056399
-0.2987000000000001,-15.05252823056399
-0.29969999999999997,-15.094969569559943
-0.3007000000000001,-15.137410908555893
-0.30169999999999997,-15.222293586547794
-0.3027000000000001,-15.349617603535648
-0.30369999999999997,-15.491088733522153
-0.3047000000000001,-15.660854089505953
-0.30569999999999997,-15.78817810649381
-0.3067000000000001,-15.87306078448571
-0.3077,-15.972090575476265
-0.3087000000000001,-16.056973253468165
-0.3097,-16.141855931460068
-0.3107000000000001,-16.22673860945197
-0.3117,-16.396503965435777
-0.3127000000000001,-16.580416434418233
-0.3137,-16.750181790402035
-0.3147000000000001,-16.877505807389888
-0.3157,-17.018976937376394
-0.3167000000000001,-17.103859615368293
-0.3177,-17.231183632356142
-0.3187000000000001,-17.358507649344002
-0.3197,-17.542420118326454
-0.3207000000000001,-17.75462681330621
-0.3217,-17.966833508285966
-0.3227000000000001,-18.19318731626437
-0.3237,-18.362952672248177
-0.3247000000000001,-18.53271802823198
-0.3257,-18.674189158218486
-0.3267000000000001,-18.88639585319824
-0.3277,-19.155191000172596
-0.3287000000000001,-19.409839034148305
-0.3297,-19.678634181122664
-0.3307000000000001,-19.93328221509837
-0.3317,-20.159636023076775
-0.3327000000000001,-20.329401379060574
-0.3337,-20.499166735044383
-0.3347000000000001,-20.72552054302279
-0.3357,-20.980168576998494
-0.3367000000000001,-21.291405062968803
-0.3377,-21.54605309694451
-0.3387000000000001,-21.899730921910766
-0.3397,-22.196820294882425
-0.3407000000000001,-22.42317410286083
-0.3417,-22.67782213683654
-0.3427000000000001,-22.989058622806844
-0.3437,-23.24370665678255
-0.3447000000000001,-23.55494314275286
-0.3457,-23.908620967719123
-0.3467000000000001,-24.20571034069078
-0.3477,-24.559388165657033
-0.3487000000000001,-24.814036199632742
-0.3497,-25.12527268560305
-0.3507000000000001,-25.43650917157336
-0.3517,-25.73359854454502
-0.3527000000000001,-26.044835030515326
-0.3537,-26.440954194477534
-0.3547000000000001,-26.822926245441096
-0.3557,-27.176604070407354
-0.35670000000000013,-27.572723234369565
-0.3577,-27.912253946337174
-0.35870000000000013,-28.22349043230748
-0.3597,-28.619609596269694
-0.36070000000000013,-28.959140308237306
-0.3617,-29.39770081119546
-0.3626999999999999,-29.836261314153624
-0.3637,-30.232380478115836
-0.3646999999999999,-30.614352529079397
-0.3657,-31.052913032037555
-0.3666999999999999,-31.40659085700382
-0.3677,-31.84515135996197
-0.3686999999999999,-32.283711862920136
-0.36970000000000003,-32.764713704874254
-0.3706999999999999,-33.231568433829715
-0.37170000000000003,-33.755011614779775
-0.3726999999999999,-34.193572117737936
-0.37370000000000003,-34.632132620696105
-0.3746999999999999,-35.07069312365426
-0.37570000000000003,-35.50925362661242
-0.3766999999999999,-36.03269680756248
-0.37770000000000004,-36.5136986495166
-0.3786999999999999,-37.07958316946261
-0.37970000000000004,-37.687909028404576
-0.3806999999999999,-38.253793548350586
-0.38170000000000004,-38.81967806829661
-0.38269999999999993,-39.30067991025072
-0.38370000000000004,-39.696799074212926
-0.38469999999999993,-40.135359577171094
-0.38570000000000004,-40.559772967130606
-0.38669999999999993,-41.04077480908471
-0.38770000000000004,-41.52177665103883
-0.38869999999999993,-42.04521983198889
-0.38970000000000005,-42.526221673943
-0.39069999999999994,-43.09210619388902
-0.39170000000000005,-43.70043205283099
-0.39269999999999994,-44.3229050247716
-0.39370000000000005,-44.97367222270952
-0.39469999999999994,-45.666880759643384
-0.39570000000000005,-46.37423640957591
-0.39669999999999994,-47.02500360751382
-0.39770000000000005,-47.590888127459834
-0.39869999999999994,-48.114331308409895
-0.39970000000000006,-48.63777448935996
-0.40069999999999995,-49.16121767031002
-0.40170000000000006,-49.68466085126009
-0.40269999999999995,-50.29298671020206
-0.40370000000000006,-50.943753908139975
-0.40469999999999995,-51.65110955807249
-0.40570000000000006,-52.34431809500636
-0.40669999999999995,-52.995085292944275
-0.40770000000000006,-53.603411151886235
-0.40869999999999995,-54.26832546282281
-0.40970000000000006,-54.876651321764776
-0.41069999999999995,-55.527418519702685
-0.41170000000000007,-56.26306839563251
-0.41269999999999996,-56.97042404556503
-0.41370000000000007,-57.7485152604908
-0.41469999999999996,-58.45587091042332
-0.41570000000000007,-59.14907944735718
-0.41669999999999996,-59.7998466452951
-0.41770000000000007,-60.49305518222897
-0.41869999999999996,-61.20041083216149
-0.4197000000000001,-61.936060708091304
-0.42069999999999996,-62.77074037501168
-0.4217000000000001,-63.59127292893339
-0.42269999999999996,-64.42595259585376
-0.4237000000000001,-65.20404381077954
-0.42469999999999997,-65.95384079970802
-0.4257000000000001,-66.60460799764593
-0.42669999999999997,-67.34025787357575
-0.4277000000000001,-68.0900548625042
-0.42869999999999997,-68.82570473843404
-0.4297000000000001,-69.61794306635846
-0.43069999999999997,-70.39603428128423
-0.4317000000000001,-71.1458312702127
-0.4327,-71.8814811461425
-0.4337000000000001,-72.67371947406694
-0.4347,-73.40936934999675
-0.4357000000000001,-74.24404901691713
-0.4367,-75.1070229098348
-0.4377000000000001,-76.06902659374302
-0.4387,-77.03103027765125
-0.4397000000000001,-77.90815128356756
-0.4407,-78.72868383748929
-0.4417000000000001,-79.56336350440966
-0.4427,-80.34145471933543
-0.4437000000000001,-81.09125170826391
-0.4447,-81.86934292318966
-0.4457000000000001,-82.6615812511141
-0.4467,-83.48211380503581
-0.4477000000000001,-84.23191079396429
-0.4487,-85.13732602587791
-0.4497000000000001,-86.05688837079018
-0.4507,-87.01889205469841
-0.4517000000000001,-88.10821975559449
-0.4527,-89.11266477849867
-0.4537000000000001,-90.07466846240689
-0.4547,-90.99423080731917
-0.4557000000000001,-91.85720470023682
-0.4567,-92.73432570615316
-0.4577000000000001,-93.46997558208298
-0.4587,-94.30465524900335
-0.4597000000000001,-95.12518780292505
-0.4607,-96.0871914868333
-0.4617000000000001,-97.04919517074151
-0.4627,-98.05364019364569
-0.4637000000000001,-99.10052655554581
-0.4647,-100.18985425644189
-0.4657000000000001,-101.32162329633393
-0.4667,-102.4958336752219
-0.4677000000000001,-103.7266325061045
-0.4687,-104.94328422398843
-0.4697000000000001,-106.07505326388046
-0.4707,-107.07949828678463
-0.4717000000000001,-108.04150197069285
-0.4727,-108.96106431560513
-0.4737000000000001,-109.8240382085228
-0.4747,-110.74360055343507
-0.4757000000000001,-111.83292825433115
-0.4767,-113.10616842420968
-0.4777000000000001,-114.23793746410173
-0.4787,-115.19994114800993
-0.4797000000000001,-116.02047370193165
-0.4807,-116.81271202985609
-0.48170000000000013,-117.54836190578591
-0.4827,-118.3406002337103
-0.48370000000000013,-119.47236927360234
-0.4847,-120.64657965249035
-0.48570000000000013,-121.86323137037427
-0.4867,-121.77834869238235
-0.48570000000000013,-119.72701730757805
-0.4847,-118.07180508673595
-0.48370000000000013,-116.50147554388576
-0.4827,-114.84626332304367
-0.48170000000000013,-113.00713863321914
-0.4807,-111.18216105639323
-0.4797000000000001,-109.4845074965552
-0.4787,-108.04150197069285
-0.4777000000000001,-106.82485025280893
-0.4767,-105.7779638909088
-0.4757000000000001,-104.81596020700057
-0.4747,-103.98128054008019
-0.4737000000000001,-103.16074798615847
-0.4727,-102.24118564124619
-0.4717000000000001,-101.27918195733798
-0.4707,-100.23229559543785
-0.4697000000000001,-99.10052655554581
-0.4687,-97.84143349866595
-0.4677000000000001,-96.44086931179956
-0.4667,-95.08274646392913
-0.4657000000000001,-93.78121206805329
-0.4647,-92.42308922018285
-0.4637000000000001,-91.20643750229891
