Potential V vs RHE, Current mA cm-2
0.013299999999999867,-0.2202705493889862
0.012299999999999978,-1.8773218949209036
0.011299999999999866,-3.0996324580042955
0.010299999999999976,-4.102662769608606
0.009299999999999864,-4.887827541033701
0.008299999999999974,-5.497568111275533
0.007299999999999862,-6.021011292225596
0.006299999999999972,-6.458157083883892
0.00529999999999986,-6.850032113946507
0.0042999999999999705,-7.199465805013171
0.0032999999999998586,-7.4173313451923875
0.0022999999999999687,-7.635196885371603
0.0012999999999998568,-7.809206375255003
0.00029999999999996696,-7.940774526142452
-0.000700000000000145,-8.027071915434218
-0.0017000000000000348,-8.11478401602585
-0.0027000000000001467,-8.202496116617484
-0.0037000000000000366,-8.376505606500881
-0.0047000000000001485,-8.464217707092514
-0.005700000000000038,-8.55051509638428
-0.00670000000000015,-8.638227196975913
-0.00770000000000004,-8.68208324727173
-0.008700000000000152,-8.725939297567548
-0.009700000000000042,-8.725939297567548
-0.010700000000000154,-8.725939297567548
-0.011700000000000044,-8.769795347863363
-0.012700000000000156,-8.812236686859313
-0.013700000000000045,-8.85609273715513
-0.014700000000000157,-8.943804837746763
-0.015700000000000047,-8.987660888042578
-0.01670000000000016,-9.073958277334345
-0.01770000000000005,-9.11781432763016
-0.01870000000000016,-9.11781432763016
-0.01970000000000005,-9.11781432763016
-0.020700000000000163,-9.031516938338395
-0.021700000000000053,-9.031516938338395
-0.022700000000000164,-9.031516938338395
-0.023700000000000054,-9.031516938338395
-0.024700000000000166,-9.073958277334345
-0.025700000000000056,-9.11781432763016
-0.026700000000000168,-9.161670377925978
-0.027700000000000058,-9.161670377925978
-0.02870000000000017,-9.205526428221793
-0.02970000000000006,-9.161670377925978
-0.03070000000000017,-9.205526428221793
-0.03170000000000006,-9.205526428221793
-0.03270000000000017,-9.24938247851761
-0.03370000000000006,-9.293238528813426
-0.034700000000000175,-9.335679867809377
-0.035700000000000065,-9.379535918105192
-0.03670000000000018,-9.379535918105192
-0.03770000000000007,-9.379535918105192
-0.03870000000000018,-9.379535918105192
-0.03970000000000007,-9.379535918105192
-0.04070000000000018,-9.335679867809377
-0.04170000000000007,-9.335679867809377
-0.04270000000000018,-9.379535918105192
-0.04370000000000007,-9.423391968401008
-0.044700000000000184,-9.467248018696827
-0.045700000000000074,-9.511104068992642
-0.046700000000000186,-9.55496011928846
-0.047700000000000076,-9.55496011928846
-0.04870000000000019,-9.511104068992642
-0.04970000000000008,-9.511104068992642
-0.05070000000000019,-9.467248018696827
-0.05170000000000008,-9.467248018696827
-0.05270000000000019,-9.467248018696827
-0.05370000000000008,-9.55496011928846
-0.05470000000000019,-9.59740145828441
-0.05570000000000008,-9.685113558876042
-0.056700000000000195,-9.728969609171857
-0.057700000000000085,-9.772825659467674
-0.058700000000000196,-9.772825659467674
-0.059700000000000086,-9.772825659467674
-0.0607000000000002,-9.772825659467674
-0.06170000000000009,-9.81668170976349
-0.0627000000000002,-9.81668170976349
-0.06370000000000009,-9.85912304875944
-0.0647000000000002,-9.902979099055257
-0.06570000000000009,-9.902979099055257
-0.0667000000000002,-9.902979099055257
-0.0677000000000001,-9.902979099055257
-0.0687000000000002,-9.85912304875944
-0.0697000000000001,-9.85912304875944
-0.07070000000000021,-9.81668170976349
-0.0717000000000001,-9.81668170976349
-0.07270000000000021,-9.85912304875944
-0.0737000000000001,-9.902979099055257
-0.07470000000000021,-9.946835149351072
-0.0757000000000001,-10.034547249942705
-0.07670000000000021,-10.078403300238522
-0.0777000000000001,-10.120844639234473
-0.07870000000000021,-10.120844639234473
-0.0797000000000001,-10.120844639234473
-0.08070000000000022,-10.078403300238522
-0.0817000000000001,-10.078403300238522
-0.08270000000000022,-10.078403300238522
-0.08370000000000011,-10.120844639234473
-0.08470000000000022,-10.164700689530287
-0.08570000000000011,-10.208556739826104
-0.08670000000000022,-10.25241279012192
-0.08770000000000011,-10.208556739826104
-0.08870000000000022,-10.208556739826104
-0.08970000000000011,-10.208556739826104
-0.09070000000000022,-10.208556739826104
-0.09170000000000011,-10.208556739826104
-0.09270000000000023,-10.25241279012192
-0.09370000000000012,-10.296268840417738
-0.09470000000000023,-10.382566229709504
-0.09570000000000012,-10.42642228000532
-0.09670000000000023,-10.42642228000532
-0.09770000000000012,-10.470278330301136
-0.09870000000000023,-10.470278330301136
-0.09970000000000012,-10.470278330301136
-0.10070000000000023,-10.42642228000532
-0.10170000000000012,-10.42642228000532
-0.10270000000000024,-10.42642228000532
-0.10370000000000013,-10.470278330301136
-0.10470000000000024,-10.514134380596953
-0.10570000000000013,-10.601846481188586
-0.10670000000000024,-10.644287820184536
-0.10770000000000013,-10.688143870480351
-0.10870000000000024,-10.688143870480351
-0.10970000000000013,-10.688143870480351
-0.11070000000000024,-10.688143870480351
-0.11170000000000013,-10.688143870480351
-0.11270000000000002,-10.731999920776168
-0.11370000000000013,-10.775855971071984
-0.11470000000000002,-10.863568071663616
-0.11570000000000014,-10.906009410659568
-0.11670000000000003,-10.949865460955383
-0.11770000000000014,-10.993721511251199
-0.11870000000000003,-10.949865460955383
-0.11970000000000014,-10.949865460955383
-0.12070000000000003,-10.949865460955383
-0.12170000000000014,-10.949865460955383
-0.12270000000000003,-10.993721511251199
-0.12370000000000014,-11.037577561547016
-0.12470000000000003,-11.081433611842833
-0.12570000000000014,-11.1677310011346
-0.12670000000000003,-11.211587051430415
-0.12770000000000015,-11.211587051430415
-0.12870000000000004,-11.211587051430415
-0.12970000000000015,-11.255443101726232
-0.13070000000000004,-11.211587051430415
-0.13170000000000015,-11.255443101726232
-0.13270000000000004,-11.255443101726232
-0.13370000000000015,-11.299299152022046
-0.13470000000000004,-11.385596541313816
-0.13570000000000015,-11.473308641905447
-0.13670000000000004,-11.517164692201263
-0.13770000000000016,-11.517164692201263
-0.13870000000000005,-11.517164692201263
-0.13970000000000016,-11.517164692201263
-0.14070000000000005,-11.517164692201263
-0.14170000000000016,-11.517164692201263
-0.14270000000000005,-11.56102074249708
-0.14370000000000016,-11.604876792792895
-0.14470000000000005,-11.691174182084664
-0.14570000000000016,-11.778886282676295
-0.14670000000000005,-11.82274233297211
-0.14770000000000016,-11.86659838326793
-0.14870000000000005,-11.86659838326793
-0.14970000000000017,-11.86659838326793
-0.15070000000000006,-11.86659838326793
-0.15170000000000017,-11.86659838326793
-0.15270000000000006,-11.909039722263879
-0.15370000000000017,-11.952895772559694
-0.15470000000000006,-11.996751822855511
-0.15570000000000017,-12.084463923447142
-0.15670000000000006,-12.12831997374296
-0.15770000000000017,-12.170761312738911
-0.15870000000000006,-12.214617363034726
-0.15970000000000018,-12.214617363034726
-0.16070000000000007,-12.214617363034726
-0.16170000000000018,-12.214617363034726
-0.16270000000000007,-12.258473413330542
-0.16370000000000018,-12.346185513922174
-0.16470000000000007,-12.432482903213943
-0.16570000000000018,-12.476338953509758
-0.16670000000000007,-12.520195003805576
-0.16770000000000018,-12.520195003805576
-0.16870000000000007,-12.56405105410139
-0.16970000000000018,-12.56405105410139
-0.17070000000000007,-12.520195003805576
-0.17170000000000019,-12.56405105410139
-0.17270000000000008,-12.607907104397206
-0.1737000000000002,-12.651763154693022
-0.17470000000000008,-12.73806054398479
-0.1757000000000002,-12.825772644576423
-0.17670000000000008,-12.869628694872238
-0.1777000000000002,-12.955926084164007
-0.17870000000000008,-12.913484745168056
-0.1797000000000002,-12.913484745168056
-0.18070000000000008,-12.913484745168056
-0.1817000000000002,-12.913484745168056
-0.18270000000000008,-12.955926084164007
-0.1837000000000002,-12.99978213445982
-0.1847000000000001,-13.087494235051453
-0.1857000000000002,-13.175206335643086
-0.1867000000000001,-13.217647674639037
-0.1877000000000002,-13.261503724934855
-0.1887000000000001,-13.261503724934855
-0.1897000000000002,-13.261503724934855
-0.1907000000000001,-13.261503724934855
-0.1917000000000001,-13.30535977523067
-0.19269999999999998,-13.349215825526485
-0.1937000000000001,-13.3930718758223
-0.19469999999999998,-13.436927926118118
-0.1957000000000001,-13.523225315409885
-0.19669999999999999,-13.523225315409885
-0.1977000000000001,-13.610937416001518
-0.1987,-13.654793466297335
-0.1997000000000001,-13.654793466297335
-0.2007,-13.654793466297335
-0.2017000000000001,-13.698649516593148
-0.2027,-13.741090855589102
-0.2037000000000001,-13.828802956180734
-0.2047,-13.872659006476551
-0.2057000000000001,-14.002812446064135
-0.2067,-14.046668496359947
-0.2077000000000001,-14.046668496359947
-0.2087,-14.046668496359947
-0.2097000000000001,-14.046668496359947
-0.2107,-14.002812446064135
-0.2117000000000001,-14.046668496359947
-0.2127,-14.046668496359947
-0.2137000000000001,-14.090524546655764
-0.2147,-14.175407224647667
-0.2157000000000001,-14.26028990263957
-0.2167,-14.30273124163552
-0.21770000000000012,-14.30273124163552
-0.2187,-14.30273124163552
-0.21970000000000012,-14.30273124163552
-0.2207,-14.30273124163552
-0.22170000000000012,-14.30273124163552
-0.2227,-14.345172580631472
-0.22370000000000012,-14.401761032626075
-0.2247,-14.486643710617974
-0.22570000000000012,-14.57152638860988
-0.2267,-14.61396772760583
-0.22770000000000012,-14.65640906660178
-0.22870000000000001,-14.61396772760583
-0.22970000000000013,-14.61396772760583
-0.23070000000000002,-14.61396772760583
-0.23170000000000013,-14.61396772760583
-0.23270000000000002,-14.61396772760583
-0.23370000000000013,-14.65640906660178
-0.23470000000000002,-14.741291744593681
-0.23570000000000013,-14.783733083589633
-0.23670000000000002,-14.783733083589633
-0.2376999999999999,-14.826174422585586
-0.23870000000000002,-14.826174422585586
-0.2396999999999999,-14.826174422585586
-0.24070000000000003,-14.783733083589633
-0.24169999999999991,-14.826174422585586
-0.24270000000000003,-14.868615761581536
-0.24369999999999992,-14.925204213576137
-0.24470000000000003,-14.967645552572087
-0.24569999999999992,-15.05252823056399
-0.24670000000000003,-15.094969569559943
-0.24769999999999992,-15.137410908555893
-0.24870000000000003,-15.137410908555893
-0.24969999999999992,-15.137410908555893
-0.25070000000000003,-15.137410908555893
-0.2516999999999999,-15.137410908555893
-0.25270000000000004,-15.179852247551842
-0.2536999999999999,-15.222293586547794
-0.25470000000000004,-15.264734925543747
-0.2556999999999999,-15.349617603535648
-0.25670000000000004,-15.3920589425316
-0.25769999999999993,-15.3920589425316
-0.25870000000000004,-15.3920589425316
-0.25969999999999993,-15.3920589425316
-0.26070000000000004,-15.349617603535648
-0.26169999999999993,-15.3920589425316
-0.26270000000000004,-15.448647394526201
-0.26369999999999993,-15.491088733522153
-0.26470000000000005,-15.575971411514052
-0.26569999999999994,-15.660854089505953
-0.26670000000000005,-15.70329542850191
-0.26769999999999994,-15.74573676749786
-0.26870000000000005,-15.74573676749786
-0.26969999999999994,-15.74573676749786
-0.27070000000000005,-15.74573676749786
-0.27169999999999994,-15.74573676749786
-0.27270000000000005,-15.74573676749786
-0.27369999999999994,-15.830619445489761
-0.27470000000000006,-15.87306078448571
-0.27569999999999995,-15.972090575476265
-0.27670000000000006,-16.014531914472215
-0.27769999999999995,-16.099414592464115
-0.27870000000000006,-16.141855931460068
-0.27969999999999995,-16.141855931460068
-0.28070000000000006,-16.141855931460068
-0.28169999999999995,-16.184297270456018
-0.28270000000000006,-16.22673860945197
-0.28369999999999995,-16.311621287443874
-0.28470000000000006,-16.396503965435777
-0.28569999999999995,-16.495533756426326
-0.28670000000000007,-16.53797509542228
-0.28769999999999996,-16.580416434418233
-0.28870000000000007,-16.622857773414182
-0.28969999999999996,-16.622857773414182
-0.29070000000000007,-16.622857773414182
-0.29169999999999996,-16.665299112410132
-0.29270000000000007,-16.750181790402035
-0.29369999999999996,-16.835064468393938
-0.2947000000000001,-16.919947146385837
-0.29569999999999996,-17.018976937376394
-0.2967000000000001,-17.103859615368293
-0.29769999999999996,-17.188742293360193
-0.2987000000000001,-17.231183632356142
-0.29969999999999997,-17.2736249713521
-0.3007000000000001,-17.2736249713521
-0.30169999999999997,-17.358507649344002
-0.3027000000000001,-17.4433903273359
-0.30369999999999997,-17.584861457322408
-0.3047000000000001,-17.669744135314307
-0.30569999999999997,-17.839509491298113
-0.3067000000000001,-17.924392169290012
-0.3077,-18.009274847281915
-0.3087000000000001,-18.10830463827247
-0.3097,-18.15074597726842
-0.3107000000000001,-18.23562865526032
-0.3117,-18.320511333252224
-0.3127000000000001,-18.44783535024008
-0.3137,-18.589306480226583
-0.3147000000000001,-18.759071836210385
-0.3157,-18.97127853119014
-0.3167000000000001,-19.155191000172596
-0.3177,-19.28251501716045
-0.3187000000000001,-19.409839034148305
-0.3197,-19.537163051136158
-0.3207000000000001,-19.678634181122664
-0.3217,-19.848399537106463
-0.3227000000000001,-19.97572355409432
-0.3237,-20.159636023076775
-0.3247000000000001,-20.329401379060574
-0.3257,-20.499166735044383
-0.3267000000000001,-20.76796188201874
-0.3277,-21.107492593986347
-0.3287000000000001,-21.418729079956652
-0.3297,-21.54605309694451
-0.3307000000000001,-21.63093577493641
-0.3317,-21.729965565926964
-0.3327000000000001,-21.814848243918867
-0.3337,-21.94217226090672
-0.3347000000000001,-22.027054938898623
-0.3357,-22.196820294882425
-0.3367000000000001,-22.38073276386488
-0.3377,-22.63538079784059
-0.3387000000000001,-22.946617283810895
-0.3397,-23.342736447773106
-0.3407000000000001,-23.724708498736668
-0.3417,-24.16326900169483
-0.3427000000000001,-24.601829504652986
-0.3437,-24.95550732961925
-0.3447000000000001,-25.295038041586857
-0.3457,-25.648715866553115
-0.3467000000000001,-25.959952352523427
-0.3477,-26.21460038649913
-0.3487000000000001,-26.483395533473487
-0.3497,-26.65316088945729
-0.3507000000000001,-26.86536758443705
-0.3517,-27.134162731411404
-0.3527000000000001,-27.38881076538711
-0.3537,-27.700047251357418
-0.3547000000000001,-28.05372507632368
-0.3557,-28.435697127287238
-0.35670000000000013,-28.831816291249446
-0.3577,-29.22793545521166
-0.35870000000000013,-29.62405461917387
-0.3597,-30.00602667013743
-0.36070000000000013,-30.402145834099635
-0.3617,-30.8407063370578
-0.3626999999999999,-31.321708179011907
-0.3637,-31.76026868197007
-0.3646999999999999,-32.24127052392419
-0.3657,-32.66568391388369
-0.3666999999999999,-33.10424441684186
-0.3677,-33.50036358080407
-0.3686999999999999,-33.89648274476628
-0.36970000000000003,-34.33504324772444
-0.3706999999999999,-34.67457395969205
-0.37170000000000003,-35.07069312365426
-0.3726999999999999,-35.46681228761647
-0.37370000000000003,-35.90537279057463
-0.3746999999999999,-36.37222751953009
-0.37570000000000003,-36.8532293614842
-0.3766999999999999,-37.334231203438314
-0.37770000000000004,-37.81523304539243
-0.3786999999999999,-38.29623488734655
-0.37970000000000004,-38.777236729300654
-0.3806999999999999,-39.258238571254765
-0.38170000000000004,-39.739240413208876
-0.38269999999999993,-40.26268359415894
-0.38370000000000004,-40.78612677510901
-0.38469999999999993,-41.30956995605907
-0.38570000000000004,-41.83301313700913
-0.38669999999999993,-42.31401497896325
-0.38770000000000004,-42.79501682091736
-0.38869999999999993,-43.23357732387552
-0.38970000000000005,-43.75702050482558
-0.39069999999999994,-44.181433894785094
-0.39170000000000005,-44.74731841473111
-0.39269999999999994,-45.32735004767578
-0.39370000000000005,-45.93567590661774
-0.39469999999999994,-46.501560426563756
-0.39570000000000005,-47.10988628550572
-0.39669999999999994,-47.67577080545174
-0.39770000000000005,-48.2840966643937
-0.39869999999999994,-48.84998118433972
-0.39970000000000006,-49.41586570428573
-0.40069999999999995,-49.98175022423175
-0.40170000000000006,-50.547634744177756
-0.40269999999999995,-51.17010771611838
-0.40370000000000006,-51.82087491405629
-0.40469999999999995,-52.42920077299826
-0.40570000000000006,-53.12240930993213
-0.40669999999999995,-53.74488228187274
-0.40770000000000006,-54.39564947981066
-0.40869999999999995,-55.046416677748574
-0.40970000000000006,-55.6971838756865
-0.41069999999999995,-56.30550973462846
-0.41170000000000007,-57.012865384560975
-0.41269999999999996,-57.66363258249889
-0.41370000000000007,-58.39928245842871
-0.41469999999999996,-59.10663810836124
-0.41570000000000007,-59.7998466452951
-0.41669999999999996,-60.54964363422357
-0.41770000000000007,-61.28529351015339
-0.41869999999999996,-61.936060708091304
-0.4197000000000001,-62.58682790602922
-0.42069999999999996,-63.251742216965795
-0.4217000000000001,-63.944950753899654
-0.42269999999999996,-64.68060062982947
-0.4237000000000001,-65.38795627976201
-0.42469999999999997,-66.16604749468777
-0.4257000000000001,-66.9582858226122
-0.42669999999999997,-67.7788183765339
-0.4277000000000001,-68.61349804345427
-0.42869999999999997,-69.43403059737601
-0.4297000000000001,-70.26871026429637
-0.43069999999999997,-71.10338993121674
-0.4317000000000001,-71.96636382413442
-0.4327,-72.84348483005074
-0.4337000000000001,-73.6781644969711
-0.4347,-74.45625571189689
-0.4357000000000001,-75.29093537881725
-0.4367,-76.06902659374302
-0.4377000000000001,-76.86126492166746
-0.4387,-77.63935613659322
-0.4397000000000001,-78.47403580351359
-0.4407,-79.20968567944341
-0.4417000000000001,-80.00192400736783
-0.4427,-80.82245656128954
-0.4437000000000001,-81.69957756720586
-0.4447,-82.56255146012353
-0.4457000000000001,-83.43967246603985
-0.4467,-84.31679347195619
-0.4477000000000001,-85.23635581686847
-0.4487,-86.09932970978613
-0.4497000000000001,-86.97645071570246
-0.4507,-87.85357172161878
-0.4517000000000001,-88.7589869535324
-0.4527,-89.67854929844468
-0.4537000000000001,-90.6405529823529
-0.4547,-91.60255666626112
-0.4557000000000001,-92.50797189817473
-0.4567,-93.42753424308701
-0.4577000000000001,-94.26221391000739
-0.4587,-95.12518780292505
-0.4597000000000001,-95.95986746984543
-0.4607,-96.79454713676581
-0.4617000000000001,-97.6575210296835
-0.4627,-98.57708337459576
-0.4637000000000001,-99.53908705850398
-0.4647,-100.5010907424122
-0.4657000000000001,-101.50553576531638
-0.4667,-102.45339233622596
-0.4677000000000001,-103.50027869812607
-0.4687,-104.50472372103027
-0.4697000000000001,-105.46672740493848
-0.4707,-106.4287310888467
-0.4717000000000001,-107.4331761117509
-0.4727,-108.43762113465506
-0.4737000000000001,-109.44206615755924
-0.4747,-110.40406984146746
-0.4757000000000001,-111.35192641237703
-0.4767,-112.31393009628526
-0.4777000000000001,-113.27593378019348
-0.4787,-114.23793746410173
-0.4797000000000001,-115.19994114800993
-0.4807,-116.14779771891952
-0.48170000000000013,-117.10980140282774
-0.4827,-118.11424642573192
-0.48370000000000013,-119.16113278763203
-0.4847,-120.25046048852812
-0.48570000000000013,-121.38222952842017
-0.4867,-121.0851401554485
-0.48570000000000013,-118.76501362366983
-0.4847,-116.94003604684394
-0.48370000000000013,-115.32726516499778
-0.4827,-113.92670097813141
-0.48170000000000013,-112.54028390426367
-0.4807,-111.22460239538917
-0.4797000000000001,-109.92306799951335
-0.4787,-108.60738649063886
-0.4777000000000001,-107.34829343375898
-0.4767,-105.90528790789664
-0.4757000000000001,-104.46228238203432
-0.4747,-102.97683551717601
-0.4737000000000001,-101.54797710431234
-0.4727,-100.18985425644189
-0.4717000000000001,-98.97320253855796
-0.4707,-97.84143349866595
-0.4697000000000001,-96.87942981475771
-0.4687,-95.95986746984543
-0.4677000000000001,-94.99786378593721
-0.4667,-93.99341876303303
-0.4657000000000001,-92.94653240113291
-0.4647,-91.94208737822873
