Aug. 15, 2024   14:33:13
Cyclic Voltammetry
File: c:/users/guazh/data/20240813_batch_94_500/2024-08-15-exp96\exp96-2024-08-15t14_10_18-h2koh\exp96_cv_sr_300mvs_efin_-1800mv.bin
Data Source:  Experiment
Instrument Model:  CHI760E
Header: CV ran at 300 mVs
Note: 

Init E (V) = -1
High E (V) = -1
Low E (V) = -1.8
Final E (V) = -1
Init P/N = N
Scan Rate (V/s) = 0.3
Segment = 3
Sample Interval (V) = 0.001
Quiet Time (sec) = 2
Sensitivity (A/V) = 0.01
Comp R (ohm) = 2.1

Results:

Channel 1:
Segment 1:

Segment 2:
Segment 3:

Potential/V, Current/A

-1.000, 3.239e-6
-1.001, 3.239e-6
-1.002, 3.239e-6
-1.003, 3.239e-6
-1.004, 3.239e-6
-1.005, 3.239e-6
-1.006, 3.239e-6
-1.007, 3.239e-6
-1.008, 3.239e-6
-1.009, 3.239e-6
-1.010, 3.239e-6
-1.011, 3.239e-6
-1.012, 3.239e-6
-1.013, 3.239e-6
-1.014, 3.239e-6
-1.015, 3.239e-6
-1.016, 3.239e-6
-1.017, 3.239e-6
-1.018, 6.322e-6
-1.019, 3.239e-6
-1.020, 6.322e-6
-1.021, 6.322e-6
-1.022, 6.322e-6
-1.023, 3.239e-6
-1.024, 3.239e-6
-1.025, 6.322e-6
-1.026, 6.322e-6
-1.027, 3.239e-6
-1.028, 6.322e-6
-1.029, 3.239e-6
-1.030, 3.239e-6
-1.031, 3.239e-6
-1.032, 6.322e-6
-1.033, 6.322e-6
-1.034, 6.322e-6
-1.035, 3.239e-6
-1.036, 6.322e-6
-1.037, 6.322e-6
-1.038, 6.322e-6
-1.039, 6.322e-6
-1.040, 6.322e-6
-1.041, 6.322e-6
-1.042, 6.322e-6
-1.043, 6.322e-6
-1.044, 6.322e-6
-1.045, 6.322e-6
-1.046, 6.322e-6
-1.047, 6.322e-6
-1.048, 6.322e-6
-1.049, 3.239e-6
-1.050, 3.239e-6
-1.051, 6.322e-6
-1.052, 6.322e-6
-1.053, 6.322e-6
-1.054, 6.322e-6
-1.055, 6.322e-6
-1.056, 6.322e-6
-1.057, 6.322e-6
-1.058, 6.322e-6
-1.059, 6.322e-6
-1.060, 6.322e-6
-1.061, 6.322e-6
-1.062, 6.322e-6
-1.063, 6.322e-6
-1.064, 6.322e-6
-1.065, 6.322e-6
-1.066, 6.322e-6
-1.067, 6.322e-6
-1.068, 6.322e-6
-1.069, 6.322e-6
-1.070, 6.322e-6
-1.071, 6.322e-6
-1.072, 6.322e-6
-1.073, 6.322e-6
-1.074, 6.322e-6
-1.075, 6.322e-6
-1.076, 6.322e-6
-1.077, 6.322e-6
-1.078, 6.322e-6
-1.079, 6.322e-6
-1.080, 6.322e-6
-1.081, 6.322e-6
-1.082, 6.322e-6
-1.083, 6.322e-6
-1.084, 6.322e-6
-1.085, 6.322e-6
-1.086, 6.322e-6
-1.087, 6.322e-6
-1.088, 6.322e-6
-1.089, 6.322e-6
-1.090, 6.322e-6
-1.091, 6.322e-6
-1.092, 6.322e-6
-1.093, 6.322e-6
-1.094, 6.322e-6
-1.095, 6.322e-6
-1.096, 6.322e-6
-1.097, 6.322e-6
-1.098, 6.322e-6
-1.099, 6.322e-6
-1.100, 6.322e-6
-1.101, 6.322e-6
-1.102, 6.322e-6
-1.103, 6.322e-6
-1.104, 6.322e-6
-1.105, 6.322e-6
-1.106, 6.322e-6
-1.107, 6.322e-6
-1.108, 6.322e-6
-1.109, 6.322e-6
-1.110, 6.322e-6
-1.111, 6.322e-6
-1.112, 6.322e-6
-1.113, 6.322e-6
-1.114, 6.322e-6
-1.115, 6.322e-6
-1.116, 6.322e-6
-1.117, 9.405e-6
-1.118, 6.322e-6
-1.119, 6.322e-6
-1.120, 6.322e-6
-1.121, 6.322e-6
-1.122, 6.322e-6
-1.123, 6.322e-6
-1.124, 6.322e-6
-1.125, 6.322e-6
-1.126, 6.322e-6
-1.127, 6.322e-6
-1.128, 6.322e-6
-1.129, 6.322e-6
-1.130, 6.322e-6
-1.131, 6.322e-6
-1.132, 6.322e-6
-1.133, 6.322e-6
-1.134, 6.322e-6
-1.135, 6.322e-6
-1.136, 6.322e-6
-1.137, 6.322e-6
-1.138, 6.322e-6
-1.139, 6.322e-6
-1.140, 9.405e-6
-1.141, 6.322e-6
-1.142, 9.405e-6
-1.143, 6.322e-6
-1.144, 6.322e-6
-1.145, 6.322e-6
-1.146, 6.322e-6
-1.147, 6.322e-6
-1.148, 6.322e-6
-1.149, 9.405e-6
-1.150, 9.405e-6
-1.151, 6.322e-6
-1.152, 9.405e-6
-1.153, 6.322e-6
-1.154, 6.322e-6
-1.155, 6.322e-6
-1.156, 6.322e-6
-1.157, 6.322e-6
-1.158, 6.322e-6
-1.159, 9.405e-6
-1.160, 6.322e-6
-1.161, 6.322e-6
-1.162, 6.322e-6
-1.163, 6.322e-6
-1.164, 9.405e-6
-1.165, 9.405e-6
-1.166, 9.405e-6
-1.167, 9.405e-6
-1.168, 9.405e-6
-1.169, 9.405e-6
-1.170, 9.405e-6
-1.171, 9.405e-6
-1.172, 9.405e-6
-1.173, 6.322e-6
-1.174, 6.322e-6
-1.175, 6.322e-6
-1.176, 6.322e-6
-1.177, 9.405e-6
-1.178, 6.322e-6
-1.179, 9.405e-6
-1.180, 6.322e-6
-1.181, 9.405e-6
-1.182, 9.405e-6
-1.183, 9.405e-6
-1.184, 6.322e-6
-1.185, 6.322e-6
-1.186, 9.405e-6
-1.187, 9.405e-6
-1.188, 9.405e-6
-1.189, 9.405e-6
-1.190, 6.322e-6
-1.191, 9.405e-6
-1.192, 9.405e-6
-1.193, 6.322e-6
-1.194, 9.405e-6
-1.195, 9.405e-6
-1.196, 6.322e-6
-1.197, 9.405e-6
-1.198, 6.322e-6
-1.199, 9.405e-6
-1.200, 6.322e-6
-1.201, 9.405e-6
-1.202, 9.405e-6
-1.203, 9.405e-6
-1.204, 9.405e-6
-1.205, 9.405e-6
-1.206, 9.405e-6
-1.207, 9.405e-6
-1.208, 9.405e-6
-1.209, 9.405e-6
-1.210, 9.405e-6
-1.211, 9.405e-6
-1.212, 9.405e-6
-1.213, 9.405e-6
-1.214, 9.405e-6
-1.215, 9.405e-6
-1.216, 9.405e-6
-1.217, 9.405e-6
-1.218, 9.405e-6
-1.219, 9.405e-6
-1.220, 9.405e-6
-1.221, 9.405e-6
-1.222, 9.405e-6
-1.223, 9.405e-6
-1.224, 9.405e-6
-1.225, 9.405e-6
-1.226, 9.405e-6
-1.227, 9.405e-6
-1.228, 9.405e-6
-1.229, 9.405e-6
-1.230, 9.405e-6
-1.231, 9.405e-6
-1.232, 9.405e-6
-1.233, 9.405e-6
-1.234, 9.405e-6
-1.235, 9.405e-6
-1.236, 9.405e-6
-1.237, 9.405e-6
-1.238, 9.405e-6
-1.239, 9.405e-6
-1.240, 9.405e-6
-1.241, 9.405e-6
-1.242, 9.405e-6
-1.243, 9.405e-6
-1.244, 9.405e-6
-1.245, 9.405e-6
-1.246, 9.405e-6
-1.247, 9.405e-6
-1.248, 9.405e-6
-1.249, 9.405e-6
-1.250, 9.405e-6
-1.251, 9.405e-6
-1.252, 9.405e-6
-1.253, 9.405e-6
-1.254, 9.405e-6
-1.255, 9.405e-6
-1.256, 9.405e-6
-1.257, 9.405e-6
-1.258, 9.405e-6
-1.259, 9.405e-6
-1.260, 9.405e-6
-1.261, 9.405e-6
-1.262, 9.405e-6
-1.263, 9.405e-6
-1.264, 9.405e-6
-1.265, 9.405e-6
-1.266, 9.405e-6
-1.267, 9.405e-6
-1.268, 9.405e-6
-1.269, 9.405e-6
-1.270, 9.405e-6
-1.271, 9.405e-6
-1.272, 9.405e-6
-1.273, 9.405e-6
-1.274, 9.405e-6
-1.275, 9.405e-6
-1.276, 9.405e-6
-1.277, 9.405e-6
-1.278, 9.405e-6
-1.279, 1.249e-5
-1.280, 9.405e-6
-1.281, 9.405e-6
-1.282, 9.405e-6
-1.283, 9.405e-6
-1.284, 9.405e-6
-1.285, 1.249e-5
-1.286, 9.405e-6
-1.287, 9.405e-6
-1.288, 9.405e-6
-1.289, 9.405e-6
-1.290, 9.405e-6
-1.291, 9.405e-6
-1.292, 9.405e-6
-1.293, 1.249e-5
-1.294, 1.249e-5
-1.295, 1.249e-5
-1.296, 1.249e-5
-1.297, 1.249e-5
-1.298, 1.249e-5
-1.299, 9.405e-6
-1.300, 1.249e-5
-1.301, 1.249e-5
-1.302, 9.405e-6
-1.303, 9.405e-6
-1.304, 1.249e-5
-1.305, 1.249e-5
-1.306, 1.249e-5
-1.307, 1.249e-5
-1.308, 1.249e-5
-1.309, 1.249e-5
-1.310, 1.249e-5
-1.311, 1.249e-5
-1.312, 1.249e-5
-1.313, 1.249e-5
-1.314, 9.405e-6
-1.315, 1.249e-5
-1.316, 1.249e-5
-1.317, 1.249e-5
-1.318, 1.249e-5
-1.319, 1.249e-5
-1.320, 1.249e-5
-1.321, 1.249e-5
-1.322, 1.249e-5
-1.323, 1.249e-5
-1.324, 1.249e-5
-1.325, 1.249e-5
-1.326, 1.249e-5
-1.327, 1.249e-5
-1.328, 1.249e-5
-1.329, 1.249e-5
-1.330, 1.249e-5
-1.331, 1.249e-5
-1.332, 1.249e-5
-1.333, 1.249e-5
-1.334, 1.249e-5
-1.335, 1.249e-5
-1.336, 1.249e-5
-1.337, 1.249e-5
-1.338, 1.249e-5
-1.339, 1.249e-5
-1.340, 1.249e-5
-1.341, 1.249e-5
-1.342, 1.249e-5
-1.343, 1.249e-5
-1.344, 1.249e-5
-1.345, 1.249e-5
-1.346, 1.249e-5
-1.347, 1.557e-5
-1.348, 1.249e-5
-1.349, 1.249e-5
-1.350, 1.249e-5
-1.351, 1.249e-5
-1.352, 1.249e-5
-1.353, 1.249e-5
-1.354, 1.249e-5
-1.355, 1.557e-5
-1.356, 1.249e-5
-1.357, 1.557e-5
-1.358, 1.249e-5
-1.359, 1.249e-5
-1.360, 1.557e-5
-1.361, 1.249e-5
-1.362, 1.557e-5
-1.363, 1.557e-5
-1.364, 1.557e-5
-1.365, 1.557e-5
-1.366, 1.557e-5
-1.367, 1.557e-5
-1.368, 1.557e-5
-1.369, 1.557e-5
-1.370, 1.557e-5
-1.371, 1.557e-5
-1.372, 1.557e-5
-1.373, 1.557e-5
-1.374, 1.557e-5
-1.375, 1.557e-5
-1.376, 1.557e-5
-1.377, 1.557e-5
-1.378, 1.557e-5
-1.379, 1.557e-5
-1.380, 1.557e-5
-1.381, 1.557e-5
-1.382, 1.557e-5
-1.383, 1.557e-5
-1.384, 1.557e-5
-1.385, 1.557e-5
-1.386, 1.557e-5
-1.387, 1.557e-5
-1.388, 1.557e-5
-1.389, 1.557e-5
-1.390, 1.557e-5
-1.391, 1.557e-5
-1.392, 1.557e-5
-1.393, 1.557e-5
-1.394, 1.557e-5
-1.395, 1.557e-5
-1.396, 1.557e-5
-1.397, 1.557e-5
-1.398, 1.557e-5
-1.399, 1.557e-5
-1.400, 1.557e-5
-1.401, 1.557e-5
-1.402, 1.557e-5
-1.403, 1.557e-5
-1.404, 1.557e-5
-1.405, 1.865e-5
-1.406, 1.865e-5
-1.407, 1.865e-5
-1.408, 1.865e-5
-1.409, 1.865e-5
-1.410, 1.557e-5
-1.411, 1.865e-5
-1.412, 1.865e-5
-1.413, 1.865e-5
-1.414, 1.557e-5
-1.415, 1.865e-5
-1.416, 1.865e-5
-1.417, 1.865e-5
-1.418, 1.557e-5
-1.419, 1.865e-5
-1.420, 1.865e-5
-1.421, 1.865e-5
-1.422, 1.865e-5
-1.423, 1.865e-5
-1.424, 1.865e-5
-1.425, 1.865e-5
-1.426, 1.865e-5
-1.427, 1.865e-5
-1.428, 1.865e-5
-1.429, 1.865e-5
-1.430, 1.865e-5
-1.431, 1.865e-5
-1.432, 1.865e-5
-1.433, 1.865e-5
-1.434, 1.865e-5
-1.435, 2.174e-5
-1.436, 2.174e-5
-1.437, 1.865e-5
-1.438, 1.865e-5
-1.439, 1.865e-5
-1.440, 1.865e-5
-1.441, 2.174e-5
-1.442, 2.174e-5
-1.443, 1.865e-5
-1.444, 1.865e-5
-1.445, 2.174e-5
-1.446, 2.174e-5
-1.447, 2.174e-5
-1.448, 2.174e-5
-1.449, 2.174e-5
-1.450, 2.174e-5
-1.451, 2.174e-5
-1.452, 2.174e-5
-1.453, 2.174e-5
-1.454, 2.174e-5
-1.455, 2.174e-5
-1.456, 2.174e-5
-1.457, 2.174e-5
-1.458, 2.174e-5
-1.459, 2.174e-5
-1.460, 2.174e-5
-1.461, 2.174e-5
-1.462, 2.174e-5
-1.463, 2.174e-5
-1.464, 2.174e-5
-1.465, 2.174e-5
-1.466, 2.174e-5
-1.467, 2.482e-5
-1.468, 2.174e-5
-1.469, 2.174e-5
-1.470, 2.174e-5
-1.471, 2.482e-5
-1.472, 2.482e-5
-1.473, 2.482e-5
-1.474, 2.482e-5
-1.475, 2.482e-5
-1.476, 2.482e-5
-1.477, 2.482e-5
-1.478, 2.482e-5
-1.479, 2.482e-5
-1.480, 2.482e-5
-1.481, 2.482e-5
-1.482, 2.482e-5
-1.483, 2.482e-5
-1.484, 2.482e-5
-1.485, 2.482e-5
-1.486, 2.482e-5
-1.487, 2.482e-5
-1.488, 2.482e-5
-1.489, 2.482e-5
-1.490, 2.482e-5
-1.491, 2.482e-5
-1.492, 2.482e-5
-1.493, 2.482e-5
-1.494, 2.482e-5
-1.495, 2.482e-5
-1.496, 2.790e-5
-1.497, 2.790e-5
-1.498, 2.790e-5
-1.499, 2.790e-5
-1.500, 2.790e-5
-1.501, 2.790e-5
-1.502, 2.790e-5
-1.503, 2.790e-5
-1.504, 2.790e-5
-1.505, 2.790e-5
-1.506, 2.790e-5
-1.507, 2.790e-5
-1.508, 2.790e-5
-1.509, 2.790e-5
-1.510, 2.790e-5
-1.511, 2.790e-5
-1.512, 3.099e-5
-1.513, 2.790e-5
-1.514, 2.790e-5
-1.515, 2.790e-5
-1.516, 3.099e-5
-1.517, 2.790e-5
-1.518, 3.099e-5
-1.519, 3.099e-5
-1.520, 3.099e-5
-1.521, 3.099e-5
-1.522, 3.099e-5
-1.523, 3.099e-5
-1.524, 3.099e-5
-1.525, 3.099e-5
-1.526, 3.099e-5
-1.527, 3.099e-5
-1.528, 3.099e-5
-1.529, 3.099e-5
-1.530, 3.099e-5
-1.531, 3.099e-5
-1.532, 3.099e-5
-1.533, 3.099e-5
-1.534, 3.099e-5
-1.535, 3.407e-5
-1.536, 3.407e-5
-1.537, 3.407e-5
-1.538, 3.099e-5
-1.539, 3.099e-5
-1.540, 3.407e-5
-1.541, 3.407e-5
-1.542, 3.407e-5
-1.543, 3.407e-5
-1.544, 3.407e-5
-1.545, 3.407e-5
-1.546, 3.407e-5
-1.547, 3.407e-5
-1.548, 3.407e-5
-1.549, 3.407e-5
-1.550, 3.407e-5
-1.551, 3.407e-5
-1.552, 3.715e-5
-1.553, 3.407e-5
-1.554, 3.407e-5
-1.555, 3.715e-5
-1.556, 3.407e-5
-1.557, 3.715e-5
-1.558, 3.715e-5
-1.559, 3.715e-5
-1.560, 3.715e-5
-1.561, 3.715e-5
-1.562, 3.715e-5
-1.563, 3.715e-5
-1.564, 3.715e-5
-1.565, 3.715e-5
-1.566, 3.715e-5
-1.567, 3.715e-5
-1.568, 3.715e-5
-1.569, 3.715e-5
-1.570, 4.024e-5
-1.571, 3.715e-5
-1.572, 4.024e-5
-1.573, 4.024e-5
-1.574, 4.024e-5
-1.575, 4.024e-5
-1.576, 4.024e-5
-1.577, 4.024e-5
-1.578, 4.024e-5
-1.579, 4.024e-5
-1.580, 4.024e-5
-1.581, 4.024e-5
-1.582, 4.024e-5
-1.583, 4.024e-5
-1.584, 4.024e-5
-1.585, 4.024e-5
-1.586, 4.024e-5
-1.587, 4.024e-5
-1.588, 4.024e-5
-1.589, 4.024e-5
-1.590, 4.332e-5
-1.591, 4.024e-5
-1.592, 4.332e-5
-1.593, 4.332e-5
-1.594, 4.332e-5
-1.595, 4.332e-5
-1.596, 4.332e-5
-1.597, 4.332e-5
-1.598, 4.332e-5
-1.599, 4.332e-5
-1.600, 4.332e-5
-1.601, 4.332e-5
-1.602, 4.640e-5
-1.603, 4.332e-5
-1.604, 4.640e-5
-1.605, 4.640e-5
-1.606, 4.640e-5
-1.607, 4.640e-5
-1.608, 4.640e-5
-1.609, 4.640e-5
-1.610, 4.640e-5
-1.611, 4.640e-5
-1.612, 4.949e-5
-1.613, 4.949e-5
-1.614, 4.949e-5
-1.615, 4.949e-5
-1.616, 4.949e-5
-1.617, 4.949e-5
-1.618, 4.949e-5
-1.619, 5.257e-5
-1.620, 5.257e-5
-1.621, 5.257e-5
-1.622, 5.257e-5
-1.623, 5.257e-5
-1.624, 5.257e-5
-1.625, 5.565e-5
-1.626, 5.257e-5
-1.627, 5.565e-5
-1.628, 5.565e-5
-1.629, 5.565e-5
-1.630, 5.565e-5
-1.631, 5.565e-5
-1.632, 5.873e-5
-1.633, 5.873e-5
-1.634, 5.873e-5
-1.635, 5.873e-5
-1.636, 6.182e-5
-1.637, 6.182e-5
-1.638, 6.182e-5
-1.639, 6.490e-5
-1.640, 6.490e-5
-1.641, 6.490e-5
-1.642, 6.798e-5
-1.643, 6.798e-5
-1.644, 6.798e-5
-1.645, 6.798e-5
-1.646, 7.107e-5
-1.647, 7.107e-5
-1.648, 7.415e-5
-1.649, 7.415e-5
-1.650, 7.415e-5
-1.651, 7.723e-5
-1.652, 7.723e-5
-1.653, 8.032e-5
-1.654, 8.032e-5
-1.655, 8.340e-5
-1.656, 8.340e-5
-1.657, 8.648e-5
-1.658, 8.648e-5
-1.659, 8.957e-5
-1.660, 8.957e-5
-1.661, 9.265e-5
-1.662, 9.573e-5
-1.663, 9.573e-5
-1.664, 9.882e-5
-1.665, 9.882e-5
-1.666, 1.019e-4
-1.667, 1.050e-4
-1.668, 1.081e-4
-1.669, 1.081e-4
-1.670, 1.111e-4
-1.671, 1.142e-4
-1.672, 1.173e-4
-1.673, 1.204e-4
-1.674, 1.235e-4
-1.675, 1.235e-4
-1.676, 1.296e-4
-1.677, 1.327e-4
-1.678, 1.327e-4
-1.679, 1.389e-4
-1.680, 1.389e-4
-1.681, 1.451e-4
-1.682, 1.481e-4
-1.683, 1.512e-4
-1.684, 1.574e-4
-1.685, 1.605e-4
-1.686, 1.636e-4
-1.687, 1.697e-4
-1.688, 1.728e-4
-1.689, 1.790e-4
-1.690, 1.821e-4
-1.691, 1.882e-4
-1.692, 1.944e-4
-1.693, 2.006e-4
-1.694, 2.036e-4
-1.695, 2.098e-4
-1.696, 2.160e-4
-1.697, 2.221e-4
-1.698, 2.283e-4
-1.699, 2.345e-4
-1.700, 2.437e-4
-1.701, 2.499e-4
-1.702, 2.561e-4
-1.703, 2.653e-4
-1.704, 2.715e-4
-1.705, 2.807e-4
-1.706, 2.900e-4
-1.707, 3.023e-4
-1.708, 3.115e-4
-1.709, 3.208e-4
-1.710, 3.300e-4
-1.711, 3.424e-4
-1.712, 3.516e-4
-1.713, 3.640e-4
-1.714, 3.763e-4
-1.715, 3.886e-4
-1.716, 4.010e-4
-1.717, 4.133e-4
-1.718, 4.256e-4
-1.719, 4.410e-4
-1.720, 4.565e-4
-1.721, 4.719e-4
-1.722, 4.873e-4
-1.723, 5.027e-4
-1.724, 5.181e-4
-1.725, 5.366e-4
-1.726, 5.551e-4
-1.727, 5.736e-4
-1.728, 5.921e-4
-1.729, 6.106e-4
-1.730, 6.322e-4
-1.731, 6.538e-4
-1.732, 6.754e-4
-1.733, 6.969e-4
-1.734, 7.185e-4
-1.735, 7.432e-4
-1.736, 7.679e-4
-1.737, 7.956e-4
-1.738, 8.203e-4
-1.739, 8.480e-4
-1.740, 8.758e-4
-1.741, 9.035e-4
-1.742, 9.343e-4
-1.743, 9.621e-4
-1.744, 9.960e-4
-1.745, 1.027e-3
-1.746, 1.058e-3
-1.747, 1.092e-3
-1.748, 1.129e-3
-1.749, 1.162e-3
-1.750, 1.196e-3
-1.751, 1.233e-3
-1.752, 1.273e-3
-1.753, 1.310e-3
-1.754, 1.351e-3
-1.755, 1.391e-3
-1.756, 1.434e-3
-1.757, 1.477e-3
-1.758, 1.520e-3
-1.759, 1.566e-3
-1.760, 1.610e-3
-1.761, 1.656e-3
-1.762, 1.705e-3
-1.763, 1.751e-3
-1.764, 1.798e-3
-1.765, 1.847e-3
-1.766, 1.896e-3
-1.767, 1.949e-3
-1.768, 1.995e-3
-1.769, 2.044e-3
-1.770, 2.097e-3
-1.771, 2.152e-3
-1.772, 2.205e-3
-1.773, 2.260e-3
-1.774, 2.316e-3
-1.775, 2.371e-3
-1.776, 2.430e-3
-1.777, 2.488e-3
-1.778, 2.547e-3
-1.779, 2.605e-3
-1.780, 2.667e-3
-1.781, 2.732e-3
-1.782, 2.793e-3
-1.783, 2.861e-3
-1.784, 2.926e-3
-1.785, 2.994e-3
-1.786, 3.062e-3
-1.787, 3.133e-3
-1.788, 3.204e-3
-1.789, 3.274e-3
-1.790, 3.345e-3
-1.791, 3.416e-3
-1.792, 3.490e-3
-1.793, 3.564e-3
-1.794, 3.638e-3
-1.795, 3.712e-3
-1.796, 3.792e-3
-1.797, 3.876e-3
-1.798, 3.956e-3
-1.799, 4.033e-3
-1.800, 4.085e-3
-1.799, 4.082e-3
-1.798, 4.067e-3
-1.797, 4.045e-3
-1.796, 4.021e-3
-1.795, 3.996e-3
-1.794, 3.968e-3
-1.793, 3.934e-3
-1.792, 3.903e-3
-1.791, 3.869e-3
-1.790, 3.836e-3
-1.789, 3.802e-3
-1.788, 3.768e-3
-1.787, 3.734e-3
-1.786, 3.697e-3
-1.785, 3.663e-3
-1.784, 3.626e-3
-1.783, 3.592e-3
-1.782, 3.558e-3
-1.781, 3.521e-3
-1.780, 3.487e-3
-1.779, 3.453e-3
-1.778, 3.419e-3
-1.777, 3.385e-3
-1.776, 3.351e-3
-1.775, 3.318e-3
-1.774, 3.284e-3
-1.773, 3.247e-3
-1.772, 3.213e-3
-1.771, 3.176e-3
-1.770, 3.139e-3
-1.769, 3.102e-3
-1.768, 3.065e-3
-1.767, 3.025e-3
-1.766, 2.988e-3
-1.765, 2.951e-3
-1.764, 2.911e-3
-1.763, 2.874e-3
-1.762, 2.837e-3
-1.761, 2.800e-3
-1.760, 2.766e-3
-1.759, 2.729e-3
-1.758, 2.695e-3
-1.757, 2.658e-3
-1.756, 2.624e-3
-1.755, 2.587e-3
-1.754, 2.556e-3
-1.753, 2.522e-3
-1.752, 2.488e-3
-1.751, 2.454e-3
-1.750, 2.420e-3
-1.749, 2.383e-3
-1.748, 2.349e-3
-1.747, 2.316e-3
-1.746, 2.282e-3
-1.745, 2.248e-3
-1.744, 2.214e-3
-1.743, 2.180e-3
-1.742, 2.149e-3
-1.741, 2.115e-3
-1.740, 2.084e-3
-1.739, 2.050e-3
-1.738, 2.020e-3
-1.737, 1.989e-3
-1.736, 1.958e-3
-1.735, 1.927e-3
-1.734, 1.896e-3
-1.733, 1.865e-3
-1.732, 1.835e-3
-1.731, 1.804e-3
-1.730, 1.773e-3
-1.729, 1.745e-3
-1.728, 1.714e-3
-1.727, 1.684e-3
-1.726, 1.656e-3
-1.725, 1.625e-3
-1.724, 1.597e-3
-1.723, 1.569e-3
-1.722, 1.542e-3
-1.721, 1.514e-3
-1.720, 1.486e-3
-1.719, 1.458e-3
-1.718, 1.434e-3
-1.717, 1.406e-3
-1.716, 1.378e-3
-1.715, 1.354e-3
-1.714, 1.326e-3
-1.713, 1.301e-3
-1.712, 1.277e-3
-1.711, 1.252e-3
-1.710, 1.227e-3
-1.709, 1.203e-3
-1.708, 1.181e-3
-1.707, 1.156e-3
-1.706, 1.135e-3
-1.705, 1.110e-3
-1.704, 1.088e-3
-1.703, 1.067e-3
-1.702, 1.045e-3
-1.701, 1.024e-3
-1.700, 1.005e-3
-1.699, 9.837e-4
-1.698, 9.652e-4
-1.697, 9.436e-4
-1.696, 9.251e-4
-1.695, 9.035e-4
-1.694, 8.850e-4
-1.693, 8.665e-4
-1.692, 8.480e-4
-1.691, 8.295e-4
-1.690, 8.110e-4
-1.689, 7.925e-4
-1.688, 7.771e-4
-1.687, 7.586e-4
-1.686, 7.432e-4
-1.685, 7.247e-4
-1.684, 7.093e-4
-1.683, 6.939e-4
-1.682, 6.784e-4
-1.681, 6.630e-4
-1.680, 6.476e-4
-1.679, 6.322e-4
-1.678, 6.199e-4
-1.677, 6.044e-4
-1.676, 5.890e-4
-1.675, 5.767e-4
-1.674, 5.644e-4
-1.673, 5.489e-4
-1.672, 5.366e-4
-1.671, 5.243e-4
-1.670, 5.120e-4
-1.669, 4.996e-4
-1.668, 4.873e-4
-1.667, 4.750e-4
-1.666, 4.626e-4
-1.665, 4.534e-4
-1.664, 4.410e-4
-1.663, 4.318e-4
-1.662, 4.225e-4
-1.661, 4.102e-4
-1.660, 4.010e-4
-1.659, 3.917e-4
-1.658, 3.825e-4
-1.657, 3.732e-4
-1.656, 3.640e-4
-1.655, 3.547e-4
-1.654, 3.455e-4
-1.653, 3.362e-4
-1.652, 3.270e-4
-1.651, 3.208e-4
-1.650, 3.085e-4
-1.649, 3.023e-4
-1.648, 2.961e-4
-1.647, 2.869e-4
-1.646, 2.807e-4
-1.645, 2.715e-4
-1.644, 2.653e-4
-1.643, 2.591e-4
-1.642, 2.530e-4
-1.641, 2.468e-4
-1.640, 2.376e-4
-1.639, 2.314e-4
-1.638, 2.283e-4
-1.637, 2.221e-4
-1.636, 2.160e-4
-1.635, 2.098e-4
-1.634, 2.036e-4
-1.633, 1.975e-4
-1.632, 1.944e-4
-1.631, 1.882e-4
-1.630, 1.821e-4
-1.629, 1.790e-4
-1.628, 1.728e-4
-1.627, 1.697e-4
-1.626, 1.636e-4
-1.625, 1.605e-4
-1.624, 1.543e-4
-1.623, 1.512e-4
-1.622, 1.481e-4
-1.621, 1.420e-4
-1.620, 1.389e-4
-1.619, 1.358e-4
-1.618, 1.327e-4
-1.617, 1.266e-4
-1.616, 1.266e-4
-1.615, 1.235e-4
-1.614, 1.173e-4
-1.613, 1.173e-4
-1.612, 1.111e-4
-1.611, 1.111e-4
-1.610, 1.081e-4
-1.609, 1.050e-4
-1.608, 1.019e-4
-1.607, 9.882e-5
-1.606, 9.573e-5
-1.605, 9.265e-5
-1.604, 8.957e-5
-1.603, 8.648e-5
-1.602, 8.648e-5
-1.601, 8.340e-5
-1.600, 8.032e-5
-1.599, 7.723e-5
-1.598, 7.723e-5
-1.597, 7.415e-5
-1.596, 7.415e-5
-1.595, 7.107e-5
-1.594, 6.798e-5
-1.593, 6.798e-5
-1.592, 6.798e-5
-1.591, 6.182e-5
-1.590, 6.182e-5
-1.589, 6.182e-5
-1.588, 5.873e-5
-1.587, 5.873e-5
-1.586, 5.565e-5
-1.585, 5.565e-5
-1.584, 5.257e-5
-1.583, 5.257e-5
-1.582, 4.949e-5
-1.581, 4.949e-5
-1.580, 4.640e-5
-1.579, 4.640e-5
-1.578, 4.640e-5
-1.577, 4.332e-5
-1.576, 4.332e-5
-1.575, 4.024e-5
-1.574, 4.024e-5
-1.573, 4.024e-5
-1.572, 3.715e-5
-1.571, 3.715e-5
-1.570, 3.715e-5
-1.569, 3.715e-5
-1.568, 3.715e-5
-1.567, 3.407e-5
-1.566, 3.407e-5
-1.565, 3.099e-5
-1.564, 3.099e-5
-1.563, 3.099e-5
-1.562, 3.099e-5
-1.561, 2.790e-5
-1.560, 2.790e-5
-1.559, 2.790e-5
-1.558, 2.790e-5
-1.557, 2.790e-5
-1.556, 2.482e-5
-1.555, 2.482e-5
-1.554, 2.482e-5
-1.553, 2.482e-5
-1.552, 2.482e-5
-1.551, 2.174e-5
-1.550, 2.174e-5
-1.549, 2.174e-5
-1.548, 2.174e-5
-1.547, 2.174e-5
-1.546, 2.174e-5
-1.545, 1.865e-5
-1.544, 1.865e-5
-1.543, 1.865e-5
-1.542, 1.865e-5
-1.541, 1.865e-5
-1.540, 1.865e-5
-1.539, 1.557e-5
-1.538, 1.557e-5
-1.537, 1.557e-5
-1.536, 1.557e-5
-1.535, 1.557e-5
-1.534, 1.557e-5
-1.533, 1.557e-5
-1.532, 1.557e-5
-1.531, 1.557e-5
-1.530, 1.249e-5
-1.529, 1.249e-5
-1.528, 1.249e-5
-1.527, 1.249e-5
-1.526, 1.249e-5
-1.525, 1.249e-5
-1.524, 1.249e-5
-1.523, 1.249e-5
-1.522, 1.249e-5
-1.521, 1.249e-5
-1.520, 1.249e-5
-1.519, 1.249e-5
-1.518, 1.249e-5
-1.517, 9.405e-6
-1.516, 9.405e-6
-1.515, 9.405e-6
-1.514, 9.405e-6
-1.513, 9.405e-6
-1.512, 9.405e-6
-1.511, 9.405e-6
-1.510, 9.405e-6
-1.509, 9.405e-6
-1.508, 9.405e-6
-1.507, 9.405e-6
-1.506, 9.405e-6
-1.505, 9.405e-6
-1.504, 9.405e-6
-1.503, 9.405e-6
-1.502, 6.322e-6
-1.501, 9.405e-6
-1.500, 9.405e-6
-1.499, 9.405e-6
-1.498, 9.405e-6
-1.497, 9.405e-6
-1.496, 9.405e-6
-1.495, 6.322e-6
-1.494, 6.322e-6
-1.493, 6.322e-6
-1.492, 6.322e-6
-1.491, 6.322e-6
-1.490, 6.322e-6
-1.489, 6.322e-6
-1.488, 6.322e-6
-1.487, 6.322e-6
-1.486, 6.322e-6
-1.485, 6.322e-6
-1.484, 6.322e-6
-1.483, 6.322e-6
-1.482, 6.322e-6
-1.481, 6.322e-6
-1.480, 6.322e-6
-1.479, 6.322e-6
-1.478, 6.322e-6
-1.477, 6.322e-6
-1.476, 6.322e-6
-1.475, 6.322e-6
-1.474, 6.322e-6
-1.473, 6.322e-6
-1.472, 6.322e-6
-1.471, 6.322e-6
-1.470, 6.322e-6
-1.469, 6.322e-6
-1.468, 6.322e-6
-1.467, 6.322e-6
-1.466, 6.322e-6
-1.465, 6.322e-6
-1.464, 3.239e-6
-1.463, 6.322e-6
-1.462, 6.322e-6
-1.461, 3.239e-6
-1.460, 3.239e-6
-1.459, 3.239e-6
-1.458, 6.322e-6
-1.457, 3.239e-6
-1.456, 3.239e-6
-1.455, 6.322e-6
-1.454, 3.239e-6
-1.453, 3.239e-6
-1.452, 3.239e-6
-1.451, 3.239e-6
-1.450, 3.239e-6
-1.449, 3.239e-6
-1.448, 3.239e-6
-1.447, 3.239e-6
-1.446, 3.239e-6
-1.445, 3.239e-6
-1.444, 3.239e-6
-1.443, 3.239e-6
-1.442, 3.239e-6
-1.441, 3.239e-6
-1.440, 3.239e-6
-1.439, 3.239e-6
-1.438, 3.239e-6
-1.437, 3.239e-6
-1.436, 3.239e-6
-1.435, 3.239e-6
-1.434, 3.239e-6
-1.433, 3.239e-6
-1.432, 3.239e-6
-1.431, 3.239e-6
-1.430, 3.239e-6
-1.429, 3.239e-6
-1.428, 3.239e-6
-1.427, 3.239e-6
-1.426, 3.239e-6
-1.425, 3.239e-6
-1.424, 3.239e-6
-1.423, 3.239e-6
-1.422, 3.239e-6
-1.421, 1.559e-7
-1.420, 3.239e-6
-1.419, 3.239e-6
-1.418, 3.239e-6
-1.417, 3.239e-6
-1.416, 3.239e-6
-1.415, 3.239e-6
-1.414, 3.239e-6
-1.413, 3.239e-6
-1.412, 3.239e-6
-1.411, 3.239e-6
-1.410, 3.239e-6
-1.409, 3.239e-6
-1.408, 3.239e-6
-1.407, 3.239e-6
-1.406, 1.559e-7
-1.405, 3.239e-6
-1.404, 3.239e-6
-1.403, 3.239e-6
-1.402, 1.559e-7
-1.401, 3.239e-6
-1.400, 3.239e-6
-1.399, 1.559e-7
-1.398, 3.239e-6
-1.397, 1.559e-7
-1.396, 1.559e-7
-1.395, 1.559e-7
-1.394, 3.239e-6
-1.393, 1.559e-7
-1.392, 1.559e-7
-1.391, 3.239e-6
-1.390, 3.239e-6
-1.389, 3.239e-6
-1.388, 3.239e-6
-1.387, 1.559e-7
-1.386, 1.559e-7
-1.385, 3.239e-6
-1.384, 1.559e-7
-1.383, 1.559e-7
-1.382, 1.559e-7
-1.381, 1.559e-7
-1.380, 1.559e-7
-1.379, 1.559e-7
-1.378, 1.559e-7
-1.377, 1.559e-7
-1.376, 1.559e-7
-1.375, 1.559e-7
-1.374, 1.559e-7
-1.373, 1.559e-7
-1.372, 1.559e-7
-1.371, 1.559e-7
-1.370, 1.559e-7
-1.369, 1.559e-7
-1.368, 1.559e-7
-1.367, 1.559e-7
-1.366, 1.559e-7
-1.365, 1.559e-7
-1.364, 3.239e-6
-1.363, 3.239e-6
-1.362, 1.559e-7
-1.361, 1.559e-7
-1.360, 1.559e-7
-1.359, 1.559e-7
-1.358, 1.559e-7
-1.357, 1.559e-7
-1.356, 1.559e-7
-1.355, 1.559e-7
-1.354, 1.559e-7
-1.353, 3.239e-6
-1.352, 1.559e-7
-1.351, 1.559e-7
-1.350, 1.559e-7
-1.349, 1.559e-7
-1.348, 1.559e-7
-1.347, 1.559e-7
-1.346, 1.559e-7
-1.345, 1.559e-7
-1.344, 1.559e-7
-1.343, 1.559e-7
-1.342, 1.559e-7
-1.341, 1.559e-7
-1.340, 1.559e-7
-1.339, 1.559e-7
-1.338, 1.559e-7
-1.337, 1.559e-7
-1.336, 1.559e-7
-1.335, 1.559e-7
-1.334, 1.559e-7
-1.333, 1.559e-7
-1.332, 1.559e-7
-1.331, 1.559e-7
-1.330, 1.559e-7
-1.329, 1.559e-7
-1.328, 1.559e-7
-1.327, 1.559e-7
-1.326, 1.559e-7
-1.325, 1.559e-7
-1.324, 1.559e-7
-1.323, 1.559e-7
-1.322, 1.559e-7
-1.321, 1.559e-7
-1.320, 1.559e-7
-1.319, 1.559e-7
-1.318, 1.559e-7
-1.317, 1.559e-7
-1.316, 1.559e-7
-1.315, 1.559e-7
-1.314, 1.559e-7
-1.313, 1.559e-7
-1.312, 1.559e-7
-1.311, 1.559e-7
-1.310, 1.559e-7
-1.309, 1.559e-7
-1.308, 1.559e-7
-1.307, 1.559e-7
-1.306, 1.559e-7
-1.305, 1.559e-7
-1.304, 1.559e-7
-1.303, 1.559e-7
-1.302, 1.559e-7
-1.301, 1.559e-7
-1.300, 1.559e-7
-1.299, 1.559e-7
-1.298, 1.559e-7
-1.297, 1.559e-7
-1.296, 1.559e-7
-1.295, 1.559e-7
-1.294, 1.559e-7
-1.293, 1.559e-7
-1.292, 1.559e-7
-1.291, 1.559e-7
-1.290, 1.559e-7
-1.289, 1.559e-7
-1.288, 1.559e-7
-1.287, 1.559e-7
-1.286, 1.559e-7
-1.285, 1.559e-7
-1.284, 1.559e-7
-1.283, 1.559e-7
-1.282, 1.559e-7
-1.281, 1.559e-7
-1.280, 1.559e-7
-1.279, 1.559e-7
-1.278, 1.559e-7
-1.277, 1.559e-7
-1.276, 1.559e-7
-1.275, 1.559e-7
-1.274, 1.559e-7
-1.273, 1.559e-7
-1.272, 1.559e-7
-1.271, 1.559e-7
-1.270, 1.559e-7
-1.269, 1.559e-7
-1.268, 1.559e-7
-1.267, 1.559e-7
-1.266, 1.559e-7
-1.265, 1.559e-7
-1.264, 1.559e-7
-1.263, 1.559e-7
-1.262, 1.559e-7
-1.261, 1.559e-7
-1.260, 1.559e-7
-1.259, 1.559e-7
-1.258, 1.559e-7
-1.257, 1.559e-7
-1.256, 1.559e-7
-1.255, 1.559e-7
-1.254, 1.559e-7
-1.253, 1.559e-7
-1.252, 1.559e-7
-1.251, 1.559e-7
-1.250, 1.559e-7
-1.249, 1.559e-7
-1.248, 1.559e-7
-1.247, 1.559e-7
-1.246, 1.559e-7
-1.245, 1.559e-7
-1.244, -2.927e-6
-1.243, 1.559e-7
-1.242, 1.559e-7
-1.241, 1.559e-7
-1.240, 1.559e-7
-1.239, 1.559e-7
-1.238, 1.559e-7
-1.237, -2.927e-6
-1.236, 1.559e-7
-1.235, 1.559e-7
-1.234, 1.559e-7
-1.233, 1.559e-7
-1.232, 1.559e-7
-1.231, 1.559e-7
-1.230, 1.559e-7
-1.229, 1.559e-7
-1.228, 1.559e-7
-1.227, 1.559e-7
-1.226, 1.559e-7
-1.225, 1.559e-7
-1.224, 1.559e-7
-1.223, 1.559e-7
-1.222, 1.559e-7
-1.221, 1.559e-7
-1.220, 1.559e-7
-1.219, 1.559e-7
-1.218, 1.559e-7
-1.217, -2.927e-6
-1.216, 1.559e-7
-1.215, 1.559e-7
-1.214, 1.559e-7
-1.213, 1.559e-7
-1.212, -2.927e-6
-1.211, 1.559e-7
-1.210, 1.559e-7
-1.209, 1.559e-7
-1.208, 1.559e-7
-1.207, 1.559e-7
-1.206, 1.559e-7
-1.205, 1.559e-7
-1.204, 1.559e-7
-1.203, 1.559e-7
-1.202, 1.559e-7
-1.201, 1.559e-7
-1.200, 1.559e-7
-1.199, -2.927e-6
-1.198, 1.559e-7
-1.197, -2.927e-6
-1.196, 1.559e-7
-1.195, 1.559e-7
-1.194, 1.559e-7
-1.193, -2.927e-6
-1.192, 1.559e-7
-1.191, -2.927e-6
-1.190, 1.559e-7
-1.189, 1.559e-7
-1.188, 1.559e-7
-1.187, 1.559e-7
-1.186, 1.559e-7
-1.185, 1.559e-7
-1.184, 1.559e-7
-1.183, 1.559e-7
-1.182, 1.559e-7
-1.181, 1.559e-7
-1.180, 1.559e-7
-1.179, 1.559e-7
-1.178, 1.559e-7
-1.177, 1.559e-7
-1.176, -2.927e-6
-1.175, -2.927e-6
-1.174, -2.927e-6
-1.173, 1.559e-7
-1.172, -2.927e-6
-1.171, -2.927e-6
-1.170, 1.559e-7
-1.169, -2.927e-6
-1.168, -2.927e-6
-1.167, -2.927e-6
-1.166, 1.559e-7
-1.165, 1.559e-7
-1.164, 1.559e-7
-1.163, 1.559e-7
-1.162, 1.559e-7
-1.161, 1.559e-7
-1.160, 1.559e-7
-1.159, 1.559e-7
-1.158, 1.559e-7
-1.157, -2.927e-6
-1.156, -2.927e-6
-1.155, -2.927e-6
-1.154, -2.927e-6
-1.153, 1.559e-7
-1.152, -2.927e-6
-1.151, -2.927e-6
-1.150, 1.559e-7
-1.149, -2.927e-6
-1.148, 1.559e-7
-1.147, 1.559e-7
-1.146, -2.927e-6
-1.145, 1.559e-7
-1.144, -2.927e-6
-1.143, 1.559e-7
-1.142, 1.559e-7
-1.141, -2.927e-6
-1.140, 1.559e-7
-1.139, 1.559e-7
-1.138, 1.559e-7
-1.137, 1.559e-7
-1.136, -2.927e-6
-1.135, 1.559e-7
-1.134, 1.559e-7
-1.133, 1.559e-7
-1.132, -2.927e-6
-1.131, -2.927e-6
-1.130, 1.559e-7
-1.129, -2.927e-6
-1.128, -2.927e-6
-1.127, 1.559e-7
-1.126, -2.927e-6
-1.125, -2.927e-6
-1.124, 1.559e-7
-1.123, 1.559e-7
-1.122, 1.559e-7
-1.121, -2.927e-6
-1.120, -2.927e-6
-1.119, -2.927e-6
-1.118, 1.559e-7
-1.117, 1.559e-7
-1.116, 1.559e-7
-1.115, 1.559e-7
-1.114, -2.927e-6
-1.113, 1.559e-7
-1.112, 1.559e-7
-1.111, 1.559e-7
-1.110, -2.927e-6
-1.109, -2.927e-6
-1.108, -2.927e-6
-1.107, -2.927e-6
-1.106, -2.927e-6
-1.105, -2.927e-6
-1.104, -2.927e-6
-1.103, -2.927e-6
-1.102, -2.927e-6
-1.101, -2.927e-6
-1.100, -2.927e-6
-1.099, -2.927e-6
-1.098, 1.559e-7
-1.097, -2.927e-6
-1.096, -2.927e-6
-1.095, -2.927e-6
-1.094, 1.559e-7
-1.093, 1.559e-7
-1.092, -2.927e-6
-1.091, -2.927e-6
-1.090, 1.559e-7
-1.089, 1.559e-7
-1.088, 1.559e-7
-1.087, -2.927e-6
-1.086, -2.927e-6
-1.085, 1.559e-7
-1.084, -2.927e-6
-1.083, 1.559e-7
-1.082, -2.927e-6
-1.081, -2.927e-6
-1.080, -2.927e-6
-1.079, -2.927e-6
-1.078, -2.927e-6
-1.077, -2.927e-6
-1.076, -2.927e-6
-1.075, 1.559e-7
-1.074, -2.927e-6
-1.073, -2.927e-6
-1.072, -2.927e-6
-1.071, -2.927e-6
-1.070, 1.559e-7
-1.069, 1.559e-7
-1.068, -2.927e-6
-1.067, 1.559e-7
-1.066, -2.927e-6
-1.065, -2.927e-6
-1.064, 1.559e-7
-1.063, 1.559e-7
-1.062, -2.927e-6
-1.061, -2.927e-6
-1.060, -2.927e-6
-1.059, -2.927e-6
-1.058, -2.927e-6
-1.057, -2.927e-6
-1.056, -2.927e-6
-1.055, -2.927e-6
-1.054, -2.927e-6
-1.053, -2.927e-6
-1.052, -2.927e-6
-1.051, -2.927e-6
-1.050, 1.559e-7
-1.049, 1.559e-7
-1.048, -2.927e-6
-1.047, -2.927e-6
-1.046, -2.927e-6
-1.045, 1.559e-7
-1.044, -2.927e-6
-1.043, 1.559e-7
-1.042, -2.927e-6
-1.041, -2.927e-6
-1.040, -2.927e-6
-1.039, -2.927e-6
-1.038, -2.927e-6
-1.037, -2.927e-6
-1.036, -2.927e-6
-1.035, -2.927e-6
-1.034, -2.927e-6
-1.033, -2.927e-6
-1.032, -2.927e-6
-1.031, -2.927e-6
-1.030, 1.559e-7
-1.029, -2.927e-6
-1.028, -2.927e-6
-1.027, -2.927e-6
-1.026, -2.927e-6
-1.025, -2.927e-6
-1.024, -2.927e-6
-1.023, -2.927e-6
-1.022, -2.927e-6
-1.021, -2.927e-6
-1.020, -2.927e-6
-1.019, -2.927e-6
-1.018, -2.927e-6
-1.017, -2.927e-6
-1.016, -2.927e-6
-1.015, -2.927e-6
-1.014, -2.927e-6
-1.013, -2.927e-6
-1.012, -2.927e-6
-1.011, -2.927e-6
-1.010, -2.927e-6
-1.009, -2.927e-6
-1.008, -2.927e-6
-1.007, -2.927e-6
-1.006, 1.559e-7
-1.005, -2.927e-6
-1.004, -2.927e-6
-1.003, -2.927e-6
-1.002, -2.927e-6
-1.001, -2.927e-6
