Aug. 17, 2024   02:25:30
Cyclic Voltammetry
File: c:/users/guazh/data/20240813_batch_94_500/2024-08-15-exp109\exp109-2024-08-17t02_05_02-arkoh\exp109_cv_sr_800mvs_efin_-1700mv.bin
Data Source:  Experiment
Instrument Model:  CHI760E
Header: CV ran at 800 mVs
Note: 

Init E (V) = -1
High E (V) = -1
Low E (V) = -1.7
Final E (V) = -1
Init P/N = N
Scan Rate (V/s) = 0.8
Segment = 3
Sample Interval (V) = 0.001
Quiet Time (sec) = 2
Sensitivity (A/V) = 0.01
Comp R (ohm) = 1.5

Results:

Channel 1:
Segment 1:

Segment 2:

Segment 3:

Potential/V, Current/A

-1.000, 1.249e-5
-1.001, 2.482e-5
-1.002, 3.099e-5
-1.003, 3.407e-5
-1.004, 3.407e-5
-1.005, 3.715e-5
-1.006, 4.024e-5
-1.007, 4.024e-5
-1.008, 4.024e-5
-1.009, 4.024e-5
-1.010, 4.332e-5
-1.011, 4.332e-5
-1.012, 4.332e-5
-1.013, 4.640e-5
-1.014, 4.640e-5
-1.015, 4.640e-5
-1.016, 4.640e-5
-1.017, 4.640e-5
-1.018, 4.640e-5
-1.019, 4.949e-5
-1.020, 4.949e-5
-1.021, 4.949e-5
-1.022, 4.949e-5
-1.023, 4.949e-5
-1.024, 5.257e-5
-1.025, 5.257e-5
-1.026, 5.257e-5
-1.027, 5.257e-5
-1.028, 5.565e-5
-1.029, 5.565e-5
-1.030, 5.565e-5
-1.031, 5.565e-5
-1.032, 5.873e-5
-1.033, 5.873e-5
-1.034, 5.873e-5
-1.035, 5.873e-5
-1.036, 6.182e-5
-1.037, 6.182e-5
-1.038, 6.182e-5
-1.039, 6.182e-5
-1.040, 6.182e-5
-1.041, 6.182e-5
-1.042, 6.182e-5
-1.043, 6.182e-5
-1.044, 6.490e-5
-1.045, 6.490e-5
-1.046, 6.490e-5
-1.047, 6.490e-5
-1.048, 6.490e-5
-1.049, 6.490e-5
-1.050, 6.490e-5
-1.051, 6.490e-5
-1.052, 6.798e-5
-1.053, 6.490e-5
-1.054, 6.490e-5
-1.055, 6.490e-5
-1.056, 6.798e-5
-1.057, 6.798e-5
-1.058, 6.490e-5
-1.059, 6.490e-5
-1.060, 6.490e-5
-1.061, 6.798e-5
-1.062, 6.798e-5
-1.063, 6.490e-5
-1.064, 6.490e-5
-1.065, 6.798e-5
-1.066, 6.798e-5
-1.067, 6.798e-5
-1.068, 6.798e-5
-1.069, 6.798e-5
-1.070, 6.798e-5
-1.071, 6.798e-5
-1.072, 6.798e-5
-1.073, 6.798e-5
-1.074, 6.798e-5
-1.075, 6.798e-5
-1.076, 6.798e-5
-1.077, 6.798e-5
-1.078, 6.798e-5
-1.079, 6.798e-5
-1.080, 6.798e-5
-1.081, 6.798e-5
-1.082, 6.798e-5
-1.083, 6.798e-5
-1.084, 6.798e-5
-1.085, 6.798e-5
-1.086, 6.798e-5
-1.087, 6.798e-5
-1.088, 6.798e-5
-1.089, 6.798e-5
-1.090, 6.798e-5
-1.091, 6.798e-5
-1.092, 6.798e-5
-1.093, 6.798e-5
-1.094, 6.798e-5
-1.095, 7.107e-5
-1.096, 6.798e-5
-1.097, 7.107e-5
-1.098, 7.107e-5
-1.099, 7.107e-5
-1.100, 7.107e-5
-1.101, 7.107e-5
-1.102, 6.798e-5
-1.103, 7.107e-5
-1.104, 6.798e-5
-1.105, 6.798e-5
-1.106, 7.107e-5
-1.107, 7.107e-5
-1.108, 7.107e-5
-1.109, 7.107e-5
-1.110, 7.107e-5
-1.111, 7.107e-5
-1.112, 7.107e-5
-1.113, 7.107e-5
-1.114, 7.107e-5
-1.115, 7.107e-5
-1.116, 7.107e-5
-1.117, 7.107e-5
-1.118, 7.107e-5
-1.119, 7.107e-5
-1.120, 7.107e-5
-1.121, 7.107e-5
-1.122, 7.107e-5
-1.123, 7.107e-5
-1.124, 7.107e-5
-1.125, 7.107e-5
-1.126, 7.107e-5
-1.127, 7.107e-5
-1.128, 7.107e-5
-1.129, 7.107e-5
-1.130, 7.107e-5
-1.131, 7.107e-5
-1.132, 7.107e-5
-1.133, 7.107e-5
-1.134, 7.107e-5
-1.135, 7.107e-5
-1.136, 7.415e-5
-1.137, 7.107e-5
-1.138, 7.107e-5
-1.139, 7.107e-5
-1.140, 7.107e-5
-1.141, 7.107e-5
-1.142, 7.107e-5
-1.143, 7.415e-5
-1.144, 7.415e-5
-1.145, 7.107e-5
-1.146, 7.107e-5
-1.147, 7.107e-5
-1.148, 7.415e-5
-1.149, 7.415e-5
-1.150, 7.107e-5
-1.151, 7.415e-5
-1.152, 7.415e-5
-1.153, 7.415e-5
-1.154, 7.415e-5
-1.155, 7.107e-5
-1.156, 7.415e-5
-1.157, 7.415e-5
-1.158, 7.415e-5
-1.159, 7.415e-5
-1.160, 7.415e-5
-1.161, 7.415e-5
-1.162, 7.415e-5
-1.163, 7.415e-5
-1.164, 7.415e-5
-1.165, 7.415e-5
-1.166, 7.415e-5
-1.167, 7.415e-5
-1.168, 7.415e-5
-1.169, 7.723e-5
-1.170, 7.415e-5
-1.171, 7.415e-5
-1.172, 7.415e-5
-1.173, 7.415e-5
-1.174, 7.415e-5
-1.175, 7.415e-5
-1.176, 7.415e-5
-1.177, 7.415e-5
-1.178, 7.415e-5
-1.179, 7.415e-5
-1.180, 7.415e-5
-1.181, 7.723e-5
-1.182, 7.723e-5
-1.183, 7.415e-5
-1.184, 7.415e-5
-1.185, 7.723e-5
-1.186, 7.723e-5
-1.187, 7.723e-5
-1.188, 7.723e-5
-1.189, 7.723e-5
-1.190, 7.723e-5
-1.191, 7.723e-5
-1.192, 7.723e-5
-1.193, 7.723e-5
-1.194, 7.723e-5
-1.195, 7.723e-5
-1.196, 7.723e-5
-1.197, 7.723e-5
-1.198, 7.723e-5
-1.199, 7.723e-5
-1.200, 7.723e-5
-1.201, 7.723e-5
-1.202, 7.723e-5
-1.203, 7.723e-5
-1.204, 7.723e-5
-1.205, 7.723e-5
-1.206, 7.723e-5
-1.207, 7.723e-5
-1.208, 7.723e-5
-1.209, 7.723e-5
-1.210, 8.032e-5
-1.211, 7.723e-5
-1.212, 8.032e-5
-1.213, 7.723e-5
-1.214, 8.032e-5
-1.215, 8.032e-5
-1.216, 8.032e-5
-1.217, 8.032e-5
-1.218, 8.032e-5
-1.219, 8.032e-5
-1.220, 8.032e-5
-1.221, 8.032e-5
-1.222, 8.032e-5
-1.223, 8.032e-5
-1.224, 8.032e-5
-1.225, 8.032e-5
-1.226, 8.032e-5
-1.227, 8.032e-5
-1.228, 8.032e-5
-1.229, 8.032e-5
-1.230, 8.340e-5
-1.231, 8.340e-5
-1.232, 8.032e-5
-1.233, 8.340e-5
-1.234, 8.032e-5
-1.235, 8.032e-5
-1.236, 8.340e-5
-1.237, 8.032e-5
-1.238, 8.340e-5
-1.239, 8.340e-5
-1.240, 8.340e-5
-1.241, 8.340e-5
-1.242, 8.340e-5
-1.243, 8.340e-5
-1.244, 8.340e-5
-1.245, 8.340e-5
-1.246, 8.340e-5
-1.247, 8.340e-5
-1.248, 8.340e-5
-1.249, 8.340e-5
-1.250, 8.340e-5
-1.251, 8.648e-5
-1.252, 8.648e-5
-1.253, 8.648e-5
-1.254, 8.340e-5
-1.255, 8.648e-5
-1.256, 8.648e-5
-1.257, 8.648e-5
-1.258, 8.648e-5
-1.259, 8.648e-5
-1.260, 8.648e-5
-1.261, 8.648e-5
-1.262, 8.648e-5
-1.263, 8.648e-5
-1.264, 8.648e-5
-1.265, 8.648e-5
-1.266, 8.648e-5
-1.267, 8.957e-5
-1.268, 8.957e-5
-1.269, 8.957e-5
-1.270, 8.957e-5
-1.271, 8.957e-5
-1.272, 8.957e-5
-1.273, 8.957e-5
-1.274, 8.957e-5
-1.275, 8.957e-5
-1.276, 8.957e-5
-1.277, 9.265e-5
-1.278, 9.265e-5
-1.279, 9.265e-5
-1.280, 9.265e-5
-1.281, 9.265e-5
-1.282, 9.265e-5
-1.283, 9.265e-5
-1.284, 9.265e-5
-1.285, 9.265e-5
-1.286, 9.265e-5
-1.287, 9.265e-5
-1.288, 9.265e-5
-1.289, 9.573e-5
-1.290, 9.573e-5
-1.291, 9.573e-5
-1.292, 9.573e-5
-1.293, 9.573e-5
-1.294, 9.573e-5
-1.295, 9.573e-5
-1.296, 9.882e-5
-1.297, 9.882e-5
-1.298, 9.882e-5
-1.299, 9.573e-5
-1.300, 9.882e-5
-1.301, 9.882e-5
-1.302, 1.019e-4
-1.303, 9.882e-5
-1.304, 1.019e-4
-1.305, 1.019e-4
-1.306, 1.019e-4
-1.307, 1.019e-4
-1.308, 1.019e-4
-1.309, 1.019e-4
-1.310, 1.050e-4
-1.311, 1.019e-4
-1.312, 1.050e-4
-1.313, 1.050e-4
-1.314, 1.050e-4
-1.315, 1.050e-4
-1.316, 1.050e-4
-1.317, 1.050e-4
-1.318, 1.081e-4
-1.319, 1.081e-4
-1.320, 1.081e-4
-1.321, 1.081e-4
-1.322, 1.081e-4
-1.323, 1.111e-4
-1.324, 1.111e-4
-1.325, 1.111e-4
-1.326, 1.111e-4
-1.327, 1.111e-4
-1.328, 1.111e-4
-1.329, 1.142e-4
-1.330, 1.142e-4
-1.331, 1.142e-4
-1.332, 1.142e-4
-1.333, 1.173e-4
-1.334, 1.173e-4
-1.335, 1.173e-4
-1.336, 1.173e-4
-1.337, 1.173e-4
-1.338, 1.204e-4
-1.339, 1.204e-4
-1.340, 1.204e-4
-1.341, 1.204e-4
-1.342, 1.204e-4
-1.343, 1.235e-4
-1.344, 1.235e-4
-1.345, 1.235e-4
-1.346, 1.266e-4
-1.347, 1.266e-4
-1.348, 1.266e-4
-1.349, 1.296e-4
-1.350, 1.296e-4
-1.351, 1.296e-4
-1.352, 1.327e-4
-1.353, 1.327e-4
-1.354, 1.327e-4
-1.355, 1.358e-4
-1.356, 1.358e-4
-1.357, 1.358e-4
-1.358, 1.358e-4
-1.359, 1.389e-4
-1.360, 1.389e-4
-1.361, 1.389e-4
-1.362, 1.420e-4
-1.363, 1.420e-4
-1.364, 1.420e-4
-1.365, 1.451e-4
-1.366, 1.451e-4
-1.367, 1.451e-4
-1.368, 1.481e-4
-1.369, 1.512e-4
-1.370, 1.512e-4
-1.371, 1.512e-4
-1.372, 1.512e-4
-1.373, 1.543e-4
-1.374, 1.543e-4
-1.375, 1.574e-4
-1.376, 1.574e-4
-1.377, 1.605e-4
-1.378, 1.605e-4
-1.379, 1.605e-4
-1.380, 1.636e-4
-1.381, 1.636e-4
-1.382, 1.666e-4
-1.383, 1.666e-4
-1.384, 1.697e-4
-1.385, 1.728e-4
-1.386, 1.759e-4
-1.387, 1.728e-4
-1.388, 1.759e-4
-1.389, 1.790e-4
-1.390, 1.821e-4
-1.391, 1.821e-4
-1.392, 1.851e-4
-1.393, 1.882e-4
-1.394, 1.882e-4
-1.395, 1.882e-4
-1.396, 1.913e-4
-1.397, 1.944e-4
-1.398, 1.944e-4
-1.399, 1.975e-4
-1.400, 1.975e-4
-1.401, 2.006e-4
-1.402, 2.036e-4
-1.403, 2.067e-4
-1.404, 2.067e-4
-1.405, 2.098e-4
-1.406, 2.129e-4
-1.407, 2.160e-4
-1.408, 2.160e-4
-1.409, 2.191e-4
-1.410, 2.221e-4
-1.411, 2.252e-4
-1.412, 2.252e-4
-1.413, 2.283e-4
-1.414, 2.314e-4
-1.415, 2.345e-4
-1.416, 2.376e-4
-1.417, 2.406e-4
-1.418, 2.437e-4
-1.419, 2.437e-4
-1.420, 2.468e-4
-1.421, 2.499e-4
-1.422, 2.530e-4
-1.423, 2.561e-4
-1.424, 2.591e-4
-1.425, 2.622e-4
-1.426, 2.653e-4
-1.427, 2.684e-4
-1.428, 2.715e-4
-1.429, 2.746e-4
-1.430, 2.807e-4
-1.431, 2.838e-4
-1.432, 2.838e-4
-1.433, 2.900e-4
-1.434, 2.931e-4
-1.435, 2.961e-4
-1.436, 2.992e-4
-1.437, 3.054e-4
-1.438, 3.085e-4
-1.439, 3.146e-4
-1.440, 3.146e-4
-1.441, 3.208e-4
-1.442, 3.239e-4
-1.443, 3.300e-4
-1.444, 3.300e-4
-1.445, 3.362e-4
-1.446, 3.393e-4
-1.447, 3.455e-4
-1.448, 3.485e-4
-1.449, 3.547e-4
-1.450, 3.578e-4
-1.451, 3.640e-4
-1.452, 3.670e-4
-1.453, 3.732e-4
-1.454, 3.763e-4
-1.455, 3.825e-4
-1.456, 3.886e-4
-1.457, 3.917e-4
-1.458, 3.979e-4
-1.459, 4.010e-4
-1.460, 4.071e-4
-1.461, 4.133e-4
-1.462, 4.164e-4
-1.463, 4.225e-4
-1.464, 4.287e-4
-1.465, 4.349e-4
-1.466, 4.410e-4
-1.467, 4.441e-4
-1.468, 4.534e-4
-1.469, 4.595e-4
-1.470, 4.626e-4
-1.471, 4.688e-4
-1.472, 4.750e-4
-1.473, 4.811e-4
-1.474, 4.904e-4
-1.475, 4.935e-4
-1.476, 5.027e-4
-1.477, 5.089e-4
-1.478, 5.150e-4
-1.479, 5.212e-4
-1.480, 5.274e-4
-1.481, 5.335e-4
-1.482, 5.428e-4
-1.483, 5.489e-4
-1.484, 5.551e-4
-1.485, 5.644e-4
-1.486, 5.705e-4
-1.487, 5.798e-4
-1.488, 5.859e-4
-1.489, 5.952e-4
-1.490, 6.014e-4
-1.491, 6.075e-4
-1.492, 6.168e-4
-1.493, 6.260e-4
-1.494, 6.322e-4
-1.495, 6.414e-4
-1.496, 6.507e-4
-1.497, 6.599e-4
-1.498, 6.661e-4
-1.499, 6.723e-4
-1.500, 6.815e-4
-1.501, 6.939e-4
-1.502, 7.000e-4
-1.503, 7.093e-4
-1.504, 7.185e-4
-1.505, 7.278e-4
-1.506, 7.370e-4
-1.507, 7.463e-4
-1.508, 7.555e-4
-1.509, 7.648e-4
-1.510, 7.740e-4
-1.511, 7.863e-4
-1.512, 7.925e-4
-1.513, 8.048e-4
-1.514, 8.141e-4
-1.515, 8.233e-4
-1.516, 8.326e-4
-1.517, 8.449e-4
-1.518, 8.542e-4
-1.519, 8.665e-4
-1.520, 8.758e-4
-1.521, 8.881e-4
-1.522, 8.973e-4
-1.523, 9.097e-4
-1.524, 9.189e-4
-1.525, 9.313e-4
-1.526, 9.405e-4
-1.527, 9.559e-4
-1.528, 9.652e-4
-1.529, 9.775e-4
-1.530, 9.868e-4
-1.531, 1.002e-3
-1.532, 1.011e-3
-1.533, 1.024e-3
-1.534, 1.036e-3
-1.535, 1.048e-3
-1.536, 1.061e-3
-1.537, 1.073e-3
-1.538, 1.085e-3
-1.539, 1.098e-3
-1.540, 1.113e-3
-1.541, 1.125e-3
-1.542, 1.138e-3
-1.543, 1.150e-3
-1.544, 1.166e-3
-1.545, 1.178e-3
-1.546, 1.190e-3
-1.547, 1.203e-3
-1.548, 1.218e-3
-1.549, 1.230e-3
-1.550, 1.246e-3
-1.551, 1.258e-3
-1.552, 1.273e-3
-1.553, 1.289e-3
-1.554, 1.301e-3
-1.555, 1.317e-3
-1.556, 1.332e-3
-1.557, 1.347e-3
-1.558, 1.363e-3
-1.559, 1.378e-3
-1.560, 1.394e-3
-1.561, 1.406e-3
-1.562, 1.421e-3
-1.563, 1.437e-3
-1.564, 1.455e-3
-1.565, 1.468e-3
-1.566, 1.483e-3
-1.567, 1.499e-3
-1.568, 1.520e-3
-1.569, 1.536e-3
-1.570, 1.551e-3
-1.571, 1.566e-3
-1.572, 1.585e-3
-1.573, 1.603e-3
-1.574, 1.619e-3
-1.575, 1.637e-3
-1.576, 1.656e-3
-1.577, 1.671e-3
-1.578, 1.690e-3
-1.579, 1.708e-3
-1.580, 1.727e-3
-1.581, 1.745e-3
-1.582, 1.761e-3
-1.583, 1.779e-3
-1.584, 1.801e-3
-1.585, 1.816e-3
-1.586, 1.835e-3
-1.587, 1.856e-3
-1.588, 1.875e-3
-1.589, 1.896e-3
-1.590, 1.912e-3
-1.591, 1.933e-3
-1.592, 1.952e-3
-1.593, 1.970e-3
-1.594, 1.992e-3
-1.595, 2.010e-3
-1.596, 2.032e-3
-1.597, 2.054e-3
-1.598, 2.072e-3
-1.599, 2.094e-3
-1.600, 2.112e-3
-1.601, 2.134e-3
-1.602, 2.155e-3
-1.603, 2.177e-3
-1.604, 2.198e-3
-1.605, 2.220e-3
-1.606, 2.242e-3
-1.607, 2.263e-3
-1.608, 2.285e-3
-1.609, 2.309e-3
-1.610, 2.331e-3
-1.611, 2.353e-3
-1.612, 2.374e-3
-1.613, 2.399e-3
-1.614, 2.420e-3
-1.615, 2.445e-3
-1.616, 2.467e-3
-1.617, 2.491e-3
-1.618, 2.516e-3
-1.619, 2.541e-3
-1.620, 2.562e-3
-1.621, 2.587e-3
-1.622, 2.612e-3
-1.623, 2.636e-3
-1.624, 2.661e-3
-1.625, 2.686e-3
-1.626, 2.710e-3
-1.627, 2.735e-3
-1.628, 2.760e-3
-1.629, 2.784e-3
-1.630, 2.812e-3
-1.631, 2.837e-3
-1.632, 2.861e-3
-1.633, 2.886e-3
-1.634, 2.914e-3
-1.635, 2.938e-3
-1.636, 2.966e-3
-1.637, 2.994e-3
-1.638, 3.022e-3
-1.639, 3.049e-3
-1.640, 3.074e-3
-1.641, 3.102e-3
-1.642, 3.133e-3
-1.643, 3.160e-3
-1.644, 3.188e-3
-1.645, 3.216e-3
-1.646, 3.244e-3
-1.647, 3.271e-3
-1.648, 3.302e-3
-1.649, 3.330e-3
-1.650, 3.358e-3
-1.651, 3.385e-3
-1.652, 3.416e-3
-1.653, 3.444e-3
-1.654, 3.475e-3
-1.655, 3.506e-3
-1.656, 3.536e-3
-1.657, 3.567e-3
-1.658, 3.598e-3
-1.659, 3.626e-3
-1.660, 3.660e-3
-1.661, 3.688e-3
-1.662, 3.718e-3
-1.663, 3.749e-3
-1.664, 3.783e-3
-1.665, 3.814e-3
-1.666, 3.845e-3
-1.667, 3.879e-3
-1.668, 3.910e-3
-1.669, 3.940e-3
-1.670, 3.974e-3
-1.671, 4.005e-3
-1.672, 4.039e-3
-1.673, 4.070e-3
-1.674, 4.104e-3
-1.675, 4.138e-3
-1.676, 4.172e-3
-1.677, 4.209e-3
-1.678, 4.239e-3
-1.679, 4.273e-3
-1.680, 4.307e-3
-1.681, 4.344e-3
-1.682, 4.375e-3
-1.683, 4.412e-3
-1.684, 4.446e-3
-1.685, 4.483e-3
-1.686, 4.514e-3
-1.687, 4.548e-3
-1.688, 4.582e-3
-1.689, 4.619e-3
-1.690, 4.653e-3
-1.691, 4.693e-3
-1.692, 4.730e-3
-1.693, 4.767e-3
-1.694, 4.804e-3
-1.695, 4.838e-3
-1.696, 4.878e-3
-1.697, 4.915e-3
-1.698, 4.955e-3
-1.699, 4.992e-3
-1.700, 5.001e-3
-1.699, 4.970e-3
-1.698, 4.933e-3
-1.697, 4.902e-3
-1.696, 4.868e-3
-1.695, 4.838e-3
-1.694, 4.807e-3
-1.693, 4.773e-3
-1.692, 4.739e-3
-1.691, 4.705e-3
-1.690, 4.674e-3
-1.689, 4.640e-3
-1.688, 4.606e-3
-1.687, 4.575e-3
-1.686, 4.545e-3
-1.685, 4.511e-3
-1.684, 4.477e-3
-1.683, 4.443e-3
-1.682, 4.412e-3
-1.681, 4.378e-3
-1.680, 4.347e-3
-1.679, 4.313e-3
-1.678, 4.283e-3
-1.677, 4.249e-3
-1.676, 4.215e-3
-1.675, 4.184e-3
-1.674, 4.150e-3
-1.673, 4.119e-3
-1.672, 4.085e-3
-1.671, 4.054e-3
-1.670, 4.021e-3
-1.669, 3.990e-3
-1.668, 3.959e-3
-1.667, 3.925e-3
-1.666, 3.894e-3
-1.665, 3.863e-3
-1.664, 3.832e-3
-1.663, 3.799e-3
-1.662, 3.768e-3
-1.661, 3.740e-3
-1.660, 3.709e-3
-1.659, 3.678e-3
-1.658, 3.647e-3
-1.657, 3.617e-3
-1.656, 3.589e-3
-1.655, 3.555e-3
-1.654, 3.527e-3
-1.653, 3.499e-3
-1.652, 3.469e-3
-1.651, 3.438e-3
-1.650, 3.410e-3
-1.649, 3.382e-3
-1.648, 3.351e-3
-1.647, 3.321e-3
-1.646, 3.293e-3
-1.645, 3.262e-3
-1.644, 3.234e-3
-1.643, 3.207e-3
-1.642, 3.176e-3
-1.641, 3.148e-3
-1.640, 3.120e-3
-1.639, 3.093e-3
-1.638, 3.065e-3
-1.637, 3.037e-3
-1.636, 3.009e-3
-1.635, 2.982e-3
-1.634, 2.954e-3
-1.633, 2.929e-3
-1.632, 2.901e-3
-1.631, 2.874e-3
-1.630, 2.846e-3
-1.629, 2.821e-3
-1.628, 2.797e-3
-1.627, 2.772e-3
-1.626, 2.744e-3
-1.625, 2.719e-3
-1.624, 2.692e-3
-1.623, 2.667e-3
-1.622, 2.642e-3
-1.621, 2.615e-3
-1.620, 2.590e-3
-1.619, 2.565e-3
-1.618, 2.541e-3
-1.617, 2.516e-3
-1.616, 2.491e-3
-1.615, 2.467e-3
-1.614, 2.442e-3
-1.613, 2.417e-3
-1.612, 2.393e-3
-1.611, 2.368e-3
-1.610, 2.343e-3
-1.609, 2.319e-3
-1.608, 2.297e-3
-1.607, 2.275e-3
-1.606, 2.251e-3
-1.605, 2.226e-3
-1.604, 2.205e-3
-1.603, 2.183e-3
-1.602, 2.161e-3
-1.601, 2.137e-3
-1.600, 2.115e-3
-1.599, 2.094e-3
-1.598, 2.072e-3
-1.597, 2.047e-3
-1.596, 2.029e-3
-1.595, 2.007e-3
-1.594, 1.986e-3
-1.593, 1.961e-3
-1.592, 1.943e-3
-1.591, 1.921e-3
-1.590, 1.899e-3
-1.589, 1.881e-3
-1.588, 1.859e-3
-1.587, 1.838e-3
-1.586, 1.819e-3
-1.585, 1.798e-3
-1.584, 1.779e-3
-1.583, 1.758e-3
-1.582, 1.739e-3
-1.581, 1.717e-3
-1.580, 1.699e-3
-1.579, 1.680e-3
-1.578, 1.662e-3
-1.577, 1.643e-3
-1.576, 1.625e-3
-1.575, 1.603e-3
-1.574, 1.585e-3
-1.573, 1.566e-3
-1.572, 1.548e-3
-1.571, 1.532e-3
-1.570, 1.514e-3
-1.569, 1.495e-3
-1.568, 1.480e-3
-1.567, 1.462e-3
-1.566, 1.443e-3
-1.565, 1.428e-3
-1.564, 1.409e-3
-1.563, 1.394e-3
-1.562, 1.375e-3
-1.561, 1.360e-3
-1.560, 1.344e-3
-1.559, 1.326e-3
-1.558, 1.310e-3
-1.557, 1.298e-3
-1.556, 1.280e-3
-1.555, 1.264e-3
-1.554, 1.246e-3
-1.553, 1.233e-3
-1.552, 1.218e-3
-1.551, 1.203e-3
-1.550, 1.187e-3
-1.549, 1.172e-3
-1.548, 1.159e-3
-1.547, 1.144e-3
-1.546, 1.129e-3
-1.545, 1.116e-3
-1.544, 1.101e-3
-1.543, 1.085e-3
-1.542, 1.070e-3
-1.541, 1.058e-3
-1.540, 1.045e-3
-1.539, 1.030e-3
-1.538, 1.018e-3
-1.537, 1.005e-3
-1.536, 9.929e-4
-1.535, 9.775e-4
-1.534, 9.652e-4
-1.533, 9.528e-4
-1.532, 9.405e-4
-1.531, 9.282e-4
-1.530, 9.128e-4
-1.529, 9.004e-4
-1.528, 8.912e-4
-1.527, 8.788e-4
-1.526, 8.665e-4
-1.525, 8.542e-4
-1.524, 8.418e-4
-1.523, 8.295e-4
-1.522, 8.172e-4
-1.521, 8.079e-4
-1.520, 7.956e-4
-1.519, 7.833e-4
-1.518, 7.740e-4
-1.517, 7.617e-4
-1.516, 7.524e-4
-1.515, 7.401e-4
-1.514, 7.309e-4
-1.513, 7.185e-4
-1.512, 7.093e-4
-1.511, 6.969e-4
-1.510, 6.877e-4
-1.509, 6.784e-4
-1.508, 6.692e-4
-1.507, 6.599e-4
-1.506, 6.507e-4
-1.505, 6.384e-4
-1.504, 6.322e-4
-1.503, 6.229e-4
-1.502, 6.137e-4
-1.501, 6.014e-4
-1.500, 5.952e-4
-1.499, 5.859e-4
-1.498, 5.767e-4
-1.497, 5.674e-4
-1.496, 5.582e-4
-1.495, 5.489e-4
-1.494, 5.428e-4
-1.493, 5.335e-4
-1.492, 5.274e-4
-1.491, 5.181e-4
-1.490, 5.089e-4
-1.489, 5.027e-4
-1.488, 4.935e-4
-1.487, 4.873e-4
-1.486, 4.780e-4
-1.485, 4.688e-4
-1.484, 4.626e-4
-1.483, 4.565e-4
-1.482, 4.472e-4
-1.481, 4.410e-4
-1.480, 4.349e-4
-1.479, 4.256e-4
-1.478, 4.195e-4
-1.477, 4.133e-4
-1.476, 4.040e-4
-1.475, 4.010e-4
-1.474, 3.948e-4
-1.473, 3.855e-4
-1.472, 3.794e-4
-1.471, 3.732e-4
-1.470, 3.670e-4
-1.469, 3.609e-4
-1.468, 3.547e-4
-1.467, 3.485e-4
-1.466, 3.424e-4
-1.465, 3.393e-4
-1.464, 3.300e-4
-1.463, 3.239e-4
-1.462, 3.208e-4
-1.461, 3.146e-4
-1.460, 3.085e-4
-1.459, 3.023e-4
-1.458, 2.961e-4
-1.457, 2.931e-4
-1.456, 2.869e-4
-1.455, 2.807e-4
-1.454, 2.746e-4
-1.453, 2.715e-4
-1.452, 2.653e-4
-1.451, 2.591e-4
-1.450, 2.561e-4
-1.449, 2.499e-4
-1.448, 2.468e-4
-1.447, 2.406e-4
-1.446, 2.376e-4
-1.445, 2.314e-4
-1.444, 2.283e-4
-1.443, 2.252e-4
-1.442, 2.191e-4
-1.441, 2.160e-4
-1.440, 2.129e-4
-1.439, 2.067e-4
-1.438, 2.036e-4
-1.437, 2.006e-4
-1.436, 1.944e-4
-1.435, 1.913e-4
-1.434, 1.882e-4
-1.433, 1.821e-4
-1.432, 1.790e-4
-1.431, 1.759e-4
-1.430, 1.697e-4
-1.429, 1.697e-4
-1.428, 1.666e-4
-1.427, 1.605e-4
-1.426, 1.574e-4
-1.425, 1.543e-4
-1.424, 1.512e-4
-1.423, 1.451e-4
-1.422, 1.420e-4
-1.421, 1.389e-4
-1.420, 1.389e-4
-1.419, 1.358e-4
-1.418, 1.327e-4
-1.417, 1.266e-4
-1.416, 1.266e-4
-1.415, 1.235e-4
-1.414, 1.173e-4
-1.413, 1.173e-4
-1.412, 1.142e-4
-1.411, 1.111e-4
-1.410, 1.081e-4
-1.409, 1.019e-4
-1.408, 1.019e-4
-1.407, 9.882e-5
-1.406, 9.573e-5
-1.405, 9.265e-5
-1.404, 9.265e-5
-1.403, 8.957e-5
-1.402, 8.648e-5
-1.401, 8.340e-5
-1.400, 8.032e-5
-1.399, 8.032e-5
-1.398, 7.723e-5
-1.397, 7.415e-5
-1.396, 7.107e-5
-1.395, 7.107e-5
-1.394, 6.798e-5
-1.393, 6.490e-5
-1.392, 6.490e-5
-1.391, 6.182e-5
-1.390, 5.873e-5
-1.389, 5.873e-5
-1.388, 5.565e-5
-1.387, 5.565e-5
-1.386, 5.257e-5
-1.385, 4.949e-5
-1.384, 4.949e-5
-1.383, 4.640e-5
-1.382, 4.332e-5
-1.381, 4.332e-5
-1.380, 4.024e-5
-1.379, 4.024e-5
-1.378, 3.715e-5
-1.377, 3.715e-5
-1.376, 3.407e-5
-1.375, 3.099e-5
-1.374, 3.099e-5
-1.373, 3.099e-5
-1.372, 2.790e-5
-1.371, 2.790e-5
-1.370, 2.482e-5
-1.369, 2.174e-5
-1.368, 2.174e-5
-1.367, 2.174e-5
-1.366, 1.865e-5
-1.365, 1.865e-5
-1.364, 1.557e-5
-1.363, 1.557e-5
-1.362, 1.557e-5
-1.361, 1.249e-5
-1.360, 9.405e-6
-1.359, 9.405e-6
-1.358, 9.405e-6
-1.357, 6.322e-6
-1.356, 6.322e-6
-1.355, 3.239e-6
-1.354, 3.239e-6
-1.353, 3.239e-6
-1.352, 1.559e-7
-1.351, 1.559e-7
-1.350, 1.559e-7
-1.349, -2.927e-6
-1.348, -2.927e-6
-1.347, -6.010e-6
-1.346, -6.010e-6
-1.345, -6.010e-6
-1.344, -6.010e-6
-1.343, -9.093e-6
-1.342, -9.093e-6
-1.341, -9.093e-6
-1.340, -1.218e-5
-1.339, -1.218e-5
-1.338, -1.218e-5
-1.337, -1.526e-5
-1.336, -1.218e-5
-1.335, -1.526e-5
-1.334, -1.526e-5
-1.333, -1.834e-5
-1.332, -1.834e-5
-1.331, -1.834e-5
-1.330, -1.834e-5
-1.329, -1.834e-5
-1.328, -1.834e-5
-1.327, -2.143e-5
-1.326, -2.143e-5
-1.325, -2.451e-5
-1.324, -2.143e-5
-1.323, -2.451e-5
-1.322, -2.451e-5
-1.321, -2.759e-5
-1.320, -2.759e-5
-1.319, -2.759e-5
-1.318, -2.759e-5
-1.317, -2.759e-5
-1.316, -3.068e-5
-1.315, -3.068e-5
-1.314, -3.068e-5
-1.313, -3.068e-5
-1.312, -3.376e-5
-1.311, -3.068e-5
-1.310, -3.376e-5
-1.309, -3.376e-5
-1.308, -3.376e-5
-1.307, -3.376e-5
-1.306, -3.684e-5
-1.305, -3.684e-5
-1.304, -3.684e-5
-1.303, -3.684e-5
-1.302, -3.684e-5
-1.301, -3.992e-5
-1.300, -3.992e-5
-1.299, -3.992e-5
-1.298, -3.992e-5
-1.297, -3.992e-5
-1.296, -3.992e-5
-1.295, -3.992e-5
-1.294, -4.301e-5
-1.293, -4.301e-5
-1.292, -4.301e-5
-1.291, -4.301e-5
-1.290, -4.301e-5
-1.289, -4.609e-5
-1.288, -4.609e-5
-1.287, -4.609e-5
-1.286, -4.609e-5
-1.285, -4.609e-5
-1.284, -4.609e-5
-1.283, -4.609e-5
-1.282, -4.609e-5
-1.281, -4.917e-5
-1.280, -4.917e-5
-1.279, -4.917e-5
-1.278, -4.917e-5
-1.277, -4.917e-5
-1.276, -4.917e-5
-1.275, -5.226e-5
-1.274, -4.917e-5
-1.273, -5.226e-5
-1.272, -5.226e-5
-1.271, -5.226e-5
-1.270, -5.226e-5
-1.269, -5.226e-5
-1.268, -5.534e-5
-1.267, -5.226e-5
-1.266, -5.226e-5
-1.265, -5.226e-5
-1.264, -5.534e-5
-1.263, -5.534e-5
-1.262, -5.534e-5
-1.261, -5.534e-5
-1.260, -5.842e-5
-1.259, -5.534e-5
-1.258, -5.534e-5
-1.257, -5.534e-5
-1.256, -5.534e-5
-1.255, -5.842e-5
-1.254, -5.842e-5
-1.253, -5.842e-5
-1.252, -5.842e-5
-1.251, -5.842e-5
-1.250, -5.842e-5
-1.249, -5.842e-5
-1.248, -5.842e-5
-1.247, -5.842e-5
-1.246, -5.842e-5
-1.245, -6.151e-5
-1.244, -6.151e-5
-1.243, -6.151e-5
-1.242, -6.151e-5
-1.241, -6.151e-5
-1.240, -6.151e-5
-1.239, -6.151e-5
-1.238, -6.151e-5
-1.237, -6.151e-5
-1.236, -6.151e-5
-1.235, -6.459e-5
-1.234, -6.459e-5
-1.233, -6.151e-5
-1.232, -6.459e-5
-1.231, -6.151e-5
-1.230, -6.459e-5
-1.229, -6.459e-5
-1.228, -6.459e-5
-1.227, -6.459e-5
-1.226, -6.459e-5
-1.225, -6.459e-5
-1.224, -6.459e-5
-1.223, -6.459e-5
-1.222, -6.459e-5
-1.221, -6.459e-5
-1.220, -6.767e-5
-1.219, -6.459e-5
-1.218, -6.767e-5
-1.217, -6.459e-5
-1.216, -6.767e-5
-1.215, -6.767e-5
-1.214, -6.767e-5
-1.213, -6.459e-5
-1.212, -6.767e-5
-1.211, -6.767e-5
-1.210, -6.767e-5
-1.209, -6.767e-5
-1.208, -6.767e-5
-1.207, -6.767e-5
-1.206, -6.767e-5
-1.205, -6.767e-5
-1.204, -6.767e-5
-1.203, -6.767e-5
-1.202, -6.767e-5
-1.201, -6.767e-5
-1.200, -6.767e-5
-1.199, -6.767e-5
-1.198, -6.767e-5
-1.197, -7.076e-5
-1.196, -7.076e-5
-1.195, -7.076e-5
-1.194, -7.076e-5
-1.193, -7.076e-5
-1.192, -7.076e-5
-1.191, -6.767e-5
-1.190, -7.076e-5
-1.189, -7.076e-5
-1.188, -7.076e-5
-1.187, -7.076e-5
-1.186, -7.076e-5
-1.185, -7.076e-5
-1.184, -7.076e-5
-1.183, -7.076e-5
-1.182, -7.076e-5
-1.181, -7.076e-5
-1.180, -7.076e-5
-1.179, -7.076e-5
-1.178, -7.076e-5
-1.177, -7.076e-5
-1.176, -7.076e-5
-1.175, -7.076e-5
-1.174, -7.076e-5
-1.173, -7.076e-5
-1.172, -7.076e-5
-1.171, -7.384e-5
-1.170, -7.076e-5
-1.169, -7.076e-5
-1.168, -7.384e-5
-1.167, -7.384e-5
-1.166, -7.076e-5
-1.165, -7.384e-5
-1.164, -7.384e-5
-1.163, -7.076e-5
-1.162, -7.076e-5
-1.161, -7.076e-5
-1.160, -7.384e-5
-1.159, -7.384e-5
-1.158, -7.076e-5
-1.157, -7.076e-5
-1.156, -7.384e-5
-1.155, -7.384e-5
-1.154, -7.384e-5
-1.153, -7.384e-5
-1.152, -7.384e-5
-1.151, -7.384e-5
-1.150, -7.384e-5
-1.149, -7.076e-5
-1.148, -7.384e-5
-1.147, -7.384e-5
-1.146, -7.384e-5
-1.145, -7.384e-5
-1.144, -7.384e-5
-1.143, -7.384e-5
-1.142, -7.384e-5
-1.141, -7.384e-5
-1.140, -7.384e-5
-1.139, -7.384e-5
-1.138, -7.384e-5
-1.137, -7.384e-5
-1.136, -7.384e-5
-1.135, -7.384e-5
-1.134, -7.384e-5
-1.133, -7.384e-5
-1.132, -7.384e-5
-1.131, -7.384e-5
-1.130, -7.384e-5
-1.129, -7.384e-5
-1.128, -7.384e-5
-1.127, -7.384e-5
-1.126, -7.384e-5
-1.125, -7.384e-5
-1.124, -7.384e-5
-1.123, -7.384e-5
-1.122, -7.384e-5
-1.121, -7.384e-5
-1.120, -7.384e-5
-1.119, -7.384e-5
-1.118, -7.384e-5
-1.117, -7.384e-5
-1.116, -7.076e-5
-1.115, -7.384e-5
-1.114, -7.384e-5
-1.113, -7.384e-5
-1.112, -7.384e-5
-1.111, -7.384e-5
-1.110, -7.384e-5
-1.109, -7.384e-5
-1.108, -7.076e-5
-1.107, -7.384e-5
-1.106, -7.076e-5
-1.105, -7.384e-5
-1.104, -7.076e-5
-1.103, -7.384e-5
-1.102, -7.076e-5
-1.101, -7.076e-5
-1.100, -7.076e-5
-1.099, -7.076e-5
-1.098, -7.076e-5
-1.097, -7.076e-5
-1.096, -7.076e-5
-1.095, -7.076e-5
-1.094, -7.076e-5
-1.093, -7.076e-5
-1.092, -7.076e-5
-1.091, -7.076e-5
-1.090, -7.076e-5
-1.089, -7.076e-5
-1.088, -7.076e-5
-1.087, -7.076e-5
-1.086, -7.076e-5
-1.085, -7.076e-5
-1.084, -7.076e-5
-1.083, -7.076e-5
-1.082, -7.076e-5
-1.081, -7.076e-5
-1.080, -7.076e-5
-1.079, -7.076e-5
-1.078, -7.076e-5
-1.077, -7.076e-5
-1.076, -7.076e-5
-1.075, -6.767e-5
-1.074, -7.076e-5
-1.073, -7.076e-5
-1.072, -7.076e-5
-1.071, -7.076e-5
-1.070, -7.076e-5
-1.069, -7.076e-5
-1.068, -7.076e-5
-1.067, -7.076e-5
-1.066, -7.076e-5
-1.065, -7.076e-5
-1.064, -7.076e-5
-1.063, -7.076e-5
-1.062, -7.076e-5
-1.061, -7.076e-5
-1.060, -7.076e-5
-1.059, -7.076e-5
-1.058, -7.076e-5
-1.057, -7.076e-5
-1.056, -7.076e-5
-1.055, -7.076e-5
-1.054, -7.076e-5
-1.053, -7.076e-5
-1.052, -7.076e-5
-1.051, -7.076e-5
-1.050, -7.076e-5
-1.049, -7.076e-5
-1.048, -7.384e-5
-1.047, -7.384e-5
-1.046, -7.076e-5
-1.045, -7.076e-5
-1.044, -7.384e-5
-1.043, -7.076e-5
-1.042, -7.384e-5
-1.041, -7.076e-5
-1.040, -7.384e-5
-1.039, -7.384e-5
-1.038, -7.384e-5
-1.037, -7.384e-5
-1.036, -7.384e-5
-1.035, -7.384e-5
-1.034, -7.384e-5
-1.033, -7.384e-5
-1.032, -7.384e-5
-1.031, -7.384e-5
-1.030, -7.384e-5
-1.029, -7.384e-5
-1.028, -7.384e-5
-1.027, -7.384e-5
-1.026, -7.384e-5
-1.025, -7.384e-5
-1.024, -7.384e-5
-1.023, -7.692e-5
-1.022, -7.384e-5
-1.021, -7.692e-5
-1.020, -7.384e-5
-1.019, -7.692e-5
-1.018, -7.692e-5
-1.017, -7.692e-5
-1.016, -7.384e-5
-1.015, -7.692e-5
-1.014, -7.692e-5
-1.013, -7.692e-5
-1.012, -7.692e-5
-1.011, -7.692e-5
-1.010, -7.692e-5
-1.009, -7.692e-5
-1.008, -7.692e-5
-1.007, -7.692e-5
-1.006, -7.692e-5
-1.005, -7.692e-5
-1.004, -7.692e-5
-1.003, -7.692e-5
-1.002, -7.692e-5
-1.001, -8.000e-5
