Potential V vs RHE, Current mA cm-2
0.013299999999999867,0.18037569073279217
0.012299999999999978,-0.21871436695913468
0.011299999999999866,-0.5173599223606439
0.010299999999999976,-0.7295666173403995
0.009299999999999864,-0.8793845439961068
0.008299999999999974,-1.05891140794898
0.007299999999999862,-1.1630341596190465
0.006299999999999972,-1.295168195026441
0.00529999999999986,-1.4004227157363998
0.0042999999999999705,-1.471299751859638
0.0032999999999998586,-1.5887207897484361
0.0022999999999999687,-1.6410651078434426
0.0012999999999998568,-1.7457537440334552
0.00029999999999996696,-1.8249775768258971
-0.000700000000000145,-1.8787366062207687
-0.0017000000000000348,-1.9749369746115912
-0.0027000000000001467,-2.001816489309027
-0.0037000000000000366,-2.071137343002414
-0.0047000000000001485,-2.1404581966958003
-0.005700000000000038,-2.184314246991617
-0.00670000000000015,-2.283344037982169
-0.00770000000000004,-2.30597941878001
-0.008700000000000152,-2.3710561385738016
-0.009700000000000042,-2.426229879268538
-0.010700000000000154,-2.4587682391654337
-0.011700000000000044,-2.539406783257741
-0.012700000000000156,-2.5634568753554463
-0.013700000000000045,-2.6285335951492383
-0.014700000000000157,-2.6808779132442444
-0.015700000000000047,-2.7035132940420854
-0.01670000000000016,-2.785566549434257
-0.01770000000000005,-2.7968842398331777
-0.01870000000000016,-2.8506432692280486
-0.01970000000000005,-2.8959140308237297
-0.020700000000000163,-2.91571998902184
-0.021700000000000053,-2.9921143992145525
-0.022700000000000164,-3.006261512213203
-0.023700000000000054,-3.0628499642078046
-0.024700000000000166,-3.120853127502271
-0.025700000000000056,-3.159050332598627
-0.026700000000000168,-3.2198829184928233
-0.027700000000000058,-3.2241270523924186
-0.02870000000000017,-3.276471370487425
-0.02970000000000006,-3.313253864283916
-0.03070000000000017,-3.3302303998822964
-0.03170000000000006,-3.3882335631767626
-0.03270000000000017,-3.3981365422758185
-0.03370000000000006,-3.4617985507697444
-0.034700000000000175,-3.4943369106666404
-0.035700000000000065,-3.4999957558661006
-0.03670000000000018,-3.5495106513613774
-0.03770000000000007,-3.546681228761647
-0.03870000000000018,-3.589122567757598
-0.03970000000000007,-3.6188315050547635
-0.04070000000000018,-3.6315639067535495
-0.04170000000000007,-3.7037141830466664
-0.04270000000000018,-3.695225915247476
-0.04370000000000007,-3.730593697744102
-0.044700000000000184,-3.7433260994428865
-0.045700000000000074,-3.7263495638445066
-0.046700000000000186,-3.784352727138973
-0.047700000000000076,-3.7758644593397825
-0.04870000000000019,-3.825379354835059
-0.04970000000000008,-3.85367358083236
-0.05070000000000019,-3.840941179133574
-0.05170000000000008,-3.8791383842299307
-0.05270000000000019,-3.855088292132225
-0.05370000000000008,-3.8805530955297955
-0.05470000000000019,-3.8904560746288515
-0.05570000000000008,-3.8635765599314156
-0.056700000000000195,-3.903188476327636
-0.057700000000000085,-3.8805530955297955
-0.058700000000000196,-3.9116767441268263
-0.059700000000000086,-3.922994434525747
-0.0607000000000002,-3.8932854972285815
-0.06170000000000009,-3.9286532797252063
-0.0627000000000002,-3.896114919828311
-0.06370000000000009,-3.9074326102272314
-0.0647000000000002,-3.9046031876275014
-0.06570000000000009,-3.87065011643074
-0.0667000000000002,-3.8904560746288515
-0.0677000000000001,-3.8635765599314156
-0.0687000000000002,-3.8565030034320897
-0.0697000000000001,-3.84518531303317
-0.07070000000000021,-3.811232241836409
-0.0717000000000001,-3.8296234887346547
-0.07270000000000021,-3.794255706238028
-0.0737000000000001,-3.7900115723384333
-0.07470000000000021,-3.7758644593397825
-0.0757000000000001,-3.730593697744102
-0.07670000000000021,-3.7362525429435625
-0.0777000000000001,-3.6754199570493657
-0.07870000000000021,-3.6711758231497704
-0.0797000000000001,-3.66268755535058
-0.08070000000000022,-3.6216609276544935
-0.0817000000000001,-3.623075638954359
-0.08270000000000022,-3.555169496560837
-0.08370000000000011,-3.539607672262322
-0.08470000000000022,-3.509898734965156
-0.08570000000000011,-3.45472499427042
-0.08670000000000022,-3.4575544168701495
-0.08770000000000011,-3.3953071196760884
-0.08870000000000022,-3.368427604978652
-0.08970000000000011,-3.347206935480677
-0.09070000000000022,-3.2892037721862106
-0.09170000000000011,-3.2948626173856703
-0.09270000000000023,-3.235444742791339
-0.09370000000000012,-3.201491671594578
-0.09470000000000023,-3.166123889097952
-0.09570000000000012,-3.10104716930416
-0.09670000000000023,-3.1038765919038904
-0.09770000000000012,-3.0359704495103688
-0.09870000000000023,-3.010505646112798
-0.09970000000000012,-2.9850408427152275
-0.10070000000000023,-2.9171347003217054
-0.10170000000000012,-2.8987434534234597
-0.10270000000000024,-2.8308373110299385
-0.10370000000000013,-2.7968842398331777
-0.10470000000000024,-2.770004725135742
-0.10570000000000013,-2.709172139241545
-0.10670000000000024,-2.7049280053419507
-0.10770000000000013,-2.634192440348698
-0.10870000000000024,-2.6016540804518025
-0.10970000000000013,-2.5691157205549064
-0.11070000000000024,-2.50545371206098
-0.11170000000000013,-2.4983801555616547
-0.11270000000000002,-2.438962280967323
-0.11370000000000013,-2.420571034069078
-0.11470000000000002,-2.3936915193716417
-0.11570000000000014,-2.3243706656782552
-0.11670000000000003,-2.3158823978790646
-0.11770000000000014,-2.2621233684841937
-0.11870000000000003,-2.2437321215859485
-0.11970000000000014,-2.216852606888512
-0.12070000000000003,-2.1531905983945863
-0.12170000000000014,-2.151775887094721
-0.12270000000000003,-2.0994315689997145
-0.12370000000000014,-2.082455033401334
-0.12470000000000003,-2.0612343639033583
-0.12570000000000014,-2.0060606232086218
-0.12670000000000003,-2.017378313607542
-0.12770000000000015,-1.9579604390132106
-0.12870000000000004,-1.9381544808151003
-0.12970000000000015,-1.92400736781645
-0.13070000000000004,-1.8759071836210386
-0.13170000000000015,-1.8858101627200938
-0.13270000000000004,-1.8362952672248178
-0.13370000000000015,-1.8263922881257622
-0.13470000000000004,-1.8193187316264372
-0.13570000000000015,-1.771218547431026
-0.13670000000000004,-1.781121526530081
-0.13770000000000016,-1.7330213423346699
-0.13870000000000005,-1.7217036519357498
-0.13970000000000016,-1.7132153841365596
-0.14070000000000005,-1.6736034677403384
-0.14170000000000016,-1.6863358694391237
-0.14270000000000005,-1.6424798191433077
-0.14370000000000016,-1.6354062626439825
-0.14470000000000005,-1.6339915513441174
-0.14570000000000016,-1.587306078448571
-0.14670000000000005,-1.6085267479465466
-0.14770000000000016,-1.5689148315503256
-0.14870000000000005,-1.5604265637511354
-0.14970000000000017,-1.5547677185516753
-0.15070000000000006,-1.5278882038542394
-0.15170000000000017,-1.546279450752485
-0.15270000000000006,-1.505252823056399
-0.15370000000000017,-1.5080822456561291
-0.15470000000000006,-1.4953498439573436
-0.15570000000000017,-1.459982061460718
-0.15670000000000006,-1.4783733083589634
-0.15770000000000017,-1.4458349484620676
-0.15870000000000006,-1.4458349484620676
-0.15970000000000018,-1.4458349484620676
-0.16070000000000007,-1.412306290655266
-0.16170000000000018,-1.431687835463417
-0.16270000000000007,-1.3977347642666564
-0.16370000000000018,-1.395754168446845
-0.16470000000000007,-1.3991494755665215
-0.16570000000000018,-1.3601034436902464
-0.16670000000000007,-1.3848608914378844
-0.16770000000000018,-1.3582643190004215
-0.16870000000000007,-1.3557178386606645
-0.16970000000000018,-1.3629328662899765
-0.17070000000000007,-1.321764767463904
-0.17170000000000019,-1.3492101666812855
-0.17270000000000008,-1.317096220174349
-0.1737000000000002,-1.31624739339443
-0.17470000000000008,-1.3240283055436879
-0.1757000000000002,-1.288094638527116
-0.17670000000000008,-1.318510931474214
-0.1777000000000002,-1.2820113799376962
-0.17870000000000008,-1.2791819573379661
-0.1797000000000002,-1.2896508209569675
-0.18070000000000008,-1.2606492393097344
-0.1817000000000002,-1.2866799272272509
-0.18270000000000008,-1.2619224794796127
-0.1837000000000002,-1.2582442300999634
-0.1847000000000001,-1.2639030752994236
-0.1857000000000002,-1.2317891287924876
-0.1867000000000001,-1.257819816710004
-0.1877000000000002,-1.2317891287924876
-0.1887000000000001,-1.234477080262231
-0.1897000000000002,-1.2422579924114887
-0.1907000000000001,-1.2121246417243634
-0.1917000000000001,-1.2374479739919477
-0.19269999999999998,-1.2141052375441745
-0.1937000000000001,-1.2169346601439046
-0.19469999999999998,-1.2228764476033378
-0.1957000000000001,-1.1884989630166172
-0.19669999999999999,-1.2158028911040124
-0.1977000000000001,-1.1879330784966713
-0.1987,-1.1985434132456592
-0.1997000000000001,-1.20660726765489
-0.2007,-1.1739274366280075
-0.2017000000000001,-1.2022216626253082
-0.2027,-1.174068907757994
-0.2037000000000001,-1.1771812726176971
-0.2047,-1.1868013094567793
-0.2057000000000001,-1.1579411989395323
-0.2067,-1.1858110115468736
-0.2077000000000001,-1.156950901029627
-0.2087,-1.1604876792792895
-0.2097000000000001,-1.1781715705276026
-0.2107,-1.1464820374106257
-0.2117000000000001,-1.1773227437476836
-0.2127,-1.1491699888803693
-0.2137000000000001,-1.1508676424402073
-0.2147,-1.1664294667387227
-0.2157000000000001,-1.1453502683707337
-0.2167,-1.1624682750991004
-0.21770000000000012,-1.13983289430126
-0.2187,-1.1447843838507878
-0.21970000000000012,-1.159497381369384
-0.2207,-1.1279493193823937
-0.22170000000000012,-1.153838536169924
-0.2227,-1.1312031553720834
-0.22370000000000012,-1.1327593378019347
-0.2247,-1.1474723353205312
-0.22570000000000012,-1.1186122248032844
-0.2267,-1.1519994114800993
-0.22770000000000012,-1.1310616842420969
-0.22870000000000001,-1.1338911068418267
-0.22970000000000013,-1.1419549612510576
-0.23070000000000002,-1.117621926893379
-0.23170000000000013,-1.1490285177503827
-0.23270000000000002,-1.1313446265020697
-0.23370000000000013,-1.1362961160515976
-0.23470000000000002,-1.1486041043604232
-0.23570000000000013,-1.1241295988727582
-0.23670000000000002,-1.1525652960000454
-0.2376999999999999,-1.1306372708521373
-0.23870000000000002,-1.1368620005715435
-0.2396999999999999,-1.1497358734003151
-0.24070000000000003,-1.1238466566127852
-0.24169999999999991,-1.1573753144195864
-0.24270000000000003,-1.1327593378019347
-0.24369999999999992,-1.1413890767311115
-0.24470000000000003,-1.1596388524993706
-0.24569999999999992,-1.1310616842420969
-0.24670000000000003,-1.1651562265688442
-0.24769999999999992,-1.1477552775805042
-0.24870000000000003,-1.1545458918198563
-0.24969999999999992,-1.1719468408081963
-0.25070000000000003,-1.1435111436809091
-0.2516999999999999,-1.176898330357724
-0.25270000000000004,-1.156950901029627
-0.2536999999999999,-1.1648732843088712
-0.25470000000000004,-1.1839718868570492
-0.2556999999999999,-1.156385016509681
-0.25670000000000004,-1.191469856746334
-0.25769999999999993,-1.1764739169677645
-0.25870000000000004,-1.1822742332972112
-0.25969999999999993,-1.2032119605352136
-0.26070000000000004,-1.181142464257319
-0.26169999999999993,-1.210851401554485
-0.26270000000000004,-1.1989678266356187
-0.26369999999999993,-1.2057584408749709
-0.26470000000000005,-1.2286767639327845
-0.26569999999999994,-1.2053340274850113
-0.26670000000000005,-1.2419750501515157
-0.26769999999999994,-1.2283938216728114
-0.26870000000000005,-1.237872387381907
-0.26969999999999994,-1.2589515857498963
-0.27070000000000005,-1.2422579924114887
-0.27169999999999994,-1.2708351606687625
-0.27270000000000005,-1.2639030752994236
-0.27369999999999994,-1.2694204493688974
-0.27470000000000006,-1.292055830166738
-0.27569999999999995,-1.277484303778128
-0.27670000000000006,-1.315115624354538
-0.27769999999999995,-1.3030905783056852
-0.27870000000000006,-1.3204915272940252
-0.27969999999999995,-1.3469466286015015
-0.28070000000000006,-1.3269991992734043
-0.28169999999999995,-1.3691575960093827
-0.28270000000000006,-1.3541616562308132
-0.28369999999999995,-1.367601413579531
-0.28470000000000006,-1.3992909466965078
-0.28569999999999995,-1.3885391408175334
-0.28670000000000007,-1.4302731241635522
-0.28769999999999996,-1.420370145064497
-0.28870000000000007,-1.4345172580631471
-0.28969999999999996,-1.4698850405597732
-0.29070000000000007,-1.459982061460718
-0.29169999999999996,-1.5038381117565338
-0.29270000000000007,-1.502423400456669
-0.29369999999999996,-1.5165705134553193
-0.2947000000000001,-1.5533530072518102
-0.29569999999999996,-1.54203531685289
-0.2967000000000001,-1.5887207897484361
-0.29769999999999996,-1.5943796349478963
-0.2987000000000001,-1.6156003044458718
-0.29969999999999997,-1.655212220842093
-0.3007000000000001,-1.6495533756426328
-0.30169999999999997,-1.6990682711379093
-0.3027000000000001,-1.7061418276372344
-0.30369999999999997,-1.7330213423346699
-0.3047000000000001,-1.779706815230216
-0.30569999999999997,-1.778292103930351
-0.3067000000000001,-1.8320511333252225
-0.3077,-1.8461982463238729
-0.3087000000000001,-1.8801513175206337
-0.3097,-1.9282515017160449
-0.3107000000000001,-1.9367397695152353
-0.3117,-2.0032312006088917
-0.3127000000000001,-2.0244518701068674
-0.3137,-2.0654784978029537
-0.3147000000000001,-2.11782281589796
-0.3157,-2.133384640196476
-0.3167000000000001,-2.2097790503891876
-0.3177,-2.2338291424868926
-0.3187000000000001,-2.2819293266823037
-0.3197,-2.3427619125765005
-0.3207000000000001,-2.3668120046742067
-0.3217,-2.451694682666109
-0.3227000000000001,-2.4955507329619246
-0.3237,-2.5648715866553116
-0.3247000000000001,-2.641265996848024
-0.3257,-2.6752190680447843
-0.3267000000000001,-2.770004725135742
-0.3277,-2.819519620631018
-0.3287000000000001,-2.8959140308237297
-0.3297,-2.973723152316307
-0.3307000000000001,-3.0387998721100984
-0.3317,-3.1519767760993016
-0.3327000000000001,-3.225541763692284
-0.3337,-3.323156843382971
-0.3347000000000001,-3.439163169971904
-0.3357,-3.5113134462650213
-0.3367000000000001,-3.644296308452334
-0.3377,-3.7362525429435625
-0.3387000000000001,-3.85367358083236
-0.3397,-3.995144710818863
-0.3407000000000001,-4.098418635709011
-0.3417,-4.266769280392952
-0.3427000000000001,-4.399752142580264
-0.3437,-4.546882117766228
-0.3447000000000001,-4.718062185049897
-0.3457,-4.863777448935997
-0.3467000000000001,-5.066081164816696
-0.3477,-5.231602386900906
-0.3487000000000001,-5.42400312368255
-0.3497,-5.647527509061226
-0.3507000000000001,-5.832854689343546
-0.3517,-6.081843878119792
-0.3527000000000001,-6.312441819997794
-0.3537,-6.575578121772692
-0.3547000000000001,-6.840129134847452
-0.3557,-7.086288901023969
-0.35670000000000013,-7.413087211292793
-0.3577,-7.6960294712658
-0.35870000000000013,-8.035560183233407
-0.3597,-8.393482142099263
-0.36070000000000013,-8.723109874967816
-0.3617,-9.139034997128135
-0.3626999999999999,-9.511104068992642
-0.3637,-9.907223232954852
-0.3646999999999999,-10.338710179413688
-0.3657,-10.780100104971579
-0.3666999999999999,-11.295055018122452
-0.3677,-11.75766561317832
-0.3686999999999999,-12.266961681129732
-0.36970000000000003,-12.818699088077096
-0.3706999999999999,-13.353459959426083
-0.37170000000000003,-13.934906303670612
-0.3726999999999999,-14.486643710617974
-0.37370000000000003,-15.094969569559943
-0.3746999999999999,-15.689148315503255
-0.37570000000000003,-16.325768400442524
-0.3766999999999999,-16.99068271137909
-0.37770000000000004,-17.584861457322408
-0.3786999999999999,-18.27806999425627
-0.37970000000000004,-18.985425644188794
-0.3806999999999999,-19.579604390132108
-0.38170000000000004,-20.230371588070028
-0.38269999999999993,-20.93772723800254
-0.38370000000000004,-21.744112678925614
-0.38469999999999993,-22.479762554855434
-0.38570000000000004,-23.1729710917893
-0.38669999999999993,-23.93691519371642
-0.38770000000000004,-24.686712182644893
-0.38869999999999993,-25.478950510569312
-0.38970000000000005,-26.29948306449103
-0.39069999999999994,-27.162456957408708
-0.39170000000000005,-28.039577963325023
-0.39269999999999994,-28.80352206525215
-0.39370000000000005,-29.510877715184666
-0.39469999999999994,-30.331410269106385
-0.39570000000000005,-31.151942823028104
-0.39669999999999994,-32.04321094194308
-0.39770000000000005,-32.87789060886345
-0.39869999999999994,-33.698423162785176
-0.39970000000000006,-34.64627973369475
-0.40069999999999995,-35.56584207860703
-0.40170000000000006,-36.44296308452335
-0.40269999999999995,-37.221054299449115
-0.40370000000000006,-38.06988107936814
-0.40469999999999995,-38.91870785928716
-0.40570000000000006,-39.76753463920618
-0.40669999999999995,-40.6729498711198
-0.40770000000000006,-41.53592376403748
-0.40869999999999995,-42.497927447945706
-0.40970000000000006,-43.40334267985933
-0.41069999999999995,-44.110698329791845
-0.41170000000000007,-44.93123088371356
-0.41269999999999996,-45.85079322862584
-0.41370000000000007,-46.77035557353811
-0.41469999999999996,-47.67577080545174
-0.41570000000000007,-48.609480263362656
-0.41669999999999996,-49.43001281728438
-0.41770000000000007,-50.22225114520881
-0.41869999999999996,-51.000342360134574
-0.4197000000000001,-51.8774633660509
-0.42069999999999996,-52.66970169397532
-0.4217000000000001,-53.56096981289029
-0.42269999999999996,-54.11270721983765
-0.4237000000000001,-54.904945547762075
-0.42469999999999997,-55.6971838756865
-0.4257000000000001,-56.70162889859067
-0.42669999999999997,-57.59289701750564
-0.4277000000000001,-58.31439978043681
-0.42869999999999997,-59.20566789935179
-0.4297000000000001,-59.983759114277554
-0.43069999999999997,-60.64867342521412
-0.4317000000000001,-61.384323301143944
-0.4327,-62.09167895107646
-0.4337000000000001,-63.12441819997794
-0.4347,-63.944950753899654
-0.4357000000000001,-64.56742372584027
-0.4367,-65.0767197937917
-0.4377000000000001,-65.84066389571882
-0.4387,-66.51972531965401
-0.4397000000000001,-67.43928766456631
-0.4407,-68.44373268747047
-0.4417000000000001,-69.19352967639895
-0.4427,-69.9433266653274
-0.4437000000000001,-70.41018139428287
-0.4447,-70.8345947842424
-0.4457000000000001,-71.55609754717355
-0.4467,-72.46151277908717
-0.4477000000000001,-73.01325018603454
-0.4487,-73.66401738397246
-0.4497000000000001,-74.35722592090633
-0.4507,-75.29093537881725
-0.4517000000000001,-75.95584968975382
-0.4527,-76.25293906272547
-0.4537000000000001,-76.53588132269847
-0.4547,-77.32811965062291
-0.4557000000000001,-77.8940041705689
-0.4567,-78.38915312552167
-0.4577000000000001,-78.68624249849334
-0.4587,-79.40774526142451
-0.4597000000000001,-80.32730760633679
-0.4607,-81.10539882126255
-0.4617000000000001,-81.74201890620182
-0.4627,-82.25131497415322
-0.4637000000000001,-82.70402259011003
-0.4647,-83.07184752807495
-0.4657000000000001,-83.69432050001558
-0.4667,-84.20361656796698
-0.4677000000000001,-84.38752903694943
-0.4687,-84.8826779919022
-0.4697000000000001,-86.01444703179425
-0.4707,-87.06133339369435
-0.4717000000000001,-87.82527749562148
-0.4727,-88.47604469355939
-0.4737000000000001,-88.51848603255536
-0.4747,-88.6741042755405
-0.4757000000000001,-89.33901858647707
-0.4767,-90.6405529823529
-0.4777000000000001,-91.00837792031781
-0.4787,-91.12155482430701
-0.4797000000000001,-91.57426244026381
-0.4807,-92.12599984721119
-0.48170000000000013,-92.73432570615316
-0.4827,-93.38509290409107
-0.48370000000000013,-94.53100905698176
-0.4847,-95.13933491592371
-0.48570000000000013,-95.59204253188052
-0.4867,-95.16762914192103
-0.48570000000000013,-93.73877072905732
-0.4847,-92.81920838414506
-0.48370000000000013,-92.28161809019635
-0.4827,-91.98452871722468
-0.48170000000000013,-91.63085089225844
-0.4807,-90.7820241123394
-0.4797000000000001,-89.91905021942173
-0.4787,-88.8438696315243
-0.4777000000000001,-87.85357172161878
-0.4767,-87.16036318468491
-0.4757000000000001,-86.66521422973216
-0.4747,-85.83053456281178
-0.4737000000000001,-85.08073757388331
-0.4727,-83.92067430799398
-0.4717000000000001,-82.95867062408576
-0.4707,-82.13813807016405
-0.4697000000000001,-81.54395932422072
-0.4687,-81.26101706424771
-0.4677000000000001,-80.61024986630979
-0.4667,-79.81801153838538
-0.4657000000000001,-79.1530972274488
