Potential V vs RHE, Current mA cm-2
0.013299999999999867,0.25903363900528825
0.012299999999999978,-0.05105693081212918
0.011299999999999866,-0.2345591335176231
0.010299999999999976,-0.38168910870358685
0.009299999999999864,-0.502505453712061
0.008299999999999974,-0.5965837551530859
0.007299999999999862,-0.6772222992453931
0.006299999999999972,-0.751070229098348
0.00529999999999986,-0.8256255146012355
0.0042999999999999705,-0.8929657724748112
0.0032999999999998586,-0.946866272999669
0.0022999999999999687,-0.9939761592851746
0.0012999999999998568,-1.0436325259104375
0.00029999999999996696,-1.0961183151354303
-0.000700000000000145,-1.1464820374106257
-0.0017000000000000348,-1.1899136743164824
-0.0027000000000001467,-1.2218861496934323
-0.0037000000000000366,-1.2614980660896533
-0.0047000000000001485,-1.3086079523751588
-0.005700000000000038,-1.350200464591191
-0.00670000000000015,-1.383304709008033
-0.00770000000000004,-1.411457463875347
-0.008700000000000152,-1.4458349484620676
-0.009700000000000042,-1.4868615761581534
-0.010700000000000154,-1.5264734925543744
-0.011700000000000044,-1.5547677185516753
-0.012700000000000156,-1.5788178106493809
-0.013700000000000045,-1.6056973253468165
-0.014700000000000157,-1.6424798191433077
-0.015700000000000047,-1.6736034677403384
-0.01670000000000016,-1.6976535598380442
-0.01770000000000005,-1.7217036519357498
-0.01870000000000016,-1.7499978779330503
-0.01970000000000005,-1.7839509491298113
-0.020700000000000163,-1.813659886426977
-0.021700000000000053,-1.8362952672248178
-0.022700000000000164,-1.8546865141230628
-0.023700000000000054,-1.8801513175206337
-0.024700000000000166,-1.9112749661176645
-0.025700000000000056,-1.9395691921149654
-0.026700000000000168,-1.9565457277133458
-0.027700000000000058,-1.9735222633117262
-0.02870000000000017,-1.9947429328097017
-0.02970000000000006,-2.023037158807002
-0.03070000000000017,-2.047087250904708
-0.03170000000000006,-2.0598196526034935
-0.03270000000000017,-2.072552054302279
-0.03370000000000006,-2.0895285899006595
-0.034700000000000175,-2.110749259398635
-0.035700000000000065,-2.13196992889661
-0.03670000000000018,-2.1418729079956655
-0.03770000000000007,-2.1475317531951257
-0.03870000000000018,-2.1645082887935065
-0.03970000000000007,-2.178655401792157
-0.04070000000000018,-2.192802514790807
-0.04170000000000007,-2.201290782589997
-0.04270000000000018,-2.1984613599902674
-0.04370000000000007,-2.208364339089322
-0.044700000000000184,-2.2239261633878376
-0.045700000000000074,-2.2324144311870278
-0.046700000000000186,-2.235243853786758
-0.047700000000000076,-2.230999719887163
-0.04870000000000019,-2.2324144311870278
-0.04970000000000008,-2.2437321215859485
-0.05070000000000019,-2.2465615441856785
-0.05170000000000008,-2.2437321215859485
-0.05270000000000019,-2.235243853786758
-0.05370000000000008,-2.229585008587298
-0.05470000000000019,-2.235243853786758
-0.05570000000000008,-2.2324144311870278
-0.056700000000000195,-2.2225114520879723
-0.057700000000000085,-2.2111937616890525
-0.058700000000000196,-2.199876071290132
-0.059700000000000086,-2.197046648690402
-0.0607000000000002,-2.1913878034909415
-0.06170000000000009,-2.1800701130920217
-0.0627000000000002,-2.1659230000933714
-0.06370000000000009,-2.148946464494991
-0.0647000000000002,-2.1418729079956655
-0.06570000000000009,-2.13196992889661
-0.0667000000000002,-2.1093345480987695
-0.0677000000000001,-2.0866991673009294
-0.0687000000000002,-2.072552054302279
-0.0697000000000001,-2.0569902300037635
-0.07070000000000021,-2.042843117005113
-0.0717000000000001,-2.0187930249074073
-0.07270000000000021,-1.993328221509837
-0.0737000000000001,-1.9749369746115912
-0.07470000000000021,-1.959375150313076
-0.0757000000000001,-1.9409839034148304
-0.07670000000000021,-1.9155191000172598
-0.0777000000000001,-1.884395451420229
-0.07870000000000021,-1.8660042045219833
-0.0797000000000001,-1.8461982463238729
-0.08070000000000022,-1.8249775768258971
-0.0817000000000001,-1.7966833508285964
-0.08270000000000022,-1.7655597022315657
-0.08370000000000011,-1.7415096101338603
-0.08470000000000022,-1.7259477858353447
-0.08570000000000011,-1.700482982437774
-0.08670000000000022,-1.6736034677403384
-0.08770000000000011,-1.6396503965435776
-0.08870000000000022,-1.6170150157457368
-0.08970000000000011,-1.6014531914472214
-0.09070000000000022,-1.5759883880496508
-0.09170000000000011,-1.54769416205235
-0.09270000000000023,-1.5179852247551844
-0.09370000000000012,-1.4967645552572086
-0.09470000000000023,-1.4783733083589634
-0.09570000000000012,-1.4543232162612578
-0.09670000000000023,-1.4246142789640919
-0.09770000000000012,-1.3974518220066834
-0.09870000000000023,-1.3741090855589102
-0.09970000000000012,-1.3593960880403138
-0.10070000000000023,-1.3397316009721898
-0.10170000000000012,-1.3114373749748889
-0.10270000000000024,-1.2868213983572372
-0.10370000000000013,-1.2639030752994236
-0.10470000000000024,-1.2517365581205846
-0.10570000000000013,-1.2341941380022579
-0.10670000000000024,-1.2094366902546199
-0.10770000000000013,-1.1852451270269277
-0.10870000000000024,-1.1685515336885204
-0.10970000000000013,-1.1556776608597483
-0.11070000000000024,-1.1425208457710037
-0.11170000000000013,-1.1186122248032844
-0.11270000000000002,-1.1003624490350257
-0.11370000000000013,-1.0869226916863075
-0.11470000000000002,-1.0753220590274144
-0.11570000000000014,-1.061457888288737
-0.11670000000000003,-1.0434910547804512
-0.11770000000000014,-1.023543625452354
-0.11870000000000003,-1.0130747618333529
-0.11970000000000014,-1.0069915032439332
-0.12070000000000003,-0.9949664571950803
-0.12170000000000014,-0.9799705174165111
-0.12270000000000003,-0.960871914868333
-0.12370000000000014,-0.9526665893291157
-0.12470000000000003,-0.9463003884797231
-0.12570000000000014,-0.9389438897204249
-0.12670000000000003,-0.925221190111734
-0.12770000000000015,-0.907254356603448
-0.12870000000000004,-0.9006052134940823
-0.12970000000000015,-0.8997563867141634
-0.13070000000000004,-0.8912681189149732
-0.13170000000000015,-0.8776868904362687
-0.13270000000000004,-0.8638227196975914
-0.13370000000000015,-0.8566076920682798
-0.13470000000000004,-0.8554759230283877
-0.13570000000000015,-0.8481194242690895
-0.13670000000000004,-0.8390652719499533
-0.13770000000000016,-0.825766985731222
-0.13870000000000005,-0.8227960920015054
-0.13970000000000016,-0.823786389911411
-0.14070000000000005,-0.8184104869719238
-0.14170000000000016,-0.8061024986630978
-0.14270000000000005,-0.7947848082641775
-0.14370000000000016,-0.790965087754542
-0.14470000000000005,-0.791248030014515
-0.14570000000000016,-0.7888430208047444
-0.14670000000000005,-0.7765350324959186
-0.14770000000000016,-0.7662076400069039
-0.14870000000000005,-0.7640855730571063
-0.14970000000000017,-0.7638026307971333
-0.15070000000000006,-0.7633782174071737
-0.15170000000000017,-0.7529093537881726
-0.15270000000000006,-0.7418746056492252
-0.15370000000000017,-0.7410257788693063
-0.15470000000000006,-0.7413087211292793
-0.15570000000000017,-0.7404598943493601
-0.15670000000000006,-0.729425146210413
-0.15770000000000017,-0.7226345319710608
-0.15870000000000006,-0.7232004164910067
-0.15970000000000018,-0.7237663010109527
-0.16070000000000007,-0.7217857051911418
-0.16170000000000018,-0.7123071394820459
-0.16270000000000007,-0.7018382758630447
-0.16370000000000018,-0.7077800633224779
-0.16470000000000007,-0.711175370442154
-0.16570000000000018,-0.7043847562028018
-0.16670000000000007,-0.6968867863135171
-0.16770000000000018,-0.6878326339943809
-0.16870000000000007,-0.6891058741642594
-0.16970000000000018,-0.6933500080638545
-0.17070000000000007,-0.690944998854084
-0.17170000000000019,-0.6828811444448531
-0.17270000000000008,-0.6769393569854201
-0.1737000000000002,-0.675241703425582
-0.17470000000000008,-0.6821737887949207
-0.1757000000000002,-0.6765149435954606
-0.17670000000000008,-0.6697243293561084
-0.1777000000000002,-0.6661875511064458
-0.17870000000000008,-0.6644898975466078
-0.1797000000000002,-0.6687340314462029
-0.18070000000000008,-0.6687340314462029
-0.1817000000000002,-0.6596798791270665
-0.18270000000000008,-0.6560016297474174
-0.1837000000000002,-0.6555772163574579
-0.1847000000000001,-0.6603872347769991
-0.1857000000000002,-0.6591139946071205
-0.1867000000000001,-0.6517574958478223
-0.1877000000000002,-0.6441180548285511
-0.1887000000000001,-0.6487866021181058
-0.1897000000000002,-0.6523233803677684
-0.1907000000000001,-0.6531722071476874
-0.1917000000000001,-0.6446839393484972
-0.19269999999999998,-0.63930803640901
-0.1937000000000001,-0.6432692280486321
-0.19469999999999998,-0.6453912949984297
-0.1957000000000001,-0.6463815929083352
-0.19669999999999999,-0.6410056899688481
-0.1977000000000001,-0.6326588932996443
-0.1987,-0.6371859694592126
-0.1997000000000001,-0.6415715744887941
-0.2007,-0.6405812765788885
-0.2017000000000001,-0.635912729289334
-0.2027,-0.6309612397398063
-0.2037000000000001,-0.6337906623395364
-0.2047,-0.6401568631889291
-0.2057000000000001,-0.638176267369118
-0.2067,-0.6322344799096848
-0.2077000000000001,-0.6288391727900088
-0.2087,-0.6311027108697929
-0.2097000000000001,-0.6386006807590775
-0.2107,-0.6367615560692529
-0.2117000000000001,-0.6295465284399413
-0.2127,-0.6265756347102247
-0.2137000000000001,-0.6299709418299009
-0.2147,-0.63930803640901
-0.2157000000000001,-0.6411471610988346
-0.2167,-0.6319515376497118
-0.21770000000000012,-0.6296879995699278
-0.2187,-0.6337906623395364
-0.21970000000000012,-0.639873920928956
-0.2207,-0.640722747708875
-0.22170000000000012,-0.6330833066896038
-0.2227,-0.6325174221696578
-0.22370000000000012,-0.6363371426792934
-0.2247,-0.6424204012687131
-0.22570000000000012,-0.6435521703086051
-0.2267,-0.6360542004193205
-0.22770000000000012,-0.63647861380928
-0.22870000000000001,-0.6428448146586726
-0.22970000000000013,-0.6490695443780788
-0.23070000000000002,-0.6503427845479574
-0.23170000000000013,-0.6436936414385916
-0.23270000000000002,-0.6427033435286861
-0.23370000000000013,-0.6524648514977549
-0.23470000000000002,-0.6562845720073905
-0.23570000000000013,-0.658123696697215
-0.23670000000000002,-0.6540210339276065
-0.2376999999999999,-0.653313678277674
-0.23870000000000002,-0.6603872347769991
-0.2396999999999999,-0.6685925603162164
-0.24070000000000003,-0.6690169737061759
-0.24169999999999991,-0.6676022624063108
-0.24270000000000003,-0.6644898975466078
-0.24369999999999992,-0.674392876645663
-0.24470000000000003,-0.6821737887949207
-0.24569999999999992,-0.6828811444448531
-0.24670000000000003,-0.6818908465349477
-0.24769999999999992,-0.6810420197550288
-0.24870000000000003,-0.6889644030342729
-0.24969999999999992,-0.6995747377832607
-0.25070000000000003,-0.7007065068231527
-0.2516999999999999,-0.6998576800432337
-0.25270000000000004,-0.7007065068231527
-0.2536999999999999,-0.7099021302722753
-0.25470000000000004,-0.7210783495412092
-0.2556999999999999,-0.7236248298809663
-0.25670000000000004,-0.7222101185811013
-0.25769999999999993,-0.7271616081306289
-0.25870000000000004,-0.7353669336698461
-0.25969999999999993,-0.7479578642386449
-0.26070000000000004,-0.7513531713583209
-0.26169999999999993,-0.7500799311884424
-0.26270000000000004,-0.7564461320378352
-0.26369999999999993,-0.7669149956568363
-0.26470000000000005,-0.7783741571857431
-0.26569999999999994,-0.7860135982050144
-0.26670000000000005,-0.7887015496747579
-0.26769999999999994,-0.791530972274488
-0.26870000000000005,-0.8065269120530575
-0.26969999999999994,-0.8202496116617483
-0.27070000000000005,-0.8267572836411275
-0.27169999999999994,-0.8300111196308171
-0.27270000000000005,-0.8366602627401827
-0.27369999999999994,-0.8509488468688196
-0.27470000000000006,-0.8648130176074971
-0.27569999999999995,-0.8749989389665251
-0.27670000000000006,-0.8832042645057423
-0.27769999999999995,-0.8894289942251485
-0.27870000000000006,-0.9093764235532455
-0.27969999999999995,-0.927201785931545
-0.28070000000000006,-0.9390853608504113
-0.28169999999999995,-0.9488468688194802
-0.28270000000000006,-0.9598816169584273
-0.28369999999999995,-0.9789802195066053
-0.28470000000000006,-0.9996350044846349
-0.28569999999999995,-1.0129332907033664
-0.28670000000000007,-1.025807163532138
-0.28769999999999996,-1.041227516700667
-0.28870000000000007,-1.06457025314844
-0.28969999999999996,-1.0904594699359704
-0.29070000000000007,-1.1058798231044993
-0.29169999999999996,-1.1221490030529473
-0.29270000000000007,-1.1456332106307068
-0.29369999999999996,-1.1720883119381829
-0.2947000000000001,-1.201372835845389
-0.29569999999999996,-1.2235838032532702
-0.2967000000000001,-1.2438141748413403
-0.29769999999999996,-1.2714010451887086
-0.2987000000000001,-1.3046467607355368
-0.29969999999999997,-1.3401560143621492
-0.3007000000000001,-1.368167298099477
-0.30169999999999997,-1.3947638705369396
-0.3027000000000001,-1.4288584128636872
-0.30369999999999997,-1.4698850405597732
-0.3047000000000001,-1.512326379555724
-0.30569999999999997,-1.5519382959519452
-0.3067000000000001,-1.583061944548976
-0.3077,-1.626917994844792
-0.3087000000000001,-1.6778476016399335
-0.3097,-1.7287772084350748
-0.3107000000000001,-1.776877392630486
-0.3117,-1.823562865526032
-0.3127000000000001,-1.8787366062207687
-0.3137,-1.9466427486142908
-0.3147000000000001,-2.008890045808352
-0.3157,-2.071137343002414
-0.3167000000000001,-2.13762877409607
-0.3177,-2.206949627789457
-0.3187000000000001,-2.2918323057813597
-0.3197,-2.3753002724733965
-0.3207000000000001,-2.4587682391654337
-0.3217,-2.543650917157336
-0.3227000000000001,-2.6356071516485633
-0.3237,-2.741710499138441
-0.3247000000000001,-2.8534726918277786
-0.3257,-2.963820173217252
-0.3267000000000001,-3.07841178850632
-0.3277,-3.198662248994848
-0.3287000000000001,-3.3344745337818917
-0.3297,-3.4801897976679905
-0.3307000000000001,-3.627319772853954
-0.3317,-3.7871821497387033
-0.3327000000000001,-3.9541180831227782
-0.3337,-4.140859974704963
-0.3347000000000001,-4.336090134086337
-0.3357,-4.5369791386671725
-0.3367000000000001,-4.747771122347063
-0.3377,-4.978369064225063
-0.3387000000000001,-5.23018767560104
-0.3397,-5.493323977375938
-0.3407000000000001,-5.764948546950024
-0.3417,-6.040817250423707
-0.3427000000000001,-6.35629787029361
-0.3437,-6.685925603162163
-0.3447000000000001,-7.0367740055286925
-0.3457,-7.406013654793467
-0.3467000000000001,-7.778082726657972
-0.3477,-8.182690158419373
-0.3487000000000001,-8.608518259678748
-0.3497,-9.04707876263691
-0.3507000000000001,-9.513933491592372
-0.3517,-9.980788220547833
-0.3527000000000001,-10.474522464200732
-0.3537,-10.99655093385093
-0.3547000000000001,-11.534141227799646
-0.3557,-12.078805078247685
-0.35670000000000013,-12.629127773895183
-0.3577,-13.206329984240117
-0.35870000000000013,-13.803338152783162
-0.3597,-14.401761032626075
-0.36070000000000013,-15.01008689156804
-0.3617,-15.632559863508657
-0.3626999999999999,-16.269179948447924
-0.3637,-16.919947146385837
-0.3646999999999999,-17.570714344323754
-0.3657,-18.249775768258974
-0.3666999999999999,-18.94298430519284
-0.3677,-19.65033995512536
-0.3686999999999999,-20.38598983105518
-0.36970000000000003,-21.13578681998365
-0.3706999999999999,-21.91387803490942
-0.37170000000000003,-22.691969249835186
-0.3726999999999999,-23.49835469075826
-0.37370000000000003,-24.262298792685378
-0.3746999999999999,-25.012095781613848
-0.37570000000000003,-25.790186996539617
-0.3766999999999999,-26.59657243746269
-0.37770000000000004,-27.417104991384413
-0.3786999999999999,-28.209343319308836
-0.37970000000000004,-29.015728760231898
-0.3806999999999999,-29.80796708815632
-0.38170000000000004,-30.600205416080744
-0.38269999999999993,-31.37829663100651
-0.38370000000000004,-32.14224073293363
-0.38469999999999993,-32.9486261738567
-0.38570000000000004,-33.783305840777075
-0.38669999999999993,-34.5755441687015
-0.38770000000000004,-35.353635383627264
-0.38869999999999993,-36.13172659855304
-0.38970000000000005,-36.90981781347881
-0.39069999999999994,-37.645467689408626
-0.39170000000000005,-38.43770601733305
-0.39269999999999994,-39.187503006261515
-0.39370000000000005,-39.88071154319538
-0.39469999999999994,-40.5880671931279
-0.39570000000000005,-41.29542284306042
-0.39669999999999994,-42.05936694498754
-0.39770000000000005,-42.837458159913304
-0.39869999999999994,-43.61554937483908
-0.39970000000000006,-44.3511992507689
-0.40069999999999995,-45.086849126698716
-0.40170000000000006,-45.79420477663124
-0.40269999999999995,-46.47326620056646
-0.40370000000000006,-47.15232762450167
-0.40469999999999995,-47.8879775004315
-0.40570000000000006,-48.62362737636131
-0.40669999999999995,-49.35927725229113
-0.40770000000000006,-50.024191563227696
-0.40869999999999995,-50.70325298716291
-0.40970000000000006,-51.33987307210218
-0.41069999999999995,-51.8774633660509
-0.41170000000000007,-52.45749499899556
-0.41269999999999996,-53.023379518941574
-0.41370000000000007,-53.64585249088219
-0.41469999999999996,-54.25417834982416
-0.41570000000000007,-54.84835709576747
-0.41669999999999996,-55.51327140670405
-0.41770000000000007,-56.1781857176406
-0.41869999999999996,-56.800658689581226
-0.4197000000000001,-57.52216145251239
-0.42069999999999996,-58.17292865045031
-0.4217000000000001,-58.73881317039633
-0.42269999999999996,-59.31884480334099
-0.4237000000000001,-59.92717066228296
-0.42469999999999997,-60.57793786022087
-0.4257000000000001,-61.14382238016689
-0.42669999999999997,-61.695559787114256
-0.4277000000000001,-62.24729719406162
-0.42869999999999997,-62.841475940004926
-0.4297000000000001,-63.49224313794284
-0.43069999999999997,-64.15715744887942
-0.4317000000000001,-64.65230640383218
-0.4327,-65.18989669778088
-0.4337000000000001,-65.93969368670936
-0.4347,-66.49143109365673
-0.4357000000000001,-66.91584448361623
-0.4367,-67.39684632557035
-0.4377000000000001,-67.93443661951906
-0.4387,-68.52861536546239
-0.4397000000000001,-68.96717586842054
-0.4407,-69.74526708334632
-0.4417000000000001,-70.11309202131122
-0.4427,-70.69312365425588
-0.4437000000000001,-71.18827260920865
-0.4447,-71.66927445116276
-0.4457000000000001,-72.24930608410743
-0.4467,-72.98495596003725
-0.4477000000000001,-73.52254625398596
-0.4487,-74.13087211292792
-0.4497000000000001,-74.66846240687663
-0.4507,-75.02214023184291
-0.4517000000000001,-75.51728918679565
-0.4527,-76.0407323677457
-0.4537000000000001,-76.50758709670117
-0.4547,-77.21494274663371
-0.4557000000000001,-77.78082726657972
-0.4567,-79.0965087754542
-0.4577000000000001,-80.01607112036648
-0.4587,-80.68098543130303
-0.4597000000000001,-81.19028149925445
-0.4607,-81.62884200221261
-0.4617000000000001,-82.05325539217212
-0.4627,-82.61913991211814
-0.4637000000000001,-83.10014175407225
-0.4647,-83.84993874300073
-0.4657000000000001,-84.7977953139103
-0.4667,-85.47685673784551
-0.4677000000000001,-85.98615280579692
-0.4687,-86.58033155174023
-0.4697000000000001,-87.13206895868761
-0.4707,-87.61307080064172
-0.4717000000000001,-88.30627933757559
-0.4727,-88.91460519651754
-0.4737000000000001,-89.26828302148381
-0.4747,-89.52293105545952
-0.4757000000000001,-89.65025507244737
-0.4767,-90.06052134940825
-0.4777000000000001,-90.54152319136236
-0.4787,-90.93764235532454
-0.4797000000000001,-91.33376151928677
-0.4807,-92.32405942919229
-0.48170000000000013,-92.64944302816124
-0.4827,-92.86164972314101
-0.48370000000000013,-93.42753424308701
-0.4847,-94.06415432802629
-0.48570000000000013,-94.47442060498715
-0.4867,-94.34709658799929
-0.48570000000000013,-93.37094579109242
-0.4847,-92.36650076818825
-0.48370000000000013,-91.30546729328947
-0.4827,-90.37175783537855
-0.48170000000000013,-89.57951950745412
-0.4807,-88.7306927275351
-0.4797000000000001,-87.83942460862012
-0.4787,-87.14621607168625
-0.4777000000000001,-86.25494795277129
-0.4767,-85.88712301480638
-0.4757000000000001,-85.50515096384281
-0.4747,-85.01000200889004
-0.4737000000000001,-84.18946945496833
-0.4727,-83.84993874300073
-0.4717000000000001,-83.28405422305471
-0.4707,-82.71816970310869
-0.4697000000000001,-82.73231681610734
-0.4687,-82.32205053914649
-0.4677000000000001,-81.61469488921396
-0.4667,-80.45463162332464
