Apr. 21, 2025   13:58:32
Cyclic Voltammetry
File: c:/users/guazh/data/banditlqround7_x0exp590_r20/2025-04-16-exp1147\exp1147-2025-04-21t13_50_40-arkoh\exp1147_cv_sr_700mvs_efin_-1400mv.bin
Data Source:  Experiment
Instrument Model:  CHI760E
Header: CV ran at 700 mVs
Note: 

Init E (V) = -1
High E (V) = -1
Low E (V) = -1.4
Final E (V) = -1
Init P/N = N
Scan Rate (V/s) = 0.7
Segment = 3
Sample Interval (V) = 0.001
Quiet Time (sec) = 2
Sensitivity (A/V) = 0.01
Comp R (ohm) = 1.4

Results:

Channel 1:
Segment 1:

Segment 2:

Segment 3:

Potential/V, Current/A

-1.000, 5.257e-5
-1.001, 1.790e-4
-1.002, 2.869e-4
-1.003, 3.886e-4
-1.004, 4.904e-4
-1.005, 5.921e-4
-1.006, 6.939e-4
-1.007, 7.956e-4
-1.008, 8.881e-4
-1.009, 9.683e-4
-1.010, 1.027e-3
-1.011, 1.070e-3
-1.012, 1.098e-3
-1.013, 1.116e-3
-1.014, 1.132e-3
-1.015, 1.153e-3
-1.016, 1.184e-3
-1.017, 1.221e-3
-1.018, 1.270e-3
-1.019, 1.317e-3
-1.020, 1.363e-3
-1.021, 1.394e-3
-1.022, 1.412e-3
-1.023, 1.415e-3
-1.024, 1.412e-3
-1.025, 1.400e-3
-1.026, 1.394e-3
-1.027, 1.394e-3
-1.028, 1.409e-3
-1.029, 1.434e-3
-1.030, 1.468e-3
-1.031, 1.499e-3
-1.032, 1.526e-3
-1.033, 1.545e-3
-1.034, 1.545e-3
-1.035, 1.536e-3
-1.036, 1.517e-3
-1.037, 1.499e-3
-1.038, 1.486e-3
-1.039, 1.486e-3
-1.040, 1.499e-3
-1.041, 1.520e-3
-1.042, 1.548e-3
-1.043, 1.576e-3
-1.044, 1.597e-3
-1.045, 1.603e-3
-1.046, 1.597e-3
-1.047, 1.579e-3
-1.048, 1.557e-3
-1.049, 1.539e-3
-1.050, 1.526e-3
-1.051, 1.529e-3
-1.052, 1.542e-3
-1.053, 1.563e-3
-1.054, 1.591e-3
-1.055, 1.616e-3
-1.056, 1.631e-3
-1.057, 1.631e-3
-1.058, 1.619e-3
-1.059, 1.597e-3
-1.060, 1.576e-3
-1.061, 1.554e-3
-1.062, 1.548e-3
-1.063, 1.554e-3
-1.064, 1.569e-3
-1.065, 1.594e-3
-1.066, 1.619e-3
-1.067, 1.640e-3
-1.068, 1.650e-3
-1.069, 1.643e-3
-1.070, 1.631e-3
-1.071, 1.606e-3
-1.072, 1.582e-3
-1.073, 1.566e-3
-1.074, 1.560e-3
-1.075, 1.573e-3
-1.076, 1.591e-3
-1.077, 1.616e-3
-1.078, 1.640e-3
-1.079, 1.656e-3
-1.080, 1.659e-3
-1.081, 1.653e-3
-1.082, 1.634e-3
-1.083, 1.606e-3
-1.084, 1.588e-3
-1.085, 1.573e-3
-1.086, 1.573e-3
-1.087, 1.585e-3
-1.088, 1.606e-3
-1.089, 1.634e-3
-1.090, 1.656e-3
-1.091, 1.668e-3
-1.092, 1.668e-3
-1.093, 1.656e-3
-1.094, 1.634e-3
-1.095, 1.610e-3
-1.096, 1.588e-3
-1.097, 1.579e-3
-1.098, 1.582e-3
-1.099, 1.597e-3
-1.100, 1.625e-3
-1.101, 1.647e-3
-1.102, 1.668e-3
-1.103, 1.674e-3
-1.104, 1.671e-3
-1.105, 1.656e-3
-1.106, 1.631e-3
-1.107, 1.606e-3
-1.108, 1.588e-3
-1.109, 1.582e-3
-1.110, 1.591e-3
-1.111, 1.610e-3
-1.112, 1.634e-3
-1.113, 1.659e-3
-1.114, 1.674e-3
-1.115, 1.680e-3
-1.116, 1.671e-3
-1.117, 1.650e-3
-1.118, 1.625e-3
-1.119, 1.603e-3
-1.120, 1.591e-3
-1.121, 1.591e-3
-1.122, 1.600e-3
-1.123, 1.625e-3
-1.124, 1.650e-3
-1.125, 1.671e-3
-1.126, 1.684e-3
-1.127, 1.684e-3
-1.128, 1.671e-3
-1.129, 1.650e-3
-1.130, 1.625e-3
-1.131, 1.603e-3
-1.132, 1.597e-3
-1.133, 1.600e-3
-1.134, 1.616e-3
-1.135, 1.640e-3
-1.136, 1.665e-3
-1.137, 1.687e-3
-1.138, 1.693e-3
-1.139, 1.690e-3
-1.140, 1.674e-3
-1.141, 1.650e-3
-1.142, 1.625e-3
-1.143, 1.606e-3
-1.144, 1.603e-3
-1.145, 1.613e-3
-1.146, 1.628e-3
-1.147, 1.656e-3
-1.148, 1.677e-3
-1.149, 1.696e-3
-1.150, 1.699e-3
-1.151, 1.693e-3
-1.152, 1.674e-3
-1.153, 1.650e-3
-1.154, 1.628e-3
-1.155, 1.616e-3
-1.156, 1.616e-3
-1.157, 1.628e-3
-1.158, 1.650e-3
-1.159, 1.674e-3
-1.160, 1.699e-3
-1.161, 1.711e-3
-1.162, 1.711e-3
-1.163, 1.699e-3
-1.164, 1.677e-3
-1.165, 1.653e-3
-1.166, 1.634e-3
-1.167, 1.628e-3
-1.168, 1.628e-3
-1.169, 1.643e-3
-1.170, 1.671e-3
-1.171, 1.696e-3
-1.172, 1.717e-3
-1.173, 1.727e-3
-1.174, 1.721e-3
-1.175, 1.705e-3
-1.176, 1.680e-3
-1.177, 1.662e-3
-1.178, 1.647e-3
-1.179, 1.640e-3
-1.180, 1.650e-3
-1.181, 1.668e-3
-1.182, 1.696e-3
-1.183, 1.721e-3
-1.184, 1.736e-3
-1.185, 1.742e-3
-1.186, 1.736e-3
-1.187, 1.717e-3
-1.188, 1.693e-3
-1.189, 1.674e-3
-1.190, 1.662e-3
-1.191, 1.662e-3
-1.192, 1.674e-3
-1.193, 1.699e-3
-1.194, 1.724e-3
-1.195, 1.748e-3
-1.196, 1.764e-3
-1.197, 1.764e-3
-1.198, 1.754e-3
-1.199, 1.733e-3
-1.200, 1.711e-3
-1.201, 1.693e-3
-1.202, 1.687e-3
-1.203, 1.693e-3
-1.204, 1.711e-3
-1.205, 1.736e-3
-1.206, 1.764e-3
-1.207, 1.785e-3
-1.208, 1.795e-3
-1.209, 1.795e-3
-1.210, 1.782e-3
-1.211, 1.758e-3
-1.212, 1.739e-3
-1.213, 1.724e-3
-1.214, 1.724e-3
-1.215, 1.733e-3
-1.216, 1.754e-3
-1.217, 1.782e-3
-1.218, 1.807e-3
-1.219, 1.828e-3
-1.220, 1.838e-3
-1.221, 1.832e-3
-1.222, 1.819e-3
-1.223, 1.798e-3
-1.224, 1.779e-3
-1.225, 1.770e-3
-1.226, 1.773e-3
-1.227, 1.788e-3
-1.228, 1.816e-3
-1.229, 1.850e-3
-1.230, 1.878e-3
-1.231, 1.896e-3
-1.232, 1.899e-3
-1.233, 1.893e-3
-1.234, 1.875e-3
-1.235, 1.856e-3
-1.236, 1.841e-3
-1.237, 1.838e-3
-1.238, 1.847e-3
-1.239, 1.869e-3
-1.240, 1.896e-3
-1.241, 1.927e-3
-1.242, 1.955e-3
-1.243, 1.970e-3
-1.244, 1.973e-3
-1.245, 1.964e-3
-1.246, 1.946e-3
-1.247, 1.933e-3
-1.248, 1.921e-3
-1.249, 1.924e-3
-1.250, 1.943e-3
-1.251, 1.967e-3
-1.252, 2.001e-3
-1.253, 2.032e-3
-1.254, 2.060e-3
-1.255, 2.075e-3
-1.256, 2.075e-3
-1.257, 2.066e-3
-1.258, 2.050e-3
-1.259, 2.041e-3
-1.260, 2.038e-3
-1.261, 2.047e-3
-1.262, 2.069e-3
-1.263, 2.103e-3
-1.264, 2.137e-3
-1.265, 2.174e-3
-1.266, 2.195e-3
-1.267, 2.208e-3
-1.268, 2.208e-3
-1.269, 2.198e-3
-1.270, 2.189e-3
-1.271, 2.180e-3
-1.272, 2.183e-3
-1.273, 2.201e-3
-1.274, 2.229e-3
-1.275, 2.269e-3
-1.276, 2.309e-3
-1.277, 2.343e-3
-1.278, 2.368e-3
-1.279, 2.377e-3
-1.280, 2.383e-3
-1.281, 2.374e-3
-1.282, 2.368e-3
-1.283, 2.368e-3
-1.284, 2.380e-3
-1.285, 2.405e-3
-1.286, 2.442e-3
-1.287, 2.488e-3
-1.288, 2.531e-3
-1.289, 2.568e-3
-1.290, 2.593e-3
-1.291, 2.602e-3
-1.292, 2.605e-3
-1.293, 2.602e-3
-1.294, 2.602e-3
-1.295, 2.608e-3
-1.296, 2.630e-3
-1.297, 2.667e-3
-1.298, 2.710e-3
-1.299, 2.760e-3
-1.300, 2.806e-3
-1.301, 2.840e-3
-1.302, 2.867e-3
-1.303, 2.880e-3
-1.304, 2.883e-3
-1.305, 2.889e-3
-1.306, 2.892e-3
-1.307, 2.911e-3
-1.308, 2.941e-3
-1.309, 2.985e-3
-1.310, 3.037e-3
-1.311, 3.093e-3
-1.312, 3.142e-3
-1.313, 3.182e-3
-1.314, 3.207e-3
-1.315, 3.225e-3
-1.316, 3.231e-3
-1.317, 3.244e-3
-1.318, 3.256e-3
-1.319, 3.287e-3
-1.320, 3.324e-3
-1.321, 3.376e-3
-1.322, 3.435e-3
-1.323, 3.496e-3
-1.324, 3.549e-3
-1.325, 3.589e-3
-1.326, 3.617e-3
-1.327, 3.638e-3
-1.328, 3.651e-3
-1.329, 3.666e-3
-1.330, 3.691e-3
-1.331, 3.731e-3
-1.332, 3.783e-3
-1.333, 3.842e-3
-1.334, 3.910e-3
-1.335, 3.974e-3
-1.336, 4.030e-3
-1.337, 4.073e-3
-1.338, 4.107e-3
-1.339, 4.128e-3
-1.340, 4.150e-3
-1.341, 4.172e-3
-1.342, 4.209e-3
-1.343, 4.261e-3
-1.344, 4.320e-3
-1.345, 4.391e-3
-1.346, 4.461e-3
-1.347, 4.532e-3
-1.348, 4.591e-3
-1.349, 4.637e-3
-1.350, 4.674e-3
-1.351, 4.702e-3
-1.352, 4.730e-3
-1.353, 4.767e-3
-1.354, 4.813e-3
-1.355, 4.875e-3
-1.356, 4.945e-3
-1.357, 5.026e-3
-1.358, 5.109e-3
-1.359, 5.183e-3
-1.360, 5.245e-3
-1.361, 5.294e-3
-1.362, 5.334e-3
-1.363, 5.368e-3
-1.364, 5.408e-3
-1.365, 5.454e-3
-1.366, 5.513e-3
-1.367, 5.584e-3
-1.368, 5.661e-3
-1.369, 5.750e-3
-1.370, 5.833e-3
-1.371, 5.907e-3
-1.372, 5.969e-3
-1.373, 6.021e-3
-1.374, 6.068e-3
-1.375, 6.111e-3
-1.376, 6.154e-3
-1.377, 6.210e-3
-1.378, 6.277e-3
-1.379, 6.358e-3
-1.380, 6.450e-3
-1.381, 6.543e-3
-1.382, 6.635e-3
-1.383, 6.715e-3
-1.384, 6.780e-3
-1.385, 6.842e-3
-1.386, 6.888e-3
-1.387, 6.934e-3
-1.388, 6.986e-3
-1.389, 7.054e-3
-1.390, 7.138e-3
-1.391, 7.230e-3
-1.392, 7.332e-3
-1.393, 7.430e-3
-1.394, 7.526e-3
-1.395, 7.606e-3
-1.396, 7.674e-3
-1.397, 7.733e-3
-1.398, 7.788e-3
-1.399, 7.844e-3
-1.400, 7.797e-3
-1.399, 7.569e-3
-1.398, 7.387e-3
-1.397, 7.239e-3
-1.396, 7.110e-3
-1.395, 6.996e-3
-1.394, 6.879e-3
-1.393, 6.758e-3
-1.392, 6.632e-3
-1.391, 6.502e-3
-1.390, 6.373e-3
-1.389, 6.247e-3
-1.388, 6.132e-3
-1.387, 6.037e-3
-1.386, 5.951e-3
-1.385, 5.880e-3
-1.384, 5.812e-3
-1.383, 5.738e-3
-1.382, 5.655e-3
-1.381, 5.565e-3
-1.380, 5.463e-3
-1.379, 5.356e-3
-1.378, 5.248e-3
-1.377, 5.146e-3
-1.376, 5.056e-3
-1.375, 4.979e-3
-1.374, 4.912e-3
-1.373, 4.856e-3
-1.372, 4.797e-3
-1.371, 4.733e-3
-1.370, 4.659e-3
-1.369, 4.569e-3
-1.368, 4.477e-3
-1.367, 4.375e-3
-1.366, 4.276e-3
-1.365, 4.187e-3
-1.364, 4.107e-3
-1.363, 4.042e-3
-1.362, 3.990e-3
-1.361, 3.940e-3
-1.360, 3.891e-3
-1.359, 3.829e-3
-1.358, 3.758e-3
-1.357, 3.678e-3
-1.356, 3.583e-3
-1.355, 3.490e-3
-1.354, 3.398e-3
-1.353, 3.321e-3
-1.352, 3.253e-3
-1.351, 3.197e-3
-1.350, 3.154e-3
-1.349, 3.111e-3
-1.348, 3.065e-3
-1.347, 3.009e-3
-1.346, 2.938e-3
-1.345, 2.858e-3
-1.344, 2.772e-3
-1.343, 2.682e-3
-1.342, 2.602e-3
-1.341, 2.534e-3
-1.340, 2.476e-3
-1.339, 2.430e-3
-1.338, 2.393e-3
-1.337, 2.356e-3
-1.336, 2.312e-3
-1.335, 2.257e-3
-1.334, 2.186e-3
-1.333, 2.109e-3
-1.332, 2.026e-3
-1.331, 1.946e-3
-1.330, 1.875e-3
-1.329, 1.816e-3
-1.328, 1.770e-3
-1.327, 1.733e-3
-1.326, 1.702e-3
-1.325, 1.671e-3
-1.324, 1.628e-3
-1.323, 1.576e-3
-1.322, 1.511e-3
-1.321, 1.437e-3
-1.320, 1.363e-3
-1.319, 1.289e-3
-1.318, 1.230e-3
-1.317, 1.184e-3
-1.316, 1.147e-3
-1.315, 1.122e-3
-1.314, 1.098e-3
-1.313, 1.070e-3
-1.312, 1.030e-3
-1.311, 9.806e-4
-1.310, 9.189e-4
-1.309, 8.480e-4
-1.308, 7.771e-4
-1.307, 7.154e-4
-1.306, 6.661e-4
-1.305, 6.291e-4
-1.304, 6.014e-4
-1.303, 5.829e-4
-1.302, 5.644e-4
-1.301, 5.428e-4
-1.300, 5.027e-4
-1.299, 4.565e-4
-1.298, 3.948e-4
-1.297, 3.300e-4
-1.296, 2.715e-4
-1.295, 2.160e-4
-1.294, 1.759e-4
-1.293, 1.512e-4
-1.292, 1.296e-4
-1.291, 1.204e-4
-1.290, 1.081e-4
-1.289, 8.340e-5
-1.288, 4.949e-5
-1.287, 1.559e-7
-1.286, -5.534e-5
-1.285, -1.139e-4
-1.284, -1.663e-4
-1.283, -2.095e-4
-1.282, -2.403e-4
-1.281, -2.588e-4
-1.280, -2.681e-4
-1.279, -2.773e-4
-1.278, -2.835e-4
-1.277, -3.051e-4
-1.276, -3.421e-4
-1.275, -3.821e-4
-1.274, -4.376e-4
-1.273, -4.870e-4
-1.272, -5.332e-4
-1.271, -5.671e-4
-1.270, -5.856e-4
-1.269, -5.949e-4
-1.268, -5.980e-4
-1.267, -5.980e-4
-1.266, -6.072e-4
-1.265, -6.288e-4
-1.264, -6.596e-4
-1.263, -7.059e-4
-1.262, -7.521e-4
-1.261, -8.015e-4
-1.260, -8.385e-4
-1.259, -8.631e-4
-1.258, -8.724e-4
-1.257, -8.724e-4
-1.256, -8.693e-4
-1.255, -8.693e-4
-1.254, -8.754e-4
-1.253, -8.970e-4
-1.252, -9.309e-4
-1.251, -9.710e-4
-1.250, -1.014e-3
-1.249, -1.054e-3
-1.248, -1.082e-3
-1.247, -1.097e-3
-1.246, -1.104e-3
-1.245, -1.094e-3
-1.244, -1.088e-3
-1.243, -1.085e-3
-1.242, -1.094e-3
-1.241, -1.116e-3
-1.240, -1.147e-3
-1.239, -1.187e-3
-1.238, -1.227e-3
-1.237, -1.261e-3
-1.236, -1.279e-3
-1.235, -1.289e-3
-1.234, -1.286e-3
-1.233, -1.273e-3
-1.232, -1.264e-3
-1.231, -1.261e-3
-1.230, -1.270e-3
-1.229, -1.295e-3
-1.228, -1.329e-3
-1.227, -1.363e-3
-1.226, -1.400e-3
-1.225, -1.424e-3
-1.224, -1.440e-3
-1.223, -1.440e-3
-1.222, -1.430e-3
-1.221, -1.415e-3
-1.220, -1.406e-3
-1.219, -1.403e-3
-1.218, -1.415e-3
-1.217, -1.437e-3
-1.216, -1.467e-3
-1.215, -1.501e-3
-1.214, -1.532e-3
-1.213, -1.554e-3
-1.212, -1.560e-3
-1.211, -1.554e-3
-1.210, -1.541e-3
-1.209, -1.526e-3
-1.208, -1.511e-3
-1.207, -1.514e-3
-1.206, -1.526e-3
-1.205, -1.548e-3
-1.204, -1.581e-3
-1.203, -1.612e-3
-1.202, -1.640e-3
-1.201, -1.652e-3
-1.200, -1.652e-3
-1.199, -1.643e-3
-1.198, -1.625e-3
-1.197, -1.609e-3
-1.196, -1.600e-3
-1.195, -1.600e-3
-1.194, -1.615e-3
-1.193, -1.640e-3
-1.192, -1.671e-3
-1.191, -1.702e-3
-1.190, -1.723e-3
-1.189, -1.733e-3
-1.188, -1.726e-3
-1.187, -1.711e-3
-1.186, -1.689e-3
-1.185, -1.674e-3
-1.184, -1.665e-3
-1.183, -1.671e-3
-1.182, -1.689e-3
-1.181, -1.717e-3
-1.180, -1.745e-3
-1.179, -1.773e-3
-1.178, -1.788e-3
-1.177, -1.791e-3
-1.176, -1.782e-3
-1.175, -1.763e-3
-1.174, -1.742e-3
-1.173, -1.723e-3
-1.172, -1.720e-3
-1.171, -1.726e-3
-1.170, -1.748e-3
-1.169, -1.779e-3
-1.168, -1.803e-3
-1.167, -1.828e-3
-1.166, -1.834e-3
-1.165, -1.831e-3
-1.164, -1.819e-3
-1.163, -1.797e-3
-1.162, -1.779e-3
-1.161, -1.763e-3
-1.160, -1.760e-3
-1.159, -1.773e-3
-1.158, -1.794e-3
-1.157, -1.822e-3
-1.156, -1.847e-3
-1.155, -1.865e-3
-1.154, -1.871e-3
-1.153, -1.862e-3
-1.152, -1.844e-3
-1.151, -1.822e-3
-1.150, -1.803e-3
-1.149, -1.794e-3
-1.148, -1.797e-3
-1.147, -1.810e-3
-1.146, -1.834e-3
-1.145, -1.862e-3
-1.144, -1.887e-3
-1.143, -1.899e-3
-1.142, -1.899e-3
-1.141, -1.887e-3
-1.140, -1.865e-3
-1.139, -1.844e-3
-1.138, -1.825e-3
-1.137, -1.816e-3
-1.136, -1.822e-3
-1.135, -1.840e-3
-1.134, -1.868e-3
-1.133, -1.893e-3
-1.132, -1.914e-3
-1.131, -1.921e-3
-1.130, -1.914e-3
-1.129, -1.899e-3
-1.128, -1.874e-3
-1.127, -1.853e-3
-1.126, -1.837e-3
-1.125, -1.837e-3
-1.124, -1.847e-3
-1.123, -1.865e-3
-1.122, -1.896e-3
-1.121, -1.918e-3
-1.120, -1.933e-3
-1.119, -1.936e-3
-1.118, -1.927e-3
-1.117, -1.908e-3
-1.116, -1.884e-3
-1.115, -1.865e-3
-1.114, -1.853e-3
-1.113, -1.853e-3
-1.112, -1.865e-3
-1.111, -1.890e-3
-1.110, -1.914e-3
-1.109, -1.939e-3
-1.108, -1.948e-3
-1.107, -1.948e-3
-1.106, -1.936e-3
-1.105, -1.914e-3
-1.104, -1.893e-3
-1.103, -1.871e-3
-1.102, -1.865e-3
-1.101, -1.868e-3
-1.100, -1.887e-3
-1.099, -1.911e-3
-1.098, -1.936e-3
-1.097, -1.955e-3
-1.096, -1.961e-3
-1.095, -1.958e-3
-1.094, -1.942e-3
-1.093, -1.918e-3
-1.092, -1.896e-3
-1.091, -1.877e-3
-1.090, -1.874e-3
-1.089, -1.887e-3
-1.088, -1.905e-3
-1.087, -1.930e-3
-1.086, -1.951e-3
-1.085, -1.967e-3
-1.084, -1.973e-3
-1.083, -1.961e-3
-1.082, -1.942e-3
-1.081, -1.921e-3
-1.080, -1.899e-3
-1.079, -1.887e-3
-1.078, -1.890e-3
-1.077, -1.902e-3
-1.076, -1.924e-3
-1.075, -1.948e-3
-1.074, -1.973e-3
-1.073, -1.982e-3
-1.072, -1.982e-3
-1.071, -1.970e-3
-1.070, -1.945e-3
-1.069, -1.924e-3
-1.068, -1.905e-3
-1.067, -1.896e-3
-1.066, -1.902e-3
-1.065, -1.921e-3
-1.064, -1.945e-3
-1.063, -1.970e-3
-1.062, -1.988e-3
-1.061, -1.998e-3
-1.060, -1.992e-3
-1.059, -1.976e-3
-1.058, -1.951e-3
-1.057, -1.930e-3
-1.056, -1.911e-3
-1.055, -1.908e-3
-1.054, -1.918e-3
-1.053, -1.936e-3
-1.052, -1.964e-3
-1.051, -1.985e-3
-1.050, -2.001e-3
-1.049, -2.004e-3
-1.048, -1.995e-3
-1.047, -1.976e-3
-1.046, -1.951e-3
-1.045, -1.933e-3
-1.044, -1.924e-3
-1.043, -1.924e-3
-1.042, -1.939e-3
-1.041, -1.961e-3
-1.040, -1.985e-3
-1.039, -2.010e-3
-1.038, -2.022e-3
-1.037, -2.022e-3
-1.036, -2.010e-3
-1.035, -1.988e-3
-1.034, -1.967e-3
-1.033, -1.948e-3
-1.032, -1.939e-3
-1.031, -1.945e-3
-1.030, -1.961e-3
-1.029, -1.985e-3
-1.028, -2.013e-3
-1.027, -2.032e-3
-1.026, -2.038e-3
-1.025, -2.035e-3
-1.024, -2.019e-3
-1.023, -1.995e-3
-1.022, -1.973e-3
-1.021, -1.958e-3
-1.020, -1.955e-3
-1.019, -1.964e-3
-1.018, -1.982e-3
-1.017, -2.010e-3
-1.016, -2.035e-3
-1.015, -2.050e-3
-1.014, -2.056e-3
-1.013, -2.047e-3
-1.012, -2.029e-3
-1.011, -2.007e-3
-1.010, -1.985e-3
-1.009, -1.976e-3
-1.008, -1.979e-3
-1.007, -1.995e-3
-1.006, -2.016e-3
-1.005, -2.044e-3
-1.004, -2.072e-3
-1.003, -2.084e-3
-1.002, -2.084e-3
-1.001, -2.072e-3
