Mar. 11, 2025   04:14:06
Cyclic Voltammetry
File: c:/users/guazh/data/banditlqround7_x0exp891_r5/2025-03-03-exp873\exp873-2025-03-11t04_04_23-h2koh\exp873_cv_sr_100mvs_efin_-1500mv.bin
Data Source:  Experiment
Instrument Model:  CHI760E
Header: CV ran at 100 mVs
Note: 

Init E (V) = -1
High E (V) = -1
Low E (V) = -1.5
Final E (V) = -1
Init P/N = N
Scan Rate (V/s) = 0.1
Segment = 3
Sample Interval (V) = 0.001
Quiet Time (sec) = 2
Sensitivity (A/V) = 0.01
Comp R (ohm) = 1.8

Results:

Channel 1:
Segment 1:

Segment 2:

Segment 3:

Potential/V, Current/A

-1.000, 5.434e-6
-1.001, 6.736e-6
-1.002, 6.786e-6
-1.003, 7.200e-6
-1.004, 7.328e-6
-1.005, 7.595e-6
-1.006, 7.743e-6
-1.007, 7.388e-6
-1.008, 8.009e-6
-1.009, 7.723e-6
-1.010, 7.999e-6
-1.011, 8.295e-6
-1.012, 7.802e-6
-1.013, 8.572e-6
-1.014, 8.295e-6
-1.015, 8.453e-6
-1.016, 8.680e-6
-1.017, 8.157e-6
-1.018, 8.798e-6
-1.019, 8.532e-6
-1.020, 8.562e-6
-1.021, 8.976e-6
-1.022, 8.443e-6
-1.023, 9.065e-6
-1.024, 8.927e-6
-1.025, 8.966e-6
-1.026, 9.292e-6
-1.027, 8.818e-6
-1.028, 9.282e-6
-1.029, 9.173e-6
-1.030, 9.223e-6
-1.031, 9.538e-6
-1.032, 9.104e-6
-1.033, 9.696e-6
-1.034, 9.489e-6
-1.035, 9.459e-6
-1.036, 9.627e-6
-1.037, 9.341e-6
-1.038, 9.903e-6
-1.039, 9.864e-6
-1.040, 9.677e-6
-1.041, 1.005e-5
-1.042, 9.607e-6
-1.043, 1.017e-5
-1.044, 9.894e-6
-1.045, 9.943e-6
-1.046, 1.032e-5
-1.047, 9.834e-6
-1.048, 1.045e-5
-1.049, 1.013e-5
-1.050, 1.038e-5
-1.051, 1.058e-5
-1.052, 1.015e-5
-1.053, 1.079e-5
-1.054, 1.051e-5
-1.055, 1.064e-5
-1.056, 1.083e-5
-1.057, 1.044e-5
-1.058, 1.100e-5
-1.059, 1.072e-5
-1.060, 1.080e-5
-1.061, 1.121e-5
-1.062, 1.066e-5
-1.063, 1.119e-5
-1.064, 1.094e-5
-1.065, 1.107e-5
-1.066, 1.155e-5
-1.067, 1.093e-5
-1.068, 1.153e-5
-1.069, 1.144e-5
-1.070, 1.153e-5
-1.071, 1.192e-5
-1.072, 1.126e-5
-1.073, 1.181e-5
-1.074, 1.167e-5
-1.075, 1.183e-5
-1.076, 1.218e-5
-1.077, 1.178e-5
-1.078, 1.222e-5
-1.079, 1.208e-5
-1.080, 1.206e-5
-1.081, 1.250e-5
-1.082, 1.204e-5
-1.083, 1.262e-5
-1.084, 1.234e-5
-1.085, 1.254e-5
-1.086, 1.277e-5
-1.087, 1.238e-5
-1.088, 1.316e-5
-1.089, 1.276e-5
-1.090, 1.292e-5
-1.091, 1.322e-5
-1.092, 1.275e-5
-1.093, 1.352e-5
-1.094, 1.300e-5
-1.095, 1.329e-5
-1.096, 1.363e-5
-1.097, 1.321e-5
-1.098, 1.391e-5
-1.099, 1.360e-5
-1.100, 1.373e-5
-1.101, 1.425e-5
-1.102, 1.372e-5
-1.103, 1.444e-5
-1.104, 1.416e-5
-1.105, 1.415e-5
-1.106, 1.470e-5
-1.107, 1.411e-5
-1.108, 1.485e-5
-1.109, 1.467e-5
-1.110, 1.466e-5
-1.111, 1.520e-5
-1.112, 1.439e-5
-1.113, 1.522e-5
-1.114, 1.495e-5
-1.115, 1.511e-5
-1.116, 1.540e-5
-1.117, 1.502e-5
-1.118, 1.563e-5
-1.119, 1.548e-5
-1.120, 1.547e-5
-1.121, 1.610e-5
-1.122, 1.546e-5
-1.123, 1.620e-5
-1.124, 1.605e-5
-1.125, 1.604e-5
-1.126, 1.658e-5
-1.127, 1.610e-5
-1.128, 1.659e-5
-1.129, 1.643e-5
-1.130, 1.655e-5
-1.131, 1.700e-5
-1.132, 1.640e-5
-1.133, 1.725e-5
-1.134, 1.700e-5
-1.135, 1.706e-5
-1.136, 1.746e-5
-1.137, 1.703e-5
-1.138, 1.778e-5
-1.139, 1.753e-5
-1.140, 1.755e-5
-1.141, 1.810e-5
-1.142, 1.744e-5
-1.143, 1.833e-5
-1.144, 1.800e-5
-1.145, 1.794e-5
-1.146, 1.844e-5
-1.147, 1.792e-5
-1.148, 1.878e-5
-1.149, 1.855e-5
-1.150, 1.846e-5
-1.151, 1.911e-5
-1.152, 1.839e-5
-1.153, 1.921e-5
-1.154, 1.901e-5
-1.155, 1.891e-5
-1.156, 1.952e-5
-1.157, 1.885e-5
-1.158, 1.944e-5
-1.159, 1.955e-5
-1.160, 1.936e-5
-1.161, 1.995e-5
-1.162, 1.936e-5
-1.163, 2.001e-5
-1.164, 1.982e-5
-1.165, 1.992e-5
-1.166, 2.021e-5
-1.167, 1.994e-5
-1.168, 2.037e-5
-1.169, 2.024e-5
-1.170, 2.023e-5
-1.171, 2.082e-5
-1.172, 2.044e-5
-1.173, 2.083e-5
-1.174, 2.075e-5
-1.175, 2.076e-5
-1.176, 2.111e-5
-1.177, 2.072e-5
-1.178, 2.140e-5
-1.179, 2.115e-5
-1.180, 2.105e-5
-1.181, 2.158e-5
-1.182, 2.102e-5
-1.183, 2.165e-5
-1.184, 2.137e-5
-1.185, 2.138e-5
-1.186, 2.194e-5
-1.187, 2.142e-5
-1.188, 2.193e-5
-1.189, 2.200e-5
-1.190, 2.186e-5
-1.191, 2.236e-5
-1.192, 2.165e-5
-1.193, 2.243e-5
-1.194, 2.215e-5
-1.195, 2.214e-5
-1.196, 2.262e-5
-1.197, 2.220e-5
-1.198, 2.253e-5
-1.199, 2.251e-5
-1.200, 2.244e-5
-1.201, 2.281e-5
-1.202, 2.262e-5
-1.203, 2.295e-5
-1.204, 2.287e-5
-1.205, 2.292e-5
-1.206, 2.318e-5
-1.207, 2.292e-5
-1.208, 2.312e-5
-1.209, 2.325e-5
-1.210, 2.316e-5
-1.211, 2.362e-5
-1.212, 2.320e-5
-1.213, 2.374e-5
-1.214, 2.337e-5
-1.215, 2.344e-5
-1.216, 2.404e-5
-1.217, 2.358e-5
-1.218, 2.421e-5
-1.219, 2.408e-5
-1.220, 2.396e-5
-1.221, 2.444e-5
-1.222, 2.401e-5
-1.223, 2.457e-5
-1.224, 2.432e-5
-1.225, 2.427e-5
-1.226, 2.475e-5
-1.227, 2.428e-5
-1.228, 2.497e-5
-1.229, 2.492e-5
-1.230, 2.467e-5
-1.231, 2.520e-5
-1.232, 2.472e-5
-1.233, 2.533e-5
-1.234, 2.520e-5
-1.235, 2.524e-5
-1.236, 2.552e-5
-1.237, 2.528e-5
-1.238, 2.571e-5
-1.239, 2.581e-5
-1.240, 2.572e-5
-1.241, 2.617e-5
-1.242, 2.593e-5
-1.243, 2.648e-5
-1.244, 2.640e-5
-1.245, 2.625e-5
-1.246, 2.675e-5
-1.247, 2.657e-5
-1.248, 2.699e-5
-1.249, 2.703e-5
-1.250, 2.702e-5
-1.251, 2.741e-5
-1.252, 2.715e-5
-1.253, 2.784e-5
-1.254, 2.782e-5
-1.255, 2.784e-5
-1.256, 2.828e-5
-1.257, 2.791e-5
-1.258, 2.859e-5
-1.259, 2.865e-5
-1.260, 2.860e-5
-1.261, 2.933e-5
-1.262, 2.899e-5
-1.263, 2.976e-5
-1.264, 2.980e-5
-1.265, 2.981e-5
-1.266, 3.057e-5
-1.267, 3.021e-5
-1.268, 3.102e-5
-1.269, 3.114e-5
-1.270, 3.123e-5
-1.271, 3.195e-5
-1.272, 3.165e-5
-1.273, 3.244e-5
-1.274, 3.263e-5
-1.275, 3.291e-5
-1.276, 3.360e-5
-1.277, 3.369e-5
-1.278, 3.438e-5
-1.279, 3.460e-5
-1.280, 3.514e-5
-1.281, 3.586e-5
-1.282, 3.599e-5
-1.283, 3.682e-5
-1.284, 3.730e-5
-1.285, 3.766e-5
-1.286, 3.867e-5
-1.287, 3.888e-5
-1.288, 3.984e-5
-1.289, 4.045e-5
-1.290, 4.102e-5
-1.291, 4.211e-5
-1.292, 4.257e-5
-1.293, 4.396e-5
-1.294, 4.455e-5
-1.295, 4.565e-5
-1.296, 4.691e-5
-1.297, 4.765e-5
-1.298, 4.921e-5
-1.299, 5.021e-5
-1.300, 5.150e-5
-1.301, 5.303e-5
-1.302, 5.421e-5
-1.303, 5.618e-5
-1.304, 5.774e-5
-1.305, 5.939e-5
-1.306, 6.165e-5
-1.307, 6.343e-5
-1.308, 6.589e-5
-1.309, 6.797e-5
-1.310, 7.021e-5
-1.311, 7.315e-5
-1.312, 7.556e-5
-1.313, 7.880e-5
-1.314, 8.174e-5
-1.315, 8.482e-5
-1.316, 8.875e-5
-1.317, 9.210e-5
-1.318, 9.620e-5
-1.319, 1.004e-4
-1.320, 1.044e-4
-1.321, 1.092e-4
-1.322, 1.135e-4
-1.323, 1.186e-4
-1.324, 1.235e-4
-1.325, 1.291e-4
-1.326, 1.348e-4
-1.327, 1.405e-4
-1.328, 1.471e-4
-1.329, 1.535e-4
-1.330, 1.605e-4
-1.331, 1.676e-4
-1.332, 1.748e-4
-1.333, 1.828e-4
-1.334, 1.906e-4
-1.335, 1.991e-4
-1.336, 2.081e-4
-1.337, 2.170e-4
-1.338, 2.265e-4
-1.339, 2.360e-4
-1.340, 2.464e-4
-1.341, 2.571e-4
-1.342, 2.681e-4
-1.343, 2.799e-4
-1.344, 2.920e-4
-1.345, 3.044e-4
-1.346, 3.176e-4
-1.347, 3.305e-4
-1.348, 3.446e-4
-1.349, 3.588e-4
-1.350, 3.735e-4
-1.351, 3.891e-4
-1.352, 4.045e-4
-1.353, 4.211e-4
-1.354, 4.373e-4
-1.355, 4.554e-4
-1.356, 4.739e-4
-1.357, 4.925e-4
-1.358, 5.129e-4
-1.359, 5.328e-4
-1.360, 5.536e-4
-1.361, 5.752e-4
-1.362, 5.969e-4
-1.363, 6.197e-4
-1.364, 6.425e-4
-1.365, 6.668e-4
-1.366, 6.915e-4
-1.367, 7.168e-4
-1.368, 7.430e-4
-1.369, 7.696e-4
-1.370, 7.978e-4
-1.371, 8.265e-4
-1.372, 8.554e-4
-1.373, 8.853e-4
-1.374, 9.154e-4
-1.375, 9.468e-4
-1.376, 9.784e-4
-1.377, 1.011e-3
-1.378, 1.045e-3
-1.379, 1.080e-3
-1.380, 1.116e-3
-1.381, 1.152e-3
-1.382, 1.190e-3
-1.383, 1.228e-3
-1.384, 1.265e-3
-1.385, 1.305e-3
-1.386, 1.344e-3
-1.387, 1.383e-3
-1.388, 1.423e-3
-1.389, 1.463e-3
-1.390, 1.507e-3
-1.391, 1.550e-3
-1.392, 1.597e-3
-1.393, 1.643e-3
-1.394, 1.688e-3
-1.395, 1.737e-3
-1.396, 1.785e-3
-1.397, 1.832e-3
-1.398, 1.883e-3
-1.399, 1.933e-3
-1.400, 1.985e-3
-1.401, 2.036e-3
-1.402, 2.091e-3
-1.403, 2.145e-3
-1.404, 2.197e-3
-1.405, 2.253e-3
-1.406, 2.310e-3
-1.407, 2.366e-3
-1.408, 2.425e-3
-1.409, 2.481e-3
-1.410, 2.546e-3
-1.411, 2.605e-3
-1.412, 2.666e-3
-1.413, 2.729e-3
-1.414, 2.786e-3
-1.415, 2.851e-3
-1.416, 2.915e-3
-1.417, 2.976e-3
-1.418, 3.046e-3
-1.419, 3.107e-3
-1.420, 3.179e-3
-1.421, 3.249e-3
-1.422, 3.315e-3
-1.423, 3.387e-3
-1.424, 3.453e-3
-1.425, 3.527e-3
-1.426, 3.597e-3
-1.427, 3.668e-3
-1.428, 3.743e-3
-1.429, 3.813e-3
-1.430, 3.887e-3
-1.431, 3.957e-3
-1.432, 4.034e-3
-1.433, 4.113e-3
-1.434, 4.186e-3
-1.435, 4.268e-3
-1.436, 4.345e-3
-1.437, 4.426e-3
-1.438, 4.502e-3
-1.439, 4.582e-3
-1.440, 4.663e-3
-1.441, 4.746e-3
-1.442, 4.830e-3
-1.443, 4.913e-3
-1.444, 4.992e-3
-1.445, 5.075e-3
-1.446, 5.152e-3
-1.447, 5.237e-3
-1.448, 5.324e-3
-1.449, 5.407e-3
-1.450, 5.487e-3
-1.451, 5.581e-3
-1.452, 5.670e-3
-1.453, 5.759e-3
-1.454, 5.839e-3
-1.455, 5.926e-3
-1.456, 6.014e-3
-1.457, 6.102e-3
-1.458, 6.183e-3
-1.459, 6.267e-3
-1.460, 6.342e-3
-1.461, 6.439e-3
-1.462, 6.534e-3
-1.463, 6.626e-3
-1.464, 6.718e-3
-1.465, 6.799e-3
-1.466, 6.882e-3
-1.467, 6.974e-3
-1.468, 7.070e-3
-1.469, 7.167e-3
-1.470, 7.246e-3
-1.471, 7.347e-3
-1.472, 7.436e-3
-1.473, 7.523e-3
-1.474, 7.630e-3
-1.475, 7.731e-3
-1.476, 7.828e-3
-1.477, 7.928e-3
-1.478, 8.019e-3
-1.479, 8.091e-3
-1.480, 8.179e-3
-1.481, 8.276e-3
-1.482, 8.353e-3
-1.483, 8.444e-3
-1.484, 8.547e-3
-1.485, 8.635e-3
-1.486, 8.731e-3
-1.487, 8.836e-3
-1.488, 8.944e-3
-1.489, 9.039e-3
-1.490, 9.136e-3
-1.491, 9.233e-3
-1.492, 9.336e-3
-1.493, 9.485e-3
-1.494, 9.553e-3
-1.495, 9.661e-3
-1.496, 9.710e-3
-1.497, 9.770e-3
-1.498, 9.851e-3
-1.499, 9.937e-3
-1.500, 9.943e-3
-1.499, 9.856e-3
-1.498, 9.755e-3
-1.497, 9.684e-3
-1.496, 9.563e-3
-1.495, 9.467e-3
-1.494, 9.360e-3
-1.493, 9.249e-3
-1.492, 9.147e-3
-1.491, 9.038e-3
-1.490, 8.934e-3
-1.489, 8.833e-3
-1.488, 8.725e-3
-1.487, 8.623e-3
-1.486, 8.543e-3
-1.485, 8.447e-3
-1.484, 8.331e-3
-1.483, 8.228e-3
-1.482, 8.134e-3
-1.481, 8.030e-3
-1.480, 7.912e-3
-1.479, 7.802e-3
-1.478, 7.716e-3
-1.477, 7.591e-3
-1.476, 7.501e-3
-1.475, 7.410e-3
-1.474, 7.309e-3
-1.473, 7.230e-3
-1.472, 7.128e-3
-1.471, 6.997e-3
-1.470, 6.898e-3
-1.469, 6.793e-3
-1.468, 6.699e-3
-1.467, 6.609e-3
-1.466, 6.515e-3
-1.465, 6.406e-3
-1.464, 6.303e-3
-1.463, 6.207e-3
-1.462, 6.114e-3
-1.461, 6.023e-3
-1.460, 5.943e-3
-1.459, 5.858e-3
-1.458, 5.766e-3
-1.457, 5.694e-3
-1.456, 5.622e-3
-1.455, 5.536e-3
-1.454, 5.461e-3
-1.453, 5.371e-3
-1.452, 5.297e-3
-1.451, 5.223e-3
-1.450, 5.150e-3
-1.449, 5.064e-3
-1.448, 4.982e-3
-1.447, 4.913e-3
-1.446, 4.842e-3
-1.445, 4.775e-3
-1.444, 4.708e-3
-1.443, 4.626e-3
-1.442, 4.563e-3
-1.441, 4.476e-3
-1.440, 4.392e-3
-1.439, 4.316e-3
-1.438, 4.238e-3
-1.437, 4.168e-3
-1.436, 4.104e-3
-1.435, 4.039e-3
-1.434, 3.971e-3
-1.433, 3.900e-3
-1.432, 3.832e-3
-1.431, 3.772e-3
-1.430, 3.711e-3
-1.429, 3.643e-3
-1.428, 3.570e-3
-1.427, 3.504e-3
-1.426, 3.436e-3
-1.425, 3.374e-3
-1.424, 3.314e-3
-1.423, 3.250e-3
-1.422, 3.187e-3
-1.421, 3.126e-3
-1.420, 3.069e-3
-1.419, 3.007e-3
-1.418, 2.945e-3
-1.417, 2.889e-3
-1.416, 2.827e-3
-1.415, 2.774e-3
-1.414, 2.719e-3
-1.413, 2.653e-3
-1.412, 2.594e-3
-1.411, 2.542e-3
-1.410, 2.489e-3
-1.409, 2.436e-3
-1.408, 2.386e-3
-1.407, 2.337e-3
-1.406, 2.287e-3
-1.405, 2.239e-3
-1.404, 2.190e-3
-1.403, 2.146e-3
-1.402, 2.101e-3
-1.401, 2.054e-3
-1.400, 2.011e-3
-1.399, 1.967e-3
-1.398, 1.923e-3
-1.397, 1.879e-3
-1.396, 1.836e-3
-1.395, 1.797e-3
-1.394, 1.754e-3
-1.393, 1.712e-3
-1.392, 1.671e-3
-1.391, 1.628e-3
-1.390, 1.589e-3
-1.389, 1.550e-3
-1.388, 1.511e-3
-1.387, 1.475e-3
-1.386, 1.438e-3
-1.385, 1.403e-3
-1.384, 1.368e-3
-1.383, 1.334e-3
-1.382, 1.304e-3
-1.381, 1.271e-3
-1.380, 1.241e-3
-1.379, 1.211e-3
-1.378, 1.180e-3
-1.377, 1.148e-3
-1.376, 1.114e-3
-1.375, 1.084e-3
-1.374, 1.054e-3
-1.373, 1.026e-3
-1.372, 9.985e-4
-1.371, 9.702e-4
-1.370, 9.441e-4
-1.369, 9.172e-4
-1.368, 8.925e-4
-1.367, 8.686e-4
-1.366, 8.442e-4
-1.365, 8.212e-4
-1.364, 7.979e-4
-1.363, 7.758e-4
-1.362, 7.551e-4
-1.361, 7.336e-4
-1.360, 7.143e-4
-1.359, 6.935e-4
-1.358, 6.730e-4
-1.357, 6.528e-4
-1.356, 6.327e-4
-1.355, 6.145e-4
-1.354, 5.969e-4
-1.353, 5.796e-4
-1.352, 5.632e-4
-1.351, 5.464e-4
-1.350, 5.308e-4
-1.349, 5.153e-4
-1.348, 4.998e-4
-1.347, 4.854e-4
-1.346, 4.711e-4
-1.345, 4.567e-4
-1.344, 4.427e-4
-1.343, 4.292e-4
-1.342, 4.167e-4
-1.341, 4.041e-4
-1.340, 3.919e-4
-1.339, 3.800e-4
-1.338, 3.678e-4
-1.337, 3.565e-4
-1.336, 3.450e-4
-1.335, 3.338e-4
-1.334, 3.231e-4
-1.333, 3.124e-4
-1.332, 3.028e-4
-1.331, 2.930e-4
-1.330, 2.840e-4
-1.329, 2.753e-4
-1.328, 2.666e-4
-1.327, 2.584e-4
-1.326, 2.500e-4
-1.325, 2.422e-4
-1.324, 2.344e-4
-1.323, 2.265e-4
-1.322, 2.194e-4
-1.321, 2.123e-4
-1.320, 2.053e-4
-1.319, 1.988e-4
-1.318, 1.922e-4
-1.317, 1.866e-4
-1.316, 1.803e-4
-1.315, 1.744e-4
-1.314, 1.692e-4
-1.313, 1.635e-4
-1.312, 1.587e-4
-1.311, 1.534e-4
-1.310, 1.485e-4
-1.309, 1.441e-4
-1.308, 1.391e-4
-1.307, 1.348e-4
-1.306, 1.304e-4
-1.305, 1.259e-4
-1.304, 1.222e-4
-1.303, 1.179e-4
-1.302, 1.143e-4
-1.301, 1.106e-4
-1.300, 1.070e-4
-1.299, 1.038e-4
-1.298, 1.003e-4
-1.297, 9.724e-5
-1.296, 9.417e-5
-1.295, 9.089e-5
-1.294, 8.813e-5
-1.293, 8.508e-5
-1.292, 8.244e-5
-1.291, 7.945e-5
-1.290, 7.663e-5
-1.289, 7.428e-5
-1.288, 7.190e-5
-1.287, 6.990e-5
-1.286, 6.765e-5
-1.285, 6.557e-5
-1.284, 6.370e-5
-1.283, 6.116e-5
-1.282, 5.951e-5
-1.281, 5.752e-5
-1.280, 5.544e-5
-1.279, 5.392e-5
-1.278, 5.186e-5
-1.277, 5.059e-5
-1.276, 4.889e-5
-1.275, 4.712e-5
-1.274, 4.572e-5
-1.273, 4.382e-5
-1.272, 4.266e-5
-1.271, 4.113e-5
-1.270, 3.941e-5
-1.269, 3.843e-5
-1.268, 3.670e-5
-1.267, 3.564e-5
-1.266, 3.440e-5
-1.265, 3.288e-5
-1.264, 3.210e-5
-1.263, 3.059e-5
-1.262, 2.980e-5
-1.261, 2.873e-5
-1.260, 2.745e-5
-1.259, 2.669e-5
-1.258, 2.541e-5
-1.257, 2.450e-5
-1.256, 2.366e-5
-1.255, 2.262e-5
-1.254, 2.181e-5
-1.253, 2.078e-5
-1.252, 2.051e-5
-1.251, 1.948e-5
-1.250, 1.885e-5
-1.249, 1.829e-5
-1.248, 1.730e-5
-1.247, 1.689e-5
-1.246, 1.613e-5
-1.245, 1.527e-5
-1.244, 1.497e-5
-1.243, 1.384e-5
-1.242, 1.350e-5
-1.241, 1.283e-5
-1.240, 1.231e-5
-1.239, 1.204e-5
-1.238, 1.106e-5
-1.237, 1.092e-5
-1.236, 1.053e-5
-1.235, 9.834e-6
-1.234, 9.696e-6
-1.233, 8.828e-6
-1.232, 8.818e-6
-1.231, 8.197e-6
-1.230, 7.565e-6
-1.229, 7.309e-6
-1.228, 6.717e-6
-1.227, 6.450e-6
-1.226, 6.233e-6
-1.225, 5.395e-6
-1.224, 5.572e-6
-1.223, 4.882e-6
-1.222, 4.734e-6
-1.221, 4.359e-6
-1.220, 3.944e-6
-1.219, 3.836e-6
-1.218, 3.274e-6
-1.217, 3.204e-6
-1.216, 2.968e-6
-1.215, 2.445e-6
-1.214, 2.484e-6
-1.213, 1.942e-6
-1.212, 2.090e-6
-1.211, 1.616e-6
-1.210, 1.419e-6
-1.209, 1.290e-6
-1.208, 7.774e-7
-1.207, 8.662e-7
-1.206, 4.617e-7
-1.205, 2.762e-8
-1.204, 2.644e-7
-1.203, -3.966e-7
-1.202, -1.796e-7
-1.201, -4.755e-7
-1.200, -9.688e-7
-1.199, -9.195e-7
-1.198, -1.492e-6
-1.197, -1.176e-6
-1.196, -1.482e-6
-1.195, -1.886e-6
-1.194, -1.521e-6
-1.193, -2.468e-6
-1.192, -1.955e-6
-1.191, -2.311e-6
-1.190, -2.952e-6
-1.189, -2.597e-6
-1.188, -3.317e-6
-1.187, -3.129e-6
-1.186, -3.218e-6
-1.185, -3.514e-6
-1.184, -3.189e-6
-1.183, -3.830e-6
-1.182, -3.524e-6
-1.181, -3.761e-6
-1.180, -4.116e-6
-1.179, -3.948e-6
-1.178, -4.747e-6
-1.177, -4.471e-6
-1.176, -4.639e-6
-1.175, -4.994e-6
-1.174, -4.728e-6
-1.173, -5.024e-6
-1.172, -4.619e-6
-1.171, -5.053e-6
-1.170, -5.162e-6
-1.169, -5.014e-6
-1.168, -5.557e-6
-1.167, -5.103e-6
-1.166, -5.487e-6
-1.165, -5.754e-6
-1.164, -5.507e-6
-1.163, -6.375e-6
-1.162, -5.981e-6
-1.161, -6.395e-6
-1.160, -6.652e-6
-1.159, -6.395e-6
-1.158, -6.987e-6
-1.157, -6.464e-6
-1.156, -6.839e-6
-1.155, -7.175e-6
-1.154, -6.681e-6
-1.153, -7.352e-6
-1.152, -6.849e-6
-1.151, -7.234e-6
-1.150, -7.431e-6
-1.149, -7.017e-6
-1.148, -7.766e-6
-1.147, -7.431e-6
-1.146, -7.658e-6
-1.145, -8.053e-6
-1.144, -7.727e-6
-1.143, -8.250e-6
-1.142, -7.964e-6
-1.141, -8.043e-6
-1.140, -8.289e-6
-1.139, -8.280e-6
-1.138, -8.654e-6
-1.137, -8.260e-6
-1.136, -8.280e-6
-1.135, -8.694e-6
-1.134, -8.339e-6
-1.133, -9.079e-6
-1.132, -8.704e-6
-1.131, -8.941e-6
-1.130, -9.069e-6
-1.129, -8.654e-6
-1.128, -9.237e-6
-1.127, -8.605e-6
-1.126, -8.891e-6
-1.125, -9.079e-6
-1.124, -8.753e-6
-1.123, -9.611e-6
-1.122, -9.059e-6
-1.121, -9.473e-6
-1.120, -9.779e-6
-1.119, -9.335e-6
-1.118, -9.996e-6
-1.117, -9.463e-6
-1.116, -9.779e-6
-1.115, -1.006e-5
-1.114, -9.700e-6
-1.113, -1.034e-5
-1.112, -9.631e-6
-1.111, -9.957e-6
-1.110, -1.049e-5
-1.109, -1.003e-5
-1.108, -1.058e-5
-1.107, -1.026e-5
-1.106, -1.035e-5
-1.105, -1.082e-5
-1.104, -1.041e-5
-1.103, -1.120e-5
-1.102, -1.064e-5
-1.101, -1.097e-5
-1.100, -1.157e-5
-1.099, -1.094e-5
-1.098, -1.111e-5
-1.097, -1.052e-5
-1.096, -1.072e-5
-1.095, -1.085e-5
-1.094, -1.058e-5
-1.093, -1.097e-5
-1.092, -1.046e-5
-1.091, -1.075e-5
-1.090, -1.106e-5
-1.089, -1.065e-5
-1.088, -1.130e-5
-1.087, -1.098e-5
-1.086, -1.120e-5
-1.085, -1.123e-5
-1.084, -1.092e-5
-1.083, -1.153e-5
-1.082, -1.112e-5
-1.081, -1.143e-5
-1.080, -1.170e-5
-1.079, -1.125e-5
-1.078, -1.200e-5
-1.077, -1.137e-5
-1.076, -1.161e-5
-1.075, -1.203e-5
-1.074, -1.140e-5
-1.073, -1.199e-5
-1.072, -1.160e-5
-1.071, -1.172e-5
-1.070, -1.201e-5
-1.069, -1.147e-5
-1.068, -1.214e-5
-1.067, -1.177e-5
-1.066, -1.189e-5
-1.065, -1.218e-5
-1.064, -1.161e-5
-1.063, -1.228e-5
-1.062, -1.198e-5
-1.061, -1.205e-5
-1.060, -1.235e-5
-1.059, -1.212e-5
-1.058, -1.249e-5
-1.057, -1.218e-5
-1.056, -1.229e-5
-1.055, -1.247e-5
-1.054, -1.213e-5
-1.053, -1.273e-5
-1.052, -1.202e-5
-1.051, -1.238e-5
-1.050, -1.256e-5
-1.049, -1.237e-5
-1.048, -1.286e-5
-1.047, -1.237e-5
-1.046, -1.268e-5
-1.045, -1.275e-5
-1.044, -1.225e-5
-1.043, -1.292e-5
-1.042, -1.223e-5
-1.041, -1.231e-5
-1.040, -1.250e-5
-1.039, -1.213e-5
-1.038, -1.293e-5
-1.037, -1.241e-5
-1.036, -1.281e-5
-1.035, -1.337e-5
-1.034, -1.297e-5
-1.033, -1.353e-5
-1.032, -1.295e-5
-1.031, -1.320e-5
-1.030, -1.334e-5
-1.029, -1.292e-5
-1.028, -1.359e-5
-1.027, -1.299e-5
-1.026, -1.322e-5
-1.025, -1.351e-5
-1.024, -1.326e-5
-1.023, -1.373e-5
-1.022, -1.332e-5
-1.021, -1.344e-5
-1.020, -1.369e-5
-1.019, -1.325e-5
-1.018, -1.389e-5
-1.017, -1.348e-5
-1.016, -1.362e-5
-1.015, -1.403e-5
-1.014, -1.376e-5
-1.013, -1.418e-5
-1.012, -1.378e-5
-1.011, -1.401e-5
-1.010, -1.427e-5
-1.009, -1.376e-5
-1.008, -1.433e-5
-1.007, -1.391e-5
-1.006, -1.432e-5
-1.005, -1.446e-5
-1.004, -1.394e-5
-1.003, -1.473e-5
-1.002, -1.427e-5
-1.001, -1.453e-5
