Potential V vs RHE, Current mA cm-2
0.013299999999999867,-0.26384365742482935
0.012299999999999978,-0.9181476336124089
0.011299999999999866,-1.2234423321232837
0.010299999999999976,-1.3543031273607997
0.009299999999999864,-1.4854468648582886
0.008299999999999974,-1.5293029151541047
0.007299999999999862,-1.6156003044458718
0.006299999999999972,-1.6594563547416883
0.00529999999999986,-1.7033124050375041
0.0042999999999999705,-1.7471684553333202
0.0032999999999998586,-1.7910245056291363
0.0022999999999999687,-1.8773218949209036
0.0012999999999998568,-1.92117794521672
0.00029999999999996696,-1.9650339955125358
-0.000700000000000145,-2.052746096104168
-0.0017000000000000348,-2.095187435100119
-0.0027000000000001467,-2.1390434853959355
-0.0037000000000000366,-2.1828995356917518
-0.0047000000000001485,-2.226755585987568
-0.005700000000000038,-2.226755585987568
-0.00670000000000015,-2.2706116362833835
-0.00770000000000004,-2.2706116362833835
-0.008700000000000152,-2.3144676865791998
-0.009700000000000042,-2.3569090255751513
-0.010700000000000154,-2.4007650758709675
-0.011700000000000044,-2.4446211261667834
-0.012700000000000156,-2.4884771764625997
-0.013700000000000045,-2.532333226758415
-0.014700000000000157,-2.618630616050183
-0.015700000000000047,-2.662486666345999
-0.01670000000000016,-2.706342716641815
-0.01770000000000005,-2.7501987669376318
-0.01870000000000016,-2.7501987669376318
-0.01970000000000005,-2.794054817233447
-0.020700000000000163,-2.8379108675292635
-0.021700000000000053,-2.8379108675292635
-0.022700000000000164,-2.8803522065252145
-0.023700000000000054,-2.924208256821031
-0.024700000000000166,-2.968064307116847
-0.025700000000000056,-3.055776407708479
-0.026700000000000168,-3.0996324580042955
-0.027700000000000058,-3.1859298472960624
-0.02870000000000017,-3.2297858975918787
-0.02970000000000006,-3.273641947887695
-0.03070000000000017,-3.317497998183511
-0.03170000000000006,-3.361354048479327
-0.03270000000000017,-3.403795387475278
-0.03370000000000006,-3.447651437771094
-0.034700000000000175,-3.4915074880669104
-0.035700000000000065,-3.5353635383627267
-0.03670000000000018,-3.579219588658543
-0.03770000000000007,-3.623075638954359
-0.03870000000000018,-3.7093730282461257
-0.03970000000000007,-3.7532290785419424
-0.04070000000000018,-3.840941179133574
-0.04170000000000007,-3.884797229429391
-0.04270000000000018,-3.971094618721158
-0.04370000000000007,-4.014950669016974
-0.044700000000000184,-4.0588067193127895
-0.045700000000000074,-4.102662769608606
-0.046700000000000186,-4.146518819904423
-0.047700000000000076,-4.1889601589003735
-0.04870000000000019,-4.23281620919619
-0.04970000000000008,-4.276672259492005
-0.05070000000000019,-4.3205283097878215
-0.05170000000000008,-4.406825699079589
-0.05270000000000019,-4.450681749375406
-0.05370000000000008,-4.538393849967037
-0.05470000000000019,-4.626105950558669
-0.05570000000000008,-4.668547289554621
-0.056700000000000195,-4.756259390146253
-0.057700000000000085,-4.800115440442069
-0.058700000000000196,-4.843971490737885
-0.059700000000000086,-4.887827541033701
-0.0607000000000002,-4.9302688800296535
-0.06170000000000009,-4.974124930325469
-0.0627000000000002,-5.017980980621284
-0.06370000000000009,-5.0618370309171015
-0.0647000000000002,-5.105693081212917
-0.06570000000000009,-5.191990470504685
-0.0667000000000002,-5.279702571096316
-0.0677000000000001,-5.323558621392133
-0.0687000000000002,-5.411270721983764
-0.0697000000000001,-5.411270721983764
-0.07070000000000021,-5.497568111275533
-0.0717000000000001,-5.5414241615713475
-0.07270000000000021,-5.585280211867165
-0.0737000000000001,-5.629136262162981
-0.07470000000000021,-5.629136262162981
-0.0757000000000001,-5.672992312458796
-0.07670000000000021,-5.715433651454749
-0.0777000000000001,-5.759289701750564
-0.07870000000000021,-5.847001802342197
-0.0797000000000001,-5.890857852638012
-0.08070000000000022,-5.9347139029338285
-0.0817000000000001,-5.977155241929781
-0.08270000000000022,-6.021011292225596
-0.08370000000000011,-6.064867342521412
-0.08470000000000022,-6.108723392817228
-0.08570000000000011,-6.108723392817228
-0.08670000000000022,-6.152579443113044
-0.08770000000000011,-6.152579443113044
-0.08870000000000022,-6.152579443113044
-0.08970000000000011,-6.196435493408861
-0.09070000000000022,-6.238876832404812
-0.09170000000000011,-6.282732882700628
-0.09270000000000023,-6.282732882700628
-0.09370000000000012,-6.326588932996443
-0.09470000000000023,-6.414301033588076
-0.09570000000000012,-6.458157083883892
-0.09670000000000023,-6.458157083883892
-0.09770000000000012,-6.500598422879844
-0.09870000000000023,-6.500598422879844
-0.09970000000000012,-6.54445447317566
-0.10070000000000023,-6.54445447317566
-0.10170000000000012,-6.54445447317566
-0.10270000000000024,-6.54445447317566
-0.10370000000000013,-6.588310523471475
-0.10470000000000024,-6.588310523471475
-0.10570000000000013,-6.632166573767292
-0.10670000000000024,-6.632166573767292
-0.10770000000000013,-6.6760226240631075
-0.10870000000000024,-6.6760226240631075
-0.10970000000000013,-6.719878674358924
-0.11070000000000024,-6.762320013354876
-0.11170000000000013,-6.762320013354876
-0.11270000000000002,-6.762320013354876
-0.11370000000000013,-6.762320013354876
-0.11470000000000002,-6.719878674358924
-0.11570000000000014,-6.719878674358924
-0.11670000000000003,-6.719878674358924
-0.11770000000000014,-6.719878674358924
-0.11870000000000003,-6.762320013354876
-0.11970000000000014,-6.762320013354876
-0.12070000000000003,-6.762320013354876
-0.12170000000000014,-6.806176063650692
-0.12270000000000003,-6.806176063650692
-0.12370000000000014,-6.850032113946507
-0.12470000000000003,-6.850032113946507
-0.12570000000000014,-6.850032113946507
-0.12670000000000003,-6.806176063650692
-0.12770000000000015,-6.806176063650692
-0.12870000000000004,-6.806176063650692
-0.12970000000000015,-6.762320013354876
-0.13070000000000004,-6.762320013354876
-0.13170000000000015,-6.762320013354876
-0.13270000000000004,-6.762320013354876
-0.13370000000000015,-6.762320013354876
-0.13470000000000004,-6.806176063650692
-0.13570000000000015,-6.806176063650692
-0.13670000000000004,-6.806176063650692
-0.13770000000000016,-6.806176063650692
-0.13870000000000005,-6.762320013354876
-0.13970000000000016,-6.719878674358924
-0.14070000000000005,-6.6760226240631075
-0.14170000000000016,-6.6760226240631075
-0.14270000000000005,-6.6760226240631075
-0.14370000000000016,-6.588310523471475
-0.14470000000000005,-6.588310523471475
-0.14570000000000016,-6.588310523471475
-0.14670000000000005,-6.588310523471475
-0.14770000000000016,-6.632166573767292
-0.14870000000000005,-6.632166573767292
-0.14970000000000017,-6.632166573767292
-0.15070000000000006,-6.632166573767292
-0.15170000000000017,-6.588310523471475
-0.15270000000000006,-6.588310523471475
-0.15370000000000017,-6.500598422879844
-0.15470000000000006,-6.500598422879844
-0.15570000000000017,-6.458157083883892
-0.15670000000000006,-6.414301033588076
-0.15770000000000017,-6.414301033588076
-0.15870000000000006,-6.37044498329226
-0.15970000000000018,-6.37044498329226
-0.16070000000000007,-6.37044498329226
-0.16170000000000018,-6.37044498329226
-0.16270000000000007,-6.326588932996443
-0.16370000000000018,-6.326588932996443
-0.16470000000000007,-6.282732882700628
-0.16570000000000018,-6.238876832404812
-0.16670000000000007,-6.196435493408861
-0.16770000000000018,-6.108723392817228
-0.16870000000000007,-6.108723392817228
-0.16970000000000018,-6.064867342521412
-0.17070000000000007,-6.021011292225596
-0.17170000000000019,-6.021011292225596
-0.17270000000000008,-6.021011292225596
-0.1737000000000002,-5.977155241929781
-0.17470000000000008,-5.977155241929781
-0.1757000000000002,-5.977155241929781
-0.17670000000000008,-5.977155241929781
-0.1777000000000002,-5.9347139029338285
-0.17870000000000008,-5.890857852638012
-0.1797000000000002,-5.847001802342197
-0.18070000000000008,-5.80314575204638
-0.1817000000000002,-5.80314575204638
-0.18270000000000008,-5.759289701750564
-0.1837000000000002,-5.715433651454749
-0.1847000000000001,-5.672992312458796
-0.1857000000000002,-5.672992312458796
-0.1867000000000001,-5.672992312458796
-0.1877000000000002,-5.672992312458796
-0.1887000000000001,-5.672992312458796
-0.1897000000000002,-5.629136262162981
-0.1907000000000001,-5.629136262162981
-0.1917000000000001,-5.5414241615713475
-0.19269999999999998,-5.5414241615713475
-0.1937000000000001,-5.497568111275533
-0.19469999999999998,-5.453712060979717
-0.1957000000000001,-5.411270721983764
-0.19669999999999999,-5.367414671687949
-0.1977000000000001,-5.367414671687949
-0.1987,-5.323558621392133
-0.1997000000000001,-5.323558621392133
-0.2007,-5.323558621392133
-0.2017000000000001,-5.323558621392133
-0.2027,-5.279702571096316
-0.2037000000000001,-5.235846520800501
-0.2047,-5.191990470504685
-0.2057000000000001,-5.149549131508733
-0.2067,-5.149549131508733
-0.2077000000000001,-5.105693081212917
-0.2087,-5.0618370309171015
-0.2097000000000001,-5.017980980621284
-0.2107,-4.974124930325469
-0.2117000000000001,-4.974124930325469
-0.2127,-4.974124930325469
-0.2137000000000001,-4.9302688800296535
-0.2147,-4.9302688800296535
-0.2157000000000001,-4.974124930325469
-0.2167,-4.9302688800296535
-0.21770000000000012,-4.887827541033701
-0.2187,-4.843971490737885
-0.21970000000000012,-4.800115440442069
-0.2207,-4.756259390146253
-0.22170000000000012,-4.756259390146253
-0.2227,-4.712403339850438
-0.22370000000000012,-4.668547289554621
-0.2247,-4.668547289554621
-0.22570000000000012,-4.626105950558669
-0.2267,-4.626105950558669
-0.22770000000000012,-4.626105950558669
-0.22870000000000001,-4.626105950558669
-0.22970000000000013,-4.582249900262854
-0.23070000000000002,-4.582249900262854
-0.23170000000000013,-4.538393849967037
-0.23270000000000002,-4.494537799671222
-0.23370000000000013,-4.450681749375406
-0.23470000000000002,-4.450681749375406
-0.23570000000000013,-4.406825699079589
-0.23670000000000002,-4.406825699079589
-0.2376999999999999,-4.3205283097878215
-0.23870000000000002,-4.364384360083638
-0.2396999999999999,-4.364384360083638
-0.24070000000000003,-4.3205283097878215
-0.24169999999999991,-4.364384360083638
-0.24270000000000003,-4.3205283097878215
-0.24369999999999992,-4.3205283097878215
-0.24470000000000003,-4.276672259492005
-0.24569999999999992,-4.276672259492005
-0.24670000000000003,-4.23281620919619
-0.24769999999999992,-4.1889601589003735
-0.24870000000000003,-4.146518819904423
-0.24969999999999992,-4.146518819904423
-0.25070000000000003,-4.102662769608606
-0.2516999999999999,-4.146518819904423
-0.25270000000000004,-4.102662769608606
-0.2536999999999999,-4.102662769608606
-0.25470000000000004,-4.146518819904423
-0.2556999999999999,-4.102662769608606
-0.25670000000000004,-4.0588067193127895
-0.25769999999999993,-4.0588067193127895
-0.25870000000000004,-4.014950669016974
-0.25969999999999993,-4.014950669016974
-0.26070000000000004,-3.971094618721158
-0.26169999999999993,-3.927238568425342
-0.26270000000000004,-3.927238568425342
-0.26369999999999993,-3.884797229429391
-0.26470000000000005,-3.840941179133574
-0.26569999999999994,-3.884797229429391
-0.26670000000000005,-3.884797229429391
-0.26769999999999994,-3.884797229429391
-0.26870000000000005,-3.884797229429391
-0.26969999999999994,-3.840941179133574
-0.27070000000000005,-3.840941179133574
-0.27169999999999994,-3.7970851288377587
-0.27270000000000005,-3.7970851288377587
-0.27369999999999994,-3.7532290785419424
-0.27470000000000006,-3.7532290785419424
-0.27569999999999995,-3.7093730282461257
-0.27670000000000006,-3.7093730282461257
-0.27769999999999995,-3.7093730282461257
-0.27870000000000006,-3.7093730282461257
-0.27969999999999995,-3.6655169779503103
-0.28070000000000006,-3.6655169779503103
-0.28169999999999995,-3.7093730282461257
-0.28270000000000006,-3.7093730282461257
-0.28369999999999995,-3.6655169779503103
-0.28470000000000006,-3.6655169779503103
-0.28569999999999995,-3.623075638954359
-0.28670000000000007,-3.623075638954359
-0.28769999999999996,-3.579219588658543
-0.28870000000000007,-3.579219588658543
-0.28969999999999996,-3.579219588658543
-0.29070000000000007,-3.579219588658543
-0.29169999999999996,-3.579219588658543
-0.29270000000000007,-3.579219588658543
-0.29369999999999996,-3.579219588658543
-0.2947000000000001,-3.623075638954359
-0.29569999999999996,-3.623075638954359
-0.2967000000000001,-3.623075638954359
-0.29769999999999996,-3.623075638954359
-0.2987000000000001,-3.623075638954359
-0.29969999999999997,-3.623075638954359
-0.3007000000000001,-3.623075638954359
-0.30169999999999997,-3.579219588658543
-0.3027000000000001,-3.623075638954359
-0.30369999999999997,-3.623075638954359
-0.3047000000000001,-3.623075638954359
-0.30569999999999997,-3.6655169779503103
-0.3067000000000001,-3.6655169779503103
-0.3077,-3.7093730282461257
-0.3087000000000001,-3.7093730282461257
-0.3097,-3.7093730282461257
-0.3107000000000001,-3.7532290785419424
-0.3117,-3.7532290785419424
-0.3127000000000001,-3.7532290785419424
-0.3137,-3.7532290785419424
-0.3147000000000001,-3.7532290785419424
-0.3157,-3.7970851288377587
-0.3167000000000001,-3.7970851288377587
-0.3177,-3.840941179133574
-0.3187000000000001,-3.840941179133574
-0.3197,-3.884797229429391
-0.3207000000000001,-3.927238568425342
-0.3217,-3.971094618721158
-0.3227000000000001,-3.971094618721158
-0.3237,-4.014950669016974
-0.3247000000000001,-4.0588067193127895
-0.3257,-4.0588067193127895
-0.3267000000000001,-4.0588067193127895
-0.3277,-4.102662769608606
-0.3287000000000001,-4.146518819904423
-0.3297,-4.1889601589003735
-0.3307000000000001,-4.23281620919619
-0.3317,-4.3205283097878215
-0.3327000000000001,-4.364384360083638
-0.3337,-4.450681749375406
-0.3347000000000001,-4.494537799671222
-0.3357,-4.582249900262854
-0.3367000000000001,-4.626105950558669
-0.3377,-4.712403339850438
-0.3387000000000001,-4.756259390146253
-0.3397,-4.800115440442069
-0.3407000000000001,-4.843971490737885
-0.3417,-4.9302688800296535
-0.3427000000000001,-4.974124930325469
-0.3437,-5.0618370309171015
-0.3447000000000001,-5.149549131508733
-0.3457,-5.279702571096316
-0.3467000000000001,-5.367414671687949
-0.3477,-5.453712060979717
-0.3487000000000001,-5.585280211867165
-0.3497,-5.672992312458796
-0.3507000000000001,-5.80314575204638
-0.3517,-5.890857852638012
-0.3527000000000001,-6.021011292225596
-0.3537,-6.108723392817228
-0.3547000000000001,-6.238876832404812
-0.3557,-6.37044498329226
-0.35670000000000013,-6.54445447317566
-0.3577,-6.6760226240631075
-0.35870000000000013,-6.850032113946507
-0.3597,-7.024041603829907
-0.36070000000000013,-7.243321855308987
-0.3617,-7.461187395488204
-0.3626999999999999,-7.679052935667419
-0.3637,-7.896918475846635
-0.3646999999999999,-8.11478401602585
-0.3657,-8.332649556205066
-0.3666999999999999,-8.55051509638428
-0.3677,-8.812236686859313
-0.3686999999999999,-9.073958277334345
-0.36970000000000003,-9.335679867809377
-0.3706999999999999,-9.641257508580225
-0.37170000000000003,-9.946835149351072
-0.3726999999999999,-10.25241279012192
-0.37370000000000003,-10.644287820184536
-0.3746999999999999,-10.993721511251199
-0.37570000000000003,-11.343155202317865
-0.3766999999999999,-11.73503023238048
-0.37770000000000004,-12.170761312738911
-0.3786999999999999,-12.520195003805576
-0.37970000000000004,-12.955926084164007
-0.3806999999999999,-13.3930718758223
-0.38170000000000004,-13.872659006476551
-0.38269999999999993,-14.345172580631472
-0.38370000000000004,-14.826174422585586
-0.38469999999999993,-15.3920589425316
-0.38570000000000004,-15.972090575476265
-0.38669999999999993,-16.580416434418233
-0.38770000000000004,-17.231183632356142
-0.38869999999999993,-17.881950830294063
-0.38970000000000005,-18.589306480226583
-0.39069999999999994,-19.3249563561564
-0.39170000000000005,-20.06060623208622
-0.39269999999999994,-20.810403221014692
-0.39370000000000005,-21.58849443594046
-0.39469999999999994,-22.38073276386488
-0.39570000000000005,-23.2012653177866
-0.39669999999999994,-24.078386323702922
-0.39770000000000005,-24.997948668615198
-0.39869999999999994,-25.91751101352747
-0.39970000000000006,-26.86536758443705
-0.40069999999999995,-27.78492992934932
-0.40170000000000006,-28.789374952253496
-0.40269999999999995,-29.751378636161718
-0.40370000000000006,-30.7558236590659
-0.40469999999999995,-31.76026868197007
-0.40570000000000006,-32.764713704874254
-0.40669999999999995,-33.81160006677438
-0.40770000000000006,-34.85848642867451
-0.40869999999999995,-35.848784338580025
-0.40970000000000006,-36.95225915247476
-0.41069999999999995,-37.94255706238028
-0.41170000000000007,-39.046031876275016
-0.41269999999999996,-40.135359577171094
-0.41370000000000007,-41.267128617063115
-0.41469999999999996,-42.4413389959511
-0.41570000000000007,-43.61554937483908
-0.41669999999999996,-44.80390686672572
-0.41770000000000007,-46.062999923605595
-0.41869999999999996,-47.32209298048547
-0.4197000000000001,-48.59533315036401
-0.42069999999999996,-49.89686754623985
-0.4217000000000001,-51.25499039411028
-0.42269999999999996,-52.55652478998611
-0.4237000000000001,-53.91464763785655
-0.42469999999999997,-55.25862337272834
-0.4257000000000001,-56.65918755959472
-0.42669999999999997,-58.05975174646111
-0.4277000000000001,-59.44616882032884
-0.42869999999999997,-60.889174346191176
-0.4297000000000001,-62.28973853305756
-0.43069999999999997,-63.732744058919906
-0.4317000000000001,-65.0767197937917
-0.4327,-66.47728398065809
-0.4337000000000001,-67.82125971552985
-0.4347,-69.1793825634003
-0.4357000000000001,-70.48091695927613
-0.4367,-71.83903980714656
-0.4377000000000001,-73.197162655017
-0.4387,-74.62602106788069
-0.4397000000000001,-76.02658525474708
-0.4407,-77.46959078060941
-0.4417000000000001,-78.91259630647174
-0.4427,-80.29901338033947
-0.4437000000000001,-81.69957756720586
-0.4447,-83.04355330207765
-0.4457000000000001,-84.35923481095215
-0.4467,-85.61832786783202
-0.4477000000000001,-86.89156803771054
-0.4487,-88.15066109459043
-0.4497000000000001,-89.42390126446898
-0.4507,-90.7254356603448
-0.4517000000000001,-91.98452871722468
-0.4527,-93.25776888710321
-0.4537000000000001,-94.55930328297906
-0.4547,-95.87498479185354
-0.4557000000000001,-97.09163650973747
-0.4567,-98.40731801861195
-0.4577000000000001,-99.66641107549184
-0.4587,-100.98209258436633
-0.4597000000000001,-102.28362698024215
-0.4607,-103.54272003712204
-0.4617000000000001,-104.90084288499246
-0.4627,-106.21652439386696
-0.4637000000000001,-107.56050012873874
-0.4647,-108.91862297660917
-0.4657000000000001,-110.26259871148096
-0.4667,-111.6207215593514
-0.4677000000000001,-112.92225595522721
-0.4687,-114.3228201420936
-0.4697000000000001,-115.68094298996405
-0.4707,-117.06736006383179
-0.4717000000000001,-118.42548291170223
-0.4727,-119.86848843756455
-0.4737000000000001,-121.2549055114323
-0.4747,-122.65546969829869
-0.4757000000000001,-124.05603388516508
-0.4767,-125.40000962003687
-0.4777000000000001,-126.75813246790726
-0.4787,-128.10210820277908
-0.4797000000000001,-129.3753483726576
-0.4807,-130.7193241075294
-0.48170000000000013,-132.03500561640385
-0.4827,-133.37898135127566
-0.48370000000000013,-134.73710419914607
-0.4847,-136.03863859502192
-0.48570000000000013,-137.3543201038964
-0.4867,-137.75043926785864
-0.48570000000000013,-136.562081775972
-0.4847,-135.387871397084
-0.48370000000000013,-134.17121967920008
-0.4827,-133.03945063930803
-0.48170000000000013,-131.89353448641737
-0.4807,-130.84664812451723
-0.4797000000000001,-129.8563502146117
-0.4787,-128.89434653070347
-0.4777000000000001,-127.97478418579122
-0.4767,-127.012780501883
-0.4757000000000001,-126.00833547897882
-0.4747,-125.00389045607463
-0.4737000000000001,-123.91456275517855
-0.4727,-122.82523505428249
-0.4717000000000001,-121.69346601439047
-0.4707,-120.51925563550247
-0.4697000000000001,-119.4299279346064
-0.4687,-118.29815889471436
-0.4677000000000001,-117.15224274182368
-0.4667,-116.02047370193165
-0.4657000000000001,-114.88870466203963
-0.4647,-113.71449428315165
-0.4637000000000001,-112.54028390426367
-0.4627,-111.35192641237703
