Aug. 10, 2024   13:25:24
Linear Sweep Voltammetry
File: c:/users/guazh/data/20240802_batch_500/2024-08-02-exp73\post-regen1-2024-08-10t13_22_12-lsvinphos\post-regen1_lsv_50mvs_efin_-2300mv.bin
Data Source:  Experiment
Instrument Model:  CHI760E
Header: LSV ran at 50 mVs with Efin at -2300mV
Note: 

Init E (V) = -0.6
Final E (V) = -2.3
Scan Rate (V/s) = 0.05
Sample Interval (V) = 0.001
Quiet Time (sec) = 2
Sensitivity (A/V) = 1e-4
Comp R (ohm) = 8.3

Results:

Channel 1:
Ep = -2.059V
ip = 6.435e-4A
Ah = 7.910e-4C

Potential/V, Current/A

-0.600, 1.611e-6
-0.601, 1.688e-6
-0.602, 1.725e-6
-0.603, 1.753e-6
-0.604, 1.778e-6
-0.605, 1.803e-6
-0.606, 1.825e-6
-0.607, 1.845e-6
-0.608, 1.866e-6
-0.609, 1.888e-6
-0.610, 1.910e-6
-0.611, 1.929e-6
-0.612, 1.947e-6
-0.613, 1.966e-6
-0.614, 1.988e-6
-0.615, 2.010e-6
-0.616, 2.030e-6
-0.617, 2.049e-6
-0.618, 2.069e-6
-0.619, 2.088e-6
-0.620, 2.111e-6
-0.621, 2.129e-6
-0.622, 2.147e-6
-0.623, 2.166e-6
-0.624, 2.186e-6
-0.625, 2.207e-6
-0.626, 2.226e-6
-0.627, 2.244e-6
-0.628, 2.263e-6
-0.629, 2.282e-6
-0.630, 2.305e-6
-0.631, 2.325e-6
-0.632, 2.346e-6
-0.633, 2.366e-6
-0.634, 2.386e-6
-0.635, 2.410e-6
-0.636, 2.430e-6
-0.637, 2.450e-6
-0.638, 2.470e-6
-0.639, 2.491e-6
-0.640, 2.515e-6
-0.641, 2.537e-6
-0.642, 2.557e-6
-0.643, 2.579e-6
-0.644, 2.602e-6
-0.645, 2.626e-6
-0.646, 2.648e-6
-0.647, 2.669e-6
-0.648, 2.692e-6
-0.649, 2.713e-6
-0.650, 2.737e-6
-0.651, 2.761e-6
-0.652, 2.782e-6
-0.653, 2.805e-6
-0.654, 2.829e-6
-0.655, 2.855e-6
-0.656, 2.879e-6
-0.657, 2.902e-6
-0.658, 2.925e-6
-0.659, 2.949e-6
-0.660, 2.975e-6
-0.661, 2.999e-6
-0.662, 3.023e-6
-0.663, 3.046e-6
-0.664, 3.071e-6
-0.665, 3.099e-6
-0.666, 3.127e-6
-0.667, 3.150e-6
-0.668, 3.175e-6
-0.669, 3.200e-6
-0.670, 3.228e-6
-0.671, 3.254e-6
-0.672, 3.278e-6
-0.673, 3.306e-6
-0.674, 3.331e-6
-0.675, 3.359e-6
-0.676, 3.387e-6
-0.677, 3.412e-6
-0.678, 3.440e-6
-0.679, 3.466e-6
-0.680, 3.496e-6
-0.681, 3.523e-6
-0.682, 3.549e-6
-0.683, 3.576e-6
-0.684, 3.605e-6
-0.685, 3.635e-6
-0.686, 3.664e-6
-0.687, 3.692e-6
-0.688, 3.720e-6
-0.689, 3.748e-6
-0.690, 3.778e-6
-0.691, 3.810e-6
-0.692, 3.838e-6
-0.693, 3.868e-6
-0.694, 3.897e-6
-0.695, 3.927e-6
-0.696, 3.957e-6
-0.697, 3.986e-6
-0.698, 4.015e-6
-0.699, 4.045e-6
-0.700, 4.075e-6
-0.701, 4.107e-6
-0.702, 4.136e-6
-0.703, 4.165e-6
-0.704, 4.195e-6
-0.705, 4.227e-6
-0.706, 4.257e-6
-0.707, 4.288e-6
-0.708, 4.319e-6
-0.709, 4.349e-6
-0.710, 4.384e-6
-0.711, 4.417e-6
-0.712, 4.448e-6
-0.713, 4.478e-6
-0.714, 4.511e-6
-0.715, 4.546e-6
-0.716, 4.581e-6
-0.717, 4.611e-6
-0.718, 4.644e-6
-0.719, 4.675e-6
-0.720, 4.708e-6
-0.721, 4.743e-6
-0.722, 4.775e-6
-0.723, 4.808e-6
-0.724, 4.840e-6
-0.725, 4.875e-6
-0.726, 4.909e-6
-0.727, 4.941e-6
-0.728, 4.973e-6
-0.729, 5.007e-6
-0.730, 5.044e-6
-0.731, 5.080e-6
-0.732, 5.111e-6
-0.733, 5.144e-6
-0.734, 5.177e-6
-0.735, 5.212e-6
-0.736, 5.248e-6
-0.737, 5.282e-6
-0.738, 5.313e-6
-0.739, 5.348e-6
-0.740, 5.384e-6
-0.741, 5.418e-6
-0.742, 5.451e-6
-0.743, 5.485e-6
-0.744, 5.519e-6
-0.745, 5.555e-6
-0.746, 5.591e-6
-0.747, 5.625e-6
-0.748, 5.657e-6
-0.749, 5.690e-6
-0.750, 5.726e-6
-0.751, 5.762e-6
-0.752, 5.797e-6
-0.753, 5.830e-6
-0.754, 5.862e-6
-0.755, 5.897e-6
-0.756, 5.929e-6
-0.757, 5.962e-6
-0.758, 5.995e-6
-0.759, 6.028e-6
-0.760, 6.062e-6
-0.761, 6.100e-6
-0.762, 6.132e-6
-0.763, 6.163e-6
-0.764, 6.193e-6
-0.765, 6.226e-6
-0.766, 6.260e-6
-0.767, 6.292e-6
-0.768, 6.327e-6
-0.769, 6.360e-6
-0.770, 6.393e-6
-0.771, 6.427e-6
-0.772, 6.458e-6
-0.773, 6.488e-6
-0.774, 6.521e-6
-0.775, 6.553e-6
-0.776, 6.587e-6
-0.777, 6.618e-6
-0.778, 6.649e-6
-0.779, 6.679e-6
-0.780, 6.710e-6
-0.781, 6.743e-6
-0.782, 6.774e-6
-0.783, 6.803e-6
-0.784, 6.832e-6
-0.785, 6.863e-6
-0.786, 6.893e-6
-0.787, 6.922e-6
-0.788, 6.950e-6
-0.789, 6.978e-6
-0.790, 7.007e-6
-0.791, 7.036e-6
-0.792, 7.064e-6
-0.793, 7.093e-6
-0.794, 7.121e-6
-0.795, 7.147e-6
-0.796, 7.177e-6
-0.797, 7.203e-6
-0.798, 7.229e-6
-0.799, 7.252e-6
-0.800, 7.279e-6
-0.801, 7.307e-6
-0.802, 7.332e-6
-0.803, 7.355e-6
-0.804, 7.378e-6
-0.805, 7.402e-6
-0.806, 7.429e-6
-0.807, 7.452e-6
-0.808, 7.475e-6
-0.809, 7.496e-6
-0.810, 7.520e-6
-0.811, 7.543e-6
-0.812, 7.566e-6
-0.813, 7.586e-6
-0.814, 7.606e-6
-0.815, 7.628e-6
-0.816, 7.652e-6
-0.817, 7.671e-6
-0.818, 7.688e-6
-0.819, 7.711e-6
-0.820, 7.733e-6
-0.821, 7.752e-6
-0.822, 7.772e-6
-0.823, 7.787e-6
-0.824, 7.804e-6
-0.825, 7.821e-6
-0.826, 7.841e-6
-0.827, 7.857e-6
-0.828, 7.872e-6
-0.829, 7.887e-6
-0.830, 7.903e-6
-0.831, 7.918e-6
-0.832, 7.935e-6
-0.833, 7.948e-6
-0.834, 7.960e-6
-0.835, 7.976e-6
-0.836, 7.990e-6
-0.837, 8.004e-6
-0.838, 8.015e-6
-0.839, 8.025e-6
-0.840, 8.037e-6
-0.841, 8.050e-6
-0.842, 8.061e-6
-0.843, 8.072e-6
-0.844, 8.080e-6
-0.845, 8.091e-6
-0.846, 8.103e-6
-0.847, 8.113e-6
-0.848, 8.119e-6
-0.849, 8.127e-6
-0.850, 8.134e-6
-0.851, 8.146e-6
-0.852, 8.155e-6
-0.853, 8.159e-6
-0.854, 8.166e-6
-0.855, 8.173e-6
-0.856, 8.182e-6
-0.857, 8.188e-6
-0.858, 8.193e-6
-0.859, 8.199e-6
-0.860, 8.204e-6
-0.861, 8.212e-6
-0.862, 8.217e-6
-0.863, 8.220e-6
-0.864, 8.225e-6
-0.865, 8.229e-6
-0.866, 8.232e-6
-0.867, 8.238e-6
-0.868, 8.239e-6
-0.869, 8.241e-6
-0.870, 8.244e-6
-0.871, 8.250e-6
-0.872, 8.252e-6
-0.873, 8.252e-6
-0.874, 8.253e-6
-0.875, 8.254e-6
-0.876, 8.257e-6
-0.877, 8.259e-6
-0.878, 8.257e-6
-0.879, 8.257e-6
-0.880, 8.258e-6
-0.881, 8.260e-6
-0.882, 8.259e-6
-0.883, 8.260e-6
-0.884, 8.258e-6
-0.885, 8.257e-6
-0.886, 8.259e-6
-0.887, 8.258e-6
-0.888, 8.257e-6
-0.889, 8.255e-6
-0.890, 8.252e-6
-0.891, 8.253e-6
-0.892, 8.253e-6
-0.893, 8.250e-6
-0.894, 8.247e-6
-0.895, 8.243e-6
-0.896, 8.245e-6
-0.897, 8.243e-6
-0.898, 8.239e-6
-0.899, 8.236e-6
-0.900, 8.233e-6
-0.901, 8.232e-6
-0.902, 8.232e-6
-0.903, 8.227e-6
-0.904, 8.223e-6
-0.905, 8.219e-6
-0.906, 8.218e-6
-0.907, 8.215e-6
-0.908, 8.211e-6
-0.909, 8.207e-6
-0.910, 8.203e-6
-0.911, 8.202e-6
-0.912, 8.199e-6
-0.913, 8.194e-6
-0.914, 8.188e-6
-0.915, 8.185e-6
-0.916, 8.183e-6
-0.917, 8.180e-6
-0.918, 8.176e-6
-0.919, 8.170e-6
-0.920, 8.166e-6
-0.921, 8.165e-6
-0.922, 8.162e-6
-0.923, 8.157e-6
-0.924, 8.152e-6
-0.925, 8.147e-6
-0.926, 8.146e-6
-0.927, 8.143e-6
-0.928, 8.138e-6
-0.929, 8.134e-6
-0.930, 8.129e-6
-0.931, 8.127e-6
-0.932, 8.125e-6
-0.933, 8.119e-6
-0.934, 8.114e-6
-0.935, 8.111e-6
-0.936, 8.108e-6
-0.937, 8.106e-6
-0.938, 8.100e-6
-0.939, 8.097e-6
-0.940, 8.091e-6
-0.941, 8.090e-6
-0.942, 8.088e-6
-0.943, 8.083e-6
-0.944, 8.078e-6
-0.945, 8.073e-6
-0.946, 8.070e-6
-0.947, 8.070e-6
-0.948, 8.066e-6
-0.949, 8.061e-6
-0.950, 8.057e-6
-0.951, 8.055e-6
-0.952, 8.053e-6
-0.953, 8.049e-6
-0.954, 8.045e-6
-0.955, 8.041e-6
-0.956, 8.041e-6
-0.957, 8.038e-6
-0.958, 8.034e-6
-0.959, 8.029e-6
-0.960, 8.026e-6
-0.961, 8.025e-6
-0.962, 8.022e-6
-0.963, 8.019e-6
-0.964, 8.015e-6
-0.965, 8.011e-6
-0.966, 8.010e-6
-0.967, 8.008e-6
-0.968, 8.003e-6
-0.969, 8.001e-6
-0.970, 7.996e-6
-0.971, 7.996e-6
-0.972, 7.995e-6
-0.973, 7.994e-6
-0.974, 7.990e-6
-0.975, 7.985e-6
-0.976, 7.983e-6
-0.977, 7.983e-6
-0.978, 7.978e-6
-0.979, 7.976e-6
-0.980, 7.972e-6
-0.981, 7.970e-6
-0.982, 7.971e-6
-0.983, 7.967e-6
-0.984, 7.963e-6
-0.985, 7.960e-6
-0.986, 7.960e-6
-0.987, 7.960e-6
-0.988, 7.955e-6
-0.989, 7.954e-6
-0.990, 7.950e-6
-0.991, 7.948e-6
-0.992, 7.950e-6
-0.993, 7.947e-6
-0.994, 7.943e-6
-0.995, 7.940e-6
-0.996, 7.939e-6
-0.997, 7.940e-6
-0.998, 7.937e-6
-0.999, 7.935e-6
-1.000, 7.933e-6
-1.001, 7.932e-6
-1.002, 7.933e-6
-1.003, 7.930e-6
-1.004, 7.928e-6
-1.005, 7.925e-6
-1.006, 7.925e-6
-1.007, 7.926e-6
-1.008, 7.924e-6
-1.009, 7.922e-6
-1.010, 7.920e-6
-1.011, 7.921e-6
-1.012, 7.921e-6
-1.013, 7.919e-6
-1.014, 7.917e-6
-1.015, 7.915e-6
-1.016, 7.915e-6
-1.017, 7.917e-6
-1.018, 7.915e-6
-1.019, 7.913e-6
-1.020, 7.912e-6
-1.021, 7.912e-6
-1.022, 7.913e-6
-1.023, 7.911e-6
-1.024, 7.912e-6
-1.025, 7.911e-6
-1.026, 7.910e-6
-1.027, 7.912e-6
-1.028, 7.911e-6
-1.029, 7.909e-6
-1.030, 7.909e-6
-1.031, 7.909e-6
-1.032, 7.912e-6
-1.033, 7.911e-6
-1.034, 7.909e-6
-1.035, 7.909e-6
-1.036, 7.909e-6
-1.037, 7.912e-6
-1.038, 7.912e-6
-1.039, 7.910e-6
-1.040, 7.910e-6
-1.041, 7.910e-6
-1.042, 7.912e-6
-1.043, 7.912e-6
-1.044, 7.912e-6
-1.045, 7.911e-6
-1.046, 7.913e-6
-1.047, 7.914e-6
-1.048, 7.916e-6
-1.049, 7.915e-6
-1.050, 7.915e-6
-1.051, 7.917e-6
-1.052, 7.919e-6
-1.053, 7.919e-6
-1.054, 7.920e-6
-1.055, 7.919e-6
-1.056, 7.921e-6
-1.057, 7.924e-6
-1.058, 7.924e-6
-1.059, 7.924e-6
-1.060, 7.925e-6
-1.061, 7.926e-6
-1.062, 7.930e-6
-1.063, 7.931e-6
-1.064, 7.931e-6
-1.065, 7.932e-6
-1.066, 7.933e-6
-1.067, 7.937e-6
-1.068, 7.939e-6
-1.069, 7.939e-6
-1.070, 7.939e-6
-1.071, 7.942e-6
-1.072, 7.946e-6
-1.073, 7.948e-6
-1.074, 7.947e-6
-1.075, 7.951e-6
-1.076, 7.953e-6
-1.077, 7.956e-6
-1.078, 7.959e-6
-1.079, 7.959e-6
-1.080, 7.961e-6
-1.081, 7.963e-6
-1.082, 7.967e-6
-1.083, 7.970e-6
-1.084, 7.970e-6
-1.085, 7.976e-6
-1.086, 7.987e-6
-1.087, 7.992e-6
-1.088, 7.996e-6
-1.089, 7.996e-6
-1.090, 7.999e-6
-1.091, 8.002e-6
-1.092, 8.006e-6
-1.093, 8.009e-6
-1.094, 8.011e-6
-1.095, 8.012e-6
-1.096, 8.016e-6
-1.097, 8.020e-6
-1.098, 8.024e-6
-1.099, 8.026e-6
-1.100, 8.029e-6
-1.101, 8.033e-6
-1.102, 8.038e-6
-1.103, 8.041e-6
-1.104, 8.043e-6
-1.105, 8.046e-6
-1.106, 8.048e-6
-1.107, 8.055e-6
-1.108, 8.058e-6
-1.109, 8.061e-6
-1.110, 8.064e-6
-1.111, 8.067e-6
-1.112, 8.072e-6
-1.113, 8.079e-6
-1.114, 8.081e-6
-1.115, 8.085e-6
-1.116, 8.088e-6
-1.117, 8.093e-6
-1.118, 8.099e-6
-1.119, 8.101e-6
-1.120, 8.105e-6
-1.121, 8.110e-6
-1.122, 8.116e-6
-1.123, 8.120e-6
-1.124, 8.124e-6
-1.125, 8.129e-6
-1.126, 8.133e-6
-1.127, 8.139e-6
-1.128, 8.145e-6
-1.129, 8.148e-6
-1.130, 8.151e-6
-1.131, 8.157e-6
-1.132, 8.164e-6
-1.133, 8.170e-6
-1.134, 8.174e-6
-1.135, 8.179e-6
-1.136, 8.184e-6
-1.137, 8.190e-6
-1.138, 8.198e-6
-1.139, 8.203e-6
-1.140, 8.209e-6
-1.141, 8.212e-6
-1.142, 8.220e-6
-1.143, 8.227e-6
-1.144, 8.232e-6
-1.145, 8.237e-6
-1.146, 8.242e-6
-1.147, 8.250e-6
-1.148, 8.257e-6
-1.149, 8.261e-6
-1.150, 8.268e-6
-1.151, 8.272e-6
-1.152, 8.281e-6
-1.153, 8.291e-6
-1.154, 8.294e-6
-1.155, 8.298e-6
-1.156, 8.305e-6
-1.157, 8.313e-6
-1.158, 8.321e-6
-1.159, 8.327e-6
-1.160, 8.332e-6
-1.161, 8.337e-6
-1.162, 8.345e-6
-1.163, 8.354e-6
-1.164, 8.359e-6
-1.165, 8.367e-6
-1.166, 8.372e-6
-1.167, 8.379e-6
-1.168, 8.388e-6
-1.169, 8.396e-6
-1.170, 8.400e-6
-1.171, 8.407e-6
-1.172, 8.416e-6
-1.173, 8.425e-6
-1.174, 8.432e-6
-1.175, 8.438e-6
-1.176, 8.445e-6
-1.177, 8.454e-6
-1.178, 8.466e-6
-1.179, 8.473e-6
-1.180, 8.480e-6
-1.181, 8.486e-6
-1.182, 8.496e-6
-1.183, 8.506e-6
-1.184, 8.514e-6
-1.185, 8.520e-6
-1.186, 8.527e-6
-1.187, 8.538e-6
-1.188, 8.548e-6
-1.189, 8.556e-6
-1.190, 8.563e-6
-1.191, 8.570e-6
-1.192, 8.582e-6
-1.193, 8.591e-6
-1.194, 8.599e-6
-1.195, 8.606e-6
-1.196, 8.614e-6
-1.197, 8.625e-6
-1.198, 8.636e-6
-1.199, 8.644e-6
-1.200, 8.653e-6
-1.201, 8.662e-6
-1.202, 8.672e-6
-1.203, 8.685e-6
-1.204, 8.695e-6
-1.205, 8.704e-6
-1.206, 8.713e-6
-1.207, 8.725e-6
-1.208, 8.737e-6
-1.209, 8.747e-6
-1.210, 8.757e-6
-1.211, 8.767e-6
-1.212, 8.779e-6
-1.213, 8.791e-6
-1.214, 8.803e-6
-1.215, 8.813e-6
-1.216, 8.824e-6
-1.217, 8.837e-6
-1.218, 8.848e-6
-1.219, 8.860e-6
-1.220, 8.870e-6
-1.221, 8.881e-6
-1.222, 8.893e-6
-1.223, 8.908e-6
-1.224, 8.921e-6
-1.225, 8.933e-6
-1.226, 8.944e-6
-1.227, 8.960e-6
-1.228, 8.975e-6
-1.229, 8.992e-6
-1.230, 9.005e-6
-1.231, 9.016e-6
-1.232, 9.032e-6
-1.233, 9.047e-6
-1.234, 9.061e-6
-1.235, 9.074e-6
-1.236, 9.090e-6
-1.237, 9.105e-6
-1.238, 9.124e-6
-1.239, 9.137e-6
-1.240, 9.151e-6
-1.241, 9.167e-6
-1.242, 9.183e-6
-1.243, 9.203e-6
-1.244, 9.219e-6
-1.245, 9.235e-6
-1.246, 9.253e-6
-1.247, 9.271e-6
-1.248, 9.291e-6
-1.249, 9.309e-6
-1.250, 9.325e-6
-1.251, 9.344e-6
-1.252, 9.363e-6
-1.253, 9.383e-6
-1.254, 9.401e-6
-1.255, 9.419e-6
-1.256, 9.439e-6
-1.257, 9.461e-6
-1.258, 9.483e-6
-1.259, 9.504e-6
-1.260, 9.524e-6
-1.261, 9.546e-6
-1.262, 9.568e-6
-1.263, 9.593e-6
-1.264, 9.615e-6
-1.265, 9.637e-6
-1.266, 9.658e-6
-1.267, 9.682e-6
-1.268, 9.710e-6
-1.269, 9.734e-6
-1.270, 9.759e-6
-1.271, 9.784e-6
-1.272, 9.809e-6
-1.273, 9.837e-6
-1.274, 9.864e-6
-1.275, 9.888e-6
-1.276, 9.914e-6
-1.277, 9.942e-6
-1.278, 9.972e-6
-1.279, 1.000e-5
-1.280, 1.003e-5
-1.281, 1.006e-5
-1.282, 1.009e-5
-1.283, 1.013e-5
-1.284, 1.016e-5
-1.285, 1.018e-5
-1.286, 1.021e-5
-1.287, 1.024e-5
-1.288, 1.028e-5
-1.289, 1.031e-5
-1.290, 1.034e-5
-1.291, 1.037e-5
-1.292, 1.041e-5
-1.293, 1.045e-5
-1.294, 1.048e-5
-1.295, 1.051e-5
-1.296, 1.055e-5
-1.297, 1.058e-5
-1.298, 1.062e-5
-1.299, 1.066e-5
-1.300, 1.070e-5
-1.301, 1.073e-5
-1.302, 1.077e-5
-1.303, 1.081e-5
-1.304, 1.085e-5
-1.305, 1.089e-5
-1.306, 1.093e-5
-1.307, 1.097e-5
-1.308, 1.101e-5
-1.309, 1.105e-5
-1.310, 1.108e-5
-1.311, 1.112e-5
-1.312, 1.117e-5
-1.313, 1.121e-5
-1.314, 1.125e-5
-1.315, 1.129e-5
-1.316, 1.133e-5
-1.317, 1.138e-5
-1.318, 1.142e-5
-1.319, 1.147e-5
-1.320, 1.151e-5
-1.321, 1.155e-5
-1.322, 1.159e-5
-1.323, 1.164e-5
-1.324, 1.168e-5
-1.325, 1.173e-5
-1.326, 1.177e-5
-1.327, 1.181e-5
-1.328, 1.186e-5
-1.329, 1.191e-5
-1.330, 1.195e-5
-1.331, 1.200e-5
-1.332, 1.204e-5
-1.333, 1.208e-5
-1.334, 1.212e-5
-1.335, 1.216e-5
-1.336, 1.221e-5
-1.337, 1.225e-5
-1.338, 1.230e-5
-1.339, 1.235e-5
-1.340, 1.239e-5
-1.341, 1.244e-5
-1.342, 1.249e-5
-1.343, 1.253e-5
-1.344, 1.258e-5
-1.345, 1.263e-5
-1.346, 1.267e-5
-1.347, 1.271e-5
-1.348, 1.276e-5
-1.349, 1.281e-5
-1.350, 1.286e-5
-1.351, 1.290e-5
-1.352, 1.295e-5
-1.353, 1.300e-5
-1.354, 1.304e-5
-1.355, 1.309e-5
-1.356, 1.313e-5
-1.357, 1.318e-5
-1.358, 1.322e-5
-1.359, 1.327e-5
-1.360, 1.331e-5
-1.361, 1.336e-5
-1.362, 1.340e-5
-1.363, 1.345e-5
-1.364, 1.349e-5
-1.365, 1.353e-5
-1.366, 1.358e-5
-1.367, 1.362e-5
-1.368, 1.367e-5
-1.369, 1.371e-5
-1.370, 1.375e-5
-1.371, 1.379e-5
-1.372, 1.383e-5
-1.373, 1.388e-5
-1.374, 1.392e-5
-1.375, 1.396e-5
-1.376, 1.400e-5
-1.377, 1.404e-5
-1.378, 1.408e-5
-1.379, 1.412e-5
-1.380, 1.416e-5
-1.381, 1.420e-5
-1.382, 1.424e-5
-1.383, 1.428e-5
-1.384, 1.432e-5
-1.385, 1.436e-5
-1.386, 1.440e-5
-1.387, 1.443e-5
-1.388, 1.447e-5
-1.389, 1.451e-5
-1.390, 1.455e-5
-1.391, 1.458e-5
-1.392, 1.462e-5
-1.393, 1.466e-5
-1.394, 1.470e-5
-1.395, 1.473e-5
-1.396, 1.477e-5
-1.397, 1.480e-5
-1.398, 1.483e-5
-1.399, 1.487e-5
-1.400, 1.490e-5
-1.401, 1.494e-5
-1.402, 1.497e-5
-1.403, 1.500e-5
-1.404, 1.504e-5
-1.405, 1.507e-5
-1.406, 1.510e-5
-1.407, 1.513e-5
-1.408, 1.516e-5
-1.409, 1.520e-5
-1.410, 1.523e-5
-1.411, 1.526e-5
-1.412, 1.528e-5
-1.413, 1.531e-5
-1.414, 1.535e-5
-1.415, 1.537e-5
-1.416, 1.540e-5
-1.417, 1.543e-5
-1.418, 1.546e-5
-1.419, 1.549e-5
-1.420, 1.553e-5
-1.421, 1.557e-5
-1.422, 1.559e-5
-1.423, 1.563e-5
-1.424, 1.568e-5
-1.425, 1.570e-5
-1.426, 1.572e-5
-1.427, 1.575e-5
-1.428, 1.578e-5
-1.429, 1.581e-5
-1.430, 1.583e-5
-1.431, 1.586e-5
-1.432, 1.588e-5
-1.433, 1.591e-5
-1.434, 1.594e-5
-1.435, 1.597e-5
-1.436, 1.599e-5
-1.437, 1.601e-5
-1.438, 1.604e-5
-1.439, 1.607e-5
-1.440, 1.610e-5
-1.441, 1.612e-5
-1.442, 1.615e-5
-1.443, 1.617e-5
-1.444, 1.620e-5
-1.445, 1.623e-5
-1.446, 1.625e-5
-1.447, 1.628e-5
-1.448, 1.631e-5
-1.449, 1.633e-5
-1.450, 1.636e-5
-1.451, 1.638e-5
-1.452, 1.641e-5
-1.453, 1.644e-5
-1.454, 1.647e-5
-1.455, 1.650e-5
-1.456, 1.652e-5
-1.457, 1.655e-5
-1.458, 1.658e-5
-1.459, 1.661e-5
-1.460, 1.664e-5
-1.461, 1.666e-5
-1.462, 1.669e-5
-1.463, 1.672e-5
-1.464, 1.675e-5
-1.465, 1.678e-5
-1.466, 1.681e-5
-1.467, 1.684e-5
-1.468, 1.687e-5
-1.469, 1.690e-5
-1.470, 1.693e-5
-1.471, 1.696e-5
-1.472, 1.699e-5
-1.473, 1.702e-5
-1.474, 1.706e-5
-1.475, 1.709e-5
-1.476, 1.713e-5
-1.477, 1.715e-5
-1.478, 1.719e-5
-1.479, 1.723e-5
-1.480, 1.726e-5
-1.481, 1.730e-5
-1.482, 1.733e-5
-1.483, 1.737e-5
-1.484, 1.741e-5
-1.485, 1.745e-5
-1.486, 1.748e-5
-1.487, 1.752e-5
-1.488, 1.756e-5
-1.489, 1.760e-5
-1.490, 1.764e-5
-1.491, 1.768e-5
-1.492, 1.772e-5
-1.493, 1.776e-5
-1.494, 1.781e-5
-1.495, 1.785e-5
-1.496, 1.789e-5
-1.497, 1.794e-5
-1.498, 1.798e-5
-1.499, 1.803e-5
-1.500, 1.808e-5
-1.501, 1.812e-5
-1.502, 1.817e-5
-1.503, 1.822e-5
-1.504, 1.827e-5
-1.505, 1.832e-5
-1.506, 1.837e-5
-1.507, 1.842e-5
-1.508, 1.848e-5
-1.509, 1.853e-5
-1.510, 1.859e-5
-1.511, 1.865e-5
-1.512, 1.870e-5
-1.513, 1.876e-5
-1.514, 1.883e-5
-1.515, 1.889e-5
-1.516, 1.895e-5
-1.517, 1.901e-5
-1.518, 1.907e-5
-1.519, 1.914e-5
-1.520, 1.921e-5
-1.521, 1.928e-5
-1.522, 1.935e-5
-1.523, 1.942e-5
-1.524, 1.949e-5
-1.525, 1.956e-5
-1.526, 1.964e-5
-1.527, 1.971e-5
-1.528, 1.979e-5
-1.529, 1.987e-5
-1.530, 1.995e-5
-1.531, 2.003e-5
-1.532, 2.011e-5
-1.533, 2.019e-5
-1.534, 2.028e-5
-1.535, 2.037e-5
-1.536, 2.046e-5
-1.537, 2.055e-5
-1.538, 2.064e-5
-1.539, 2.074e-5
-1.540, 2.084e-5
-1.541, 2.094e-5
-1.542, 2.104e-5
-1.543, 2.114e-5
-1.544, 2.125e-5
-1.545, 2.136e-5
-1.546, 2.146e-5
-1.547, 2.157e-5
-1.548, 2.168e-5
-1.549, 2.180e-5
-1.550, 2.192e-5
-1.551, 2.203e-5
-1.552, 2.215e-5
-1.553, 2.228e-5
-1.554, 2.241e-5
-1.555, 2.254e-5
-1.556, 2.267e-5
-1.557, 2.280e-5
-1.558, 2.294e-5
-1.559, 2.307e-5
-1.560, 2.322e-5
-1.561, 2.336e-5
-1.562, 2.351e-5
-1.563, 2.366e-5
-1.564, 2.381e-5
-1.565, 2.397e-5
-1.566, 2.413e-5
-1.567, 2.429e-5
-1.568, 2.445e-5
-1.569, 2.462e-5
-1.570, 2.479e-5
-1.571, 2.497e-5
-1.572, 2.514e-5
-1.573, 2.532e-5
-1.574, 2.550e-5
-1.575, 2.569e-5
-1.576, 2.588e-5
-1.577, 2.606e-5
-1.578, 2.626e-5
-1.579, 2.646e-5
-1.580, 2.666e-5
-1.581, 2.686e-5
-1.582, 2.707e-5
-1.583, 2.728e-5
-1.584, 2.750e-5
-1.585, 2.772e-5
-1.586, 2.792e-5
-1.587, 2.815e-5
-1.588, 2.837e-5
-1.589, 2.861e-5
-1.590, 2.884e-5
-1.591, 2.908e-5
-1.592, 2.932e-5
-1.593, 2.956e-5
-1.594, 2.981e-5
-1.595, 3.006e-5
-1.596, 3.032e-5
-1.597, 3.057e-5
-1.598, 3.083e-5
-1.599, 3.110e-5
-1.600, 3.137e-5
-1.601, 3.164e-5
-1.602, 3.192e-5
-1.603, 3.220e-5
-1.604, 3.248e-5
-1.605, 3.277e-5
-1.606, 3.306e-5
-1.607, 3.335e-5
-1.608, 3.365e-5
-1.609, 3.395e-5
-1.610, 3.425e-5
-1.611, 3.456e-5
-1.612, 3.487e-5
-1.613, 3.518e-5
-1.614, 3.550e-5
-1.615, 3.582e-5
-1.616, 3.614e-5
-1.617, 3.646e-5
-1.618, 3.679e-5
-1.619, 3.712e-5
-1.620, 3.746e-5
-1.621, 3.780e-5
-1.622, 3.814e-5
-1.623, 3.848e-5
-1.624, 3.883e-5
-1.625, 3.918e-5
-1.626, 3.954e-5
-1.627, 3.990e-5
-1.628, 4.025e-5
-1.629, 4.062e-5
-1.630, 4.099e-5
-1.631, 4.136e-5
-1.632, 4.173e-5
-1.633, 4.209e-5
-1.634, 4.247e-5
-1.635, 4.286e-5
-1.636, 4.324e-5
-1.637, 4.361e-5
-1.638, 4.399e-5
-1.639, 4.440e-5
-1.640, 4.479e-5
-1.641, 4.519e-5
-1.642, 4.558e-5
-1.643, 4.597e-5
-1.644, 4.638e-5
-1.645, 4.679e-5
-1.646, 4.720e-5
-1.647, 4.761e-5
-1.648, 4.802e-5
-1.649, 4.844e-5
-1.650, 4.886e-5
-1.651, 4.928e-5
-1.652, 4.970e-5
-1.653, 5.012e-5
-1.654, 5.054e-5
-1.655, 5.097e-5
-1.656, 5.140e-5
-1.657, 5.183e-5
-1.658, 5.226e-5
-1.659, 5.270e-5
-1.660, 5.314e-5
-1.661, 5.358e-5
-1.662, 5.402e-5
-1.663, 5.446e-5
-1.664, 5.492e-5
-1.665, 5.537e-5
-1.666, 5.583e-5
-1.667, 5.628e-5
-1.668, 5.673e-5
-1.669, 5.719e-5
-1.670, 5.765e-5
-1.671, 5.811e-5
-1.672, 5.857e-5
-1.673, 5.903e-5
-1.674, 5.948e-5
-1.675, 5.995e-5
-1.676, 6.043e-5
-1.677, 6.090e-5
-1.678, 6.137e-5
-1.679, 6.184e-5
-1.680, 6.233e-5
-1.681, 6.281e-5
-1.682, 6.329e-5
-1.683, 6.378e-5
-1.684, 6.427e-5
-1.685, 6.476e-5
-1.686, 6.525e-5
-1.687, 6.574e-5
-1.688, 6.623e-5
-1.689, 6.673e-5
-1.690, 6.724e-5
-1.691, 6.774e-5
-1.692, 6.823e-5
-1.693, 6.873e-5
-1.694, 6.924e-5
-1.695, 6.975e-5
-1.696, 7.026e-5
-1.697, 7.077e-5
-1.698, 7.128e-5
-1.699, 7.179e-5
-1.700, 7.231e-5
-1.701, 7.284e-5
-1.702, 7.335e-5
-1.703, 7.387e-5
-1.704, 7.440e-5
-1.705, 7.493e-5
-1.706, 7.544e-5
-1.707, 7.597e-5
-1.708, 7.650e-5
-1.709, 7.703e-5
-1.710, 7.757e-5
-1.711, 7.811e-5
-1.712, 7.866e-5
-1.713, 7.920e-5
-1.714, 7.974e-5
-1.715, 8.030e-5
-1.716, 8.085e-5
-1.717, 8.140e-5
-1.718, 8.195e-5
-1.719, 8.251e-5
-1.720, 8.307e-5
-1.721, 8.363e-5
-1.722, 8.418e-5
-1.723, 8.475e-5
-1.724, 8.532e-5
-1.725, 8.589e-5
-1.726, 8.646e-5
-1.727, 8.703e-5
-1.728, 8.761e-5
-1.729, 8.819e-5
-1.730, 8.878e-5
-1.731, 8.936e-5
-1.732, 8.994e-5
-1.733, 9.052e-5
-1.734, 9.110e-5
-1.735, 9.169e-5
-1.736, 9.229e-5
-1.737, 9.288e-5
-1.738, 9.347e-5
-1.739, 9.408e-5
-1.740, 9.469e-5
-1.741, 9.531e-5
-1.742, 9.591e-5
-1.743, 9.652e-5
-1.744, 9.712e-5
-1.745, 9.774e-5
-1.746, 9.836e-5
-1.747, 9.898e-5
-1.748, 9.960e-5
-1.749, 1.002e-4
-1.750, 1.008e-4
-1.751, 1.015e-4
-1.752, 1.021e-4
-1.753, 1.027e-4
-1.754, 1.034e-4
-1.755, 1.040e-4
-1.756, 1.047e-4
-1.757, 1.053e-4
-1.758, 1.059e-4
-1.759, 1.066e-4
-1.760, 1.072e-4
-1.761, 1.079e-4
-1.762, 1.085e-4
-1.763, 1.092e-4
-1.764, 1.098e-4
-1.765, 1.105e-4
-1.766, 1.112e-4
-1.767, 1.119e-4
-1.768, 1.125e-4
-1.769, 1.132e-4
-1.770, 1.139e-4
-1.771, 1.146e-4
-1.772, 1.153e-4
-1.773, 1.159e-4
-1.774, 1.166e-4
-1.775, 1.173e-4
-1.776, 1.180e-4
-1.777, 1.187e-4
-1.778, 1.194e-4
-1.779, 1.201e-4
-1.780, 1.208e-4
-1.781, 1.215e-4
-1.782, 1.222e-4
-1.783, 1.229e-4
-1.784, 1.237e-4
-1.785, 1.244e-4
-1.786, 1.251e-4
-1.787, 1.258e-4
-1.788, 1.266e-4
-1.789, 1.273e-4
-1.790, 1.280e-4
-1.791, 1.288e-4
-1.792, 1.295e-4
-1.793, 1.303e-4
-1.794, 1.310e-4
-1.795, 1.318e-4
-1.796, 1.326e-4
-1.797, 1.333e-4
-1.798, 1.341e-4
-1.799, 1.349e-4
-1.800, 1.356e-4
-1.801, 1.364e-4
-1.802, 1.372e-4
-1.803, 1.379e-4
-1.804, 1.387e-4
-1.805, 1.395e-4
-1.806, 1.402e-4
-1.807, 1.410e-4
-1.808, 1.419e-4
-1.809, 1.427e-4
-1.810, 1.435e-4
-1.811, 1.443e-4
-1.812, 1.451e-4
-1.813, 1.459e-4
-1.814, 1.467e-4
-1.815, 1.475e-4
-1.816, 1.484e-4
-1.817, 1.492e-4
-1.818, 1.500e-4
-1.819, 1.509e-4
-1.820, 1.518e-4
-1.821, 1.526e-4
-1.822, 1.535e-4
-1.823, 1.543e-4
-1.824, 1.552e-4
-1.825, 1.561e-4
-1.826, 1.570e-4
-1.827, 1.579e-4
-1.828, 1.587e-4
-1.829, 1.596e-4
-1.830, 1.606e-4
-1.831, 1.615e-4
-1.832, 1.624e-4
-1.833, 1.634e-4
-1.834, 1.643e-4
-1.835, 1.653e-4
-1.836, 1.662e-4
-1.837, 1.672e-4
-1.838, 1.681e-4
-1.839, 1.691e-4
-1.840, 1.700e-4
-1.841, 1.710e-4
-1.842, 1.720e-4
-1.843, 1.730e-4
-1.844, 1.740e-4
-1.845, 1.750e-4
-1.846, 1.760e-4
-1.847, 1.770e-4
-1.848, 1.780e-4
-1.849, 1.790e-4
-1.850, 1.800e-4
-1.851, 1.811e-4
-1.852, 1.822e-4
-1.853, 1.832e-4
-1.854, 1.843e-4
-1.855, 1.853e-4
-1.856, 1.864e-4
-1.857, 1.875e-4
-1.858, 1.886e-4
-1.859, 1.898e-4
-1.860, 1.910e-4
-1.861, 1.921e-4
-1.862, 1.932e-4
-1.863, 1.944e-4
-1.864, 1.955e-4
-1.865, 1.966e-4
-1.866, 1.978e-4
-1.867, 1.989e-4
-1.868, 2.001e-4
-1.869, 2.013e-4
-1.870, 2.025e-4
-1.871, 2.037e-4
-1.872, 2.050e-4
-1.873, 2.063e-4
-1.874, 2.075e-4
-1.875, 2.089e-4
-1.876, 2.102e-4
-1.877, 2.115e-4
-1.878, 2.128e-4
-1.879, 2.142e-4
-1.880, 2.155e-4
-1.881, 2.170e-4
-1.882, 2.184e-4
-1.883, 2.198e-4
-1.884, 2.212e-4
-1.885, 2.227e-4
-1.886, 2.241e-4
-1.887, 2.256e-4
-1.888, 2.272e-4
-1.889, 2.287e-4
-1.890, 2.302e-4
-1.891, 2.317e-4
-1.892, 2.332e-4
-1.893, 2.348e-4
-1.894, 2.364e-4
-1.895, 2.381e-4
-1.896, 2.396e-4
-1.897, 2.412e-4
-1.898, 2.429e-4
-1.899, 2.446e-4
-1.900, 2.462e-4
-1.901, 2.479e-4
-1.902, 2.497e-4
-1.903, 2.514e-4
-1.904, 2.531e-4
-1.905, 2.549e-4
-1.906, 2.568e-4
-1.907, 2.586e-4
-1.908, 2.605e-4
-1.909, 2.625e-4
-1.910, 2.645e-4
-1.911, 2.664e-4
-1.912, 2.684e-4
-1.913, 2.705e-4
-1.914, 2.725e-4
-1.915, 2.745e-4
-1.916, 2.764e-4
-1.917, 2.786e-4
-1.918, 2.808e-4
-1.919, 2.830e-4
-1.920, 2.851e-4
-1.921, 2.874e-4
-1.922, 2.897e-4
-1.923, 2.921e-4
-1.924, 2.945e-4
-1.925, 2.968e-4
-1.926, 2.992e-4
-1.927, 3.017e-4
-1.928, 3.042e-4
-1.929, 3.067e-4
-1.930, 3.092e-4
-1.931, 3.118e-4
-1.932, 3.145e-4
-1.933, 3.172e-4
-1.934, 3.198e-4
-1.935, 3.226e-4
-1.936, 3.255e-4
-1.937, 3.284e-4
-1.938, 3.312e-4
-1.939, 3.341e-4
-1.940, 3.370e-4
-1.941, 3.400e-4
-1.942, 3.429e-4
-1.943, 3.457e-4
-1.944, 3.486e-4
-1.945, 3.516e-4
-1.946, 3.547e-4
-1.947, 3.581e-4
-1.948, 3.612e-4
-1.949, 3.645e-4
-1.950, 3.678e-4
-1.951, 3.712e-4
-1.952, 3.746e-4
-1.953, 3.780e-4
-1.954, 3.816e-4
-1.955, 3.852e-4
-1.956, 3.887e-4
-1.957, 3.923e-4
-1.958, 3.961e-4
-1.959, 3.998e-4
-1.960, 4.036e-4
-1.961, 4.074e-4
-1.962, 4.111e-4
-1.963, 4.150e-4
-1.964, 4.190e-4
-1.965, 4.230e-4
-1.966, 4.270e-4
-1.967, 4.311e-4
-1.968, 4.351e-4
-1.969, 4.392e-4
-1.970, 4.434e-4
-1.971, 4.477e-4
-1.972, 4.523e-4
-1.973, 4.568e-4
-1.974, 4.614e-4
-1.975, 4.661e-4
-1.976, 4.704e-4
-1.977, 4.750e-4
-1.978, 4.796e-4
-1.979, 4.844e-4
-1.980, 4.894e-4
-1.981, 4.944e-4
-1.982, 4.995e-4
-1.983, 5.043e-4
-1.984, 5.095e-4
-1.985, 5.147e-4
-1.986, 5.201e-4
-1.987, 5.253e-4
-1.988, 5.304e-4
-1.989, 5.355e-4
-1.990, 5.409e-4
-1.991, 5.466e-4
-1.992, 5.523e-4
-1.993, 5.578e-4
-1.994, 5.632e-4
-1.995, 5.687e-4
-1.996, 5.744e-4
-1.997, 5.804e-4
-1.998, 5.865e-4
-1.999, 5.925e-4
-2.000, 5.982e-4
-2.001, 6.040e-4
-2.002, 6.102e-4
-2.003, 6.165e-4
-2.004, 6.223e-4
-2.005, 6.285e-4
-2.006, 6.348e-4
-2.007, 6.411e-4
-2.008, 6.478e-4
-2.009, 6.540e-4
-2.010, 6.605e-4
-2.011, 6.670e-4
-2.012, 6.737e-4
-2.013, 6.802e-4
-2.014, 6.867e-4
-2.015, 6.933e-4
-2.016, 6.998e-4
-2.017, 7.067e-4
-2.018, 7.134e-4
-2.019, 7.203e-4
-2.020, 7.272e-4
-2.021, 7.340e-4
-2.022, 7.410e-4
-2.023, 7.479e-4
-2.024, 7.548e-4
-2.025, 7.621e-4
-2.026, 7.693e-4
-2.027, 7.766e-4
-2.028, 7.839e-4
-2.029, 7.909e-4
-2.030, 7.975e-4
-2.031, 8.045e-4
-2.032, 8.119e-4
-2.033, 8.194e-4
-2.034, 8.267e-4
-2.035, 8.340e-4
-2.036, 8.415e-4
-2.037, 8.492e-4
-2.038, 8.566e-4
-2.039, 8.641e-4
-2.040, 8.716e-4
-2.041, 8.792e-4
-2.042, 8.867e-4
-2.043, 8.942e-4
-2.044, 9.018e-4
-2.045, 9.097e-4
-2.046, 9.174e-4
-2.047, 9.250e-4
-2.048, 9.331e-4
-2.049, 9.413e-4
-2.050, 9.492e-4
-2.051, 9.572e-4
-2.052, 9.651e-4
-2.053, 9.731e-4
-2.054, 9.811e-4
-2.055, 9.891e-4
-2.056, 9.974e-4
-2.057, 1.005e-3
-2.058, 1.011e-3
-2.059, 1.011e-3
-2.060, 1.011e-3
-2.061, 1.011e-3
-2.062, 1.011e-3
-2.063, 1.011e-3
-2.064, 1.011e-3
-2.065, 1.011e-3
-2.066, 1.011e-3
-2.067, 1.011e-3
-2.068, 1.011e-3
-2.069, 1.011e-3
-2.070, 1.011e-3
-2.071, 1.011e-3
-2.072, 1.011e-3
-2.073, 1.011e-3
-2.074, 1.011e-3
-2.075, 1.011e-3
-2.076, 1.011e-3
-2.077, 1.011e-3
-2.078, 1.011e-3
-2.079, 1.011e-3
-2.080, 1.011e-3
-2.081, 1.011e-3
-2.082, 1.011e-3
-2.083, 1.011e-3
-2.084, 1.011e-3
-2.085, 1.011e-3
-2.086, 1.011e-3
-2.087, 1.011e-3
-2.088, 1.011e-3
-2.089, 1.011e-3
-2.090, 1.011e-3
-2.091, 1.011e-3
-2.092, 1.011e-3
-2.093, 1.011e-3
-2.094, 1.011e-3
-2.095, 1.011e-3
-2.096, 1.011e-3
-2.097, 1.011e-3
-2.098, 1.011e-3
-2.099, 1.011e-3
-2.100, 1.011e-3
-2.101, 1.011e-3
-2.102, 1.011e-3
-2.103, 1.011e-3
-2.104, 1.011e-3
-2.105, 1.011e-3
-2.106, 1.011e-3
-2.107, 1.011e-3
-2.108, 1.011e-3
-2.109, 1.011e-3
-2.110, 1.011e-3
-2.111, 1.011e-3
-2.112, 1.011e-3
-2.113, 1.011e-3
-2.114, 1.011e-3
-2.115, 1.011e-3
-2.116, 1.011e-3
-2.117, 1.011e-3
-2.118, 1.011e-3
-2.119, 1.011e-3
-2.120, 1.011e-3
-2.121, 1.011e-3
-2.122, 1.011e-3
-2.123, 1.011e-3
-2.124, 1.011e-3
-2.125, 1.011e-3
-2.126, 1.011e-3
-2.127, 1.011e-3
-2.128, 1.011e-3
-2.129, 1.011e-3
-2.130, 1.011e-3
-2.131, 1.011e-3
-2.132, 1.011e-3
-2.133, 1.011e-3
-2.134, 1.011e-3
-2.135, 1.011e-3
-2.136, 1.011e-3
-2.137, 1.011e-3
-2.138, 1.011e-3
-2.139, 1.011e-3
-2.140, 1.011e-3
-2.141, 1.011e-3
-2.142, 1.011e-3
-2.143, 1.011e-3
-2.144, 1.011e-3
-2.145, 1.011e-3
-2.146, 1.011e-3
-2.147, 1.011e-3
-2.148, 1.011e-3
-2.149, 1.011e-3
-2.150, 1.011e-3
-2.151, 1.011e-3
-2.152, 1.011e-3
-2.153, 1.011e-3
-2.154, 1.011e-3
-2.155, 1.011e-3
-2.156, 1.011e-3
-2.157, 1.011e-3
-2.158, 1.011e-3
-2.159, 1.011e-3
-2.160, 1.011e-3
-2.161, 1.011e-3
-2.162, 1.011e-3
-2.163, 1.011e-3
-2.164, 1.011e-3
-2.165, 1.011e-3
-2.166, 1.011e-3
-2.167, 1.011e-3
-2.168, 1.011e-3
-2.169, 1.011e-3
-2.170, 1.011e-3
-2.171, 1.011e-3
-2.172, 1.011e-3
-2.173, 1.011e-3
-2.174, 1.011e-3
-2.175, 1.011e-3
-2.176, 1.011e-3
-2.177, 1.011e-3
-2.178, 1.011e-3
-2.179, 1.011e-3
-2.180, 1.011e-3
-2.181, 1.011e-3
-2.182, 1.011e-3
-2.183, 1.011e-3
-2.184, 1.011e-3
-2.185, 1.011e-3
-2.186, 1.011e-3
-2.187, 1.011e-3
-2.188, 1.011e-3
-2.189, 1.011e-3
-2.190, 1.011e-3
-2.191, 1.011e-3
-2.192, 1.011e-3
-2.193, 1.011e-3
-2.194, 1.011e-3
-2.195, 1.011e-3
-2.196, 1.011e-3
-2.197, 1.011e-3
-2.198, 1.011e-3
-2.199, 1.011e-3
-2.200, 1.011e-3
-2.201, 1.011e-3
-2.202, 1.011e-3
-2.203, 1.011e-3
-2.204, 1.011e-3
-2.205, 1.011e-3
-2.206, 1.011e-3
-2.207, 1.011e-3
-2.208, 1.011e-3
-2.209, 1.011e-3
-2.210, 1.011e-3
-2.211, 1.011e-3
-2.212, 1.011e-3
-2.213, 1.011e-3
-2.214, 1.011e-3
-2.215, 1.011e-3
-2.216, 1.011e-3
-2.217, 1.011e-3
-2.218, 1.011e-3
-2.219, 1.011e-3
-2.220, 1.011e-3
-2.221, 1.011e-3
-2.222, 1.011e-3
-2.223, 1.011e-3
-2.224, 1.011e-3
-2.225, 1.011e-3
-2.226, 1.011e-3
-2.227, 1.011e-3
-2.228, 1.011e-3
-2.229, 1.011e-3
-2.230, 1.011e-3
-2.231, 1.011e-3
-2.232, 1.011e-3
-2.233, 1.011e-3
-2.234, 1.011e-3
-2.235, 1.011e-3
-2.236, 1.011e-3
-2.237, 1.011e-3
-2.238, 1.011e-3
-2.239, 1.011e-3
-2.240, 1.011e-3
-2.241, 1.011e-3
-2.242, 1.011e-3
-2.243, 1.011e-3
-2.244, 1.011e-3
-2.245, 1.011e-3
-2.246, 1.011e-3
-2.247, 1.011e-3
-2.248, 1.011e-3
-2.249, 1.011e-3
-2.250, 1.011e-3
-2.251, 1.011e-3
-2.252, 1.011e-3
-2.253, 1.011e-3
-2.254, 1.011e-3
-2.255, 1.011e-3
-2.256, 1.011e-3
-2.257, 1.011e-3
-2.258, 1.011e-3
-2.259, 1.011e-3
-2.260, 1.011e-3
-2.261, 1.011e-3
-2.262, 1.011e-3
-2.263, 1.011e-3
-2.264, 1.011e-3
-2.265, 1.011e-3
-2.266, 1.011e-3
-2.267, 1.011e-3
-2.268, 1.011e-3
-2.269, 1.011e-3
-2.270, 1.011e-3
-2.271, 1.011e-3
-2.272, 1.011e-3
-2.273, 1.011e-3
-2.274, 1.011e-3
-2.275, 1.011e-3
-2.276, 1.011e-3
-2.277, 1.011e-3
-2.278, 1.011e-3
-2.279, 1.011e-3
-2.280, 1.011e-3
-2.281, 1.011e-3
-2.282, 1.011e-3
-2.283, 1.011e-3
-2.284, 1.011e-3
-2.285, 1.011e-3
-2.286, 1.011e-3
-2.287, 1.011e-3
-2.288, 1.011e-3
-2.289, 1.011e-3
-2.290, 1.011e-3
-2.291, 1.011e-3
-2.292, 1.011e-3
-2.293, 1.011e-3
-2.294, 1.011e-3
-2.295, 1.011e-3
-2.296, 1.011e-3
-2.297, 1.011e-3
-2.298, 1.011e-3
-2.299, 1.011e-3
