Potential V vs RHE, Current mA cm-2
0.013299999999999867,-0.7001406223032067
0.012299999999999978,-2.1828995356917518
0.011299999999999866,-3.1859298472960624
0.010299999999999976,-3.884797229429391
0.009299999999999864,-4.450681749375406
0.008299999999999974,-4.887827541033701
0.007299999999999862,-5.279702571096316
0.006299999999999972,-5.847001802342197
0.00529999999999986,-6.326588932996443
0.0042999999999999705,-6.893888164242324
0.0032999999999998586,-7.461187395488204
0.0022999999999999687,-7.896918475846635
0.0012999999999998568,-8.246352166913299
0.00029999999999996696,-8.288793505909249
-0.000700000000000145,-8.332649556205066
-0.0017000000000000348,-8.288793505909249
-0.0027000000000001467,-8.11478401602585
-0.0037000000000000366,-8.070927965730034
-0.0047000000000001485,-8.11478401602585
-0.005700000000000038,-8.288793505909249
-0.00670000000000015,-8.594371146680096
-0.00770000000000004,-8.769795347863363
-0.008700000000000152,-9.205526428221793
-0.009700000000000042,-9.379535918105192
-0.010700000000000154,-9.511104068992642
-0.011700000000000044,-9.467248018696827
-0.012700000000000156,-9.293238528813426
-0.013700000000000045,-9.11781432763016
-0.014700000000000157,-8.85609273715513
-0.015700000000000047,-8.812236686859313
-0.01670000000000016,-8.769795347863363
-0.01770000000000005,-8.943804837746763
-0.01870000000000016,-9.161670377925978
-0.01970000000000005,-9.423391968401008
-0.020700000000000163,-9.772825659467674
-0.021700000000000053,-9.85912304875944
-0.022700000000000164,-9.85912304875944
-0.023700000000000054,-9.81668170976349
-0.024700000000000166,-9.59740145828441
-0.025700000000000056,-9.335679867809377
-0.026700000000000168,-9.11781432763016
-0.027700000000000058,-9.073958277334345
-0.02870000000000017,-9.11781432763016
-0.02970000000000006,-9.293238528813426
-0.03070000000000017,-9.467248018696827
-0.03170000000000006,-9.772825659467674
-0.03270000000000017,-9.99069119964689
-0.03370000000000006,-10.078403300238522
-0.034700000000000175,-10.034547249942705
-0.035700000000000065,-9.902979099055257
-0.03670000000000018,-9.772825659467674
-0.03770000000000007,-9.423391968401008
-0.03870000000000018,-9.335679867809377
-0.03970000000000007,-9.24938247851761
-0.04070000000000018,-9.335679867809377
-0.04170000000000007,-9.55496011928846
-0.04270000000000018,-9.772825659467674
-0.04370000000000007,-10.120844639234473
-0.044700000000000184,-10.208556739826104
-0.045700000000000074,-10.296268840417738
-0.046700000000000186,-10.25241279012192
-0.047700000000000076,-9.99069119964689
-0.04870000000000019,-9.81668170976349
-0.04970000000000008,-9.511104068992642
-0.05070000000000019,-9.467248018696827
-0.05170000000000008,-9.423391968401008
-0.05270000000000019,-9.511104068992642
-0.05370000000000008,-9.728969609171857
-0.05470000000000019,-9.99069119964689
-0.05570000000000008,-10.296268840417738
-0.056700000000000195,-10.382566229709504
-0.057700000000000085,-10.382566229709504
-0.058700000000000196,-10.296268840417738
-0.059700000000000086,-10.078403300238522
-0.0607000000000002,-9.81668170976349
-0.06170000000000009,-9.641257508580225
-0.0627000000000002,-9.55496011928846
-0.06370000000000009,-9.59740145828441
-0.0647000000000002,-9.728969609171857
-0.06570000000000009,-9.99069119964689
-0.0667000000000002,-10.25241279012192
-0.0677000000000001,-10.382566229709504
-0.0687000000000002,-10.557990430892769
-0.0697000000000001,-10.470278330301136
-0.07070000000000021,-10.296268840417738
-0.0717000000000001,-10.120844639234473
-0.07270000000000021,-9.85912304875944
-0.0737000000000001,-9.728969609171857
-0.07470000000000021,-9.641257508580225
-0.0757000000000001,-9.685113558876042
-0.07670000000000021,-9.99069119964689
-0.0777000000000001,-10.208556739826104
-0.07870000000000021,-10.470278330301136
-0.0797000000000001,-10.557990430892769
-0.08070000000000022,-10.688143870480351
-0.0817000000000001,-10.644287820184536
-0.08270000000000022,-10.382566229709504
-0.08370000000000011,-10.208556739826104
-0.08470000000000022,-9.946835149351072
-0.08570000000000011,-9.81668170976349
-0.08670000000000022,-9.772825659467674
-0.08770000000000011,-9.946835149351072
-0.08870000000000022,-10.164700689530287
-0.08970000000000011,-10.382566229709504
-0.09070000000000022,-10.644287820184536
-0.09170000000000011,-10.775855971071984
-0.09270000000000023,-10.775855971071984
-0.09370000000000012,-10.644287820184536
-0.09470000000000023,-10.42642228000532
-0.09570000000000012,-10.208556739826104
-0.09670000000000023,-10.034547249942705
-0.09770000000000012,-9.902979099055257
-0.09870000000000023,-9.946835149351072
-0.09970000000000012,-10.120844639234473
-0.10070000000000023,-10.340124890713554
-0.10170000000000012,-10.601846481188586
-0.10270000000000024,-10.775855971071984
-0.10370000000000013,-10.906009410659568
-0.10470000000000024,-10.906009410659568
-0.10570000000000013,-10.688143870480351
-0.10670000000000024,-10.557990430892769
-0.10770000000000013,-10.25241279012192
-0.10870000000000024,-10.120844639234473
-0.10970000000000013,-10.034547249942705
-0.11070000000000024,-10.164700689530287
-0.11170000000000013,-10.340124890713554
-0.11270000000000002,-10.557990430892769
-0.11370000000000013,-10.863568071663616
-0.11470000000000002,-10.993721511251199
-0.11570000000000014,-11.081433611842833
-0.11670000000000003,-10.993721511251199
-0.11770000000000014,-10.775855971071984
-0.11870000000000003,-10.601846481188586
-0.11970000000000014,-10.340124890713554
-0.12070000000000003,-10.208556739826104
-0.12170000000000014,-10.120844639234473
-0.12270000000000003,-10.296268840417738
-0.12370000000000014,-10.514134380596953
-0.12470000000000003,-10.731999920776168
-0.12570000000000014,-11.081433611842833
-0.12670000000000003,-11.1677310011346
-0.12770000000000015,-11.211587051430415
-0.12870000000000004,-11.037577561547016
-0.12970000000000015,-10.863568071663616
-0.13070000000000004,-10.644287820184536
-0.13170000000000015,-10.382566229709504
-0.13270000000000004,-10.296268840417738
-0.13370000000000015,-10.382566229709504
-0.13470000000000004,-10.557990430892769
-0.13570000000000015,-10.731999920776168
-0.13670000000000004,-11.037577561547016
-0.13770000000000016,-11.255443101726232
-0.13870000000000005,-11.343155202317865
-0.13970000000000016,-11.255443101726232
-0.14070000000000005,-11.123874950838783
-0.14170000000000016,-10.906009410659568
-0.14270000000000005,-10.688143870480351
-0.14370000000000016,-10.470278330301136
-0.14470000000000005,-10.42642228000532
-0.14570000000000016,-10.557990430892769
-0.14670000000000005,-10.731999920776168
-0.14770000000000016,-10.949865460955383
-0.14870000000000005,-11.299299152022046
-0.14970000000000017,-11.42945259160963
-0.15070000000000006,-11.473308641905447
-0.15170000000000017,-11.385596541313816
-0.15270000000000006,-11.211587051430415
-0.15370000000000017,-10.949865460955383
-0.15470000000000006,-10.644287820184536
-0.15570000000000017,-10.601846481188586
-0.15670000000000006,-10.557990430892769
-0.15770000000000017,-10.731999920776168
-0.15870000000000006,-10.906009410659568
-0.15970000000000018,-11.211587051430415
-0.16070000000000007,-11.517164692201263
-0.16170000000000018,-11.56102074249708
-0.16270000000000007,-11.56102074249708
-0.16370000000000018,-11.473308641905447
-0.16470000000000007,-11.299299152022046
-0.16570000000000018,-11.081433611842833
-0.16670000000000007,-10.819712021367803
-0.16770000000000018,-10.731999920776168
-0.16870000000000007,-10.819712021367803
-0.16970000000000018,-10.949865460955383
-0.17070000000000007,-11.1677310011346
-0.17170000000000019,-11.473308641905447
-0.17270000000000008,-11.691174182084664
-0.1737000000000002,-11.778886282676295
-0.17470000000000008,-11.73503023238048
-0.1757000000000002,-11.56102074249708
-0.17670000000000008,-11.343155202317865
-0.1777000000000002,-11.081433611842833
-0.17870000000000008,-10.993721511251199
-0.1797000000000002,-10.906009410659568
-0.18070000000000008,-11.037577561547016
-0.1817000000000002,-11.211587051430415
-0.18270000000000008,-11.473308641905447
-0.1837000000000002,-11.778886282676295
-0.1847000000000001,-11.86659838326793
-0.1857000000000002,-11.996751822855511
-0.1867000000000001,-11.909039722263879
-0.1877000000000002,-11.73503023238048
-0.1887000000000001,-11.473308641905447
-0.1897000000000002,-11.211587051430415
-0.1907000000000001,-11.1677310011346
-0.1917000000000001,-11.123874950838783
-0.19269999999999998,-11.255443101726232
-0.1937000000000001,-11.517164692201263
-0.19469999999999998,-11.73503023238048
-0.1957000000000001,-12.084463923447142
-0.19669999999999999,-12.12831997374296
-0.1977000000000001,-12.170761312738911
-0.1987,-12.084463923447142
-0.1997000000000001,-11.82274233297211
-0.2007,-11.647318131788847
-0.2017000000000001,-11.42945259160963
-0.2027,-11.385596541313816
-0.2037000000000001,-11.42945259160963
-0.2047,-11.604876792792895
-0.2057000000000001,-11.82274233297211
-0.2067,-12.12831997374296
-0.2077000000000001,-12.302329463626359
-0.2087,-12.432482903213943
-0.2097000000000001,-12.432482903213943
-0.2107,-12.258473413330542
-0.2117000000000001,-12.040607873151327
-0.2127,-11.82274233297211
-0.2137000000000001,-11.691174182084664
-0.2147,-11.647318131788847
-0.2157000000000001,-11.778886282676295
-0.2167,-11.996751822855511
-0.21770000000000012,-12.258473413330542
-0.2187,-12.56405105410139
-0.21970000000000012,-12.694204493688973
-0.2207,-12.825772644576423
-0.22170000000000012,-12.694204493688973
-0.2227,-12.520195003805576
-0.22370000000000012,-12.346185513922174
-0.2247,-12.040607873151327
-0.22570000000000012,-12.040607873151327
-0.2267,-11.952895772559694
-0.22770000000000012,-12.170761312738911
-0.22870000000000001,-12.390041564217992
-0.22970000000000013,-12.607907104397206
-0.23070000000000002,-12.955926084164007
-0.23170000000000013,-13.043638184755638
-0.23270000000000002,-13.13135028534727
-0.23370000000000013,-12.99978213445982
-0.23470000000000002,-12.781916594280606
-0.23570000000000013,-12.651763154693022
-0.23670000000000002,-12.432482903213943
-0.2376999999999999,-12.390041564217992
-0.23870000000000002,-12.476338953509758
-0.2396999999999999,-12.651763154693022
-0.24070000000000003,-12.913484745168056
-0.24169999999999991,-13.175206335643086
-0.24270000000000003,-13.436927926118118
-0.24369999999999992,-13.567081365705702
-0.24470000000000003,-13.523225315409885
-0.24569999999999992,-13.3930718758223
-0.24670000000000003,-13.217647674639037
-0.24769999999999992,-12.99978213445982
-0.24870000000000003,-12.913484745168056
-0.24969999999999992,-12.825772644576423
-0.25070000000000003,-12.99978213445982
-0.2516999999999999,-13.261503724934855
-0.25270000000000004,-13.523225315409885
-0.2536999999999999,-13.828802956180734
-0.25470000000000004,-14.002812446064135
-0.2556999999999999,-14.175407224647667
-0.25670000000000004,-14.090524546655764
-0.25769999999999993,-13.916515056772363
-0.25870000000000004,-13.784946905884919
-0.25969999999999993,-13.567081365705702
-0.26070000000000004,-13.523225315409885
-0.26169999999999993,-13.523225315409885
-0.26270000000000004,-13.698649516593148
-0.26369999999999993,-14.002812446064135
-0.26470000000000005,-14.217848563643619
-0.26569999999999994,-14.61396772760583
-0.26670000000000005,-14.741291744593681
-0.26769999999999994,-14.783733083589633
-0.26870000000000005,-14.741291744593681
-0.26969999999999994,-14.61396772760583
-0.27070000000000005,-14.486643710617974
-0.27169999999999994,-14.26028990263957
-0.27270000000000005,-14.217848563643619
-0.27369999999999994,-14.401761032626075
-0.27470000000000006,-14.57152638860988
-0.27569999999999995,-14.868615761581536
-0.27670000000000006,-15.222293586547794
-0.27769999999999995,-15.448647394526201
-0.27870000000000006,-15.70329542850191
-0.27969999999999995,-15.618412750510005
-0.28070000000000006,-15.575971411514052
-0.28169999999999995,-15.448647394526201
-0.28270000000000006,-15.222293586547794
-0.28369999999999995,-15.179852247551842
-0.28470000000000006,-15.179852247551842
-0.28569999999999995,-15.349617603535648
-0.28670000000000007,-15.660854089505953
-0.28769999999999996,-15.972090575476265
-0.28870000000000007,-16.354062626439823
-0.28969999999999996,-16.53797509542228
-0.29070000000000007,-16.70774045140608
-0.29169999999999996,-16.70774045140608
-0.29270000000000007,-16.622857773414182
-0.29369999999999996,-16.495533756426326
-0.2947000000000001,-16.22673860945197
-0.29569999999999996,-16.311621287443874
-0.2967000000000001,-16.354062626439823
-0.29769999999999996,-16.580416434418233
-0.2987000000000001,-16.877505807389888
-0.29969999999999997,-17.231183632356142
-0.3007000000000001,-17.627302796318357
-0.30169999999999997,-17.797068152302163
-0.3027000000000001,-17.881950830294063
-0.30369999999999997,-17.881950830294063
-0.3047000000000001,-17.797068152302163
-0.30569999999999997,-17.669744135314307
-0.3067000000000001,-17.584861457322408
-0.3077,-17.584861457322408
-0.3087000000000001,-17.797068152302163
-0.3097,-18.009274847281915
-0.3107000000000001,-18.40539401124413
-0.3117,-18.80151317520634
-0.3127000000000001,-19.056161209182044
-0.3137,-19.3249563561564
-0.3147000000000001,-19.409839034148305
-0.3157,-19.367397695152352
-0.3167000000000001,-19.3249563561564
-0.3177,-19.112749661176647
-0.3187000000000001,-19.197632339168546
-0.3197,-19.2400736781645
-0.3207000000000001,-19.452280373144255
-0.3217,-19.805958198110513
-0.3227000000000001,-20.159636023076775
-0.3237,-20.626490752032236
-0.3247000000000001,-20.85284456001064
-0.3257,-21.107492593986347
-0.3267000000000001,-21.2065223849769
-0.3277,-21.107492593986347
-0.3287000000000001,-21.065051254990397
-0.3297,-20.93772723800254
-0.3307000000000001,-21.022609915994444
-0.3317,-21.2065223849769
-0.3327000000000001,-21.418729079956652
-0.3337,-21.857289582914817
-0.3347000000000001,-22.253408746877028
-0.3357,-22.67782213683654
-0.3367000000000001,-22.946617283810895
-0.3377,-23.15882397879065
-0.3387000000000001,-23.24370665678255
-0.3397,-23.15882397879065
-0.3407000000000001,-23.15882397879065
-0.3417,-23.15882397879065
-0.3427000000000001,-23.2012653177866
-0.3437,-23.427619125765005
-0.3447000000000001,-23.823738289727217
-0.3457,-24.20571034069078
-0.3467000000000001,-24.686712182644893
-0.3477,-25.04039000761115
-0.3487000000000001,-25.39406783257741
-0.3497,-25.521391849565262
-0.3507000000000001,-25.563833188561212
-0.3517,-25.563833188561212
-0.3527000000000001,-25.521391849565262
-0.3537,-25.60627452755716
-0.3547000000000001,-25.73359854454502
-0.3557,-26.044835030515326
-0.35670000000000013,-26.525836872469437
-0.3577,-26.9643973754276
-0.35870000000000013,-27.487840556377662
-0.3597,-27.827371268345274
-0.36070000000000013,-28.18104909331153
-0.3617,-28.308373110299385
-0.3626999999999999,-28.265931771303435
-0.3637,-28.350814449295335
-0.3646999999999999,-28.308373110299385
-0.3657,-28.478138466283188
-0.3666999999999999,-28.662050935265643
-0.3677,-29.058170099227848
-0.3686999999999999,-29.525024828183312
-0.36970000000000003,-30.04846800913338
-0.3706999999999999,-30.529469851087494
-0.37170000000000003,-30.925589015049702
-0.3726999999999999,-31.19438416202406
-0.37370000000000003,-31.36414951800786
-0.3746999999999999,-31.449032195999767
-0.37570000000000003,-31.49147353499572
-0.3766999999999999,-31.57635621298762
-0.37770000000000004,-31.717827342974125
-0.3786999999999999,-32.05735805494172
-0.37970000000000004,-32.45347721890394
-0.3806999999999999,-32.97692039985401
-0.38170000000000004,-33.54280491980002
-0.38269999999999993,-34.02380676175414
-0.38370000000000004,-34.462367264712285
-0.38469999999999993,-34.67457395969205
-0.38570000000000004,-34.75945663768395
-0.38669999999999993,-34.94336910666641
-0.38770000000000004,-34.98581044566235
-0.38869999999999993,-35.15557580164616
-0.38970000000000005,-35.38192960962457
-0.39069999999999994,-35.848784338580025
-0.39170000000000005,-36.37222751953009
-0.39269999999999994,-36.89567070048016
-0.39370000000000005,-37.51814367242077
-0.39469999999999994,-37.99914551437489
-0.39570000000000005,-38.42355890433439
-0.39669999999999994,-38.692354051308754
-0.39770000000000005,-38.86211940729255
-0.39869999999999994,-38.98944342428042
-0.39970000000000006,-39.08847321527096
-0.40069999999999995,-39.30067991025072
-0.40170000000000006,-39.654357735216976
-0.40269999999999995,-40.177800916167044
-0.40370000000000006,-40.743685436113054
-0.40469999999999995,-41.352011295055014
-0.40570000000000006,-42.00277849299294
-0.40669999999999995,-42.526221673943
-0.40770000000000006,-42.87989949890926
-0.40869999999999995,-43.134547532884966
-0.40970000000000006,-43.31846000186743
-0.41069999999999995,-43.48822535785123
-0.41170000000000007,-43.70043205283099
-0.41269999999999996,-44.011668538801295
-0.41370000000000007,-44.4926703807554
-0.41469999999999996,-45.05855490070142
-0.41570000000000007,-45.666880759643384
-0.41669999999999996,-46.37423640957591
-0.41770000000000007,-46.982562268517874
-0.41869999999999996,-47.506005449467935
-0.4197000000000001,-47.8879775004315
-0.42069999999999996,-48.1992139864018
-0.4217000000000001,-48.45386202037751
-0.42269999999999996,-48.59533315036401
-0.4237000000000001,-48.89242252333566
-0.42469999999999997,-49.28854168729788
-0.4257000000000001,-49.85442620724389
-0.42669999999999997,-50.46275206618586
-0.4277000000000001,-51.21254905511432
-0.42869999999999997,-51.990640270040096
-0.4297000000000001,-52.59896612898206
-0.43069999999999997,-53.12240930993213
-0.4317000000000001,-53.518528473894335
-0.4327,-53.82976495986464
-0.4337000000000001,-54.1268543328363
-0.4347,-54.31076680181876
-0.4357000000000001,-54.791768643772876
-0.4367,-55.25862337272834
-0.4377000000000001,-55.9235376836649
-0.4387,-56.57430488160282
-0.4397000000000001,-57.352396096528594
-0.4407,-58.14463442445301
-0.4417000000000001,-58.79540162239092
-0.4427,-59.31884480334099
-0.4437000000000001,-59.757405306299155
-0.4447,-60.11108313126541
-0.4457000000000001,-60.40817250423707
-0.4467,-60.761850329203334
-0.4477000000000001,-61.20041083216149
-0.4487,-61.7662953521075
-0.4497000000000001,-62.459503889041365
-0.4507,-63.251742216965795
-0.4517000000000001,-64.11471610988345
-0.4527,-64.86451309881193
-0.4537000000000001,-65.5577216357458
-0.4547,-66.12360615569182
-0.4557000000000001,-66.56216665864997
-0.4567,-67.00072716160814
-0.4577000000000001,-67.34025787357575
-0.4587,-67.82125971552985
-0.4597000000000001,-68.34470289647993
-0.4607,-69.05205854641244
-0.4617000000000001,-69.8301497613382
-0.4627,-70.70727076725453
-0.4637000000000001,-71.58439177317086
-0.4647,-72.32004164910067
-0.4657000000000001,-73.09813286402644
-0.4667,-73.62157604497652
-0.4677000000000001,-74.06013654793468
-0.4687,-74.45625571189689
-0.4697000000000001,-74.89481621485504
-0.4707,-75.46070073480107
-0.4717000000000001,-76.06902659374302
-0.4727,-76.9037062606634
-0.4737000000000001,-77.80912149257702
-0.4747,-78.72868383748929
-0.4757000000000001,-79.64824618240156
-0.4767,-80.46877873632329
-0.4777000000000001,-81.21857572525175
-0.4787,-81.78446024519776
-0.4797000000000001,-82.26546208715187
-0.4807,-82.78890526810196
-0.48170000000000013,-83.31234844905201
-0.4827,-83.92067430799398
-0.48370000000000013,-84.57144150593189
-0.4847,-85.49100385084417
-0.48570000000000013,-86.49544887374834
-0.4867,-86.18421238777805
-0.48570000000000013,-84.09043966397778
-0.4847,-82.47766878213164
-0.48370000000000013,-80.90733923928146
-0.4827,-79.42189237442317
-0.48170000000000013,-77.99303396155948
-0.4807,-76.5924697746931
-0.4797000000000001,-75.4182593958051
-0.4787,-74.28649035591307
-0.4777000000000001,-73.40936934999675
-0.4767,-72.71616081306288
-0.4757000000000001,-72.00880516313036
-0.4747,-71.4004793041884
-0.4737000000000001,-70.70727076725453
-0.4727,-69.95747377832606
-0.4717000000000001,-69.05205854641244
-0.4707,-68.0051721845123
-0.4697000000000001,-67.00072716160814
-0.4687,-65.95384079970802
-0.4677000000000001,-65.11916113278764
-0.4667,-64.19959878787537
-0.4657000000000001,-63.59127292893339
-0.4647,-63.02538840898739
