Jan. 8, 2025   02:00:13
Cyclic Voltammetry
File: c:/users/guazh/data/banditlqround7_x0exp772_r5/2025-01-07-exp793\exp793-2025-01-08t01_47_57-arkoh\exp793_cv_sr_800mvs_efin_-1500mv.bin
Data Source:  Experiment
Instrument Model:  CHI760E
Header: CV ran at 800 mVs
Note: 

Init E (V) = -1
High E (V) = -1
Low E (V) = -1.5
Final E (V) = -1
Init P/N = N
Scan Rate (V/s) = 0.8
Segment = 3
Sample Interval (V) = 0.001
Quiet Time (sec) = 2
Sensitivity (A/V) = 0.01
Comp R (ohm) = 1.4

Results:

Channel 1:
Segment 1:

Segment 2:

Segment 3:

Potential/V, Current/A

-1.000, -1.526e-5
-1.001, 1.019e-4
-1.002, 1.913e-4
-1.003, 2.746e-4
-1.004, 3.455e-4
-1.005, 4.133e-4
-1.006, 4.595e-4
-1.007, 5.058e-4
-1.008, 5.305e-4
-1.009, 5.459e-4
-1.010, 5.551e-4
-1.011, 5.582e-4
-1.012, 5.736e-4
-1.013, 5.859e-4
-1.014, 6.014e-4
-1.015, 6.199e-4
-1.016, 6.445e-4
-1.017, 6.692e-4
-1.018, 7.031e-4
-1.019, 7.124e-4
-1.020, 7.247e-4
-1.021, 7.247e-4
-1.022, 7.247e-4
-1.023, 7.154e-4
-1.024, 7.093e-4
-1.025, 6.969e-4
-1.026, 6.969e-4
-1.027, 6.969e-4
-1.028, 7.031e-4
-1.029, 7.247e-4
-1.030, 7.432e-4
-1.031, 7.586e-4
-1.032, 7.679e-4
-1.033, 7.771e-4
-1.034, 7.771e-4
-1.035, 7.771e-4
-1.036, 7.648e-4
-1.037, 7.494e-4
-1.038, 7.339e-4
-1.039, 7.339e-4
-1.040, 7.278e-4
-1.041, 7.370e-4
-1.042, 7.463e-4
-1.043, 7.617e-4
-1.044, 7.802e-4
-1.045, 7.956e-4
-1.046, 8.018e-4
-1.047, 8.079e-4
-1.048, 8.018e-4
-1.049, 7.863e-4
-1.050, 7.740e-4
-1.051, 7.617e-4
-1.052, 7.555e-4
-1.053, 7.494e-4
-1.054, 7.494e-4
-1.055, 7.586e-4
-1.056, 7.740e-4
-1.057, 7.894e-4
-1.058, 8.079e-4
-1.059, 8.141e-4
-1.060, 8.233e-4
-1.061, 8.172e-4
-1.062, 8.079e-4
-1.063, 7.925e-4
-1.064, 7.833e-4
-1.065, 7.679e-4
-1.066, 7.617e-4
-1.067, 7.586e-4
-1.068, 7.709e-4
-1.069, 7.802e-4
-1.070, 7.987e-4
-1.071, 8.141e-4
-1.072, 8.233e-4
-1.073, 8.357e-4
-1.074, 8.295e-4
-1.075, 8.233e-4
-1.076, 8.110e-4
-1.077, 7.987e-4
-1.078, 7.833e-4
-1.079, 7.802e-4
-1.080, 7.679e-4
-1.081, 7.771e-4
-1.082, 7.894e-4
-1.083, 8.048e-4
-1.084, 8.172e-4
-1.085, 8.357e-4
-1.086, 8.388e-4
-1.087, 8.480e-4
-1.088, 8.388e-4
-1.089, 8.264e-4
-1.090, 8.141e-4
-1.091, 7.956e-4
-1.092, 7.894e-4
-1.093, 7.833e-4
-1.094, 7.894e-4
-1.095, 7.956e-4
-1.096, 8.079e-4
-1.097, 8.203e-4
-1.098, 8.418e-4
-1.099, 8.511e-4
-1.100, 8.603e-4
-1.101, 8.480e-4
-1.102, 8.388e-4
-1.103, 8.295e-4
-1.104, 8.172e-4
-1.105, 8.018e-4
-1.106, 7.925e-4
-1.107, 7.925e-4
-1.108, 7.987e-4
-1.109, 8.141e-4
-1.110, 8.264e-4
-1.111, 8.480e-4
-1.112, 8.542e-4
-1.113, 8.634e-4
-1.114, 8.603e-4
-1.115, 8.542e-4
-1.116, 8.449e-4
-1.117, 8.295e-4
-1.118, 8.110e-4
-1.119, 8.048e-4
-1.120, 8.018e-4
-1.121, 8.110e-4
-1.122, 8.233e-4
-1.123, 8.357e-4
-1.124, 8.511e-4
-1.125, 8.665e-4
-1.126, 8.727e-4
-1.127, 8.788e-4
-1.128, 8.727e-4
-1.129, 8.573e-4
-1.130, 8.480e-4
-1.131, 8.326e-4
-1.132, 8.203e-4
-1.133, 8.172e-4
-1.134, 8.203e-4
-1.135, 8.264e-4
-1.136, 8.388e-4
-1.137, 8.573e-4
-1.138, 8.788e-4
-1.139, 8.850e-4
-1.140, 8.850e-4
-1.141, 8.788e-4
-1.142, 8.758e-4
-1.143, 8.634e-4
-1.144, 8.480e-4
-1.145, 8.326e-4
-1.146, 8.295e-4
-1.147, 8.264e-4
-1.148, 8.388e-4
-1.149, 8.480e-4
-1.150, 8.665e-4
-1.151, 8.819e-4
-1.152, 8.912e-4
-1.153, 9.004e-4
-1.154, 8.973e-4
-1.155, 8.943e-4
-1.156, 8.819e-4
-1.157, 8.665e-4
-1.158, 8.449e-4
-1.159, 8.449e-4
-1.160, 8.388e-4
-1.161, 8.449e-4
-1.162, 8.542e-4
-1.163, 8.727e-4
-1.164, 8.881e-4
-1.165, 9.097e-4
-1.166, 9.066e-4
-1.167, 9.128e-4
-1.168, 9.097e-4
-1.169, 8.943e-4
-1.170, 8.819e-4
-1.171, 8.634e-4
-1.172, 8.603e-4
-1.173, 8.511e-4
-1.174, 8.573e-4
-1.175, 8.634e-4
-1.176, 8.819e-4
-1.177, 8.912e-4
-1.178, 9.158e-4
-1.179, 9.189e-4
-1.180, 9.282e-4
-1.181, 9.220e-4
-1.182, 9.158e-4
-1.183, 9.004e-4
-1.184, 8.881e-4
-1.185, 8.727e-4
-1.186, 8.727e-4
-1.187, 8.665e-4
-1.188, 8.727e-4
-1.189, 8.881e-4
-1.190, 9.035e-4
-1.191, 9.282e-4
-1.192, 9.282e-4
-1.193, 9.374e-4
-1.194, 9.374e-4
-1.195, 9.313e-4
-1.196, 9.220e-4
-1.197, 9.066e-4
-1.198, 8.912e-4
-1.199, 8.881e-4
-1.200, 8.819e-4
-1.201, 8.881e-4
-1.202, 9.035e-4
-1.203, 9.189e-4
-1.204, 9.282e-4
-1.205, 9.467e-4
-1.206, 9.559e-4
-1.207, 9.621e-4
-1.208, 9.590e-4
-1.209, 9.405e-4
-1.210, 9.282e-4
-1.211, 9.128e-4
-1.212, 9.097e-4
-1.213, 9.004e-4
-1.214, 9.066e-4
-1.215, 9.128e-4
-1.216, 9.282e-4
-1.217, 9.467e-4
-1.218, 9.652e-4
-1.219, 9.744e-4
-1.220, 9.806e-4
-1.221, 9.744e-4
-1.222, 9.652e-4
-1.223, 9.559e-4
-1.224, 9.467e-4
-1.225, 9.313e-4
-1.226, 9.251e-4
-1.227, 9.220e-4
-1.228, 9.343e-4
-1.229, 9.559e-4
-1.230, 9.652e-4
-1.231, 9.837e-4
-1.232, 9.960e-4
-1.233, 1.005e-3
-1.234, 1.005e-3
-1.235, 9.960e-4
-1.236, 9.868e-4
-1.237, 9.744e-4
-1.238, 9.559e-4
-1.239, 9.528e-4
-1.240, 9.498e-4
-1.241, 9.621e-4
-1.242, 9.713e-4
-1.243, 9.868e-4
-1.244, 1.002e-3
-1.245, 1.021e-3
-1.246, 1.027e-3
-1.247, 1.036e-3
-1.248, 1.030e-3
-1.249, 1.021e-3
-1.250, 1.011e-3
-1.251, 9.960e-4
-1.252, 9.898e-4
-1.253, 9.806e-4
-1.254, 9.898e-4
-1.255, 1.002e-3
-1.256, 1.014e-3
-1.257, 1.033e-3
-1.258, 1.055e-3
-1.259, 1.061e-3
-1.260, 1.076e-3
-1.261, 1.067e-3
-1.262, 1.061e-3
-1.263, 1.051e-3
-1.264, 1.042e-3
-1.265, 1.030e-3
-1.266, 1.030e-3
-1.267, 1.030e-3
-1.268, 1.039e-3
-1.269, 1.058e-3
-1.270, 1.070e-3
-1.271, 1.098e-3
-1.272, 1.110e-3
-1.273, 1.119e-3
-1.274, 1.119e-3
-1.275, 1.116e-3
-1.276, 1.110e-3
-1.277, 1.101e-3
-1.278, 1.085e-3
-1.279, 1.082e-3
-1.280, 1.082e-3
-1.281, 1.098e-3
-1.282, 1.107e-3
-1.283, 1.125e-3
-1.284, 1.147e-3
-1.285, 1.166e-3
-1.286, 1.178e-3
-1.287, 1.187e-3
-1.288, 1.187e-3
-1.289, 1.178e-3
-1.290, 1.169e-3
-1.291, 1.153e-3
-1.292, 1.153e-3
-1.293, 1.153e-3
-1.294, 1.162e-3
-1.295, 1.175e-3
-1.296, 1.187e-3
-1.297, 1.212e-3
-1.298, 1.236e-3
-1.299, 1.249e-3
-1.300, 1.258e-3
-1.301, 1.258e-3
-1.302, 1.255e-3
-1.303, 1.252e-3
-1.304, 1.243e-3
-1.305, 1.233e-3
-1.306, 1.236e-3
-1.307, 1.233e-3
-1.308, 1.249e-3
-1.309, 1.270e-3
-1.310, 1.292e-3
-1.311, 1.317e-3
-1.312, 1.332e-3
-1.313, 1.344e-3
-1.314, 1.351e-3
-1.315, 1.357e-3
-1.316, 1.351e-3
-1.317, 1.341e-3
-1.318, 1.329e-3
-1.319, 1.335e-3
-1.320, 1.338e-3
-1.321, 1.357e-3
-1.322, 1.372e-3
-1.323, 1.394e-3
-1.324, 1.418e-3
-1.325, 1.440e-3
-1.326, 1.458e-3
-1.327, 1.471e-3
-1.328, 1.474e-3
-1.329, 1.471e-3
-1.330, 1.468e-3
-1.331, 1.462e-3
-1.332, 1.465e-3
-1.333, 1.465e-3
-1.334, 1.477e-3
-1.335, 1.492e-3
-1.336, 1.520e-3
-1.337, 1.545e-3
-1.338, 1.579e-3
-1.339, 1.588e-3
-1.340, 1.610e-3
-1.341, 1.613e-3
-1.342, 1.616e-3
-1.343, 1.613e-3
-1.344, 1.613e-3
-1.345, 1.606e-3
-1.346, 1.619e-3
-1.347, 1.625e-3
-1.348, 1.640e-3
-1.349, 1.668e-3
-1.350, 1.696e-3
-1.351, 1.724e-3
-1.352, 1.748e-3
-1.353, 1.770e-3
-1.354, 1.779e-3
-1.355, 1.788e-3
-1.356, 1.785e-3
-1.357, 1.788e-3
-1.358, 1.785e-3
-1.359, 1.791e-3
-1.360, 1.801e-3
-1.361, 1.819e-3
-1.362, 1.847e-3
-1.363, 1.878e-3
-1.364, 1.906e-3
-1.365, 1.930e-3
-1.366, 1.955e-3
-1.367, 1.976e-3
-1.368, 1.983e-3
-1.369, 1.989e-3
-1.370, 1.989e-3
-1.371, 1.986e-3
-1.372, 2.001e-3
-1.373, 2.007e-3
-1.374, 2.026e-3
-1.375, 2.054e-3
-1.376, 2.078e-3
-1.377, 2.112e-3
-1.378, 2.146e-3
-1.379, 2.171e-3
-1.380, 2.195e-3
-1.381, 2.208e-3
-1.382, 2.214e-3
-1.383, 2.223e-3
-1.384, 2.229e-3
-1.385, 2.232e-3
-1.386, 2.245e-3
-1.387, 2.257e-3
-1.388, 2.285e-3
-1.389, 2.319e-3
-1.390, 2.353e-3
-1.391, 2.386e-3
-1.392, 2.417e-3
-1.393, 2.445e-3
-1.394, 2.464e-3
-1.395, 2.479e-3
-1.396, 2.488e-3
-1.397, 2.497e-3
-1.398, 2.501e-3
-1.399, 2.513e-3
-1.400, 2.525e-3
-1.401, 2.562e-3
-1.402, 2.593e-3
-1.403, 2.624e-3
-1.404, 2.661e-3
-1.405, 2.704e-3
-1.406, 2.729e-3
-1.407, 2.763e-3
-1.408, 2.775e-3
-1.409, 2.787e-3
-1.410, 2.797e-3
-1.411, 2.806e-3
-1.412, 2.821e-3
-1.413, 2.843e-3
-1.414, 2.867e-3
-1.415, 2.904e-3
-1.416, 2.941e-3
-1.417, 2.978e-3
-1.418, 3.028e-3
-1.419, 3.059e-3
-1.420, 3.089e-3
-1.421, 3.111e-3
-1.422, 3.133e-3
-1.423, 3.148e-3
-1.424, 3.167e-3
-1.425, 3.173e-3
-1.426, 3.197e-3
-1.427, 3.222e-3
-1.428, 3.259e-3
-1.429, 3.302e-3
-1.430, 3.342e-3
-1.431, 3.392e-3
-1.432, 3.429e-3
-1.433, 3.469e-3
-1.434, 3.493e-3
-1.435, 3.524e-3
-1.436, 3.543e-3
-1.437, 3.555e-3
-1.438, 3.567e-3
-1.439, 3.595e-3
-1.440, 3.626e-3
-1.441, 3.666e-3
-1.442, 3.706e-3
-1.443, 3.749e-3
-1.444, 3.799e-3
-1.445, 3.845e-3
-1.446, 3.885e-3
-1.447, 3.925e-3
-1.448, 3.956e-3
-1.449, 3.977e-3
-1.450, 4.002e-3
-1.451, 4.017e-3
-1.452, 4.045e-3
-1.453, 4.076e-3
-1.454, 4.116e-3
-1.455, 4.159e-3
-1.456, 4.209e-3
-1.457, 4.258e-3
-1.458, 4.317e-3
-1.459, 4.363e-3
-1.460, 4.403e-3
-1.461, 4.434e-3
-1.462, 4.461e-3
-1.463, 4.489e-3
-1.464, 4.520e-3
-1.465, 4.548e-3
-1.466, 4.585e-3
-1.467, 4.625e-3
-1.468, 4.668e-3
-1.469, 4.717e-3
-1.470, 4.779e-3
-1.471, 4.838e-3
-1.472, 4.887e-3
-1.473, 4.933e-3
-1.474, 4.973e-3
-1.475, 5.010e-3
-1.476, 5.044e-3
-1.477, 5.072e-3
-1.478, 5.100e-3
-1.479, 5.140e-3
-1.480, 5.174e-3
-1.481, 5.226e-3
-1.482, 5.278e-3
-1.483, 5.340e-3
-1.484, 5.396e-3
-1.485, 5.460e-3
-1.486, 5.510e-3
-1.487, 5.568e-3
-1.488, 5.611e-3
-1.489, 5.642e-3
-1.490, 5.679e-3
-1.491, 5.707e-3
-1.492, 5.753e-3
-1.493, 5.796e-3
-1.494, 5.846e-3
-1.495, 5.898e-3
-1.496, 5.963e-3
-1.497, 6.031e-3
-1.498, 6.099e-3
-1.499, 6.154e-3
-1.500, 6.123e-3
-1.499, 5.947e-3
-1.498, 5.812e-3
-1.497, 5.682e-3
-1.496, 5.574e-3
-1.495, 5.470e-3
-1.494, 5.380e-3
-1.493, 5.300e-3
-1.492, 5.229e-3
-1.491, 5.180e-3
-1.490, 5.124e-3
-1.489, 5.078e-3
-1.488, 5.019e-3
-1.487, 4.970e-3
-1.486, 4.908e-3
-1.485, 4.847e-3
-1.484, 4.773e-3
-1.483, 4.702e-3
-1.482, 4.628e-3
-1.481, 4.569e-3
-1.480, 4.505e-3
-1.479, 4.455e-3
-1.478, 4.412e-3
-1.477, 4.372e-3
-1.476, 4.332e-3
-1.475, 4.298e-3
-1.474, 4.249e-3
-1.473, 4.202e-3
-1.472, 4.147e-3
-1.471, 4.076e-3
-1.470, 4.017e-3
-1.469, 3.950e-3
-1.468, 3.888e-3
-1.467, 3.829e-3
-1.466, 3.786e-3
-1.465, 3.740e-3
-1.464, 3.709e-3
-1.463, 3.672e-3
-1.462, 3.638e-3
-1.461, 3.601e-3
-1.460, 3.558e-3
-1.459, 3.506e-3
-1.458, 3.450e-3
-1.457, 3.392e-3
-1.456, 3.333e-3
-1.455, 3.274e-3
-1.454, 3.219e-3
-1.453, 3.170e-3
-1.452, 3.130e-3
-1.451, 3.099e-3
-1.450, 3.068e-3
-1.449, 3.043e-3
-1.448, 3.006e-3
-1.447, 2.972e-3
-1.446, 2.923e-3
-1.445, 2.867e-3
-1.444, 2.818e-3
-1.443, 2.766e-3
-1.442, 2.701e-3
-1.441, 2.655e-3
-1.440, 2.605e-3
-1.439, 2.575e-3
-1.438, 2.544e-3
-1.437, 2.513e-3
-1.436, 2.485e-3
-1.435, 2.464e-3
-1.434, 2.427e-3
-1.433, 2.390e-3
-1.432, 2.349e-3
-1.431, 2.294e-3
-1.430, 2.242e-3
-1.429, 2.189e-3
-1.428, 2.140e-3
-1.427, 2.100e-3
-1.426, 2.066e-3
-1.425, 2.032e-3
-1.424, 2.010e-3
-1.423, 1.986e-3
-1.422, 1.970e-3
-1.421, 1.943e-3
-1.420, 1.912e-3
-1.419, 1.865e-3
-1.418, 1.828e-3
-1.417, 1.782e-3
-1.416, 1.733e-3
-1.415, 1.684e-3
-1.414, 1.643e-3
-1.413, 1.606e-3
-1.412, 1.579e-3
-1.411, 1.560e-3
-1.410, 1.539e-3
-1.409, 1.526e-3
-1.408, 1.502e-3
-1.407, 1.477e-3
-1.406, 1.440e-3
-1.405, 1.406e-3
-1.404, 1.363e-3
-1.403, 1.323e-3
-1.402, 1.264e-3
-1.401, 1.233e-3
-1.400, 1.199e-3
-1.399, 1.178e-3
-1.398, 1.156e-3
-1.397, 1.141e-3
-1.396, 1.125e-3
-1.395, 1.113e-3
-1.394, 1.092e-3
-1.393, 1.064e-3
-1.392, 1.033e-3
-1.391, 9.929e-4
-1.390, 9.528e-4
-1.389, 9.066e-4
-1.388, 8.727e-4
-1.387, 8.388e-4
-1.386, 8.172e-4
-1.385, 7.956e-4
-1.384, 7.833e-4
-1.383, 7.709e-4
-1.382, 7.648e-4
-1.381, 7.432e-4
-1.380, 7.278e-4
-1.379, 6.969e-4
-1.378, 6.630e-4
-1.377, 6.291e-4
-1.376, 5.859e-4
-1.375, 5.520e-4
-1.374, 5.212e-4
-1.373, 4.965e-4
-1.372, 4.780e-4
-1.371, 4.688e-4
-1.370, 4.626e-4
-1.369, 4.595e-4
-1.368, 4.441e-4
-1.367, 4.287e-4
-1.366, 4.071e-4
-1.365, 3.794e-4
-1.364, 3.424e-4
-1.363, 3.115e-4
-1.362, 2.715e-4
-1.361, 2.468e-4
-1.360, 2.221e-4
-1.359, 2.036e-4
-1.358, 1.975e-4
-1.357, 1.944e-4
-1.356, 1.851e-4
-1.355, 1.821e-4
-1.354, 1.666e-4
-1.353, 1.543e-4
-1.352, 1.296e-4
-1.351, 9.882e-5
-1.350, 6.490e-5
-1.349, 3.407e-5
-1.348, 6.322e-6
-1.347, -1.526e-5
-1.346, -2.759e-5
-1.345, -3.992e-5
-1.344, -4.301e-5
-1.343, -4.301e-5
-1.342, -4.301e-5
-1.341, -5.534e-5
-1.340, -6.151e-5
-1.339, -8.617e-5
-1.338, -1.139e-4
-1.337, -1.417e-4
-1.336, -1.694e-4
-1.335, -1.972e-4
-1.334, -2.126e-4
-1.333, -2.372e-4
-1.332, -2.434e-4
-1.331, -2.434e-4
-1.330, -2.434e-4
-1.329, -2.403e-4
-1.328, -2.465e-4
-1.327, -2.527e-4
-1.326, -2.681e-4
-1.325, -2.866e-4
-1.324, -3.174e-4
-1.323, -3.390e-4
-1.322, -3.729e-4
-1.321, -3.883e-4
-1.320, -4.068e-4
-1.319, -4.099e-4
-1.318, -4.099e-4
-1.317, -4.099e-4
-1.316, -4.130e-4
-1.315, -4.068e-4
-1.314, -4.099e-4
-1.313, -4.191e-4
-1.312, -4.346e-4
-1.311, -4.623e-4
-1.310, -4.839e-4
-1.309, -5.116e-4
-1.308, -5.271e-4
-1.307, -5.486e-4
-1.306, -5.517e-4
-1.305, -5.548e-4
-1.304, -5.517e-4
-1.303, -5.486e-4
-1.302, -5.394e-4
-1.301, -5.456e-4
-1.300, -5.456e-4
-1.299, -5.610e-4
-1.298, -5.856e-4
-1.297, -6.011e-4
-1.296, -6.226e-4
-1.295, -6.504e-4
-1.294, -6.627e-4
-1.293, -6.750e-4
-1.292, -6.781e-4
-1.291, -6.658e-4
-1.290, -6.658e-4
-1.289, -6.565e-4
-1.288, -6.535e-4
-1.287, -6.565e-4
-1.286, -6.658e-4
-1.285, -6.812e-4
-1.284, -6.997e-4
-1.283, -7.182e-4
-1.282, -7.460e-4
-1.281, -7.614e-4
-1.280, -7.737e-4
-1.279, -7.737e-4
-1.278, -7.706e-4
-1.277, -7.614e-4
-1.276, -7.552e-4
-1.275, -7.460e-4
-1.274, -7.429e-4
-1.273, -7.490e-4
-1.272, -7.645e-4
-1.271, -7.799e-4
-1.270, -7.953e-4
-1.269, -8.230e-4
-1.268, -8.385e-4
-1.267, -8.508e-4
-1.266, -8.508e-4
-1.265, -8.477e-4
-1.264, -8.415e-4
-1.263, -8.354e-4
-1.262, -8.200e-4
-1.261, -8.169e-4
-1.260, -8.200e-4
-1.259, -8.292e-4
-1.258, -8.446e-4
-1.257, -8.631e-4
-1.256, -8.785e-4
-1.255, -9.032e-4
-1.254, -9.063e-4
-1.253, -9.155e-4
-1.252, -9.155e-4
-1.251, -9.063e-4
-1.250, -8.939e-4
-1.249, -8.785e-4
-1.248, -8.754e-4
-1.247, -8.754e-4
-1.246, -8.847e-4
-1.245, -8.909e-4
-1.244, -9.094e-4
-1.243, -9.248e-4
-1.242, -9.525e-4
-1.241, -9.587e-4
-1.240, -9.679e-4
-1.239, -9.618e-4
-1.238, -9.587e-4
-1.237, -9.494e-4
-1.236, -9.371e-4
-1.235, -9.279e-4
-1.234, -9.248e-4
-1.233, -9.248e-4
-1.232, -9.309e-4
-1.231, -9.494e-4
-1.230, -9.649e-4
-1.229, -9.926e-4
-1.228, -9.988e-4
-1.227, -1.008e-3
-1.226, -1.008e-3
-1.225, -1.002e-3
-1.224, -9.926e-4
-1.223, -9.803e-4
-1.222, -9.587e-4
-1.221, -9.587e-4
-1.220, -9.556e-4
-1.219, -9.649e-4
-1.218, -9.803e-4
-1.217, -9.926e-4
-1.216, -1.011e-3
-1.215, -1.027e-3
-1.214, -1.033e-3
-1.213, -1.039e-3
-1.212, -1.036e-3
-1.211, -1.020e-3
-1.210, -1.005e-3
-1.209, -9.926e-4
-1.208, -9.864e-4
-1.207, -9.834e-4
-1.206, -9.864e-4
-1.205, -9.957e-4
-1.204, -1.011e-3
-1.203, -1.033e-3
-1.202, -1.048e-3
-1.201, -1.054e-3
-1.200, -1.064e-3
-1.199, -1.057e-3
-1.198, -1.048e-3
-1.197, -1.036e-3
-1.196, -1.023e-3
-1.195, -1.011e-3
-1.194, -1.008e-3
-1.193, -1.005e-3
-1.192, -1.011e-3
-1.191, -1.030e-3
-1.190, -1.042e-3
-1.189, -1.060e-3
-1.188, -1.070e-3
-1.187, -1.076e-3
-1.186, -1.076e-3
-1.185, -1.067e-3
-1.184, -1.054e-3
-1.183, -1.042e-3
-1.182, -1.023e-3
-1.181, -1.023e-3
-1.180, -1.014e-3
-1.179, -1.020e-3
-1.178, -1.036e-3
-1.177, -1.054e-3
-1.176, -1.064e-3
-1.175, -1.079e-3
-1.174, -1.085e-3
-1.173, -1.091e-3
-1.172, -1.085e-3
-1.171, -1.070e-3
-1.170, -1.057e-3
-1.169, -1.042e-3
-1.168, -1.036e-3
-1.167, -1.027e-3
-1.166, -1.036e-3
-1.165, -1.042e-3
-1.164, -1.057e-3
-1.163, -1.070e-3
-1.162, -1.088e-3
-1.161, -1.094e-3
-1.160, -1.104e-3
-1.159, -1.094e-3
-1.158, -1.082e-3
-1.157, -1.070e-3
-1.156, -1.060e-3
-1.155, -1.048e-3
-1.154, -1.042e-3
-1.153, -1.039e-3
-1.152, -1.045e-3
-1.151, -1.060e-3
-1.150, -1.073e-3
-1.149, -1.091e-3
-1.148, -1.097e-3
-1.147, -1.107e-3
-1.146, -1.101e-3
-1.145, -1.094e-3
-1.144, -1.082e-3
-1.143, -1.073e-3
-1.142, -1.054e-3
-1.141, -1.045e-3
-1.140, -1.042e-3
-1.139, -1.051e-3
-1.138, -1.064e-3
-1.137, -1.076e-3
-1.136, -1.088e-3
-1.135, -1.104e-3
-1.134, -1.113e-3
-1.133, -1.113e-3
-1.132, -1.110e-3
-1.131, -1.094e-3
-1.130, -1.082e-3
-1.129, -1.064e-3
-1.128, -1.057e-3
-1.127, -1.051e-3
-1.126, -1.057e-3
-1.125, -1.067e-3
-1.124, -1.079e-3
-1.123, -1.091e-3
-1.122, -1.116e-3
-1.121, -1.119e-3
-1.120, -1.122e-3
-1.119, -1.116e-3
-1.118, -1.104e-3
-1.117, -1.097e-3
-1.116, -1.085e-3
-1.115, -1.067e-3
-1.114, -1.064e-3
-1.113, -1.060e-3
-1.112, -1.067e-3
-1.111, -1.082e-3
-1.110, -1.094e-3
-1.109, -1.113e-3
-1.108, -1.122e-3
-1.107, -1.128e-3
-1.106, -1.125e-3
-1.105, -1.119e-3
-1.104, -1.107e-3
-1.103, -1.094e-3
-1.102, -1.073e-3
-1.101, -1.070e-3
-1.100, -1.067e-3
-1.099, -1.076e-3
-1.098, -1.085e-3
-1.097, -1.097e-3
-1.096, -1.113e-3
-1.095, -1.131e-3
-1.094, -1.138e-3
-1.093, -1.138e-3
-1.092, -1.128e-3
-1.091, -1.119e-3
-1.090, -1.107e-3
-1.089, -1.088e-3
-1.088, -1.082e-3
-1.087, -1.076e-3
-1.086, -1.082e-3
-1.085, -1.088e-3
-1.084, -1.104e-3
-1.083, -1.116e-3
-1.082, -1.141e-3
-1.081, -1.144e-3
-1.080, -1.150e-3
-1.079, -1.147e-3
-1.078, -1.134e-3
-1.077, -1.119e-3
-1.076, -1.110e-3
-1.075, -1.097e-3
-1.074, -1.091e-3
-1.073, -1.094e-3
-1.072, -1.097e-3
-1.071, -1.113e-3
-1.070, -1.128e-3
-1.069, -1.147e-3
-1.068, -1.153e-3
-1.067, -1.162e-3
-1.066, -1.156e-3
-1.065, -1.150e-3
-1.064, -1.141e-3
-1.063, -1.128e-3
-1.062, -1.107e-3
-1.061, -1.107e-3
-1.060, -1.101e-3
-1.059, -1.107e-3
-1.058, -1.119e-3
-1.057, -1.134e-3
-1.056, -1.153e-3
-1.055, -1.165e-3
-1.054, -1.171e-3
-1.053, -1.178e-3
-1.052, -1.175e-3
-1.051, -1.159e-3
-1.050, -1.144e-3
-1.049, -1.125e-3
-1.048, -1.125e-3
-1.047, -1.119e-3
-1.046, -1.125e-3
-1.045, -1.134e-3
-1.044, -1.147e-3
-1.043, -1.162e-3
-1.042, -1.184e-3
-1.041, -1.190e-3
-1.040, -1.193e-3
-1.039, -1.193e-3
-1.038, -1.181e-3
-1.037, -1.168e-3
-1.036, -1.156e-3
-1.035, -1.147e-3
-1.034, -1.141e-3
-1.033, -1.141e-3
-1.032, -1.147e-3
-1.031, -1.162e-3
-1.030, -1.181e-3
-1.029, -1.196e-3
-1.028, -1.205e-3
-1.027, -1.215e-3
-1.026, -1.212e-3
-1.025, -1.208e-3
-1.024, -1.199e-3
-1.023, -1.184e-3
-1.022, -1.168e-3
-1.021, -1.165e-3
-1.020, -1.162e-3
-1.019, -1.171e-3
-1.018, -1.187e-3
-1.017, -1.199e-3
-1.016, -1.215e-3
-1.015, -1.230e-3
-1.014, -1.239e-3
-1.013, -1.245e-3
-1.012, -1.239e-3
-1.011, -1.227e-3
-1.010, -1.215e-3
-1.009, -1.199e-3
-1.008, -1.193e-3
-1.007, -1.190e-3
-1.006, -1.193e-3
-1.005, -1.202e-3
-1.004, -1.224e-3
-1.003, -1.236e-3
-1.002, -1.258e-3
-1.001, -1.264e-3
