Potential V vs RHE, Current mA cm-2
0.013299999999999867,-0.3511313446265021
0.012299999999999978,-2.2706116362833835
0.011299999999999866,-3.579219588658543
0.010299999999999976,-4.756259390146253
0.009299999999999864,-5.497568111275533
0.008299999999999974,-6.196435493408861
0.007299999999999862,-6.719878674358924
0.006299999999999972,-7.155609754717355
0.00529999999999986,-7.461187395488204
0.0042999999999999705,-7.853062425550818
0.0032999999999998586,-8.158640066321666
0.0022999999999999687,-8.508073757388331
0.0012999999999998568,-8.85609273715513
0.00029999999999996696,-9.335679867809377
-0.000700000000000145,-9.772825659467674
-0.0017000000000000348,-10.208556739826104
-0.0027000000000001467,-10.644287820184536
-0.0037000000000000366,-10.906009410659568
-0.0047000000000001485,-11.1677310011346
-0.005700000000000038,-11.123874950838783
-0.00670000000000015,-11.1677310011346
-0.00770000000000004,-11.123874950838783
-0.008700000000000152,-11.081433611842833
-0.009700000000000042,-10.863568071663616
-0.010700000000000154,-10.906009410659568
-0.011700000000000044,-10.906009410659568
-0.012700000000000156,-10.993721511251199
-0.013700000000000045,-11.1677310011346
-0.014700000000000157,-11.385596541313816
-0.015700000000000047,-11.56102074249708
-0.01670000000000016,-11.82274233297211
-0.01770000000000005,-12.12831997374296
-0.01870000000000016,-12.258473413330542
-0.01970000000000005,-12.346185513922174
-0.020700000000000163,-12.258473413330542
-0.021700000000000053,-12.214617363034726
-0.022700000000000164,-12.040607873151327
-0.023700000000000054,-11.952895772559694
-0.024700000000000166,-11.691174182084664
-0.025700000000000056,-11.604876792792895
-0.026700000000000168,-11.604876792792895
-0.027700000000000058,-11.604876792792895
-0.02870000000000017,-11.691174182084664
-0.02970000000000006,-11.909039722263879
-0.03070000000000017,-12.12831997374296
-0.03170000000000006,-12.346185513922174
-0.03270000000000017,-12.56405105410139
-0.03370000000000006,-12.694204493688973
-0.034700000000000175,-12.781916594280606
-0.035700000000000065,-12.607907104397206
-0.03670000000000018,-12.607907104397206
-0.03770000000000007,-12.390041564217992
-0.03870000000000018,-12.258473413330542
-0.03970000000000007,-11.996751822855511
-0.04070000000000018,-11.952895772559694
-0.04170000000000007,-11.952895772559694
-0.04270000000000018,-11.909039722263879
-0.04370000000000007,-12.040607873151327
-0.044700000000000184,-12.170761312738911
-0.045700000000000074,-12.390041564217992
-0.046700000000000186,-12.607907104397206
-0.047700000000000076,-12.825772644576423
-0.04870000000000019,-12.913484745168056
-0.04970000000000008,-12.99978213445982
-0.05070000000000019,-12.869628694872238
-0.05170000000000008,-12.825772644576423
-0.05270000000000019,-12.694204493688973
-0.05370000000000008,-12.476338953509758
-0.05470000000000019,-12.214617363034726
-0.05570000000000008,-12.170761312738911
-0.056700000000000195,-12.12831997374296
-0.057700000000000085,-12.12831997374296
-0.058700000000000196,-12.214617363034726
-0.059700000000000086,-12.432482903213943
-0.0607000000000002,-12.607907104397206
-0.06170000000000009,-12.825772644576423
-0.0627000000000002,-13.087494235051453
-0.06370000000000009,-13.13135028534727
-0.0647000000000002,-13.217647674639037
-0.06570000000000009,-13.13135028534727
-0.0667000000000002,-13.043638184755638
-0.0677000000000001,-12.869628694872238
-0.0687000000000002,-12.651763154693022
-0.0697000000000001,-12.432482903213943
-0.07070000000000021,-12.432482903213943
-0.0717000000000001,-12.302329463626359
-0.07270000000000021,-12.390041564217992
-0.0737000000000001,-12.390041564217992
-0.07470000000000021,-12.607907104397206
-0.0757000000000001,-12.825772644576423
-0.07670000000000021,-12.99978213445982
-0.0777000000000001,-13.217647674639037
-0.07870000000000021,-13.30535977523067
-0.0797000000000001,-13.436927926118118
-0.08070000000000022,-13.30535977523067
-0.0817000000000001,-13.217647674639037
-0.08270000000000022,-13.087494235051453
-0.08370000000000011,-12.869628694872238
-0.08470000000000022,-12.651763154693022
-0.08570000000000011,-12.651763154693022
-0.08670000000000022,-12.520195003805576
-0.08770000000000011,-12.520195003805576
-0.08870000000000022,-12.56405105410139
-0.08970000000000011,-12.825772644576423
-0.09070000000000022,-12.99978213445982
-0.09170000000000011,-13.217647674639037
-0.09270000000000023,-13.436927926118118
-0.09370000000000012,-13.436927926118118
-0.09470000000000023,-13.610937416001518
-0.09570000000000012,-13.523225315409885
-0.09670000000000023,-13.349215825526485
-0.09770000000000012,-13.217647674639037
-0.09870000000000023,-13.043638184755638
-0.09970000000000012,-12.825772644576423
-0.10070000000000023,-12.781916594280606
-0.10170000000000012,-12.694204493688973
-0.10270000000000024,-12.694204493688973
-0.10370000000000013,-12.781916594280606
-0.10470000000000024,-12.99978213445982
-0.10570000000000013,-13.175206335643086
-0.10670000000000024,-13.349215825526485
-0.10770000000000013,-13.567081365705702
-0.10870000000000024,-13.698649516593148
-0.10970000000000013,-13.784946905884919
-0.11070000000000024,-13.698649516593148
-0.11170000000000013,-13.567081365705702
-0.11270000000000002,-13.3930718758223
-0.11370000000000013,-13.261503724934855
-0.11470000000000002,-12.99978213445982
-0.11570000000000014,-12.955926084164007
-0.11670000000000003,-12.869628694872238
-0.11770000000000014,-12.869628694872238
-0.11870000000000003,-12.99978213445982
-0.11970000000000014,-13.175206335643086
-0.12070000000000003,-13.3930718758223
-0.12170000000000014,-13.567081365705702
-0.12270000000000003,-13.741090855589102
-0.12370000000000014,-13.916515056772363
-0.12470000000000003,-13.960371107068182
-0.12570000000000014,-13.872659006476551
-0.12670000000000003,-13.741090855589102
-0.12770000000000015,-13.567081365705702
-0.12870000000000004,-13.436927926118118
-0.12970000000000015,-13.175206335643086
-0.13070000000000004,-13.175206335643086
-0.13170000000000015,-13.087494235051453
-0.13270000000000004,-12.99978213445982
-0.13370000000000015,-13.13135028534727
-0.13470000000000004,-13.3930718758223
-0.13570000000000015,-13.523225315409885
-0.13670000000000004,-13.741090855589102
-0.13770000000000016,-13.960371107068182
-0.13870000000000005,-14.046668496359947
-0.13970000000000016,-14.175407224647667
-0.14070000000000005,-14.046668496359947
-0.14170000000000016,-13.916515056772363
-0.14270000000000005,-13.741090855589102
-0.14370000000000016,-13.654793466297335
-0.14470000000000005,-13.3930718758223
-0.14570000000000016,-13.349215825526485
-0.14670000000000005,-13.261503724934855
-0.14770000000000016,-13.261503724934855
-0.14870000000000005,-13.3930718758223
-0.14970000000000017,-13.610937416001518
-0.15070000000000006,-13.784946905884919
-0.15170000000000017,-13.960371107068182
-0.15270000000000006,-14.175407224647667
-0.15370000000000017,-14.26028990263957
-0.15470000000000006,-14.345172580631472
-0.15570000000000017,-14.217848563643619
-0.15670000000000006,-14.13438059695158
-0.15770000000000017,-14.002812446064135
-0.15870000000000006,-13.872659006476551
-0.15970000000000018,-13.610937416001518
-0.16070000000000007,-13.567081365705702
-0.16170000000000018,-13.523225315409885
-0.16270000000000007,-13.523225315409885
-0.16370000000000018,-13.610937416001518
-0.16470000000000007,-13.828802956180734
-0.16570000000000018,-14.002812446064135
-0.16670000000000007,-14.217848563643619
-0.16770000000000018,-14.486643710617974
-0.16870000000000007,-14.529085049613924
-0.16970000000000018,-14.69885040559773
-0.17070000000000007,-14.486643710617974
-0.17170000000000019,-14.401761032626075
-0.17270000000000008,-14.26028990263957
-0.1737000000000002,-14.090524546655764
-0.17470000000000008,-13.872659006476551
-0.1757000000000002,-13.784946905884919
-0.17670000000000008,-13.741090855589102
-0.1777000000000002,-13.784946905884919
-0.17870000000000008,-13.828802956180734
-0.1797000000000002,-14.090524546655764
-0.18070000000000008,-14.217848563643619
-0.1817000000000002,-14.401761032626075
-0.18270000000000008,-14.69885040559773
-0.1837000000000002,-14.741291744593681
-0.1847000000000001,-14.868615761581536
-0.1857000000000002,-14.69885040559773
-0.1867000000000001,-14.65640906660178
-0.1877000000000002,-14.529085049613924
-0.1887000000000001,-14.345172580631472
-0.1897000000000002,-14.13438059695158
-0.1907000000000001,-14.090524546655764
-0.1917000000000001,-14.046668496359947
-0.19269999999999998,-14.090524546655764
-0.1937000000000001,-14.090524546655764
-0.19469999999999998,-14.30273124163552
-0.1957000000000001,-14.529085049613924
-0.19669999999999999,-14.69885040559773
-0.1977000000000001,-14.967645552572087
-0.1987,-15.094969569559943
-0.1997000000000001,-15.179852247551842
-0.2007,-15.01008689156804
-0.2017000000000001,-14.967645552572087
-0.2027,-14.826174422585586
-0.2037000000000001,-14.65640906660178
-0.2047,-14.401761032626075
-0.2057000000000001,-14.401761032626075
-0.2067,-14.30273124163552
-0.2077000000000001,-14.345172580631472
-0.2087,-14.444202371622024
-0.2097000000000001,-14.65640906660178
-0.2107,-14.826174422585586
-0.2117000000000001,-15.094969569559943
-0.2127,-15.349617603535648
-0.2137000000000001,-15.3920589425316
-0.2147,-15.533530072518102
-0.2157000000000001,-15.448647394526201
-0.2167,-15.3920589425316
-0.21770000000000012,-15.264734925543747
-0.2187,-15.094969569559943
-0.21970000000000012,-14.783733083589633
-0.2207,-14.826174422585586
-0.22170000000000012,-14.741291744593681
-0.2227,-14.826174422585586
-0.22370000000000012,-14.868615761581536
-0.2247,-15.094969569559943
-0.22570000000000012,-15.349617603535648
-0.2267,-15.533530072518102
-0.22770000000000012,-15.830619445489761
-0.22870000000000001,-15.91550212348166
-0.22970000000000013,-15.972090575476265
-0.23070000000000002,-15.972090575476265
-0.23170000000000013,-15.830619445489761
-0.23270000000000002,-15.70329542850191
-0.23370000000000013,-15.575971411514052
-0.23470000000000002,-15.307176264539699
-0.23570000000000013,-15.349617603535648
-0.23670000000000002,-15.307176264539699
-0.2376999999999999,-15.349617603535648
-0.23870000000000002,-15.448647394526201
-0.2396999999999999,-15.618412750510005
-0.24070000000000003,-15.87306078448571
-0.24169999999999991,-16.141855931460068
-0.24270000000000003,-16.354062626439823
-0.24369999999999992,-16.495533756426326
-0.24470000000000003,-16.580416434418233
-0.24569999999999992,-16.53797509542228
-0.24670000000000003,-16.495533756426326
-0.24769999999999992,-16.396503965435777
-0.24870000000000003,-16.22673860945197
-0.24969999999999992,-16.014531914472215
-0.25070000000000003,-16.056973253468165
-0.2516999999999999,-16.014531914472215
-0.25270000000000004,-16.056973253468165
-0.2536999999999999,-16.141855931460068
-0.25470000000000004,-16.396503965435777
-0.2556999999999999,-16.622857773414182
-0.25670000000000004,-16.877505807389888
-0.25769999999999993,-17.146300954364243
-0.25870000000000004,-17.188742293360193
-0.25969999999999993,-17.358507649344002
-0.26070000000000004,-17.2736249713521
-0.26169999999999993,-17.231183632356142
-0.26270000000000004,-17.146300954364243
-0.26369999999999993,-17.018976937376394
-0.26470000000000005,-16.835064468393938
-0.26569999999999994,-16.835064468393938
-0.26670000000000005,-16.877505807389888
-0.26769999999999994,-16.919947146385837
-0.26870000000000005,-16.962388485381787
-0.26969999999999994,-17.2736249713521
-0.27070000000000005,-17.542420118326454
-0.27169999999999994,-17.797068152302163
-0.27270000000000005,-18.06586329927652
-0.27369999999999994,-18.19318731626437
-0.27470000000000006,-18.40539401124413
-0.27569999999999995,-18.320511333252224
-0.27670000000000006,-18.320511333252224
-0.27769999999999995,-18.23562865526032
-0.27870000000000006,-18.10830463827247
-0.27969999999999995,-17.924392169290012
-0.28070000000000006,-17.966833508285966
-0.28169999999999995,-17.966833508285966
-0.28270000000000006,-18.06586329927652
-0.28369999999999995,-18.19318731626437
-0.28470000000000006,-18.49027668923603
-0.28569999999999995,-18.759071836210385
-0.28670000000000007,-19.056161209182044
-0.28769999999999996,-19.28251501716045
-0.28870000000000007,-19.49472171214021
-0.28969999999999996,-19.678634181122664
-0.29070000000000007,-19.636192842126707
-0.29169999999999996,-19.636192842126707
-0.29270000000000007,-19.579604390132108
-0.29369999999999996,-19.49472171214021
-0.2947000000000001,-19.367397695152352
-0.29569999999999996,-19.409839034148305
-0.2967000000000001,-19.409839034148305
-0.29769999999999996,-19.49472171214021
-0.2987000000000001,-19.678634181122664
-0.29969999999999997,-20.01816489309027
-0.3007000000000001,-20.286960040064624
-0.30169999999999997,-20.541608074040333
-0.3027000000000001,-20.89528589900659
-0.30369999999999997,-21.107492593986347
-0.3047000000000001,-21.333846401964752
-0.30569999999999997,-21.333846401964752
-0.3067000000000001,-21.291405062968803
-0.3077,-21.248963723972853
-0.3087000000000001,-21.2065223849769
-0.3097,-21.065051254990397
-0.3107000000000001,-21.149933932982297
-0.3117,-21.149933932982297
-0.3127000000000001,-21.333846401964752
-0.3137,-21.503611757948562
-0.3147000000000001,-21.857289582914817
-0.3157,-22.196820294882425
-0.3167000000000001,-22.46561544185678
-0.3177,-22.861734605818995
-0.3187000000000001,-23.073941300798747
-0.3197,-23.342736447773106
-0.3207000000000001,-23.342736447773106
-0.3217,-23.385177786769056
-0.3227000000000001,-23.342736447773106
-0.3237,-23.342736447773106
-0.3247000000000001,-23.2012653177866
-0.3257,-23.385177786769056
-0.3267000000000001,-23.385177786769056
-0.3277,-23.597384481748815
-0.3287000000000001,-23.823738289727217
-0.3297,-24.16326900169483
-0.3307000000000001,-24.474505487665134
-0.3317,-24.814036199632742
-0.3327000000000001,-25.210155363594954
-0.3337,-25.478950510569312
-0.3347000000000001,-25.77603988354097
-0.3357,-25.81848122253692
-0.3367000000000001,-25.81848122253692
-0.3377,-25.91751101352747
-0.3387000000000001,-25.959952352523427
-0.3397,-25.81848122253692
-0.3407000000000001,-26.002393691519377
-0.3417,-26.087276369511276
-0.3427000000000001,-26.34192440348698
-0.3437,-26.568278211465387
-0.3447000000000001,-27.049280053419505
-0.3457,-27.34636942639116
-0.3467000000000001,-27.700047251357418
-0.3477,-28.18104909331153
-0.3487000000000001,-28.478138466283188
-0.3497,-28.704492274261593
-0.3507000000000001,-28.831816291249446
-0.3517,-28.91669896924135
-0.3527000000000001,-29.001581647233255
-0.3537,-29.058170099227848
-0.3547000000000001,-29.001581647233255
-0.3557,-29.14305277721976
-0.35670000000000013,-29.31281813320356
-0.3577,-29.581613280177915
-0.35870000000000013,-29.878702653149578
-0.3597,-30.274821817111786
-0.36070000000000013,-30.71338232006995
-0.3617,-31.095354371033505
-0.3626999999999999,-31.533914873991666
-0.3637,-31.972475376949827
-0.3646999999999999,-32.283711862920136
-0.3657,-32.368594540912035
-0.3666999999999999,-32.58080123589179
-0.3677,-32.62324257488775
-0.3686999999999999,-32.764713704874254
-0.36970000000000003,-32.764713704874254
-0.3706999999999999,-32.97692039985401
-0.37170000000000003,-33.14668575583781
-0.3726999999999999,-33.41548090281216
-0.37370000000000003,-33.81160006677438
-0.3746999999999999,-34.236013456733886
-0.37570000000000003,-34.632132620696105
-0.3766999999999999,-35.15557580164616
-0.37770000000000004,-35.679018982596226
-0.3786999999999999,-36.03269680756248
-0.37970000000000004,-36.37222751953009
-0.3806999999999999,-36.55613998851254
-0.38170000000000004,-36.768346683492304
-0.38269999999999993,-36.95225915247476
-0.38370000000000004,-37.07958316946261
-0.38469999999999993,-37.07958316946261
-0.38570000000000004,-37.334231203438314
-0.38669999999999993,-37.60302635041268
-0.38770000000000004,-37.94255706238028
-0.38869999999999993,-38.253793548350586
-0.38970000000000005,-38.81967806829661
-0.39069999999999994,-39.30067991025072
-0.39170000000000005,-39.78168175220483
-0.39269999999999994,-40.34756627215084
-0.39370000000000005,-40.78612677510901
-0.39469999999999994,-41.182245939071215
-0.39570000000000005,-41.39445263405098
-0.39669999999999994,-41.66324778102533
-0.39770000000000005,-41.83301313700913
-0.39869999999999994,-42.00277849299294
-0.39970000000000006,-42.130102509980794
-0.40069999999999995,-42.4413389959511
-0.40170000000000006,-42.71013414292546
-0.40269999999999995,-43.09210619388902
-0.40370000000000006,-43.53066669684718
-0.40469999999999995,-44.011668538801295
-0.40570000000000006,-44.577553058747306
-0.40669999999999995,-45.18587891768927
-0.40770000000000006,-45.79420477663124
-0.40869999999999995,-46.2327652795894
-0.40970000000000006,-46.75620846053947
-0.41069999999999995,-47.02500360751382
-0.41170000000000007,-47.32209298048547
-0.41269999999999996,-47.633329466455784
-0.41370000000000007,-47.80309482243959
-0.41469999999999996,-47.93041883942744
-0.41570000000000007,-48.32653800338966
-0.41669999999999996,-48.63777448935996
-0.41770000000000007,-49.118776331314066
-0.41869999999999996,-49.557336834272235
-0.4197000000000001,-50.20810403221015
-0.42069999999999996,-50.81642989115212
-0.4217000000000001,-51.424755750094086
-0.42269999999999996,-52.075522948032
-0.4237000000000001,-52.55652478998611
-0.42469999999999997,-53.16485064892808
-0.4257000000000001,-53.476087134898386
-0.42669999999999997,-53.82976495986464
-0.4277000000000001,-54.1268543328363
-0.42869999999999997,-54.39564947981066
-0.4297000000000001,-54.65029751378637
-0.43069999999999997,-55.13129935574048
-0.4317000000000001,-55.484977180706736
-0.4327,-56.008420361656796
-0.4337000000000001,-56.44698086461496
-0.4347,-57.182630740544774
-0.4357000000000001,-57.87583927747865
-0.4367,-58.54075358841522
-0.4377000000000001,-59.23396212534908
-0.4387,-59.842287984291055
-0.4397000000000001,-60.49305518222897
-0.4407,-60.889174346191176
-0.4417000000000001,-61.327734849149344
-0.4427,-61.63897133511965
-0.4437000000000001,-61.936060708091304
-0.4447,-62.28973853305756
-0.4457000000000001,-62.77074037501168
-0.4467,-63.15271242597524
-0.4477000000000001,-63.77518539791585
-0.4487,-64.34106991786187
-0.4497000000000001,-65.0767197937917
-0.4507,-65.86895812171612
-0.4517000000000001,-66.60460799764593
-0.4527,-67.39684632557035
-0.4537000000000001,-68.04761352350828
-0.4547,-68.74082206044213
-0.4557000000000001,-69.22182390239624
-0.4567,-69.6603844053544
-0.4577000000000001,-70.18382758630447
-0.4587,-70.62238808926263
-0.4597000000000001,-70.91947746223428
-0.4607,-71.52780332117625
-0.4617000000000001,-72.05124650212633
-0.4627,-72.67371947406694
-0.4637000000000001,-73.3669280110008
-0.4647,-74.20160767792116
-0.4657000000000001,-74.97969889284694
-0.4667,-75.77193722077136
-0.4677000000000001,-76.63491111368903
-0.4687,-77.42714944161345
-0.4697000000000001,-78.16279931754329
-0.4707,-78.77112517648524
-0.4717000000000001,-79.2945683574353
-0.4727,-79.7755701993894
-0.4737000000000001,-80.34145471933543
-0.4747,-80.7800152222936
-0.4757000000000001,-81.43078242023151
-0.4767,-81.99666694017753
-0.4777000000000001,-82.70402259011003
-0.4787,-83.48211380503581
-0.4797000000000001,-84.35923481095215
-0.4807,-85.23635581686847
-0.48170000000000013,-86.14177104878208
-0.4827,-87.01889205469841
-0.48370000000000013,-87.98089573860662
-0.4847,-88.8438696315243
-0.48570000000000013,-89.50878394246087
-0.4867,-88.80142829252836
-0.48570000000000013,-86.18421238777805
-0.4847,-84.09043966397778
-0.48370000000000013,-82.09569673116808
-0.4827,-80.46877873632329
-0.48170000000000013,-78.9550376454677
-0.4807,-77.68179747558916
-0.4797000000000001,-76.55002843569714
-0.4787,-75.63046609078486
-0.4777000000000001,-74.72505085887124
-0.4767,-73.93281253094682
-0.4757000000000001,-73.15472131602105
-0.4747,-72.32004164910067
-0.4737000000000001,-71.52780332117625
-0.4727,-70.57994675026669
-0.4717000000000001,-69.53306038836655
-0.4707,-68.57105670445833
-0.4697000000000001,-67.6090530205501
-0.4687,-66.47728398065809
-0.4677000000000001,-65.60016297474175
-0.4667,-64.68060062982947
