Aug. 5, 2024   07:32:31
Linear Sweep Voltammetry
File: c:/users/guazh/data/20240802_batch_500/2024-08-02-exp23\1acid_3ac-2024-08-05t07_29_17-lsvinphos\1acid_3ac_lsv_50mvs_efin_-2300mv.bin
Data Source:  Experiment
Instrument Model:  CHI760E
Header: LSV ran at 50 mVs with Efin at -2300mV
Note: 

Init E (V) = -0.6
Final E (V) = -2.3
Scan Rate (V/s) = 0.05
Sample Interval (V) = 0.001
Quiet Time (sec) = 2
Sensitivity (A/V) = 1e-4
Comp R (ohm) = 9.1

Results:

Channel 1:
Ep = -2.027V
ip = 7.039e-4A
Ah = 9.338e-4C

Potential/V, Current/A

-0.600, 2.396e-6
-0.601, 2.482e-6
-0.602, 2.528e-6
-0.603, 2.564e-6
-0.604, 2.596e-6
-0.605, 2.625e-6
-0.606, 2.655e-6
-0.607, 2.683e-6
-0.608, 2.712e-6
-0.609, 2.740e-6
-0.610, 2.764e-6
-0.611, 2.793e-6
-0.612, 2.821e-6
-0.613, 2.850e-6
-0.614, 2.878e-6
-0.615, 2.904e-6
-0.616, 2.931e-6
-0.617, 2.959e-6
-0.618, 2.987e-6
-0.619, 3.015e-6
-0.620, 3.041e-6
-0.621, 3.067e-6
-0.622, 3.096e-6
-0.623, 3.127e-6
-0.624, 3.154e-6
-0.625, 3.180e-6
-0.626, 3.207e-6
-0.627, 3.237e-6
-0.628, 3.266e-6
-0.629, 3.293e-6
-0.630, 3.321e-6
-0.631, 3.350e-6
-0.632, 3.379e-6
-0.633, 3.411e-6
-0.634, 3.440e-6
-0.635, 3.468e-6
-0.636, 3.496e-6
-0.637, 3.525e-6
-0.638, 3.556e-6
-0.639, 3.586e-6
-0.640, 3.615e-6
-0.641, 3.645e-6
-0.642, 3.675e-6
-0.643, 3.708e-6
-0.644, 3.738e-6
-0.645, 3.768e-6
-0.646, 3.798e-6
-0.647, 3.829e-6
-0.648, 3.863e-6
-0.649, 3.894e-6
-0.650, 3.922e-6
-0.651, 3.952e-6
-0.652, 3.984e-6
-0.653, 4.017e-6
-0.654, 4.049e-6
-0.655, 4.078e-6
-0.656, 4.108e-6
-0.657, 4.141e-6
-0.658, 4.174e-6
-0.659, 4.205e-6
-0.660, 4.234e-6
-0.661, 4.265e-6
-0.662, 4.298e-6
-0.663, 4.331e-6
-0.664, 4.363e-6
-0.665, 4.396e-6
-0.666, 4.429e-6
-0.667, 4.462e-6
-0.668, 4.498e-6
-0.669, 4.530e-6
-0.670, 4.563e-6
-0.671, 4.595e-6
-0.672, 4.629e-6
-0.673, 4.665e-6
-0.674, 4.697e-6
-0.675, 4.729e-6
-0.676, 4.762e-6
-0.677, 4.795e-6
-0.678, 4.832e-6
-0.679, 4.865e-6
-0.680, 4.897e-6
-0.681, 4.930e-6
-0.682, 4.964e-6
-0.683, 4.999e-6
-0.684, 5.035e-6
-0.685, 5.067e-6
-0.686, 5.099e-6
-0.687, 5.134e-6
-0.688, 5.170e-6
-0.689, 5.204e-6
-0.690, 5.235e-6
-0.691, 5.270e-6
-0.692, 5.305e-6
-0.693, 5.341e-6
-0.694, 5.375e-6
-0.695, 5.407e-6
-0.696, 5.438e-6
-0.697, 5.473e-6
-0.698, 5.510e-6
-0.699, 5.543e-6
-0.700, 5.576e-6
-0.701, 5.609e-6
-0.702, 5.643e-6
-0.703, 5.678e-6
-0.704, 5.712e-6
-0.705, 5.744e-6
-0.706, 5.776e-6
-0.707, 5.812e-6
-0.708, 5.847e-6
-0.709, 5.880e-6
-0.710, 5.908e-6
-0.711, 5.938e-6
-0.712, 5.969e-6
-0.713, 6.006e-6
-0.714, 6.037e-6
-0.715, 6.069e-6
-0.716, 6.101e-6
-0.717, 6.134e-6
-0.718, 6.167e-6
-0.719, 6.196e-6
-0.720, 6.225e-6
-0.721, 6.254e-6
-0.722, 6.285e-6
-0.723, 6.319e-6
-0.724, 6.350e-6
-0.725, 6.380e-6
-0.726, 6.410e-6
-0.727, 6.439e-6
-0.728, 6.472e-6
-0.729, 6.502e-6
-0.730, 6.529e-6
-0.731, 6.559e-6
-0.732, 6.588e-6
-0.733, 6.619e-6
-0.734, 6.649e-6
-0.735, 6.676e-6
-0.736, 6.703e-6
-0.737, 6.730e-6
-0.738, 6.759e-6
-0.739, 6.789e-6
-0.740, 6.814e-6
-0.741, 6.839e-6
-0.742, 6.867e-6
-0.743, 6.893e-6
-0.744, 6.920e-6
-0.745, 6.944e-6
-0.746, 6.968e-6
-0.747, 6.992e-6
-0.748, 7.019e-6
-0.749, 7.043e-6
-0.750, 7.067e-6
-0.751, 7.091e-6
-0.752, 7.113e-6
-0.753, 7.138e-6
-0.754, 7.161e-6
-0.755, 7.183e-6
-0.756, 7.206e-6
-0.757, 7.226e-6
-0.758, 7.249e-6
-0.759, 7.270e-6
-0.760, 7.289e-6
-0.761, 7.308e-6
-0.762, 7.328e-6
-0.763, 7.350e-6
-0.764, 7.370e-6
-0.765, 7.386e-6
-0.766, 7.403e-6
-0.767, 7.421e-6
-0.768, 7.443e-6
-0.769, 7.462e-6
-0.770, 7.478e-6
-0.771, 7.494e-6
-0.772, 7.510e-6
-0.773, 7.527e-6
-0.774, 7.544e-6
-0.775, 7.557e-6
-0.776, 7.570e-6
-0.777, 7.586e-6
-0.778, 7.602e-6
-0.779, 7.616e-6
-0.780, 7.628e-6
-0.781, 7.642e-6
-0.782, 7.655e-6
-0.783, 7.668e-6
-0.784, 7.681e-6
-0.785, 7.691e-6
-0.786, 7.702e-6
-0.787, 7.713e-6
-0.788, 7.727e-6
-0.789, 7.738e-6
-0.790, 7.747e-6
-0.791, 7.755e-6
-0.792, 7.763e-6
-0.793, 7.775e-6
-0.794, 7.783e-6
-0.795, 7.791e-6
-0.796, 7.797e-6
-0.797, 7.803e-6
-0.798, 7.814e-6
-0.799, 7.820e-6
-0.800, 7.825e-6
-0.801, 7.830e-6
-0.802, 7.835e-6
-0.803, 7.844e-6
-0.804, 7.850e-6
-0.805, 7.853e-6
-0.806, 7.857e-6
-0.807, 7.862e-6
-0.808, 7.867e-6
-0.809, 7.873e-6
-0.810, 7.874e-6
-0.811, 7.876e-6
-0.812, 7.879e-6
-0.813, 7.884e-6
-0.814, 7.887e-6
-0.815, 7.887e-6
-0.816, 7.889e-6
-0.817, 7.890e-6
-0.818, 7.893e-6
-0.819, 7.899e-6
-0.820, 7.901e-6
-0.821, 7.899e-6
-0.822, 7.898e-6
-0.823, 7.900e-6
-0.824, 7.901e-6
-0.825, 7.900e-6
-0.826, 7.898e-6
-0.827, 7.898e-6
-0.828, 7.899e-6
-0.829, 7.899e-6
-0.830, 7.896e-6
-0.831, 7.894e-6
-0.832, 7.892e-6
-0.833, 7.893e-6
-0.834, 7.890e-6
-0.835, 7.888e-6
-0.836, 7.885e-6
-0.837, 7.882e-6
-0.838, 7.882e-6
-0.839, 7.879e-6
-0.840, 7.875e-6
-0.841, 7.873e-6
-0.842, 7.869e-6
-0.843, 7.867e-6
-0.844, 7.865e-6
-0.845, 7.860e-6
-0.846, 7.856e-6
-0.847, 7.851e-6
-0.848, 7.850e-6
-0.849, 7.847e-6
-0.850, 7.840e-6
-0.851, 7.836e-6
-0.852, 7.831e-6
-0.853, 7.830e-6
-0.854, 7.826e-6
-0.855, 7.820e-6
-0.856, 7.815e-6
-0.857, 7.810e-6
-0.858, 7.808e-6
-0.859, 7.804e-6
-0.860, 7.797e-6
-0.861, 7.791e-6
-0.862, 7.787e-6
-0.863, 7.784e-6
-0.864, 7.779e-6
-0.865, 7.775e-6
-0.866, 7.767e-6
-0.867, 7.762e-6
-0.868, 7.759e-6
-0.869, 7.754e-6
-0.870, 7.749e-6
-0.871, 7.745e-6
-0.872, 7.738e-6
-0.873, 7.735e-6
-0.874, 7.730e-6
-0.875, 7.722e-6
-0.876, 7.716e-6
-0.877, 7.711e-6
-0.878, 7.707e-6
-0.879, 7.703e-6
-0.880, 7.696e-6
-0.881, 7.689e-6
-0.882, 7.682e-6
-0.883, 7.679e-6
-0.884, 7.675e-6
-0.885, 7.668e-6
-0.886, 7.663e-6
-0.887, 7.656e-6
-0.888, 7.653e-6
-0.889, 7.649e-6
-0.890, 7.641e-6
-0.891, 7.636e-6
-0.892, 7.630e-6
-0.893, 7.625e-6
-0.894, 7.620e-6
-0.895, 7.615e-6
-0.896, 7.608e-6
-0.897, 7.602e-6
-0.898, 7.597e-6
-0.899, 7.594e-6
-0.900, 7.587e-6
-0.901, 7.581e-6
-0.902, 7.576e-6
-0.903, 7.572e-6
-0.904, 7.569e-6
-0.905, 7.562e-6
-0.906, 7.556e-6
-0.907, 7.551e-6
-0.908, 7.548e-6
-0.909, 7.544e-6
-0.910, 7.538e-6
-0.911, 7.532e-6
-0.912, 7.526e-6
-0.913, 7.524e-6
-0.914, 7.520e-6
-0.915, 7.515e-6
-0.916, 7.508e-6
-0.917, 7.503e-6
-0.918, 7.500e-6
-0.919, 7.498e-6
-0.920, 7.490e-6
-0.921, 7.486e-6
-0.922, 7.481e-6
-0.923, 7.478e-6
-0.924, 7.474e-6
-0.925, 7.468e-6
-0.926, 7.462e-6
-0.927, 7.457e-6
-0.928, 7.455e-6
-0.929, 7.453e-6
-0.930, 7.447e-6
-0.931, 7.442e-6
-0.932, 7.437e-6
-0.933, 7.434e-6
-0.934, 7.432e-6
-0.935, 7.426e-6
-0.936, 7.421e-6
-0.937, 7.416e-6
-0.938, 7.415e-6
-0.939, 7.412e-6
-0.940, 7.407e-6
-0.941, 7.403e-6
-0.942, 7.399e-6
-0.943, 7.396e-6
-0.944, 7.395e-6
-0.945, 7.389e-6
-0.946, 7.385e-6
-0.947, 7.381e-6
-0.948, 7.380e-6
-0.949, 7.377e-6
-0.950, 7.373e-6
-0.951, 7.368e-6
-0.952, 7.364e-6
-0.953, 7.364e-6
-0.954, 7.361e-6
-0.955, 7.357e-6
-0.956, 7.353e-6
-0.957, 7.348e-6
-0.958, 7.347e-6
-0.959, 7.346e-6
-0.960, 7.342e-6
-0.961, 7.337e-6
-0.962, 7.334e-6
-0.963, 7.333e-6
-0.964, 7.332e-6
-0.965, 7.328e-6
-0.966, 7.324e-6
-0.967, 7.320e-6
-0.968, 7.321e-6
-0.969, 7.319e-6
-0.970, 7.315e-6
-0.971, 7.311e-6
-0.972, 7.307e-6
-0.973, 7.309e-6
-0.974, 7.307e-6
-0.975, 7.303e-6
-0.976, 7.300e-6
-0.977, 7.298e-6
-0.978, 7.296e-6
-0.979, 7.295e-6
-0.980, 7.292e-6
-0.981, 7.288e-6
-0.982, 7.287e-6
-0.983, 7.287e-6
-0.984, 7.285e-6
-0.985, 7.283e-6
-0.986, 7.279e-6
-0.987, 7.277e-6
-0.988, 7.276e-6
-0.989, 7.276e-6
-0.990, 7.274e-6
-0.991, 7.271e-6
-0.992, 7.269e-6
-0.993, 7.269e-6
-0.994, 7.268e-6
-0.995, 7.265e-6
-0.996, 7.262e-6
-0.997, 7.260e-6
-0.998, 7.262e-6
-0.999, 7.261e-6
-1.000, 7.258e-6
-1.001, 7.257e-6
-1.002, 7.254e-6
-1.003, 7.255e-6
-1.004, 7.254e-6
-1.005, 7.251e-6
-1.006, 7.250e-6
-1.007, 7.248e-6
-1.008, 7.247e-6
-1.009, 7.249e-6
-1.010, 7.247e-6
-1.011, 7.245e-6
-1.012, 7.243e-6
-1.013, 7.244e-6
-1.014, 7.245e-6
-1.015, 7.242e-6
-1.016, 7.241e-6
-1.017, 7.240e-6
-1.018, 7.240e-6
-1.019, 7.241e-6
-1.020, 7.238e-6
-1.021, 7.236e-6
-1.022, 7.235e-6
-1.023, 7.236e-6
-1.024, 7.239e-6
-1.025, 7.238e-6
-1.026, 7.235e-6
-1.027, 7.234e-6
-1.028, 7.234e-6
-1.029, 7.235e-6
-1.030, 7.234e-6
-1.031, 7.232e-6
-1.032, 7.230e-6
-1.033, 7.232e-6
-1.034, 7.233e-6
-1.035, 7.232e-6
-1.036, 7.229e-6
-1.037, 7.230e-6
-1.038, 7.232e-6
-1.039, 7.233e-6
-1.040, 7.232e-6
-1.041, 7.231e-6
-1.042, 7.229e-6
-1.043, 7.232e-6
-1.044, 7.233e-6
-1.045, 7.232e-6
-1.046, 7.232e-6
-1.047, 7.231e-6
-1.048, 7.232e-6
-1.049, 7.234e-6
-1.050, 7.233e-6
-1.051, 7.232e-6
-1.052, 7.233e-6
-1.053, 7.234e-6
-1.054, 7.236e-6
-1.055, 7.238e-6
-1.056, 7.242e-6
-1.057, 7.241e-6
-1.058, 7.242e-6
-1.059, 7.245e-6
-1.060, 7.244e-6
-1.061, 7.243e-6
-1.062, 7.243e-6
-1.063, 7.246e-6
-1.064, 7.248e-6
-1.065, 7.248e-6
-1.066, 7.248e-6
-1.067, 7.248e-6
-1.068, 7.249e-6
-1.069, 7.252e-6
-1.070, 7.251e-6
-1.071, 7.250e-6
-1.072, 7.250e-6
-1.073, 7.252e-6
-1.074, 7.255e-6
-1.075, 7.256e-6
-1.076, 7.258e-6
-1.077, 7.258e-6
-1.078, 7.260e-6
-1.079, 7.263e-6
-1.080, 7.264e-6
-1.081, 7.267e-6
-1.082, 7.270e-6
-1.083, 7.274e-6
-1.084, 7.270e-6
-1.085, 7.267e-6
-1.086, 7.266e-6
-1.087, 7.267e-6
-1.088, 7.270e-6
-1.089, 7.274e-6
-1.090, 7.274e-6
-1.091, 7.274e-6
-1.092, 7.274e-6
-1.093, 7.277e-6
-1.094, 7.281e-6
-1.095, 7.283e-6
-1.096, 7.283e-6
-1.097, 7.286e-6
-1.098, 7.287e-6
-1.099, 7.290e-6
-1.100, 7.290e-6
-1.101, 7.291e-6
-1.102, 7.293e-6
-1.103, 7.295e-6
-1.104, 7.300e-6
-1.105, 7.301e-6
-1.106, 7.302e-6
-1.107, 7.302e-6
-1.108, 7.305e-6
-1.109, 7.310e-6
-1.110, 7.311e-6
-1.111, 7.311e-6
-1.112, 7.314e-6
-1.113, 7.317e-6
-1.114, 7.321e-6
-1.115, 7.324e-6
-1.116, 7.325e-6
-1.117, 7.326e-6
-1.118, 7.329e-6
-1.119, 7.333e-6
-1.120, 7.334e-6
-1.121, 7.335e-6
-1.122, 7.338e-6
-1.123, 7.342e-6
-1.124, 7.347e-6
-1.125, 7.348e-6
-1.126, 7.350e-6
-1.127, 7.353e-6
-1.128, 7.358e-6
-1.129, 7.362e-6
-1.130, 7.362e-6
-1.131, 7.365e-6
-1.132, 7.368e-6
-1.133, 7.372e-6
-1.134, 7.377e-6
-1.135, 7.380e-6
-1.136, 7.383e-6
-1.137, 7.385e-6
-1.138, 7.389e-6
-1.139, 7.395e-6
-1.140, 7.398e-6
-1.141, 7.401e-6
-1.142, 7.404e-6
-1.143, 7.410e-6
-1.144, 7.417e-6
-1.145, 7.423e-6
-1.146, 7.424e-6
-1.147, 7.431e-6
-1.148, 7.437e-6
-1.149, 7.445e-6
-1.150, 7.450e-6
-1.151, 7.454e-6
-1.152, 7.459e-6
-1.153, 7.464e-6
-1.154, 7.470e-6
-1.155, 7.474e-6
-1.156, 7.478e-6
-1.157, 7.482e-6
-1.158, 7.488e-6
-1.159, 7.494e-6
-1.160, 7.498e-6
-1.161, 7.502e-6
-1.162, 7.505e-6
-1.163, 7.510e-6
-1.164, 7.517e-6
-1.165, 7.522e-6
-1.166, 7.527e-6
-1.167, 7.530e-6
-1.168, 7.535e-6
-1.169, 7.542e-6
-1.170, 7.546e-6
-1.171, 7.551e-6
-1.172, 7.556e-6
-1.173, 7.562e-6
-1.174, 7.570e-6
-1.175, 7.574e-6
-1.176, 7.578e-6
-1.177, 7.584e-6
-1.178, 7.591e-6
-1.179, 7.599e-6
-1.180, 7.605e-6
-1.181, 7.610e-6
-1.182, 7.617e-6
-1.183, 7.621e-6
-1.184, 7.630e-6
-1.185, 7.636e-6
-1.186, 7.641e-6
-1.187, 7.650e-6
-1.188, 7.656e-6
-1.189, 7.666e-6
-1.190, 7.672e-6
-1.191, 7.677e-6
-1.192, 7.686e-6
-1.193, 7.694e-6
-1.194, 7.702e-6
-1.195, 7.710e-6
-1.196, 7.716e-6
-1.197, 7.725e-6
-1.198, 7.732e-6
-1.199, 7.741e-6
-1.200, 7.750e-6
-1.201, 7.759e-6
-1.202, 7.766e-6
-1.203, 7.777e-6
-1.204, 7.788e-6
-1.205, 7.795e-6
-1.206, 7.803e-6
-1.207, 7.812e-6
-1.208, 7.822e-6
-1.209, 7.834e-6
-1.210, 7.842e-6
-1.211, 7.851e-6
-1.212, 7.859e-6
-1.213, 7.868e-6
-1.214, 7.882e-6
-1.215, 7.891e-6
-1.216, 7.901e-6
-1.217, 7.910e-6
-1.218, 7.919e-6
-1.219, 7.934e-6
-1.220, 7.944e-6
-1.221, 7.954e-6
-1.222, 7.966e-6
-1.223, 7.978e-6
-1.224, 7.991e-6
-1.225, 8.002e-6
-1.226, 8.011e-6
-1.227, 8.022e-6
-1.228, 8.035e-6
-1.229, 8.051e-6
-1.230, 8.065e-6
-1.231, 8.075e-6
-1.232, 8.087e-6
-1.233, 8.099e-6
-1.234, 8.114e-6
-1.235, 8.127e-6
-1.236, 8.140e-6
-1.237, 8.152e-6
-1.238, 8.165e-6
-1.239, 8.180e-6
-1.240, 8.195e-6
-1.241, 8.208e-6
-1.242, 8.223e-6
-1.243, 8.239e-6
-1.244, 8.256e-6
-1.245, 8.271e-6
-1.246, 8.284e-6
-1.247, 8.296e-6
-1.248, 8.311e-6
-1.249, 8.325e-6
-1.250, 8.341e-6
-1.251, 8.356e-6
-1.252, 8.371e-6
-1.253, 8.387e-6
-1.254, 8.402e-6
-1.255, 8.420e-6
-1.256, 8.433e-6
-1.257, 8.449e-6
-1.258, 8.465e-6
-1.259, 8.483e-6
-1.260, 8.501e-6
-1.261, 8.516e-6
-1.262, 8.531e-6
-1.263, 8.548e-6
-1.264, 8.568e-6
-1.265, 8.585e-6
-1.266, 8.599e-6
-1.267, 8.616e-6
-1.268, 8.633e-6
-1.269, 8.652e-6
-1.270, 8.670e-6
-1.271, 8.686e-6
-1.272, 8.703e-6
-1.273, 8.721e-6
-1.274, 8.742e-6
-1.275, 8.760e-6
-1.276, 8.776e-6
-1.277, 8.794e-6
-1.278, 8.813e-6
-1.279, 8.833e-6
-1.280, 8.853e-6
-1.281, 8.868e-6
-1.282, 8.883e-6
-1.283, 8.902e-6
-1.284, 8.921e-6
-1.285, 8.942e-6
-1.286, 8.962e-6
-1.287, 8.981e-6
-1.288, 8.999e-6
-1.289, 9.019e-6
-1.290, 9.038e-6
-1.291, 9.056e-6
-1.292, 9.073e-6
-1.293, 9.092e-6
-1.294, 9.113e-6
-1.295, 9.132e-6
-1.296, 9.149e-6
-1.297, 9.169e-6
-1.298, 9.188e-6
-1.299, 9.212e-6
-1.300, 9.231e-6
-1.301, 9.249e-6
-1.302, 9.269e-6
-1.303, 9.287e-6
-1.304, 9.310e-6
-1.305, 9.329e-6
-1.306, 9.347e-6
-1.307, 9.366e-6
-1.308, 9.384e-6
-1.309, 9.404e-6
-1.310, 9.424e-6
-1.311, 9.441e-6
-1.312, 9.460e-6
-1.313, 9.482e-6
-1.314, 9.504e-6
-1.315, 9.525e-6
-1.316, 9.543e-6
-1.317, 9.561e-6
-1.318, 9.583e-6
-1.319, 9.603e-6
-1.320, 9.622e-6
-1.321, 9.641e-6
-1.322, 9.657e-6
-1.323, 9.676e-6
-1.324, 9.699e-6
-1.325, 9.719e-6
-1.326, 9.738e-6
-1.327, 9.754e-6
-1.328, 9.775e-6
-1.329, 9.796e-6
-1.330, 9.817e-6
-1.331, 9.835e-6
-1.332, 9.854e-6
-1.333, 9.872e-6
-1.334, 9.895e-6
-1.335, 9.914e-6
-1.336, 9.930e-6
-1.337, 9.950e-6
-1.338, 9.969e-6
-1.339, 9.993e-6
-1.340, 1.001e-5
-1.341, 1.003e-5
-1.342, 1.005e-5
-1.343, 1.007e-5
-1.344, 1.009e-5
-1.345, 1.011e-5
-1.346, 1.013e-5
-1.347, 1.015e-5
-1.348, 1.017e-5
-1.349, 1.019e-5
-1.350, 1.021e-5
-1.351, 1.023e-5
-1.352, 1.025e-5
-1.353, 1.027e-5
-1.354, 1.029e-5
-1.355, 1.031e-5
-1.356, 1.033e-5
-1.357, 1.035e-5
-1.358, 1.037e-5
-1.359, 1.040e-5
-1.360, 1.042e-5
-1.361, 1.044e-5
-1.362, 1.046e-5
-1.363, 1.048e-5
-1.364, 1.050e-5
-1.365, 1.053e-5
-1.366, 1.055e-5
-1.367, 1.056e-5
-1.368, 1.059e-5
-1.369, 1.061e-5
-1.370, 1.063e-5
-1.371, 1.066e-5
-1.372, 1.068e-5
-1.373, 1.070e-5
-1.374, 1.072e-5
-1.375, 1.074e-5
-1.376, 1.076e-5
-1.377, 1.078e-5
-1.378, 1.080e-5
-1.379, 1.083e-5
-1.380, 1.085e-5
-1.381, 1.087e-5
-1.382, 1.089e-5
-1.383, 1.092e-5
-1.384, 1.094e-5
-1.385, 1.097e-5
-1.386, 1.099e-5
-1.387, 1.101e-5
-1.388, 1.103e-5
-1.389, 1.105e-5
-1.390, 1.108e-5
-1.391, 1.110e-5
-1.392, 1.112e-5
-1.393, 1.115e-5
-1.394, 1.117e-5
-1.395, 1.120e-5
-1.396, 1.122e-5
-1.397, 1.124e-5
-1.398, 1.126e-5
-1.399, 1.129e-5
-1.400, 1.132e-5
-1.401, 1.134e-5
-1.402, 1.136e-5
-1.403, 1.139e-5
-1.404, 1.142e-5
-1.405, 1.144e-5
-1.406, 1.146e-5
-1.407, 1.148e-5
-1.408, 1.151e-5
-1.409, 1.153e-5
-1.410, 1.156e-5
-1.411, 1.158e-5
-1.412, 1.160e-5
-1.413, 1.163e-5
-1.414, 1.165e-5
-1.415, 1.168e-5
-1.416, 1.171e-5
-1.417, 1.173e-5
-1.418, 1.175e-5
-1.419, 1.178e-5
-1.420, 1.181e-5
-1.421, 1.183e-5
-1.422, 1.185e-5
-1.423, 1.188e-5
-1.424, 1.191e-5
-1.425, 1.193e-5
-1.426, 1.196e-5
-1.427, 1.198e-5
-1.428, 1.200e-5
-1.429, 1.203e-5
-1.430, 1.205e-5
-1.431, 1.207e-5
-1.432, 1.209e-5
-1.433, 1.212e-5
-1.434, 1.215e-5
-1.435, 1.217e-5
-1.436, 1.220e-5
-1.437, 1.222e-5
-1.438, 1.225e-5
-1.439, 1.228e-5
-1.440, 1.231e-5
-1.441, 1.233e-5
-1.442, 1.235e-5
-1.443, 1.238e-5
-1.444, 1.241e-5
-1.445, 1.244e-5
-1.446, 1.246e-5
-1.447, 1.249e-5
-1.448, 1.252e-5
-1.449, 1.255e-5
-1.450, 1.258e-5
-1.451, 1.260e-5
-1.452, 1.263e-5
-1.453, 1.265e-5
-1.454, 1.268e-5
-1.455, 1.271e-5
-1.456, 1.273e-5
-1.457, 1.276e-5
-1.458, 1.279e-5
-1.459, 1.282e-5
-1.460, 1.285e-5
-1.461, 1.288e-5
-1.462, 1.290e-5
-1.463, 1.293e-5
-1.464, 1.296e-5
-1.465, 1.299e-5
-1.466, 1.302e-5
-1.467, 1.305e-5
-1.468, 1.307e-5
-1.469, 1.310e-5
-1.470, 1.314e-5
-1.471, 1.316e-5
-1.472, 1.319e-5
-1.473, 1.322e-5
-1.474, 1.325e-5
-1.475, 1.328e-5
-1.476, 1.331e-5
-1.477, 1.334e-5
-1.478, 1.337e-5
-1.479, 1.340e-5
-1.480, 1.344e-5
-1.481, 1.346e-5
-1.482, 1.349e-5
-1.483, 1.352e-5
-1.484, 1.356e-5
-1.485, 1.360e-5
-1.486, 1.363e-5
-1.487, 1.365e-5
-1.488, 1.368e-5
-1.489, 1.372e-5
-1.490, 1.375e-5
-1.491, 1.378e-5
-1.492, 1.381e-5
-1.493, 1.384e-5
-1.494, 1.388e-5
-1.495, 1.391e-5
-1.496, 1.395e-5
-1.497, 1.398e-5
-1.498, 1.401e-5
-1.499, 1.405e-5
-1.500, 1.408e-5
-1.501, 1.411e-5
-1.502, 1.415e-5
-1.503, 1.418e-5
-1.504, 1.421e-5
-1.505, 1.425e-5
-1.506, 1.428e-5
-1.507, 1.432e-5
-1.508, 1.435e-5
-1.509, 1.439e-5
-1.510, 1.443e-5
-1.511, 1.447e-5
-1.512, 1.450e-5
-1.513, 1.454e-5
-1.514, 1.458e-5
-1.515, 1.462e-5
-1.516, 1.466e-5
-1.517, 1.470e-5
-1.518, 1.474e-5
-1.519, 1.477e-5
-1.520, 1.482e-5
-1.521, 1.486e-5
-1.522, 1.490e-5
-1.523, 1.494e-5
-1.524, 1.498e-5
-1.525, 1.502e-5
-1.526, 1.507e-5
-1.527, 1.511e-5
-1.528, 1.515e-5
-1.529, 1.520e-5
-1.530, 1.524e-5
-1.531, 1.529e-5
-1.532, 1.533e-5
-1.533, 1.537e-5
-1.534, 1.542e-5
-1.535, 1.547e-5
-1.536, 1.552e-5
-1.537, 1.556e-5
-1.538, 1.561e-5
-1.539, 1.566e-5
-1.540, 1.571e-5
-1.541, 1.576e-5
-1.542, 1.581e-5
-1.543, 1.585e-5
-1.544, 1.591e-5
-1.545, 1.596e-5
-1.546, 1.601e-5
-1.547, 1.607e-5
-1.548, 1.612e-5
-1.549, 1.617e-5
-1.550, 1.623e-5
-1.551, 1.629e-5
-1.552, 1.635e-5
-1.553, 1.640e-5
-1.554, 1.646e-5
-1.555, 1.652e-5
-1.556, 1.658e-5
-1.557, 1.663e-5
-1.558, 1.669e-5
-1.559, 1.675e-5
-1.560, 1.682e-5
-1.561, 1.688e-5
-1.562, 1.694e-5
-1.563, 1.700e-5
-1.564, 1.706e-5
-1.565, 1.714e-5
-1.566, 1.720e-5
-1.567, 1.727e-5
-1.568, 1.733e-5
-1.569, 1.740e-5
-1.570, 1.747e-5
-1.571, 1.754e-5
-1.572, 1.761e-5
-1.573, 1.768e-5
-1.574, 1.775e-5
-1.575, 1.783e-5
-1.576, 1.790e-5
-1.577, 1.797e-5
-1.578, 1.804e-5
-1.579, 1.812e-5
-1.580, 1.820e-5
-1.581, 1.828e-5
-1.582, 1.835e-5
-1.583, 1.843e-5
-1.584, 1.852e-5
-1.585, 1.861e-5
-1.586, 1.869e-5
-1.587, 1.877e-5
-1.588, 1.886e-5
-1.589, 1.894e-5
-1.590, 1.903e-5
-1.591, 1.912e-5
-1.592, 1.920e-5
-1.593, 1.929e-5
-1.594, 1.938e-5
-1.595, 1.948e-5
-1.596, 1.957e-5
-1.597, 1.966e-5
-1.598, 1.975e-5
-1.599, 1.985e-5
-1.600, 1.995e-5
-1.601, 2.005e-5
-1.602, 2.015e-5
-1.603, 2.025e-5
-1.604, 2.035e-5
-1.605, 2.046e-5
-1.606, 2.056e-5
-1.607, 2.067e-5
-1.608, 2.078e-5
-1.609, 2.089e-5
-1.610, 2.100e-5
-1.611, 2.112e-5
-1.612, 2.124e-5
-1.613, 2.135e-5
-1.614, 2.147e-5
-1.615, 2.159e-5
-1.616, 2.171e-5
-1.617, 2.182e-5
-1.618, 2.194e-5
-1.619, 2.206e-5
-1.620, 2.219e-5
-1.621, 2.232e-5
-1.622, 2.244e-5
-1.623, 2.257e-5
-1.624, 2.270e-5
-1.625, 2.284e-5
-1.626, 2.297e-5
-1.627, 2.310e-5
-1.628, 2.323e-5
-1.629, 2.337e-5
-1.630, 2.352e-5
-1.631, 2.366e-5
-1.632, 2.380e-5
-1.633, 2.395e-5
-1.634, 2.410e-5
-1.635, 2.425e-5
-1.636, 2.440e-5
-1.637, 2.455e-5
-1.638, 2.470e-5
-1.639, 2.487e-5
-1.640, 2.503e-5
-1.641, 2.519e-5
-1.642, 2.535e-5
-1.643, 2.551e-5
-1.644, 2.568e-5
-1.645, 2.585e-5
-1.646, 2.602e-5
-1.647, 2.619e-5
-1.648, 2.637e-5
-1.649, 2.654e-5
-1.650, 2.673e-5
-1.651, 2.691e-5
-1.652, 2.709e-5
-1.653, 2.728e-5
-1.654, 2.747e-5
-1.655, 2.766e-5
-1.656, 2.785e-5
-1.657, 2.804e-5
-1.658, 2.823e-5
-1.659, 2.843e-5
-1.660, 2.864e-5
-1.661, 2.885e-5
-1.662, 2.906e-5
-1.663, 2.926e-5
-1.664, 2.948e-5
-1.665, 2.970e-5
-1.666, 2.992e-5
-1.667, 3.014e-5
-1.668, 3.036e-5
-1.669, 3.059e-5
-1.670, 3.083e-5
-1.671, 3.107e-5
-1.672, 3.130e-5
-1.673, 3.154e-5
-1.674, 3.179e-5
-1.675, 3.205e-5
-1.676, 3.230e-5
-1.677, 3.255e-5
-1.678, 3.280e-5
-1.679, 3.306e-5
-1.680, 3.334e-5
-1.681, 3.360e-5
-1.682, 3.387e-5
-1.683, 3.413e-5
-1.684, 3.441e-5
-1.685, 3.470e-5
-1.686, 3.499e-5
-1.687, 3.527e-5
-1.688, 3.556e-5
-1.689, 3.586e-5
-1.690, 3.617e-5
-1.691, 3.648e-5
-1.692, 3.678e-5
-1.693, 3.709e-5
-1.694, 3.740e-5
-1.695, 3.772e-5
-1.696, 3.804e-5
-1.697, 3.837e-5
-1.698, 3.869e-5
-1.699, 3.903e-5
-1.700, 3.938e-5
-1.701, 3.973e-5
-1.702, 4.007e-5
-1.703, 4.042e-5
-1.704, 4.078e-5
-1.705, 4.115e-5
-1.706, 4.152e-5
-1.707, 4.189e-5
-1.708, 4.225e-5
-1.709, 4.264e-5
-1.710, 4.303e-5
-1.711, 4.342e-5
-1.712, 4.380e-5
-1.713, 4.419e-5
-1.714, 4.459e-5
-1.715, 4.501e-5
-1.716, 4.542e-5
-1.717, 4.583e-5
-1.718, 4.625e-5
-1.719, 4.668e-5
-1.720, 4.712e-5
-1.721, 4.757e-5
-1.722, 4.801e-5
-1.723, 4.846e-5
-1.724, 4.891e-5
-1.725, 4.938e-5
-1.726, 4.985e-5
-1.727, 5.031e-5
-1.728, 5.078e-5
-1.729, 5.126e-5
-1.730, 5.175e-5
-1.731, 5.224e-5
-1.732, 5.273e-5
-1.733, 5.323e-5
-1.734, 5.374e-5
-1.735, 5.425e-5
-1.736, 5.477e-5
-1.737, 5.530e-5
-1.738, 5.582e-5
-1.739, 5.636e-5
-1.740, 5.691e-5
-1.741, 5.747e-5
-1.742, 5.801e-5
-1.743, 5.856e-5
-1.744, 5.912e-5
-1.745, 5.969e-5
-1.746, 6.026e-5
-1.747, 6.085e-5
-1.748, 6.143e-5
-1.749, 6.203e-5
-1.750, 6.264e-5
-1.751, 6.324e-5
-1.752, 6.385e-5
-1.753, 6.447e-5
-1.754, 6.509e-5
-1.755, 6.573e-5
-1.756, 6.637e-5
-1.757, 6.700e-5
-1.758, 6.764e-5
-1.759, 6.830e-5
-1.760, 6.897e-5
-1.761, 6.964e-5
-1.762, 7.031e-5
-1.763, 7.099e-5
-1.764, 7.170e-5
-1.765, 7.239e-5
-1.766, 7.309e-5
-1.767, 7.378e-5
-1.768, 7.449e-5
-1.769, 7.520e-5
-1.770, 7.592e-5
-1.771, 7.666e-5
-1.772, 7.738e-5
-1.773, 7.813e-5
-1.774, 7.888e-5
-1.775, 7.966e-5
-1.776, 8.043e-5
-1.777, 8.119e-5
-1.778, 8.195e-5
-1.779, 8.274e-5
-1.780, 8.353e-5
-1.781, 8.433e-5
-1.782, 8.513e-5
-1.783, 8.593e-5
-1.784, 8.675e-5
-1.785, 8.759e-5
-1.786, 8.843e-5
-1.787, 8.926e-5
-1.788, 9.010e-5
-1.789, 9.095e-5
-1.790, 9.182e-5
-1.791, 9.268e-5
-1.792, 9.356e-5
-1.793, 9.444e-5
-1.794, 9.533e-5
-1.795, 9.624e-5
-1.796, 9.714e-5
-1.797, 9.805e-5
-1.798, 9.894e-5
-1.799, 9.987e-5
-1.800, 1.008e-4
-1.801, 1.018e-4
-1.802, 1.027e-4
-1.803, 1.036e-4
-1.804, 1.046e-4
-1.805, 1.056e-4
-1.806, 1.066e-4
-1.807, 1.075e-4
-1.808, 1.085e-4
-1.809, 1.095e-4
-1.810, 1.106e-4
-1.811, 1.116e-4
-1.812, 1.126e-4
-1.813, 1.136e-4
-1.814, 1.147e-4
-1.815, 1.157e-4
-1.816, 1.168e-4
-1.817, 1.179e-4
-1.818, 1.190e-4
-1.819, 1.201e-4
-1.820, 1.211e-4
-1.821, 1.222e-4
-1.822, 1.233e-4
-1.823, 1.244e-4
-1.824, 1.256e-4
-1.825, 1.267e-4
-1.826, 1.278e-4
-1.827, 1.290e-4
-1.828, 1.302e-4
-1.829, 1.314e-4
-1.830, 1.325e-4
-1.831, 1.338e-4
-1.832, 1.350e-4
-1.833, 1.362e-4
-1.834, 1.375e-4
-1.835, 1.387e-4
-1.836, 1.399e-4
-1.837, 1.412e-4
-1.838, 1.425e-4
-1.839, 1.438e-4
-1.840, 1.451e-4
-1.841, 1.464e-4
-1.842, 1.478e-4
-1.843, 1.491e-4
-1.844, 1.505e-4
-1.845, 1.519e-4
-1.846, 1.533e-4
-1.847, 1.547e-4
-1.848, 1.561e-4
-1.849, 1.576e-4
-1.850, 1.590e-4
-1.851, 1.605e-4
-1.852, 1.621e-4
-1.853, 1.636e-4
-1.854, 1.652e-4
-1.855, 1.668e-4
-1.856, 1.684e-4
-1.857, 1.700e-4
-1.858, 1.716e-4
-1.859, 1.732e-4
-1.860, 1.749e-4
-1.861, 1.767e-4
-1.862, 1.784e-4
-1.863, 1.801e-4
-1.864, 1.819e-4
-1.865, 1.838e-4
-1.866, 1.856e-4
-1.867, 1.875e-4
-1.868, 1.894e-4
-1.869, 1.914e-4
-1.870, 1.934e-4
-1.871, 1.954e-4
-1.872, 1.975e-4
-1.873, 1.995e-4
-1.874, 2.016e-4
-1.875, 2.038e-4
-1.876, 2.060e-4
-1.877, 2.081e-4
-1.878, 2.104e-4
-1.879, 2.127e-4
-1.880, 2.150e-4
-1.881, 2.174e-4
-1.882, 2.198e-4
-1.883, 2.223e-4
-1.884, 2.247e-4
-1.885, 2.272e-4
-1.886, 2.297e-4
-1.887, 2.322e-4
-1.888, 2.348e-4
-1.889, 2.375e-4
-1.890, 2.402e-4
-1.891, 2.430e-4
-1.892, 2.457e-4
-1.893, 2.485e-4
-1.894, 2.514e-4
-1.895, 2.545e-4
-1.896, 2.574e-4
-1.897, 2.604e-4
-1.898, 2.635e-4
-1.899, 2.665e-4
-1.900, 2.696e-4
-1.901, 2.729e-4
-1.902, 2.760e-4
-1.903, 2.793e-4
-1.904, 2.826e-4
-1.905, 2.860e-4
-1.906, 2.894e-4
-1.907, 2.929e-4
-1.908, 2.964e-4
-1.909, 2.999e-4
-1.910, 3.033e-4
-1.911, 3.070e-4
-1.912, 3.109e-4
-1.913, 3.146e-4
-1.914, 3.184e-4
-1.915, 3.223e-4
-1.916, 3.263e-4
-1.917, 3.304e-4
-1.918, 3.344e-4
-1.919, 3.385e-4
-1.920, 3.428e-4
-1.921, 3.470e-4
-1.922, 3.512e-4
-1.923, 3.555e-4
-1.924, 3.599e-4
-1.925, 3.644e-4
-1.926, 3.689e-4
-1.927, 3.734e-4
-1.928, 3.779e-4
-1.929, 3.826e-4
-1.930, 3.873e-4
-1.931, 3.921e-4
-1.932, 3.970e-4
-1.933, 4.018e-4
-1.934, 4.067e-4
-1.935, 4.117e-4
-1.936, 4.167e-4
-1.937, 4.217e-4
-1.938, 4.267e-4
-1.939, 4.319e-4
-1.940, 4.370e-4
-1.941, 4.422e-4
-1.942, 4.475e-4
-1.943, 4.528e-4
-1.944, 4.581e-4
-1.945, 4.636e-4
-1.946, 4.692e-4
-1.947, 4.748e-4
-1.948, 4.804e-4
-1.949, 4.862e-4
-1.950, 4.920e-4
-1.951, 4.978e-4
-1.952, 5.037e-4
-1.953, 5.097e-4
-1.954, 5.156e-4
-1.955, 5.216e-4
-1.956, 5.278e-4
-1.957, 5.339e-4
-1.958, 5.401e-4
-1.959, 5.462e-4
-1.960, 5.524e-4
-1.961, 5.587e-4
-1.962, 5.650e-4
-1.963, 5.712e-4
-1.964, 5.774e-4
-1.965, 5.837e-4
-1.966, 5.902e-4
-1.967, 5.966e-4
-1.968, 6.032e-4
-1.969, 6.097e-4
-1.970, 6.162e-4
-1.971, 6.229e-4
-1.972, 6.294e-4
-1.973, 6.359e-4
-1.974, 6.424e-4
-1.975, 6.491e-4
-1.976, 6.558e-4
-1.977, 6.626e-4
-1.978, 6.694e-4
-1.979, 6.760e-4
-1.980, 6.826e-4
-1.981, 6.894e-4
-1.982, 6.962e-4
-1.983, 7.030e-4
-1.984, 7.097e-4
-1.985, 7.166e-4
-1.986, 7.234e-4
-1.987, 7.303e-4
-1.988, 7.372e-4
-1.989, 7.441e-4
-1.990, 7.510e-4
-1.991, 7.579e-4
-1.992, 7.649e-4
-1.993, 7.719e-4
-1.994, 7.789e-4
-1.995, 7.858e-4
-1.996, 7.929e-4
-1.997, 7.999e-4
-1.998, 8.070e-4
-1.999, 8.139e-4
-2.000, 8.210e-4
-2.001, 8.281e-4
-2.002, 8.352e-4
-2.003, 8.422e-4
-2.004, 8.493e-4
-2.005, 8.565e-4
-2.006, 8.637e-4
-2.007, 8.707e-4
-2.008, 8.777e-4
-2.009, 8.849e-4
-2.010, 8.921e-4
-2.011, 8.994e-4
-2.012, 9.068e-4
-2.013, 9.140e-4
-2.014, 9.213e-4
-2.015, 9.286e-4
-2.016, 9.360e-4
-2.017, 9.433e-4
-2.018, 9.507e-4
-2.019, 9.581e-4
-2.020, 9.655e-4
-2.021, 9.732e-4
-2.022, 9.807e-4
-2.023, 9.880e-4
-2.024, 9.956e-4
-2.025, 1.003e-3
-2.026, 1.010e-3
-2.027, 1.011e-3
-2.028, 1.011e-3
-2.029, 1.011e-3
-2.030, 1.011e-3
-2.031, 1.011e-3
-2.032, 1.011e-3
-2.033, 1.011e-3
-2.034, 1.011e-3
-2.035, 1.011e-3
-2.036, 1.011e-3
-2.037, 1.011e-3
-2.038, 1.011e-3
-2.039, 1.011e-3
-2.040, 1.011e-3
-2.041, 1.011e-3
-2.042, 1.011e-3
-2.043, 1.011e-3
-2.044, 1.011e-3
-2.045, 1.011e-3
-2.046, 1.011e-3
-2.047, 1.011e-3
-2.048, 1.011e-3
-2.049, 1.011e-3
-2.050, 1.011e-3
-2.051, 1.011e-3
-2.052, 1.011e-3
-2.053, 1.011e-3
-2.054, 1.011e-3
-2.055, 1.011e-3
-2.056, 1.011e-3
-2.057, 1.011e-3
-2.058, 1.011e-3
-2.059, 1.011e-3
-2.060, 1.011e-3
-2.061, 1.011e-3
-2.062, 1.011e-3
-2.063, 1.011e-3
-2.064, 1.011e-3
-2.065, 1.011e-3
-2.066, 1.011e-3
-2.067, 1.011e-3
-2.068, 1.011e-3
-2.069, 1.011e-3
-2.070, 1.011e-3
-2.071, 1.011e-3
-2.072, 1.011e-3
-2.073, 1.011e-3
-2.074, 1.011e-3
-2.075, 1.011e-3
-2.076, 1.011e-3
-2.077, 1.011e-3
-2.078, 1.011e-3
-2.079, 1.011e-3
-2.080, 1.011e-3
-2.081, 1.011e-3
-2.082, 1.011e-3
-2.083, 1.011e-3
-2.084, 1.011e-3
-2.085, 1.011e-3
-2.086, 1.011e-3
-2.087, 1.011e-3
-2.088, 1.011e-3
-2.089, 1.011e-3
-2.090, 1.011e-3
-2.091, 1.011e-3
-2.092, 1.011e-3
-2.093, 1.011e-3
-2.094, 1.011e-3
-2.095, 1.011e-3
-2.096, 1.011e-3
-2.097, 1.011e-3
-2.098, 1.011e-3
-2.099, 1.011e-3
-2.100, 1.011e-3
-2.101, 1.011e-3
-2.102, 1.011e-3
-2.103, 1.011e-3
-2.104, 1.011e-3
-2.105, 1.011e-3
-2.106, 1.011e-3
-2.107, 1.011e-3
-2.108, 1.011e-3
-2.109, 1.011e-3
-2.110, 1.011e-3
-2.111, 1.011e-3
-2.112, 1.011e-3
-2.113, 1.011e-3
-2.114, 1.011e-3
-2.115, 1.011e-3
-2.116, 1.011e-3
-2.117, 1.011e-3
-2.118, 1.011e-3
-2.119, 1.011e-3
-2.120, 1.011e-3
-2.121, 1.011e-3
-2.122, 1.011e-3
-2.123, 1.011e-3
-2.124, 1.011e-3
-2.125, 1.011e-3
-2.126, 1.011e-3
-2.127, 1.011e-3
-2.128, 1.011e-3
-2.129, 1.011e-3
-2.130, 1.011e-3
-2.131, 1.011e-3
-2.132, 1.011e-3
-2.133, 1.011e-3
-2.134, 1.011e-3
-2.135, 1.011e-3
-2.136, 1.011e-3
-2.137, 1.011e-3
-2.138, 1.011e-3
-2.139, 1.011e-3
-2.140, 1.011e-3
-2.141, 1.011e-3
-2.142, 1.011e-3
-2.143, 1.011e-3
-2.144, 1.011e-3
-2.145, 1.011e-3
-2.146, 1.011e-3
-2.147, 1.011e-3
-2.148, 1.011e-3
-2.149, 1.011e-3
-2.150, 1.011e-3
-2.151, 1.011e-3
-2.152, 1.011e-3
-2.153, 1.011e-3
-2.154, 1.011e-3
-2.155, 1.011e-3
-2.156, 1.011e-3
-2.157, 1.011e-3
-2.158, 1.011e-3
-2.159, 1.011e-3
-2.160, 1.011e-3
-2.161, 1.011e-3
-2.162, 1.011e-3
-2.163, 1.011e-3
-2.164, 1.011e-3
-2.165, 1.011e-3
-2.166, 1.011e-3
-2.167, 1.011e-3
-2.168, 1.011e-3
-2.169, 1.011e-3
-2.170, 1.011e-3
-2.171, 1.011e-3
-2.172, 1.011e-3
-2.173, 1.011e-3
-2.174, 1.011e-3
-2.175, 1.011e-3
-2.176, 1.011e-3
-2.177, 1.011e-3
-2.178, 1.011e-3
-2.179, 1.011e-3
-2.180, 1.011e-3
-2.181, 1.011e-3
-2.182, 1.011e-3
-2.183, 1.011e-3
-2.184, 1.011e-3
-2.185, 1.011e-3
-2.186, 1.011e-3
-2.187, 1.011e-3
-2.188, 1.011e-3
-2.189, 1.011e-3
-2.190, 1.011e-3
-2.191, 1.011e-3
-2.192, 1.011e-3
-2.193, 1.011e-3
-2.194, 1.011e-3
-2.195, 1.011e-3
-2.196, 1.011e-3
-2.197, 1.011e-3
-2.198, 1.011e-3
-2.199, 1.011e-3
-2.200, 1.011e-3
-2.201, 1.011e-3
-2.202, 1.011e-3
-2.203, 1.011e-3
-2.204, 1.011e-3
-2.205, 1.011e-3
-2.206, 1.011e-3
-2.207, 1.011e-3
-2.208, 1.011e-3
-2.209, 1.011e-3
-2.210, 1.011e-3
-2.211, 1.011e-3
-2.212, 1.011e-3
-2.213, 1.011e-3
-2.214, 1.011e-3
-2.215, 1.011e-3
-2.216, 1.011e-3
-2.217, 1.011e-3
-2.218, 1.011e-3
-2.219, 1.011e-3
-2.220, 1.011e-3
-2.221, 1.011e-3
-2.222, 1.011e-3
-2.223, 1.011e-3
-2.224, 1.011e-3
-2.225, 1.011e-3
-2.226, 1.011e-3
-2.227, 1.011e-3
-2.228, 1.011e-3
-2.229, 1.011e-3
-2.230, 1.011e-3
-2.231, 1.011e-3
-2.232, 1.011e-3
-2.233, 1.011e-3
-2.234, 1.011e-3
-2.235, 1.011e-3
-2.236, 1.011e-3
-2.237, 1.011e-3
-2.238, 1.011e-3
-2.239, 1.011e-3
-2.240, 1.011e-3
-2.241, 1.011e-3
-2.242, 1.011e-3
-2.243, 1.011e-3
-2.244, 1.011e-3
-2.245, 1.011e-3
-2.246, 1.011e-3
-2.247, 1.011e-3
-2.248, 1.011e-3
-2.249, 1.011e-3
-2.250, 1.011e-3
-2.251, 1.011e-3
-2.252, 1.011e-3
-2.253, 1.011e-3
-2.254, 1.011e-3
-2.255, 1.011e-3
-2.256, 1.011e-3
-2.257, 1.011e-3
-2.258, 1.011e-3
-2.259, 1.011e-3
-2.260, 1.011e-3
-2.261, 1.011e-3
-2.262, 1.011e-3
-2.263, 1.011e-3
-2.264, 1.011e-3
-2.265, 1.011e-3
-2.266, 1.011e-3
-2.267, 1.011e-3
-2.268, 1.011e-3
-2.269, 1.011e-3
-2.270, 1.011e-3
-2.271, 1.011e-3
-2.272, 1.011e-3
-2.273, 1.011e-3
-2.274, 1.011e-3
-2.275, 1.011e-3
-2.276, 1.011e-3
-2.277, 1.011e-3
-2.278, 1.011e-3
-2.279, 1.011e-3
-2.280, 1.011e-3
-2.281, 1.011e-3
-2.282, 1.011e-3
-2.283, 1.011e-3
-2.284, 1.011e-3
-2.285, 1.011e-3
-2.286, 1.011e-3
-2.287, 1.011e-3
-2.288, 1.011e-3
-2.289, 1.011e-3
-2.290, 1.011e-3
-2.291, 1.011e-3
-2.292, 1.011e-3
-2.293, 1.011e-3
-2.294, 1.011e-3
-2.295, 1.011e-3
-2.296, 1.011e-3
-2.297, 1.011e-3
-2.298, 1.011e-3
-2.299, 1.011e-3
