Sept. 23, 2024   08:01:43
Cyclic Voltammetry
File: c:/users/guazh/data/20240922_batch_417_500/2024-09-22-exp424\exp424-2024-09-23t07_48_47-h2koh\exp424_cv_50mvs_efin_-1800mv.bin
Data Source:  Experiment
Instrument Model:  CHI760E
Header: CV ran at 50 mVs
Note: 

Init E (V) = -1
High E (V) = -1
Low E (V) = -1.8
Final E (V) = -1
Init P/N = N
Scan Rate (V/s) = 0.05
Segment = 7
Sample Interval (V) = 0.001
Quiet Time (sec) = 60
Sensitivity (A/V) = 0.001
Comp R (ohm) = 2.8

Results:

Channel 1:
Segment 1:

Segment 2:

Segment 3:

Segment 4:

Segment 5:

Segment 6:

Segment 7:

Potential/V, Current/A

-1.000, 3.491e-7
-1.001, 3.431e-7
-1.002, 4.734e-7
-1.003, 5.257e-7
-1.004, 5.602e-7
-1.005, 5.888e-7
-1.006, 6.135e-7
-1.007, 7.220e-7
-1.008, 6.687e-7
-1.009, 7.881e-7
-1.010, 7.417e-7
-1.011, 7.585e-7
-1.012, 8.542e-7
-1.013, 8.009e-7
-1.014, 9.459e-7
-1.015, 8.295e-7
-1.016, 9.390e-7
-1.017, 8.937e-7
-1.018, 9.331e-7
-1.019, 1.029e-6
-1.020, 9.894e-7
-1.021, 1.123e-6
-1.022, 1.037e-6
-1.023, 1.122e-6
-1.024, 1.065e-6
-1.025, 1.137e-6
-1.026, 1.183e-6
-1.027, 1.140e-6
-1.028, 1.288e-6
-1.029, 1.203e-6
-1.030, 1.255e-6
-1.031, 1.214e-6
-1.032, 1.264e-6
-1.033, 1.351e-6
-1.034, 1.297e-6
-1.035, 1.377e-6
-1.036, 1.290e-6
-1.037, 1.439e-6
-1.038, 1.382e-6
-1.039, 1.391e-6
-1.040, 1.452e-6
-1.041, 1.436e-6
-1.042, 1.508e-6
-1.043, 1.443e-6
-1.044, 1.587e-6
-1.045, 1.494e-6
-1.046, 1.576e-6
-1.047, 1.561e-6
-1.048, 1.527e-6
-1.049, 1.641e-6
-1.050, 1.554e-6
-1.051, 1.725e-6
-1.052, 1.631e-6
-1.053, 1.700e-6
-1.054, 1.679e-6
-1.055, 1.681e-6
-1.056, 1.754e-6
-1.057, 1.705e-6
-1.058, 1.818e-6
-1.059, 1.737e-6
-1.060, 1.786e-6
-1.061, 1.766e-6
-1.062, 1.841e-6
-1.063, 1.849e-6
-1.064, 1.822e-6
-1.065, 1.913e-6
-1.066, 1.834e-6
-1.067, 1.983e-6
-1.068, 1.879e-6
-1.069, 1.971e-6
-1.070, 1.950e-6
-1.071, 1.944e-6
-1.072, 2.031e-6
-1.073, 1.974e-6
-1.074, 2.064e-6
-1.075, 2.013e-6
-1.076, 2.093e-6
-1.077, 2.043e-6
-1.078, 2.076e-6
-1.079, 2.123e-6
-1.080, 2.134e-6
-1.081, 2.183e-6
-1.082, 2.141e-6
-1.083, 2.251e-6
-1.084, 2.118e-6
-1.085, 2.213e-6
-1.086, 2.225e-6
-1.087, 2.244e-6
-1.088, 2.267e-6
-1.089, 2.251e-6
-1.090, 2.337e-6
-1.091, 2.270e-6
-1.092, 2.371e-6
-1.093, 2.324e-6
-1.094, 2.374e-6
-1.095, 2.356e-6
-1.096, 2.401e-6
-1.097, 2.453e-6
-1.098, 2.343e-6
-1.099, 2.465e-6
-1.100, 2.369e-6
-1.101, 2.526e-6
-1.102, 2.420e-6
-1.103, 2.544e-6
-1.104, 2.465e-6
-1.105, 2.530e-6
-1.106, 2.555e-6
-1.107, 2.582e-6
-1.108, 2.612e-6
-1.109, 2.529e-6
-1.110, 2.629e-6
-1.111, 2.565e-6
-1.112, 2.684e-6
-1.113, 2.619e-6
-1.114, 2.681e-6
-1.115, 2.684e-6
-1.116, 2.685e-6
-1.117, 2.729e-6
-1.118, 2.677e-6
-1.119, 2.809e-6
-1.120, 2.709e-6
-1.121, 2.835e-6
-1.122, 2.790e-6
-1.123, 2.824e-6
-1.124, 2.798e-6
-1.125, 2.845e-6
-1.126, 2.881e-6
-1.127, 2.841e-6
-1.128, 2.975e-6
-1.129, 2.860e-6
-1.130, 2.953e-6
-1.131, 2.919e-6
-1.132, 2.979e-6
-1.133, 2.962e-6
-1.134, 3.000e-6
-1.135, 3.008e-6
-1.136, 3.000e-6
-1.137, 3.073e-6
-1.138, 3.007e-6
-1.139, 3.141e-6
-1.140, 3.038e-6
-1.141, 3.144e-6
-1.142, 3.068e-6
-1.143, 3.122e-6
-1.144, 3.098e-6
-1.145, 3.178e-6
-1.146, 3.198e-6
-1.147, 3.146e-6
-1.148, 3.268e-6
-1.149, 3.177e-6
-1.150, 3.258e-6
-1.151, 3.199e-6
-1.152, 3.283e-6
-1.153, 3.264e-6
-1.154, 3.298e-6
-1.155, 3.340e-6
-1.156, 3.341e-6
-1.157, 3.332e-6
-1.158, 3.298e-6
-1.159, 3.461e-6
-1.160, 3.360e-6
-1.161, 3.484e-6
-1.162, 3.416e-6
-1.163, 3.442e-6
-1.164, 3.398e-6
-1.165, 3.518e-6
-1.166, 3.463e-6
-1.167, 3.499e-6
-1.168, 3.559e-6
-1.169, 3.522e-6
-1.170, 3.566e-6
-1.171, 3.527e-6
-1.172, 3.608e-6
-1.173, 3.549e-6
-1.174, 3.566e-6
-1.175, 3.639e-6
-1.176, 3.588e-6
-1.177, 3.647e-6
-1.178, 3.586e-6
-1.179, 3.768e-6
-1.180, 3.668e-6
-1.181, 3.754e-6
-1.182, 3.728e-6
-1.183, 3.677e-6
-1.184, 3.770e-6
-1.185, 3.741e-6
-1.186, 3.806e-6
-1.187, 3.772e-6
-1.188, 3.809e-6
-1.189, 3.778e-6
-1.190, 3.829e-6
-1.191, 3.799e-6
-1.192, 3.857e-6
-1.193, 3.895e-6
-1.194, 3.836e-6
-1.195, 3.912e-6
-1.196, 3.838e-6
-1.197, 3.956e-6
-1.198, 3.910e-6
-1.199, 3.927e-6
-1.200, 3.926e-6
-1.201, 3.895e-6
-1.202, 4.006e-6
-1.203, 3.920e-6
-1.204, 4.056e-6
-1.205, 3.968e-6
-1.206, 4.061e-6
-1.207, 4.001e-6
-1.208, 4.030e-6
-1.209, 4.057e-6
-1.210, 4.033e-6
-1.211, 4.136e-6
-1.212, 4.069e-6
-1.213, 4.131e-6
-1.214, 4.082e-6
-1.215, 4.152e-6
-1.216, 4.160e-6
-1.217, 4.136e-6
-1.218, 4.252e-6
-1.219, 4.151e-6
-1.220, 4.266e-6
-1.221, 4.190e-6
-1.222, 4.274e-6
-1.223, 4.274e-6
-1.224, 4.238e-6
-1.225, 4.266e-6
-1.226, 4.261e-6
-1.227, 4.350e-6
-1.228, 4.303e-6
-1.229, 4.342e-6
-1.230, 4.334e-6
-1.231, 4.358e-6
-1.232, 4.394e-6
-1.233, 4.382e-6
-1.234, 4.439e-6
-1.235, 4.409e-6
-1.236, 4.472e-6
-1.237, 4.440e-6
-1.238, 4.401e-6
-1.239, 4.508e-6
-1.240, 4.417e-6
-1.241, 4.576e-6
-1.242, 4.499e-6
-1.243, 4.588e-6
-1.244, 4.485e-6
-1.245, 4.537e-6
-1.246, 4.548e-6
-1.247, 4.585e-6
-1.248, 4.607e-6
-1.249, 4.576e-6
-1.250, 4.664e-6
-1.251, 4.526e-6
-1.252, 4.653e-6
-1.253, 4.655e-6
-1.254, 4.646e-6
-1.255, 4.717e-6
-1.256, 4.650e-6
-1.257, 4.731e-6
-1.258, 4.639e-6
-1.259, 4.736e-6
-1.260, 4.681e-6
-1.261, 4.771e-6
-1.262, 4.727e-6
-1.263, 4.748e-6
-1.264, 4.816e-6
-1.265, 4.721e-6
-1.266, 4.857e-6
-1.267, 4.761e-6
-1.268, 4.827e-6
-1.269, 4.788e-6
-1.270, 4.862e-6
-1.271, 4.832e-6
-1.272, 4.867e-6
-1.273, 4.936e-6
-1.274, 4.823e-6
-1.275, 4.947e-6
-1.276, 4.889e-6
-1.277, 4.950e-6
-1.278, 4.999e-6
-1.279, 4.865e-6
-1.280, 4.998e-6
-1.281, 4.905e-6
-1.282, 5.074e-6
-1.283, 4.944e-6
-1.284, 5.032e-6
-1.285, 5.041e-6
-1.286, 5.004e-6
-1.287, 5.073e-6
-1.288, 4.992e-6
-1.289, 5.128e-6
-1.290, 5.032e-6
-1.291, 5.047e-6
-1.292, 5.065e-6
-1.293, 5.055e-6
-1.294, 5.179e-6
-1.295, 5.038e-6
-1.296, 5.177e-6
-1.297, 5.131e-6
-1.298, 5.212e-6
-1.299, 5.178e-6
-1.300, 5.198e-6
-1.301, 5.239e-6
-1.302, 5.174e-6
-1.303, 5.294e-6
-1.304, 5.174e-6
-1.305, 5.264e-6
-1.306, 5.238e-6
-1.307, 5.296e-6
-1.308, 5.353e-6
-1.309, 5.249e-6
-1.310, 5.340e-6
-1.311, 5.246e-6
-1.312, 5.360e-6
-1.313, 5.342e-6
-1.314, 5.334e-6
-1.315, 5.480e-6
-1.316, 5.308e-6
-1.317, 5.494e-6
-1.318, 5.383e-6
-1.319, 5.462e-6
-1.320, 5.461e-6
-1.321, 5.409e-6
-1.322, 5.484e-6
-1.323, 5.468e-6
-1.324, 5.614e-6
-1.325, 5.569e-6
-1.326, 5.608e-6
-1.327, 5.596e-6
-1.328, 5.596e-6
-1.329, 5.609e-6
-1.330, 5.595e-6
-1.331, 5.646e-6
-1.332, 5.580e-6
-1.333, 5.634e-6
-1.334, 5.624e-6
-1.335, 5.644e-6
-1.336, 5.650e-6
-1.337, 5.619e-6
-1.338, 5.685e-6
-1.339, 5.649e-6
-1.340, 5.686e-6
-1.341, 5.669e-6
-1.342, 5.708e-6
-1.343, 5.712e-6
-1.344, 5.675e-6
-1.345, 5.757e-6
-1.346, 5.734e-6
-1.347, 5.730e-6
-1.348, 5.736e-6
-1.349, 5.784e-6
-1.350, 5.737e-6
-1.351, 5.814e-6
-1.352, 5.804e-6
-1.353, 5.780e-6
-1.354, 5.837e-6
-1.355, 5.791e-6
-1.356, 5.869e-6
-1.357, 5.818e-6
-1.358, 5.840e-6
-1.359, 5.928e-6
-1.360, 5.836e-6
-1.361, 5.940e-6
-1.362, 5.833e-6
-1.363, 5.975e-6
-1.364, 5.938e-6
-1.365, 5.978e-6
-1.366, 6.030e-6
-1.367, 5.991e-6
-1.368, 6.008e-6
-1.369, 5.983e-6
-1.370, 6.091e-6
-1.371, 5.983e-6
-1.372, 6.066e-6
-1.373, 6.091e-6
-1.374, 6.066e-6
-1.375, 6.142e-6
-1.376, 6.092e-6
-1.377, 6.155e-6
-1.378, 6.094e-6
-1.379, 6.204e-6
-1.380, 6.117e-6
-1.381, 6.201e-6
-1.382, 6.183e-6
-1.383, 6.199e-6
-1.384, 6.224e-6
-1.385, 6.177e-6
-1.386, 6.289e-6
-1.387, 6.211e-6
-1.388, 6.296e-6
-1.389, 6.225e-6
-1.390, 6.272e-6
-1.391, 6.292e-6
-1.392, 6.296e-6
-1.393, 6.380e-6
-1.394, 6.301e-6
-1.395, 6.382e-6
-1.396, 6.327e-6
-1.397, 6.414e-6
-1.398, 6.430e-6
-1.399, 6.359e-6
-1.400, 6.512e-6
-1.401, 6.413e-6
-1.402, 6.480e-6
-1.403, 6.463e-6
-1.404, 6.523e-6
-1.405, 6.472e-6
-1.406, 6.528e-6
-1.407, 6.563e-6
-1.408, 6.512e-6
-1.409, 6.631e-6
-1.410, 6.588e-6
-1.411, 6.657e-6
-1.412, 6.659e-6
-1.413, 6.658e-6
-1.414, 6.724e-6
-1.415, 6.707e-6
-1.416, 6.754e-6
-1.417, 6.742e-6
-1.418, 6.830e-6
-1.419, 6.733e-6
-1.420, 6.770e-6
-1.421, 6.825e-6
-1.422, 6.845e-6
-1.423, 6.921e-6
-1.424, 6.854e-6
-1.425, 6.953e-6
-1.426, 6.931e-6
-1.427, 6.980e-6
-1.428, 6.987e-6
-1.429, 6.973e-6
-1.430, 7.052e-6
-1.431, 7.002e-6
-1.432, 7.140e-6
-1.433, 7.065e-6
-1.434, 7.128e-6
-1.435, 7.151e-6
-1.436, 7.179e-6
-1.437, 7.230e-6
-1.438, 7.202e-6
-1.439, 7.304e-6
-1.440, 7.211e-6
-1.441, 7.345e-6
-1.442, 7.327e-6
-1.443, 7.432e-6
-1.444, 7.422e-6
-1.445, 7.411e-6
-1.446, 7.508e-6
-1.447, 7.479e-6
-1.448, 7.583e-6
-1.449, 7.498e-6
-1.450, 7.633e-6
-1.451, 7.603e-6
-1.452, 7.686e-6
-1.453, 7.787e-6
-1.454, 7.757e-6
-1.455, 7.918e-6
-1.456, 7.820e-6
-1.457, 7.964e-6
-1.458, 7.938e-6
-1.459, 8.010e-6
-1.460, 7.981e-6
-1.461, 8.034e-6
-1.462, 8.100e-6
-1.463, 8.112e-6
-1.464, 8.222e-6
-1.465, 8.139e-6
-1.466, 8.259e-6
-1.467, 8.254e-6
-1.468, 8.265e-6
-1.469, 8.316e-6
-1.470, 8.398e-6
-1.471, 8.433e-6
-1.472, 8.395e-6
-1.473, 8.471e-6
-1.474, 8.358e-6
-1.475, 8.486e-6
-1.476, 8.486e-6
-1.477, 8.508e-6
-1.478, 8.592e-6
-1.479, 8.574e-6
-1.480, 8.642e-6
-1.481, 8.572e-6
-1.482, 8.701e-6
-1.483, 8.654e-6
-1.484, 8.701e-6
-1.485, 8.774e-6
-1.486, 8.776e-6
-1.487, 8.798e-6
-1.488, 8.755e-6
-1.489, 8.860e-6
-1.490, 8.837e-6
-1.491, 8.890e-6
-1.492, 8.899e-6
-1.493, 8.875e-6
-1.494, 9.024e-6
-1.495, 8.936e-6
-1.496, 8.992e-6
-1.497, 8.983e-6
-1.498, 9.104e-6
-1.499, 9.084e-6
-1.500, 9.101e-6
-1.501, 9.105e-6
-1.502, 9.126e-6
-1.503, 9.185e-6
-1.504, 9.124e-6
-1.505, 9.209e-6
-1.506, 9.133e-6
-1.507, 9.274e-6
-1.508, 9.253e-6
-1.509, 9.354e-6
-1.510, 9.431e-6
-1.511, 9.420e-6
-1.512, 9.469e-6
-1.513, 9.446e-6
-1.514, 9.592e-6
-1.515, 9.518e-6
-1.516, 9.642e-6
-1.517, 9.625e-6
-1.518, 9.697e-6
-1.519, 9.745e-6
-1.520, 9.763e-6
-1.521, 9.920e-6
-1.522, 9.894e-6
-1.523, 9.978e-6
-1.524, 9.901e-6
-1.525, 9.954e-6
-1.526, 1.003e-5
-1.527, 9.996e-6
-1.528, 1.014e-5
-1.529, 1.008e-5
-1.530, 1.026e-5
-1.531, 1.018e-5
-1.532, 1.028e-5
-1.533, 1.030e-5
-1.534, 1.038e-5
-1.535, 1.039e-5
-1.536, 1.044e-5
-1.537, 1.051e-5
-1.538, 1.054e-5
-1.539, 1.065e-5
-1.540, 1.070e-5
-1.541, 1.079e-5
-1.542, 1.083e-5
-1.543, 1.084e-5
-1.544, 1.089e-5
-1.545, 1.091e-5
-1.546, 1.095e-5
-1.547, 1.102e-5
-1.548, 1.114e-5
-1.549, 1.113e-5
-1.550, 1.122e-5
-1.551, 1.122e-5
-1.552, 1.123e-5
-1.553, 1.134e-5
-1.554, 1.130e-5
-1.555, 1.142e-5
-1.556, 1.138e-5
-1.557, 1.153e-5
-1.558, 1.155e-5
-1.559, 1.160e-5
-1.560, 1.180e-5
-1.561, 1.175e-5
-1.562, 1.195e-5
-1.563, 1.189e-5
-1.564, 1.202e-5
-1.565, 1.203e-5
-1.566, 1.212e-5
-1.567, 1.218e-5
-1.568, 1.217e-5
-1.569, 1.234e-5
-1.570, 1.232e-5
-1.571, 1.245e-5
-1.572, 1.252e-5
-1.573, 1.262e-5
-1.574, 1.266e-5
-1.575, 1.274e-5
-1.576, 1.286e-5
-1.577, 1.283e-5
-1.578, 1.289e-5
-1.579, 1.286e-5
-1.580, 1.300e-5
-1.581, 1.308e-5
-1.582, 1.312e-5
-1.583, 1.318e-5
-1.584, 1.318e-5
-1.585, 1.328e-5
-1.586, 1.329e-5
-1.587, 1.338e-5
-1.588, 1.343e-5
-1.589, 1.349e-5
-1.590, 1.364e-5
-1.591, 1.365e-5
-1.592, 1.374e-5
-1.593, 1.374e-5
-1.594, 1.378e-5
-1.595, 1.382e-5
-1.596, 1.384e-5
-1.597, 1.394e-5
-1.598, 1.391e-5
-1.599, 1.411e-5
-1.600, 1.418e-5
-1.601, 1.434e-5
-1.602, 1.432e-5
-1.603, 1.429e-5
-1.604, 1.439e-5
-1.605, 1.439e-5
-1.606, 1.457e-5
-1.607, 1.460e-5
-1.608, 1.474e-5
-1.609, 1.480e-5
-1.610, 1.485e-5
-1.611, 1.498e-5
-1.612, 1.507e-5
-1.613, 1.521e-5
-1.614, 1.526e-5
-1.615, 1.531e-5
-1.616, 1.535e-5
-1.617, 1.542e-5
-1.618, 1.559e-5
-1.619, 1.562e-5
-1.620, 1.582e-5
-1.621, 1.586e-5
-1.622, 1.605e-5
-1.623, 1.620e-5
-1.624, 1.633e-5
-1.625, 1.659e-5
-1.626, 1.673e-5
-1.627, 1.699e-5
-1.628, 1.716e-5
-1.629, 1.732e-5
-1.630, 1.750e-5
-1.631, 1.768e-5
-1.632, 1.790e-5
-1.633, 1.816e-5
-1.634, 1.858e-5
-1.635, 1.876e-5
-1.636, 1.898e-5
-1.637, 1.918e-5
-1.638, 1.913e-5
-1.639, 1.936e-5
-1.640, 1.959e-5
-1.641, 1.983e-5
-1.642, 2.013e-5
-1.643, 2.045e-5
-1.644, 2.057e-5
-1.645, 2.050e-5
-1.646, 2.071e-5
-1.647, 2.062e-5
-1.648, 2.073e-5
-1.649, 2.084e-5
-1.650, 2.102e-5
-1.651, 2.123e-5
-1.652, 2.145e-5
-1.653, 2.175e-5
-1.654, 2.190e-5
-1.655, 2.194e-5
-1.656, 2.208e-5
-1.657, 2.206e-5
-1.658, 2.241e-5
-1.659, 2.237e-5
-1.660, 2.257e-5
-1.661, 2.274e-5
-1.662, 2.305e-5
-1.663, 2.329e-5
-1.664, 2.347e-5
-1.665, 2.380e-5
-1.666, 2.389e-5
-1.667, 2.418e-5
-1.668, 2.448e-5
-1.669, 2.471e-5
-1.670, 2.505e-5
-1.671, 2.530e-5
-1.672, 2.560e-5
-1.673, 2.566e-5
-1.674, 2.594e-5
-1.675, 2.608e-5
-1.676, 2.642e-5
-1.677, 2.662e-5
-1.678, 2.664e-5
-1.679, 2.693e-5
-1.680, 2.716e-5
-1.681, 2.768e-5
-1.682, 2.785e-5
-1.683, 2.820e-5
-1.684, 2.838e-5
-1.685, 2.864e-5
-1.686, 2.906e-5
-1.687, 2.931e-5
-1.688, 2.967e-5
-1.689, 3.003e-5
-1.690, 3.047e-5
-1.691, 3.090e-5
-1.692, 3.116e-5
-1.693, 3.150e-5
-1.694, 3.184e-5
-1.695, 3.214e-5
-1.696, 3.260e-5
-1.697, 3.291e-5
-1.698, 3.268e-5
-1.699, 3.292e-5
-1.700, 3.363e-5
-1.701, 3.436e-5
-1.702, 3.517e-5
-1.703, 3.536e-5
-1.704, 3.587e-5
-1.705, 3.632e-5
-1.706, 3.659e-5
-1.707, 3.710e-5
-1.708, 3.742e-5
-1.709, 3.762e-5
-1.710, 3.853e-5
-1.711, 3.901e-5
-1.712, 3.931e-5
-1.713, 3.984e-5
-1.714, 4.030e-5
-1.715, 4.056e-5
-1.716, 4.105e-5
-1.717, 4.168e-5
-1.718, 4.224e-5
-1.719, 4.284e-5
-1.720, 4.330e-5
-1.721, 4.402e-5
-1.722, 4.489e-5
-1.723, 4.541e-5
-1.724, 4.615e-5
-1.725, 4.649e-5
-1.726, 4.694e-5
-1.727, 4.746e-5
-1.728, 4.820e-5
-1.729, 4.893e-5
-1.730, 4.939e-5
-1.731, 5.039e-5
-1.732, 5.098e-5
-1.733, 5.173e-5
-1.734, 5.234e-5
-1.735, 5.306e-5
-1.736, 5.362e-5
-1.737, 5.484e-5
-1.738, 5.594e-5
-1.739, 5.682e-5
-1.740, 5.783e-5
-1.741, 5.863e-5
-1.742, 5.933e-5
-1.743, 6.048e-5
-1.744, 6.153e-5
-1.745, 6.285e-5
-1.746, 6.404e-5
-1.747, 6.538e-5
-1.748, 6.668e-5
-1.749, 6.781e-5
-1.750, 6.909e-5
-1.751, 7.053e-5
-1.752, 7.190e-5
-1.753, 7.316e-5
-1.754, 7.500e-5
-1.755, 7.679e-5
-1.756, 7.853e-5
-1.757, 8.013e-5
-1.758, 8.132e-5
-1.759, 8.291e-5
-1.760, 8.449e-5
-1.761, 8.638e-5
-1.762, 8.847e-5
-1.763, 9.052e-5
-1.764, 9.267e-5
-1.765, 9.434e-5
-1.766, 9.656e-5
-1.767, 9.861e-5
-1.768, 1.011e-4
-1.769, 1.033e-4
-1.770, 1.060e-4
-1.771, 1.087e-4
-1.772, 1.116e-4
-1.773, 1.147e-4
-1.774, 1.171e-4
-1.775, 1.202e-4
-1.776, 1.238e-4
-1.777, 1.275e-4
-1.778, 1.310e-4
-1.779, 1.343e-4
-1.780, 1.380e-4
-1.781, 1.415e-4
-1.782, 1.454e-4
-1.783, 1.494e-4
-1.784, 1.535e-4
-1.785, 1.580e-4
-1.786, 1.627e-4
-1.787, 1.680e-4
-1.788, 1.728e-4
-1.789, 1.776e-4
-1.790, 1.826e-4
-1.791, 1.880e-4
-1.792, 1.940e-4
-1.793, 1.998e-4
-1.794, 2.066e-4
-1.795, 2.128e-4
-1.796, 2.194e-4
-1.797, 2.264e-4
-1.798, 2.338e-4
-1.799, 2.418e-4
-1.800, 2.458e-4
-1.799, 2.459e-4
-1.798, 2.453e-4
-1.797, 2.443e-4
-1.796, 2.430e-4
-1.795, 2.414e-4
-1.794, 2.398e-4
-1.793, 2.376e-4
-1.792, 2.353e-4
-1.791, 2.328e-4
-1.790, 2.306e-4
-1.789, 2.284e-4
-1.788, 2.257e-4
-1.787, 2.230e-4
-1.786, 2.203e-4
-1.785, 2.176e-4
-1.784, 2.148e-4
-1.783, 2.121e-4
-1.782, 2.097e-4
-1.781, 2.071e-4
-1.780, 2.044e-4
-1.779, 2.017e-4
-1.778, 1.987e-4
-1.777, 1.961e-4
-1.776, 1.933e-4
-1.775, 1.906e-4
-1.774, 1.879e-4
-1.773, 1.852e-4
-1.772, 1.825e-4
-1.771, 1.798e-4
-1.770, 1.771e-4
-1.769, 1.745e-4
-1.768, 1.719e-4
-1.767, 1.695e-4
-1.766, 1.676e-4
-1.765, 1.652e-4
-1.764, 1.626e-4
-1.763, 1.599e-4
-1.762, 1.571e-4
-1.761, 1.549e-4
-1.760, 1.524e-4
-1.759, 1.503e-4
-1.758, 1.480e-4
-1.757, 1.456e-4
-1.756, 1.431e-4
-1.755, 1.405e-4
-1.754, 1.377e-4
-1.753, 1.357e-4
-1.752, 1.337e-4
-1.751, 1.319e-4
-1.750, 1.303e-4
-1.749, 1.279e-4
-1.748, 1.256e-4
-1.747, 1.232e-4
-1.746, 1.209e-4
-1.745, 1.191e-4
-1.744, 1.177e-4
-1.743, 1.162e-4
-1.742, 1.147e-4
-1.741, 1.132e-4
-1.740, 1.123e-4
-1.739, 1.108e-4
-1.738, 1.091e-4
-1.737, 1.071e-4
-1.736, 1.051e-4
-1.735, 1.034e-4
-1.734, 1.016e-4
-1.733, 1.006e-4
-1.732, 9.943e-5
-1.731, 9.826e-5
-1.730, 9.636e-5
-1.729, 9.464e-5
-1.728, 9.317e-5
-1.727, 9.150e-5
-1.726, 9.017e-5
-1.725, 8.908e-5
-1.724, 8.806e-5
-1.723, 8.727e-5
-1.722, 8.664e-5
-1.721, 8.610e-5
-1.720, 8.542e-5
-1.719, 8.416e-5
-1.718, 8.271e-5
-1.717, 8.123e-5
-1.716, 8.021e-5
-1.715, 7.920e-5
-1.714, 7.804e-5
-1.713, 7.692e-5
-1.712, 7.602e-5
-1.711, 7.480e-5
-1.710, 7.383e-5
-1.709, 7.312e-5
-1.708, 7.226e-5
-1.707, 7.183e-5
-1.706, 7.087e-5
-1.705, 7.005e-5
-1.704, 6.863e-5
-1.703, 6.800e-5
-1.702, 6.714e-5
-1.701, 6.686e-5
-1.700, 6.631e-5
-1.699, 6.581e-5
-1.698, 6.528e-5
-1.697, 6.414e-5
-1.696, 6.305e-5
-1.695, 6.225e-5
-1.694, 6.227e-5
-1.693, 6.239e-5
-1.692, 6.274e-5
-1.691, 6.240e-5
-1.690, 6.153e-5
-1.689, 6.045e-5
-1.688, 5.968e-5
-1.687, 5.887e-5
-1.686, 5.813e-5
-1.685, 5.775e-5
-1.684, 5.832e-5
-1.683, 5.783e-5
-1.682, 5.730e-5
-1.681, 5.685e-5
-1.680, 5.656e-5
-1.679, 5.608e-5
-1.678, 5.545e-5
-1.677, 5.477e-5
-1.676, 5.433e-5
-1.675, 5.393e-5
-1.674, 5.312e-5
-1.673, 5.248e-5
-1.672, 5.187e-5
-1.671, 5.124e-5
-1.670, 5.061e-5
-1.669, 5.029e-5
-1.668, 5.001e-5
-1.667, 4.981e-5
-1.666, 4.972e-5
-1.665, 4.933e-5
-1.664, 4.917e-5
-1.663, 4.873e-5
-1.662, 4.821e-5
-1.661, 4.758e-5
-1.660, 4.709e-5
-1.659, 4.686e-5
-1.658, 4.732e-5
-1.657, 4.793e-5
-1.656, 4.802e-5
-1.655, 4.765e-5
-1.654, 4.720e-5
-1.653, 4.623e-5
-1.652, 4.536e-5
-1.651, 4.514e-5
-1.650, 4.477e-5
-1.649, 4.396e-5
-1.648, 4.419e-5
-1.647, 4.402e-5
-1.646, 4.372e-5
-1.645, 4.336e-5
-1.644, 4.280e-5
-1.643, 4.244e-5
-1.642, 4.195e-5
-1.641, 4.150e-5
-1.640, 4.162e-5
-1.639, 4.080e-5
-1.638, 4.076e-5
-1.637, 4.004e-5
-1.636, 3.970e-5
-1.635, 3.936e-5
-1.634, 3.951e-5
-1.633, 3.965e-5
-1.632, 3.943e-5
-1.631, 3.893e-5
-1.630, 3.831e-5
-1.629, 3.760e-5
-1.628, 3.717e-5
-1.627, 3.665e-5
-1.626, 3.665e-5
-1.625, 3.668e-5
-1.624, 3.668e-5
-1.623, 3.641e-5
-1.622, 3.614e-5
-1.621, 3.586e-5
-1.620, 3.550e-5
-1.619, 3.542e-5
-1.618, 3.536e-5
-1.617, 3.533e-5
-1.616, 3.498e-5
-1.615, 3.470e-5
-1.614, 3.428e-5
-1.613, 3.417e-5
-1.612, 3.425e-5
-1.611, 3.410e-5
-1.610, 3.405e-5
-1.609, 3.389e-5
-1.608, 3.350e-5
-1.607, 3.324e-5
-1.606, 3.274e-5
-1.605, 3.262e-5
-1.604, 3.254e-5
-1.603, 3.255e-5
-1.602, 3.225e-5
-1.601, 3.208e-5
-1.600, 3.206e-5
-1.599, 3.189e-5
-1.598, 3.194e-5
-1.597, 3.181e-5
-1.596, 3.158e-5
-1.595, 3.146e-5
-1.594, 3.129e-5
-1.593, 3.107e-5
-1.592, 3.068e-5
-1.591, 3.025e-5
-1.590, 3.005e-5
-1.589, 2.985e-5
-1.588, 2.991e-5
-1.587, 2.959e-5
-1.586, 2.948e-5
-1.585, 2.944e-5
-1.584, 2.939e-5
-1.583, 2.930e-5
-1.582, 2.901e-5
-1.581, 2.890e-5
-1.580, 2.862e-5
-1.579, 2.843e-5
-1.578, 2.817e-5
-1.577, 2.805e-5
-1.576, 2.803e-5
-1.575, 2.799e-5
-1.574, 2.802e-5
-1.573, 2.772e-5
-1.572, 2.726e-5
-1.571, 2.708e-5
-1.570, 2.711e-5
-1.569, 2.733e-5
-1.568, 2.742e-5
-1.567, 2.751e-5
-1.566, 2.756e-5
-1.565, 2.730e-5
-1.564, 2.701e-5
-1.563, 2.672e-5
-1.562, 2.665e-5
-1.561, 2.681e-5
-1.560, 2.772e-5
-1.559, 2.838e-5
-1.558, 2.841e-5
-1.557, 2.811e-5
-1.556, 2.730e-5
-1.555, 2.680e-5
-1.554, 2.653e-5
-1.553, 2.636e-5
-1.552, 2.633e-5
-1.551, 2.629e-5
-1.550, 2.624e-5
-1.549, 2.604e-5
-1.548, 2.601e-5
-1.547, 2.622e-5
-1.546, 2.622e-5
-1.545, 2.616e-5
-1.544, 2.601e-5
-1.543, 2.587e-5
-1.542, 2.542e-5
-1.541, 2.503e-5
-1.540, 2.462e-5
-1.539, 2.423e-5
-1.538, 2.407e-5
-1.537, 2.390e-5
-1.536, 2.378e-5
-1.535, 2.376e-5
-1.534, 2.369e-5
-1.533, 2.366e-5
-1.532, 2.340e-5
-1.531, 2.337e-5
-1.530, 2.327e-5
-1.529, 2.298e-5
-1.528, 2.262e-5
-1.527, 2.240e-5
-1.526, 2.248e-5
-1.525, 2.252e-5
-1.524, 2.268e-5
-1.523, 2.267e-5
-1.522, 2.253e-5
-1.521, 2.248e-5
-1.520, 2.249e-5
-1.519, 2.255e-5
-1.518, 2.246e-5
-1.517, 2.210e-5
-1.516, 2.160e-5
-1.515, 2.115e-5
-1.514, 2.097e-5
-1.513, 2.087e-5
-1.512, 2.083e-5
-1.511, 2.060e-5
-1.510, 2.064e-5
-1.509, 2.064e-5
-1.508, 2.057e-5
-1.507, 2.054e-5
-1.506, 2.036e-5
-1.505, 2.030e-5
-1.504, 2.012e-5
-1.503, 2.003e-5
-1.502, 1.983e-5
-1.501, 1.949e-5
-1.500, 1.929e-5
-1.499, 1.889e-5
-1.498, 1.890e-5
-1.497, 1.897e-5
-1.496, 1.924e-5
-1.495, 1.943e-5
-1.494, 1.916e-5
-1.493, 1.886e-5
-1.492, 1.841e-5
-1.491, 1.818e-5
-1.490, 1.801e-5
-1.489, 1.809e-5
-1.488, 1.819e-5
-1.487, 1.833e-5
-1.486, 1.825e-5
-1.485, 1.789e-5
-1.484, 1.754e-5
-1.483, 1.730e-5
-1.482, 1.703e-5
-1.481, 1.699e-5
-1.480, 1.690e-5
-1.479, 1.699e-5
-1.478, 1.682e-5
-1.477, 1.656e-5
-1.476, 1.643e-5
-1.475, 1.617e-5
-1.474, 1.612e-5
-1.473, 1.599e-5
-1.472, 1.602e-5
-1.471, 1.596e-5
-1.470, 1.576e-5
-1.469, 1.563e-5
-1.468, 1.549e-5
-1.467, 1.569e-5
-1.466, 1.623e-5
-1.465, 1.657e-5
-1.464, 1.666e-5
-1.463, 1.624e-5
-1.462, 1.586e-5
-1.461, 1.530e-5
-1.460, 1.507e-5
-1.459, 1.493e-5
-1.458, 1.494e-5
-1.457, 1.514e-5
-1.456, 1.503e-5
-1.455, 1.495e-5
-1.454, 1.480e-5
-1.453, 1.484e-5
-1.452, 1.489e-5
-1.451, 1.469e-5
-1.450, 1.460e-5
-1.449, 1.434e-5
-1.448, 1.426e-5
-1.447, 1.417e-5
-1.446, 1.409e-5
-1.445, 1.418e-5
-1.444, 1.411e-5
-1.443, 1.399e-5
-1.442, 1.374e-5
-1.441, 1.368e-5
-1.440, 1.373e-5
-1.439, 1.373e-5
-1.438, 1.365e-5
-1.437, 1.352e-5
-1.436, 1.347e-5
-1.435, 1.342e-5
-1.434, 1.362e-5
-1.433, 1.397e-5
-1.432, 1.405e-5
-1.431, 1.393e-5
-1.430, 1.355e-5
-1.429, 1.325e-5
-1.428, 1.299e-5
-1.427, 1.269e-5
-1.426, 1.259e-5
-1.425, 1.236e-5
-1.424, 1.239e-5
-1.423, 1.218e-5
-1.422, 1.213e-5
-1.421, 1.197e-5
-1.420, 1.175e-5
-1.419, 1.172e-5
-1.418, 1.160e-5
-1.417, 1.163e-5
-1.416, 1.158e-5
-1.415, 1.156e-5
-1.414, 1.168e-5
-1.413, 1.142e-5
-1.412, 1.120e-5
-1.411, 1.088e-5
-1.410, 1.076e-5
-1.409, 1.080e-5
-1.408, 1.081e-5
-1.407, 1.090e-5
-1.406, 1.073e-5
-1.405, 1.066e-5
-1.404, 1.049e-5
-1.403, 1.035e-5
-1.402, 1.036e-5
-1.401, 1.016e-5
-1.400, 1.014e-5
-1.399, 1.013e-5
-1.398, 1.021e-5
-1.397, 1.027e-5
-1.396, 1.037e-5
-1.395, 1.048e-5
-1.394, 1.034e-5
-1.393, 1.014e-5
-1.392, 9.857e-6
-1.391, 9.573e-6
-1.390, 9.438e-6
-1.389, 9.217e-6
-1.388, 9.149e-6
-1.387, 9.145e-6
-1.386, 9.211e-6
-1.385, 9.412e-6
-1.384, 9.517e-6
-1.383, 9.546e-6
-1.382, 9.173e-6
-1.381, 8.894e-6
-1.380, 8.691e-6
-1.379, 8.510e-6
-1.378, 8.576e-6
-1.377, 8.715e-6
-1.376, 8.850e-6
-1.375, 8.900e-6
-1.374, 8.698e-6
-1.373, 8.689e-6
-1.372, 8.513e-6
-1.371, 8.640e-6
-1.370, 8.877e-6
-1.369, 8.953e-6
-1.368, 8.995e-6
-1.367, 8.717e-6
-1.366, 8.552e-6
-1.365, 8.366e-6
-1.364, 8.372e-6
-1.363, 8.518e-6
-1.362, 8.533e-6
-1.361, 8.574e-6
-1.360, 8.476e-6
-1.359, 8.338e-6
-1.358, 8.182e-6
-1.357, 7.963e-6
-1.356, 8.182e-6
-1.355, 8.395e-6
-1.354, 8.536e-6
-1.353, 8.337e-6
-1.352, 8.104e-6
-1.351, 7.978e-6
-1.350, 7.697e-6
-1.349, 7.551e-6
-1.348, 7.527e-6
-1.347, 7.510e-6
-1.346, 7.711e-6
-1.345, 7.696e-6
-1.344, 7.765e-6
-1.343, 7.558e-6
-1.342, 7.271e-6
-1.341, 7.051e-6
-1.340, 6.775e-6
-1.339, 6.867e-6
-1.338, 6.903e-6
-1.337, 6.918e-6
-1.336, 6.835e-6
-1.335, 6.598e-6
-1.334, 6.498e-6
-1.333, 6.279e-6
-1.332, 6.259e-6
-1.331, 6.228e-6
-1.330, 6.214e-6
-1.329, 6.252e-6
-1.328, 6.260e-6
-1.327, 6.344e-6
-1.326, 6.201e-6
-1.325, 6.097e-6
-1.324, 6.168e-6
-1.323, 6.294e-6
-1.322, 6.381e-6
-1.321, 6.285e-6
-1.320, 6.091e-6
-1.319, 5.873e-6
-1.318, 5.694e-6
-1.317, 5.672e-6
-1.316, 5.642e-6
-1.315, 5.745e-6
-1.314, 5.799e-6
-1.313, 5.992e-6
-1.312, 6.063e-6
-1.311, 5.988e-6
-1.310, 5.965e-6
-1.309, 5.764e-6
-1.308, 5.752e-6
-1.307, 5.757e-6
-1.306, 5.798e-6
-1.305, 5.909e-6
-1.304, 5.810e-6
-1.303, 5.767e-6
-1.302, 5.646e-6
-1.301, 5.603e-6
-1.300, 5.601e-6
-1.299, 5.355e-6
-1.298, 5.363e-6
-1.297, 5.142e-6
-1.296, 5.173e-6
-1.295, 5.015e-6
-1.294, 4.900e-6
-1.293, 4.869e-6
-1.292, 4.755e-6
-1.291, 4.743e-6
-1.290, 4.628e-6
-1.289, 4.543e-6
-1.288, 4.526e-6
-1.287, 4.556e-6
-1.286, 4.698e-6
-1.285, 4.529e-6
-1.284, 4.428e-6
-1.283, 4.218e-6
-1.282, 4.037e-6
-1.281, 3.985e-6
-1.280, 3.886e-6
-1.279, 3.893e-6
-1.278, 3.795e-6
-1.277, 3.789e-6
-1.276, 3.810e-6
-1.275, 3.798e-6
-1.274, 3.897e-6
-1.273, 3.906e-6
-1.272, 3.898e-6
-1.271, 3.832e-6
-1.270, 3.690e-6
-1.269, 3.641e-6
-1.268, 3.470e-6
-1.267, 3.470e-6
-1.266, 3.362e-6
-1.265, 3.298e-6
-1.264, 3.315e-6
-1.263, 3.213e-6
-1.262, 3.140e-6
-1.261, 3.012e-6
-1.260, 3.039e-6
-1.259, 2.934e-6
-1.258, 2.991e-6
-1.257, 2.946e-6
-1.256, 2.925e-6
-1.255, 2.914e-6
-1.254, 2.715e-6
-1.253, 2.726e-6
-1.252, 2.577e-6
-1.251, 2.570e-6
-1.250, 2.525e-6
-1.249, 2.445e-6
-1.248, 2.539e-6
-1.247, 2.489e-6
-1.246, 2.460e-6
-1.245, 2.356e-6
-1.244, 2.275e-6
-1.243, 2.195e-6
-1.242, 1.979e-6
-1.241, 2.009e-6
-1.240, 1.886e-6
-1.239, 1.937e-6
-1.238, 1.870e-6
-1.237, 1.893e-6
-1.236, 1.835e-6
-1.235, 1.703e-6
-1.234, 1.775e-6
-1.233, 1.596e-6
-1.232, 1.587e-6
-1.231, 1.499e-6
-1.230, 1.415e-6
-1.229, 1.354e-6
-1.228, 1.309e-6
-1.227, 1.297e-6
-1.226, 1.189e-6
-1.225, 1.201e-6
-1.224, 1.105e-6
-1.223, 1.074e-6
-1.222, 9.617e-7
-1.221, 7.980e-7
-1.220, 8.009e-7
-1.219, 5.997e-7
-1.218, 6.460e-7
-1.217, 5.878e-7
-1.216, 5.779e-7
-1.215, 6.825e-7
-1.214, 4.556e-7
-1.213, 4.339e-7
-1.212, 2.277e-7
-1.211, 1.162e-7
-1.210, 6.590e-8
-1.209, -1.058e-7
-1.208, -6.235e-8
-1.207, -1.620e-7
-1.206, -9.294e-8
-1.205, -1.521e-7
-1.204, -2.547e-7
-1.203, -2.843e-7
-1.202, -3.741e-7
-1.201, -3.790e-7
-1.200, -4.669e-7
-1.199, -4.994e-7
-1.198, -5.359e-7
-1.197, -6.484e-7
-1.196, -6.070e-7
-1.195, -6.494e-7
-1.194, -6.010e-7
-1.193, -7.470e-7
-1.192, -8.457e-7
-1.191, -9.384e-7
-1.190, -1.145e-6
-1.189, -1.105e-6
-1.188, -1.246e-6
-1.187, -1.264e-6
-1.186, -1.335e-6
-1.185, -1.381e-6
-1.184, -1.332e-6
-1.183, -1.550e-6
-1.182, -1.567e-6
-1.181, -1.719e-6
-1.180, -1.752e-6
-1.179, -1.833e-6
-1.178, -1.930e-6
-1.177, -1.868e-6
-1.176, -2.025e-6
-1.175, -2.073e-6
-1.174, -2.112e-6
-1.173, -2.237e-6
-1.172, -2.231e-6
-1.171, -2.338e-6
-1.170, -2.325e-6
-1.169, -2.379e-6
-1.168, -2.370e-6
-1.167, -2.452e-6
-1.166, -2.675e-6
-1.165, -2.626e-6
-1.164, -2.863e-6
-1.163, -2.825e-6
-1.162, -2.928e-6
-1.161, -2.931e-6
-1.160, -2.948e-6
-1.159, -3.041e-6
-1.158, -3.051e-6
-1.157, -3.253e-6
-1.156, -3.314e-6
-1.155, -3.336e-6
-1.154, -3.406e-6
-1.153, -3.410e-6
-1.152, -3.581e-6
-1.151, -3.584e-6
-1.150, -3.721e-6
-1.149, -3.768e-6
-1.148, -3.853e-6
-1.147, -3.962e-6
-1.146, -4.001e-6
-1.145, -4.148e-6
-1.144, -4.155e-6
-1.143, -4.250e-6
-1.142, -4.278e-6
-1.141, -4.325e-6
-1.140, -4.480e-6
-1.139, -4.457e-6
-1.138, -4.586e-6
-1.137, -4.627e-6
-1.136, -4.695e-6
-1.135, -4.818e-6
-1.134, -4.796e-6
-1.133, -4.954e-6
-1.132, -4.958e-6
-1.131, -5.109e-6
-1.130, -5.209e-6
-1.129, -5.294e-6
-1.128, -5.409e-6
-1.127, -5.393e-6
-1.126, -5.572e-6
-1.125, -5.623e-6
-1.124, -5.730e-6
-1.123, -5.882e-6
-1.122, -5.832e-6
-1.121, -6.002e-6
-1.120, -6.046e-6
-1.119, -6.091e-6
-1.118, -6.243e-6
-1.117, -6.322e-6
-1.116, -6.474e-6
-1.115, -6.538e-6
-1.114, -6.674e-6
-1.113, -6.779e-6
-1.112, -6.781e-6
-1.111, -6.981e-6
-1.110, -6.917e-6
-1.109, -7.002e-6
-1.108, -7.182e-6
-1.107, -7.221e-6
-1.106, -7.412e-6
-1.105, -7.450e-6
-1.104, -7.547e-6
-1.103, -7.692e-6
-1.102, -7.862e-6
-1.101, -8.005e-6
-1.100, -8.109e-6
-1.099, -8.253e-6
-1.098, -8.378e-6
-1.097, -8.352e-6
-1.096, -8.500e-6
-1.095, -8.630e-6
-1.094, -8.743e-6
-1.093, -8.888e-6
-1.092, -8.968e-6
-1.091, -9.150e-6
-1.090, -9.316e-6
-1.089, -9.363e-6
-1.088, -9.527e-6
-1.087, -9.610e-6
-1.086, -9.797e-6
-1.085, -9.897e-6
-1.084, -1.002e-5
-1.083, -1.019e-5
-1.082, -1.013e-5
-1.081, -1.038e-5
-1.080, -1.045e-5
-1.079, -1.055e-5
-1.078, -1.074e-5
-1.077, -1.082e-5
-1.076, -1.106e-5
-1.075, -1.120e-5
-1.074, -1.132e-5
-1.073, -1.128e-5
-1.072, -1.134e-5
-1.071, -1.174e-5
-1.070, -1.192e-5
-1.069, -1.191e-5
-1.068, -1.183e-5
-1.067, -1.184e-5
-1.066, -1.204e-5
-1.065, -1.228e-5
-1.064, -1.248e-5
-1.063, -1.264e-5
-1.062, -1.271e-5
-1.061, -1.280e-5
-1.060, -1.289e-5
-1.059, -1.283e-5
-1.058, -1.290e-5
-1.057, -1.288e-5
-1.056, -1.304e-5
-1.055, -1.304e-5
-1.054, -1.330e-5
-1.053, -1.342e-5
-1.052, -1.357e-5
-1.051, -1.363e-5
-1.050, -1.370e-5
-1.049, -1.389e-5
-1.048, -1.398e-5
-1.047, -1.416e-5
-1.046, -1.419e-5
-1.045, -1.416e-5
-1.044, -1.433e-5
-1.043, -1.436e-5
-1.042, -1.478e-5
-1.041, -1.492e-5
-1.040, -1.503e-5
-1.039, -1.518e-5
-1.038, -1.510e-5
-1.037, -1.519e-5
-1.036, -1.531e-5
-1.035, -1.574e-5
-1.034, -1.582e-5
-1.033, -1.589e-5
-1.032, -1.602e-5
-1.031, -1.608e-5
-1.030, -1.619e-5
-1.029, -1.631e-5
-1.028, -1.634e-5
-1.027, -1.650e-5
-1.026, -1.650e-5
-1.025, -1.663e-5
-1.024, -1.663e-5
-1.023, -1.666e-5
-1.022, -1.665e-5
-1.021, -1.674e-5
-1.020, -1.673e-5
-1.019, -1.674e-5
-1.018, -1.673e-5
-1.017, -1.686e-5
-1.016, -1.669e-5
-1.015, -1.683e-5
-1.014, -1.678e-5
-1.013, -1.643e-5
-1.012, -1.641e-5
-1.011, -1.633e-5
-1.010, -1.649e-5
-1.009, -1.637e-5
-1.008, -1.632e-5
-1.007, -1.637e-5
-1.006, -1.628e-5
-1.005, -1.625e-5
-1.004, -1.598e-5
-1.003, -1.589e-5
-1.002, -1.581e-5
-1.001, -1.559e-5
-1.000, -1.505e-5
-1.001, -1.409e-5
-1.002, -1.346e-5
-1.003, -1.284e-5
-1.004, -1.226e-5
-1.005, -1.166e-5
-1.006, -1.107e-5
-1.007, -1.050e-5
-1.008, -1.003e-5
-1.009, -9.572e-6
-1.010, -9.223e-6
-1.011, -8.777e-6
-1.012, -8.520e-6
-1.013, -8.087e-6
-1.014, -7.781e-6
-1.015, -7.534e-6
-1.016, -7.064e-6
-1.017, -6.889e-6
-1.018, -6.546e-6
-1.019, -6.361e-6
-1.020, -6.220e-6
-1.021, -5.892e-6
-1.022, -5.822e-6
-1.023, -5.521e-6
-1.024, -5.297e-6
-1.025, -5.135e-6
-1.026, -4.867e-6
-1.027, -4.780e-6
-1.028, -4.542e-6
-1.029, -4.410e-6
-1.030, -4.304e-6
-1.031, -4.069e-6
-1.032, -4.051e-6
-1.033, -3.761e-6
-1.034, -3.723e-6
-1.035, -3.591e-6
-1.036, -3.435e-6
-1.037, -3.354e-6
-1.038, -3.182e-6
-1.039, -3.151e-6
-1.040, -3.030e-6
-1.041, -2.856e-6
-1.042, -2.842e-6
-1.043, -2.692e-6
-1.044, -2.652e-6
-1.045, -2.503e-6
-1.046, -2.394e-6
-1.047, -2.367e-6
-1.048, -2.206e-6
-1.049, -2.201e-6
-1.050, -2.060e-6
-1.051, -1.950e-6
-1.052, -1.952e-6
-1.053, -1.773e-6
-1.054, -1.736e-6
-1.055, -1.649e-6
-1.056, -1.546e-6
-1.057, -1.505e-6
-1.058, -1.318e-6
-1.059, -1.298e-6
-1.060, -1.161e-6
-1.061, -1.121e-6
-1.062, -1.110e-6
-1.063, -9.227e-7
-1.064, -9.611e-7
-1.065, -8.743e-7
-1.066, -8.635e-7
-1.067, -7.974e-7
-1.068, -6.957e-7
-1.069, -7.194e-7
-1.070, -5.478e-7
-1.071, -5.142e-7
-1.072, -5.211e-7
-1.073, -3.869e-7
-1.074, -3.692e-7
-1.075, -2.873e-7
-1.076, -2.695e-7
-1.077, -2.380e-7
-1.078, -9.590e-8
-1.079, -1.186e-7
-1.080, 4.025e-8
-1.081, -3.078e-8
-1.082, 2.447e-8
-1.083, 7.873e-8
-1.084, 1.162e-7
-1.085, 2.573e-7
-1.086, 2.129e-7
-1.087, 3.116e-7
-1.088, 3.500e-7
-1.089, 4.112e-7
-1.090, 4.408e-7
-1.091, 4.319e-7
-1.092, 5.444e-7
-1.093, 5.257e-7
-1.094, 5.967e-7
-1.095, 6.835e-7
-1.096, 6.293e-7
-1.097, 7.476e-7
-1.098, 7.605e-7
-1.099, 7.950e-7
-1.100, 8.572e-7
-1.101, 8.433e-7
-1.102, 9.459e-7
-1.103, 9.371e-7
-1.104, 9.894e-7
-1.105, 1.083e-6
-1.106, 1.036e-6
-1.107, 1.130e-6
-1.108, 1.106e-6
-1.109, 1.181e-6
-1.110, 1.270e-6
-1.111, 1.231e-6
-1.112, 1.309e-6
-1.113, 1.319e-6
-1.114, 1.406e-6
-1.115, 1.434e-6
-1.116, 1.416e-6
-1.117, 1.517e-6
-1.118, 1.446e-6
-1.119, 1.525e-6
-1.120, 1.564e-6
-1.121, 1.545e-6
-1.122, 1.672e-6
-1.123, 1.641e-6
-1.124, 1.686e-6
-1.125, 1.726e-6
-1.126, 1.699e-6
-1.127, 1.853e-6
-1.128, 1.785e-6
-1.129, 1.848e-6
-1.130, 1.893e-6
-1.131, 1.889e-6
-1.132, 1.966e-6
-1.133, 1.934e-6
-1.134, 2.026e-6
-1.135, 1.989e-6
-1.136, 2.032e-6
-1.137, 2.152e-6
-1.138, 2.125e-6
-1.139, 2.184e-6
-1.140, 2.170e-6
-1.141, 2.243e-6
-1.142, 2.248e-6
-1.143, 2.202e-6
-1.144, 2.320e-6
-1.145, 2.314e-6
-1.146, 2.327e-6
-1.147, 2.404e-6
-1.148, 2.380e-6
-1.149, 2.448e-6
-1.150, 2.422e-6
-1.151, 2.464e-6
-1.152, 2.559e-6
-1.153, 2.510e-6
-1.154, 2.597e-6
-1.155, 2.535e-6
-1.156, 2.628e-6
-1.157, 2.652e-6
-1.158, 2.641e-6
-1.159, 2.722e-6
-1.160, 2.666e-6
-1.161, 2.738e-6
-1.162, 2.763e-6
-1.163, 2.757e-6
-1.164, 2.853e-6
-1.165, 2.764e-6
-1.166, 2.902e-6
-1.167, 2.914e-6
-1.168, 2.919e-6
-1.169, 2.966e-6
-1.170, 2.953e-6
-1.171, 2.980e-6
-1.172, 3.079e-6
-1.173, 3.004e-6
-1.174, 3.091e-6
-1.175, 3.051e-6
-1.176, 3.114e-6
-1.177, 3.129e-6
-1.178, 3.078e-6
-1.179, 3.201e-6
-1.180, 3.148e-6
-1.181, 3.206e-6
-1.182, 3.284e-6
-1.183, 3.187e-6
-1.184, 3.289e-6
-1.185, 3.273e-6
-1.186, 3.295e-6
-1.187, 3.346e-6
-1.188, 3.324e-6
-1.189, 3.388e-6
-1.190, 3.366e-6
-1.191, 3.442e-6
-1.192, 3.479e-6
-1.193, 3.406e-6
-1.194, 3.494e-6
-1.195, 3.519e-6
-1.196, 3.484e-6
-1.197, 3.580e-6
-1.198, 3.484e-6
-1.199, 3.568e-6
-1.200, 3.583e-6
-1.201, 3.606e-6
-1.202, 3.675e-6
-1.203, 3.577e-6
-1.204, 3.703e-6
-1.205, 3.622e-6
-1.206, 3.679e-6
-1.207, 3.744e-6
-1.208, 3.685e-6
-1.209, 3.759e-6
-1.210, 3.763e-6
-1.211, 3.806e-6
-1.212, 3.838e-6
-1.213, 3.780e-6
-1.214, 3.858e-6
-1.215, 3.828e-6
-1.216, 3.880e-6
-1.217, 3.910e-6
-1.218, 3.866e-6
-1.219, 3.978e-6
-1.220, 3.894e-6
-1.221, 3.957e-6
-1.222, 4.012e-6
-1.223, 3.953e-6
-1.224, 4.038e-6
-1.225, 3.976e-6
-1.226, 4.123e-6
-1.227, 4.146e-6
-1.228, 4.092e-6
-1.229, 4.162e-6
-1.230, 4.050e-6
-1.231, 4.212e-6
-1.232, 4.160e-6
-1.233, 4.179e-6
-1.234, 4.158e-6
-1.235, 4.166e-6
-1.236, 4.276e-6
-1.237, 4.194e-6
-1.238, 4.289e-6
-1.239, 4.288e-6
-1.240, 4.240e-6
-1.241, 4.351e-6
-1.242, 4.248e-6
-1.243, 4.381e-6
-1.244, 4.318e-6
-1.245, 4.346e-6
-1.246, 4.409e-6
-1.247, 4.356e-6
-1.248, 4.449e-6
-1.249, 4.390e-6
-1.250, 4.402e-6
-1.251, 4.511e-6
-1.252, 4.420e-6
-1.253, 4.532e-6
-1.254, 4.427e-6
-1.255, 4.489e-6
-1.256, 4.530e-6
-1.257, 4.497e-6
-1.258, 4.596e-6
-1.259, 4.518e-6
-1.260, 4.611e-6
-1.261, 4.611e-6
-1.262, 4.523e-6
-1.263, 4.673e-6
-1.264, 4.572e-6
-1.265, 4.691e-6
-1.266, 4.697e-6
-1.267, 4.632e-6
-1.268, 4.774e-6
-1.269, 4.691e-6
-1.270, 4.800e-6
-1.271, 4.778e-6
-1.272, 4.703e-6
-1.273, 4.812e-6
-1.274, 4.795e-6
-1.275, 4.865e-6
-1.276, 4.886e-6
-1.277, 4.813e-6
-1.278, 4.951e-6
-1.279, 4.889e-6
-1.280, 5.004e-6
-1.281, 4.972e-6
-1.282, 4.943e-6
-1.283, 5.047e-6
-1.284, 4.977e-6
-1.285, 5.019e-6
-1.286, 4.994e-6
-1.287, 5.071e-6
-1.288, 5.073e-6
-1.289, 5.033e-6
-1.290, 5.138e-6
-1.291, 5.059e-6
-1.292, 5.080e-6
-1.293, 5.185e-6
-1.294, 5.131e-6
-1.295, 5.250e-6
-1.296, 5.170e-6
-1.297, 5.191e-6
-1.298, 5.233e-6
-1.299, 5.227e-6
-1.300, 5.332e-6
-1.301, 5.245e-6
-1.302, 5.356e-6
-1.303, 5.350e-6
-1.304, 5.290e-6
-1.305, 5.462e-6
-1.306, 5.354e-6
-1.307, 5.565e-6
-1.308, 5.554e-6
-1.309, 5.518e-6
-1.310, 5.604e-6
-1.311, 5.425e-6
-1.312, 5.589e-6
-1.313, 5.591e-6
-1.314, 5.579e-6
-1.315, 5.644e-6
-1.316, 5.607e-6
-1.317, 5.634e-6
-1.318, 5.645e-6
-1.319, 5.632e-6
-1.320, 5.727e-6
-1.321, 5.676e-6
-1.322, 5.677e-6
-1.323, 5.675e-6
-1.324, 5.709e-6
-1.325, 5.764e-6
-1.326, 5.698e-6
-1.327, 5.745e-6
-1.328, 5.826e-6
-1.329, 5.760e-6
-1.330, 5.821e-6
-1.331, 5.780e-6
-1.332, 5.860e-6
-1.333, 5.844e-6
-1.334, 5.868e-6
-1.335, 5.885e-6
-1.336, 5.881e-6
-1.337, 5.898e-6
-1.338, 5.974e-6
-1.339, 5.927e-6
-1.340, 5.989e-6
-1.341, 5.941e-6
-1.342, 5.995e-6
-1.343, 6.039e-6
-1.344, 6.017e-6
-1.345, 6.099e-6
-1.346, 6.036e-6
-1.347, 6.044e-6
-1.348, 6.156e-6
-1.349, 6.081e-6
-1.350, 6.228e-6
-1.351, 6.144e-6
-1.352, 6.207e-6
-1.353, 6.273e-6
-1.354, 6.204e-6
-1.355, 6.342e-6
-1.356, 6.299e-6
-1.357, 6.319e-6
-1.358, 6.330e-6
-1.359, 6.325e-6
-1.360, 6.446e-6
-1.361, 6.357e-6
-1.362, 6.382e-6
-1.363, 6.468e-6
-1.364, 6.437e-6
-1.365, 6.565e-6
-1.366, 6.492e-6
-1.367, 6.520e-6
-1.368, 6.533e-6
-1.369, 6.528e-6
-1.370, 6.631e-6
-1.371, 6.579e-6
-1.372, 6.587e-6
-1.373, 6.646e-6
-1.374, 6.617e-6
-1.375, 6.737e-6
-1.376, 6.654e-6
-1.377, 6.719e-6
-1.378, 6.739e-6
-1.379, 6.768e-6
-1.380, 6.845e-6
-1.381, 6.759e-6
-1.382, 6.863e-6
-1.383, 6.856e-6
-1.384, 6.842e-6
-1.385, 6.947e-6
-1.386, 6.895e-6
-1.387, 6.948e-6
-1.388, 6.948e-6
-1.389, 6.964e-6
-1.390, 7.041e-6
-1.391, 7.010e-6
-1.392, 7.054e-6
-1.393, 7.032e-6
-1.394, 7.076e-6
-1.395, 7.134e-6
-1.396, 7.080e-6
-1.397, 7.179e-6
-1.398, 7.151e-6
-1.399, 7.193e-6
-1.400, 7.220e-6
-1.401, 7.148e-6
-1.402, 7.292e-6
-1.403, 7.256e-6
-1.404, 7.279e-6
-1.405, 7.354e-6
-1.406, 7.309e-6
-1.407, 7.365e-6
-1.408, 7.346e-6
-1.409, 7.437e-6
-1.410, 7.495e-6
-1.411, 7.383e-6
-1.412, 7.524e-6
-1.413, 7.471e-6
-1.414, 7.547e-6
-1.415, 7.572e-6
-1.416, 7.536e-6
-1.417, 7.658e-6
-1.418, 7.647e-6
-1.419, 7.702e-6
-1.420, 7.750e-6
-1.421, 7.726e-6
-1.422, 7.781e-6
-1.423, 7.781e-6
-1.424, 7.794e-6
-1.425, 7.860e-6
-1.426, 7.825e-6
-1.427, 7.922e-6
-1.428, 7.855e-6
-1.429, 7.906e-6
-1.430, 7.973e-6
-1.431, 7.936e-6
-1.432, 8.074e-6
-1.433, 8.075e-6
-1.434, 8.117e-6
-1.435, 8.181e-6
-1.436, 8.164e-6
-1.437, 8.267e-6
-1.438, 8.225e-6
-1.439, 8.278e-6
-1.440, 8.293e-6
-1.441, 8.277e-6
-1.442, 8.401e-6
-1.443, 8.322e-6
-1.444, 8.428e-6
-1.445, 8.465e-6
-1.446, 8.512e-6
-1.447, 8.592e-6
-1.448, 8.500e-6
-1.449, 8.563e-6
-1.450, 8.591e-6
-1.451, 8.638e-6
-1.452, 8.685e-6
-1.453, 8.713e-6
-1.454, 8.769e-6
-1.455, 8.799e-6
-1.456, 8.801e-6
-1.457, 8.901e-6
-1.458, 8.896e-6
-1.459, 8.919e-6
-1.460, 8.938e-6
-1.461, 8.948e-6
-1.462, 9.088e-6
-1.463, 8.947e-6
-1.464, 9.057e-6
-1.465, 9.005e-6
-1.466, 9.128e-6
-1.467, 9.222e-6
-1.468, 9.153e-6
-1.469, 9.215e-6
-1.470, 9.227e-6
-1.471, 9.305e-6
-1.472, 9.374e-6
-1.473, 9.330e-6
-1.474, 9.387e-6
-1.475, 9.410e-6
-1.476, 9.413e-6
-1.477, 9.549e-6
-1.478, 9.455e-6
-1.479, 9.519e-6
-1.480, 9.551e-6
-1.481, 9.662e-6
-1.482, 9.716e-6
-1.483, 9.665e-6
-1.484, 9.682e-6
-1.485, 9.709e-6
-1.486, 9.700e-6
-1.487, 9.833e-6
-1.488, 9.754e-6
-1.489, 9.838e-6
-1.490, 9.890e-6
-1.491, 9.887e-6
-1.492, 1.002e-5
-1.493, 1.003e-5
-1.494, 1.001e-5
-1.495, 1.012e-5
-1.496, 1.004e-5
-1.497, 1.013e-5
-1.498, 1.002e-5
-1.499, 1.012e-5
-1.500, 1.014e-5
-1.501, 1.013e-5
-1.502, 1.024e-5
-1.503, 1.022e-5
-1.504, 1.031e-5
-1.505, 1.034e-5
-1.506, 1.043e-5
-1.507, 1.047e-5
-1.508, 1.045e-5
-1.509, 1.058e-5
-1.510, 1.066e-5
-1.511, 1.066e-5
-1.512, 1.075e-5
-1.513, 1.067e-5
-1.514, 1.079e-5
-1.515, 1.081e-5
-1.516, 1.083e-5
-1.517, 1.097e-5
-1.518, 1.092e-5
-1.519, 1.109e-5
-1.520, 1.118e-5
-1.521, 1.110e-5
-1.522, 1.137e-5
-1.523, 1.122e-5
-1.524, 1.140e-5
-1.525, 1.154e-5
-1.526, 1.157e-5
-1.527, 1.175e-5
-1.528, 1.169e-5
-1.529, 1.183e-5
-1.530, 1.188e-5
-1.531, 1.182e-5
-1.532, 1.197e-5
-1.533, 1.187e-5
-1.534, 1.214e-5
-1.535, 1.215e-5
-1.536, 1.224e-5
-1.537, 1.235e-5
-1.538, 1.223e-5
-1.539, 1.235e-5
-1.540, 1.230e-5
-1.541, 1.236e-5
-1.542, 1.246e-5
-1.543, 1.245e-5
-1.544, 1.260e-5
-1.545, 1.258e-5
-1.546, 1.262e-5
-1.547, 1.269e-5
-1.548, 1.269e-5
-1.549, 1.282e-5
-1.550, 1.285e-5
-1.551, 1.295e-5
-1.552, 1.297e-5
-1.553, 1.292e-5
-1.554, 1.304e-5
-1.555, 1.321e-5
-1.556, 1.336e-5
-1.557, 1.331e-5
-1.558, 1.335e-5
-1.559, 1.343e-5
-1.560, 1.346e-5
-1.561, 1.355e-5
-1.562, 1.359e-5
-1.563, 1.377e-5
-1.564, 1.390e-5
-1.565, 1.385e-5
-1.566, 1.392e-5
-1.567, 1.403e-5
-1.568, 1.415e-5
-1.569, 1.426e-5
-1.570, 1.419e-5
-1.571, 1.428e-5
-1.572, 1.434e-5
-1.573, 1.444e-5
-1.574, 1.448e-5
-1.575, 1.451e-5
-1.576, 1.466e-5
-1.577, 1.478e-5
-1.578, 1.490e-5
-1.579, 1.503e-5
-1.580, 1.493e-5
-1.581, 1.513e-5
-1.582, 1.511e-5
-1.583, 1.522e-5
-1.584, 1.524e-5
-1.585, 1.516e-5
-1.586, 1.527e-5
-1.587, 1.522e-5
-1.588, 1.534e-5
-1.589, 1.544e-5
-1.590, 1.541e-5
-1.591, 1.555e-5
-1.592, 1.567e-5
-1.593, 1.587e-5
-1.594, 1.596e-5
-1.595, 1.604e-5
-1.596, 1.613e-5
-1.597, 1.614e-5
-1.598, 1.616e-5
-1.599, 1.633e-5
-1.600, 1.635e-5
-1.601, 1.656e-5
-1.602, 1.656e-5
-1.603, 1.666e-5
-1.604, 1.671e-5
-1.605, 1.674e-5
-1.606, 1.686e-5
-1.607, 1.700e-5
-1.608, 1.705e-5
-1.609, 1.719e-5
-1.610, 1.729e-5
-1.611, 1.736e-5
-1.612, 1.745e-5
-1.613, 1.767e-5
-1.614, 1.768e-5
-1.615, 1.780e-5
-1.616, 1.799e-5
-1.617, 1.824e-5
-1.618, 1.831e-5
-1.619, 1.856e-5
-1.620, 1.856e-5
-1.621, 1.867e-5
-1.622, 1.882e-5
-1.623, 1.875e-5
-1.624, 1.886e-5
-1.625, 1.900e-5
-1.626, 1.918e-5
-1.627, 1.927e-5
-1.628, 1.927e-5
-1.629, 1.945e-5
-1.630, 1.969e-5
-1.631, 1.991e-5
-1.632, 2.016e-5
-1.633, 2.025e-5
-1.634, 2.044e-5
-1.635, 2.062e-5
-1.636, 2.071e-5
-1.637, 2.105e-5
-1.638, 2.114e-5
-1.639, 2.157e-5
-1.640, 2.183e-5
-1.641, 2.206e-5
-1.642, 2.233e-5
-1.643, 2.233e-5
-1.644, 2.261e-5
-1.645, 2.262e-5
-1.646, 2.278e-5
-1.647, 2.301e-5
-1.648, 2.302e-5
-1.649, 2.336e-5
-1.650, 2.359e-5
-1.651, 2.347e-5
-1.652, 2.384e-5
-1.653, 2.406e-5
-1.654, 2.439e-5
-1.655, 2.458e-5
-1.656, 2.477e-5
-1.657, 2.504e-5
-1.658, 2.506e-5
-1.659, 2.543e-5
-1.660, 2.591e-5
-1.661, 2.608e-5
-1.662, 2.644e-5
-1.663, 2.673e-5
-1.664, 2.680e-5
-1.665, 2.695e-5
-1.666, 2.700e-5
-1.667, 2.742e-5
-1.668, 2.767e-5
-1.669, 2.794e-5
-1.670, 2.832e-5
-1.671, 2.842e-5
-1.672, 2.886e-5
-1.673, 2.924e-5
-1.674, 2.956e-5
-1.675, 2.981e-5
-1.676, 3.026e-5
-1.677, 3.064e-5
-1.678, 3.107e-5
-1.679, 3.134e-5
-1.680, 3.173e-5
-1.681, 3.205e-5
-1.682, 3.260e-5
-1.683, 3.286e-5
-1.684, 3.357e-5
-1.685, 3.396e-5
-1.686, 3.413e-5
-1.687, 3.441e-5
-1.688, 3.482e-5
-1.689, 3.503e-5
-1.690, 3.543e-5
-1.691, 3.571e-5
-1.692, 3.607e-5
-1.693, 3.647e-5
-1.694, 3.700e-5
-1.695, 3.738e-5
-1.696, 3.761e-5
-1.697, 3.776e-5
-1.698, 3.841e-5
-1.699, 3.894e-5
-1.700, 3.948e-5
-1.701, 3.981e-5
-1.702, 4.010e-5
-1.703, 4.052e-5
-1.704, 4.089e-5
-1.705, 4.145e-5
-1.706, 4.199e-5
-1.707, 4.268e-5
-1.708, 4.336e-5
-1.709, 4.395e-5
-1.710, 4.464e-5
-1.711, 4.524e-5
-1.712, 4.584e-5
-1.713, 4.656e-5
-1.714, 4.720e-5
-1.715, 4.788e-5
-1.716, 4.869e-5
-1.717, 4.948e-5
-1.718, 4.976e-5
-1.719, 5.041e-5
-1.720, 5.096e-5
-1.721, 5.151e-5
-1.722, 5.227e-5
-1.723, 5.321e-5
-1.724, 5.413e-5
-1.725, 5.482e-5
-1.726, 5.600e-5
-1.727, 5.710e-5
-1.728, 5.816e-5
-1.729, 5.916e-5
-1.730, 6.004e-5
-1.731, 6.084e-5
-1.732, 6.168e-5
-1.733, 6.277e-5
-1.734, 6.384e-5
-1.735, 6.521e-5
-1.736, 6.659e-5
-1.737, 6.787e-5
-1.738, 6.938e-5
-1.739, 7.012e-5
-1.740, 7.133e-5
-1.741, 7.292e-5
-1.742, 7.445e-5
-1.743, 7.603e-5
-1.744, 7.773e-5
-1.745, 7.936e-5
-1.746, 8.124e-5
-1.747, 8.313e-5
-1.748, 8.508e-5
-1.749, 8.690e-5
-1.750, 8.906e-5
-1.751, 9.123e-5
-1.752, 9.336e-5
-1.753, 9.560e-5
-1.754, 9.775e-5
-1.755, 9.979e-5
-1.756, 1.024e-4
-1.757, 1.051e-4
-1.758, 1.079e-4
-1.759, 1.105e-4
-1.760, 1.133e-4
-1.761, 1.164e-4
-1.762, 1.196e-4
-1.763, 1.229e-4
-1.764, 1.266e-4
-1.765, 1.301e-4
-1.766, 1.339e-4
-1.767, 1.378e-4
-1.768, 1.417e-4
-1.769, 1.459e-4
-1.770, 1.501e-4
-1.771, 1.549e-4
-1.772, 1.600e-4
-1.773, 1.650e-4
-1.774, 1.700e-4
-1.775, 1.755e-4
-1.776, 1.810e-4
-1.777, 1.870e-4
-1.778, 1.930e-4
-1.779, 2.000e-4
-1.780, 2.062e-4
-1.781, 2.129e-4
-1.782, 2.202e-4
-1.783, 2.276e-4
-1.784, 2.353e-4
-1.785, 2.431e-4
-1.786, 2.509e-4
-1.787, 2.595e-4
-1.788, 2.683e-4
-1.789, 2.777e-4
-1.790, 2.875e-4
-1.791, 2.976e-4
-1.792, 3.078e-4
-1.793, 3.184e-4
-1.794, 3.295e-4
-1.795, 3.411e-4
-1.796, 3.531e-4
-1.797, 3.655e-4
-1.798, 3.781e-4
-1.799, 3.916e-4
-1.800, 3.994e-4
-1.799, 3.997e-4
-1.798, 3.988e-4
-1.797, 3.973e-4
-1.796, 3.951e-4
-1.795, 3.928e-4
-1.794, 3.855e-4
-1.793, 3.793e-4
-1.792, 3.756e-4
-1.791, 3.713e-4
-1.790, 3.674e-4
-1.789, 3.629e-4
-1.788, 3.585e-4
-1.787, 3.531e-4
-1.786, 3.485e-4
-1.785, 3.438e-4
-1.784, 3.394e-4
-1.783, 3.343e-4
-1.782, 3.293e-4
-1.781, 3.244e-4
-1.780, 3.196e-4
-1.779, 3.144e-4
-1.778, 3.091e-4
-1.777, 3.035e-4
-1.776, 2.986e-4
-1.775, 2.939e-4
-1.774, 2.897e-4
-1.773, 2.846e-4
-1.772, 2.795e-4
-1.771, 2.745e-4
-1.770, 2.694e-4
-1.769, 2.651e-4
-1.768, 2.605e-4
-1.767, 2.562e-4
-1.766, 2.511e-4
-1.765, 2.460e-4
-1.764, 2.419e-4
-1.763, 2.366e-4
-1.762, 2.327e-4
-1.761, 2.281e-4
-1.760, 2.239e-4
-1.759, 2.199e-4
-1.758, 2.159e-4
-1.757, 2.117e-4
-1.756, 2.073e-4
-1.755, 2.034e-4
-1.754, 1.994e-4
-1.753, 1.955e-4
-1.752, 1.916e-4
-1.751, 1.880e-4
-1.750, 1.844e-4
-1.749, 1.809e-4
-1.748, 1.772e-4
-1.747, 1.737e-4
-1.746, 1.704e-4
-1.745, 1.672e-4
-1.744, 1.641e-4
-1.743, 1.607e-4
-1.742, 1.573e-4
-1.741, 1.543e-4
-1.740, 1.515e-4
-1.739, 1.487e-4
-1.738, 1.459e-4
-1.737, 1.429e-4
-1.736, 1.400e-4
-1.735, 1.372e-4
-1.734, 1.348e-4
-1.733, 1.323e-4
-1.732, 1.298e-4
-1.731, 1.273e-4
-1.730, 1.247e-4
-1.729, 1.221e-4
-1.728, 1.198e-4
-1.727, 1.173e-4
-1.726, 1.151e-4
-1.725, 1.129e-4
-1.724, 1.107e-4
-1.723, 1.086e-4
-1.722, 1.065e-4
-1.721, 1.047e-4
-1.720, 1.026e-4
-1.719, 1.006e-4
-1.718, 9.854e-5
-1.717, 9.652e-5
-1.716, 9.461e-5
-1.715, 9.285e-5
-1.714, 9.119e-5
-1.713, 8.970e-5
-1.712, 8.781e-5
-1.711, 8.629e-5
-1.710, 8.474e-5
-1.709, 8.332e-5
-1.708, 8.173e-5
-1.707, 8.000e-5
-1.706, 7.873e-5
-1.705, 7.730e-5
-1.704, 7.587e-5
-1.703, 7.435e-5
-1.702, 7.283e-5
-1.701, 7.146e-5
-1.700, 6.998e-5
-1.699, 6.847e-5
-1.698, 6.719e-5
-1.697, 6.592e-5
-1.696, 6.498e-5
-1.695, 6.396e-5
-1.694, 6.279e-5
-1.693, 6.158e-5
-1.692, 6.032e-5
-1.691, 5.921e-5
-1.690, 5.825e-5
-1.689, 5.760e-5
-1.688, 5.710e-5
-1.687, 5.624e-5
-1.686, 5.525e-5
-1.685, 5.408e-5
-1.684, 5.304e-5
-1.683, 5.211e-5
-1.682, 5.104e-5
-1.681, 5.009e-5
-1.680, 4.917e-5
-1.679, 4.829e-5
-1.678, 4.753e-5
-1.677, 4.677e-5
-1.676, 4.599e-5
-1.675, 4.518e-5
-1.674, 4.442e-5
-1.673, 4.380e-5
-1.672, 4.320e-5
-1.671, 4.256e-5
-1.670, 4.199e-5
-1.669, 4.126e-5
-1.668, 4.069e-5
-1.667, 3.997e-5
-1.666, 3.940e-5
-1.665, 3.900e-5
-1.664, 3.835e-5
-1.663, 3.790e-5
-1.662, 3.706e-5
-1.661, 3.649e-5
-1.660, 3.598e-5
-1.659, 3.542e-5
-1.658, 3.503e-5
-1.657, 3.456e-5
-1.656, 3.401e-5
-1.655, 3.366e-5
-1.654, 3.312e-5
-1.653, 3.269e-5
-1.652, 3.220e-5
-1.651, 3.158e-5
-1.650, 3.112e-5
-1.649, 3.053e-5
-1.648, 3.003e-5
-1.647, 2.964e-5
-1.646, 2.939e-5
-1.645, 2.905e-5
-1.644, 2.870e-5
-1.643, 2.827e-5
-1.642, 2.792e-5
-1.641, 2.744e-5
-1.640, 2.716e-5
-1.639, 2.706e-5
-1.638, 2.673e-5
-1.637, 2.643e-5
-1.636, 2.597e-5
-1.635, 2.550e-5
-1.634, 2.514e-5
-1.633, 2.475e-5
-1.632, 2.455e-5
-1.631, 2.434e-5
-1.630, 2.414e-5
-1.629, 2.394e-5
-1.628, 2.363e-5
-1.627, 2.327e-5
-1.626, 2.292e-5
-1.625, 2.262e-5
-1.624, 2.255e-5
-1.623, 2.248e-5
-1.622, 2.247e-5
-1.621, 2.232e-5
-1.620, 2.193e-5
-1.619, 2.176e-5
-1.618, 2.166e-5
-1.617, 2.157e-5
-1.616, 2.157e-5
-1.615, 2.144e-5
-1.614, 2.130e-5
-1.613, 2.090e-5
-1.612, 2.057e-5
-1.611, 2.034e-5
-1.610, 2.010e-5
-1.609, 2.000e-5
-1.608, 1.973e-5
-1.607, 1.945e-5
-1.606, 1.949e-5
-1.605, 1.916e-5
-1.604, 1.894e-5
-1.603, 1.861e-5
-1.602, 1.837e-5
-1.601, 1.815e-5
-1.600, 1.803e-5
-1.599, 1.801e-5
-1.598, 1.802e-5
-1.597, 1.800e-5
-1.596, 1.791e-5
-1.595, 1.754e-5
-1.594, 1.741e-5
-1.593, 1.711e-5
-1.592, 1.691e-5
-1.591, 1.679e-5
-1.590, 1.654e-5
-1.589, 1.647e-5
-1.588, 1.625e-5
-1.587, 1.621e-5
-1.586, 1.599e-5
-1.585, 1.571e-5
-1.584, 1.559e-5
-1.583, 1.536e-5
-1.582, 1.531e-5
-1.581, 1.524e-5
-1.580, 1.516e-5
-1.579, 1.512e-5
-1.578, 1.488e-5
-1.577, 1.467e-5
-1.576, 1.449e-5
-1.575, 1.429e-5
-1.574, 1.419e-5
-1.573, 1.412e-5
-1.572, 1.412e-5
-1.571, 1.405e-5
-1.570, 1.377e-5
-1.569, 1.382e-5
-1.568, 1.378e-5
-1.567, 1.377e-5
-1.566, 1.372e-5
-1.565, 1.345e-5
-1.564, 1.333e-5
-1.563, 1.311e-5
-1.562, 1.297e-5
-1.561, 1.293e-5
-1.560, 1.289e-5
-1.559, 1.291e-5
-1.558, 1.279e-5
-1.557, 1.268e-5
-1.556, 1.253e-5
-1.555, 1.241e-5
-1.554, 1.233e-5
-1.553, 1.205e-5
-1.552, 1.199e-5
-1.551, 1.193e-5
-1.550, 1.182e-5
-1.549, 1.165e-5
-1.548, 1.146e-5
-1.547, 1.139e-5
-1.546, 1.130e-5
-1.545, 1.122e-5
-1.544, 1.118e-5
-1.543, 1.104e-5
-1.542, 1.109e-5
-1.541, 1.097e-5
-1.540, 1.094e-5
-1.539, 1.083e-5
-1.538, 1.061e-5
-1.537, 1.053e-5
-1.536, 1.039e-5
-1.535, 1.034e-5
-1.534, 1.038e-5
-1.533, 1.024e-5
-1.532, 1.030e-5
-1.531, 1.013e-5
-1.530, 9.975e-6
-1.529, 9.885e-6
-1.528, 9.754e-6
-1.527, 9.869e-6
-1.526, 9.823e-6
-1.525, 9.736e-6
-1.524, 9.705e-6
-1.523, 9.633e-6
-1.522, 9.576e-6
-1.521, 9.419e-6
-1.520, 9.370e-6
-1.519, 9.194e-6
-1.518, 9.117e-6
-1.517, 9.028e-6
-1.516, 8.919e-6
-1.515, 8.954e-6
-1.514, 8.874e-6
-1.513, 8.901e-6
-1.512, 8.874e-6
-1.511, 8.781e-6
-1.510, 8.817e-6
-1.509, 8.705e-6
-1.508, 8.714e-6
-1.507, 8.664e-6
-1.506, 8.516e-6
-1.505, 8.353e-6
-1.504, 8.172e-6
-1.503, 8.158e-6
-1.502, 8.204e-6
-1.501, 8.346e-6
-1.500, 8.628e-6
-1.499, 8.543e-6
-1.498, 8.560e-6
-1.497, 8.440e-6
-1.496, 8.363e-6
-1.495, 8.213e-6
-1.494, 8.017e-6
-1.493, 7.946e-6
-1.492, 7.854e-6
-1.491, 7.885e-6
-1.490, 7.856e-6
-1.489, 7.744e-6
-1.488, 7.834e-6
-1.487, 7.668e-6
-1.486, 7.807e-6
-1.485, 7.736e-6
-1.484, 7.756e-6
-1.483, 7.758e-6
-1.482, 7.642e-6
-1.481, 7.573e-6
-1.480, 7.425e-6
-1.479, 7.394e-6
-1.478, 7.392e-6
-1.477, 7.373e-6
-1.476, 7.422e-6
-1.475, 7.301e-6
-1.474, 7.305e-6
-1.473, 7.152e-6
-1.472, 7.082e-6
-1.471, 7.032e-6
-1.470, 6.883e-6
-1.469, 6.909e-6
-1.468, 6.778e-6
-1.467, 6.785e-6
-1.466, 6.695e-6
-1.465, 6.662e-6
-1.464, 6.687e-6
-1.463, 6.513e-6
-1.462, 6.519e-6
-1.461, 6.411e-6
-1.460, 6.382e-6
-1.459, 6.313e-6
-1.458, 6.218e-6
-1.457, 6.262e-6
-1.456, 6.238e-6
-1.455, 6.263e-6
-1.454, 6.269e-6
-1.453, 6.425e-6
-1.452, 6.497e-6
-1.451, 6.462e-6
-1.450, 6.428e-6
-1.449, 6.192e-6
-1.448, 6.164e-6
-1.447, 6.160e-6
-1.446, 6.395e-6
-1.445, 6.599e-6
-1.444, 6.549e-6
-1.443, 6.538e-6
-1.442, 6.338e-6
-1.441, 6.131e-6
-1.440, 6.028e-6
-1.439, 5.774e-6
-1.438, 5.851e-6
-1.437, 5.837e-6
-1.436, 6.000e-6
-1.435, 6.005e-6
-1.434, 5.954e-6
-1.433, 5.999e-6
-1.432, 5.808e-6
-1.431, 5.779e-6
-1.430, 5.648e-6
-1.429, 5.588e-6
-1.428, 5.602e-6
-1.427, 5.556e-6
-1.426, 5.564e-6
-1.425, 5.409e-6
-1.424, 5.419e-6
-1.423, 5.522e-6
-1.422, 5.408e-6
-1.421, 5.550e-6
-1.420, 5.435e-6
-1.419, 5.404e-6
-1.418, 5.558e-6
-1.417, 5.338e-6
-1.416, 5.428e-6
-1.415, 5.307e-6
-1.414, 5.262e-6
-1.413, 5.262e-6
-1.412, 5.184e-6
-1.411, 5.212e-6
-1.410, 5.135e-6
-1.409, 5.063e-6
-1.408, 5.057e-6
-1.407, 4.950e-6
-1.406, 4.983e-6
-1.405, 4.955e-6
-1.404, 4.890e-6
-1.403, 4.852e-6
-1.402, 4.738e-6
-1.401, 4.716e-6
-1.400, 4.711e-6
-1.399, 4.676e-6
-1.398, 4.685e-6
-1.397, 4.682e-6
-1.396, 4.763e-6
-1.395, 4.878e-6
-1.394, 4.750e-6
-1.393, 4.695e-6
-1.392, 4.614e-6
-1.391, 4.433e-6
-1.390, 4.374e-6
-1.389, 4.318e-6
-1.388, 4.303e-6
-1.387, 4.291e-6
-1.386, 4.281e-6
-1.385, 4.398e-6
-1.384, 4.386e-6
-1.383, 4.284e-6
-1.382, 4.275e-6
-1.381, 4.129e-6
-1.380, 4.176e-6
-1.379, 4.138e-6
-1.378, 4.127e-6
-1.377, 4.093e-6
-1.376, 4.039e-6
-1.375, 3.896e-6
-1.374, 3.927e-6
-1.373, 3.848e-6
-1.372, 3.909e-6
-1.371, 3.971e-6
-1.370, 3.903e-6
-1.369, 4.073e-6
-1.368, 4.032e-6
-1.367, 4.007e-6
-1.366, 3.866e-6
-1.365, 3.779e-6
-1.364, 3.771e-6
-1.363, 3.736e-6
-1.362, 3.669e-6
-1.361, 3.644e-6
-1.360, 3.561e-6
-1.359, 3.587e-6
-1.358, 3.635e-6
-1.357, 3.614e-6
-1.356, 3.617e-6
-1.355, 3.476e-6
-1.354, 3.454e-6
-1.353, 3.429e-6
-1.352, 3.263e-6
-1.351, 3.301e-6
-1.350, 3.203e-6
-1.349, 3.123e-6
-1.348, 3.230e-6
-1.347, 3.093e-6
-1.346, 3.080e-6
-1.345, 3.101e-6
-1.344, 3.002e-6
-1.343, 3.042e-6
-1.342, 2.893e-6
-1.341, 2.897e-6
-1.340, 2.949e-6
-1.339, 2.831e-6
-1.338, 2.850e-6
-1.337, 2.769e-6
-1.336, 2.729e-6
-1.335, 2.715e-6
-1.334, 2.551e-6
-1.333, 2.626e-6
-1.332, 2.655e-6
-1.331, 2.630e-6
-1.330, 2.727e-6
-1.329, 2.647e-6
-1.328, 2.627e-6
-1.327, 2.555e-6
-1.326, 2.456e-6
-1.325, 2.403e-6
-1.324, 2.418e-6
-1.323, 2.397e-6
-1.322, 2.367e-6
-1.321, 2.311e-6
-1.320, 2.273e-6
-1.319, 2.248e-6
-1.318, 2.157e-6
-1.317, 2.212e-6
-1.316, 2.119e-6
-1.315, 2.167e-6
-1.314, 2.135e-6
-1.313, 2.037e-6
-1.312, 2.026e-6
-1.311, 1.950e-6
-1.310, 1.860e-6
-1.309, 1.946e-6
-1.308, 1.919e-6
-1.307, 2.027e-6
-1.306, 1.970e-6
-1.305, 1.828e-6
-1.304, 1.829e-6
-1.303, 1.741e-6
-1.302, 1.743e-6
-1.301, 1.711e-6
-1.300, 1.680e-6
-1.299, 1.805e-6
-1.298, 1.886e-6
-1.297, 1.887e-6
-1.296, 1.896e-6
-1.295, 1.756e-6
-1.294, 1.779e-6
-1.293, 1.808e-6
-1.292, 1.680e-6
-1.291, 1.754e-6
-1.290, 1.623e-6
-1.289, 1.710e-6
-1.288, 1.681e-6
-1.287, 1.581e-6
-1.286, 1.642e-6
-1.285, 1.576e-6
-1.284, 1.588e-6
-1.283, 1.596e-6
-1.282, 1.491e-6
-1.281, 1.554e-6
-1.280, 1.512e-6
-1.279, 1.433e-6
-1.278, 1.415e-6
-1.277, 1.310e-6
-1.276, 1.345e-6
-1.275, 1.453e-6
-1.274, 1.433e-6
-1.273, 1.590e-6
-1.272, 1.421e-6
-1.271, 1.368e-6
-1.270, 1.299e-6
-1.269, 1.161e-6
-1.268, 1.283e-6
-1.267, 1.248e-6
-1.266, 1.268e-6
-1.265, 1.424e-6
-1.264, 1.303e-6
-1.263, 1.296e-6
-1.262, 1.261e-6
-1.261, 1.185e-6
-1.260, 1.279e-6
-1.259, 1.302e-6
-1.258, 1.388e-6
-1.257, 1.376e-6
-1.256, 1.245e-6
-1.255, 1.255e-6
-1.254, 1.104e-6
-1.253, 1.097e-6
-1.252, 1.093e-6
-1.251, 1.076e-6
-1.250, 1.127e-6
-1.249, 1.063e-6
-1.248, 1.007e-6
-1.247, 1.032e-6
-1.246, 9.154e-7
-1.245, 9.677e-7
-1.244, 9.262e-7
-1.243, 1.016e-6
-1.242, 1.043e-6
-1.241, 9.341e-7
-1.240, 1.094e-6
-1.239, 1.020e-6
-1.238, 1.026e-6
-1.237, 1.005e-6
-1.236, 8.690e-7
-1.235, 9.085e-7
-1.234, 8.572e-7
-1.233, 8.591e-7
-1.232, 9.282e-7
-1.231, 9.321e-7
-1.230, 9.390e-7
-1.229, 8.137e-7
-1.228, 7.013e-7
-1.227, 6.924e-7
-1.226, 6.066e-7
-1.225, 6.480e-7
-1.224, 6.766e-7
-1.223, 7.161e-7
-1.222, 7.822e-7
-1.221, 6.973e-7
-1.220, 6.549e-7
-1.219, 5.878e-7
-1.218, 5.069e-7
-1.217, 5.207e-7
-1.216, 4.842e-7
-1.215, 5.020e-7
-1.214, 5.345e-7
-1.213, 4.882e-7
-1.212, 5.059e-7
-1.211, 3.382e-7
-1.210, 3.362e-7
-1.209, 3.481e-7
-1.208, 2.474e-7
-1.207, 2.978e-7
-1.206, 2.455e-7
-1.205, 1.241e-7
-1.204, 1.991e-7
-1.203, 1.083e-7
-1.202, 8.564e-8
-1.201, 1.271e-7
-1.200, 4.519e-8
-1.199, 5.407e-8
-1.198, 6.393e-8
-1.197, -6.433e-8
-1.196, -8.090e-9
-1.195, -7.715e-8
-1.194, -1.531e-7
-1.193, -1.235e-7
-1.192, -1.896e-7
-1.191, -1.452e-7
-1.190, -1.600e-7
-1.189, -2.952e-7
-1.188, -2.587e-7
-1.187, -3.544e-7
-1.186, -3.465e-7
-1.185, -3.337e-7
-1.184, -3.958e-7
-1.183, -3.929e-7
-1.182, -3.889e-7
-1.181, -5.191e-7
-1.180, -4.846e-7
-1.179, -5.241e-7
-1.178, -5.764e-7
-1.177, -5.409e-7
-1.176, -6.454e-7
-1.175, -6.444e-7
-1.174, -5.744e-7
-1.173, -6.780e-7
-1.172, -6.583e-7
-1.171, -7.036e-7
-1.170, -7.520e-7
-1.169, -6.948e-7
-1.168, -8.132e-7
-1.167, -8.437e-7
-1.166, -9.079e-7
-1.165, -1.001e-6
-1.164, -9.375e-7
-1.163, -9.907e-7
-1.162, -1.022e-6
-1.161, -1.029e-6
-1.160, -1.121e-6
-1.159, -1.140e-6
-1.158, -1.148e-6
-1.157, -1.266e-6
-1.156, -1.272e-6
-1.155, -1.310e-6
-1.154, -1.360e-6
-1.153, -1.307e-6
-1.152, -1.458e-6
-1.151, -1.459e-6
-1.150, -1.496e-6
-1.149, -1.577e-6
-1.148, -1.570e-6
-1.147, -1.687e-6
-1.146, -1.693e-6
-1.145, -1.658e-6
-1.144, -1.781e-6
-1.143, -1.827e-6
-1.142, -1.833e-6
-1.141, -1.938e-6
-1.140, -1.947e-6
-1.139, -2.049e-6
-1.138, -2.119e-6
-1.137, -2.117e-6
-1.136, -2.207e-6
-1.135, -2.168e-6
-1.134, -2.244e-6
-1.133, -2.331e-6
-1.132, -2.329e-6
-1.131, -2.437e-6
-1.130, -2.516e-6
-1.129, -2.490e-6
-1.128, -2.635e-6
-1.127, -2.705e-6
-1.126, -2.800e-6
-1.125, -2.854e-6
-1.124, -2.811e-6
-1.123, -2.925e-6
-1.122, -2.963e-6
-1.121, -3.042e-6
-1.120, -3.147e-6
-1.119, -3.116e-6
-1.118, -3.170e-6
-1.117, -3.263e-6
-1.116, -3.286e-6
-1.115, -3.420e-6
-1.114, -3.456e-6
-1.113, -3.542e-6
-1.112, -3.670e-6
-1.111, -3.696e-6
-1.110, -3.777e-6
-1.109, -3.856e-6
-1.108, -3.865e-6
-1.107, -4.012e-6
-1.106, -4.038e-6
-1.105, -4.066e-6
-1.104, -4.241e-6
-1.103, -4.256e-6
-1.102, -4.389e-6
-1.101, -4.466e-6
-1.100, -4.512e-6
-1.099, -4.663e-6
-1.098, -4.709e-6
-1.097, -4.831e-6
-1.096, -4.964e-6
-1.095, -4.997e-6
-1.094, -5.145e-6
-1.093, -5.234e-6
-1.092, -5.267e-6
-1.091, -5.386e-6
-1.090, -5.489e-6
-1.089, -5.524e-6
-1.088, -5.648e-6
-1.087, -5.738e-6
-1.086, -5.851e-6
-1.085, -5.983e-6
-1.084, -5.982e-6
-1.083, -6.132e-6
-1.082, -6.235e-6
-1.081, -6.386e-6
-1.080, -6.540e-6
-1.079, -6.576e-6
-1.078, -6.686e-6
-1.077, -6.844e-6
-1.076, -6.924e-6
-1.075, -7.029e-6
-1.074, -7.155e-6
-1.073, -7.259e-6
-1.072, -7.504e-6
-1.071, -7.618e-6
-1.070, -7.703e-6
-1.069, -7.888e-6
-1.068, -7.978e-6
-1.067, -8.117e-6
-1.066, -8.274e-6
-1.065, -8.338e-6
-1.064, -8.493e-6
-1.063, -8.600e-6
-1.062, -8.656e-6
-1.061, -8.752e-6
-1.060, -8.891e-6
-1.059, -8.998e-6
-1.058, -9.157e-6
-1.057, -9.196e-6
-1.056, -9.368e-6
-1.055, -9.521e-6
-1.054, -9.580e-6
-1.053, -9.755e-6
-1.052, -9.905e-6
-1.051, -1.003e-5
-1.050, -1.019e-5
-1.049, -1.025e-5
-1.048, -1.036e-5
-1.047, -1.057e-5
-1.046, -1.068e-5
-1.045, -1.083e-5
-1.044, -1.094e-5
-1.043, -1.103e-5
-1.042, -1.121e-5
-1.041, -1.130e-5
-1.040, -1.138e-5
-1.039, -1.154e-5
-1.038, -1.162e-5
-1.037, -1.176e-5
-1.036, -1.190e-5
-1.035, -1.199e-5
-1.034, -1.211e-5
-1.033, -1.226e-5
-1.032, -1.222e-5
-1.031, -1.237e-5
-1.030, -1.247e-5
-1.029, -1.245e-5
-1.028, -1.270e-5
-1.027, -1.269e-5
-1.026, -1.275e-5
-1.025, -1.292e-5
-1.024, -1.291e-5
-1.023, -1.301e-5
-1.022, -1.313e-5
-1.021, -1.318e-5
-1.020, -1.324e-5
-1.019, -1.333e-5
-1.018, -1.333e-5
-1.017, -1.341e-5
-1.016, -1.345e-5
-1.015, -1.334e-5
-1.014, -1.344e-5
-1.013, -1.342e-5
-1.012, -1.338e-5
-1.011, -1.344e-5
-1.010, -1.344e-5
-1.009, -1.340e-5
-1.008, -1.341e-5
-1.007, -1.328e-5
-1.006, -1.327e-5
-1.005, -1.326e-5
-1.004, -1.312e-5
-1.003, -1.311e-5
-1.002, -1.305e-5
-1.001, -1.295e-5
-1.000, -1.239e-5
-1.001, -1.155e-5
-1.002, -1.078e-5
-1.003, -1.017e-5
-1.004, -9.604e-6
-1.005, -9.024e-6
-1.006, -8.719e-6
-1.007, -8.253e-6
-1.008, -7.765e-6
-1.009, -7.457e-6
-1.010, -7.061e-6
-1.011, -6.689e-6
-1.012, -6.464e-6
-1.013, -6.089e-6
-1.014, -5.838e-6
-1.015, -5.707e-6
-1.016, -5.372e-6
-1.017, -5.105e-6
-1.018, -4.941e-6
-1.019, -4.750e-6
-1.020, -4.482e-6
-1.021, -4.412e-6
-1.022, -4.134e-6
-1.023, -3.963e-6
-1.024, -3.855e-6
-1.025, -3.637e-6
-1.026, -3.495e-6
-1.027, -3.375e-6
-1.028, -3.211e-6
-1.029, -3.131e-6
-1.030, -2.984e-6
-1.031, -2.878e-6
-1.032, -2.799e-6
-1.033, -2.629e-6
-1.034, -2.543e-6
-1.035, -2.497e-6
-1.036, -2.334e-6
-1.037, -2.253e-6
-1.038, -2.211e-6
-1.039, -2.106e-6
-1.040, -1.973e-6
-1.041, -1.991e-6
-1.042, -1.780e-6
-1.043, -1.752e-6
-1.044, -1.718e-6
-1.045, -1.538e-6
-1.046, -1.513e-6
-1.047, -1.432e-6
-1.048, -1.286e-6
-1.049, -1.249e-6
-1.050, -1.236e-6
-1.051, -1.119e-6
-1.052, -1.069e-6
-1.053, -1.029e-6
-1.054, -8.714e-7
-1.055, -8.901e-7
-1.056, -8.487e-7
-1.057, -7.175e-7
-1.058, -7.470e-7
-1.059, -6.770e-7
-1.060, -5.487e-7
-1.061, -6.287e-7
-1.062, -4.767e-7
-1.063, -4.254e-7
-1.064, -3.721e-7
-1.065, -4.027e-7
-1.066, -2.567e-7
-1.067, -2.587e-7
-1.068, -2.054e-7
-1.069, -1.265e-7
-1.070, -1.393e-7
-1.071, -3.867e-8
-1.072, 2.151e-8
-1.073, -5.051e-8
-1.074, 9.156e-8
-1.075, 1.340e-7
-1.076, 1.162e-7
-1.077, 2.129e-7
-1.078, 2.366e-7
-1.079, 2.632e-7
-1.080, 3.500e-7
-1.081, 3.560e-7
-1.082, 3.688e-7
-1.083, 4.783e-7
-1.084, 4.911e-7
-1.085, 4.665e-7
-1.086, 5.710e-7
-1.087, 5.937e-7
-1.088, 5.819e-7
-1.089, 6.658e-7
-1.090, 6.786e-7
-1.091, 6.806e-7
-1.092, 7.901e-7
-1.093, 7.733e-7
-1.094, 8.374e-7
-1.095, 8.848e-7
-1.096, 9.016e-7
-1.097, 8.621e-7
-1.098, 9.903e-7
-1.099, 9.351e-7
-1.100, 9.450e-7
-1.101, 1.096e-6
-1.102, 1.063e-6
-1.103, 1.094e-6
-1.104, 1.144e-6
-1.105, 1.175e-6
-1.106, 1.179e-6
-1.107, 1.276e-6
-1.108, 1.219e-6
-1.109, 1.226e-6
-1.110, 1.362e-6
-1.111, 1.313e-6
-1.112, 1.294e-6
-1.113, 1.415e-6
-1.114, 1.394e-6
-1.115, 1.384e-6
-1.116, 1.459e-6
-1.117, 1.435e-6
-1.118, 1.506e-6
-1.119, 1.537e-6
-1.120, 1.569e-6
-1.121, 1.582e-6
-1.122, 1.629e-6
-1.123, 1.562e-6
-1.124, 1.690e-6
-1.125, 1.736e-6
-1.126, 1.649e-6
-1.127, 1.739e-6
-1.128, 1.804e-6
-1.129, 1.751e-6
-1.130, 1.833e-6
-1.131, 1.858e-6
-1.132, 1.844e-6
-1.133, 1.852e-6
-1.134, 1.894e-6
-1.135, 1.862e-6
-1.136, 1.945e-6
-1.137, 1.995e-6
-1.138, 1.928e-6
-1.139, 2.043e-6
-1.140, 2.075e-6
-1.141, 2.041e-6
-1.142, 2.064e-6
-1.143, 2.090e-6
-1.144, 2.094e-6
-1.145, 2.126e-6
-1.146, 2.214e-6
-1.147, 2.138e-6
-1.148, 2.218e-6
-1.149, 2.203e-6
-1.150, 2.191e-6
-1.151, 2.297e-6
-1.152, 2.311e-6
-1.153, 2.212e-6
-1.154, 2.329e-6
-1.155, 2.340e-6
-1.156, 2.299e-6
-1.157, 2.393e-6
-1.158, 2.384e-6
-1.159, 2.396e-6
-1.160, 2.454e-6
-1.161, 2.418e-6
-1.162, 2.456e-6
-1.163, 2.517e-6
-1.164, 2.461e-6
-1.165, 2.432e-6
-1.166, 2.555e-6
-1.167, 2.549e-6
-1.168, 2.523e-6
-1.169, 2.586e-6
-1.170, 2.572e-6
-1.171, 2.605e-6
-1.172, 2.672e-6
-1.173, 2.585e-6
-1.174, 2.635e-6
-1.175, 2.738e-6
-1.176, 2.654e-6
-1.177, 2.684e-6
-1.178, 2.753e-6
-1.179, 2.734e-6
-1.180, 2.767e-6
-1.181, 2.792e-6
-1.182, 2.769e-6
-1.183, 2.782e-6
-1.184, 2.817e-6
-1.185, 2.732e-6
-1.186, 2.852e-6
-1.187, 2.867e-6
-1.188, 2.830e-6
-1.189, 2.928e-6
-1.190, 2.898e-6
-1.191, 2.843e-6
-1.192, 2.963e-6
-1.193, 2.920e-6
-1.194, 2.954e-6
-1.195, 2.983e-6
-1.196, 2.959e-6
-1.197, 2.977e-6
-1.198, 3.043e-6
-1.199, 3.000e-6
-1.200, 3.011e-6
-1.201, 3.096e-6
-1.202, 3.074e-6
-1.203, 3.079e-6
-1.204, 3.141e-6
-1.205, 3.100e-6
-1.206, 3.160e-6
-1.207, 3.161e-6
-1.208, 3.104e-6
-1.209, 3.160e-6
-1.210, 3.232e-6
-1.211, 3.122e-6
-1.212, 3.170e-6
-1.213, 3.220e-6
-1.214, 3.157e-6
-1.215, 3.246e-6
-1.216, 3.282e-6
-1.217, 3.227e-6
-1.218, 3.258e-6
-1.219, 3.260e-6
-1.220, 3.255e-6
-1.221, 3.287e-6
-1.222, 3.320e-6
-1.223, 3.254e-6
-1.224, 3.306e-6
-1.225, 3.360e-6
-1.226, 3.297e-6
-1.227, 3.377e-6
-1.228, 3.371e-6
-1.229, 3.373e-6
-1.230, 3.426e-6
-1.231, 3.374e-6
-1.232, 3.395e-6
-1.233, 3.466e-6
-1.234, 3.408e-6
-1.235, 3.436e-6
-1.236, 3.493e-6
-1.237, 3.436e-6
-1.238, 3.461e-6
-1.239, 3.519e-6
-1.240, 3.473e-6
-1.241, 3.521e-6
-1.242, 3.595e-6
-1.243, 3.526e-6
-1.244, 3.518e-6
-1.245, 3.614e-6
-1.246, 3.541e-6
-1.247, 3.618e-6
-1.248, 3.613e-6
-1.249, 3.584e-6
-1.250, 3.673e-6
-1.251, 3.614e-6
-1.252, 3.593e-6
-1.253, 3.669e-6
-1.254, 3.680e-6
-1.255, 3.618e-6
-1.256, 3.706e-6
-1.257, 3.685e-6
-1.258, 3.675e-6
-1.259, 3.731e-6
-1.260, 3.700e-6
-1.261, 3.700e-6
-1.262, 3.735e-6
-1.263, 3.659e-6
-1.264, 3.700e-6
-1.265, 3.754e-6
-1.266, 3.684e-6
-1.267, 3.739e-6
-1.268, 3.786e-6
-1.269, 3.755e-6
-1.270, 3.778e-6
-1.271, 3.861e-6
-1.272, 3.814e-6
-1.273, 3.811e-6
-1.274, 3.832e-6
-1.275, 3.802e-6
-1.276, 3.870e-6
-1.277, 3.891e-6
-1.278, 3.829e-6
-1.279, 3.861e-6
-1.280, 3.918e-6
-1.281, 3.893e-6
-1.282, 3.967e-6
-1.283, 3.976e-6
-1.284, 3.914e-6
-1.285, 3.953e-6
-1.286, 3.983e-6
-1.287, 3.916e-6
-1.288, 4.011e-6
-1.289, 4.050e-6
-1.290, 3.936e-6
-1.291, 4.031e-6
-1.292, 4.068e-6
-1.293, 4.019e-6
-1.294, 4.038e-6
-1.295, 4.064e-6
-1.296, 4.016e-6
-1.297, 4.129e-6
-1.298, 4.034e-6
-1.299, 4.089e-6
-1.300, 4.112e-6
-1.301, 4.125e-6
-1.302, 4.084e-6
-1.303, 4.166e-6
-1.304, 4.134e-6
-1.305, 4.128e-6
-1.306, 4.206e-6
-1.307, 4.231e-6
-1.308, 4.177e-6
-1.309, 4.248e-6
-1.310, 4.232e-6
-1.311, 4.220e-6
-1.312, 4.328e-6
-1.313, 4.247e-6
-1.314, 4.276e-6
-1.315, 4.321e-6
-1.316, 4.258e-6
-1.317, 4.326e-6
-1.318, 4.374e-6
-1.319, 4.333e-6
-1.320, 4.350e-6
-1.321, 4.402e-6
-1.322, 4.352e-6
-1.323, 4.390e-6
-1.324, 4.436e-6
-1.325, 4.362e-6
-1.326, 4.426e-6
-1.327, 4.440e-6
-1.328, 4.370e-6
-1.329, 4.435e-6
-1.330, 4.471e-6
-1.331, 4.447e-6
-1.332, 4.540e-6
-1.333, 4.449e-6
-1.334, 4.469e-6
-1.335, 4.581e-6
-1.336, 4.488e-6
-1.337, 4.534e-6
-1.338, 4.543e-6
-1.339, 4.524e-6
-1.340, 4.612e-6
-1.341, 4.568e-6
-1.342, 4.564e-6
-1.343, 4.671e-6
-1.344, 4.641e-6
-1.345, 4.605e-6
-1.346, 4.672e-6
-1.347, 4.702e-6
-1.348, 4.640e-6
-1.349, 4.707e-6
-1.350, 4.655e-6
-1.351, 4.678e-6
-1.352, 4.737e-6
-1.353, 4.718e-6
-1.354, 4.772e-6
-1.355, 4.762e-6
-1.356, 4.730e-6
-1.357, 4.833e-6
-1.358, 4.775e-6
-1.359, 4.754e-6
-1.360, 4.851e-6
-1.361, 4.827e-6
-1.362, 4.758e-6
-1.363, 4.913e-6
-1.364, 4.810e-6
-1.365, 4.810e-6
-1.366, 4.930e-6
-1.367, 4.879e-6
-1.368, 4.869e-6
-1.369, 4.900e-6
-1.370, 4.900e-6
-1.371, 4.940e-6
-1.372, 5.048e-6
-1.373, 4.912e-6
-1.374, 4.943e-6
-1.375, 4.992e-6
-1.376, 4.932e-6
-1.377, 5.010e-6
-1.378, 5.000e-6
-1.379, 5.011e-6
-1.380, 5.018e-6
-1.381, 5.050e-6
-1.382, 5.007e-6
-1.383, 5.085e-6
-1.384, 5.054e-6
-1.385, 5.036e-6
-1.386, 5.168e-6
-1.387, 5.062e-6
-1.388, 5.039e-6
-1.389, 5.135e-6
-1.390, 5.090e-6
-1.391, 5.137e-6
-1.392, 5.211e-6
-1.393, 5.121e-6
-1.394, 5.174e-6
-1.395, 5.213e-6
-1.396, 5.179e-6
-1.397, 5.293e-6
-1.398, 5.170e-6
-1.399, 5.202e-6
-1.400, 5.352e-6
-1.401, 5.259e-6
-1.402, 5.287e-6
-1.403, 5.370e-6
-1.404, 5.258e-6
-1.405, 5.261e-6
-1.406, 5.424e-6
-1.407, 5.357e-6
-1.408, 5.353e-6
-1.409, 5.508e-6
-1.410, 5.374e-6
-1.411, 5.542e-6
-1.412, 5.531e-6
-1.413, 5.353e-6
-1.414, 5.562e-6
-1.415, 5.575e-6
-1.416, 5.572e-6
-1.417, 5.587e-6
-1.418, 5.577e-6
-1.419, 5.577e-6
-1.420, 5.614e-6
-1.421, 5.610e-6
-1.422, 5.581e-6
-1.423, 5.652e-6
-1.424, 5.621e-6
-1.425, 5.637e-6
-1.426, 5.658e-6
-1.427, 5.629e-6
-1.428, 5.696e-6
-1.429, 5.689e-6
-1.430, 5.644e-6
-1.431, 5.714e-6
-1.432, 5.752e-6
-1.433, 5.764e-6
-1.434, 5.811e-6
-1.435, 5.798e-6
-1.436, 5.885e-6
-1.437, 5.886e-6
-1.438, 5.820e-6
-1.439, 5.836e-6
-1.440, 5.920e-6
-1.441, 5.884e-6
-1.442, 5.897e-6
-1.443, 5.931e-6
-1.444, 5.878e-6
-1.445, 5.926e-6
-1.446, 5.948e-6
-1.447, 5.910e-6
-1.448, 6.015e-6
-1.449, 5.989e-6
-1.450, 6.022e-6
-1.451, 6.063e-6
-1.452, 6.093e-6
-1.453, 6.117e-6
-1.454, 6.113e-6
-1.455, 6.109e-6
-1.456, 6.132e-6
-1.457, 6.203e-6
-1.458, 6.181e-6
-1.459, 6.174e-6
-1.460, 6.263e-6
-1.461, 6.216e-6
-1.462, 6.324e-6
-1.463, 6.236e-6
-1.464, 6.299e-6
-1.465, 6.296e-6
-1.466, 6.352e-6
-1.467, 6.395e-6
-1.468, 6.540e-6
-1.469, 6.454e-6
-1.470, 6.535e-6
-1.471, 6.560e-6
-1.472, 6.518e-6
-1.473, 6.624e-6
-1.474, 6.625e-6
-1.475, 6.593e-6
-1.476, 6.650e-6
-1.477, 6.722e-6
-1.478, 6.633e-6
-1.479, 6.808e-6
-1.480, 6.710e-6
-1.481, 6.687e-6
-1.482, 6.891e-6
-1.483, 6.790e-6
-1.484, 6.845e-6
-1.485, 6.877e-6
-1.486, 6.869e-6
-1.487, 6.847e-6
-1.488, 6.962e-6
-1.489, 6.897e-6
-1.490, 6.930e-6
-1.491, 7.034e-6
-1.492, 6.983e-6
-1.493, 7.044e-6
-1.494, 6.987e-6
-1.495, 6.990e-6
-1.496, 7.101e-6
-1.497, 7.146e-6
-1.498, 7.113e-6
-1.499, 7.149e-6
-1.500, 7.148e-6
-1.501, 7.144e-6
-1.502, 7.269e-6
-1.503, 7.159e-6
-1.504, 7.244e-6
-1.505, 7.322e-6
-1.506, 7.316e-6
-1.507, 7.360e-6
-1.508, 7.384e-6
-1.509, 7.305e-6
-1.510, 7.405e-6
-1.511, 7.455e-6
-1.512, 7.458e-6
-1.513, 7.456e-6
-1.514, 7.460e-6
-1.515, 7.452e-6
-1.516, 7.623e-6
-1.517, 7.603e-6
-1.518, 7.655e-6
-1.519, 7.682e-6
-1.520, 7.655e-6
-1.521, 7.658e-6
-1.522, 7.748e-6
-1.523, 7.713e-6
-1.524, 7.829e-6
-1.525, 7.895e-6
-1.526, 7.877e-6
-1.527, 7.945e-6
-1.528, 7.963e-6
-1.529, 7.920e-6
-1.530, 8.033e-6
-1.531, 8.072e-6
-1.532, 8.072e-6
-1.533, 8.161e-6
-1.534, 8.194e-6
-1.535, 8.152e-6
-1.536, 8.267e-6
-1.537, 8.277e-6
-1.538, 8.265e-6
-1.539, 8.410e-6
-1.540, 8.383e-6
-1.541, 8.509e-6
-1.542, 8.518e-6
-1.543, 8.485e-6
-1.544, 8.504e-6
-1.545, 8.605e-6
-1.546, 8.588e-6
-1.547, 8.661e-6
-1.548, 8.756e-6
-1.549, 8.725e-6
-1.550, 8.838e-6
-1.551, 8.846e-6
-1.552, 8.886e-6
-1.553, 8.919e-6
-1.554, 8.966e-6
-1.555, 8.961e-6
-1.556, 9.130e-6
-1.557, 9.144e-6
-1.558, 9.176e-6
-1.559, 9.252e-6
-1.560, 9.227e-6
-1.561, 9.197e-6
-1.562, 9.338e-6
-1.563, 9.326e-6
-1.564, 9.404e-6
-1.565, 9.516e-6
-1.566, 9.443e-6
-1.567, 9.603e-6
-1.568, 9.644e-6
-1.569, 9.613e-6
-1.570, 9.688e-6
-1.571, 9.815e-6
-1.572, 9.767e-6
-1.573, 9.885e-6
-1.574, 9.877e-6
-1.575, 9.861e-6
-1.576, 1.007e-5
-1.577, 1.010e-5
-1.578, 1.003e-5
-1.579, 1.015e-5
-1.580, 1.021e-5
-1.581, 1.023e-5
-1.582, 1.036e-5
-1.583, 1.036e-5
-1.584, 1.045e-5
-1.585, 1.053e-5
-1.586, 1.050e-5
-1.587, 1.057e-5
-1.588, 1.073e-5
-1.589, 1.078e-5
-1.590, 1.083e-5
-1.591, 1.099e-5
-1.592, 1.099e-5
-1.593, 1.103e-5
-1.594, 1.112e-5
-1.595, 1.115e-5
-1.596, 1.121e-5
-1.597, 1.131e-5
-1.598, 1.135e-5
-1.599, 1.144e-5
-1.600, 1.165e-5
-1.601, 1.173e-5
-1.602, 1.179e-5
-1.603, 1.191e-5
-1.604, 1.188e-5
-1.605, 1.195e-5
-1.606, 1.211e-5
-1.607, 1.221e-5
-1.608, 1.218e-5
-1.609, 1.232e-5
-1.610, 1.240e-5
-1.611, 1.246e-5
-1.612, 1.267e-5
-1.613, 1.274e-5
-1.614, 1.283e-5
-1.615, 1.291e-5
-1.616, 1.296e-5
-1.617, 1.306e-5
-1.618, 1.320e-5
-1.619, 1.324e-5
-1.620, 1.336e-5
-1.621, 1.340e-5
-1.622, 1.351e-5
-1.623, 1.363e-5
-1.624, 1.378e-5
-1.625, 1.389e-5
-1.626, 1.406e-5
-1.627, 1.413e-5
-1.628, 1.418e-5
-1.629, 1.434e-5
-1.630, 1.445e-5
-1.631, 1.454e-5
-1.632, 1.472e-5
-1.633, 1.479e-5
-1.634, 1.489e-5
-1.635, 1.503e-5
-1.636, 1.514e-5
-1.637, 1.523e-5
-1.638, 1.546e-5
-1.639, 1.557e-5
-1.640, 1.574e-5
-1.641, 1.596e-5
-1.642, 1.608e-5
-1.643, 1.624e-5
-1.644, 1.641e-5
-1.645, 1.647e-5
-1.646, 1.674e-5
-1.647, 1.691e-5
-1.648, 1.709e-5
-1.649, 1.724e-5
-1.650, 1.748e-5
-1.651, 1.755e-5
-1.652, 1.782e-5
-1.653, 1.799e-5
-1.654, 1.818e-5
-1.655, 1.840e-5
-1.656, 1.856e-5
-1.657, 1.885e-5
-1.658, 1.914e-5
-1.659, 1.920e-5
-1.660, 1.942e-5
-1.661, 1.958e-5
-1.662, 1.976e-5
-1.663, 1.996e-5
-1.664, 2.018e-5
-1.665, 2.033e-5
-1.666, 2.068e-5
-1.667, 2.086e-5
-1.668, 2.101e-5
-1.669, 2.120e-5
-1.670, 2.133e-5
-1.671, 2.166e-5
-1.672, 2.189e-5
-1.673, 2.209e-5
-1.674, 2.236e-5
-1.675, 2.282e-5
-1.676, 2.306e-5
-1.677, 2.343e-5
-1.678, 2.368e-5
-1.679, 2.389e-5
-1.680, 2.416e-5
-1.681, 2.434e-5
-1.682, 2.469e-5
-1.683, 2.500e-5
-1.684, 2.532e-5
-1.685, 2.575e-5
-1.686, 2.615e-5
-1.687, 2.650e-5
-1.688, 2.691e-5
-1.689, 2.718e-5
-1.690, 2.756e-5
-1.691, 2.800e-5
-1.692, 2.838e-5
-1.693, 2.885e-5
-1.694, 2.929e-5
-1.695, 2.975e-5
-1.696, 3.027e-5
-1.697, 3.071e-5
-1.698, 3.103e-5
-1.699, 3.144e-5
-1.700, 3.188e-5
-1.701, 3.232e-5
-1.702, 3.293e-5
-1.703, 3.352e-5
-1.704, 3.414e-5
-1.705, 3.481e-5
-1.706, 3.534e-5
-1.707, 3.592e-5
-1.708, 3.640e-5
-1.709, 3.692e-5
-1.710, 3.746e-5
-1.711, 3.802e-5
-1.712, 3.867e-5
-1.713, 3.942e-5
-1.714, 4.008e-5
-1.715, 4.083e-5
-1.716, 4.164e-5
-1.717, 4.234e-5
-1.718, 4.316e-5
-1.719, 4.401e-5
-1.720, 4.477e-5
-1.721, 4.583e-5
-1.722, 4.678e-5
-1.723, 4.769e-5
-1.724, 4.865e-5
-1.725, 4.954e-5
-1.726, 5.065e-5
-1.727, 5.178e-5
-1.728, 5.281e-5
-1.729, 5.404e-5
-1.730, 5.537e-5
-1.731, 5.661e-5
-1.732, 5.797e-5
-1.733, 5.925e-5
-1.734, 6.073e-5
-1.735, 6.230e-5
-1.736, 6.377e-5
-1.737, 6.539e-5
-1.738, 6.701e-5
-1.739, 6.866e-5
-1.740, 7.034e-5
-1.741, 7.214e-5
-1.742, 7.396e-5
-1.743, 7.599e-5
-1.744, 7.796e-5
-1.745, 8.006e-5
-1.746, 8.229e-5
-1.747, 8.457e-5
-1.748, 8.710e-5
-1.749, 8.953e-5
-1.750, 9.196e-5
-1.751, 9.463e-5
-1.752, 9.738e-5
-1.753, 1.002e-4
-1.754, 1.032e-4
-1.755, 1.064e-4
-1.756, 1.098e-4
-1.757, 1.132e-4
-1.758, 1.166e-4
-1.759, 1.200e-4
-1.760, 1.238e-4
-1.761, 1.276e-4
-1.762, 1.319e-4
-1.763, 1.363e-4
-1.764, 1.406e-4
-1.765, 1.451e-4
-1.766, 1.499e-4
-1.767, 1.549e-4
-1.768, 1.600e-4
-1.769, 1.657e-4
-1.770, 1.713e-4
-1.771, 1.775e-4
-1.772, 1.833e-4
-1.773, 1.897e-4
-1.774, 1.963e-4
-1.775, 2.032e-4
-1.776, 2.104e-4
-1.777, 2.177e-4
-1.778, 2.253e-4
-1.779, 2.333e-4
-1.780, 2.415e-4
-1.781, 2.499e-4
-1.782, 2.588e-4
-1.783, 2.681e-4
-1.784, 2.778e-4
-1.785, 2.878e-4
-1.786, 2.980e-4
-1.787, 3.087e-4
-1.788, 3.199e-4
-1.789, 3.312e-4
-1.790, 3.430e-4
-1.791, 3.557e-4
-1.792, 3.684e-4
-1.793, 3.814e-4
-1.794, 3.951e-4
-1.795, 4.092e-4
-1.796, 4.240e-4
-1.797, 4.392e-4
-1.798, 4.547e-4
-1.799, 4.708e-4
-1.800, 4.802e-4
-1.799, 4.804e-4
-1.798, 4.794e-4
-1.797, 4.774e-4
-1.796, 4.746e-4
-1.795, 4.716e-4
-1.794, 4.679e-4
-1.793, 4.637e-4
-1.792, 4.592e-4
-1.791, 4.544e-4
-1.790, 4.494e-4
-1.789, 4.442e-4
-1.788, 4.386e-4
-1.787, 4.329e-4
-1.786, 4.273e-4
-1.785, 4.215e-4
-1.784, 4.157e-4
-1.783, 4.097e-4
-1.782, 4.035e-4
-1.781, 3.973e-4
-1.780, 3.909e-4
-1.779, 3.848e-4
-1.778, 3.785e-4
-1.777, 3.721e-4
-1.776, 3.659e-4
-1.775, 3.596e-4
-1.774, 3.534e-4
-1.773, 3.476e-4
-1.772, 3.417e-4
-1.771, 3.357e-4
-1.770, 3.298e-4
-1.769, 3.237e-4
-1.768, 3.179e-4
-1.767, 3.119e-4
-1.766, 3.060e-4
-1.765, 3.002e-4
-1.764, 2.945e-4
-1.763, 2.891e-4
-1.762, 2.834e-4
-1.761, 2.780e-4
-1.760, 2.727e-4
-1.759, 2.675e-4
-1.758, 2.623e-4
-1.757, 2.571e-4
-1.756, 2.520e-4
-1.755, 2.470e-4
-1.754, 2.421e-4
-1.753, 2.373e-4
-1.752, 2.327e-4
-1.751, 2.281e-4
-1.750, 2.235e-4
-1.749, 2.189e-4
-1.748, 2.145e-4
-1.747, 2.102e-4
-1.746, 2.059e-4
-1.745, 2.016e-4
-1.744, 1.976e-4
-1.743, 1.936e-4
-1.742, 1.897e-4
-1.741, 1.859e-4
-1.740, 1.821e-4
-1.739, 1.783e-4
-1.738, 1.746e-4
-1.737, 1.710e-4
-1.736, 1.676e-4
-1.735, 1.641e-4
-1.734, 1.608e-4
-1.733, 1.576e-4
-1.732, 1.544e-4
-1.731, 1.512e-4
-1.730, 1.482e-4
-1.729, 1.450e-4
-1.728, 1.418e-4
-1.727, 1.389e-4
-1.726, 1.362e-4
-1.725, 1.334e-4
-1.724, 1.305e-4
-1.723, 1.278e-4
-1.722, 1.251e-4
-1.721, 1.225e-4
-1.720, 1.198e-4
-1.719, 1.171e-4
-1.718, 1.147e-4
-1.717, 1.124e-4
-1.716, 1.105e-4
-1.715, 1.083e-4
-1.714, 1.060e-4
-1.713, 1.038e-4
-1.712, 1.013e-4
-1.711, 9.910e-5
-1.710, 9.702e-5
-1.709, 9.508e-5
-1.708, 9.320e-5
-1.707, 9.133e-5
-1.706, 8.939e-5
-1.705, 8.751e-5
-1.704, 8.569e-5
-1.703, 8.382e-5
-1.702, 8.206e-5
-1.701, 8.066e-5
-1.700, 7.894e-5
-1.699, 7.738e-5
-1.698, 7.585e-5
-1.697, 7.429e-5
-1.696, 7.281e-5
-1.695, 7.123e-5
-1.694, 6.978e-5
-1.693, 6.844e-5
-1.692, 6.700e-5
-1.691, 6.564e-5
-1.690, 6.436e-5
-1.689, 6.312e-5
-1.688, 6.194e-5
-1.687, 6.069e-5
-1.686, 5.951e-5
-1.685, 5.836e-5
-1.684, 5.732e-5
-1.683, 5.631e-5
-1.682, 5.543e-5
-1.681, 5.425e-5
-1.680, 5.322e-5
-1.679, 5.216e-5
-1.678, 5.103e-5
-1.677, 4.997e-5
-1.676, 4.909e-5
-1.675, 4.812e-5
-1.674, 4.738e-5
-1.673, 4.647e-5
-1.672, 4.554e-5
-1.671, 4.461e-5
-1.670, 4.375e-5
-1.669, 4.282e-5
-1.668, 4.215e-5
-1.667, 4.132e-5
-1.666, 4.054e-5
-1.665, 3.998e-5
-1.664, 3.943e-5
-1.663, 3.879e-5
-1.662, 3.809e-5
-1.661, 3.718e-5
-1.660, 3.651e-5
-1.659, 3.579e-5
-1.658, 3.516e-5
-1.657, 3.476e-5
-1.656, 3.442e-5
-1.655, 3.395e-5
-1.654, 3.349e-5
-1.653, 3.269e-5
-1.652, 3.196e-5
-1.651, 3.139e-5
-1.650, 3.071e-5
-1.649, 3.029e-5
-1.648, 2.990e-5
-1.647, 2.934e-5
-1.646, 2.888e-5
-1.645, 2.836e-5
-1.644, 2.789e-5
-1.643, 2.758e-5
-1.642, 2.701e-5
-1.641, 2.668e-5
-1.640, 2.627e-5
-1.639, 2.573e-5
-1.638, 2.535e-5
-1.637, 2.497e-5
-1.636, 2.457e-5
-1.635, 2.418e-5
-1.634, 2.379e-5
-1.633, 2.344e-5
-1.632, 2.319e-5
-1.631, 2.288e-5
-1.630, 2.243e-5
-1.629, 2.218e-5
-1.628, 2.183e-5
-1.627, 2.142e-5
-1.626, 2.108e-5
-1.625, 2.072e-5
-1.624, 2.050e-5
-1.623, 2.020e-5
-1.622, 1.988e-5
-1.621, 1.967e-5
-1.620, 1.934e-5
-1.619, 1.899e-5
-1.618, 1.880e-5
-1.617, 1.853e-5
-1.616, 1.830e-5
-1.615, 1.811e-5
-1.614, 1.786e-5
-1.613, 1.757e-5
-1.612, 1.744e-5
-1.611, 1.720e-5
-1.610, 1.700e-5
-1.609, 1.695e-5
-1.608, 1.675e-5
-1.607, 1.668e-5
-1.606, 1.653e-5
-1.605, 1.624e-5
-1.604, 1.613e-5
-1.603, 1.599e-5
-1.602, 1.566e-5
-1.601, 1.560e-5
-1.600, 1.539e-5
-1.599, 1.522e-5
-1.598, 1.517e-5
-1.597, 1.505e-5
-1.596, 1.498e-5
-1.595, 1.478e-5
-1.594, 1.441e-5
-1.593, 1.433e-5
-1.592, 1.421e-5
-1.591, 1.404e-5
-1.590, 1.385e-5
-1.589, 1.381e-5
-1.588, 1.363e-5
-1.587, 1.345e-5
-1.586, 1.329e-5
-1.585, 1.301e-5
-1.584, 1.294e-5
-1.583, 1.281e-5
-1.582, 1.261e-5
-1.581, 1.254e-5
-1.580, 1.244e-5
-1.579, 1.218e-5
-1.578, 1.205e-5
-1.577, 1.183e-5
-1.576, 1.170e-5
-1.575, 1.166e-5
-1.574, 1.147e-5
-1.573, 1.130e-5
-1.572, 1.126e-5
-1.571, 1.108e-5
-1.570, 1.090e-5
-1.569, 1.079e-5
-1.568, 1.062e-5
-1.567, 1.045e-5
-1.566, 1.034e-5
-1.565, 1.022e-5
-1.564, 1.016e-5
-1.563, 1.014e-5
-1.562, 1.006e-5
-1.561, 1.008e-5
-1.560, 1.014e-5
-1.559, 9.911e-6
-1.558, 9.806e-6
-1.557, 9.624e-6
-1.556, 9.460e-6
-1.555, 9.392e-6
-1.554, 9.347e-6
-1.553, 9.354e-6
-1.552, 9.345e-6
-1.551, 9.219e-6
-1.550, 9.077e-6
-1.549, 8.977e-6
-1.548, 8.825e-6
-1.547, 8.727e-6
-1.546, 8.791e-6
-1.545, 8.773e-6
-1.544, 8.820e-6
-1.543, 8.752e-6
-1.542, 8.467e-6
-1.541, 8.401e-6
-1.540, 8.346e-6
-1.539, 8.204e-6
-1.538, 8.265e-6
-1.537, 8.339e-6
-1.536, 8.340e-6
-1.535, 8.282e-6
-1.534, 8.315e-6
-1.533, 8.208e-6
-1.532, 8.219e-6
-1.531, 8.172e-6
-1.530, 8.051e-6
-1.529, 8.011e-6
-1.528, 8.071e-6
-1.527, 8.089e-6
-1.526, 8.125e-6
-1.525, 8.068e-6
-1.524, 7.981e-6
-1.523, 7.904e-6
-1.522, 7.853e-6
-1.521, 7.792e-6
-1.520, 7.711e-6
-1.519, 7.746e-6
-1.518, 7.638e-6
-1.517, 7.574e-6
-1.516, 7.451e-6
-1.515, 7.430e-6
-1.514, 7.341e-6
-1.513, 7.272e-6
-1.512, 7.222e-6
-1.511, 7.047e-6
-1.510, 7.027e-6
-1.509, 6.917e-6
-1.508, 6.867e-6
-1.507, 6.992e-6
-1.506, 6.893e-6
-1.505, 6.848e-6
-1.504, 6.854e-6
-1.503, 6.790e-6
-1.502, 6.665e-6
-1.501, 6.647e-6
-1.500, 6.576e-6
-1.499, 6.514e-6
-1.498, 6.527e-6
-1.497, 6.486e-6
-1.496, 6.334e-6
-1.495, 6.280e-6
-1.494, 6.288e-6
-1.493, 6.182e-6
-1.492, 6.185e-6
-1.491, 6.127e-6
-1.490, 5.994e-6
-1.489, 5.968e-6
-1.488, 6.018e-6
-1.487, 5.944e-6
-1.486, 5.933e-6
-1.485, 6.012e-6
-1.484, 5.936e-6
-1.483, 5.812e-6
-1.482, 5.774e-6
-1.481, 5.685e-6
-1.480, 5.604e-6
-1.479, 5.595e-6
-1.478, 5.588e-6
-1.477, 5.574e-6
-1.476, 5.604e-6
-1.475, 5.605e-6
-1.474, 5.620e-6
-1.473, 5.642e-6
-1.472, 5.554e-6
-1.471, 5.421e-6
-1.470, 5.407e-6
-1.469, 5.202e-6
-1.468, 5.242e-6
-1.467, 5.295e-6
-1.466, 5.195e-6
-1.465, 5.205e-6
-1.464, 5.259e-6
-1.463, 5.123e-6
-1.462, 5.239e-6
-1.461, 5.286e-6
-1.460, 5.232e-6
-1.459, 5.204e-6
-1.458, 5.188e-6
-1.457, 5.023e-6
-1.456, 4.979e-6
-1.455, 4.908e-6
-1.454, 4.774e-6
-1.453, 4.770e-6
-1.452, 4.788e-6
-1.451, 4.731e-6
-1.450, 4.690e-6
-1.449, 4.762e-6
-1.448, 4.616e-6
-1.447, 4.637e-6
-1.446, 4.578e-6
-1.445, 4.576e-6
-1.444, 4.610e-6
-1.443, 4.571e-6
-1.442, 4.480e-6
-1.441, 4.435e-6
-1.440, 4.519e-6
-1.439, 4.462e-6
-1.438, 4.644e-6
-1.437, 4.705e-6
-1.436, 4.598e-6
-1.435, 4.584e-6
-1.434, 4.448e-6
-1.433, 4.361e-6
-1.432, 4.386e-6
-1.431, 4.291e-6
-1.430, 4.330e-6
-1.429, 4.438e-6
-1.428, 4.352e-6
-1.427, 4.233e-6
-1.426, 4.181e-6
-1.425, 4.055e-6
-1.424, 4.012e-6
-1.423, 3.933e-6
-1.422, 3.950e-6
-1.421, 3.902e-6
-1.420, 3.948e-6
-1.419, 3.778e-6
-1.418, 3.745e-6
-1.417, 3.826e-6
-1.416, 3.676e-6
-1.415, 3.735e-6
-1.414, 3.744e-6
-1.413, 3.616e-6
-1.412, 3.654e-6
-1.411, 3.623e-6
-1.410, 3.511e-6
-1.409, 3.555e-6
-1.408, 3.467e-6
-1.407, 3.397e-6
-1.406, 3.419e-6
-1.405, 3.428e-6
-1.404, 3.327e-6
-1.403, 3.380e-6
-1.402, 3.298e-6
-1.401, 3.282e-6
-1.400, 3.334e-6
-1.399, 3.190e-6
-1.398, 3.308e-6
-1.397, 3.274e-6
-1.396, 3.262e-6
-1.395, 3.334e-6
-1.394, 3.260e-6
-1.393, 3.314e-6
-1.392, 3.366e-6
-1.391, 3.192e-6
-1.390, 3.181e-6
-1.389, 3.215e-6
-1.388, 3.083e-6
-1.387, 3.143e-6
-1.386, 3.069e-6
-1.385, 3.021e-6
-1.384, 3.033e-6
-1.383, 2.971e-6
-1.382, 2.930e-6
-1.381, 2.978e-6
-1.380, 2.914e-6
-1.379, 2.813e-6
-1.378, 2.834e-6
-1.377, 2.723e-6
-1.376, 2.795e-6
-1.375, 2.834e-6
-1.374, 2.769e-6
-1.373, 2.804e-6
-1.372, 2.704e-6
-1.371, 2.633e-6
-1.370, 2.655e-6
-1.369, 2.610e-6
-1.368, 2.614e-6
-1.367, 2.591e-6
-1.366, 2.482e-6
-1.365, 2.498e-6
-1.364, 2.505e-6
-1.363, 2.399e-6
-1.362, 2.445e-6
-1.361, 2.359e-6
-1.360, 2.296e-6
-1.359, 2.360e-6
-1.358, 2.334e-6
-1.357, 2.246e-6
-1.356, 2.230e-6
-1.355, 2.148e-6
-1.354, 2.110e-6
-1.353, 2.119e-6
-1.352, 2.017e-6
-1.351, 2.045e-6
-1.350, 2.076e-6
-1.349, 1.989e-6
-1.348, 1.980e-6
-1.347, 1.911e-6
-1.346, 1.899e-6
-1.345, 1.973e-6
-1.344, 1.866e-6
-1.343, 1.892e-6
-1.342, 1.887e-6
-1.341, 1.805e-6
-1.340, 1.751e-6
-1.339, 1.740e-6
-1.338, 1.673e-6
-1.337, 1.714e-6
-1.336, 1.682e-6
-1.335, 1.554e-6
-1.334, 1.624e-6
-1.333, 1.600e-6
-1.332, 1.627e-6
-1.331, 1.656e-6
-1.330, 1.579e-6
-1.329, 1.614e-6
-1.328, 1.550e-6
-1.327, 1.463e-6
-1.326, 1.505e-6
-1.325, 1.398e-6
-1.324, 1.390e-6
-1.323, 1.435e-6
-1.322, 1.345e-6
-1.321, 1.352e-6
-1.320, 1.384e-6
-1.319, 1.316e-6
-1.318, 1.343e-6
-1.317, 1.346e-6
-1.316, 1.264e-6
-1.315, 1.357e-6
-1.314, 1.290e-6
-1.313, 1.273e-6
-1.312, 1.261e-6
-1.311, 1.197e-6
-1.310, 1.214e-6
-1.309, 1.215e-6
-1.308, 1.079e-6
-1.307, 1.156e-6
-1.306, 1.090e-6
-1.305, 1.039e-6
-1.304, 1.151e-6
-1.303, 1.068e-6
-1.302, 9.973e-7
-1.301, 1.040e-6
-1.300, 9.538e-7
-1.299, 9.568e-7
-1.298, 1.001e-6
-1.297, 9.410e-7
-1.296, 1.009e-6
-1.295, 1.000e-6
-1.294, 9.114e-7
-1.293, 9.371e-7
-1.292, 8.720e-7
-1.291, 8.887e-7
-1.290, 9.292e-7
-1.289, 9.016e-7
-1.288, 8.848e-7
-1.287, 9.469e-7
-1.286, 8.937e-7
-1.285, 8.956e-7
-1.284, 8.749e-7
-1.283, 7.989e-7
-1.282, 8.532e-7
-1.281, 8.108e-7
-1.280, 7.634e-7
-1.279, 8.848e-7
-1.278, 8.838e-7
-1.277, 8.187e-7
-1.276, 8.591e-7
-1.275, 7.615e-7
-1.274, 7.486e-7
-1.273, 7.733e-7
-1.272, 7.289e-7
-1.271, 7.516e-7
-1.270, 7.822e-7
-1.269, 6.983e-7
-1.268, 7.763e-7
-1.267, 6.746e-7
-1.266, 6.431e-7
-1.265, 6.746e-7
-1.264, 5.424e-7
-1.263, 5.553e-7
-1.262, 6.431e-7
-1.261, 5.158e-7
-1.260, 5.513e-7
-1.259, 5.543e-7
-1.258, 4.872e-7
-1.257, 5.109e-7
-1.256, 4.734e-7
-1.255, 3.984e-7
-1.254, 4.921e-7
-1.253, 4.339e-7
-1.252, 4.260e-7
-1.251, 4.921e-7
-1.250, 4.398e-7
-1.249, 4.102e-7
-1.248, 4.309e-7
-1.247, 2.672e-7
-1.246, 3.372e-7
-1.245, 2.889e-7
-1.244, 2.435e-7
-1.243, 2.642e-7
-1.242, 2.317e-7
-1.241, 1.853e-7
-1.240, 2.109e-7
-1.239, 1.577e-7
-1.238, 8.564e-8
-1.237, 1.754e-7
-1.236, 8.860e-8
-1.235, 2.151e-8
-1.234, 1.231e-7
-1.233, 2.545e-8
-1.232, -8.090e-9
-1.231, 5.111e-8
-1.230, -7.222e-8
-1.229, -3.670e-8
-1.228, -6.235e-8
-1.227, -1.146e-7
-1.226, -1.008e-7
-1.225, -1.038e-7
-1.224, -1.620e-7
-1.223, -6.926e-8
-1.222, -9.294e-8
-1.221, -1.265e-7
-1.220, -8.406e-8
-1.219, -2.123e-7
-1.218, -1.482e-7
-1.217, -1.867e-7
-1.216, -2.429e-7
-1.215, -3.139e-7
-1.214, -2.311e-7
-1.213, -2.774e-7
-1.212, -2.873e-7
-1.211, -3.080e-7
-1.210, -3.761e-7
-1.209, -3.169e-7
-1.208, -3.356e-7
-1.207, -4.501e-7
-1.206, -3.998e-7
-1.205, -4.077e-7
-1.204, -4.738e-7
-1.203, -4.284e-7
-1.202, -5.221e-7
-1.201, -4.767e-7
-1.200, -4.136e-7
-1.199, -5.665e-7
-1.198, -4.925e-7
-1.197, -5.310e-7
-1.196, -5.971e-7
-1.195, -5.685e-7
-1.194, -6.148e-7
-1.193, -6.247e-7
-1.192, -6.099e-7
-1.191, -6.563e-7
-1.190, -7.224e-7
-1.189, -6.721e-7
-1.188, -7.145e-7
-1.187, -7.569e-7
-1.186, -7.688e-7
-1.185, -8.270e-7
-1.184, -7.845e-7
-1.183, -8.368e-7
-1.182, -8.645e-7
-1.181, -8.398e-7
-1.180, -8.368e-7
-1.179, -9.582e-7
-1.178, -9.315e-7
-1.177, -9.858e-7
-1.176, -1.035e-6
-1.175, -9.848e-7
-1.174, -1.138e-6
-1.173, -1.088e-6
-1.172, -1.011e-6
-1.171, -1.104e-6
-1.170, -1.126e-6
-1.169, -1.169e-6
-1.168, -1.199e-6
-1.167, -1.209e-6
-1.166, -1.217e-6
-1.165, -1.288e-6
-1.164, -1.249e-6
-1.163, -1.304e-6
-1.162, -1.431e-6
-1.161, -1.331e-6
-1.160, -1.425e-6
-1.159, -1.460e-6
-1.158, -1.442e-6
-1.157, -1.534e-6
-1.156, -1.504e-6
-1.155, -1.499e-6
-1.154, -1.604e-6
-1.153, -1.611e-6
-1.152, -1.617e-6
-1.151, -1.708e-6
-1.150, -1.681e-6
-1.149, -1.726e-6
-1.148, -1.771e-6
-1.147, -1.782e-6
-1.146, -1.856e-6
-1.145, -1.890e-6
-1.144, -1.868e-6
-1.143, -1.952e-6
-1.142, -2.015e-6
-1.141, -2.009e-6
-1.140, -2.084e-6
-1.139, -2.069e-6
-1.138, -2.140e-6
-1.137, -2.209e-6
-1.136, -2.168e-6
-1.135, -2.254e-6
-1.134, -2.330e-6
-1.133, -2.299e-6
-1.132, -2.405e-6
-1.131, -2.421e-6
-1.130, -2.397e-6
-1.129, -2.521e-6
-1.128, -2.543e-6
-1.127, -2.571e-6
-1.126, -2.687e-6
-1.125, -2.633e-6
-1.124, -2.691e-6
-1.123, -2.786e-6
-1.122, -2.753e-6
-1.121, -2.821e-6
-1.120, -2.938e-6
-1.119, -2.880e-6
-1.118, -3.008e-6
-1.117, -3.042e-6
-1.116, -3.023e-6
-1.115, -3.155e-6
-1.114, -3.155e-6
-1.113, -3.219e-6
-1.112, -3.324e-6
-1.111, -3.309e-6
-1.110, -3.353e-6
-1.109, -3.468e-6
-1.108, -3.452e-6
-1.107, -3.586e-6
-1.106, -3.622e-6
-1.105, -3.629e-6
-1.104, -3.763e-6
-1.103, -3.839e-6
-1.102, -3.851e-6
-1.101, -3.956e-6
-1.100, -4.063e-6
-1.099, -4.001e-6
-1.098, -4.117e-6
-1.097, -4.172e-6
-1.096, -4.226e-6
-1.095, -4.369e-6
-1.094, -4.344e-6
-1.093, -4.481e-6
-1.092, -4.568e-6
-1.091, -4.613e-6
-1.090, -4.679e-6
-1.089, -4.805e-6
-1.088, -4.856e-6
-1.087, -4.904e-6
-1.086, -5.005e-6
-1.085, -5.068e-6
-1.084, -5.170e-6
-1.083, -5.271e-6
-1.082, -5.290e-6
-1.081, -5.477e-6
-1.080, -5.545e-6
-1.079, -5.536e-6
-1.078, -5.751e-6
-1.077, -5.769e-6
-1.076, -5.842e-6
-1.075, -6.017e-6
-1.074, -6.027e-6
-1.073, -6.169e-6
-1.072, -6.343e-6
-1.071, -6.387e-6
-1.070, -6.519e-6
-1.069, -6.642e-6
-1.068, -6.718e-6
-1.067, -6.895e-6
-1.066, -6.952e-6
-1.065, -7.035e-6
-1.064, -7.229e-6
-1.063, -7.266e-6
-1.062, -7.407e-6
-1.061, -7.565e-6
-1.060, -7.627e-6
-1.059, -7.768e-6
-1.058, -7.893e-6
-1.057, -7.956e-6
-1.056, -8.100e-6
-1.055, -8.259e-6
-1.054, -8.268e-6
-1.053, -8.441e-6
-1.052, -8.516e-6
-1.051, -8.618e-6
-1.050, -8.768e-6
-1.049, -8.799e-6
-1.048, -8.899e-6
-1.047, -9.082e-6
-1.046, -9.114e-6
-1.045, -9.182e-6
-1.044, -9.388e-6
-1.043, -9.393e-6
-1.042, -9.500e-6
-1.041, -9.617e-6
-1.040, -9.685e-6
-1.039, -9.837e-6
-1.038, -9.886e-6
-1.037, -9.948e-6
-1.036, -1.012e-5
-1.035, -1.022e-5
-1.034, -1.020e-5
-1.033, -1.035e-5
-1.032, -1.041e-5
-1.031, -1.047e-5
-1.030, -1.055e-5
-1.029, -1.054e-5
-1.028, -1.060e-5
-1.027, -1.069e-5
-1.026, -1.068e-5
-1.025, -1.072e-5
-1.024, -1.084e-5
-1.023, -1.083e-5
-1.022, -1.090e-5
-1.021, -1.096e-5
-1.020, -1.094e-5
-1.019, -1.105e-5
-1.018, -1.103e-5
-1.017, -1.101e-5
-1.016, -1.103e-5
-1.015, -1.098e-5
-1.014, -1.095e-5
-1.013, -1.105e-5
-1.012, -1.095e-5
-1.011, -1.098e-5
-1.010, -1.095e-5
-1.009, -1.085e-5
-1.008, -1.087e-5
-1.007, -1.091e-5
-1.006, -1.080e-5
-1.005, -1.078e-5
-1.004, -1.079e-5
-1.003, -1.066e-5
-1.002, -1.063e-5
-1.001, -1.059e-5
