Aug. 20, 2024   21:47:45
Cyclic Voltammetry
File: c:/users/guazh/data/20240813_batch_94_500/2024-08-15-exp144\exp144-2024-08-20t21_39_01-arkoh\exp144_cv_50mvs_efin_-1600mv.bin
Data Source:  Experiment
Instrument Model:  CHI760E
Header: CV ran at 50 mVs
Note: 

Init E (V) = -1
High E (V) = -1
Low E (V) = -1.6
Final E (V) = -1
Init P/N = N
Scan Rate (V/s) = 0.05
Segment = 7
Sample Interval (V) = 0.001
Quiet Time (sec) = 60
Sensitivity (A/V) = 0.001
Comp R (ohm) = 1.7

Results:

Channel 1:
Segment 1:

Segment 2:

Segment 3:

Segment 4:

Segment 5:

Segment 6:

Segment 7:

Potential/V, Current/A

-1.000, 1.501e-6
-1.001, 1.617e-6
-1.002, 1.655e-6
-1.003, 1.666e-6
-1.004, 1.698e-6
-1.005, 1.738e-6
-1.006, 1.747e-6
-1.007, 1.752e-6
-1.008, 1.756e-6
-1.009, 1.796e-6
-1.010, 1.823e-6
-1.011, 1.832e-6
-1.012, 1.851e-6
-1.013, 1.858e-6
-1.014, 1.884e-6
-1.015, 1.902e-6
-1.016, 1.920e-6
-1.017, 1.909e-6
-1.018, 1.956e-6
-1.019, 1.932e-6
-1.020, 1.934e-6
-1.021, 1.972e-6
-1.022, 1.962e-6
-1.023, 1.995e-6
-1.024, 1.986e-6
-1.025, 2.006e-6
-1.026, 2.013e-6
-1.027, 2.056e-6
-1.028, 2.063e-6
-1.029, 2.056e-6
-1.030, 2.066e-6
-1.031, 2.085e-6
-1.032, 2.121e-6
-1.033, 2.104e-6
-1.034, 2.104e-6
-1.035, 2.120e-6
-1.036, 2.151e-6
-1.037, 2.156e-6
-1.038, 2.141e-6
-1.039, 2.128e-6
-1.040, 2.201e-6
-1.041, 2.197e-6
-1.042, 2.180e-6
-1.043, 2.203e-6
-1.044, 2.183e-6
-1.045, 2.223e-6
-1.046, 2.244e-6
-1.047, 2.208e-6
-1.048, 2.225e-6
-1.049, 2.249e-6
-1.050, 2.279e-6
-1.051, 2.279e-6
-1.052, 2.285e-6
-1.053, 2.276e-6
-1.054, 2.309e-6
-1.055, 2.315e-6
-1.056, 2.326e-6
-1.057, 2.339e-6
-1.058, 2.338e-6
-1.059, 2.355e-6
-1.060, 2.349e-6
-1.061, 2.354e-6
-1.062, 2.385e-6
-1.063, 2.402e-6
-1.064, 2.395e-6
-1.065, 2.413e-6
-1.066, 2.411e-6
-1.067, 2.433e-6
-1.068, 2.450e-6
-1.069, 2.419e-6
-1.070, 2.446e-6
-1.071, 2.441e-6
-1.072, 2.481e-6
-1.073, 2.515e-6
-1.074, 2.479e-6
-1.075, 2.515e-6
-1.076, 2.516e-6
-1.077, 2.535e-6
-1.078, 2.560e-6
-1.079, 2.574e-6
-1.080, 2.567e-6
-1.081, 2.574e-6
-1.082, 2.608e-6
-1.083, 2.613e-6
-1.084, 2.610e-6
-1.085, 2.632e-6
-1.086, 2.648e-6
-1.087, 2.646e-6
-1.088, 2.653e-6
-1.089, 2.664e-6
-1.090, 2.653e-6
-1.091, 2.660e-6
-1.092, 2.704e-6
-1.093, 2.710e-6
-1.094, 2.717e-6
-1.095, 2.761e-6
-1.096, 2.763e-6
-1.097, 2.745e-6
-1.098, 2.770e-6
-1.099, 2.751e-6
-1.100, 2.817e-6
-1.101, 2.787e-6
-1.102, 2.787e-6
-1.103, 2.810e-6
-1.104, 2.805e-6
-1.105, 2.861e-6
-1.106, 2.831e-6
-1.107, 2.840e-6
-1.108, 2.863e-6
-1.109, 2.877e-6
-1.110, 2.840e-6
-1.111, 2.922e-6
-1.112, 2.915e-6
-1.113, 2.936e-6
-1.114, 2.959e-6
-1.115, 2.950e-6
-1.116, 2.944e-6
-1.117, 2.957e-6
-1.118, 2.978e-6
-1.119, 2.966e-6
-1.120, 2.988e-6
-1.121, 3.006e-6
-1.122, 3.015e-6
-1.123, 3.040e-6
-1.124, 3.023e-6
-1.125, 3.049e-6
-1.126, 3.038e-6
-1.127, 3.080e-6
-1.128, 3.114e-6
-1.129, 3.105e-6
-1.130, 3.085e-6
-1.131, 3.129e-6
-1.132, 3.133e-6
-1.133, 3.128e-6
-1.134, 3.122e-6
-1.135, 3.158e-6
-1.136, 3.199e-6
-1.137, 3.188e-6
-1.138, 3.186e-6
-1.139, 3.223e-6
-1.140, 3.219e-6
-1.141, 3.254e-6
-1.142, 3.238e-6
-1.143, 3.246e-6
-1.144, 3.284e-6
-1.145, 3.262e-6
-1.146, 3.297e-6
-1.147, 3.301e-6
-1.148, 3.312e-6
-1.149, 3.333e-6
-1.150, 3.373e-6
-1.151, 3.398e-6
-1.152, 3.359e-6
-1.153, 3.379e-6
-1.154, 3.418e-6
-1.155, 3.459e-6
-1.156, 3.457e-6
-1.157, 3.454e-6
-1.158, 3.476e-6
-1.159, 3.525e-6
-1.160, 3.527e-6
-1.161, 3.500e-6
-1.162, 3.511e-6
-1.163, 3.540e-6
-1.164, 3.588e-6
-1.165, 3.610e-6
-1.166, 3.616e-6
-1.167, 3.615e-6
-1.168, 3.640e-6
-1.169, 3.668e-6
-1.170, 3.679e-6
-1.171, 3.654e-6
-1.172, 3.718e-6
-1.173, 3.750e-6
-1.174, 3.744e-6
-1.175, 3.736e-6
-1.176, 3.768e-6
-1.177, 3.786e-6
-1.178, 3.831e-6
-1.179, 3.830e-6
-1.180, 3.826e-6
-1.181, 3.863e-6
-1.182, 3.899e-6
-1.183, 3.901e-6
-1.184, 3.900e-6
-1.185, 3.925e-6
-1.186, 3.918e-6
-1.187, 3.963e-6
-1.188, 3.965e-6
-1.189, 3.961e-6
-1.190, 3.980e-6
-1.191, 4.017e-6
-1.192, 4.010e-6
-1.193, 4.015e-6
-1.194, 4.068e-6
-1.195, 4.058e-6
-1.196, 4.123e-6
-1.197, 4.133e-6
-1.198, 4.122e-6
-1.199, 4.146e-6
-1.200, 4.165e-6
-1.201, 4.209e-6
-1.202, 4.156e-6
-1.203, 4.217e-6
-1.204, 4.215e-6
-1.205, 4.219e-6
-1.206, 4.249e-6
-1.207, 4.266e-6
-1.208, 4.274e-6
-1.209, 4.272e-6
-1.210, 4.309e-6
-1.211, 4.339e-6
-1.212, 4.352e-6
-1.213, 4.384e-6
-1.214, 4.386e-6
-1.215, 4.446e-6
-1.216, 4.468e-6
-1.217, 4.455e-6
-1.218, 4.477e-6
-1.219, 4.517e-6
-1.220, 4.517e-6
-1.221, 4.571e-6
-1.222, 4.587e-6
-1.223, 4.661e-6
-1.224, 4.672e-6
-1.225, 4.665e-6
-1.226, 4.723e-6
-1.227, 4.720e-6
-1.228, 4.780e-6
-1.229, 4.820e-6
-1.230, 4.800e-6
-1.231, 4.824e-6
-1.232, 4.855e-6
-1.233, 4.906e-6
-1.234, 4.952e-6
-1.235, 4.952e-6
-1.236, 4.985e-6
-1.237, 5.014e-6
-1.238, 5.080e-6
-1.239, 5.066e-6
-1.240, 5.107e-6
-1.241, 5.133e-6
-1.242, 5.188e-6
-1.243, 5.254e-6
-1.244, 5.273e-6
-1.245, 5.302e-6
-1.246, 5.357e-6
-1.247, 5.424e-6
-1.248, 5.469e-6
-1.249, 5.471e-6
-1.250, 5.491e-6
-1.251, 5.570e-6
-1.252, 5.607e-6
-1.253, 5.616e-6
-1.254, 5.647e-6
-1.255, 5.697e-6
-1.256, 5.736e-6
-1.257, 5.799e-6
-1.258, 5.862e-6
-1.259, 5.990e-6
-1.260, 5.931e-6
-1.261, 6.005e-6
-1.262, 6.105e-6
-1.263, 6.164e-6
-1.264, 6.165e-6
-1.265, 6.197e-6
-1.266, 6.243e-6
-1.267, 6.375e-6
-1.268, 6.414e-6
-1.269, 6.446e-6
-1.270, 6.496e-6
-1.271, 6.526e-6
-1.272, 6.557e-6
-1.273, 6.597e-6
-1.274, 6.584e-6
-1.275, 6.635e-6
-1.276, 6.686e-6
-1.277, 6.699e-6
-1.278, 6.740e-6
-1.279, 6.756e-6
-1.280, 6.793e-6
-1.281, 6.855e-6
-1.282, 6.875e-6
-1.283, 6.902e-6
-1.284, 6.898e-6
-1.285, 6.967e-6
-1.286, 6.953e-6
-1.287, 6.958e-6
-1.288, 6.965e-6
-1.289, 6.990e-6
-1.290, 6.933e-6
-1.291, 6.877e-6
-1.292, 6.876e-6
-1.293, 6.861e-6
-1.294, 6.887e-6
-1.295, 6.915e-6
-1.296, 6.895e-6
-1.297, 6.943e-6
-1.298, 7.031e-6
-1.299, 7.019e-6
-1.300, 7.020e-6
-1.301, 7.048e-6
-1.302, 7.110e-6
-1.303, 7.091e-6
-1.304, 7.106e-6
-1.305, 7.123e-6
-1.306, 7.143e-6
-1.307, 7.165e-6
-1.308, 7.206e-6
-1.309, 7.214e-6
-1.310, 7.225e-6
-1.311, 7.233e-6
-1.312, 7.286e-6
-1.313, 7.277e-6
-1.314, 7.260e-6
-1.315, 7.312e-6
-1.316, 7.292e-6
-1.317, 7.327e-6
-1.318, 7.333e-6
-1.319, 7.311e-6
-1.320, 7.313e-6
-1.321, 7.313e-6
-1.322, 7.390e-6
-1.323, 7.365e-6
-1.324, 7.328e-6
-1.325, 7.368e-6
-1.326, 7.353e-6
-1.327, 7.400e-6
-1.328, 7.382e-6
-1.329, 7.356e-6
-1.330, 7.389e-6
-1.331, 7.434e-6
-1.332, 7.413e-6
-1.333, 7.405e-6
-1.334, 7.423e-6
-1.335, 7.447e-6
-1.336, 7.498e-6
-1.337, 7.541e-6
-1.338, 7.707e-6
-1.339, 7.807e-6
-1.340, 7.792e-6
-1.341, 7.841e-6
-1.342, 7.829e-6
-1.343, 7.828e-6
-1.344, 7.798e-6
-1.345, 7.815e-6
-1.346, 7.780e-6
-1.347, 7.801e-6
-1.348, 7.743e-6
-1.349, 7.793e-6
-1.350, 7.757e-6
-1.351, 7.784e-6
-1.352, 7.859e-6
-1.353, 7.919e-6
-1.354, 7.867e-6
-1.355, 7.871e-6
-1.356, 7.883e-6
-1.357, 7.922e-6
-1.358, 7.994e-6
-1.359, 8.031e-6
-1.360, 8.034e-6
-1.361, 8.058e-6
-1.362, 8.096e-6
-1.363, 8.164e-6
-1.364, 8.360e-6
-1.365, 8.388e-6
-1.366, 8.404e-6
-1.367, 8.436e-6
-1.368, 8.442e-6
-1.369, 8.486e-6
-1.370, 8.497e-6
-1.371, 8.533e-6
-1.372, 8.576e-6
-1.373, 8.710e-6
-1.374, 8.788e-6
-1.375, 8.869e-6
-1.376, 8.838e-6
-1.377, 8.786e-6
-1.378, 8.813e-6
-1.379, 8.826e-6
-1.380, 8.917e-6
-1.381, 8.870e-6
-1.382, 8.884e-6
-1.383, 8.925e-6
-1.384, 8.999e-6
-1.385, 9.160e-6
-1.386, 9.268e-6
-1.387, 9.394e-6
-1.388, 9.620e-6
-1.389, 9.558e-6
-1.390, 9.486e-6
-1.391, 9.407e-6
-1.392, 9.383e-6
-1.393, 9.461e-6
-1.394, 9.494e-6
-1.395, 9.533e-6
-1.396, 9.576e-6
-1.397, 9.569e-6
-1.398, 9.613e-6
-1.399, 9.618e-6
-1.400, 9.588e-6
-1.401, 9.654e-6
-1.402, 9.706e-6
-1.403, 9.778e-6
-1.404, 9.802e-6
-1.405, 9.800e-6
-1.406, 9.731e-6
-1.407, 9.742e-6
-1.408, 9.749e-6
-1.409, 9.818e-6
-1.410, 9.801e-6
-1.411, 9.799e-6
-1.412, 9.892e-6
-1.413, 9.920e-6
-1.414, 9.891e-6
-1.415, 9.894e-6
-1.416, 9.965e-6
-1.417, 9.950e-6
-1.418, 9.957e-6
-1.419, 9.934e-6
-1.420, 9.994e-6
-1.421, 1.003e-5
-1.422, 1.003e-5
-1.423, 1.004e-5
-1.424, 1.008e-5
-1.425, 1.010e-5
-1.426, 1.015e-5
-1.427, 1.011e-5
-1.428, 1.013e-5
-1.429, 1.020e-5
-1.430, 1.024e-5
-1.431, 1.028e-5
-1.432, 1.029e-5
-1.433, 1.037e-5
-1.434, 1.045e-5
-1.435, 1.055e-5
-1.436, 1.074e-5
-1.437, 1.077e-5
-1.438, 1.082e-5
-1.439, 1.085e-5
-1.440, 1.086e-5
-1.441, 1.084e-5
-1.442, 1.090e-5
-1.443, 1.094e-5
-1.444, 1.093e-5
-1.445, 1.106e-5
-1.446, 1.118e-5
-1.447, 1.121e-5
-1.448, 1.131e-5
-1.449, 1.141e-5
-1.450, 1.143e-5
-1.451, 1.148e-5
-1.452, 1.148e-5
-1.453, 1.155e-5
-1.454, 1.160e-5
-1.455, 1.169e-5
-1.456, 1.171e-5
-1.457, 1.173e-5
-1.458, 1.188e-5
-1.459, 1.190e-5
-1.460, 1.195e-5
-1.461, 1.202e-5
-1.462, 1.203e-5
-1.463, 1.210e-5
-1.464, 1.211e-5
-1.465, 1.219e-5
-1.466, 1.224e-5
-1.467, 1.230e-5
-1.468, 1.240e-5
-1.469, 1.245e-5
-1.470, 1.255e-5
-1.471, 1.266e-5
-1.472, 1.270e-5
-1.473, 1.283e-5
-1.474, 1.289e-5
-1.475, 1.294e-5
-1.476, 1.305e-5
-1.477, 1.307e-5
-1.478, 1.322e-5
-1.479, 1.323e-5
-1.480, 1.334e-5
-1.481, 1.336e-5
-1.482, 1.342e-5
-1.483, 1.363e-5
-1.484, 1.376e-5
-1.485, 1.379e-5
-1.486, 1.391e-5
-1.487, 1.392e-5
-1.488, 1.398e-5
-1.489, 1.416e-5
-1.490, 1.424e-5
-1.491, 1.437e-5
-1.492, 1.440e-5
-1.493, 1.464e-5
-1.494, 1.478e-5
-1.495, 1.488e-5
-1.496, 1.503e-5
-1.497, 1.512e-5
-1.498, 1.525e-5
-1.499, 1.535e-5
-1.500, 1.545e-5
-1.501, 1.564e-5
-1.502, 1.580e-5
-1.503, 1.596e-5
-1.504, 1.612e-5
-1.505, 1.629e-5
-1.506, 1.660e-5
-1.507, 1.674e-5
-1.508, 1.699e-5
-1.509, 1.712e-5
-1.510, 1.736e-5
-1.511, 1.759e-5
-1.512, 1.781e-5
-1.513, 1.804e-5
-1.514, 1.830e-5
-1.515, 1.850e-5
-1.516, 1.868e-5
-1.517, 1.897e-5
-1.518, 1.927e-5
-1.519, 1.960e-5
-1.520, 1.993e-5
-1.521, 2.022e-5
-1.522, 2.050e-5
-1.523, 2.082e-5
-1.524, 2.118e-5
-1.525, 2.142e-5
-1.526, 2.171e-5
-1.527, 2.210e-5
-1.528, 2.241e-5
-1.529, 2.289e-5
-1.530, 2.326e-5
-1.531, 2.362e-5
-1.532, 2.406e-5
-1.533, 2.448e-5
-1.534, 2.487e-5
-1.535, 2.528e-5
-1.536, 2.578e-5
-1.537, 2.623e-5
-1.538, 2.670e-5
-1.539, 2.728e-5
-1.540, 2.776e-5
-1.541, 2.838e-5
-1.542, 2.881e-5
-1.543, 2.930e-5
-1.544, 2.984e-5
-1.545, 3.038e-5
-1.546, 3.105e-5
-1.547, 3.168e-5
-1.548, 3.231e-5
-1.549, 3.312e-5
-1.550, 3.381e-5
-1.551, 3.462e-5
-1.552, 3.537e-5
-1.553, 3.616e-5
-1.554, 3.711e-5
-1.555, 3.793e-5
-1.556, 3.874e-5
-1.557, 3.966e-5
-1.558, 4.063e-5
-1.559, 4.159e-5
-1.560, 4.254e-5
-1.561, 4.368e-5
-1.562, 4.481e-5
-1.563, 4.603e-5
-1.564, 4.731e-5
-1.565, 4.861e-5
-1.566, 5.016e-5
-1.567, 5.173e-5
-1.568, 5.293e-5
-1.569, 5.432e-5
-1.570, 5.592e-5
-1.571, 5.807e-5
-1.572, 5.951e-5
-1.573, 6.093e-5
-1.574, 6.261e-5
-1.575, 6.447e-5
-1.576, 6.629e-5
-1.577, 6.843e-5
-1.578, 7.052e-5
-1.579, 7.285e-5
-1.580, 7.520e-5
-1.581, 7.745e-5
-1.582, 7.980e-5
-1.583, 8.222e-5
-1.584, 8.494e-5
-1.585, 8.772e-5
-1.586, 9.036e-5
-1.587, 9.356e-5
-1.588, 9.642e-5
-1.589, 9.973e-5
-1.590, 1.028e-4
-1.591, 1.060e-4
-1.592, 1.096e-4
-1.593, 1.132e-4
-1.594, 1.169e-4
-1.595, 1.208e-4
-1.596, 1.249e-4
-1.597, 1.294e-4
-1.598, 1.339e-4
-1.599, 1.388e-4
-1.600, 1.408e-4
-1.599, 1.400e-4
-1.598, 1.390e-4
-1.597, 1.378e-4
-1.596, 1.363e-4
-1.595, 1.345e-4
-1.594, 1.326e-4
-1.593, 1.307e-4
-1.592, 1.287e-4
-1.591, 1.268e-4
-1.590, 1.249e-4
-1.589, 1.228e-4
-1.588, 1.207e-4
-1.587, 1.185e-4
-1.586, 1.163e-4
-1.585, 1.142e-4
-1.584, 1.120e-4
-1.583, 1.100e-4
-1.582, 1.080e-4
-1.581, 1.059e-4
-1.580, 1.040e-4
-1.579, 1.019e-4
-1.578, 9.982e-5
-1.577, 9.787e-5
-1.576, 9.586e-5
-1.575, 9.400e-5
-1.574, 9.207e-5
-1.573, 9.022e-5
-1.572, 8.839e-5
-1.571, 8.658e-5
-1.570, 8.479e-5
-1.569, 8.305e-5
-1.568, 8.129e-5
-1.567, 7.955e-5
-1.566, 7.788e-5
-1.565, 7.634e-5
-1.564, 7.484e-5
-1.563, 7.321e-5
-1.562, 7.171e-5
-1.561, 7.022e-5
-1.560, 6.878e-5
-1.559, 6.732e-5
-1.558, 6.605e-5
-1.557, 6.483e-5
-1.556, 6.351e-5
-1.555, 6.218e-5
-1.554, 6.077e-5
-1.553, 5.953e-5
-1.552, 5.825e-5
-1.551, 5.696e-5
-1.550, 5.575e-5
-1.549, 5.459e-5
-1.548, 5.343e-5
-1.547, 5.230e-5
-1.546, 5.114e-5
-1.545, 5.003e-5
-1.544, 4.897e-5
-1.543, 4.805e-5
-1.542, 4.709e-5
-1.541, 4.614e-5
-1.540, 4.520e-5
-1.539, 4.430e-5
-1.538, 4.342e-5
-1.537, 4.254e-5
-1.536, 4.163e-5
-1.535, 4.085e-5
-1.534, 4.003e-5
-1.533, 3.928e-5
-1.532, 3.856e-5
-1.531, 3.781e-5
-1.530, 3.710e-5
-1.529, 3.638e-5
-1.528, 3.574e-5
-1.527, 3.505e-5
-1.526, 3.434e-5
-1.525, 3.370e-5
-1.524, 3.301e-5
-1.523, 3.245e-5
-1.522, 3.186e-5
-1.521, 3.129e-5
-1.520, 3.072e-5
-1.519, 3.014e-5
-1.518, 2.960e-5
-1.517, 2.907e-5
-1.516, 2.853e-5
-1.515, 2.803e-5
-1.514, 2.750e-5
-1.513, 2.700e-5
-1.512, 2.653e-5
-1.511, 2.599e-5
-1.510, 2.553e-5
-1.509, 2.510e-5
-1.508, 2.464e-5
-1.507, 2.420e-5
-1.506, 2.371e-5
-1.505, 2.329e-5
-1.504, 2.294e-5
-1.503, 2.252e-5
-1.502, 2.214e-5
-1.501, 2.172e-5
-1.500, 2.136e-5
-1.499, 2.096e-5
-1.498, 2.060e-5
-1.497, 2.027e-5
-1.496, 1.995e-5
-1.495, 1.962e-5
-1.494, 1.923e-5
-1.493, 1.893e-5
-1.492, 1.862e-5
-1.491, 1.827e-5
-1.490, 1.798e-5
-1.489, 1.766e-5
-1.488, 1.738e-5
-1.487, 1.708e-5
-1.486, 1.681e-5
-1.485, 1.656e-5
-1.484, 1.626e-5
-1.483, 1.601e-5
-1.482, 1.578e-5
-1.481, 1.551e-5
-1.480, 1.529e-5
-1.479, 1.498e-5
-1.478, 1.475e-5
-1.477, 1.453e-5
-1.476, 1.424e-5
-1.475, 1.402e-5
-1.474, 1.379e-5
-1.473, 1.362e-5
-1.472, 1.336e-5
-1.471, 1.316e-5
-1.470, 1.301e-5
-1.469, 1.278e-5
-1.468, 1.262e-5
-1.467, 1.241e-5
-1.466, 1.219e-5
-1.465, 1.199e-5
-1.464, 1.183e-5
-1.463, 1.167e-5
-1.462, 1.141e-5
-1.461, 1.119e-5
-1.460, 1.103e-5
-1.459, 1.086e-5
-1.458, 1.071e-5
-1.457, 1.054e-5
-1.456, 1.032e-5
-1.455, 1.025e-5
-1.454, 1.007e-5
-1.453, 9.940e-6
-1.452, 9.782e-6
-1.451, 9.633e-6
-1.450, 9.483e-6
-1.449, 9.346e-6
-1.448, 9.248e-6
-1.447, 9.101e-6
-1.446, 8.939e-6
-1.445, 8.769e-6
-1.444, 8.662e-6
-1.443, 8.550e-6
-1.442, 8.397e-6
-1.441, 8.282e-6
-1.440, 8.162e-6
-1.439, 8.029e-6
-1.438, 7.950e-6
-1.437, 7.810e-6
-1.436, 7.672e-6
-1.435, 7.568e-6
-1.434, 7.459e-6
-1.433, 7.371e-6
-1.432, 7.274e-6
-1.431, 7.085e-6
-1.430, 6.991e-6
-1.429, 6.902e-6
-1.428, 6.867e-6
-1.427, 6.768e-6
-1.426, 6.618e-6
-1.425, 6.532e-6
-1.424, 6.438e-6
-1.423, 6.345e-6
-1.422, 6.278e-6
-1.421, 6.186e-6
-1.420, 6.103e-6
-1.419, 6.022e-6
-1.418, 5.893e-6
-1.417, 5.845e-6
-1.416, 5.741e-6
-1.415, 5.651e-6
-1.414, 5.586e-6
-1.413, 5.557e-6
-1.412, 5.438e-6
-1.411, 5.343e-6
-1.410, 5.271e-6
-1.409, 5.169e-6
-1.408, 5.102e-6
-1.407, 5.047e-6
-1.406, 4.966e-6
-1.405, 4.902e-6
-1.404, 4.829e-6
-1.403, 4.766e-6
-1.402, 4.684e-6
-1.401, 4.653e-6
-1.400, 4.579e-6
-1.399, 4.495e-6
-1.398, 4.472e-6
-1.397, 4.417e-6
-1.396, 4.304e-6
-1.395, 4.267e-6
-1.394, 4.192e-6
-1.393, 4.124e-6
-1.392, 4.084e-6
-1.391, 4.011e-6
-1.390, 3.991e-6
-1.389, 3.917e-6
-1.388, 3.875e-6
-1.387, 3.806e-6
-1.386, 3.783e-6
-1.385, 3.705e-6
-1.384, 3.668e-6
-1.383, 3.605e-6
-1.382, 3.558e-6
-1.381, 3.512e-6
-1.380, 3.477e-6
-1.379, 3.426e-6
-1.378, 3.395e-6
-1.377, 3.342e-6
-1.376, 3.291e-6
-1.375, 3.247e-6
-1.374, 3.184e-6
-1.373, 3.162e-6
-1.372, 3.103e-6
-1.371, 3.057e-6
-1.370, 3.059e-6
-1.369, 3.002e-6
-1.368, 2.956e-6
-1.367, 2.919e-6
-1.366, 2.899e-6
-1.365, 2.864e-6
-1.364, 2.876e-6
-1.363, 2.806e-6
-1.362, 2.747e-6
-1.361, 2.734e-6
-1.360, 2.692e-6
-1.359, 2.657e-6
-1.358, 2.609e-6
-1.357, 2.566e-6
-1.356, 2.555e-6
-1.355, 2.502e-6
-1.354, 2.519e-6
-1.353, 2.418e-6
-1.352, 2.421e-6
-1.351, 2.400e-6
-1.350, 2.352e-6
-1.349, 2.341e-6
-1.348, 2.346e-6
-1.347, 2.296e-6
-1.346, 2.210e-6
-1.345, 2.254e-6
-1.344, 2.175e-6
-1.343, 2.189e-6
-1.342, 2.187e-6
-1.341, 2.107e-6
-1.340, 2.092e-6
-1.339, 2.088e-6
-1.338, 2.051e-6
-1.337, 2.038e-6
-1.336, 1.993e-6
-1.335, 1.956e-6
-1.334, 1.993e-6
-1.333, 1.996e-6
-1.332, 1.948e-6
-1.331, 1.911e-6
-1.330, 1.866e-6
-1.329, 1.844e-6
-1.328, 1.871e-6
-1.327, 1.842e-6
-1.326, 1.790e-6
-1.325, 1.781e-6
-1.324, 1.750e-6
-1.323, 1.746e-6
-1.322, 1.759e-6
-1.321, 1.718e-6
-1.320, 1.705e-6
-1.319, 1.661e-6
-1.318, 1.642e-6
-1.317, 1.660e-6
-1.316, 1.610e-6
-1.315, 1.620e-6
-1.314, 1.595e-6
-1.313, 1.569e-6
-1.312, 1.568e-6
-1.311, 1.527e-6
-1.310, 1.540e-6
-1.309, 1.506e-6
-1.308, 1.474e-6
-1.307, 1.504e-6
-1.306, 1.452e-6
-1.305, 1.460e-6
-1.304, 1.419e-6
-1.303, 1.411e-6
-1.302, 1.379e-6
-1.301, 1.403e-6
-1.300, 1.375e-6
-1.299, 1.348e-6
-1.298, 1.315e-6
-1.297, 1.311e-6
-1.296, 1.344e-6
-1.295, 1.298e-6
-1.294, 1.289e-6
-1.293, 1.301e-6
-1.292, 1.263e-6
-1.291, 1.249e-6
-1.290, 1.269e-6
-1.289, 1.231e-6
-1.288, 1.232e-6
-1.287, 1.216e-6
-1.286, 1.171e-6
-1.285, 1.188e-6
-1.284, 1.169e-6
-1.283, 1.166e-6
-1.282, 1.126e-6
-1.281, 1.126e-6
-1.280, 1.115e-6
-1.279, 1.138e-6
-1.278, 1.094e-6
-1.277, 1.112e-6
-1.276, 1.085e-6
-1.275, 1.059e-6
-1.274, 1.067e-6
-1.273, 1.055e-6
-1.272, 1.038e-6
-1.271, 1.016e-6
-1.270, 1.005e-6
-1.269, 1.022e-6
-1.268, 1.025e-6
-1.267, 9.844e-7
-1.266, 9.894e-7
-1.265, 9.686e-7
-1.264, 9.657e-7
-1.263, 9.677e-7
-1.262, 9.479e-7
-1.261, 9.213e-7
-1.260, 9.519e-7
-1.259, 9.144e-7
-1.258, 9.183e-7
-1.257, 8.996e-7
-1.256, 8.739e-7
-1.255, 8.828e-7
-1.254, 8.848e-7
-1.253, 8.976e-7
-1.252, 8.897e-7
-1.251, 8.591e-7
-1.250, 8.552e-7
-1.249, 8.345e-7
-1.248, 8.463e-7
-1.247, 8.384e-7
-1.246, 8.345e-7
-1.245, 7.911e-7
-1.244, 8.216e-7
-1.243, 8.059e-7
-1.242, 7.920e-7
-1.241, 7.901e-7
-1.240, 7.782e-7
-1.239, 7.772e-7
-1.238, 7.703e-7
-1.237, 7.624e-7
-1.236, 7.496e-7
-1.235, 7.506e-7
-1.234, 7.467e-7
-1.233, 7.338e-7
-1.232, 7.250e-7
-1.231, 7.190e-7
-1.230, 7.062e-7
-1.229, 6.727e-7
-1.228, 6.904e-7
-1.227, 6.806e-7
-1.226, 6.598e-7
-1.225, 6.914e-7
-1.224, 6.727e-7
-1.223, 6.569e-7
-1.222, 6.401e-7
-1.221, 6.559e-7
-1.220, 6.440e-7
-1.219, 6.332e-7
-1.218, 6.075e-7
-1.217, 6.204e-7
-1.216, 6.293e-7
-1.215, 6.026e-7
-1.214, 6.243e-7
-1.213, 5.927e-7
-1.212, 6.016e-7
-1.211, 5.947e-7
-1.210, 5.908e-7
-1.209, 5.908e-7
-1.208, 5.819e-7
-1.207, 5.474e-7
-1.206, 5.365e-7
-1.205, 5.395e-7
-1.204, 5.513e-7
-1.203, 5.562e-7
-1.202, 5.257e-7
-1.201, 5.247e-7
-1.200, 5.059e-7
-1.199, 5.247e-7
-1.198, 5.168e-7
-1.197, 5.030e-7
-1.196, 4.714e-7
-1.195, 4.931e-7
-1.194, 4.793e-7
-1.193, 4.921e-7
-1.192, 4.911e-7
-1.191, 4.842e-7
-1.190, 4.586e-7
-1.189, 4.734e-7
-1.188, 4.852e-7
-1.187, 4.566e-7
-1.186, 4.240e-7
-1.185, 4.408e-7
-1.184, 4.566e-7
-1.183, 4.270e-7
-1.182, 4.477e-7
-1.181, 4.428e-7
-1.180, 4.260e-7
-1.179, 4.418e-7
-1.178, 4.309e-7
-1.177, 4.448e-7
-1.176, 4.339e-7
-1.175, 4.112e-7
-1.174, 3.954e-7
-1.173, 3.944e-7
-1.172, 4.092e-7
-1.171, 3.668e-7
-1.170, 3.727e-7
-1.169, 3.589e-7
-1.168, 3.688e-7
-1.167, 3.629e-7
-1.166, 3.629e-7
-1.165, 3.402e-7
-1.164, 3.451e-7
-1.163, 3.264e-7
-1.162, 3.195e-7
-1.161, 3.234e-7
-1.160, 3.510e-7
-1.159, 3.185e-7
-1.158, 2.948e-7
-1.157, 3.047e-7
-1.156, 3.204e-7
-1.155, 3.234e-7
-1.154, 2.879e-7
-1.153, 2.820e-7
-1.152, 2.849e-7
-1.151, 2.908e-7
-1.150, 2.760e-7
-1.149, 2.613e-7
-1.148, 2.859e-7
-1.147, 2.632e-7
-1.146, 2.425e-7
-1.145, 2.573e-7
-1.144, 2.553e-7
-1.143, 2.346e-7
-1.142, 2.435e-7
-1.141, 2.139e-7
-1.140, 2.238e-7
-1.139, 2.040e-7
-1.138, 1.991e-7
-1.137, 1.912e-7
-1.136, 1.764e-7
-1.135, 1.646e-7
-1.134, 1.902e-7
-1.133, 1.636e-7
-1.132, 1.912e-7
-1.131, 1.182e-7
-1.130, 1.340e-7
-1.129, 1.557e-7
-1.128, 1.419e-7
-1.127, 1.192e-7
-1.126, 1.192e-7
-1.125, 1.142e-7
-1.124, 1.251e-7
-1.123, 1.369e-7
-1.122, 1.093e-7
-1.121, 6.886e-8
-1.120, 8.070e-8
-1.119, 9.846e-8
-1.118, 8.958e-8
-1.117, 8.366e-8
-1.116, 4.716e-8
-1.115, 8.860e-8
-1.114, 7.774e-8
-1.113, 7.380e-8
-1.112, 6.689e-8
-1.111, 5.998e-8
-1.110, 5.900e-8
-1.109, 3.927e-8
-1.108, 1.460e-8
-1.107, 2.940e-8
-1.106, 3.039e-8
-1.105, -1.006e-8
-1.104, -7.103e-9
-1.103, -2.684e-8
-1.102, -3.769e-8
-1.101, -2.881e-8
-1.100, -3.177e-8
-1.099, -5.841e-8
-1.098, -3.078e-8
-1.097, -5.545e-8
-1.096, -4.163e-8
-1.095, -8.504e-8
-1.094, -6.827e-8
-1.093, -6.630e-8
-1.092, -1.048e-7
-1.091, -8.307e-8
-1.090, -9.984e-8
-1.089, -1.206e-7
-1.088, -1.275e-7
-1.087, -1.393e-7
-1.086, -1.344e-7
-1.085, -1.225e-7
-1.084, -1.620e-7
-1.083, -1.581e-7
-1.082, -1.521e-7
-1.081, -1.659e-7
-1.080, -1.659e-7
-1.079, -1.837e-7
-1.078, -1.985e-7
-1.077, -2.064e-7
-1.076, -2.054e-7
-1.075, -2.015e-7
-1.074, -2.143e-7
-1.073, -2.636e-7
-1.072, -2.429e-7
-1.071, -2.399e-7
-1.070, -2.567e-7
-1.069, -2.794e-7
-1.068, -2.774e-7
-1.067, -2.814e-7
-1.066, -2.912e-7
-1.065, -2.972e-7
-1.064, -2.666e-7
-1.063, -3.139e-7
-1.062, -3.356e-7
-1.061, -3.504e-7
-1.060, -3.534e-7
-1.059, -3.524e-7
-1.058, -3.544e-7
-1.057, -3.731e-7
-1.056, -3.820e-7
-1.055, -3.514e-7
-1.054, -4.067e-7
-1.053, -4.116e-7
-1.052, -4.205e-7
-1.051, -4.471e-7
-1.050, -4.422e-7
-1.049, -4.373e-7
-1.048, -4.688e-7
-1.047, -4.540e-7
-1.046, -4.797e-7
-1.045, -4.817e-7
-1.044, -5.083e-7
-1.043, -5.162e-7
-1.042, -5.399e-7
-1.041, -5.576e-7
-1.040, -5.379e-7
-1.039, -5.685e-7
-1.038, -5.576e-7
-1.037, -5.823e-7
-1.036, -5.922e-7
-1.035, -6.306e-7
-1.034, -6.227e-7
-1.033, -6.395e-7
-1.032, -6.602e-7
-1.031, -6.612e-7
-1.030, -6.652e-7
-1.029, -6.780e-7
-1.028, -7.115e-7
-1.027, -7.342e-7
-1.026, -7.293e-7
-1.025, -7.352e-7
-1.024, -7.470e-7
-1.023, -8.023e-7
-1.022, -7.826e-7
-1.021, -8.122e-7
-1.020, -8.319e-7
-1.019, -8.210e-7
-1.018, -8.398e-7
-1.017, -8.575e-7
-1.016, -8.990e-7
-1.015, -8.970e-7
-1.014, -8.783e-7
-1.013, -9.079e-7
-1.012, -9.375e-7
-1.011, -9.759e-7
-1.010, -9.828e-7
-1.009, -9.750e-7
-1.008, -9.898e-7
-1.007, -1.026e-6
-1.006, -1.050e-6
-1.005, -1.043e-6
-1.004, -1.094e-6
-1.003, -1.107e-6
-1.002, -1.106e-6
-1.001, -1.137e-6
-1.000, -8.112e-7
-1.001, -5.004e-7
-1.002, -3.435e-7
-1.003, -2.064e-7
-1.004, -8.702e-8
-1.005, 4.223e-8
-1.006, 1.438e-7
-1.007, 2.287e-7
-1.008, 3.135e-7
-1.009, 3.885e-7
-1.010, 4.832e-7
-1.011, 5.651e-7
-1.012, 5.908e-7
-1.013, 6.618e-7
-1.014, 7.190e-7
-1.015, 7.782e-7
-1.016, 8.463e-7
-1.017, 8.749e-7
-1.018, 9.163e-7
-1.019, 9.598e-7
-1.020, 9.992e-7
-1.021, 1.048e-6
-1.022, 1.079e-6
-1.023, 1.132e-6
-1.024, 1.186e-6
-1.025, 1.207e-6
-1.026, 1.241e-6
-1.027, 1.297e-6
-1.028, 1.300e-6
-1.029, 1.318e-6
-1.030, 1.371e-6
-1.031, 1.388e-6
-1.032, 1.447e-6
-1.033, 1.449e-6
-1.034, 1.435e-6
-1.035, 1.475e-6
-1.036, 1.527e-6
-1.037, 1.542e-6
-1.038, 1.573e-6
-1.039, 1.561e-6
-1.040, 1.576e-6
-1.041, 1.612e-6
-1.042, 1.648e-6
-1.043, 1.671e-6
-1.044, 1.677e-6
-1.045, 1.706e-6
-1.046, 1.723e-6
-1.047, 1.769e-6
-1.048, 1.784e-6
-1.049, 1.778e-6
-1.050, 1.800e-6
-1.051, 1.807e-6
-1.052, 1.840e-6
-1.053, 1.848e-6
-1.054, 1.879e-6
-1.055, 1.904e-6
-1.056, 1.882e-6
-1.057, 1.909e-6
-1.058, 1.928e-6
-1.059, 1.938e-6
-1.060, 1.956e-6
-1.061, 1.956e-6
-1.062, 1.946e-6
-1.063, 2.003e-6
-1.064, 2.017e-6
-1.065, 2.035e-6
-1.066, 2.035e-6
-1.067, 2.043e-6
-1.068, 2.044e-6
-1.069, 2.067e-6
-1.070, 2.097e-6
-1.071, 2.108e-6
-1.072, 2.088e-6
-1.073, 2.118e-6
-1.074, 2.131e-6
-1.075, 2.142e-6
-1.076, 2.173e-6
-1.077, 2.200e-6
-1.078, 2.199e-6
-1.079, 2.211e-6
-1.080, 2.229e-6
-1.081, 2.240e-6
-1.082, 2.244e-6
-1.083, 2.243e-6
-1.084, 2.250e-6
-1.085, 2.254e-6
-1.086, 2.271e-6
-1.087, 2.306e-6
-1.088, 2.292e-6
-1.089, 2.289e-6
-1.090, 2.329e-6
-1.091, 2.322e-6
-1.092, 2.365e-6
-1.093, 2.371e-6
-1.094, 2.350e-6
-1.095, 2.377e-6
-1.096, 2.395e-6
-1.097, 2.403e-6
-1.098, 2.436e-6
-1.099, 2.397e-6
-1.100, 2.400e-6
-1.101, 2.440e-6
-1.102, 2.440e-6
-1.103, 2.449e-6
-1.104, 2.476e-6
-1.105, 2.492e-6
-1.106, 2.480e-6
-1.107, 2.490e-6
-1.108, 2.514e-6
-1.109, 2.521e-6
-1.110, 2.500e-6
-1.111, 2.512e-6
-1.112, 2.505e-6
-1.113, 2.504e-6
-1.114, 2.541e-6
-1.115, 2.569e-6
-1.116, 2.537e-6
-1.117, 2.532e-6
-1.118, 2.558e-6
-1.119, 2.570e-6
-1.120, 2.576e-6
-1.121, 2.576e-6
-1.122, 2.576e-6
-1.123, 2.592e-6
-1.124, 2.608e-6
-1.125, 2.611e-6
-1.126, 2.621e-6
-1.127, 2.634e-6
-1.128, 2.606e-6
-1.129, 2.663e-6
-1.130, 2.698e-6
-1.131, 2.669e-6
-1.132, 2.657e-6
-1.133, 2.668e-6
-1.134, 2.704e-6
-1.135, 2.715e-6
-1.136, 2.703e-6
-1.137, 2.716e-6
-1.138, 2.669e-6
-1.139, 2.677e-6
-1.140, 2.761e-6
-1.141, 2.745e-6
-1.142, 2.759e-6
-1.143, 2.783e-6
-1.144, 2.754e-6
-1.145, 2.801e-6
-1.146, 2.783e-6
-1.147, 2.806e-6
-1.148, 2.809e-6
-1.149, 2.795e-6
-1.150, 2.809e-6
-1.151, 2.819e-6
-1.152, 2.826e-6
-1.153, 2.872e-6
-1.154, 2.818e-6
-1.155, 2.833e-6
-1.156, 2.853e-6
-1.157, 2.869e-6
-1.158, 2.882e-6
-1.159, 2.884e-6
-1.160, 2.874e-6
-1.161, 2.875e-6
-1.162, 2.914e-6
-1.163, 2.915e-6
-1.164, 2.939e-6
-1.165, 2.944e-6
-1.166, 2.936e-6
-1.167, 2.950e-6
-1.168, 2.972e-6
-1.169, 2.959e-6
-1.170, 2.969e-6
-1.171, 2.950e-6
-1.172, 2.969e-6
-1.173, 2.986e-6
-1.174, 2.989e-6
-1.175, 2.996e-6
-1.176, 2.985e-6
-1.177, 3.017e-6
-1.178, 3.030e-6
-1.179, 3.020e-6
-1.180, 3.063e-6
-1.181, 3.036e-6
-1.182, 3.047e-6
-1.183, 3.040e-6
-1.184, 3.073e-6
-1.185, 3.100e-6
-1.186, 3.106e-6
-1.187, 3.091e-6
-1.188, 3.061e-6
-1.189, 3.093e-6
-1.190, 3.095e-6
-1.191, 3.126e-6
-1.192, 3.137e-6
-1.193, 3.117e-6
-1.194, 3.148e-6
-1.195, 3.146e-6
-1.196, 3.157e-6
-1.197, 3.173e-6
-1.198, 3.151e-6
-1.199, 3.149e-6
-1.200, 3.199e-6
-1.201, 3.200e-6
-1.202, 3.209e-6
-1.203, 3.216e-6
-1.204, 3.208e-6
-1.205, 3.201e-6
-1.206, 3.212e-6
-1.207, 3.249e-6
-1.208, 3.243e-6
-1.209, 3.228e-6
-1.210, 3.215e-6
-1.211, 3.243e-6
-1.212, 3.266e-6
-1.213, 3.274e-6
-1.214, 3.266e-6
-1.215, 3.280e-6
-1.216, 3.281e-6
-1.217, 3.317e-6
-1.218, 3.310e-6
-1.219, 3.298e-6
-1.220, 3.314e-6
-1.221, 3.329e-6
-1.222, 3.360e-6
-1.223, 3.329e-6
-1.224, 3.314e-6
-1.225, 3.354e-6
-1.226, 3.342e-6
-1.227, 3.387e-6
-1.228, 3.379e-6
-1.229, 3.370e-6
-1.230, 3.396e-6
-1.231, 3.397e-6
-1.232, 3.447e-6
-1.233, 3.449e-6
-1.234, 3.415e-6
-1.235, 3.456e-6
-1.236, 3.447e-6
-1.237, 3.479e-6
-1.238, 3.479e-6
-1.239, 3.475e-6
-1.240, 3.495e-6
-1.241, 3.514e-6
-1.242, 3.522e-6
-1.243, 3.546e-6
-1.244, 3.546e-6
-1.245, 3.551e-6
-1.246, 3.541e-6
-1.247, 3.596e-6
-1.248, 3.540e-6
-1.249, 3.590e-6
-1.250, 3.568e-6
-1.251, 3.577e-6
-1.252, 3.592e-6
-1.253, 3.615e-6
-1.254, 3.632e-6
-1.255, 3.649e-6
-1.256, 3.613e-6
-1.257, 3.618e-6
-1.258, 3.658e-6
-1.259, 3.679e-6
-1.260, 3.682e-6
-1.261, 3.683e-6
-1.262, 3.692e-6
-1.263, 3.694e-6
-1.264, 3.703e-6
-1.265, 3.713e-6
-1.266, 3.731e-6
-1.267, 3.730e-6
-1.268, 3.759e-6
-1.269, 3.752e-6
-1.270, 3.776e-6
-1.271, 3.776e-6
-1.272, 3.786e-6
-1.273, 3.783e-6
-1.274, 3.804e-6
-1.275, 3.820e-6
-1.276, 3.837e-6
-1.277, 3.805e-6
-1.278, 3.829e-6
-1.279, 3.837e-6
-1.280, 3.872e-6
-1.281, 3.879e-6
-1.282, 3.912e-6
-1.283, 3.895e-6
-1.284, 3.907e-6
-1.285, 3.922e-6
-1.286, 3.916e-6
-1.287, 3.942e-6
-1.288, 3.949e-6
-1.289, 3.929e-6
-1.290, 3.970e-6
-1.291, 3.958e-6
-1.292, 3.966e-6
-1.293, 4.019e-6
-1.294, 4.016e-6
-1.295, 4.043e-6
-1.296, 4.031e-6
-1.297, 4.026e-6
-1.298, 4.049e-6
-1.299, 4.063e-6
-1.300, 4.081e-6
-1.301, 4.082e-6
-1.302, 4.077e-6
-1.303, 4.082e-6
-1.304, 4.108e-6
-1.305, 4.132e-6
-1.306, 4.125e-6
-1.307, 4.102e-6
-1.308, 4.161e-6
-1.309, 4.190e-6
-1.310, 4.188e-6
-1.311, 4.184e-6
-1.312, 4.198e-6
-1.313, 4.202e-6
-1.314, 4.233e-6
-1.315, 4.276e-6
-1.316, 4.265e-6
-1.317, 4.292e-6
-1.318, 4.320e-6
-1.319, 4.308e-6
-1.320, 4.321e-6
-1.321, 4.336e-6
-1.322, 4.354e-6
-1.323, 4.353e-6
-1.324, 4.362e-6
-1.325, 4.358e-6
-1.326, 4.402e-6
-1.327, 4.406e-6
-1.328, 4.413e-6
-1.329, 4.422e-6
-1.330, 4.436e-6
-1.331, 4.477e-6
-1.332, 4.521e-6
-1.333, 4.476e-6
-1.334, 4.490e-6
-1.335, 4.529e-6
-1.336, 4.547e-6
-1.337, 4.590e-6
-1.338, 4.574e-6
-1.339, 4.584e-6
-1.340, 4.620e-6
-1.341, 4.649e-6
-1.342, 4.673e-6
-1.343, 4.700e-6
-1.344, 4.671e-6
-1.345, 4.711e-6
-1.346, 4.743e-6
-1.347, 4.733e-6
-1.348, 4.779e-6
-1.349, 4.765e-6
-1.350, 4.787e-6
-1.351, 4.817e-6
-1.352, 4.816e-6
-1.353, 4.835e-6
-1.354, 4.879e-6
-1.355, 4.911e-6
-1.356, 4.920e-6
-1.357, 4.955e-6
-1.358, 4.951e-6
-1.359, 5.011e-6
-1.360, 5.009e-6
-1.361, 5.027e-6
-1.362, 5.063e-6
-1.363, 5.040e-6
-1.364, 5.106e-6
-1.365, 5.151e-6
-1.366, 5.121e-6
-1.367, 5.183e-6
-1.368, 5.213e-6
-1.369, 5.278e-6
-1.370, 5.307e-6
-1.371, 5.290e-6
-1.372, 5.333e-6
-1.373, 5.351e-6
-1.374, 5.370e-6
-1.375, 5.386e-6
-1.376, 5.455e-6
-1.377, 5.444e-6
-1.378, 5.502e-6
-1.379, 5.497e-6
-1.380, 5.546e-6
-1.381, 5.576e-6
-1.382, 5.633e-6
-1.383, 5.644e-6
-1.384, 5.650e-6
-1.385, 5.668e-6
-1.386, 5.714e-6
-1.387, 5.760e-6
-1.388, 5.795e-6
-1.389, 5.809e-6
-1.390, 5.867e-6
-1.391, 5.882e-6
-1.392, 5.938e-6
-1.393, 5.964e-6
-1.394, 6.017e-6
-1.395, 6.079e-6
-1.396, 6.108e-6
-1.397, 6.154e-6
-1.398, 6.153e-6
-1.399, 6.176e-6
-1.400, 6.283e-6
-1.401, 6.297e-6
-1.402, 6.316e-6
-1.403, 6.352e-6
-1.404, 6.372e-6
-1.405, 6.452e-6
-1.406, 6.504e-6
-1.407, 6.566e-6
-1.408, 6.620e-6
-1.409, 6.664e-6
-1.410, 6.732e-6
-1.411, 6.765e-6
-1.412, 6.828e-6
-1.413, 6.859e-6
-1.414, 6.887e-6
-1.415, 6.970e-6
-1.416, 7.002e-6
-1.417, 7.043e-6
-1.418, 7.088e-6
-1.419, 7.140e-6
-1.420, 7.207e-6
-1.421, 7.280e-6
-1.422, 7.349e-6
-1.423, 7.424e-6
-1.424, 7.448e-6
-1.425, 7.519e-6
-1.426, 7.573e-6
-1.427, 7.660e-6
-1.428, 7.749e-6
-1.429, 7.809e-6
-1.430, 7.883e-6
-1.431, 7.941e-6
-1.432, 7.999e-6
-1.433, 8.114e-6
-1.434, 8.155e-6
-1.435, 8.246e-6
-1.436, 8.327e-6
-1.437, 8.341e-6
-1.438, 8.422e-6
-1.439, 8.507e-6
-1.440, 8.592e-6
-1.441, 8.696e-6
-1.442, 8.742e-6
-1.443, 8.864e-6
-1.444, 8.958e-6
-1.445, 9.053e-6
-1.446, 9.180e-6
-1.447, 9.261e-6
-1.448, 9.332e-6
-1.449, 9.432e-6
-1.450, 9.557e-6
-1.451, 9.638e-6
-1.452, 9.681e-6
-1.453, 9.785e-6
-1.454, 9.884e-6
-1.455, 9.959e-6
-1.456, 1.011e-5
-1.457, 1.016e-5
-1.458, 1.030e-5
-1.459, 1.037e-5
-1.460, 1.048e-5
-1.461, 1.062e-5
-1.462, 1.071e-5
-1.463, 1.087e-5
-1.464, 1.097e-5
-1.465, 1.109e-5
-1.466, 1.123e-5
-1.467, 1.136e-5
-1.468, 1.151e-5
-1.469, 1.161e-5
-1.470, 1.176e-5
-1.471, 1.190e-5
-1.472, 1.205e-5
-1.473, 1.224e-5
-1.474, 1.240e-5
-1.475, 1.252e-5
-1.476, 1.270e-5
-1.477, 1.282e-5
-1.478, 1.298e-5
-1.479, 1.315e-5
-1.480, 1.326e-5
-1.481, 1.348e-5
-1.482, 1.359e-5
-1.483, 1.379e-5
-1.484, 1.401e-5
-1.485, 1.421e-5
-1.486, 1.438e-5
-1.487, 1.456e-5
-1.488, 1.476e-5
-1.489, 1.512e-5
-1.490, 1.558e-5
-1.491, 1.575e-5
-1.492, 1.583e-5
-1.493, 1.612e-5
-1.494, 1.641e-5
-1.495, 1.666e-5
-1.496, 1.689e-5
-1.497, 1.708e-5
-1.498, 1.739e-5
-1.499, 1.756e-5
-1.500, 1.782e-5
-1.501, 1.808e-5
-1.502, 1.833e-5
-1.503, 1.860e-5
-1.504, 1.885e-5
-1.505, 1.914e-5
-1.506, 1.942e-5
-1.507, 1.973e-5
-1.508, 2.006e-5
-1.509, 2.034e-5
-1.510, 2.066e-5
-1.511, 2.105e-5
-1.512, 2.136e-5
-1.513, 2.173e-5
-1.514, 2.213e-5
-1.515, 2.250e-5
-1.516, 2.287e-5
-1.517, 2.324e-5
-1.518, 2.367e-5
-1.519, 2.403e-5
-1.520, 2.448e-5
-1.521, 2.492e-5
-1.522, 2.535e-5
-1.523, 2.579e-5
-1.524, 2.625e-5
-1.525, 2.675e-5
-1.526, 2.729e-5
-1.527, 2.781e-5
-1.528, 2.830e-5
-1.529, 2.884e-5
-1.530, 2.934e-5
-1.531, 2.997e-5
-1.532, 3.053e-5
-1.533, 3.118e-5
-1.534, 3.180e-5
-1.535, 3.242e-5
-1.536, 3.310e-5
-1.537, 3.380e-5
-1.538, 3.448e-5
-1.539, 3.519e-5
-1.540, 3.596e-5
-1.541, 3.677e-5
-1.542, 3.755e-5
-1.543, 3.851e-5
-1.544, 3.973e-5
-1.545, 4.054e-5
-1.546, 4.151e-5
-1.547, 4.252e-5
-1.548, 4.347e-5
-1.549, 4.445e-5
-1.550, 4.553e-5
-1.551, 4.668e-5
-1.552, 4.776e-5
-1.553, 4.895e-5
-1.554, 5.018e-5
-1.555, 5.148e-5
-1.556, 5.284e-5
-1.557, 5.415e-5
-1.558, 5.552e-5
-1.559, 5.695e-5
-1.560, 5.843e-5
-1.561, 6.007e-5
-1.562, 6.161e-5
-1.563, 6.316e-5
-1.564, 6.515e-5
-1.565, 6.691e-5
-1.566, 6.887e-5
-1.567, 7.083e-5
-1.568, 7.286e-5
-1.569, 7.491e-5
-1.570, 7.704e-5
-1.571, 7.932e-5
-1.572, 8.180e-5
-1.573, 8.418e-5
-1.574, 8.674e-5
-1.575, 8.937e-5
-1.576, 9.205e-5
-1.577, 9.486e-5
-1.578, 9.786e-5
-1.579, 1.008e-4
-1.580, 1.041e-4
-1.581, 1.075e-4
-1.582, 1.109e-4
-1.583, 1.146e-4
-1.584, 1.183e-4
-1.585, 1.221e-4
-1.586, 1.261e-4
-1.587, 1.303e-4
-1.588, 1.345e-4
-1.589, 1.389e-4
-1.590, 1.435e-4
-1.591, 1.483e-4
-1.592, 1.534e-4
-1.593, 1.586e-4
-1.594, 1.638e-4
-1.595, 1.695e-4
-1.596, 1.754e-4
-1.597, 1.812e-4
-1.598, 1.874e-4
-1.599, 1.938e-4
-1.600, 1.968e-4
-1.599, 1.956e-4
-1.598, 1.936e-4
-1.597, 1.916e-4
-1.596, 1.892e-4
-1.595, 1.867e-4
-1.594, 1.841e-4
-1.593, 1.813e-4
-1.592, 1.786e-4
-1.591, 1.756e-4
-1.590, 1.727e-4
-1.589, 1.697e-4
-1.588, 1.667e-4
-1.587, 1.636e-4
-1.586, 1.606e-4
-1.585, 1.574e-4
-1.584, 1.544e-4
-1.583, 1.515e-4
-1.582, 1.484e-4
-1.581, 1.454e-4
-1.580, 1.425e-4
-1.579, 1.397e-4
-1.578, 1.368e-4
-1.577, 1.341e-4
-1.576, 1.313e-4
-1.575, 1.286e-4
-1.574, 1.258e-4
-1.573, 1.233e-4
-1.572, 1.206e-4
-1.571, 1.180e-4
-1.570, 1.154e-4
-1.569, 1.129e-4
-1.568, 1.105e-4
-1.567, 1.081e-4
-1.566, 1.058e-4
-1.565, 1.036e-4
-1.564, 1.011e-4
-1.563, 9.882e-5
-1.562, 9.594e-5
-1.561, 9.376e-5
-1.560, 9.209e-5
-1.559, 8.993e-5
-1.558, 8.769e-5
-1.557, 8.574e-5
-1.556, 8.387e-5
-1.555, 8.197e-5
-1.554, 8.009e-5
-1.553, 7.841e-5
-1.552, 7.680e-5
-1.551, 7.525e-5
-1.550, 7.338e-5
-1.549, 7.177e-5
-1.548, 7.024e-5
-1.547, 6.867e-5
-1.546, 6.719e-5
-1.545, 6.576e-5
-1.544, 6.436e-5
-1.543, 6.291e-5
-1.542, 6.157e-5
-1.541, 6.030e-5
-1.540, 5.899e-5
-1.539, 5.778e-5
-1.538, 5.654e-5
-1.537, 5.538e-5
-1.536, 5.423e-5
-1.535, 5.315e-5
-1.534, 5.212e-5
-1.533, 5.097e-5
-1.532, 4.981e-5
-1.531, 4.874e-5
-1.530, 4.772e-5
-1.529, 4.675e-5
-1.528, 4.583e-5
-1.527, 4.491e-5
-1.526, 4.404e-5
-1.525, 4.315e-5
-1.524, 4.231e-5
-1.523, 4.139e-5
-1.522, 4.061e-5
-1.521, 3.983e-5
-1.520, 3.907e-5
-1.519, 3.831e-5
-1.518, 3.754e-5
-1.517, 3.676e-5
-1.516, 3.606e-5
-1.515, 3.538e-5
-1.514, 3.476e-5
-1.513, 3.408e-5
-1.512, 3.342e-5
-1.511, 3.276e-5
-1.510, 3.216e-5
-1.509, 3.166e-5
-1.508, 3.129e-5
-1.507, 3.046e-5
-1.506, 2.989e-5
-1.505, 2.939e-5
-1.504, 2.886e-5
-1.503, 2.838e-5
-1.502, 2.780e-5
-1.501, 2.723e-5
-1.500, 2.675e-5
-1.499, 2.683e-5
-1.498, 2.626e-5
-1.497, 2.573e-5
-1.496, 2.526e-5
-1.495, 2.478e-5
-1.494, 2.433e-5
-1.493, 2.389e-5
-1.492, 2.348e-5
-1.491, 2.305e-5
-1.490, 2.269e-5
-1.489, 2.231e-5
-1.488, 2.188e-5
-1.487, 2.151e-5
-1.486, 2.114e-5
-1.485, 2.076e-5
-1.484, 2.041e-5
-1.483, 2.003e-5
-1.482, 1.975e-5
-1.481, 1.937e-5
-1.480, 1.904e-5
-1.479, 1.873e-5
-1.478, 1.840e-5
-1.477, 1.811e-5
-1.476, 1.780e-5
-1.475, 1.748e-5
-1.474, 1.720e-5
-1.473, 1.692e-5
-1.472, 1.671e-5
-1.471, 1.645e-5
-1.470, 1.617e-5
-1.469, 1.586e-5
-1.468, 1.564e-5
-1.467, 1.536e-5
-1.466, 1.507e-5
-1.465, 1.483e-5
-1.464, 1.462e-5
-1.463, 1.432e-5
-1.462, 1.417e-5
-1.461, 1.392e-5
-1.460, 1.369e-5
-1.459, 1.345e-5
-1.458, 1.324e-5
-1.457, 1.299e-5
-1.456, 1.280e-5
-1.455, 1.259e-5
-1.454, 1.244e-5
-1.453, 1.222e-5
-1.452, 1.204e-5
-1.451, 1.185e-5
-1.450, 1.163e-5
-1.449, 1.144e-5
-1.448, 1.125e-5
-1.447, 1.104e-5
-1.446, 1.084e-5
-1.445, 1.067e-5
-1.444, 1.051e-5
-1.443, 1.040e-5
-1.442, 1.015e-5
-1.441, 9.943e-6
-1.440, 9.788e-6
-1.439, 9.625e-6
-1.438, 9.517e-6
-1.437, 9.343e-6
-1.436, 9.182e-6
-1.435, 9.065e-6
-1.434, 8.874e-6
-1.433, 8.742e-6
-1.432, 8.561e-6
-1.431, 8.434e-6
-1.430, 8.305e-6
-1.429, 8.174e-6
-1.428, 8.053e-6
-1.427, 7.882e-6
-1.426, 7.770e-6
-1.425, 7.690e-6
-1.424, 7.583e-6
-1.423, 7.424e-6
-1.422, 7.323e-6
-1.421, 7.250e-6
-1.420, 7.120e-6
-1.419, 6.986e-6
-1.418, 6.923e-6
-1.417, 6.820e-6
-1.416, 6.716e-6
-1.415, 6.595e-6
-1.414, 6.502e-6
-1.413, 6.385e-6
-1.412, 6.278e-6
-1.411, 6.190e-6
-1.410, 6.099e-6
-1.409, 6.036e-6
-1.408, 5.951e-6
-1.407, 5.841e-6
-1.406, 5.739e-6
-1.405, 5.674e-6
-1.404, 5.577e-6
-1.403, 5.447e-6
-1.402, 5.375e-6
-1.401, 5.284e-6
-1.400, 5.234e-6
-1.399, 5.143e-6
-1.398, 5.021e-6
-1.397, 4.993e-6
-1.396, 4.885e-6
-1.395, 4.810e-6
-1.394, 4.741e-6
-1.393, 4.658e-6
-1.392, 4.615e-6
-1.391, 4.539e-6
-1.390, 4.429e-6
-1.389, 4.396e-6
-1.388, 4.330e-6
-1.387, 4.234e-6
-1.386, 4.155e-6
-1.385, 4.108e-6
-1.384, 4.030e-6
-1.383, 3.998e-6
-1.382, 3.914e-6
-1.381, 3.841e-6
-1.380, 3.793e-6
-1.379, 3.725e-6
-1.378, 3.690e-6
-1.377, 3.644e-6
-1.376, 3.573e-6
-1.375, 3.518e-6
-1.374, 3.436e-6
-1.373, 3.371e-6
-1.372, 3.332e-6
-1.371, 3.307e-6
-1.370, 3.249e-6
-1.369, 3.169e-6
-1.368, 3.116e-6
-1.367, 3.085e-6
-1.366, 3.041e-6
-1.365, 3.011e-6
-1.364, 2.941e-6
-1.363, 2.900e-6
-1.362, 2.869e-6
-1.361, 2.842e-6
-1.360, 2.764e-6
-1.359, 2.741e-6
-1.358, 2.682e-6
-1.357, 2.651e-6
-1.356, 2.604e-6
-1.355, 2.558e-6
-1.354, 2.517e-6
-1.353, 2.494e-6
-1.352, 2.482e-6
-1.351, 2.429e-6
-1.350, 2.394e-6
-1.349, 2.379e-6
-1.348, 2.332e-6
-1.347, 2.313e-6
-1.346, 2.267e-6
-1.345, 2.229e-6
-1.344, 2.172e-6
-1.343, 2.131e-6
-1.342, 2.127e-6
-1.341, 2.076e-6
-1.340, 2.057e-6
-1.339, 2.001e-6
-1.338, 1.981e-6
-1.337, 1.963e-6
-1.336, 1.916e-6
-1.335, 1.915e-6
-1.334, 1.887e-6
-1.333, 1.862e-6
-1.332, 1.832e-6
-1.331, 1.791e-6
-1.330, 1.780e-6
-1.329, 1.768e-6
-1.328, 1.752e-6
-1.327, 1.704e-6
-1.326, 1.641e-6
-1.325, 1.615e-6
-1.324, 1.596e-6
-1.323, 1.613e-6
-1.322, 1.606e-6
-1.321, 1.520e-6
-1.320, 1.547e-6
-1.319, 1.512e-6
-1.318, 1.491e-6
-1.317, 1.497e-6
-1.316, 1.447e-6
-1.315, 1.420e-6
-1.314, 1.420e-6
-1.313, 1.391e-6
-1.312, 1.336e-6
-1.311, 1.347e-6
-1.310, 1.349e-6
-1.309, 1.312e-6
-1.308, 1.300e-6
-1.307, 1.281e-6
-1.306, 1.259e-6
-1.305, 1.226e-6
-1.304, 1.241e-6
-1.303, 1.223e-6
-1.302, 1.193e-6
-1.301, 1.165e-6
-1.300, 1.154e-6
-1.299, 1.118e-6
-1.298, 1.164e-6
-1.297, 1.089e-6
-1.296, 1.089e-6
-1.295, 1.075e-6
-1.294, 1.060e-6
-1.293, 1.045e-6
-1.292, 1.054e-6
-1.291, 1.027e-6
-1.290, 9.706e-7
-1.289, 9.854e-7
-1.288, 9.973e-7
-1.287, 1.016e-6
-1.286, 9.716e-7
-1.285, 9.588e-7
-1.284, 9.459e-7
-1.283, 9.173e-7
-1.282, 9.055e-7
-1.281, 9.035e-7
-1.280, 8.818e-7
-1.279, 8.848e-7
-1.278, 8.394e-7
-1.277, 8.424e-7
-1.276, 8.512e-7
-1.275, 8.354e-7
-1.274, 8.068e-7
-1.273, 8.049e-7
-1.272, 8.039e-7
-1.271, 7.526e-7
-1.270, 7.723e-7
-1.269, 7.970e-7
-1.268, 7.457e-7
-1.267, 7.102e-7
-1.266, 7.447e-7
-1.265, 7.407e-7
-1.264, 7.102e-7
-1.263, 7.289e-7
-1.262, 7.082e-7
-1.261, 7.052e-7
-1.260, 6.855e-7
-1.259, 6.993e-7
-1.258, 6.835e-7
-1.257, 6.963e-7
-1.256, 6.717e-7
-1.255, 6.085e-7
-1.254, 6.371e-7
-1.253, 6.421e-7
-1.252, 5.997e-7
-1.251, 5.927e-7
-1.250, 5.829e-7
-1.249, 5.651e-7
-1.248, 6.075e-7
-1.247, 5.651e-7
-1.246, 5.523e-7
-1.245, 5.513e-7
-1.244, 5.306e-7
-1.243, 5.701e-7
-1.242, 5.493e-7
-1.241, 5.355e-7
-1.240, 5.227e-7
-1.239, 4.951e-7
-1.238, 5.266e-7
-1.237, 5.355e-7
-1.236, 5.118e-7
-1.235, 5.069e-7
-1.234, 4.803e-7
-1.233, 4.665e-7
-1.232, 4.970e-7
-1.231, 4.961e-7
-1.230, 4.457e-7
-1.229, 4.359e-7
-1.228, 4.467e-7
-1.227, 4.546e-7
-1.226, 4.418e-7
-1.225, 4.083e-7
-1.224, 4.300e-7
-1.223, 4.428e-7
-1.222, 4.260e-7
-1.221, 4.428e-7
-1.220, 3.994e-7
-1.219, 4.152e-7
-1.218, 4.191e-7
-1.217, 4.083e-7
-1.216, 4.023e-7
-1.215, 3.767e-7
-1.214, 3.708e-7
-1.213, 3.944e-7
-1.212, 3.698e-7
-1.211, 3.639e-7
-1.210, 3.589e-7
-1.209, 3.392e-7
-1.208, 3.648e-7
-1.207, 3.727e-7
-1.206, 3.708e-7
-1.205, 3.195e-7
-1.204, 3.214e-7
-1.203, 3.313e-7
-1.202, 3.629e-7
-1.201, 3.106e-7
-1.200, 2.869e-7
-1.199, 3.195e-7
-1.198, 2.918e-7
-1.197, 3.017e-7
-1.196, 2.899e-7
-1.195, 2.524e-7
-1.194, 2.810e-7
-1.193, 2.573e-7
-1.192, 2.780e-7
-1.191, 2.731e-7
-1.190, 2.159e-7
-1.189, 2.317e-7
-1.188, 2.474e-7
-1.187, 2.386e-7
-1.186, 2.060e-7
-1.185, 2.070e-7
-1.184, 1.942e-7
-1.183, 2.514e-7
-1.182, 2.356e-7
-1.181, 2.090e-7
-1.180, 1.833e-7
-1.179, 1.813e-7
-1.178, 2.050e-7
-1.177, 1.774e-7
-1.176, 1.695e-7
-1.175, 1.803e-7
-1.174, 1.715e-7
-1.173, 1.636e-7
-1.172, 1.656e-7
-1.171, 1.577e-7
-1.170, 1.379e-7
-1.169, 1.429e-7
-1.168, 1.360e-7
-1.167, 1.251e-7
-1.166, 1.271e-7
-1.165, 8.761e-8
-1.164, 1.192e-7
-1.163, 1.458e-7
-1.162, 8.564e-8
-1.161, 9.156e-8
-1.160, 8.564e-8
-1.159, 8.465e-8
-1.158, 1.123e-7
-1.157, 6.590e-8
-1.156, 4.124e-8
-1.155, 6.294e-8
-1.154, 4.223e-8
-1.153, 1.162e-7
-1.152, 6.985e-8
-1.151, 5.703e-8
-1.150, 3.828e-8
-1.149, 2.841e-8
-1.148, 5.505e-8
-1.147, 3.828e-8
-1.146, 3.039e-8
-1.145, -6.117e-9
-1.144, 2.052e-8
-1.143, 2.644e-8
-1.142, -1.500e-8
-1.141, 2.762e-9
-1.140, -3.374e-8
-1.139, -1.302e-8
-1.138, -1.796e-8
-1.137, -4.459e-8
-1.136, -4.459e-8
-1.135, -3.571e-8
-1.134, -2.092e-8
-1.133, -6.827e-8
-1.132, -6.433e-8
-1.131, -6.137e-8
-1.130, -7.518e-8
-1.129, -6.630e-8
-1.128, -8.998e-8
-1.127, -9.096e-8
-1.126, -9.392e-8
-1.125, -7.814e-8
-1.124, -1.038e-7
-1.123, -1.225e-7
-1.122, -1.363e-7
-1.121, -1.344e-7
-1.120, -1.067e-7
-1.119, -1.245e-7
-1.118, -1.620e-7
-1.117, -1.581e-7
-1.116, -1.729e-7
-1.115, -1.492e-7
-1.114, -1.729e-7
-1.113, -2.015e-7
-1.112, -1.995e-7
-1.111, -2.143e-7
-1.110, -2.212e-7
-1.109, -1.955e-7
-1.108, -2.340e-7
-1.107, -2.468e-7
-1.106, -2.212e-7
-1.105, -2.370e-7
-1.104, -2.528e-7
-1.103, -2.597e-7
-1.102, -2.735e-7
-1.101, -2.557e-7
-1.100, -2.459e-7
-1.099, -3.021e-7
-1.098, -2.834e-7
-1.097, -2.794e-7
-1.096, -2.745e-7
-1.095, -3.001e-7
-1.094, -3.051e-7
-1.093, -3.307e-7
-1.092, -3.120e-7
-1.091, -3.297e-7
-1.090, -3.337e-7
-1.089, -3.465e-7
-1.088, -3.485e-7
-1.087, -3.445e-7
-1.086, -3.721e-7
-1.085, -4.165e-7
-1.084, -4.037e-7
-1.083, -3.909e-7
-1.082, -3.850e-7
-1.081, -4.037e-7
-1.080, -4.264e-7
-1.079, -4.008e-7
-1.078, -4.106e-7
-1.077, -4.017e-7
-1.076, -4.530e-7
-1.075, -4.747e-7
-1.074, -4.659e-7
-1.073, -4.738e-7
-1.072, -4.570e-7
-1.071, -5.270e-7
-1.070, -4.915e-7
-1.069, -4.777e-7
-1.068, -5.320e-7
-1.067, -5.162e-7
-1.066, -5.744e-7
-1.065, -5.191e-7
-1.064, -5.626e-7
-1.063, -5.783e-7
-1.062, -5.478e-7
-1.061, -5.754e-7
-1.060, -5.783e-7
-1.059, -5.783e-7
-1.058, -6.168e-7
-1.057, -6.079e-7
-1.056, -6.089e-7
-1.055, -6.346e-7
-1.054, -6.533e-7
-1.053, -6.484e-7
-1.052, -6.632e-7
-1.051, -6.661e-7
-1.050, -6.918e-7
-1.049, -7.155e-7
-1.048, -7.342e-7
-1.047, -7.155e-7
-1.046, -7.688e-7
-1.045, -7.747e-7
-1.044, -7.885e-7
-1.043, -7.688e-7
-1.042, -7.470e-7
-1.041, -8.270e-7
-1.040, -8.210e-7
-1.039, -8.003e-7
-1.038, -7.944e-7
-1.037, -8.053e-7
-1.036, -8.408e-7
-1.035, -8.201e-7
-1.034, -8.358e-7
-1.033, -8.941e-7
-1.032, -8.526e-7
-1.031, -9.158e-7
-1.030, -8.723e-7
-1.029, -8.901e-7
-1.028, -9.276e-7
-1.027, -9.345e-7
-1.026, -9.424e-7
-1.025, -9.345e-7
-1.024, -9.848e-7
-1.023, -1.002e-6
-1.022, -1.001e-6
-1.021, -1.018e-6
-1.020, -1.032e-6
-1.019, -1.041e-6
-1.018, -1.064e-6
-1.017, -1.079e-6
-1.016, -1.118e-6
-1.015, -1.107e-6
-1.014, -1.129e-6
-1.013, -1.138e-6
-1.012, -1.117e-6
-1.011, -1.192e-6
-1.010, -1.194e-6
-1.009, -1.205e-6
-1.008, -1.240e-6
-1.007, -1.220e-6
-1.006, -1.239e-6
-1.005, -1.285e-6
-1.004, -1.264e-6
-1.003, -1.294e-6
-1.002, -1.309e-6
-1.001, -1.351e-6
-1.000, -1.008e-6
-1.001, -6.800e-7
-1.002, -5.201e-7
-1.003, -3.810e-7
-1.004, -2.528e-7
-1.005, -1.699e-7
-1.006, -2.881e-8
-1.007, 3.828e-8
-1.008, 1.221e-7
-1.009, 1.892e-7
-1.010, 2.800e-7
-1.011, 3.313e-7
-1.012, 4.231e-7
-1.013, 4.724e-7
-1.014, 5.247e-7
-1.015, 5.839e-7
-1.016, 6.253e-7
-1.017, 6.894e-7
-1.018, 7.338e-7
-1.019, 7.644e-7
-1.020, 7.960e-7
-1.021, 8.345e-7
-1.022, 9.025e-7
-1.023, 9.440e-7
-1.024, 9.677e-7
-1.025, 9.736e-7
-1.026, 1.031e-6
-1.027, 1.086e-6
-1.028, 1.126e-6
-1.029, 1.104e-6
-1.030, 1.146e-6
-1.031, 1.186e-6
-1.032, 1.220e-6
-1.033, 1.238e-6
-1.034, 1.256e-6
-1.035, 1.276e-6
-1.036, 1.279e-6
-1.037, 1.325e-6
-1.038, 1.338e-6
-1.039, 1.349e-6
-1.040, 1.389e-6
-1.041, 1.416e-6
-1.042, 1.406e-6
-1.043, 1.408e-6
-1.044, 1.447e-6
-1.045, 1.485e-6
-1.046, 1.517e-6
-1.047, 1.512e-6
-1.048, 1.534e-6
-1.049, 1.545e-6
-1.050, 1.578e-6
-1.051, 1.584e-6
-1.052, 1.576e-6
-1.053, 1.636e-6
-1.054, 1.623e-6
-1.055, 1.589e-6
-1.056, 1.650e-6
-1.057, 1.674e-6
-1.058, 1.674e-6
-1.059, 1.704e-6
-1.060, 1.693e-6
-1.061, 1.721e-6
-1.062, 1.738e-6
-1.063, 1.783e-6
-1.064, 1.759e-6
-1.065, 1.774e-6
-1.066, 1.790e-6
-1.067, 1.790e-6
-1.068, 1.812e-6
-1.069, 1.790e-6
-1.070, 1.843e-6
-1.071, 1.839e-6
-1.072, 1.821e-6
-1.073, 1.853e-6
-1.074, 1.862e-6
-1.075, 1.884e-6
-1.076, 1.880e-6
-1.077, 1.874e-6
-1.078, 1.932e-6
-1.079, 1.926e-6
-1.080, 1.920e-6
-1.081, 1.952e-6
-1.082, 1.943e-6
-1.083, 1.937e-6
-1.084, 1.947e-6
-1.085, 1.946e-6
-1.086, 1.953e-6
-1.087, 1.991e-6
-1.088, 2.007e-6
-1.089, 2.009e-6
-1.090, 1.968e-6
-1.091, 2.030e-6
-1.092, 2.065e-6
-1.093, 2.043e-6
-1.094, 2.046e-6
-1.095, 2.059e-6
-1.096, 2.092e-6
-1.097, 2.078e-6
-1.098, 2.067e-6
-1.099, 2.069e-6
-1.100, 2.110e-6
-1.101, 2.138e-6
-1.102, 2.074e-6
-1.103, 2.117e-6
-1.104, 2.138e-6
-1.105, 2.134e-6
-1.106, 2.151e-6
-1.107, 2.149e-6
-1.108, 2.162e-6
-1.109, 2.220e-6
-1.110, 2.170e-6
-1.111, 2.180e-6
-1.112, 2.192e-6
-1.113, 2.214e-6
-1.114, 2.214e-6
-1.115, 2.198e-6
-1.116, 2.216e-6
-1.117, 2.259e-6
-1.118, 2.238e-6
-1.119, 2.263e-6
-1.120, 2.260e-6
-1.121, 2.294e-6
-1.122, 2.271e-6
-1.123, 2.283e-6
-1.124, 2.283e-6
-1.125, 2.304e-6
-1.126, 2.323e-6
-1.127, 2.306e-6
-1.128, 2.317e-6
-1.129, 2.335e-6
-1.130, 2.358e-6
-1.131, 2.371e-6
-1.132, 2.352e-6
-1.133, 2.372e-6
-1.134, 2.372e-6
-1.135, 2.355e-6
-1.136, 2.361e-6
-1.137, 2.374e-6
-1.138, 2.403e-6
-1.139, 2.424e-6
-1.140, 2.368e-6
-1.141, 2.419e-6
-1.142, 2.441e-6
-1.143, 2.421e-6
-1.144, 2.478e-6
-1.145, 2.424e-6
-1.146, 2.470e-6
-1.147, 2.442e-6
-1.148, 2.462e-6
-1.149, 2.459e-6
-1.150, 2.458e-6
-1.151, 2.478e-6
-1.152, 2.505e-6
-1.153, 2.472e-6
-1.154, 2.495e-6
-1.155, 2.520e-6
-1.156, 2.527e-6
-1.157, 2.533e-6
-1.158, 2.538e-6
-1.159, 2.550e-6
-1.160, 2.546e-6
-1.161, 2.547e-6
-1.162, 2.562e-6
-1.163, 2.573e-6
-1.164, 2.578e-6
-1.165, 2.556e-6
-1.166, 2.560e-6
-1.167, 2.568e-6
-1.168, 2.619e-6
-1.169, 2.603e-6
-1.170, 2.585e-6
-1.171, 2.613e-6
-1.172, 2.614e-6
-1.173, 2.660e-6
-1.174, 2.639e-6
-1.175, 2.602e-6
-1.176, 2.638e-6
-1.177, 2.662e-6
-1.178, 2.667e-6
-1.179, 2.672e-6
-1.180, 2.678e-6
-1.181, 2.704e-6
-1.182, 2.705e-6
-1.183, 2.710e-6
-1.184, 2.705e-6
-1.185, 2.726e-6
-1.186, 2.723e-6
-1.187, 2.730e-6
-1.188, 2.740e-6
-1.189, 2.733e-6
-1.190, 2.754e-6
-1.191, 2.782e-6
-1.192, 2.745e-6
-1.193, 2.769e-6
-1.194, 2.805e-6
-1.195, 2.811e-6
-1.196, 2.823e-6
-1.197, 2.819e-6
-1.198, 2.820e-6
-1.199, 2.831e-6
-1.200, 2.821e-6
-1.201, 2.845e-6
-1.202, 2.828e-6
-1.203, 2.847e-6
-1.204, 2.826e-6
-1.205, 2.848e-6
-1.206, 2.871e-6
-1.207, 2.881e-6
-1.208, 2.888e-6
-1.209, 2.870e-6
-1.210, 2.909e-6
-1.211, 2.940e-6
-1.212, 2.877e-6
-1.213, 2.904e-6
-1.214, 2.921e-6
-1.215, 2.950e-6
-1.216, 2.963e-6
-1.217, 2.958e-6
-1.218, 2.967e-6
-1.219, 2.973e-6
-1.220, 2.972e-6
-1.221, 2.972e-6
-1.222, 2.954e-6
-1.223, 3.012e-6
-1.224, 2.990e-6
-1.225, 2.986e-6
-1.226, 3.025e-6
-1.227, 3.011e-6
-1.228, 3.040e-6
-1.229, 3.058e-6
-1.230, 3.040e-6
-1.231, 3.081e-6
-1.232, 3.097e-6
-1.233, 3.086e-6
-1.234, 3.099e-6
-1.235, 3.091e-6
-1.236, 3.132e-6
-1.237, 3.118e-6
-1.238, 3.089e-6
-1.239, 3.113e-6
-1.240, 3.131e-6
-1.241, 3.119e-6
-1.242, 3.144e-6
-1.243, 3.140e-6
-1.244, 3.157e-6
-1.245, 3.196e-6
-1.246, 3.171e-6
-1.247, 3.179e-6
-1.248, 3.186e-6
-1.249, 3.229e-6
-1.250, 3.196e-6
-1.251, 3.210e-6
-1.252, 3.214e-6
-1.253, 3.264e-6
-1.254, 3.259e-6
-1.255, 3.245e-6
-1.256, 3.239e-6
-1.257, 3.306e-6
-1.258, 3.296e-6
-1.259, 3.298e-6
-1.260, 3.365e-6
-1.261, 3.352e-6
-1.262, 3.362e-6
-1.263, 3.298e-6
-1.264, 3.342e-6
-1.265, 3.355e-6
-1.266, 3.389e-6
-1.267, 3.413e-6
-1.268, 3.435e-6
-1.269, 3.409e-6
-1.270, 3.433e-6
-1.271, 3.437e-6
-1.272, 3.440e-6
-1.273, 3.460e-6
-1.274, 3.469e-6
-1.275, 3.472e-6
-1.276, 3.473e-6
-1.277, 3.482e-6
-1.278, 3.480e-6
-1.279, 3.510e-6
-1.280, 3.509e-6
-1.281, 3.503e-6
-1.282, 3.536e-6
-1.283, 3.551e-6
-1.284, 3.570e-6
-1.285, 3.539e-6
-1.286, 3.576e-6
-1.287, 3.613e-6
-1.288, 3.562e-6
-1.289, 3.597e-6
-1.290, 3.612e-6
-1.291, 3.619e-6
-1.292, 3.651e-6
-1.293, 3.608e-6
-1.294, 3.658e-6
-1.295, 3.686e-6
-1.296, 3.700e-6
-1.297, 3.721e-6
-1.298, 3.706e-6
-1.299, 3.719e-6
-1.300, 3.736e-6
-1.301, 3.745e-6
-1.302, 3.747e-6
-1.303, 3.785e-6
-1.304, 3.810e-6
-1.305, 3.772e-6
-1.306, 3.796e-6
-1.307, 3.805e-6
-1.308, 3.849e-6
-1.309, 3.842e-6
-1.310, 3.890e-6
-1.311, 3.904e-6
-1.312, 3.883e-6
-1.313, 3.885e-6
-1.314, 3.912e-6
-1.315, 3.913e-6
-1.316, 3.923e-6
-1.317, 3.958e-6
-1.318, 3.944e-6
-1.319, 3.987e-6
-1.320, 4.015e-6
-1.321, 4.003e-6
-1.322, 4.048e-6
-1.323, 4.065e-6
-1.324, 4.142e-6
-1.325, 4.084e-6
-1.326, 4.074e-6
-1.327, 4.115e-6
-1.328, 4.135e-6
-1.329, 4.131e-6
-1.330, 4.178e-6
-1.331, 4.183e-6
-1.332, 4.209e-6
-1.333, 4.268e-6
-1.334, 4.236e-6
-1.335, 4.260e-6
-1.336, 4.317e-6
-1.337, 4.318e-6
-1.338, 4.318e-6
-1.339, 4.321e-6
-1.340, 4.359e-6
-1.341, 4.425e-6
-1.342, 4.402e-6
-1.343, 4.434e-6
-1.344, 4.479e-6
-1.345, 4.488e-6
-1.346, 4.470e-6
-1.347, 4.500e-6
-1.348, 4.566e-6
-1.349, 4.567e-6
-1.350, 4.609e-6
-1.351, 4.648e-6
-1.352, 4.652e-6
-1.353, 4.672e-6
-1.354, 4.720e-6
-1.355, 4.737e-6
-1.356, 4.798e-6
-1.357, 4.828e-6
-1.358, 4.851e-6
-1.359, 4.846e-6
-1.360, 4.816e-6
-1.361, 4.895e-6
-1.362, 4.896e-6
-1.363, 4.907e-6
-1.364, 4.974e-6
-1.365, 5.000e-6
-1.366, 5.051e-6
-1.367, 5.081e-6
-1.368, 5.113e-6
-1.369, 5.129e-6
-1.370, 5.134e-6
-1.371, 5.185e-6
-1.372, 5.224e-6
-1.373, 5.263e-6
-1.374, 5.313e-6
-1.375, 5.371e-6
-1.376, 5.370e-6
-1.377, 5.425e-6
-1.378, 5.463e-6
-1.379, 5.500e-6
-1.380, 5.490e-6
-1.381, 5.530e-6
-1.382, 5.624e-6
-1.383, 5.665e-6
-1.384, 5.672e-6
-1.385, 5.724e-6
-1.386, 5.806e-6
-1.387, 5.820e-6
-1.388, 5.841e-6
-1.389, 5.926e-6
-1.390, 5.922e-6
-1.391, 6.028e-6
-1.392, 6.047e-6
-1.393, 6.024e-6
-1.394, 6.126e-6
-1.395, 6.198e-6
-1.396, 6.203e-6
-1.397, 6.291e-6
-1.398, 6.338e-6
-1.399, 6.416e-6
-1.400, 6.416e-6
-1.401, 6.458e-6
-1.402, 6.527e-6
-1.403, 6.602e-6
-1.404, 6.672e-6
-1.405, 6.670e-6
-1.406, 6.751e-6
-1.407, 6.788e-6
-1.408, 6.833e-6
-1.409, 6.882e-6
-1.410, 6.943e-6
-1.411, 7.039e-6
-1.412, 7.081e-6
-1.413, 7.169e-6
-1.414, 7.199e-6
-1.415, 7.258e-6
-1.416, 7.368e-6
-1.417, 7.425e-6
-1.418, 7.501e-6
-1.419, 7.558e-6
-1.420, 7.624e-6
-1.421, 7.694e-6
-1.422, 7.764e-6
-1.423, 7.852e-6
-1.424, 7.955e-6
-1.425, 8.006e-6
-1.426, 8.098e-6
-1.427, 8.188e-6
-1.428, 8.229e-6
-1.429, 8.298e-6
-1.430, 8.396e-6
-1.431, 8.444e-6
-1.432, 8.589e-6
-1.433, 8.672e-6
-1.434, 8.773e-6
-1.435, 8.886e-6
-1.436, 8.979e-6
-1.437, 9.036e-6
-1.438, 9.117e-6
-1.439, 9.268e-6
-1.440, 9.370e-6
-1.441, 9.371e-6
-1.442, 9.501e-6
-1.443, 9.640e-6
-1.444, 9.715e-6
-1.445, 9.815e-6
-1.446, 9.889e-6
-1.447, 1.004e-5
-1.448, 1.014e-5
-1.449, 1.028e-5
-1.450, 1.039e-5
-1.451, 1.049e-5
-1.452, 1.056e-5
-1.453, 1.071e-5
-1.454, 1.085e-5
-1.455, 1.100e-5
-1.456, 1.108e-5
-1.457, 1.127e-5
-1.458, 1.136e-5
-1.459, 1.153e-5
-1.460, 1.167e-5
-1.461, 1.180e-5
-1.462, 1.195e-5
-1.463, 1.205e-5
-1.464, 1.221e-5
-1.465, 1.238e-5
-1.466, 1.254e-5
-1.467, 1.269e-5
-1.468, 1.282e-5
-1.469, 1.294e-5
-1.470, 1.314e-5
-1.471, 1.332e-5
-1.472, 1.350e-5
-1.473, 1.363e-5
-1.474, 1.380e-5
-1.475, 1.398e-5
-1.476, 1.415e-5
-1.477, 1.433e-5
-1.478, 1.456e-5
-1.479, 1.474e-5
-1.480, 1.488e-5
-1.481, 1.509e-5
-1.482, 1.530e-5
-1.483, 1.555e-5
-1.484, 1.578e-5
-1.485, 1.599e-5
-1.486, 1.623e-5
-1.487, 1.646e-5
-1.488, 1.665e-5
-1.489, 1.691e-5
-1.490, 1.712e-5
-1.491, 1.741e-5
-1.492, 1.769e-5
-1.493, 1.794e-5
-1.494, 1.819e-5
-1.495, 1.845e-5
-1.496, 1.868e-5
-1.497, 1.899e-5
-1.498, 1.931e-5
-1.499, 1.958e-5
-1.500, 1.991e-5
-1.501, 2.016e-5
-1.502, 2.047e-5
-1.503, 2.084e-5
-1.504, 2.119e-5
-1.505, 2.154e-5
-1.506, 2.187e-5
-1.507, 2.219e-5
-1.508, 2.256e-5
-1.509, 2.294e-5
-1.510, 2.328e-5
-1.511, 2.373e-5
-1.512, 2.414e-5
-1.513, 2.451e-5
-1.514, 2.498e-5
-1.515, 2.540e-5
-1.516, 2.580e-5
-1.517, 2.628e-5
-1.518, 2.676e-5
-1.519, 2.724e-5
-1.520, 2.768e-5
-1.521, 2.821e-5
-1.522, 2.874e-5
-1.523, 2.927e-5
-1.524, 2.980e-5
-1.525, 3.042e-5
-1.526, 3.100e-5
-1.527, 3.163e-5
-1.528, 3.220e-5
-1.529, 3.286e-5
-1.530, 3.351e-5
-1.531, 3.418e-5
-1.532, 3.490e-5
-1.533, 3.565e-5
-1.534, 3.632e-5
-1.535, 3.711e-5
-1.536, 3.792e-5
-1.537, 3.866e-5
-1.538, 3.948e-5
-1.539, 4.039e-5
-1.540, 4.120e-5
-1.541, 4.212e-5
-1.542, 4.307e-5
-1.543, 4.405e-5
-1.544, 4.497e-5
-1.545, 4.597e-5
-1.546, 4.706e-5
-1.547, 4.816e-5
-1.548, 4.934e-5
-1.549, 5.065e-5
-1.550, 5.181e-5
-1.551, 5.307e-5
-1.552, 5.436e-5
-1.553, 5.577e-5
-1.554, 5.716e-5
-1.555, 5.857e-5
-1.556, 6.007e-5
-1.557, 6.163e-5
-1.558, 6.325e-5
-1.559, 6.496e-5
-1.560, 6.668e-5
-1.561, 6.852e-5
-1.562, 7.047e-5
-1.563, 7.237e-5
-1.564, 7.436e-5
-1.565, 7.642e-5
-1.566, 7.858e-5
-1.567, 8.079e-5
-1.568, 8.304e-5
-1.569, 8.475e-5
-1.570, 8.735e-5
-1.571, 9.011e-5
-1.572, 9.283e-5
-1.573, 9.554e-5
-1.574, 9.812e-5
-1.575, 1.011e-4
-1.576, 1.041e-4
-1.577, 1.074e-4
-1.578, 1.108e-4
-1.579, 1.143e-4
-1.580, 1.179e-4
-1.581, 1.217e-4
-1.582, 1.255e-4
-1.583, 1.295e-4
-1.584, 1.337e-4
-1.585, 1.381e-4
-1.586, 1.427e-4
-1.587, 1.473e-4
-1.588, 1.522e-4
-1.589, 1.572e-4
-1.590, 1.624e-4
-1.591, 1.679e-4
-1.592, 1.736e-4
-1.593, 1.795e-4
-1.594, 1.857e-4
-1.595, 1.920e-4
-1.596, 1.985e-4
-1.597, 2.054e-4
-1.598, 2.126e-4
-1.599, 2.197e-4
-1.600, 2.230e-4
-1.599, 2.214e-4
-1.598, 2.194e-4
-1.597, 2.169e-4
-1.596, 2.141e-4
-1.595, 2.112e-4
-1.594, 2.082e-4
-1.593, 2.049e-4
-1.592, 2.015e-4
-1.591, 1.981e-4
-1.590, 1.948e-4
-1.589, 1.913e-4
-1.588, 1.879e-4
-1.587, 1.844e-4
-1.586, 1.810e-4
-1.585, 1.775e-4
-1.584, 1.740e-4
-1.583, 1.705e-4
-1.582, 1.671e-4
-1.581, 1.637e-4
-1.580, 1.603e-4
-1.579, 1.570e-4
-1.578, 1.538e-4
-1.577, 1.505e-4
-1.576, 1.474e-4
-1.575, 1.441e-4
-1.574, 1.410e-4
-1.573, 1.380e-4
-1.572, 1.351e-4
-1.571, 1.321e-4
-1.570, 1.292e-4
-1.569, 1.262e-4
-1.568, 1.234e-4
-1.567, 1.207e-4
-1.566, 1.180e-4
-1.565, 1.154e-4
-1.564, 1.129e-4
-1.563, 1.103e-4
-1.562, 1.078e-4
-1.561, 1.054e-4
-1.560, 1.030e-4
-1.559, 1.007e-4
-1.558, 9.845e-5
-1.557, 9.624e-5
-1.556, 9.415e-5
-1.555, 9.205e-5
-1.554, 8.996e-5
-1.553, 8.792e-5
-1.552, 8.600e-5
-1.551, 8.420e-5
-1.550, 8.243e-5
-1.549, 8.059e-5
-1.548, 7.873e-5
-1.547, 7.689e-5
-1.546, 7.527e-5
-1.545, 7.359e-5
-1.544, 7.198e-5
-1.543, 7.042e-5
-1.542, 6.890e-5
-1.541, 6.746e-5
-1.540, 6.597e-5
-1.539, 6.448e-5
-1.538, 6.309e-5
-1.537, 6.174e-5
-1.536, 6.039e-5
-1.535, 5.910e-5
-1.534, 5.794e-5
-1.533, 5.666e-5
-1.532, 5.545e-5
-1.531, 5.427e-5
-1.530, 5.326e-5
-1.529, 5.213e-5
-1.528, 5.107e-5
-1.527, 5.001e-5
-1.526, 4.905e-5
-1.525, 4.792e-5
-1.524, 4.698e-5
-1.523, 4.603e-5
-1.522, 4.513e-5
-1.521, 4.425e-5
-1.520, 4.333e-5
-1.519, 4.249e-5
-1.518, 4.166e-5
-1.517, 4.082e-5
-1.516, 4.005e-5
-1.515, 3.926e-5
-1.514, 3.851e-5
-1.513, 3.778e-5
-1.512, 3.704e-5
-1.511, 3.633e-5
-1.510, 3.567e-5
-1.509, 3.499e-5
-1.508, 3.434e-5
-1.507, 3.369e-5
-1.506, 3.310e-5
-1.505, 3.245e-5
-1.504, 3.184e-5
-1.503, 3.123e-5
-1.502, 3.063e-5
-1.501, 3.014e-5
-1.500, 2.957e-5
-1.499, 2.897e-5
-1.498, 2.846e-5
-1.497, 2.794e-5
-1.496, 2.745e-5
-1.495, 2.695e-5
-1.494, 2.649e-5
-1.493, 2.604e-5
-1.492, 2.552e-5
-1.491, 2.510e-5
-1.490, 2.466e-5
-1.489, 2.423e-5
-1.488, 2.382e-5
-1.487, 2.337e-5
-1.486, 2.290e-5
-1.485, 2.251e-5
-1.484, 2.210e-5
-1.483, 2.173e-5
-1.482, 2.139e-5
-1.481, 2.098e-5
-1.480, 2.063e-5
-1.479, 2.026e-5
-1.478, 1.992e-5
-1.477, 1.957e-5
-1.476, 1.923e-5
-1.475, 1.892e-5
-1.474, 1.862e-5
-1.473, 1.825e-5
-1.472, 1.792e-5
-1.471, 1.762e-5
-1.470, 1.738e-5
-1.469, 1.708e-5
-1.468, 1.678e-5
-1.467, 1.646e-5
-1.466, 1.619e-5
-1.465, 1.591e-5
-1.464, 1.560e-5
-1.463, 1.535e-5
-1.462, 1.513e-5
-1.461, 1.487e-5
-1.460, 1.464e-5
-1.459, 1.436e-5
-1.458, 1.414e-5
-1.457, 1.391e-5
-1.456, 1.365e-5
-1.455, 1.345e-5
-1.454, 1.323e-5
-1.453, 1.303e-5
-1.452, 1.281e-5
-1.451, 1.256e-5
-1.450, 1.241e-5
-1.449, 1.218e-5
-1.448, 1.197e-5
-1.447, 1.177e-5
-1.446, 1.159e-5
-1.445, 1.140e-5
-1.444, 1.117e-5
-1.443, 1.100e-5
-1.442, 1.083e-5
-1.441, 1.066e-5
-1.440, 1.048e-5
-1.439, 1.028e-5
-1.438, 1.017e-5
-1.437, 9.987e-6
-1.436, 9.798e-6
-1.435, 9.664e-6
-1.434, 9.439e-6
-1.433, 9.319e-6
-1.432, 9.139e-6
-1.431, 8.971e-6
-1.430, 8.848e-6
-1.429, 8.709e-6
-1.428, 8.558e-6
-1.427, 8.445e-6
-1.426, 8.301e-6
-1.425, 8.158e-6
-1.424, 8.036e-6
-1.423, 7.861e-6
-1.422, 7.756e-6
-1.421, 7.628e-6
-1.420, 7.518e-6
-1.419, 7.370e-6
-1.418, 7.262e-6
-1.417, 7.153e-6
-1.416, 7.043e-6
-1.415, 6.900e-6
-1.414, 6.774e-6
-1.413, 6.675e-6
-1.412, 6.603e-6
-1.411, 6.465e-6
-1.410, 6.348e-6
-1.409, 6.268e-6
-1.408, 6.156e-6
-1.407, 6.028e-6
-1.406, 5.952e-6
-1.405, 5.839e-6
-1.404, 5.752e-6
-1.403, 5.650e-6
-1.402, 5.587e-6
-1.401, 5.507e-6
-1.400, 5.387e-6
-1.399, 5.310e-6
-1.398, 5.211e-6
-1.397, 5.135e-6
-1.396, 5.063e-6
-1.395, 4.955e-6
-1.394, 4.893e-6
-1.393, 4.774e-6
-1.392, 4.749e-6
-1.391, 4.659e-6
-1.390, 4.575e-6
-1.389, 4.480e-6
-1.388, 4.448e-6
-1.387, 4.366e-6
-1.386, 4.276e-6
-1.385, 4.170e-6
-1.384, 4.146e-6
-1.383, 4.086e-6
-1.382, 4.005e-6
-1.381, 3.919e-6
-1.380, 3.890e-6
-1.379, 3.800e-6
-1.378, 3.789e-6
-1.377, 3.708e-6
-1.376, 3.637e-6
-1.375, 3.618e-6
-1.374, 3.518e-6
-1.373, 3.465e-6
-1.372, 3.361e-6
-1.371, 3.367e-6
-1.370, 3.304e-6
-1.369, 3.206e-6
-1.368, 3.170e-6
-1.367, 3.150e-6
-1.366, 3.090e-6
-1.365, 3.035e-6
-1.364, 2.967e-6
-1.363, 2.940e-6
-1.362, 2.917e-6
-1.361, 2.868e-6
-1.360, 2.779e-6
-1.359, 2.761e-6
-1.358, 2.719e-6
-1.357, 2.667e-6
-1.356, 2.644e-6
-1.355, 2.573e-6
-1.354, 2.559e-6
-1.353, 2.513e-6
-1.352, 2.441e-6
-1.351, 2.417e-6
-1.350, 2.401e-6
-1.349, 2.328e-6
-1.348, 2.292e-6
-1.347, 2.268e-6
-1.346, 2.259e-6
-1.345, 2.193e-6
-1.344, 2.141e-6
-1.343, 2.124e-6
-1.342, 2.093e-6
-1.341, 2.075e-6
-1.340, 2.039e-6
-1.339, 1.993e-6
-1.338, 1.974e-6
-1.337, 1.928e-6
-1.336, 1.910e-6
-1.335, 1.861e-6
-1.334, 1.874e-6
-1.333, 1.838e-6
-1.332, 1.806e-6
-1.331, 1.748e-6
-1.330, 1.727e-6
-1.329, 1.730e-6
-1.328, 1.705e-6
-1.327, 1.619e-6
-1.326, 1.646e-6
-1.325, 1.602e-6
-1.324, 1.569e-6
-1.323, 1.563e-6
-1.322, 1.537e-6
-1.321, 1.519e-6
-1.320, 1.507e-6
-1.319, 1.463e-6
-1.318, 1.417e-6
-1.317, 1.412e-6
-1.316, 1.399e-6
-1.315, 1.395e-6
-1.314, 1.389e-6
-1.313, 1.332e-6
-1.312, 1.363e-6
-1.311, 1.287e-6
-1.310, 1.286e-6
-1.309, 1.270e-6
-1.308, 1.236e-6
-1.307, 1.243e-6
-1.306, 1.202e-6
-1.305, 1.173e-6
-1.304, 1.163e-6
-1.303, 1.142e-6
-1.302, 1.163e-6
-1.301, 1.098e-6
-1.300, 1.082e-6
-1.299, 1.125e-6
-1.298, 1.071e-6
-1.297, 1.073e-6
-1.296, 1.063e-6
-1.295, 1.083e-6
-1.294, 1.003e-6
-1.293, 1.000e-6
-1.292, 9.884e-7
-1.291, 9.607e-7
-1.290, 9.973e-7
-1.289, 9.262e-7
-1.288, 9.440e-7
-1.287, 9.410e-7
-1.286, 9.094e-7
-1.285, 9.134e-7
-1.284, 8.956e-7
-1.283, 8.838e-7
-1.282, 8.759e-7
-1.281, 8.424e-7
-1.280, 8.216e-7
-1.279, 8.335e-7
-1.278, 8.256e-7
-1.277, 8.059e-7
-1.276, 7.782e-7
-1.275, 7.950e-7
-1.274, 7.920e-7
-1.273, 7.496e-7
-1.272, 7.516e-7
-1.271, 7.565e-7
-1.270, 7.111e-7
-1.269, 6.963e-7
-1.268, 7.032e-7
-1.267, 7.141e-7
-1.266, 6.884e-7
-1.265, 6.776e-7
-1.264, 6.588e-7
-1.263, 6.835e-7
-1.262, 6.845e-7
-1.261, 6.125e-7
-1.260, 6.638e-7
-1.259, 6.135e-7
-1.258, 6.362e-7
-1.257, 6.184e-7
-1.256, 5.829e-7
-1.255, 5.740e-7
-1.254, 5.799e-7
-1.253, 5.898e-7
-1.252, 5.789e-7
-1.251, 5.789e-7
-1.250, 5.622e-7
-1.249, 5.414e-7
-1.248, 5.197e-7
-1.247, 5.168e-7
-1.246, 5.592e-7
-1.245, 5.345e-7
-1.244, 4.892e-7
-1.243, 5.049e-7
-1.242, 5.128e-7
-1.241, 5.138e-7
-1.240, 4.615e-7
-1.239, 4.714e-7
-1.238, 4.763e-7
-1.237, 4.556e-7
-1.236, 4.388e-7
-1.235, 4.388e-7
-1.234, 4.359e-7
-1.233, 4.586e-7
-1.232, 4.418e-7
-1.231, 4.161e-7
-1.230, 4.102e-7
-1.229, 4.023e-7
-1.228, 3.925e-7
-1.227, 3.856e-7
-1.226, 3.865e-7
-1.225, 3.885e-7
-1.224, 3.944e-7
-1.223, 3.688e-7
-1.222, 3.777e-7
-1.221, 3.520e-7
-1.220, 3.451e-7
-1.219, 3.392e-7
-1.218, 3.422e-7
-1.217, 3.155e-7
-1.216, 3.274e-7
-1.215, 3.007e-7
-1.214, 2.879e-7
-1.213, 3.135e-7
-1.212, 2.918e-7
-1.211, 3.047e-7
-1.210, 2.987e-7
-1.209, 2.879e-7
-1.208, 2.958e-7
-1.207, 2.583e-7
-1.206, 2.465e-7
-1.205, 2.583e-7
-1.204, 2.573e-7
-1.203, 2.524e-7
-1.202, 2.326e-7
-1.201, 2.129e-7
-1.200, 2.613e-7
-1.199, 2.326e-7
-1.198, 2.228e-7
-1.197, 2.198e-7
-1.196, 2.257e-7
-1.195, 2.090e-7
-1.194, 1.764e-7
-1.193, 1.656e-7
-1.192, 1.705e-7
-1.191, 1.794e-7
-1.190, 1.882e-7
-1.189, 1.784e-7
-1.188, 1.695e-7
-1.187, 1.665e-7
-1.186, 1.744e-7
-1.185, 1.379e-7
-1.184, 1.271e-7
-1.183, 1.636e-7
-1.182, 1.458e-7
-1.181, 1.310e-7
-1.180, 1.281e-7
-1.179, 1.113e-7
-1.178, 9.353e-8
-1.177, 9.846e-8
-1.176, 7.084e-8
-1.175, 1.142e-7
-1.174, 9.057e-8
-1.173, 9.748e-8
-1.172, 8.169e-8
-1.171, 7.774e-8
-1.170, 1.083e-7
-1.169, 6.393e-8
-1.168, 3.137e-8
-1.167, 3.631e-8
-1.166, 4.420e-8
-1.165, 5.407e-8
-1.164, 1.460e-8
-1.163, 4.420e-8
-1.162, 2.762e-9
-1.161, 4.815e-8
-1.160, 1.164e-8
-1.159, 1.066e-8
-1.158, 2.348e-8
-1.157, 3.749e-9
-1.156, 4.124e-8
-1.155, 2.249e-8
-1.154, -2.171e-9
-1.153, 3.433e-8
-1.152, 4.736e-9
-1.151, -2.486e-8
-1.150, -2.782e-8
-1.149, -5.051e-8
-1.148, 3.749e-9
-1.147, -2.289e-8
-1.146, -5.446e-8
-1.145, -5.347e-8
-1.144, -5.150e-8
-1.143, -6.531e-8
-1.142, -5.742e-8
-1.141, -6.531e-8
-1.140, -6.531e-8
-1.139, -9.491e-8
-1.138, -1.028e-7
-1.137, -7.617e-8
-1.136, -7.419e-8
-1.135, -8.504e-8
-1.134, -1.028e-7
-1.133, -1.077e-7
-1.132, -1.571e-7
-1.131, -1.058e-7
-1.130, -1.334e-7
-1.129, -1.561e-7
-1.128, -1.541e-7
-1.127, -1.294e-7
-1.126, -1.403e-7
-1.125, -1.354e-7
-1.124, -1.433e-7
-1.123, -1.541e-7
-1.122, -1.551e-7
-1.121, -1.827e-7
-1.120, -2.123e-7
-1.119, -2.054e-7
-1.118, -1.748e-7
-1.117, -1.857e-7
-1.116, -2.330e-7
-1.115, -2.340e-7
-1.114, -2.399e-7
-1.113, -2.370e-7
-1.112, -2.390e-7
-1.111, -2.478e-7
-1.110, -2.311e-7
-1.109, -2.498e-7
-1.108, -2.626e-7
-1.107, -2.912e-7
-1.106, -2.518e-7
-1.105, -2.616e-7
-1.104, -2.755e-7
-1.103, -3.277e-7
-1.102, -2.883e-7
-1.101, -2.912e-7
-1.100, -3.169e-7
-1.099, -3.317e-7
-1.098, -3.297e-7
-1.097, -3.356e-7
-1.096, -3.159e-7
-1.095, -3.317e-7
-1.094, -3.692e-7
-1.093, -3.593e-7
-1.092, -3.692e-7
-1.091, -3.702e-7
-1.090, -3.988e-7
-1.089, -3.869e-7
-1.088, -3.958e-7
-1.087, -3.978e-7
-1.086, -4.126e-7
-1.085, -4.392e-7
-1.084, -4.284e-7
-1.083, -4.323e-7
-1.082, -4.481e-7
-1.081, -4.254e-7
-1.080, -4.501e-7
-1.079, -4.856e-7
-1.078, -4.836e-7
-1.077, -4.945e-7
-1.076, -4.836e-7
-1.075, -5.024e-7
-1.074, -4.994e-7
-1.073, -5.261e-7
-1.072, -5.162e-7
-1.071, -5.428e-7
-1.070, -5.685e-7
-1.069, -5.912e-7
-1.068, -5.833e-7
-1.067, -5.497e-7
-1.066, -6.109e-7
-1.065, -6.129e-7
-1.064, -6.336e-7
-1.063, -6.267e-7
-1.062, -6.158e-7
-1.061, -6.356e-7
-1.060, -6.425e-7
-1.059, -6.405e-7
-1.058, -6.671e-7
-1.057, -6.563e-7
-1.056, -6.661e-7
-1.055, -6.701e-7
-1.054, -7.076e-7
-1.053, -7.392e-7
-1.052, -7.332e-7
-1.051, -7.096e-7
-1.050, -7.500e-7
-1.049, -7.470e-7
-1.048, -7.678e-7
-1.047, -7.579e-7
-1.046, -7.885e-7
-1.045, -7.934e-7
-1.044, -8.457e-7
-1.043, -7.944e-7
-1.042, -8.349e-7
-1.041, -8.753e-7
-1.040, -8.437e-7
-1.039, -8.615e-7
-1.038, -8.862e-7
-1.037, -9.128e-7
-1.036, -9.128e-7
-1.035, -8.793e-7
-1.034, -9.414e-7
-1.033, -9.641e-7
-1.032, -9.473e-7
-1.031, -9.582e-7
-1.030, -9.592e-7
-1.029, -9.868e-7
-1.028, -1.002e-6
-1.027, -1.008e-6
-1.026, -1.028e-6
-1.025, -1.066e-6
-1.024, -1.092e-6
-1.023, -1.075e-6
-1.022, -1.130e-6
-1.021, -1.153e-6
-1.020, -1.140e-6
-1.019, -1.114e-6
-1.018, -1.143e-6
-1.017, -1.168e-6
-1.016, -1.175e-6
-1.015, -1.169e-6
-1.014, -1.216e-6
-1.013, -1.227e-6
-1.012, -1.257e-6
-1.011, -1.256e-6
-1.010, -1.249e-6
-1.009, -1.327e-6
-1.008, -1.319e-6
-1.007, -1.330e-6
-1.006, -1.343e-6
-1.005, -1.340e-6
-1.004, -1.397e-6
-1.003, -1.385e-6
-1.002, -1.378e-6
-1.001, -1.434e-6
