Potential V vs RHE, Current mA cm-2
0.013299999999999867,-0.5084472411714941
0.012299999999999978,-2.417741611469348
0.011299999999999866,-3.822549932235329
0.010299999999999976,-4.760503524045848
0.009299999999999864,-5.531521182472294
0.008299999999999974,-6.20209433860832
0.007299999999999862,-6.687340314462029
0.006299999999999972,-7.0367740055286925
0.00529999999999986,-7.413087211292793
0.0042999999999999705,-7.731397253762426
0.0032999999999998586,-7.889844919347309
0.0022999999999999687,-8.116198727325715
0.0012999999999998568,-8.363773204802097
0.00029999999999996696,-8.448655882793998
-0.000700000000000145,-8.544856251184823
-0.0017000000000000348,-8.730183431467141
-0.0027000000000001467,-8.800918996460393
-0.0037000000000000366,-8.830627933757558
-0.0047000000000001485,-8.945219549046627
-0.005700000000000038,-9.038590494837718
-0.00670000000000015,-9.024443381839069
-0.00770000000000004,-9.07537298863421
-0.008700000000000152,-9.177232202224493
-0.009700000000000042,-9.156011532726518
-0.010700000000000154,-9.161670377925978
-0.011700000000000044,-9.253626612417206
-0.012700000000000156,-9.239479499418556
-0.013700000000000045,-9.182891047423954
-0.014700000000000157,-9.257870746316799
-0.015700000000000047,-9.281920838414505
-0.01670000000000016,-9.214014696020984
-0.01770000000000005,-9.253626612417206
-0.01870000000000016,-9.313044487011537
-0.01970000000000005,-9.250797189817476
-0.020700000000000163,-9.21259998472112
-0.021700000000000053,-9.27484728191518
-0.022700000000000164,-9.256456035016935
-0.023700000000000054,-9.177232202224493
-0.024700000000000166,-9.216844118620713
-0.025700000000000056,-9.2295765203195
-0.026700000000000168,-9.130546729328946
-0.027700000000000058,-9.146108553627464
-0.02870000000000017,-9.187135181323548
-0.02970000000000006,-9.116399616330296
-0.03070000000000017,-9.08103183383367
-0.03170000000000006,-9.136205574528407
-0.03270000000000017,-9.11781432763016
-0.03370000000000006,-9.045664051337045
-0.034700000000000175,-9.085275967733265
-0.035700000000000065,-9.09517894683232
-0.03670000000000018,-9.007466846240689
-0.03770000000000007,-8.998978578441498
-0.03870000000000018,-9.054152319136236
-0.03970000000000007,-8.949463682946222
-0.04070000000000018,-8.901363498750811
-0.04170000000000007,-8.970684352444197
-0.04270000000000018,-8.914095900449595
-0.04370000000000007,-8.84760446935594
-0.044700000000000184,-8.885801674452297
-0.045700000000000074,-8.885801674452297
-0.046700000000000186,-8.791016017361338
-0.047700000000000076,-8.786771883461741
-0.04870000000000019,-8.823554377258235
-0.04970000000000008,-8.751404100965116
-0.05070000000000019,-8.691986226370785
-0.05170000000000008,-8.744330544465791
-0.05270000000000019,-8.697645071570244
-0.05370000000000008,-8.635397774376184
-0.05470000000000019,-8.68491266987146
-0.05570000000000008,-8.669350845572946
-0.056700000000000195,-8.563247498083067
-0.057700000000000085,-8.578809322381582
-0.058700000000000196,-8.629738929176723
-0.059700000000000086,-8.568906343282526
-0.0607000000000002,-8.5052443347886
-0.06170000000000009,-8.584468167581042
-0.0627000000000002,-8.554759230283878
-0.06370000000000009,-8.46846184099211
-0.0647000000000002,-8.517976736487388
-0.06570000000000009,-8.542026828585092
-0.0667000000000002,-8.437338192395078
-0.0677000000000001,-8.437338192395078
-0.0687000000000002,-8.47129126359184
-0.0697000000000001,-8.390652719499533
-0.07070000000000021,-8.35669964830277
-0.0717000000000001,-8.397726275998858
-0.07270000000000021,-8.369432050001556
-0.0737000000000001,-8.312843598006955
-0.07470000000000021,-8.349626091803447
-0.0757000000000001,-8.377920317800747
-0.07670000000000021,-8.298696485008303
-0.0777000000000001,-8.298696485008303
-0.07870000000000021,-8.360943782202368
-0.0797000000000001,-8.284549372009655
-0.08070000000000022,-8.264743413811544
-0.0817000000000001,-8.31991715450628
-0.08270000000000022,-8.30011119630817
-0.08370000000000011,-8.236449187814243
-0.08470000000000022,-8.28030523811006
-0.08570000000000011,-8.28596408330952
-0.08670000000000022,-8.218057940915998
-0.08770000000000011,-8.242108033013702
-0.08870000000000022,-8.29445235110871
-0.08970000000000011,-8.227960920015054
-0.09070000000000022,-8.199666694017752
-0.09170000000000011,-8.29445235110871
-0.09270000000000023,-8.277475815510329
-0.09370000000000012,-8.216643229616132
-0.09470000000000023,-8.276061104210465
-0.09570000000000012,-8.293037639808846
-0.09670000000000023,-8.215228518316268
-0.09770000000000012,-8.242108033013702
-0.09870000000000023,-8.295867062408576
-0.09970000000000012,-8.259084568612085
-0.10070000000000023,-8.235034476514379
-0.10170000000000012,-8.304355330207764
-0.10270000000000024,-8.29445235110871
-0.10370000000000013,-8.229375631314918
-0.10470000000000024,-8.293037639808846
-0.10570000000000013,-8.322746577106011
-0.10670000000000024,-8.236449187814243
-0.10770000000000013,-8.261913991211815
-0.10870000000000024,-8.307184752807496
-0.10970000000000013,-8.252011012112758
-0.11070000000000024,-8.239278610413974
-0.11170000000000013,-8.307184752807496
-0.11270000000000002,-8.307184752807496
-0.11370000000000013,-8.259084568612085
-0.11470000000000002,-8.318502443206416
-0.11570000000000014,-8.372261472601286
-0.11670000000000003,-8.29445235110871
-0.11770000000000014,-8.325575999705741
-0.11870000000000003,-8.407629255097913
-0.11970000000000014,-8.341137824004257
-0.12070000000000003,-8.3312348449052
-0.12170000000000014,-8.427435213296024
-0.12270000000000003,-8.406214543798049
-0.12370000000000014,-8.362358493502233
-0.12470000000000003,-8.424605790696294
-0.12570000000000014,-8.45431472799346
-0.12670000000000003,-8.399140987298722
-0.12770000000000015,-8.424605790696294
-0.12870000000000004,-8.49392664438968
-0.12970000000000015,-8.45148530539373
-0.13070000000000004,-8.447241171494134
-0.13170000000000015,-8.537782694685495
-0.13270000000000004,-8.522220870386981
-0.13370000000000015,-8.472705974891705
-0.13470000000000004,-8.543441539884956
-0.13570000000000015,-8.571735765882257
-0.13670000000000004,-8.523635581686847
-0.13770000000000016,-8.564662209382933
-0.13870000000000005,-8.62549479527713
-0.13970000000000016,-8.594371146680096
-0.14070000000000005,-8.591541724080368
-0.14170000000000016,-8.66793613427308
-0.14270000000000005,-8.67076555687281
-0.14370000000000016,-8.607103548378884
-0.14470000000000005,-8.690571515070921
-0.14570000000000016,-8.742915833165926
-0.14670000000000005,-8.68491266987146
-0.14770000000000016,-8.717451029768355
-0.14870000000000005,-8.786771883461741
-0.14970000000000017,-8.751404100965116
-0.15070000000000006,-8.744330544465791
-0.15170000000000017,-8.816480820758908
-0.15270000000000006,-8.823554377258235
-0.15370000000000017,-8.783942460862013
-0.15470000000000006,-8.84760446935594
-0.15570000000000017,-8.907022343950272
-0.15670000000000006,-8.841945624156478
-0.15770000000000017,-8.867410427554049
-0.15870000000000006,-8.956537239445547
-0.15970000000000018,-8.897119364851218
-0.16070000000000007,-8.888631097052025
-0.16170000000000018,-8.977757908943524
-0.16270000000000007,-8.976343197643658
-0.16370000000000018,-8.948048971646358
-0.16470000000000007,-9.03293164963826
-0.16570000000000018,-9.061225875635559
-0.16670000000000007,-9.01029626884042
-0.16770000000000018,-9.023028670539205
-0.16870000000000007,-9.109326059830972
-0.16970000000000018,-9.065470009535154
-0.17070000000000007,-9.049908185236639
-0.17170000000000019,-9.161670377925978
-0.17270000000000008,-9.160255666626112
-0.1737000000000002,-9.102252503331647
-0.17470000000000008,-9.184305758723816
-0.1757000000000002,-9.214014696020984
-0.17670000000000008,-9.161670377925978
-0.1777000000000002,-9.201282294322198
-0.17870000000000008,-9.276261993215044
-0.1797000000000002,-9.225332386419904
-0.18070000000000008,-9.201282294322198
-0.1817000000000002,-9.3144591983114
-0.18270000000000008,-9.331435733909782
-0.1837000000000002,-9.283335549714371
-0.1847000000000001,-9.356900537307352
-0.1857000000000002,-9.399341876303303
-0.1867000000000001,-9.328606311310052
-0.1877000000000002,-9.375291784205599
-0.1887000000000001,-9.44885677179858
-0.1897000000000002,-9.40075658760317
-0.1907000000000001,-9.406415432802628
-0.1917000000000001,-9.48563926559507
-0.19269999999999998,-9.487053976894938
-0.1937000000000001,-9.43753908139966
-0.19469999999999998,-9.502615801193452
-0.1957000000000001,-9.564863098387514
-0.19669999999999999,-9.501201089893586
-0.1977000000000001,-9.53656887239021
-0.1987,-9.622866261681981
-0.1997000000000001,-9.564863098387514
-0.2007,-9.567692520987244
-0.2017000000000001,-9.652575198979145
-0.2027,-9.635598663380765
-0.2037000000000001,-9.607304437383464
-0.2047,-9.682284136276312
-0.2057000000000001,-9.734628454371316
-0.2067,-9.678040002376715
-0.2077000000000001,-9.709163650973746
-0.2087,-9.799705174165108
-0.2097000000000001,-9.754434412569427
-0.2107,-9.743116722170507
-0.2117000000000001,-9.852049492260116
-0.2127,-9.84214651316106
-0.2137000000000001,-9.81385228716376
-0.2147,-9.917126212053908
-0.2157000000000001,-10.004838312645537
-0.2167,-9.934102747652288
-0.21770000000000012,-9.965226396249319
-0.2187,-10.045864940341625
-0.21970000000000012,-10.017570714344325
-0.2207,-9.99635004484635
-0.22170000000000012,-10.092550413237172
-0.2227,-10.103868103636094
-0.22370000000000012,-10.051523785541084
-0.2247,-10.137821174832853
-0.22570000000000012,-10.212800873725701
-0.2267,-10.164700689530287
-0.22770000000000012,-10.21845971892516
-0.22870000000000001,-10.327392489014768
-0.22970000000000013,-10.280707016119223
-0.23070000000000002,-10.293439417818007
-0.23170000000000013,-10.382566229709504
-0.23270000000000002,-10.402372187907615
-0.23370000000000013,-10.376907384510044
-0.23470000000000002,-10.444813526903566
-0.23570000000000013,-10.515549091896817
-0.23670000000000002,-10.508475535397492
-0.2376999999999999,-10.569308121291689
-0.23870000000000002,-10.703705694778867
-0.2396999999999999,-10.686729159180487
-0.24070000000000003,-10.723511652976978
-0.24169999999999991,-10.853665092564562
-0.24270000000000003,-10.869226916863076
-0.24369999999999992,-10.864982782963482
-0.24470000000000003,-10.98523324345201
-0.24569999999999992,-11.067286498844181
-0.24670000000000003,-11.06162765364472
-0.24769999999999992,-11.122460239538919
-0.24870000000000003,-11.271004926024748
-0.24969999999999992,-11.268175503425017
-0.25070000000000003,-11.302128574621777
-0.2516999999999999,-11.447843838507877
-0.25270000000000004,-11.515749980901399
-0.2536999999999999,-11.527067671300317
-0.25470000000000004,-11.681271202985608
-0.2556999999999999,-11.776056860076565
-0.25670000000000004,-11.783130416575892
-0.25769999999999993,-11.916113278763204
-0.25870000000000004,-12.066072676548897
-0.25969999999999993,-12.094366902546199
-0.26070000000000004,-12.167931890139181
-0.26169999999999993,-12.340526668722715
-0.26270000000000004,-12.431068191914079
-0.26369999999999993,-12.481997798709218
-0.26470000000000005,-12.657421999892483
-0.26569999999999994,-12.808796108978042
-0.26670000000000005,-12.852652159273859
-0.26769999999999994,-13.00544097965928
-0.26870000000000005,-13.200671139040656
-0.26969999999999994,-13.269991992734044
-0.27070000000000005,-13.366192361124867
-0.27169999999999994,-13.557178386606648
-0.27270000000000005,-13.698649516593148
-0.27369999999999994,-13.81889997708168
-0.27470000000000006,-14.022618404262245
-0.27569999999999995,-14.231995676642269
-0.27670000000000006,-14.345172580631472
-0.27769999999999995,-14.57152638860988
-0.27870000000000006,-14.854468648582884
-0.27969999999999995,-14.98179266557074
-0.28070000000000006,-15.179852247551842
-0.28169999999999995,-15.4769416205235
-0.28270000000000006,-15.689148315503255
-0.28369999999999995,-15.858913671487063
-0.28470000000000006,-16.15600304445872
-0.28569999999999995,-16.424798191433077
-0.28670000000000007,-16.637004886412832
-0.28769999999999996,-16.93409425938449
-0.28870000000000007,-17.28777208435075
-0.28969999999999996,-17.556567231325104
-0.29070000000000007,-17.853656604296763
-0.29169999999999996,-18.306364220253574
-0.29270000000000007,-18.702483384215785
-0.29369999999999996,-19.070308322180697
-0.2947000000000001,-19.565457277133458
-0.29569999999999996,-20.03231200608892
-0.2967000000000001,-20.44257828304978
-0.29769999999999996,-20.994315689997144
-0.2987000000000001,-21.574347322941808
-0.29969999999999997,-22.111937616890522
-0.3007000000000001,-22.67782213683654
-0.30169999999999997,-23.399324899767706
-0.3027000000000001,-24.078386323702922
-0.30369999999999997,-24.729153521640843
-0.3047000000000001,-25.549686075562565
-0.30569999999999997,-26.440954194477534
-0.3067000000000001,-27.247339635400607
-0.3077,-28.251784658304786
-0.3087000000000001,-29.35525947219951
-0.3097,-30.402145834099635
-0.3107000000000001,-31.57635621298762
-0.3117,-32.92033194785941
-0.3127000000000001,-34.278454795729836
-0.3137,-35.707313208593526
-0.3147000000000001,-37.334231203438314
-0.3157,-39.074326102272316
-0.3167000000000001,-40.78612677510901
-0.3177,-42.71013414292546
-0.3187000000000001,-44.84634820572166
-0.3197,-46.96841515551922
-0.3207000000000001,-49.26024746130057
-0.3217,-51.8491691400536
-0.3227000000000001,-54.423943705807964
-0.3237,-57.097748062552874
-0.3247000000000001,-59.9696120012789
-0.3257,-62.96879995699278
-0.3267000000000001,-66.01042925170262
-0.3277,-69.22182390239624
-0.3287000000000001,-72.60298390907369
-0.3297,-75.8709670117619
-0.3307000000000001,-79.23797990544071
-0.3317,-82.84549372009654
-0.3327000000000001,-86.42471330875509
-0.3337,-89.97563867141633
-0.3347000000000001,-93.66803516406408
-0.3357,-97.31799031771587
-0.3367000000000001,-100.88306279337576
-0.3377,-104.5471650600262
-0.3387000000000001,-108.26785577867126
-0.3397,-111.8753695933271
-0.3407000000000001,-115.42629495598834
-0.3417,-119.03380877064419
-0.3427000000000001,-122.52814568131083
-0.3437,-125.96589413998288
-0.3447000000000001,-129.50267238964545
-0.3457,-132.89797950932152
-0.3467000000000001,-136.26499240300032
-0.3477,-139.75932931366697
-0.3487000000000001,-143.3102546763282
-0.3497,-146.7055617960043
-0.3507000000000001,-150.1008689156804
-0.3517,-153.35470490536997
-0.3527000000000001,-156.60854089505958
-0.3537,-159.57943462477613
-0.3547000000000001,-162.5503283544927
-0.3557,-165.8041643441823
-0.35670000000000013,-169.0580003338719
-0.3577,-172.31183632356147
-0.35870000000000013,-175.28273005327804
-0.3597,-178.1121526530081
-0.36070000000000013,-181.36598864269772
-0.3617,-184.33688237241427
-0.3626999999999999,-187.30777610213087
-0.3637,-190.27866983184742
-0.3646999999999999,-193.249563561564
-0.3657,-196.0789861612941
-0.3666999999999999,-199.19135102099716
-0.3677,-202.44518701068677
-0.3686999999999999,-205.55755187038983
-0.36970000000000003,-208.3869744701199
-0.3706999999999999,-211.07492593986345
-0.37170000000000003,-213.76287740960703
-0.3726999999999999,-216.4508288793506
-0.37370000000000003,-218.99730921910768
-0.3746999999999999,-221.82673181883774
-0.37570000000000003,-224.79762554855435
-0.3766999999999999,-227.62704814828442
-0.37770000000000004,-230.880884137974
-0.3786999999999999,-233.4273644777311
-0.37970000000000004,-235.97384481748813
-0.3806999999999999,-238.5203251572452
-0.38170000000000004,-241.20827662698875
-0.38269999999999993,-243.75475696674582
-0.38370000000000004,-246.01829504652986
-0.38469999999999993,-248.56477538628693
-0.38570000000000004,-251.25272685603056
-0.38669999999999993,-251.39419798601702
-0.38570000000000004,-249.41360216620598
-0.38469999999999993,-247.57447747638145
-0.38370000000000004,-245.59388165657037
-0.38269999999999993,-243.8962280967323
-0.38170000000000004,-241.77416114693477
-0.3806999999999999,-239.65209419713722
-0.37970000000000004,-237.53002724733966
-0.3786999999999999,-236.25678707746113
-0.37770000000000004,-234.27619125765005
-0.3766999999999999,-232.15412430785253
-0.37570000000000003,-230.17352848804146
-0.3746999999999999,-228.0514615382439
-0.37370000000000003,-225.92939458844637
-0.3726999999999999,-223.80732763864881
-0.37170000000000003,-221.68526068885126
-0.3706999999999999,-219.7046648690402
-0.36970000000000003,-217.44112678925615
-0.3686999999999999,-215.31905983945856
-0.3677,-213.19699288966103
-0.3666999999999999,-210.65051254990397
-0.3657,-208.6699167300929
-0.3646999999999999,-206.68932091028185
-0.3637,-204.2843117005113
-0.3626999999999999,-201.73783136075423
-0.3617,-199.47429328097016
-0.36070000000000013,-197.49369746115914
-0.3597,-195.23015938137505
-0.35870000000000013,-193.10809243157752
-0.3577,-191.12749661176645
-0.35670000000000013,-188.29807401203638
-0.3557,-186.31747819222534
-0.3547000000000001,-184.33688237241427
-0.3537,-182.49775768258974
-0.3527000000000001,-180.5171618627787
-0.3517,-178.53656604296762
-0.3507000000000001,-176.55597022315658
-0.3497,-174.71684553333202
-0.3487000000000001,-172.45330745354798
-0.3477,-170.33124050375042
-0.3467000000000001,-168.06770242396635
-0.3457,-165.8041643441823
-0.3447000000000001,-163.82356852437124
-0.3437,-161.5600304445872
-0.3427000000000001,-159.57943462477613
-0.3417,-157.45736767497857
-0.3407000000000001,-155.47677185516753
-0.3397,-153.49617603535648
-0.3387000000000001,-151.7985224755184
-0.3377,-149.6764555257209
-0.3367000000000001,-147.6958597059098
-0.3357,-145.85673501608528
-0.3347000000000001,-144.01761032626072
-0.3337,-142.17848563643616
-0.3327000000000001,-140.35350805961028
-0.3317,-138.71244295176686
-0.3307000000000001,-137.3260258778991
-0.3297,-135.31713583209077
-0.3287000000000001,-133.32239289928106
-0.3277,-131.53985666145113
-0.3267000000000001,-129.84220310161308
-0.3257,-128.04551975078445
-0.3247000000000001,-126.07907104397206
-0.3237,-123.88626852918125
-0.3227000000000001,-121.91981982236886
-0.3217,-120.70316810448492
-0.3207000000000001,-119.16113278763203
-0.3197,-117.33615521080614
-0.3187000000000001,-115.8931496849438
-0.3177,-114.25208457710036
-0.3167000000000001,-112.65346080825286
-0.3157,-111.1680139433946
-0.3147000000000001,-109.51280172255248
-0.3137,-108.1122375356861
-0.3127000000000001,-106.4287310888467
-0.3117,-104.83010731999921
-0.3107000000000001,-103.18904221215577
-0.3097,-101.51968287831504
-0.3087000000000001,-99.92105910946754
-0.3077,-98.20925843663085
-0.3067000000000001,-96.4833106507955
-0.30569999999999997,-94.98371667293856
-0.3047000000000001,-93.54071114707622
-0.30369999999999997,-91.82891047423954
-0.3027000000000001,-90.14540402740013
-0.30169999999999997,-88.5043389195567
-0.3007000000000001,-87.10377473269031
-0.29969999999999997,-85.53344518984011
-0.2987000000000001,-84.07629255097913
-0.29769999999999996,-82.63328702511679
-0.2967000000000001,-80.99222191727335
-0.29569999999999996,-79.45018660042047
-0.2947000000000001,-78.10621086554868
-0.29369999999999996,-76.50758709670117
-0.29270000000000007,-74.96555177984828
-0.29169999999999996,-73.63572315797516
-0.29070000000000007,-72.20686474511147
-0.28969999999999996,-70.69312365425588
-0.28870000000000007,-69.53306038836655
-0.28769999999999996,-68.14664331449882
-0.28670000000000007,-66.66119644964053
-0.28569999999999995,-65.2464851497755
-0.28470000000000006,-63.98739209289561
-0.28369999999999995,-62.53023945403463
-0.28270000000000006,-61.15796949316553
-0.28169999999999995,-59.92717066228296
-0.28070000000000006,-58.65393049240442
-0.27969999999999995,-57.36654320952724
-0.27870000000000006,-56.1781857176406
-0.27769999999999995,-54.933239773759375
-0.27670000000000006,-53.67414671687949
-0.27569999999999995,-52.471642111994214
-0.27470000000000006,-51.24084328111163
-0.27369999999999994,-50.010044450229046
-0.27270000000000005,-48.77924561934647
-0.27169999999999994,-47.689917918450384
-0.27070000000000005,-46.501560426563756
-0.26969999999999994,-45.32735004767578
-0.26870000000000005,-44.195581007783744
-0.26769999999999994,-43.077959080890366
-0.26670000000000005,-41.90374870200238
-0.26569999999999994,-40.88515656609956
