Potential V vs RHE, Current mA cm-2
0.013299999999999867,10.727755786876573
0.012299999999999978,9.287579683613965
0.011299999999999866,7.892674341947039
0.010299999999999976,6.540210339276065
0.009299999999999864,5.275458437196722
0.008299999999999974,3.9668504848215624
0.007299999999999862,2.745954633038036
0.006299999999999972,1.4812027309586933
0.00529999999999986,0.2594580523952477
0.0042999999999999705,-0.9617207416482519
0.0032999999999998586,-2.1390434853959355
0.0022999999999999687,-3.317497998183511
0.0012999999999998568,-4.538393849967037
0.00029999999999996696,-5.672992312458796
-0.000700000000000145,-6.850032113946507
-0.0017000000000000348,-8.027071915434218
-0.0027000000000001467,-9.161670377925978
-0.0037000000000000366,-10.296268840417738
-0.0047000000000001485,-11.42945259160963
-0.005700000000000038,-12.56405105410139
-0.00670000000000015,-13.698649516593148
-0.00770000000000004,-14.783733083589633
-0.008700000000000152,-15.830619445489761
-0.009700000000000042,-16.919947146385837
-0.010700000000000154,-17.966833508285966
-0.011700000000000044,-19.01371987018609
-0.012700000000000156,-20.10304757108217
-0.013700000000000045,-21.107492593986347
-0.014700000000000157,-22.15437895588647
-0.015700000000000047,-23.15882397879065
-0.01670000000000016,-24.20571034069078
-0.01770000000000005,-25.167714024599
-0.01870000000000016,-26.129717708507226
-0.01970000000000005,-27.134162731411404
-0.020700000000000163,-28.09616641531963
-0.021700000000000053,-29.058170099227848
-0.022700000000000164,-30.00602667013743
-0.023700000000000054,-30.968030354045652
-0.024700000000000166,-31.972475376949827
-0.025700000000000056,-32.93447906085806
-0.026700000000000168,-33.93892408376223
-0.027700000000000058,-34.94336910666641
-0.02870000000000017,-36.03269680756248
-0.02970000000000006,-36.99470049147071
-0.03070000000000017,-37.99914551437489
-0.03170000000000006,-38.98944342428042
-0.03270000000000017,-39.99388844718459
-0.03370000000000006,-40.99833347008877
-0.034700000000000175,-42.00277849299294
-0.035700000000000065,-43.007223515897124
-0.03670000000000018,-43.96922719980534
-0.03770000000000007,-44.84634820572166
-0.03870000000000018,-45.70932209863933
-0.03970000000000007,-46.586443104555656
-0.04070000000000018,-47.46356411047198
-0.04170000000000007,-48.2840966643937
-0.04270000000000018,-49.16121767031002
-0.04370000000000007,-50.0807800152223
-0.044700000000000184,-50.98619524713592
-0.045700000000000074,-51.90575759204819
-0.046700000000000186,-52.82531993696047
-0.047700000000000076,-53.74488228187274
-0.04870000000000019,-54.65029751378637
-0.04970000000000008,-55.56985985869864
-0.05070000000000019,-56.404539525619015
-0.05170000000000008,-57.30995475753264
-0.05270000000000019,-58.10219308545706
-0.05370000000000008,-58.92272563937878
-0.05470000000000019,-59.757405306299155
-0.05570000000000008,-60.59208497321952
-0.056700000000000195,-61.412617527141244
-0.057700000000000085,-62.20485585506566
-0.058700000000000196,-63.02538840898739
-0.059700000000000086,-63.860068075907755
-0.0607000000000002,-64.68060062982947
-0.06170000000000009,-65.60016297474175
-0.0627000000000002,-66.43484264166212
-0.06370000000000009,-67.25537519558385
-0.0647000000000002,-68.13249620150016
-0.06570000000000009,-69.0096172074165
-0.0667000000000002,-69.87259110033416
-0.0677000000000001,-70.79215344524643
-0.0687000000000002,-71.6268331121668
-0.0697000000000001,-72.48980700508447
-0.07070000000000021,-73.3669280110008
-0.0717000000000001,-74.24404901691713
-0.07270000000000021,-75.14946424883075
-0.0737000000000001,-75.98414391575112
-0.07470000000000021,-76.81882358267148
-0.0757000000000001,-77.59691479759726
-0.07670000000000021,-78.33256467352709
-0.0777000000000001,-79.1248030014515
-0.07870000000000021,-79.86045287738132
-0.0797000000000001,-80.61024986630979
-0.08070000000000022,-81.3458997422396
-0.0817000000000001,-82.09569673116808
-0.08270000000000022,-82.8313466070979
-0.08370000000000011,-83.56699648302772
-0.08470000000000022,-84.31679347195619
-0.08570000000000011,-85.13732602587791
-0.08670000000000022,-86.01444703179425
-0.08770000000000011,-86.89156803771054
-0.08870000000000022,-87.75454193062824
-0.08970000000000011,-88.5892215975486
-0.09070000000000022,-89.46634260346492
-0.09170000000000011,-90.28687515738663
-0.09270000000000023,-91.03667214631511
-0.09370000000000012,-91.72988068324898
-0.09470000000000023,-92.50797189817473
-0.09570000000000012,-93.25776888710321
-0.09670000000000023,-93.99341876303303
-0.09770000000000012,-94.8280984299534
-0.09870000000000023,-95.56374830588322
-0.09970000000000012,-96.31354529481169
-0.10070000000000023,-97.09163650973747
-0.10170000000000012,-97.88387483766188
-0.10270000000000024,-98.7044073915836
-0.10370000000000013,-99.53908705850398
-0.10470000000000024,-100.31717827342976
-0.10570000000000013,-101.06697526235823
-0.10670000000000024,-101.84506647728399
-0.10770000000000013,-102.63730480520842
-0.10870000000000024,-103.41539602013418
-0.10970000000000013,-104.25007568705455
-0.11070000000000024,-105.02816690198033
-0.11170000000000013,-105.82040522990474
-0.11270000000000002,-106.51361376683862
-0.11370000000000013,-107.26341075576708
-0.11470000000000002,-107.95661929270095
-0.11570000000000014,-108.69226916863077
-0.11670000000000003,-109.30059502757274
-0.11770000000000014,-109.9655093385093
-0.11870000000000003,-110.65871787544317
-0.11970000000000014,-111.394367751373
-0.12070000000000003,-112.18660607929739
-0.12170000000000014,-112.92225595522721
-0.12270000000000003,-113.67205294415571
-0.12370000000000014,-114.4925854980774
-0.12470000000000003,-115.32726516499778
-0.12570000000000014,-116.20438617091412
-0.12670000000000003,-117.10980140282774
-0.12770000000000015,-118.02936374774
-0.12870000000000004,-118.86404341466037
-0.12970000000000015,-119.64213462958614
-0.13070000000000004,-120.39193161851462
-0.13170000000000015,-121.0851401554485
-0.13270000000000004,-121.82079003137831
-0.13370000000000015,-122.52814568131083
-0.13470000000000004,-123.1364715402528
-0.13570000000000015,-123.78723873819072
-0.13670000000000004,-124.43800593612862
-0.13770000000000016,-125.14536158606113
-0.13870000000000005,-125.83857012299501
-0.13970000000000016,-126.44689598193698
-0.14070000000000005,-127.05522184087894
-0.14170000000000016,-127.66354769982091
-0.14270000000000005,-128.37090334975343
-0.14370000000000016,-129.0641118866873
-0.14470000000000005,-129.79976176261712
-0.14570000000000016,-130.59200009054155
-0.14670000000000005,-131.37009130546733
-0.14770000000000016,-132.20477097238768
-0.14870000000000005,-133.1667746562959
-0.14970000000000017,-134.21366101819604
-0.15070000000000006,-135.2181060411002
-0.15170000000000017,-136.1801097250084
-0.15270000000000006,-137.08552495692206
-0.15370000000000017,-137.9626459628384
-0.15470000000000006,-138.6982958387682
-0.15570000000000017,-139.36321014970477
-0.15670000000000006,-139.8866533306548
-0.15770000000000017,-140.41009651160488
-0.15870000000000006,-140.84865701456303
-0.15970000000000018,-141.2306290655266
-0.16070000000000007,-141.75407224647665
-0.16170000000000018,-142.17848563643616
-0.16270000000000007,-142.7443701563822
-0.16370000000000018,-143.3102546763282
-0.16470000000000007,-143.87613919627424
-0.16570000000000018,-144.58349484620675
-0.16670000000000007,-145.29085049613926
-0.16770000000000018,-146.1396772760583
-0.16870000000000007,-146.8470329259908
-0.16970000000000018,-147.55438857592333
-0.17070000000000007,-148.40321535584232
-0.17170000000000019,-149.1105710057749
-0.17270000000000008,-150.1008689156804
-0.1737000000000002,-150.94969569559944
-0.17470000000000008,-151.93999360550492
-0.1757000000000002,-152.78882038542397
-0.17670000000000008,-153.77911829532948
-0.1777000000000002,-154.76941620523502
-0.17870000000000008,-155.75971411514055
-0.1797000000000002,-156.60854089505958
-0.18070000000000008,-157.31589654499206
-0.1817000000000002,-157.88178106493808
-0.18270000000000008,-158.4476655848841
-0.1837000000000002,-158.87207897484362
-0.1847000000000001,-159.43796349478964
-0.1857000000000002,-159.86237688474912
-0.1867000000000001,-160.28679027470866
-0.1877000000000002,-161.1356170546277
-0.1887000000000001,-162.12591496453322
-0.1897000000000002,-162.8332706144657
-0.1907000000000001,-163.39915513441173
-0.1917000000000001,-164.10651078434424
-0.19269999999999998,-164.81386643427678
-0.1937000000000001,-165.6626932141958
-0.19469999999999998,-166.51151999411482
-0.1957000000000001,-167.21887564404733
-0.19669999999999999,-167.92623129397984
-0.1977000000000001,-168.63358694391238
-0.1987,-169.3409425938449
-0.1997000000000001,-169.9068271137909
-0.2007,-170.61418276372342
-0.2017000000000001,-171.03859615368293
-0.2027,-171.74595180361547
-0.2037000000000001,-172.17036519357498
-0.2047,-172.73624971352098
-0.2057000000000001,-173.44360536345349
-0.2067,-174.0094898833995
-0.2077000000000001,-174.57537440334553
-0.2087,-175.28273005327804
-0.2097000000000001,-176.13155683319707
-0.2107,-176.8389124831296
-0.2117000000000001,-177.6877392630486
-0.2127,-178.53656604296762
-0.2137000000000001,-179.10245056291362
-0.2147,-179.80980621284618
-0.2157000000000001,-180.5171618627787
-0.2167,-181.2245175127112
-0.21770000000000012,-181.93187316264374
-0.2187,-182.49775768258974
-0.21970000000000012,-182.92217107254925
-0.2207,-183.48805559249527
-0.22170000000000012,-184.19541124242778
-0.2227,-184.9027668923603
-0.22370000000000012,-185.46865141230631
-0.2247,-186.03453593225234
-0.22570000000000012,-186.45894932221185
-0.2267,-187.02483384215788
-0.22770000000000012,-187.59071836210387
-0.22870000000000001,-188.4395451420229
-0.22970000000000013,-189.2883719219419
-0.23070000000000002,-190.27866983184742
-0.23170000000000013,-191.12749661176645
-0.23270000000000002,-192.11779452167198
-0.23370000000000013,-192.82515017160452
-0.23470000000000002,-193.3910346915505
-0.23570000000000013,-193.81544808151003
-0.23670000000000002,-194.38133260145605
-0.2376999999999999,-194.80574599141553
-0.23870000000000002,-195.23015938137505
-0.2396999999999999,-195.65457277133459
-0.24070000000000003,-196.3619284212671
-0.24169999999999991,-197.63516859114563
-0.24270000000000003,-197.63516859114563
-0.24369999999999992,-198.20105311109162
-0.24470000000000003,-198.76693763103765
-0.24569999999999992,-199.61576441095667
-0.24670000000000003,-200.04017780091618
-0.24769999999999992,-200.6060623208622
-0.24870000000000003,-201.31341797079472
-0.24969999999999992,-201.73783136075423
-0.25070000000000003,-202.44518701068677
-0.2516999999999999,-204.42578283049778
-0.25270000000000004,-205.98196526034934
-0.2536999999999999,-204.7087250904708
-0.25470000000000004,-204.7087250904708
-0.2556999999999999,-205.41608074040332
-0.25670000000000004,-209.94315689997146
-0.25769999999999993,-211.782281589796
-0.25870000000000004,-212.34816610974204
-0.25969999999999993,-213.05552175967455
-0.26070000000000004,-213.62140627962054
-0.26169999999999993,-208.95285899006592
-0.26270000000000004,-209.51874351001192
-0.26369999999999993,-210.65051254990397
-0.26470000000000005,-214.04581966958003
-0.26569999999999994,-215.4605309694451
-0.26670000000000005,-216.4508288793506
-0.26769999999999994,-217.29965565926966
-0.26870000000000005,-218.14848243918865
-0.26969999999999994,-218.43142469916165
-0.27070000000000005,-218.43142469916165
-0.27169999999999994,-216.4508288793506
-0.27270000000000005,-217.44112678925615
-0.27369999999999994,-217.29965565926966
-0.27470000000000006,-219.98760712901318
-0.27569999999999995,-222.81702972874328
-0.27670000000000006,-223.38291424868927
-0.27769999999999995,-223.6658565086623
-0.27870000000000006,-224.09026989862178
-0.27969999999999995,-224.93909667854084
-0.28070000000000006,-225.36351006850035
-0.28169999999999995,-226.07086571843288
-0.28270000000000006,-226.77822136836537
-0.28369999999999995,-227.34410588831142
-0.28470000000000006,-227.9099904082574
-0.28569999999999995,-228.47587492820347
-0.28670000000000007,-229.18323057813595
-0.28769999999999996,-229.74911509808197
-0.28870000000000007,-230.31499961802797
-0.28969999999999996,-230.880884137974
-0.29070000000000007,-231.44676865792
-0.29169999999999996,-232.01265317786604
-0.29270000000000007,-232.43706656782552
-0.29369999999999996,-231.0223552679605
-0.2947000000000001,-229.18323057813595
-0.29569999999999996,-231.8711820478795
-0.2967000000000001,-234.7006046476096
-0.29769999999999996,-235.40796029754208
-0.2987000000000001,-235.69090255751513
-0.29969999999999997,-235.69090255751513
-0.3007000000000001,-234.7006046476096
-0.30169999999999997,-233.85177786769057
-0.3027000000000001,-233.71030673770406
-0.30369999999999997,-234.9835469075826
-0.3047000000000001,-235.12501803756908
-0.30569999999999997,-236.82267159740715
-0.3067000000000001,-237.9544406372992
-0.3077,-237.10561385738015
-0.3087000000000001,-237.81296950731266
-0.3097,-239.2276808071777
-0.3107000000000001,-237.10561385738015
-0.3117,-236.1153159474746
-0.3127000000000001,-236.1153159474746
-0.3137,-235.83237368750162
-0.3147000000000001,-236.53972933743412
-0.3157,-237.9544406372992
-0.3167000000000001,-238.5203251572452
-0.3177,-238.8032674172182
-0.3187000000000001,-238.94473854720468
-0.3197,-239.65209419713722
-0.3207000000000001,-240.50092097705624
-0.3217,-240.92533436701575
-0.3227000000000001,-241.6326900169483
-0.3237,-242.34004566688077
-0.3247000000000001,-243.18887244679982
-0.3257,-243.75475696674582
-0.3267000000000001,-244.46211261667833
-0.3277,-245.02799713662432
-0.3287000000000001,-246.4427084364894
-0.3297,-247.57447747638145
-0.3307000000000001,-246.4427084364894
-0.3317,-246.30123730650286
-0.3327000000000001,-246.5841795664759
-0.3337,-247.1500640864219
-0.3347000000000001,-247.4330063463949
-0.3357,-247.85741973635444
-0.3367000000000001,-248.28183312631393
-0.3377,-248.84771764625998
-0.3387000000000001,-249.2721310362195
-0.3397,-249.69654442617897
-0.3407000000000001,-250.1209578161385
-0.3417,-250.545371206098
-0.3427000000000001,-251.111255726044
-0.3437,-251.53566911600356
-0.3447000000000001,-251.96008250596302
-0.3457,-252.243024765936
-0.3467000000000001,-252.52596702590907
-0.3477,-252.80890928588207
-0.3487000000000001,-253.09185154585506
-0.3497,-253.23332267584152
-0.3507000000000001,-253.65773606580112
-0.3517,-253.94067832577412
-0.3527000000000001,-254.2236205857471
-0.3537,-254.64803397570657
-0.3547000000000001,-255.21391849565262
-0.3557,-255.63833188561213
-0.35670000000000013,-256.20421640555816
-0.3577,-256.62862979551767
-0.35870000000000013,-256.91157205549064
-0.3597,-257.1945143154637
-0.36070000000000013,-257.90186996539614
-0.3617,-258.8921678753017
-0.3626999999999999,-259.7409946552208
-0.3637,-260.4483503051532
-0.3646999999999999,-261.1557059550858
-0.3657,-261.8630616050183
-0.3666999999999999,-262.57041725495077
-0.3677,-263.13630177489676
-0.3686999999999999,-263.56071516485633
-0.36970000000000003,-263.98512855481584
-0.3706999999999999,-264.2680708147888
-0.37170000000000003,-264.40954194477536
-0.3726999999999999,-264.55101307476184
-0.37370000000000003,-264.55101307476184
-0.3746999999999999,-264.55101307476184
-0.37570000000000003,-264.40954194477536
-0.3766999999999999,-264.40954194477536
-0.37770000000000004,-264.40954194477536
-0.3786999999999999,-264.40954194477536
-0.37970000000000004,-264.40954194477536
-0.3806999999999999,-264.40954194477536
-0.38170000000000004,-264.6924842047484
-0.38269999999999993,-264.9754264647214
-0.38370000000000004,-265.2583687246944
-0.38469999999999993,-265.82425324464043
-0.38570000000000004,-266.2486666345999
-0.38669999999999993,-265.82425324464043
-0.38570000000000004,-263.56071516485633
-0.38469999999999993,-261.7215904750318
-0.38370000000000004,-259.7409946552208
-0.38269999999999993,-257.76039883540966
-0.38170000000000004,-255.92127414558513
-0.3806999999999999,-253.65773606580112
-0.37970000000000004,-251.67714024599002
-0.3786999999999999,-249.5550732961925
-0.37770000000000004,-247.57447747638145
-0.3766999999999999,-245.59388165657037
-0.37570000000000003,-243.75475696674582
-0.3746999999999999,-241.9156322769213
-0.37370000000000003,-239.93503645711021
-0.3726999999999999,-237.81296950731266
-0.37170000000000003,-235.54943142752862
-0.3706999999999999,-233.28589334774458
-0.36970000000000003,-230.880884137974
-0.3686999999999999,-228.61734605818995
-0.3677,-226.35380797840588
-0.3666999999999999,-223.9487987686353
-0.3657,-226.35380797840588
-0.3646999999999999,-196.50339955125358
-0.3637,-195.79604390132107
-0.3626999999999999,-193.9569192114965
-0.3617,-192.2592656516585
-0.36070000000000013,-190.70308322180696
-0.3597,-189.2883719219419
-0.35870000000000013,-187.87366062207687
-0.3577,-186.45894932221185
-0.35670000000000013,-185.1857091523333
-0.3557,-183.91246898245475
-0.3547000000000001,-182.78069994256273
-0.3537,-181.64893090267074
-0.3527000000000001,-180.37569073279218
-0.3517,-179.24392169290016
-0.3507000000000001,-178.1121526530081
-0.3497,-176.8389124831296
-0.3487000000000001,-175.42420118326456
-0.3477,-174.150961013386
-0.3467000000000001,-173.01919197349397
-0.3457,-171.74595180361547
-0.3447000000000001,-170.33124050375042
-0.3437,-168.91652920388537
-0.3427000000000001,-167.36034677403384
-0.3417,-165.8041643441823
-0.3407000000000001,-164.10651078434424
-0.3397,-162.40885722450622
-0.3387000000000001,-160.71120366466818
-0.3377,-158.87207897484362
-0.3367000000000001,-157.03295428501906
-0.3357,-155.19382959519453
-0.3347000000000001,-153.21323377538346
-0.3337,-151.37410908555893
-0.3327000000000001,-149.53498439573437
-0.3317,-147.55438857592333
-0.3307000000000001,-145.7152638860988
-0.3297,-143.87613919627424
-0.3287000000000001,-142.03701450644968
-0.3277,-140.4949791895968
-0.3267000000000001,-138.88220830775063
-0.3257,-137.3543201038964
-0.3247000000000001,-135.95375591703004
-0.3237,-134.6522215211542
-0.3227000000000001,-133.46386402926754
-0.3217,-132.41697766736743
-0.3207000000000001,-131.46912109645783
-0.3197,-130.50711741254963
-0.3187000000000001,-129.5451137286414
-0.3177,-128.62555138372915
-0.3167000000000001,-127.62110636082497
-0.3157,-126.61666133792076
-0.3147000000000001,-125.5273336370247
-0.3137,-124.31068191914078
-0.3127000000000001,-123.05158886226087
-0.3117,-121.60858333639854
-0.3107000000000001,-120.08069513254432
-0.3097,-118.46792425069816
-0.3087000000000001,-116.77027069086012
-0.3077,-115.01602867902749
-0.3067000000000001,-113.27593378019348
-0.30569999999999997,-111.4509562033676
-0.3047000000000001,-109.73915553053091
-0.30369999999999997,-108.0839433096888
-0.3027000000000001,-106.4287310888467
-0.30169999999999997,-104.81596020700057
-0.3007000000000001,-103.24563066415038
-0.29969999999999997,-101.71774246029614
-0.2987000000000001,-100.23229559543785
-0.29769999999999996,-98.88831986056607
-0.2967000000000001,-97.61507969068752
-0.29569999999999996,-96.35598663380765
-0.2947000000000001,-95.26665893291157
-0.29369999999999996,-94.21977257101145
-0.29270000000000007,-93.21532754810727
-0.29169999999999996,-92.29576520319499
-0.29070000000000007,-91.37620285828272
-0.28969999999999996,-90.47078762636909
-0.28870000000000007,-89.50878394246087
-0.28769999999999996,-88.46189758056073
-0.28670000000000007,-87.33012854066871
-0.28569999999999995,-86.22665372677399
-0.28470000000000006,-85.01000200889004
-0.28369999999999995,-83.75090895201016
-0.28270000000000006,-82.52011012112759
-0.28169999999999995,-81.21857572525175
-0.28070000000000006,-79.90289421637728
-0.27969999999999995,-78.55891848150549
-0.27870000000000006,-77.20079563363505
-0.27769999999999995,-75.85681989876326
-0.27670000000000006,-74.49869705089283
-0.27569999999999995,-73.09813286402644
-0.27470000000000006,-71.7117157901587
-0.27369999999999994,-70.31115160329232
-0.27270000000000005,-69.0096172074165
-0.27169999999999994,-67.7788183765339
-0.27070000000000005,-66.56216665864997
-0.26969999999999994,-65.34551494076604
-0.26870000000000005,-64.15715744887942
