Mar. 11, 2025   21:15:24
Cyclic Voltammetry
File: c:/users/guazh/data/banditlqround7_x0exp891_r5/2025-03-03-exp880\exp880-2025-03-11t20_47_00-h2koh\exp880_cv_sr_600mvs_efin_-1900mv.bin
Data Source:  Experiment
Instrument Model:  CHI760E
Header: CV ran at 600 mVs
Note: 

Init E (V) = -1
High E (V) = -1
Low E (V) = -1.9
Final E (V) = -1
Init P/N = N
Scan Rate (V/s) = 0.6
Segment = 3
Sample Interval (V) = 0.001
Quiet Time (sec) = 2
Sensitivity (A/V) = 0.01
Comp R (ohm) = 1.8

Results:

Channel 1:
Segment 1:

Segment 2:

Segment 3:

Potential/V, Current/A

-1.000, 3.239e-6
-1.001, 3.239e-6
-1.002, 3.239e-6
-1.003, 3.239e-6
-1.004, 3.239e-6
-1.005, 3.239e-6
-1.006, 3.239e-6
-1.007, 3.239e-6
-1.008, 3.239e-6
-1.009, 3.239e-6
-1.010, 3.239e-6
-1.011, 3.239e-6
-1.012, 3.239e-6
-1.013, 3.239e-6
-1.014, 3.239e-6
-1.015, 3.239e-6
-1.016, 3.239e-6
-1.017, 6.322e-6
-1.018, 3.239e-6
-1.019, 3.239e-6
-1.020, 6.322e-6
-1.021, 3.239e-6
-1.022, 6.322e-6
-1.023, 6.322e-6
-1.024, 3.239e-6
-1.025, 6.322e-6
-1.026, 6.322e-6
-1.027, 3.239e-6
-1.028, 6.322e-6
-1.029, 6.322e-6
-1.030, 3.239e-6
-1.031, 6.322e-6
-1.032, 6.322e-6
-1.033, 3.239e-6
-1.034, 6.322e-6
-1.035, 3.239e-6
-1.036, 6.322e-6
-1.037, 6.322e-6
-1.038, 6.322e-6
-1.039, 6.322e-6
-1.040, 6.322e-6
-1.041, 6.322e-6
-1.042, 6.322e-6
-1.043, 6.322e-6
-1.044, 3.239e-6
-1.045, 6.322e-6
-1.046, 6.322e-6
-1.047, 6.322e-6
-1.048, 6.322e-6
-1.049, 6.322e-6
-1.050, 6.322e-6
-1.051, 6.322e-6
-1.052, 6.322e-6
-1.053, 6.322e-6
-1.054, 6.322e-6
-1.055, 6.322e-6
-1.056, 6.322e-6
-1.057, 6.322e-6
-1.058, 6.322e-6
-1.059, 6.322e-6
-1.060, 6.322e-6
-1.061, 6.322e-6
-1.062, 6.322e-6
-1.063, 6.322e-6
-1.064, 6.322e-6
-1.065, 6.322e-6
-1.066, 6.322e-6
-1.067, 6.322e-6
-1.068, 6.322e-6
-1.069, 6.322e-6
-1.070, 3.239e-6
-1.071, 6.322e-6
-1.072, 6.322e-6
-1.073, 6.322e-6
-1.074, 6.322e-6
-1.075, 6.322e-6
-1.076, 6.322e-6
-1.077, 6.322e-6
-1.078, 6.322e-6
-1.079, 6.322e-6
-1.080, 6.322e-6
-1.081, 6.322e-6
-1.082, 6.322e-6
-1.083, 6.322e-6
-1.084, 6.322e-6
-1.085, 6.322e-6
-1.086, 6.322e-6
-1.087, 6.322e-6
-1.088, 6.322e-6
-1.089, 6.322e-6
-1.090, 6.322e-6
-1.091, 6.322e-6
-1.092, 6.322e-6
-1.093, 6.322e-6
-1.094, 6.322e-6
-1.095, 6.322e-6
-1.096, 6.322e-6
-1.097, 6.322e-6
-1.098, 6.322e-6
-1.099, 6.322e-6
-1.100, 6.322e-6
-1.101, 6.322e-6
-1.102, 6.322e-6
-1.103, 6.322e-6
-1.104, 6.322e-6
-1.105, 6.322e-6
-1.106, 6.322e-6
-1.107, 6.322e-6
-1.108, 6.322e-6
-1.109, 6.322e-6
-1.110, 6.322e-6
-1.111, 6.322e-6
-1.112, 6.322e-6
-1.113, 6.322e-6
-1.114, 6.322e-6
-1.115, 6.322e-6
-1.116, 6.322e-6
-1.117, 6.322e-6
-1.118, 6.322e-6
-1.119, 6.322e-6
-1.120, 6.322e-6
-1.121, 9.405e-6
-1.122, 6.322e-6
-1.123, 6.322e-6
-1.124, 6.322e-6
-1.125, 6.322e-6
-1.126, 6.322e-6
-1.127, 6.322e-6
-1.128, 6.322e-6
-1.129, 6.322e-6
-1.130, 6.322e-6
-1.131, 6.322e-6
-1.132, 6.322e-6
-1.133, 6.322e-6
-1.134, 6.322e-6
-1.135, 6.322e-6
-1.136, 6.322e-6
-1.137, 6.322e-6
-1.138, 6.322e-6
-1.139, 6.322e-6
-1.140, 6.322e-6
-1.141, 6.322e-6
-1.142, 6.322e-6
-1.143, 6.322e-6
-1.144, 6.322e-6
-1.145, 6.322e-6
-1.146, 6.322e-6
-1.147, 6.322e-6
-1.148, 6.322e-6
-1.149, 9.405e-6
-1.150, 6.322e-6
-1.151, 6.322e-6
-1.152, 6.322e-6
-1.153, 9.405e-6
-1.154, 6.322e-6
-1.155, 9.405e-6
-1.156, 6.322e-6
-1.157, 6.322e-6
-1.158, 6.322e-6
-1.159, 6.322e-6
-1.160, 6.322e-6
-1.161, 9.405e-6
-1.162, 6.322e-6
-1.163, 6.322e-6
-1.164, 6.322e-6
-1.165, 6.322e-6
-1.166, 9.405e-6
-1.167, 9.405e-6
-1.168, 6.322e-6
-1.169, 9.405e-6
-1.170, 6.322e-6
-1.171, 6.322e-6
-1.172, 9.405e-6
-1.173, 9.405e-6
-1.174, 6.322e-6
-1.175, 9.405e-6
-1.176, 6.322e-6
-1.177, 6.322e-6
-1.178, 9.405e-6
-1.179, 6.322e-6
-1.180, 6.322e-6
-1.181, 9.405e-6
-1.182, 6.322e-6
-1.183, 6.322e-6
-1.184, 6.322e-6
-1.185, 6.322e-6
-1.186, 6.322e-6
-1.187, 9.405e-6
-1.188, 9.405e-6
-1.189, 6.322e-6
-1.190, 9.405e-6
-1.191, 6.322e-6
-1.192, 9.405e-6
-1.193, 9.405e-6
-1.194, 6.322e-6
-1.195, 9.405e-6
-1.196, 9.405e-6
-1.197, 9.405e-6
-1.198, 9.405e-6
-1.199, 9.405e-6
-1.200, 6.322e-6
-1.201, 9.405e-6
-1.202, 9.405e-6
-1.203, 6.322e-6
-1.204, 9.405e-6
-1.205, 9.405e-6
-1.206, 9.405e-6
-1.207, 9.405e-6
-1.208, 9.405e-6
-1.209, 9.405e-6
-1.210, 9.405e-6
-1.211, 9.405e-6
-1.212, 9.405e-6
-1.213, 9.405e-6
-1.214, 9.405e-6
-1.215, 9.405e-6
-1.216, 9.405e-6
-1.217, 9.405e-6
-1.218, 9.405e-6
-1.219, 9.405e-6
-1.220, 9.405e-6
-1.221, 9.405e-6
-1.222, 9.405e-6
-1.223, 6.322e-6
-1.224, 9.405e-6
-1.225, 9.405e-6
-1.226, 9.405e-6
-1.227, 9.405e-6
-1.228, 9.405e-6
-1.229, 9.405e-6
-1.230, 9.405e-6
-1.231, 9.405e-6
-1.232, 9.405e-6
-1.233, 9.405e-6
-1.234, 9.405e-6
-1.235, 9.405e-6
-1.236, 9.405e-6
-1.237, 6.322e-6
-1.238, 9.405e-6
-1.239, 9.405e-6
-1.240, 9.405e-6
-1.241, 9.405e-6
-1.242, 9.405e-6
-1.243, 9.405e-6
-1.244, 9.405e-6
-1.245, 9.405e-6
-1.246, 9.405e-6
-1.247, 9.405e-6
-1.248, 9.405e-6
-1.249, 9.405e-6
-1.250, 9.405e-6
-1.251, 9.405e-6
-1.252, 9.405e-6
-1.253, 9.405e-6
-1.254, 9.405e-6
-1.255, 9.405e-6
-1.256, 9.405e-6
-1.257, 9.405e-6
-1.258, 9.405e-6
-1.259, 9.405e-6
-1.260, 9.405e-6
-1.261, 9.405e-6
-1.262, 9.405e-6
-1.263, 9.405e-6
-1.264, 9.405e-6
-1.265, 9.405e-6
-1.266, 9.405e-6
-1.267, 9.405e-6
-1.268, 9.405e-6
-1.269, 9.405e-6
-1.270, 9.405e-6
-1.271, 9.405e-6
-1.272, 9.405e-6
-1.273, 1.249e-5
-1.274, 9.405e-6
-1.275, 9.405e-6
-1.276, 9.405e-6
-1.277, 9.405e-6
-1.278, 9.405e-6
-1.279, 1.249e-5
-1.280, 9.405e-6
-1.281, 1.249e-5
-1.282, 9.405e-6
-1.283, 9.405e-6
-1.284, 9.405e-6
-1.285, 9.405e-6
-1.286, 9.405e-6
-1.287, 9.405e-6
-1.288, 9.405e-6
-1.289, 9.405e-6
-1.290, 9.405e-6
-1.291, 9.405e-6
-1.292, 9.405e-6
-1.293, 9.405e-6
-1.294, 9.405e-6
-1.295, 9.405e-6
-1.296, 1.249e-5
-1.297, 9.405e-6
-1.298, 9.405e-6
-1.299, 9.405e-6
-1.300, 9.405e-6
-1.301, 9.405e-6
-1.302, 1.249e-5
-1.303, 9.405e-6
-1.304, 9.405e-6
-1.305, 9.405e-6
-1.306, 9.405e-6
-1.307, 9.405e-6
-1.308, 9.405e-6
-1.309, 9.405e-6
-1.310, 9.405e-6
-1.311, 1.249e-5
-1.312, 9.405e-6
-1.313, 9.405e-6
-1.314, 1.249e-5
-1.315, 9.405e-6
-1.316, 1.249e-5
-1.317, 9.405e-6
-1.318, 9.405e-6
-1.319, 1.249e-5
-1.320, 1.249e-5
-1.321, 9.405e-6
-1.322, 1.249e-5
-1.323, 1.249e-5
-1.324, 1.249e-5
-1.325, 1.249e-5
-1.326, 1.249e-5
-1.327, 9.405e-6
-1.328, 1.249e-5
-1.329, 1.249e-5
-1.330, 1.249e-5
-1.331, 1.249e-5
-1.332, 1.249e-5
-1.333, 9.405e-6
-1.334, 1.249e-5
-1.335, 1.249e-5
-1.336, 1.249e-5
-1.337, 1.249e-5
-1.338, 9.405e-6
-1.339, 1.249e-5
-1.340, 1.249e-5
-1.341, 1.249e-5
-1.342, 1.249e-5
-1.343, 1.249e-5
-1.344, 1.249e-5
-1.345, 1.249e-5
-1.346, 1.249e-5
-1.347, 1.249e-5
-1.348, 1.249e-5
-1.349, 1.249e-5
-1.350, 9.405e-6
-1.351, 1.249e-5
-1.352, 1.249e-5
-1.353, 9.405e-6
-1.354, 1.249e-5
-1.355, 1.249e-5
-1.356, 1.249e-5
-1.357, 1.249e-5
-1.358, 1.249e-5
-1.359, 1.249e-5
-1.360, 1.249e-5
-1.361, 1.249e-5
-1.362, 1.249e-5
-1.363, 1.249e-5
-1.364, 1.249e-5
-1.365, 1.249e-5
-1.366, 1.249e-5
-1.367, 1.249e-5
-1.368, 1.249e-5
-1.369, 1.249e-5
-1.370, 1.249e-5
-1.371, 1.557e-5
-1.372, 1.249e-5
-1.373, 1.249e-5
-1.374, 1.249e-5
-1.375, 1.249e-5
-1.376, 1.249e-5
-1.377, 1.557e-5
-1.378, 1.249e-5
-1.379, 1.249e-5
-1.380, 1.249e-5
-1.381, 1.249e-5
-1.382, 1.249e-5
-1.383, 1.249e-5
-1.384, 1.249e-5
-1.385, 1.249e-5
-1.386, 1.249e-5
-1.387, 1.249e-5
-1.388, 1.249e-5
-1.389, 1.249e-5
-1.390, 1.249e-5
-1.391, 1.557e-5
-1.392, 1.557e-5
-1.393, 1.249e-5
-1.394, 1.249e-5
-1.395, 1.557e-5
-1.396, 1.249e-5
-1.397, 1.557e-5
-1.398, 1.249e-5
-1.399, 1.249e-5
-1.400, 1.557e-5
-1.401, 1.557e-5
-1.402, 1.557e-5
-1.403, 1.557e-5
-1.404, 1.557e-5
-1.405, 1.557e-5
-1.406, 1.557e-5
-1.407, 1.557e-5
-1.408, 1.249e-5
-1.409, 1.557e-5
-1.410, 1.557e-5
-1.411, 1.557e-5
-1.412, 1.557e-5
-1.413, 1.557e-5
-1.414, 1.557e-5
-1.415, 1.557e-5
-1.416, 1.557e-5
-1.417, 1.557e-5
-1.418, 1.557e-5
-1.419, 1.557e-5
-1.420, 1.557e-5
-1.421, 1.557e-5
-1.422, 1.557e-5
-1.423, 1.557e-5
-1.424, 1.557e-5
-1.425, 1.557e-5
-1.426, 1.557e-5
-1.427, 1.557e-5
-1.428, 1.557e-5
-1.429, 1.557e-5
-1.430, 1.557e-5
-1.431, 1.557e-5
-1.432, 1.557e-5
-1.433, 1.557e-5
-1.434, 1.557e-5
-1.435, 1.557e-5
-1.436, 1.557e-5
-1.437, 1.557e-5
-1.438, 1.865e-5
-1.439, 1.557e-5
-1.440, 1.557e-5
-1.441, 1.865e-5
-1.442, 1.557e-5
-1.443, 1.865e-5
-1.444, 1.865e-5
-1.445, 1.557e-5
-1.446, 1.865e-5
-1.447, 1.865e-5
-1.448, 1.865e-5
-1.449, 1.865e-5
-1.450, 1.865e-5
-1.451, 1.865e-5
-1.452, 1.865e-5
-1.453, 1.865e-5
-1.454, 1.865e-5
-1.455, 1.865e-5
-1.456, 1.865e-5
-1.457, 1.865e-5
-1.458, 1.865e-5
-1.459, 1.865e-5
-1.460, 1.865e-5
-1.461, 1.865e-5
-1.462, 1.865e-5
-1.463, 1.865e-5
-1.464, 1.865e-5
-1.465, 1.865e-5
-1.466, 1.865e-5
-1.467, 1.865e-5
-1.468, 1.865e-5
-1.469, 1.865e-5
-1.470, 1.865e-5
-1.471, 1.865e-5
-1.472, 2.174e-5
-1.473, 2.174e-5
-1.474, 1.865e-5
-1.475, 2.174e-5
-1.476, 2.174e-5
-1.477, 2.174e-5
-1.478, 2.174e-5
-1.479, 2.174e-5
-1.480, 2.174e-5
-1.481, 2.174e-5
-1.482, 2.174e-5
-1.483, 2.174e-5
-1.484, 2.174e-5
-1.485, 2.174e-5
-1.486, 2.174e-5
-1.487, 2.482e-5
-1.488, 2.174e-5
-1.489, 2.174e-5
-1.490, 2.482e-5
-1.491, 2.482e-5
-1.492, 2.482e-5
-1.493, 2.482e-5
-1.494, 2.482e-5
-1.495, 2.482e-5
-1.496, 2.482e-5
-1.497, 2.482e-5
-1.498, 2.482e-5
-1.499, 2.482e-5
-1.500, 2.482e-5
-1.501, 2.482e-5
-1.502, 2.790e-5
-1.503, 2.482e-5
-1.504, 2.482e-5
-1.505, 2.790e-5
-1.506, 2.790e-5
-1.507, 2.790e-5
-1.508, 2.790e-5
-1.509, 2.790e-5
-1.510, 2.790e-5
-1.511, 2.790e-5
-1.512, 2.790e-5
-1.513, 2.790e-5
-1.514, 2.790e-5
-1.515, 2.790e-5
-1.516, 3.099e-5
-1.517, 2.790e-5
-1.518, 3.099e-5
-1.519, 3.099e-5
-1.520, 3.099e-5
-1.521, 3.099e-5
-1.522, 3.099e-5
-1.523, 3.099e-5
-1.524, 3.099e-5
-1.525, 3.407e-5
-1.526, 3.407e-5
-1.527, 3.407e-5
-1.528, 3.407e-5
-1.529, 3.407e-5
-1.530, 3.407e-5
-1.531, 3.715e-5
-1.532, 3.715e-5
-1.533, 3.715e-5
-1.534, 4.024e-5
-1.535, 4.024e-5
-1.536, 4.024e-5
-1.537, 4.024e-5
-1.538, 3.715e-5
-1.539, 3.715e-5
-1.540, 3.715e-5
-1.541, 3.715e-5
-1.542, 3.715e-5
-1.543, 3.715e-5
-1.544, 4.024e-5
-1.545, 4.024e-5
-1.546, 4.024e-5
-1.547, 4.024e-5
-1.548, 4.332e-5
-1.549, 4.024e-5
-1.550, 4.332e-5
-1.551, 4.332e-5
-1.552, 4.332e-5
-1.553, 4.332e-5
-1.554, 4.332e-5
-1.555, 4.640e-5
-1.556, 4.640e-5
-1.557, 4.640e-5
-1.558, 4.640e-5
-1.559, 4.640e-5
-1.560, 4.640e-5
-1.561, 4.640e-5
-1.562, 4.949e-5
-1.563, 4.949e-5
-1.564, 4.949e-5
-1.565, 5.257e-5
-1.566, 5.257e-5
-1.567, 5.257e-5
-1.568, 5.257e-5
-1.569, 5.565e-5
-1.570, 5.565e-5
-1.571, 5.873e-5
-1.572, 5.873e-5
-1.573, 5.873e-5
-1.574, 6.182e-5
-1.575, 6.490e-5
-1.576, 6.490e-5
-1.577, 6.798e-5
-1.578, 6.490e-5
-1.579, 6.182e-5
-1.580, 6.182e-5
-1.581, 6.490e-5
-1.582, 6.490e-5
-1.583, 6.490e-5
-1.584, 6.490e-5
-1.585, 6.798e-5
-1.586, 6.798e-5
-1.587, 6.798e-5
-1.588, 7.107e-5
-1.589, 7.107e-5
-1.590, 7.107e-5
-1.591, 7.415e-5
-1.592, 7.415e-5
-1.593, 7.415e-5
-1.594, 7.723e-5
-1.595, 7.723e-5
-1.596, 8.032e-5
-1.597, 8.032e-5
-1.598, 8.340e-5
-1.599, 8.340e-5
-1.600, 8.648e-5
-1.601, 8.957e-5
-1.602, 9.265e-5
-1.603, 8.957e-5
-1.604, 8.648e-5
-1.605, 8.957e-5
-1.606, 8.957e-5
-1.607, 9.265e-5
-1.608, 9.265e-5
-1.609, 9.573e-5
-1.610, 9.573e-5
-1.611, 9.882e-5
-1.612, 9.882e-5
-1.613, 9.882e-5
-1.614, 1.019e-4
-1.615, 1.019e-4
-1.616, 1.050e-4
-1.617, 1.081e-4
-1.618, 1.111e-4
-1.619, 1.111e-4
-1.620, 1.142e-4
-1.621, 1.173e-4
-1.622, 1.204e-4
-1.623, 1.266e-4
-1.624, 1.296e-4
-1.625, 1.204e-4
-1.626, 1.235e-4
-1.627, 1.235e-4
-1.628, 1.266e-4
-1.629, 1.266e-4
-1.630, 1.296e-4
-1.631, 1.327e-4
-1.632, 1.358e-4
-1.633, 1.358e-4
-1.634, 1.389e-4
-1.635, 1.389e-4
-1.636, 1.451e-4
-1.637, 1.451e-4
-1.638, 1.512e-4
-1.639, 1.543e-4
-1.640, 1.605e-4
-1.641, 1.666e-4
-1.642, 1.728e-4
-1.643, 1.636e-4
-1.644, 1.666e-4
-1.645, 1.666e-4
-1.646, 1.728e-4
-1.647, 1.728e-4
-1.648, 1.759e-4
-1.649, 1.790e-4
-1.650, 1.821e-4
-1.651, 1.851e-4
-1.652, 1.913e-4
-1.653, 1.944e-4
-1.654, 1.975e-4
-1.655, 2.036e-4
-1.656, 2.129e-4
-1.657, 2.191e-4
-1.658, 2.098e-4
-1.659, 2.129e-4
-1.660, 2.160e-4
-1.661, 2.191e-4
-1.662, 2.252e-4
-1.663, 2.283e-4
-1.664, 2.314e-4
-1.665, 2.345e-4
-1.666, 2.406e-4
-1.667, 2.468e-4
-1.668, 2.530e-4
-1.669, 2.622e-4
-1.670, 2.746e-4
-1.671, 2.653e-4
-1.672, 2.684e-4
-1.673, 2.715e-4
-1.674, 2.776e-4
-1.675, 2.838e-4
-1.676, 2.869e-4
-1.677, 2.931e-4
-1.678, 2.992e-4
-1.679, 3.054e-4
-1.680, 3.115e-4
-1.681, 3.239e-4
-1.682, 3.331e-4
-1.683, 3.424e-4
-1.684, 3.362e-4
-1.685, 3.393e-4
-1.686, 3.485e-4
-1.687, 3.547e-4
-1.688, 3.609e-4
-1.689, 3.670e-4
-1.690, 3.732e-4
-1.691, 3.825e-4
-1.692, 3.948e-4
-1.693, 4.071e-4
-1.694, 4.195e-4
-1.695, 4.102e-4
-1.696, 4.164e-4
-1.697, 4.256e-4
-1.698, 4.349e-4
-1.699, 4.410e-4
-1.700, 4.503e-4
-1.701, 4.626e-4
-1.702, 4.719e-4
-1.703, 4.873e-4
-1.704, 5.027e-4
-1.705, 4.965e-4
-1.706, 5.058e-4
-1.707, 5.181e-4
-1.708, 5.274e-4
-1.709, 5.397e-4
-1.710, 5.428e-4
-1.711, 5.551e-4
-1.712, 5.736e-4
-1.713, 5.890e-4
-1.714, 5.952e-4
-1.715, 5.983e-4
-1.716, 6.106e-4
-1.717, 6.229e-4
-1.718, 6.353e-4
-1.719, 6.476e-4
-1.720, 6.630e-4
-1.721, 6.815e-4
-1.722, 7.031e-4
-1.723, 7.093e-4
-1.724, 7.185e-4
-1.725, 7.309e-4
-1.726, 7.432e-4
-1.727, 7.586e-4
-1.728, 7.740e-4
-1.729, 7.925e-4
-1.730, 8.110e-4
-1.731, 8.388e-4
-1.732, 8.449e-4
-1.733, 8.542e-4
-1.734, 8.727e-4
-1.735, 8.943e-4
-1.736, 9.097e-4
-1.737, 9.282e-4
-1.738, 9.528e-4
-1.739, 9.806e-4
-1.740, 1.005e-3
-1.741, 1.005e-3
-1.742, 1.027e-3
-1.743, 1.045e-3
-1.744, 1.064e-3
-1.745, 1.088e-3
-1.746, 1.113e-3
-1.747, 1.141e-3
-1.748, 1.175e-3
-1.749, 1.175e-3
-1.750, 1.199e-3
-1.751, 1.224e-3
-1.752, 1.249e-3
-1.753, 1.277e-3
-1.754, 1.304e-3
-1.755, 1.335e-3
-1.756, 1.360e-3
-1.757, 1.372e-3
-1.758, 1.400e-3
-1.759, 1.428e-3
-1.760, 1.458e-3
-1.761, 1.492e-3
-1.762, 1.529e-3
-1.763, 1.560e-3
-1.764, 1.576e-3
-1.765, 1.610e-3
-1.766, 1.640e-3
-1.767, 1.671e-3
-1.768, 1.705e-3
-1.769, 1.745e-3
-1.770, 1.776e-3
-1.771, 1.798e-3
-1.772, 1.828e-3
-1.773, 1.862e-3
-1.774, 1.896e-3
-1.775, 1.943e-3
-1.776, 1.989e-3
-1.777, 2.017e-3
-1.778, 2.050e-3
-1.779, 2.087e-3
-1.780, 2.128e-3
-1.781, 2.164e-3
-1.782, 2.217e-3
-1.783, 2.257e-3
-1.784, 2.282e-3
-1.785, 2.322e-3
-1.786, 2.365e-3
-1.787, 2.405e-3
-1.788, 2.457e-3
-1.789, 2.510e-3
-1.790, 2.541e-3
-1.791, 2.584e-3
-1.792, 2.630e-3
-1.793, 2.679e-3
-1.794, 2.735e-3
-1.795, 2.787e-3
-1.796, 2.815e-3
-1.797, 2.864e-3
-1.798, 2.914e-3
-1.799, 2.966e-3
-1.800, 3.025e-3
-1.801, 3.080e-3
-1.802, 3.114e-3
-1.803, 3.173e-3
-1.804, 3.225e-3
-1.805, 3.281e-3
-1.806, 3.339e-3
-1.807, 3.395e-3
-1.808, 3.438e-3
-1.809, 3.493e-3
-1.810, 3.552e-3
-1.811, 3.617e-3
-1.812, 3.681e-3
-1.813, 3.731e-3
-1.814, 3.786e-3
-1.815, 3.857e-3
-1.816, 3.922e-3
-1.817, 3.984e-3
-1.818, 4.051e-3
-1.819, 4.095e-3
-1.820, 4.150e-3
-1.821, 4.209e-3
-1.822, 4.270e-3
-1.823, 4.335e-3
-1.824, 4.403e-3
-1.825, 4.452e-3
-1.826, 4.517e-3
-1.827, 4.588e-3
-1.828, 4.668e-3
-1.829, 4.748e-3
-1.830, 4.813e-3
-1.831, 4.881e-3
-1.832, 4.945e-3
-1.833, 5.016e-3
-1.834, 5.084e-3
-1.835, 5.152e-3
-1.836, 5.192e-3
-1.837, 5.248e-3
-1.838, 5.309e-3
-1.839, 5.383e-3
-1.840, 5.470e-3
-1.841, 5.544e-3
-1.842, 5.627e-3
-1.843, 5.707e-3
-1.844, 5.793e-3
-1.845, 5.877e-3
-1.846, 5.957e-3
-1.847, 6.009e-3
-1.848, 6.077e-3
-1.849, 6.136e-3
-1.850, 6.203e-3
-1.851, 6.277e-3
-1.852, 6.333e-3
-1.853, 6.407e-3
-1.854, 6.487e-3
-1.855, 6.573e-3
-1.856, 6.672e-3
-1.857, 6.743e-3
-1.858, 6.829e-3
-1.859, 6.919e-3
-1.860, 7.008e-3
-1.861, 7.097e-3
-1.862, 7.159e-3
-1.863, 7.236e-3
-1.864, 7.298e-3
-1.865, 7.378e-3
-1.866, 7.452e-3
-1.867, 7.511e-3
-1.868, 7.594e-3
-1.869, 7.680e-3
-1.870, 7.773e-3
-1.871, 7.868e-3
-1.872, 7.942e-3
-1.873, 8.029e-3
-1.874, 8.109e-3
-1.875, 8.198e-3
-1.876, 8.281e-3
-1.877, 8.355e-3
-1.878, 8.439e-3
-1.879, 8.519e-3
-1.880, 8.614e-3
-1.881, 8.701e-3
-1.882, 8.793e-3
-1.883, 8.892e-3
-1.884, 8.984e-3
-1.885, 9.080e-3
-1.886, 9.145e-3
-1.887, 9.219e-3
-1.888, 9.293e-3
-1.889, 9.367e-3
-1.890, 9.441e-3
-1.891, 9.505e-3
-1.892, 9.592e-3
-1.893, 9.693e-3
-1.894, 9.804e-3
-1.895, 9.900e-3
-1.896, 9.999e-3
-1.897, 1.010e-2
-1.898, 1.021e-2
-1.899, 1.031e-2
-1.900, 1.034e-2
-1.899, 1.030e-2
-1.898, 1.025e-2
-1.897, 1.020e-2
-1.896, 1.013e-2
-1.895, 1.008e-2
-1.894, 1.003e-2
-1.893, 9.989e-3
-1.892, 9.956e-3
-1.891, 9.912e-3
-1.890, 9.882e-3
-1.889, 9.857e-3
-1.888, 9.835e-3
-1.887, 9.780e-3
-1.886, 9.734e-3
-1.885, 9.678e-3
-1.884, 9.626e-3
-1.883, 9.561e-3
-1.882, 9.487e-3
-1.881, 9.422e-3
-1.880, 9.360e-3
-1.879, 9.314e-3
-1.878, 9.253e-3
-1.877, 9.206e-3
-1.876, 9.163e-3
-1.875, 9.123e-3
-1.874, 9.083e-3
-1.873, 9.015e-3
-1.872, 8.969e-3
-1.871, 8.920e-3
-1.870, 8.867e-3
-1.869, 8.809e-3
-1.868, 8.744e-3
-1.867, 8.685e-3
-1.866, 8.630e-3
-1.865, 8.587e-3
-1.864, 8.513e-3
-1.863, 8.457e-3
-1.862, 8.405e-3
-1.861, 8.355e-3
-1.860, 8.318e-3
-1.859, 8.247e-3
-1.858, 8.195e-3
-1.857, 8.140e-3
-1.856, 8.090e-3
-1.855, 8.038e-3
-1.854, 7.964e-3
-1.853, 7.905e-3
-1.852, 7.844e-3
-1.851, 7.791e-3
-1.850, 7.742e-3
-1.849, 7.674e-3
-1.848, 7.622e-3
-1.847, 7.569e-3
-1.846, 7.514e-3
-1.845, 7.467e-3
-1.844, 7.397e-3
-1.843, 7.338e-3
-1.842, 7.286e-3
-1.841, 7.233e-3
-1.840, 7.190e-3
-1.839, 7.122e-3
-1.838, 7.067e-3
-1.837, 7.014e-3
-1.836, 6.962e-3
-1.835, 6.919e-3
-1.834, 6.854e-3
-1.833, 6.795e-3
-1.832, 6.740e-3
-1.831, 6.687e-3
-1.830, 6.638e-3
-1.829, 6.580e-3
-1.828, 6.518e-3
-1.827, 6.462e-3
-1.826, 6.410e-3
-1.825, 6.364e-3
-1.824, 6.324e-3
-1.823, 6.262e-3
-1.822, 6.210e-3
-1.821, 6.163e-3
-1.820, 6.120e-3
-1.819, 6.080e-3
-1.818, 6.028e-3
-1.817, 5.969e-3
-1.816, 5.920e-3
-1.815, 5.867e-3
-1.814, 5.818e-3
-1.813, 5.769e-3
-1.812, 5.701e-3
-1.811, 5.648e-3
-1.810, 5.599e-3
-1.809, 5.550e-3
-1.808, 5.510e-3
-1.807, 5.463e-3
-1.806, 5.408e-3
-1.805, 5.362e-3
-1.804, 5.309e-3
-1.803, 5.263e-3
-1.802, 5.220e-3
-1.801, 5.158e-3
-1.800, 5.106e-3
-1.799, 5.053e-3
-1.798, 5.001e-3
-1.797, 4.955e-3
-1.796, 4.918e-3
-1.795, 4.865e-3
-1.794, 4.819e-3
-1.793, 4.776e-3
-1.792, 4.733e-3
-1.791, 4.693e-3
-1.790, 4.659e-3
-1.789, 4.606e-3
-1.788, 4.557e-3
-1.787, 4.511e-3
-1.786, 4.464e-3
-1.785, 4.418e-3
-1.784, 4.381e-3
-1.783, 4.335e-3
-1.782, 4.283e-3
-1.781, 4.239e-3
-1.780, 4.196e-3
-1.779, 4.159e-3
-1.778, 4.122e-3
-1.777, 4.085e-3
-1.776, 4.030e-3
-1.775, 3.990e-3
-1.774, 3.947e-3
-1.773, 3.906e-3
-1.772, 3.866e-3
-1.771, 3.829e-3
-1.770, 3.783e-3
-1.769, 3.737e-3
-1.768, 3.700e-3
-1.767, 3.654e-3
-1.766, 3.617e-3
-1.765, 3.583e-3
-1.764, 3.549e-3
-1.763, 3.496e-3
-1.762, 3.459e-3
-1.761, 3.422e-3
-1.760, 3.385e-3
-1.759, 3.351e-3
-1.758, 3.314e-3
-1.757, 3.284e-3
-1.756, 3.234e-3
-1.755, 3.194e-3
-1.754, 3.157e-3
-1.753, 3.117e-3
-1.752, 3.083e-3
-1.751, 3.049e-3
-1.750, 3.015e-3
-1.749, 2.985e-3
-1.748, 2.938e-3
-1.747, 2.908e-3
-1.746, 2.867e-3
-1.745, 2.840e-3
-1.744, 2.806e-3
-1.743, 2.775e-3
-1.742, 2.747e-3
-1.741, 2.704e-3
-1.740, 2.664e-3
-1.739, 2.633e-3
-1.738, 2.599e-3
-1.737, 2.568e-3
-1.736, 2.538e-3
-1.735, 2.510e-3
-1.734, 2.485e-3
-1.733, 2.445e-3
-1.732, 2.408e-3
-1.731, 2.377e-3
-1.730, 2.343e-3
-1.729, 2.316e-3
-1.728, 2.288e-3
-1.727, 2.263e-3
-1.726, 2.235e-3
-1.725, 2.205e-3
-1.724, 2.171e-3
-1.723, 2.143e-3
-1.722, 2.112e-3
-1.721, 2.087e-3
-1.720, 2.054e-3
-1.719, 2.029e-3
-1.718, 2.004e-3
-1.717, 1.986e-3
-1.716, 1.946e-3
-1.715, 1.915e-3
-1.714, 1.887e-3
-1.713, 1.862e-3
-1.712, 1.844e-3
-1.711, 1.816e-3
-1.710, 1.791e-3
-1.709, 1.776e-3
-1.708, 1.758e-3
-1.707, 1.724e-3
-1.706, 1.693e-3
-1.705, 1.671e-3
-1.704, 1.643e-3
-1.703, 1.619e-3
-1.702, 1.594e-3
-1.701, 1.569e-3
-1.700, 1.551e-3
-1.699, 1.536e-3
-1.698, 1.514e-3
-1.697, 1.480e-3
-1.696, 1.462e-3
-1.695, 1.437e-3
-1.694, 1.418e-3
-1.693, 1.397e-3
-1.692, 1.375e-3
-1.691, 1.354e-3
-1.690, 1.335e-3
-1.689, 1.320e-3
-1.688, 1.301e-3
-1.687, 1.273e-3
-1.686, 1.252e-3
-1.685, 1.233e-3
-1.684, 1.215e-3
-1.683, 1.196e-3
-1.682, 1.178e-3
-1.681, 1.156e-3
-1.680, 1.144e-3
-1.679, 1.129e-3
-1.678, 1.113e-3
-1.677, 1.095e-3
-1.676, 1.070e-3
-1.675, 1.051e-3
-1.674, 1.036e-3
-1.673, 1.021e-3
-1.672, 1.002e-3
-1.671, 9.868e-4
-1.670, 9.713e-4
-1.669, 9.559e-4
-1.668, 9.405e-4
-1.667, 9.282e-4
-1.666, 9.158e-4
-1.665, 8.912e-4
-1.664, 8.758e-4
-1.663, 8.634e-4
-1.662, 8.449e-4
-1.661, 8.326e-4
-1.660, 8.172e-4
-1.659, 8.048e-4
-1.658, 7.925e-4
-1.657, 7.771e-4
-1.656, 7.679e-4
-1.655, 7.586e-4
-1.654, 7.463e-4
-1.653, 7.339e-4
-1.652, 7.124e-4
-1.651, 7.000e-4
-1.650, 6.877e-4
-1.649, 6.754e-4
-1.648, 6.630e-4
-1.647, 6.507e-4
-1.646, 6.384e-4
-1.645, 6.291e-4
-1.644, 6.168e-4
-1.643, 6.075e-4
-1.642, 5.983e-4
-1.641, 5.890e-4
-1.640, 5.829e-4
-1.639, 5.736e-4
-1.638, 5.520e-4
-1.637, 5.428e-4
-1.636, 5.335e-4
-1.635, 5.212e-4
-1.634, 5.120e-4
-1.633, 5.027e-4
-1.632, 4.904e-4
-1.631, 4.842e-4
-1.630, 4.750e-4
-1.629, 4.657e-4
-1.628, 4.565e-4
-1.627, 4.534e-4
-1.626, 4.441e-4
-1.625, 4.349e-4
-1.624, 4.318e-4
-1.623, 4.195e-4
-1.622, 4.071e-4
-1.621, 3.979e-4
-1.620, 3.917e-4
-1.619, 3.825e-4
-1.618, 3.763e-4
-1.617, 3.701e-4
-1.616, 3.609e-4
-1.615, 3.547e-4
-1.614, 3.455e-4
-1.613, 3.424e-4
-1.612, 3.331e-4
-1.611, 3.270e-4
-1.610, 3.239e-4
-1.609, 3.177e-4
-1.608, 3.115e-4
-1.607, 3.054e-4
-1.606, 3.023e-4
-1.605, 2.900e-4
-1.604, 2.838e-4
-1.603, 2.746e-4
-1.602, 2.715e-4
-1.601, 2.684e-4
-1.600, 2.591e-4
-1.599, 2.561e-4
-1.598, 2.499e-4
-1.597, 2.437e-4
-1.596, 2.376e-4
-1.595, 2.314e-4
-1.594, 2.283e-4
-1.593, 2.252e-4
-1.592, 2.191e-4
-1.591, 2.160e-4
-1.590, 2.129e-4
-1.589, 2.098e-4
-1.588, 2.067e-4
-1.587, 2.006e-4
-1.586, 1.975e-4
-1.585, 1.882e-4
-1.584, 1.851e-4
-1.583, 1.790e-4
-1.582, 1.759e-4
-1.581, 1.728e-4
-1.580, 1.666e-4
-1.579, 1.636e-4
-1.578, 1.605e-4
-1.577, 1.574e-4
-1.576, 1.543e-4
-1.575, 1.481e-4
-1.574, 1.481e-4
-1.573, 1.451e-4
-1.572, 1.389e-4
-1.571, 1.358e-4
-1.570, 1.358e-4
-1.569, 1.327e-4
-1.568, 1.296e-4
-1.567, 1.266e-4
-1.566, 1.235e-4
-1.565, 1.235e-4
-1.564, 1.204e-4
-1.563, 1.173e-4
-1.562, 1.142e-4
-1.561, 1.081e-4
-1.560, 1.050e-4
-1.559, 1.050e-4
-1.558, 1.019e-4
-1.557, 9.882e-5
-1.556, 9.573e-5
-1.555, 9.265e-5
-1.554, 9.265e-5
-1.553, 8.957e-5
-1.552, 8.648e-5
-1.551, 8.340e-5
-1.550, 8.340e-5
-1.549, 8.032e-5
-1.548, 7.723e-5
-1.547, 7.723e-5
-1.546, 7.415e-5
-1.545, 7.415e-5
-1.544, 7.415e-5
-1.543, 7.107e-5
-1.542, 6.798e-5
-1.541, 6.798e-5
-1.540, 6.490e-5
-1.539, 6.490e-5
-1.538, 6.490e-5
-1.537, 6.182e-5
-1.536, 6.182e-5
-1.535, 6.182e-5
-1.534, 5.873e-5
-1.533, 5.565e-5
-1.532, 5.257e-5
-1.531, 4.949e-5
-1.530, 4.949e-5
-1.529, 4.949e-5
-1.528, 4.949e-5
-1.527, 4.640e-5
-1.526, 4.332e-5
-1.525, 4.332e-5
-1.524, 4.332e-5
-1.523, 4.024e-5
-1.522, 4.024e-5
-1.521, 4.024e-5
-1.520, 4.024e-5
-1.519, 3.715e-5
-1.518, 3.715e-5
-1.517, 3.407e-5
-1.516, 3.407e-5
-1.515, 3.407e-5
-1.514, 3.099e-5
-1.513, 3.099e-5
-1.512, 3.099e-5
-1.511, 3.099e-5
-1.510, 3.099e-5
-1.509, 3.099e-5
-1.508, 2.790e-5
-1.507, 2.790e-5
-1.506, 2.482e-5
-1.505, 2.482e-5
-1.504, 2.482e-5
-1.503, 2.482e-5
-1.502, 2.482e-5
-1.501, 2.482e-5
-1.500, 2.482e-5
-1.499, 2.174e-5
-1.498, 2.174e-5
-1.497, 2.174e-5
-1.496, 2.174e-5
-1.495, 1.865e-5
-1.494, 1.557e-5
-1.493, 1.557e-5
-1.492, 1.865e-5
-1.491, 1.557e-5
-1.490, 1.557e-5
-1.489, 1.557e-5
-1.488, 1.557e-5
-1.487, 1.557e-5
-1.486, 1.557e-5
-1.485, 1.249e-5
-1.484, 1.249e-5
-1.483, 1.249e-5
-1.482, 1.249e-5
-1.481, 1.249e-5
-1.480, 1.249e-5
-1.479, 1.249e-5
-1.478, 1.249e-5
-1.477, 9.405e-6
-1.476, 9.405e-6
-1.475, 1.249e-5
-1.474, 9.405e-6
-1.473, 9.405e-6
-1.472, 9.405e-6
-1.471, 6.322e-6
-1.470, 6.322e-6
-1.469, 9.405e-6
-1.468, 9.405e-6
-1.467, 6.322e-6
-1.466, 6.322e-6
-1.465, 6.322e-6
-1.464, 6.322e-6
-1.463, 6.322e-6
-1.462, 6.322e-6
-1.461, 6.322e-6
-1.460, 6.322e-6
-1.459, 6.322e-6
-1.458, 6.322e-6
-1.457, 6.322e-6
-1.456, 3.239e-6
-1.455, 6.322e-6
-1.454, 6.322e-6
-1.453, 6.322e-6
-1.452, 3.239e-6
-1.451, 3.239e-6
-1.450, 3.239e-6
-1.449, 6.322e-6
-1.448, 3.239e-6
-1.447, 3.239e-6
-1.446, 3.239e-6
-1.445, 3.239e-6
-1.444, 3.239e-6
-1.443, 3.239e-6
-1.442, 3.239e-6
-1.441, 3.239e-6
-1.440, 3.239e-6
-1.439, 3.239e-6
-1.438, 3.239e-6
-1.437, 3.239e-6
-1.436, 3.239e-6
-1.435, 3.239e-6
-1.434, 3.239e-6
-1.433, 1.559e-7
-1.432, 1.559e-7
-1.431, 1.559e-7
-1.430, 1.559e-7
-1.429, 1.559e-7
-1.428, 1.559e-7
-1.427, 1.559e-7
-1.426, 1.559e-7
-1.425, 1.559e-7
-1.424, 1.559e-7
-1.423, 1.559e-7
-1.422, 1.559e-7
-1.421, 1.559e-7
-1.420, 1.559e-7
-1.419, 1.559e-7
-1.418, 1.559e-7
-1.417, 1.559e-7
-1.416, 1.559e-7
-1.415, 1.559e-7
-1.414, 1.559e-7
-1.413, 1.559e-7
-1.412, 1.559e-7
-1.411, 1.559e-7
-1.410, 1.559e-7
-1.409, 1.559e-7
-1.408, 1.559e-7
-1.407, 1.559e-7
-1.406, 1.559e-7
-1.405, 1.559e-7
-1.404, 1.559e-7
-1.403, 1.559e-7
-1.402, 1.559e-7
-1.401, 1.559e-7
-1.400, 1.559e-7
-1.399, 1.559e-7
-1.398, 1.559e-7
-1.397, 1.559e-7
-1.396, -2.927e-6
-1.395, 1.559e-7
-1.394, 1.559e-7
-1.393, 1.559e-7
-1.392, 1.559e-7
-1.391, 1.559e-7
-1.390, -2.927e-6
-1.389, 1.559e-7
-1.388, 1.559e-7
-1.387, 1.559e-7
-1.386, -2.927e-6
-1.385, -2.927e-6
-1.384, -2.927e-6
-1.383, 1.559e-7
-1.382, -2.927e-6
-1.381, 1.559e-7
-1.380, 1.559e-7
-1.379, -2.927e-6
-1.378, -2.927e-6
-1.377, 1.559e-7
-1.376, -2.927e-6
-1.375, -2.927e-6
-1.374, -2.927e-6
-1.373, -2.927e-6
-1.372, -2.927e-6
-1.371, -2.927e-6
-1.370, -2.927e-6
-1.369, -2.927e-6
-1.368, -2.927e-6
-1.367, -2.927e-6
-1.366, -2.927e-6
-1.365, -2.927e-6
-1.364, -2.927e-6
-1.363, -2.927e-6
-1.362, -2.927e-6
-1.361, -2.927e-6
-1.360, -2.927e-6
-1.359, -2.927e-6
-1.358, -2.927e-6
-1.357, -2.927e-6
-1.356, -2.927e-6
-1.355, -2.927e-6
-1.354, 1.559e-7
-1.353, -2.927e-6
-1.352, -2.927e-6
-1.351, -2.927e-6
-1.350, -2.927e-6
-1.349, -2.927e-6
-1.348, -2.927e-6
-1.347, -2.927e-6
-1.346, -2.927e-6
-1.345, -2.927e-6
-1.344, -2.927e-6
-1.343, -2.927e-6
-1.342, -2.927e-6
-1.341, -2.927e-6
-1.340, -2.927e-6
-1.339, -2.927e-6
-1.338, -2.927e-6
-1.337, -2.927e-6
-1.336, -2.927e-6
-1.335, -2.927e-6
-1.334, -2.927e-6
-1.333, -2.927e-6
-1.332, -2.927e-6
-1.331, -2.927e-6
-1.330, -2.927e-6
-1.329, -2.927e-6
-1.328, -2.927e-6
-1.327, -2.927e-6
-1.326, -2.927e-6
-1.325, -2.927e-6
-1.324, -2.927e-6
-1.323, -2.927e-6
-1.322, -2.927e-6
-1.321, -2.927e-6
-1.320, -2.927e-6
-1.319, -2.927e-6
-1.318, -2.927e-6
-1.317, -2.927e-6
-1.316, -2.927e-6
-1.315, -2.927e-6
-1.314, -2.927e-6
-1.313, -2.927e-6
-1.312, -2.927e-6
-1.311, -2.927e-6
-1.310, -2.927e-6
-1.309, -2.927e-6
-1.308, -2.927e-6
-1.307, -2.927e-6
-1.306, -2.927e-6
-1.305, -2.927e-6
-1.304, -2.927e-6
-1.303, -2.927e-6
-1.302, -2.927e-6
-1.301, -2.927e-6
-1.300, -2.927e-6
-1.299, -2.927e-6
-1.298, -2.927e-6
-1.297, -2.927e-6
-1.296, -2.927e-6
-1.295, -2.927e-6
-1.294, -2.927e-6
-1.293, -2.927e-6
-1.292, -2.927e-6
-1.291, -2.927e-6
-1.290, -2.927e-6
-1.289, -2.927e-6
-1.288, -2.927e-6
-1.287, -2.927e-6
-1.286, -2.927e-6
-1.285, -2.927e-6
-1.284, -2.927e-6
-1.283, -2.927e-6
-1.282, -2.927e-6
-1.281, -2.927e-6
-1.280, -2.927e-6
-1.279, -2.927e-6
-1.278, -2.927e-6
-1.277, -2.927e-6
-1.276, -2.927e-6
-1.275, -2.927e-6
-1.274, -2.927e-6
-1.273, -2.927e-6
-1.272, -2.927e-6
-1.271, -2.927e-6
-1.270, -2.927e-6
-1.269, -2.927e-6
-1.268, -2.927e-6
-1.267, -2.927e-6
-1.266, -2.927e-6
-1.265, -2.927e-6
-1.264, -2.927e-6
-1.263, -2.927e-6
-1.262, -2.927e-6
-1.261, -2.927e-6
-1.260, -2.927e-6
-1.259, -2.927e-6
-1.258, -2.927e-6
-1.257, -2.927e-6
-1.256, -2.927e-6
-1.255, -2.927e-6
-1.254, -2.927e-6
-1.253, -2.927e-6
-1.252, -6.010e-6
-1.251, -2.927e-6
-1.250, -2.927e-6
-1.249, -2.927e-6
-1.248, -2.927e-6
-1.247, -2.927e-6
-1.246, -2.927e-6
-1.245, -2.927e-6
-1.244, -2.927e-6
-1.243, -2.927e-6
-1.242, -2.927e-6
-1.241, -6.010e-6
-1.240, -2.927e-6
-1.239, -2.927e-6
-1.238, -2.927e-6
-1.237, -2.927e-6
-1.236, -2.927e-6
-1.235, -2.927e-6
-1.234, -2.927e-6
-1.233, -2.927e-6
-1.232, -2.927e-6
-1.231, -2.927e-6
-1.230, -2.927e-6
-1.229, -2.927e-6
-1.228, -2.927e-6
-1.227, -6.010e-6
-1.226, -2.927e-6
-1.225, -2.927e-6
-1.224, -2.927e-6
-1.223, -2.927e-6
-1.222, -2.927e-6
-1.221, -6.010e-6
-1.220, -2.927e-6
-1.219, -2.927e-6
-1.218, -2.927e-6
-1.217, -2.927e-6
-1.216, -2.927e-6
-1.215, -2.927e-6
-1.214, -2.927e-6
-1.213, -2.927e-6
-1.212, -2.927e-6
-1.211, -2.927e-6
-1.210, -2.927e-6
-1.209, -2.927e-6
-1.208, -2.927e-6
-1.207, -2.927e-6
-1.206, -2.927e-6
-1.205, -2.927e-6
-1.204, -2.927e-6
-1.203, -2.927e-6
-1.202, -2.927e-6
-1.201, -6.010e-6
-1.200, -2.927e-6
-1.199, -2.927e-6
-1.198, -6.010e-6
-1.197, -2.927e-6
-1.196, -2.927e-6
-1.195, -6.010e-6
-1.194, -2.927e-6
-1.193, -2.927e-6
-1.192, -2.927e-6
-1.191, -2.927e-6
-1.190, -2.927e-6
-1.189, -2.927e-6
-1.188, -2.927e-6
-1.187, -2.927e-6
-1.186, -2.927e-6
-1.185, -2.927e-6
-1.184, -2.927e-6
-1.183, -2.927e-6
-1.182, -2.927e-6
-1.181, -6.010e-6
-1.180, -2.927e-6
-1.179, -2.927e-6
-1.178, -6.010e-6
-1.177, -2.927e-6
-1.176, -2.927e-6
-1.175, -6.010e-6
-1.174, -2.927e-6
-1.173, -2.927e-6
-1.172, -6.010e-6
-1.171, -2.927e-6
-1.170, -2.927e-6
-1.169, -2.927e-6
-1.168, -2.927e-6
-1.167, -2.927e-6
-1.166, -2.927e-6
-1.165, -6.010e-6
-1.164, -2.927e-6
-1.163, -2.927e-6
-1.162, -2.927e-6
-1.161, -6.010e-6
-1.160, -2.927e-6
-1.159, -2.927e-6
-1.158, -2.927e-6
-1.157, -2.927e-6
-1.156, -2.927e-6
-1.155, -6.010e-6
-1.154, -2.927e-6
-1.153, -2.927e-6
-1.152, -2.927e-6
-1.151, -2.927e-6
-1.150, -2.927e-6
-1.149, -2.927e-6
-1.148, -2.927e-6
-1.147, -2.927e-6
-1.146, -2.927e-6
-1.145, -2.927e-6
-1.144, -2.927e-6
-1.143, -6.010e-6
-1.142, -2.927e-6
-1.141, -6.010e-6
-1.140, -2.927e-6
-1.139, -2.927e-6
-1.138, -2.927e-6
-1.137, -2.927e-6
-1.136, -2.927e-6
-1.135, -6.010e-6
-1.134, -2.927e-6
-1.133, -2.927e-6
-1.132, -6.010e-6
-1.131, -2.927e-6
-1.130, -2.927e-6
-1.129, -6.010e-6
-1.128, -2.927e-6
-1.127, -2.927e-6
-1.126, -6.010e-6
-1.125, -2.927e-6
-1.124, -2.927e-6
-1.123, -2.927e-6
-1.122, -2.927e-6
-1.121, -2.927e-6
-1.120, -6.010e-6
-1.119, -2.927e-6
-1.118, -6.010e-6
-1.117, -6.010e-6
-1.116, -6.010e-6
-1.115, -6.010e-6
-1.114, -2.927e-6
-1.113, -2.927e-6
-1.112, -6.010e-6
-1.111, -2.927e-6
-1.110, -6.010e-6
-1.109, -2.927e-6
-1.108, -2.927e-6
-1.107, -2.927e-6
-1.106, -6.010e-6
-1.105, -2.927e-6
-1.104, -2.927e-6
-1.103, -6.010e-6
-1.102, -2.927e-6
-1.101, -2.927e-6
-1.100, -6.010e-6
-1.099, -2.927e-6
-1.098, -6.010e-6
-1.097, -6.010e-6
-1.096, -2.927e-6
-1.095, -6.010e-6
-1.094, -2.927e-6
-1.093, -2.927e-6
-1.092, -6.010e-6
-1.091, -6.010e-6
-1.090, -2.927e-6
-1.089, -6.010e-6
-1.088, -2.927e-6
-1.087, -2.927e-6
-1.086, -6.010e-6
-1.085, -6.010e-6
-1.084, -6.010e-6
-1.083, -6.010e-6
-1.082, -6.010e-6
-1.081, -6.010e-6
-1.080, -6.010e-6
-1.079, -2.927e-6
-1.078, -2.927e-6
-1.077, -6.010e-6
-1.076, -6.010e-6
-1.075, -6.010e-6
-1.074, -6.010e-6
-1.073, -2.927e-6
-1.072, -6.010e-6
-1.071, -6.010e-6
-1.070, -6.010e-6
-1.069, -2.927e-6
-1.068, -2.927e-6
-1.067, -2.927e-6
-1.066, -6.010e-6
-1.065, -2.927e-6
-1.064, -2.927e-6
-1.063, -6.010e-6
-1.062, -2.927e-6
-1.061, -2.927e-6
-1.060, -2.927e-6
-1.059, -2.927e-6
-1.058, -6.010e-6
-1.057, -6.010e-6
-1.056, -6.010e-6
-1.055, -6.010e-6
-1.054, -2.927e-6
-1.053, -2.927e-6
-1.052, -6.010e-6
-1.051, -6.010e-6
-1.050, -2.927e-6
-1.049, -6.010e-6
-1.048, -6.010e-6
-1.047, -6.010e-6
-1.046, -6.010e-6
-1.045, -6.010e-6
-1.044, -2.927e-6
-1.043, -6.010e-6
-1.042, -6.010e-6
-1.041, -2.927e-6
-1.040, -6.010e-6
-1.039, -2.927e-6
-1.038, -2.927e-6
-1.037, -6.010e-6
-1.036, -2.927e-6
-1.035, -2.927e-6
-1.034, -6.010e-6
-1.033, -2.927e-6
-1.032, -6.010e-6
-1.031, -6.010e-6
-1.030, -2.927e-6
-1.029, -2.927e-6
-1.028, -6.010e-6
-1.027, -2.927e-6
-1.026, -6.010e-6
-1.025, -6.010e-6
-1.024, -6.010e-6
-1.023, -6.010e-6
-1.022, -6.010e-6
-1.021, -6.010e-6
-1.020, -6.010e-6
-1.019, -2.927e-6
-1.018, -6.010e-6
-1.017, -6.010e-6
-1.016, -6.010e-6
-1.015, -2.927e-6
-1.014, -6.010e-6
-1.013, -6.010e-6
-1.012, -6.010e-6
-1.011, -6.010e-6
-1.010, -6.010e-6
-1.009, -2.927e-6
-1.008, -6.010e-6
-1.007, -6.010e-6
-1.006, -6.010e-6
-1.005, -6.010e-6
-1.004, -6.010e-6
-1.003, -6.010e-6
-1.002, -6.010e-6
-1.001, -2.927e-6
