Mar. 11, 2025   21:15:44
Cyclic Voltammetry
File: c:/users/guazh/data/banditlqround7_x0exp891_r5/2025-03-03-exp880\exp880-2025-03-11t20_47_00-h2koh\exp880_cv_sr_700mvs_efin_-1900mv.bin
Data Source:  Experiment
Instrument Model:  CHI760E
Header: CV ran at 700 mVs
Note: 

Init E (V) = -1
High E (V) = -1
Low E (V) = -1.9
Final E (V) = -1
Init P/N = N
Scan Rate (V/s) = 0.7
Segment = 3
Sample Interval (V) = 0.001
Quiet Time (sec) = 2
Sensitivity (A/V) = 0.01
Comp R (ohm) = 1.8

Results:

Channel 1:
Segment 1:

Segment 2:

Segment 3:

Potential/V, Current/A

-1.000, 3.239e-6
-1.001, 3.239e-6
-1.002, 3.239e-6
-1.003, 3.239e-6
-1.004, 3.239e-6
-1.005, 3.239e-6
-1.006, 3.239e-6
-1.007, 3.239e-6
-1.008, 3.239e-6
-1.009, 6.322e-6
-1.010, 3.239e-6
-1.011, 6.322e-6
-1.012, 3.239e-6
-1.013, 3.239e-6
-1.014, 6.322e-6
-1.015, 3.239e-6
-1.016, 6.322e-6
-1.017, 3.239e-6
-1.018, 3.239e-6
-1.019, 3.239e-6
-1.020, 3.239e-6
-1.021, 6.322e-6
-1.022, 6.322e-6
-1.023, 6.322e-6
-1.024, 3.239e-6
-1.025, 6.322e-6
-1.026, 3.239e-6
-1.027, 3.239e-6
-1.028, 6.322e-6
-1.029, 3.239e-6
-1.030, 6.322e-6
-1.031, 6.322e-6
-1.032, 6.322e-6
-1.033, 6.322e-6
-1.034, 6.322e-6
-1.035, 3.239e-6
-1.036, 6.322e-6
-1.037, 6.322e-6
-1.038, 3.239e-6
-1.039, 6.322e-6
-1.040, 6.322e-6
-1.041, 6.322e-6
-1.042, 6.322e-6
-1.043, 6.322e-6
-1.044, 6.322e-6
-1.045, 6.322e-6
-1.046, 6.322e-6
-1.047, 6.322e-6
-1.048, 6.322e-6
-1.049, 6.322e-6
-1.050, 6.322e-6
-1.051, 6.322e-6
-1.052, 6.322e-6
-1.053, 6.322e-6
-1.054, 6.322e-6
-1.055, 6.322e-6
-1.056, 6.322e-6
-1.057, 6.322e-6
-1.058, 6.322e-6
-1.059, 6.322e-6
-1.060, 6.322e-6
-1.061, 6.322e-6
-1.062, 6.322e-6
-1.063, 6.322e-6
-1.064, 6.322e-6
-1.065, 6.322e-6
-1.066, 6.322e-6
-1.067, 6.322e-6
-1.068, 6.322e-6
-1.069, 6.322e-6
-1.070, 6.322e-6
-1.071, 6.322e-6
-1.072, 6.322e-6
-1.073, 6.322e-6
-1.074, 6.322e-6
-1.075, 6.322e-6
-1.076, 6.322e-6
-1.077, 6.322e-6
-1.078, 6.322e-6
-1.079, 6.322e-6
-1.080, 6.322e-6
-1.081, 6.322e-6
-1.082, 6.322e-6
-1.083, 6.322e-6
-1.084, 6.322e-6
-1.085, 6.322e-6
-1.086, 6.322e-6
-1.087, 6.322e-6
-1.088, 6.322e-6
-1.089, 6.322e-6
-1.090, 6.322e-6
-1.091, 6.322e-6
-1.092, 6.322e-6
-1.093, 6.322e-6
-1.094, 6.322e-6
-1.095, 6.322e-6
-1.096, 6.322e-6
-1.097, 6.322e-6
-1.098, 6.322e-6
-1.099, 6.322e-6
-1.100, 6.322e-6
-1.101, 6.322e-6
-1.102, 6.322e-6
-1.103, 6.322e-6
-1.104, 6.322e-6
-1.105, 6.322e-6
-1.106, 6.322e-6
-1.107, 6.322e-6
-1.108, 6.322e-6
-1.109, 6.322e-6
-1.110, 6.322e-6
-1.111, 6.322e-6
-1.112, 6.322e-6
-1.113, 6.322e-6
-1.114, 9.405e-6
-1.115, 6.322e-6
-1.116, 6.322e-6
-1.117, 6.322e-6
-1.118, 6.322e-6
-1.119, 6.322e-6
-1.120, 6.322e-6
-1.121, 6.322e-6
-1.122, 6.322e-6
-1.123, 6.322e-6
-1.124, 6.322e-6
-1.125, 6.322e-6
-1.126, 6.322e-6
-1.127, 9.405e-6
-1.128, 6.322e-6
-1.129, 6.322e-6
-1.130, 6.322e-6
-1.131, 6.322e-6
-1.132, 6.322e-6
-1.133, 6.322e-6
-1.134, 6.322e-6
-1.135, 6.322e-6
-1.136, 6.322e-6
-1.137, 6.322e-6
-1.138, 6.322e-6
-1.139, 6.322e-6
-1.140, 6.322e-6
-1.141, 9.405e-6
-1.142, 6.322e-6
-1.143, 9.405e-6
-1.144, 6.322e-6
-1.145, 9.405e-6
-1.146, 6.322e-6
-1.147, 6.322e-6
-1.148, 6.322e-6
-1.149, 6.322e-6
-1.150, 9.405e-6
-1.151, 6.322e-6
-1.152, 6.322e-6
-1.153, 6.322e-6
-1.154, 9.405e-6
-1.155, 6.322e-6
-1.156, 9.405e-6
-1.157, 9.405e-6
-1.158, 6.322e-6
-1.159, 6.322e-6
-1.160, 6.322e-6
-1.161, 9.405e-6
-1.162, 9.405e-6
-1.163, 6.322e-6
-1.164, 9.405e-6
-1.165, 6.322e-6
-1.166, 9.405e-6
-1.167, 9.405e-6
-1.168, 9.405e-6
-1.169, 9.405e-6
-1.170, 9.405e-6
-1.171, 6.322e-6
-1.172, 6.322e-6
-1.173, 9.405e-6
-1.174, 9.405e-6
-1.175, 9.405e-6
-1.176, 6.322e-6
-1.177, 9.405e-6
-1.178, 9.405e-6
-1.179, 9.405e-6
-1.180, 9.405e-6
-1.181, 9.405e-6
-1.182, 9.405e-6
-1.183, 9.405e-6
-1.184, 9.405e-6
-1.185, 9.405e-6
-1.186, 9.405e-6
-1.187, 9.405e-6
-1.188, 9.405e-6
-1.189, 6.322e-6
-1.190, 9.405e-6
-1.191, 9.405e-6
-1.192, 9.405e-6
-1.193, 9.405e-6
-1.194, 9.405e-6
-1.195, 9.405e-6
-1.196, 9.405e-6
-1.197, 9.405e-6
-1.198, 9.405e-6
-1.199, 9.405e-6
-1.200, 9.405e-6
-1.201, 9.405e-6
-1.202, 9.405e-6
-1.203, 9.405e-6
-1.204, 9.405e-6
-1.205, 9.405e-6
-1.206, 9.405e-6
-1.207, 9.405e-6
-1.208, 9.405e-6
-1.209, 9.405e-6
-1.210, 9.405e-6
-1.211, 9.405e-6
-1.212, 9.405e-6
-1.213, 9.405e-6
-1.214, 9.405e-6
-1.215, 9.405e-6
-1.216, 9.405e-6
-1.217, 9.405e-6
-1.218, 9.405e-6
-1.219, 9.405e-6
-1.220, 9.405e-6
-1.221, 9.405e-6
-1.222, 9.405e-6
-1.223, 9.405e-6
-1.224, 9.405e-6
-1.225, 9.405e-6
-1.226, 9.405e-6
-1.227, 9.405e-6
-1.228, 9.405e-6
-1.229, 9.405e-6
-1.230, 9.405e-6
-1.231, 9.405e-6
-1.232, 9.405e-6
-1.233, 9.405e-6
-1.234, 9.405e-6
-1.235, 9.405e-6
-1.236, 9.405e-6
-1.237, 9.405e-6
-1.238, 9.405e-6
-1.239, 9.405e-6
-1.240, 9.405e-6
-1.241, 9.405e-6
-1.242, 9.405e-6
-1.243, 9.405e-6
-1.244, 9.405e-6
-1.245, 9.405e-6
-1.246, 9.405e-6
-1.247, 9.405e-6
-1.248, 9.405e-6
-1.249, 9.405e-6
-1.250, 1.249e-5
-1.251, 9.405e-6
-1.252, 9.405e-6
-1.253, 9.405e-6
-1.254, 9.405e-6
-1.255, 9.405e-6
-1.256, 9.405e-6
-1.257, 9.405e-6
-1.258, 9.405e-6
-1.259, 9.405e-6
-1.260, 9.405e-6
-1.261, 1.249e-5
-1.262, 9.405e-6
-1.263, 9.405e-6
-1.264, 9.405e-6
-1.265, 9.405e-6
-1.266, 9.405e-6
-1.267, 9.405e-6
-1.268, 9.405e-6
-1.269, 9.405e-6
-1.270, 9.405e-6
-1.271, 9.405e-6
-1.272, 9.405e-6
-1.273, 9.405e-6
-1.274, 9.405e-6
-1.275, 9.405e-6
-1.276, 9.405e-6
-1.277, 9.405e-6
-1.278, 9.405e-6
-1.279, 1.249e-5
-1.280, 9.405e-6
-1.281, 1.249e-5
-1.282, 9.405e-6
-1.283, 9.405e-6
-1.284, 1.249e-5
-1.285, 9.405e-6
-1.286, 1.249e-5
-1.287, 9.405e-6
-1.288, 9.405e-6
-1.289, 9.405e-6
-1.290, 1.249e-5
-1.291, 9.405e-6
-1.292, 9.405e-6
-1.293, 1.249e-5
-1.294, 9.405e-6
-1.295, 1.249e-5
-1.296, 1.249e-5
-1.297, 1.249e-5
-1.298, 9.405e-6
-1.299, 9.405e-6
-1.300, 1.249e-5
-1.301, 9.405e-6
-1.302, 1.249e-5
-1.303, 9.405e-6
-1.304, 1.249e-5
-1.305, 9.405e-6
-1.306, 1.249e-5
-1.307, 1.249e-5
-1.308, 1.249e-5
-1.309, 1.249e-5
-1.310, 1.249e-5
-1.311, 1.249e-5
-1.312, 1.249e-5
-1.313, 1.249e-5
-1.314, 1.249e-5
-1.315, 1.249e-5
-1.316, 1.249e-5
-1.317, 9.405e-6
-1.318, 1.249e-5
-1.319, 1.249e-5
-1.320, 1.249e-5
-1.321, 1.249e-5
-1.322, 1.249e-5
-1.323, 1.249e-5
-1.324, 1.249e-5
-1.325, 1.249e-5
-1.326, 1.249e-5
-1.327, 1.249e-5
-1.328, 1.249e-5
-1.329, 1.249e-5
-1.330, 1.249e-5
-1.331, 1.249e-5
-1.332, 1.249e-5
-1.333, 1.249e-5
-1.334, 1.249e-5
-1.335, 1.249e-5
-1.336, 1.249e-5
-1.337, 1.249e-5
-1.338, 1.249e-5
-1.339, 1.249e-5
-1.340, 1.249e-5
-1.341, 1.249e-5
-1.342, 1.249e-5
-1.343, 1.249e-5
-1.344, 1.249e-5
-1.345, 1.249e-5
-1.346, 1.249e-5
-1.347, 1.249e-5
-1.348, 1.249e-5
-1.349, 1.249e-5
-1.350, 1.249e-5
-1.351, 1.249e-5
-1.352, 1.249e-5
-1.353, 1.249e-5
-1.354, 1.249e-5
-1.355, 1.249e-5
-1.356, 1.249e-5
-1.357, 1.249e-5
-1.358, 1.249e-5
-1.359, 1.249e-5
-1.360, 1.249e-5
-1.361, 1.249e-5
-1.362, 1.249e-5
-1.363, 1.249e-5
-1.364, 1.249e-5
-1.365, 1.249e-5
-1.366, 1.249e-5
-1.367, 1.249e-5
-1.368, 1.249e-5
-1.369, 1.249e-5
-1.370, 1.249e-5
-1.371, 1.249e-5
-1.372, 1.557e-5
-1.373, 1.249e-5
-1.374, 1.249e-5
-1.375, 1.249e-5
-1.376, 1.249e-5
-1.377, 1.557e-5
-1.378, 1.249e-5
-1.379, 1.557e-5
-1.380, 1.249e-5
-1.381, 1.557e-5
-1.382, 1.249e-5
-1.383, 1.557e-5
-1.384, 1.249e-5
-1.385, 1.249e-5
-1.386, 1.557e-5
-1.387, 1.249e-5
-1.388, 1.557e-5
-1.389, 1.249e-5
-1.390, 1.557e-5
-1.391, 1.249e-5
-1.392, 1.249e-5
-1.393, 1.249e-5
-1.394, 1.557e-5
-1.395, 1.557e-5
-1.396, 1.249e-5
-1.397, 1.557e-5
-1.398, 1.557e-5
-1.399, 1.557e-5
-1.400, 1.557e-5
-1.401, 1.557e-5
-1.402, 1.557e-5
-1.403, 1.557e-5
-1.404, 1.557e-5
-1.405, 1.557e-5
-1.406, 1.557e-5
-1.407, 1.557e-5
-1.408, 1.557e-5
-1.409, 1.557e-5
-1.410, 1.557e-5
-1.411, 1.557e-5
-1.412, 1.557e-5
-1.413, 1.557e-5
-1.414, 1.557e-5
-1.415, 1.557e-5
-1.416, 1.557e-5
-1.417, 1.557e-5
-1.418, 1.557e-5
-1.419, 1.557e-5
-1.420, 1.557e-5
-1.421, 1.557e-5
-1.422, 1.557e-5
-1.423, 1.557e-5
-1.424, 1.557e-5
-1.425, 1.557e-5
-1.426, 1.557e-5
-1.427, 1.557e-5
-1.428, 1.557e-5
-1.429, 1.557e-5
-1.430, 1.557e-5
-1.431, 1.865e-5
-1.432, 1.557e-5
-1.433, 1.557e-5
-1.434, 1.557e-5
-1.435, 1.557e-5
-1.436, 1.865e-5
-1.437, 1.557e-5
-1.438, 1.865e-5
-1.439, 1.557e-5
-1.440, 1.865e-5
-1.441, 1.557e-5
-1.442, 1.865e-5
-1.443, 1.865e-5
-1.444, 1.557e-5
-1.445, 1.865e-5
-1.446, 1.865e-5
-1.447, 1.865e-5
-1.448, 1.865e-5
-1.449, 1.865e-5
-1.450, 1.865e-5
-1.451, 1.865e-5
-1.452, 1.865e-5
-1.453, 1.865e-5
-1.454, 1.865e-5
-1.455, 1.865e-5
-1.456, 1.865e-5
-1.457, 1.865e-5
-1.458, 1.865e-5
-1.459, 1.865e-5
-1.460, 1.865e-5
-1.461, 1.865e-5
-1.462, 1.865e-5
-1.463, 1.865e-5
-1.464, 1.865e-5
-1.465, 2.174e-5
-1.466, 1.865e-5
-1.467, 1.865e-5
-1.468, 1.865e-5
-1.469, 1.865e-5
-1.470, 1.865e-5
-1.471, 1.865e-5
-1.472, 2.174e-5
-1.473, 1.865e-5
-1.474, 2.174e-5
-1.475, 1.865e-5
-1.476, 2.174e-5
-1.477, 2.174e-5
-1.478, 2.174e-5
-1.479, 2.174e-5
-1.480, 1.865e-5
-1.481, 2.174e-5
-1.482, 2.174e-5
-1.483, 2.174e-5
-1.484, 2.174e-5
-1.485, 2.174e-5
-1.486, 2.174e-5
-1.487, 2.174e-5
-1.488, 2.482e-5
-1.489, 2.174e-5
-1.490, 2.174e-5
-1.491, 2.174e-5
-1.492, 2.482e-5
-1.493, 2.174e-5
-1.494, 2.482e-5
-1.495, 2.482e-5
-1.496, 2.174e-5
-1.497, 2.482e-5
-1.498, 2.174e-5
-1.499, 2.482e-5
-1.500, 2.482e-5
-1.501, 2.482e-5
-1.502, 2.482e-5
-1.503, 2.482e-5
-1.504, 2.482e-5
-1.505, 2.482e-5
-1.506, 2.790e-5
-1.507, 2.482e-5
-1.508, 2.790e-5
-1.509, 2.482e-5
-1.510, 2.790e-5
-1.511, 2.790e-5
-1.512, 2.790e-5
-1.513, 2.790e-5
-1.514, 2.790e-5
-1.515, 2.790e-5
-1.516, 2.790e-5
-1.517, 2.790e-5
-1.518, 2.790e-5
-1.519, 2.790e-5
-1.520, 2.790e-5
-1.521, 2.790e-5
-1.522, 3.099e-5
-1.523, 3.099e-5
-1.524, 3.099e-5
-1.525, 3.099e-5
-1.526, 3.099e-5
-1.527, 3.099e-5
-1.528, 3.099e-5
-1.529, 3.099e-5
-1.530, 3.099e-5
-1.531, 3.407e-5
-1.532, 3.407e-5
-1.533, 3.407e-5
-1.534, 3.407e-5
-1.535, 3.407e-5
-1.536, 3.407e-5
-1.537, 3.407e-5
-1.538, 3.715e-5
-1.539, 3.715e-5
-1.540, 3.715e-5
-1.541, 3.715e-5
-1.542, 3.715e-5
-1.543, 3.715e-5
-1.544, 3.715e-5
-1.545, 3.715e-5
-1.546, 4.024e-5
-1.547, 4.024e-5
-1.548, 4.024e-5
-1.549, 4.024e-5
-1.550, 4.024e-5
-1.551, 4.332e-5
-1.552, 4.332e-5
-1.553, 4.332e-5
-1.554, 4.332e-5
-1.555, 4.332e-5
-1.556, 4.640e-5
-1.557, 4.949e-5
-1.558, 4.949e-5
-1.559, 4.949e-5
-1.560, 5.257e-5
-1.561, 4.640e-5
-1.562, 4.640e-5
-1.563, 4.640e-5
-1.564, 4.949e-5
-1.565, 4.949e-5
-1.566, 4.949e-5
-1.567, 4.949e-5
-1.568, 4.949e-5
-1.569, 5.257e-5
-1.570, 5.257e-5
-1.571, 5.257e-5
-1.572, 5.257e-5
-1.573, 5.257e-5
-1.574, 5.565e-5
-1.575, 5.565e-5
-1.576, 5.565e-5
-1.577, 5.565e-5
-1.578, 5.873e-5
-1.579, 5.873e-5
-1.580, 5.873e-5
-1.581, 6.182e-5
-1.582, 6.182e-5
-1.583, 6.182e-5
-1.584, 6.182e-5
-1.585, 6.490e-5
-1.586, 6.490e-5
-1.587, 6.798e-5
-1.588, 6.798e-5
-1.589, 6.798e-5
-1.590, 7.107e-5
-1.591, 7.415e-5
-1.592, 7.415e-5
-1.593, 7.723e-5
-1.594, 7.723e-5
-1.595, 7.107e-5
-1.596, 7.415e-5
-1.597, 7.415e-5
-1.598, 7.415e-5
-1.599, 7.723e-5
-1.600, 7.723e-5
-1.601, 8.032e-5
-1.602, 8.032e-5
-1.603, 8.032e-5
-1.604, 8.340e-5
-1.605, 8.340e-5
-1.606, 8.340e-5
-1.607, 8.648e-5
-1.608, 8.957e-5
-1.609, 8.648e-5
-1.610, 8.957e-5
-1.611, 9.265e-5
-1.612, 9.265e-5
-1.613, 9.573e-5
-1.614, 9.573e-5
-1.615, 1.019e-4
-1.616, 1.019e-4
-1.617, 1.050e-4
-1.618, 1.081e-4
-1.619, 1.111e-4
-1.620, 1.142e-4
-1.621, 1.142e-4
-1.622, 1.081e-4
-1.623, 1.081e-4
-1.624, 1.111e-4
-1.625, 1.111e-4
-1.626, 1.142e-4
-1.627, 1.173e-4
-1.628, 1.204e-4
-1.629, 1.204e-4
-1.630, 1.204e-4
-1.631, 1.235e-4
-1.632, 1.266e-4
-1.633, 1.296e-4
-1.634, 1.296e-4
-1.635, 1.327e-4
-1.636, 1.358e-4
-1.637, 1.389e-4
-1.638, 1.420e-4
-1.639, 1.451e-4
-1.640, 1.512e-4
-1.641, 1.543e-4
-1.642, 1.605e-4
-1.643, 1.481e-4
-1.644, 1.543e-4
-1.645, 1.543e-4
-1.646, 1.574e-4
-1.647, 1.605e-4
-1.648, 1.636e-4
-1.649, 1.666e-4
-1.650, 1.697e-4
-1.651, 1.697e-4
-1.652, 1.759e-4
-1.653, 1.790e-4
-1.654, 1.821e-4
-1.655, 1.851e-4
-1.656, 1.913e-4
-1.657, 1.944e-4
-1.658, 2.006e-4
-1.659, 2.067e-4
-1.660, 2.129e-4
-1.661, 2.036e-4
-1.662, 2.067e-4
-1.663, 2.129e-4
-1.664, 2.160e-4
-1.665, 2.191e-4
-1.666, 2.221e-4
-1.667, 2.252e-4
-1.668, 2.314e-4
-1.669, 2.345e-4
-1.670, 2.406e-4
-1.671, 2.468e-4
-1.672, 2.530e-4
-1.673, 2.591e-4
-1.674, 2.684e-4
-1.675, 2.776e-4
-1.676, 2.746e-4
-1.677, 2.715e-4
-1.678, 2.807e-4
-1.679, 2.838e-4
-1.680, 2.900e-4
-1.681, 2.961e-4
-1.682, 2.992e-4
-1.683, 3.054e-4
-1.684, 3.115e-4
-1.685, 3.177e-4
-1.686, 3.270e-4
-1.687, 3.393e-4
-1.688, 3.516e-4
-1.689, 3.547e-4
-1.690, 3.485e-4
-1.691, 3.578e-4
-1.692, 3.640e-4
-1.693, 3.670e-4
-1.694, 3.732e-4
-1.695, 3.794e-4
-1.696, 3.855e-4
-1.697, 3.948e-4
-1.698, 4.071e-4
-1.699, 4.195e-4
-1.700, 4.318e-4
-1.701, 4.410e-4
-1.702, 4.380e-4
-1.703, 4.472e-4
-1.704, 4.534e-4
-1.705, 4.657e-4
-1.706, 4.750e-4
-1.707, 4.811e-4
-1.708, 4.935e-4
-1.709, 5.058e-4
-1.710, 5.212e-4
-1.711, 5.366e-4
-1.712, 5.489e-4
-1.713, 5.428e-4
-1.714, 5.520e-4
-1.715, 5.644e-4
-1.716, 5.736e-4
-1.717, 5.859e-4
-1.718, 5.983e-4
-1.719, 6.137e-4
-1.720, 6.291e-4
-1.721, 6.476e-4
-1.722, 6.661e-4
-1.723, 6.599e-4
-1.724, 6.754e-4
-1.725, 6.846e-4
-1.726, 7.000e-4
-1.727, 7.154e-4
-1.728, 7.278e-4
-1.729, 7.432e-4
-1.730, 7.648e-4
-1.731, 7.863e-4
-1.732, 8.110e-4
-1.733, 8.079e-4
-1.734, 8.203e-4
-1.735, 8.388e-4
-1.736, 8.573e-4
-1.737, 8.758e-4
-1.738, 8.943e-4
-1.739, 9.128e-4
-1.740, 9.374e-4
-1.741, 9.621e-4
-1.742, 9.652e-4
-1.743, 9.806e-4
-1.744, 9.991e-4
-1.745, 1.021e-3
-1.746, 1.042e-3
-1.747, 1.064e-3
-1.748, 1.088e-3
-1.749, 1.116e-3
-1.750, 1.144e-3
-1.751, 1.150e-3
-1.752, 1.169e-3
-1.753, 1.193e-3
-1.754, 1.215e-3
-1.755, 1.240e-3
-1.756, 1.264e-3
-1.757, 1.295e-3
-1.758, 1.332e-3
-1.759, 1.341e-3
-1.760, 1.363e-3
-1.761, 1.384e-3
-1.762, 1.412e-3
-1.763, 1.440e-3
-1.764, 1.468e-3
-1.765, 1.502e-3
-1.766, 1.545e-3
-1.767, 1.554e-3
-1.768, 1.582e-3
-1.769, 1.616e-3
-1.770, 1.647e-3
-1.771, 1.674e-3
-1.772, 1.708e-3
-1.773, 1.748e-3
-1.774, 1.795e-3
-1.775, 1.807e-3
-1.776, 1.838e-3
-1.777, 1.869e-3
-1.778, 1.906e-3
-1.779, 1.939e-3
-1.780, 1.983e-3
-1.781, 2.029e-3
-1.782, 2.057e-3
-1.783, 2.087e-3
-1.784, 2.124e-3
-1.785, 2.161e-3
-1.786, 2.201e-3
-1.787, 2.245e-3
-1.788, 2.294e-3
-1.789, 2.334e-3
-1.790, 2.359e-3
-1.791, 2.405e-3
-1.792, 2.445e-3
-1.793, 2.485e-3
-1.794, 2.534e-3
-1.795, 2.584e-3
-1.796, 2.621e-3
-1.797, 2.655e-3
-1.798, 2.701e-3
-1.799, 2.747e-3
-1.800, 2.793e-3
-1.801, 2.846e-3
-1.802, 2.908e-3
-1.803, 2.941e-3
-1.804, 2.985e-3
-1.805, 3.034e-3
-1.806, 3.083e-3
-1.807, 3.136e-3
-1.808, 3.194e-3
-1.809, 3.253e-3
-1.810, 3.287e-3
-1.811, 3.336e-3
-1.812, 3.395e-3
-1.813, 3.447e-3
-1.814, 3.509e-3
-1.815, 3.573e-3
-1.816, 3.623e-3
-1.817, 3.672e-3
-1.818, 3.731e-3
-1.819, 3.786e-3
-1.820, 3.845e-3
-1.821, 3.910e-3
-1.822, 3.971e-3
-1.823, 4.014e-3
-1.824, 4.076e-3
-1.825, 4.138e-3
-1.826, 4.202e-3
-1.827, 4.264e-3
-1.828, 4.332e-3
-1.829, 4.366e-3
-1.830, 4.421e-3
-1.831, 4.483e-3
-1.832, 4.545e-3
-1.833, 4.619e-3
-1.834, 4.705e-3
-1.835, 4.764e-3
-1.836, 4.841e-3
-1.837, 4.921e-3
-1.838, 4.995e-3
-1.839, 5.075e-3
-1.840, 5.155e-3
-1.841, 5.208e-3
-1.842, 5.266e-3
-1.843, 5.325e-3
-1.844, 5.374e-3
-1.845, 5.433e-3
-1.846, 5.504e-3
-1.847, 5.571e-3
-1.848, 5.642e-3
-1.849, 5.722e-3
-1.850, 5.809e-3
-1.851, 5.895e-3
-1.852, 5.991e-3
-1.853, 6.071e-3
-1.854, 6.139e-3
-1.855, 6.213e-3
-1.856, 6.284e-3
-1.857, 6.358e-3
-1.858, 6.428e-3
-1.859, 6.490e-3
-1.860, 6.549e-3
-1.861, 6.620e-3
-1.862, 6.691e-3
-1.863, 6.761e-3
-1.864, 6.848e-3
-1.865, 6.919e-3
-1.866, 6.993e-3
-1.867, 7.079e-3
-1.868, 7.165e-3
-1.869, 7.255e-3
-1.870, 7.347e-3
-1.871, 7.418e-3
-1.872, 7.501e-3
-1.873, 7.582e-3
-1.874, 7.662e-3
-1.875, 7.745e-3
-1.876, 7.822e-3
-1.877, 7.878e-3
-1.878, 7.945e-3
-1.879, 8.019e-3
-1.880, 8.096e-3
-1.881, 8.183e-3
-1.882, 8.247e-3
-1.883, 8.337e-3
-1.884, 8.423e-3
-1.885, 8.519e-3
-1.886, 8.614e-3
-1.887, 8.710e-3
-1.888, 8.790e-3
-1.889, 8.880e-3
-1.890, 8.963e-3
-1.891, 9.049e-3
-1.892, 9.138e-3
-1.893, 9.206e-3
-1.894, 9.290e-3
-1.895, 9.373e-3
-1.896, 9.468e-3
-1.897, 9.567e-3
-1.898, 9.660e-3
-1.899, 9.749e-3
-1.900, 9.801e-3
-1.899, 9.771e-3
-1.898, 9.746e-3
-1.897, 9.706e-3
-1.896, 9.660e-3
-1.895, 9.619e-3
-1.894, 9.582e-3
-1.893, 9.545e-3
-1.892, 9.502e-3
-1.891, 9.447e-3
-1.890, 9.404e-3
-1.889, 9.357e-3
-1.888, 9.323e-3
-1.887, 9.283e-3
-1.886, 9.228e-3
-1.885, 9.185e-3
-1.884, 9.138e-3
-1.883, 9.098e-3
-1.882, 9.058e-3
-1.881, 8.997e-3
-1.880, 8.944e-3
-1.879, 8.895e-3
-1.878, 8.843e-3
-1.877, 8.799e-3
-1.876, 8.735e-3
-1.875, 8.676e-3
-1.874, 8.621e-3
-1.873, 8.565e-3
-1.872, 8.519e-3
-1.871, 8.469e-3
-1.870, 8.405e-3
-1.869, 8.355e-3
-1.868, 8.306e-3
-1.867, 8.257e-3
-1.866, 8.210e-3
-1.865, 8.155e-3
-1.864, 8.090e-3
-1.863, 8.035e-3
-1.862, 7.973e-3
-1.861, 7.918e-3
-1.860, 7.868e-3
-1.859, 7.810e-3
-1.858, 7.754e-3
-1.857, 7.702e-3
-1.856, 7.649e-3
-1.855, 7.603e-3
-1.854, 7.560e-3
-1.853, 7.504e-3
-1.852, 7.449e-3
-1.851, 7.397e-3
-1.850, 7.341e-3
-1.849, 7.295e-3
-1.848, 7.245e-3
-1.847, 7.181e-3
-1.846, 7.122e-3
-1.845, 7.064e-3
-1.844, 7.005e-3
-1.843, 6.956e-3
-1.842, 6.906e-3
-1.841, 6.848e-3
-1.840, 6.792e-3
-1.839, 6.740e-3
-1.838, 6.691e-3
-1.837, 6.644e-3
-1.836, 6.598e-3
-1.835, 6.552e-3
-1.834, 6.490e-3
-1.833, 6.441e-3
-1.832, 6.385e-3
-1.831, 6.333e-3
-1.830, 6.287e-3
-1.829, 6.237e-3
-1.828, 6.169e-3
-1.827, 6.117e-3
-1.826, 6.068e-3
-1.825, 6.015e-3
-1.824, 5.966e-3
-1.823, 5.920e-3
-1.822, 5.867e-3
-1.821, 5.806e-3
-1.820, 5.759e-3
-1.819, 5.713e-3
-1.818, 5.670e-3
-1.817, 5.633e-3
-1.816, 5.596e-3
-1.815, 5.537e-3
-1.814, 5.491e-3
-1.813, 5.442e-3
-1.812, 5.393e-3
-1.811, 5.346e-3
-1.810, 5.303e-3
-1.809, 5.254e-3
-1.808, 5.186e-3
-1.807, 5.134e-3
-1.806, 5.084e-3
-1.805, 5.038e-3
-1.804, 4.992e-3
-1.803, 4.952e-3
-1.802, 4.915e-3
-1.801, 4.859e-3
-1.800, 4.813e-3
-1.799, 4.773e-3
-1.798, 4.733e-3
-1.797, 4.690e-3
-1.796, 4.649e-3
-1.795, 4.616e-3
-1.794, 4.554e-3
-1.793, 4.508e-3
-1.792, 4.461e-3
-1.791, 4.412e-3
-1.790, 4.372e-3
-1.789, 4.332e-3
-1.788, 4.295e-3
-1.787, 4.246e-3
-1.786, 4.199e-3
-1.785, 4.159e-3
-1.784, 4.116e-3
-1.783, 4.076e-3
-1.782, 4.039e-3
-1.781, 4.002e-3
-1.780, 3.968e-3
-1.779, 3.916e-3
-1.778, 3.876e-3
-1.777, 3.836e-3
-1.776, 3.795e-3
-1.775, 3.758e-3
-1.774, 3.721e-3
-1.773, 3.684e-3
-1.772, 3.647e-3
-1.771, 3.598e-3
-1.770, 3.555e-3
-1.769, 3.515e-3
-1.768, 3.475e-3
-1.767, 3.438e-3
-1.766, 3.401e-3
-1.765, 3.367e-3
-1.764, 3.333e-3
-1.763, 3.284e-3
-1.762, 3.244e-3
-1.761, 3.210e-3
-1.760, 3.176e-3
-1.759, 3.142e-3
-1.758, 3.111e-3
-1.757, 3.080e-3
-1.756, 3.049e-3
-1.755, 3.009e-3
-1.754, 2.966e-3
-1.753, 2.932e-3
-1.752, 2.898e-3
-1.751, 2.864e-3
-1.750, 2.834e-3
-1.749, 2.797e-3
-1.748, 2.769e-3
-1.747, 2.741e-3
-1.746, 2.704e-3
-1.745, 2.664e-3
-1.744, 2.633e-3
-1.743, 2.602e-3
-1.742, 2.575e-3
-1.741, 2.541e-3
-1.740, 2.516e-3
-1.739, 2.485e-3
-1.738, 2.457e-3
-1.737, 2.430e-3
-1.736, 2.386e-3
-1.735, 2.356e-3
-1.734, 2.325e-3
-1.733, 2.294e-3
-1.732, 2.263e-3
-1.731, 2.238e-3
-1.730, 2.208e-3
-1.729, 2.186e-3
-1.728, 2.161e-3
-1.727, 2.134e-3
-1.726, 2.094e-3
-1.725, 2.069e-3
-1.724, 2.038e-3
-1.723, 2.013e-3
-1.722, 1.986e-3
-1.721, 1.961e-3
-1.720, 1.939e-3
-1.719, 1.915e-3
-1.718, 1.893e-3
-1.717, 1.872e-3
-1.716, 1.835e-3
-1.715, 1.807e-3
-1.714, 1.782e-3
-1.713, 1.758e-3
-1.712, 1.733e-3
-1.711, 1.708e-3
-1.710, 1.684e-3
-1.709, 1.662e-3
-1.708, 1.640e-3
-1.707, 1.619e-3
-1.706, 1.603e-3
-1.705, 1.566e-3
-1.704, 1.548e-3
-1.703, 1.526e-3
-1.702, 1.505e-3
-1.701, 1.480e-3
-1.700, 1.458e-3
-1.699, 1.437e-3
-1.698, 1.418e-3
-1.697, 1.400e-3
-1.696, 1.381e-3
-1.695, 1.366e-3
-1.694, 1.341e-3
-1.693, 1.314e-3
-1.692, 1.292e-3
-1.691, 1.277e-3
-1.690, 1.258e-3
-1.689, 1.233e-3
-1.688, 1.218e-3
-1.687, 1.199e-3
-1.686, 1.184e-3
-1.685, 1.166e-3
-1.684, 1.150e-3
-1.683, 1.138e-3
-1.682, 1.122e-3
-1.681, 1.095e-3
-1.680, 1.076e-3
-1.679, 1.058e-3
-1.678, 1.042e-3
-1.677, 1.027e-3
-1.676, 1.008e-3
-1.675, 9.929e-4
-1.674, 9.775e-4
-1.673, 9.621e-4
-1.672, 9.498e-4
-1.671, 9.343e-4
-1.670, 9.220e-4
-1.669, 9.097e-4
-1.668, 8.973e-4
-1.667, 8.696e-4
-1.666, 8.573e-4
-1.665, 8.449e-4
-1.664, 8.295e-4
-1.663, 8.141e-4
-1.662, 8.018e-4
-1.661, 7.863e-4
-1.660, 7.740e-4
-1.659, 7.617e-4
-1.658, 7.494e-4
-1.657, 7.370e-4
-1.656, 7.278e-4
-1.655, 7.154e-4
-1.654, 7.062e-4
-1.653, 6.969e-4
-1.652, 6.784e-4
-1.651, 6.599e-4
-1.650, 6.507e-4
-1.649, 6.384e-4
-1.648, 6.260e-4
-1.647, 6.168e-4
-1.646, 6.075e-4
-1.645, 5.952e-4
-1.644, 5.829e-4
-1.643, 5.767e-4
-1.642, 5.644e-4
-1.641, 5.551e-4
-1.640, 5.459e-4
-1.639, 5.366e-4
-1.638, 5.274e-4
-1.637, 5.212e-4
-1.636, 5.150e-4
-1.635, 5.058e-4
-1.634, 4.842e-4
-1.633, 4.750e-4
-1.632, 4.688e-4
-1.631, 4.595e-4
-1.630, 4.503e-4
-1.629, 4.410e-4
-1.628, 4.349e-4
-1.627, 4.256e-4
-1.626, 4.164e-4
-1.625, 4.102e-4
-1.624, 4.040e-4
-1.623, 3.948e-4
-1.622, 3.886e-4
-1.621, 3.825e-4
-1.620, 3.732e-4
-1.619, 3.701e-4
-1.618, 3.640e-4
-1.617, 3.578e-4
-1.616, 3.516e-4
-1.615, 3.393e-4
-1.614, 3.300e-4
-1.613, 3.239e-4
-1.612, 3.177e-4
-1.611, 3.115e-4
-1.610, 3.023e-4
-1.609, 2.992e-4
-1.608, 2.931e-4
-1.607, 2.869e-4
-1.606, 2.807e-4
-1.605, 2.746e-4
-1.604, 2.715e-4
-1.603, 2.653e-4
-1.602, 2.591e-4
-1.601, 2.530e-4
-1.600, 2.499e-4
-1.599, 2.437e-4
-1.598, 2.406e-4
-1.597, 2.376e-4
-1.596, 2.314e-4
-1.595, 2.283e-4
-1.594, 2.252e-4
-1.593, 2.221e-4
-1.592, 2.098e-4
-1.591, 2.036e-4
-1.590, 2.006e-4
-1.589, 1.944e-4
-1.588, 1.913e-4
-1.587, 1.882e-4
-1.586, 1.851e-4
-1.585, 1.790e-4
-1.584, 1.759e-4
-1.583, 1.728e-4
-1.582, 1.666e-4
-1.581, 1.666e-4
-1.580, 1.605e-4
-1.579, 1.574e-4
-1.578, 1.543e-4
-1.577, 1.512e-4
-1.576, 1.481e-4
-1.575, 1.451e-4
-1.574, 1.420e-4
-1.573, 1.389e-4
-1.572, 1.389e-4
-1.571, 1.358e-4
-1.570, 1.327e-4
-1.569, 1.296e-4
-1.568, 1.266e-4
-1.567, 1.235e-4
-1.566, 1.235e-4
-1.565, 1.173e-4
-1.564, 1.111e-4
-1.563, 1.111e-4
-1.562, 1.081e-4
-1.561, 1.050e-4
-1.560, 1.019e-4
-1.559, 9.882e-5
-1.558, 9.573e-5
-1.557, 9.573e-5
-1.556, 9.265e-5
-1.555, 8.957e-5
-1.554, 8.648e-5
-1.553, 8.648e-5
-1.552, 8.340e-5
-1.551, 8.032e-5
-1.550, 8.032e-5
-1.549, 7.723e-5
-1.548, 7.415e-5
-1.547, 7.415e-5
-1.546, 7.107e-5
-1.545, 7.107e-5
-1.544, 6.798e-5
-1.543, 6.798e-5
-1.542, 6.490e-5
-1.541, 6.490e-5
-1.540, 6.182e-5
-1.539, 6.182e-5
-1.538, 6.182e-5
-1.537, 5.873e-5
-1.536, 5.873e-5
-1.535, 5.565e-5
-1.534, 5.565e-5
-1.533, 5.565e-5
-1.532, 5.257e-5
-1.531, 5.257e-5
-1.530, 5.257e-5
-1.529, 4.640e-5
-1.528, 4.640e-5
-1.527, 4.332e-5
-1.526, 4.332e-5
-1.525, 4.024e-5
-1.524, 4.024e-5
-1.523, 3.715e-5
-1.522, 3.715e-5
-1.521, 3.715e-5
-1.520, 3.715e-5
-1.519, 3.407e-5
-1.518, 3.407e-5
-1.517, 3.407e-5
-1.516, 3.407e-5
-1.515, 3.099e-5
-1.514, 3.099e-5
-1.513, 3.099e-5
-1.512, 2.790e-5
-1.511, 2.790e-5
-1.510, 2.790e-5
-1.509, 2.482e-5
-1.508, 2.482e-5
-1.507, 2.482e-5
-1.506, 2.482e-5
-1.505, 2.482e-5
-1.504, 2.174e-5
-1.503, 2.174e-5
-1.502, 2.174e-5
-1.501, 2.174e-5
-1.500, 2.174e-5
-1.499, 1.865e-5
-1.498, 1.865e-5
-1.497, 1.865e-5
-1.496, 1.865e-5
-1.495, 1.865e-5
-1.494, 1.865e-5
-1.493, 1.557e-5
-1.492, 1.557e-5
-1.491, 1.557e-5
-1.490, 1.557e-5
-1.489, 1.557e-5
-1.488, 1.557e-5
-1.487, 1.557e-5
-1.486, 1.557e-5
-1.485, 1.249e-5
-1.484, 1.249e-5
-1.483, 1.249e-5
-1.482, 1.249e-5
-1.481, 9.405e-6
-1.480, 9.405e-6
-1.479, 9.405e-6
-1.478, 9.405e-6
-1.477, 9.405e-6
-1.476, 9.405e-6
-1.475, 9.405e-6
-1.474, 6.322e-6
-1.473, 9.405e-6
-1.472, 6.322e-6
-1.471, 6.322e-6
-1.470, 6.322e-6
-1.469, 6.322e-6
-1.468, 6.322e-6
-1.467, 6.322e-6
-1.466, 6.322e-6
-1.465, 6.322e-6
-1.464, 6.322e-6
-1.463, 6.322e-6
-1.462, 3.239e-6
-1.461, 6.322e-6
-1.460, 6.322e-6
-1.459, 3.239e-6
-1.458, 3.239e-6
-1.457, 3.239e-6
-1.456, 3.239e-6
-1.455, 3.239e-6
-1.454, 3.239e-6
-1.453, 3.239e-6
-1.452, 3.239e-6
-1.451, 3.239e-6
-1.450, 3.239e-6
-1.449, 3.239e-6
-1.448, 3.239e-6
-1.447, 3.239e-6
-1.446, 1.559e-7
-1.445, 3.239e-6
-1.444, 3.239e-6
-1.443, 3.239e-6
-1.442, 1.559e-7
-1.441, 3.239e-6
-1.440, 1.559e-7
-1.439, 3.239e-6
-1.438, 1.559e-7
-1.437, 3.239e-6
-1.436, 1.559e-7
-1.435, 1.559e-7
-1.434, 1.559e-7
-1.433, 1.559e-7
-1.432, 1.559e-7
-1.431, 1.559e-7
-1.430, 1.559e-7
-1.429, 1.559e-7
-1.428, 1.559e-7
-1.427, 1.559e-7
-1.426, 1.559e-7
-1.425, 1.559e-7
-1.424, 1.559e-7
-1.423, 1.559e-7
-1.422, 1.559e-7
-1.421, -2.927e-6
-1.420, 1.559e-7
-1.419, 1.559e-7
-1.418, 1.559e-7
-1.417, 1.559e-7
-1.416, -2.927e-6
-1.415, -2.927e-6
-1.414, 1.559e-7
-1.413, 1.559e-7
-1.412, 1.559e-7
-1.411, -2.927e-6
-1.410, -2.927e-6
-1.409, -2.927e-6
-1.408, -2.927e-6
-1.407, 1.559e-7
-1.406, -2.927e-6
-1.405, 1.559e-7
-1.404, 1.559e-7
-1.403, -2.927e-6
-1.402, 1.559e-7
-1.401, -2.927e-6
-1.400, -2.927e-6
-1.399, -2.927e-6
-1.398, -2.927e-6
-1.397, -2.927e-6
-1.396, -2.927e-6
-1.395, -2.927e-6
-1.394, -2.927e-6
-1.393, -2.927e-6
-1.392, -2.927e-6
-1.391, -2.927e-6
-1.390, -2.927e-6
-1.389, -2.927e-6
-1.388, -2.927e-6
-1.387, -2.927e-6
-1.386, -2.927e-6
-1.385, -2.927e-6
-1.384, -2.927e-6
-1.383, -2.927e-6
-1.382, -2.927e-6
-1.381, -2.927e-6
-1.380, -2.927e-6
-1.379, -2.927e-6
-1.378, -2.927e-6
-1.377, -2.927e-6
-1.376, -2.927e-6
-1.375, -2.927e-6
-1.374, -2.927e-6
-1.373, -2.927e-6
-1.372, -2.927e-6
-1.371, -2.927e-6
-1.370, -2.927e-6
-1.369, -2.927e-6
-1.368, -2.927e-6
-1.367, -2.927e-6
-1.366, -2.927e-6
-1.365, -2.927e-6
-1.364, -2.927e-6
-1.363, -2.927e-6
-1.362, -2.927e-6
-1.361, -2.927e-6
-1.360, -2.927e-6
-1.359, -2.927e-6
-1.358, -2.927e-6
-1.357, -2.927e-6
-1.356, -2.927e-6
-1.355, -2.927e-6
-1.354, -2.927e-6
-1.353, -2.927e-6
-1.352, -2.927e-6
-1.351, -2.927e-6
-1.350, -2.927e-6
-1.349, -2.927e-6
-1.348, -2.927e-6
-1.347, -2.927e-6
-1.346, -2.927e-6
-1.345, -2.927e-6
-1.344, -2.927e-6
-1.343, -2.927e-6
-1.342, -2.927e-6
-1.341, -2.927e-6
-1.340, -6.010e-6
-1.339, -2.927e-6
-1.338, -6.010e-6
-1.337, -2.927e-6
-1.336, -2.927e-6
-1.335, -2.927e-6
-1.334, -2.927e-6
-1.333, -6.010e-6
-1.332, -2.927e-6
-1.331, -2.927e-6
-1.330, -2.927e-6
-1.329, -6.010e-6
-1.328, -6.010e-6
-1.327, -2.927e-6
-1.326, -6.010e-6
-1.325, -2.927e-6
-1.324, -2.927e-6
-1.323, -2.927e-6
-1.322, -6.010e-6
-1.321, -2.927e-6
-1.320, -2.927e-6
-1.319, -6.010e-6
-1.318, -2.927e-6
-1.317, -2.927e-6
-1.316, -2.927e-6
-1.315, -2.927e-6
-1.314, -2.927e-6
-1.313, -6.010e-6
-1.312, -2.927e-6
-1.311, -2.927e-6
-1.310, -6.010e-6
-1.309, -6.010e-6
-1.308, -2.927e-6
-1.307, -6.010e-6
-1.306, -2.927e-6
-1.305, -2.927e-6
-1.304, -2.927e-6
-1.303, -2.927e-6
-1.302, -2.927e-6
-1.301, -6.010e-6
-1.300, -6.010e-6
-1.299, -6.010e-6
-1.298, -2.927e-6
-1.297, -6.010e-6
-1.296, -2.927e-6
-1.295, -6.010e-6
-1.294, -6.010e-6
-1.293, -2.927e-6
-1.292, -6.010e-6
-1.291, -2.927e-6
-1.290, -6.010e-6
-1.289, -2.927e-6
-1.288, -2.927e-6
-1.287, -2.927e-6
-1.286, -6.010e-6
-1.285, -2.927e-6
-1.284, -2.927e-6
-1.283, -6.010e-6
-1.282, -6.010e-6
-1.281, -6.010e-6
-1.280, -6.010e-6
-1.279, -6.010e-6
-1.278, -6.010e-6
-1.277, -2.927e-6
-1.276, -6.010e-6
-1.275, -2.927e-6
-1.274, -6.010e-6
-1.273, -2.927e-6
-1.272, -6.010e-6
-1.271, -6.010e-6
-1.270, -6.010e-6
-1.269, -2.927e-6
-1.268, -6.010e-6
-1.267, -6.010e-6
-1.266, -6.010e-6
-1.265, -6.010e-6
-1.264, -6.010e-6
-1.263, -6.010e-6
-1.262, -2.927e-6
-1.261, -2.927e-6
-1.260, -6.010e-6
-1.259, -6.010e-6
-1.258, -2.927e-6
-1.257, -6.010e-6
-1.256, -6.010e-6
-1.255, -6.010e-6
-1.254, -6.010e-6
-1.253, -6.010e-6
-1.252, -6.010e-6
-1.251, -6.010e-6
-1.250, -2.927e-6
-1.249, -2.927e-6
-1.248, -6.010e-6
-1.247, -6.010e-6
-1.246, -6.010e-6
-1.245, -6.010e-6
-1.244, -6.010e-6
-1.243, -6.010e-6
-1.242, -6.010e-6
-1.241, -6.010e-6
-1.240, -6.010e-6
-1.239, -2.927e-6
-1.238, -6.010e-6
-1.237, -2.927e-6
-1.236, -6.010e-6
-1.235, -6.010e-6
-1.234, -6.010e-6
-1.233, -6.010e-6
-1.232, -6.010e-6
-1.231, -6.010e-6
-1.230, -6.010e-6
-1.229, -6.010e-6
-1.228, -6.010e-6
-1.227, -6.010e-6
-1.226, -6.010e-6
-1.225, -6.010e-6
-1.224, -6.010e-6
-1.223, -6.010e-6
-1.222, -6.010e-6
-1.221, -2.927e-6
-1.220, -6.010e-6
-1.219, -6.010e-6
-1.218, -6.010e-6
-1.217, -6.010e-6
-1.216, -6.010e-6
-1.215, -2.927e-6
-1.214, -6.010e-6
-1.213, -6.010e-6
-1.212, -6.010e-6
-1.211, -6.010e-6
-1.210, -6.010e-6
-1.209, -6.010e-6
-1.208, -6.010e-6
-1.207, -6.010e-6
-1.206, -6.010e-6
-1.205, -2.927e-6
-1.204, -6.010e-6
-1.203, -6.010e-6
-1.202, -6.010e-6
-1.201, -6.010e-6
-1.200, -6.010e-6
-1.199, -6.010e-6
-1.198, -2.927e-6
-1.197, -6.010e-6
-1.196, -6.010e-6
-1.195, -6.010e-6
-1.194, -6.010e-6
-1.193, -6.010e-6
-1.192, -6.010e-6
-1.191, -6.010e-6
-1.190, -6.010e-6
-1.189, -6.010e-6
-1.188, -6.010e-6
-1.187, -6.010e-6
-1.186, -6.010e-6
-1.185, -6.010e-6
-1.184, -6.010e-6
-1.183, -6.010e-6
-1.182, -6.010e-6
-1.181, -6.010e-6
-1.180, -6.010e-6
-1.179, -6.010e-6
-1.178, -6.010e-6
-1.177, -6.010e-6
-1.176, -6.010e-6
-1.175, -6.010e-6
-1.174, -6.010e-6
-1.173, -6.010e-6
-1.172, -6.010e-6
-1.171, -6.010e-6
-1.170, -6.010e-6
-1.169, -6.010e-6
-1.168, -6.010e-6
-1.167, -6.010e-6
-1.166, -6.010e-6
-1.165, -6.010e-6
-1.164, -6.010e-6
-1.163, -6.010e-6
-1.162, -2.927e-6
-1.161, -6.010e-6
-1.160, -6.010e-6
-1.159, -6.010e-6
-1.158, -6.010e-6
-1.157, -6.010e-6
-1.156, -6.010e-6
-1.155, -6.010e-6
-1.154, -6.010e-6
-1.153, -6.010e-6
-1.152, -6.010e-6
-1.151, -6.010e-6
-1.150, -6.010e-6
-1.149, -6.010e-6
-1.148, -6.010e-6
-1.147, -6.010e-6
-1.146, -6.010e-6
-1.145, -6.010e-6
-1.144, -6.010e-6
-1.143, -6.010e-6
-1.142, -6.010e-6
-1.141, -6.010e-6
-1.140, -6.010e-6
-1.139, -6.010e-6
-1.138, -6.010e-6
-1.137, -6.010e-6
-1.136, -6.010e-6
-1.135, -6.010e-6
-1.134, -6.010e-6
-1.133, -2.927e-6
-1.132, -6.010e-6
-1.131, -6.010e-6
-1.130, -6.010e-6
-1.129, -6.010e-6
-1.128, -6.010e-6
-1.127, -6.010e-6
-1.126, -6.010e-6
-1.125, -6.010e-6
-1.124, -6.010e-6
-1.123, -6.010e-6
-1.122, -6.010e-6
-1.121, -6.010e-6
-1.120, -6.010e-6
-1.119, -6.010e-6
-1.118, -6.010e-6
-1.117, -2.927e-6
-1.116, -6.010e-6
-1.115, -6.010e-6
-1.114, -6.010e-6
-1.113, -6.010e-6
-1.112, -6.010e-6
-1.111, -6.010e-6
-1.110, -6.010e-6
-1.109, -6.010e-6
-1.108, -6.010e-6
-1.107, -6.010e-6
-1.106, -6.010e-6
-1.105, -6.010e-6
-1.104, -6.010e-6
-1.103, -6.010e-6
-1.102, -6.010e-6
-1.101, -6.010e-6
-1.100, -6.010e-6
-1.099, -6.010e-6
-1.098, -6.010e-6
-1.097, -6.010e-6
-1.096, -6.010e-6
-1.095, -6.010e-6
-1.094, -6.010e-6
-1.093, -6.010e-6
-1.092, -6.010e-6
-1.091, -6.010e-6
-1.090, -6.010e-6
-1.089, -6.010e-6
-1.088, -6.010e-6
-1.087, -6.010e-6
-1.086, -6.010e-6
-1.085, -6.010e-6
-1.084, -6.010e-6
-1.083, -6.010e-6
-1.082, -6.010e-6
-1.081, -6.010e-6
-1.080, -6.010e-6
-1.079, -6.010e-6
-1.078, -6.010e-6
-1.077, -6.010e-6
-1.076, -6.010e-6
-1.075, -6.010e-6
-1.074, -6.010e-6
-1.073, -6.010e-6
-1.072, -6.010e-6
-1.071, -6.010e-6
-1.070, -6.010e-6
-1.069, -6.010e-6
-1.068, -6.010e-6
-1.067, -6.010e-6
-1.066, -6.010e-6
-1.065, -6.010e-6
-1.064, -6.010e-6
-1.063, -6.010e-6
-1.062, -6.010e-6
-1.061, -6.010e-6
-1.060, -6.010e-6
-1.059, -6.010e-6
-1.058, -6.010e-6
-1.057, -6.010e-6
-1.056, -6.010e-6
-1.055, -6.010e-6
-1.054, -6.010e-6
-1.053, -6.010e-6
-1.052, -6.010e-6
-1.051, -6.010e-6
-1.050, -6.010e-6
-1.049, -6.010e-6
-1.048, -6.010e-6
-1.047, -6.010e-6
-1.046, -6.010e-6
-1.045, -6.010e-6
-1.044, -6.010e-6
-1.043, -6.010e-6
-1.042, -6.010e-6
-1.041, -6.010e-6
-1.040, -6.010e-6
-1.039, -6.010e-6
-1.038, -6.010e-6
-1.037, -6.010e-6
-1.036, -6.010e-6
-1.035, -6.010e-6
-1.034, -6.010e-6
-1.033, -6.010e-6
-1.032, -6.010e-6
-1.031, -6.010e-6
-1.030, -6.010e-6
-1.029, -6.010e-6
-1.028, -6.010e-6
-1.027, -6.010e-6
-1.026, -6.010e-6
-1.025, -6.010e-6
-1.024, -6.010e-6
-1.023, -6.010e-6
-1.022, -6.010e-6
-1.021, -6.010e-6
-1.020, -6.010e-6
-1.019, -6.010e-6
-1.018, -6.010e-6
-1.017, -6.010e-6
-1.016, -6.010e-6
-1.015, -6.010e-6
-1.014, -6.010e-6
-1.013, -6.010e-6
-1.012, -6.010e-6
-1.011, -6.010e-6
-1.010, -6.010e-6
-1.009, -6.010e-6
-1.008, -6.010e-6
-1.007, -6.010e-6
-1.006, -6.010e-6
-1.005, -6.010e-6
-1.004, -6.010e-6
-1.003, -6.010e-6
-1.002, -6.010e-6
-1.001, -6.010e-6
