Potential V vs RHE, Current mA cm-2
0.013299999999999867,0.025563833188561213
0.012299999999999978,-0.3171782734297412
0.011299999999999866,-0.47095739172507073
0.010299999999999976,-0.5814463442445301
0.009299999999999864,-0.6646313686765942
0.008299999999999974,-0.7090533034923564
0.007299999999999862,-0.7773838592758376
0.006299999999999972,-0.8252011012112759
0.00529999999999986,-0.84769501087913
0.0042999999999999705,-0.889570465355135
0.0032999999999998586,-0.9310215064411805
0.0022999999999999687,-0.9502615801193451
0.0012999999999998568,-0.9761507969068753
0.00029999999999996696,-1.0092550413237171
-0.000700000000000145,-1.036417498281126
-0.0017000000000000348,-1.0505646112797762
-0.0027000000000001467,-1.0790003084070634
-0.0037000000000000366,-1.1081433611842832
-0.0047000000000001485,-1.1157828022035543
-0.005700000000000038,-1.139549952041287
-0.00670000000000015,-1.1781715705276026
-0.00770000000000004,-1.191469856746334
-0.008700000000000152,-1.20660726765489
-0.009700000000000042,-1.2494730200408002
-0.010700000000000154,-1.280030784117885
-0.011700000000000044,-1.2979976176261712
-0.012700000000000156,-1.344541619391731
-0.013700000000000045,-1.3848608914378844
-0.014700000000000157,-1.4067889165857925
-0.015700000000000047,-1.4472496597619326
-0.01670000000000016,-1.4911057100577487
-0.01770000000000005,-1.5151558021554543
-0.01870000000000016,-1.54203531685289
-0.01970000000000005,-1.5915502123481662
-0.020700000000000163,-1.6311621287443874
-0.021700000000000053,-1.6481386643427678
-0.022700000000000164,-1.6976535598380442
-0.023700000000000054,-1.7386801875341302
-0.024700000000000166,-1.7556567231325106
-0.025700000000000056,-1.7910245056291363
-0.026700000000000168,-1.8362952672248178
-0.027700000000000058,-1.8645894932221183
-0.02870000000000017,-1.895713141819149
-0.02970000000000006,-1.9395691921149654
-0.03070000000000017,-1.9848399537106465
-0.03170000000000006,-2.0032312006088917
-0.03270000000000017,-2.052746096104168
-0.03370000000000006,-2.105090414199175
-0.034700000000000175,-2.12348166109742
-0.035700000000000065,-2.1673377113932366
-0.03670000000000018,-2.226755585987568
-0.03770000000000007,-2.249390966785408
-0.03870000000000018,-2.2918323057813597
-0.03970000000000007,-2.3441766238763657
-0.04070000000000018,-2.380959117672857
-0.04170000000000007,-2.4035944984706976
-0.04270000000000018,-2.4474505487665135
-0.04370000000000007,-2.4927213103621946
-0.044700000000000184,-2.512527268560305
-0.045700000000000074,-2.549309762356796
-0.046700000000000186,-2.597409946552207
-0.047700000000000076,-2.6058982143513973
-0.04870000000000019,-2.6285335951492383
-0.04970000000000008,-2.6723896454450546
-0.05070000000000019,-2.69926916014249
-0.05170000000000008,-2.7105868505414104
-0.05270000000000019,-2.7473693443379013
-0.05370000000000008,-2.7799077042347973
-0.05470000000000019,-2.7869812607341222
-0.05570000000000008,-2.8039577963325026
-0.056700000000000195,-2.8379108675292635
-0.057700000000000085,-2.856302114427509
-0.058700000000000196,-2.8619609596269693
-0.059700000000000086,-2.8987434534234597
-0.0607000000000002,-2.924208256821031
-0.06170000000000009,-2.9298671020204905
-0.0627000000000002,-2.956746616717927
-0.06370000000000009,-2.977967286215902
-0.0647000000000002,-2.977967286215902
-0.06570000000000009,-2.997773244414013
-0.0667000000000002,-3.0260674704113137
-0.0677000000000001,-3.034555738210504
-0.0687000000000002,-3.044458717309559
-0.0697000000000001,-3.0670940981073995
-0.07070000000000021,-3.08972947890524
-0.0717000000000001,-3.08124121110605
-0.07270000000000021,-3.1166089936026755
-0.0737000000000001,-3.1420737970002466
-0.07470000000000021,-3.1392443744005165
-0.0757000000000001,-3.159050332598627
-0.07670000000000021,-3.193003403795388
-0.0777000000000001,-3.1972475376949827
-0.07870000000000021,-3.198662248994848
-0.0797000000000001,-3.225541763692284
-0.08070000000000022,-3.243933010590529
-0.0817000000000001,-3.2510065670898545
-0.08270000000000022,-3.267983102688235
-0.08370000000000011,-3.2962773286855356
-0.08470000000000022,-3.2892037721862106
-0.08570000000000011,-3.2976920399854004
-0.08670000000000022,-3.3344745337818917
-0.08770000000000011,-3.3245715546828363
-0.08870000000000022,-3.328815688582431
-0.08970000000000011,-3.352865780680137
-0.09070000000000022,-3.355695203279867
-0.09170000000000011,-3.3486216467805416
-0.09270000000000023,-3.358524625879597
-0.09370000000000012,-3.3698423162785174
-0.09470000000000023,-3.3641834710790572
-0.09570000000000012,-3.3670128936787878
-0.09670000000000023,-3.3854041405770325
-0.09770000000000012,-3.381160006677438
-0.09870000000000023,-3.3698423162785174
-0.09970000000000012,-3.389648274476628
-0.10070000000000023,-3.3938924083762227
-0.10170000000000012,-3.3698423162785174
-0.10270000000000024,-3.3839894292771677
-0.10370000000000013,-3.3967218309759533
-0.10470000000000024,-3.3839894292771677
-0.10570000000000013,-3.3910629857764927
-0.10670000000000024,-3.402380676175413
-0.10770000000000013,-3.389648274476628
-0.10870000000000024,-3.3755011614779775
-0.10970000000000013,-3.3953071196760884
-0.11070000000000024,-3.3967218309759533
-0.11170000000000013,-3.3769158727778423
-0.11270000000000002,-3.3882335631767626
-0.11370000000000013,-3.4066248100750083
-0.11470000000000002,-3.381160006677438
-0.11570000000000014,-3.3839894292771677
-0.11670000000000003,-3.3981365422758185
-0.11770000000000014,-3.3854041405770325
-0.11870000000000003,-3.381160006677438
-0.11970000000000014,-3.3938924083762227
-0.12070000000000003,-3.400965964875548
-0.12170000000000014,-3.3882335631767626
-0.12270000000000003,-3.3938924083762227
-0.12370000000000014,-3.403795387475278
-0.12470000000000003,-3.381160006677438
-0.12570000000000014,-3.3839894292771677
-0.12670000000000003,-3.408039521374873
-0.12770000000000015,-3.402380676175413
-0.12870000000000004,-3.3938924083762227
-0.12970000000000015,-3.412283655274469
-0.13070000000000004,-3.4066248100750083
-0.13170000000000015,-3.3882335631767626
-0.13270000000000004,-3.400965964875548
-0.13370000000000015,-3.415113077874199
-0.13470000000000004,-3.400965964875548
-0.13570000000000015,-3.402380676175413
-0.13670000000000004,-3.4236013456733887
-0.13770000000000016,-3.4108689439746036
-0.13870000000000005,-3.3967218309759533
-0.13970000000000016,-3.4094542326747383
-0.14070000000000005,-3.4136983665743337
-0.14170000000000016,-3.400965964875548
-0.14270000000000005,-3.4250160569732535
-0.14370000000000016,-3.4335043247724437
-0.14470000000000005,-3.4179425004739286
-0.14570000000000016,-3.4236013456733887
-0.14670000000000005,-3.4335043247724437
-0.14770000000000016,-3.430674902172714
-0.14870000000000005,-3.4193572117737934
-0.14970000000000017,-3.437748458672039
-0.15070000000000006,-3.4448220151713644
-0.15170000000000017,-3.432089613472579
-0.15270000000000006,-3.4335043247724437
-0.15370000000000017,-3.4518955716706894
-0.15470000000000006,-3.4335043247724437
-0.15570000000000017,-3.4419925925716344
-0.15670000000000006,-3.4660426846693397
-0.15770000000000017,-3.4589691281700143
-0.15870000000000006,-3.4589691281700143
-0.15970000000000018,-3.473116241168665
-0.16070000000000007,-3.4844339315675854
-0.16170000000000018,-3.4632132620696097
-0.16270000000000007,-3.4717015298688
-0.16370000000000018,-3.4985810445662353
-0.16470000000000007,-3.492922199366775
-0.16570000000000018,-3.4985810445662353
-0.16670000000000007,-3.522631136663941
-0.16770000000000018,-3.515557580164616
-0.16870000000000007,-3.4999957558661006
-0.16970000000000018,-3.5297046931632665
-0.17070000000000007,-3.536778249662592
-0.17170000000000019,-3.5268752705635364
-0.17270000000000008,-3.546681228761647
-0.1737000000000002,-3.5608283417602973
-0.17470000000000008,-3.5495106513613774
-0.1757000000000002,-3.5495106513613774
-0.17670000000000008,-3.576390166058813
-0.1777000000000002,-3.579219588658543
-0.17870000000000008,-3.572146032159218
-0.1797000000000002,-3.6004402581565187
-0.18070000000000008,-3.6174167937548987
-0.1817000000000002,-3.6018549694563835
-0.18270000000000008,-3.623075638954359
-0.1837000000000002,-3.6372227519530096
-0.1847000000000001,-3.627319772853954
-0.1857000000000002,-3.647125731052064
-0.1867000000000001,-3.6725905344496357
-0.1877000000000002,-3.67683466834923
-0.1887000000000001,-3.678249379649095
-0.1897000000000002,-3.702299471746801
-0.1907000000000001,-3.7192760073451816
-0.1917000000000001,-3.696640626547341
-0.19269999999999998,-3.7235201412447765
-0.1937000000000001,-3.7546437898418072
-0.19469999999999998,-3.748984944642347
-0.1957000000000001,-3.7673761915405932
-0.19669999999999999,-3.8027439740372184
-0.1977000000000001,-3.799914551437489
-0.1987,-3.8055733966369485
-0.1997000000000001,-3.8310382000345196
-0.2007,-3.85084415823263
-0.2017000000000001,-3.8579177147319554
-0.2027,-3.884797229429391
-0.2037000000000001,-3.9173355893262864
-0.2047,-3.9215797232258818
-0.2057000000000001,-3.9286532797252063
-0.2067,-3.9668504848215624
-0.2077000000000001,-3.973924041320888
-0.2087,-3.986656443019674
-0.2097000000000001,-4.029097782015624
-0.2107,-4.0644655645122505
-0.2117000000000001,-4.067294987111981
-0.2127,-4.09275979050955
-0.2137000000000001,-4.121054016506851
-0.2147,-4.133786418205637
-0.2157000000000001,-4.171983623301993
-0.2167,-4.213010250998079
-0.21770000000000012,-4.234230920496055
-0.2187,-4.24413389959511
-0.21970000000000012,-4.280916393391601
-0.2207,-4.309210619388901
-0.22170000000000012,-4.312040041988632
-0.2227,-4.357310803584314
-0.22370000000000012,-4.401166853880129
-0.2247,-4.41814338947851
-0.22570000000000012,-4.45209646067527
-0.2267,-4.5044407787702765
-0.22770000000000012,-4.525661448268252
-0.22870000000000001,-4.5497115403659585
-0.22970000000000013,-4.590738168062044
-0.23070000000000002,-4.6416677748571855
-0.23170000000000013,-4.655814887855835
-0.23270000000000002,-4.710988628550572
-0.23370000000000013,-4.774650637044499
-0.23470000000000002,-4.784553616143554
-0.23570000000000013,-4.81709197604045
-0.23670000000000002,-4.879339273234511
-0.2376999999999999,-4.916121767031002
-0.23870000000000002,-4.955733683427223
-0.2396999999999999,-5.017980980621284
-0.24070000000000003,-5.077398855215616
-0.24169999999999991,-5.111351926412377
-0.24270000000000003,-5.159452110607789
-0.24369999999999992,-5.220284696501986
-0.24470000000000003,-5.254237767698746
-0.24569999999999992,-5.303752663194023
-0.24670000000000003,-5.38722062988606
-0.24769999999999992,-5.436735525381336
-0.24870000000000003,-5.486250420876612
-0.24969999999999992,-5.5541565632701335
-0.25070000000000003,-5.613574437864465
-0.2516999999999999,-5.651771642960822
-0.25270000000000004,-5.728166053153534
-0.2536999999999999,-5.811634019845571
-0.25470000000000004,-5.866807760540307
-0.2556999999999999,-5.926225635134639
-0.25670000000000004,-6.018181869625866
-0.25769999999999993,-6.073355610320603
-0.25870000000000004,-6.124285217115744
-0.25969999999999993,-6.219070874206701
-0.26070000000000004,-6.305368263498468
-0.26169999999999993,-6.361956715493069
-0.26270000000000004,-6.460986506483622
-0.26369999999999993,-6.557186874874445
-0.26470000000000005,-6.620848883368372
-0.26569999999999994,-6.687340314462029
-0.26670000000000005,-6.796273084551637
-0.26769999999999994,-6.868423360844753
-0.26870000000000005,-6.950476616236925
-0.26969999999999994,-7.067897654125724
-0.27070000000000005,-7.174001001615601
-0.27169999999999994,-7.243321855308987
-0.27270000000000005,-7.343766357599406
-0.27369999999999994,-7.454113838988878
-0.27470000000000006,-7.53616709438105
-0.27569999999999995,-7.638026307971333
-0.27670000000000006,-7.7653503249591855
-0.27769999999999995,-7.851647714250955
-0.27870000000000006,-7.966239329540022
-0.27969999999999995,-8.087904501328415
-0.28070000000000006,-8.201081405317618
-0.28169999999999995,-8.28313466070979
-0.28270000000000006,-8.416117522897103
-0.28369999999999995,-8.564662209382933
-0.28470000000000006,-8.67076555687281
-0.28569999999999995,-8.800918996460393
-0.28670000000000007,-8.952293105545952
-0.28769999999999996,-9.05839645303583
-0.28870000000000007,-9.167329223125439
-0.28969999999999996,-9.31162977571167
-0.29070000000000007,-9.453100905698175
-0.29169999999999996,-9.590327901785084
-0.29270000000000007,-9.760093257768888
-0.29369999999999996,-9.931273325052558
-0.2947000000000001,-10.065670898539736
-0.29569999999999996,-10.18167722512867
-0.2967000000000001,-10.351442581112472
-0.29769999999999996,-10.498572556298438
-0.2987000000000001,-10.645702531484401
-0.29969999999999997,-10.838103268266046
-0.3007000000000001,-11.022015737248502
-0.30169999999999997,-11.15641331073568
-0.3027000000000001,-11.324763955419618
-0.30369999999999997,-11.494529311403422
-0.3047000000000001,-11.645903420488981
-0.30569999999999997,-11.836889445970762
-0.3067000000000001,-12.056169697449842
-0.3077,-12.245741011631758
-0.3087000000000001,-12.425409346714618
-0.3097,-12.62063950609599
-0.3107000000000001,-12.808796108978042
-0.3117,-12.955926084164007
-0.3127000000000001,-13.15964451134457
-0.3137,-13.40014543232163
-0.3147000000000001,-13.605278570802058
-0.3157,-13.824558822281137
-0.3167000000000001,-14.067889165857926
-0.3177,-14.24614278964092
-0.3187000000000001,-14.415908145624723
-0.3197,-14.642261953603128
-0.3207000000000001,-14.882762874580186
-0.3217,-15.10911668255859
-0.3227000000000001,-15.363764716534297
-0.3237,-15.632559863508657
-0.3247000000000001,-15.830619445489761
-0.3257,-16.04282614046952
-0.3267000000000001,-16.29747417444522
-0.3277,-16.50968086942498
-0.3287000000000001,-16.750181790402035
-0.3297,-17.047271163373694
-0.3307000000000001,-17.3302134233467
-0.3317,-17.570714344323754
-0.3327000000000001,-17.825362378299463
-0.3337,-18.09415752527382
-0.3347000000000001,-18.334658446250877
-0.3357,-18.603453593225233
-0.3367000000000001,-18.91469007919554
-0.3377,-19.197632339168546
-0.3387000000000001,-19.466427486142905
-0.3397,-19.763516859114564
-0.3407000000000001,-20.03231200608892
-0.3417,-20.272812927065978
-0.3427000000000001,-20.569902300037633
-0.3437,-20.923580125003895
-0.3447000000000001,-21.248963723972853
-0.3457,-21.574347322941808
-0.3467000000000001,-21.91387803490942
-0.3477,-22.196820294882425
-0.3487000000000001,-22.451468328858134
-0.3497,-22.790999040825742
-0.3507000000000001,-23.144676865792
-0.3517,-23.44176623876366
-0.3527000000000001,-23.809591176728567
-0.3537,-24.16326900169483
-0.3547000000000001,-24.460358374666487
-0.3557,-24.757447747638142
-0.35670000000000013,-25.111125572604404
-0.3577,-25.46480339757066
-0.35870000000000013,-25.832628335535567
-0.3597,-26.22874749949778
-0.36070000000000013,-26.62486666345999
-0.3617,-26.9643973754276
-0.3626999999999999,-27.303928087395207
-0.3637,-27.65760591236147
-0.3646999999999999,-27.968842398331773
-0.3657,-28.336667336296685
-0.3666999999999999,-28.80352206525215
-0.3677,-29.213788342213007
-0.3686999999999999,-29.63820173217252
-0.36970000000000003,-30.03432089613473
-0.3706999999999999,-30.387998721100992
-0.37170000000000003,-30.7558236590659
-0.3726999999999999,-31.16608993602676
-0.37370000000000003,-31.618797551983565
-0.3746999999999999,-32.02906382894443
-0.37570000000000003,-32.45347721890394
-0.3766999999999999,-32.892037721862096
-0.37770000000000004,-33.245715546828364
-0.3786999999999999,-33.59939337179462
-0.37970000000000004,-34.03795387475279
-0.3806999999999999,-34.51895571670689
-0.38170000000000004,-34.98581044566235
-0.38269999999999993,-35.49510651361377
-0.38370000000000004,-36.00440258156518
-0.38469999999999993,-36.38637463252874
-0.38570000000000004,-36.78249379649095
-0.38669999999999993,-37.206907186450465
-0.38770000000000004,-37.631320576409976
-0.38869999999999993,-38.12646953136274
-0.38970000000000005,-38.678206938310105
-0.39069999999999994,-39.229944345257465
-0.39170000000000005,-39.696799074212926
-0.39269999999999994,-40.10706535117379
-0.39370000000000005,-40.545625854131956
-0.39469999999999994,-40.99833347008877
-0.39570000000000005,-41.50762953804018
-0.39669999999999994,-42.087661170984845
-0.39770000000000005,-42.63939857793221
-0.39869999999999994,-43.16284175888227
-0.39970000000000006,-43.672137826833676
-0.40069999999999995,-44.138992555789144
-0.40170000000000006,-44.54925883275
-0.40269999999999995,-45.044407787702774
-0.40370000000000006,-45.652733646644734
-0.40469999999999995,-46.2327652795894
-0.40570000000000006,-46.84109113853137
-0.40669999999999995,-47.449416997473335
-0.40770000000000006,-47.91627172642879
-0.40869999999999995,-48.39727356838291
-0.40970000000000006,-48.96315808832892
-0.41069999999999995,-49.557336834272235
-0.41170000000000007,-50.12322135421825
-0.41269999999999996,-50.71740010016157
-0.41370000000000007,-51.33987307210218
-0.41469999999999996,-51.8774633660509
-0.41570000000000007,-52.37261232100366
-0.41669999999999996,-52.896055501953725
-0.41770000000000007,-53.50438136089569
-0.41869999999999996,-54.1551485588336
-0.4197000000000001,-54.86250420876612
-0.42069999999999996,-55.555712745699985
-0.4217000000000001,-56.164038604641945
-0.42269999999999996,-56.72992312458797
-0.4237000000000001,-57.25336630553804
-0.42469999999999997,-57.76266237348945
-0.4257000000000001,-58.37098823243142
-0.42669999999999997,-59.13493233435853
-0.4277000000000001,-59.884729323287
-0.42869999999999997,-60.59208497321952
-0.4297000000000001,-61.25699928415608
-0.43069999999999997,-61.794589578104805
-0.4317000000000001,-62.33217987205352
-0.4327,-62.99709418299008
-0.4337000000000001,-63.71859694592126
-0.4347,-64.44009970885242
-0.4357000000000001,-65.18989669778088
-0.4367,-65.9255465737107
-0.4377000000000001,-66.53387243265267
-0.4387,-67.08560983960004
-0.4397000000000001,-67.7222299245393
-0.4407,-68.45787980046913
-0.4417000000000001,-69.22182390239624
-0.4427,-70.01406223032066
-0.4437000000000001,-70.84874189724104
-0.4447,-71.5419504341749
-0.4457000000000001,-72.17857051911416
-0.4467,-72.81519060405343
-0.4477000000000001,-73.4235164629954
-0.4487,-74.20160767792116
-0.4497000000000001,-75.09287579683615
-0.4507,-75.96999680275246
-0.4517000000000001,-76.79052935667418
-0.4527,-77.46959078060941
-0.4537000000000001,-78.17694643054192
-0.4547,-78.99747898446365
-0.4557000000000001,-79.71898174739482
-0.4567,-80.61024986630979
-0.4577000000000001,-81.44492953323017
-0.4587,-82.27960920015053
-0.4597000000000001,-83.07184752807495
-0.4607,-83.73676183901152
-0.4617000000000001,-84.35923481095215
-0.4627,-85.17976736487385
-0.4637000000000001,-86.11347682278479
-0.4647,-87.00474494169976
-0.4657000000000001,-87.89601306061473
-0.4667,-88.80142829252836
-0.4677000000000001,-89.55122528145681
-0.4687,-90.21613959239339
-0.4697000000000001,-90.93764235532454
-0.4707,-91.78646913524358
-0.4717000000000001,-92.73432570615316
-0.4727,-93.80950629405058
-0.4737000000000001,-94.8280984299534
-0.4747,-95.70521943586974
-0.4757000000000001,-96.41257508580226
-0.4767,-97.23310763972397
-0.4777000000000001,-98.09608153264163
-0.4787,-99.01564387755391
-0.4797000000000001,-99.99179467446079
-0.4807,-101.01038681036361
-0.48170000000000013,-101.94409626827454
-0.4827,-102.75048170919762
-0.48370000000000013,-103.50027869812607
-0.4847,-104.27836991305185
-0.48570000000000013,-105.25452070995874
-0.4867,-105.05646112797763
-0.48570000000000013,-103.7266325061045
-0.4847,-102.70804037020166
-0.48370000000000013,-101.63285978230424
-0.4827,-100.44450229041762
-0.48170000000000013,-99.18540923353773
-0.4807,-98.03949308064705
-0.4797000000000001,-97.13407784873341
-0.4787,-96.24280972981845
-0.4777000000000001,-95.39398294989942
-0.4767,-94.50271483098444
-0.4757000000000001,-93.39924001708972
-0.4747,-92.2108825252031
-0.4737000000000001,-91.07911348531105
-0.4727,-90.11710980140283
-0.4717000000000001,-89.22584168248785
-0.4707,-88.36286778957019
-0.4697000000000001,-87.52818812264981
-0.4687,-86.58033155174023
-0.4677000000000001,-85.51929807684147
-0.4667,-84.44411748894404
-0.4657000000000001,-83.32649556205067
-0.4647,-82.40693321713839
-0.4637000000000001,-81.64298911521126
