Potential V vs RHE, Current mA cm-2
0.013299999999999867,27.275633861397907
0.012299999999999978,26.11557059550858
0.011299999999999866,25.054537120609798
0.010299999999999976,24.191563227692125
0.009299999999999864,23.2012653177866
0.008299999999999974,22.451468328858134
0.007299999999999862,21.68752422693101
0.006299999999999972,20.85284456001064
0.00529999999999986,20.17378313607542
0.0042999999999999705,19.381544808151002
0.0032999999999998586,18.702483384215785
0.0022999999999999687,18.02342196028057
0.0012999999999998568,17.3302134233467
0.00029999999999996696,16.750181790402035
-0.000700000000000145,16.056973253468165
-0.0017000000000000348,15.4769416205235
-0.0027000000000001467,14.882762874580186
-0.0037000000000000366,14.217848563643619
-0.0047000000000001485,13.702893650492745
-0.005700000000000038,13.049297029955099
-0.00670000000000015,12.514536158606116
-0.00770000000000004,11.962798751658749
-0.008700000000000152,11.35588760401665
-0.009700000000000042,10.874885762062537
-0.010700000000000154,10.267974614420435
-0.011700000000000044,9.77706979336727
-0.012700000000000156,9.264944302816126
-0.013700000000000045,8.7075480506693
-0.014700000000000157,8.278890526810194
-0.015700000000000047,7.720079563363504
-0.01670000000000016,7.261713102207232
-0.01770000000000005,6.786370105452581
-0.01870000000000016,6.2558533680031925
-0.01970000000000005,5.852660647541658
-0.020700000000000163,5.319314487492538
-0.021700000000000053,4.909048210531677
-0.022700000000000164,4.483220109272302
-0.023700000000000054,3.979582886520348
-0.024700000000000166,3.6343933293532795
-0.025700000000000056,3.1279266840015962
-0.026700000000000168,2.7247339635400607
-0.027700000000000058,2.3116382639794697
-0.02870000000000017,1.8334658446250875
-0.02970000000000006,1.4812027309586933
-0.03070000000000017,0.9860537760059305
-0.03170000000000006,0.621341202900724
-0.03270000000000017,0.22126084729889173
-0.03370000000000006,-0.2239487987686353
-0.034700000000000175,-0.5568303676268785
-0.035700000000000065,-1.0270804037020165
-0.03670000000000018,-1.384719420307898
-0.03770000000000007,-1.769803836131161
-0.03870000000000018,-2.2239261633878376
-0.03970000000000007,-2.532333226758415
-0.04070000000000018,-2.9666495958169823
-0.04170000000000007,-3.243933010590529
-0.04270000000000018,-3.589122567757598
-0.04370000000000007,-4.000803556018323
-0.044700000000000184,-4.327601866287147
-0.045700000000000074,-4.771821214444769
-0.046700000000000186,-5.129743173310623
-0.047700000000000076,-5.508885801674452
-0.04870000000000019,-5.933299191633965
-0.04970000000000008,-6.231803275905486
-0.05070000000000019,-6.6491431093656725
-0.05170000000000008,-6.963209017935711
-0.05270000000000019,-7.2984955960037246
-0.05370000000000008,-7.693200048666069
-0.05470000000000019,-7.9549216391411015
-0.05570000000000008,-8.35669964830277
-0.056700000000000195,-8.63398306307632
-0.057700000000000085,-8.861751582354591
-0.058700000000000196,-9.301726796612616
-0.059700000000000086,-9.553545407988592
-0.0607000000000002,-9.942591015451477
-0.06170000000000009,-10.262315769220976
-0.0627000000000002,-10.542428606594253
-0.06370000000000009,-10.893277008960782
-0.0647000000000002,-11.139436775137298
-0.06570000000000009,-11.507261713102208
-0.0667000000000002,-11.794448106974812
-0.0677000000000001,-12.11134343814458
-0.0687000000000002,-12.466435974410702
-0.0697000000000001,-12.68996035978938
-0.07070000000000021,-13.081835389851994
-0.0717000000000001,-13.335068712527836
-0.07270000000000021,-13.602449148202329
-0.0737000000000001,-13.940565148870071
-0.07470000000000021,-14.203701450644967
-0.0757000000000001,-14.57152638860988
-0.07670000000000021,-14.840321535584234
-0.0777000000000001,-15.123263795557243
-0.07870000000000021,-15.462794507524851
-0.0797000000000001,-15.675001202504609
-0.08070000000000022,-16.000384801473565
-0.0817000000000001,-16.21259149645332
-0.08270000000000022,-16.495533756426326
-0.08370000000000011,-16.806770242396635
-0.08470000000000022,-16.99068271137909
-0.08570000000000011,-17.301919197349395
-0.08670000000000022,-17.556567231325104
-0.08770000000000011,-17.825362378299463
-0.08870000000000022,-18.164893090267068
-0.08970000000000011,-18.348805559249524
-0.09070000000000022,-18.688336271217132
-0.09170000000000011,-18.92883719219419
-0.09270000000000023,-19.1834852261699
-0.09370000000000012,-19.49472171214021
-0.09470000000000023,-19.69278129412131
-0.09570000000000012,-20.03231200608892
-0.09670000000000023,-20.272812927065978
-0.09770000000000012,-20.51331384804303
-0.09870000000000023,-20.810403221014692
-0.09970000000000012,-20.980168576998494
-0.10070000000000023,-21.30555217596745
-0.10170000000000012,-21.54605309694451
-0.10270000000000024,-21.786554017921564
-0.10370000000000013,-22.097790503891872
-0.10470000000000024,-22.267555859875678
-0.10570000000000013,-22.578792345845983
-0.10670000000000024,-22.790999040825742
-0.10770000000000013,-23.031499961802798
-0.10870000000000024,-23.342736447773106
-0.10970000000000013,-23.51250180375691
-0.11070000000000024,-23.823738289727217
-0.11170000000000013,-24.035944984706973
-0.11270000000000002,-24.262298792685378
-0.11370000000000013,-24.57353527865569
-0.11470000000000002,-24.74330063463949
-0.11570000000000014,-25.054537120609798
-0.11670000000000003,-25.266743815589557
-0.11770000000000014,-25.478950510569312
-0.11870000000000003,-25.761892770542314
-0.11970000000000014,-25.91751101352747
-0.12070000000000003,-26.21460038649913
-0.12170000000000014,-26.440954194477534
-0.12270000000000003,-26.667308002455943
-0.12370000000000014,-26.97854448842625
-0.12470000000000003,-27.120015618412754
-0.12570000000000014,-27.37466365238846
-0.12670000000000003,-27.601017460366865
-0.12770000000000015,-27.827371268345274
-0.12870000000000004,-28.11031352831828
-0.12970000000000015,-28.265931771303435
-0.13070000000000004,-28.56302114427509
-0.13170000000000015,-28.775227839254843
-0.13270000000000004,-28.987434534234602
-0.13370000000000015,-29.284523907206257
-0.13470000000000004,-29.440142150191413
-0.13570000000000015,-29.72308441016442
-0.13670000000000004,-29.935291105144174
-0.13770000000000016,-30.161644913122586
-0.13870000000000005,-30.45873428609424
-0.13970000000000016,-30.656793868075347
-0.14070000000000005,-30.897294789052403
-0.14170000000000016,-31.08120725803486
-0.14270000000000005,-31.27926684001596
-0.14370000000000016,-31.56220909998897
-0.14470000000000005,-31.731974455972775
-0.14570000000000016,-32.01491671594578
-0.14670000000000005,-32.21297629792688
-0.14770000000000016,-32.439330105905285
-0.14870000000000005,-32.764713704874254
-0.14970000000000017,-32.92033194785941
-0.15070000000000006,-33.203274207832415
-0.15170000000000017,-33.38718667681487
-0.15270000000000006,-33.61354048479327
-0.15370000000000017,-33.89648274476628
-0.15470000000000006,-34.03795387475279
-0.15570000000000017,-34.33504324772444
-0.15670000000000006,-34.51895571670689
-0.15770000000000017,-34.702868185689354
-0.15870000000000006,-34.99995755866101
-0.15970000000000018,-35.169722914644815
-0.16070000000000007,-35.45266517461782
-0.16170000000000018,-35.62243053060162
-0.16270000000000007,-35.806342999584075
-0.16370000000000018,-36.10343237255574
-0.16470000000000007,-36.27319772853954
-0.16570000000000018,-36.55613998851254
-0.16670000000000007,-36.754199570493654
-0.16770000000000018,-36.96640626547341
-0.16870000000000007,-37.26349563844507
-0.16970000000000018,-37.41911388143023
-0.17070000000000007,-37.716203254401876
-0.17170000000000019,-37.91426283638298
-0.17270000000000008,-38.09817530536544
-0.1737000000000002,-38.39526467833709
-0.17470000000000008,-38.5650300343209
-0.1757000000000002,-38.84797229429391
-0.17670000000000008,-39.10262032826961
-0.1777000000000002,-39.30067991025072
-0.17870000000000008,-39.59776928322238
-0.1797000000000002,-39.75338752620753
-0.18070000000000008,-40.02218267318189
-0.1817000000000002,-40.234389368161644
-0.18270000000000008,-40.460743176140056
-0.1837000000000002,-40.75783254911171
-0.1847000000000001,-40.92759790509552
-0.1857000000000002,-41.25298150406447
-0.1867000000000001,-41.47933531204288
-0.1877000000000002,-41.70568912002128
-0.1887000000000001,-42.01692560599159
-0.1897000000000002,-42.200838074974044
-0.1907000000000001,-42.51207456094435
-0.1917000000000001,-42.738428368922754
-0.19269999999999998,-42.95063506390252
-0.1937000000000001,-43.27601866287147
-0.19469999999999998,-43.44578401885527
-0.1957000000000001,-43.75702050482558
-0.19669999999999999,-44.011668538801295
-0.1977000000000001,-44.223875233781044
-0.1987,-44.577553058747306
-0.1997000000000001,-44.78975975372706
-0.2007,-45.143437578693316
-0.2017000000000001,-45.34149716067443
-0.2027,-45.581998081651484
-0.2037000000000001,-45.87908745462314
-0.2047,-46.091294149602895
-0.2057000000000001,-46.4025306355732
-0.2067,-46.68547289554621
-0.2077000000000001,-46.94012092952192
-0.2087,-47.27965164148953
-0.2097000000000001,-47.46356411047198
-0.2107,-47.78894770944093
-0.2117000000000001,-48.086037082412595
-0.2127,-48.3406851163883
-0.2137000000000001,-48.65192160235861
-0.2147,-48.83583407134107
-0.2157000000000001,-49.21780612230463
-0.2167,-49.444159930283035
-0.21770000000000012,-49.71295507725739
-0.2187,-50.15151558021555
-0.21970000000000012,-50.40616361419126
-0.2207,-50.70325298716291
-0.22170000000000012,-50.97204813413727
-0.2227,-51.25499039411028
-0.22370000000000012,-51.60866821907654
-0.2247,-51.89161047904954
-0.22570000000000012,-52.28772964301176
-0.2267,-52.59896612898206
-0.22770000000000012,-52.853614162957776
-0.22870000000000001,-53.20729198792403
-0.22970000000000013,-53.46194002189973
-0.23070000000000002,-53.84391207286329
-0.23170000000000013,-54.1551485588336
-0.23270000000000002,-54.423943705807964
-0.23370000000000013,-54.82006286977017
-0.23470000000000002,-55.11715224274183
-0.23570000000000013,-55.541565632701335
-0.23670000000000002,-55.90939057066625
-0.2376999999999999,-56.24892128263386
-0.23870000000000002,-56.70162889859067
-0.2396999999999999,-56.927982706569075
-0.24070000000000003,-57.32410187053129
-0.24169999999999991,-57.66363258249889
-0.24270000000000003,-58.00316329446651
-0.24369999999999992,-58.427576684426015
-0.24470000000000003,-58.65393049240442
-0.24569999999999992,-59.07834388236393
-0.24670000000000003,-59.55934572431805
-0.24769999999999992,-59.983759114277554
-0.24870000000000003,-60.39402539123842
-0.24969999999999992,-60.57793786022087
-0.25070000000000003,-61.00235125018038
-0.2516999999999999,-61.4267646401399
-0.25270000000000004,-61.7662953521075
-0.2536999999999999,-62.19070874206701
-0.25470000000000004,-62.58682790602922
-0.2556999999999999,-63.06782974798333
-0.25670000000000004,-63.59127292893339
-0.25769999999999993,-63.973244979896954
-0.25870000000000004,-64.31277569186457
-0.25969999999999993,-64.63815929083353
-0.26070000000000004,-65.14745535878494
-0.26169999999999993,-65.5577216357458
-0.26270000000000004,-65.93969368670936
-0.26369999999999993,-66.43484264166212
-0.26470000000000005,-66.76022624063107
-0.26569999999999994,-67.24122808258521
-0.26670000000000005,-67.693935698542
-0.26769999999999994,-68.13249620150016
-0.26870000000000005,-68.59935093045563
-0.26969999999999994,-68.93888164242324
-0.27070000000000005,-69.46232482337331
-0.27169999999999994,-69.91503243933012
-0.27270000000000005,-70.32529871629096
-0.27369999999999994,-70.8628890102397
-0.27470000000000006,-71.28730240019921
-0.27569999999999995,-71.8814811461425
-0.27670000000000006,-72.41907144009123
-0.27769999999999995,-72.77274926505748
-0.27870000000000006,-73.29619244600755
-0.27969999999999995,-73.79134140096032
-0.28070000000000006,-74.39966725990229
-0.28169999999999995,-74.96555177984828
-0.28270000000000006,-75.53143629979431
-0.28369999999999995,-76.02658525474708
-0.28470000000000006,-76.36611596671467
-0.28569999999999995,-76.91785337366204
-0.28670000000000007,-77.42714944161345
-0.28769999999999996,-77.87985705757028
-0.28870000000000007,-78.43159446451764
-0.28969999999999996,-78.91259630647174
-0.29070000000000007,-79.56336350440966
-0.29169999999999996,-80.03021823336512
-0.29270000000000007,-80.48292584932193
-0.29369999999999996,-81.07710459526525
-0.2947000000000001,-81.54395932422072
-0.29569999999999996,-82.23716786115457
-0.2967000000000001,-82.78890526810196
-0.29769999999999996,-83.26990711005605
-0.2987000000000001,-83.96311564698992
-0.29969999999999997,-84.45826460194269
-0.3007000000000001,-85.10903179988061
-0.30169999999999997,-85.57588652883607
-0.3027000000000001,-86.01444703179425
-0.30369999999999997,-86.58033155174023
-0.3047000000000001,-87.0471862806957
-0.30569999999999997,-87.66965925263632
-0.3067000000000001,-88.26383799857963
-0.3077,-88.82972251852566
-0.3087000000000001,-89.45219549046627
-0.3097,-90.00393289741362
-0.3107000000000001,-90.6122587563556
-0.3117,-91.14984905030431
-0.3127000000000001,-91.78646913524358
-0.3137,-92.6070016891653
-0.3147000000000001,-93.18703332210997
-0.3157,-93.82365340704924
-0.3167000000000001,-94.4036850399939
-0.3177,-94.98371667293856
-0.3187000000000001,-95.62033675787784
-0.3197,-96.0871914868333
-0.3207000000000001,-96.6813702327766
-0.3217,-97.24725475272263
-0.3227000000000001,-97.78484504667132
-0.3237,-98.4497593576079
-0.3247000000000001,-98.97320253855796
-0.3257,-99.63811684949452
-0.3267000000000001,-100.3030311604311
-0.3277,-100.92550413237171
-0.3287000000000001,-101.63285978230424
-0.3297,-102.24118564124619
-0.3307000000000001,-103.14660087315983
-0.3317,-103.85395652309235
-0.3327000000000001,-104.5188708340289
-0.3337,-105.28281493595603
-0.3347000000000001,-105.79211100390745
-0.3357,-106.38628974985076
-0.3367000000000001,-106.95217426979677
-0.3377,-107.44732322474954
-0.3387000000000001,-108.1122375356861
-0.3397,-108.70641628162942
-0.3407000000000001,-109.4845074965552
-0.3417,-110.36162850247152
-0.3427000000000001,-111.13971971739728
-0.3437,-111.88951670632574
-0.3447000000000001,-112.49784256526772
-0.3457,-113.16275687620428
-0.3467000000000001,-113.78522984814491
-0.3477,-114.28037880309766
-0.3487000000000001,-114.98773445303017
-0.3497,-115.59606031197214
-0.3507000000000001,-116.33171018790196
-0.3517,-116.95418315984259
-0.3527000000000001,-117.53421479278724
-0.3537,-118.24157044271978
-0.3547000000000001,-118.79330784966713
-0.3557,-119.55725195159425
-0.35670000000000013,-120.25046048852812
-0.3577,-120.9153747994647
-0.35870000000000013,-121.6793189013918
-0.3597,-122.25935053433648
-0.36070000000000013,-123.06573597525954
-0.3617,-123.9852983201718
-0.3626999999999999,-124.69265397010435
-0.3637,-125.4141567330355
-0.3646999999999999,-125.98004125298151
-0.3657,-126.75813246790726
-0.3666999999999999,-127.63525347382362
-0.3677,-128.27187355876288
-0.3686999999999999,-128.86605230470622
-0.36970000000000003,-129.7148790846252
-0.3706999999999999,-130.59200009054155
-0.37170000000000003,-131.38423841846597
-0.3726999999999999,-131.99256427740792
-0.37370000000000003,-132.8838323963229
-0.3746999999999999,-133.5770409332568
-0.37570000000000003,-134.256102357192
-0.3766999999999999,-134.72295708614746
-0.37770000000000004,-135.28884160609348
-0.3786999999999999,-136.13766838601245
-0.37970000000000004,-136.80258269694903
-0.3806999999999999,-137.6372623638694
-0.38170000000000004,-138.3870593527979
-0.38269999999999993,-139.09441500273041
-0.38370000000000004,-139.9290946696508
-0.38469999999999993,-140.5515676415914
-0.38570000000000004,-141.2872175175212
-0.38669999999999993,-140.66474454558062
-0.38570000000000004,-138.6700016127709
-0.38469999999999993,-136.95820093993422
-0.38370000000000004,-135.10492913711101
-0.38269999999999993,-133.44971691626893
-0.38170000000000004,-131.61059222644437
-0.3806999999999999,-129.91293866660632
-0.37970000000000004,-128.5831100447332
-0.3786999999999999,-127.25328142286004
-0.37770000000000004,-125.93759991398557
-0.3766999999999999,-124.09847522416102
-0.37570000000000003,-122.2452034213378
-0.3746999999999999,-120.90122768646604
-0.37370000000000003,-119.41578082160775
-0.3726999999999999,-117.88789261775351
-0.37170000000000003,-116.28926884890602
-0.3706999999999999,-114.71893930605583
-0.36970000000000003,-113.31837511918944
-0.3686999999999999,-111.80463402833385
-0.3677,-110.4748054064607
-0.3666999999999999,-109.06009410659567
-0.3657,-107.5746472417374
-0.3646999999999999,-106.2306715068656
-0.3637,-104.67448907701407
-0.3626999999999999,-103.24563066415038
-0.3617,-101.83091936428535
-0.36070000000000013,-100.3313253864284
-0.3597,-99.08637944254717
-0.35870000000000013,-97.88387483766188
-0.3577,-96.5964875547847
-0.35670000000000013,-95.06859935093047
-0.3557,-93.44168135608567
-0.3547000000000001,-92.19673541220443
-0.3537,-90.79617122533804
-0.3527000000000001,-89.48048971646357
-0.3517,-88.19310243358639
-0.3507000000000001,-86.79253824672
-0.3497,-85.67491631982661
-0.3487000000000001,-84.30264635895755
-0.3477,-83.10014175407225
-0.3467000000000001,-81.91178426218562
-0.3457,-80.6385440923071
-0.3447000000000001,-79.37945103542721
-0.3437,-78.03547530055542
-0.3427000000000001,-76.9037062606634
-0.3417,-75.71534876877676
-0.3407000000000001,-74.51284416389147
-0.3397,-73.52254625398596
-0.3387000000000001,-72.36248298809663
-0.3377,-71.21656683520595
-0.3367000000000001,-70.14138624730852
-0.3357,-68.89644030342728
-0.3347000000000001,-67.76467126353526
-0.3337,-66.53387243265267
-0.3327000000000001,-65.48698607075255
-0.3317,-64.38351125685783
-0.3307000000000001,-63.181006651972545
-0.3297,-62.13412029007241
-0.3287000000000001,-61.01649836317903
-0.3277,-60.01205334027486
-0.3267000000000001,-58.99346120437203
-0.3257,-57.87583927747865
-0.3247000000000001,-56.88554136757313
-0.3237,-55.82450789267435
-0.3227000000000001,-54.904945547762075
-0.3217,-53.985383202849796
-0.3207000000000001,-52.92434972795102
-0.3197,-51.976493157041446
-0.3187000000000001,-50.87301834314672
-0.3177,-49.967603111233096
-0.3167000000000001,-48.991452314326224
-0.3157,-47.91627172642879
-0.3147000000000001,-47.10988628550572
-0.3137,-46.162029714596144
-0.3127000000000001,-45.42637983866633
-0.3117,-44.4926703807554
-0.3107000000000001,-43.44578401885527
-0.3097,-42.653545690930855
-0.3087000000000001,-41.66324778102533
-0.3077,-40.715391210115754
-0.3067000000000001,-39.76753463920618
-0.30569999999999997,-38.805530955297954
-0.3047000000000001,-37.95670417537893
-0.30369999999999997,-36.95225915247476
-0.3027000000000001,-36.10343237255574
-0.30169999999999997,-35.240458479638065
-0.3007000000000001,-34.32089613472579
-0.29969999999999997,-33.54280491980002
-0.2987000000000001,-32.6090954618891
-0.29769999999999996,-31.77441579496872
-0.2967000000000001,-30.953883241047
-0.29569999999999996,-30.09090934812933
-0.2947000000000001,-29.42599503719276
-0.29369999999999996,-28.56302114427509
-0.29270000000000007,-27.756635703352025
-0.29169999999999996,-26.9643973754276
-0.29070000000000007,-26.073129256512626
-0.28969999999999996,-25.351626493581456
-0.28870000000000007,-24.460358374666487
-0.28769999999999996,-23.724708498736668
-0.28670000000000007,-22.960764396809545
-0.28569999999999995,-22.15437895588647
-0.28470000000000006,-21.461170418952605
-0.28369999999999995,-20.612343639033586
-0.28270000000000006,-19.890840876102416
-0.28169999999999995,-19.155191000172596
-0.28070000000000006,-18.377099785246827
-0.27969999999999995,-17.75462681330621
-0.27870000000000006,-16.99068271137909
-0.27769999999999995,-16.325768400442524
-0.27670000000000006,-15.632559863508657
-0.27569999999999995,-14.868615761581536
-0.27470000000000006,-14.24614278964092
-0.27369999999999994,-13.477954553814206
-0.27270000000000005,-12.810210820277907
-0.27169999999999994,-12.14246708674161
-0.27070000000000005,-11.38701125261368
-0.26969999999999994,-10.790003084070635
-0.26870000000000005,-10.0387913838423
-0.26769999999999994,-9.399341876303303
-0.26670000000000005,-8.757062946164577
-0.26569999999999994,-8.0440484510326
-0.26470000000000005,-7.478163931086583
