Potential V vs RHE, Current mA cm-2
0.013299999999999867,24.078386323702922
0.012299999999999978,22.84758749282034
0.011299999999999866,21.63093577493641
0.010299999999999976,20.414284057052477
0.009299999999999864,19.22592656516585
0.008299999999999974,18.13659886426977
0.007299999999999862,17.188742293360193
0.006299999999999972,16.269179948447924
0.00529999999999986,15.349617603535648
0.0042999999999999705,14.345172580631472
0.0032999999999998586,13.344971691626892
0.0022999999999999687,12.341941380022579
0.0012999999999998568,11.469064508005852
0.00029999999999996696,10.64004368628494
-0.000700000000000145,9.854878914859846
-0.0017000000000000348,9.025858093138934
-0.0027000000000001467,8.154395932422071
-0.0037000000000000366,7.281519060405343
-0.0047000000000001485,6.496354288980249
-0.005700000000000038,5.7111895175551535
-0.00670000000000015,5.057592897017507
-0.00770000000000004,4.360140226184043
-0.008700000000000152,3.5749754547589476
-0.009700000000000042,2.7898106833338523
-0.010700000000000154,2.004645911908757
-0.011700000000000044,1.2626298351295453
-0.012700000000000156,0.6084673300719523
-0.013700000000000045,-0.04582249900262853
-0.014700000000000157,-0.7001406223032067
-0.015700000000000047,-1.4415908145624723
-0.01670000000000016,-2.1828995356917518
-0.01770000000000005,-2.924208256821031
-0.01870000000000016,-3.579219588658543
-0.01970000000000005,-4.1889601589003735
-0.020700000000000163,-4.800115440442069
-0.021700000000000053,-5.453712060979717
-0.022700000000000164,-6.152579443113044
-0.023700000000000054,-6.850032113946507
-0.024700000000000166,-7.5474847847799715
-0.025700000000000056,-8.158640066321666
-0.026700000000000168,-8.725939297567548
-0.027700000000000058,-9.335679867809377
-0.02870000000000017,-9.946835149351072
-0.02970000000000006,-10.644287820184536
-0.03070000000000017,-11.343155202317865
-0.03170000000000006,-11.996751822855511
-0.03270000000000017,-12.56405105410139
-0.03370000000000006,-13.13135028534727
-0.034700000000000175,-13.654793466297335
-0.035700000000000065,-14.30273124163552
-0.03670000000000018,-15.01008689156804
-0.03770000000000007,-15.660854089505953
-0.03870000000000018,-16.22673860945197
-0.03970000000000007,-16.750181790402035
-0.04070000000000018,-17.2736249713521
-0.04170000000000007,-17.839509491298113
-0.04270000000000018,-18.49027668923603
-0.04370000000000007,-19.155191000172596
-0.044700000000000184,-19.763516859114564
-0.045700000000000074,-20.286960040064624
-0.046700000000000186,-20.76796188201874
-0.047700000000000076,-21.291405062968803
-0.04870000000000019,-21.899730921910766
-0.04970000000000008,-22.508056780852733
-0.05070000000000019,-23.15882397879065
-0.05170000000000008,-23.724708498736668
-0.05270000000000019,-24.20571034069078
-0.05370000000000008,-24.729153521640843
-0.05470000000000019,-25.252596702590903
-0.05570000000000008,-25.86092256153287
-0.056700000000000195,-26.483395533473487
-0.057700000000000085,-27.049280053419505
-0.058700000000000196,-27.572723234369565
-0.059700000000000086,-28.05372507632368
-0.0607000000000002,-28.53472691827779
-0.06170000000000009,-29.100611438223805
-0.0627000000000002,-29.708937297165768
-0.06370000000000009,-30.274821817111786
-0.0647000000000002,-30.8407063370578
-0.06570000000000009,-31.36414951800786
-0.0667000000000002,-31.802710020966025
-0.0677000000000001,-32.283711862920136
-0.0687000000000002,-32.807155043870196
-0.0697000000000001,-33.41548090281216
-0.07070000000000021,-34.02380676175414
-0.0717000000000001,-34.5472499427042
-0.07270000000000021,-35.02825178465831
-0.0737000000000001,-35.46681228761647
-0.07470000000000021,-35.94781412957058
-0.0757000000000001,-36.5136986495166
-0.07670000000000021,-37.122024508458566
-0.0777000000000001,-37.687909028404576
-0.07870000000000021,-38.16891087035869
-0.0797000000000001,-38.6499127123128
-0.08070000000000022,-39.08847321527096
-0.0817000000000001,-39.56947505722508
-0.08270000000000022,-40.135359577171094
-0.08370000000000011,-40.701244097117105
-0.08470000000000022,-41.22468727806717
-0.08570000000000011,-41.70568912002128
-0.08670000000000022,-42.130102509980794
-0.08770000000000011,-42.6111043519349
-0.08870000000000022,-43.134547532884966
-0.08970000000000011,-43.70043205283099
-0.09070000000000022,-44.223875233781044
-0.09170000000000011,-44.74731841473111
-0.09270000000000023,-45.22832025668522
-0.09370000000000012,-45.666880759643384
-0.09470000000000023,-46.10544126260155
-0.09570000000000012,-46.67132578254756
-0.09670000000000023,-47.23721030249357
-0.09770000000000012,-47.80309482243959
-0.09870000000000023,-48.24165532539775
-0.09970000000000012,-48.68021582835591
-0.10070000000000023,-49.16121767031002
-0.10170000000000012,-49.642219512264134
-0.10270000000000024,-50.1656626932142
-0.10370000000000013,-50.73154721316022
-0.10470000000000024,-51.25499039411028
-0.10570000000000013,-51.69355089706845
-0.10670000000000024,-52.11796428702795
-0.10770000000000013,-52.55652478998611
-0.10870000000000024,-53.079967970936174
-0.10970000000000013,-53.64585249088219
-0.11070000000000024,-54.2117370108282
-0.11170000000000013,-54.69273885278232
-0.11270000000000002,-55.13129935574048
-0.11370000000000013,-55.527418519702685
-0.11470000000000002,-56.008420361656796
-0.11570000000000014,-56.53186354260687
-0.11670000000000003,-57.05530672355693
-0.11770000000000014,-57.57874990450699
-0.11870000000000003,-58.05975174646111
-0.11970000000000014,-58.45587091042332
-0.12070000000000003,-58.83784296138688
-0.12170000000000014,-59.31884480334099
-0.12270000000000003,-59.842287984291055
-0.12370000000000014,-60.36573116524111
-0.12470000000000003,-60.889174346191176
-0.12570000000000014,-61.327734849149344
-0.12670000000000003,-61.72385401311155
-0.12770000000000015,-62.11997317707376
-0.12870000000000004,-62.58682790602922
-0.12970000000000015,-63.11027108697928
-0.13070000000000004,-63.59127292893339
-0.13170000000000015,-64.0722747708875
-0.13270000000000004,-64.46839393484973
-0.13370000000000015,-64.86451309881193
-0.13470000000000004,-65.2464851497755
-0.13570000000000015,-65.7274869917296
-0.13670000000000004,-66.29337151167562
-0.13770000000000016,-66.77437335362974
-0.13870000000000005,-67.25537519558385
-0.13970000000000016,-67.65149435954605
-0.14070000000000005,-68.04761352350828
-0.14170000000000016,-68.48617402646643
-0.14270000000000005,-69.0096172074165
-0.14370000000000016,-69.57550172736251
-0.14470000000000005,-70.09894490831257
-0.14570000000000016,-70.53750541127073
-0.14670000000000005,-70.91947746223428
-0.14770000000000016,-71.31559662619651
-0.14870000000000005,-71.7965984681506
-0.14970000000000017,-72.32004164910067
-0.15070000000000006,-72.84348483005074
-0.15170000000000017,-73.2820453330089
-0.15270000000000006,-73.6781644969711
-0.15370000000000017,-74.06013654793468
-0.15470000000000006,-74.49869705089283
-0.15570000000000017,-74.97969889284694
-0.15670000000000006,-75.50314207379701
-0.15770000000000017,-75.98414391575112
-0.15870000000000006,-76.42270441870929
-0.15970000000000018,-76.7622351306769
-0.16070000000000007,-77.1583542946391
-0.16170000000000018,-77.59691479759726
-0.16270000000000007,-78.07791663955136
-0.16370000000000018,-78.60135982050144
-0.16470000000000007,-79.08236166245555
-0.16570000000000018,-79.52092216541372
-0.16670000000000007,-79.86045287738132
-0.16770000000000018,-80.29901338033947
-0.16870000000000007,-80.73757388329766
-0.16970000000000018,-81.21857572525175
-0.17070000000000007,-81.65713622820991
-0.17170000000000019,-82.13813807016405
-0.17270000000000008,-82.52011012112759
-0.1737000000000002,-82.9162292850898
-0.17470000000000008,-83.31234844905201
-0.1757000000000002,-83.79335029100612
-0.17670000000000008,-84.31679347195619
-0.1777000000000002,-84.7977953139103
-0.17870000000000008,-85.23635581686847
-0.1797000000000002,-85.61832786783202
-0.18070000000000008,-85.97200569279828
-0.1817000000000002,-86.41056619575643
-0.18270000000000008,-86.89156803771054
-0.1837000000000002,-87.37256987966467
-0.1847000000000001,-87.85357172161878
-0.1857000000000002,-88.23554377258235
-0.1867000000000001,-88.5892215975486
-0.1877000000000002,-89.02778210050676
-0.1887000000000001,-89.46634260346492
-0.1897000000000002,-89.94734444541903
-0.1907000000000001,-90.41419917437449
-0.1917000000000001,-90.85275967733266
-0.19269999999999998,-91.24887884129487
-0.1937000000000001,-91.60255666626112
-0.19469999999999998,-91.98452871722468
-0.1957000000000001,-92.4655305591788
-0.19669999999999999,-92.90409106213696
-0.1977000000000001,-93.38509290409107
-0.1987,-93.78121206805329
-0.1997000000000001,-94.07830144102493
-0.2007,-94.38953792699526
-0.2017000000000001,-94.87053976894937
-0.2027,-95.43642428889537
-0.2037000000000001,-95.91742613084948
-0.2047,-96.21451550382113
-0.2057000000000001,-96.61063466778336
-0.2067,-96.96431249274961
-0.2077000000000001,-97.36043165671182
-0.2087,-97.78484504667132
-0.2097000000000001,-98.26584688862545
-0.2107,-98.7892900695755
-0.2117000000000001,-99.18540923353773
-0.2127,-99.66641107549184
-0.2137000000000001,-100.10497157844999
-0.2147,-100.54353208140815
-0.2157000000000001,-101.06697526235823
-0.2167,-101.50553576531638
-0.21770000000000012,-101.88750781627995
-0.2187,-102.19874430225026
-0.21970000000000012,-102.5524221272165
-0.2207,-102.93439417818009
-0.22170000000000012,-103.28807200314633
-0.2227,-103.7266325061045
-0.22370000000000012,-104.2076343480586
-0.2247,-104.68863619001272
-0.22570000000000012,-105.07060824097626
-0.2267,-105.42428606594254
-0.22770000000000012,-105.7779638909088
-0.22870000000000001,-106.2589657328629
-0.22970000000000013,-106.68337912282242
-0.23070000000000002,-107.16438096477653
-0.23170000000000013,-107.6029414677347
-0.23270000000000002,-107.99906063169689
-0.23370000000000013,-108.35273845666316
-0.23470000000000002,-108.73471050762672
-0.23570000000000013,-109.21571234958083
-0.23670000000000002,-109.654272852539
-0.2376999999999999,-110.1352746944931
-0.23870000000000002,-110.57383519745127
-0.2396999999999999,-111.05483703940537
-0.24070000000000003,-111.4509562033676
-0.24169999999999991,-111.96025227131899
-0.24270000000000003,-112.39881277427718
-0.24369999999999992,-112.87981461623129
-0.24470000000000003,-113.23349244119754
-0.24569999999999992,-113.58717026616378
-0.24670000000000003,-113.92670097813141
-0.24769999999999992,-114.23793746410173
-0.24870000000000003,-114.67649796705987
-0.24969999999999992,-115.19994114800993
-0.25070000000000003,-115.68094298996405
-0.2516999999999999,-116.14779771891952
-0.25270000000000004,-116.54391688288172
-0.2536999999999999,-116.98247738583989
-0.25470000000000004,-117.50592056678994
-0.2556999999999999,-117.98692240874406
-0.25670000000000004,-118.55280692869007
-0.25769999999999993,-119.16113278763203
-0.25870000000000004,-119.47236927360234
-0.25969999999999993,-119.86848843756455
-0.26070000000000004,-120.25046048852812
-0.26169999999999993,-120.68902099148629
-0.26270000000000004,-121.17002283344038
-0.26369999999999993,-121.69346601439047
-0.26470000000000005,-122.17446785634456
-0.26569999999999994,-122.48570434231489
-0.26670000000000005,-122.78279371528653
-0.26769999999999994,-123.09403020125686
-0.26870000000000005,-123.57503204321095
-0.26969999999999994,-124.05603388516508
-0.27070000000000005,-124.52288861412055
-0.27169999999999994,-124.9614491170787
-0.27270000000000005,-125.35756828104091
-0.27369999999999994,-125.7536874450031
-0.27470000000000006,-126.09321815697072
-0.27569999999999995,-126.6732497899154
-0.27670000000000006,-127.19669297086547
-0.27769999999999995,-127.72013615181551
-0.27870000000000006,-128.144549541775
-0.27969999999999995,-128.54066870573723
-0.28070000000000006,-128.93678786969946
-0.28169999999999995,-129.33290703366166
-0.28270000000000006,-129.8563502146117
-0.28369999999999995,-130.42223473455772
-0.28470000000000006,-130.90323657651186
-0.28569999999999995,-131.32764996647134
-0.28670000000000007,-131.72376913043357
-0.28769999999999996,-132.16232963339172
-0.28870000000000007,-132.6857728143418
-0.28969999999999996,-133.20921599529186
-0.29070000000000007,-133.73265917624192
-0.29169999999999996,-134.21366101819604
-0.29270000000000007,-134.69466286015015
-0.29369999999999996,-135.09078202411234
-0.2947000000000001,-135.5576367530678
-0.29569999999999996,-136.08107993401788
-0.2967000000000001,-136.66111156696255
-0.29769999999999996,-137.1845547479126
-0.2987000000000001,-137.6089681378721
-0.29969999999999997,-138.08996997982624
-0.3007000000000001,-138.57097182178035
-0.30169999999999997,-139.05197366373446
-0.3027000000000001,-139.61785818368048
-0.30369999999999997,-140.22618404262244
-0.3047000000000001,-140.74962722357247
-0.30569999999999997,-141.2306290655266
-0.3067000000000001,-141.75407224647665
-0.3077,-142.17848563643616
-0.3087000000000001,-142.7443701563822
-0.3097,-143.3102546763282
-0.3107000000000001,-143.87613919627424
-0.3117,-144.30055258623375
-0.3127000000000001,-144.86643710617977
-0.3137,-145.29085049613926
-0.3147000000000001,-145.85673501608528
-0.3157,-146.4226195360313
-0.3167000000000001,-147.1299751859638
-0.3177,-147.6958597059098
-0.3187000000000001,-148.12027309586935
-0.3197,-148.54468648582886
-0.3207000000000001,-149.1105710057749
-0.3217,-149.6764555257209
-0.3227000000000001,-150.24234004566688
-0.3237,-150.8082245656129
-0.3247000000000001,-151.37410908555893
-0.3257,-151.93999360550492
-0.3267000000000001,-152.36440699546444
-0.3277,-152.93029151541046
-0.3287000000000001,-153.49617603535648
-0.3297,-154.203531685289
-0.3307000000000001,-154.76941620523502
-0.3317,-155.33530072518104
-0.3327000000000001,-155.90118524512707
-0.3337,-156.46706976507306
-0.3347000000000001,-157.03295428501906
-0.3357,-157.59883880496508
-0.3367000000000001,-158.3061944548976
-0.3377,-159.01355010483013
-0.3387000000000001,-159.57943462477613
-0.3397,-160.14531914472215
-0.3407000000000001,-160.5697325346817
-0.3417,-161.2770881846142
-0.3427000000000001,-161.84297270456022
-0.3437,-162.5503283544927
-0.3447000000000001,-163.11621287443873
-0.3457,-163.68209739438475
-0.3467000000000001,-164.24798191433075
-0.3477,-164.81386643427678
-0.3487000000000001,-165.3797509542228
-0.3497,-166.0871066041553
-0.3507000000000001,-166.79446225408785
-0.3517,-167.36034677403384
-0.3527000000000001,-167.92623129397984
-0.3537,-168.35064468393938
-0.3547000000000001,-168.91652920388537
-0.3557,-169.6238848538179
-0.35670000000000013,-170.33124050375042
-0.3577,-171.03859615368293
-0.35870000000000013,-171.74595180361547
-0.3597,-172.31183632356147
-0.36070000000000013,-172.87772084350746
-0.3617,-173.44360536345349
-0.3626999999999999,-174.150961013386
-0.3637,-174.85831666331853
-0.3646999999999999,-175.56567231325104
-0.3657,-176.13155683319707
-0.3666999999999999,-176.8389124831296
-0.3677,-177.4047970030756
-0.3686999999999999,-178.1121526530081
-0.36970000000000003,-178.96097943292713
-0.3706999999999999,-179.66833508285964
-0.37170000000000003,-180.37569073279218
-0.3726999999999999,-180.94157525273818
-0.37370000000000003,-181.5074597726842
-0.3746999999999999,-182.21481542261674
-0.37570000000000003,-182.92217107254925
-0.3766999999999999,-183.77099785246824
-0.37770000000000004,-184.47835350240078
-0.3786999999999999,-185.0442380223468
-0.37970000000000004,-185.6101225422928
-0.3806999999999999,-186.31747819222534
-0.38170000000000004,-187.02483384215788
-0.38269999999999993,-187.87366062207687
-0.38370000000000004,-188.58101627200938
-0.38469999999999993,-189.2883719219419
-0.38570000000000004,-189.99572757187443
-0.38669999999999993,-189.57131418191491
-0.38570000000000004,-187.59071836210387
-0.38469999999999993,-185.6101225422928
-0.38370000000000004,-183.91246898245475
-0.38269999999999993,-182.21481542261674
-0.38170000000000004,-180.5171618627787
-0.3806999999999999,-178.81950830294062
-0.37970000000000004,-176.98038361311612
-0.3786999999999999,-175.28273005327804
-0.37770000000000004,-173.72654762342648
-0.3766999999999999,-172.17036519357498
-0.37570000000000003,-170.61418276372342
-0.3746999999999999,-168.91652920388537
-0.37370000000000003,-167.21887564404733
-0.3726999999999999,-165.6626932141958
-0.37170000000000003,-164.10651078434424
-0.3706999999999999,-162.5503283544927
-0.36970000000000003,-160.99414592464117
-0.3686999999999999,-159.57943462477613
-0.3677,-158.02325219492457
-0.3666999999999999,-156.32559863508658
-0.3657,-154.9108873352215
-0.3646999999999999,-153.35470490536997
-0.3637,-151.93999360550492
-0.3626999999999999,-150.5252823056399
-0.3617,-149.1105710057749
-0.36070000000000013,-147.55438857592333
-0.3597,-146.1396772760583
-0.35870000000000013,-144.58349484620675
-0.3577,-143.16878354634173
-0.35670000000000013,-141.89554337646317
-0.3557,-140.45253785060083
-0.3547000000000001,-139.0095323247385
-0.3537,-137.43920278188833
-0.3527000000000001,-135.91131457803408
-0.3517,-134.46830905217172
-0.3507000000000001,-133.1667746562959
-0.3497,-131.80865180842545
-0.3487000000000001,-130.37979339556176
-0.3477,-128.93678786969946
-0.3467000000000001,-127.4937823438371
-0.3457,-126.09321815697072
-0.3447000000000001,-124.70680108310299
-0.3437,-123.43356091322445
-0.3427000000000001,-122.1320265173486
-0.3417,-120.77390366947817
-0.3407000000000001,-119.38748659561045
-0.3397,-117.98692240874406
-0.3387000000000001,-116.62879956087362
-0.3377,-115.36970650399375
-0.3367000000000001,-114.11061344711386
-0.3357,-112.83737327723534
-0.3347000000000001,-111.49339754236355
-0.3337,-110.17771603348905
-0.3327000000000001,-108.83374029861727
-0.3317,-107.51805878974278
-0.3307000000000001,-106.30140707185885
-0.3297,-105.11304957997223
-0.3287000000000001,-103.85395652309235
-0.3277,-102.5524221272165
-0.3267000000000001,-101.19429927934607
-0.3257,-99.87861777047159
-0.3247000000000001,-98.6195247135917
-0.3237,-97.44531433470372
-0.3227000000000001,-96.27110395581576
-0.3217,-94.99786378593721
-0.3207000000000001,-93.73877072905732
-0.3197,-92.4655305591788
-0.3187000000000001,-91.20643750229891
-0.3177,-90.03222712341093
-0.3167000000000001,-88.9004580835189
-0.3157,-87.71210059163228
-0.3147000000000001,-86.49544887374834
-0.3137,-85.23635581686847
-0.3127000000000001,-84.00555698598588
-0.3117,-82.78890526810196
-0.3107000000000001,-81.65713622820991
-0.3097,-80.56780852731384
-0.3087000000000001,-79.37945103542721
-0.3077,-78.16279931754329
-0.3067000000000001,-76.9037062606634
-0.30569999999999997,-75.6729074297808
-0.3047000000000001,-74.54113838988879
-0.30369999999999997,-73.40936934999675
-0.3027000000000001,-72.36248298809663
-0.30169999999999997,-71.18827260920865
-0.3007000000000001,-70.01406223032066
-0.29969999999999997,-68.82570473843404
-0.2987000000000001,-67.693935698542
-0.29769999999999996,-66.60460799764593
-0.2967000000000001,-65.5577216357458
-0.29569999999999996,-64.51083527384567
-0.2947000000000001,-63.37906623395363
-0.29369999999999996,-62.28973853305756
-0.29270000000000007,-61.07308681517363
-0.29169999999999996,-59.9696120012789
-0.29070000000000007,-58.97931409137338
-0.28969999999999996,-57.974869068469204
-0.28870000000000007,-56.88554136757313
-0.28769999999999996,-55.7820665536784
-0.28670000000000007,-54.65029751378637
-0.28569999999999995,-53.518528473894335
-0.28470000000000006,-52.471642111994214
-0.28369999999999995,-51.46719708909004
-0.28270000000000006,-50.50519340518181
-0.28169999999999995,-49.50074838227763
-0.28070000000000006,-48.51045047237211
-0.27969999999999995,-47.40697565847737
-0.27870000000000006,-46.37423640957591
-0.27769999999999995,-45.412232725667685
-0.27670000000000006,-44.4077877027635
-0.27569999999999995,-43.44578401885527
-0.27470000000000006,-42.4413389959511
-0.27369999999999994,-41.39445263405098
-0.27270000000000005,-40.43244895014274
-0.27169999999999994,-39.42800392723857
-0.27070000000000005,-38.522588695324956
-0.26969999999999994,-37.60302635041268
-0.26870000000000005,-36.6834640055004
-0.26769999999999994,-35.636577643600276
-0.26670000000000005,-34.632132620696105
