June 30, 2026   06:43:46
Cyclic Voltammetry
File: c:/users/guazh/data/20260623_doe_duplica2/2026-06-24-exp48\exp48-2026-06-30t06_18_40-h2koh\exp48_cv_sr_900mvs_efin_-1800mv.bin
Data Source:  Experiment
Instrument Model:  CHI760E
Header: CV ran at 900 mVs
Note: 

Init E (V) = -1
High E (V) = -1
Low E (V) = -1.8
Final E (V) = -1
Init P/N = N
Scan Rate (V/s) = 0.9
Segment = 3
Sample Interval (V) = 0.001
Quiet Time (sec) = 2
Sensitivity (A/V) = 0.01
Comp R (ohm) = 2.9

Results:

Channel 1:
Segment 1:

Segment 2:
Ep = -1.188V
ip = -6.973e-6A
Ah = -1.446e-7C

Segment 3:

Potential/V, Current/A

-1.000, -2.927e-6
-1.001, 1.559e-7
-1.002, 1.559e-7
-1.003, 1.559e-7
-1.004, 3.239e-6
-1.005, 3.239e-6
-1.006, 3.239e-6
-1.007, 3.239e-6
-1.008, 3.239e-6
-1.009, 6.322e-6
-1.010, 6.322e-6
-1.011, 6.322e-6
-1.012, 6.322e-6
-1.013, 6.322e-6
-1.014, 9.405e-6
-1.015, 9.405e-6
-1.016, 9.405e-6
-1.017, 9.405e-6
-1.018, 9.405e-6
-1.019, 9.405e-6
-1.020, 9.405e-6
-1.021, 9.405e-6
-1.022, 1.249e-5
-1.023, 1.249e-5
-1.024, 1.249e-5
-1.025, 1.249e-5
-1.026, 1.249e-5
-1.027, 1.249e-5
-1.028, 1.249e-5
-1.029, 1.557e-5
-1.030, 1.557e-5
-1.031, 1.557e-5
-1.032, 1.557e-5
-1.033, 1.557e-5
-1.034, 1.557e-5
-1.035, 1.557e-5
-1.036, 1.557e-5
-1.037, 1.865e-5
-1.038, 1.865e-5
-1.039, 1.865e-5
-1.040, 1.865e-5
-1.041, 1.865e-5
-1.042, 1.865e-5
-1.043, 1.865e-5
-1.044, 2.174e-5
-1.045, 2.174e-5
-1.046, 2.174e-5
-1.047, 2.174e-5
-1.048, 2.174e-5
-1.049, 2.174e-5
-1.050, 2.174e-5
-1.051, 2.174e-5
-1.052, 2.174e-5
-1.053, 2.482e-5
-1.054, 2.174e-5
-1.055, 2.482e-5
-1.056, 2.174e-5
-1.057, 2.174e-5
-1.058, 2.482e-5
-1.059, 2.482e-5
-1.060, 2.482e-5
-1.061, 2.482e-5
-1.062, 2.482e-5
-1.063, 2.482e-5
-1.064, 2.482e-5
-1.065, 2.482e-5
-1.066, 2.482e-5
-1.067, 2.482e-5
-1.068, 2.482e-5
-1.069, 2.482e-5
-1.070, 2.482e-5
-1.071, 2.482e-5
-1.072, 2.790e-5
-1.073, 2.790e-5
-1.074, 2.790e-5
-1.075, 2.790e-5
-1.076, 2.790e-5
-1.077, 2.790e-5
-1.078, 2.790e-5
-1.079, 2.790e-5
-1.080, 2.790e-5
-1.081, 3.099e-5
-1.082, 3.099e-5
-1.083, 3.099e-5
-1.084, 3.099e-5
-1.085, 3.099e-5
-1.086, 3.099e-5
-1.087, 3.099e-5
-1.088, 3.099e-5
-1.089, 3.407e-5
-1.090, 3.407e-5
-1.091, 3.099e-5
-1.092, 3.407e-5
-1.093, 3.407e-5
-1.094, 3.407e-5
-1.095, 3.407e-5
-1.096, 3.407e-5
-1.097, 3.407e-5
-1.098, 3.407e-5
-1.099, 3.407e-5
-1.100, 3.407e-5
-1.101, 3.715e-5
-1.102, 3.715e-5
-1.103, 3.715e-5
-1.104, 3.715e-5
-1.105, 3.407e-5
-1.106, 3.715e-5
-1.107, 3.715e-5
-1.108, 3.715e-5
-1.109, 3.715e-5
-1.110, 3.407e-5
-1.111, 3.715e-5
-1.112, 3.715e-5
-1.113, 3.715e-5
-1.114, 3.715e-5
-1.115, 3.715e-5
-1.116, 4.024e-5
-1.117, 3.715e-5
-1.118, 4.024e-5
-1.119, 3.715e-5
-1.120, 4.024e-5
-1.121, 4.024e-5
-1.122, 4.024e-5
-1.123, 4.024e-5
-1.124, 4.024e-5
-1.125, 4.332e-5
-1.126, 4.332e-5
-1.127, 4.332e-5
-1.128, 4.332e-5
-1.129, 4.640e-5
-1.130, 4.640e-5
-1.131, 4.332e-5
-1.132, 4.332e-5
-1.133, 4.332e-5
-1.134, 4.332e-5
-1.135, 4.640e-5
-1.136, 4.640e-5
-1.137, 4.640e-5
-1.138, 4.640e-5
-1.139, 4.640e-5
-1.140, 4.640e-5
-1.141, 4.640e-5
-1.142, 4.640e-5
-1.143, 4.640e-5
-1.144, 4.949e-5
-1.145, 4.640e-5
-1.146, 4.949e-5
-1.147, 4.949e-5
-1.148, 4.949e-5
-1.149, 4.640e-5
-1.150, 4.640e-5
-1.151, 4.640e-5
-1.152, 4.640e-5
-1.153, 4.640e-5
-1.154, 4.949e-5
-1.155, 4.949e-5
-1.156, 4.949e-5
-1.157, 4.949e-5
-1.158, 4.949e-5
-1.159, 4.949e-5
-1.160, 4.949e-5
-1.161, 4.949e-5
-1.162, 4.949e-5
-1.163, 4.640e-5
-1.164, 4.949e-5
-1.165, 4.949e-5
-1.166, 4.949e-5
-1.167, 4.949e-5
-1.168, 5.257e-5
-1.169, 5.257e-5
-1.170, 4.949e-5
-1.171, 4.949e-5
-1.172, 4.949e-5
-1.173, 5.257e-5
-1.174, 5.257e-5
-1.175, 5.257e-5
-1.176, 5.257e-5
-1.177, 5.257e-5
-1.178, 5.257e-5
-1.179, 5.257e-5
-1.180, 5.257e-5
-1.181, 5.565e-5
-1.182, 5.565e-5
-1.183, 5.565e-5
-1.184, 5.257e-5
-1.185, 5.257e-5
-1.186, 5.257e-5
-1.187, 5.565e-5
-1.188, 5.565e-5
-1.189, 5.565e-5
-1.190, 5.565e-5
-1.191, 5.565e-5
-1.192, 5.873e-5
-1.193, 5.873e-5
-1.194, 5.873e-5
-1.195, 5.873e-5
-1.196, 5.565e-5
-1.197, 5.565e-5
-1.198, 5.565e-5
-1.199, 5.873e-5
-1.200, 5.873e-5
-1.201, 5.873e-5
-1.202, 5.873e-5
-1.203, 5.565e-5
-1.204, 5.873e-5
-1.205, 5.565e-5
-1.206, 5.873e-5
-1.207, 5.565e-5
-1.208, 5.873e-5
-1.209, 5.873e-5
-1.210, 5.873e-5
-1.211, 5.873e-5
-1.212, 5.873e-5
-1.213, 5.873e-5
-1.214, 5.873e-5
-1.215, 5.873e-5
-1.216, 5.873e-5
-1.217, 5.873e-5
-1.218, 5.873e-5
-1.219, 5.873e-5
-1.220, 6.182e-5
-1.221, 5.873e-5
-1.222, 6.182e-5
-1.223, 6.182e-5
-1.224, 6.182e-5
-1.225, 6.490e-5
-1.226, 6.182e-5
-1.227, 6.182e-5
-1.228, 6.182e-5
-1.229, 6.182e-5
-1.230, 6.182e-5
-1.231, 6.182e-5
-1.232, 6.490e-5
-1.233, 6.490e-5
-1.234, 6.490e-5
-1.235, 6.182e-5
-1.236, 6.490e-5
-1.237, 6.182e-5
-1.238, 6.490e-5
-1.239, 6.490e-5
-1.240, 6.490e-5
-1.241, 6.490e-5
-1.242, 6.490e-5
-1.243, 6.490e-5
-1.244, 6.490e-5
-1.245, 6.490e-5
-1.246, 6.182e-5
-1.247, 6.490e-5
-1.248, 6.490e-5
-1.249, 6.182e-5
-1.250, 6.490e-5
-1.251, 6.182e-5
-1.252, 6.490e-5
-1.253, 6.182e-5
-1.254, 6.490e-5
-1.255, 6.490e-5
-1.256, 6.490e-5
-1.257, 6.490e-5
-1.258, 6.490e-5
-1.259, 6.490e-5
-1.260, 6.798e-5
-1.261, 6.798e-5
-1.262, 6.798e-5
-1.263, 6.798e-5
-1.264, 6.798e-5
-1.265, 6.798e-5
-1.266, 6.798e-5
-1.267, 6.798e-5
-1.268, 6.798e-5
-1.269, 7.107e-5
-1.270, 6.798e-5
-1.271, 7.107e-5
-1.272, 7.107e-5
-1.273, 6.798e-5
-1.274, 7.107e-5
-1.275, 7.107e-5
-1.276, 7.415e-5
-1.277, 7.107e-5
-1.278, 7.415e-5
-1.279, 7.107e-5
-1.280, 7.107e-5
-1.281, 7.415e-5
-1.282, 7.415e-5
-1.283, 7.415e-5
-1.284, 7.415e-5
-1.285, 7.415e-5
-1.286, 7.723e-5
-1.287, 7.415e-5
-1.288, 7.415e-5
-1.289, 7.415e-5
-1.290, 7.415e-5
-1.291, 7.415e-5
-1.292, 7.723e-5
-1.293, 7.415e-5
-1.294, 7.415e-5
-1.295, 7.723e-5
-1.296, 7.723e-5
-1.297, 7.723e-5
-1.298, 7.723e-5
-1.299, 7.723e-5
-1.300, 8.032e-5
-1.301, 8.032e-5
-1.302, 8.032e-5
-1.303, 8.032e-5
-1.304, 8.032e-5
-1.305, 7.723e-5
-1.306, 8.032e-5
-1.307, 8.032e-5
-1.308, 8.032e-5
-1.309, 8.032e-5
-1.310, 8.340e-5
-1.311, 8.340e-5
-1.312, 8.340e-5
-1.313, 8.340e-5
-1.314, 8.340e-5
-1.315, 8.648e-5
-1.316, 8.648e-5
-1.317, 8.340e-5
-1.318, 8.340e-5
-1.319, 8.340e-5
-1.320, 8.340e-5
-1.321, 8.340e-5
-1.322, 8.648e-5
-1.323, 8.648e-5
-1.324, 8.340e-5
-1.325, 8.648e-5
-1.326, 8.648e-5
-1.327, 8.648e-5
-1.328, 8.648e-5
-1.329, 8.648e-5
-1.330, 8.648e-5
-1.331, 8.648e-5
-1.332, 8.648e-5
-1.333, 8.648e-5
-1.334, 8.648e-5
-1.335, 8.648e-5
-1.336, 9.265e-5
-1.337, 8.957e-5
-1.338, 8.957e-5
-1.339, 8.648e-5
-1.340, 8.648e-5
-1.341, 8.648e-5
-1.342, 8.648e-5
-1.343, 8.957e-5
-1.344, 8.957e-5
-1.345, 8.957e-5
-1.346, 8.957e-5
-1.347, 9.265e-5
-1.348, 9.265e-5
-1.349, 9.265e-5
-1.350, 9.265e-5
-1.351, 9.265e-5
-1.352, 9.265e-5
-1.353, 8.957e-5
-1.354, 9.265e-5
-1.355, 9.265e-5
-1.356, 9.265e-5
-1.357, 9.265e-5
-1.358, 9.265e-5
-1.359, 9.265e-5
-1.360, 9.265e-5
-1.361, 9.573e-5
-1.362, 9.573e-5
-1.363, 9.573e-5
-1.364, 9.882e-5
-1.365, 9.882e-5
-1.366, 9.882e-5
-1.367, 9.882e-5
-1.368, 1.019e-4
-1.369, 9.882e-5
-1.370, 9.882e-5
-1.371, 1.019e-4
-1.372, 9.882e-5
-1.373, 9.882e-5
-1.374, 9.882e-5
-1.375, 9.882e-5
-1.376, 9.882e-5
-1.377, 9.882e-5
-1.378, 1.019e-4
-1.379, 1.019e-4
-1.380, 1.050e-4
-1.381, 1.019e-4
-1.382, 1.050e-4
-1.383, 1.050e-4
-1.384, 1.050e-4
-1.385, 1.081e-4
-1.386, 1.081e-4
-1.387, 1.081e-4
-1.388, 1.081e-4
-1.389, 1.081e-4
-1.390, 1.111e-4
-1.391, 1.111e-4
-1.392, 1.111e-4
-1.393, 1.111e-4
-1.394, 1.111e-4
-1.395, 1.111e-4
-1.396, 1.111e-4
-1.397, 1.111e-4
-1.398, 1.111e-4
-1.399, 1.142e-4
-1.400, 1.111e-4
-1.401, 1.142e-4
-1.402, 1.111e-4
-1.403, 1.111e-4
-1.404, 1.142e-4
-1.405, 1.142e-4
-1.406, 1.111e-4
-1.407, 1.142e-4
-1.408, 1.142e-4
-1.409, 1.111e-4
-1.410, 1.142e-4
-1.411, 1.142e-4
-1.412, 1.173e-4
-1.413, 1.142e-4
-1.414, 1.142e-4
-1.415, 1.142e-4
-1.416, 1.173e-4
-1.417, 1.173e-4
-1.418, 1.173e-4
-1.419, 1.173e-4
-1.420, 1.173e-4
-1.421, 1.204e-4
-1.422, 1.173e-4
-1.423, 1.173e-4
-1.424, 1.173e-4
-1.425, 1.173e-4
-1.426, 1.204e-4
-1.427, 1.204e-4
-1.428, 1.204e-4
-1.429, 1.204e-4
-1.430, 1.204e-4
-1.431, 1.235e-4
-1.432, 1.235e-4
-1.433, 1.204e-4
-1.434, 1.204e-4
-1.435, 1.235e-4
-1.436, 1.235e-4
-1.437, 1.235e-4
-1.438, 1.235e-4
-1.439, 1.235e-4
-1.440, 1.235e-4
-1.441, 1.235e-4
-1.442, 1.235e-4
-1.443, 1.266e-4
-1.444, 1.235e-4
-1.445, 1.235e-4
-1.446, 1.235e-4
-1.447, 1.235e-4
-1.448, 1.266e-4
-1.449, 1.266e-4
-1.450, 1.235e-4
-1.451, 1.266e-4
-1.452, 1.235e-4
-1.453, 1.235e-4
-1.454, 1.266e-4
-1.455, 1.266e-4
-1.456, 1.266e-4
-1.457, 1.296e-4
-1.458, 1.266e-4
-1.459, 1.296e-4
-1.460, 1.296e-4
-1.461, 1.296e-4
-1.462, 1.296e-4
-1.463, 1.266e-4
-1.464, 1.266e-4
-1.465, 1.266e-4
-1.466, 1.266e-4
-1.467, 1.266e-4
-1.468, 1.266e-4
-1.469, 1.296e-4
-1.470, 1.296e-4
-1.471, 1.296e-4
-1.472, 1.296e-4
-1.473, 1.327e-4
-1.474, 1.296e-4
-1.475, 1.327e-4
-1.476, 1.296e-4
-1.477, 1.327e-4
-1.478, 1.358e-4
-1.479, 1.389e-4
-1.480, 1.420e-4
-1.481, 1.389e-4
-1.482, 1.327e-4
-1.483, 1.327e-4
-1.484, 1.358e-4
-1.485, 1.358e-4
-1.486, 1.358e-4
-1.487, 1.389e-4
-1.488, 1.420e-4
-1.489, 1.389e-4
-1.490, 1.389e-4
-1.491, 1.389e-4
-1.492, 1.420e-4
-1.493, 1.389e-4
-1.494, 1.420e-4
-1.495, 1.451e-4
-1.496, 1.451e-4
-1.497, 1.420e-4
-1.498, 1.451e-4
-1.499, 1.451e-4
-1.500, 1.451e-4
-1.501, 1.451e-4
-1.502, 1.481e-4
-1.503, 1.512e-4
-1.504, 1.481e-4
-1.505, 1.512e-4
-1.506, 1.512e-4
-1.507, 1.512e-4
-1.508, 1.512e-4
-1.509, 1.512e-4
-1.510, 1.543e-4
-1.511, 1.543e-4
-1.512, 1.574e-4
-1.513, 1.605e-4
-1.514, 1.605e-4
-1.515, 1.605e-4
-1.516, 1.605e-4
-1.517, 1.636e-4
-1.518, 1.636e-4
-1.519, 1.636e-4
-1.520, 1.636e-4
-1.521, 1.636e-4
-1.522, 1.636e-4
-1.523, 1.666e-4
-1.524, 1.666e-4
-1.525, 1.666e-4
-1.526, 1.666e-4
-1.527, 1.605e-4
-1.528, 1.636e-4
-1.529, 1.636e-4
-1.530, 1.636e-4
-1.531, 1.666e-4
-1.532, 1.666e-4
-1.533, 1.697e-4
-1.534, 1.697e-4
-1.535, 1.697e-4
-1.536, 1.728e-4
-1.537, 1.666e-4
-1.538, 1.697e-4
-1.539, 1.636e-4
-1.540, 1.636e-4
-1.541, 1.666e-4
-1.542, 1.666e-4
-1.543, 1.697e-4
-1.544, 1.728e-4
-1.545, 1.728e-4
-1.546, 1.728e-4
-1.547, 1.728e-4
-1.548, 1.759e-4
-1.549, 1.728e-4
-1.550, 1.728e-4
-1.551, 1.759e-4
-1.552, 1.790e-4
-1.553, 1.790e-4
-1.554, 1.821e-4
-1.555, 1.882e-4
-1.556, 1.913e-4
-1.557, 1.944e-4
-1.558, 1.944e-4
-1.559, 1.975e-4
-1.560, 1.944e-4
-1.561, 1.944e-4
-1.562, 1.975e-4
-1.563, 1.975e-4
-1.564, 2.006e-4
-1.565, 2.006e-4
-1.566, 2.067e-4
-1.567, 2.067e-4
-1.568, 2.067e-4
-1.569, 2.067e-4
-1.570, 2.098e-4
-1.571, 2.098e-4
-1.572, 2.129e-4
-1.573, 2.160e-4
-1.574, 2.129e-4
-1.575, 2.160e-4
-1.576, 2.160e-4
-1.577, 2.221e-4
-1.578, 2.252e-4
-1.579, 2.221e-4
-1.580, 2.314e-4
-1.581, 2.283e-4
-1.582, 2.314e-4
-1.583, 2.345e-4
-1.584, 2.345e-4
-1.585, 2.376e-4
-1.586, 2.345e-4
-1.587, 2.376e-4
-1.588, 2.406e-4
-1.589, 2.468e-4
-1.590, 2.468e-4
-1.591, 2.499e-4
-1.592, 2.561e-4
-1.593, 2.561e-4
-1.594, 2.622e-4
-1.595, 2.591e-4
-1.596, 2.653e-4
-1.597, 2.684e-4
-1.598, 2.715e-4
-1.599, 2.746e-4
-1.600, 2.684e-4
-1.601, 2.715e-4
-1.602, 2.746e-4
-1.603, 2.776e-4
-1.604, 2.776e-4
-1.605, 2.776e-4
-1.606, 2.807e-4
-1.607, 2.900e-4
-1.608, 3.023e-4
-1.609, 3.023e-4
-1.610, 3.054e-4
-1.611, 3.115e-4
-1.612, 3.023e-4
-1.613, 2.992e-4
-1.614, 2.961e-4
-1.615, 3.023e-4
-1.616, 3.023e-4
-1.617, 3.054e-4
-1.618, 3.146e-4
-1.619, 3.208e-4
-1.620, 3.208e-4
-1.621, 3.270e-4
-1.622, 3.393e-4
-1.623, 3.331e-4
-1.624, 3.393e-4
-1.625, 3.424e-4
-1.626, 3.424e-4
-1.627, 3.455e-4
-1.628, 3.485e-4
-1.629, 3.485e-4
-1.630, 3.516e-4
-1.631, 3.547e-4
-1.632, 3.578e-4
-1.633, 3.609e-4
-1.634, 3.640e-4
-1.635, 3.732e-4
-1.636, 3.732e-4
-1.637, 3.825e-4
-1.638, 3.794e-4
-1.639, 3.855e-4
-1.640, 3.886e-4
-1.641, 3.979e-4
-1.642, 4.040e-4
-1.643, 4.071e-4
-1.644, 4.164e-4
-1.645, 4.164e-4
-1.646, 4.195e-4
-1.647, 4.225e-4
-1.648, 4.318e-4
-1.649, 4.256e-4
-1.650, 4.318e-4
-1.651, 4.380e-4
-1.652, 4.472e-4
-1.653, 4.565e-4
-1.654, 4.595e-4
-1.655, 4.657e-4
-1.656, 4.688e-4
-1.657, 4.750e-4
-1.658, 4.811e-4
-1.659, 4.904e-4
-1.660, 4.935e-4
-1.661, 5.120e-4
-1.662, 5.181e-4
-1.663, 5.243e-4
-1.664, 5.305e-4
-1.665, 5.305e-4
-1.666, 5.366e-4
-1.667, 5.459e-4
-1.668, 5.459e-4
-1.669, 5.551e-4
-1.670, 5.644e-4
-1.671, 5.705e-4
-1.672, 5.767e-4
-1.673, 5.829e-4
-1.674, 5.890e-4
-1.675, 6.014e-4
-1.676, 6.075e-4
-1.677, 6.137e-4
-1.678, 6.291e-4
-1.679, 6.384e-4
-1.680, 6.476e-4
-1.681, 6.569e-4
-1.682, 6.692e-4
-1.683, 6.784e-4
-1.684, 6.908e-4
-1.685, 7.000e-4
-1.686, 7.093e-4
-1.687, 7.216e-4
-1.688, 7.278e-4
-1.689, 7.370e-4
-1.690, 7.524e-4
-1.691, 7.679e-4
-1.692, 7.802e-4
-1.693, 7.894e-4
-1.694, 8.079e-4
-1.695, 8.233e-4
-1.696, 8.326e-4
-1.697, 8.388e-4
-1.698, 8.542e-4
-1.699, 8.665e-4
-1.700, 8.819e-4
-1.701, 8.973e-4
-1.702, 9.128e-4
-1.703, 9.282e-4
-1.704, 9.498e-4
-1.705, 9.652e-4
-1.706, 9.744e-4
-1.707, 9.868e-4
-1.708, 1.002e-3
-1.709, 1.024e-3
-1.710, 1.039e-3
-1.711, 1.058e-3
-1.712, 1.073e-3
-1.713, 1.088e-3
-1.714, 1.107e-3
-1.715, 1.125e-3
-1.716, 1.141e-3
-1.717, 1.162e-3
-1.718, 1.187e-3
-1.719, 1.199e-3
-1.720, 1.215e-3
-1.721, 1.243e-3
-1.722, 1.261e-3
-1.723, 1.277e-3
-1.724, 1.292e-3
-1.725, 1.314e-3
-1.726, 1.338e-3
-1.727, 1.360e-3
-1.728, 1.388e-3
-1.729, 1.409e-3
-1.730, 1.428e-3
-1.731, 1.452e-3
-1.732, 1.480e-3
-1.733, 1.502e-3
-1.734, 1.526e-3
-1.735, 1.557e-3
-1.736, 1.576e-3
-1.737, 1.597e-3
-1.738, 1.628e-3
-1.739, 1.650e-3
-1.740, 1.680e-3
-1.741, 1.711e-3
-1.742, 1.736e-3
-1.743, 1.761e-3
-1.744, 1.785e-3
-1.745, 1.813e-3
-1.746, 1.841e-3
-1.747, 1.869e-3
-1.748, 1.902e-3
-1.749, 1.936e-3
-1.750, 1.973e-3
-1.751, 2.001e-3
-1.752, 2.038e-3
-1.753, 2.072e-3
-1.754, 2.106e-3
-1.755, 2.137e-3
-1.756, 2.171e-3
-1.757, 2.201e-3
-1.758, 2.245e-3
-1.759, 2.269e-3
-1.760, 2.303e-3
-1.761, 2.340e-3
-1.762, 2.377e-3
-1.763, 2.420e-3
-1.764, 2.467e-3
-1.765, 2.510e-3
-1.766, 2.550e-3
-1.767, 2.590e-3
-1.768, 2.633e-3
-1.769, 2.664e-3
-1.770, 2.701e-3
-1.771, 2.756e-3
-1.772, 2.793e-3
-1.773, 2.846e-3
-1.774, 2.895e-3
-1.775, 2.941e-3
-1.776, 2.969e-3
-1.777, 3.006e-3
-1.778, 3.056e-3
-1.779, 3.099e-3
-1.780, 3.151e-3
-1.781, 3.204e-3
-1.782, 3.256e-3
-1.783, 3.299e-3
-1.784, 3.342e-3
-1.785, 3.392e-3
-1.786, 3.435e-3
-1.787, 3.496e-3
-1.788, 3.533e-3
-1.789, 3.586e-3
-1.790, 3.638e-3
-1.791, 3.688e-3
-1.792, 3.740e-3
-1.793, 3.799e-3
-1.794, 3.863e-3
-1.795, 3.919e-3
-1.796, 3.968e-3
-1.797, 4.021e-3
-1.798, 4.079e-3
-1.799, 4.132e-3
-1.800, 4.159e-3
-1.799, 4.150e-3
-1.798, 4.128e-3
-1.797, 4.104e-3
-1.796, 4.085e-3
-1.795, 4.054e-3
-1.794, 4.027e-3
-1.793, 4.002e-3
-1.792, 3.968e-3
-1.791, 3.940e-3
-1.790, 3.913e-3
-1.789, 3.876e-3
-1.788, 3.845e-3
-1.787, 3.811e-3
-1.786, 3.774e-3
-1.785, 3.743e-3
-1.784, 3.718e-3
-1.783, 3.684e-3
-1.782, 3.647e-3
-1.781, 3.614e-3
-1.780, 3.583e-3
-1.779, 3.549e-3
-1.778, 3.521e-3
-1.777, 3.484e-3
-1.776, 3.459e-3
-1.775, 3.425e-3
-1.774, 3.392e-3
-1.773, 3.367e-3
-1.772, 3.324e-3
-1.771, 3.299e-3
-1.770, 3.268e-3
-1.769, 3.237e-3
-1.768, 3.204e-3
-1.767, 3.170e-3
-1.766, 3.136e-3
-1.765, 3.105e-3
-1.764, 3.074e-3
-1.763, 3.037e-3
-1.762, 3.006e-3
-1.761, 2.978e-3
-1.760, 2.951e-3
-1.759, 2.917e-3
-1.758, 2.889e-3
-1.757, 2.861e-3
-1.756, 2.827e-3
-1.755, 2.800e-3
-1.754, 2.769e-3
-1.753, 2.750e-3
-1.752, 2.723e-3
-1.751, 2.689e-3
-1.750, 2.664e-3
-1.749, 2.633e-3
-1.748, 2.602e-3
-1.747, 2.575e-3
-1.746, 2.544e-3
-1.745, 2.513e-3
-1.744, 2.488e-3
-1.743, 2.457e-3
-1.742, 2.442e-3
-1.741, 2.408e-3
-1.740, 2.371e-3
-1.739, 2.349e-3
-1.738, 2.319e-3
-1.737, 2.288e-3
-1.736, 2.254e-3
-1.735, 2.232e-3
-1.734, 2.208e-3
-1.733, 2.183e-3
-1.732, 2.146e-3
-1.731, 2.121e-3
-1.730, 2.097e-3
-1.729, 2.066e-3
-1.728, 2.035e-3
-1.727, 2.007e-3
-1.726, 1.986e-3
-1.725, 1.964e-3
-1.724, 1.943e-3
-1.723, 1.921e-3
-1.722, 1.896e-3
-1.721, 1.875e-3
-1.720, 1.853e-3
-1.719, 1.825e-3
-1.718, 1.804e-3
-1.717, 1.782e-3
-1.716, 1.758e-3
-1.715, 1.742e-3
-1.714, 1.721e-3
-1.713, 1.696e-3
-1.712, 1.680e-3
-1.711, 1.659e-3
-1.710, 1.637e-3
-1.709, 1.616e-3
-1.708, 1.600e-3
-1.707, 1.579e-3
-1.706, 1.560e-3
-1.705, 1.548e-3
-1.704, 1.532e-3
-1.703, 1.514e-3
-1.702, 1.495e-3
-1.701, 1.477e-3
-1.700, 1.458e-3
-1.699, 1.443e-3
-1.698, 1.425e-3
-1.697, 1.400e-3
-1.696, 1.375e-3
-1.695, 1.360e-3
-1.694, 1.335e-3
-1.693, 1.320e-3
-1.692, 1.301e-3
-1.691, 1.277e-3
-1.690, 1.252e-3
-1.689, 1.233e-3
-1.688, 1.215e-3
-1.687, 1.206e-3
-1.686, 1.181e-3
-1.685, 1.162e-3
-1.684, 1.147e-3
-1.683, 1.125e-3
-1.682, 1.104e-3
-1.681, 1.092e-3
-1.680, 1.076e-3
-1.679, 1.064e-3
-1.678, 1.048e-3
-1.677, 1.024e-3
-1.676, 1.011e-3
-1.675, 9.991e-4
-1.674, 9.837e-4
-1.673, 9.652e-4
-1.672, 9.374e-4
-1.671, 8.912e-4
-1.670, 8.727e-4
-1.669, 8.449e-4
-1.668, 8.264e-4
-1.667, 8.018e-4
-1.666, 7.925e-4
-1.665, 7.863e-4
-1.664, 7.740e-4
-1.663, 7.617e-4
-1.662, 7.494e-4
-1.661, 7.432e-4
-1.660, 7.309e-4
-1.659, 7.247e-4
-1.658, 7.154e-4
-1.657, 7.062e-4
-1.656, 6.969e-4
-1.655, 6.877e-4
-1.654, 6.784e-4
-1.653, 6.661e-4
-1.652, 6.538e-4
-1.651, 6.445e-4
-1.650, 6.353e-4
-1.649, 6.199e-4
-1.648, 6.106e-4
-1.647, 6.014e-4
-1.646, 5.798e-4
-1.645, 5.736e-4
-1.644, 5.644e-4
-1.643, 5.582e-4
-1.642, 5.397e-4
-1.641, 5.305e-4
-1.640, 5.212e-4
-1.639, 5.150e-4
-1.638, 5.027e-4
-1.637, 4.904e-4
-1.636, 4.811e-4
-1.635, 4.750e-4
-1.634, 4.657e-4
-1.633, 4.595e-4
-1.632, 4.534e-4
-1.631, 4.472e-4
-1.630, 4.410e-4
-1.629, 4.318e-4
-1.628, 4.256e-4
-1.627, 4.195e-4
-1.626, 4.133e-4
-1.625, 4.040e-4
-1.624, 3.979e-4
-1.623, 3.917e-4
-1.622, 3.855e-4
-1.621, 3.794e-4
-1.620, 3.732e-4
-1.619, 3.670e-4
-1.618, 3.640e-4
-1.617, 3.547e-4
-1.616, 3.516e-4
-1.615, 3.455e-4
-1.614, 3.424e-4
-1.613, 3.331e-4
-1.612, 3.331e-4
-1.611, 3.331e-4
-1.610, 3.300e-4
-1.609, 3.300e-4
-1.608, 3.270e-4
-1.607, 3.239e-4
-1.606, 3.239e-4
-1.605, 3.208e-4
-1.604, 3.177e-4
-1.603, 3.146e-4
-1.602, 3.115e-4
-1.601, 3.115e-4
-1.600, 3.115e-4
-1.599, 3.054e-4
-1.598, 3.023e-4
-1.597, 2.961e-4
-1.596, 2.900e-4
-1.595, 2.869e-4
-1.594, 2.838e-4
-1.593, 2.807e-4
-1.592, 2.776e-4
-1.591, 2.746e-4
-1.590, 2.746e-4
-1.589, 2.715e-4
-1.588, 2.622e-4
-1.587, 2.591e-4
-1.586, 2.530e-4
-1.585, 2.468e-4
-1.584, 2.437e-4
-1.583, 2.376e-4
-1.582, 2.345e-4
-1.581, 2.314e-4
-1.580, 2.252e-4
-1.579, 2.252e-4
-1.578, 2.221e-4
-1.577, 2.221e-4
-1.576, 2.191e-4
-1.575, 2.160e-4
-1.574, 2.160e-4
-1.573, 2.160e-4
-1.572, 2.129e-4
-1.571, 2.036e-4
-1.570, 1.975e-4
-1.569, 1.975e-4
-1.568, 2.006e-4
-1.567, 1.975e-4
-1.566, 1.882e-4
-1.565, 1.851e-4
-1.564, 1.851e-4
-1.563, 1.821e-4
-1.562, 1.790e-4
-1.561, 1.821e-4
-1.560, 1.821e-4
-1.559, 1.790e-4
-1.558, 1.759e-4
-1.557, 1.759e-4
-1.556, 1.728e-4
-1.555, 1.697e-4
-1.554, 1.666e-4
-1.553, 1.605e-4
-1.552, 1.666e-4
-1.551, 1.636e-4
-1.550, 1.605e-4
-1.549, 1.420e-4
-1.548, 1.451e-4
-1.547, 1.420e-4
-1.546, 1.420e-4
-1.545, 1.451e-4
-1.544, 1.420e-4
-1.543, 1.420e-4
-1.542, 1.451e-4
-1.541, 1.420e-4
-1.540, 1.420e-4
-1.539, 1.420e-4
-1.538, 1.420e-4
-1.537, 1.235e-4
-1.536, 1.204e-4
-1.535, 1.204e-4
-1.534, 1.204e-4
-1.533, 1.204e-4
-1.532, 1.173e-4
-1.531, 1.142e-4
-1.530, 1.111e-4
-1.529, 1.111e-4
-1.528, 1.081e-4
-1.527, 1.081e-4
-1.526, 1.081e-4
-1.525, 1.050e-4
-1.524, 1.081e-4
-1.523, 1.019e-4
-1.522, 9.882e-5
-1.521, 1.019e-4
-1.520, 1.019e-4
-1.519, 1.019e-4
-1.518, 1.050e-4
-1.517, 1.050e-4
-1.516, 1.019e-4
-1.515, 1.019e-4
-1.514, 1.019e-4
-1.513, 1.019e-4
-1.512, 9.882e-5
-1.511, 9.882e-5
-1.510, 9.882e-5
-1.509, 9.265e-5
-1.508, 9.265e-5
-1.507, 9.265e-5
-1.506, 9.265e-5
-1.505, 9.265e-5
-1.504, 7.723e-5
-1.503, 7.723e-5
-1.502, 7.723e-5
-1.501, 7.415e-5
-1.500, 7.415e-5
-1.499, 7.415e-5
-1.498, 7.415e-5
-1.497, 7.415e-5
-1.496, 7.415e-5
-1.495, 6.798e-5
-1.494, 6.798e-5
-1.493, 7.107e-5
-1.492, 6.798e-5
-1.491, 6.798e-5
-1.490, 6.490e-5
-1.489, 6.182e-5
-1.488, 6.182e-5
-1.487, 6.182e-5
-1.486, 5.565e-5
-1.485, 5.565e-5
-1.484, 5.873e-5
-1.483, 5.873e-5
-1.482, 5.565e-5
-1.481, 5.565e-5
-1.480, 5.565e-5
-1.479, 5.565e-5
-1.478, 5.565e-5
-1.477, 5.565e-5
-1.476, 5.257e-5
-1.475, 4.949e-5
-1.474, 5.257e-5
-1.473, 4.949e-5
-1.472, 4.949e-5
-1.471, 4.640e-5
-1.470, 4.640e-5
-1.469, 4.332e-5
-1.468, 4.332e-5
-1.467, 4.332e-5
-1.466, 4.332e-5
-1.465, 4.332e-5
-1.464, 4.024e-5
-1.463, 4.332e-5
-1.462, 4.024e-5
-1.461, 4.024e-5
-1.460, 4.024e-5
-1.459, 4.024e-5
-1.458, 3.715e-5
-1.457, 3.407e-5
-1.456, 3.407e-5
-1.455, 3.407e-5
-1.454, 3.407e-5
-1.453, 3.407e-5
-1.452, 3.099e-5
-1.451, 3.099e-5
-1.450, 3.099e-5
-1.449, 3.099e-5
-1.448, 3.099e-5
-1.447, 3.099e-5
-1.446, 2.790e-5
-1.445, 3.099e-5
-1.444, 2.790e-5
-1.443, 2.790e-5
-1.442, 2.482e-5
-1.441, 2.482e-5
-1.440, 2.482e-5
-1.439, 2.482e-5
-1.438, 2.482e-5
-1.437, 2.482e-5
-1.436, 2.174e-5
-1.435, 2.482e-5
-1.434, 2.174e-5
-1.433, 2.174e-5
-1.432, 2.174e-5
-1.431, 2.174e-5
-1.430, 2.174e-5
-1.429, 2.174e-5
-1.428, 1.865e-5
-1.427, 1.865e-5
-1.426, 1.865e-5
-1.425, 1.865e-5
-1.424, 1.865e-5
-1.423, 1.557e-5
-1.422, 1.865e-5
-1.421, 1.557e-5
-1.420, 1.557e-5
-1.419, 1.865e-5
-1.418, 1.865e-5
-1.417, 1.557e-5
-1.416, 1.557e-5
-1.415, 1.557e-5
-1.414, 1.557e-5
-1.413, 1.557e-5
-1.412, 1.557e-5
-1.411, 1.249e-5
-1.410, 1.249e-5
-1.409, 1.249e-5
-1.408, 1.249e-5
-1.407, 1.249e-5
-1.406, 9.405e-6
-1.405, 9.405e-6
-1.404, 6.322e-6
-1.403, 6.322e-6
-1.402, 9.405e-6
-1.401, 6.322e-6
-1.400, 6.322e-6
-1.399, 6.322e-6
-1.398, 6.322e-6
-1.397, 6.322e-6
-1.396, 6.322e-6
-1.395, 3.239e-6
-1.394, 3.239e-6
-1.393, 3.239e-6
-1.392, 3.239e-6
-1.391, 3.239e-6
-1.390, 3.239e-6
-1.389, 3.239e-6
-1.388, 3.239e-6
-1.387, 3.239e-6
-1.386, 3.239e-6
-1.385, 6.322e-6
-1.384, 6.322e-6
-1.383, 6.322e-6
-1.382, 3.239e-6
-1.381, 1.559e-7
-1.380, 3.239e-6
-1.379, 1.559e-7
-1.378, 1.559e-7
-1.377, 1.559e-7
-1.376, -2.927e-6
-1.375, 1.559e-7
-1.374, -2.927e-6
-1.373, -2.927e-6
-1.372, -2.927e-6
-1.371, -2.927e-6
-1.370, -2.927e-6
-1.369, -2.927e-6
-1.368, -2.927e-6
-1.367, -6.010e-6
-1.366, -2.927e-6
-1.365, -6.010e-6
-1.364, -6.010e-6
-1.363, -6.010e-6
-1.362, -6.010e-6
-1.361, -6.010e-6
-1.360, -6.010e-6
-1.359, -6.010e-6
-1.358, -6.010e-6
-1.357, -6.010e-6
-1.356, -9.093e-6
-1.355, -6.010e-6
-1.354, -6.010e-6
-1.353, -9.093e-6
-1.352, -9.093e-6
-1.351, -9.093e-6
-1.350, -6.010e-6
-1.349, -9.093e-6
-1.348, -9.093e-6
-1.347, -9.093e-6
-1.346, -9.093e-6
-1.345, -9.093e-6
-1.344, -9.093e-6
-1.343, -9.093e-6
-1.342, -9.093e-6
-1.341, -9.093e-6
-1.340, -9.093e-6
-1.339, -1.218e-5
-1.338, -9.093e-6
-1.337, -1.218e-5
-1.336, -9.093e-6
-1.335, -1.218e-5
-1.334, -1.218e-5
-1.333, -1.218e-5
-1.332, -1.218e-5
-1.331, -1.218e-5
-1.330, -1.218e-5
-1.329, -1.218e-5
-1.328, -1.526e-5
-1.327, -1.526e-5
-1.326, -1.526e-5
-1.325, -1.526e-5
-1.324, -1.526e-5
-1.323, -1.526e-5
-1.322, -1.526e-5
-1.321, -1.526e-5
-1.320, -1.526e-5
-1.319, -1.834e-5
-1.318, -1.834e-5
-1.317, -1.526e-5
-1.316, -1.526e-5
-1.315, -1.834e-5
-1.314, -1.834e-5
-1.313, -1.834e-5
-1.312, -1.834e-5
-1.311, -1.834e-5
-1.310, -1.834e-5
-1.309, -1.834e-5
-1.308, -1.834e-5
-1.307, -2.143e-5
-1.306, -2.143e-5
-1.305, -2.143e-5
-1.304, -2.143e-5
-1.303, -2.143e-5
-1.302, -2.143e-5
-1.301, -2.143e-5
-1.300, -2.143e-5
-1.299, -2.143e-5
-1.298, -2.143e-5
-1.297, -2.143e-5
-1.296, -2.143e-5
-1.295, -2.451e-5
-1.294, -2.143e-5
-1.293, -2.143e-5
-1.292, -2.143e-5
-1.291, -2.451e-5
-1.290, -2.451e-5
-1.289, -2.451e-5
-1.288, -2.451e-5
-1.287, -2.451e-5
-1.286, -2.451e-5
-1.285, -2.451e-5
-1.284, -2.759e-5
-1.283, -2.451e-5
-1.282, -2.759e-5
-1.281, -2.759e-5
-1.280, -2.759e-5
-1.279, -2.759e-5
-1.278, -2.759e-5
-1.277, -2.759e-5
-1.276, -2.759e-5
-1.275, -2.759e-5
-1.274, -2.759e-5
-1.273, -2.759e-5
-1.272, -2.759e-5
-1.271, -2.759e-5
-1.270, -2.759e-5
-1.269, -3.068e-5
-1.268, -2.759e-5
-1.267, -3.068e-5
-1.266, -3.068e-5
-1.265, -3.068e-5
-1.264, -3.068e-5
-1.263, -3.068e-5
-1.262, -3.068e-5
-1.261, -3.376e-5
-1.260, -3.376e-5
-1.259, -3.068e-5
-1.258, -3.068e-5
-1.257, -3.068e-5
-1.256, -3.376e-5
-1.255, -3.068e-5
-1.254, -3.376e-5
-1.253, -3.376e-5
-1.252, -3.376e-5
-1.251, -3.376e-5
-1.250, -3.376e-5
-1.249, -3.376e-5
-1.248, -3.376e-5
-1.247, -3.376e-5
-1.246, -3.376e-5
-1.245, -3.376e-5
-1.244, -3.376e-5
-1.243, -3.376e-5
-1.242, -3.376e-5
-1.241, -3.376e-5
-1.240, -3.684e-5
-1.239, -3.684e-5
-1.238, -3.684e-5
-1.237, -3.684e-5
-1.236, -3.684e-5
-1.235, -3.684e-5
-1.234, -3.684e-5
-1.233, -3.684e-5
-1.232, -3.684e-5
-1.231, -3.684e-5
-1.230, -3.684e-5
-1.229, -3.992e-5
-1.228, -3.684e-5
-1.227, -3.992e-5
-1.226, -3.992e-5
-1.225, -3.992e-5
-1.224, -3.992e-5
-1.223, -3.992e-5
-1.222, -3.992e-5
-1.221, -3.992e-5
-1.220, -3.684e-5
-1.219, -3.992e-5
-1.218, -3.992e-5
-1.217, -3.992e-5
-1.216, -4.301e-5
-1.215, -3.992e-5
-1.214, -4.301e-5
-1.213, -4.301e-5
-1.212, -4.301e-5
-1.211, -4.301e-5
-1.210, -4.301e-5
-1.209, -4.301e-5
-1.208, -4.301e-5
-1.207, -4.609e-5
-1.206, -4.301e-5
-1.205, -4.301e-5
-1.204, -4.609e-5
-1.203, -4.609e-5
-1.202, -4.609e-5
-1.201, -4.609e-5
-1.200, -4.917e-5
-1.199, -4.609e-5
-1.198, -4.917e-5
-1.197, -4.917e-5
-1.196, -4.917e-5
-1.195, -4.917e-5
-1.194, -4.917e-5
-1.193, -4.917e-5
-1.192, -4.917e-5
-1.191, -4.917e-5
-1.190, -4.917e-5
-1.189, -4.917e-5
-1.188, -5.226e-5
-1.187, -4.917e-5
-1.186, -4.609e-5
-1.185, -4.609e-5
-1.184, -4.917e-5
-1.183, -4.609e-5
-1.182, -4.609e-5
-1.181, -4.609e-5
-1.180, -4.917e-5
-1.179, -4.917e-5
-1.178, -4.609e-5
-1.177, -4.917e-5
-1.176, -4.917e-5
-1.175, -4.609e-5
-1.174, -4.609e-5
-1.173, -4.917e-5
-1.172, -4.917e-5
-1.171, -4.917e-5
-1.170, -4.917e-5
-1.169, -4.917e-5
-1.168, -4.917e-5
-1.167, -4.917e-5
-1.166, -5.226e-5
-1.165, -5.226e-5
-1.164, -4.917e-5
-1.163, -4.917e-5
-1.162, -4.917e-5
-1.161, -4.917e-5
-1.160, -5.226e-5
-1.159, -5.226e-5
-1.158, -5.226e-5
-1.157, -5.226e-5
-1.156, -5.226e-5
-1.155, -5.226e-5
-1.154, -5.226e-5
-1.153, -5.226e-5
-1.152, -5.226e-5
-1.151, -5.226e-5
-1.150, -5.226e-5
-1.149, -5.226e-5
-1.148, -5.226e-5
-1.147, -5.226e-5
-1.146, -5.226e-5
-1.145, -5.226e-5
-1.144, -5.226e-5
-1.143, -4.917e-5
-1.142, -5.226e-5
-1.141, -5.226e-5
-1.140, -5.226e-5
-1.139, -4.917e-5
-1.138, -4.917e-5
-1.137, -4.917e-5
-1.136, -5.226e-5
-1.135, -5.226e-5
-1.134, -5.226e-5
-1.133, -5.226e-5
-1.132, -5.226e-5
-1.131, -5.534e-5
-1.130, -5.534e-5
-1.129, -5.226e-5
-1.128, -5.226e-5
-1.127, -5.226e-5
-1.126, -5.534e-5
-1.125, -5.226e-5
-1.124, -5.226e-5
-1.123, -5.226e-5
-1.122, -5.226e-5
-1.121, -4.917e-5
-1.120, -4.917e-5
-1.119, -4.917e-5
-1.118, -4.917e-5
-1.117, -4.917e-5
-1.116, -4.917e-5
-1.115, -4.609e-5
-1.114, -4.609e-5
-1.113, -4.301e-5
-1.112, -4.301e-5
-1.111, -3.992e-5
-1.110, -4.301e-5
-1.109, -3.992e-5
-1.108, -3.992e-5
-1.107, -3.684e-5
-1.106, -3.992e-5
-1.105, -3.992e-5
-1.104, -3.992e-5
-1.103, -3.992e-5
-1.102, -3.992e-5
-1.101, -3.992e-5
-1.100, -3.992e-5
-1.099, -3.992e-5
-1.098, -3.992e-5
-1.097, -3.992e-5
-1.096, -4.301e-5
-1.095, -4.301e-5
-1.094, -4.301e-5
-1.093, -4.301e-5
-1.092, -4.301e-5
-1.091, -4.609e-5
-1.090, -4.301e-5
-1.089, -4.609e-5
-1.088, -4.609e-5
-1.087, -4.609e-5
-1.086, -4.609e-5
-1.085, -4.301e-5
-1.084, -4.301e-5
-1.083, -4.301e-5
-1.082, -4.609e-5
-1.081, -4.301e-5
-1.080, -4.609e-5
-1.079, -4.609e-5
-1.078, -4.301e-5
-1.077, -4.301e-5
-1.076, -4.301e-5
-1.075, -4.301e-5
-1.074, -4.301e-5
-1.073, -4.609e-5
-1.072, -4.609e-5
-1.071, -4.609e-5
-1.070, -4.609e-5
-1.069, -4.609e-5
-1.068, -4.917e-5
-1.067, -4.917e-5
-1.066, -5.226e-5
-1.065, -5.534e-5
-1.064, -5.842e-5
-1.063, -5.842e-5
-1.062, -6.151e-5
-1.061, -6.151e-5
-1.060, -6.151e-5
-1.059, -6.151e-5
-1.058, -6.767e-5
-1.057, -6.767e-5
-1.056, -6.767e-5
-1.055, -6.767e-5
-1.054, -7.076e-5
-1.053, -7.076e-5
-1.052, -6.767e-5
-1.051, -7.076e-5
-1.050, -7.076e-5
-1.049, -7.076e-5
-1.048, -6.767e-5
-1.047, -7.076e-5
-1.046, -7.076e-5
-1.045, -7.076e-5
-1.044, -7.076e-5
-1.043, -7.076e-5
-1.042, -7.384e-5
-1.041, -7.076e-5
-1.040, -7.384e-5
-1.039, -7.384e-5
-1.038, -7.692e-5
-1.037, -7.692e-5
-1.036, -7.692e-5
-1.035, -7.692e-5
-1.034, -7.692e-5
-1.033, -7.692e-5
-1.032, -7.384e-5
-1.031, -7.384e-5
-1.030, -7.384e-5
-1.029, -8.000e-5
-1.028, -7.692e-5
-1.027, -8.000e-5
-1.026, -8.309e-5
-1.025, -8.000e-5
-1.024, -7.692e-5
-1.023, -8.000e-5
-1.022, -8.000e-5
-1.021, -8.000e-5
-1.020, -8.000e-5
-1.019, -8.309e-5
-1.018, -8.000e-5
-1.017, -8.000e-5
-1.016, -8.000e-5
-1.015, -8.000e-5
-1.014, -8.309e-5
-1.013, -8.309e-5
-1.012, -8.309e-5
-1.011, -8.617e-5
-1.010, -8.309e-5
-1.009, -8.617e-5
-1.008, -8.617e-5
-1.007, -8.617e-5
-1.006, -8.617e-5
-1.005, -8.925e-5
-1.004, -8.925e-5
-1.003, -8.925e-5
-1.002, -8.925e-5
-1.001, -8.925e-5
