Apr. 23, 2025   04:59:48
Cyclic Voltammetry
File: c:/users/guazh/data/banditlqround7_x0exp590_r20/2025-04-16-exp1163\exp1163-2025-04-23t04_53_55-h2koh\exp1163_cv_sr_100mvs_efin_-1400mv.bin
Data Source:  Experiment
Instrument Model:  CHI760E
Header: CV ran at 100 mVs
Note: 

Init E (V) = -1
High E (V) = -1
Low E (V) = -1.4
Final E (V) = -1
Init P/N = N
Scan Rate (V/s) = 0.1
Segment = 3
Sample Interval (V) = 0.001
Quiet Time (sec) = 2
Sensitivity (A/V) = 0.01
Comp R (ohm) = 1.3

Results:

Channel 1:
Segment 1:

Segment 2:

Segment 3:

Potential/V, Current/A

-1.000, 2.701e-6
-1.001, 3.423e-5
-1.002, 4.733e-5
-1.003, 5.266e-5
-1.004, 6.352e-5
-1.005, 6.493e-5
-1.006, 7.144e-5
-1.007, 7.648e-5
-1.008, 7.691e-5
-1.009, 8.495e-5
-1.010, 8.454e-5
-1.011, 8.933e-5
-1.012, 9.305e-5
-1.013, 9.243e-5
-1.014, 9.912e-5
-1.015, 9.826e-5
-1.016, 1.020e-4
-1.017, 1.049e-4
-1.018, 1.044e-4
-1.019, 1.104e-4
-1.020, 1.089e-4
-1.021, 1.124e-4
-1.022, 1.146e-4
-1.023, 1.139e-4
-1.024, 1.203e-4
-1.025, 1.177e-4
-1.026, 1.211e-4
-1.027, 1.232e-4
-1.028, 1.221e-4
-1.029, 1.280e-4
-1.030, 1.256e-4
-1.031, 1.296e-4
-1.032, 1.310e-4
-1.033, 1.296e-4
-1.034, 1.353e-4
-1.035, 1.327e-4
-1.036, 1.364e-4
-1.037, 1.378e-4
-1.038, 1.362e-4
-1.039, 1.416e-4
-1.040, 1.388e-4
-1.041, 1.421e-4
-1.042, 1.439e-4
-1.043, 1.419e-4
-1.044, 1.474e-4
-1.045, 1.444e-4
-1.046, 1.474e-4
-1.047, 1.492e-4
-1.048, 1.466e-4
-1.049, 1.517e-4
-1.050, 1.491e-4
-1.051, 1.517e-4
-1.052, 1.534e-4
-1.053, 1.510e-4
-1.054, 1.561e-4
-1.055, 1.529e-4
-1.056, 1.549e-4
-1.057, 1.565e-4
-1.058, 1.542e-4
-1.059, 1.591e-4
-1.060, 1.561e-4
-1.061, 1.580e-4
-1.062, 1.591e-4
-1.063, 1.566e-4
-1.064, 1.608e-4
-1.065, 1.575e-4
-1.066, 1.599e-4
-1.067, 1.607e-4
-1.068, 1.581e-4
-1.069, 1.623e-4
-1.070, 1.587e-4
-1.071, 1.611e-4
-1.072, 1.613e-4
-1.073, 1.582e-4
-1.074, 1.627e-4
-1.075, 1.593e-4
-1.076, 1.611e-4
-1.077, 1.615e-4
-1.078, 1.581e-4
-1.079, 1.625e-4
-1.080, 1.582e-4
-1.081, 1.601e-4
-1.082, 1.607e-4
-1.083, 1.566e-4
-1.084, 1.611e-4
-1.085, 1.566e-4
-1.086, 1.581e-4
-1.087, 1.589e-4
-1.088, 1.551e-4
-1.089, 1.589e-4
-1.090, 1.548e-4
-1.091, 1.557e-4
-1.092, 1.568e-4
-1.093, 1.525e-4
-1.094, 1.564e-4
-1.095, 1.522e-4
-1.096, 1.529e-4
-1.097, 1.534e-4
-1.098, 1.494e-4
-1.099, 1.529e-4
-1.100, 1.486e-4
-1.101, 1.496e-4
-1.102, 1.500e-4
-1.103, 1.463e-4
-1.104, 1.494e-4
-1.105, 1.450e-4
-1.106, 1.459e-4
-1.107, 1.462e-4
-1.108, 1.426e-4
-1.109, 1.454e-4
-1.110, 1.410e-4
-1.111, 1.418e-4
-1.112, 1.421e-4
-1.113, 1.381e-4
-1.114, 1.417e-4
-1.115, 1.368e-4
-1.116, 1.379e-4
-1.117, 1.377e-4
-1.118, 1.337e-4
-1.119, 1.374e-4
-1.120, 1.329e-4
-1.121, 1.336e-4
-1.122, 1.336e-4
-1.123, 1.293e-4
-1.124, 1.333e-4
-1.125, 1.287e-4
-1.126, 1.296e-4
-1.127, 1.303e-4
-1.128, 1.255e-4
-1.129, 1.294e-4
-1.130, 1.251e-4
-1.131, 1.255e-4
-1.132, 1.265e-4
-1.133, 1.219e-4
-1.134, 1.254e-4
-1.135, 1.217e-4
-1.136, 1.220e-4
-1.137, 1.228e-4
-1.138, 1.186e-4
-1.139, 1.223e-4
-1.140, 1.186e-4
-1.141, 1.188e-4
-1.142, 1.199e-4
-1.143, 1.158e-4
-1.144, 1.194e-4
-1.145, 1.155e-4
-1.146, 1.163e-4
-1.147, 1.170e-4
-1.148, 1.131e-4
-1.149, 1.168e-4
-1.150, 1.129e-4
-1.151, 1.138e-4
-1.152, 1.146e-4
-1.153, 1.108e-4
-1.154, 1.146e-4
-1.155, 1.104e-4
-1.156, 1.114e-4
-1.157, 1.122e-4
-1.158, 1.083e-4
-1.159, 1.125e-4
-1.160, 1.085e-4
-1.161, 1.091e-4
-1.162, 1.104e-4
-1.163, 1.064e-4
-1.164, 1.107e-4
-1.165, 1.067e-4
-1.166, 1.074e-4
-1.167, 1.089e-4
-1.168, 1.049e-4
-1.169, 1.089e-4
-1.170, 1.052e-4
-1.171, 1.057e-4
-1.172, 1.073e-4
-1.173, 1.033e-4
-1.174, 1.071e-4
-1.175, 1.039e-4
-1.176, 1.043e-4
-1.177, 1.063e-4
-1.178, 1.021e-4
-1.179, 1.058e-4
-1.180, 1.024e-4
-1.181, 1.028e-4
-1.182, 1.045e-4
-1.183, 1.011e-4
-1.184, 1.047e-4
-1.185, 1.014e-4
-1.186, 1.020e-4
-1.187, 1.032e-4
-1.188, 9.981e-5
-1.189, 1.036e-4
-1.190, 1.005e-4
-1.191, 1.012e-4
-1.192, 1.027e-4
-1.193, 9.849e-5
-1.194, 1.030e-4
-1.195, 9.951e-5
-1.196, 1.005e-4
-1.197, 1.018e-4
-1.198, 9.803e-5
-1.199, 1.026e-4
-1.200, 9.885e-5
-1.201, 9.943e-5
-1.202, 1.015e-4
-1.203, 9.737e-5
-1.204, 1.019e-4
-1.205, 9.830e-5
-1.206, 9.901e-5
-1.207, 1.009e-4
-1.208, 9.704e-5
-1.209, 1.012e-4
-1.210, 9.849e-5
-1.211, 9.852e-5
-1.212, 1.009e-4
-1.213, 9.682e-5
-1.214, 1.006e-4
-1.215, 9.817e-5
-1.216, 9.843e-5
-1.217, 1.005e-4
-1.218, 9.684e-5
-1.219, 1.006e-4
-1.220, 9.814e-5
-1.221, 9.853e-5
-1.222, 1.006e-4
-1.223, 9.715e-5
-1.224, 1.008e-4
-1.225, 9.815e-5
-1.226, 9.880e-5
-1.227, 1.008e-4
-1.228, 9.758e-5
-1.229, 1.021e-4
-1.230, 9.880e-5
-1.231, 9.934e-5
-1.232, 1.014e-4
-1.233, 9.788e-5
-1.234, 1.023e-4
-1.235, 9.924e-5
-1.236, 1.002e-4
-1.237, 1.023e-4
-1.238, 9.874e-5
-1.239, 1.033e-4
-1.240, 1.004e-4
-1.241, 1.011e-4
-1.242, 1.037e-4
-1.243, 1.001e-4
-1.244, 1.047e-4
-1.245, 1.021e-4
-1.246, 1.026e-4
-1.247, 1.052e-4
-1.248, 1.017e-4
-1.249, 1.059e-4
-1.250, 1.040e-4
-1.251, 1.044e-4
-1.252, 1.072e-4
-1.253, 1.037e-4
-1.254, 1.082e-4
-1.255, 1.065e-4
-1.256, 1.069e-4
-1.257, 1.098e-4
-1.258, 1.067e-4
-1.259, 1.111e-4
-1.260, 1.094e-4
-1.261, 1.100e-4
-1.262, 1.130e-4
-1.263, 1.102e-4
-1.264, 1.144e-4
-1.265, 1.129e-4
-1.266, 1.139e-4
-1.267, 1.170e-4
-1.268, 1.143e-4
-1.269, 1.190e-4
-1.270, 1.173e-4
-1.271, 1.189e-4
-1.272, 1.219e-4
-1.273, 1.192e-4
-1.274, 1.245e-4
-1.275, 1.232e-4
-1.276, 1.247e-4
-1.277, 1.282e-4
-1.278, 1.259e-4
-1.279, 1.314e-4
-1.280, 1.307e-4
-1.281, 1.318e-4
-1.282, 1.360e-4
-1.283, 1.335e-4
-1.284, 1.397e-4
-1.285, 1.389e-4
-1.286, 1.409e-4
-1.287, 1.455e-4
-1.288, 1.436e-4
-1.289, 1.493e-4
-1.290, 1.497e-4
-1.291, 1.518e-4
-1.292, 1.568e-4
-1.293, 1.557e-4
-1.294, 1.623e-4
-1.295, 1.632e-4
-1.296, 1.657e-4
-1.297, 1.712e-4
-1.298, 1.707e-4
-1.299, 1.778e-4
-1.300, 1.794e-4
-1.301, 1.826e-4
-1.302, 1.890e-4
-1.303, 1.893e-4
-1.304, 1.969e-4
-1.305, 1.993e-4
-1.306, 2.038e-4
-1.307, 2.108e-4
-1.308, 2.124e-4
-1.309, 2.211e-4
-1.310, 2.244e-4
-1.311, 2.301e-4
-1.312, 2.384e-4
-1.313, 2.409e-4
-1.314, 2.511e-4
-1.315, 2.558e-4
-1.316, 2.629e-4
-1.317, 2.730e-4
-1.318, 2.773e-4
-1.319, 2.897e-4
-1.320, 2.957e-4
-1.321, 3.051e-4
-1.322, 3.173e-4
-1.323, 3.236e-4
-1.324, 3.381e-4
-1.325, 3.472e-4
-1.326, 3.586e-4
-1.327, 3.733e-4
-1.328, 3.822e-4
-1.329, 3.994e-4
-1.330, 4.113e-4
-1.331, 4.259e-4
-1.332, 4.441e-4
-1.333, 4.568e-4
-1.334, 4.779e-4
-1.335, 4.940e-4
-1.336, 5.125e-4
-1.337, 5.350e-4
-1.338, 5.523e-4
-1.339, 5.779e-4
-1.340, 5.988e-4
-1.341, 6.232e-4
-1.342, 6.510e-4
-1.343, 6.752e-4
-1.344, 7.071e-4
-1.345, 7.340e-4
-1.346, 7.648e-4
-1.347, 7.992e-4
-1.348, 8.308e-4
-1.349, 8.712e-4
-1.350, 9.062e-4
-1.351, 9.444e-4
-1.352, 9.862e-4
-1.353, 1.024e-3
-1.354, 1.072e-3
-1.355, 1.116e-3
-1.356, 1.164e-3
-1.357, 1.214e-3
-1.358, 1.260e-3
-1.359, 1.318e-3
-1.360, 1.370e-3
-1.361, 1.426e-3
-1.362, 1.487e-3
-1.363, 1.544e-3
-1.364, 1.610e-3
-1.365, 1.671e-3
-1.366, 1.739e-3
-1.367, 1.810e-3
-1.368, 1.877e-3
-1.369, 1.953e-3
-1.370, 2.024e-3
-1.371, 2.100e-3
-1.372, 2.179e-3
-1.373, 2.253e-3
-1.374, 2.336e-3
-1.375, 2.415e-3
-1.376, 2.498e-3
-1.377, 2.586e-3
-1.378, 2.670e-3
-1.379, 2.765e-3
-1.380, 2.857e-3
-1.381, 2.951e-3
-1.382, 3.042e-3
-1.383, 3.128e-3
-1.384, 3.222e-3
-1.385, 3.313e-3
-1.386, 3.415e-3
-1.387, 3.518e-3
-1.388, 3.618e-3
-1.389, 3.724e-3
-1.390, 3.822e-3
-1.391, 3.929e-3
-1.392, 4.033e-3
-1.393, 4.131e-3
-1.394, 4.235e-3
-1.395, 4.336e-3
-1.396, 4.446e-3
-1.397, 4.556e-3
-1.398, 4.666e-3
-1.399, 4.791e-3
-1.400, 4.814e-3
-1.399, 4.756e-3
-1.398, 4.700e-3
-1.397, 4.638e-3
-1.396, 4.583e-3
-1.395, 4.523e-3
-1.394, 4.465e-3
-1.393, 4.406e-3
-1.392, 4.348e-3
-1.391, 4.292e-3
-1.390, 4.225e-3
-1.389, 4.165e-3
-1.388, 4.099e-3
-1.387, 4.026e-3
-1.386, 3.962e-3
-1.385, 3.892e-3
-1.384, 3.830e-3
-1.383, 3.767e-3
-1.382, 3.698e-3
-1.381, 3.639e-3
-1.380, 3.575e-3
-1.379, 3.511e-3
-1.378, 3.447e-3
-1.377, 3.378e-3
-1.376, 3.316e-3
-1.375, 3.244e-3
-1.374, 3.179e-3
-1.373, 3.119e-3
-1.372, 3.054e-3
-1.371, 2.997e-3
-1.370, 2.931e-3
-1.369, 2.867e-3
-1.368, 2.807e-3
-1.367, 2.746e-3
-1.366, 2.690e-3
-1.365, 2.629e-3
-1.364, 2.571e-3
-1.363, 2.514e-3
-1.362, 2.454e-3
-1.361, 2.401e-3
-1.360, 2.342e-3
-1.359, 2.289e-3
-1.358, 2.239e-3
-1.357, 2.182e-3
-1.356, 2.133e-3
-1.355, 2.080e-3
-1.354, 2.029e-3
-1.353, 1.980e-3
-1.352, 1.927e-3
-1.351, 1.882e-3
-1.350, 1.832e-3
-1.349, 1.786e-3
-1.348, 1.742e-3
-1.347, 1.693e-3
-1.346, 1.652e-3
-1.345, 1.605e-3
-1.344, 1.561e-3
-1.343, 1.521e-3
-1.342, 1.476e-3
-1.341, 1.438e-3
-1.340, 1.396e-3
-1.339, 1.356e-3
-1.338, 1.318e-3
-1.337, 1.277e-3
-1.336, 1.244e-3
-1.335, 1.207e-3
-1.334, 1.174e-3
-1.333, 1.142e-3
-1.332, 1.105e-3
-1.331, 1.075e-3
-1.330, 1.040e-3
-1.329, 1.008e-3
-1.328, 9.799e-4
-1.327, 9.459e-4
-1.326, 9.198e-4
-1.325, 8.892e-4
-1.324, 8.606e-4
-1.323, 8.355e-4
-1.322, 8.046e-4
-1.321, 7.817e-4
-1.320, 7.552e-4
-1.319, 7.301e-4
-1.318, 7.082e-4
-1.317, 6.813e-4
-1.316, 6.617e-4
-1.315, 6.373e-4
-1.314, 6.154e-4
-1.313, 5.964e-4
-1.312, 5.725e-4
-1.311, 5.556e-4
-1.310, 5.348e-4
-1.309, 5.158e-4
-1.308, 4.997e-4
-1.307, 4.781e-4
-1.306, 4.646e-4
-1.305, 4.455e-4
-1.304, 4.293e-4
-1.303, 4.166e-4
-1.302, 3.981e-4
-1.301, 3.870e-4
-1.300, 3.704e-4
-1.299, 3.553e-4
-1.298, 3.439e-4
-1.297, 3.259e-4
-1.296, 3.167e-4
-1.295, 3.023e-4
-1.294, 2.893e-4
-1.293, 2.806e-4
-1.292, 2.653e-4
-1.291, 2.575e-4
-1.290, 2.452e-4
-1.289, 2.340e-4
-1.288, 2.270e-4
-1.287, 2.140e-4
-1.286, 2.079e-4
-1.285, 1.975e-4
-1.284, 1.877e-4
-1.283, 1.818e-4
-1.282, 1.697e-4
-1.281, 1.649e-4
-1.280, 1.556e-4
-1.279, 1.474e-4
-1.278, 1.428e-4
-1.277, 1.320e-4
-1.276, 1.280e-4
-1.275, 1.194e-4
-1.274, 1.122e-4
-1.273, 1.088e-4
-1.272, 9.963e-5
-1.271, 9.750e-5
-1.270, 9.059e-5
-1.269, 8.534e-5
-1.268, 8.323e-5
-1.267, 7.446e-5
-1.266, 7.313e-5
-1.265, 6.661e-5
-1.264, 6.130e-5
-1.263, 5.942e-5
-1.262, 5.058e-5
-1.261, 4.957e-5
-1.260, 4.375e-5
-1.259, 3.891e-5
-1.258, 3.801e-5
-1.257, 3.066e-5
-1.256, 3.122e-5
-1.255, 2.649e-5
-1.254, 2.213e-5
-1.253, 2.251e-5
-1.252, 1.553e-5
-1.251, 1.620e-5
-1.250, 1.156e-5
-1.249, 7.062e-6
-1.248, 7.841e-6
-1.247, 1.776e-8
-1.246, 7.577e-7
-1.245, -3.248e-6
-1.244, -7.096e-6
-1.243, -5.971e-6
-1.242, -1.254e-5
-1.241, -1.067e-5
-1.240, -1.386e-5
-1.239, -1.660e-5
-1.238, -1.460e-5
-1.237, -2.038e-5
-1.236, -1.806e-5
-1.235, -2.097e-5
-1.234, -2.377e-5
-1.233, -2.189e-5
-1.232, -2.797e-5
-1.231, -2.581e-5
-1.230, -2.912e-5
-1.229, -3.310e-5
-1.228, -3.028e-5
-1.227, -3.663e-5
-1.226, -3.368e-5
-1.225, -3.700e-5
-1.224, -3.899e-5
-1.223, -3.646e-5
-1.222, -4.233e-5
-1.221, -3.918e-5
-1.220, -4.135e-5
-1.219, -4.368e-5
-1.218, -4.055e-5
-1.217, -4.634e-5
-1.216, -4.320e-5
-1.215, -4.579e-5
-1.214, -4.817e-5
-1.213, -4.598e-5
-1.212, -5.101e-5
-1.211, -4.861e-5
-1.210, -5.043e-5
-1.209, -5.245e-5
-1.208, -4.954e-5
-1.207, -5.359e-5
-1.206, -5.102e-5
-1.205, -5.197e-5
-1.204, -5.358e-5
-1.203, -5.129e-5
-1.202, -5.550e-5
-1.201, -5.338e-5
-1.200, -5.514e-5
-1.199, -5.737e-5
-1.198, -5.496e-5
-1.197, -5.914e-5
-1.196, -5.668e-5
-1.195, -5.812e-5
-1.194, -5.947e-5
-1.193, -5.705e-5
-1.192, -6.092e-5
-1.191, -5.814e-5
-1.190, -6.015e-5
-1.189, -6.219e-5
-1.188, -5.955e-5
-1.187, -6.415e-5
-1.186, -6.126e-5
-1.185, -6.318e-5
-1.184, -6.473e-5
-1.183, -6.180e-5
-1.182, -6.613e-5
-1.181, -6.278e-5
-1.180, -6.408e-5
-1.179, -6.542e-5
-1.178, -6.279e-5
-1.177, -6.708e-5
-1.176, -6.390e-5
-1.175, -6.588e-5
-1.174, -6.774e-5
-1.173, -6.503e-5
-1.172, -6.911e-5
-1.171, -6.676e-5
-1.170, -6.806e-5
-1.169, -6.969e-5
-1.168, -6.635e-5
-1.167, -7.075e-5
-1.166, -6.809e-5
-1.165, -6.894e-5
-1.164, -7.039e-5
-1.163, -6.801e-5
-1.162, -7.145e-5
-1.161, -6.913e-5
-1.160, -6.987e-5
-1.159, -7.139e-5
-1.158, -6.864e-5
-1.157, -7.244e-5
-1.156, -6.982e-5
-1.155, -7.157e-5
-1.154, -7.317e-5
-1.153, -7.099e-5
-1.152, -7.502e-5
-1.151, -7.270e-5
-1.150, -7.448e-5
-1.149, -7.610e-5
-1.148, -7.347e-5
-1.147, -7.751e-5
-1.146, -7.456e-5
-1.145, -7.613e-5
-1.144, -7.726e-5
-1.143, -7.414e-5
-1.142, -7.855e-5
-1.141, -7.551e-5
-1.140, -7.700e-5
-1.139, -7.864e-5
-1.138, -7.592e-5
-1.137, -8.078e-5
-1.136, -7.794e-5
-1.135, -7.953e-5
-1.134, -8.117e-5
-1.133, -7.779e-5
-1.132, -8.229e-5
-1.131, -7.974e-5
-1.130, -8.109e-5
-1.129, -8.316e-5
-1.128, -8.014e-5
-1.127, -8.457e-5
-1.126, -8.206e-5
-1.125, -8.343e-5
-1.124, -8.513e-5
-1.123, -8.219e-5
-1.122, -8.616e-5
-1.121, -8.380e-5
-1.120, -8.498e-5
-1.119, -8.676e-5
-1.118, -8.417e-5
-1.117, -8.813e-5
-1.116, -8.550e-5
-1.115, -8.738e-5
-1.114, -8.920e-5
-1.113, -8.679e-5
-1.112, -9.068e-5
-1.111, -8.807e-5
-1.110, -9.012e-5
-1.109, -9.178e-5
-1.108, -8.935e-5
-1.107, -9.450e-5
-1.106, -9.196e-5
-1.105, -9.410e-5
-1.104, -9.550e-5
-1.103, -9.304e-5
-1.102, -9.754e-5
-1.101, -9.468e-5
-1.100, -9.658e-5
-1.099, -9.823e-5
-1.098, -9.547e-5
-1.097, -1.004e-4
-1.096, -9.753e-5
-1.095, -9.971e-5
-1.094, -1.020e-4
-1.093, -9.988e-5
-1.092, -1.046e-4
-1.091, -1.022e-4
-1.090, -1.044e-4
-1.089, -1.067e-4
-1.088, -1.043e-4
-1.087, -1.093e-4
-1.086, -1.072e-4
-1.085, -1.090e-4
-1.084, -1.110e-4
-1.083, -1.091e-4
-1.082, -1.136e-4
-1.081, -1.117e-4
-1.080, -1.134e-4
-1.079, -1.153e-4
-1.078, -1.136e-4
-1.077, -1.184e-4
-1.076, -1.166e-4
-1.075, -1.193e-4
-1.074, -1.212e-4
-1.073, -1.192e-4
-1.072, -1.242e-4
-1.071, -1.221e-4
-1.070, -1.253e-4
-1.069, -1.272e-4
-1.068, -1.258e-4
-1.067, -1.312e-4
-1.066, -1.288e-4
-1.065, -1.321e-4
-1.064, -1.341e-4
-1.063, -1.325e-4
-1.062, -1.382e-4
-1.061, -1.358e-4
-1.060, -1.389e-4
-1.059, -1.417e-4
-1.058, -1.396e-4
-1.057, -1.460e-4
-1.056, -1.438e-4
-1.055, -1.469e-4
-1.054, -1.494e-4
-1.053, -1.479e-4
-1.052, -1.539e-4
-1.051, -1.518e-4
-1.050, -1.551e-4
-1.049, -1.579e-4
-1.048, -1.562e-4
-1.047, -1.621e-4
-1.046, -1.608e-4
-1.045, -1.640e-4
-1.044, -1.670e-4
-1.043, -1.663e-4
-1.042, -1.726e-4
-1.041, -1.718e-4
-1.040, -1.754e-4
-1.039, -1.783e-4
-1.038, -1.779e-4
-1.037, -1.835e-4
-1.036, -1.821e-4
-1.035, -1.857e-4
-1.034, -1.883e-4
-1.033, -1.878e-4
-1.032, -1.936e-4
-1.031, -1.924e-4
-1.030, -1.969e-4
-1.029, -1.997e-4
-1.028, -1.993e-4
-1.027, -2.065e-4
-1.026, -2.054e-4
-1.025, -2.103e-4
-1.024, -2.142e-4
-1.023, -2.140e-4
-1.022, -2.211e-4
-1.021, -2.199e-4
-1.020, -2.246e-4
-1.019, -2.283e-4
-1.018, -2.275e-4
-1.017, -2.348e-4
-1.016, -2.332e-4
-1.015, -2.379e-4
-1.014, -2.416e-4
-1.013, -2.411e-4
-1.012, -2.488e-4
-1.011, -2.486e-4
-1.010, -2.534e-4
-1.009, -2.580e-4
-1.008, -2.581e-4
-1.007, -2.658e-4
-1.006, -2.659e-4
-1.005, -2.714e-4
-1.004, -2.758e-4
-1.003, -2.763e-4
-1.002, -2.839e-4
-1.001, -2.841e-4
