Potential V vs RHE, Current mA cm-2
0.013299999999999867,-0.5692798270656908
0.012299999999999978,-1.8334658446250875
0.011299999999999866,-2.532333226758415
0.010299999999999976,-2.968064307116847
0.009299999999999864,-3.1859298472960624
0.008299999999999974,-3.447651437771094
0.007299999999999862,-3.7093730282461257
0.006299999999999972,-3.927238568425342
0.00529999999999986,-4.146518819904423
0.0042999999999999705,-4.23281620919619
0.0032999999999998586,-4.276672259492005
0.0022999999999999687,-4.23281620919619
0.0012999999999998568,-4.23281620919619
0.00029999999999996696,-4.23281620919619
-0.000700000000000145,-4.3205283097878215
-0.0017000000000000348,-4.450681749375406
-0.0027000000000001467,-4.582249900262854
-0.0037000000000000366,-4.626105950558669
-0.0047000000000001485,-4.668547289554621
-0.005700000000000038,-4.582249900262854
-0.00670000000000015,-4.538393849967037
-0.00770000000000004,-4.494537799671222
-0.008700000000000152,-4.538393849967037
-0.009700000000000042,-4.668547289554621
-0.010700000000000154,-4.756259390146253
-0.011700000000000044,-4.843971490737885
-0.012700000000000156,-4.887827541033701
-0.013700000000000045,-4.843971490737885
-0.014700000000000157,-4.756259390146253
-0.015700000000000047,-4.712403339850438
-0.01670000000000016,-4.712403339850438
-0.01770000000000005,-4.800115440442069
-0.01870000000000016,-4.887827541033701
-0.01970000000000005,-5.017980980621284
-0.020700000000000163,-5.017980980621284
-0.021700000000000053,-4.974124930325469
-0.022700000000000164,-4.9302688800296535
-0.023700000000000054,-4.843971490737885
-0.024700000000000166,-4.887827541033701
-0.025700000000000056,-4.9302688800296535
-0.026700000000000168,-4.974124930325469
-0.027700000000000058,-5.105693081212917
-0.02870000000000017,-5.149549131508733
-0.02970000000000006,-5.149549131508733
-0.03070000000000017,-5.0618370309171015
-0.03170000000000006,-4.974124930325469
-0.03270000000000017,-4.974124930325469
-0.03370000000000006,-5.017980980621284
-0.034700000000000175,-5.0618370309171015
-0.035700000000000065,-5.149549131508733
-0.03670000000000018,-5.235846520800501
-0.03770000000000007,-5.279702571096316
-0.03870000000000018,-5.191990470504685
-0.03970000000000007,-5.105693081212917
-0.04070000000000018,-5.017980980621284
-0.04170000000000007,-5.0618370309171015
-0.04270000000000018,-5.105693081212917
-0.04370000000000007,-5.191990470504685
-0.044700000000000184,-5.279702571096316
-0.045700000000000074,-5.323558621392133
-0.046700000000000186,-5.279702571096316
-0.047700000000000076,-5.235846520800501
-0.04870000000000019,-5.105693081212917
-0.04970000000000008,-5.105693081212917
-0.05070000000000019,-5.149549131508733
-0.05170000000000008,-5.235846520800501
-0.05270000000000019,-5.323558621392133
-0.05370000000000008,-5.367414671687949
-0.05470000000000019,-5.367414671687949
-0.05570000000000008,-5.279702571096316
-0.056700000000000195,-5.191990470504685
-0.057700000000000085,-5.149549131508733
-0.058700000000000196,-5.149549131508733
-0.059700000000000086,-5.279702571096316
-0.0607000000000002,-5.367414671687949
-0.06170000000000009,-5.453712060979717
-0.0627000000000002,-5.453712060979717
-0.06370000000000009,-5.367414671687949
-0.0647000000000002,-5.279702571096316
-0.06570000000000009,-5.191990470504685
-0.0667000000000002,-5.235846520800501
-0.0677000000000001,-5.279702571096316
-0.0687000000000002,-5.367414671687949
-0.0697000000000001,-5.453712060979717
-0.07070000000000021,-5.497568111275533
-0.0717000000000001,-5.453712060979717
-0.07270000000000021,-5.367414671687949
-0.0737000000000001,-5.279702571096316
-0.07470000000000021,-5.235846520800501
-0.0757000000000001,-5.323558621392133
-0.07670000000000021,-5.367414671687949
-0.0777000000000001,-5.453712060979717
-0.07870000000000021,-5.497568111275533
-0.0797000000000001,-5.497568111275533
-0.08070000000000022,-5.411270721983764
-0.0817000000000001,-5.323558621392133
-0.08270000000000022,-5.279702571096316
-0.08370000000000011,-5.279702571096316
-0.08470000000000022,-5.367414671687949
-0.08570000000000011,-5.453712060979717
-0.08670000000000022,-5.5414241615713475
-0.08770000000000011,-5.5414241615713475
-0.08870000000000022,-5.411270721983764
-0.08970000000000011,-5.367414671687949
-0.09070000000000022,-5.279702571096316
-0.09170000000000011,-5.279702571096316
-0.09270000000000023,-5.367414671687949
-0.09370000000000012,-5.453712060979717
-0.09470000000000023,-5.5414241615713475
-0.09570000000000012,-5.5414241615713475
-0.09670000000000023,-5.497568111275533
-0.09770000000000012,-5.411270721983764
-0.09870000000000023,-5.323558621392133
-0.09970000000000012,-5.279702571096316
-0.10070000000000023,-5.367414671687949
-0.10170000000000012,-5.411270721983764
-0.10270000000000024,-5.5414241615713475
-0.10370000000000013,-5.5414241615713475
-0.10470000000000024,-5.5414241615713475
-0.10570000000000013,-5.453712060979717
-0.10670000000000024,-5.367414671687949
-0.10770000000000013,-5.323558621392133
-0.10870000000000024,-5.323558621392133
-0.10970000000000013,-5.411270721983764
-0.11070000000000024,-5.5414241615713475
-0.11170000000000013,-5.585280211867165
-0.11270000000000002,-5.585280211867165
-0.11370000000000013,-5.497568111275533
-0.11470000000000002,-5.411270721983764
-0.11570000000000014,-5.323558621392133
-0.11670000000000003,-5.323558621392133
-0.11770000000000014,-5.411270721983764
-0.11870000000000003,-5.497568111275533
-0.11970000000000014,-5.585280211867165
-0.12070000000000003,-5.585280211867165
-0.12170000000000014,-5.5414241615713475
-0.12270000000000003,-5.411270721983764
-0.12370000000000014,-5.367414671687949
-0.12470000000000003,-5.323558621392133
-0.12570000000000014,-5.367414671687949
-0.12670000000000003,-5.453712060979717
-0.12770000000000015,-5.5414241615713475
-0.12870000000000004,-5.5414241615713475
-0.12970000000000015,-5.5414241615713475
-0.13070000000000004,-5.453712060979717
-0.13170000000000015,-5.367414671687949
-0.13270000000000004,-5.323558621392133
-0.13370000000000015,-5.323558621392133
-0.13470000000000004,-5.411270721983764
-0.13570000000000015,-5.497568111275533
-0.13670000000000004,-5.5414241615713475
-0.13770000000000016,-5.585280211867165
-0.13870000000000005,-5.453712060979717
-0.13970000000000016,-5.411270721983764
-0.14070000000000005,-5.323558621392133
-0.14170000000000016,-5.323558621392133
-0.14270000000000005,-5.367414671687949
-0.14370000000000016,-5.497568111275533
-0.14470000000000005,-5.585280211867165
-0.14570000000000016,-5.585280211867165
-0.14670000000000005,-5.497568111275533
-0.14770000000000016,-5.453712060979717
-0.14870000000000005,-5.367414671687949
-0.14970000000000017,-5.323558621392133
-0.15070000000000006,-5.411270721983764
-0.15170000000000017,-5.453712060979717
-0.15270000000000006,-5.585280211867165
-0.15370000000000017,-5.585280211867165
-0.15470000000000006,-5.585280211867165
-0.15570000000000017,-5.497568111275533
-0.15670000000000006,-5.411270721983764
-0.15770000000000017,-5.367414671687949
-0.15870000000000006,-5.367414671687949
-0.15970000000000018,-5.453712060979717
-0.16070000000000007,-5.5414241615713475
-0.16170000000000018,-5.629136262162981
-0.16270000000000007,-5.585280211867165
-0.16370000000000018,-5.5414241615713475
-0.16470000000000007,-5.497568111275533
-0.16570000000000018,-5.367414671687949
-0.16670000000000007,-5.367414671687949
-0.16770000000000018,-5.453712060979717
-0.16870000000000007,-5.5414241615713475
-0.16970000000000018,-5.629136262162981
-0.17070000000000007,-5.629136262162981
-0.17170000000000019,-5.585280211867165
-0.17270000000000008,-5.497568111275533
-0.1737000000000002,-5.411270721983764
-0.17470000000000008,-5.411270721983764
-0.1757000000000002,-5.453712060979717
-0.17670000000000008,-5.5414241615713475
-0.1777000000000002,-5.629136262162981
-0.17870000000000008,-5.629136262162981
-0.1797000000000002,-5.629136262162981
-0.18070000000000008,-5.5414241615713475
-0.1817000000000002,-5.497568111275533
-0.18270000000000008,-5.453712060979717
-0.1837000000000002,-5.453712060979717
-0.1847000000000001,-5.5414241615713475
-0.1857000000000002,-5.672992312458796
-0.1867000000000001,-5.715433651454749
-0.1877000000000002,-5.715433651454749
-0.1887000000000001,-5.629136262162981
-0.1897000000000002,-5.585280211867165
-0.1907000000000001,-5.497568111275533
-0.1917000000000001,-5.497568111275533
-0.19269999999999998,-5.585280211867165
-0.1937000000000001,-5.672992312458796
-0.19469999999999998,-5.759289701750564
-0.1957000000000001,-5.80314575204638
-0.19669999999999999,-5.715433651454749
-0.1977000000000001,-5.672992312458796
-0.1987,-5.585280211867165
-0.1997000000000001,-5.585280211867165
-0.2007,-5.629136262162981
-0.2017000000000001,-5.715433651454749
-0.2027,-5.847001802342197
-0.2037000000000001,-5.890857852638012
-0.2047,-5.890857852638012
-0.2057000000000001,-5.759289701750564
-0.2067,-5.715433651454749
-0.2077000000000001,-5.672992312458796
-0.2087,-5.715433651454749
-0.2097000000000001,-5.80314575204638
-0.2107,-5.890857852638012
-0.2117000000000001,-5.977155241929781
-0.2127,-5.977155241929781
-0.2137000000000001,-5.890857852638012
-0.2147,-5.847001802342197
-0.2157000000000001,-5.80314575204638
-0.2167,-5.847001802342197
-0.21770000000000012,-5.890857852638012
-0.2187,-6.021011292225596
-0.21970000000000012,-6.108723392817228
-0.2207,-6.108723392817228
-0.22170000000000012,-6.064867342521412
-0.2227,-6.021011292225596
-0.22370000000000012,-5.9347139029338285
-0.2247,-5.9347139029338285
-0.22570000000000012,-6.021011292225596
-0.2267,-6.108723392817228
-0.22770000000000012,-6.238876832404812
-0.22870000000000001,-6.282732882700628
-0.22970000000000013,-6.282732882700628
-0.23070000000000002,-6.238876832404812
-0.23170000000000013,-6.152579443113044
-0.23270000000000002,-6.152579443113044
-0.23370000000000013,-6.196435493408861
-0.23470000000000002,-6.326588932996443
-0.23570000000000013,-6.414301033588076
-0.23670000000000002,-6.500598422879844
-0.2376999999999999,-6.54445447317566
-0.23870000000000002,-6.458157083883892
-0.2396999999999999,-6.414301033588076
-0.24070000000000003,-6.37044498329226
-0.24169999999999991,-6.414301033588076
-0.24270000000000003,-6.500598422879844
-0.24369999999999992,-6.632166573767292
-0.24470000000000003,-6.762320013354876
-0.24569999999999992,-6.806176063650692
-0.24670000000000003,-6.762320013354876
-0.24769999999999992,-6.719878674358924
-0.24870000000000003,-6.6760226240631075
-0.24969999999999992,-6.6760226240631075
-0.25070000000000003,-6.762320013354876
-0.2516999999999999,-6.893888164242324
-0.25270000000000004,-7.024041603829907
-0.2536999999999999,-7.067897654125724
-0.25470000000000004,-7.111753704421539
-0.2556999999999999,-7.024041603829907
-0.25670000000000004,-6.981600264833956
-0.25769999999999993,-7.024041603829907
-0.25870000000000004,-7.067897654125724
-0.25969999999999993,-7.199465805013171
-0.26070000000000004,-7.329619244600755
-0.26169999999999993,-7.461187395488204
-0.26270000000000004,-7.50504344578402
-0.26369999999999993,-7.461187395488204
-0.26470000000000005,-7.461187395488204
-0.26569999999999994,-7.4173313451923875
-0.26670000000000005,-7.461187395488204
-0.26769999999999994,-7.635196885371603
-0.26870000000000005,-7.7653503249591855
-0.26969999999999994,-7.896918475846635
-0.27070000000000005,-7.984630576438266
-0.27169999999999994,-7.984630576438266
-0.27270000000000005,-7.940774526142452
-0.27369999999999994,-7.940774526142452
-0.27470000000000006,-7.984630576438266
-0.27569999999999995,-8.11478401602585
-0.27670000000000006,-8.246352166913299
-0.27769999999999995,-8.4203616567967
-0.27870000000000006,-8.55051509638428
-0.27969999999999995,-8.594371146680096
-0.28070000000000006,-8.55051509638428
-0.28169999999999995,-8.55051509638428
-0.28270000000000006,-8.594371146680096
-0.28369999999999995,-8.68208324727173
-0.28470000000000006,-8.85609273715513
-0.28569999999999995,-9.031516938338395
-0.28670000000000007,-9.205526428221793
-0.28769999999999996,-9.24938247851761
-0.28870000000000007,-9.293238528813426
-0.28969999999999996,-9.293238528813426
-0.29070000000000007,-9.335679867809377
-0.29169999999999996,-9.423391968401008
-0.29270000000000007,-9.59740145828441
-0.29369999999999996,-9.772825659467674
-0.2947000000000001,-9.99069119964689
-0.29569999999999996,-10.078403300238522
-0.2967000000000001,-10.120844639234473
-0.29769999999999996,-10.164700689530287
-0.2987000000000001,-10.164700689530287
-0.29969999999999997,-10.25241279012192
-0.3007000000000001,-10.42642228000532
-0.30169999999999997,-10.644287820184536
-0.3027000000000001,-10.863568071663616
-0.30369999999999997,-10.993721511251199
-0.3047000000000001,-11.081433611842833
-0.30569999999999997,-11.1677310011346
-0.3067000000000001,-11.1677310011346
-0.3077,-11.299299152022046
-0.3087000000000001,-11.42945259160963
-0.3097,-11.647318131788847
-0.3107000000000001,-11.909039722263879
-0.3117,-12.084463923447142
-0.3127000000000001,-12.258473413330542
-0.3137,-12.302329463626359
-0.3147000000000001,-12.390041564217992
-0.3157,-12.476338953509758
-0.3167000000000001,-12.651763154693022
-0.3177,-12.869628694872238
-0.3187000000000001,-13.13135028534727
-0.3197,-13.3930718758223
-0.3207000000000001,-13.567081365705702
-0.3217,-13.698649516593148
-0.3227000000000001,-13.784946905884919
-0.3237,-13.872659006476551
-0.3247000000000001,-14.046668496359947
-0.3257,-14.30273124163552
-0.3267000000000001,-14.57152638860988
-0.3277,-14.826174422585586
-0.3287000000000001,-15.094969569559943
-0.3297,-15.222293586547794
-0.3307000000000001,-15.349617603535648
-0.3317,-15.491088733522153
-0.3327000000000001,-15.660854089505953
-0.3337,-15.87306078448571
-0.3347000000000001,-16.184297270456018
-0.3357,-16.495533756426326
-0.3367000000000001,-16.750181790402035
-0.3377,-17.018976937376394
-0.3387000000000001,-17.103859615368293
-0.3397,-17.231183632356142
-0.3407000000000001,-17.40094898833995
-0.3417,-17.627302796318357
-0.3427000000000001,-17.966833508285966
-0.3437,-18.27806999425627
-0.3447000000000001,-18.631747819222536
-0.3457,-18.88639585319824
-0.3467000000000001,-19.056161209182044
-0.3477,-19.28251501716045
-0.3487000000000001,-19.452280373144255
-0.3497,-19.721075520118614
-0.3507000000000001,-20.06060623208622
-0.3517,-20.414284057052477
-0.3527000000000001,-20.76796188201874
-0.3537,-21.065051254990397
-0.3547000000000001,-21.376287740960702
-0.3557,-21.58849443594046
-0.35670000000000013,-21.772406904922917
-0.3577,-22.027054938898623
-0.35870000000000013,-22.38073276386488
-0.3597,-22.776851927827092
-0.36070000000000013,-23.2012653177866
-0.3617,-23.55494314275286
-0.3626999999999999,-23.908620967719123
-0.3637,-24.16326900169483
-0.3646999999999999,-24.432064148669184
-0.3657,-24.686712182644893
-0.3666999999999999,-25.04039000761115
-0.3677,-25.478950510569312
-0.3686999999999999,-25.91751101352747
-0.36970000000000003,-26.29948306449103
-0.3706999999999999,-26.65316088945729
-0.37170000000000003,-27.00683871442355
-0.3726999999999999,-27.261486748399253
-0.37370000000000003,-27.572723234369565
-0.3746999999999999,-27.912253946337174
-0.37570000000000003,-28.350814449295335
-0.3766999999999999,-28.789374952253496
-0.37770000000000004,-29.27037679420761
-0.3786999999999999,-29.66649595816982
-0.37970000000000004,-30.04846800913338
-0.3806999999999999,-30.359704495103685
-0.38170000000000004,-30.670940981073993
-0.38269999999999993,-31.052913032037555
-0.38370000000000004,-31.449032195999767
-0.38469999999999993,-31.930034037953877
-0.38570000000000004,-32.41103587990799
-0.38669999999999993,-32.892037721862096
-0.38770000000000004,-33.288156885824314
-0.38869999999999993,-33.627687597791926
-0.38970000000000005,-33.98136542275818
-0.39069999999999994,-34.33504324772444
-0.39170000000000005,-34.717015298688004
-0.39269999999999994,-35.282899818634014
-0.39370000000000005,-35.763901660588125
-0.39469999999999994,-36.329786180534136
-0.39570000000000005,-36.768346683492304
-0.39669999999999994,-37.206907186450465
-0.39770000000000005,-37.60302635041268
-0.39869999999999994,-37.99914551437489
-0.39970000000000006,-38.42355890433439
-0.40069999999999995,-38.94700208528445
-0.40170000000000006,-39.51288660523048
-0.40269999999999995,-40.092918238175145
-0.40370000000000006,-40.616361419125205
-0.40469999999999995,-41.083216148080666
-0.40570000000000006,-41.52177665103883
-0.40669999999999995,-41.91789581500104
-0.40770000000000006,-42.39889765695515
-0.40869999999999995,-42.92234083790521
-0.40970000000000006,-43.48822535785123
-0.41069999999999995,-44.096551216793195
-0.41170000000000007,-44.66243573673921
-0.41269999999999996,-45.18587891768927
-0.41370000000000007,-45.624439420647434
-0.41469999999999996,-46.10544126260155
-0.41570000000000007,-46.586443104555656
-0.41669999999999996,-47.10988628550572
-0.41770000000000007,-47.71821214444768
-0.41869999999999996,-48.32653800338966
-0.4197000000000001,-48.97730520132757
-0.42069999999999996,-49.50074838227763
-0.4217000000000001,-49.98175022423175
-0.42269999999999996,-50.46275206618586
-0.4237000000000001,-50.85887123014807
-0.42469999999999997,-51.424755750094086
-0.4257000000000001,-51.990640270040096
-0.42669999999999997,-52.59896612898206
-0.4277000000000001,-53.26388043991864
-0.42869999999999997,-53.82976495986464
-0.4297000000000001,-54.39564947981066
-0.43069999999999997,-54.876651321764776
-0.4317000000000001,-55.31521182472294
-0.4327,-55.838655005673
-0.4337000000000001,-56.44698086461496
-0.4347,-57.097748062552874
-0.4357000000000001,-57.7485152604908
-0.4367,-58.39928245842871
-0.4377000000000001,-58.97931409137338
-0.4387,-59.502757272323436
-0.4397000000000001,-60.02620045327351
-0.4407,-60.59208497321952
-0.4417000000000001,-61.20041083216149
-0.4427,-61.89361936909536
-0.4437000000000001,-62.58682790602922
-0.4447,-63.29418355596174
-0.4457000000000001,-63.944950753899654
-0.4467,-64.55327661284163
-0.4477000000000001,-65.11916113278764
-0.4487,-65.68504565273366
-0.4497000000000001,-66.34995996367022
-0.4507,-67.04316850060408
-0.4517000000000001,-67.7788183765339
-0.4527,-68.52861536546239
-0.4537000000000001,-69.22182390239624
-0.4547,-69.8301497613382
-0.4557000000000001,-70.43847562028017
-0.4567,-71.06094859222078
-0.4577000000000001,-71.66927445116276
-0.4587,-72.36248298809663
-0.4597000000000001,-73.15472131602105
-0.4607,-73.93281253094682
-0.4617000000000001,-74.62602106788069
-0.4627,-75.33337671781321
-0.4637000000000001,-75.8992612377592
-0.4647,-76.50758709670117
-0.4657000000000001,-77.11591295564315
-0.4667,-77.76668015358106
-0.4677000000000001,-78.51647714250953
-0.4687,-79.25212701843935
-0.4697000000000001,-79.94533555537322
-0.4707,-80.61024986630979
-0.4717000000000001,-81.30345840324367
-0.4727,-81.86934292318966
-0.4737000000000001,-82.47766878213164
-0.4747,-83.08599464107361
-0.4757000000000001,-83.83579163000208
-0.4767,-84.57144150593189
-0.4777000000000001,-85.36367983385631
-0.4787,-86.14177104878208
-0.4797000000000001,-86.84912669871461
-0.4807,-87.58477657464444
-0.48170000000000013,-88.19310243358639
-0.4827,-88.9004580835189
-0.48370000000000013,-89.63610795944872
-0.4847,-90.47078762636909
-0.48570000000000013,-91.33376151928677
-0.4867,-90.81031833833671
-0.48570000000000013,-88.71654561453644
-0.4847,-87.10377473269031
-0.48370000000000013,-85.66076920682796
-0.4827,-84.40167614994809
-0.48170000000000013,-83.22746577106011
-0.4807,-82.13813807016405
-0.4797000000000001,-81.09125170826391
-0.4787,-80.08680668535972
-0.4777000000000001,-79.0399203234596
-0.4767,-77.90815128356756
-0.4757000000000001,-76.7622351306769
-0.4747,-75.5880247517889
-0.4737000000000001,-74.41381437290093
-0.4727,-73.32448667200485
-0.4717000000000001,-72.36248298809663
-0.4707,-71.4004793041884
-0.4697000000000001,-70.43847562028017
-0.4687,-69.39158925838004
-0.4677000000000001,-68.34470289647993
-0.4667,-67.25537519558385
-0.4657000000000001,-66.25093017267966
-0.4647,-65.3030736017701
-0.4637000000000001,-64.38351125685783
-0.4627,-63.5063902509415
-0.4617000000000001,-62.58682790602922
-0.4607,-61.6814126741156
