Potential V vs RHE, Current mA cm-2
0.013299999999999867,33.670128936787876
0.012299999999999978,31.74612156897142
0.011299999999999866,29.878702653149578
0.010299999999999976,27.78492992934932
0.009299999999999864,26.030687917516673
0.008299999999999974,24.516946826661083
0.007299999999999862,23.286147995778503
0.006299999999999972,22.15437895588647
0.00529999999999986,21.277257949970153
0.0042999999999999705,20.14548891007812
0.0032999999999998586,18.88639585319824
0.0022999999999999687,17.316066310348052
0.0012999999999998568,15.70329542850191
0.00029999999999996696,13.868414872576954
-0.000700000000000145,12.298085329726765
-0.0017000000000000348,10.989477377351605
-0.0027000000000001467,9.898734965155663
-0.0037000000000000366,8.983416754142983
-0.0047000000000001485,8.284549372009655
-0.005700000000000038,7.32537511070116
-0.00670000000000015,6.1907766482094
-0.00770000000000004,4.795871306542475
-0.008700000000000152,3.2693978139880997
-0.009700000000000042,1.6113561705462767
-0.010700000000000154,0.21588494435940458
-0.011700000000000044,-1.0054353208140816
-0.012700000000000156,-1.92117794521672
-0.013700000000000045,-2.706342716641815
-0.014700000000000157,-3.361354048479327
-0.015700000000000047,-4.1889601589003735
-0.01670000000000016,-5.235846520800501
-0.01770000000000005,-6.500598422879844
-0.01870000000000016,-7.896918475846635
-0.01970000000000005,-9.511104068992642
-0.020700000000000163,-10.819712021367803
-0.021700000000000053,-11.952895772559694
-0.022700000000000164,-12.825772644576423
-0.023700000000000054,-13.523225315409885
-0.024700000000000166,-14.046668496359947
-0.025700000000000056,-14.826174422585586
-0.026700000000000168,-15.78817810649381
-0.027700000000000058,-16.962388485381787
-0.02870000000000017,-18.320511333252224
-0.02970000000000006,-19.848399537106463
-0.03070000000000017,-21.149933932982297
-0.03170000000000006,-22.196820294882425
-0.03270000000000017,-23.031499961802798
-0.03370000000000006,-23.682267159740714
-0.034700000000000175,-24.120827662698876
-0.035700000000000065,-24.814036199632742
-0.03670000000000018,-25.648715866553115
-0.03770000000000007,-26.907808923433
-0.03870000000000018,-28.22349043230748
-0.03970000000000007,-29.708937297165768
-0.04070000000000018,-30.88314767605375
-0.04170000000000007,-31.887592698957924
-0.04270000000000018,-32.62324257488775
-0.04370000000000007,-33.288156885824314
-0.044700000000000184,-33.670128936787876
-0.045700000000000074,-34.377484586720385
-0.046700000000000186,-35.198017140642115
-0.047700000000000076,-36.329786180534136
-0.04870000000000019,-37.60302635041268
-0.04970000000000008,-38.98944342428042
-0.05070000000000019,-40.177800916167044
-0.05170000000000008,-41.083216148080666
-0.05270000000000019,-41.79057179801318
-0.05370000000000008,-42.3564563179592
-0.05470000000000019,-42.752575481921404
-0.05570000000000008,-43.36090134086337
-0.056700000000000195,-44.181433894785094
-0.057700000000000085,-45.27076159568118
-0.058700000000000196,-46.501560426563756
-0.059700000000000086,-47.93041883942744
-0.0607000000000002,-49.076334992318124
-0.06170000000000009,-50.024191563227696
-0.0627000000000002,-50.68910587416426
-0.06370000000000009,-51.25499039411028
-0.0647000000000002,-51.594521106077885
-0.06570000000000009,-52.2169940780185
-0.0667000000000002,-52.995085292944275
-0.0677000000000001,-54.08441299384035
-0.0687000000000002,-55.31521182472294
-0.0697000000000001,-56.65918755959472
-0.07070000000000021,-57.79095659948675
-0.0717000000000001,-58.66807760540307
-0.07270000000000021,-59.31884480334099
-0.0737000000000001,-59.884729323287
-0.07470000000000021,-60.23840714825326
-0.0757000000000001,-60.80429166819927
-0.07670000000000021,-61.63897133511965
-0.0777000000000001,-62.64341635802381
-0.07870000000000021,-63.81762673691181
-0.0797000000000001,-65.20404381077954
-0.08070000000000022,-66.29337151167562
-0.0817000000000001,-67.21293385658788
-0.08270000000000022,-67.86370105452582
-0.08370000000000011,-68.38714423547587
-0.08470000000000022,-68.69838072144618
-0.08570000000000011,-69.26426524139221
-0.08670000000000022,-70.05650356931662
-0.08770000000000011,-71.06094859222078
-0.08870000000000022,-72.23515897110877
-0.08970000000000011,-73.57913470598055
-0.09070000000000022,-74.66846240687663
-0.09170000000000011,-75.5880247517889
-0.09270000000000023,-76.23879194972683
-0.09370000000000012,-76.7622351306769
-0.09470000000000023,-77.11591295564315
-0.09570000000000012,-77.68179747558916
-0.09670000000000023,-78.47403580351359
-0.09770000000000012,-79.52092216541372
-0.09870000000000023,-80.69513254430169
-0.09970000000000012,-81.99666694017753
-0.10070000000000023,-83.04355330207765
-0.10170000000000012,-83.96311564698992
-0.10270000000000024,-84.57144150593189
-0.10370000000000013,-85.052443347886
-0.10470000000000024,-85.40612117285227
-0.10570000000000013,-86.01444703179425
-0.10670000000000024,-86.84912669871461
-0.10770000000000013,-87.93845439961068
-0.10870000000000024,-89.11266477849867
-0.10970000000000013,-90.47078762636909
-0.11070000000000024,-91.56011532726518
-0.11170000000000013,-92.3806478811869
-0.11270000000000002,-93.03141507912481
-0.11370000000000013,-93.55485826007487
-0.11470000000000002,-93.90853608504113
-0.11570000000000014,-94.47442060498715
-0.11670000000000003,-95.26665893291157
-0.11770000000000014,-96.35598663380765
-0.11870000000000003,-97.53019701269562
-0.11970000000000014,-98.88831986056607
-0.12070000000000003,-99.97764756146215
-0.12170000000000014,-100.88306279337576
-0.12270000000000003,-101.44894731332178
-0.12370000000000014,-101.97239049427183
-0.12470000000000003,-102.28362698024215
-0.12570000000000014,-102.80707016119221
-0.12670000000000003,-103.54272003712204
-0.12770000000000015,-104.58960639902216
-0.12870000000000004,-105.69308121291688
-0.12970000000000015,-106.99461560879273
-0.13070000000000004,-108.12638464868475
-0.13170000000000015,-109.00350565460108
-0.13270000000000004,-109.69671419153494
-0.13370000000000015,-110.26259871148096
-0.13470000000000004,-110.6162765364472
-0.13570000000000015,-111.22460239538917
-0.13670000000000004,-112.05928206230955
-0.13770000000000016,-113.06372708521374
-0.13870000000000005,-114.19549612510575
-0.13970000000000016,-115.53947185997755
-0.14070000000000005,-116.67124089986959
-0.14170000000000016,-117.54836190578591
-0.14270000000000005,-118.1991291037238
-0.14370000000000016,-118.76501362366983
-0.14470000000000005,-119.1186914486361
-0.14570000000000016,-119.64213462958614
-0.14670000000000005,-120.43437295751058
-0.14770000000000016,-121.48125931941068
-0.14870000000000005,-122.61302835930273
-0.14970000000000017,-123.87212141618261
-0.15070000000000006,-124.9614491170787
-0.15170000000000017,-125.88101146199097
-0.15270000000000006,-126.5317786599289
-0.15370000000000017,-127.09766317987489
-0.15470000000000006,-127.4937823438371
-0.15570000000000017,-128.144549541775
-0.15670000000000006,-128.9792292086954
-0.15770000000000017,-130.06855690959148
-0.15870000000000006,-131.2003259494835
-0.15970000000000018,-132.41697766736743
-0.16070000000000007,-133.46386402926754
-0.16170000000000018,-134.29854369618792
-0.16270000000000007,-134.9068695551299
-0.16370000000000018,-135.34543005808808
-0.16470000000000007,-135.6991078830543
-0.16570000000000018,-136.30743374199628
-0.16670000000000007,-137.12796629591801
-0.16770000000000018,-138.23144110981272
-0.16870000000000007,-139.49053416669264
-0.16970000000000018,-140.93353969255494
-0.17070000000000007,-142.03701450644968
-0.17170000000000019,-143.0273124163552
-0.17270000000000008,-143.5931969363012
-0.1737000000000002,-144.15908145624724
-0.17470000000000008,-144.44202371622026
-0.1757000000000002,-145.00790823616626
-0.17670000000000008,-145.85673501608528
-0.1777000000000002,-146.8470329259908
-0.17870000000000008,-147.97880196588284
-0.1797000000000002,-149.39351326574788
-0.18070000000000008,-150.38381117565342
-0.1817000000000002,-151.37410908555893
-0.18270000000000008,-151.93999360550492
-0.1837000000000002,-152.50587812545095
-0.1847000000000001,-152.78882038542397
-0.1857000000000002,-153.49617603535648
-0.1867000000000001,-154.3450028152755
-0.1877000000000002,-155.33530072518104
-0.1887000000000001,-156.60854089505958
-0.1897000000000002,-157.88178106493808
-0.1907000000000001,-159.01355010483013
-0.1917000000000001,-160.00384801473567
-0.19269999999999998,-160.5697325346817
-0.1937000000000001,-161.1356170546277
-0.19469999999999998,-161.41855931460069
-0.1957000000000001,-161.9844438345467
-0.19669999999999999,-162.8332706144657
-0.1977000000000001,-163.96503965435775
-0.1987,-165.09680869424977
-0.1997000000000001,-166.51151999411482
-0.2007,-167.6432890340068
-0.2017000000000001,-168.49211581392586
-0.2027,-169.0580003338719
-0.2037000000000001,-169.6238848538179
-0.2047,-170.0482982437774
-0.2057000000000001,-170.61418276372342
-0.2067,-171.32153841365593
-0.2077000000000001,-172.45330745354798
-0.2087,-173.72654762342648
-0.2097000000000001,-175.14125892329156
-0.2107,-176.27302796318358
-0.2117000000000001,-177.1218547431026
-0.2127,-177.82921039303508
-0.2137000000000001,-178.25362378299462
-0.2147,-178.67803717295413
-0.2157000000000001,-179.24392169290016
-0.2167,-179.95127734283267
-0.21770000000000012,-181.08304638272472
-0.2187,-182.21481542261674
-0.21970000000000012,-183.62952672248176
-0.2207,-185.0442380223468
-0.22170000000000012,-186.03453593225234
-0.2227,-186.74189158218485
-0.22370000000000012,-187.44924723211736
-0.2247,-187.73218949209036
-0.22570000000000012,-188.4395451420229
-0.2267,-189.1469007919554
-0.22770000000000012,-190.27866983184742
-0.22870000000000001,-191.41043887173947
-0.22970000000000013,-192.683679041618
-0.23070000000000002,-193.81544808151003
-0.23170000000000013,-194.66427486142905
-0.23270000000000002,-195.23015938137505
-0.23370000000000013,-195.93751503130758
-0.23470000000000002,-196.3619284212671
-0.23570000000000013,-197.0692840711996
-0.23670000000000002,-198.05958198110514
-0.2376999999999999,-199.19135102099716
-0.23870000000000002,-200.4645911908757
-0.2396999999999999,-202.02077362072723
-0.24070000000000003,-203.15254266061928
-0.24169999999999991,-204.14284057052478
-0.24270000000000003,-204.8501962204573
-0.24369999999999992,-205.27460961041683
-0.24470000000000003,-205.55755187038983
-0.24569999999999992,-206.12343639033585
-0.24670000000000003,-206.97226317025488
-0.24769999999999992,-207.96256108016038
-0.24870000000000003,-209.23580125003892
-0.24969999999999992,-210.65051254990397
-0.25070000000000003,-211.782281589796
-0.2516999999999999,-212.631108369715
-0.25270000000000004,-213.33846401964755
-0.2536999999999999,-213.90434853959354
-0.25470000000000004,-214.32876192955305
-0.2556999999999999,-214.75317531951256
-0.25670000000000004,-215.6020020994316
-0.25769999999999993,-216.73377113932364
-0.25870000000000004,-217.86554017921566
-0.25969999999999993,-219.28025147908068
-0.26070000000000004,-220.41202051897272
-0.26169999999999993,-221.40231842887826
-0.26270000000000004,-221.96820294882426
-0.26369999999999993,-222.53408746877028
-0.26470000000000005,-222.9585008587298
-0.26569999999999994,-223.52438537867582
-0.26670000000000005,-224.5146832885813
-0.26769999999999994,-225.64645232847332
-0.26870000000000005,-226.91969249835188
-0.26969999999999994,-228.33440379821695
-0.27070000000000005,-229.46617283810895
-0.27169999999999994,-230.45647074801445
-0.27270000000000005,-231.163826397947
-0.27369999999999994,-231.5882397879065
-0.27470000000000006,-232.15412430785253
-0.27569999999999995,-232.72000882779852
-0.27670000000000006,-233.56883560771757
-0.27769999999999995,-234.84207577759608
-0.27870000000000006,-236.1153159474746
-0.27969999999999995,-237.53002724733966
-0.28070000000000006,-238.66179628723168
-0.28169999999999995,-239.5106230671507
-0.28270000000000006,-240.21797871708318
-0.28369999999999995,-240.78386323702924
-0.28470000000000006,-241.20827662698875
-0.28569999999999995,-241.77416114693477
-0.28670000000000007,-242.76445905684034
-0.28769999999999996,-243.8962280967323
-0.28870000000000007,-245.16946826661086
-0.28969999999999996,-246.5841795664759
-0.29070000000000007,-247.71594860636796
-0.29169999999999996,-248.56477538628693
-0.29270000000000007,-249.13065990623298
-0.29369999999999996,-249.69654442617897
-0.2947000000000001,-249.979486686152
-0.29569999999999996,-250.545371206098
-0.2967000000000001,-251.39419798601702
-0.29769999999999996,-252.52596702590907
-0.2987000000000001,-253.65773606580112
-0.29969999999999997,-255.21391849565262
-0.3007000000000001,-256.4871586655312
-0.30169999999999997,-257.4774565754367
-0.3027000000000001,-258.32628335535566
-0.30369999999999997,-259.0336390052882
-0.3047000000000001,-259.4580523952477
-0.30569999999999997,-260.16540804518024
-0.3067000000000001,-261.1557059550858
-0.3077,-262.2874749949778
-0.3087000000000001,-263.41924403486985
-0.3097,-264.83395533473487
-0.3107000000000001,-265.9657243746269
-0.3117,-266.8145511545459
-0.3127000000000001,-267.5219068044785
-0.3137,-268.22926245441096
-0.3147000000000001,-268.65367584437047
-0.3157,-269.361031494303
-0.3167000000000001,-270.49280053419506
-0.3177,-271.62456957408705
-0.3187000000000001,-272.8978097439656
-0.3197,-274.4539921738171
-0.3207000000000001,-275.7272323436957
-0.3217,-276.7175302536012
-0.3227000000000001,-277.4248859035337
-0.3237,-277.9907704234797
-0.3247000000000001,-278.2737126834527
-0.3257,-278.8395972033987
-0.3267000000000001,-279.82989511330425
-0.3277,-280.9616641531963
-0.3287000000000001,-282.09343319308834
-0.3297,-283.64961562293985
-0.3307000000000001,-284.7813846628319
-0.3317,-285.7716825727374
-0.3327000000000001,-286.6205093526564
-0.3337,-287.327865002589
-0.3347000000000001,-287.7522783925485
-0.3357,-288.45963404248096
-0.3367000000000001,-289.4499319523865
-0.3377,-290.723172122265
-0.3387000000000001,-291.9964122921436
-0.3397,-293.55259472199515
-0.3407000000000001,-294.8258348918736
-0.3417,-295.8161328017792
-0.3427000000000001,-296.52348845171167
-0.3437,-297.23084410164427
-0.3447000000000001,-297.6552574916037
-0.3457,-298.50408427152274
-0.3467000000000001,-299.49438218142825
-0.3477,-300.6261512213203
-0.3487000000000001,-301.8993913911989
-0.3497,-303.4555738210504
-0.3507000000000001,-304.72881399092887
-0.3517,-305.71911190083443
-0.3527000000000001,-306.4264675507669
-0.3537,-307.1338232006995
-0.3547000000000001,-307.55823659065896
-0.3557,-308.2655922405915
-0.35670000000000013,-309.3973612804835
-0.3577,-310.52913032037554
-0.35870000000000013,-311.94384162024056
-0.3597,-313.5000240500921
-0.36070000000000013,-314.77326421997066
-0.3617,-315.76356212987616
-0.3626999999999999,-316.47091777980876
-0.3637,-317.03680229975475
-0.3646999999999999,-317.60268681970075
-0.3657,-318.31004246963323
-0.3666999999999999,-319.15886924955225
-0.3677,-320.2906382894443
-0.3686999999999999,-321.56387845932284
-0.36970000000000003,-323.1200608891744
-0.3706999999999999,-324.5347721890394
-0.37170000000000003,-325.5250700989449
-0.3726999999999999,-326.23242574887746
-0.37370000000000003,-326.93978139880994
-0.3746999999999999,-327.3641947887695
-0.37570000000000003,-328.071550438702
-0.3766999999999999,-328.92037721862107
-0.37770000000000004,-330.05214625851306
-0.3786999999999999,-331.4668575583781
-0.37970000000000004,-333.02303998822964
-0.3806999999999999,-334.43775128809466
-0.38170000000000004,-335.5695203279867
-0.38269999999999993,-336.27687597791925
-0.38370000000000004,-336.84276049786524
-0.38469999999999993,-337.26717388782475
-0.38570000000000004,-337.9745295377573
-0.38669999999999993,-337.83305840777075
-0.38570000000000004,-335.5695203279867
-0.38469999999999993,-333.5889245081757
-0.38370000000000004,-331.74979981835105
-0.38269999999999993,-329.76920399854004
-0.38170000000000004,-327.6471370487425
-0.3806999999999999,-325.3835989689584
-0.37970000000000004,-322.83711862920137
-0.3786999999999999,-320.2906382894443
-0.37770000000000004,-318.02710020966026
-0.3766999999999999,-315.9050332598627
-0.37570000000000003,-314.0659085700381
-0.3746999999999999,-312.2267838802136
-0.37370000000000003,-310.52913032037554
-0.3726999999999999,-308.690005630551
-0.37170000000000003,-306.56793868075346
-0.3706999999999999,-304.1629294709828
-0.36970000000000003,-301.7579202612123
-0.3686999999999999,-299.2114399214552
-0.3677,-296.94790184167124
-0.3666999999999999,-294.96730602186017
-0.3657,-293.26965246202207
-0.3646999999999999,-291.571998902184
-0.3637,-290.157287602319
-0.3626999999999999,-288.45963404248096
-0.3617,-286.47903822266994
-0.36070000000000013,-284.35697127287233
-0.3597,-282.09343319308834
-0.35870000000000013,-279.6884239833177
-0.3577,-277.4248859035337
-0.35670000000000013,-275.30281895373616
-0.3557,-273.60516539389806
-0.3547000000000001,-271.9075118340601
-0.3537,-270.49280053419506
-0.3527000000000001,-268.79514697435695
-0.3517,-266.9560222845325
-0.3507000000000001,-264.9754264647214
-0.3497,-262.8533595149238
-0.3487000000000001,-260.4483503051532
-0.3477,-258.32628335535566
-0.3467000000000001,-256.4871586655312
-0.3457,-254.78950510569314
-0.3447000000000001,-253.09185154585506
-0.3437,-251.81861137597656
-0.3427000000000001,-250.262428946125
-0.3417,-248.42330425630044
-0.3407000000000001,-246.30123730650286
-0.3397,-244.17917035670533
-0.3387000000000001,-241.9156322769213
-0.3377,-239.7935653271237
-0.3367000000000001,-237.9544406372992
-0.3357,-236.3982582074476
-0.3347000000000001,-234.84207577759608
-0.3337,-233.56883560771757
-0.3327000000000001,-232.15412430785253
-0.3317,-230.31499961802797
-0.3307000000000001,-228.33440379821695
-0.3297,-226.21233684841937
-0.3287000000000001,-223.9487987686353
-0.3277,-221.82673181883774
-0.3267000000000001,-220.2705493889862
-0.3257,-218.85583808912116
-0.3247000000000001,-217.58259791924263
-0.3237,-216.3093577493641
-0.3227000000000001,-214.89464644949908
-0.3217,-213.19699288966103
-0.3207000000000001,-211.21639706985
-0.3197,-209.0943301200524
-0.3187000000000001,-206.83079204026836
-0.3177,-204.8501962204573
-0.3167000000000001,-203.15254266061928
-0.3157,-201.59636023076774
-0.3147000000000001,-200.3231200608892
-0.3137,-199.04987989101065
-0.3127000000000001,-197.77663972113214
-0.3117,-196.0789861612941
-0.3107000000000001,-194.09839034148303
-0.3097,-191.9763233916855
-0.3087000000000001,-189.71278531190143
-0.3077,-187.73218949209036
-0.3067000000000001,-185.89306480226583
-0.30569999999999997,-184.19541124242778
-0.3047000000000001,-182.78069994256273
-0.30369999999999997,-181.64893090267074
-0.3027000000000001,-180.8001041227517
-0.30169999999999997,-179.38539282288664
-0.3007000000000001,-177.54626813306209
-0.29969999999999997,-175.56567231325104
-0.2987000000000001,-173.302134233467
-0.29769999999999996,-171.18006728366944
-0.2967000000000001,-169.3409425938449
-0.29569999999999996,-167.6432890340068
-0.2947000000000001,-166.22857773414182
-0.29369999999999996,-165.09680869424977
-0.29270000000000007,-163.82356852437124
-0.29169999999999996,-162.2673860945197
-0.29070000000000007,-160.5697325346817
-0.28969999999999996,-158.5891367148706
-0.28870000000000007,-156.60854089505958
-0.28769999999999996,-154.6279450752485
-0.28670000000000007,-152.93029151541046
-0.28569999999999995,-151.5155802155454
-0.28470000000000006,-150.24234004566688
-0.28369999999999995,-148.96909987578834
-0.28270000000000006,-147.6958597059098
-0.28169999999999995,-145.9982061460718
-0.28070000000000006,-144.15908145624724
-0.27969999999999995,-142.31995676642268
-0.27870000000000006,-140.325213833613
-0.27769999999999995,-138.48608914378846
-0.27670000000000006,-136.95820093993422
-0.27569999999999995,-135.6142252050624
-0.27470000000000006,-134.38342637417986
-0.27369999999999994,-133.29409867328377
-0.27270000000000005,-131.95012293841197
-0.27169999999999994,-130.32320494356716
-0.27070000000000005,-128.5831100447332
-0.26969999999999994,-126.80057380690324
-0.26870000000000005,-124.83412510009084
-0.26769999999999994,-123.09403020125686
