Potential V vs RHE, Current mA cm-2
0.013299999999999867,27.615164573365515
0.012299999999999978,26.738043567449193
0.011299999999999866,26.030687917516673
0.010299999999999976,25.42236205857471
0.009299999999999864,24.771594860636792
0.008299999999999974,24.24815167968673
0.007299999999999862,23.653972933743415
0.006299999999999972,23.031499961802798
0.00529999999999986,22.493909667854084
0.0042999999999999705,22.012907825899973
0.0032999999999998586,21.461170418952605
0.0022999999999999687,20.923580125003895
0.0012999999999998568,20.48501962204573
0.00029999999999996696,20.01816489309027
-0.000700000000000145,19.480574599141555
-0.0017000000000000348,19.056161209182044
-0.0027000000000001467,18.53271802823198
-0.0037000000000000366,18.13659886426977
-0.0047000000000001485,17.655597022315657
-0.005700000000000038,17.174595180361546
-0.00670000000000015,16.778476016399335
-0.00770000000000004,16.396503965435777
-0.008700000000000152,15.929649236480316
-0.009700000000000042,15.505235846520803
-0.010700000000000154,15.080822456561293
-0.011700000000000044,14.741291744593681
-0.012700000000000156,14.316878354634172
-0.013700000000000045,13.915100345472501
-0.014700000000000157,13.473710419914608
-0.015700000000000047,13.118617883648485
-0.01670000000000016,12.747963523083845
-0.01770000000000005,12.341941380022579
-0.01870000000000016,11.962798751658749
-0.01970000000000005,11.6006326588933
-0.020700000000000163,11.242710700027445
-0.021700000000000053,10.879129895962132
-0.022700000000000164,10.467448907701408
-0.023700000000000054,10.1562124217311
-0.024700000000000166,9.809608153264165
-0.025700000000000056,9.416318411901685
-0.026700000000000168,9.09234952423259
-0.027700000000000058,8.742915833165926
-0.02870000000000017,8.393482142099263
-0.02970000000000006,8.121857572525176
-0.03070000000000017,7.766765036259051
-0.03170000000000006,7.410257788693063
-0.03270000000000017,7.053750541127073
-0.03370000000000006,6.7609053020550105
-0.034700000000000175,6.428448146586726
-0.035700000000000065,6.076185032920332
-0.03670000000000018,5.787583927747865
-0.03770000000000007,5.467859173978367
-0.03870000000000018,5.155207976708193
-0.03970000000000007,4.862362737636131
-0.04070000000000018,4.538393849967037
-0.04170000000000007,4.2483780334947046
-0.04270000000000018,3.9300679910250715
-0.04370000000000007,3.630149195453684
-0.044700000000000184,3.3401333789813514
-0.045700000000000074,3.024652759111448
-0.046700000000000186,2.740295787838576
-0.047700000000000076,2.4432064148669186
-0.04870000000000019,2.1546053096944506
-0.04970000000000008,1.8645894932221183
-0.05070000000000019,1.583061944548976
-0.05170000000000008,1.3110129615849295
-0.05270000000000019,1.0027473693443378
-0.05370000000000008,0.7472505085887123
-0.05470000000000019,0.4535564427367308
-0.05570000000000008,0.17599008570321056
-0.056700000000000195,-0.08860336871054725
-0.057700000000000085,-0.386499127123128
-0.058700000000000196,-0.6405812765788885
-0.059700000000000086,-0.9228161809019634
-0.0607000000000002,-1.1846792425069816
-0.06170000000000009,-1.4514937936615278
-0.0627000000000002,-1.7443390327335901
-0.06370000000000009,-1.9791811085111866
-0.0647000000000002,-2.2564645232847336
-0.06570000000000009,-2.5196008250596305
-0.0667000000000002,-2.7586870347368215
-0.0677000000000001,-3.0359704495103688
-0.0687000000000002,-3.27222723658783
-0.0697000000000001,-3.525460559263671
-0.07070000000000021,-3.782938015839108
-0.0717000000000001,-4.024853648116029
-0.07270000000000021,-4.279501682091736
-0.0737000000000001,-4.518587891768927
-0.07470000000000021,-4.783138904843689
-0.0757000000000001,-5.01656626932142
-0.07670000000000021,-5.262726035497936
-0.0777000000000001,-5.524447625972968
-0.07870000000000021,-5.740898454852318
-0.0797000000000001,-5.99130235492843
-0.08070000000000022,-6.226144430706027
-0.0817000000000001,-6.449668816084703
-0.08270000000000022,-6.715634540459329
-0.08370000000000011,-6.9122794111405685
-0.08470000000000022,-7.174001001615601
-0.08570000000000011,-7.413087211292793
-0.08670000000000022,-7.611146793273897
-0.08770000000000011,-7.892674341947039
-0.08870000000000022,-8.092148635228009
-0.08970000000000011,-8.3312348449052
-0.09070000000000022,-8.566076920682798
-0.09170000000000011,-8.766965925263634
-0.09270000000000023,-9.007466846240689
-0.09370000000000012,-9.250797189817476
-0.09470000000000023,-9.44885677179858
-0.09570000000000012,-9.690772404075501
-0.09670000000000023,-9.91571150075404
-0.09770000000000012,-10.12933290703366
-0.09870000000000023,-10.351442581112472
-0.09970000000000012,-10.572137543891419
-0.10070000000000023,-10.780100104971579
-0.10170000000000012,-10.997965645150796
-0.10270000000000024,-11.252613679126501
-0.10370000000000013,-11.464820374106257
-0.10470000000000024,-11.686930048185067
-0.10570000000000013,-11.893477897965363
-0.10670000000000024,-12.104269881645255
-0.10770000000000013,-12.36740618342015
-0.10870000000000024,-12.524439137705171
-0.10970000000000013,-12.787575439480067
-0.11070000000000024,-13.018173381358068
-0.11170000000000013,-13.187938737341872
-0.11270000000000002,-13.466636863415284
-0.11370000000000013,-13.616596261200979
-0.11470000000000002,-13.800508730183433
-0.11570000000000014,-14.065059743258194
-0.11670000000000003,-14.24614278964092
-0.11770000000000014,-14.472496597619326
-0.11870000000000003,-14.69885040559773
-0.11970000000000014,-14.939351326574789
-0.12070000000000003,-15.094969569559943
-0.12170000000000014,-15.278882038542395
-0.12270000000000003,-15.547677185516752
-0.12370000000000014,-15.717442541500558
-0.12470000000000003,-15.943796349478962
-0.12570000000000014,-16.22673860945197
-0.12670000000000003,-16.325768400442524
-0.12770000000000015,-16.55212220842093
-0.12870000000000004,-16.778476016399335
-0.12970000000000015,-16.93409425938449
-0.13070000000000004,-17.20288940635885
-0.13170000000000015,-17.386801875341302
-0.13270000000000004,-17.584861457322408
-0.13370000000000015,-17.782921039303513
-0.13470000000000004,-18.02342196028057
-0.13570000000000015,-18.19318731626437
-0.13670000000000004,-18.362952672248177
-0.13770000000000016,-18.589306480226583
-0.13870000000000005,-18.759071836210385
-0.13970000000000016,-19.070308322180697
-0.14070000000000005,-19.211779452167196
-0.14170000000000016,-19.409839034148305
-0.14270000000000005,-19.65033995512536
-0.14370000000000016,-19.834252424107817
-0.14470000000000005,-20.10304757108217
-0.14570000000000016,-20.21622447507137
-0.14670000000000005,-20.42843117005113
-0.14770000000000016,-20.668932091028186
-0.14870000000000005,-20.89528589900659
-0.14970000000000017,-21.065051254990397
-0.15070000000000006,-21.248963723972853
-0.15170000000000017,-21.47531753195126
-0.15270000000000006,-21.786554017921564
-0.15370000000000017,-21.899730921910766
-0.15470000000000006,-22.055349164895922
-0.15570000000000017,-22.42317410286083
-0.15670000000000006,-22.621233684841933
-0.15770000000000017,-22.734410588831135
-0.15870000000000006,-23.031499961802798
-0.15970000000000018,-23.286147995778503
-0.16070000000000007,-23.385177786769056
-0.16170000000000018,-23.724708498736668
-0.16270000000000007,-23.908620967719123
-0.16370000000000018,-24.134974775697525
-0.16470000000000007,-24.40376992267188
-0.16570000000000018,-24.531093939659737
-0.16670000000000007,-24.828183312631392
-0.16770000000000018,-25.1394197986017
-0.16870000000000007,-25.224302476593607
-0.16970000000000018,-25.648715866553115
-0.17070000000000007,-25.846775448534224
-0.17170000000000019,-26.016540804518023
-0.17270000000000008,-26.440954194477534
-0.1737000000000002,-26.55413109846674
-0.17470000000000008,-26.822926245441096
-0.1757000000000002,-27.14830984441005
-0.17670000000000008,-27.31807520039386
-0.1777000000000002,-27.64345879936282
-0.17870000000000008,-27.855665494342567
-0.1797000000000002,-28.15275486731423
-0.18070000000000008,-28.463991353284538
-0.1817000000000002,-28.647903822266994
-0.18270000000000008,-28.987434534234602
-0.1837000000000002,-29.213788342213007
-0.1847000000000001,-29.609907506175215
-0.1857000000000002,-29.96358533114148
-0.1867000000000001,-30.11920357412663
-0.1877000000000002,-30.47288139909289
-0.1887000000000001,-30.7841178850632
-0.1897000000000002,-31.038765919038905
-0.1907000000000001,-31.321708179011907
-0.1917000000000001,-31.661238890979522
-0.19269999999999998,-32.04321094194308
-0.1937000000000001,-32.269564749921486
-0.19469999999999998,-32.62324257488775
-0.1957000000000001,-33.01936173884996
-0.19669999999999999,-33.21742132083106
-0.1977000000000001,-33.712570275783825
-0.1987,-34.00965964875548
-0.1997000000000001,-34.292601908728486
-0.2007,-34.61798550769744
-0.2017000000000001,-34.99995755866101
-0.2027,-35.56584207860703
-0.2037000000000001,-35.806342999584075
-0.2047,-36.244903502542236
-0.2057000000000001,-36.655169779503105
-0.2067,-36.99470049147071
-0.2077000000000001,-37.51814367242077
-0.2087,-37.645467689408626
-0.2097000000000001,-37.98499840137623
-0.2107,-38.593324260318205
-0.2117000000000001,-38.805530955297954
-0.2127,-39.258238571254765
-0.2137000000000001,-39.654357735216976
-0.2147,-40.220242255162994
-0.2157000000000001,-40.559772967130606
-0.2167,-40.85686234010226
-0.21770000000000012,-41.49348242504152
-0.2187,-41.677394894023976
-0.21970000000000012,-42.37060343095784
-0.2207,-42.89404661190791
-0.22170000000000012,-42.92234083790521
-0.2227,-43.77116761782423
-0.22370000000000012,-44.025815651799945
-0.2247,-44.4926703807554
-0.22570000000000012,-45.32735004767578
-0.2267,-45.32735004767578
-0.22770000000000012,-46.006411471610996
-0.22870000000000001,-46.44497197456916
-0.22970000000000013,-46.85523825153001
-0.23070000000000002,-47.71821214444768
-0.23170000000000013,-47.8879775004315
-0.23270000000000002,-48.32653800338966
-0.23370000000000013,-49.21780612230463
-0.23470000000000002,-49.52904260827494
-0.23570000000000013,-49.84027909424525
-0.23670000000000002,-50.81642989115212
-0.2376999999999999,-51.071077925127824
-0.23870000000000002,-51.75013934906303
-0.2396999999999999,-52.78287859796452
-0.24070000000000003,-52.69799591997262
-0.24169999999999991,-53.362910230909186
-0.24270000000000003,-54.28247257582146
-0.24369999999999992,-54.1551485588336
-0.24470000000000003,-55.06056379074723
-0.24569999999999992,-55.79621366667705
-0.24670000000000003,-56.10745015264736
-0.24769999999999992,-56.956276932566375
-0.24870000000000003,-57.52216145251239
-0.24969999999999992,-58.15878153745166
-0.25070000000000003,-58.78125450939227
-0.2516999999999999,-59.51690438532209
-0.25270000000000004,-60.09693601826676
-0.2536999999999999,-60.56379074722222
-0.25470000000000004,-61.58238288312505
-0.2556999999999999,-61.89361936909536
-0.25670000000000004,-62.37462121104946
-0.25769999999999993,-63.4780960249442
-0.25870000000000004,-63.930803640901004
-0.25969999999999993,-64.53912949984297
-0.26070000000000004,-65.670898539735
-0.26169999999999993,-66.03872347769992
-0.26270000000000004,-66.60460799764593
-0.26369999999999993,-67.7505241505366
-0.26470000000000005,-68.04761352350828
-0.26569999999999994,-68.74082206044213
-0.26670000000000005,-69.8301497613382
-0.26769999999999994,-70.18382758630447
-0.26870000000000005,-70.84874189724104
-0.26969999999999994,-71.8814811461425
-0.27070000000000005,-72.53224834408043
-0.27169999999999994,-73.2537511070116
-0.27270000000000005,-74.11672499992927
-0.27369999999999994,-74.97969889284694
-0.27470000000000006,-75.6729074297808
-0.27569999999999995,-76.66320533968634
-0.27670000000000006,-77.56862057159996
-0.27769999999999995,-78.30427044752979
-0.27870000000000006,-78.64380115949739
-0.27969999999999995,-79.7755701993894
-0.28070000000000006,-80.03021823336512
-0.28169999999999995,-81.03466325626928
-0.28270000000000006,-82.43522744313569
-0.28369999999999995,-82.47766878213164
-0.28470000000000006,-84.03385121198318
-0.28569999999999995,-84.86853087890354
-0.28670000000000007,-84.8826779919022
-0.28769999999999996,-86.31153640476589
-0.28870000000000007,-87.16036318468491
-0.28969999999999996,-87.59892368764307
-0.29070000000000007,-88.68825138853916
-0.29169999999999996,-89.63610795944872
-0.29270000000000007,-90.55567030436099
-0.29369999999999996,-90.99423080731917
-0.2947000000000001,-92.09770562121389
-0.29569999999999996,-93.00312085312751
-0.2967000000000001,-93.55485826007487
-0.29769999999999996,-94.7432157519615
-0.2987000000000001,-95.6344838708765
-0.29969999999999997,-96.41257508580226
-0.3007000000000001,-97.64337391668484
-0.30169999999999997,-98.29414111462276
-0.3027000000000001,-98.66196605258766
-0.30369999999999997,-99.80788220547834
-0.3047000000000001,-100.74159166338926
-0.30569999999999997,-101.29332907033663
-0.3067000000000001,-102.31192120623945
-0.3077,-103.40124890713554
-0.3087000000000001,-103.88225074908964
-0.3097,-104.68863619001272
-0.3107000000000001,-106.11749460287639
-0.3117,-106.3721426368521
-0.3127000000000001,-107.64538280673065
-0.3137,-108.63568071663616
-0.3147000000000001,-108.94691720260647
-0.3157,-110.31918716347556
-0.3167000000000001,-111.06898415240403
-0.3177,-111.3377792993784
-0.3187000000000001,-112.59687235625829
-0.3197,-113.26178666719483
-0.3207000000000001,-113.94084809113006
-0.3217,-114.59161528906797
-0.3227000000000001,-115.65264876396675
-0.3237,-115.99217947593435
-0.3247000000000001,-117.08150717683044
-0.3257,-118.15668776472786
-0.3267000000000001,-118.32645312071166
-0.3277,-119.37333948261178
-0.3287000000000001,-120.30704894052272
-0.3297,-120.68902099148629
-0.3307000000000001,-121.89152559637157
-0.3317,-121.89152559637157
-0.3327000000000001,-123.09403020125686
-0.3337,-123.6740618342015
-0.3347000000000001,-124.26824058014482
-0.3357,-125.00389045607463
-0.3367000000000001,-125.78198167100041
-0.3377,-126.34786619094643
-0.3387000000000001,-127.12595740587219
-0.3397,-127.76257749081147
-0.3407000000000001,-128.01722552478716
-0.3417,-129.04996477368866
-0.3427000000000001,-129.10655322568326
-0.3437,-129.40364259865493
-0.3447000000000001,-130.7476183335267
-0.3457,-130.73347122052803
-0.3467000000000001,-131.86524026042008
-0.3477,-132.71406704033907
-0.3487000000000001,-132.7706554923337
-0.3497,-133.26580444728646
-0.3507000000000001,-134.256102357192
-0.3517,-134.36927926118116
-0.3527000000000001,-134.9917522331218
-0.3537,-136.12352127301384
-0.3547000000000001,-136.13766838601245
-0.3557,-136.74599424495443
-0.35670000000000013,-137.5806739118748
-0.3577,-137.14211340891666
-0.35870000000000013,-137.65140947686808
-0.3597,-138.8397669687547
-0.36070000000000013,-138.96709098574257
-0.3617,-139.10856211572906
-0.3626999999999999,-140.25447826861972
-0.3637,-140.84865701456303
-0.3646999999999999,-140.9193925795563
-0.3657,-141.75407224647665
-0.3666999999999999,-142.17848563643616
-0.3677,-143.0273124163552
-0.3686999999999999,-142.7443701563822
-0.36970000000000003,-143.4517258063147
-0.3706999999999999,-143.87613919627424
-0.37170000000000003,-143.4517258063147
-0.3726999999999999,-144.58349484620675
-0.37370000000000003,-144.58349484620675
-0.3746999999999999,-145.14937936615277
-0.37570000000000003,-145.85673501608528
-0.3766999999999999,-145.7152638860988
-0.37770000000000004,-146.4226195360313
-0.3786999999999999,-146.9885040559773
-0.37970000000000004,-146.8470329259908
-0.3806999999999999,-147.83733083589632
-0.38170000000000004,-147.55438857592333
-0.38269999999999993,-148.12027309586935
-0.38370000000000004,-148.26174422585584
-0.38469999999999993,-148.26174422585584
-0.38570000000000004,-149.25204213576137
-0.38669999999999993,-148.68615761581535
-0.38770000000000004,-149.1105710057749
-0.38869999999999993,-149.6764555257209
-0.38970000000000005,-148.82762874580186
-0.39069999999999994,-149.95939778569388
-0.39170000000000005,-149.95939778569388
-0.39269999999999994,-149.53498439573437
-0.39370000000000005,-150.38381117565342
-0.39469999999999994,-149.8179266557074
-0.39570000000000005,-149.95939778569388
-0.39669999999999994,-150.94969569559944
-0.39770000000000005,-149.95939778569388
-0.39869999999999994,-150.5252823056399
-0.39970000000000006,-150.66675343562642
-0.40069999999999995,-149.8179266557074
-0.40170000000000006,-150.66675343562642
-0.40269999999999995,-150.66675343562642
-0.40370000000000006,-149.6764555257209
-0.40469999999999995,-150.94969569559944
-0.40570000000000006,-150.24234004566688
-0.40669999999999995,-149.8179266557074
-0.40770000000000006,-150.8082245656129
-0.40869999999999995,-149.8179266557074
-0.40970000000000006,-150.1008689156804
-0.41069999999999995,-150.66675343562642
-0.41170000000000007,-149.6764555257209
-0.41269999999999996,-149.53498439573437
-0.41370000000000007,-150.1008689156804
-0.41469999999999996,-149.25204213576137
-0.41570000000000007,-149.39351326574788
-0.41669999999999996,-149.6764555257209
-0.41770000000000007,-148.96909987578834
-0.41869999999999996,-149.53498439573437
-0.4197000000000001,-149.25204213576137
-0.42069999999999996,-148.96909987578834
-0.4217000000000001,-149.1105710057749
-0.42269999999999996,-148.54468648582886
-0.4237000000000001,-148.54468648582886
-0.42469999999999997,-147.97880196588284
-0.4257000000000001,-147.97880196588284
-0.42669999999999997,-148.12027309586935
-0.4277000000000001,-147.27144631595033
-0.42869999999999997,-147.55438857592333
-0.4297000000000001,-147.4129174459368
-0.43069999999999997,-147.4129174459368
-0.4317000000000001,-147.6958597059098
-0.4327,-146.8470329259908
-0.4337000000000001,-147.27144631595033
-0.4347,-146.7055617960043
-0.4357000000000001,-146.5640906660178
-0.4367,-146.4226195360313
-0.4377000000000001,-145.85673501608528
-0.4387,-145.9982061460718
-0.4397000000000001,-145.9982061460718
-0.4407,-145.7152638860988
-0.4417000000000001,-145.43232162612577
-0.4427,-145.57379275611228
-0.4437000000000001,-145.57379275611228
-0.4447,-145.00790823616626
-0.4457000000000001,-145.29085049613926
-0.4467,-145.14937936615277
-0.4477000000000001,-144.72496597619326
-0.4487,-144.58349484620675
-0.4497000000000001,-145.14937936615277
-0.4507,-144.44202371622026
-0.4517000000000001,-144.72496597619326
-0.4527,-144.58349484620675
-0.4537000000000001,-143.87613919627424
-0.4547,-144.72496597619326
-0.4557000000000001,-144.15908145624724
-0.4567,-143.87613919627424
-0.4577000000000001,-144.72496597619326
-0.4587,-144.01761032626072
-0.4597000000000001,-144.30055258623375
-0.4607,-144.15908145624724
-0.4617000000000001,-144.15908145624724
-0.4627,-144.15908145624724
-0.4637000000000001,-144.30055258623375
-0.4647,-144.15908145624724
-0.4657000000000001,-144.30055258623375
-0.4667,-144.58349484620675
-0.4677000000000001,-144.30055258623375
-0.4687,-144.44202371622026
-0.4697000000000001,-144.72496597619326
-0.4707,-145.14937936615277
-0.4717000000000001,-145.00790823616626
-0.4727,-145.29085049613926
-0.4737000000000001,-145.43232162612577
-0.4747,-145.85673501608528
-0.4757000000000001,-145.7152638860988
-0.4767,-145.85673501608528
-0.4777000000000001,-146.8470329259908
-0.4787,-146.28114840604482
-0.4797000000000001,-146.5640906660178
-0.4807,-147.4129174459368
-0.48170000000000013,-147.27144631595033
-0.4827,-147.55438857592333
-0.48370000000000013,-148.54468648582886
-0.4847,-147.83733083589632
-0.48570000000000013,-147.97880196588284
-0.4867,-148.26174422585584
-0.48570000000000013,-145.43232162612577
-0.4847,-143.4517258063147
-0.48370000000000013,-142.31995676642268
-0.4827,-140.6930387715779
-0.48170000000000013,-138.6982958387682
-0.4807,-136.97234805293286
-0.4797000000000001,-135.26054738009617
-0.4787,-134.02974854921356
-0.4777000000000001,-132.23306519838496
-0.4767,-130.13929247458472
-0.4757000000000001,-128.90849364370217
-0.4747,-127.6918419258182
-0.4737000000000001,-125.73954033200447
-0.4727,-124.18335790215292
-0.4717000000000001,-122.8535292802798
-0.4707,-121.49540643240935
-0.4697000000000001,-119.5996932905902
-0.4687,-118.2274233297211
-0.4677000000000001,-116.88344759484934
-0.4667,-115.4687362949843
-0.4657000000000001,-114.36526148108955
-0.4647,-112.61101946925692
