Potential V vs RHE, Current mA cm-2
0.013299999999999867,17.4433903273359
0.012299999999999978,16.396503965435777
0.011299999999999866,15.4769416205235
0.010299999999999976,14.65640906660178
0.009299999999999864,13.868414872576954
0.008299999999999974,13.127106151447675
0.007299999999999862,12.428238769314348
0.006299999999999972,11.730786098480884
0.00529999999999986,11.119630816939189
0.0042999999999999705,10.46603419640154
0.0032999999999998586,9.811022864564029
0.0022999999999999687,9.201282294322198
0.0012999999999998568,8.590127012780503
0.00029999999999996696,8.022827781534623
-0.000700000000000145,7.456943261588608
-0.0017000000000000348,6.845787980046913
-0.0027000000000001467,6.278488748801033
-0.0037000000000000366,5.7111895175551535
-0.0047000000000001485,5.18774633660509
-0.005700000000000038,4.664303155655026
-0.00670000000000015,4.140859974704963
-0.00770000000000004,3.6174167937548987
-0.008700000000000152,3.0939736128048354
-0.009700000000000042,2.6143864821505876
-0.010700000000000154,2.0909433012005243
-0.011700000000000044,1.5675001202504606
-0.012700000000000156,1.0881959318561862
-0.013700000000000045,0.5647527509061226
-0.014700000000000157,0.04140859974704963
-0.015700000000000047,-0.4384190318281749
-0.01670000000000016,-0.9181476336124089
-0.01770000000000005,-1.3980177065266295
-0.01870000000000016,-1.8773218949209036
-0.01970000000000005,-2.3569090255751513
-0.020700000000000163,-2.794054817233447
-0.021700000000000053,-3.273641947887695
-0.022700000000000164,-3.7532290785419424
-0.023700000000000054,-4.1889601589003735
-0.024700000000000166,-4.668547289554621
-0.025700000000000056,-5.105693081212917
-0.026700000000000168,-5.585280211867165
-0.027700000000000058,-6.021011292225596
-0.02870000000000017,-6.458157083883892
-0.02970000000000006,-6.93774421453814
-0.03070000000000017,-7.37347529489657
-0.03170000000000006,-7.7653503249591855
-0.03270000000000017,-8.246352166913299
-0.03370000000000006,-8.638227196975913
-0.034700000000000175,-9.073958277334345
-0.035700000000000065,-9.467248018696827
-0.03670000000000018,-9.902979099055257
-0.03770000000000007,-10.340124890713554
-0.03870000000000018,-10.775855971071984
-0.03970000000000007,-11.211587051430415
-0.04070000000000018,-11.647318131788847
-0.04170000000000007,-12.084463923447142
-0.04270000000000018,-12.476338953509758
-0.04370000000000007,-12.913484745168056
-0.044700000000000184,-13.30535977523067
-0.045700000000000074,-13.741090855589102
-0.046700000000000186,-14.175407224647667
-0.047700000000000076,-14.529085049613924
-0.04870000000000019,-14.925204213576137
-0.04970000000000008,-15.307176264539699
-0.05070000000000019,-15.70329542850191
-0.05170000000000008,-16.141855931460068
-0.05270000000000019,-16.580416434418233
-0.05370000000000008,-17.018976937376394
-0.05470000000000019,-17.40094898833995
-0.05570000000000008,-17.839509491298113
-0.056700000000000195,-18.23562865526032
-0.057700000000000085,-18.631747819222536
-0.058700000000000196,-19.01371987018609
-0.059700000000000086,-19.409839034148305
-0.0607000000000002,-19.848399537106463
-0.06170000000000009,-20.202077362072725
-0.0627000000000002,-20.584049413036283
-0.06370000000000009,-20.980168576998494
-0.0647000000000002,-21.376287740960702
-0.06570000000000009,-21.814848243918867
-0.0667000000000002,-22.196820294882425
-0.0677000000000001,-22.592939458844636
-0.0687000000000002,-23.031499961802798
-0.0697000000000001,-23.427619125765005
-0.07070000000000021,-23.823738289727217
-0.0717000000000001,-24.20571034069078
-0.07270000000000021,-24.601829504652986
-0.0737000000000001,-24.997948668615198
-0.07470000000000021,-25.39406783257741
-0.0757000000000001,-25.77603988354097
-0.07670000000000021,-26.129717708507226
-0.0777000000000001,-26.525836872469437
-0.07870000000000021,-26.907808923433
-0.0797000000000001,-27.303928087395207
-0.08070000000000022,-27.742488590353368
-0.0817000000000001,-28.13860775431558
-0.08270000000000022,-28.577168257273744
-0.08370000000000011,-28.959140308237306
-0.08470000000000022,-29.35525947219951
-0.08570000000000011,-29.751378636161718
-0.08670000000000022,-30.147497800123933
-0.08770000000000011,-30.571911190083444
-0.08870000000000022,-30.968030354045652
-0.08970000000000011,-31.36414951800786
-0.09070000000000022,-31.717827342974125
-0.09170000000000011,-32.14224073293363
-0.09270000000000023,-32.53835989689585
-0.09370000000000012,-32.93447906085806
-0.09470000000000023,-33.330598224820264
-0.09570000000000012,-33.670128936787876
-0.09670000000000023,-34.06624810075008
-0.09770000000000012,-34.41992592571634
-0.09870000000000023,-34.8018979766799
-0.09970000000000012,-35.240458479638065
-0.10070000000000023,-35.679018982596226
-0.10170000000000012,-36.11757948555439
-0.10270000000000024,-36.55613998851254
-0.10370000000000013,-36.95225915247476
-0.10470000000000024,-37.334231203438314
-0.10570000000000013,-37.77279170639648
-0.10670000000000024,-38.211352209354644
-0.10770000000000013,-38.6499127123128
-0.10870000000000024,-39.08847321527096
-0.10970000000000013,-39.42800392723857
-0.11070000000000024,-39.82412309120078
-0.11170000000000013,-40.220242255162994
-0.11270000000000002,-40.616361419125205
-0.11370000000000013,-40.99833347008877
-0.11470000000000002,-41.39445263405098
-0.11570000000000014,-41.83301313700913
-0.11670000000000003,-42.229132300971344
-0.11770000000000014,-42.6111043519349
-0.11870000000000003,-43.007223515897124
-0.11970000000000014,-43.44578401885527
-0.12070000000000003,-43.88434452181344
-0.12170000000000014,-44.3229050247716
-0.12270000000000003,-44.74731841473111
-0.12370000000000014,-45.18587891768927
-0.12470000000000003,-45.624439420647434
-0.12570000000000014,-46.02055858460964
-0.12670000000000003,-46.41667774857186
-0.12770000000000015,-46.79864979953541
-0.12870000000000004,-47.19476896349763
-0.12970000000000015,-47.590888127459834
-0.13070000000000004,-47.987007291422046
-0.13170000000000015,-48.41142068138156
-0.13270000000000004,-48.84998118433972
-0.13370000000000015,-49.33098302629383
-0.13470000000000004,-49.81198486824794
-0.13570000000000015,-50.29298671020206
-0.13670000000000004,-50.68910587416426
-0.13770000000000016,-51.127666377122424
-0.13870000000000005,-51.509638428085985
-0.13970000000000016,-51.990640270040096
-0.14070000000000005,-52.386759434002315
-0.14170000000000016,-52.78287859796452
-0.14270000000000005,-53.16485064892808
-0.14370000000000016,-53.56096981289029
-0.14470000000000005,-53.9570889768525
-0.14570000000000016,-54.39564947981066
-0.14670000000000005,-54.834209982768826
-0.14770000000000016,-55.31521182472294
-0.14870000000000005,-55.73962521468245
-0.14970000000000017,-56.22062705663656
-0.15070000000000006,-56.70162889859067
-0.15170000000000017,-57.182630740544774
-0.15270000000000006,-57.62119124350295
-0.15370000000000017,-58.05975174646111
-0.15470000000000006,-58.498312249419264
-0.15570000000000017,-58.92272563937878
-0.15670000000000006,-59.36128614233694
-0.15770000000000017,-59.757405306299155
-0.15870000000000006,-60.23840714825326
-0.15970000000000018,-60.71940899020737
-0.16070000000000007,-61.15796949316553
-0.16170000000000018,-61.63897133511965
-0.16270000000000007,-62.02094338608321
-0.16370000000000018,-62.459503889041365
-0.16470000000000007,-62.89806439199953
-0.16570000000000018,-63.29418355596174
-0.16670000000000007,-63.732744058919906
-0.16770000000000018,-64.15715744887942
-0.16870000000000007,-64.63815929083353
-0.16970000000000018,-65.0767197937917
-0.17070000000000007,-65.5577216357458
-0.17170000000000019,-66.03872347769992
-0.17270000000000008,-66.56216665864997
-0.1737000000000002,-67.08560983960004
-0.17470000000000008,-67.65149435954605
-0.1757000000000002,-68.13249620150016
-0.17670000000000008,-68.61349804345427
-0.1777000000000002,-69.05205854641244
-0.17870000000000008,-69.57550172736251
-0.1797000000000002,-70.05650356931662
-0.18070000000000008,-70.53750541127073
-0.1817000000000002,-71.10338993121674
-0.18270000000000008,-71.66927445116276
-0.1837000000000002,-72.15027629311687
-0.1847000000000001,-72.63127813507097
-0.1857000000000002,-73.09813286402644
-0.1867000000000001,-73.62157604497652
-0.1877000000000002,-74.10257788693062
-0.1887000000000001,-74.58357972888473
-0.1897000000000002,-75.06458157083884
-0.1907000000000001,-75.5880247517889
-0.1917000000000001,-76.02658525474708
-0.19269999999999998,-76.50758709670117
-0.1937000000000001,-76.98858893865528
-0.19469999999999998,-77.46959078060941
-0.1957000000000001,-77.95059262256353
-0.19669999999999999,-78.47403580351359
-0.1977000000000001,-78.99747898446365
-0.1987,-79.56336350440966
-0.1997000000000001,-80.08680668535972
-0.2007,-80.65269120530574
-0.2017000000000001,-81.21857572525175
-0.2027,-81.69957756720586
-0.2037000000000001,-82.22302074815593
-0.2047,-82.6615812511141
-0.2057000000000001,-83.04355330207765
-0.2067,-83.43967246603985
-0.2077000000000001,-83.87823296899803
-0.2087,-84.35923481095215
-0.2097000000000001,-84.84023665290624
-0.2107,-85.40612117285227
-0.2117000000000001,-86.01444703179425
-0.2127,-86.6227728907362
-0.2137000000000001,-87.18865741068221
-0.2147,-87.79698326962418
-0.2157000000000001,-88.46189758056073
-0.2167,-89.02778210050676
-0.21770000000000012,-89.63610795944872
-0.2187,-90.24443381839069
-0.21970000000000012,-90.81031833833671
-0.2207,-91.33376151928677
-0.22170000000000012,-91.81476336124088
-0.2227,-92.29576520319499
-0.22370000000000012,-92.73432570615316
-0.2247,-93.13044487011537
-0.22570000000000012,-93.61144671206948
-0.2267,-94.13488989301955
-0.22770000000000012,-94.6583330739696
-0.22870000000000001,-95.26665893291157
-0.22970000000000013,-95.83254345285758
-0.23070000000000002,-96.4833106507955
-0.23170000000000013,-97.04919517074151
-0.23270000000000002,-97.69996236867944
-0.23370000000000013,-98.3082882276214
-0.23470000000000002,-98.93076119956201
-0.23570000000000013,-99.53908705850398
-0.23670000000000002,-100.14741291744595
-0.2376999999999999,-100.79818011538387
-0.23870000000000002,-101.40650597432582
-0.2396999999999999,-102.07142028526239
-0.24070000000000003,-102.76462882219626
-0.24169999999999991,-103.41539602013418
-0.24270000000000003,-104.06616321807209
-0.24369999999999992,-104.73107752900866
-0.24470000000000003,-105.33940338795064
-0.24569999999999992,-105.94772924689259
-0.24670000000000003,-106.51361376683862
-0.24769999999999992,-107.12193962578058
-0.24870000000000003,-107.78685393671715
-0.24969999999999992,-108.43762113465506
-0.25070000000000003,-109.00350565460108
-0.2516999999999999,-109.61183151354304
-0.25270000000000004,-110.17771603348905
-0.2536999999999999,-110.70115921443913
-0.25470000000000004,-111.3094850733811
-0.2556999999999999,-111.8753695933271
-0.25670000000000004,-112.54028390426367
-0.25769999999999993,-113.14860976320564
-0.25870000000000004,-113.71449428315165
-0.25969999999999993,-114.36526148108955
-0.26070000000000004,-114.97358734003153
-0.26169999999999993,-115.62435453796945
-0.26270000000000004,-116.20438617091412
-0.26369999999999993,-116.85515336885203
-0.26470000000000005,-117.46347922779398
-0.26569999999999994,-118.02936374774
-0.26670000000000005,-118.63768960668197
-0.26769999999999994,-119.20357412662798
-0.26870000000000005,-119.81189998556997
-0.26969999999999994,-120.39193161851462
-0.27070000000000005,-121.0851401554485
-0.27169999999999994,-121.77834869238235
-0.27270000000000005,-122.52814568131083
-0.27369999999999994,-123.2213542182447
-0.27470000000000006,-123.91456275517855
-0.27569999999999995,-124.62191840511109
-0.27670000000000006,-125.40000962003687
-0.27769999999999995,-126.09321815697072
-0.27870000000000006,-126.84301514589919
-0.27969999999999995,-127.53622368283307
-0.28070000000000006,-128.2294322197669
-0.28169999999999995,-128.89434653070347
-0.28270000000000006,-129.50267238964545
-0.28369999999999995,-130.1534395875834
-0.28470000000000006,-130.7193241075294
-0.28569999999999995,-131.37009130546733
-0.28670000000000007,-132.03500561640385
-0.28769999999999996,-132.72821415333775
-0.28870000000000007,-133.52045248126214
-0.28969999999999996,-134.29854369618792
-0.29070000000000007,-135.1332233631083
-0.29169999999999996,-136.03863859502192
-0.29270000000000007,-136.8733182619423
-0.29369999999999996,-137.79288060685457
-0.2947000000000001,-138.61341316077628
-0.29569999999999996,-139.4056514887007
-0.2967000000000001,-140.0988600256346
-0.29769999999999996,-140.79206856256846
-0.2987000000000001,-141.3155117435185
-0.29969999999999997,-141.89554337646317
-0.3007000000000001,-142.4614278964092
-0.30169999999999997,-143.16878354634173
-0.3027000000000001,-143.87613919627424
-0.30369999999999997,-144.72496597619326
-0.3047000000000001,-145.57379275611228
-0.30569999999999997,-146.5640906660178
-0.3067000000000001,-147.4129174459368
-0.3077,-148.12027309586935
-0.3087000000000001,-148.96909987578834
-0.3097,-149.6764555257209
-0.3107000000000001,-150.5252823056399
-0.3117,-151.23263795557244
-0.3127000000000001,-151.93999360550492
-0.3137,-152.64734925543743
-0.3147000000000001,-153.35470490536997
-0.3157,-154.203531685289
-0.3167000000000001,-154.9108873352215
-0.3177,-155.61824298515404
-0.3187000000000001,-156.32559863508658
-0.3197,-156.89148315503257
-0.3207000000000001,-157.59883880496508
-0.3217,-158.1647233249111
-0.3227000000000001,-158.87207897484362
-0.3237,-159.57943462477613
-0.3247000000000001,-160.28679027470866
-0.3257,-161.2770881846142
-0.3267000000000001,-162.2673860945197
-0.3277,-163.25768400442522
-0.3287000000000001,-164.38945304431726
-0.3297,-165.3797509542228
-0.3307000000000001,-166.51151999411482
-0.3317,-167.50181790402033
-0.3327000000000001,-168.63358694391238
-0.3337,-169.6238848538179
-0.3347000000000001,-170.61418276372342
-0.3357,-171.32153841365593
-0.3367000000000001,-172.17036519357498
-0.3377,-172.87772084350746
-0.3387000000000001,-173.72654762342648
-0.3397,-174.57537440334553
-0.3407000000000001,-175.56567231325104
-0.3417,-176.27302796318358
-0.3427000000000001,-176.8389124831296
-0.3437,-177.54626813306209
-0.3447000000000001,-178.25362378299462
-0.3457,-179.10245056291362
-0.3467000000000001,-180.23421960280567
-0.3477,-181.2245175127112
-0.3487000000000001,-182.21481542261674
-0.3497,-183.06364220253573
-0.3507000000000001,-184.05394011244127
-0.3517,-185.0442380223468
-0.3527000000000001,-185.89306480226583
-0.3537,-186.88336271217133
-0.3547000000000001,-187.87366062207687
-0.3557,-188.72248740199586
-0.35670000000000013,-189.57131418191491
-0.3577,-190.27866983184742
-0.35870000000000013,-191.12749661176645
-0.3597,-191.83485226169896
-0.36070000000000013,-192.54220791163152
-0.3617,-193.249563561564
-0.3626999999999999,-194.09839034148303
-0.3637,-195.08868825138856
-0.3646999999999999,-195.93751503130758
-0.3657,-196.7863418112266
-0.3666999999999999,-197.77663972113214
-0.3677,-198.76693763103765
-0.3686999999999999,-199.75723554094319
-0.36970000000000003,-200.88900458083523
-0.3706999999999999,-202.02077362072723
-0.37170000000000003,-203.29401379060576
-0.3726999999999999,-204.5672539604843
-0.37370000000000003,-205.84049413036286
-0.3746999999999999,-207.25520543022787
-0.37570000000000003,-208.52844560010638
-0.3766999999999999,-209.8016857699849
-0.37770000000000004,-210.93345480987696
-0.3786999999999999,-212.065223849769
-0.37970000000000004,-213.05552175967455
-0.3806999999999999,-214.04581966958003
-0.38170000000000004,-215.03611757948556
-0.38269999999999993,-215.88494435940459
-0.38370000000000004,-216.87524226931012
-0.38469999999999993,-217.86554017921566
-0.38570000000000004,-218.85583808912116
-0.38669999999999993,-219.98760712901318
-0.38770000000000004,-221.26084729889175
-0.38869999999999993,-222.3926163387838
-0.38970000000000005,-223.38291424868927
-0.39069999999999994,-224.37321215859478
-0.39170000000000005,-225.36351006850035
-0.39269999999999994,-226.21233684841937
-0.39370000000000005,-227.06116362833836
-0.39469999999999994,-227.9099904082574
-0.39570000000000005,-228.61734605818995
-0.39669999999999994,-229.46617283810895
-0.39770000000000005,-230.17352848804146
-0.39869999999999994,-230.880884137974
-0.39970000000000006,-231.5882397879065
-0.40069999999999995,-232.43706656782552
-0.40170000000000006,-233.4273644777311
-0.40269999999999995,-234.4176623876366
-0.40370000000000006,-235.40796029754208
-0.40469999999999995,-236.3982582074476
-0.40570000000000006,-237.24708498736666
-0.40669999999999995,-237.9544406372992
-0.40770000000000006,-238.8032674172182
-0.40869999999999995,-239.65209419713722
-0.40970000000000006,-240.64239210704275
-0.41069999999999995,-241.6326900169483
-0.41170000000000007,-242.76445905684034
-0.41269999999999996,-243.75475696674582
-0.41370000000000007,-244.8865260066378
-0.41469999999999996,-245.87682391654337
-0.41570000000000007,-246.7256506964624
-0.41669999999999996,-247.85741973635444
-0.41770000000000007,-248.9891887762465
-0.41869999999999996,-250.1209578161385
-0.4197000000000001,-251.39419798601702
-0.42069999999999996,-252.10155363594956
-0.4217000000000001,-252.95038041586852
-0.42269999999999996,-253.65773606580112
-0.4237000000000001,-254.50656284572008
-0.42469999999999997,-255.21391849565262
-0.4257000000000001,-256.20421640555816
-0.42669999999999997,-257.33598544545015
-0.4277000000000001,-258.4677544853422
-0.42869999999999997,-259.7409946552208
-0.4297000000000001,-261.1557059550858
-0.43069999999999997,-262.42894612496434
-0.4317000000000001,-263.7021862948428
-0.4327,-264.9754264647214
-0.4337000000000001,-266.2486666345999
-0.4347,-267.6633779344649
-0.4357000000000001,-268.93661810434344
-0.4367,-270.0683871442355
-0.4377000000000001,-271.20015618412754
-0.4387,-272.3319252240195
-0.4397000000000001,-273.7466365238846
-0.4407,-275.0198766937631
-0.4417000000000001,-276.29311686364167
-0.4427,-277.4248859035337
-0.4437000000000001,-278.8395972033987
-0.4447,-279.97136624329073
-0.4457000000000001,-280.82019302320975
-0.4467,-281.8104909331153
-0.4477000000000001,-282.65931771303434
-0.4487,-283.64961562293985
-0.4497000000000001,-284.49844240285887
-0.4507,-285.2057980527914
-0.4517000000000001,-286.0546248327104
-0.4527,-286.6205093526564
-0.4537000000000001,-287.327865002589
-0.4547,-288.03522065252145
-0.4557000000000001,-288.8840474324405
-0.4567,-289.59140308237295
-0.4577000000000001,-290.157287602319
-0.4587,-290.86464325225154
-0.4597000000000001,-291.4305277721976
-0.4607,-292.1378834221301
-0.4617000000000001,-292.70376794207607
-0.4627,-293.4111235920086
-0.4637000000000001,-294.2599503719276
-0.4647,-295.25024828183314
-0.4657000000000001,-296.0990750617522
-0.4667,-296.94790184167124
-0.4677000000000001,-297.79672862159026
-0.4687,-298.50408427152274
-0.4697000000000001,-299.06996879146874
-0.4707,-299.6358533114148
-0.4717000000000001,-300.2017378313608
-0.4727,-300.76762235130684
-0.4737000000000001,-301.7579202612123
-0.4747,-302.6067470411313
-0.4757000000000001,-303.5970449510368
-0.4767,-304.4458717309559
-0.4777000000000001,-305.43616964086146
-0.4787,-306.4264675507669
-0.4797000000000001,-307.55823659065896
-0.4807,-308.690005630551
-0.48170000000000013,-309.9632458004295
-0.4827,-311.2364859703081
-0.48370000000000013,-312.36825501020013
-0.4847,-313.35855292010564
-0.48570000000000013,-314.20737970002466
-0.4867,-313.78296631006515
-0.48570000000000013,-311.2364859703081
-0.4847,-308.690005630551
-0.48370000000000013,-306.4264675507669
-0.4827,-304.1629294709828
-0.48170000000000013,-302.18233365117186
-0.4807,-300.2017378313608
-0.4797000000000001,-298.07967088156323
-0.4787,-295.9576039317657
-0.4777000000000001,-293.8355369819681
-0.4767,-291.71347003217056
-0.4757000000000001,-289.87434534234603
-0.4747,-288.176691782508
-0.4737000000000001,-286.196095962697
-0.4727,-284.49844240285887
-0.4717000000000001,-282.65931771303434
-0.4707,-280.82019302320975
-0.4697000000000001,-278.9810683333853
-0.4687,-277.1419436435607
-0.4677000000000001,-275.30281895373616
-0.4667,-273.3222231339251
-0.4657000000000001,-271.20015618412754
-0.4647,-269.07808923433
