Potential V vs RHE, Current mA cm-2
0.013299999999999867,-0.7833256467352708
0.012299999999999978,-1.4939351326574788
0.011299999999999866,-2.0640637865030884
0.010299999999999976,-2.6879514697435702
0.009299999999999864,-3.359939337179462
0.008299999999999974,-4.046074317614004
0.007299999999999862,-4.783138904843689
0.006299999999999972,-5.507471090374587
0.00529999999999986,-6.15399415441291
0.0042999999999999705,-6.7693935698542
0.0032999999999998586,-7.357913470598056
0.0022999999999999687,-7.868624249849334
0.0012999999999998568,-8.315673020606686
0.00029999999999996696,-8.748574678365387
-0.000700000000000145,-9.136205574528407
-0.0017000000000000348,-9.472906863896286
-0.0027000000000001467,-9.81668170976349
-0.0037000000000000366,-10.153382999131368
-0.0047000000000001485,-10.419348723505994
-0.005700000000000038,-10.679655602681162
-0.00670000000000015,-10.952694883555113
-0.00770000000000004,-11.15924273333541
-0.008700000000000152,-11.353058181416921
-0.009700000000000042,-11.582241411995057
-0.010700000000000154,-11.784545127875756
-0.011700000000000044,-11.94016337086091
-0.012700000000000156,-12.12549055114323
-0.013700000000000045,-12.298085329726765
-0.014700000000000157,-12.421165212815023
-0.015700000000000047,-12.548489229802875
-0.01670000000000016,-12.694204493688973
-0.01770000000000005,-12.798893129878989
-0.01870000000000016,-12.902167054769135
-0.01970000000000005,-13.046467607355368
-0.020700000000000163,-13.168132779143761
-0.021700000000000053,-13.258674302335123
-0.022700000000000164,-13.376095340223923
-0.023700000000000054,-13.496345800712449
-0.024700000000000166,-13.575569633504891
-0.025700000000000056,-13.67035529059585
-0.026700000000000168,-13.77787334938559
-0.027700000000000058,-13.838705935279789
-0.02870000000000017,-13.90095323247385
-0.02970000000000006,-13.994324178264941
-0.03070000000000017,-14.073548011057385
-0.03170000000000006,-14.132965885651718
-0.03270000000000017,-14.231995676642269
-0.03370000000000006,-14.316878354634172
-0.034700000000000175,-14.359319693630123
-0.035700000000000065,-14.430055258623375
-0.03670000000000018,-14.529085049613924
-0.03770000000000007,-14.57152638860988
-0.03870000000000018,-14.642261953603128
-0.03970000000000007,-14.727144631595033
-0.04070000000000018,-14.783733083589633
-0.04170000000000007,-14.812027309586934
-0.04270000000000018,-14.868615761581536
-0.04370000000000007,-14.939351326574789
-0.044700000000000184,-14.967645552572087
-0.045700000000000074,-15.03838111756534
-0.046700000000000186,-15.151558021554543
-0.047700000000000076,-15.179852247551842
-0.04870000000000019,-15.222293586547794
-0.04970000000000008,-15.293029151541045
-0.05070000000000019,-15.321323377538347
-0.05170000000000008,-15.349617603535648
-0.05270000000000019,-15.43450028152755
-0.05370000000000008,-15.533530072518102
-0.05470000000000019,-15.575971411514052
-0.05570000000000008,-15.618412750510005
-0.056700000000000195,-15.689148315503255
-0.057700000000000085,-15.717442541500558
-0.058700000000000196,-15.731589654499205
-0.059700000000000086,-15.802325219492458
-0.0607000000000002,-15.858913671487063
-0.06170000000000009,-15.88720789748436
-0.0627000000000002,-15.957943462477614
-0.06370000000000009,-16.02867902747086
-0.0647000000000002,-16.04282614046952
-0.06570000000000009,-16.085267479465468
-0.0667000000000002,-16.141855931460068
-0.0677000000000001,-16.15600304445872
-0.0687000000000002,-16.170150157457368
-0.0697000000000001,-16.22673860945197
-0.07070000000000021,-16.29747417444522
-0.0717000000000001,-16.29747417444522
-0.07270000000000021,-16.368209739438473
-0.0737000000000001,-16.410651078434423
-0.07470000000000021,-16.410651078434423
-0.0757000000000001,-16.453092417430376
-0.07670000000000021,-16.495533756426326
-0.0777000000000001,-16.52382798242363
-0.07870000000000021,-16.56626932141958
-0.0797000000000001,-16.622857773414182
-0.08070000000000022,-16.651151999411482
-0.0817000000000001,-16.651151999411482
-0.08270000000000022,-16.679446225408782
-0.08370000000000011,-16.721887564404735
-0.08470000000000022,-16.764328903400685
-0.08570000000000011,-16.778476016399335
-0.08670000000000022,-16.835064468393938
-0.08770000000000011,-16.849211581392588
-0.08870000000000022,-16.849211581392588
-0.08970000000000011,-16.877505807389888
-0.09070000000000022,-16.90580003338719
-0.09170000000000011,-16.919947146385837
-0.09270000000000023,-16.97653559838044
-0.09370000000000012,-17.00482982437774
-0.09470000000000023,-16.97653559838044
-0.09570000000000012,-16.97653559838044
-0.09670000000000023,-17.03312405037504
-0.09770000000000012,-17.047271163373694
-0.09870000000000023,-17.061418276372343
-0.09970000000000012,-17.146300954364243
-0.10070000000000023,-17.174595180361546
-0.10170000000000012,-17.146300954364243
-0.10270000000000024,-17.174595180361546
-0.10370000000000013,-17.20288940635885
-0.10470000000000024,-17.20288940635885
-0.10570000000000013,-17.217036519357496
-0.10670000000000024,-17.28777208435075
-0.10770000000000013,-17.316066310348052
-0.10870000000000024,-17.301919197349395
-0.10970000000000013,-17.3302134233467
-0.11070000000000024,-17.34436053634535
-0.11170000000000013,-17.316066310348052
-0.11270000000000002,-17.358507649344002
-0.11370000000000013,-17.40094898833995
-0.11470000000000002,-17.4150961013386
-0.11570000000000014,-17.4433903273359
-0.11670000000000003,-17.45753744033455
-0.11770000000000014,-17.4433903273359
-0.11870000000000003,-17.4433903273359
-0.11970000000000014,-17.48583166633185
-0.12070000000000003,-17.514125892329155
-0.12170000000000014,-17.514125892329155
-0.12270000000000003,-17.570714344323754
-0.12370000000000014,-17.613155683319707
-0.12470000000000003,-17.584861457322408
-0.12570000000000014,-17.570714344323754
-0.12670000000000003,-17.599008570321057
-0.12770000000000015,-17.570714344323754
-0.12870000000000004,-17.570714344323754
-0.12970000000000015,-17.613155683319707
-0.13070000000000004,-17.627302796318357
-0.13170000000000015,-17.641449909317007
-0.13270000000000004,-17.669744135314307
-0.13370000000000015,-17.683891248312957
-0.13470000000000004,-17.669744135314307
-0.13570000000000015,-17.669744135314307
-0.13670000000000004,-17.72633258730891
-0.13770000000000016,-17.75462681330621
-0.13870000000000005,-17.75462681330621
-0.13970000000000016,-17.825362378299463
-0.14070000000000005,-17.867803717295413
-0.14170000000000016,-17.853656604296763
-0.14270000000000005,-17.881950830294063
-0.14370000000000016,-17.924392169290012
-0.14470000000000005,-17.910245056291366
-0.14570000000000016,-17.938539282288666
-0.14670000000000005,-17.980980621284615
-0.14770000000000016,-18.009274847281915
-0.14870000000000005,-18.05171618627787
-0.14970000000000017,-18.09415752527382
-0.15070000000000006,-18.09415752527382
-0.15170000000000017,-18.06586329927652
-0.15270000000000006,-18.09415752527382
-0.15370000000000017,-18.15074597726842
-0.15470000000000006,-18.13659886426977
-0.15570000000000017,-18.164893090267068
-0.15670000000000006,-18.23562865526032
-0.15770000000000017,-18.23562865526032
-0.15870000000000006,-18.249775768258974
-0.15970000000000018,-18.292217107254928
-0.16070000000000007,-18.306364220253574
-0.16170000000000018,-18.27806999425627
-0.16270000000000007,-18.263922881257624
-0.16370000000000018,-18.249775768258974
-0.16470000000000007,-18.207334429263025
-0.16570000000000018,-18.207334429263025
-0.16670000000000007,-18.292217107254928
-0.16770000000000018,-18.306364220253574
-0.16870000000000007,-18.292217107254928
-0.16970000000000018,-18.320511333252224
-0.17070000000000007,-18.320511333252224
-0.17170000000000019,-18.27806999425627
-0.17270000000000008,-18.27806999425627
-0.1737000000000002,-18.306364220253574
-0.17470000000000008,-18.320511333252224
-0.1757000000000002,-18.320511333252224
-0.17670000000000008,-18.362952672248177
-0.1777000000000002,-18.348805559249524
-0.17870000000000008,-18.334658446250877
-0.1797000000000002,-18.362952672248177
-0.18070000000000008,-18.419541124242777
-0.1817000000000002,-18.40539401124413
-0.18270000000000008,-18.433688237241427
-0.1837000000000002,-18.433688237241427
-0.1847000000000001,-18.391246898245473
-0.1857000000000002,-18.391246898245473
-0.1867000000000001,-18.40539401124413
-0.1877000000000002,-18.419541124242777
-0.1887000000000001,-18.44783535024008
-0.1897000000000002,-18.47612957623738
-0.1907000000000001,-18.47612957623738
-0.1917000000000001,-18.433688237241427
-0.19269999999999998,-18.461982463238726
-0.1937000000000001,-18.504423802234676
-0.19469999999999998,-18.49027668923603
-0.1957000000000001,-18.53271802823198
-0.19669999999999999,-18.589306480226583
-0.1977000000000001,-18.57515936722793
-0.1987,-18.57515936722793
-0.1997000000000001,-18.589306480226583
-0.2007,-18.603453593225233
-0.2017000000000001,-18.603453593225233
-0.2027,-18.631747819222536
-0.2037000000000001,-18.688336271217132
-0.2047,-18.660042045219836
-0.2057000000000001,-18.674189158218486
-0.2067,-18.716630497214435
-0.2077000000000001,-18.688336271217132
-0.2087,-18.674189158218486
-0.2097000000000001,-18.688336271217132
-0.2107,-18.688336271217132
-0.2117000000000001,-18.660042045219836
-0.2127,-18.674189158218486
-0.2137000000000001,-18.730777610213085
-0.2147,-18.730777610213085
-0.2157000000000001,-18.759071836210385
-0.2167,-18.78736606220769
-0.21770000000000012,-18.77321894920904
-0.2187,-18.77321894920904
-0.21970000000000012,-18.815660288204988
-0.2207,-18.858101627200938
-0.22170000000000012,-18.88639585319824
-0.2227,-18.91469007919554
-0.22370000000000012,-18.94298430519284
-0.2247,-18.91469007919554
-0.22570000000000012,-18.92883719219419
-0.2267,-18.985425644188794
-0.22770000000000012,-18.999572757187444
-0.22870000000000001,-19.027866983184744
-0.22970000000000013,-19.027866983184744
-0.23070000000000002,-19.042014096183394
-0.23170000000000013,-19.01371987018609
-0.23270000000000002,-19.056161209182044
-0.23370000000000013,-19.084455435179343
-0.23470000000000002,-19.098602548177997
-0.23570000000000013,-19.169338113171246
-0.23670000000000002,-19.22592656516585
-0.2376999999999999,-19.211779452167196
-0.23870000000000002,-19.197632339168546
-0.2396999999999999,-19.2400736781645
-0.24070000000000003,-19.25422079116315
-0.24169999999999991,-19.28251501716045
-0.24270000000000003,-19.367397695152352
-0.24369999999999992,-19.466427486142905
-0.24470000000000003,-19.466427486142905
-0.24569999999999992,-19.508868825138855
-0.24670000000000003,-19.579604390132108
-0.24769999999999992,-19.60789861612941
-0.24870000000000003,-19.636192842126707
-0.24969999999999992,-19.721075520118614
-0.25070000000000003,-19.749369746115914
-0.2516999999999999,-19.763516859114564
-0.25270000000000004,-19.805958198110513
-0.2536999999999999,-19.862546650105116
-0.25470000000000004,-19.862546650105116
-0.2556999999999999,-19.890840876102416
-0.25670000000000004,-19.961576441095666
-0.25769999999999993,-19.97572355409432
-0.25870000000000004,-19.97572355409432
-0.25969999999999993,-20.06060623208622
-0.26070000000000004,-20.14548891007812
-0.26169999999999993,-20.187930249074075
-0.26270000000000004,-20.25866581406732
-0.26369999999999993,-20.329401379060574
-0.26470000000000005,-20.357695605057877
-0.26569999999999994,-20.42843117005113
-0.26670000000000005,-20.52746096104168
-0.26769999999999994,-20.598196526034933
-0.26870000000000005,-20.683079204026836
-0.26969999999999994,-20.78210899501739
-0.27070000000000005,-20.838697447011988
-0.27169999999999994,-20.85284456001064
-0.27270000000000005,-20.923580125003895
-0.27369999999999994,-21.022609915994444
-0.27470000000000006,-21.065051254990397
-0.27569999999999995,-21.1782281589796
-0.27670000000000006,-21.277257949970153
-0.27769999999999995,-21.319699288966106
-0.27870000000000006,-21.376287740960702
-0.27969999999999995,-21.489464644949905
-0.28070000000000006,-21.574347322941808
-0.28169999999999995,-21.63093577493641
-0.28270000000000006,-21.772406904922917
-0.28369999999999995,-21.885583808912116
-0.28470000000000006,-21.92802514790807
-0.28569999999999995,-21.99876071290132
-0.28670000000000007,-22.140231842887825
-0.28769999999999996,-22.225114520879725
-0.28870000000000007,-22.324144311870278
-0.28969999999999996,-22.493909667854084
-0.29070000000000007,-22.607086571843286
-0.29169999999999996,-22.67782213683654
-0.29270000000000007,-22.790999040825742
-0.29369999999999996,-22.904175944814945
-0.2947000000000001,-22.989058622806844
-0.29569999999999996,-23.102235526796047
-0.2967000000000001,-23.257853769781203
-0.29769999999999996,-23.399324899767706
-0.2987000000000001,-23.51250180375691
-0.29969999999999997,-23.62567870774611
-0.3007000000000001,-23.724708498736668
-0.30169999999999997,-23.795444063729917
-0.3027000000000001,-23.951062306715073
-0.30369999999999997,-24.092533436701576
-0.3047000000000001,-24.20571034069078
-0.30569999999999997,-24.36132858367593
-0.3067000000000001,-24.559388165657033
-0.3077,-24.67256506964624
-0.3087000000000001,-24.771594860636792
-0.3097,-24.941360216620595
-0.3107000000000001,-25.1394197986017
-0.3117,-25.295038041586857
-0.3127000000000001,-25.46480339757066
-0.3137,-25.648715866553115
-0.3147000000000001,-25.761892770542314
-0.3157,-25.91751101352747
-0.3167000000000001,-26.101423482509926
-0.3177,-26.257041725495082
-0.3187000000000001,-26.398512855481584
-0.3197,-26.568278211465387
-0.3207000000000001,-26.69560222845324
-0.3217,-26.808779132442442
-0.3227000000000001,-27.00683871442355
-0.3237,-27.219045409403304
-0.3247000000000001,-27.37466365238846
-0.3257,-27.558576121370916
-0.3267000000000001,-27.78492992934932
-0.3277,-27.954695285333123
-0.3287000000000001,-28.12446064131693
-0.3297,-28.393255788291288
-0.3307000000000001,-28.577168257273744
-0.3317,-28.718639387260247
-0.3327000000000001,-28.91669896924135
-0.3337,-29.128905664221104
-0.3347000000000001,-29.29867102020491
-0.3357,-29.55331905418062
-0.3367000000000001,-29.864555540150924
-0.3377,-30.06261512213203
-0.3387000000000001,-30.232380478115836
-0.3397,-30.45873428609424
-0.3407000000000001,-30.642646755076694
-0.3417,-30.82655922405915
-0.3427000000000001,-31.067060145036205
-0.3437,-31.350002405009217
-0.3447000000000001,-31.54806198699032
-0.3457,-31.74612156897142
-0.3467000000000001,-31.94418115095253
-0.3477,-32.12809361993498
-0.3487000000000001,-32.340300314914735
-0.3497,-32.6090954618891
-0.3507000000000001,-32.8637434958648
-0.3517,-33.13253864283916
-0.3527000000000001,-33.38718667681487
-0.3537,-33.64183471079057
-0.3547000000000001,-33.839894292771675
-0.3557,-34.09454232674739
-0.35670000000000013,-34.41992592571634
-0.3577,-34.6887210726907
-0.35870000000000013,-34.98581044566235
-0.3597,-35.311194044631314
-0.36070000000000013,-35.53754785260972
-0.3617,-35.74975454758948
-0.3626999999999999,-36.00440258156518
-0.3637,-36.30149195453684
-0.3646999999999999,-36.54199287551389
-0.3657,-36.81078802248826
-0.3666999999999999,-37.122024508458566
-0.3677,-37.39081965543292
-0.3686999999999999,-37.702056141403226
-0.36970000000000003,-38.05573396636949
-0.3706999999999999,-38.35282333934114
-0.37170000000000003,-38.63576559931415
-0.3726999999999999,-38.98944342428042
-0.37370000000000003,-39.314827023249364
-0.3746999999999999,-39.54118083122778
-0.37570000000000003,-39.79582886520348
-0.3766999999999999,-40.07877112517649
-0.37770000000000004,-40.36171338514949
-0.3786999999999999,-40.65880275812115
-0.37970000000000004,-41.083216148080666
-0.3806999999999999,-41.36615840805367
-0.38170000000000004,-41.606659329030734
-0.38269999999999993,-41.91789581500104
-0.38370000000000004,-42.243279413969994
-0.38469999999999993,-42.51207456094435
-0.38570000000000004,-42.85160527291196
-0.38669999999999993,-43.33260711486608
-0.38770000000000004,-43.71457916582963
-0.38869999999999993,-44.03996276479859
-0.38970000000000005,-44.42193481576215
-0.39069999999999994,-44.76146552772976
-0.39170000000000005,-45.07270201370007
-0.39269999999999994,-45.42637983866633
-0.39370000000000005,-45.87908745462314
-0.39469999999999994,-46.2327652795894
-0.39570000000000005,-46.572295991557006
-0.39669999999999994,-46.92597381652327
-0.39770000000000005,-47.22306318949492
-0.39869999999999994,-47.57674101446119
-0.39970000000000006,-47.94456595242609
-0.40069999999999995,-48.36897934238561
-0.40170000000000006,-48.77924561934647
-0.40269999999999995,-49.16121767031002
-0.40370000000000006,-49.514895495276285
-0.40469999999999995,-49.84027909424525
-0.40570000000000006,-50.23639825820745
-0.40669999999999995,-50.68910587416426
-0.40770000000000006,-51.113519264123774
-0.40869999999999995,-51.62281533207519
-0.40970000000000006,-52.08967006103065
-0.41069999999999995,-52.44334788599691
-0.41170000000000007,-52.78287859796452
-0.41269999999999996,-53.17899776192673
-0.41370000000000007,-53.63170537788354
-0.41469999999999996,-54.0419716548444
-0.41570000000000007,-54.466385044803914
-0.41669999999999996,-55.018122451751275
-0.41770000000000007,-55.400094502714836
-0.41869999999999996,-55.73962521468245
-0.4197000000000001,-56.14989149164331
-0.42069999999999996,-56.57430488160282
-0.4217000000000001,-56.998718271562325
-0.42269999999999996,-57.493867226515086
-0.4237000000000001,-57.974869068469204
-0.42469999999999997,-58.498312249419264
-0.4257000000000001,-58.93687275237743
-0.42669999999999997,-59.389580368334244
-0.4277000000000001,-59.78569953229645
-0.42869999999999997,-60.19596580925731
-0.4297000000000001,-60.74770321620468
-0.43069999999999997,-61.27114639715474
-0.4317000000000001,-61.8228838041021
-0.4327,-62.41706255004542
-0.4337000000000001,-63.01124129598873
-0.4347,-63.52053736394014
-0.4357000000000001,-64.0439805448902
-0.4367,-64.52498238684433
-0.4377000000000001,-64.94939577680383
-0.4387,-65.38795627976201
-0.4397000000000001,-65.8972523477134
-0.4407,-66.37825418966752
-0.4417000000000001,-66.88755025761894
-0.4427,-67.52417034255821
-0.4437000000000001,-68.07590774950557
-0.4447,-68.54276247846103
-0.4457000000000001,-69.08035277240974
-0.4467,-69.6886786313517
-0.4477000000000001,-70.21212181230177
-0.4487,-70.74971210625048
-0.4497000000000001,-71.3438908521938
-0.4507,-72.00880516313036
-0.4517000000000001,-72.47565989208583
-0.4527,-72.8859261690467
-0.4537000000000001,-73.23960399401295
-0.4547,-73.55084047998325
-0.4557000000000001,-73.91866541794816
-0.4567,-74.38552014690363
-0.4577000000000001,-74.9089633278537
-0.4587,-75.36167094381051
-0.4597000000000001,-75.80023144676866
-0.4607,-76.19635061073087
-0.4617000000000001,-76.5924697746931
-0.4627,-77.05932450364854
-0.4637000000000001,-77.56862057159996
-0.4647,-78.07791663955136
-0.4657000000000001,-78.72868383748929
-0.4667,-79.25212701843935
-0.4677000000000001,-79.70483463439616
-0.4687,-80.12924802435568
-0.4697000000000001,-80.68098543130303
-0.4707,-81.30345840324367
-0.4717000000000001,-81.96837271418022
-0.4727,-82.71816970310869
-0.4737000000000001,-83.45381957903851
-0.4747,-83.94896853399128
-0.4757000000000001,-84.44411748894404
-0.4767,-85.01000200889004
-0.4777000000000001,-85.56173941583742
-0.4787,-86.12762393578342
-0.4797000000000001,-86.6227728907362
-0.4807,-87.18865741068221
-0.48170000000000013,-87.66965925263632
-0.4827,-88.09407264259583
-0.48370000000000013,-88.5609273715513
-0.4847,-89.01363498750811
-0.48570000000000013,-89.56537239445547
-0.4867,-88.9287523095162
-0.48570000000000013,-87.31598142767007
-0.4847,-86.04274125779153
-0.48370000000000013,-84.72705974891704
-0.4827,-83.46796669203717
-0.48170000000000013,-82.20887363515729
-0.4807,-81.09125170826391
-0.4797000000000001,-80.05851245936242
-0.4787,-79.06821454945691
-0.4777000000000001,-78.21938776953787
-0.4767,-77.39885521561615
-0.4757000000000001,-76.36611596671467
-0.4747,-75.33337671781321
-0.4737000000000001,-74.34307880790767
-0.4727,-73.3669280110008
-0.4717000000000001,-72.46151277908717
-0.4707,-71.6834215641614
-0.4697000000000001,-70.99021302722754
-0.4687,-70.24041603829907
-0.4677000000000001,-69.40573637137871
-0.4667,-68.61349804345427
-0.4657000000000001,-67.82125971552985
-0.4647,-67.04316850060408
