Potential V vs RHE, Current mA cm-2
0.013299999999999867,-1.138135240741422
0.012299999999999978,-1.7075565389370995
0.011299999999999866,-2.201290782589997
0.010299999999999976,-2.5945805239524775
0.009299999999999864,-2.900158164723325
0.008299999999999974,-3.1449032195999767
0.007299999999999862,-3.328815688582431
0.006299999999999972,-3.4660426846693397
0.00529999999999986,-3.590537279057463
0.0042999999999999705,-3.7192760073451816
0.0032999999999998586,-3.8282087774347895
0.0022999999999999687,-3.922994434525747
0.0012999999999998568,-4.003632978618054
0.00029999999999996696,-4.0644655645122505
-0.000700000000000145,-4.143689397304692
-0.0017000000000000348,-4.220083807497405
-0.0027000000000001467,-4.280916393391601
-0.0037000000000000366,-4.3332607114866075
-0.0047000000000001485,-4.391263874781075
-0.005700000000000038,-4.4322905024771595
-0.00670000000000015,-4.505855490070142
-0.00770000000000004,-4.544052695166498
-0.008700000000000152,-4.6020558584609645
-0.009700000000000042,-4.644497197456915
-0.010700000000000154,-4.698256226851787
-0.011700000000000044,-4.744941699747333
-0.012700000000000156,-4.794456595242609
-0.013700000000000045,-4.839727356838291
-0.014700000000000157,-4.879339273234511
-0.015700000000000047,-4.916121767031002
-0.01670000000000016,-4.948660126927899
-0.01770000000000005,-4.986857332024254
-0.01870000000000016,-5.017980980621284
-0.01970000000000005,-5.057592897017507
-0.020700000000000163,-5.088716545614537
-0.021700000000000053,-5.126913750710893
-0.022700000000000164,-5.152378554108464
-0.023700000000000054,-5.18491691400536
-0.024700000000000166,-5.216040562602391
-0.025700000000000056,-5.244334788599692
-0.026700000000000168,-5.2910202614952375
-0.027700000000000058,-5.313655642293078
-0.02870000000000017,-5.347608713489839
-0.02970000000000006,-5.373073516887409
-0.03070000000000017,-5.3900500524857895
-0.03170000000000006,-5.4296619688820105
-0.03270000000000017,-5.449467927080121
-0.03370000000000006,-5.476347441777556
-0.034700000000000175,-5.490494554776207
-0.035700000000000065,-5.513129935574048
-0.03670000000000018,-5.548497718070673
-0.03770000000000007,-5.558400697169729
-0.03870000000000018,-5.585280211867165
-0.03970000000000007,-5.60367145876541
-0.04070000000000018,-5.624892128263387
-0.04170000000000007,-5.648942220361092
-0.04270000000000018,-5.665918755959472
-0.04370000000000007,-5.677236446358393
-0.044700000000000184,-5.6984571158563675
-0.045700000000000074,-5.714018940154883
-0.046700000000000186,-5.7437278774520495
-0.047700000000000076,-5.750801433951374
-0.04870000000000019,-5.7706073921494845
-0.04970000000000008,-5.786169216448
-0.05070000000000019,-5.805975174646111
-0.05170000000000008,-5.821536998944626
-0.05270000000000019,-5.837098823243141
-0.05370000000000008,-5.849831224941926
-0.05470000000000019,-5.852660647541658
-0.05570000000000008,-5.869637183140037
-0.056700000000000195,-5.885199007438552
-0.057700000000000085,-5.893687275237743
-0.058700000000000196,-5.900760831737068
-0.059700000000000086,-5.914907944735719
-0.0607000000000002,-5.927640346434504
-0.06170000000000009,-5.940372748133289
-0.0627000000000002,-5.951690438532209
-0.06370000000000009,-5.958763995031535
-0.0647000000000002,-5.958763995031535
-0.06570000000000009,-5.978569953229646
-0.0667000000000002,-5.98281408712924
-0.0677000000000001,-5.9997906227276205
-0.0687000000000002,-5.99413177752816
-0.0697000000000001,-5.9997906227276205
-0.07070000000000021,-6.023840714825327
-0.0717000000000001,-6.025255426125191
-0.07270000000000021,-6.036573116524112
-0.0737000000000001,-6.035158405224247
-0.07470000000000021,-6.053549652122491
-0.0757000000000001,-6.062037919921682
-0.07670000000000021,-6.070526187720873
-0.0777000000000001,-6.066282053821277
-0.07870000000000021,-6.067696765121143
-0.0797000000000001,-6.066282053821277
-0.08070000000000022,-6.074770321620467
-0.0817000000000001,-6.0917468572188485
-0.08270000000000022,-6.095990991118443
-0.08370000000000011,-6.0917468572188485
-0.08470000000000022,-6.097405702418309
-0.08570000000000011,-6.095990991118443
-0.08670000000000022,-6.103064547617769
-0.08770000000000011,-6.112967526716823
-0.08870000000000022,-6.107308681517363
-0.08970000000000011,-6.110138104117093
-0.09070000000000022,-6.095990991118443
-0.09170000000000011,-6.103064547617769
-0.09270000000000023,-6.1058939702174975
-0.09370000000000012,-6.112967526716823
-0.09470000000000023,-6.112967526716823
-0.09570000000000012,-6.103064547617769
-0.09670000000000023,-6.110138104117093
-0.09770000000000012,-6.122870505815879
-0.09870000000000023,-6.115796949316553
-0.09970000000000012,-6.115796949316553
-0.10070000000000023,-6.110138104117093
-0.10170000000000012,-6.120041083216149
-0.10270000000000024,-6.125699928415609
-0.10370000000000013,-6.129944062315205
-0.10470000000000024,-6.124285217115744
-0.10570000000000013,-6.141261752714124
-0.10670000000000024,-6.134188196214799
-0.10770000000000013,-6.144091175313854
-0.10870000000000024,-6.131358773615069
-0.10970000000000013,-6.114382238016689
-0.11070000000000024,-6.134188196214799
-0.11170000000000013,-6.137017618814529
-0.11270000000000002,-6.137017618814529
-0.11370000000000013,-6.141261752714124
-0.11470000000000002,-6.131358773615069
-0.11570000000000014,-6.138432330114394
-0.11670000000000003,-6.141261752714124
-0.11770000000000014,-6.149750020513314
-0.11870000000000003,-6.149750020513314
-0.11970000000000014,-6.1511647318131795
-0.12070000000000003,-6.15965299961237
-0.12170000000000014,-6.169555978711425
-0.12270000000000003,-6.1709706900112895
-0.12370000000000014,-6.16531184481183
-0.12470000000000003,-6.161067710912235
-0.12570000000000014,-6.175214823910885
-0.12670000000000003,-6.18511780300994
-0.12770000000000015,-6.18511780300994
-0.12870000000000004,-6.182288380410211
-0.12970000000000015,-6.196435493408861
-0.13070000000000004,-6.195020782108996
-0.13170000000000015,-6.214826740307106
-0.13270000000000004,-6.213412029007241
-0.13370000000000015,-6.2233150081062965
-0.13470000000000004,-6.237462121104946
-0.13570000000000015,-6.233217987205351
-0.13670000000000004,-6.253023945403462
-0.13770000000000016,-6.250194522803732
-0.13870000000000005,-6.261512213202653
-0.13970000000000016,-6.262926924502518
-0.14070000000000005,-6.277074037501167
-0.14170000000000016,-6.282732882700628
-0.14270000000000005,-6.291221150499819
-0.14370000000000016,-6.286977016600223
-0.14470000000000005,-6.298294706999143
-0.14570000000000016,-6.3152712425975235
-0.14670000000000005,-6.322344799096849
-0.14770000000000016,-6.342150757294959
-0.14870000000000005,-6.352053736394015
-0.14970000000000017,-6.3676155606925295
-0.15070000000000006,-6.37044498329226
-0.15170000000000017,-6.386006807590776
-0.15270000000000006,-6.398739209289561
-0.15370000000000017,-6.39590978668983
-0.15470000000000006,-6.414301033588076
-0.15570000000000017,-6.418545167487672
-0.15670000000000006,-6.436936414385917
-0.15770000000000017,-6.441180548285512
-0.15870000000000006,-6.442595259585377
-0.15970000000000018,-6.456742372584028
-0.16070000000000007,-6.468060062982947
-0.16170000000000018,-6.499183711579978
-0.16270000000000007,-6.500598422879844
-0.16370000000000018,-6.526063226277413
-0.16470000000000007,-6.514745535878494
-0.16570000000000018,-6.533136782776739
-0.16670000000000007,-6.545869184475525
-0.16770000000000018,-6.569919276573231
-0.16870000000000007,-6.575578121772692
-0.16970000000000018,-6.586895812171611
-0.17070000000000007,-6.599628213870396
-0.17170000000000019,-6.616604749468776
-0.17270000000000008,-6.632166573767292
-0.1737000000000002,-6.642069552866347
-0.17470000000000008,-6.6632902223643224
-0.1757000000000002,-6.670363778863648
-0.17670000000000008,-6.698658004860949
-0.1777000000000002,-6.705731561360274
-0.17870000000000008,-6.725537519558384
-0.1797000000000002,-6.74675818905636
-0.18070000000000008,-6.75241703425582
-0.1817000000000002,-6.775052415053661
-0.18270000000000008,-6.799102507151367
-0.1837000000000002,-6.806176063650692
-0.1847000000000001,-6.831640867048262
-0.1857000000000002,-6.831640867048262
-0.1867000000000001,-6.850032113946507
-0.1877000000000002,-6.862764515645292
-0.1887000000000001,-6.8853998964431335
-0.1897000000000002,-6.90944998854084
-0.1907000000000001,-6.933500080638546
-0.1917000000000001,-6.953306038836654
-0.19269999999999998,-6.970282574435036
-0.1937000000000001,-6.9915032439330105
-0.19469999999999998,-6.997162089132471
-0.1957000000000001,-7.026871026429637
-0.19669999999999999,-7.053750541127073
-0.1977000000000001,-7.066482942825859
-0.1987,-7.103265436622349
-0.1997000000000001,-7.125900817420191
-0.2007,-7.14853619821803
-0.2017000000000001,-7.166927445116276
-0.2027,-7.189562825914116
-0.2037000000000001,-7.219271763211282
-0.2047,-7.253224834408043
-0.2057000000000001,-7.2730307926061535
-0.2067,-7.308398575102779
-0.2077000000000001,-7.3197162655017
-0.2087,-7.3381075123999455
-0.2097000000000001,-7.374890006196437
-0.2107,-7.411672499992927
-0.2117000000000001,-7.438552014690363
-0.2127,-7.465431529387798
-0.2137000000000001,-7.4767492197867185
-0.2147,-7.51353171358321
-0.2157000000000001,-7.560217186478756
-0.2167,-7.588511412476056
-0.21770000000000012,-7.605487948074437
-0.2187,-7.623879194972683
-0.21970000000000012,-7.663491111368903
-0.2207,-7.694614759965935
-0.22170000000000012,-7.729982542462561
-0.2227,-7.754032634560266
-0.22370000000000012,-7.780912149257703
-0.2247,-7.807791663955138
-0.22570000000000012,-7.845988869051494
-0.2267,-7.88701549674758
-0.22770000000000012,-7.92379799054407
-0.22870000000000001,-7.971898174739481
-0.22970000000000013,-7.997362978137053
-0.23070000000000002,-8.035560183233407
-0.23170000000000013,-8.070927965730034
-0.23270000000000002,-8.10912517082639
-0.23370000000000013,-8.14873708722261
-0.23470000000000002,-8.196837271418023
-0.23570000000000013,-8.230790342614783
-0.23670000000000002,-8.28030523811006
-0.2376999999999999,-8.312843598006955
-0.23870000000000002,-8.366602627401825
-0.2396999999999999,-8.400555698598588
-0.24070000000000003,-8.461388284492784
-0.24169999999999991,-8.51656202518752
-0.24270000000000003,-8.570321054582392
-0.24369999999999992,-8.632568351776454
-0.24470000000000003,-8.694815648970515
-0.24569999999999992,-8.776868904362688
-0.24670000000000003,-8.823554377258235
-0.24769999999999992,-8.87023985015378
-0.24870000000000003,-8.915510611749461
-0.24969999999999992,-9.01029626884042
-0.25070000000000003,-9.06405529823529
-0.2516999999999999,-9.134790863228544
-0.25270000000000004,-9.161670377925978
-0.2536999999999999,-9.208355850821524
-0.25470000000000004,-9.276261993215044
-0.2556999999999999,-9.349826980808027
-0.25670000000000004,-9.417733123201549
-0.25769999999999993,-9.508274646392913
-0.25870000000000004,-9.559204253188051
-0.25969999999999993,-9.63701337468063
-0.26070000000000004,-9.720481341372667
-0.26169999999999993,-9.815266998463624
-0.26270000000000004,-9.894490831256066
-0.26369999999999993,-9.975129375348374
-0.26470000000000005,-10.068500321139467
-0.26569999999999994,-10.1562124217311
-0.26670000000000005,-10.265145191820706
-0.26769999999999994,-10.350027869812608
-0.26870000000000005,-10.41793401220613
-0.26969999999999994,-10.518378514496549
-0.27070000000000005,-10.635799552385345
-0.27169999999999994,-10.74897645637455
-0.27270000000000005,-10.856494515164291
-0.27369999999999994,-10.969671419153494
-0.27470000000000006,-11.067286498844181
-0.27569999999999995,-11.198854649731631
-0.27670000000000006,-11.299299152022046
-0.27769999999999995,-11.43794085940882
-0.27870000000000006,-11.55253247469789
-0.27969999999999995,-11.674197646486283
-0.28070000000000006,-11.814254065172921
-0.28169999999999995,-11.935919236961313
-0.28270000000000006,-12.085878634747008
-0.28369999999999995,-12.213202651734862
-0.28470000000000006,-12.363162049520556
-0.28569999999999995,-12.476338953509758
-0.28670000000000007,-12.633371907794778
-0.28769999999999996,-12.784746016880337
-0.28870000000000007,-12.921973012967245
-0.28969999999999996,-13.076176544652533
-0.29070000000000007,-13.24028305543688
-0.29169999999999996,-13.390242453222573
-0.29270000000000007,-13.560007809206377
-0.29369999999999996,-13.717040763491397
-0.2947000000000001,-13.885391408175334
-0.29569999999999996,-14.067889165857926
-0.2967000000000001,-14.217848563643619
-0.29769999999999996,-14.387613919627421
-0.2987000000000001,-14.557379275611227
-0.29969999999999997,-14.741291744593681
-0.3007000000000001,-14.925204213576137
-0.30169999999999997,-15.10911668255859
-0.3027000000000001,-15.363764716534297
-0.30369999999999997,-15.533530072518102
-0.3047000000000001,-15.74573676749786
-0.30569999999999997,-15.91550212348166
-0.3067000000000001,-16.11356170546277
-0.3077,-16.368209739438473
-0.3087000000000001,-16.56626932141958
-0.3097,-16.764328903400685
-0.3107000000000001,-17.018976937376394
-0.3117,-17.20288940635885
-0.3127000000000001,-17.45753744033455
-0.3137,-17.655597022315657
-0.3147000000000001,-17.938539282288666
-0.3157,-18.15074597726842
-0.3167000000000001,-18.433688237241427
-0.3177,-18.674189158218486
-0.3187000000000001,-18.91469007919554
-0.3197,-19.141043887173947
-0.3207000000000001,-19.367397695152352
-0.3217,-19.636192842126707
-0.3227000000000001,-19.876693763103766
-0.3237,-20.17378313607542
-0.3247000000000001,-20.44257828304978
-0.3257,-20.75381476902009
-0.3267000000000001,-21.036757028993097
-0.3277,-21.291405062968803
-0.3287000000000001,-21.560200209943158
-0.3297,-21.814848243918867
-0.3307000000000001,-22.111937616890522
-0.3317,-22.42317410286083
-0.3327000000000001,-22.691969249835186
-0.3337,-23.003205735805498
-0.3347000000000001,-23.314442221775803
-0.3357,-23.597384481748815
-0.3367000000000001,-23.908620967719123
-0.3377,-24.21985745368943
-0.3387000000000001,-24.488652600663784
-0.3397,-24.856477538628695
-0.3407000000000001,-25.153566911600354
-0.3417,-25.549686075562565
-0.3427000000000001,-25.846775448534224
-0.3437,-26.15801193450453
-0.3447000000000001,-26.483395533473487
-0.3457,-26.837073358439746
-0.3467000000000001,-27.233192522401957
-0.3477,-27.572723234369565
-0.3487000000000001,-27.855665494342567
-0.3497,-28.15275486731423
-0.3507000000000001,-28.49228557928184
-0.3517,-28.91669896924135
-0.3527000000000001,-29.25622968120896
-0.3537,-29.55331905418062
-0.3547000000000001,-29.892849766148224
-0.3557,-30.246527591114486
-0.35670000000000013,-30.571911190083444
-0.3577,-30.91144190205105
-0.35870000000000013,-31.27926684001596
-0.3597,-31.703680229975475
-0.36070000000000013,-32.04321094194308
-0.3617,-32.354447427913385
-0.3626999999999999,-32.7505665918756
-0.3637,-33.160832868836465
-0.3646999999999999,-33.627687597791926
-0.3657,-34.02380676175414
-0.3666999999999999,-34.53310282970554
-0.3677,-34.787750863681254
-0.3686999999999999,-34.95751621966506
-0.36970000000000003,-35.282899818634014
-0.3706999999999999,-35.650724756598926
-0.37170000000000003,-36.04684392056114
-0.3726999999999999,-36.40052174552739
-0.37370000000000003,-36.69761111849905
-0.3746999999999999,-37.122024508458566
-0.37570000000000003,-37.46155522042617
-0.3766999999999999,-37.88596861038568
-0.37770000000000004,-38.22549932235329
-0.3786999999999999,-38.678206938310105
-0.37970000000000004,-39.060178989273666
-0.3806999999999999,-39.44215104023723
-0.38170000000000004,-39.83827020419943
-0.38269999999999993,-40.29097782015624
-0.38370000000000004,-40.644655645122505
-0.38469999999999993,-40.92759790509552
-0.38570000000000004,-41.182245939071215
-0.38669999999999993,-41.63495355502803
-0.38770000000000004,-42.087661170984845
-0.38869999999999993,-42.554515899940306
-0.38970000000000005,-42.89404661190791
-0.39069999999999994,-43.23357732387552
-0.39170000000000005,-43.58725514884178
-0.39269999999999994,-43.98337431280399
-0.39370000000000005,-44.43608192876081
-0.39469999999999994,-44.73317130173246
-0.39570000000000005,-45.143437578693316
-0.39669999999999994,-45.44052695166498
-0.39770000000000005,-45.92152879361909
-0.39869999999999994,-46.2610595055867
-0.39970000000000006,-46.713767121543505
-0.40069999999999995,-47.02500360751382
-0.40170000000000006,-47.47771122347063
-0.40269999999999995,-47.80309482243959
-0.40370000000000006,-48.2840966643937
-0.40469999999999995,-48.63777448935996
-0.40570000000000006,-49.076334992318124
-0.40669999999999995,-49.43001281728438
-0.40770000000000006,-49.84027909424525
-0.40869999999999995,-50.26469248420475
-0.40970000000000006,-50.68910587416426
-0.41069999999999995,-51.113519264123774
-0.41170000000000007,-51.410608637095436
-0.41269999999999996,-51.792580688059
-0.41370000000000007,-52.2169940780185
-0.41469999999999996,-52.69799591997262
-0.41570000000000007,-53.065820857937524
-0.41669999999999996,-53.476087134898386
-0.41770000000000007,-53.872206298860604
-0.41869999999999996,-54.18344278483091
-0.4197000000000001,-54.70688596578097
-0.42069999999999996,-55.18788780773508
-0.4217000000000001,-55.68303676268785
-0.42269999999999996,-56.05086170065276
-0.4237000000000001,-56.489422203610914
-0.42469999999999997,-56.75821735058527
-0.4257000000000001,-57.380690322525886
-0.42669999999999997,-57.6919268084962
-0.4277000000000001,-58.24366421544356
-0.42869999999999997,-58.62563626640712
-0.4297000000000001,-59.14907944735718
-0.43069999999999997,-59.587639950315335
-0.4317000000000001,-60.11108313126541
-0.4327,-60.56379074722222
-0.4337000000000001,-61.21455794516014
-0.4347,-61.5965299961237
-0.4357000000000001,-61.95020782108996
-0.4367,-62.28973853305756
-0.4377000000000001,-62.71415192301708
-0.4387,-63.181006651972545
-0.4397000000000001,-63.77518539791585
-0.4407,-64.27033435286862
-0.4417000000000001,-64.72304196882543
-0.4427,-65.00598422879844
-0.4437000000000001,-65.45869184475525
-0.4447,-65.9255465737107
-0.4457000000000001,-66.66119644964053
-0.4467,-67.02902138760544
-0.4477000000000001,-67.48172900356225
-0.4487,-67.90614239352176
-0.4497000000000001,-68.16079042749746
-0.4507,-68.82570473843404
-0.4517000000000001,-69.1793825634003
-0.4527,-69.73111997034766
-0.4537000000000001,-70.05650356931662
-0.4547,-70.56579963726803
-0.4557000000000001,-70.9760659142289
-0.4567,-71.6268331121668
-0.4577000000000001,-71.98051093713306
-0.4587,-72.37663010109527
-0.4597000000000001,-72.70201370006424
-0.4607,-73.21130976801565
-0.4617000000000001,-73.6498702709738
-0.4627,-74.15916633892522
-0.4637000000000001,-74.68260951987529
-0.4647,-75.02214023184291
-0.4657000000000001,-75.60217186478755
-0.4667,-76.05487948074436
-0.4677000000000001,-76.77638224367554
-0.4687,-77.22908985963235
-0.4697000000000001,-77.71009170158646
-0.4707,-78.10621086554868
-0.4717000000000001,-78.54477136850683
-0.4727,-79.11065588845284
-0.4737000000000001,-79.30871547043395
-0.4747,-79.83215865138402
-0.4757000000000001,-80.11510091135703
-0.4767,-80.53951430131653
-0.4777000000000001,-80.96392769127604
-0.4787,-81.3458997422396
-0.4797000000000001,-81.85519581019103
-0.4807,-82.10984384416672
-0.48170000000000013,-82.6615812511141
-0.4827,-83.029406189079
-0.48370000000000013,-83.72261472601286
-0.4847,-84.37338192395079
-0.48570000000000013,-85.29294426886305
-0.4867,-84.50070594093864
-0.48570000000000013,-83.0011119630817
-0.4847,-81.68543045420722
-0.48370000000000013,-80.68098543130303
-0.4827,-79.71898174739482
-0.48170000000000013,-79.06821454945691
-0.4807,-78.30427044752979
-0.4797000000000001,-77.62520902359456
-0.4787,-76.80467646967284
-0.4777000000000001,-76.08317370674168
-0.4767,-75.23434692682265
-0.4757000000000001,-74.62602106788069
-0.4747,-73.93281253094682
-0.4737000000000001,-73.11227997702508
-0.4727,-72.34833587509796
-0.4717000000000001,-71.55609754717355
-0.4707,-70.9760659142289
-0.4697000000000001,-69.99991511732202
-0.4687,-69.30670658038814
-0.4677000000000001,-68.59935093045563
-0.4667,-68.13249620150016
-0.4657000000000001,-67.48172900356225
-0.4647,-66.67534356263918
-0.4637000000000001,-66.03872347769992
-0.4627,-65.62845720073905
-0.4617000000000001,-65.03427845479574
-0.4607,-64.41180548285512
