Potential V vs RHE, Current mA cm-2
0.013299999999999867,-0.6419959878787537
0.012299999999999978,-1.2317891287924876
0.011299999999999866,-1.7599008570321055
0.010299999999999976,-2.33144422217758
0.009299999999999864,-2.945428926319006
0.008299999999999974,-3.473116241168665
0.007299999999999862,-3.9781681752204827
0.006299999999999972,-4.41814338947851
0.00529999999999986,-4.783138904843689
0.0042999999999999705,-5.1212549055114325
0.0032999999999998586,-5.3900500524857895
0.0022999999999999687,-5.661674622059877
0.0012999999999998568,-5.892272563937878
0.00029999999999996696,-6.080429166819927
-0.000700000000000145,-6.278488748801033
-0.0017000000000000348,-6.429862857886591
-0.0027000000000001467,-6.591139946071206
-0.0037000000000000366,-6.711390406559734
-0.0047000000000001485,-6.824567310548938
-0.005700000000000038,-6.950476616236925
-0.00670000000000015,-7.050921118527342
-0.00770000000000004,-7.132974373919516
-0.008700000000000152,-7.2022952276129
-0.009700000000000042,-7.263127813507099
-0.010700000000000154,-7.372060583596706
-0.011700000000000044,-7.434307880790768
-0.012700000000000156,-7.5220199813824
-0.013700000000000045,-7.598414391575112
-0.014700000000000157,-7.680467646967284
-0.015700000000000047,-7.759691479759726
-0.01670000000000016,-7.7978886848560816
-0.01770000000000005,-7.865794827249602
-0.01870000000000016,-7.926627413143801
-0.01970000000000005,-7.987459999037997
-0.020700000000000163,-8.063854409230709
-0.021700000000000053,-8.092148635228009
-0.022700000000000164,-8.164298911521126
-0.023700000000000054,-8.215228518316268
-0.024700000000000166,-8.27181697031087
-0.025700000000000056,-8.34255253530412
-0.026700000000000168,-8.359529070902502
-0.027700000000000058,-8.411873388997508
-0.02870000000000017,-8.45148530539373
-0.02970000000000006,-8.49392664438968
-0.03070000000000017,-8.547685673784551
-0.03170000000000006,-8.55334451898401
-0.03270000000000017,-8.598615280579693
-0.03370000000000006,-8.653789021274429
-0.034700000000000175,-8.686327381171324
-0.035700000000000065,-8.734427565366737
-0.03670000000000018,-8.758477657464443
-0.03770000000000007,-8.800918996460393
-0.03870000000000018,-8.84760446935594
-0.03970000000000007,-8.854678025855264
-0.04070000000000018,-8.89287523095162
-0.04170000000000007,-8.902778210050675
-0.04270000000000018,-8.965025507244738
-0.04370000000000007,-9.003222712341092
-0.044700000000000184,-9.004637423640958
-0.045700000000000074,-9.045664051337045
-0.046700000000000186,-9.072543566034481
-0.047700000000000076,-9.113570193730567
-0.04870000000000019,-9.127717306729215
-0.04970000000000008,-9.127717306729215
-0.05070000000000019,-9.168743934425303
-0.05170000000000008,-9.174402779624762
-0.05270000000000019,-9.209770562121388
-0.05370000000000008,-9.233820654219095
-0.05470000000000019,-9.26070016891653
-0.05570000000000008,-9.290409106213696
-0.056700000000000195,-9.279091415814774
-0.057700000000000085,-9.308800353111941
-0.058700000000000196,-9.341338713008836
-0.059700000000000086,-9.352656403407758
-0.0607000000000002,-9.379535918105192
-0.06170000000000009,-9.375291784205599
-0.0627000000000002,-9.40924485540236
-0.06370000000000009,-9.434709658799928
-0.0647000000000002,-9.433294947500064
-0.06570000000000009,-9.4601744621975
-0.0667000000000002,-9.453100905698175
-0.0677000000000001,-9.48563926559507
-0.0687000000000002,-9.511104068992642
-0.0697000000000001,-9.512518780292506
-0.07070000000000021,-9.53656887239021
-0.0717000000000001,-9.525251181991292
-0.07270000000000021,-9.552130696688728
-0.0737000000000001,-9.573351366186703
-0.07470000000000021,-9.562033675787783
-0.0757000000000001,-9.604475014783732
-0.07670000000000021,-9.59174261308495
-0.0777000000000001,-9.595986746984543
-0.07870000000000021,-9.610133859983193
-0.0797000000000001,-9.600230880884139
-0.08070000000000022,-9.625695684281709
-0.0817000000000001,-9.6341839520809
-0.08270000000000022,-9.672381157177256
-0.08370000000000011,-9.685113558876042
-0.08470000000000022,-9.673795868477121
-0.08570000000000011,-9.697845960574826
-0.08670000000000022,-9.692187115375367
-0.08770000000000011,-9.697845960574826
-0.08870000000000022,-9.710578362273612
-0.08970000000000011,-9.727554897871993
-0.09070000000000022,-9.750190278669832
-0.09170000000000011,-9.745946144770238
-0.09270000000000023,-9.761507969068754
-0.09370000000000012,-9.774240370767538
-0.09470000000000023,-9.760093257768888
-0.09570000000000012,-9.764337391668482
-0.09670000000000023,-9.755849123869291
-0.09770000000000012,-9.784143349866595
-0.09870000000000023,-9.789802195066054
-0.09970000000000012,-9.775655082067402
-0.10070000000000023,-9.795461040265515
-0.10170000000000012,-9.792631617665785
-0.10270000000000024,-9.81385228716376
-0.10370000000000013,-9.815266998463624
-0.10470000000000024,-9.811022864564029
-0.10570000000000013,-9.85346420355998
-0.10670000000000024,-9.84214651316106
-0.10770000000000013,-9.849220069660385
-0.10870000000000024,-9.85629362615971
-0.10970000000000013,-9.8647818939589
-0.11070000000000024,-9.89024669735647
-0.11170000000000013,-9.86761131655863
-0.11270000000000002,-9.87892900695755
-0.11370000000000013,-9.908637944254718
-0.11470000000000002,-9.905808521654986
-0.11570000000000014,-9.931273325052558
-0.11670000000000003,-9.900149676455525
-0.11770000000000014,-9.888831986056605
-0.11870000000000003,-9.89024669735647
-0.11970000000000014,-9.877514295657685
-0.12070000000000003,-9.898734965155663
-0.12170000000000014,-9.894490831256066
-0.12270000000000003,-9.921370345953502
-0.12370000000000014,-9.936932170252017
-0.12470000000000003,-9.922785057253368
-0.12570000000000014,-9.934102747652288
-0.12670000000000003,-9.929858613752693
-0.12770000000000015,-9.932688036352424
-0.12870000000000004,-9.936932170252017
-0.12970000000000015,-9.935517458952152
-0.13070000000000004,-9.968055818849047
-0.13170000000000015,-9.944005726751344
-0.13270000000000004,-9.941176304151613
-0.13370000000000015,-9.960982262349724
-0.13470000000000004,-9.973714664048508
-0.13570000000000015,-9.980788220547833
-0.13670000000000004,-9.962396973649588
-0.13770000000000016,-9.98786177704716
-0.13870000000000005,-9.970885241448778
-0.13970000000000016,-9.924199768553231
-0.14070000000000005,-9.939761592851747
-0.14170000000000016,-9.946835149351072
-0.14270000000000005,-9.959567551049858
-0.14370000000000016,-9.962396973649588
-0.14470000000000005,-9.968055818849047
-0.14570000000000016,-10.01332658044473
-0.14670000000000005,-9.992105910946753
-0.14770000000000016,-9.98786177704716
-0.14870000000000005,-9.99069119964689
-0.14970000000000017,-9.98503235444743
-0.15070000000000006,-10.011911869144866
-0.15170000000000017,-9.983617643147563
-0.15270000000000006,-9.99917946744608
-0.15370000000000017,-10.014741291744594
-0.15470000000000006,-9.99917946744608
-0.15570000000000017,-10.023229559543786
-0.15670000000000006,-10.01615600304446
-0.15770000000000017,-10.035961961242569
-0.15870000000000006,-10.043035517741895
-0.15970000000000018,-10.014741291744594
-0.16070000000000007,-10.03030311604311
-0.16170000000000018,-10.031717827342977
-0.16270000000000007,-10.041620806442031
-0.16370000000000018,-10.044450229041761
-0.16470000000000007,-10.043035517741895
-0.16570000000000018,-10.069915032439331
-0.16670000000000007,-10.064256187239872
-0.16770000000000018,-10.060012053340275
-0.16870000000000007,-10.062841475940006
-0.16970000000000018,-10.058597342040411
-0.17070000000000007,-10.08689156803771
-0.17170000000000019,-10.082647434138115
-0.17270000000000008,-10.081232722838251
-0.1737000000000002,-10.074159166338926
-0.17470000000000008,-10.064256187239872
-0.1757000000000002,-10.101038681036362
-0.17670000000000008,-10.096794547136765
-0.1777000000000002,-10.096794547136765
-0.17870000000000008,-10.098209258436631
-0.1797000000000002,-10.093965124537037
-0.18070000000000008,-10.133577040933258
-0.1817000000000002,-10.112356371435283
-0.18270000000000008,-10.095379835836901
-0.1837000000000002,-10.098209258436631
-0.1847000000000001,-10.115185794035014
-0.1857000000000002,-10.144894731332178
-0.1867000000000001,-10.133577040933258
-0.1877000000000002,-10.153382999131368
-0.1887000000000001,-10.160456555630693
-0.1897000000000002,-10.142065308732448
-0.1907000000000001,-10.174603668629343
-0.1917000000000001,-10.166115400830154
-0.19269999999999998,-10.190165492927859
-0.1937000000000001,-10.18733607032813
-0.19469999999999998,-10.163285978230423
-0.1957000000000001,-10.197239049427184
-0.19669999999999999,-10.21845971892516
-0.1977000000000001,-10.219874430225024
-0.1987,-10.214215585025565
-0.1997000000000001,-10.208556739826104
-0.2007,-10.2693893257203
-0.2017000000000001,-10.265145191820706
-0.2027,-10.26373048052084
-0.2037000000000001,-10.277877593519491
-0.2047,-10.28919528391841
-0.2057000000000001,-10.311830664716252
-0.2067,-10.306171819516793
-0.2077000000000001,-10.327392489014768
-0.2087,-10.374077961910315
-0.2097000000000001,-10.361345560211529
-0.2107,-10.376907384510044
-0.2117000000000001,-10.388225074908965
-0.2127,-10.42925170260505
-0.2137000000000001,-10.432081125204782
-0.2147,-10.427836991305185
-0.2157000000000001,-10.495743133698706
-0.2167,-10.511304957997222
-0.21770000000000012,-10.529696204895469
-0.2187,-10.550916874393444
-0.21970000000000012,-10.565063987392096
-0.2207,-10.60043176988872
-0.22170000000000012,-10.599017058588855
-0.2227,-10.604675903788314
-0.22370000000000012,-10.62023772808683
-0.2247,-10.647117242784265
-0.22570000000000012,-10.688143870480351
-0.2267,-10.686729159180487
-0.22770000000000012,-10.727755786876573
-0.22870000000000001,-10.770197125872524
-0.22970000000000013,-10.787173661470904
-0.23070000000000002,-10.831029711766721
-0.23170000000000013,-10.829615000466857
-0.23270000000000002,-10.873471050762673
-0.23370000000000013,-10.910253544559163
-0.23470000000000002,-10.907424121959433
-0.23570000000000013,-10.942791904456058
-0.23670000000000002,-10.97108613045336
-0.2376999999999999,-10.99655093385093
-0.23870000000000002,-11.043236406746477
-0.2396999999999999,-11.080018900542967
-0.24070000000000003,-11.145095620336757
-0.24169999999999991,-11.162072155935139
-0.24270000000000003,-11.191781093232304
-0.24369999999999992,-11.251198967826637
-0.24470000000000003,-11.254028390426367
-0.24569999999999992,-11.302128574621777
-0.24670000000000003,-11.33891106841827
-0.24769999999999992,-11.38701125261368
-0.24870000000000003,-11.4266231690099
-0.24969999999999992,-11.456332106307068
-0.25070000000000003,-11.534141227799646
-0.2516999999999999,-11.58082670069519
-0.25270000000000004,-11.603462081493031
-0.2536999999999999,-11.655806399588037
-0.25470000000000004,-11.696833027284123
-0.2556999999999999,-11.763324458377781
-0.25670000000000004,-11.785959839175622
-0.25769999999999993,-11.843963002470087
-0.25870000000000004,-11.916113278763204
-0.25969999999999993,-11.962798751658749
-0.26070000000000004,-12.020801914953216
-0.26169999999999993,-12.070316810448494
-0.26270000000000004,-12.13963766414188
-0.26369999999999993,-12.210373229135131
-0.26470000000000005,-12.235838032532703
-0.26569999999999994,-12.309403020125684
-0.26670000000000005,-12.374479739919476
-0.26769999999999994,-12.453703572711918
-0.26870000000000005,-12.515950869905978
-0.26969999999999994,-12.55839220890193
-0.27070000000000005,-12.643274886893833
-0.27169999999999994,-12.714010451887084
-0.27270000000000005,-12.798893129878989
-0.27369999999999994,-12.871043406172104
-0.27470000000000006,-12.91207003386819
-0.27569999999999995,-13.011099824858743
-0.27670000000000006,-13.08607952375159
-0.27769999999999995,-13.175206335643086
-0.27870000000000006,-13.253015457135664
-0.27969999999999995,-13.299700930031209
-0.28070000000000006,-13.395901298422032
-0.28169999999999995,-13.4821986877138
-0.28270000000000006,-13.568496077005566
-0.28369999999999995,-13.646305198498144
-0.28470000000000006,-13.698649516593148
-0.28569999999999995,-13.810411709282489
-0.28670000000000007,-13.932076881070882
-0.28769999999999996,-14.03535080596103
-0.28870000000000007,-14.140039442151041
-0.28969999999999996,-14.217848563643619
-0.29070000000000007,-14.30273124163552
-0.29169999999999996,-14.387613919627421
-0.29270000000000007,-14.514937936615278
-0.29369999999999996,-14.62811484060448
-0.2947000000000001,-14.71299751859638
-0.29569999999999996,-14.840321535584234
-0.2967000000000001,-14.967645552572087
-0.29769999999999996,-15.080822456561293
-0.2987000000000001,-15.179852247551842
-0.29969999999999997,-15.236440699546446
-0.3007000000000001,-15.349617603535648
-0.30169999999999997,-15.491088733522153
-0.3027000000000001,-15.618412750510005
-0.30369999999999997,-15.74573676749786
-0.3047000000000001,-15.844766558488407
-0.30569999999999997,-16.014531914472215
-0.3067000000000001,-16.11356170546277
-0.3077,-16.24088572245062
-0.3087000000000001,-16.410651078434423
-0.3097,-16.52382798242363
-0.3107000000000001,-16.665299112410132
-0.3117,-16.778476016399335
-0.3127000000000001,-16.93409425938449
-0.3137,-17.061418276372343
-0.3147000000000001,-17.160448067362896
-0.3157,-17.3302134233467
-0.3167000000000001,-17.514125892329155
-0.3177,-17.641449909317007
-0.3187000000000001,-17.81121526530081
-0.3197,-17.966833508285966
-0.3207000000000001,-18.164893090267068
-0.3217,-18.320511333252224
-0.3227000000000001,-18.44783535024008
-0.3237,-18.589306480226583
-0.3247000000000001,-18.702483384215785
-0.3257,-18.91469007919554
-0.3267000000000001,-19.070308322180697
-0.3277,-19.22592656516585
-0.3287000000000001,-19.4381332601456
-0.3297,-19.664487068124007
-0.3307000000000001,-19.848399537106463
-0.3317,-20.00401778009162
-0.3327000000000001,-20.187930249074075
-0.3337,-20.400136944053827
-0.3347000000000001,-20.555755187038983
-0.3357,-20.73966765602144
-0.3367000000000001,-20.95187435100119
-0.3377,-21.13578681998365
-0.3387000000000001,-21.319699288966106
-0.3397,-21.531905983945855
-0.3407000000000001,-21.744112678925614
-0.3417,-21.871436695913467
-0.3427000000000001,-22.04120205189727
-0.3437,-22.309997198871628
-0.3447000000000001,-22.564645232847337
-0.3457,-22.776851927827092
-0.3467000000000001,-22.960764396809545
-0.3477,-23.215412430785253
-0.3487000000000001,-23.49835469075826
-0.3497,-23.767149837732617
-0.3507000000000001,-23.96520941971372
-0.3517,-24.120827662698876
-0.3527000000000001,-24.37547569667458
-0.3537,-24.65841795664759
-0.3547000000000001,-24.884771764625995
-0.3557,-25.09697845960575
-0.35670000000000013,-25.295038041586857
-0.3577,-25.563833188561212
-0.35870000000000013,-25.86092256153287
-0.3597,-26.129717708507226
-0.36070000000000013,-26.370218629484285
-0.3617,-26.62486666345999
-0.3626999999999999,-26.95025026242895
-0.3637,-27.261486748399253
-0.3646999999999999,-27.501987669376312
-0.3657,-27.714194364356068
-0.3666999999999999,-27.940548172334477
-0.3677,-28.22349043230748
-0.3686999999999999,-28.53472691827779
-0.36970000000000003,-28.80352206525215
-0.3706999999999999,-29.157199890218404
-0.37170000000000003,-29.42599503719276
-0.3726999999999999,-29.694790184167122
-0.37370000000000003,-30.02017378313608
-0.3746999999999999,-30.303116043109085
-0.37570000000000003,-30.571911190083444
-0.3766999999999999,-30.925589015049702
-0.37770000000000004,-31.250972614018657
-0.3786999999999999,-31.54806198699032
-0.37970000000000004,-31.85929847296063
-0.3806999999999999,-32.21297629792688
-0.38170000000000004,-32.5525070098945
-0.38269999999999993,-32.84959638286615
-0.38370000000000004,-33.14668575583781
-0.38469999999999993,-33.47206935480677
-0.38570000000000004,-33.910629857764924
-0.38669999999999993,-34.221866343735236
-0.38770000000000004,-34.51895571670689
-0.38869999999999993,-34.84433931567585
-0.38970000000000005,-35.254605592636715
-0.39069999999999994,-35.55169496560837
-0.39170000000000005,-35.82049011258273
-0.39269999999999994,-36.18831505054764
-0.39370000000000005,-36.5985813275085
-0.39469999999999994,-36.9381120394761
-0.39570000000000005,-37.334231203438314
-0.39669999999999994,-37.73035036740053
-0.39770000000000005,-38.11232241836409
-0.39869999999999994,-38.46600024333035
-0.39970000000000006,-38.777236729300654
-0.40069999999999995,-39.159208780264215
-0.40170000000000006,-39.52703371822913
-0.40269999999999995,-39.83827020419943
-0.40370000000000006,-40.220242255162994
-0.40469999999999995,-40.743685436113054
-0.40570000000000006,-41.196393052069865
-0.40669999999999995,-41.57836510303343
-0.40770000000000006,-41.96033715399699
-0.40869999999999995,-42.45548610894975
-0.40970000000000006,-42.80916393391601
-0.41069999999999995,-43.16284175888227
-0.41170000000000007,-43.51651958384853
-0.41269999999999996,-43.98337431280399
-0.41370000000000007,-44.36534636376755
-0.41469999999999996,-44.78975975372706
-0.41570000000000007,-45.28490870867982
-0.41669999999999996,-45.79420477663124
-0.41770000000000007,-46.147882601597495
-0.41869999999999996,-46.544001765559706
-0.4197000000000001,-46.96841515551922
-0.42069999999999996,-47.39282854547873
-0.4217000000000001,-47.71821214444768
-0.42269999999999996,-48.18506687340315
-0.4237000000000001,-48.76509850634781
-0.42469999999999997,-49.18951189630732
-0.4257000000000001,-49.52904260827494
-0.42669999999999997,-49.9110146592385
-0.4277000000000001,-50.491046292183164
-0.42869999999999997,-50.92960679514132
-0.4297000000000001,-51.29743173310623
-0.43069999999999997,-51.83502202705494
-0.4317000000000001,-52.45749499899556
-0.4327,-52.86776127595642
-0.4337000000000001,-53.23558621392132
-0.4347,-53.74488228187274
-0.4357000000000001,-54.324913914817415
-0.4367,-54.70688596578097
-0.4377000000000001,-55.10300512974318
-0.4387,-55.65474253669055
-0.4397000000000001,-56.333803960625765
-0.4407,-56.77236446358392
-0.4417000000000001,-57.15433651454749
-0.4427,-57.7485152604908
-0.4437000000000001,-58.32854689343546
-0.4447,-58.68222471840172
-0.4457000000000001,-59.14907944735718
-0.4467,-59.7998466452951
-0.4477000000000001,-60.47890806923032
-0.4487,-60.91746857218848
-0.4497000000000001,-61.27114639715474
-0.4507,-61.6814126741156
-0.4517000000000001,-62.24729719406162
-0.4527,-62.78488748801033
-0.4537000000000001,-63.22344799096849
-0.4547,-63.56297870293609
-0.4557000000000001,-64.05812765788886
-0.4567,-64.69474774282813
-0.4577000000000001,-65.28892648877145
-0.4587,-65.7557812177269
-0.4597000000000001,-66.22263594668237
-0.4607,-66.84510891862298
-0.4617000000000001,-67.24122808258521
-0.4627,-67.73637703753796
-0.4637000000000001,-68.27396733148667
-0.4647,-68.62764515645293
-0.4657000000000001,-69.0944998854084
-0.4667,-69.6603844053544
-0.4677000000000001,-70.29700449029367
-0.4687,-70.66482942825859
-0.4697000000000001,-71.08924281821808
-0.4707,-71.69756867716005
-0.4717000000000001,-72.24930608410743
-0.4727,-72.61713102207234
-0.4737000000000001,-73.12642709002374
-0.4747,-73.80548851395896
-0.4757000000000001,-74.41381437290093
-0.4767,-74.8523748758591
-0.4777000000000001,-75.40411228280645
-0.4787,-76.0407323677457
-0.4797000000000001,-76.55002843569714
-0.4807,-77.0168831646526
-0.48170000000000013,-77.63935613659322
-0.4827,-78.34671178652573
-0.48370000000000013,-78.96918475846634
-0.4847,-79.4643337134191
-0.48570000000000013,-80.14339513735433
-0.4867,-79.69068752139752
-0.48570000000000013,-78.26182910853383
-0.4847,-77.03103027765125
-0.48370000000000013,-76.01243814174842
-0.4827,-75.220199813824
-0.48170000000000013,-74.42796148589959
-0.4807,-73.52254625398596
-0.4797000000000001,-72.75860215205884
-0.4787,-72.03709938912766
-0.4777000000000001,-71.4004793041884
-0.4767,-70.57994675026669
-0.4757000000000001,-69.8018555353409
-0.4747,-69.1227941114057
-0.4737000000000001,-68.48617402646643
-0.4727,-67.9485837325177
-0.4717000000000001,-67.21293385658788
-0.4707,-66.43484264166212
-0.4697000000000001,-65.79822255672285
-0.4687,-65.20404381077954
-0.4677000000000001,-64.66645351683083
-0.4667,-63.95909786689831
-0.4657000000000001,-63.23759510396713
-0.4647,-62.71415192301708
-0.4637000000000001,-62.10582606407511
-0.4627,-61.5116473181318
-0.4617000000000001,-60.94576279818578
