Potential V vs RHE, Current mA cm-2
0.4132999999999999,0.003945629815323587
0.4122999999999999,0.0025719451431546365
0.4112999999999999,0.002233829142486893
0.4102999999999999,0.0020569902300037633
0.4092999999999999,0.0018872248740199587
0.4082999999999999,0.0017811215265300813
0.4072999999999999,0.0016693593338407433
0.4062999999999999,0.0015632559863508655
0.4052999999999999,0.0014727144631595033
0.4042999999999999,0.0013779288060685457
0.4032999999999999,0.001296865848586279
0.4022999999999999,0.001179727752957454
0.4012999999999999,0.0010707949828678463
0.4002999999999999,0.0010108112237535688
0.3992999999999999,0.0009061225875635558
0.3982999999999999,0.0008349626091803447
0.3972999999999999,0.0007762520902359456
0.3962999999999999,0.0006953306038836655
0.3952999999999999,0.0006311027108697929
0.3942999999999999,0.0005208967006103066
0.39329999999999987,0.00046643031556550254
0.39229999999999987,0.0004022024225516299
0.39129999999999987,0.0003115194282302811
0.39029999999999987,0.00026822926245441094
0.38929999999999987,0.0001928251501716045
0.38829999999999987,0.00014826174422585584
0.38729999999999987,8.820724954658503e-05
0.38629999999999987,2.7912253946337173e-07
0.38529999999999986,-6.253023945403462e-05
0.38429999999999986,-0.00011696833027284123
0.38329999999999986,-0.00018391246898245476
0.38229999999999986,-0.0002426229879268538
0.38129999999999986,-0.000308124121110605
0.38029999999999986,-0.00037659614802407275
0.37929999999999986,-0.00042964782176901163
0.37829999999999986,-0.00048680215828355916
0.37729999999999986,-0.0005231602386900905
0.37629999999999986,-0.0005733824898352993
0.37529999999999986,-0.0006195020782108995
0.37429999999999986,-0.0006697243293561084
0.37329999999999985,-0.0007380548851395897
0.37229999999999985,-0.0007868624249849334
0.37129999999999985,-0.0008594371146680097
0.37029999999999985,-0.0008957951950745413
0.36929999999999985,-0.0009419147834501414
0.36829999999999985,-0.0009935517458952152
0.36729999999999985,-0.0010521207937096277
0.36629999999999985,-0.0010925815368857679
0.36529999999999985,-0.001135871702661638
0.36429999999999985,-0.0012000995956755105
0.36329999999999985,-0.0012224520342133782
0.36229999999999984,-0.0012726742853585871
0.36129999999999984,-0.001339590129842203
0.36029999999999984,-0.001378777632848465
0.35929999999999984,-0.0014486643710617977
0.35829999999999984,-0.001461396772760583
0.35729999999999984,-0.0014967645552572087
0.35629999999999984,-0.0015830619445489761
0.35529999999999984,-0.0016141855931460067
0.35429999999999984,-0.0016792623129397986
0.35329999999999984,-0.001737265476234265
0.35229999999999984,-0.0017542420118326456
0.35129999999999983,-0.0018065863299276518
0.35029999999999983,-0.0018433688237241427
0.34929999999999983,-0.0018716630497214433
0.34829999999999983,-0.00192117794521672
0.34729999999999983,-0.0019692781294121313
0.34629999999999983,-0.0020060606232086223
0.34529999999999983,-0.002042843117005113
0.34429999999999983,-0.0020937727238002544
0.3432999999999998,-0.0021404581966958007
0.3422999999999998,-0.0021828995356917517
0.3412999999999998,-0.002233829142486893
0.3402999999999998,-0.002283344037982169
0.3392999999999998,-0.0023031499961802798
0.3382999999999998,-0.002347006046476096
0.3372999999999998,-0.002371056138573801
0.3362999999999998,-0.0024092533436701575
0.3352999999999998,-0.0024587682391654336
0.3342999999999998,-0.002498380155561655
0.3332999999999998,-0.002533747938058281
0.3322999999999998,-0.002569115720554907
0.3312999999999998,-0.0026030687917516677
0.3302999999999998,-0.0026497542646472133
0.3292999999999998,-0.0026964397375427596
0.3282999999999998,-0.0027346369426391156
0.3272999999999998,-0.002784151838134392
0.3262999999999998,-0.0028280078884302087
0.3252999999999999,-0.002859131537027239
0.3242999999999999,-0.0028874257630245397
0.3232999999999999,-0.0029128905664221106
0.3222999999999999,-0.0029454289263190067
0.3212999999999999,-0.0030147497800123934
0.3202999999999999,-0.0030331410269106387
0.3192999999999999,-0.0030755823659065896
0.3182999999999999,-0.0030982177467044304
0.3172999999999999,-0.0031095354371033506
0.3162999999999999,-0.0031703680229975472
0.3152999999999999,-0.003204321094194308
0.3142999999999999,-0.0032524212783897194
0.3132999999999999,-0.0032892037721862105
0.3122999999999999,-0.003316083286883646
0.3112999999999999,-0.003398136542275818
0.3102999999999999,-0.0033967218309759527
0.3092999999999999,-0.0034320896134725793
0.3082999999999999,-0.00346887210726907
0.3072999999999999,-0.00347736037506826
0.3062999999999999,-0.0035367782496625914
0.3052999999999999,-0.003548095940061512
0.3042999999999999,-0.0035905372790574633
0.3032999999999999,-0.0036400521745527394
0.3022999999999999,-0.00366551697795031
0.3012999999999999,-0.0037150318734455864
0.3002999999999999,-0.003756058501141672
0.2992999999999999,-0.003778693881939513
0.2982999999999999,-0.003809817530536544
0.2972999999999999,-0.003840941179133575
0.2962999999999999,-0.003896114919828311
0.2952999999999999,-0.003903188476327636
0.2942999999999999,-0.003948459237923317
0.2932999999999999,-0.003966850484821563
0.2922999999999999,-0.004005047689917919
0.2912999999999999,-0.00403334191591522
0.2902999999999999,-0.004057392008012925
0.2892999999999999,-0.004097003924409146
0.2882999999999999,-0.004136615840805368
0.2872999999999999,-0.004170568912002128
0.2862999999999999,-0.00420452198319889
0.2852999999999999,-0.00423847505439565
0.2842999999999999,-0.004278086970791871
0.2832999999999999,-0.004295063506390251
0.2822999999999999,-0.004316284175888227
0.2812999999999999,-0.004364384360083638
0.2802999999999999,-0.0043799461843821545
0.2792999999999999,-0.00442380223467797
0.2782999999999999,-0.004459170017174596
0.2772999999999999,-0.004480390686672572
0.2762999999999999,-0.004529905582167848
0.2752999999999999,-0.004551126251665823
0.2742999999999999,-0.004570932209863933
0.2732999999999999,-0.004592152879361909
0.2722999999999999,-0.004590738168062044
0.2712999999999999,-0.0046487413313565104
0.2702999999999999,-0.004664303155655026
0.2692999999999999,-0.004696841515551922
0.26829999999999987,-0.004735038720648278
0.26729999999999987,-0.004753429967546524
0.26629999999999987,-0.0047859683274434186
0.26529999999999987,-0.00481992139864018
0.26429999999999987,-0.004842556779438021
0.26329999999999987,-0.004873680428035051
0.26229999999999987,-0.004903389365332217
0.26129999999999987,-0.004924610034830193
0.26029999999999986,-0.004958563106026954
0.25929999999999986,-0.0049698807964258735
0.25829999999999986,-0.005015151558021555
0.25729999999999986,-0.005026469248420475
0.25629999999999986,-0.005044860495318721
0.25529999999999986,-0.005075984143915752
0.25429999999999986,-0.005105693081212918
0.25329999999999986,-0.005132572595910353
0.25229999999999986,-0.005156622688008059
0.25129999999999986,-0.005187746336605089
0.25029999999999986,-0.005211796428702795
0.24929999999999986,-0.0052485789224992856
0.24829999999999985,-0.005279702571096317
0.24729999999999985,-0.005306582085793753
0.24629999999999985,-0.005306582085793753
0.24529999999999985,-0.005365999960388084
0.24429999999999985,-0.005399953031584845
0.24329999999999985,-0.005391464763785655
0.24229999999999985,-0.0054155148558833605
0.24129999999999985,-0.005456541483579447
0.24029999999999985,-0.005469273885278231
0.23929999999999985,-0.005508885801674453
0.23829999999999985,-0.005551327140670404
0.23729999999999984,-0.005562644831069324
0.23629999999999984,-0.005613574437864466
0.23529999999999984,-0.005626306839563252
0.23429999999999984,-0.005654601065560552
0.23329999999999984,-0.005688554136757312
0.23229999999999984,-0.005691383559357043
0.23129999999999984,-0.005733824898352994
0.23029999999999984,-0.005739483743552453
0.22929999999999984,-0.005760704413050429
0.22829999999999984,-0.005807389885945975
0.22729999999999984,-0.00581163401984557
0.22629999999999983,-0.005852660647541657
0.22529999999999983,-0.005883784296138688
0.22429999999999983,-0.005890857852638013
0.22329999999999983,-0.005941787459433154
0.22229999999999983,-0.005933299191633964
0.22129999999999983,-0.005967252262830724
0.22029999999999983,-0.0059898876436285655
0.21929999999999983,-0.0060153524470261364
0.21829999999999983,-0.006060623208621817
0.21729999999999983,-0.006064867342521413
0.21629999999999983,-0.006100235125018038
0.21529999999999982,-0.006148335309213449
0.21429999999999982,-0.006175214823910886
0.21329999999999982,-0.006219070874206701
0.21229999999999982,-0.006220485585506566
0.21129999999999982,-0.006219070874206701
0.21029999999999982,-0.006257268079303057
0.20929999999999982,-0.006272829903601573
0.20829999999999982,-0.006291221150499818
0.20729999999999982,-0.006318100665197253
0.20629999999999982,-0.0063619567154930695
0.20529999999999982,-0.006380347962391316
0.20429999999999982,-0.006411471610988347
0.20329999999999981,-0.006436936414385917
0.2022999999999998,-0.0064609865064836226
0.2012999999999998,-0.006500598422879843
0.20029999999999992,-0.0065246485149775485
0.19929999999999992,-0.0065586015861743095
0.19829999999999992,-0.006568504565273365
0.19729999999999992,-0.006576992833072556
0.19629999999999992,-0.0066109459042693166
0.19529999999999992,-0.006636410707666887
0.19429999999999992,-0.006688755025761894
0.19329999999999992,-0.006736855209957304
0.19229999999999992,-0.006717049251759194
0.19129999999999991,-0.006772222992453929
0.1902999999999999,-0.006792028950652041
0.1892999999999999,-0.006823152599249072
0.1882999999999999,-0.006844373268747047
0.1872999999999999,-0.006847202691346778
0.1862999999999999,-0.006882570473843404
0.1852999999999999,-0.006912279411140569
0.1842999999999999,-0.006934914791938409
0.1832999999999999,-0.006966038440535441
0.1822999999999999,-0.006946232482337331
0.1812999999999999,-0.007001406223032067
0.1802999999999999,-0.007046676984627748
0.1792999999999999,-0.007052335829827208
0.1782999999999999,-0.007091947746223429
0.1772999999999999,-0.007111753704421539
0.1762999999999999,-0.007115997838321134
0.1752999999999999,-0.007155609754717356
0.1742999999999999,-0.007172586290315736
0.1732999999999999,-0.0072065393615124975
0.1722999999999999,-0.007232004164910068
0.1712999999999999,-0.007256054257007772
0.1702999999999999,-0.007290007328204534
0.1692999999999999,-0.007309813286402644
0.1682999999999999,-0.007355084047998325
0.1672999999999999,-0.007360742893197786
0.1662999999999999,-0.007377719428796167
0.1652999999999999,-0.007411672499992927
0.1642999999999999,-0.007439966725990228
0.1632999999999999,-0.0074583579728884734
0.1622999999999999,-0.007476749219786719
0.1612999999999999,-0.007507872868383749
0.1602999999999999,-0.007512117002283344
0.1592999999999999,-0.007560217186478756
0.15829999999999989,-0.007585681989876327
0.15729999999999988,-0.007615390927173492
0.15629999999999988,-0.007638026307971333
0.15529999999999988,-0.007680467646967283
0.15429999999999988,-0.00770168831646526
0.15329999999999988,-0.007754032634560265
0.15229999999999988,-0.007758276768459861
0.15129999999999988,-0.007779497437957837
0.15029999999999988,-0.007786570994457162
0.14929999999999988,-0.007820524065653924
0.14829999999999988,-0.007860135982050145
0.14729999999999988,-0.007872868383748928
0.14629999999999987,-0.007923797990544072
0.14529999999999987,-0.00794643337134191
0.14429999999999987,-0.007950677505241506
0.14329999999999987,-0.007990289421637726
0.14229999999999987,-0.008015754225035298
0.14129999999999987,-0.008027071915434218
0.14029999999999987,-0.008052536718831788
0.13929999999999987,-0.008087904501328413
0.13829999999999987,-0.00812610170642477
0.13729999999999987,-0.008167128334120857
0.13629999999999987,-0.008171372468020452
0.13529999999999986,-0.00820391082791735
0.13429999999999986,-0.008223716786115458
0.13329999999999986,-0.00825484043471249
0.13229999999999986,-0.008259084568612084
0.13129999999999986,-0.00828030523811006
0.13029999999999986,-0.008304355330207765
0.12929999999999986,-0.008342552535304122
0.12829999999999986,-0.00837084676130142
0.12729999999999986,-0.008399140987298723
0.12629999999999986,-0.008421776368096564
0.12529999999999986,-0.008455729439293324
0.12429999999999986,-0.008479779531391032
0.12329999999999985,-0.008515147313887656
0.12229999999999985,-0.008529294426886306
0.12129999999999985,-0.008563247498083066
0.12029999999999985,-0.008571735765882256
0.11929999999999985,-0.00859720056927983
0.11829999999999985,-0.008626909506576994
0.11729999999999985,-0.00865378902127443
0.11629999999999985,-0.008689156803771055
0.11529999999999985,-0.008716036318468491
0.11429999999999985,-0.008749989389665251
0.11329999999999985,-0.008791016017361337
0.11229999999999984,-0.008802333707760259
0.11129999999999984,-0.008849019180655804
0.11029999999999984,-0.008867410427554049
0.10929999999999984,-0.008892875230951622
0.10829999999999984,-0.008929657724748111
0.10729999999999984,-0.008959366662045278
0.10629999999999984,-0.008953707816845817
0.10529999999999984,-0.009008881557540553
0.10429999999999984,-0.00902161395923934
0.10329999999999984,-0.009062640586935424
0.10229999999999984,-0.009090934812932725
0.10129999999999983,-0.009141864419727867
0.10029999999999983,-0.009174402779624762
0.09929999999999983,-0.009184305758723818
0.09829999999999983,-0.00921542940732085
0.09729999999999983,-0.00923523536551896
0.09629999999999983,-0.009242308922018284
0.09529999999999983,-0.009284750261014236
0.09429999999999983,-0.009297482662713021
0.09329999999999983,-0.009334265156509512
0.09229999999999983,-0.009358315248607219
0.09129999999999983,-0.009385194763304653
0.09029999999999982,-0.009436124370099795
0.08929999999999982,-0.009468662729996689
0.08829999999999982,-0.009498371667293856
0.08729999999999982,-0.009518177625491968
0.08629999999999982,-0.009553545407988593
0.08529999999999982,-0.009579010211386164
0.08429999999999982,-0.00959174261308495
0.08329999999999982,-0.009604475014783733
0.08229999999999982,-0.009641257508580225
0.08129999999999982,-0.00965681933287874
0.08029999999999982,-0.009695016537975098
0.07929999999999982,-0.009720481341372666
0.07829999999999981,-0.00977141094816781
0.07729999999999981,-0.009786972772466325
0.07629999999999981,-0.009818096421063354
0.07529999999999992,-0.00985346420355998
0.07429999999999992,-0.009900149676455526
0.07329999999999992,-0.009932688036352423
0.07229999999999992,-0.009956738128450129
0.07129999999999992,-0.009979373509247966
0.07029999999999992,-0.009992105910946755
0.06929999999999992,-0.01001332658044473
0.06829999999999992,-0.01005010907424122
0.06729999999999992,-0.01005859734204041
0.06629999999999991,-0.010126503484433932
0.06529999999999991,-0.010177433091229074
0.06429999999999991,-0.010211386162425836
0.06329999999999991,-0.010249583367522191
0.06229999999999991,-0.01026090105792111
0.06129999999999991,-0.010279292304819356
0.06029999999999991,-0.010320318932515442
0.05929999999999991,-0.010324563066415037
0.05829999999999991,-0.010371248539310585
0.05729999999999991,-0.01040661632180721
0.056299999999999906,-0.010422178146105724
0.055299999999999905,-0.010461790062501947
0.054299999999999904,-0.010504231401497898
0.0532999999999999,-0.010563649276092229
0.0522999999999999,-0.010584869945590204
0.0512999999999999,-0.01062306715068656
0.0502999999999999,-0.010659849644483051
0.0492999999999999,-0.010681070313981028
0.0482999999999999,-0.010700876272179137
0.0472999999999999,-0.010731999920776168
0.0462999999999999,-0.010756050012873873
0.045299999999999896,-0.010802735485769419
0.044299999999999895,-0.010823956155267395
0.043299999999999894,-0.010879129895962132
0.04229999999999989,-0.010910253544559163
0.04129999999999989,-0.010941377193156193
0.04029999999999989,-0.01101918631464877
0.03929999999999989,-0.011058798231044992
0.03829999999999989,-0.011084263034442562
0.03729999999999989,-0.011112557260439863
0.03629999999999989,-0.01115075446553622
0.03529999999999989,-0.011163486867235005
0.034299999999999886,-0.011208757628830687
0.033299999999999885,-0.011244125411327311
0.032299999999999884,-0.01125827252432596
0.031299999999999883,-0.011300713863321913
0.030299999999999883,-0.011351643470117054
0.02929999999999988,-0.011388425963913545
0.02829999999999988,-0.011445014415908148
0.02729999999999988,-0.011480382198404773
0.02629999999999988,-0.011528482382600184
0.025299999999999878,-0.011587900257194516
0.024299999999999877,-0.011603462081493031
0.023299999999999876,-0.011641659286589386
0.022299999999999875,-0.011662879956087363
0.021299999999999875,-0.011708150717683045
0.020299999999999874,-0.0117463479227794
0.019299999999999873,-0.011770398014877104
0.018299999999999872,-0.011826986466871706
0.01729999999999987,-0.011849621847669549
0.01629999999999987,-0.011903380877064417
0.01529999999999987,-0.01197411644205767
0.014299999999999868,-0.012009484224554296
0.013299999999999867,-0.012063243253949167
0.012299999999999978,-0.012095781613846062
0.011299999999999866,-0.012109928726844714
0.010299999999999976,-0.012172176024038774
0.009299999999999864,-0.012203299672635807
0.008299999999999974,-0.012220276208234187
0.007299999999999862,-0.012272620526329192
0.006299999999999972,-0.012299500041026628
0.00529999999999986,-0.012350429647821771
0.0042999999999999705,-0.012408432811116237
0.0032999999999998586,-0.012433897614513807
0.0022999999999999687,-0.012479168376109488
0.0012999999999998568,-0.012497559623007734
0.00029999999999996696,-0.01257536874450031
-0.000700000000000145,-0.012619224794796127
-0.0017000000000000348,-0.012651763154693022
-0.0027000000000001467,-0.012692789782389108
-0.0037000000000000366,-0.01272674285358587
-0.0047000000000001485,-0.01277201361518155
-0.005700000000000038,-0.012798893129878986
-0.00670000000000015,-0.012858311004473318
-0.00770000000000004,-0.012885190519170754
-0.008700000000000152,-0.01294319368246522
-0.009700000000000042,-0.012987049732761036
-0.010700000000000154,-0.013047882318655234
-0.011700000000000044,-0.013093153080250913
-0.012700000000000156,-0.013112959038449026
-0.013700000000000045,-0.013145497398345923
-0.014700000000000157,-0.013210574118139713
-0.015700000000000047,-0.013224721231138364
-0.01670000000000016,-0.013281309683132965
-0.01770000000000005,-0.013323751022128915
-0.01870000000000016,-0.013369021783724596
-0.01970000000000005,-0.013421366101819604
-0.020700000000000163,-0.013455319173016364
-0.021700000000000053,-0.0134821986877138
-0.022700000000000164,-0.01350766349111137
-0.023700000000000054,-0.013551519541407186
-0.024700000000000166,-0.01361376683860125
-0.025700000000000056,-0.013649134621097875
-0.026700000000000168,-0.013691575960093825
-0.027700000000000058,-0.013742505566888965
-0.02870000000000017,-0.013769385081586403
-0.02970000000000006,-0.013837291223979923
-0.03070000000000017,-0.01388114727427574
-0.03170000000000006,-0.013939150437570205
-0.03270000000000017,-0.013964615240967778
-0.03370000000000006,-0.013994324178264943
-0.034700000000000175,-0.014039594939860626
-0.035700000000000065,-0.014067889165857925
-0.03670000000000018,-0.014091939257955632
-0.03770000000000007,-0.014135795308251445
-0.03870000000000018,-0.014175407224647668
-0.03970000000000007,-0.014203701450644968
-0.04070000000000018,-0.01427443701563822
-0.04170000000000007,-0.014331025467632824
-0.04270000000000018,-0.014359319693630123
-0.04370000000000007,-0.014401761032626074
-0.044700000000000184,-0.014444202371622025
-0.045700000000000074,-0.014486643710617976
-0.046700000000000186,-0.014543232162612576
-0.047700000000000076,-0.014571526388609878
-0.04870000000000019,-0.01461396772760583
-0.04970000000000008,-0.014642261953603129
-0.05070000000000019,-0.014684703292599082
-0.05170000000000008,-0.014741291744593682
-0.05270000000000019,-0.014769585970590984
-0.05370000000000008,-0.014840321535584235
-0.05470000000000019,-0.014868615761581536
-0.05570000000000008,-0.014868615761581536
-0.056700000000000195,-0.014911057100577486
-0.057700000000000085,-0.014939351326574786
-0.058700000000000196,-0.014967645552572089
-0.059700000000000086,-0.015024234004566688
