Potential V vs RHE, Current mA cm-2
0.013299999999999867,-0.2202705493889862
0.012299999999999978,-2.4446211261667834
0.011299999999999866,-4.538393849967037
0.010299999999999976,-6.54445447317566
0.009299999999999864,-8.4203616567967
0.008299999999999974,-10.208556739826104
0.007299999999999862,-11.952895772559694
0.006299999999999972,-13.654793466297335
0.00529999999999986,-15.264734925543747
0.0042999999999999705,-16.835064468393938
0.0032999999999998586,-18.40539401124413
0.0022999999999999687,-19.890840876102416
0.0012999999999998568,-21.333846401964752
0.00029999999999996696,-22.776851927827092
-0.000700000000000145,-24.16326900169483
-0.0017000000000000348,-25.563833188561212
-0.0027000000000001467,-26.86536758443705
-0.0037000000000000366,-28.18104909331153
-0.0047000000000001485,-29.35525947219951
-0.005700000000000038,-30.529469851087494
-0.00670000000000015,-31.618797551983565
-0.00770000000000004,-32.70812525287965
-0.008700000000000152,-33.81160006677438
-0.009700000000000042,-34.90092776767045
-0.010700000000000154,-35.99025546856653
-0.011700000000000044,-36.99470049147071
-0.012700000000000156,-37.99914551437489
-0.013700000000000045,-38.98944342428042
-0.014700000000000157,-39.90900576919269
-0.015700000000000047,-40.828568114104954
-0.01670000000000016,-41.70568912002128
-0.01770000000000005,-42.568663012938956
-0.01870000000000016,-43.31846000186743
-0.01970000000000005,-44.138992555789144
-0.020700000000000163,-44.88878954471762
-0.021700000000000053,-45.624439420647434
-0.022700000000000164,-46.3176479575813
-0.023700000000000054,-47.02500360751382
-0.024700000000000166,-47.76065348344364
-0.025700000000000056,-48.41142068138156
-0.026700000000000168,-49.118776331314066
-0.027700000000000058,-49.76954352925199
-0.02870000000000017,-50.37786938819396
-0.02970000000000006,-50.98619524713592
-0.03070000000000017,-51.55207976708194
-0.03170000000000006,-52.11796428702795
-0.03270000000000017,-52.69799591997262
-0.03370000000000006,-53.22143910092268
-0.034700000000000175,-53.68829382987814
-0.035700000000000065,-54.2117370108282
-0.03670000000000018,-54.69273885278232
-0.03770000000000007,-55.21618203373238
-0.03870000000000018,-55.73962521468245
-0.03970000000000007,-56.13574437864466
-0.04070000000000018,-56.57430488160282
-0.04170000000000007,-56.97042404556503
-0.04270000000000018,-57.30995475753264
-0.04370000000000007,-57.62119124350295
-0.044700000000000184,-57.974869068469204
-0.045700000000000074,-58.35684111943277
-0.046700000000000186,-58.71051894439902
-0.047700000000000076,-59.06419676936528
-0.04870000000000019,-59.36128614233694
-0.04970000000000008,-59.67252262830725
-0.05070000000000019,-59.92717066228296
-0.05170000000000008,-60.28084848724921
-0.05270000000000019,-60.59208497321952
-0.05370000000000008,-60.84673300719523
-0.05470000000000019,-61.11552815416958
-0.05570000000000008,-61.412617527141244
-0.056700000000000195,-61.5965299961237
-0.057700000000000085,-61.80873669110345
-0.058700000000000196,-61.97850204708726
-0.059700000000000086,-62.16241451606972
-0.0607000000000002,-62.28973853305756
-0.06170000000000009,-62.501945228037314
-0.0627000000000002,-62.68585769701977
-0.06370000000000009,-62.855623053003576
-0.0647000000000002,-63.06782974798333
-0.06570000000000009,-63.251742216965795
-0.0667000000000002,-63.421507572949594
-0.0677000000000001,-63.59127292893339
-0.0687000000000002,-63.732744058919906
-0.0697000000000001,-63.860068075907755
-0.07070000000000021,-64.02983343189156
-0.0717000000000001,-64.0722747708875
-0.07270000000000021,-64.0722747708875
-0.0737000000000001,-63.98739209289561
-0.07470000000000021,-63.944950753899654
-0.0757000000000001,-63.944950753899654
-0.07670000000000021,-63.98739209289561
-0.0777000000000001,-64.0722747708875
-0.07870000000000021,-64.11471610988345
-0.0797000000000001,-64.11471610988345
-0.08070000000000022,-64.15715744887942
-0.0817000000000001,-64.25618723986996
-0.08270000000000022,-64.34106991786187
-0.08370000000000011,-64.38351125685783
-0.08470000000000022,-64.46839393484973
-0.08570000000000011,-64.51083527384567
-0.08670000000000022,-64.42595259585376
-0.08770000000000011,-64.42595259585376
-0.08870000000000022,-64.38351125685783
-0.08970000000000011,-64.34106991786187
-0.09070000000000022,-64.29862857886593
-0.09170000000000011,-64.29862857886593
-0.09270000000000023,-64.25618723986996
-0.09370000000000012,-64.29862857886593
-0.09470000000000023,-64.29862857886593
-0.09570000000000012,-64.25618723986996
-0.09670000000000023,-64.25618723986996
-0.09770000000000012,-64.19959878787537
-0.09870000000000023,-64.15715744887942
-0.09970000000000012,-64.15715744887942
-0.10070000000000023,-64.0722747708875
-0.10170000000000012,-63.98739209289561
-0.10270000000000024,-63.98739209289561
-0.10370000000000013,-63.944950753899654
-0.10470000000000024,-63.944950753899654
-0.10570000000000013,-63.902509414903705
-0.10670000000000024,-63.902509414903705
-0.10770000000000013,-63.902509414903705
-0.10870000000000024,-63.902509414903705
-0.10970000000000013,-63.860068075907755
-0.11070000000000024,-63.81762673691181
-0.11170000000000013,-63.77518539791585
-0.11270000000000002,-63.77518539791585
-0.11370000000000013,-63.6761556069253
-0.11470000000000002,-63.633714267929356
-0.11570000000000014,-63.633714267929356
-0.11670000000000003,-63.6761556069253
-0.11770000000000014,-63.633714267929356
-0.11870000000000003,-63.59127292893339
-0.11970000000000014,-63.46394891194555
-0.12070000000000003,-63.37906623395363
-0.12170000000000014,-63.37906623395363
-0.12270000000000003,-63.3366248949577
-0.12370000000000014,-63.37906623395363
-0.12470000000000003,-63.3366248949577
-0.12570000000000014,-63.251742216965795
-0.12670000000000003,-63.15271242597524
-0.12770000000000015,-63.06782974798333
-0.12870000000000004,-63.06782974798333
-0.12970000000000015,-62.98294706999144
-0.13070000000000004,-62.98294706999144
-0.13170000000000015,-62.94050573099548
-0.13270000000000004,-62.94050573099548
-0.13370000000000015,-62.94050573099548
-0.13470000000000004,-62.89806439199953
-0.13570000000000015,-62.81318171400764
-0.13670000000000004,-62.68585769701977
-0.13770000000000016,-62.544386567033264
-0.13870000000000005,-62.41706255004542
-0.13970000000000016,-62.33217987205352
-0.14070000000000005,-62.20485585506566
-0.14170000000000016,-62.06338472507916
-0.14270000000000005,-61.97850204708726
-0.14370000000000016,-61.936060708091304
-0.14470000000000005,-61.89361936909536
-0.14570000000000016,-61.89361936909536
-0.14670000000000005,-61.89361936909536
-0.14770000000000016,-61.851178030099405
-0.14870000000000005,-61.7662953521075
-0.14970000000000017,-61.7662953521075
-0.15070000000000006,-61.72385401311155
-0.15170000000000017,-61.63897133511965
-0.15270000000000006,-61.49750020513315
-0.15370000000000017,-61.28529351015339
-0.15470000000000006,-61.15796949316553
-0.15570000000000017,-60.974057024183075
-0.15670000000000006,-60.889174346191176
-0.15770000000000017,-60.84673300719523
-0.15870000000000006,-60.84673300719523
-0.15970000000000018,-60.80429166819927
-0.16070000000000007,-60.761850329203334
-0.16170000000000018,-60.71940899020737
-0.16270000000000007,-60.71940899020737
-0.16370000000000018,-60.67696765121143
-0.16470000000000007,-60.63452631221547
-0.16570000000000018,-60.54964363422357
-0.16670000000000007,-60.49305518222897
-0.16770000000000018,-60.40817250423707
-0.16870000000000007,-60.36573116524111
-0.16970000000000018,-60.32328982624517
-0.17070000000000007,-60.23840714825326
-0.17170000000000019,-60.19596580925731
-0.17270000000000008,-60.15352447026136
-0.1737000000000002,-60.06864179226946
-0.17470000000000008,-59.9696120012789
-0.1757000000000002,-59.9696120012789
-0.17670000000000008,-59.92717066228296
-0.1777000000000002,-59.842287984291055
-0.17870000000000008,-59.757405306299155
-0.1797000000000002,-59.7149639673032
-0.18070000000000008,-59.67252262830725
-0.1817000000000002,-59.587639950315335
-0.18270000000000008,-59.54519861131939
-0.1837000000000002,-59.44616882032884
-0.1847000000000001,-59.44616882032884
-0.1857000000000002,-59.403727481332886
-0.1867000000000001,-59.403727481332886
-0.1877000000000002,-59.403727481332886
-0.1887000000000001,-59.403727481332886
-0.1897000000000002,-59.403727481332886
-0.1907000000000001,-59.36128614233694
-0.1917000000000001,-59.27640346434504
-0.19269999999999998,-59.14907944735718
-0.1937000000000001,-59.02175543036933
-0.19469999999999998,-58.880284300382826
-0.1957000000000001,-58.83784296138688
-0.19669999999999999,-58.83784296138688
-0.1977000000000001,-58.83784296138688
-0.1987,-58.880284300382826
-0.1997000000000001,-58.83784296138688
-0.2007,-58.79540162239092
-0.2017000000000001,-58.79540162239092
-0.2027,-58.79540162239092
-0.2037000000000001,-58.75296028339497
-0.2047,-58.75296028339497
-0.2057000000000001,-58.66807760540307
-0.2067,-58.66807760540307
-0.2077000000000001,-58.583194927411164
-0.2087,-58.54075358841522
-0.2097000000000001,-58.498312249419264
-0.2107,-58.45587091042332
-0.2117000000000001,-58.39928245842871
-0.2127,-58.31439978043681
-0.2137000000000001,-58.31439978043681
-0.2147,-58.27195844144086
-0.2157000000000001,-58.31439978043681
-0.2167,-58.27195844144086
-0.21770000000000012,-58.22951710244491
-0.2187,-58.18707576344896
-0.21970000000000012,-58.14463442445301
-0.2207,-58.05975174646111
-0.22170000000000012,-58.017310407465146
-0.2227,-58.017310407465146
-0.22370000000000012,-57.974869068469204
-0.2247,-57.974869068469204
-0.22570000000000012,-57.93242772947325
-0.2267,-57.87583927747865
-0.22770000000000012,-57.93242772947325
-0.22870000000000001,-57.93242772947325
-0.22970000000000013,-57.93242772947325
-0.23070000000000002,-57.87583927747865
-0.23170000000000013,-57.8333979384827
-0.23270000000000002,-57.7485152604908
-0.23370000000000013,-57.66363258249889
-0.23470000000000002,-57.57874990450699
-0.23570000000000013,-57.57874990450699
-0.23670000000000002,-57.57874990450699
-0.2376999999999999,-57.62119124350295
-0.23870000000000002,-57.66363258249889
-0.2396999999999999,-57.70607392149485
-0.24070000000000003,-57.7485152604908
-0.24169999999999991,-57.7485152604908
-0.24270000000000003,-57.7485152604908
-0.24369999999999992,-57.79095659948675
-0.24470000000000003,-57.7485152604908
-0.24569999999999992,-57.70607392149485
-0.24670000000000003,-57.66363258249889
-0.24769999999999992,-57.66363258249889
-0.24870000000000003,-57.66363258249889
-0.24969999999999992,-57.62119124350295
-0.25070000000000003,-57.62119124350295
-0.2516999999999999,-57.62119124350295
-0.25270000000000004,-57.62119124350295
-0.2536999999999999,-57.62119124350295
-0.25470000000000004,-57.66363258249889
-0.2556999999999999,-57.62119124350295
-0.25670000000000004,-57.57874990450699
-0.25769999999999993,-57.57874990450699
-0.25870000000000004,-57.53630856551105
-0.25969999999999993,-57.493867226515086
-0.26070000000000004,-57.45142588751914
-0.26169999999999993,-57.45142588751914
-0.26270000000000004,-57.408984548523186
-0.26369999999999993,-57.352396096528594
-0.26470000000000005,-57.352396096528594
-0.26569999999999994,-57.408984548523186
-0.26670000000000005,-57.408984548523186
-0.26769999999999994,-57.352396096528594
-0.26870000000000005,-57.30995475753264
-0.26969999999999994,-57.22507207954074
-0.27070000000000005,-57.22507207954074
-0.27169999999999994,-57.182630740544774
-0.27270000000000005,-57.14018940154883
-0.27369999999999994,-57.14018940154883
-0.27470000000000006,-57.182630740544774
-0.27569999999999995,-57.182630740544774
-0.27670000000000006,-57.26751341853669
-0.27769999999999995,-57.22507207954074
-0.27870000000000006,-57.26751341853669
-0.27969999999999995,-57.30995475753264
-0.28070000000000006,-57.408984548523186
-0.28169999999999995,-57.408984548523186
-0.28270000000000006,-57.45142588751914
-0.28369999999999995,-57.45142588751914
-0.28470000000000006,-57.45142588751914
-0.28569999999999995,-57.45142588751914
-0.28670000000000007,-57.45142588751914
-0.28769999999999996,-57.408984548523186
-0.28870000000000007,-57.408984548523186
-0.28969999999999996,-57.408984548523186
-0.29070000000000007,-57.45142588751914
-0.29169999999999996,-57.493867226515086
-0.29270000000000007,-57.53630856551105
-0.29369999999999996,-57.62119124350295
-0.2947000000000001,-57.70607392149485
-0.29569999999999996,-57.7485152604908
-0.2967000000000001,-57.7485152604908
-0.29769999999999996,-57.7485152604908
-0.2987000000000001,-57.7485152604908
-0.29969999999999997,-57.79095659948675
-0.3007000000000001,-57.8333979384827
-0.30169999999999997,-57.87583927747865
-0.3027000000000001,-57.8333979384827
-0.30369999999999997,-57.79095659948675
-0.3047000000000001,-57.7485152604908
-0.30569999999999997,-57.7485152604908
-0.3067000000000001,-57.8333979384827
-0.3077,-57.87583927747865
-0.3087000000000001,-57.93242772947325
-0.3097,-57.974869068469204
-0.3107000000000001,-58.017310407465146
-0.3117,-58.017310407465146
-0.3127000000000001,-58.017310407465146
-0.3137,-58.017310407465146
-0.3147000000000001,-58.10219308545706
-0.3157,-58.10219308545706
-0.3167000000000001,-58.14463442445301
-0.3177,-58.22951710244491
-0.3187000000000001,-58.31439978043681
-0.3197,-58.31439978043681
-0.3207000000000001,-58.35684111943277
-0.3217,-58.39928245842871
-0.3227000000000001,-58.45587091042332
-0.3237,-58.54075358841522
-0.3247000000000001,-58.583194927411164
-0.3257,-58.62563626640712
-0.3267000000000001,-58.71051894439902
-0.3277,-58.71051894439902
-0.3287000000000001,-58.75296028339497
-0.3297,-58.75296028339497
-0.3307000000000001,-58.75296028339497
-0.3317,-58.83784296138688
-0.3327000000000001,-58.92272563937878
-0.3337,-59.06419676936528
-0.3347000000000001,-59.19152078635314
-0.3357,-59.31884480334099
-0.3367000000000001,-59.403727481332886
-0.3377,-59.44616882032884
-0.3387000000000001,-59.54519861131939
-0.3397,-59.6300812893113
-0.3407000000000001,-59.67252262830725
-0.3417,-59.757405306299155
-0.3427000000000001,-59.842287984291055
-0.3437,-59.9696120012789
-0.3447000000000001,-60.11108313126541
-0.3457,-60.23840714825326
-0.3467000000000001,-60.36573116524111
-0.3477,-60.49305518222897
-0.3487000000000001,-60.59208497321952
-0.3497,-60.71940899020737
-0.3507000000000001,-60.80429166819927
-0.3517,-60.889174346191176
-0.3527000000000001,-61.01649836317903
-0.3537,-61.15796949316553
-0.3547000000000001,-61.327734849149344
-0.3557,-61.455058866137186
-0.35670000000000013,-61.63897133511965
-0.3577,-61.80873669110345
-0.35870000000000013,-62.02094338608321
-0.3597,-62.20485585506566
-0.36070000000000013,-62.37462121104946
-0.3617,-62.544386567033264
-0.3626999999999999,-62.72829903601572
-0.3637,-62.89806439199953
-0.3646999999999999,-63.11027108697928
-0.3657,-63.3366248949577
-0.3666999999999999,-63.46394891194555
-0.3677,-63.59127292893339
-0.3686999999999999,-63.77518539791585
-0.36970000000000003,-63.944950753899654
-0.3706999999999999,-64.0722747708875
-0.37170000000000003,-64.29862857886593
-0.3726999999999999,-64.55327661284163
-0.37370000000000003,-64.86451309881193
-0.3746999999999999,-65.11916113278764
-0.37570000000000003,-65.38795627976201
-0.3766999999999999,-65.64260431373769
-0.37770000000000004,-65.86895812171612
-0.3786999999999999,-66.08116481669586
-0.37970000000000004,-66.29337151167562
-0.3806999999999999,-66.56216665864997
-0.38170000000000004,-66.81681469262568
-0.38269999999999993,-67.08560983960004
-0.38370000000000004,-67.39684632557035
-0.38469999999999993,-67.693935698542
-0.38570000000000004,-68.0051721845123
-0.38669999999999993,-66.64704933664189
-0.38570000000000004,-62.64341635802381
-0.38469999999999993,-58.97931409137338
-0.38370000000000004,-55.527418519702685
-0.38269999999999993,-52.30187675601041
-0.38170000000000004,-49.24610034830193
-0.3806999999999999,-46.3176479575813
-0.37970000000000004,-43.53066669684718
-0.3786999999999999,-40.99833347008877
-0.37770000000000004,-38.522588695324956
-0.3766999999999999,-36.16002082455034
-0.37570000000000003,-33.93892408376223
-0.3746999999999999,-31.76026868197007
-0.37370000000000003,-29.751378636161718
-0.3726999999999999,-27.827371268345274
-0.37170000000000003,-25.959952352523427
-0.3706999999999999,-24.16326900169483
-0.36970000000000003,-22.42317410286083
-0.3686999999999999,-20.683079204026836
-0.3677,-19.01371987018609
-0.3666999999999999,-17.40094898833995
-0.3657,-15.972090575476265
-0.3646999999999999,-14.529085049613924
-0.3637,-13.13135028534727
-0.3626999999999999,-11.82274233297211
-0.3617,-10.557990430892769
-0.36070000000000013,-9.335679867809377
-0.3597,-8.202496116617484
-0.35870000000000013,-7.024041603829907
-0.3577,-5.890857852638012
-0.35670000000000013,-4.800115440442069
-0.3557,-3.7532290785419424
-0.3547000000000001,-2.706342716641815
-0.3537,-1.6594563547416883
-0.3527000000000001,-0.6564260431373771
-0.3517,0.3031726315610774
-0.3507000000000001,1.219056727093702
-0.3497,2.0909433012005243
-0.3487000000000001,2.963820173217252
-0.3477,3.748984944642347
-0.3467000000000001,4.534149716067443
-0.3457,5.319314487492538
-0.3447000000000001,6.060623208621817
-0.3437,6.845787980046913
-0.3427000000000001,7.587096701176192
-0.3417,8.284549372009655
-0.3407000000000001,9.025858093138934
-0.3397,9.724725475272262
-0.3387000000000001,10.422178146105725
-0.3377,11.119630816939189
-0.3367000000000001,11.730786098480884
-0.3357,12.384382719018532
-0.3347000000000001,12.95168195026441
-0.3337,13.562837231806107
-0.3327000000000001,14.08628041275617
-0.3317,14.69885040559773
-0.3307000000000001,15.222293586547794
-0.3297,15.78817810649381
-0.3287000000000001,16.354062626439823
-0.3277,16.877505807389888
-0.3267000000000001,17.4433903273359
-0.3257,17.966833508285966
-0.3247000000000001,18.49027668923603
-0.3237,18.97127853119014
-0.3227000000000001,19.409839034148305
-0.3217,19.890840876102416
-0.3207000000000001,20.329401379060574
-0.3197,20.75381476902009
-0.3187000000000001,21.19237527197825
-0.3177,21.58849443594046
-0.3167000000000001,22.027054938898623
-0.3157,22.46561544185678
-0.3147000000000001,22.890028831816295
-0.3137,23.328589334774456
-0.3127000000000001,23.767149837732617
-0.3117,24.20571034069078
-0.3107000000000001,24.559388165657033
-0.3097,24.898918877624645
-0.3087000000000001,25.252596702590903
-0.3077,25.648715866553115
-0.3067000000000001,25.94580523952477
-0.30569999999999997,26.29948306449103
-0.3047000000000001,26.61071955046134
-0.30369999999999997,26.907808923433
-0.3027000000000001,27.219045409403304
-0.30169999999999997,27.516134782374962
-0.3007000000000001,27.827371268345274
-0.29969999999999997,28.22349043230748
-0.2987000000000001,28.52057980527914
-0.29769999999999996,28.8742576302454
-0.2967000000000001,29.171347003217054
-0.29569999999999996,29.440142150191413
-0.2947000000000001,29.751378636161718
-0.29369999999999996,30.00602667013743
-0.29270000000000007,30.21823336511718
-0.29169999999999996,30.529469851087494
-0.29070000000000007,30.79826499806185
-0.28969999999999996,31.095354371033505
-0.28870000000000007,31.36414951800786
-0.28769999999999996,31.618797551983565
-0.28670000000000007,31.930034037953877
-0.28569999999999995,32.184682071929586
-0.28470000000000006,32.45347721890394
-0.28369999999999995,32.66568391388369
-0.28270000000000006,32.8354492698675
-0.28169999999999995,33.10424441684186
-0.28070000000000006,33.316451111821614
-0.27969999999999995,33.50036358080407
-0.27870000000000006,33.755011614779775
-0.27769999999999995,33.93892408376223
-0.27670000000000006,34.193572117737936
-0.27569999999999995,34.4057788127177
-0.27470000000000006,34.5472499427042
-0.27369999999999994,34.75945663768395
-0.27270000000000005,34.92922199366775
-0.27169999999999994,35.15557580164616
-0.27070000000000005,35.367782496625914
-0.26969999999999994,35.55169496560837
-0.26870000000000005,35.763901660588125
-0.26769999999999994,35.89122567757598
-0.26670000000000005,36.01854969456383
-0.26569999999999994,36.20246216354629
-0.26470000000000005,36.329786180534136
-0.26369999999999993,36.49955153651795
-0.26270000000000004,36.6834640055004
-0.26169999999999993,36.8532293614842
