Potential V vs RHE, Current mA cm-2
0.013299999999999867,-0.9748775567369968
0.012299999999999978,-2.641265996848024
0.011299999999999866,-3.7871821497387033
0.010299999999999976,-4.6289353731583995
0.009299999999999864,-5.235846520800501
0.008299999999999974,-5.708360094955423
0.007299999999999862,-6.094576279818578
0.006299999999999972,-6.381762673691181
0.00529999999999986,-6.659046088464728
0.0042999999999999705,-6.879741051243673
0.0032999999999998586,-7.018382758630446
0.0022999999999999687,-7.189562825914116
0.0012999999999998568,-7.33952222369981
0.00029999999999996696,-7.441381437290093
-0.000700000000000145,-7.577193722077136
-0.0017000000000000348,-7.632367462771874
-0.0027000000000001467,-7.700273605165394
-0.0037000000000000366,-7.823353488253653
-0.0047000000000001485,-7.8827713628479845
-0.005700000000000038,-7.967654040839887
-0.00670000000000015,-8.025657204134353
-0.00770000000000004,-8.042633739732734
-0.008700000000000152,-8.152981221122205
-0.009700000000000042,-8.218057940915998
-0.010700000000000154,-8.244937455613433
-0.011700000000000044,-8.31425830930682
-0.012700000000000156,-8.352455514403177
-0.013700000000000045,-8.403385121198317
-0.014700000000000157,-8.49392664438968
-0.015700000000000047,-8.496756066989409
-0.01670000000000016,-8.544856251184823
-0.01770000000000005,-8.619835950077668
-0.01870000000000016,-8.643886042175374
-0.01970000000000005,-8.725939297567548
-0.020700000000000163,-8.768380636563498
-0.021700000000000053,-8.779698326962418
-0.022700000000000164,-8.860336871054725
-0.023700000000000054,-8.909851766550002
-0.024700000000000166,-8.960781373345142
-0.025700000000000056,-9.027272804438798
-0.026700000000000168,-9.027272804438798
-0.027700000000000058,-9.107911348531106
-0.02870000000000017,-9.178646913524359
-0.02970000000000006,-9.202697005622065
-0.03070000000000017,-9.280506127114641
-0.03170000000000006,-9.322947466110591
-0.03270000000000017,-9.335679867809377
-0.03370000000000006,-9.419147834501414
-0.034700000000000175,-9.481395131695475
-0.035700000000000065,-9.511104068992642
-0.03670000000000018,-9.587498479185355
-0.03770000000000007,-9.60871914868333
-0.03870000000000018,-9.673795868477121
-0.03970000000000007,-9.753019701269562
-0.04070000000000018,-9.765752102968348
-0.04170000000000007,-9.811022864564029
-0.04270000000000018,-9.870440739158362
-0.04370000000000007,-9.914296789454177
-0.044700000000000184,-10.007667735245269
-0.045700000000000074,-10.02464427084365
-0.046700000000000186,-10.052938496840952
-0.047700000000000076,-10.126503484433933
-0.04870000000000019,-10.161871266930557
-0.04970000000000008,-10.22128914152489
-0.05070000000000019,-10.272218748320032
-0.05170000000000008,-10.277877593519491
-0.05270000000000019,-10.350027869812608
-0.05370000000000008,-10.399542765307885
-0.05470000000000019,-10.42925170260505
-0.05570000000000008,-10.504231401497897
-0.056700000000000195,-10.501401978898167
-0.057700000000000085,-10.529696204895469
-0.058700000000000196,-10.615993594187234
-0.059700000000000086,-10.634384841085481
-0.0607000000000002,-10.657020221883322
-0.06170000000000009,-10.727755786876573
-0.0627000000000002,-10.743317611175089
-0.06370000000000009,-10.79424721797023
-0.0647000000000002,-10.838103268266046
-0.06570000000000009,-10.814053176168342
-0.0667000000000002,-10.863568071663616
-0.0677000000000001,-10.900350565460107
-0.0687000000000002,-10.917327101058488
-0.0697000000000001,-10.993721511251199
-0.07070000000000021,-10.97674497565282
-0.0717000000000001,-10.961183151354303
-0.07270000000000021,-11.04465111804634
-0.0737000000000001,-11.043236406746477
-0.07470000000000021,-11.063042364944588
-0.0757000000000001,-11.12528966213865
-0.07670000000000021,-11.084263034442563
-0.0777000000000001,-11.121045528239053
-0.07870000000000021,-11.177633980233654
-0.0797000000000001,-11.15924273333541
-0.08070000000000022,-11.193195804532172
-0.0817000000000001,-11.193195804532172
-0.08270000000000022,-11.174804557633923
-0.08370000000000011,-11.261101946925693
-0.08470000000000022,-11.249784256526773
-0.08570000000000011,-11.229978298328662
-0.08670000000000022,-11.299299152022046
-0.08770000000000011,-11.262516658225557
-0.08870000000000022,-11.279493193823937
-0.08970000000000011,-11.33891106841827
-0.09070000000000022,-11.283737327723532
-0.09170000000000011,-11.297884440722184
-0.09270000000000023,-11.341740491018
-0.09370000000000012,-11.310616842420966
-0.09470000000000023,-11.344569913617729
-0.09570000000000012,-11.385596541313816
-0.09670000000000023,-11.330422800619079
-0.09770000000000012,-11.341740491018
-0.09870000000000023,-11.37569356221476
-0.09970000000000012,-11.35588760401665
-0.10070000000000023,-11.394084809113005
-0.10170000000000012,-11.38701125261368
-0.10270000000000024,-11.331837511918945
-0.10370000000000013,-11.395499520412871
-0.10470000000000024,-11.409646633411523
-0.10570000000000013,-11.372864139615029
-0.10670000000000024,-11.408231922111655
-0.10770000000000013,-11.3983289430126
-0.10870000000000024,-11.374278850914896
-0.10970000000000013,-11.419549612510576
-0.11070000000000024,-11.399743654312466
-0.11170000000000013,-11.367205294415568
-0.11270000000000002,-11.42945259160963
-0.11370000000000013,-11.442184993308418
-0.11470000000000002,-11.388425963913546
-0.11570000000000014,-11.409646633411523
-0.11670000000000003,-11.395499520412871
-0.11770000000000014,-11.37569356221476
-0.11870000000000003,-11.430867302909498
-0.11970000000000014,-11.420964323810443
-0.12070000000000003,-11.365790583115706
-0.12170000000000014,-11.402573076912194
-0.12270000000000003,-11.399743654312466
-0.12370000000000014,-11.399743654312466
-0.12470000000000003,-11.457746817606932
-0.12570000000000014,-11.411061344711387
-0.12670000000000003,-11.370034717015299
-0.12770000000000015,-11.409646633411523
-0.12870000000000004,-11.3983289430126
-0.12970000000000015,-11.415305478610982
-0.13070000000000004,-11.452087972407472
-0.13170000000000015,-11.406817210811791
-0.13270000000000004,-11.38984067521341
-0.13370000000000015,-11.435111436809091
-0.13470000000000004,-11.440770282008552
-0.13570000000000015,-11.452087972407472
-0.13670000000000004,-11.43794085940882
-0.13770000000000016,-11.402573076912194
-0.13870000000000005,-11.460576240206661
-0.13970000000000016,-11.478967487104908
-0.14070000000000005,-11.463405662806393
-0.14170000000000016,-11.471893930605583
-0.14270000000000005,-11.449258549807741
-0.14370000000000016,-11.470479219305716
-0.14470000000000005,-11.508676424402074
-0.14570000000000016,-11.493114600103558
-0.14670000000000005,-11.51292055830167
-0.14770000000000016,-11.505847001802342
-0.14870000000000005,-11.522823537400724
-0.14970000000000017,-11.56950901029627
-0.15070000000000006,-11.532726516499778
-0.15170000000000017,-11.551117763398024
-0.15270000000000006,-11.593559102393977
-0.15370000000000017,-11.56950901029627
-0.15470000000000006,-11.616194483191816
-0.15570000000000017,-11.633171018790197
-0.15670000000000006,-11.611950349292222
-0.15770000000000017,-11.664294667387228
-0.15870000000000006,-11.679856491685744
-0.15970000000000018,-11.679856491685744
-0.16070000000000007,-11.719468408081962
-0.16170000000000018,-11.70673600638318
-0.16270000000000007,-11.73503023238048
-0.16370000000000018,-11.807180508673596
-0.16470000000000007,-11.794448106974812
-0.16570000000000018,-11.826986466871707
-0.16670000000000007,-11.841133579870357
-0.16770000000000018,-11.841133579870357
-0.16870000000000007,-11.930260391761854
-0.16970000000000018,-11.914698567463338
-0.17070000000000007,-11.903380877064418
-0.17170000000000019,-11.985434132456591
-0.17270000000000008,-11.978360575957266
-0.1737000000000002,-12.025046048852811
-0.17470000000000008,-12.080219789547549
-0.1757000000000002,-12.067487387848763
-0.17670000000000008,-12.126905262443096
-0.1777000000000002,-12.170761312738911
-0.17870000000000008,-12.162273044939722
-0.1797000000000002,-12.240082166432298
-0.18070000000000008,-12.254229279430946
-0.1817000000000002,-12.282523505428248
-0.18270000000000008,-12.377309162519206
-0.1837000000000002,-12.36740618342015
-0.1847000000000001,-12.409847522416102
-0.1857000000000002,-12.472094819610163
-0.1867000000000001,-12.469265397010433
-0.1877000000000002,-12.562636342801525
-0.1887000000000001,-12.613565949596667
-0.1897000000000002,-12.62771306259532
-0.1907000000000001,-12.716839874486816
-0.1917000000000001,-12.7295722761856
-0.19269999999999998,-12.769184192581822
-0.1937000000000001,-12.885190519170754
-0.19469999999999998,-12.87245811747197
-0.1957000000000001,-12.936120125965894
-0.19669999999999999,-13.018173381358068
-0.1977000000000001,-13.032320494356718
-0.1987,-13.137009130546732
-0.1997000000000001,-13.209159406839847
-0.2007,-13.207744695539983
-0.2017000000000001,-13.31950688822932
-0.2027,-13.377510051523787
-0.2037000000000001,-13.411463122720548
-0.2047,-13.533128294508941
-0.2057000000000001,-13.569910788305432
-0.2067,-13.610937416001518
-0.2077000000000001,-13.731187876490045
-0.2087,-13.792020462384242
-0.2097000000000001,-13.872659006476551
-0.2107,-13.985835910465754
-0.2117000000000001,-13.994324178264941
-0.2127,-14.079206856256844
-0.2137000000000001,-14.217848563643619
-0.2147,-14.26028990263957
-0.2157000000000001,-14.415908145624723
-0.2167,-14.472496597619326
-0.21770000000000012,-14.514937936615278
-0.2187,-14.65640906660178
-0.21970000000000012,-14.741291744593681
-0.2207,-14.797880196588284
-0.22170000000000012,-14.925204213576137
-0.2227,-14.98179266557074
-0.22370000000000012,-15.080822456561293
-0.2247,-15.222293586547794
-0.22570000000000012,-15.264734925543747
-0.2267,-15.3920589425316
-0.22770000000000012,-15.547677185516752
-0.22870000000000001,-15.590118524512702
-0.22970000000000013,-15.731589654499205
-0.23070000000000002,-15.830619445489761
-0.23170000000000013,-15.901355010483012
-0.23270000000000002,-16.085267479465468
-0.23370000000000013,-16.15600304445872
-0.23470000000000002,-16.25503283544927
-0.23570000000000013,-16.410651078434423
-0.23670000000000002,-16.481386643427676
-0.2376999999999999,-16.637004886412832
-0.23870000000000002,-16.778476016399335
-0.2396999999999999,-16.820917355395284
-0.24070000000000003,-17.00482982437774
-0.24169999999999991,-17.103859615368293
-0.24270000000000003,-17.217036519357496
-0.24369999999999992,-17.429243214337255
-0.24470000000000003,-17.48583166633185
-0.24569999999999992,-17.599008570321057
-0.24670000000000003,-17.782921039303513
-0.24769999999999992,-17.867803717295413
-0.24870000000000003,-18.05171618627787
-0.24969999999999992,-18.19318731626437
-0.25070000000000003,-18.263922881257624
-0.2516999999999999,-18.461982463238726
-0.25270000000000004,-18.57515936722793
-0.2536999999999999,-18.702483384215785
-0.25470000000000004,-18.92883719219419
-0.2556999999999999,-18.97127853119014
-0.25670000000000004,-19.112749661176647
-0.25769999999999993,-19.3249563561564
-0.25870000000000004,-19.423986147146955
-0.25969999999999993,-19.622045729128057
-0.26070000000000004,-19.77766397211321
-0.26169999999999993,-19.848399537106463
-0.26270000000000004,-20.07475334508487
-0.26369999999999993,-20.230371588070028
-0.26470000000000005,-20.329401379060574
-0.26569999999999994,-20.52746096104168
-0.26670000000000005,-20.683079204026836
-0.26769999999999994,-20.810403221014692
-0.26870000000000005,-21.065051254990397
-0.26969999999999994,-21.121639706984997
-0.27070000000000005,-21.30555217596745
-0.27169999999999994,-21.51775887094721
-0.27270000000000005,-21.58849443594046
-0.27369999999999994,-21.828995356917517
-0.27470000000000006,-21.99876071290132
-0.27569999999999995,-22.069496277894572
-0.27670000000000006,-22.309997198871628
-0.27769999999999995,-22.46561544185678
-0.27870000000000006,-22.621233684841933
-0.27969999999999995,-22.861734605818995
-0.28070000000000006,-22.960764396809545
-0.28169999999999995,-23.102235526796047
-0.28270000000000006,-23.356883560771752
-0.28369999999999995,-23.47006046476096
-0.28470000000000006,-23.66812004674206
-0.28569999999999995,-23.88032674172182
-0.28670000000000007,-23.951062306715073
-0.28769999999999996,-24.17741611469348
-0.28870000000000007,-24.40376992267188
-0.28969999999999996,-24.488652600663784
-0.29070000000000007,-24.729153521640843
-0.29169999999999996,-24.9130659906233
-0.29270000000000007,-24.983801555616548
-0.29369999999999996,-25.252596702590903
-0.2947000000000001,-25.42236205857471
-0.29569999999999996,-25.521391849565262
-0.2967000000000001,-25.81848122253692
-0.29769999999999996,-25.988246578520723
-0.2987000000000001,-26.044835030515326
-0.29969999999999997,-26.29948306449103
-0.3007000000000001,-26.440954194477534
-0.30169999999999997,-26.59657243746269
-0.3027000000000001,-26.879514697435695
-0.30369999999999997,-26.95025026242895
-0.3047000000000001,-27.134162731411404
-0.30569999999999997,-27.417104991384413
-0.3067000000000001,-27.473693443379013
-0.3077,-27.671753025360115
-0.3087000000000001,-27.926401059335824
-0.3097,-27.98298951133043
-0.3107000000000001,-28.22349043230748
-0.3117,-28.407402901289935
-0.3127000000000001,-28.52057980527914
-0.3137,-28.789374952253496
-0.3147000000000001,-28.91669896924135
-0.3157,-29.044022986229205
-0.3167000000000001,-29.31281813320356
-0.3177,-29.39770081119546
-0.3187000000000001,-29.59576039317657
-0.3197,-29.80796708815632
-0.3207000000000001,-29.892849766148224
-0.3217,-30.147497800123933
-0.3227000000000001,-30.274821817111786
-0.3237,-30.43044006009694
-0.3247000000000001,-30.685088094072643
-0.3257,-30.7558236590659
-0.3267000000000001,-30.939736128048356
-0.3277,-31.137795710029454
-0.3287000000000001,-31.250972614018657
-0.3297,-31.519767760993016
-0.3307000000000001,-31.618797551983565
-0.3317,-31.76026868197007
-0.3327000000000001,-32.02906382894443
-0.3337,-32.11394650693633
-0.3347000000000001,-32.340300314914735
-0.3357,-32.51006567089854
-0.3367000000000001,-32.58080123589179
-0.3377,-32.84959638286615
-0.3387000000000001,-32.99106751285265
-0.3397,-33.160832868836465
-0.3407000000000001,-33.373039563816214
-0.3417,-33.45792224180811
-0.3427000000000001,-33.68427604978652
-0.3437,-33.89648274476628
-0.3447000000000001,-33.99551253575683
-0.3457,-34.236013456733886
-0.3467000000000001,-34.36333747372174
-0.3477,-34.51895571670689
-0.3487000000000001,-34.8018979766799
-0.3497,-34.90092776767045
-0.3507000000000001,-35.14142868864751
-0.3517,-35.367782496625914
-0.3527000000000001,-35.42437094862052
-0.3537,-35.707313208593526
-0.3547000000000001,-35.91951990357328
-0.3557,-36.06099103355979
-0.35670000000000013,-36.4288159715247
-0.3577,-36.48540442351929
-0.35870000000000013,-36.7117582314977
-0.3597,-37.07958316946261
-0.36070000000000013,-37.164465847454515
-0.3617,-37.44740810742752
-0.3626999999999999,-37.758644593397825
-0.3637,-37.87182149738703
-0.3646999999999999,-38.23964643535194
-0.3657,-38.522588695324956
-0.3666999999999999,-38.692354051308754
-0.3677,-39.159208780264215
-0.3686999999999999,-39.42800392723857
-0.36970000000000003,-39.654357735216976
-0.3706999999999999,-40.10706535117379
-0.37170000000000003,-40.37586049814815
-0.3726999999999999,-40.75783254911171
-0.37370000000000003,-41.23883439106582
-0.3746999999999999,-41.49348242504152
-0.37570000000000003,-42.073514057986195
-0.3766999999999999,-42.6111043519349
-0.37770000000000004,-42.90819372490656
-0.3786999999999999,-43.57310803584313
-0.37970000000000004,-44.124845442790495
-0.3806999999999999,-44.605847284744605
-0.38170000000000004,-45.36979138667173
-0.38269999999999993,-45.99226435861234
-0.38370000000000004,-46.713767121543505
-0.38469999999999993,-47.605035240458484
-0.38570000000000004,-48.26994955139505
-0.38669999999999993,-47.520152562466585
-0.38570000000000004,-45.75176343763528
-0.38469999999999993,-44.690729962736505
-0.38370000000000004,-44.28046368577565
-0.38269999999999993,-43.71457916582963
-0.38170000000000004,-43.120400419886316
-0.3806999999999999,-42.837458159913304
-0.37970000000000004,-42.37060343095784
-0.3786999999999999,-41.97448426699564
-0.37770000000000004,-41.73398334601858
-0.3766999999999999,-41.139804600075266
-0.37570000000000003,-40.828568114104954
-0.3746999999999999,-40.5880671931279
-0.37370000000000003,-40.07877112517649
-0.3726999999999999,-39.79582886520348
-0.37170000000000003,-39.45629815323587
-0.3706999999999999,-39.03188476327636
-0.36970000000000003,-38.83382518129526
-0.3686999999999999,-38.3669704523398
-0.3677,-37.99914551437489
-0.3666999999999999,-37.78693881939513
-0.3657,-37.305936977441014
-0.3646999999999999,-36.98055337847206
-0.3637,-36.6834640055004
-0.3626999999999999,-36.230756389543586
-0.3617,-35.94781412957058
-0.36070000000000013,-35.56584207860703
-0.3597,-35.12728157564886
-0.35870000000000013,-34.8867806546718
-0.3577,-34.41992592571634
-0.35670000000000013,-33.99551253575683
-0.3557,-33.712570275783825
-0.3547000000000001,-33.245715546828364
-0.3537,-32.87789060886345
-0.3527000000000001,-32.49591855789989
-0.3517,-31.986622489948477
-0.3507000000000001,-31.689533116976815
-0.3497,-31.29341395301461
-0.3487000000000001,-30.741676546067247
-0.3477,-30.402145834099635
-0.3467000000000001,-29.991879557138777
-0.3457,-29.510877715184666
-0.3447000000000001,-29.199641229214354
-0.3437,-28.662050935265643
-0.3427000000000001,-28.19519620631018
-0.3417,-27.898106833338524
-0.3407000000000001,-27.38881076538711
-0.3397,-26.936103149430302
-0.3387000000000001,-26.59657243746269
-0.3377,-26.073129256512626
-0.3367000000000001,-25.662862979551768
-0.3357,-25.280890928588207
-0.3347000000000001,-24.785741973635442
-0.3337,-24.40376992267188
-0.3327000000000001,-24.021797871708326
-0.3317,-23.49835469075826
-0.3307000000000001,-23.13052975279335
-0.3297,-22.748557701829792
-0.3287000000000001,-22.253408746877028
-0.3277,-21.92802514790807
-0.3267000000000001,-21.47531753195126
-0.3257,-21.022609915994444
-0.3247000000000001,-20.72552054302279
-0.3237,-20.244518701068674
-0.3227000000000001,-19.834252424107817
-0.3217,-19.523015938137508
-0.3207000000000001,-19.070308322180697
-0.3197,-18.674189158218486
-0.3187000000000001,-18.334658446250877
-0.3177,-17.896097943292716
-0.3167000000000001,-17.556567231325104
-0.3157,-17.231183632356142
-0.3147000000000001,-16.778476016399335
-0.3137,-16.453092417430376
-0.3127000000000001,-16.099414592464115
-0.3117,-15.70329542850191
-0.3107000000000001,-15.406206055530248
-0.3097,-15.05252823056399
-0.3087000000000001,-14.642261953603128
-0.3077,-14.345172580631472
-0.3067000000000001,-13.995738889564809
-0.30569999999999997,-13.65903760019693
-0.3047000000000001,-13.374680628924057
-0.30369999999999997,-12.998367423159957
-0.3027000000000001,-12.671569112891135
-0.30169999999999997,-12.407018099816371
-0.3007000000000001,-12.061828542649302
-0.29969999999999997,-11.753421479278725
-0.2987000000000001,-11.473308641905447
-0.29769999999999996,-11.12528966213865
-0.2967000000000001,-10.864982782963482
-0.29569999999999996,-10.590528790789664
-0.2947000000000001,-10.272218748320032
-0.29369999999999996,-10.010497157845
-0.29270000000000007,-9.714822496173207
-0.29169999999999996,-9.430465524900336
-0.29070000000000007,-9.204111716921929
-0.28969999999999996,-8.912681189149732
-0.28870000000000007,-8.646715464775104
-0.28769999999999996,-8.400555698598588
-0.28670000000000007,-8.138834108123556
-0.28569999999999995,-7.92096856794434
-0.28470000000000006,-7.683297069567015
-0.28369999999999995,-7.407428366093333
-0.28270000000000006,-7.2022952276129
-0.28169999999999995,-6.960379595335981
-0.28070000000000006,-6.739684632557035
-0.27969999999999995,-6.543039761875795
-0.27870000000000006,-6.289806439199953
-0.27769999999999995,-6.076185032920332
-0.27670000000000006,-5.888028430038283
-0.27569999999999995,-5.6715776011589325
-0.27470000000000006,-5.489079843476342
-0.27369999999999994,-5.279702571096316
-0.27270000000000005,-5.051934051818047
-0.27169999999999994,-4.889242252333567
-0.27070000000000005,-4.706744494650977
-0.26969999999999994,-4.514343757869332
-0.26870000000000005,-4.3332607114866075
