Potential V vs RHE, Current mA cm-2
0.013299999999999867,0.04140859974704963
0.012299999999999978,-1.9650339955125358
0.011299999999999866,-3.7970851288377587
0.010299999999999976,-5.497568111275533
0.009299999999999864,-7.024041603829907
0.008299999999999974,-8.4203616567967
0.007299999999999862,-9.685113558876042
0.006299999999999972,-10.949865460955383
0.00529999999999986,-12.170761312738911
0.0042999999999999705,-13.217647674639037
0.0032999999999998586,-14.175407224647667
0.0022999999999999687,-15.05252823056399
0.0012999999999998568,-15.972090575476265
0.00029999999999996696,-16.792623129397985
-0.000700000000000145,-17.542420118326454
-0.0017000000000000348,-18.19318731626437
-0.0027000000000001467,-18.80151317520634
-0.0037000000000000366,-19.452280373144255
-0.0047000000000001485,-20.06060623208622
-0.005700000000000038,-20.584049413036283
-0.00670000000000015,-21.107492593986347
-0.00770000000000004,-21.54605309694451
-0.008700000000000152,-22.027054938898623
-0.009700000000000042,-22.508056780852733
-0.010700000000000154,-22.946617283810895
-0.011700000000000044,-23.300295108777156
-0.012700000000000156,-23.597384481748815
-0.013700000000000045,-23.908620967719123
-0.014700000000000157,-24.290593018682678
-0.015700000000000047,-24.601829504652986
-0.01670000000000016,-24.814036199632742
-0.01770000000000005,-25.0828313466071
-0.01870000000000016,-25.295038041586857
-0.01970000000000005,-25.521391849565262
-0.020700000000000163,-25.691157205549064
-0.021700000000000053,-25.86092256153287
-0.022700000000000164,-26.002393691519377
-0.023700000000000054,-26.17215904750318
-0.024700000000000166,-26.38436574248293
-0.025700000000000056,-26.525836872469437
-0.026700000000000168,-26.61071955046134
-0.027700000000000058,-26.65316088945729
-0.02870000000000017,-26.738043567449193
-0.02970000000000006,-26.907808923433
-0.03070000000000017,-27.049280053419505
-0.03170000000000006,-27.091721392415455
-0.03270000000000017,-27.091721392415455
-0.03370000000000006,-27.091721392415455
-0.034700000000000175,-27.091721392415455
-0.035700000000000065,-27.219045409403304
-0.03670000000000018,-27.176604070407354
-0.03770000000000007,-27.134162731411404
-0.03870000000000018,-27.134162731411404
-0.03970000000000007,-27.176604070407354
-0.04070000000000018,-27.176604070407354
-0.04170000000000007,-27.134162731411404
-0.04270000000000018,-27.091721392415455
-0.04370000000000007,-27.091721392415455
-0.044700000000000184,-27.134162731411404
-0.045700000000000074,-27.134162731411404
-0.046700000000000186,-27.091721392415455
-0.047700000000000076,-27.049280053419505
-0.04870000000000019,-26.9643973754276
-0.04970000000000008,-27.00683871442355
-0.05070000000000019,-27.049280053419505
-0.05170000000000008,-27.00683871442355
-0.05270000000000019,-26.907808923433
-0.05370000000000008,-26.907808923433
-0.05470000000000019,-26.907808923433
-0.05570000000000008,-26.86536758443705
-0.056700000000000195,-26.738043567449193
-0.057700000000000085,-26.69560222845324
-0.058700000000000196,-26.61071955046134
-0.059700000000000086,-26.525836872469437
-0.0607000000000002,-26.483395533473487
-0.06170000000000009,-26.440954194477534
-0.0627000000000002,-26.34192440348698
-0.06370000000000009,-26.34192440348698
-0.0647000000000002,-26.29948306449103
-0.06570000000000009,-26.257041725495082
-0.0667000000000002,-26.044835030515326
-0.0677000000000001,-25.91751101352747
-0.0687000000000002,-25.91751101352747
-0.0697000000000001,-25.81848122253692
-0.07070000000000021,-25.77603988354097
-0.0717000000000001,-25.691157205549064
-0.07270000000000021,-25.563833188561212
-0.0737000000000001,-25.521391849565262
-0.07470000000000021,-25.478950510569312
-0.0757000000000001,-25.43650917157336
-0.07670000000000021,-25.295038041586857
-0.0777000000000001,-25.12527268560305
-0.07870000000000021,-25.0828313466071
-0.0797000000000001,-25.0828313466071
-0.08070000000000022,-25.0828313466071
-0.0817000000000001,-24.95550732961925
-0.08270000000000022,-24.814036199632742
-0.08370000000000011,-24.771594860636792
-0.08470000000000022,-24.771594860636792
-0.08570000000000011,-24.771594860636792
-0.08670000000000022,-24.686712182644893
-0.08770000000000011,-24.559388165657033
-0.08870000000000022,-24.559388165657033
-0.08970000000000011,-24.516946826661083
-0.09070000000000022,-24.474505487665134
-0.09170000000000011,-24.389622809673234
-0.09270000000000023,-24.24815167968673
-0.09370000000000012,-24.24815167968673
-0.09470000000000023,-24.24815167968673
-0.09570000000000012,-24.20571034069078
-0.09670000000000023,-24.035944984706973
-0.09770000000000012,-23.951062306715073
-0.09870000000000023,-23.908620967719123
-0.09970000000000012,-23.951062306715073
-0.10070000000000023,-23.908620967719123
-0.10170000000000012,-23.767149837732617
-0.10270000000000024,-23.682267159740714
-0.10370000000000013,-23.639825820744765
-0.10470000000000024,-23.639825820744765
-0.10570000000000013,-23.639825820744765
-0.10670000000000024,-23.55494314275286
-0.10770000000000013,-23.427619125765005
-0.10870000000000024,-23.385177786769056
-0.10970000000000013,-23.427619125765005
-0.11070000000000024,-23.427619125765005
-0.11170000000000013,-23.300295108777156
-0.11270000000000002,-23.24370665678255
-0.11370000000000013,-23.24370665678255
-0.11470000000000002,-23.2012653177866
-0.11570000000000014,-23.2012653177866
-0.11670000000000003,-23.1163826397947
-0.11770000000000014,-23.031499961802798
-0.11870000000000003,-23.073941300798747
-0.11970000000000014,-23.031499961802798
-0.12070000000000003,-22.989058622806844
-0.12170000000000014,-22.904175944814945
-0.12270000000000003,-22.819293266823045
-0.12370000000000014,-22.819293266823045
-0.12470000000000003,-22.861734605818995
-0.12570000000000014,-22.861734605818995
-0.12670000000000003,-22.776851927827092
-0.12770000000000015,-22.63538079784059
-0.12870000000000004,-22.63538079784059
-0.12970000000000015,-22.63538079784059
-0.13070000000000004,-22.592939458844636
-0.13170000000000015,-22.508056780852733
-0.13270000000000004,-22.46561544185678
-0.13370000000000015,-22.42317410286083
-0.13470000000000004,-22.46561544185678
-0.13570000000000015,-22.508056780852733
-0.13670000000000004,-22.46561544185678
-0.13770000000000016,-22.38073276386488
-0.13870000000000005,-22.38073276386488
-0.13970000000000016,-22.42317410286083
-0.14070000000000005,-22.38073276386488
-0.14170000000000016,-22.38073276386488
-0.14270000000000005,-22.33829142486893
-0.14370000000000016,-22.38073276386488
-0.14470000000000005,-22.42317410286083
-0.14570000000000016,-22.42317410286083
-0.14670000000000005,-22.33829142486893
-0.14770000000000016,-22.253408746877028
-0.14870000000000005,-22.295850085872978
-0.14970000000000017,-22.295850085872978
-0.15070000000000006,-22.33829142486893
-0.15170000000000017,-22.253408746877028
-0.15270000000000006,-22.15437895588647
-0.15370000000000017,-22.111937616890522
-0.15470000000000006,-22.196820294882425
-0.15570000000000017,-22.295850085872978
-0.15670000000000006,-22.196820294882425
-0.15770000000000017,-22.15437895588647
-0.15870000000000006,-22.15437895588647
-0.15970000000000018,-22.15437895588647
-0.16070000000000007,-22.15437895588647
-0.16170000000000018,-22.069496277894572
-0.16270000000000007,-22.027054938898623
-0.16370000000000018,-22.069496277894572
-0.16470000000000007,-22.111937616890522
-0.16570000000000018,-22.15437895588647
-0.16670000000000007,-22.111937616890522
-0.16770000000000018,-22.027054938898623
-0.16870000000000007,-22.069496277894572
-0.16970000000000018,-22.111937616890522
-0.17070000000000007,-22.111937616890522
-0.17170000000000019,-22.111937616890522
-0.17270000000000008,-22.027054938898623
-0.1737000000000002,-22.069496277894572
-0.17470000000000008,-22.069496277894572
-0.1757000000000002,-22.111937616890522
-0.17670000000000008,-22.069496277894572
-0.1777000000000002,-21.98461359990267
-0.17870000000000008,-21.98461359990267
-0.1797000000000002,-22.069496277894572
-0.18070000000000008,-22.069496277894572
-0.1817000000000002,-22.069496277894572
-0.18270000000000008,-22.027054938898623
-0.1837000000000002,-22.027054938898623
-0.1847000000000001,-22.069496277894572
-0.1857000000000002,-22.069496277894572
-0.1867000000000001,-21.98461359990267
-0.1877000000000002,-21.98461359990267
-0.1887000000000001,-21.98461359990267
-0.1897000000000002,-22.069496277894572
-0.1907000000000001,-22.027054938898623
-0.1917000000000001,-21.899730921910766
-0.19269999999999998,-21.899730921910766
-0.1937000000000001,-21.94217226090672
-0.19469999999999998,-21.98461359990267
-0.1957000000000001,-22.027054938898623
-0.19669999999999999,-21.94217226090672
-0.1977000000000001,-21.857289582914817
-0.1987,-21.899730921910766
-0.1997000000000001,-21.98461359990267
-0.2007,-21.98461359990267
-0.2017000000000001,-21.94217226090672
-0.2027,-21.899730921910766
-0.2037000000000001,-21.98461359990267
-0.2047,-22.027054938898623
-0.2057000000000001,-22.027054938898623
-0.2067,-21.98461359990267
-0.2077000000000001,-21.94217226090672
-0.2087,-21.94217226090672
-0.2097000000000001,-21.98461359990267
-0.2107,-22.027054938898623
-0.2117000000000001,-21.98461359990267
-0.2127,-21.98461359990267
-0.2137000000000001,-21.98461359990267
-0.2147,-22.069496277894572
-0.2157000000000001,-22.069496277894572
-0.2167,-21.94217226090672
-0.21770000000000012,-21.94217226090672
-0.2187,-21.94217226090672
-0.21970000000000012,-21.98461359990267
-0.2207,-21.98461359990267
-0.22170000000000012,-21.94217226090672
-0.2227,-21.899730921910766
-0.22370000000000012,-21.899730921910766
-0.2247,-21.94217226090672
-0.22570000000000012,-21.98461359990267
-0.2267,-21.94217226090672
-0.22770000000000012,-21.94217226090672
-0.22870000000000001,-21.94217226090672
-0.22970000000000013,-22.027054938898623
-0.23070000000000002,-22.069496277894572
-0.23170000000000013,-21.98461359990267
-0.23270000000000002,-22.027054938898623
-0.23370000000000013,-22.069496277894572
-0.23470000000000002,-22.111937616890522
-0.23570000000000013,-22.15437895588647
-0.23670000000000002,-22.111937616890522
-0.2376999999999999,-22.069496277894572
-0.23870000000000002,-22.111937616890522
-0.2396999999999999,-22.15437895588647
-0.24070000000000003,-22.196820294882425
-0.24169999999999991,-22.196820294882425
-0.24270000000000003,-22.069496277894572
-0.24369999999999992,-22.111937616890522
-0.24470000000000003,-22.196820294882425
-0.24569999999999992,-22.196820294882425
-0.24670000000000003,-22.15437895588647
-0.24769999999999992,-22.111937616890522
-0.24870000000000003,-22.15437895588647
-0.24969999999999992,-22.196820294882425
-0.25070000000000003,-22.253408746877028
-0.2516999999999999,-22.196820294882425
-0.25270000000000004,-22.111937616890522
-0.2536999999999999,-22.196820294882425
-0.25470000000000004,-22.295850085872978
-0.2556999999999999,-22.33829142486893
-0.25670000000000004,-22.295850085872978
-0.25769999999999993,-22.295850085872978
-0.25870000000000004,-22.295850085872978
-0.25969999999999993,-22.38073276386488
-0.26070000000000004,-22.42317410286083
-0.26169999999999993,-22.38073276386488
-0.26270000000000004,-22.42317410286083
-0.26369999999999993,-22.46561544185678
-0.26470000000000005,-22.550498119848687
-0.26569999999999994,-22.63538079784059
-0.26670000000000005,-22.592939458844636
-0.26769999999999994,-22.550498119848687
-0.26870000000000005,-22.592939458844636
-0.26969999999999994,-22.72026347583249
-0.27070000000000005,-22.776851927827092
-0.27169999999999994,-22.72026347583249
-0.27270000000000005,-22.72026347583249
-0.27369999999999994,-22.776851927827092
-0.27470000000000006,-22.861734605818995
-0.27569999999999995,-22.904175944814945
-0.27670000000000006,-22.861734605818995
-0.27769999999999995,-22.861734605818995
-0.27870000000000006,-22.946617283810895
-0.27969999999999995,-23.031499961802798
-0.28070000000000006,-23.1163826397947
-0.28169999999999995,-23.073941300798747
-0.28270000000000006,-23.031499961802798
-0.28369999999999995,-23.1163826397947
-0.28470000000000006,-23.24370665678255
-0.28569999999999995,-23.300295108777156
-0.28670000000000007,-23.300295108777156
-0.28769999999999996,-23.300295108777156
-0.28870000000000007,-23.385177786769056
-0.28969999999999996,-23.55494314275286
-0.29070000000000007,-23.597384481748815
-0.29169999999999996,-23.51250180375691
-0.29270000000000007,-23.55494314275286
-0.29369999999999996,-23.639825820744765
-0.2947000000000001,-23.767149837732617
-0.29569999999999996,-23.767149837732617
-0.2967000000000001,-23.823738289727217
-0.29769999999999996,-23.823738289727217
-0.2987000000000001,-23.908620967719123
-0.29969999999999997,-23.993503645711023
-0.3007000000000001,-24.078386323702922
-0.30169999999999997,-24.078386323702922
-0.3027000000000001,-24.120827662698876
-0.30369999999999997,-24.20571034069078
-0.3047000000000001,-24.34718147067728
-0.30569999999999997,-24.432064148669184
-0.3067000000000001,-24.432064148669184
-0.3077,-24.474505487665134
-0.3087000000000001,-24.601829504652986
-0.3097,-24.814036199632742
-0.3107000000000001,-24.9130659906233
-0.3117,-24.95550732961925
-0.3127000000000001,-24.997948668615198
-0.3137,-25.0828313466071
-0.3147000000000001,-25.252596702590903
-0.3157,-25.337479380582806
-0.3167000000000001,-25.39406783257741
-0.3177,-25.39406783257741
-0.3187000000000001,-25.478950510569312
-0.3197,-25.60627452755716
-0.3207000000000001,-25.73359854454502
-0.3217,-25.77603988354097
-0.3227000000000001,-25.86092256153287
-0.3237,-26.002393691519377
-0.3247000000000001,-26.129717708507226
-0.3257,-26.257041725495082
-0.3267000000000001,-26.34192440348698
-0.3277,-26.440954194477534
-0.3287000000000001,-26.61071955046134
-0.3297,-26.780484906445146
-0.3307000000000001,-26.9643973754276
-0.3317,-27.091721392415455
-0.3327000000000001,-27.176604070407354
-0.3337,-27.34636942639116
-0.3347000000000001,-27.572723234369565
-0.3357,-27.700047251357418
-0.3367000000000001,-27.78492992934932
-0.3377,-27.912253946337174
-0.3387000000000001,-28.09616641531963
-0.3397,-28.265931771303435
-0.3407000000000001,-28.478138466283188
-0.3417,-28.662050935265643
-0.3427000000000001,-28.789374952253496
-0.3437,-28.959140308237306
-0.3447000000000001,-29.22793545521166
-0.3457,-29.39770081119546
-0.3467000000000001,-29.482583489187363
-0.3477,-29.62405461917387
-0.3487000000000001,-29.878702653149578
-0.3497,-30.189939139119886
-0.3507000000000001,-30.402145834099635
-0.3517,-30.529469851087494
-0.3527000000000001,-30.79826499806185
-0.3537,-30.968030354045652
-0.3547000000000001,-31.23682550102001
-0.3557,-31.533914873991666
-0.35670000000000013,-31.661238890979522
-0.3577,-31.930034037953877
-0.35870000000000013,-32.184682071929586
-0.3597,-32.53835989689585
-0.36070000000000013,-32.807155043870196
-0.3617,-32.93447906085806
-0.3626999999999999,-33.06180307784591
-0.3637,-33.373039563816214
-0.3646999999999999,-33.670128936787876
-0.3657,-33.98136542275818
-0.3666999999999999,-34.15113077874198
-0.3677,-34.33504324772444
-0.3686999999999999,-34.632132620696105
-0.36970000000000003,-35.02825178465831
-0.3706999999999999,-35.282899818634014
-0.37170000000000003,-35.594136304604326
-0.3726999999999999,-35.806342999584075
-0.37370000000000003,-36.11757948555439
-0.3746999999999999,-36.47125731052064
-0.37570000000000003,-36.725905344496354
-0.3766999999999999,-36.95225915247476
-0.37770000000000004,-37.249348525446415
-0.3786999999999999,-37.60302635041268
-0.37970000000000004,-38.04158685337084
-0.3806999999999999,-38.29623488734655
-0.38170000000000004,-38.522588695324956
-0.38269999999999993,-38.86211940729255
-0.38370000000000004,-39.258238571254765
-0.38469999999999993,-39.654357735216976
-0.38570000000000004,-39.99388844718459
-0.38669999999999993,-38.777236729300654
-0.38570000000000004,-35.198017140642115
-0.38469999999999993,-32.283711862920136
-0.38370000000000004,-29.836261314153624
-0.38269999999999993,-27.615164573365515
-0.38170000000000004,-25.648715866553115
-0.3806999999999999,-23.951062306715073
-0.37970000000000004,-22.46561544185678
-0.3786999999999999,-21.149933932982297
-0.37770000000000004,-19.890840876102416
-0.3766999999999999,-18.716630497214435
-0.37570000000000003,-17.627302796318357
-0.3746999999999999,-16.70774045140608
-0.37370000000000003,-15.91550212348166
-0.3726999999999999,-15.094969569559943
-0.37170000000000003,-14.26028990263957
-0.3706999999999999,-13.47936926511407
-0.36970000000000003,-12.825772644576423
-0.3686999999999999,-12.214617363034726
-0.3677,-11.56102074249708
-0.3666999999999999,-10.863568071663616
-0.3657,-10.296268840417738
-0.3646999999999999,-9.772825659467674
-0.3637,-9.293238528813426
-0.3626999999999999,-8.769795347863363
-0.3617,-8.202496116617484
-0.36070000000000013,-7.679052935667419
-0.3597,-7.199465805013171
-0.35870000000000013,-6.806176063650692
-0.3577,-6.37044498329226
-0.35670000000000013,-5.847001802342197
-0.3557,-5.411270721983764
-0.3547000000000001,-5.017980980621284
-0.3537,-4.668547289554621
-0.3527000000000001,-4.276672259492005
-0.3517,-3.840941179133574
-0.3507000000000001,-3.403795387475278
-0.3497,-3.0996324580042955
-0.3487000000000001,-2.794054817233447
-0.3477,-2.4007650758709675
-0.3467000000000001,-2.008890045808352
-0.3457,-1.6594563547416883
-0.3447000000000001,-1.3543031273607997
-0.3437,-1.0925815368857679
-0.3427000000000001,-0.7437137303390498
-0.3417,-0.3947044526623452
-0.3407000000000001,-0.002205534916489592
-0.3397,0.2594580523952477
-0.3387000000000001,0.4776065348344364
-0.3377,0.7829012333453113
-0.3367000000000001,1.1317690398920295
-0.3357,1.4373466806628774
-0.3347000000000001,1.7429243214337253
-0.3337,1.9169338113171246
-0.3327000000000001,2.178655401792157
-0.3317,2.5280890928588207
-0.3307000000000001,2.7898106833338523
-0.3297,3.0076762235130676
-0.3287000000000001,3.225541763692284
-0.3277,3.4872633541673155
-0.3267000000000001,3.748984944642347
-0.3257,4.01070653511738
-0.3247000000000001,4.2285720752965945
-0.3237,4.402581565179994
-0.3227000000000001,4.6218618166590755
-0.3217,4.926024746130058
-0.3207000000000001,5.145304997609139
-0.3197,5.319314487492538
-0.3187000000000001,5.493323977375938
-0.3177,5.7111895175551535
-0.3167000000000001,5.929055057734368
-0.3157,6.1907766482094
-0.3147000000000001,6.322344799096849
-0.3137,6.452498238684432
-0.3127000000000001,6.671778490163514
-0.3117,6.889644030342729
-0.3107000000000001,7.107509570521944
-0.3097,7.237663010109527
-0.3087000000000001,7.369231160996977
-0.3077,7.543240650880375
-0.3067000000000001,7.761106191059591
-0.30569999999999997,8.022827781534623
-0.3047000000000001,8.154395932422071
-0.30369999999999997,8.242108033013702
-0.3027000000000001,8.416117522897103
-0.30169999999999997,8.63398306307632
-0.3007000000000001,8.80799255295972
-0.29969999999999997,8.89570465355135
-0.2987000000000001,8.983416754142983
-0.29769999999999996,9.113570193730567
-0.2967000000000001,9.287579683613965
-0.29569999999999996,9.463003884797232
-0.2947000000000001,9.593157324384812
-0.29369999999999996,9.63701337468063
-0.29270000000000007,9.811022864564029
-0.29169999999999996,9.986447065747294
-0.29070000000000007,10.160456555630693
-0.28969999999999996,10.248168656222326
-0.28870000000000007,10.334466045514093
-0.28769999999999996,10.422178146105725
-0.28670000000000007,10.64004368628494
-0.28569999999999995,10.771611837172388
-0.28470000000000006,10.857909226464155
-0.28369999999999995,10.94562132705579
-0.28270000000000006,11.077189477943236
-0.28169999999999995,11.251198967826637
-0.28070000000000006,11.425208457710037
-0.27969999999999995,11.469064508005852
-0.27870000000000006,11.556776608597485
-0.27769999999999995,11.643073997889251
-0.27670000000000006,11.818498199072517
-0.27569999999999995,11.9486516386601
-0.27470000000000006,11.992507688955916
-0.27369999999999994,12.036363739251732
-0.27270000000000005,12.122661128543498
-0.27169999999999994,12.254229279430946
-0.27070000000000005,12.384382719018532
-0.26969999999999994,12.428238769314348
-0.26870000000000005,12.428238769314348
-0.26769999999999994,12.515950869905978
-0.26670000000000005,12.68996035978938
