Aug. 18, 2024   18:38:57
Linear Sweep Voltammetry
File: c:/users/guazh/data/20240813_batch_94_500/2024-08-15-exp124\1acid_1ac-2024-08-18t18_35_50-lsvinphos\1acid_1ac_lsv_50mvs_efin_-2100mv.bin
Data Source:  Experiment
Instrument Model:  CHI760E
Header: LSV ran at 50 mVs with Efin at -2100mV
Note: 

Init E (V) = -0.6
Final E (V) = -2.1
Scan Rate (V/s) = 0.05
Sample Interval (V) = 0.001
Quiet Time (sec) = 2
Sensitivity (A/V) = 1e-4
Comp R (ohm) = 9.0

Results:

Channel 1:
Ep = -1.775V
ip = 5.473e-4A
Ah = 5.982e-4C

Potential/V, Current/A

-0.600, 5.720e-6
-0.601, 5.848e-6
-0.602, 5.918e-6
-0.603, 5.977e-6
-0.604, 6.033e-6
-0.605, 6.085e-6
-0.606, 6.139e-6
-0.607, 6.187e-6
-0.608, 6.236e-6
-0.609, 6.287e-6
-0.610, 6.335e-6
-0.611, 6.384e-6
-0.612, 6.431e-6
-0.613, 6.479e-6
-0.614, 6.529e-6
-0.615, 6.578e-6
-0.616, 6.626e-6
-0.617, 6.672e-6
-0.618, 6.717e-6
-0.619, 6.764e-6
-0.620, 6.809e-6
-0.621, 6.857e-6
-0.622, 6.902e-6
-0.623, 6.948e-6
-0.624, 6.992e-6
-0.625, 7.038e-6
-0.626, 7.086e-6
-0.627, 7.131e-6
-0.628, 7.177e-6
-0.629, 7.222e-6
-0.630, 7.266e-6
-0.631, 7.309e-6
-0.632, 7.353e-6
-0.633, 7.399e-6
-0.634, 7.442e-6
-0.635, 7.488e-6
-0.636, 7.532e-6
-0.637, 7.573e-6
-0.638, 7.618e-6
-0.639, 7.659e-6
-0.640, 7.702e-6
-0.641, 7.747e-6
-0.642, 7.791e-6
-0.643, 7.834e-6
-0.644, 7.873e-6
-0.645, 7.915e-6
-0.646, 7.955e-6
-0.647, 7.994e-6
-0.648, 8.037e-6
-0.649, 8.080e-6
-0.650, 8.117e-6
-0.651, 8.156e-6
-0.652, 8.195e-6
-0.653, 8.236e-6
-0.654, 8.277e-6
-0.655, 8.313e-6
-0.656, 8.348e-6
-0.657, 8.383e-6
-0.658, 8.416e-6
-0.659, 8.454e-6
-0.660, 8.490e-6
-0.661, 8.527e-6
-0.662, 8.562e-6
-0.663, 8.594e-6
-0.664, 8.627e-6
-0.665, 8.660e-6
-0.666, 8.696e-6
-0.667, 8.727e-6
-0.668, 8.760e-6
-0.669, 8.789e-6
-0.670, 8.819e-6
-0.671, 8.849e-6
-0.672, 8.878e-6
-0.673, 8.906e-6
-0.674, 8.934e-6
-0.675, 8.963e-6
-0.676, 8.990e-6
-0.677, 9.018e-6
-0.678, 9.044e-6
-0.679, 9.069e-6
-0.680, 9.095e-6
-0.681, 9.121e-6
-0.682, 9.142e-6
-0.683, 9.165e-6
-0.684, 9.188e-6
-0.685, 9.214e-6
-0.686, 9.237e-6
-0.687, 9.257e-6
-0.688, 9.279e-6
-0.689, 9.298e-6
-0.690, 9.319e-6
-0.691, 9.341e-6
-0.692, 9.361e-6
-0.693, 9.377e-6
-0.694, 9.394e-6
-0.695, 9.409e-6
-0.696, 9.429e-6
-0.697, 9.444e-6
-0.698, 9.460e-6
-0.699, 9.476e-6
-0.700, 9.491e-6
-0.701, 9.508e-6
-0.702, 9.521e-6
-0.703, 9.533e-6
-0.704, 9.545e-6
-0.705, 9.557e-6
-0.706, 9.569e-6
-0.707, 9.580e-6
-0.708, 9.592e-6
-0.709, 9.601e-6
-0.710, 9.612e-6
-0.711, 9.621e-6
-0.712, 9.629e-6
-0.713, 9.638e-6
-0.714, 9.645e-6
-0.715, 9.652e-6
-0.716, 9.659e-6
-0.717, 9.663e-6
-0.718, 9.669e-6
-0.719, 9.676e-6
-0.720, 9.680e-6
-0.721, 9.690e-6
-0.722, 9.690e-6
-0.723, 9.696e-6
-0.724, 9.698e-6
-0.725, 9.701e-6
-0.726, 9.707e-6
-0.727, 9.709e-6
-0.728, 9.712e-6
-0.729, 9.712e-6
-0.730, 9.711e-6
-0.731, 9.715e-6
-0.732, 9.718e-6
-0.733, 9.717e-6
-0.734, 9.717e-6
-0.735, 9.717e-6
-0.736, 9.718e-6
-0.737, 9.715e-6
-0.738, 9.714e-6
-0.739, 9.713e-6
-0.740, 9.713e-6
-0.741, 9.711e-6
-0.742, 9.709e-6
-0.743, 9.709e-6
-0.744, 9.708e-6
-0.745, 9.706e-6
-0.746, 9.705e-6
-0.747, 9.702e-6
-0.748, 9.697e-6
-0.749, 9.692e-6
-0.750, 9.689e-6
-0.751, 9.689e-6
-0.752, 9.682e-6
-0.753, 9.678e-6
-0.754, 9.674e-6
-0.755, 9.673e-6
-0.756, 9.670e-6
-0.757, 9.668e-6
-0.758, 9.662e-6
-0.759, 9.659e-6
-0.760, 9.651e-6
-0.761, 9.650e-6
-0.762, 9.644e-6
-0.763, 9.638e-6
-0.764, 9.632e-6
-0.765, 9.629e-6
-0.766, 9.628e-6
-0.767, 9.624e-6
-0.768, 9.625e-6
-0.769, 9.623e-6
-0.770, 9.618e-6
-0.771, 9.613e-6
-0.772, 9.600e-6
-0.773, 9.596e-6
-0.774, 9.596e-6
-0.775, 9.590e-6
-0.776, 9.586e-6
-0.777, 9.580e-6
-0.778, 9.577e-6
-0.779, 9.572e-6
-0.780, 9.570e-6
-0.781, 9.567e-6
-0.782, 9.563e-6
-0.783, 9.560e-6
-0.784, 9.558e-6
-0.785, 9.552e-6
-0.786, 9.552e-6
-0.787, 9.545e-6
-0.788, 9.542e-6
-0.789, 9.534e-6
-0.790, 9.529e-6
-0.791, 9.525e-6
-0.792, 9.519e-6
-0.793, 9.517e-6
-0.794, 9.513e-6
-0.795, 9.510e-6
-0.796, 9.502e-6
-0.797, 9.492e-6
-0.798, 9.483e-6
-0.799, 9.476e-6
-0.800, 9.470e-6
-0.801, 9.465e-6
-0.802, 9.454e-6
-0.803, 9.450e-6
-0.804, 9.443e-6
-0.805, 9.438e-6
-0.806, 9.434e-6
-0.807, 9.427e-6
-0.808, 9.427e-6
-0.809, 9.419e-6
-0.810, 9.412e-6
-0.811, 9.408e-6
-0.812, 9.400e-6
-0.813, 9.394e-6
-0.814, 9.389e-6
-0.815, 9.384e-6
-0.816, 9.380e-6
-0.817, 9.372e-6
-0.818, 9.368e-6
-0.819, 9.370e-6
-0.820, 9.368e-6
-0.821, 9.363e-6
-0.822, 9.352e-6
-0.823, 9.341e-6
-0.824, 9.337e-6
-0.825, 9.336e-6
-0.826, 9.333e-6
-0.827, 9.324e-6
-0.828, 9.311e-6
-0.829, 9.300e-6
-0.830, 9.291e-6
-0.831, 9.282e-6
-0.832, 9.277e-6
-0.833, 9.275e-6
-0.834, 9.267e-6
-0.835, 9.258e-6
-0.836, 9.249e-6
-0.837, 9.241e-6
-0.838, 9.233e-6
-0.839, 9.227e-6
-0.840, 9.213e-6
-0.841, 9.208e-6
-0.842, 9.203e-6
-0.843, 9.195e-6
-0.844, 9.190e-6
-0.845, 9.183e-6
-0.846, 9.177e-6
-0.847, 9.169e-6
-0.848, 9.159e-6
-0.849, 9.155e-6
-0.850, 9.150e-6
-0.851, 9.143e-6
-0.852, 9.136e-6
-0.853, 9.130e-6
-0.854, 9.125e-6
-0.855, 9.122e-6
-0.856, 9.120e-6
-0.857, 9.110e-6
-0.858, 9.107e-6
-0.859, 9.102e-6
-0.860, 9.095e-6
-0.861, 9.090e-6
-0.862, 9.089e-6
-0.863, 9.087e-6
-0.864, 9.080e-6
-0.865, 9.075e-6
-0.866, 9.069e-6
-0.867, 9.067e-6
-0.868, 9.062e-6
-0.869, 9.061e-6
-0.870, 9.048e-6
-0.871, 9.046e-6
-0.872, 9.038e-6
-0.873, 9.030e-6
-0.874, 9.021e-6
-0.875, 9.013e-6
-0.876, 9.010e-6
-0.877, 9.013e-6
-0.878, 9.011e-6
-0.879, 9.009e-6
-0.880, 9.010e-6
-0.881, 9.004e-6
-0.882, 8.997e-6
-0.883, 9.001e-6
-0.884, 9.003e-6
-0.885, 8.998e-6
-0.886, 8.990e-6
-0.887, 8.987e-6
-0.888, 8.979e-6
-0.889, 8.971e-6
-0.890, 8.967e-6
-0.891, 8.965e-6
-0.892, 8.967e-6
-0.893, 8.958e-6
-0.894, 8.948e-6
-0.895, 8.945e-6
-0.896, 8.952e-6
-0.897, 8.947e-6
-0.898, 8.931e-6
-0.899, 8.935e-6
-0.900, 8.932e-6
-0.901, 8.931e-6
-0.902, 8.931e-6
-0.903, 8.931e-6
-0.904, 8.919e-6
-0.905, 8.912e-6
-0.906, 8.916e-6
-0.907, 8.914e-6
-0.908, 8.913e-6
-0.909, 8.913e-6
-0.910, 8.926e-6
-0.911, 8.926e-6
-0.912, 8.930e-6
-0.913, 8.924e-6
-0.914, 8.910e-6
-0.915, 8.907e-6
-0.916, 8.905e-6
-0.917, 8.901e-6
-0.918, 8.898e-6
-0.919, 8.899e-6
-0.920, 8.883e-6
-0.921, 8.875e-6
-0.922, 8.868e-6
-0.923, 8.868e-6
-0.924, 8.872e-6
-0.925, 8.868e-6
-0.926, 8.869e-6
-0.927, 8.880e-6
-0.928, 8.886e-6
-0.929, 8.887e-6
-0.930, 8.882e-6
-0.931, 8.887e-6
-0.932, 8.887e-6
-0.933, 8.887e-6
-0.934, 8.883e-6
-0.935, 8.888e-6
-0.936, 8.889e-6
-0.937, 8.899e-6
-0.938, 8.885e-6
-0.939, 8.874e-6
-0.940, 8.871e-6
-0.941, 8.869e-6
-0.942, 8.873e-6
-0.943, 8.867e-6
-0.944, 8.855e-6
-0.945, 8.846e-6
-0.946, 8.850e-6
-0.947, 8.864e-6
-0.948, 8.869e-6
-0.949, 8.866e-6
-0.950, 8.858e-6
-0.951, 8.859e-6
-0.952, 8.866e-6
-0.953, 8.869e-6
-0.954, 8.865e-6
-0.955, 8.863e-6
-0.956, 8.866e-6
-0.957, 8.863e-6
-0.958, 8.858e-6
-0.959, 8.855e-6
-0.960, 8.857e-6
-0.961, 8.860e-6
-0.962, 8.853e-6
-0.963, 8.844e-6
-0.964, 8.841e-6
-0.965, 8.845e-6
-0.966, 8.856e-6
-0.967, 8.859e-6
-0.968, 8.864e-6
-0.969, 8.863e-6
-0.970, 8.873e-6
-0.971, 8.878e-6
-0.972, 8.877e-6
-0.973, 8.873e-6
-0.974, 8.867e-6
-0.975, 8.873e-6
-0.976, 8.875e-6
-0.977, 8.879e-6
-0.978, 8.881e-6
-0.979, 8.875e-6
-0.980, 8.870e-6
-0.981, 8.881e-6
-0.982, 8.885e-6
-0.983, 8.884e-6
-0.984, 8.883e-6
-0.985, 8.903e-6
-0.986, 8.908e-6
-0.987, 8.910e-6
-0.988, 8.915e-6
-0.989, 8.921e-6
-0.990, 8.921e-6
-0.991, 8.924e-6
-0.992, 8.920e-6
-0.993, 8.908e-6
-0.994, 8.915e-6
-0.995, 8.910e-6
-0.996, 8.903e-6
-0.997, 8.908e-6
-0.998, 8.913e-6
-0.999, 8.917e-6
-1.000, 8.921e-6
-1.001, 8.924e-6
-1.002, 8.923e-6
-1.003, 8.933e-6
-1.004, 8.948e-6
-1.005, 8.948e-6
-1.006, 8.953e-6
-1.007, 8.967e-6
-1.008, 8.997e-6
-1.009, 9.015e-6
-1.010, 9.026e-6
-1.011, 9.037e-6
-1.012, 9.028e-6
-1.013, 9.013e-6
-1.014, 8.999e-6
-1.015, 9.024e-6
-1.016, 9.042e-6
-1.017, 9.019e-6
-1.018, 9.023e-6
-1.019, 9.035e-6
-1.020, 9.035e-6
-1.021, 9.047e-6
-1.022, 9.056e-6
-1.023, 9.062e-6
-1.024, 9.075e-6
-1.025, 9.080e-6
-1.026, 9.088e-6
-1.027, 9.093e-6
-1.028, 9.110e-6
-1.029, 9.118e-6
-1.030, 9.119e-6
-1.031, 9.120e-6
-1.032, 9.140e-6
-1.033, 9.161e-6
-1.034, 9.179e-6
-1.035, 9.182e-6
-1.036, 9.203e-6
-1.037, 9.207e-6
-1.038, 9.208e-6
-1.039, 9.205e-6
-1.040, 9.208e-6
-1.041, 9.205e-6
-1.042, 9.223e-6
-1.043, 9.260e-6
-1.044, 9.284e-6
-1.045, 9.287e-6
-1.046, 9.290e-6
-1.047, 9.289e-6
-1.048, 9.307e-6
-1.049, 9.317e-6
-1.050, 9.329e-6
-1.051, 9.333e-6
-1.052, 9.343e-6
-1.053, 9.357e-6
-1.054, 9.381e-6
-1.055, 9.419e-6
-1.056, 9.422e-6
-1.057, 9.435e-6
-1.058, 9.451e-6
-1.059, 9.456e-6
-1.060, 9.473e-6
-1.061, 9.473e-6
-1.062, 9.480e-6
-1.063, 9.490e-6
-1.064, 9.498e-6
-1.065, 9.517e-6
-1.066, 9.550e-6
-1.067, 9.572e-6
-1.068, 9.571e-6
-1.069, 9.584e-6
-1.070, 9.612e-6
-1.071, 9.631e-6
-1.072, 9.644e-6
-1.073, 9.671e-6
-1.074, 9.691e-6
-1.075, 9.710e-6
-1.076, 9.717e-6
-1.077, 9.729e-6
-1.078, 9.747e-6
-1.079, 9.767e-6
-1.080, 9.783e-6
-1.081, 9.799e-6
-1.082, 9.820e-6
-1.083, 9.844e-6
-1.084, 9.855e-6
-1.085, 9.867e-6
-1.086, 9.884e-6
-1.087, 9.898e-6
-1.088, 9.904e-6
-1.089, 9.918e-6
-1.090, 9.941e-6
-1.091, 9.956e-6
-1.092, 9.985e-6
-1.093, 9.997e-6
-1.094, 1.003e-5
-1.095, 1.005e-5
-1.096, 1.007e-5
-1.097, 1.009e-5
-1.098, 1.010e-5
-1.099, 1.011e-5
-1.100, 1.015e-5
-1.101, 1.018e-5
-1.102, 1.020e-5
-1.103, 1.021e-5
-1.104, 1.023e-5
-1.105, 1.026e-5
-1.106, 1.028e-5
-1.107, 1.030e-5
-1.108, 1.031e-5
-1.109, 1.034e-5
-1.110, 1.036e-5
-1.111, 1.038e-5
-1.112, 1.039e-5
-1.113, 1.042e-5
-1.114, 1.044e-5
-1.115, 1.046e-5
-1.116, 1.050e-5
-1.117, 1.050e-5
-1.118, 1.054e-5
-1.119, 1.055e-5
-1.120, 1.060e-5
-1.121, 1.065e-5
-1.122, 1.072e-5
-1.123, 1.073e-5
-1.124, 1.073e-5
-1.125, 1.074e-5
-1.126, 1.077e-5
-1.127, 1.079e-5
-1.128, 1.083e-5
-1.129, 1.087e-5
-1.130, 1.088e-5
-1.131, 1.091e-5
-1.132, 1.092e-5
-1.133, 1.092e-5
-1.134, 1.094e-5
-1.135, 1.098e-5
-1.136, 1.101e-5
-1.137, 1.103e-5
-1.138, 1.104e-5
-1.139, 1.104e-5
-1.140, 1.107e-5
-1.141, 1.111e-5
-1.142, 1.113e-5
-1.143, 1.115e-5
-1.144, 1.119e-5
-1.145, 1.121e-5
-1.146, 1.124e-5
-1.147, 1.128e-5
-1.148, 1.129e-5
-1.149, 1.130e-5
-1.150, 1.131e-5
-1.151, 1.134e-5
-1.152, 1.138e-5
-1.153, 1.142e-5
-1.154, 1.144e-5
-1.155, 1.147e-5
-1.156, 1.149e-5
-1.157, 1.152e-5
-1.158, 1.155e-5
-1.159, 1.158e-5
-1.160, 1.158e-5
-1.161, 1.158e-5
-1.162, 1.163e-5
-1.163, 1.165e-5
-1.164, 1.168e-5
-1.165, 1.172e-5
-1.166, 1.177e-5
-1.167, 1.177e-5
-1.168, 1.181e-5
-1.169, 1.185e-5
-1.170, 1.188e-5
-1.171, 1.190e-5
-1.172, 1.191e-5
-1.173, 1.196e-5
-1.174, 1.199e-5
-1.175, 1.200e-5
-1.176, 1.202e-5
-1.177, 1.205e-5
-1.178, 1.208e-5
-1.179, 1.212e-5
-1.180, 1.216e-5
-1.181, 1.219e-5
-1.182, 1.223e-5
-1.183, 1.226e-5
-1.184, 1.230e-5
-1.185, 1.234e-5
-1.186, 1.237e-5
-1.187, 1.239e-5
-1.188, 1.241e-5
-1.189, 1.245e-5
-1.190, 1.249e-5
-1.191, 1.251e-5
-1.192, 1.256e-5
-1.193, 1.259e-5
-1.194, 1.264e-5
-1.195, 1.269e-5
-1.196, 1.272e-5
-1.197, 1.274e-5
-1.198, 1.278e-5
-1.199, 1.281e-5
-1.200, 1.282e-5
-1.201, 1.285e-5
-1.202, 1.288e-5
-1.203, 1.291e-5
-1.204, 1.297e-5
-1.205, 1.300e-5
-1.206, 1.305e-5
-1.207, 1.309e-5
-1.208, 1.312e-5
-1.209, 1.317e-5
-1.210, 1.320e-5
-1.211, 1.323e-5
-1.212, 1.328e-5
-1.213, 1.334e-5
-1.214, 1.339e-5
-1.215, 1.343e-5
-1.216, 1.347e-5
-1.217, 1.351e-5
-1.218, 1.354e-5
-1.219, 1.359e-5
-1.220, 1.363e-5
-1.221, 1.364e-5
-1.222, 1.367e-5
-1.223, 1.371e-5
-1.224, 1.375e-5
-1.225, 1.378e-5
-1.226, 1.382e-5
-1.227, 1.387e-5
-1.228, 1.391e-5
-1.229, 1.392e-5
-1.230, 1.397e-5
-1.231, 1.402e-5
-1.232, 1.407e-5
-1.233, 1.411e-5
-1.234, 1.414e-5
-1.235, 1.419e-5
-1.236, 1.424e-5
-1.237, 1.428e-5
-1.238, 1.434e-5
-1.239, 1.441e-5
-1.240, 1.451e-5
-1.241, 1.454e-5
-1.242, 1.458e-5
-1.243, 1.462e-5
-1.244, 1.468e-5
-1.245, 1.474e-5
-1.246, 1.474e-5
-1.247, 1.475e-5
-1.248, 1.478e-5
-1.249, 1.482e-5
-1.250, 1.486e-5
-1.251, 1.493e-5
-1.252, 1.496e-5
-1.253, 1.500e-5
-1.254, 1.507e-5
-1.255, 1.513e-5
-1.256, 1.515e-5
-1.257, 1.521e-5
-1.258, 1.527e-5
-1.259, 1.536e-5
-1.260, 1.543e-5
-1.261, 1.549e-5
-1.262, 1.551e-5
-1.263, 1.555e-5
-1.264, 1.558e-5
-1.265, 1.564e-5
-1.266, 1.571e-5
-1.267, 1.576e-5
-1.268, 1.581e-5
-1.269, 1.585e-5
-1.270, 1.591e-5
-1.271, 1.596e-5
-1.272, 1.603e-5
-1.273, 1.609e-5
-1.274, 1.615e-5
-1.275, 1.620e-5
-1.276, 1.626e-5
-1.277, 1.632e-5
-1.278, 1.642e-5
-1.279, 1.650e-5
-1.280, 1.658e-5
-1.281, 1.667e-5
-1.282, 1.670e-5
-1.283, 1.674e-5
-1.284, 1.682e-5
-1.285, 1.688e-5
-1.286, 1.694e-5
-1.287, 1.700e-5
-1.288, 1.706e-5
-1.289, 1.713e-5
-1.290, 1.719e-5
-1.291, 1.727e-5
-1.292, 1.735e-5
-1.293, 1.742e-5
-1.294, 1.748e-5
-1.295, 1.755e-5
-1.296, 1.761e-5
-1.297, 1.768e-5
-1.298, 1.775e-5
-1.299, 1.783e-5
-1.300, 1.790e-5
-1.301, 1.797e-5
-1.302, 1.803e-5
-1.303, 1.810e-5
-1.304, 1.820e-5
-1.305, 1.830e-5
-1.306, 1.836e-5
-1.307, 1.843e-5
-1.308, 1.849e-5
-1.309, 1.857e-5
-1.310, 1.866e-5
-1.311, 1.874e-5
-1.312, 1.886e-5
-1.313, 1.895e-5
-1.314, 1.902e-5
-1.315, 1.906e-5
-1.316, 1.913e-5
-1.317, 1.925e-5
-1.318, 1.931e-5
-1.319, 1.938e-5
-1.320, 1.947e-5
-1.321, 1.957e-5
-1.322, 1.969e-5
-1.323, 1.986e-5
-1.324, 2.000e-5
-1.325, 2.002e-5
-1.326, 2.006e-5
-1.327, 2.010e-5
-1.328, 2.018e-5
-1.329, 2.025e-5
-1.330, 2.035e-5
-1.331, 2.047e-5
-1.332, 2.056e-5
-1.333, 2.064e-5
-1.334, 2.075e-5
-1.335, 2.086e-5
-1.336, 2.098e-5
-1.337, 2.109e-5
-1.338, 2.121e-5
-1.339, 2.135e-5
-1.340, 2.149e-5
-1.341, 2.159e-5
-1.342, 2.166e-5
-1.343, 2.175e-5
-1.344, 2.186e-5
-1.345, 2.196e-5
-1.346, 2.206e-5
-1.347, 2.214e-5
-1.348, 2.224e-5
-1.349, 2.239e-5
-1.350, 2.255e-5
-1.351, 2.266e-5
-1.352, 2.279e-5
-1.353, 2.295e-5
-1.354, 2.305e-5
-1.355, 2.319e-5
-1.356, 2.332e-5
-1.357, 2.344e-5
-1.358, 2.356e-5
-1.359, 2.366e-5
-1.360, 2.370e-5
-1.361, 2.385e-5
-1.362, 2.403e-5
-1.363, 2.415e-5
-1.364, 2.434e-5
-1.365, 2.457e-5
-1.366, 2.487e-5
-1.367, 2.503e-5
-1.368, 2.505e-5
-1.369, 2.523e-5
-1.370, 2.541e-5
-1.371, 2.550e-5
-1.372, 2.561e-5
-1.373, 2.574e-5
-1.374, 2.592e-5
-1.375, 2.608e-5
-1.376, 2.625e-5
-1.377, 2.644e-5
-1.378, 2.666e-5
-1.379, 2.680e-5
-1.380, 2.697e-5
-1.381, 2.704e-5
-1.382, 2.722e-5
-1.383, 2.740e-5
-1.384, 2.757e-5
-1.385, 2.774e-5
-1.386, 2.792e-5
-1.387, 2.813e-5
-1.388, 2.844e-5
-1.389, 2.862e-5
-1.390, 2.878e-5
-1.391, 2.906e-5
-1.392, 2.941e-5
-1.393, 2.960e-5
-1.394, 2.980e-5
-1.395, 3.004e-5
-1.396, 3.038e-5
-1.397, 3.079e-5
-1.398, 3.118e-5
-1.399, 3.140e-5
-1.400, 3.152e-5
-1.401, 3.173e-5
-1.402, 3.195e-5
-1.403, 3.221e-5
-1.404, 3.235e-5
-1.405, 3.258e-5
-1.406, 3.281e-5
-1.407, 3.306e-5
-1.408, 3.325e-5
-1.409, 3.346e-5
-1.410, 3.373e-5
-1.411, 3.400e-5
-1.412, 3.426e-5
-1.413, 3.457e-5
-1.414, 3.482e-5
-1.415, 3.508e-5
-1.416, 3.527e-5
-1.417, 3.561e-5
-1.418, 3.596e-5
-1.419, 3.636e-5
-1.420, 3.666e-5
-1.421, 3.685e-5
-1.422, 3.722e-5
-1.423, 3.750e-5
-1.424, 3.779e-5
-1.425, 3.815e-5
-1.426, 3.851e-5
-1.427, 3.901e-5
-1.428, 3.953e-5
-1.429, 4.002e-5
-1.430, 4.044e-5
-1.431, 4.082e-5
-1.432, 4.079e-5
-1.433, 4.091e-5
-1.434, 4.125e-5
-1.435, 4.162e-5
-1.436, 4.201e-5
-1.437, 4.240e-5
-1.438, 4.277e-5
-1.439, 4.313e-5
-1.440, 4.355e-5
-1.441, 4.396e-5
-1.442, 4.439e-5
-1.443, 4.482e-5
-1.444, 4.528e-5
-1.445, 4.563e-5
-1.446, 4.603e-5
-1.447, 4.651e-5
-1.448, 4.694e-5
-1.449, 4.738e-5
-1.450, 4.786e-5
-1.451, 4.839e-5
-1.452, 4.891e-5
-1.453, 4.938e-5
-1.454, 4.981e-5
-1.455, 5.033e-5
-1.456, 5.082e-5
-1.457, 5.127e-5
-1.458, 5.172e-5
-1.459, 5.223e-5
-1.460, 5.274e-5
-1.461, 5.331e-5
-1.462, 5.382e-5
-1.463, 5.439e-5
-1.464, 5.501e-5
-1.465, 5.550e-5
-1.466, 5.605e-5
-1.467, 5.664e-5
-1.468, 5.725e-5
-1.469, 5.782e-5
-1.470, 5.848e-5
-1.471, 5.919e-5
-1.472, 5.981e-5
-1.473, 6.037e-5
-1.474, 6.107e-5
-1.475, 6.177e-5
-1.476, 6.246e-5
-1.477, 6.307e-5
-1.478, 6.376e-5
-1.479, 6.443e-5
-1.480, 6.517e-5
-1.481, 6.593e-5
-1.482, 6.656e-5
-1.483, 6.729e-5
-1.484, 6.803e-5
-1.485, 6.883e-5
-1.486, 6.959e-5
-1.487, 7.033e-5
-1.488, 7.122e-5
-1.489, 7.202e-5
-1.490, 7.280e-5
-1.491, 7.357e-5
-1.492, 7.438e-5
-1.493, 7.512e-5
-1.494, 7.586e-5
-1.495, 7.669e-5
-1.496, 7.755e-5
-1.497, 7.845e-5
-1.498, 7.935e-5
-1.499, 8.031e-5
-1.500, 8.117e-5
-1.501, 8.212e-5
-1.502, 8.308e-5
-1.503, 8.401e-5
-1.504, 8.498e-5
-1.505, 8.595e-5
-1.506, 8.704e-5
-1.507, 8.813e-5
-1.508, 8.919e-5
-1.509, 9.034e-5
-1.510, 9.115e-5
-1.511, 9.206e-5
-1.512, 9.313e-5
-1.513, 9.435e-5
-1.514, 9.557e-5
-1.515, 9.673e-5
-1.516, 9.784e-5
-1.517, 9.891e-5
-1.518, 1.002e-4
-1.519, 1.015e-4
-1.520, 1.028e-4
-1.521, 1.038e-4
-1.522, 1.048e-4
-1.523, 1.058e-4
-1.524, 1.068e-4
-1.525, 1.080e-4
-1.526, 1.093e-4
-1.527, 1.107e-4
-1.528, 1.122e-4
-1.529, 1.140e-4
-1.530, 1.153e-4
-1.531, 1.169e-4
-1.532, 1.181e-4
-1.533, 1.191e-4
-1.534, 1.207e-4
-1.535, 1.225e-4
-1.536, 1.238e-4
-1.537, 1.252e-4
-1.538, 1.264e-4
-1.539, 1.278e-4
-1.540, 1.295e-4
-1.541, 1.306e-4
-1.542, 1.317e-4
-1.543, 1.336e-4
-1.544, 1.345e-4
-1.545, 1.353e-4
-1.546, 1.367e-4
-1.547, 1.380e-4
-1.548, 1.395e-4
-1.549, 1.412e-4
-1.550, 1.427e-4
-1.551, 1.444e-4
-1.552, 1.462e-4
-1.553, 1.476e-4
-1.554, 1.490e-4
-1.555, 1.504e-4
-1.556, 1.519e-4
-1.557, 1.534e-4
-1.558, 1.551e-4
-1.559, 1.569e-4
-1.560, 1.584e-4
-1.561, 1.597e-4
-1.562, 1.612e-4
-1.563, 1.627e-4
-1.564, 1.643e-4
-1.565, 1.659e-4
-1.566, 1.676e-4
-1.567, 1.692e-4
-1.568, 1.708e-4
-1.569, 1.725e-4
-1.570, 1.741e-4
-1.571, 1.757e-4
-1.572, 1.775e-4
-1.573, 1.792e-4
-1.574, 1.808e-4
-1.575, 1.824e-4
-1.576, 1.840e-4
-1.577, 1.855e-4
-1.578, 1.871e-4
-1.579, 1.889e-4
-1.580, 1.904e-4
-1.581, 1.920e-4
-1.582, 1.936e-4
-1.583, 1.953e-4
-1.584, 1.970e-4
-1.585, 1.986e-4
-1.586, 2.003e-4
-1.587, 2.020e-4
-1.588, 2.036e-4
-1.589, 2.052e-4
-1.590, 2.068e-4
-1.591, 2.084e-4
-1.592, 2.101e-4
-1.593, 2.118e-4
-1.594, 2.138e-4
-1.595, 2.160e-4
-1.596, 2.179e-4
-1.597, 2.196e-4
-1.598, 2.215e-4
-1.599, 2.232e-4
-1.600, 2.249e-4
-1.601, 2.270e-4
-1.602, 2.288e-4
-1.603, 2.307e-4
-1.604, 2.321e-4
-1.605, 2.335e-4
-1.606, 2.349e-4
-1.607, 2.364e-4
-1.608, 2.380e-4
-1.609, 2.394e-4
-1.610, 2.408e-4
-1.611, 2.422e-4
-1.612, 2.437e-4
-1.613, 2.451e-4
-1.614, 2.466e-4
-1.615, 2.481e-4
-1.616, 2.496e-4
-1.617, 2.510e-4
-1.618, 2.524e-4
-1.619, 2.540e-4
-1.620, 2.554e-4
-1.621, 2.568e-4
-1.622, 2.583e-4
-1.623, 2.597e-4
-1.624, 2.604e-4
-1.625, 2.615e-4
-1.626, 2.630e-4
-1.627, 2.644e-4
-1.628, 2.659e-4
-1.629, 2.675e-4
-1.630, 2.690e-4
-1.631, 2.705e-4
-1.632, 2.721e-4
-1.633, 2.737e-4
-1.634, 2.754e-4
-1.635, 2.771e-4
-1.636, 2.788e-4
-1.637, 2.805e-4
-1.638, 2.823e-4
-1.639, 2.843e-4
-1.640, 2.863e-4
-1.641, 2.882e-4
-1.642, 2.901e-4
-1.643, 2.920e-4
-1.644, 2.942e-4
-1.645, 2.964e-4
-1.646, 2.985e-4
-1.647, 3.007e-4
-1.648, 3.029e-4
-1.649, 3.052e-4
-1.650, 3.076e-4
-1.651, 3.100e-4
-1.652, 3.125e-4
-1.653, 3.150e-4
-1.654, 3.176e-4
-1.655, 3.202e-4
-1.656, 3.229e-4
-1.657, 3.257e-4
-1.658, 3.285e-4
-1.659, 3.315e-4
-1.660, 3.345e-4
-1.661, 3.375e-4
-1.662, 3.406e-4
-1.663, 3.437e-4
-1.664, 3.469e-4
-1.665, 3.502e-4
-1.666, 3.536e-4
-1.667, 3.571e-4
-1.668, 3.606e-4
-1.669, 3.640e-4
-1.670, 3.675e-4
-1.671, 3.711e-4
-1.672, 3.748e-4
-1.673, 3.786e-4
-1.674, 3.824e-4
-1.675, 3.864e-4
-1.676, 3.903e-4
-1.677, 3.943e-4
-1.678, 3.984e-4
-1.679, 4.025e-4
-1.680, 4.067e-4
-1.681, 4.110e-4
-1.682, 4.152e-4
-1.683, 4.196e-4
-1.684, 4.240e-4
-1.685, 4.285e-4
-1.686, 4.331e-4
-1.687, 4.377e-4
-1.688, 4.424e-4
-1.689, 4.472e-4
-1.690, 4.521e-4
-1.691, 4.569e-4
-1.692, 4.617e-4
-1.693, 4.667e-4
-1.694, 4.719e-4
-1.695, 4.770e-4
-1.696, 4.822e-4
-1.697, 4.874e-4
-1.698, 4.928e-4
-1.699, 4.981e-4
-1.700, 5.035e-4
-1.701, 5.090e-4
-1.702, 5.144e-4
-1.703, 5.200e-4
-1.704, 5.256e-4
-1.705, 5.312e-4
-1.706, 5.368e-4
-1.707, 5.423e-4
-1.708, 5.481e-4
-1.709, 5.539e-4
-1.710, 5.589e-4
-1.711, 5.642e-4
-1.712, 5.702e-4
-1.713, 5.762e-4
-1.714, 5.823e-4
-1.715, 5.885e-4
-1.716, 5.947e-4
-1.717, 6.010e-4
-1.718, 6.073e-4
-1.719, 6.137e-4
-1.720, 6.201e-4
-1.721, 6.266e-4
-1.722, 6.330e-4
-1.723, 6.396e-4
-1.724, 6.461e-4
-1.725, 6.527e-4
-1.726, 6.592e-4
-1.727, 6.659e-4
-1.728, 6.729e-4
-1.729, 6.797e-4
-1.730, 6.865e-4
-1.731, 6.932e-4
-1.732, 7.000e-4
-1.733, 7.069e-4
-1.734, 7.138e-4
-1.735, 7.205e-4
-1.736, 7.274e-4
-1.737, 7.343e-4
-1.738, 7.413e-4
-1.739, 7.482e-4
-1.740, 7.552e-4
-1.741, 7.623e-4
-1.742, 7.694e-4
-1.743, 7.766e-4
-1.744, 7.838e-4
-1.745, 7.910e-4
-1.746, 7.983e-4
-1.747, 8.057e-4
-1.748, 8.130e-4
-1.749, 8.203e-4
-1.750, 8.276e-4
-1.751, 8.350e-4
-1.752, 8.424e-4
-1.753, 8.501e-4
-1.754, 8.579e-4
-1.755, 8.653e-4
-1.756, 8.727e-4
-1.757, 8.803e-4
-1.758, 8.879e-4
-1.759, 8.954e-4
-1.760, 9.030e-4
-1.761, 9.108e-4
-1.762, 9.185e-4
-1.763, 9.262e-4
-1.764, 9.345e-4
-1.765, 9.430e-4
-1.766, 9.509e-4
-1.767, 9.586e-4
-1.768, 9.664e-4
-1.769, 9.742e-4
-1.770, 9.821e-4
-1.771, 9.899e-4
-1.772, 9.973e-4
-1.773, 1.005e-3
-1.774, 1.011e-3
-1.775, 1.011e-3
-1.776, 1.011e-3
-1.777, 1.011e-3
-1.778, 1.011e-3
-1.779, 1.011e-3
-1.780, 1.011e-3
-1.781, 1.011e-3
-1.782, 1.011e-3
-1.783, 1.011e-3
-1.784, 1.011e-3
-1.785, 1.011e-3
-1.786, 1.011e-3
-1.787, 1.011e-3
-1.788, 1.011e-3
-1.789, 1.011e-3
-1.790, 1.011e-3
-1.791, 1.011e-3
-1.792, 1.011e-3
-1.793, 1.011e-3
-1.794, 1.011e-3
-1.795, 1.011e-3
-1.796, 1.011e-3
-1.797, 1.011e-3
-1.798, 1.011e-3
-1.799, 1.011e-3
-1.800, 1.011e-3
-1.801, 1.011e-3
-1.802, 1.011e-3
-1.803, 1.011e-3
-1.804, 1.011e-3
-1.805, 1.011e-3
-1.806, 1.011e-3
-1.807, 1.011e-3
-1.808, 1.011e-3
-1.809, 1.011e-3
-1.810, 1.011e-3
-1.811, 1.011e-3
-1.812, 1.011e-3
-1.813, 1.011e-3
-1.814, 1.011e-3
-1.815, 1.011e-3
-1.816, 1.011e-3
-1.817, 1.011e-3
-1.818, 1.011e-3
-1.819, 1.011e-3
-1.820, 1.011e-3
-1.821, 1.011e-3
-1.822, 1.011e-3
-1.823, 1.011e-3
-1.824, 1.011e-3
-1.825, 1.011e-3
-1.826, 1.011e-3
-1.827, 1.011e-3
-1.828, 1.011e-3
-1.829, 1.011e-3
-1.830, 1.011e-3
-1.831, 1.011e-3
-1.832, 1.011e-3
-1.833, 1.011e-3
-1.834, 1.011e-3
-1.835, 1.011e-3
-1.836, 1.011e-3
-1.837, 1.011e-3
-1.838, 1.011e-3
-1.839, 1.011e-3
-1.840, 1.011e-3
-1.841, 1.011e-3
-1.842, 1.011e-3
-1.843, 1.011e-3
-1.844, 1.011e-3
-1.845, 1.011e-3
-1.846, 1.011e-3
-1.847, 1.011e-3
-1.848, 1.011e-3
-1.849, 1.011e-3
-1.850, 1.011e-3
-1.851, 1.011e-3
-1.852, 1.011e-3
-1.853, 1.011e-3
-1.854, 1.011e-3
-1.855, 1.011e-3
-1.856, 1.011e-3
-1.857, 1.011e-3
-1.858, 1.011e-3
-1.859, 1.011e-3
-1.860, 1.011e-3
-1.861, 1.011e-3
-1.862, 1.011e-3
-1.863, 1.011e-3
-1.864, 1.011e-3
-1.865, 1.011e-3
-1.866, 1.011e-3
-1.867, 1.011e-3
-1.868, 1.011e-3
-1.869, 1.011e-3
-1.870, 1.011e-3
-1.871, 1.011e-3
-1.872, 1.011e-3
-1.873, 1.011e-3
-1.874, 1.011e-3
-1.875, 1.011e-3
-1.876, 1.011e-3
-1.877, 1.011e-3
-1.878, 1.011e-3
-1.879, 1.011e-3
-1.880, 1.011e-3
-1.881, 1.011e-3
-1.882, 1.011e-3
-1.883, 1.011e-3
-1.884, 1.011e-3
-1.885, 1.011e-3
-1.886, 1.011e-3
-1.887, 1.011e-3
-1.888, 1.011e-3
-1.889, 1.011e-3
-1.890, 1.011e-3
-1.891, 1.011e-3
-1.892, 1.011e-3
-1.893, 1.011e-3
-1.894, 1.011e-3
-1.895, 1.011e-3
-1.896, 1.011e-3
-1.897, 1.011e-3
-1.898, 1.011e-3
-1.899, 1.011e-3
-1.900, 1.011e-3
-1.901, 1.011e-3
-1.902, 1.011e-3
-1.903, 1.011e-3
-1.904, 1.011e-3
-1.905, 1.011e-3
-1.906, 1.011e-3
-1.907, 1.011e-3
-1.908, 1.011e-3
-1.909, 1.011e-3
-1.910, 1.011e-3
-1.911, 1.011e-3
-1.912, 1.011e-3
-1.913, 1.011e-3
-1.914, 1.011e-3
-1.915, 1.011e-3
-1.916, 1.011e-3
-1.917, 1.011e-3
-1.918, 1.011e-3
-1.919, 1.011e-3
-1.920, 1.011e-3
-1.921, 1.011e-3
-1.922, 1.011e-3
-1.923, 1.011e-3
-1.924, 1.011e-3
-1.925, 1.011e-3
-1.926, 1.011e-3
-1.927, 1.011e-3
-1.928, 1.011e-3
-1.929, 1.011e-3
-1.930, 1.011e-3
-1.931, 1.011e-3
-1.932, 1.011e-3
-1.933, 1.011e-3
-1.934, 1.011e-3
-1.935, 1.011e-3
-1.936, 1.011e-3
-1.937, 1.011e-3
-1.938, 1.011e-3
-1.939, 1.011e-3
-1.940, 1.011e-3
-1.941, 1.011e-3
-1.942, 1.011e-3
-1.943, 1.011e-3
-1.944, 1.011e-3
-1.945, 1.011e-3
-1.946, 1.011e-3
-1.947, 1.011e-3
-1.948, 1.011e-3
-1.949, 1.011e-3
-1.950, 1.011e-3
-1.951, 1.011e-3
-1.952, 1.011e-3
-1.953, 1.011e-3
-1.954, 1.011e-3
-1.955, 1.011e-3
-1.956, 1.011e-3
-1.957, 1.011e-3
-1.958, 1.011e-3
-1.959, 1.011e-3
-1.960, 1.011e-3
-1.961, 1.011e-3
-1.962, 1.011e-3
-1.963, 1.011e-3
-1.964, 1.011e-3
-1.965, 1.011e-3
-1.966, 1.011e-3
-1.967, 1.011e-3
-1.968, 1.011e-3
-1.969, 1.011e-3
-1.970, 1.011e-3
-1.971, 1.011e-3
-1.972, 1.011e-3
-1.973, 1.011e-3
-1.974, 1.011e-3
-1.975, 1.011e-3
-1.976, 1.011e-3
-1.977, 1.011e-3
-1.978, 1.011e-3
-1.979, 1.011e-3
-1.980, 1.011e-3
-1.981, 1.011e-3
-1.982, 1.011e-3
-1.983, 1.011e-3
-1.984, 1.011e-3
-1.985, 1.011e-3
-1.986, 1.011e-3
-1.987, 1.011e-3
-1.988, 1.011e-3
-1.989, 1.011e-3
-1.990, 1.011e-3
-1.991, 1.011e-3
-1.992, 1.011e-3
-1.993, 1.011e-3
-1.994, 1.011e-3
-1.995, 1.011e-3
-1.996, 1.011e-3
-1.997, 1.011e-3
-1.998, 1.011e-3
-1.999, 1.011e-3
-2.000, 1.011e-3
-2.001, 1.011e-3
-2.002, 1.011e-3
-2.003, 1.011e-3
-2.004, 1.011e-3
-2.005, 1.011e-3
-2.006, 1.011e-3
-2.007, 1.011e-3
-2.008, 1.011e-3
-2.009, 1.011e-3
-2.010, 1.011e-3
-2.011, 1.011e-3
-2.012, 1.011e-3
-2.013, 1.011e-3
-2.014, 1.011e-3
-2.015, 1.011e-3
-2.016, 1.011e-3
-2.017, 1.011e-3
-2.018, 1.011e-3
-2.019, 1.011e-3
-2.020, 1.011e-3
-2.021, 1.011e-3
-2.022, 1.011e-3
-2.023, 1.011e-3
-2.024, 1.011e-3
-2.025, 1.011e-3
-2.026, 1.011e-3
-2.027, 1.011e-3
-2.028, 1.011e-3
-2.029, 1.011e-3
-2.030, 1.011e-3
-2.031, 1.011e-3
-2.032, 1.011e-3
-2.033, 1.011e-3
-2.034, 1.011e-3
-2.035, 1.011e-3
-2.036, 1.011e-3
-2.037, 1.011e-3
-2.038, 1.011e-3
-2.039, 1.011e-3
-2.040, 1.011e-3
-2.041, 1.011e-3
-2.042, 1.011e-3
-2.043, 1.011e-3
-2.044, 1.011e-3
-2.045, 1.011e-3
-2.046, 1.011e-3
-2.047, 1.011e-3
-2.048, 1.011e-3
-2.049, 1.011e-3
-2.050, 1.011e-3
-2.051, 1.011e-3
-2.052, 1.011e-3
-2.053, 1.011e-3
-2.054, 1.011e-3
-2.055, 1.011e-3
-2.056, 1.011e-3
-2.057, 1.011e-3
-2.058, 1.011e-3
-2.059, 1.011e-3
-2.060, 1.011e-3
-2.061, 1.011e-3
-2.062, 1.011e-3
-2.063, 1.011e-3
-2.064, 1.011e-3
-2.065, 1.011e-3
-2.066, 1.011e-3
-2.067, 1.011e-3
-2.068, 1.011e-3
-2.069, 1.011e-3
-2.070, 1.011e-3
-2.071, 1.011e-3
-2.072, 1.011e-3
-2.073, 1.011e-3
-2.074, 1.011e-3
-2.075, 1.011e-3
-2.076, 1.011e-3
-2.077, 1.011e-3
-2.078, 1.011e-3
-2.079, 1.011e-3
-2.080, 1.011e-3
-2.081, 1.011e-3
-2.082, 1.011e-3
-2.083, 1.011e-3
-2.084, 1.011e-3
-2.085, 1.011e-3
-2.086, 1.011e-3
-2.087, 1.011e-3
-2.088, 1.011e-3
-2.089, 1.011e-3
-2.090, 1.011e-3
-2.091, 1.011e-3
-2.092, 1.011e-3
-2.093, 1.011e-3
-2.094, 1.011e-3
-2.095, 1.011e-3
-2.096, 1.011e-3
-2.097, 1.011e-3
-2.098, 1.011e-3
-2.099, 1.011e-3
