Aug. 12, 2024   04:49:56
Cyclic Voltammetry
File: c:/users/guazh/data/20240802_batch_500/2024-08-02-exp89\exp89-2024-08-12t04_32_41-h2koh\exp89_cv_50mvs_efin_-1800mv.bin
Data Source:  Experiment
Instrument Model:  CHI760E
Header: CV ran at 50 mVs
Note: 

Init E (V) = -1
High E (V) = -1
Low E (V) = -1.8
Final E (V) = -1
Init P/N = N
Scan Rate (V/s) = 0.05
Segment = 7
Sample Interval (V) = 0.001
Quiet Time (sec) = 60
Sensitivity (A/V) = 0.001
Comp R (ohm) = 1.8

Results:

Channel 1:
Segment 1:

Segment 2:

Segment 3:

Segment 4:

Segment 5:

Segment 6:

Segment 7:

Potential/V, Current/A

-1.000, 2.121e-6
-1.001, 3.033e-6
-1.002, 3.275e-6
-1.003, 3.257e-6
-1.004, 3.458e-6
-1.005, 3.776e-6
-1.006, 4.002e-6
-1.007, 3.986e-6
-1.008, 3.858e-6
-1.009, 4.001e-6
-1.010, 4.231e-6
-1.011, 4.392e-6
-1.012, 4.375e-6
-1.013, 4.258e-6
-1.014, 4.345e-6
-1.015, 4.563e-6
-1.016, 4.653e-6
-1.017, 4.608e-6
-1.018, 4.484e-6
-1.019, 4.550e-6
-1.020, 4.740e-6
-1.021, 4.914e-6
-1.022, 4.777e-6
-1.023, 4.648e-6
-1.024, 4.716e-6
-1.025, 4.916e-6
-1.026, 5.071e-6
-1.027, 4.912e-6
-1.028, 4.768e-6
-1.029, 4.879e-6
-1.030, 5.003e-6
-1.031, 5.174e-6
-1.032, 4.991e-6
-1.033, 4.888e-6
-1.034, 4.977e-6
-1.035, 5.124e-6
-1.036, 5.264e-6
-1.037, 5.142e-6
-1.038, 4.993e-6
-1.039, 5.086e-6
-1.040, 5.202e-6
-1.041, 5.323e-6
-1.042, 5.221e-6
-1.043, 5.024e-6
-1.044, 5.163e-6
-1.045, 5.282e-6
-1.046, 5.363e-6
-1.047, 5.276e-6
-1.048, 5.123e-6
-1.049, 5.184e-6
-1.050, 5.320e-6
-1.051, 5.448e-6
-1.052, 5.323e-6
-1.053, 5.178e-6
-1.054, 5.227e-6
-1.055, 5.367e-6
-1.056, 5.469e-6
-1.057, 5.339e-6
-1.058, 5.240e-6
-1.059, 5.242e-6
-1.060, 5.428e-6
-1.061, 5.479e-6
-1.062, 5.369e-6
-1.063, 5.266e-6
-1.064, 5.263e-6
-1.065, 5.421e-6
-1.066, 5.533e-6
-1.067, 5.404e-6
-1.068, 5.283e-6
-1.069, 5.277e-6
-1.070, 5.455e-6
-1.071, 5.571e-6
-1.072, 5.425e-6
-1.073, 5.256e-6
-1.074, 5.301e-6
-1.075, 5.486e-6
-1.076, 5.520e-6
-1.077, 5.485e-6
-1.078, 5.309e-6
-1.079, 5.340e-6
-1.080, 5.453e-6
-1.081, 5.524e-6
-1.082, 5.479e-6
-1.083, 5.281e-6
-1.084, 5.315e-6
-1.085, 5.488e-6
-1.086, 5.527e-6
-1.087, 5.466e-6
-1.088, 5.292e-6
-1.089, 5.310e-6
-1.090, 5.468e-6
-1.091, 5.542e-6
-1.092, 5.444e-6
-1.093, 5.304e-6
-1.094, 5.300e-6
-1.095, 5.442e-6
-1.096, 5.510e-6
-1.097, 5.446e-6
-1.098, 5.280e-6
-1.099, 5.258e-6
-1.100, 5.424e-6
-1.101, 5.515e-6
-1.102, 5.410e-6
-1.103, 5.297e-6
-1.104, 5.210e-6
-1.105, 5.395e-6
-1.106, 5.486e-6
-1.107, 5.376e-6
-1.108, 5.228e-6
-1.109, 5.192e-6
-1.110, 5.343e-6
-1.111, 5.473e-6
-1.112, 5.330e-6
-1.113, 5.183e-6
-1.114, 5.209e-6
-1.115, 5.309e-6
-1.116, 5.399e-6
-1.117, 5.318e-6
-1.118, 5.169e-6
-1.119, 5.153e-6
-1.120, 5.279e-6
-1.121, 5.377e-6
-1.122, 5.289e-6
-1.123, 5.140e-6
-1.124, 5.064e-6
-1.125, 5.267e-6
-1.126, 5.326e-6
-1.127, 5.236e-6
-1.128, 5.078e-6
-1.129, 5.071e-6
-1.130, 5.208e-6
-1.131, 5.281e-6
-1.132, 5.192e-6
-1.133, 5.053e-6
-1.134, 4.973e-6
-1.135, 5.171e-6
-1.136, 5.251e-6
-1.137, 5.136e-6
-1.138, 5.016e-6
-1.139, 4.959e-6
-1.140, 5.114e-6
-1.141, 5.186e-6
-1.142, 5.117e-6
-1.143, 5.011e-6
-1.144, 4.907e-6
-1.145, 5.070e-6
-1.146, 5.188e-6
-1.147, 5.067e-6
-1.148, 4.941e-6
-1.149, 4.882e-6
-1.150, 5.002e-6
-1.151, 5.124e-6
-1.152, 5.026e-6
-1.153, 4.867e-6
-1.154, 4.852e-6
-1.155, 4.991e-6
-1.156, 5.068e-6
-1.157, 4.990e-6
-1.158, 4.890e-6
-1.159, 4.817e-6
-1.160, 4.949e-6
-1.161, 5.042e-6
-1.162, 4.967e-6
-1.163, 4.826e-6
-1.164, 4.776e-6
-1.165, 4.913e-6
-1.166, 4.994e-6
-1.167, 4.979e-6
-1.168, 4.800e-6
-1.169, 4.795e-6
-1.170, 4.885e-6
-1.171, 4.970e-6
-1.172, 4.908e-6
-1.173, 4.779e-6
-1.174, 4.763e-6
-1.175, 4.839e-6
-1.176, 4.950e-6
-1.177, 4.882e-6
-1.178, 4.771e-6
-1.179, 4.724e-6
-1.180, 4.829e-6
-1.181, 4.939e-6
-1.182, 4.858e-6
-1.183, 4.716e-6
-1.184, 4.727e-6
-1.185, 4.788e-6
-1.186, 4.892e-6
-1.187, 4.866e-6
-1.188, 4.695e-6
-1.189, 4.685e-6
-1.190, 4.781e-6
-1.191, 4.911e-6
-1.192, 4.878e-6
-1.193, 4.720e-6
-1.194, 4.717e-6
-1.195, 4.768e-6
-1.196, 4.873e-6
-1.197, 4.860e-6
-1.198, 4.713e-6
-1.199, 4.675e-6
-1.200, 4.769e-6
-1.201, 4.880e-6
-1.202, 4.805e-6
-1.203, 4.692e-6
-1.204, 4.670e-6
-1.205, 4.772e-6
-1.206, 4.882e-6
-1.207, 4.880e-6
-1.208, 4.726e-6
-1.209, 4.708e-6
-1.210, 4.776e-6
-1.211, 4.892e-6
-1.212, 4.849e-6
-1.213, 4.747e-6
-1.214, 4.663e-6
-1.215, 4.770e-6
-1.216, 4.921e-6
-1.217, 4.862e-6
-1.218, 4.794e-6
-1.219, 4.735e-6
-1.220, 4.797e-6
-1.221, 4.952e-6
-1.222, 4.844e-6
-1.223, 4.807e-6
-1.224, 4.756e-6
-1.225, 4.818e-6
-1.226, 4.953e-6
-1.227, 4.900e-6
-1.228, 4.831e-6
-1.229, 4.814e-6
-1.230, 4.904e-6
-1.231, 4.994e-6
-1.232, 4.955e-6
-1.233, 4.906e-6
-1.234, 4.839e-6
-1.235, 4.918e-6
-1.236, 5.069e-6
-1.237, 5.007e-6
-1.238, 4.908e-6
-1.239, 4.908e-6
-1.240, 4.999e-6
-1.241, 5.116e-6
-1.242, 5.080e-6
-1.243, 5.000e-6
-1.244, 4.938e-6
-1.245, 5.077e-6
-1.246, 5.213e-6
-1.247, 5.159e-6
-1.248, 5.045e-6
-1.249, 5.045e-6
-1.250, 5.124e-6
-1.251, 5.267e-6
-1.252, 5.212e-6
-1.253, 5.183e-6
-1.254, 5.100e-6
-1.255, 5.232e-6
-1.256, 5.376e-6
-1.257, 5.300e-6
-1.258, 5.246e-6
-1.259, 5.221e-6
-1.260, 5.290e-6
-1.261, 5.455e-6
-1.262, 5.410e-6
-1.263, 5.355e-6
-1.264, 5.321e-6
-1.265, 5.395e-6
-1.266, 5.556e-6
-1.267, 5.543e-6
-1.268, 5.450e-6
-1.269, 5.401e-6
-1.270, 5.517e-6
-1.271, 5.653e-6
-1.272, 5.611e-6
-1.273, 5.548e-6
-1.274, 5.557e-6
-1.275, 5.606e-6
-1.276, 5.753e-6
-1.277, 5.753e-6
-1.278, 5.646e-6
-1.279, 5.630e-6
-1.280, 5.721e-6
-1.281, 5.852e-6
-1.282, 5.884e-6
-1.283, 5.798e-6
-1.284, 5.777e-6
-1.285, 5.912e-6
-1.286, 5.995e-6
-1.287, 5.992e-6
-1.288, 5.880e-6
-1.289, 5.884e-6
-1.290, 5.984e-6
-1.291, 6.131e-6
-1.292, 6.139e-6
-1.293, 6.018e-6
-1.294, 6.042e-6
-1.295, 6.131e-6
-1.296, 6.226e-6
-1.297, 6.306e-6
-1.298, 6.161e-6
-1.299, 6.180e-6
-1.300, 6.264e-6
-1.301, 6.433e-6
-1.302, 6.467e-6
-1.303, 6.330e-6
-1.304, 6.313e-6
-1.305, 6.401e-6
-1.306, 6.560e-6
-1.307, 6.616e-6
-1.308, 6.512e-6
-1.309, 6.472e-6
-1.310, 6.605e-6
-1.311, 6.728e-6
-1.312, 6.753e-6
-1.313, 6.664e-6
-1.314, 6.666e-6
-1.315, 6.733e-6
-1.316, 6.864e-6
-1.317, 6.910e-6
-1.318, 6.812e-6
-1.319, 6.800e-6
-1.320, 6.870e-6
-1.321, 7.006e-6
-1.322, 7.144e-6
-1.323, 6.977e-6
-1.324, 6.963e-6
-1.325, 7.075e-6
-1.326, 7.226e-6
-1.327, 7.294e-6
-1.328, 7.198e-6
-1.329, 7.163e-6
-1.330, 7.283e-6
-1.331, 7.379e-6
-1.332, 7.461e-6
-1.333, 7.351e-6
-1.334, 7.342e-6
-1.335, 7.423e-6
-1.336, 7.531e-6
-1.337, 7.635e-6
-1.338, 7.568e-6
-1.339, 7.492e-6
-1.340, 7.571e-6
-1.341, 7.762e-6
-1.342, 7.813e-6
-1.343, 7.731e-6
-1.344, 7.664e-6
-1.345, 7.750e-6
-1.346, 7.938e-6
-1.347, 8.001e-6
-1.348, 7.909e-6
-1.349, 7.871e-6
-1.350, 7.991e-6
-1.351, 8.081e-6
-1.352, 8.152e-6
-1.353, 8.038e-6
-1.354, 8.056e-6
-1.355, 8.117e-6
-1.356, 8.263e-6
-1.357, 8.358e-6
-1.358, 8.263e-6
-1.359, 8.248e-6
-1.360, 8.269e-6
-1.361, 8.434e-6
-1.362, 8.514e-6
-1.363, 8.460e-6
-1.364, 8.382e-6
-1.365, 8.459e-6
-1.366, 8.596e-6
-1.367, 8.681e-6
-1.368, 8.651e-6
-1.369, 8.540e-6
-1.370, 8.701e-6
-1.371, 8.814e-6
-1.372, 8.892e-6
-1.373, 8.841e-6
-1.374, 8.758e-6
-1.375, 8.877e-6
-1.376, 9.005e-6
-1.377, 9.065e-6
-1.378, 9.013e-6
-1.379, 8.966e-6
-1.380, 9.070e-6
-1.381, 9.227e-6
-1.382, 9.253e-6
-1.383, 9.216e-6
-1.384, 9.162e-6
-1.385, 9.256e-6
-1.386, 9.400e-6
-1.387, 9.445e-6
-1.388, 9.435e-6
-1.389, 9.418e-6
-1.390, 9.476e-6
-1.391, 9.653e-6
-1.392, 9.689e-6
-1.393, 9.650e-6
-1.394, 9.610e-6
-1.395, 9.714e-6
-1.396, 9.824e-6
-1.397, 9.953e-6
-1.398, 9.887e-6
-1.399, 9.832e-6
-1.400, 9.930e-6
-1.401, 1.005e-5
-1.402, 1.017e-5
-1.403, 1.012e-5
-1.404, 1.006e-5
-1.405, 1.016e-5
-1.406, 1.028e-5
-1.407, 1.043e-5
-1.408, 1.034e-5
-1.409, 1.029e-5
-1.410, 1.038e-5
-1.411, 1.049e-5
-1.412, 1.063e-5
-1.413, 1.061e-5
-1.414, 1.058e-5
-1.415, 1.067e-5
-1.416, 1.080e-5
-1.417, 1.088e-5
-1.418, 1.086e-5
-1.419, 1.085e-5
-1.420, 1.092e-5
-1.421, 1.104e-5
-1.422, 1.120e-5
-1.423, 1.110e-5
-1.424, 1.106e-5
-1.425, 1.120e-5
-1.426, 1.135e-5
-1.427, 1.145e-5
-1.428, 1.139e-5
-1.429, 1.136e-5
-1.430, 1.150e-5
-1.431, 1.164e-5
-1.432, 1.172e-5
-1.433, 1.174e-5
-1.434, 1.167e-5
-1.435, 1.179e-5
-1.436, 1.198e-5
-1.437, 1.208e-5
-1.438, 1.202e-5
-1.439, 1.201e-5
-1.440, 1.214e-5
-1.441, 1.228e-5
-1.442, 1.241e-5
-1.443, 1.236e-5
-1.444, 1.232e-5
-1.445, 1.248e-5
-1.446, 1.264e-5
-1.447, 1.279e-5
-1.448, 1.281e-5
-1.449, 1.272e-5
-1.450, 1.288e-5
-1.451, 1.300e-5
-1.452, 1.312e-5
-1.453, 1.317e-5
-1.454, 1.317e-5
-1.455, 1.323e-5
-1.456, 1.340e-5
-1.457, 1.358e-5
-1.458, 1.355e-5
-1.459, 1.349e-5
-1.460, 1.370e-5
-1.461, 1.383e-5
-1.462, 1.397e-5
-1.463, 1.404e-5
-1.464, 1.398e-5
-1.465, 1.408e-5
-1.466, 1.436e-5
-1.467, 1.445e-5
-1.468, 1.452e-5
-1.469, 1.451e-5
-1.470, 1.457e-5
-1.471, 1.483e-5
-1.472, 1.497e-5
-1.473, 1.500e-5
-1.474, 1.503e-5
-1.475, 1.513e-5
-1.476, 1.535e-5
-1.477, 1.555e-5
-1.478, 1.559e-5
-1.479, 1.564e-5
-1.480, 1.571e-5
-1.481, 1.602e-5
-1.482, 1.625e-5
-1.483, 1.628e-5
-1.484, 1.648e-5
-1.485, 1.646e-5
-1.486, 1.683e-5
-1.487, 1.694e-5
-1.488, 1.711e-5
-1.489, 1.702e-5
-1.490, 1.707e-5
-1.491, 1.737e-5
-1.492, 1.754e-5
-1.493, 1.760e-5
-1.494, 1.767e-5
-1.495, 1.778e-5
-1.496, 1.810e-5
-1.497, 1.832e-5
-1.498, 1.846e-5
-1.499, 1.850e-5
-1.500, 1.863e-5
-1.501, 1.898e-5
-1.502, 1.916e-5
-1.503, 1.933e-5
-1.504, 1.938e-5
-1.505, 1.955e-5
-1.506, 1.989e-5
-1.507, 2.014e-5
-1.508, 2.030e-5
-1.509, 2.039e-5
-1.510, 2.060e-5
-1.511, 2.094e-5
-1.512, 2.121e-5
-1.513, 2.140e-5
-1.514, 2.150e-5
-1.515, 2.169e-5
-1.516, 2.202e-5
-1.517, 2.239e-5
-1.518, 2.257e-5
-1.519, 2.274e-5
-1.520, 2.294e-5
-1.521, 2.332e-5
-1.522, 2.369e-5
-1.523, 2.388e-5
-1.524, 2.406e-5
-1.525, 2.433e-5
-1.526, 2.474e-5
-1.527, 2.517e-5
-1.528, 2.534e-5
-1.529, 2.554e-5
-1.530, 2.585e-5
-1.531, 2.628e-5
-1.532, 2.673e-5
-1.533, 2.700e-5
-1.534, 2.721e-5
-1.535, 2.755e-5
-1.536, 2.808e-5
-1.537, 2.848e-5
-1.538, 2.880e-5
-1.539, 2.904e-5
-1.540, 2.940e-5
-1.541, 2.996e-5
-1.542, 3.039e-5
-1.543, 3.080e-5
-1.544, 3.105e-5
-1.545, 3.147e-5
-1.546, 3.204e-5
-1.547, 3.257e-5
-1.548, 3.301e-5
-1.549, 3.332e-5
-1.550, 3.375e-5
-1.551, 3.435e-5
-1.552, 3.484e-5
-1.553, 3.541e-5
-1.554, 3.573e-5
-1.555, 3.629e-5
-1.556, 3.689e-5
-1.557, 3.757e-5
-1.558, 3.805e-5
-1.559, 3.853e-5
-1.560, 3.910e-5
-1.561, 3.976e-5
-1.562, 4.050e-5
-1.563, 4.106e-5
-1.564, 4.161e-5
-1.565, 4.222e-5
-1.566, 4.294e-5
-1.567, 4.377e-5
-1.568, 4.443e-5
-1.569, 4.502e-5
-1.570, 4.685e-5
-1.571, 4.688e-5
-1.572, 4.763e-5
-1.573, 4.832e-5
-1.574, 4.898e-5
-1.575, 4.972e-5
-1.576, 5.065e-5
-1.577, 5.158e-5
-1.578, 5.248e-5
-1.579, 5.323e-5
-1.580, 5.408e-5
-1.581, 5.515e-5
-1.582, 5.623e-5
-1.583, 5.721e-5
-1.584, 5.812e-5
-1.585, 5.912e-5
-1.586, 6.024e-5
-1.587, 6.147e-5
-1.588, 6.260e-5
-1.589, 6.365e-5
-1.590, 6.480e-5
-1.591, 6.610e-5
-1.592, 6.743e-5
-1.593, 6.867e-5
-1.594, 6.995e-5
-1.595, 7.127e-5
-1.596, 7.270e-5
-1.597, 7.427e-5
-1.598, 7.572e-5
-1.599, 7.719e-5
-1.600, 7.861e-5
-1.601, 8.032e-5
-1.602, 8.212e-5
-1.603, 8.377e-5
-1.604, 8.548e-5
-1.605, 8.723e-5
-1.606, 8.919e-5
-1.607, 9.125e-5
-1.608, 9.315e-5
-1.609, 9.516e-5
-1.610, 9.714e-5
-1.611, 9.934e-5
-1.612, 1.017e-4
-1.613, 1.040e-4
-1.614, 1.062e-4
-1.615, 1.086e-4
-1.616, 1.111e-4
-1.617, 1.138e-4
-1.618, 1.164e-4
-1.619, 1.190e-4
-1.620, 1.217e-4
-1.621, 1.246e-4
-1.622, 1.277e-4
-1.623, 1.308e-4
-1.624, 1.339e-4
-1.625, 1.370e-4
-1.626, 1.403e-4
-1.627, 1.439e-4
-1.628, 1.474e-4
-1.629, 1.508e-4
-1.630, 1.544e-4
-1.631, 1.582e-4
-1.632, 1.624e-4
-1.633, 1.664e-4
-1.634, 1.705e-4
-1.635, 1.747e-4
-1.636, 1.791e-4
-1.637, 1.838e-4
-1.638, 1.885e-4
-1.639, 1.932e-4
-1.640, 1.981e-4
-1.641, 2.033e-4
-1.642, 2.087e-4
-1.643, 2.141e-4
-1.644, 2.195e-4
-1.645, 2.251e-4
-1.646, 2.311e-4
-1.647, 2.373e-4
-1.648, 2.435e-4
-1.649, 2.499e-4
-1.650, 2.564e-4
-1.651, 2.633e-4
-1.652, 2.705e-4
-1.653, 2.777e-4
-1.654, 2.850e-4
-1.655, 2.926e-4
-1.656, 3.005e-4
-1.657, 3.088e-4
-1.658, 3.173e-4
-1.659, 3.258e-4
-1.660, 3.346e-4
-1.661, 3.437e-4
-1.662, 3.534e-4
-1.663, 3.631e-4
-1.664, 3.730e-4
-1.665, 3.831e-4
-1.666, 3.938e-4
-1.667, 4.049e-4
-1.668, 4.162e-4
-1.669, 4.276e-4
-1.670, 4.393e-4
-1.671, 4.513e-4
-1.672, 4.641e-4
-1.673, 4.772e-4
-1.674, 4.902e-4
-1.675, 5.037e-4
-1.676, 5.177e-4
-1.677, 5.321e-4
-1.678, 5.471e-4
-1.679, 5.622e-4
-1.680, 5.775e-4
-1.681, 5.937e-4
-1.682, 6.102e-4
-1.683, 6.273e-4
-1.684, 6.448e-4
-1.685, 6.623e-4
-1.686, 6.807e-4
-1.687, 6.998e-4
-1.688, 7.192e-4
-1.689, 7.390e-4
-1.690, 7.593e-4
-1.691, 7.798e-4
-1.692, 8.014e-4
-1.693, 8.237e-4
-1.694, 8.458e-4
-1.695, 8.687e-4
-1.696, 8.923e-4
-1.697, 9.162e-4
-1.698, 9.413e-4
-1.699, 9.668e-4
-1.700, 9.922e-4
-1.701, 1.019e-3
-1.702, 1.046e-3
-1.703, 1.074e-3
-1.704, 1.102e-3
-1.705, 1.131e-3
-1.706, 1.160e-3
-1.707, 1.191e-3
-1.708, 1.223e-3
-1.709, 1.254e-3
-1.710, 1.286e-3
-1.711, 1.319e-3
-1.712, 1.352e-3
-1.713, 1.387e-3
-1.714, 1.422e-3
-1.715, 1.457e-3
-1.716, 1.494e-3
-1.717, 1.531e-3
-1.718, 1.569e-3
-1.719, 1.608e-3
-1.720, 1.647e-3
-1.721, 1.687e-3
-1.722, 1.729e-3
-1.723, 1.770e-3
-1.724, 1.812e-3
-1.725, 1.855e-3
-1.726, 1.898e-3
-1.727, 1.943e-3
-1.728, 1.989e-3
-1.729, 2.035e-3
-1.730, 2.081e-3
-1.731, 2.130e-3
-1.732, 2.178e-3
-1.733, 2.227e-3
-1.734, 2.278e-3
-1.735, 2.326e-3
-1.736, 2.378e-3
-1.737, 2.432e-3
-1.738, 2.483e-3
-1.739, 2.538e-3
-1.740, 2.593e-3
-1.741, 2.646e-3
-1.742, 2.704e-3
-1.743, 2.762e-3
-1.744, 2.817e-3
-1.745, 2.877e-3
-1.746, 2.935e-3
-1.747, 2.993e-3
-1.748, 3.056e-3
-1.749, 3.117e-3
-1.750, 3.176e-3
-1.751, 3.241e-3
-1.752, 3.303e-3
-1.753, 3.366e-3
-1.754, 3.434e-3
-1.755, 3.497e-3
-1.756, 3.562e-3
-1.757, 3.631e-3
-1.758, 3.698e-3
-1.759, 3.765e-3
-1.760, 3.837e-3
-1.761, 3.905e-3
-1.762, 3.975e-3
-1.763, 4.050e-3
-1.764, 4.120e-3
-1.765, 4.192e-3
-1.766, 4.268e-3
-1.767, 4.338e-3
-1.768, 4.414e-3
-1.769, 4.493e-3
-1.770, 4.563e-3
-1.771, 4.640e-3
-1.772, 4.719e-3
-1.773, 4.791e-3
-1.774, 4.875e-3
-1.775, 4.955e-3
-1.776, 5.026e-3
-1.777, 5.110e-3
-1.778, 5.193e-3
-1.779, 5.267e-3
-1.780, 5.351e-3
-1.781, 5.437e-3
-1.782, 5.507e-3
-1.783, 5.595e-3
-1.784, 5.680e-3
-1.785, 5.754e-3
-1.786, 5.844e-3
-1.787, 5.929e-3
-1.788, 6.007e-3
-1.789, 6.098e-3
-1.790, 6.183e-3
-1.791, 6.263e-3
-1.792, 6.361e-3
-1.793, 6.444e-3
-1.794, 6.525e-3
-1.795, 6.618e-3
-1.796, 6.701e-3
-1.797, 6.780e-3
-1.798, 6.875e-3
-1.799, 6.958e-3
-1.800, 6.983e-3
-1.799, 6.944e-3
-1.798, 6.889e-3
-1.797, 6.835e-3
-1.796, 6.793e-3
-1.795, 6.732e-3
-1.794, 6.673e-3
-1.793, 6.625e-3
-1.792, 6.564e-3
-1.791, 6.507e-3
-1.790, 6.456e-3
-1.789, 6.391e-3
-1.788, 6.336e-3
-1.787, 6.284e-3
-1.786, 6.217e-3
-1.785, 6.160e-3
-1.784, 6.106e-3
-1.783, 6.039e-3
-1.782, 5.982e-3
-1.781, 5.926e-3
-1.780, 5.857e-3
-1.779, 5.805e-3
-1.778, 5.751e-3
-1.777, 5.687e-3
-1.776, 5.633e-3
-1.775, 5.575e-3
-1.774, 5.508e-3
-1.773, 5.455e-3
-1.772, 5.399e-3
-1.771, 5.336e-3
-1.770, 5.285e-3
-1.769, 5.226e-3
-1.768, 5.164e-3
-1.767, 5.113e-3
-1.766, 5.056e-3
-1.765, 4.997e-3
-1.764, 4.945e-3
-1.763, 4.887e-3
-1.762, 4.832e-3
-1.761, 4.783e-3
-1.760, 4.726e-3
-1.759, 4.671e-3
-1.758, 4.623e-3
-1.757, 4.568e-3
-1.756, 4.514e-3
-1.755, 4.465e-3
-1.754, 4.408e-3
-1.753, 4.357e-3
-1.752, 4.309e-3
-1.751, 4.242e-3
-1.750, 4.193e-3
-1.749, 4.145e-3
-1.748, 4.090e-3
-1.747, 4.044e-3
-1.746, 3.996e-3
-1.745, 3.941e-3
-1.744, 3.897e-3
-1.743, 3.849e-3
-1.742, 3.799e-3
-1.741, 3.754e-3
-1.740, 3.706e-3
-1.739, 3.656e-3
-1.738, 3.613e-3
-1.737, 3.566e-3
-1.736, 3.516e-3
-1.735, 3.473e-3
-1.734, 3.426e-3
-1.733, 3.383e-3
-1.732, 3.343e-3
-1.731, 3.297e-3
-1.730, 3.251e-3
-1.729, 3.209e-3
-1.728, 3.166e-3
-1.727, 3.123e-3
-1.726, 3.084e-3
-1.725, 3.041e-3
-1.724, 2.998e-3
-1.723, 2.958e-3
-1.722, 2.915e-3
-1.721, 2.874e-3
-1.720, 2.835e-3
-1.719, 2.794e-3
-1.718, 2.753e-3
-1.717, 2.715e-3
-1.716, 2.670e-3
-1.715, 2.631e-3
-1.714, 2.594e-3
-1.713, 2.556e-3
-1.712, 2.518e-3
-1.711, 2.483e-3
-1.710, 2.445e-3
-1.709, 2.410e-3
-1.708, 2.375e-3
-1.707, 2.339e-3
-1.706, 2.305e-3
-1.705, 2.271e-3
-1.704, 2.235e-3
-1.703, 2.204e-3
-1.702, 2.172e-3
-1.701, 2.139e-3
-1.700, 2.107e-3
-1.699, 2.075e-3
-1.698, 2.042e-3
-1.697, 2.011e-3
-1.696, 1.981e-3
-1.695, 1.949e-3
-1.694, 1.919e-3
-1.693, 1.890e-3
-1.692, 1.860e-3
-1.691, 1.832e-3
-1.690, 1.803e-3
-1.689, 1.773e-3
-1.688, 1.746e-3
-1.687, 1.718e-3
-1.686, 1.691e-3
-1.685, 1.665e-3
-1.684, 1.638e-3
-1.683, 1.611e-3
-1.682, 1.585e-3
-1.681, 1.559e-3
-1.680, 1.533e-3
-1.679, 1.508e-3
-1.678, 1.483e-3
-1.677, 1.459e-3
-1.676, 1.435e-3
-1.675, 1.411e-3
-1.674, 1.387e-3
-1.673, 1.365e-3
-1.672, 1.342e-3
-1.671, 1.319e-3
-1.670, 1.297e-3
-1.669, 1.274e-3
-1.668, 1.253e-3
-1.667, 1.233e-3
-1.666, 1.211e-3
-1.665, 1.191e-3
-1.664, 1.171e-3
-1.663, 1.150e-3
-1.662, 1.131e-3
-1.661, 1.111e-3
-1.660, 1.091e-3
-1.659, 1.072e-3
-1.658, 1.054e-3
-1.657, 1.035e-3
-1.656, 1.018e-3
-1.655, 9.999e-4
-1.654, 9.817e-4
-1.653, 9.645e-4
-1.652, 9.477e-4
-1.651, 9.307e-4
-1.650, 9.143e-4
-1.649, 8.979e-4
-1.648, 8.816e-4
-1.647, 8.663e-4
-1.646, 8.508e-4
-1.645, 8.353e-4
-1.644, 8.203e-4
-1.643, 8.054e-4
-1.642, 7.908e-4
-1.641, 7.768e-4
-1.640, 7.626e-4
-1.639, 7.482e-4
-1.638, 7.346e-4
-1.637, 7.214e-4
-1.636, 7.082e-4
-1.635, 6.951e-4
-1.634, 6.821e-4
-1.633, 6.696e-4
-1.632, 6.577e-4
-1.631, 6.454e-4
-1.630, 6.333e-4
-1.629, 6.214e-4
-1.628, 6.097e-4
-1.627, 5.987e-4
-1.626, 5.877e-4
-1.625, 5.764e-4
-1.624, 5.655e-4
-1.623, 5.549e-4
-1.622, 5.445e-4
-1.621, 5.345e-4
-1.620, 5.242e-4
-1.619, 5.140e-4
-1.618, 5.043e-4
-1.617, 4.949e-4
-1.616, 4.855e-4
-1.615, 4.762e-4
-1.614, 4.669e-4
-1.613, 4.579e-4
-1.612, 4.495e-4
-1.611, 4.409e-4
-1.610, 4.323e-4
-1.609, 4.240e-4
-1.608, 4.158e-4
-1.607, 4.079e-4
-1.606, 4.000e-4
-1.605, 3.921e-4
-1.604, 3.843e-4
-1.603, 3.769e-4
-1.602, 3.698e-4
-1.601, 3.625e-4
-1.600, 3.555e-4
-1.599, 3.483e-4
-1.598, 3.415e-4
-1.597, 3.350e-4
-1.596, 3.283e-4
-1.595, 3.218e-4
-1.594, 3.153e-4
-1.593, 3.090e-4
-1.592, 3.031e-4
-1.591, 2.971e-4
-1.590, 2.910e-4
-1.589, 2.852e-4
-1.588, 2.796e-4
-1.587, 2.741e-4
-1.586, 2.686e-4
-1.585, 2.632e-4
-1.584, 2.578e-4
-1.583, 2.527e-4
-1.582, 2.477e-4
-1.581, 2.427e-4
-1.580, 2.377e-4
-1.579, 2.327e-4
-1.578, 2.281e-4
-1.577, 2.236e-4
-1.576, 2.190e-4
-1.575, 2.145e-4
-1.574, 2.100e-4
-1.573, 2.057e-4
-1.572, 2.016e-4
-1.571, 1.976e-4
-1.570, 1.934e-4
-1.569, 1.893e-4
-1.568, 1.854e-4
-1.567, 1.818e-4
-1.566, 1.780e-4
-1.565, 1.742e-4
-1.564, 1.705e-4
-1.563, 1.670e-4
-1.562, 1.637e-4
-1.561, 1.602e-4
-1.560, 1.567e-4
-1.559, 1.534e-4
-1.558, 1.502e-4
-1.557, 1.472e-4
-1.556, 1.441e-4
-1.555, 1.409e-4
-1.554, 1.378e-4
-1.553, 1.350e-4
-1.552, 1.323e-4
-1.551, 1.295e-4
-1.550, 1.266e-4
-1.549, 1.238e-4
-1.548, 1.213e-4
-1.547, 1.188e-4
-1.546, 1.163e-4
-1.545, 1.137e-4
-1.544, 1.112e-4
-1.543, 1.089e-4
-1.542, 1.066e-4
-1.541, 1.044e-4
-1.540, 1.019e-4
-1.539, 9.967e-5
-1.538, 9.754e-5
-1.537, 9.561e-5
-1.536, 9.352e-5
-1.535, 9.129e-5
-1.534, 8.925e-5
-1.533, 8.734e-5
-1.532, 8.554e-5
-1.531, 8.366e-5
-1.530, 8.169e-5
-1.529, 7.980e-5
-1.528, 7.807e-5
-1.527, 7.642e-5
-1.526, 7.479e-5
-1.525, 7.298e-5
-1.524, 7.124e-5
-1.523, 6.969e-5
-1.522, 6.827e-5
-1.521, 6.678e-5
-1.520, 6.508e-5
-1.519, 6.355e-5
-1.518, 6.215e-5
-1.517, 6.091e-5
-1.516, 5.953e-5
-1.515, 5.805e-5
-1.514, 5.665e-5
-1.513, 5.537e-5
-1.512, 5.422e-5
-1.511, 5.307e-5
-1.510, 5.164e-5
-1.509, 5.040e-5
-1.508, 4.928e-5
-1.507, 4.822e-5
-1.506, 4.717e-5
-1.505, 4.591e-5
-1.504, 4.476e-5
-1.503, 4.375e-5
-1.502, 4.283e-5
-1.501, 4.188e-5
-1.500, 4.078e-5
-1.499, 3.967e-5
-1.498, 3.876e-5
-1.497, 3.797e-5
-1.496, 3.713e-5
-1.495, 3.608e-5
-1.494, 3.510e-5
-1.493, 3.433e-5
-1.492, 3.361e-5
-1.491, 3.283e-5
-1.490, 3.189e-5
-1.489, 3.102e-5
-1.488, 3.032e-5
-1.487, 2.966e-5
-1.486, 2.898e-5
-1.485, 2.815e-5
-1.484, 2.727e-5
-1.483, 2.667e-5
-1.482, 2.614e-5
-1.481, 2.554e-5
-1.480, 2.478e-5
-1.479, 2.402e-5
-1.478, 2.345e-5
-1.477, 2.297e-5
-1.476, 2.244e-5
-1.475, 2.170e-5
-1.474, 2.106e-5
-1.473, 2.056e-5
-1.472, 2.013e-5
-1.471, 1.961e-5
-1.470, 1.896e-5
-1.469, 1.840e-5
-1.468, 1.789e-5
-1.467, 1.758e-5
-1.466, 1.714e-5
-1.465, 1.658e-5
-1.464, 1.600e-5
-1.463, 1.555e-5
-1.462, 1.528e-5
-1.461, 1.486e-5
-1.460, 1.438e-5
-1.459, 1.386e-5
-1.458, 1.346e-5
-1.457, 1.323e-5
-1.456, 1.292e-5
-1.455, 1.241e-5
-1.454, 1.190e-5
-1.453, 1.160e-5
-1.452, 1.138e-5
-1.451, 1.107e-5
-1.450, 1.063e-5
-1.449, 1.019e-5
-1.448, 9.918e-6
-1.447, 9.717e-6
-1.446, 9.436e-6
-1.445, 9.066e-6
-1.444, 8.653e-6
-1.443, 8.389e-6
-1.442, 8.245e-6
-1.441, 7.991e-6
-1.440, 7.653e-6
-1.439, 7.258e-6
-1.438, 7.014e-6
-1.437, 6.899e-6
-1.436, 6.707e-6
-1.435, 6.345e-6
-1.434, 6.009e-6
-1.433, 5.768e-6
-1.432, 5.672e-6
-1.431, 5.548e-6
-1.430, 5.201e-6
-1.429, 4.871e-6
-1.428, 4.711e-6
-1.427, 4.597e-6
-1.426, 4.487e-6
-1.425, 4.144e-6
-1.424, 3.858e-6
-1.423, 3.744e-6
-1.422, 3.620e-6
-1.421, 3.506e-6
-1.420, 3.248e-6
-1.419, 2.945e-6
-1.418, 2.807e-6
-1.417, 2.713e-6
-1.416, 2.662e-6
-1.415, 2.440e-6
-1.414, 2.126e-6
-1.413, 1.991e-6
-1.412, 1.964e-6
-1.411, 1.897e-6
-1.410, 1.662e-6
-1.409, 1.353e-6
-1.408, 1.298e-6
-1.407, 1.252e-6
-1.406, 1.150e-6
-1.405, 9.825e-7
-1.404, 7.013e-7
-1.403, 6.332e-7
-1.402, 5.779e-7
-1.401, 5.661e-7
-1.400, 3.392e-7
-1.399, 7.281e-8
-1.398, 1.559e-8
-1.397, -4.144e-9
-1.396, -3.769e-8
-1.395, -2.735e-7
-1.394, -5.004e-7
-1.393, -5.793e-7
-1.392, -5.399e-7
-1.391, -5.478e-7
-1.390, -7.589e-7
-1.389, -1.018e-6
-1.388, -1.067e-6
-1.387, -1.060e-6
-1.386, -1.032e-6
-1.385, -1.249e-6
-1.384, -1.498e-6
-1.383, -1.548e-6
-1.382, -1.548e-6
-1.381, -1.543e-6
-1.380, -1.707e-6
-1.379, -1.966e-6
-1.378, -1.965e-6
-1.377, -1.936e-6
-1.376, -1.947e-6
-1.375, -2.149e-6
-1.374, -2.373e-6
-1.373, -2.400e-6
-1.372, -2.323e-6
-1.371, -2.361e-6
-1.370, -2.535e-6
-1.369, -2.768e-6
-1.368, -2.808e-6
-1.367, -2.744e-6
-1.366, -2.760e-6
-1.365, -2.893e-6
-1.364, -3.134e-6
-1.363, -3.216e-6
-1.362, -3.093e-6
-1.361, -3.104e-6
-1.360, -3.245e-6
-1.359, -3.455e-6
-1.358, -3.543e-6
-1.357, -3.446e-6
-1.356, -3.438e-6
-1.355, -3.635e-6
-1.354, -3.797e-6
-1.353, -3.897e-6
-1.352, -3.788e-6
-1.351, -3.798e-6
-1.350, -3.971e-6
-1.349, -4.150e-6
-1.348, -4.256e-6
-1.347, -4.152e-6
-1.346, -4.108e-6
-1.345, -4.310e-6
-1.344, -4.485e-6
-1.343, -4.580e-6
-1.342, -4.497e-6
-1.341, -4.410e-6
-1.340, -4.544e-6
-1.339, -4.811e-6
-1.338, -4.888e-6
-1.337, -4.797e-6
-1.336, -4.799e-6
-1.335, -4.922e-6
-1.334, -5.091e-6
-1.333, -5.197e-6
-1.332, -5.047e-6
-1.331, -5.091e-6
-1.330, -5.204e-6
-1.329, -5.448e-6
-1.328, -5.522e-6
-1.327, -5.415e-6
-1.326, -5.398e-6
-1.325, -5.525e-6
-1.324, -5.700e-6
-1.323, -5.834e-6
-1.322, -5.750e-6
-1.321, -5.688e-6
-1.320, -5.832e-6
-1.319, -5.978e-6
-1.318, -6.131e-6
-1.317, -6.036e-6
-1.316, -5.984e-6
-1.315, -6.114e-6
-1.314, -6.285e-6
-1.313, -6.427e-6
-1.312, -6.306e-6
-1.311, -6.296e-6
-1.310, -6.422e-6
-1.309, -6.597e-6
-1.308, -6.675e-6
-1.307, -6.598e-6
-1.306, -6.548e-6
-1.305, -6.671e-6
-1.304, -6.878e-6
-1.303, -6.978e-6
-1.302, -6.918e-6
-1.301, -6.844e-6
-1.300, -6.936e-6
-1.299, -7.205e-6
-1.298, -7.274e-6
-1.297, -7.183e-6
-1.296, -7.100e-6
-1.295, -7.243e-6
-1.294, -7.461e-6
-1.293, -7.529e-6
-1.292, -7.456e-6
-1.291, -7.422e-6
-1.290, -7.496e-6
-1.289, -7.742e-6
-1.288, -7.803e-6
-1.287, -7.735e-6
-1.286, -7.680e-6
-1.285, -7.758e-6
-1.284, -7.979e-6
-1.283, -8.058e-6
-1.282, -7.992e-6
-1.281, -7.970e-6
-1.280, -8.044e-6
-1.279, -8.260e-6
-1.278, -8.336e-6
-1.277, -8.281e-6
-1.276, -8.221e-6
-1.275, -8.320e-6
-1.274, -8.517e-6
-1.273, -8.608e-6
-1.272, -8.589e-6
-1.271, -8.490e-6
-1.270, -8.589e-6
-1.269, -8.798e-6
-1.268, -8.852e-6
-1.267, -8.816e-6
-1.266, -8.716e-6
-1.265, -8.849e-6
-1.264, -9.027e-6
-1.263, -9.135e-6
-1.262, -9.094e-6
-1.261, -8.973e-6
-1.260, -9.080e-6
-1.259, -9.308e-6
-1.258, -9.366e-6
-1.257, -9.337e-6
-1.256, -9.250e-6
-1.255, -9.360e-6
-1.254, -9.540e-6
-1.253, -9.605e-6
-1.252, -9.565e-6
-1.251, -9.499e-6
-1.250, -9.602e-6
-1.249, -9.794e-6
-1.248, -9.849e-6
-1.247, -9.835e-6
-1.246, -9.779e-6
-1.245, -9.830e-6
-1.244, -1.001e-5
-1.243, -1.011e-5
-1.242, -1.006e-5
-1.241, -9.998e-6
-1.240, -1.006e-5
-1.239, -1.025e-5
-1.238, -1.031e-5
-1.237, -1.027e-5
-1.236, -1.018e-5
-1.235, -1.032e-5
-1.234, -1.042e-5
-1.233, -1.053e-5
-1.232, -1.049e-5
-1.231, -1.041e-5
-1.230, -1.051e-5
-1.229, -1.066e-5
-1.228, -1.077e-5
-1.227, -1.071e-5
-1.226, -1.061e-5
-1.225, -1.069e-5
-1.224, -1.081e-5
-1.223, -1.092e-5
-1.222, -1.087e-5
-1.221, -1.079e-5
-1.220, -1.088e-5
-1.219, -1.098e-5
-1.218, -1.115e-5
-1.217, -1.106e-5
-1.216, -1.095e-5
-1.215, -1.104e-5
-1.214, -1.115e-5
-1.213, -1.126e-5
-1.212, -1.118e-5
-1.211, -1.110e-5
-1.210, -1.117e-5
-1.209, -1.131e-5
-1.208, -1.146e-5
-1.207, -1.134e-5
-1.206, -1.127e-5
-1.205, -1.131e-5
-1.204, -1.143e-5
-1.203, -1.157e-5
-1.202, -1.150e-5
-1.201, -1.141e-5
-1.200, -1.148e-5
-1.199, -1.159e-5
-1.198, -1.168e-5
-1.197, -1.165e-5
-1.196, -1.152e-5
-1.195, -1.161e-5
-1.194, -1.171e-5
-1.193, -1.184e-5
-1.192, -1.175e-5
-1.191, -1.167e-5
-1.190, -1.173e-5
-1.189, -1.183e-5
-1.188, -1.194e-5
-1.187, -1.189e-5
-1.186, -1.176e-5
-1.185, -1.185e-5
-1.184, -1.196e-5
-1.183, -1.202e-5
-1.182, -1.199e-5
-1.181, -1.189e-5
-1.180, -1.192e-5
-1.179, -1.208e-5
-1.178, -1.212e-5
-1.177, -1.210e-5
-1.176, -1.196e-5
-1.175, -1.200e-5
-1.174, -1.217e-5
-1.173, -1.224e-5
-1.172, -1.219e-5
-1.171, -1.211e-5
-1.170, -1.209e-5
-1.169, -1.227e-5
-1.168, -1.230e-5
-1.167, -1.228e-5
-1.166, -1.219e-5
-1.165, -1.219e-5
-1.164, -1.237e-5
-1.163, -1.245e-5
-1.162, -1.239e-5
-1.161, -1.229e-5
-1.160, -1.229e-5
-1.159, -1.248e-5
-1.158, -1.254e-5
-1.157, -1.250e-5
-1.156, -1.236e-5
-1.155, -1.239e-5
-1.154, -1.257e-5
-1.153, -1.262e-5
-1.152, -1.260e-5
-1.151, -1.251e-5
-1.150, -1.247e-5
-1.149, -1.264e-5
-1.148, -1.274e-5
-1.147, -1.268e-5
-1.146, -1.261e-5
-1.145, -1.256e-5
-1.144, -1.276e-5
-1.143, -1.287e-5
-1.142, -1.280e-5
-1.141, -1.271e-5
-1.140, -1.270e-5
-1.139, -1.287e-5
-1.138, -1.293e-5
-1.137, -1.294e-5
-1.136, -1.282e-5
-1.135, -1.277e-5
-1.134, -1.299e-5
-1.133, -1.304e-5
-1.132, -1.308e-5
-1.131, -1.297e-5
-1.130, -1.294e-5
-1.129, -1.307e-5
-1.128, -1.323e-5
-1.127, -1.317e-5
-1.126, -1.310e-5
-1.125, -1.304e-5
-1.124, -1.321e-5
-1.123, -1.337e-5
-1.122, -1.333e-5
-1.121, -1.324e-5
-1.120, -1.322e-5
-1.119, -1.339e-5
-1.118, -1.353e-5
-1.117, -1.347e-5
-1.116, -1.338e-5
-1.115, -1.336e-5
-1.114, -1.357e-5
-1.113, -1.370e-5
-1.112, -1.364e-5
-1.111, -1.362e-5
-1.110, -1.357e-5
-1.109, -1.372e-5
-1.108, -1.387e-5
-1.107, -1.387e-5
-1.106, -1.379e-5
-1.105, -1.377e-5
-1.104, -1.391e-5
-1.103, -1.406e-5
-1.102, -1.407e-5
-1.101, -1.395e-5
-1.100, -1.399e-5
-1.099, -1.415e-5
-1.098, -1.427e-5
-1.097, -1.431e-5
-1.096, -1.420e-5
-1.095, -1.420e-5
-1.094, -1.436e-5
-1.093, -1.449e-5
-1.092, -1.453e-5
-1.091, -1.442e-5
-1.090, -1.441e-5
-1.089, -1.461e-5
-1.088, -1.472e-5
-1.087, -1.474e-5
-1.086, -1.467e-5
-1.085, -1.467e-5
-1.084, -1.480e-5
-1.083, -1.498e-5
-1.082, -1.501e-5
-1.081, -1.493e-5
-1.080, -1.492e-5
-1.079, -1.507e-5
-1.078, -1.525e-5
-1.077, -1.525e-5
-1.076, -1.516e-5
-1.075, -1.519e-5
-1.074, -1.529e-5
-1.073, -1.553e-5
-1.072, -1.548e-5
-1.071, -1.543e-5
-1.070, -1.543e-5
-1.069, -1.556e-5
-1.068, -1.571e-5
-1.067, -1.578e-5
-1.066, -1.567e-5
-1.065, -1.570e-5
-1.064, -1.583e-5
-1.063, -1.601e-5
-1.062, -1.605e-5
-1.061, -1.596e-5
-1.060, -1.594e-5
-1.059, -1.607e-5
-1.058, -1.623e-5
-1.057, -1.630e-5
-1.056, -1.619e-5
-1.055, -1.620e-5
-1.054, -1.633e-5
-1.053, -1.652e-5
-1.052, -1.657e-5
-1.051, -1.648e-5
-1.050, -1.645e-5
-1.049, -1.664e-5
-1.048, -1.677e-5
-1.047, -1.679e-5
-1.046, -1.679e-5
-1.045, -1.670e-5
-1.044, -1.684e-5
-1.043, -1.709e-5
-1.042, -1.702e-5
-1.041, -1.705e-5
-1.040, -1.697e-5
-1.039, -1.714e-5
-1.038, -1.736e-5
-1.037, -1.732e-5
-1.036, -1.727e-5
-1.035, -1.724e-5
-1.034, -1.740e-5
-1.033, -1.763e-5
-1.032, -1.761e-5
-1.031, -1.758e-5
-1.030, -1.754e-5
-1.029, -1.768e-5
-1.028, -1.786e-5
-1.027, -1.791e-5
-1.026, -1.780e-5
-1.025, -1.780e-5
-1.024, -1.801e-5
-1.023, -1.818e-5
-1.022, -1.819e-5
-1.021, -1.811e-5
-1.020, -1.804e-5
-1.019, -1.824e-5
-1.018, -1.845e-5
-1.017, -1.846e-5
-1.016, -1.840e-5
-1.015, -1.831e-5
-1.014, -1.853e-5
-1.013, -1.872e-5
-1.012, -1.874e-5
-1.011, -1.868e-5
-1.010, -1.861e-5
-1.009, -1.876e-5
-1.008, -1.896e-5
-1.007, -1.898e-5
-1.006, -1.894e-5
-1.005, -1.886e-5
-1.004, -1.902e-5
-1.003, -1.926e-5
-1.002, -1.925e-5
-1.001, -1.919e-5
-1.000, -1.534e-5
-1.001, -1.305e-5
-1.002, -1.186e-5
-1.003, -1.076e-5
-1.004, -9.773e-6
-1.005, -8.817e-6
-1.006, -8.237e-6
-1.007, -7.712e-6
-1.008, -7.120e-6
-1.009, -6.420e-6
-1.010, -5.754e-6
-1.011, -5.418e-6
-1.012, -5.114e-6
-1.013, -4.652e-6
-1.014, -4.157e-6
-1.015, -3.665e-6
-1.016, -3.438e-6
-1.017, -3.252e-6
-1.018, -2.882e-6
-1.019, -2.464e-6
-1.020, -2.134e-6
-1.021, -1.917e-6
-1.022, -1.825e-6
-1.023, -1.562e-6
-1.024, -1.183e-6
-1.025, -8.723e-7
-1.026, -7.027e-7
-1.027, -6.938e-7
-1.028, -4.747e-7
-1.029, -1.659e-7
-1.030, 9.057e-8
-1.031, 2.366e-7
-1.032, 2.228e-7
-1.033, 3.412e-7
-1.034, 6.954e-7
-1.035, 9.016e-7
-1.036, 9.381e-7
-1.037, 9.538e-7
-1.038, 1.021e-6
-1.039, 1.355e-6
-1.040, 1.512e-6
-1.041, 1.578e-6
-1.042, 1.552e-6
-1.043, 1.570e-6
-1.044, 1.906e-6
-1.045, 2.036e-6
-1.046, 2.063e-6
-1.047, 2.010e-6
-1.048, 2.059e-6
-1.049, 2.286e-6
-1.050, 2.463e-6
-1.051, 2.482e-6
-1.052, 2.433e-6
-1.053, 2.450e-6
-1.054, 2.688e-6
-1.055, 2.830e-6
-1.056, 2.818e-6
-1.057, 2.744e-6
-1.058, 2.772e-6
-1.059, 2.975e-6
-1.060, 3.092e-6
-1.061, 3.099e-6
-1.062, 3.010e-6
-1.063, 3.008e-6
-1.064, 3.233e-6
-1.065, 3.356e-6
-1.066, 3.326e-6
-1.067, 3.238e-6
-1.068, 3.245e-6
-1.069, 3.409e-6
-1.070, 3.543e-6
-1.071, 3.548e-6
-1.072, 3.431e-6
-1.073, 3.411e-6
-1.074, 3.605e-6
-1.075, 3.737e-6
-1.076, 3.719e-6
-1.077, 3.603e-6
-1.078, 3.577e-6
-1.079, 3.765e-6
-1.080, 3.866e-6
-1.081, 3.801e-6
-1.082, 3.721e-6
-1.083, 3.652e-6
-1.084, 3.852e-6
-1.085, 3.959e-6
-1.086, 3.927e-6
-1.087, 3.846e-6
-1.088, 3.803e-6
-1.089, 3.947e-6
-1.090, 4.086e-6
-1.091, 4.005e-6
-1.092, 3.910e-6
-1.093, 3.860e-6
-1.094, 4.036e-6
-1.095, 4.161e-6
-1.096, 4.112e-6
-1.097, 3.964e-6
-1.098, 3.971e-6
-1.099, 4.093e-6
-1.100, 4.174e-6
-1.101, 4.173e-6
-1.102, 4.020e-6
-1.103, 4.035e-6
-1.104, 4.139e-6
-1.105, 4.254e-6
-1.106, 4.243e-6
-1.107, 4.064e-6
-1.108, 4.064e-6
-1.109, 4.189e-6
-1.110, 4.291e-6
-1.111, 4.259e-6
-1.112, 4.152e-6
-1.113, 4.092e-6
-1.114, 4.225e-6
-1.115, 4.340e-6
-1.116, 4.283e-6
-1.117, 4.161e-6
-1.118, 4.136e-6
-1.119, 4.251e-6
-1.120, 4.320e-6
-1.121, 4.336e-6
-1.122, 4.198e-6
-1.123, 4.163e-6
-1.124, 4.255e-6
-1.125, 4.387e-6
-1.126, 4.345e-6
-1.127, 4.230e-6
-1.128, 4.184e-6
-1.129, 4.297e-6
-1.130, 4.394e-6
-1.131, 4.344e-6
-1.132, 4.230e-6
-1.133, 4.217e-6
-1.134, 4.310e-6
-1.135, 4.408e-6
-1.136, 4.337e-6
-1.137, 4.236e-6
-1.138, 4.225e-6
-1.139, 4.257e-6
-1.140, 4.406e-6
-1.141, 4.367e-6
-1.142, 4.238e-6
-1.143, 4.230e-6
-1.144, 4.274e-6
-1.145, 4.423e-6
-1.146, 4.373e-6
-1.147, 4.271e-6
-1.148, 4.218e-6
-1.149, 4.293e-6
-1.150, 4.426e-6
-1.151, 4.380e-6
-1.152, 4.229e-6
-1.153, 4.207e-6
-1.154, 4.338e-6
-1.155, 4.418e-6
-1.156, 4.375e-6
-1.157, 4.251e-6
-1.158, 4.226e-6
-1.159, 4.338e-6
-1.160, 4.413e-6
-1.161, 4.373e-6
-1.162, 4.279e-6
-1.163, 4.206e-6
-1.164, 4.291e-6
-1.165, 4.431e-6
-1.166, 4.378e-6
-1.167, 4.282e-6
-1.168, 4.245e-6
-1.169, 4.285e-6
-1.170, 4.425e-6
-1.171, 4.379e-6
-1.172, 4.269e-6
-1.173, 4.246e-6
-1.174, 4.309e-6
-1.175, 4.419e-6
-1.176, 4.399e-6
-1.177, 4.301e-6
-1.178, 4.258e-6
-1.179, 4.317e-6
-1.180, 4.418e-6
-1.181, 4.395e-6
-1.182, 4.283e-6
-1.183, 4.246e-6
-1.184, 4.345e-6
-1.185, 4.439e-6
-1.186, 4.396e-6
-1.187, 4.291e-6
-1.188, 4.239e-6
-1.189, 4.335e-6
-1.190, 4.463e-6
-1.191, 4.379e-6
-1.192, 4.338e-6
-1.193, 4.246e-6
-1.194, 4.364e-6
-1.195, 4.476e-6
-1.196, 4.417e-6
-1.197, 4.327e-6
-1.198, 4.296e-6
-1.199, 4.375e-6
-1.200, 4.481e-6
-1.201, 4.413e-6
-1.202, 4.369e-6
-1.203, 4.285e-6
-1.204, 4.375e-6
-1.205, 4.467e-6
-1.206, 4.422e-6
-1.207, 4.371e-6
-1.208, 4.312e-6
-1.209, 4.375e-6
-1.210, 4.495e-6
-1.211, 4.445e-6
-1.212, 4.363e-6
-1.213, 4.311e-6
-1.214, 4.427e-6
-1.215, 4.529e-6
-1.216, 4.481e-6
-1.217, 4.410e-6
-1.218, 4.348e-6
-1.219, 4.461e-6
-1.220, 4.580e-6
-1.221, 4.491e-6
-1.222, 4.411e-6
-1.223, 4.391e-6
-1.224, 4.485e-6
-1.225, 4.601e-6
-1.226, 4.515e-6
-1.227, 4.467e-6
-1.228, 4.440e-6
-1.229, 4.522e-6
-1.230, 4.627e-6
-1.231, 4.597e-6
-1.232, 4.528e-6
-1.233, 4.442e-6
-1.234, 4.534e-6
-1.235, 4.668e-6
-1.236, 4.593e-6
-1.237, 4.576e-6
-1.238, 4.480e-6
-1.239, 4.578e-6
-1.240, 4.680e-6
-1.241, 4.642e-6
-1.242, 4.582e-6
-1.243, 4.545e-6
-1.244, 4.669e-6
-1.245, 4.786e-6
-1.246, 4.717e-6
-1.247, 4.642e-6
-1.248, 4.606e-6
-1.249, 4.685e-6
-1.250, 4.823e-6
-1.251, 4.759e-6
-1.252, 4.728e-6
-1.253, 4.680e-6
-1.254, 4.753e-6
-1.255, 4.895e-6
-1.256, 4.846e-6
-1.257, 4.786e-6
-1.258, 4.747e-6
-1.259, 4.788e-6
-1.260, 4.953e-6
-1.261, 4.907e-6
-1.262, 4.865e-6
-1.263, 4.833e-6
-1.264, 4.910e-6
-1.265, 5.044e-6
-1.266, 5.048e-6
-1.267, 4.910e-6
-1.268, 4.921e-6
-1.269, 5.009e-6
-1.270, 5.141e-6
-1.271, 5.120e-6
-1.272, 5.032e-6
-1.273, 5.018e-6
-1.274, 5.124e-6
-1.275, 5.229e-6
-1.276, 5.264e-6
-1.277, 5.116e-6
-1.278, 5.121e-6
-1.279, 5.230e-6
-1.280, 5.357e-6
-1.281, 5.387e-6
-1.282, 5.278e-6
-1.283, 5.209e-6
-1.284, 5.365e-6
-1.285, 5.496e-6
-1.286, 5.541e-6
-1.287, 5.389e-6
-1.288, 5.379e-6
-1.289, 5.471e-6
-1.290, 5.634e-6
-1.291, 5.613e-6
-1.292, 5.558e-6
-1.293, 5.537e-6
-1.294, 5.603e-6
-1.295, 5.736e-6
-1.296, 5.801e-6
-1.297, 5.692e-6
-1.298, 5.702e-6
-1.299, 5.743e-6
-1.300, 5.916e-6
-1.301, 5.972e-6
-1.302, 5.864e-6
-1.303, 5.863e-6
-1.304, 5.916e-6
-1.305, 6.066e-6
-1.306, 6.176e-6
-1.307, 6.019e-6
-1.308, 6.005e-6
-1.309, 6.101e-6
-1.310, 6.229e-6
-1.311, 6.334e-6
-1.312, 6.196e-6
-1.313, 6.149e-6
-1.314, 6.298e-6
-1.315, 6.371e-6
-1.316, 6.454e-6
-1.317, 6.364e-6
-1.318, 6.369e-6
-1.319, 6.488e-6
-1.320, 6.593e-6
-1.321, 6.673e-6
-1.322, 6.556e-6
-1.323, 6.509e-6
-1.324, 6.606e-6
-1.325, 6.797e-6
-1.326, 6.886e-6
-1.327, 6.738e-6
-1.328, 6.718e-6
-1.329, 6.854e-6
-1.330, 6.972e-6
-1.331, 7.025e-6
-1.332, 6.937e-6
-1.333, 6.919e-6
-1.334, 6.994e-6
-1.335, 7.147e-6
-1.336, 7.241e-6
-1.337, 7.094e-6
-1.338, 7.132e-6
-1.339, 7.153e-6
-1.340, 7.315e-6
-1.341, 7.410e-6
-1.342, 7.271e-6
-1.343, 7.272e-6
-1.344, 7.373e-6
-1.345, 7.511e-6
-1.346, 7.588e-6
-1.347, 7.463e-6
-1.348, 7.445e-6
-1.349, 7.500e-6
-1.350, 7.679e-6
-1.351, 7.778e-6
-1.352, 7.641e-6
-1.353, 7.597e-6
-1.354, 7.707e-6
-1.355, 7.838e-6
-1.356, 7.892e-6
-1.357, 7.827e-6
-1.358, 7.757e-6
-1.359, 7.879e-6
-1.360, 7.985e-6
-1.361, 8.103e-6
-1.362, 7.987e-6
-1.363, 7.928e-6
-1.364, 7.992e-6
-1.365, 8.155e-6
-1.366, 8.181e-6
-1.367, 8.139e-6
-1.368, 8.077e-6
-1.369, 8.123e-6
-1.370, 8.302e-6
-1.371, 8.375e-6
-1.372, 8.261e-6
-1.373, 8.182e-6
-1.374, 8.286e-6
-1.375, 8.434e-6
-1.376, 8.480e-6
-1.377, 8.357e-6
-1.378, 8.347e-6
-1.379, 8.421e-6
-1.380, 8.563e-6
-1.381, 8.647e-6
-1.382, 8.505e-6
-1.383, 8.487e-6
-1.384, 8.530e-6
-1.385, 8.682e-6
-1.386, 8.738e-6
-1.387, 8.621e-6
-1.388, 8.586e-6
-1.389, 8.650e-6
-1.390, 8.780e-6
-1.391, 8.862e-6
-1.392, 8.754e-6
-1.393, 8.698e-6
-1.394, 8.752e-6
-1.395, 8.896e-6
-1.396, 8.943e-6
-1.397, 8.878e-6
-1.398, 8.838e-6
-1.399, 8.883e-6
-1.400, 8.999e-6
-1.401, 9.067e-6
-1.402, 9.001e-6
-1.403, 8.915e-6
-1.404, 8.962e-6
-1.405, 9.122e-6
-1.406, 9.157e-6
-1.407, 9.097e-6
-1.408, 9.044e-6
-1.409, 9.083e-6
-1.410, 9.235e-6
-1.411, 9.320e-6
-1.412, 9.223e-6
-1.413, 9.149e-6
-1.414, 9.217e-6
-1.415, 9.349e-6
-1.416, 9.412e-6
-1.417, 9.288e-6
-1.418, 9.281e-6
-1.419, 9.311e-6
-1.420, 9.488e-6
-1.421, 9.531e-6
-1.422, 9.470e-6
-1.423, 9.387e-6
-1.424, 9.466e-6
-1.425, 9.605e-6
-1.426, 9.669e-6
-1.427, 9.604e-6
-1.428, 9.530e-6
-1.429, 9.603e-6
-1.430, 9.763e-6
-1.431, 9.798e-6
-1.432, 9.735e-6
-1.433, 9.652e-6
-1.434, 9.737e-6
-1.435, 9.935e-6
-1.436, 9.931e-6
-1.437, 9.926e-6
-1.438, 9.860e-6
-1.439, 9.917e-6
-1.440, 1.008e-5
-1.441, 1.014e-5
-1.442, 1.010e-5
-1.443, 1.002e-5
-1.444, 1.010e-5
-1.445, 1.030e-5
-1.446, 1.032e-5
-1.447, 1.030e-5
-1.448, 1.021e-5
-1.449, 1.029e-5
-1.450, 1.049e-5
-1.451, 1.056e-5
-1.452, 1.049e-5
-1.453, 1.047e-5
-1.454, 1.051e-5
-1.455, 1.076e-5
-1.456, 1.079e-5
-1.457, 1.074e-5
-1.458, 1.074e-5
-1.459, 1.080e-5
-1.460, 1.099e-5
-1.461, 1.104e-5
-1.462, 1.102e-5
-1.463, 1.103e-5
-1.464, 1.109e-5
-1.465, 1.130e-5
-1.466, 1.139e-5
-1.467, 1.135e-5
-1.468, 1.133e-5
-1.469, 1.142e-5
-1.470, 1.164e-5
-1.471, 1.173e-5
-1.472, 1.173e-5
-1.473, 1.174e-5
-1.474, 1.184e-5
-1.475, 1.202e-5
-1.476, 1.212e-5
-1.477, 1.213e-5
-1.478, 1.216e-5
-1.479, 1.224e-5
-1.480, 1.247e-5
-1.481, 1.258e-5
-1.482, 1.263e-5
-1.483, 1.262e-5
-1.484, 1.276e-5
-1.485, 1.301e-5
-1.486, 1.317e-5
-1.487, 1.318e-5
-1.488, 1.316e-5
-1.489, 1.338e-5
-1.490, 1.360e-5
-1.491, 1.374e-5
-1.492, 1.381e-5
-1.493, 1.383e-5
-1.494, 1.400e-5
-1.495, 1.427e-5
-1.496, 1.447e-5
-1.497, 1.453e-5
-1.498, 1.458e-5
-1.499, 1.479e-5
-1.500, 1.505e-5
-1.501, 1.531e-5
-1.502, 1.534e-5
-1.503, 1.543e-5
-1.504, 1.568e-5
-1.505, 1.599e-5
-1.506, 1.624e-5
-1.507, 1.636e-5
-1.508, 1.646e-5
-1.509, 1.669e-5
-1.510, 1.706e-5
-1.511, 1.733e-5
-1.512, 1.745e-5
-1.513, 1.762e-5
-1.514, 1.786e-5
-1.515, 1.823e-5
-1.516, 1.856e-5
-1.517, 1.878e-5
-1.518, 1.891e-5
-1.519, 1.926e-5
-1.520, 1.963e-5
-1.521, 2.002e-5
-1.522, 2.021e-5
-1.523, 2.043e-5
-1.524, 2.082e-5
-1.525, 2.121e-5
-1.526, 2.164e-5
-1.527, 2.192e-5
-1.528, 2.216e-5
-1.529, 2.257e-5
-1.530, 2.306e-5
-1.531, 2.347e-5
-1.532, 2.383e-5
-1.533, 2.413e-5
-1.534, 2.458e-5
-1.535, 2.509e-5
-1.536, 2.559e-5
-1.537, 2.598e-5
-1.538, 2.630e-5
-1.539, 2.681e-5
-1.540, 2.739e-5
-1.541, 2.798e-5
-1.542, 2.836e-5
-1.543, 2.884e-5
-1.544, 2.940e-5
-1.545, 3.004e-5
-1.546, 3.063e-5
-1.547, 3.113e-5
-1.548, 3.157e-5
-1.549, 3.222e-5
-1.550, 3.292e-5
-1.551, 3.360e-5
-1.552, 3.412e-5
-1.553, 3.471e-5
-1.554, 3.540e-5
-1.555, 3.616e-5
-1.556, 3.692e-5
-1.557, 3.750e-5
-1.558, 3.811e-5
-1.559, 3.889e-5
-1.560, 3.971e-5
-1.561, 4.057e-5
-1.562, 4.125e-5
-1.563, 4.193e-5
-1.564, 4.278e-5
-1.565, 4.368e-5
-1.566, 4.463e-5
-1.567, 4.541e-5
-1.568, 4.619e-5
-1.569, 4.710e-5
-1.570, 4.816e-5
-1.571, 4.912e-5
-1.572, 5.000e-5
-1.573, 5.087e-5
-1.574, 5.191e-5
-1.575, 5.305e-5
-1.576, 5.423e-5
-1.577, 5.515e-5
-1.578, 5.618e-5
-1.579, 5.734e-5
-1.580, 5.859e-5
-1.581, 5.984e-5
-1.582, 6.097e-5
-1.583, 6.210e-5
-1.584, 6.340e-5
-1.585, 6.483e-5
-1.586, 6.627e-5
-1.587, 6.759e-5
-1.588, 6.886e-5
-1.589, 7.035e-5
-1.590, 7.186e-5
-1.591, 7.350e-5
-1.592, 7.504e-5
-1.593, 7.652e-5
-1.594, 7.823e-5
-1.595, 7.999e-5
-1.596, 8.185e-5
-1.597, 8.349e-5
-1.598, 8.524e-5
-1.599, 8.722e-5
-1.600, 8.924e-5
-1.601, 9.131e-5
-1.602, 9.338e-5
-1.603, 9.530e-5
-1.604, 9.754e-5
-1.605, 9.980e-5
-1.606, 1.022e-4
-1.607, 1.045e-4
-1.608, 1.068e-4
-1.609, 1.093e-4
-1.610, 1.120e-4
-1.611, 1.147e-4
-1.612, 1.173e-4
-1.613, 1.199e-4
-1.614, 1.228e-4
-1.615, 1.258e-4
-1.616, 1.289e-4
-1.617, 1.319e-4
-1.618, 1.349e-4
-1.619, 1.383e-4
-1.620, 1.416e-4
-1.621, 1.452e-4
-1.622, 1.486e-4
-1.623, 1.522e-4
-1.624, 1.559e-4
-1.625, 1.599e-4
-1.626, 1.639e-4
-1.627, 1.678e-4
-1.628, 1.718e-4
-1.629, 1.761e-4
-1.630, 1.805e-4
-1.631, 1.851e-4
-1.632, 1.896e-4
-1.633, 1.941e-4
-1.634, 1.989e-4
-1.635, 2.039e-4
-1.636, 2.091e-4
-1.637, 2.142e-4
-1.638, 2.195e-4
-1.639, 2.251e-4
-1.640, 2.308e-4
-1.641, 2.367e-4
-1.642, 2.426e-4
-1.643, 2.486e-4
-1.644, 2.549e-4
-1.645, 2.613e-4
-1.646, 2.681e-4
-1.647, 2.748e-4
-1.648, 2.815e-4
-1.649, 2.886e-4
-1.650, 2.960e-4
-1.651, 3.036e-4
-1.652, 3.114e-4
-1.653, 3.191e-4
-1.654, 3.273e-4
-1.655, 3.358e-4
-1.656, 3.446e-4
-1.657, 3.533e-4
-1.658, 3.622e-4
-1.659, 3.714e-4
-1.660, 3.811e-4
-1.661, 3.911e-4
-1.662, 4.011e-4
-1.663, 4.112e-4
-1.664, 4.218e-4
-1.665, 4.326e-4
-1.666, 4.438e-4
-1.667, 4.552e-4
-1.668, 4.667e-4
-1.669, 4.786e-4
-1.670, 4.910e-4
-1.671, 5.038e-4
-1.672, 5.167e-4
-1.673, 5.298e-4
-1.674, 5.432e-4
-1.675, 5.572e-4
-1.676, 5.717e-4
-1.677, 5.862e-4
-1.678, 6.010e-4
-1.679, 6.164e-4
-1.680, 6.320e-4
-1.681, 6.484e-4
-1.682, 6.649e-4
-1.683, 6.813e-4
-1.684, 6.986e-4
-1.685, 7.164e-4
-1.686, 7.346e-4
-1.687, 7.531e-4
-1.688, 7.718e-4
-1.689, 7.909e-4
-1.690, 8.110e-4
-1.691, 8.316e-4
-1.692, 8.521e-4
-1.693, 8.734e-4
-1.694, 8.948e-4
-1.695, 9.168e-4
-1.696, 9.396e-4
-1.697, 9.626e-4
-1.698, 9.855e-4
-1.699, 1.010e-3
-1.700, 1.034e-3
-1.701, 1.059e-3
-1.702, 1.085e-3
-1.703, 1.111e-3
-1.704, 1.137e-3
-1.705, 1.165e-3
-1.706, 1.193e-3
-1.707, 1.221e-3
-1.708, 1.250e-3
-1.709, 1.279e-3
-1.710, 1.308e-3
-1.711, 1.340e-3
-1.712, 1.371e-3
-1.713, 1.402e-3
-1.714, 1.435e-3
-1.715, 1.468e-3
-1.716, 1.501e-3
-1.717, 1.536e-3
-1.718, 1.570e-3
-1.719, 1.605e-3
-1.720, 1.641e-3
-1.721, 1.678e-3
-1.722, 1.714e-3
-1.723, 1.753e-3
-1.724, 1.790e-3
-1.725, 1.829e-3
-1.726, 1.870e-3
-1.727, 1.910e-3
-1.728, 1.951e-3
-1.729, 1.993e-3
-1.730, 2.034e-3
-1.731, 2.077e-3
-1.732, 2.121e-3
-1.733, 2.164e-3
-1.734, 2.209e-3
-1.735, 2.255e-3
-1.736, 2.300e-3
-1.737, 2.348e-3
-1.738, 2.396e-3
-1.739, 2.443e-3
-1.740, 2.492e-3
-1.741, 2.543e-3
-1.742, 2.591e-3
-1.743, 2.643e-3
-1.744, 2.694e-3
-1.745, 2.744e-3
-1.746, 2.800e-3
-1.747, 2.853e-3
-1.748, 2.905e-3
-1.749, 2.960e-3
-1.750, 3.016e-3
-1.751, 3.070e-3
-1.752, 3.128e-3
-1.753, 3.185e-3
-1.754, 3.241e-3
-1.755, 3.303e-3
-1.756, 3.361e-3
-1.757, 3.419e-3
-1.758, 3.482e-3
-1.759, 3.540e-3
-1.760, 3.601e-3
-1.761, 3.667e-3
-1.762, 3.727e-3
-1.763, 3.790e-3
-1.764, 3.856e-3
-1.765, 3.916e-3
-1.766, 3.983e-3
-1.767, 4.052e-3
-1.768, 4.113e-3
-1.769, 4.182e-3
-1.770, 4.251e-3
-1.771, 4.314e-3
-1.772, 4.385e-3
-1.773, 4.457e-3
-1.774, 4.521e-3
-1.775, 4.594e-3
-1.776, 4.666e-3
-1.777, 4.732e-3
-1.778, 4.809e-3
-1.779, 4.883e-3
-1.780, 4.950e-3
-1.781, 5.028e-3
-1.782, 5.102e-3
-1.783, 5.171e-3
-1.784, 5.251e-3
-1.785, 5.325e-3
-1.786, 5.396e-3
-1.787, 5.480e-3
-1.788, 5.555e-3
-1.789, 5.627e-3
-1.790, 5.710e-3
-1.791, 5.786e-3
-1.792, 5.862e-3
-1.793, 5.949e-3
-1.794, 6.023e-3
-1.795, 6.102e-3
-1.796, 6.193e-3
-1.797, 6.268e-3
-1.798, 6.348e-3
-1.799, 6.433e-3
-1.800, 6.457e-3
-1.799, 6.420e-3
-1.798, 6.379e-3
-1.797, 6.320e-3
-1.796, 6.270e-3
-1.795, 6.229e-3
-1.794, 6.167e-3
-1.793, 6.108e-3
-1.792, 6.061e-3
-1.791, 6.001e-3
-1.790, 5.948e-3
-1.789, 5.899e-3
-1.788, 5.839e-3
-1.787, 5.787e-3
-1.786, 5.732e-3
-1.785, 5.668e-3
-1.784, 5.618e-3
-1.783, 5.564e-3
-1.782, 5.502e-3
-1.781, 5.455e-3
-1.780, 5.399e-3
-1.779, 5.336e-3
-1.778, 5.285e-3
-1.777, 5.232e-3
-1.776, 5.169e-3
-1.775, 5.117e-3
-1.774, 5.062e-3
-1.773, 5.002e-3
-1.772, 4.952e-3
-1.771, 4.898e-3
-1.770, 4.839e-3
-1.769, 4.791e-3
-1.768, 4.742e-3
-1.767, 4.686e-3
-1.766, 4.639e-3
-1.765, 4.588e-3
-1.764, 4.534e-3
-1.763, 4.487e-3
-1.762, 4.434e-3
-1.761, 4.380e-3
-1.760, 4.334e-3
-1.759, 4.282e-3
-1.758, 4.229e-3
-1.757, 4.188e-3
-1.756, 4.136e-3
-1.755, 4.085e-3
-1.754, 4.041e-3
-1.753, 3.992e-3
-1.752, 3.941e-3
-1.751, 3.895e-3
-1.750, 3.845e-3
-1.749, 3.797e-3
-1.748, 3.753e-3
-1.747, 3.704e-3
-1.746, 3.654e-3
-1.745, 3.610e-3
-1.744, 3.563e-3
-1.743, 3.517e-3
-1.742, 3.474e-3
-1.741, 3.425e-3
-1.740, 3.379e-3
-1.739, 3.340e-3
-1.738, 3.296e-3
-1.737, 3.253e-3
-1.736, 3.210e-3
-1.735, 3.163e-3
-1.734, 3.123e-3
-1.733, 3.081e-3
-1.732, 3.036e-3
-1.731, 2.997e-3
-1.730, 2.958e-3
-1.729, 2.915e-3
-1.728, 2.878e-3
-1.727, 2.838e-3
-1.726, 2.796e-3
-1.725, 2.758e-3
-1.724, 2.719e-3
-1.723, 2.680e-3
-1.722, 2.643e-3
-1.721, 2.604e-3
-1.720, 2.566e-3
-1.719, 2.531e-3
-1.718, 2.494e-3
-1.717, 2.457e-3
-1.716, 2.422e-3
-1.715, 2.385e-3
-1.714, 2.351e-3
-1.713, 2.318e-3
-1.712, 2.283e-3
-1.711, 2.248e-3
-1.710, 2.216e-3
-1.709, 2.182e-3
-1.708, 2.149e-3
-1.707, 2.118e-3
-1.706, 2.084e-3
-1.705, 2.052e-3
-1.704, 2.023e-3
-1.703, 1.991e-3
-1.702, 1.960e-3
-1.701, 1.930e-3
-1.700, 1.900e-3
-1.699, 1.870e-3
-1.698, 1.842e-3
-1.697, 1.812e-3
-1.696, 1.783e-3
-1.695, 1.756e-3
-1.694, 1.727e-3
-1.693, 1.700e-3
-1.692, 1.673e-3
-1.691, 1.645e-3
-1.690, 1.619e-3
-1.689, 1.593e-3
-1.688, 1.567e-3
-1.687, 1.541e-3
-1.686, 1.516e-3
-1.685, 1.491e-3
-1.684, 1.467e-3
-1.683, 1.443e-3
-1.682, 1.418e-3
-1.681, 1.396e-3
-1.680, 1.373e-3
-1.679, 1.349e-3
-1.678, 1.327e-3
-1.677, 1.305e-3
-1.676, 1.282e-3
-1.675, 1.261e-3
-1.674, 1.239e-3
-1.673, 1.218e-3
-1.672, 1.199e-3
-1.671, 1.178e-3
-1.670, 1.157e-3
-1.669, 1.138e-3
-1.668, 1.119e-3
-1.667, 1.099e-3
-1.666, 1.080e-3
-1.665, 1.061e-3
-1.664, 1.043e-3
-1.663, 1.025e-3
-1.662, 1.006e-3
-1.661, 9.885e-4
-1.660, 9.716e-4
-1.659, 9.545e-4
-1.658, 9.377e-4
-1.657, 9.211e-4
-1.656, 9.043e-4
-1.655, 8.885e-4
-1.654, 8.730e-4
-1.653, 8.573e-4
-1.652, 8.417e-4
-1.651, 8.266e-4
-1.650, 8.114e-4
-1.649, 7.970e-4
-1.648, 7.830e-4
-1.647, 7.684e-4
-1.646, 7.543e-4
-1.645, 7.409e-4
-1.644, 7.273e-4
-1.643, 7.142e-4
-1.642, 7.011e-4
-1.641, 6.879e-4
-1.640, 6.755e-4
-1.639, 6.632e-4
-1.638, 6.507e-4
-1.637, 6.387e-4
-1.636, 6.267e-4
-1.635, 6.148e-4
-1.634, 6.037e-4
-1.633, 5.927e-4
-1.632, 5.813e-4
-1.631, 5.704e-4
-1.630, 5.598e-4
-1.629, 5.493e-4
-1.628, 5.391e-4
-1.627, 5.288e-4
-1.626, 5.185e-4
-1.625, 5.089e-4
-1.624, 4.994e-4
-1.623, 4.899e-4
-1.622, 4.804e-4
-1.621, 4.711e-4
-1.620, 4.620e-4
-1.619, 4.534e-4
-1.618, 4.448e-4
-1.617, 4.362e-4
-1.616, 4.278e-4
-1.615, 4.196e-4
-1.614, 4.116e-4
-1.613, 4.038e-4
-1.612, 3.957e-4
-1.611, 3.879e-4
-1.610, 3.805e-4
-1.609, 3.732e-4
-1.608, 3.660e-4
-1.607, 3.587e-4
-1.606, 3.518e-4
-1.605, 3.450e-4
-1.604, 3.384e-4
-1.603, 3.317e-4
-1.602, 3.251e-4
-1.601, 3.186e-4
-1.600, 3.123e-4
-1.599, 3.063e-4
-1.598, 3.003e-4
-1.597, 2.942e-4
-1.596, 2.882e-4
-1.595, 2.826e-4
-1.594, 2.771e-4
-1.593, 2.716e-4
-1.592, 2.661e-4
-1.591, 2.607e-4
-1.590, 2.555e-4
-1.589, 2.506e-4
-1.588, 2.455e-4
-1.587, 2.404e-4
-1.586, 2.354e-4
-1.585, 2.306e-4
-1.584, 2.262e-4
-1.583, 2.216e-4
-1.582, 2.170e-4
-1.581, 2.125e-4
-1.580, 2.082e-4
-1.579, 2.041e-4
-1.578, 2.000e-4
-1.577, 1.957e-4
-1.576, 1.917e-4
-1.575, 1.878e-4
-1.574, 1.841e-4
-1.573, 1.802e-4
-1.572, 1.764e-4
-1.571, 1.727e-4
-1.570, 1.692e-4
-1.569, 1.658e-4
-1.568, 1.623e-4
-1.567, 1.588e-4
-1.566, 1.555e-4
-1.565, 1.522e-4
-1.564, 1.491e-4
-1.563, 1.460e-4
-1.562, 1.428e-4
-1.561, 1.397e-4
-1.560, 1.368e-4
-1.559, 1.341e-4
-1.558, 1.312e-4
-1.557, 1.284e-4
-1.556, 1.256e-4
-1.555, 1.230e-4
-1.554, 1.205e-4
-1.553, 1.179e-4
-1.552, 1.154e-4
-1.551, 1.129e-4
-1.550, 1.105e-4
-1.549, 1.083e-4
-1.548, 1.059e-4
-1.547, 1.035e-4
-1.546, 1.013e-4
-1.545, 9.912e-5
-1.544, 9.709e-5
-1.543, 9.499e-5
-1.542, 9.281e-5
-1.541, 9.072e-5
-1.540, 8.884e-5
-1.539, 8.695e-5
-1.538, 8.504e-5
-1.537, 8.310e-5
-1.536, 8.117e-5
-1.535, 7.945e-5
-1.534, 7.778e-5
-1.533, 7.600e-5
-1.532, 7.425e-5
-1.531, 7.253e-5
-1.530, 7.095e-5
-1.529, 6.949e-5
-1.528, 6.791e-5
-1.527, 6.630e-5
-1.526, 6.472e-5
-1.525, 6.336e-5
-1.524, 6.205e-5
-1.523, 6.054e-5
-1.522, 5.914e-5
-1.521, 5.770e-5
-1.520, 5.647e-5
-1.519, 5.532e-5
-1.518, 5.394e-5
-1.517, 5.274e-5
-1.516, 5.137e-5
-1.515, 5.027e-5
-1.514, 4.926e-5
-1.513, 4.805e-5
-1.512, 4.688e-5
-1.511, 4.571e-5
-1.510, 4.470e-5
-1.509, 4.379e-5
-1.508, 4.273e-5
-1.507, 4.163e-5
-1.506, 4.060e-5
-1.505, 3.969e-5
-1.504, 3.887e-5
-1.503, 3.790e-5
-1.502, 3.691e-5
-1.501, 3.597e-5
-1.500, 3.514e-5
-1.499, 3.442e-5
-1.498, 3.358e-5
-1.497, 3.267e-5
-1.496, 3.182e-5
-1.495, 3.111e-5
-1.494, 3.047e-5
-1.493, 2.966e-5
-1.492, 2.886e-5
-1.491, 2.804e-5
-1.490, 2.748e-5
-1.489, 2.685e-5
-1.488, 2.622e-5
-1.487, 2.542e-5
-1.486, 2.469e-5
-1.485, 2.413e-5
-1.484, 2.369e-5
-1.483, 2.302e-5
-1.482, 2.234e-5
-1.481, 2.168e-5
-1.480, 2.120e-5
-1.479, 2.079e-5
-1.478, 2.018e-5
-1.477, 1.958e-5
-1.476, 1.898e-5
-1.475, 1.856e-5
-1.474, 1.820e-5
-1.473, 1.765e-5
-1.472, 1.709e-5
-1.471, 1.660e-5
-1.470, 1.618e-5
-1.469, 1.590e-5
-1.468, 1.540e-5
-1.467, 1.487e-5
-1.466, 1.440e-5
-1.465, 1.406e-5
-1.464, 1.381e-5
-1.463, 1.338e-5
-1.462, 1.288e-5
-1.461, 1.246e-5
-1.460, 1.212e-5
-1.459, 1.192e-5
-1.458, 1.155e-5
-1.457, 1.109e-5
-1.456, 1.067e-5
-1.455, 1.044e-5
-1.454, 1.022e-5
-1.453, 9.911e-6
-1.452, 9.458e-6
-1.451, 9.133e-6
-1.450, 8.905e-6
-1.449, 8.739e-6
-1.448, 8.444e-6
-1.447, 8.012e-6
-1.446, 7.690e-6
-1.445, 7.514e-6
-1.444, 7.398e-6
-1.443, 7.103e-6
-1.442, 6.741e-6
-1.441, 6.462e-6
-1.440, 6.276e-6
-1.439, 6.160e-6
-1.438, 5.908e-6
-1.437, 5.558e-6
-1.436, 5.314e-6
-1.435, 5.163e-6
-1.434, 5.059e-6
-1.433, 4.854e-6
-1.432, 4.541e-6
-1.431, 4.259e-6
-1.430, 4.169e-6
-1.429, 4.118e-6
-1.428, 3.887e-6
-1.427, 3.589e-6
-1.426, 3.346e-6
-1.425, 3.284e-6
-1.424, 3.239e-6
-1.423, 3.057e-6
-1.422, 2.714e-6
-1.421, 2.552e-6
-1.420, 2.459e-6
-1.419, 2.443e-6
-1.418, 2.304e-6
-1.417, 2.001e-6
-1.416, 1.816e-6
-1.415, 1.723e-6
-1.414, 1.722e-6
-1.413, 1.632e-6
-1.412, 1.333e-6
-1.411, 1.159e-6
-1.410, 1.054e-6
-1.409, 1.046e-6
-1.408, 1.016e-6
-1.407, 6.875e-7
-1.406, 5.138e-7
-1.405, 5.079e-7
-1.404, 5.247e-7
-1.403, 3.915e-7
-1.402, 1.478e-7
-1.401, -4.163e-8
-1.400, -4.065e-8
-1.399, -5.130e-9
-1.398, -7.617e-8
-1.397, -3.603e-7
-1.396, -4.974e-7
-1.395, -5.655e-7
-1.394, -5.399e-7
-1.393, -5.892e-7
-1.392, -8.477e-7
-1.391, -1.008e-6
-1.390, -1.001e-6
-1.389, -9.592e-7
-1.388, -9.838e-7
-1.387, -1.270e-6
-1.386, -1.443e-6
-1.385, -1.424e-6
-1.384, -1.413e-6
-1.383, -1.422e-6
-1.382, -1.698e-6
-1.381, -1.824e-6
-1.380, -1.839e-6
-1.379, -1.780e-6
-1.378, -1.842e-6
-1.377, -2.057e-6
-1.376, -2.201e-6
-1.375, -2.218e-6
-1.374, -2.166e-6
-1.373, -2.172e-6
-1.372, -2.399e-6
-1.371, -2.541e-6
-1.370, -2.547e-6
-1.369, -2.511e-6
-1.368, -2.506e-6
-1.367, -2.738e-6
-1.366, -2.918e-6
-1.365, -2.891e-6
-1.364, -2.806e-6
-1.363, -2.828e-6
-1.362, -3.087e-6
-1.361, -3.258e-6
-1.360, -3.231e-6
-1.359, -3.123e-6
-1.358, -3.169e-6
-1.357, -3.361e-6
-1.356, -3.537e-6
-1.355, -3.524e-6
-1.354, -3.449e-6
-1.353, -3.474e-6
-1.352, -3.660e-6
-1.351, -3.811e-6
-1.350, -3.841e-6
-1.349, -3.768e-6
-1.348, -3.751e-6
-1.347, -4.002e-6
-1.346, -4.106e-6
-1.345, -4.138e-6
-1.344, -4.043e-6
-1.343, -4.060e-6
-1.342, -4.296e-6
-1.341, -4.427e-6
-1.340, -4.407e-6
-1.339, -4.348e-6
-1.338, -4.327e-6
-1.337, -4.543e-6
-1.336, -4.719e-6
-1.335, -4.688e-6
-1.334, -4.629e-6
-1.333, -4.605e-6
-1.332, -4.814e-6
-1.331, -5.015e-6
-1.330, -5.001e-6
-1.329, -4.959e-6
-1.328, -4.893e-6
-1.327, -5.130e-6
-1.326, -5.268e-6
-1.325, -5.288e-6
-1.324, -5.193e-6
-1.323, -5.182e-6
-1.322, -5.380e-6
-1.321, -5.582e-6
-1.320, -5.530e-6
-1.319, -5.461e-6
-1.318, -5.484e-6
-1.317, -5.639e-6
-1.316, -5.815e-6
-1.315, -5.849e-6
-1.314, -5.703e-6
-1.313, -5.743e-6
-1.312, -5.912e-6
-1.311, -6.087e-6
-1.310, -6.138e-6
-1.309, -5.982e-6
-1.308, -6.001e-6
-1.307, -6.226e-6
-1.306, -6.322e-6
-1.305, -6.396e-6
-1.304, -6.252e-6
-1.303, -6.252e-6
-1.302, -6.465e-6
-1.301, -6.607e-6
-1.300, -6.627e-6
-1.299, -6.534e-6
-1.298, -6.538e-6
-1.297, -6.683e-6
-1.296, -6.833e-6
-1.295, -6.838e-6
-1.294, -6.771e-6
-1.293, -6.753e-6
-1.292, -6.930e-6
-1.291, -7.114e-6
-1.290, -7.129e-6
-1.289, -7.055e-6
-1.288, -7.023e-6
-1.287, -7.196e-6
-1.286, -7.370e-6
-1.285, -7.357e-6
-1.284, -7.220e-6
-1.283, -7.264e-6
-1.282, -7.451e-6
-1.281, -7.619e-6
-1.280, -7.599e-6
-1.279, -7.516e-6
-1.278, -7.511e-6
-1.277, -7.653e-6
-1.276, -7.863e-6
-1.275, -7.865e-6
-1.274, -7.742e-6
-1.273, -7.780e-6
-1.272, -7.916e-6
-1.271, -8.028e-6
-1.270, -8.103e-6
-1.269, -7.965e-6
-1.268, -7.971e-6
-1.267, -8.175e-6
-1.266, -8.299e-6
-1.265, -8.313e-6
-1.264, -8.202e-6
-1.263, -8.215e-6
-1.262, -8.341e-6
-1.261, -8.506e-6
-1.260, -8.491e-6
-1.259, -8.488e-6
-1.258, -8.441e-6
-1.257, -8.585e-6
-1.256, -8.709e-6
-1.255, -8.732e-6
-1.254, -8.617e-6
-1.253, -8.644e-6
-1.252, -8.791e-6
-1.251, -8.918e-6
-1.250, -8.934e-6
-1.249, -8.844e-6
-1.248, -8.825e-6
-1.247, -8.959e-6
-1.246, -9.135e-6
-1.245, -9.097e-6
-1.244, -9.025e-6
-1.243, -9.036e-6
-1.242, -9.175e-6
-1.241, -9.349e-6
-1.240, -9.333e-6
-1.239, -9.233e-6
-1.238, -9.213e-6
-1.237, -9.333e-6
-1.236, -9.497e-6
-1.235, -9.512e-6
-1.234, -9.414e-6
-1.233, -9.390e-6
-1.232, -9.514e-6
-1.231, -9.670e-6
-1.230, -9.688e-6
-1.229, -9.627e-6
-1.228, -9.576e-6
-1.227, -9.696e-6
-1.226, -9.871e-6
-1.225, -9.867e-6
-1.224, -9.783e-6
-1.223, -9.713e-6
-1.222, -9.858e-6
-1.221, -1.003e-5
-1.220, -1.000e-5
-1.219, -9.939e-6
-1.218, -9.862e-6
-1.217, -1.001e-5
-1.216, -1.016e-5
-1.215, -1.015e-5
-1.214, -1.006e-5
-1.213, -1.003e-5
-1.212, -1.016e-5
-1.211, -1.029e-5
-1.210, -1.026e-5
-1.209, -1.020e-5
-1.208, -1.015e-5
-1.207, -1.028e-5
-1.206, -1.043e-5
-1.205, -1.042e-5
-1.204, -1.030e-5
-1.203, -1.030e-5
-1.202, -1.039e-5
-1.201, -1.055e-5
-1.200, -1.050e-5
-1.199, -1.045e-5
-1.198, -1.040e-5
-1.197, -1.051e-5
-1.196, -1.065e-5
-1.195, -1.062e-5
-1.194, -1.056e-5
-1.193, -1.055e-5
-1.192, -1.064e-5
-1.191, -1.077e-5
-1.190, -1.073e-5
-1.189, -1.069e-5
-1.188, -1.058e-5
-1.187, -1.078e-5
-1.186, -1.088e-5
-1.185, -1.085e-5
-1.184, -1.079e-5
-1.183, -1.073e-5
-1.182, -1.090e-5
-1.181, -1.098e-5
-1.180, -1.099e-5
-1.179, -1.092e-5
-1.178, -1.085e-5
-1.177, -1.096e-5
-1.176, -1.112e-5
-1.175, -1.112e-5
-1.174, -1.104e-5
-1.173, -1.097e-5
-1.172, -1.108e-5
-1.171, -1.127e-5
-1.170, -1.120e-5
-1.169, -1.118e-5
-1.168, -1.108e-5
-1.167, -1.121e-5
-1.166, -1.136e-5
-1.165, -1.133e-5
-1.164, -1.129e-5
-1.163, -1.126e-5
-1.162, -1.135e-5
-1.161, -1.148e-5
-1.160, -1.146e-5
-1.159, -1.140e-5
-1.158, -1.137e-5
-1.157, -1.150e-5
-1.156, -1.162e-5
-1.155, -1.161e-5
-1.154, -1.153e-5
-1.153, -1.149e-5
-1.152, -1.164e-5
-1.151, -1.179e-5
-1.150, -1.175e-5
-1.149, -1.171e-5
-1.148, -1.166e-5
-1.147, -1.176e-5
-1.146, -1.192e-5
-1.145, -1.191e-5
-1.144, -1.185e-5
-1.143, -1.181e-5
-1.142, -1.193e-5
-1.141, -1.209e-5
-1.140, -1.209e-5
-1.139, -1.203e-5
-1.138, -1.198e-5
-1.137, -1.213e-5
-1.136, -1.226e-5
-1.135, -1.229e-5
-1.134, -1.223e-5
-1.133, -1.220e-5
-1.132, -1.228e-5
-1.131, -1.245e-5
-1.130, -1.248e-5
-1.129, -1.241e-5
-1.128, -1.238e-5
-1.127, -1.249e-5
-1.126, -1.268e-5
-1.125, -1.269e-5
-1.124, -1.263e-5
-1.123, -1.261e-5
-1.122, -1.274e-5
-1.121, -1.291e-5
-1.120, -1.293e-5
-1.119, -1.284e-5
-1.118, -1.286e-5
-1.117, -1.295e-5
-1.116, -1.315e-5
-1.115, -1.314e-5
-1.114, -1.312e-5
-1.113, -1.310e-5
-1.112, -1.326e-5
-1.111, -1.338e-5
-1.110, -1.344e-5
-1.109, -1.335e-5
-1.108, -1.332e-5
-1.107, -1.351e-5
-1.106, -1.366e-5
-1.105, -1.371e-5
-1.104, -1.365e-5
-1.103, -1.365e-5
-1.102, -1.380e-5
-1.101, -1.395e-5
-1.100, -1.400e-5
-1.099, -1.393e-5
-1.098, -1.395e-5
-1.097, -1.413e-5
-1.096, -1.426e-5
-1.095, -1.435e-5
-1.094, -1.425e-5
-1.093, -1.428e-5
-1.092, -1.440e-5
-1.091, -1.458e-5
-1.090, -1.466e-5
-1.089, -1.460e-5
-1.088, -1.464e-5
-1.087, -1.475e-5
-1.086, -1.490e-5
-1.085, -1.502e-5
-1.084, -1.494e-5
-1.083, -1.499e-5
-1.082, -1.508e-5
-1.081, -1.527e-5
-1.080, -1.535e-5
-1.079, -1.526e-5
-1.078, -1.535e-5
-1.077, -1.544e-5
-1.076, -1.565e-5
-1.075, -1.579e-5
-1.074, -1.565e-5
-1.073, -1.569e-5
-1.072, -1.578e-5
-1.071, -1.600e-5
-1.070, -1.612e-5
-1.069, -1.601e-5
-1.068, -1.601e-5
-1.067, -1.619e-5
-1.066, -1.639e-5
-1.065, -1.646e-5
-1.064, -1.639e-5
-1.063, -1.641e-5
-1.062, -1.654e-5
-1.061, -1.672e-5
-1.060, -1.686e-5
-1.059, -1.675e-5
-1.058, -1.676e-5
-1.057, -1.692e-5
-1.056, -1.709e-5
-1.055, -1.723e-5
-1.054, -1.716e-5
-1.053, -1.710e-5
-1.052, -1.725e-5
-1.051, -1.746e-5
-1.050, -1.755e-5
-1.049, -1.751e-5
-1.048, -1.748e-5
-1.047, -1.758e-5
-1.046, -1.784e-5
-1.045, -1.792e-5
-1.044, -1.841e-5
-1.043, -1.783e-5
-1.042, -1.797e-5
-1.041, -1.819e-5
-1.040, -1.828e-5
-1.039, -1.819e-5
-1.038, -1.816e-5
-1.037, -1.828e-5
-1.036, -1.850e-5
-1.035, -1.858e-5
-1.034, -1.853e-5
-1.033, -1.852e-5
-1.032, -1.860e-5
-1.031, -1.880e-5
-1.030, -1.896e-5
-1.029, -1.886e-5
-1.028, -1.880e-5
-1.027, -1.894e-5
-1.026, -1.912e-5
-1.025, -1.928e-5
-1.024, -1.917e-5
-1.023, -1.918e-5
-1.022, -1.926e-5
-1.021, -1.943e-5
-1.020, -1.960e-5
-1.019, -1.950e-5
-1.018, -1.944e-5
-1.017, -1.954e-5
-1.016, -1.976e-5
-1.015, -1.991e-5
-1.014, -1.981e-5
-1.013, -1.974e-5
-1.012, -1.982e-5
-1.011, -2.009e-5
-1.010, -2.021e-5
-1.009, -2.014e-5
-1.008, -2.004e-5
-1.007, -2.015e-5
-1.006, -2.035e-5
-1.005, -2.047e-5
-1.004, -2.040e-5
-1.003, -2.031e-5
-1.002, -2.041e-5
-1.001, -2.066e-5
-1.000, -1.711e-5
-1.001, -1.455e-5
-1.002, -1.297e-5
-1.003, -1.195e-5
-1.004, -1.115e-5
-1.005, -1.035e-5
-1.006, -9.452e-6
-1.007, -8.611e-6
-1.008, -8.010e-6
-1.009, -7.603e-6
-1.010, -7.093e-6
-1.011, -6.444e-6
-1.012, -5.866e-6
-1.013, -5.410e-6
-1.014, -5.199e-6
-1.015, -4.774e-6
-1.016, -4.330e-6
-1.017, -3.805e-6
-1.018, -3.518e-6
-1.019, -3.372e-6
-1.020, -3.117e-6
-1.021, -2.672e-6
-1.022, -2.266e-6
-1.023, -2.065e-6
-1.024, -1.932e-6
-1.025, -1.726e-6
-1.026, -1.380e-6
-1.027, -1.058e-6
-1.028, -8.980e-7
-1.029, -8.378e-7
-1.030, -6.721e-7
-1.031, -4.205e-7
-1.032, -8.800e-8
-1.033, 7.478e-8
-1.034, 6.590e-8
-1.035, 1.843e-7
-1.036, 4.300e-7
-1.037, 6.845e-7
-1.038, 8.206e-7
-1.039, 7.881e-7
-1.040, 8.907e-7
-1.041, 1.090e-6
-1.042, 1.323e-6
-1.043, 1.437e-6
-1.044, 1.398e-6
-1.045, 1.448e-6
-1.046, 1.679e-6
-1.047, 1.882e-6
-1.048, 1.953e-6
-1.049, 1.891e-6
-1.050, 1.952e-6
-1.051, 2.105e-6
-1.052, 2.335e-6
-1.053, 2.350e-6
-1.054, 2.312e-6
-1.055, 2.367e-6
-1.056, 2.497e-6
-1.057, 2.646e-6
-1.058, 2.758e-6
-1.059, 2.662e-6
-1.060, 2.642e-6
-1.061, 2.810e-6
-1.062, 2.986e-6
-1.063, 3.049e-6
-1.064, 2.916e-6
-1.065, 2.953e-6
-1.066, 3.072e-6
-1.067, 3.283e-6
-1.068, 3.245e-6
-1.069, 3.148e-6
-1.070, 3.209e-6
-1.071, 3.294e-6
-1.072, 3.442e-6
-1.073, 3.472e-6
-1.074, 3.378e-6
-1.075, 3.361e-6
-1.076, 3.497e-6
-1.077, 3.653e-6
-1.078, 3.641e-6
-1.079, 3.538e-6
-1.080, 3.550e-6
-1.081, 3.621e-6
-1.082, 3.806e-6
-1.083, 3.761e-6
-1.084, 3.671e-6
-1.085, 3.647e-6
-1.086, 3.752e-6
-1.087, 3.910e-6
-1.088, 3.881e-6
-1.089, 3.786e-6
-1.090, 3.784e-6
-1.091, 3.891e-6
-1.092, 4.010e-6
-1.093, 3.990e-6
-1.094, 3.871e-6
-1.095, 3.874e-6
-1.096, 3.956e-6
-1.097, 4.080e-6
-1.098, 4.104e-6
-1.099, 3.971e-6
-1.100, 3.926e-6
-1.101, 4.033e-6
-1.102, 4.163e-6
-1.103, 4.148e-6
-1.104, 4.033e-6
-1.105, 3.979e-6
-1.106, 4.100e-6
-1.107, 4.215e-6
-1.108, 4.160e-6
-1.109, 4.098e-6
-1.110, 3.995e-6
-1.111, 4.138e-6
-1.112, 4.269e-6
-1.113, 4.199e-6
-1.114, 4.130e-6
-1.115, 4.031e-6
-1.116, 4.189e-6
-1.117, 4.309e-6
-1.118, 4.254e-6
-1.119, 4.182e-6
-1.120, 4.100e-6
-1.121, 4.203e-6
-1.122, 4.320e-6
-1.123, 4.252e-6
-1.124, 4.217e-6
-1.125, 4.165e-6
-1.126, 4.194e-6
-1.127, 4.331e-6
-1.128, 4.290e-6
-1.129, 4.208e-6
-1.130, 4.174e-6
-1.131, 4.243e-6
-1.132, 4.334e-6
-1.133, 4.328e-6
-1.134, 4.182e-6
-1.135, 4.167e-6
-1.136, 4.232e-6
-1.137, 4.328e-6
-1.138, 4.315e-6
-1.139, 4.242e-6
-1.140, 4.164e-6
-1.141, 4.261e-6
-1.142, 4.390e-6
-1.143, 4.307e-6
-1.144, 4.243e-6
-1.145, 4.196e-6
-1.146, 4.278e-6
-1.147, 4.372e-6
-1.148, 4.297e-6
-1.149, 4.249e-6
-1.150, 4.189e-6
-1.151, 4.306e-6
-1.152, 4.373e-6
-1.153, 4.319e-6
-1.154, 4.295e-6
-1.155, 4.196e-6
-1.156, 4.269e-6
-1.157, 4.425e-6
-1.158, 4.337e-6
-1.159, 4.268e-6
-1.160, 4.198e-6
-1.161, 4.287e-6
-1.162, 4.409e-6
-1.163, 4.344e-6
-1.164, 4.252e-6
-1.165, 4.186e-6
-1.166, 4.295e-6
-1.167, 4.431e-6
-1.168, 4.361e-6
-1.169, 4.270e-6
-1.170, 4.189e-6
-1.171, 4.266e-6
-1.172, 4.415e-6
-1.173, 4.369e-6
-1.174, 4.276e-6
-1.175, 4.217e-6
-1.176, 4.291e-6
-1.177, 4.425e-6
-1.178, 4.371e-6
-1.179, 4.307e-6
-1.180, 4.189e-6
-1.181, 4.291e-6
-1.182, 4.430e-6
-1.183, 4.357e-6
-1.184, 4.273e-6
-1.185, 4.214e-6
-1.186, 4.329e-6
-1.187, 4.423e-6
-1.188, 4.392e-6
-1.189, 4.310e-6
-1.190, 4.256e-6
-1.191, 4.331e-6
-1.192, 4.427e-6
-1.193, 4.387e-6
-1.194, 4.330e-6
-1.195, 4.245e-6
-1.196, 4.334e-6
-1.197, 4.459e-6
-1.198, 4.389e-6
-1.199, 4.330e-6
-1.200, 4.255e-6
-1.201, 4.370e-6
-1.202, 4.450e-6
-1.203, 4.416e-6
-1.204, 4.344e-6
-1.205, 4.278e-6
-1.206, 4.317e-6
-1.207, 4.487e-6
-1.208, 4.407e-6
-1.209, 4.334e-6
-1.210, 4.301e-6
-1.211, 4.355e-6
-1.212, 4.442e-6
-1.213, 4.453e-6
-1.214, 4.354e-6
-1.215, 4.312e-6
-1.216, 4.367e-6
-1.217, 4.535e-6
-1.218, 4.467e-6
-1.219, 4.365e-6
-1.220, 4.334e-6
-1.221, 4.421e-6
-1.222, 4.531e-6
-1.223, 4.516e-6
-1.224, 4.402e-6
-1.225, 4.360e-6
-1.226, 4.461e-6
-1.227, 4.558e-6
-1.228, 4.557e-6
-1.229, 4.458e-6
-1.230, 4.450e-6
-1.231, 4.480e-6
-1.232, 4.568e-6
-1.233, 4.610e-6
-1.234, 4.449e-6
-1.235, 4.453e-6
-1.236, 4.516e-6
-1.237, 4.615e-6
-1.238, 4.623e-6
-1.239, 4.524e-6
-1.240, 4.457e-6
-1.241, 4.537e-6
-1.242, 4.693e-6
-1.243, 4.680e-6
-1.244, 4.514e-6
-1.245, 4.547e-6
-1.246, 4.618e-6
-1.247, 4.714e-6
-1.248, 4.741e-6
-1.249, 4.628e-6
-1.250, 4.614e-6
-1.251, 4.673e-6
-1.252, 4.740e-6
-1.253, 4.777e-6
-1.254, 4.673e-6
-1.255, 4.653e-6
-1.256, 4.734e-6
-1.257, 4.843e-6
-1.258, 4.900e-6
-1.259, 4.745e-6
-1.260, 4.722e-6
-1.261, 4.800e-6
-1.262, 4.931e-6
-1.263, 4.976e-6
-1.264, 4.839e-6
-1.265, 4.784e-6
-1.266, 4.902e-6
-1.267, 5.030e-6
-1.268, 5.061e-6
-1.269, 4.948e-6
-1.270, 4.917e-6
-1.271, 5.006e-6
-1.272, 5.126e-6
-1.273, 5.151e-6
-1.274, 5.034e-6
-1.275, 5.053e-6
-1.276, 5.077e-6
-1.277, 5.215e-6
-1.278, 5.294e-6
-1.279, 5.153e-6
-1.280, 5.133e-6
-1.281, 5.214e-6
-1.282, 5.350e-6
-1.283, 5.401e-6
-1.284, 5.258e-6
-1.285, 5.295e-6
-1.286, 5.321e-6
-1.287, 5.476e-6
-1.288, 5.510e-6
-1.289, 5.411e-6
-1.290, 5.434e-6
-1.291, 5.456e-6
-1.292, 5.599e-6
-1.293, 5.664e-6
-1.294, 5.585e-6
-1.295, 5.546e-6
-1.296, 5.617e-6
-1.297, 5.755e-6
-1.298, 5.820e-6
-1.299, 5.709e-6
-1.300, 5.687e-6
-1.301, 5.786e-6
-1.302, 5.921e-6
-1.303, 5.991e-6
-1.304, 5.850e-6
-1.305, 5.844e-6
-1.306, 5.958e-6
-1.307, 6.071e-6
-1.308, 6.151e-6
-1.309, 6.027e-6
-1.310, 6.028e-6
-1.311, 6.099e-6
-1.312, 6.247e-6
-1.313, 6.338e-6
-1.314, 6.215e-6
-1.315, 6.182e-6
-1.316, 6.300e-6
-1.317, 6.421e-6
-1.318, 6.512e-6
-1.319, 6.457e-6
-1.320, 6.347e-6
-1.321, 6.441e-6
-1.322, 6.602e-6
-1.323, 6.678e-6
-1.324, 6.586e-6
-1.325, 6.551e-6
-1.326, 6.616e-6
-1.327, 6.773e-6
-1.328, 6.836e-6
-1.329, 6.751e-6
-1.330, 6.713e-6
-1.331, 6.813e-6
-1.332, 6.952e-6
-1.333, 7.004e-6
-1.334, 6.939e-6
-1.335, 6.906e-6
-1.336, 6.983e-6
-1.337, 7.127e-6
-1.338, 7.225e-6
-1.339, 7.112e-6
-1.340, 7.044e-6
-1.341, 7.153e-6
-1.342, 7.278e-6
-1.343, 7.375e-6
-1.344, 7.290e-6
-1.345, 7.226e-6
-1.346, 7.305e-6
-1.347, 7.456e-6
-1.348, 7.521e-6
-1.349, 7.448e-6
-1.350, 7.385e-6
-1.351, 7.492e-6
-1.352, 7.601e-6
-1.353, 7.666e-6
-1.354, 7.606e-6
-1.355, 7.518e-6
-1.356, 7.608e-6
-1.357, 7.767e-6
-1.358, 7.850e-6
-1.359, 7.769e-6
-1.360, 7.689e-6
-1.361, 7.763e-6
-1.362, 7.915e-6
-1.363, 7.985e-6
-1.364, 7.908e-6
-1.365, 7.858e-6
-1.366, 7.887e-6
-1.367, 8.050e-6
-1.368, 8.107e-6
-1.369, 8.021e-6
-1.370, 7.971e-6
-1.371, 8.038e-6
-1.372, 8.162e-6
-1.373, 8.246e-6
-1.374, 8.122e-6
-1.375, 8.117e-6
-1.376, 8.184e-6
-1.377, 8.295e-6
-1.378, 8.367e-6
-1.379, 8.247e-6
-1.380, 8.227e-6
-1.381, 8.262e-6
-1.382, 8.420e-6
-1.383, 8.505e-6
-1.384, 8.364e-6
-1.385, 8.328e-6
-1.386, 8.396e-6
-1.387, 8.542e-6
-1.388, 8.573e-6
-1.389, 8.503e-6
-1.390, 8.470e-6
-1.391, 8.523e-6
-1.392, 8.624e-6
-1.393, 8.674e-6
-1.394, 8.622e-6
-1.395, 8.554e-6
-1.396, 8.592e-6
-1.397, 8.745e-6
-1.398, 8.791e-6
-1.399, 8.732e-6
-1.400, 8.658e-6
-1.401, 8.734e-6
-1.402, 8.861e-6
-1.403, 8.913e-6
-1.404, 8.836e-6
-1.405, 8.781e-6
-1.406, 8.799e-6
-1.407, 8.961e-6
-1.408, 9.034e-6
-1.409, 8.963e-6
-1.410, 8.889e-6
-1.411, 8.917e-6
-1.412, 9.093e-6
-1.413, 9.138e-6
-1.414, 9.086e-6
-1.415, 8.980e-6
-1.416, 9.068e-6
-1.417, 9.229e-6
-1.418, 9.264e-6
-1.419, 9.180e-6
-1.420, 9.116e-6
-1.421, 9.210e-6
-1.422, 9.333e-6
-1.423, 9.385e-6
-1.424, 9.335e-6
-1.425, 9.265e-6
-1.426, 9.362e-6
-1.427, 9.461e-6
-1.428, 9.554e-6
-1.429, 9.481e-6
-1.430, 9.398e-6
-1.431, 9.491e-6
-1.432, 9.595e-6
-1.433, 9.680e-6
-1.434, 9.634e-6
-1.435, 9.578e-6
-1.436, 9.641e-6
-1.437, 9.773e-6
-1.438, 9.856e-6
-1.439, 9.796e-6
-1.440, 9.749e-6
-1.441, 9.806e-6
-1.442, 9.979e-6
-1.443, 1.003e-5
-1.444, 9.984e-6
-1.445, 9.937e-6
-1.446, 1.003e-5
-1.447, 1.017e-5
-1.448, 1.024e-5
-1.449, 1.020e-5
-1.450, 1.018e-5
-1.451, 1.024e-5
-1.452, 1.035e-5
-1.453, 1.049e-5
-1.454, 1.046e-5
-1.455, 1.040e-5
-1.456, 1.046e-5
-1.457, 1.061e-5
-1.458, 1.072e-5
-1.459, 1.071e-5
-1.460, 1.070e-5
-1.461, 1.079e-5
-1.462, 1.088e-5
-1.463, 1.107e-5
-1.464, 1.102e-5
-1.465, 1.099e-5
-1.466, 1.110e-5
-1.467, 1.124e-5
-1.468, 1.141e-5
-1.469, 1.136e-5
-1.470, 1.133e-5
-1.471, 1.146e-5
-1.472, 1.161e-5
-1.473, 1.175e-5
-1.474, 1.176e-5
-1.475, 1.174e-5
-1.476, 1.190e-5
-1.477, 1.204e-5
-1.478, 1.220e-5
-1.479, 1.223e-5
-1.480, 1.219e-5
-1.481, 1.236e-5
-1.482, 1.256e-5
-1.483, 1.270e-5
-1.484, 1.272e-5
-1.485, 1.275e-5
-1.486, 1.294e-5
-1.487, 1.312e-5
-1.488, 1.329e-5
-1.489, 1.331e-5
-1.490, 1.334e-5
-1.491, 1.353e-5
-1.492, 1.373e-5
-1.493, 1.398e-5
-1.494, 1.402e-5
-1.495, 1.407e-5
-1.496, 1.424e-5
-1.497, 1.453e-5
-1.498, 1.474e-5
-1.499, 1.475e-5
-1.500, 1.487e-5
-1.501, 1.509e-5
-1.502, 1.537e-5
-1.503, 1.558e-5
-1.504, 1.569e-5
-1.505, 1.577e-5
-1.506, 1.604e-5
-1.507, 1.630e-5
-1.508, 1.659e-5
-1.509, 1.673e-5
-1.510, 1.685e-5
-1.511, 1.712e-5
-1.512, 1.747e-5
-1.513, 1.779e-5
-1.514, 1.793e-5
-1.515, 1.808e-5
-1.516, 1.841e-5
-1.517, 1.875e-5
-1.518, 1.912e-5
-1.519, 1.932e-5
-1.520, 1.947e-5
-1.521, 1.982e-5
-1.522, 2.026e-5
-1.523, 2.062e-5
-1.524, 2.086e-5
-1.525, 2.111e-5
-1.526, 2.150e-5
-1.527, 2.194e-5
-1.528, 2.239e-5
-1.529, 2.267e-5
-1.530, 2.294e-5
-1.531, 2.337e-5
-1.532, 2.384e-5
-1.533, 2.430e-5
-1.534, 2.466e-5
-1.535, 2.501e-5
-1.536, 2.547e-5
-1.537, 2.600e-5
-1.538, 2.649e-5
-1.539, 2.686e-5
-1.540, 2.726e-5
-1.541, 2.780e-5
-1.542, 2.837e-5
-1.543, 2.896e-5
-1.544, 2.942e-5
-1.545, 2.980e-5
-1.546, 3.041e-5
-1.547, 3.106e-5
-1.548, 3.167e-5
-1.549, 3.222e-5
-1.550, 3.273e-5
-1.551, 3.331e-5
-1.552, 3.405e-5
-1.553, 3.474e-5
-1.554, 3.532e-5
-1.555, 3.587e-5
-1.556, 3.658e-5
-1.557, 3.738e-5
-1.558, 3.810e-5
-1.559, 3.878e-5
-1.560, 3.941e-5
-1.561, 4.017e-5
-1.562, 4.107e-5
-1.563, 4.187e-5
-1.564, 4.264e-5
-1.565, 4.331e-5
-1.566, 4.416e-5
-1.567, 4.512e-5
-1.568, 4.600e-5
-1.569, 4.682e-5
-1.570, 4.764e-5
-1.571, 4.853e-5
-1.572, 4.961e-5
-1.573, 5.062e-5
-1.574, 5.149e-5
-1.575, 5.241e-5
-1.576, 5.344e-5
-1.577, 5.462e-5
-1.578, 5.576e-5
-1.579, 5.679e-5
-1.580, 5.780e-5
-1.581, 5.897e-5
-1.582, 6.025e-5
-1.583, 6.156e-5
-1.584, 6.263e-5
-1.585, 6.385e-5
-1.586, 6.512e-5
-1.587, 6.658e-5
-1.588, 6.798e-5
-1.589, 6.938e-5
-1.590, 7.072e-5
-1.591, 7.211e-5
-1.592, 7.372e-5
-1.593, 7.538e-5
-1.594, 7.692e-5
-1.595, 7.840e-5
-1.596, 8.010e-5
-1.597, 8.197e-5
-1.598, 8.382e-5
-1.599, 8.555e-5
-1.600, 8.730e-5
-1.601, 8.918e-5
-1.602, 9.129e-5
-1.603, 9.338e-5
-1.604, 9.545e-5
-1.605, 9.747e-5
-1.606, 9.950e-5
-1.607, 1.020e-4
-1.608, 1.043e-4
-1.609, 1.066e-4
-1.610, 1.089e-4
-1.611, 1.114e-4
-1.612, 1.140e-4
-1.613, 1.168e-4
-1.614, 1.194e-4
-1.615, 1.221e-4
-1.616, 1.249e-4
-1.617, 1.279e-4
-1.618, 1.311e-4
-1.619, 1.340e-4
-1.620, 1.371e-4
-1.621, 1.403e-4
-1.622, 1.437e-4
-1.623, 1.472e-4
-1.624, 1.507e-4
-1.625, 1.542e-4
-1.626, 1.579e-4
-1.627, 1.618e-4
-1.628, 1.657e-4
-1.629, 1.697e-4
-1.630, 1.735e-4
-1.631, 1.776e-4
-1.632, 1.821e-4
-1.633, 1.866e-4
-1.634, 1.911e-4
-1.635, 1.955e-4
-1.636, 2.002e-4
-1.637, 2.052e-4
-1.638, 2.104e-4
-1.639, 2.156e-4
-1.640, 2.207e-4
-1.641, 2.260e-4
-1.642, 2.316e-4
-1.643, 2.375e-4
-1.644, 2.433e-4
-1.645, 2.491e-4
-1.646, 2.552e-4
-1.647, 2.616e-4
-1.648, 2.681e-4
-1.649, 2.748e-4
-1.650, 2.815e-4
-1.651, 2.883e-4
-1.652, 2.954e-4
-1.653, 3.027e-4
-1.654, 3.102e-4
-1.655, 3.181e-4
-1.656, 3.258e-4
-1.657, 3.340e-4
-1.658, 3.426e-4
-1.659, 3.512e-4
-1.660, 3.597e-4
-1.661, 3.684e-4
-1.662, 3.778e-4
-1.663, 3.875e-4
-1.664, 3.973e-4
-1.665, 4.071e-4
-1.666, 4.171e-4
-1.667, 4.278e-4
-1.668, 4.388e-4
-1.669, 4.497e-4
-1.670, 4.609e-4
-1.671, 4.724e-4
-1.672, 4.843e-4
-1.673, 4.968e-4
-1.674, 5.092e-4
-1.675, 5.217e-4
-1.676, 5.346e-4
-1.677, 5.481e-4
-1.678, 5.621e-4
-1.679, 5.762e-4
-1.680, 5.902e-4
-1.681, 6.046e-4
-1.682, 6.196e-4
-1.683, 6.351e-4
-1.684, 6.512e-4
-1.685, 6.674e-4
-1.686, 6.836e-4
-1.687, 7.005e-4
-1.688, 7.180e-4
-1.689, 7.357e-4
-1.690, 7.538e-4
-1.691, 7.722e-4
-1.692, 7.910e-4
-1.693, 8.106e-4
-1.694, 8.305e-4
-1.695, 8.502e-4
-1.696, 8.708e-4
-1.697, 8.922e-4
-1.698, 9.136e-4
-1.699, 9.358e-4
-1.700, 9.582e-4
-1.701, 9.802e-4
-1.702, 1.004e-3
-1.703, 1.028e-3
-1.704, 1.053e-3
-1.705, 1.077e-3
-1.706, 1.103e-3
-1.707, 1.128e-3
-1.708, 1.155e-3
-1.709, 1.182e-3
-1.710, 1.209e-3
-1.711, 1.237e-3
-1.712, 1.265e-3
-1.713, 1.294e-3
-1.714, 1.324e-3
-1.715, 1.354e-3
-1.716, 1.384e-3
-1.717, 1.415e-3
-1.718, 1.447e-3
-1.719, 1.479e-3
-1.720, 1.512e-3
-1.721, 1.545e-3
-1.722, 1.578e-3
-1.723, 1.614e-3
-1.724, 1.649e-3
-1.725, 1.684e-3
-1.726, 1.720e-3
-1.727, 1.757e-3
-1.728, 1.794e-3
-1.729, 1.834e-3
-1.730, 1.872e-3
-1.731, 1.910e-3
-1.732, 1.951e-3
-1.733, 1.991e-3
-1.734, 2.032e-3
-1.735, 2.075e-3
-1.736, 2.116e-3
-1.737, 2.159e-3
-1.738, 2.204e-3
-1.739, 2.247e-3
-1.740, 2.291e-3
-1.741, 2.338e-3
-1.742, 2.382e-3
-1.743, 2.429e-3
-1.744, 2.479e-3
-1.745, 2.525e-3
-1.746, 2.572e-3
-1.747, 2.623e-3
-1.748, 2.672e-3
-1.749, 2.722e-3
-1.750, 2.775e-3
-1.751, 2.825e-3
-1.752, 2.877e-3
-1.753, 2.931e-3
-1.754, 2.983e-3
-1.755, 3.037e-3
-1.756, 3.092e-3
-1.757, 3.145e-3
-1.758, 3.203e-3
-1.759, 3.261e-3
-1.760, 3.315e-3
-1.761, 3.374e-3
-1.762, 3.432e-3
-1.763, 3.488e-3
-1.764, 3.550e-3
-1.765, 3.610e-3
-1.766, 3.666e-3
-1.767, 3.730e-3
-1.768, 3.791e-3
-1.769, 3.853e-3
-1.770, 3.919e-3
-1.771, 3.980e-3
-1.772, 4.041e-3
-1.773, 4.108e-3
-1.774, 4.171e-3
-1.775, 4.236e-3
-1.776, 4.307e-3
-1.777, 4.371e-3
-1.778, 4.438e-3
-1.779, 4.508e-3
-1.780, 4.571e-3
-1.781, 4.640e-3
-1.782, 4.711e-3
-1.783, 4.778e-3
-1.784, 4.853e-3
-1.785, 4.925e-3
-1.786, 4.989e-3
-1.787, 5.063e-3
-1.788, 5.139e-3
-1.789, 5.206e-3
-1.790, 5.284e-3
-1.791, 5.359e-3
-1.792, 5.423e-3
-1.793, 5.500e-3
-1.794, 5.577e-3
-1.795, 5.648e-3
-1.796, 5.728e-3
-1.797, 5.804e-3
-1.798, 5.875e-3
-1.799, 5.962e-3
-1.800, 5.988e-3
-1.799, 5.939e-3
-1.798, 5.904e-3
-1.797, 5.860e-3
-1.796, 5.808e-3
-1.795, 5.765e-3
-1.794, 5.714e-3
-1.793, 5.663e-3
-1.792, 5.622e-3
-1.791, 5.571e-3
-1.790, 5.520e-3
-1.789, 5.476e-3
-1.788, 5.420e-3
-1.787, 5.366e-3
-1.786, 5.325e-3
-1.785, 5.270e-3
-1.784, 5.217e-3
-1.783, 5.167e-3
-1.782, 5.110e-3
-1.781, 5.060e-3
-1.780, 5.014e-3
-1.779, 4.958e-3
-1.778, 4.907e-3
-1.777, 4.858e-3
-1.776, 4.802e-3
-1.775, 4.752e-3
-1.774, 4.703e-3
-1.773, 4.648e-3
-1.772, 4.600e-3
-1.771, 4.554e-3
-1.770, 4.500e-3
-1.769, 4.452e-3
-1.768, 4.407e-3
-1.767, 4.353e-3
-1.766, 4.305e-3
-1.765, 4.258e-3
-1.764, 4.204e-3
-1.763, 4.158e-3
-1.762, 4.113e-3
-1.761, 4.061e-3
-1.760, 4.016e-3
-1.759, 3.969e-3
-1.758, 3.918e-3
-1.757, 3.874e-3
-1.756, 3.829e-3
-1.755, 3.778e-3
-1.754, 3.732e-3
-1.753, 3.685e-3
-1.752, 3.639e-3
-1.751, 3.598e-3
-1.750, 3.553e-3
-1.749, 3.507e-3
-1.748, 3.463e-3
-1.747, 3.418e-3
-1.746, 3.373e-3
-1.745, 3.333e-3
-1.744, 3.288e-3
-1.743, 3.244e-3
-1.742, 3.204e-3
-1.741, 3.161e-3
-1.740, 3.118e-3
-1.739, 3.078e-3
-1.738, 3.034e-3
-1.737, 2.993e-3
-1.736, 2.955e-3
-1.735, 2.912e-3
-1.734, 2.872e-3
-1.733, 2.835e-3
-1.732, 2.794e-3
-1.731, 2.757e-3
-1.730, 2.719e-3
-1.729, 2.678e-3
-1.728, 2.642e-3
-1.727, 2.605e-3
-1.726, 2.566e-3
-1.725, 2.530e-3
-1.724, 2.493e-3
-1.723, 2.455e-3
-1.722, 2.421e-3
-1.721, 2.386e-3
-1.720, 2.350e-3
-1.719, 2.316e-3
-1.718, 2.282e-3
-1.717, 2.246e-3
-1.716, 2.214e-3
-1.715, 2.182e-3
-1.714, 2.149e-3
-1.713, 2.116e-3
-1.712, 2.083e-3
-1.711, 2.051e-3
-1.710, 2.022e-3
-1.709, 1.991e-3
-1.708, 1.960e-3
-1.707, 1.931e-3
-1.706, 1.901e-3
-1.705, 1.871e-3
-1.704, 1.842e-3
-1.703, 1.813e-3
-1.702, 1.785e-3
-1.701, 1.758e-3
-1.700, 1.730e-3
-1.699, 1.704e-3
-1.698, 1.677e-3
-1.697, 1.652e-3
-1.696, 1.626e-3
-1.695, 1.601e-3
-1.694, 1.574e-3
-1.693, 1.548e-3
-1.692, 1.524e-3
-1.691, 1.499e-3
-1.690, 1.474e-3
-1.689, 1.451e-3
-1.688, 1.427e-3
-1.687, 1.404e-3
-1.686, 1.381e-3
-1.685, 1.358e-3
-1.684, 1.336e-3
-1.683, 1.314e-3
-1.682, 1.292e-3
-1.681, 1.271e-3
-1.680, 1.249e-3
-1.679, 1.228e-3
-1.678, 1.207e-3
-1.677, 1.187e-3
-1.676, 1.166e-3
-1.675, 1.147e-3
-1.674, 1.127e-3
-1.673, 1.107e-3
-1.672, 1.088e-3
-1.671, 1.070e-3
-1.670, 1.051e-3
-1.669, 1.033e-3
-1.668, 1.014e-3
-1.667, 9.964e-4
-1.666, 9.794e-4
-1.665, 9.616e-4
-1.664, 9.445e-4
-1.663, 9.278e-4
-1.662, 9.115e-4
-1.661, 8.958e-4
-1.660, 8.803e-4
-1.659, 8.643e-4
-1.658, 8.489e-4
-1.657, 8.340e-4
-1.656, 8.190e-4
-1.655, 8.043e-4
-1.654, 7.897e-4
-1.653, 7.750e-4
-1.652, 7.612e-4
-1.651, 7.477e-4
-1.650, 7.338e-4
-1.649, 7.204e-4
-1.648, 7.072e-4
-1.647, 6.940e-4
-1.646, 6.817e-4
-1.645, 6.691e-4
-1.644, 6.565e-4
-1.643, 6.446e-4
-1.642, 6.327e-4
-1.641, 6.209e-4
-1.640, 6.093e-4
-1.639, 5.977e-4
-1.638, 5.861e-4
-1.637, 5.756e-4
-1.636, 5.650e-4
-1.635, 5.541e-4
-1.634, 5.437e-4
-1.633, 5.333e-4
-1.632, 5.234e-4
-1.631, 5.137e-4
-1.630, 5.039e-4
-1.629, 4.942e-4
-1.628, 4.848e-4
-1.627, 4.756e-4
-1.626, 4.667e-4
-1.625, 4.577e-4
-1.624, 4.487e-4
-1.623, 4.401e-4
-1.622, 4.320e-4
-1.621, 4.237e-4
-1.620, 4.155e-4
-1.619, 4.074e-4
-1.618, 3.994e-4
-1.617, 3.918e-4
-1.616, 3.844e-4
-1.615, 3.768e-4
-1.614, 3.694e-4
-1.613, 3.622e-4
-1.612, 3.552e-4
-1.611, 3.484e-4
-1.610, 3.415e-4
-1.609, 3.346e-4
-1.608, 3.281e-4
-1.607, 3.217e-4
-1.606, 3.154e-4
-1.605, 3.092e-4
-1.604, 3.029e-4
-1.603, 2.968e-4
-1.602, 2.912e-4
-1.601, 2.855e-4
-1.600, 2.798e-4
-1.599, 2.741e-4
-1.598, 2.687e-4
-1.597, 2.634e-4
-1.596, 2.583e-4
-1.595, 2.530e-4
-1.594, 2.478e-4
-1.593, 2.429e-4
-1.592, 2.381e-4
-1.591, 2.334e-4
-1.590, 2.286e-4
-1.589, 2.238e-4
-1.588, 2.193e-4
-1.587, 2.150e-4
-1.586, 2.106e-4
-1.585, 2.063e-4
-1.584, 2.020e-4
-1.583, 1.979e-4
-1.582, 1.940e-4
-1.581, 1.902e-4
-1.580, 1.861e-4
-1.579, 1.822e-4
-1.578, 1.785e-4
-1.577, 1.749e-4
-1.576, 1.715e-4
-1.575, 1.678e-4
-1.574, 1.642e-4
-1.573, 1.608e-4
-1.572, 1.576e-4
-1.571, 1.544e-4
-1.570, 1.511e-4
-1.569, 1.478e-4
-1.568, 1.448e-4
-1.567, 1.418e-4
-1.566, 1.390e-4
-1.565, 1.360e-4
-1.564, 1.331e-4
-1.563, 1.302e-4
-1.562, 1.276e-4
-1.561, 1.250e-4
-1.560, 1.223e-4
-1.559, 1.196e-4
-1.558, 1.171e-4
-1.557, 1.147e-4
-1.556, 1.124e-4
-1.555, 1.100e-4
-1.554, 1.075e-4
-1.553, 1.052e-4
-1.552, 1.031e-4
-1.551, 1.010e-4
-1.550, 9.877e-5
-1.549, 9.654e-5
-1.548, 9.447e-5
-1.547, 9.255e-5
-1.546, 9.060e-5
-1.545, 8.856e-5
-1.544, 8.658e-5
-1.543, 8.468e-5
-1.542, 8.294e-5
-1.541, 8.115e-5
-1.540, 7.933e-5
-1.539, 7.746e-5
-1.538, 7.580e-5
-1.537, 7.423e-5
-1.536, 7.268e-5
-1.535, 7.103e-5
-1.534, 6.928e-5
-1.533, 6.777e-5
-1.532, 6.643e-5
-1.531, 6.499e-5
-1.530, 6.348e-5
-1.529, 6.197e-5
-1.528, 6.060e-5
-1.527, 5.939e-5
-1.526, 5.811e-5
-1.525, 5.667e-5
-1.524, 5.540e-5
-1.523, 5.409e-5
-1.522, 5.301e-5
-1.521, 5.184e-5
-1.520, 5.056e-5
-1.519, 4.937e-5
-1.518, 4.821e-5
-1.517, 4.727e-5
-1.516, 4.621e-5
-1.515, 4.507e-5
-1.514, 4.395e-5
-1.513, 4.295e-5
-1.512, 4.212e-5
-1.511, 4.118e-5
-1.510, 4.010e-5
-1.509, 3.907e-5
-1.508, 3.817e-5
-1.507, 3.739e-5
-1.506, 3.658e-5
-1.505, 3.560e-5
-1.504, 3.470e-5
-1.503, 3.392e-5
-1.502, 3.318e-5
-1.501, 3.248e-5
-1.500, 3.163e-5
-1.499, 3.076e-5
-1.498, 3.004e-5
-1.497, 2.948e-5
-1.496, 2.878e-5
-1.495, 2.798e-5
-1.494, 2.715e-5
-1.493, 2.660e-5
-1.492, 2.603e-5
-1.491, 2.546e-5
-1.490, 2.476e-5
-1.489, 2.400e-5
-1.488, 2.346e-5
-1.487, 2.297e-5
-1.486, 2.248e-5
-1.485, 2.183e-5
-1.484, 2.113e-5
-1.483, 2.065e-5
-1.482, 2.020e-5
-1.481, 1.974e-5
-1.480, 1.919e-5
-1.479, 1.859e-5
-1.478, 1.807e-5
-1.477, 1.773e-5
-1.476, 1.736e-5
-1.475, 1.679e-5
-1.474, 1.627e-5
-1.473, 1.584e-5
-1.472, 1.551e-5
-1.471, 1.516e-5
-1.470, 1.466e-5
-1.469, 1.418e-5
-1.468, 1.384e-5
-1.467, 1.348e-5
-1.466, 1.322e-5
-1.465, 1.274e-5
-1.464, 1.226e-5
-1.463, 1.197e-5
-1.462, 1.172e-5
-1.461, 1.142e-5
-1.460, 1.104e-5
-1.459, 1.057e-5
-1.458, 1.029e-5
-1.457, 1.007e-5
-1.456, 9.880e-6
-1.455, 9.457e-6
-1.454, 9.059e-6
-1.453, 8.854e-6
-1.452, 8.637e-6
-1.451, 8.408e-6
-1.450, 8.075e-6
-1.449, 7.658e-6
-1.448, 7.496e-6
-1.447, 7.326e-6
-1.446, 7.158e-6
-1.445, 6.797e-6
-1.444, 6.473e-6
-1.443, 6.264e-6
-1.442, 6.150e-6
-1.441, 5.997e-6
-1.440, 5.700e-6
-1.439, 5.341e-6
-1.438, 5.187e-6
-1.437, 5.090e-6
-1.436, 5.013e-6
-1.435, 4.650e-6
-1.434, 4.352e-6
-1.433, 4.229e-6
-1.432, 4.138e-6
-1.431, 4.028e-6
-1.430, 3.741e-6
-1.429, 3.503e-6
-1.428, 3.352e-6
-1.427, 3.301e-6
-1.426, 3.206e-6
-1.425, 2.904e-6
-1.424, 2.682e-6
-1.423, 2.527e-6
-1.422, 2.493e-6
-1.421, 2.476e-6
-1.420, 2.196e-6
-1.419, 1.943e-6
-1.418, 1.882e-6
-1.417, 1.794e-6
-1.416, 1.748e-6
-1.415, 1.545e-6
-1.414, 1.278e-6
-1.413, 1.223e-6
-1.412, 1.194e-6
-1.411, 1.110e-6
-1.410, 9.558e-7
-1.409, 6.510e-7
-1.408, 6.184e-7
-1.407, 6.115e-7
-1.406, 5.375e-7
-1.405, 3.796e-7
-1.404, 1.705e-7
-1.403, 8.761e-8
-1.402, 1.221e-7
-1.401, 4.617e-8
-1.400, -1.117e-7
-1.399, -3.613e-7
-1.398, -4.284e-7
-1.397, -3.771e-7
-1.396, -3.761e-7
-1.395, -5.931e-7
-1.394, -8.122e-7
-1.393, -8.339e-7
-1.392, -8.714e-7
-1.391, -8.062e-7
-1.390, -1.041e-6
-1.389, -1.229e-6
-1.388, -1.236e-6
-1.387, -1.261e-6
-1.386, -1.226e-6
-1.385, -1.385e-6
-1.384, -1.608e-6
-1.383, -1.675e-6
-1.382, -1.645e-6
-1.381, -1.617e-6
-1.380, -1.768e-6
-1.379, -1.973e-6
-1.378, -2.037e-6
-1.377, -1.954e-6
-1.376, -1.979e-6
-1.375, -2.123e-6
-1.374, -2.352e-6
-1.373, -2.356e-6
-1.372, -2.304e-6
-1.371, -2.294e-6
-1.370, -2.455e-6
-1.369, -2.685e-6
-1.368, -2.713e-6
-1.367, -2.596e-6
-1.366, -2.613e-6
-1.365, -2.775e-6
-1.364, -2.963e-6
-1.363, -3.028e-6
-1.362, -2.911e-6
-1.361, -2.918e-6
-1.360, -3.052e-6
-1.359, -3.285e-6
-1.358, -3.310e-6
-1.357, -3.190e-6
-1.356, -3.205e-6
-1.355, -3.404e-6
-1.354, -3.513e-6
-1.353, -3.619e-6
-1.352, -3.466e-6
-1.351, -3.484e-6
-1.350, -3.675e-6
-1.349, -3.846e-6
-1.348, -3.885e-6
-1.347, -3.797e-6
-1.346, -3.756e-6
-1.345, -3.908e-6
-1.344, -4.115e-6
-1.343, -4.174e-6
-1.342, -4.039e-6
-1.341, -4.016e-6
-1.340, -4.184e-6
-1.339, -4.355e-6
-1.338, -4.434e-6
-1.337, -4.331e-6
-1.336, -4.319e-6
-1.335, -4.457e-6
-1.334, -4.634e-6
-1.333, -4.701e-6
-1.332, -4.583e-6
-1.331, -4.629e-6
-1.330, -4.701e-6
-1.329, -4.866e-6
-1.328, -4.959e-6
-1.327, -4.866e-6
-1.326, -4.841e-6
-1.325, -4.946e-6
-1.324, -5.126e-6
-1.323, -5.232e-6
-1.322, -5.135e-6
-1.321, -5.127e-6
-1.320, -5.196e-6
-1.319, -5.416e-6
-1.318, -5.502e-6
-1.317, -5.352e-6
-1.316, -5.322e-6
-1.315, -5.467e-6
-1.314, -5.628e-6
-1.313, -5.759e-6
-1.312, -5.606e-6
-1.311, -5.556e-6
-1.310, -5.725e-6
-1.309, -5.873e-6
-1.308, -5.994e-6
-1.307, -5.879e-6
-1.306, -5.815e-6
-1.305, -5.971e-6
-1.304, -6.114e-6
-1.303, -6.189e-6
-1.302, -6.154e-6
-1.301, -6.055e-6
-1.300, -6.219e-6
-1.299, -6.351e-6
-1.298, -6.449e-6
-1.297, -6.369e-6
-1.296, -6.293e-6
-1.295, -6.427e-6
-1.294, -6.585e-6
-1.293, -6.656e-6
-1.292, -6.596e-6
-1.291, -6.568e-6
-1.290, -6.633e-6
-1.289, -6.831e-6
-1.288, -6.901e-6
-1.287, -6.829e-6
-1.286, -6.784e-6
-1.285, -6.896e-6
-1.284, -7.052e-6
-1.283, -7.158e-6
-1.282, -7.051e-6
-1.281, -6.994e-6
-1.280, -7.109e-6
-1.279, -7.264e-6
-1.278, -7.375e-6
-1.277, -7.266e-6
-1.276, -7.200e-6
-1.275, -7.318e-6
-1.274, -7.482e-6
-1.273, -7.549e-6
-1.272, -7.492e-6
-1.271, -7.434e-6
-1.270, -7.518e-6
-1.269, -7.699e-6
-1.268, -7.780e-6
-1.267, -7.727e-6
-1.266, -7.630e-6
-1.265, -7.716e-6
-1.264, -7.897e-6
-1.263, -7.993e-6
-1.262, -7.904e-6
-1.261, -7.818e-6
-1.260, -7.921e-6
-1.259, -8.081e-6
-1.258, -8.209e-6
-1.257, -8.101e-6
-1.256, -8.036e-6
-1.255, -8.130e-6
-1.254, -8.308e-6
-1.253, -8.381e-6
-1.252, -8.295e-6
-1.251, -8.212e-6
-1.250, -8.316e-6
-1.249, -8.457e-6
-1.248, -8.536e-6
-1.247, -8.467e-6
-1.246, -8.415e-6
-1.245, -8.485e-6
-1.244, -8.651e-6
-1.243, -8.738e-6
-1.242, -8.640e-6
-1.241, -8.583e-6
-1.240, -8.639e-6
-1.239, -8.803e-6
-1.238, -8.882e-6
-1.237, -8.813e-6
-1.236, -8.717e-6
-1.235, -8.829e-6
-1.234, -8.934e-6
-1.233, -9.067e-6
-1.232, -8.957e-6
-1.231, -8.890e-6
-1.230, -8.973e-6
-1.229, -9.121e-6
-1.228, -9.188e-6
-1.227, -9.141e-6
-1.226, -9.038e-6
-1.225, -9.081e-6
-1.224, -9.245e-6
-1.223, -9.291e-6
-1.222, -9.303e-6
-1.221, -9.145e-6
-1.220, -9.203e-6
-1.219, -9.406e-6
-1.218, -9.427e-6
-1.217, -9.386e-6
-1.216, -9.308e-6
-1.215, -9.344e-6
-1.214, -9.540e-6
-1.213, -9.551e-6
-1.212, -9.483e-6
-1.211, -9.440e-6
-1.210, -9.485e-6
-1.209, -9.645e-6
-1.208, -9.678e-6
-1.207, -9.618e-6
-1.206, -9.544e-6
-1.205, -9.585e-6
-1.204, -9.732e-6
-1.203, -9.770e-6
-1.202, -9.728e-6
-1.201, -9.641e-6
-1.200, -9.659e-6
-1.199, -9.844e-6
-1.198, -9.889e-6
-1.197, -9.831e-6
-1.196, -9.726e-6
-1.195, -9.816e-6
-1.194, -9.915e-6
-1.193, -1.000e-5
-1.192, -9.929e-6
-1.191, -9.815e-6
-1.190, -9.916e-6
-1.189, -1.004e-5
-1.188, -1.010e-5
-1.187, -1.004e-5
-1.186, -9.929e-6
-1.185, -1.002e-5
-1.184, -1.011e-5
-1.183, -1.022e-5
-1.182, -1.015e-5
-1.181, -1.003e-5
-1.180, -1.010e-5
-1.179, -1.025e-5
-1.178, -1.032e-5
-1.177, -1.029e-5
-1.176, -1.017e-5
-1.175, -1.022e-5
-1.174, -1.037e-5
-1.173, -1.043e-5
-1.172, -1.040e-5
-1.171, -1.031e-5
-1.170, -1.035e-5
-1.169, -1.046e-5
-1.168, -1.054e-5
-1.167, -1.047e-5
-1.166, -1.044e-5
-1.165, -1.049e-5
-1.164, -1.061e-5
-1.163, -1.069e-5
-1.162, -1.067e-5
-1.161, -1.058e-5
-1.160, -1.062e-5
-1.159, -1.075e-5
-1.158, -1.083e-5
-1.157, -1.079e-5
-1.156, -1.072e-5
-1.155, -1.081e-5
-1.154, -1.088e-5
-1.153, -1.099e-5
-1.152, -1.095e-5
-1.151, -1.087e-5
-1.150, -1.098e-5
-1.149, -1.104e-5
-1.148, -1.112e-5
-1.147, -1.113e-5
-1.146, -1.104e-5
-1.145, -1.117e-5
-1.144, -1.122e-5
-1.143, -1.131e-5
-1.142, -1.129e-5
-1.141, -1.124e-5
-1.140, -1.132e-5
-1.139, -1.144e-5
-1.138, -1.154e-5
-1.137, -1.152e-5
-1.136, -1.142e-5
-1.135, -1.149e-5
-1.134, -1.165e-5
-1.133, -1.173e-5
-1.132, -1.171e-5
-1.131, -1.165e-5
-1.130, -1.174e-5
-1.129, -1.188e-5
-1.128, -1.197e-5
-1.127, -1.194e-5
-1.126, -1.187e-5
-1.125, -1.200e-5
-1.124, -1.211e-5
-1.123, -1.222e-5
-1.122, -1.218e-5
-1.121, -1.213e-5
-1.120, -1.222e-5
-1.119, -1.239e-5
-1.118, -1.249e-5
-1.117, -1.245e-5
-1.116, -1.239e-5
-1.115, -1.250e-5
-1.114, -1.265e-5
-1.113, -1.279e-5
-1.112, -1.275e-5
-1.111, -1.270e-5
-1.110, -1.280e-5
-1.109, -1.293e-5
-1.108, -1.309e-5
-1.107, -1.307e-5
-1.106, -1.301e-5
-1.105, -1.312e-5
-1.104, -1.326e-5
-1.103, -1.338e-5
-1.102, -1.339e-5
-1.101, -1.334e-5
-1.100, -1.345e-5
-1.099, -1.358e-5
-1.098, -1.373e-5
-1.097, -1.374e-5
-1.096, -1.367e-5
-1.095, -1.379e-5
-1.094, -1.393e-5
-1.093, -1.410e-5
-1.092, -1.409e-5
-1.091, -1.406e-5
-1.090, -1.415e-5
-1.089, -1.433e-5
-1.088, -1.445e-5
-1.087, -1.447e-5
-1.086, -1.445e-5
-1.085, -1.452e-5
-1.084, -1.470e-5
-1.083, -1.487e-5
-1.082, -1.488e-5
-1.081, -1.484e-5
-1.080, -1.492e-5
-1.079, -1.512e-5
-1.078, -1.526e-5
-1.077, -1.528e-5
-1.076, -1.521e-5
-1.075, -1.535e-5
-1.074, -1.556e-5
-1.073, -1.567e-5
-1.072, -1.570e-5
-1.071, -1.565e-5
-1.070, -1.575e-5
-1.069, -1.596e-5
-1.068, -1.607e-5
-1.067, -1.612e-5
-1.066, -1.606e-5
-1.065, -1.617e-5
-1.064, -1.638e-5
-1.063, -1.650e-5
-1.062, -1.658e-5
-1.061, -1.653e-5
-1.060, -1.657e-5
-1.059, -1.682e-5
-1.058, -1.693e-5
-1.057, -1.697e-5
-1.056, -1.696e-5
-1.055, -1.698e-5
-1.054, -1.722e-5
-1.053, -1.739e-5
-1.052, -1.736e-5
-1.051, -1.737e-5
-1.050, -1.740e-5
-1.049, -1.768e-5
-1.048, -1.777e-5
-1.047, -1.780e-5
-1.046, -1.777e-5
-1.045, -1.777e-5
-1.044, -1.805e-5
-1.043, -1.819e-5
-1.042, -1.818e-5
-1.041, -1.816e-5
-1.040, -1.819e-5
-1.039, -1.843e-5
-1.038, -1.858e-5
-1.037, -1.862e-5
-1.036, -1.856e-5
-1.035, -1.858e-5
-1.034, -1.879e-5
-1.033, -1.896e-5
-1.032, -1.897e-5
-1.031, -1.895e-5
-1.030, -1.896e-5
-1.029, -1.918e-5
-1.028, -1.931e-5
-1.027, -1.937e-5
-1.026, -1.928e-5
-1.025, -1.931e-5
-1.024, -1.954e-5
-1.023, -1.968e-5
-1.022, -1.971e-5
-1.021, -1.966e-5
-1.020, -1.965e-5
-1.019, -1.988e-5
-1.018, -2.002e-5
-1.017, -2.009e-5
-1.016, -1.996e-5
-1.015, -1.999e-5
-1.014, -2.022e-5
-1.013, -2.038e-5
-1.012, -2.039e-5
-1.011, -2.032e-5
-1.010, -2.031e-5
-1.009, -2.054e-5
-1.008, -2.069e-5
-1.007, -2.070e-5
-1.006, -2.063e-5
-1.005, -2.059e-5
-1.004, -2.086e-5
-1.003, -2.100e-5
-1.002, -2.101e-5
-1.001, -2.095e-5
