Aug. 12, 2024   04:45:38
Cyclic Voltammetry
File: c:/users/guazh/data/20240802_batch_500/2024-08-02-exp89\exp89-2024-08-12t04_32_41-h2koh\exp89_cv_50mvs_efin_-1700mv.bin
Data Source:  Experiment
Instrument Model:  CHI760E
Header: CV ran at 50 mVs
Note: 

Init E (V) = -1
High E (V) = -1
Low E (V) = -1.7
Final E (V) = -1
Init P/N = N
Scan Rate (V/s) = 0.05
Segment = 7
Sample Interval (V) = 0.001
Quiet Time (sec) = 60
Sensitivity (A/V) = 0.001
Comp R (ohm) = 1.8

Results:

Channel 1:
Segment 1:

Segment 2:

Segment 3:

Segment 4:

Segment 5:

Segment 6:

Segment 7:

Potential/V, Current/A

-1.000, 2.541e-6
-1.001, 3.425e-6
-1.002, 4.038e-6
-1.003, 4.455e-6
-1.004, 4.404e-6
-1.005, 4.394e-6
-1.006, 4.400e-6
-1.007, 4.718e-6
-1.008, 4.990e-6
-1.009, 4.960e-6
-1.010, 4.855e-6
-1.011, 4.784e-6
-1.012, 5.107e-6
-1.013, 5.362e-6
-1.014, 5.300e-6
-1.015, 5.151e-6
-1.016, 5.081e-6
-1.017, 5.339e-6
-1.018, 5.640e-6
-1.019, 5.523e-6
-1.020, 5.311e-6
-1.021, 5.316e-6
-1.022, 5.522e-6
-1.023, 5.782e-6
-1.024, 5.679e-6
-1.025, 5.463e-6
-1.026, 5.480e-6
-1.027, 5.619e-6
-1.028, 5.888e-6
-1.029, 5.818e-6
-1.030, 5.605e-6
-1.031, 5.594e-6
-1.032, 5.757e-6
-1.033, 5.959e-6
-1.034, 5.946e-6
-1.035, 5.682e-6
-1.036, 5.615e-6
-1.037, 5.897e-6
-1.038, 6.054e-6
-1.039, 6.057e-6
-1.040, 5.756e-6
-1.041, 5.756e-6
-1.042, 5.942e-6
-1.043, 6.114e-6
-1.044, 6.137e-6
-1.045, 5.832e-6
-1.046, 5.850e-6
-1.047, 6.017e-6
-1.048, 6.194e-6
-1.049, 6.131e-6
-1.050, 5.945e-6
-1.051, 5.865e-6
-1.052, 6.069e-6
-1.053, 6.252e-6
-1.054, 6.171e-6
-1.055, 5.983e-6
-1.056, 5.898e-6
-1.057, 6.076e-6
-1.058, 6.294e-6
-1.059, 6.254e-6
-1.060, 6.048e-6
-1.061, 5.929e-6
-1.062, 6.143e-6
-1.063, 6.327e-6
-1.064, 6.233e-6
-1.065, 6.015e-6
-1.066, 6.009e-6
-1.067, 6.128e-6
-1.068, 6.345e-6
-1.069, 6.302e-6
-1.070, 6.049e-6
-1.071, 6.020e-6
-1.072, 6.165e-6
-1.073, 6.362e-6
-1.074, 6.319e-6
-1.075, 6.108e-6
-1.076, 6.006e-6
-1.077, 6.192e-6
-1.078, 6.401e-6
-1.079, 6.363e-6
-1.080, 6.082e-6
-1.081, 6.031e-6
-1.082, 6.249e-6
-1.083, 6.389e-6
-1.084, 6.298e-6
-1.085, 6.139e-6
-1.086, 6.037e-6
-1.087, 6.216e-6
-1.088, 6.388e-6
-1.089, 6.291e-6
-1.090, 6.148e-6
-1.091, 6.041e-6
-1.092, 6.195e-6
-1.093, 6.385e-6
-1.094, 6.304e-6
-1.095, 6.145e-6
-1.096, 6.034e-6
-1.097, 6.165e-6
-1.098, 6.379e-6
-1.099, 6.274e-6
-1.100, 6.114e-6
-1.101, 6.031e-6
-1.102, 6.158e-6
-1.103, 6.392e-6
-1.104, 6.296e-6
-1.105, 6.121e-6
-1.106, 6.021e-6
-1.107, 6.138e-6
-1.108, 6.378e-6
-1.109, 6.249e-6
-1.110, 6.090e-6
-1.111, 6.009e-6
-1.112, 6.107e-6
-1.113, 6.326e-6
-1.114, 6.256e-6
-1.115, 6.077e-6
-1.116, 5.990e-6
-1.117, 6.112e-6
-1.118, 6.267e-6
-1.119, 6.206e-6
-1.120, 6.062e-6
-1.121, 5.932e-6
-1.122, 6.123e-6
-1.123, 6.268e-6
-1.124, 6.151e-6
-1.125, 6.041e-6
-1.126, 5.911e-6
-1.127, 6.126e-6
-1.128, 6.176e-6
-1.129, 6.147e-6
-1.130, 5.997e-6
-1.131, 5.836e-6
-1.132, 6.028e-6
-1.133, 6.192e-6
-1.134, 6.135e-6
-1.135, 5.981e-6
-1.136, 5.848e-6
-1.137, 5.992e-6
-1.138, 6.170e-6
-1.139, 6.055e-6
-1.140, 5.954e-6
-1.141, 5.817e-6
-1.142, 5.958e-6
-1.143, 6.172e-6
-1.144, 6.032e-6
-1.145, 5.879e-6
-1.146, 5.801e-6
-1.147, 5.923e-6
-1.148, 6.038e-6
-1.149, 6.054e-6
-1.150, 5.844e-6
-1.151, 5.762e-6
-1.152, 5.845e-6
-1.153, 6.063e-6
-1.154, 6.010e-6
-1.155, 5.808e-6
-1.156, 5.721e-6
-1.157, 5.857e-6
-1.158, 6.025e-6
-1.159, 5.964e-6
-1.160, 5.767e-6
-1.161, 5.680e-6
-1.162, 5.841e-6
-1.163, 5.980e-6
-1.164, 5.893e-6
-1.165, 5.778e-6
-1.166, 5.686e-6
-1.167, 5.816e-6
-1.168, 5.947e-6
-1.169, 5.910e-6
-1.170, 5.759e-6
-1.171, 5.607e-6
-1.172, 5.742e-6
-1.173, 5.921e-6
-1.174, 5.880e-6
-1.175, 5.709e-6
-1.176, 5.641e-6
-1.177, 5.768e-6
-1.178, 5.926e-6
-1.179, 5.916e-6
-1.180, 5.680e-6
-1.181, 5.622e-6
-1.182, 5.730e-6
-1.183, 5.948e-6
-1.184, 5.899e-6
-1.185, 5.719e-6
-1.186, 5.626e-6
-1.187, 5.729e-6
-1.188, 5.901e-6
-1.189, 5.916e-6
-1.190, 5.668e-6
-1.191, 5.634e-6
-1.192, 5.750e-6
-1.193, 5.868e-6
-1.194, 5.908e-6
-1.195, 5.668e-6
-1.196, 5.635e-6
-1.197, 5.762e-6
-1.198, 5.921e-6
-1.199, 5.938e-6
-1.200, 5.705e-6
-1.201, 5.652e-6
-1.202, 5.773e-6
-1.203, 5.936e-6
-1.204, 5.919e-6
-1.205, 5.768e-6
-1.206, 5.719e-6
-1.207, 5.810e-6
-1.208, 5.923e-6
-1.209, 6.022e-6
-1.210, 5.789e-6
-1.211, 5.757e-6
-1.212, 5.803e-6
-1.213, 6.003e-6
-1.214, 6.053e-6
-1.215, 5.855e-6
-1.216, 5.777e-6
-1.217, 5.897e-6
-1.218, 6.072e-6
-1.219, 6.080e-6
-1.220, 5.896e-6
-1.221, 5.845e-6
-1.222, 5.937e-6
-1.223, 6.136e-6
-1.224, 6.163e-6
-1.225, 5.956e-6
-1.226, 5.899e-6
-1.227, 6.023e-6
-1.228, 6.184e-6
-1.229, 6.308e-6
-1.230, 6.032e-6
-1.231, 5.975e-6
-1.232, 6.073e-6
-1.233, 6.248e-6
-1.234, 6.365e-6
-1.235, 6.114e-6
-1.236, 6.122e-6
-1.237, 6.216e-6
-1.238, 6.338e-6
-1.239, 6.432e-6
-1.240, 6.225e-6
-1.241, 6.204e-6
-1.242, 6.342e-6
-1.243, 6.432e-6
-1.244, 6.502e-6
-1.245, 6.364e-6
-1.246, 6.289e-6
-1.247, 6.408e-6
-1.248, 6.555e-6
-1.249, 6.634e-6
-1.250, 6.493e-6
-1.251, 6.424e-6
-1.252, 6.543e-6
-1.253, 6.713e-6
-1.254, 6.771e-6
-1.255, 6.623e-6
-1.256, 6.550e-6
-1.257, 6.614e-6
-1.258, 6.863e-6
-1.259, 6.912e-6
-1.260, 6.720e-6
-1.261, 6.726e-6
-1.262, 6.811e-6
-1.263, 6.983e-6
-1.264, 7.065e-6
-1.265, 6.887e-6
-1.266, 7.008e-6
-1.267, 6.960e-6
-1.268, 7.155e-6
-1.269, 7.244e-6
-1.270, 7.071e-6
-1.271, 7.051e-6
-1.272, 7.107e-6
-1.273, 7.315e-6
-1.274, 7.387e-6
-1.275, 7.241e-6
-1.276, 7.158e-6
-1.277, 7.267e-6
-1.278, 7.499e-6
-1.279, 7.527e-6
-1.280, 7.443e-6
-1.281, 7.335e-6
-1.282, 7.497e-6
-1.283, 7.671e-6
-1.284, 7.728e-6
-1.285, 7.594e-6
-1.286, 7.516e-6
-1.287, 7.682e-6
-1.288, 7.843e-6
-1.289, 7.893e-6
-1.290, 7.829e-6
-1.291, 7.692e-6
-1.292, 7.864e-6
-1.293, 8.046e-6
-1.294, 8.120e-6
-1.295, 8.031e-6
-1.296, 7.889e-6
-1.297, 8.068e-6
-1.298, 8.232e-6
-1.299, 8.300e-6
-1.300, 8.202e-6
-1.301, 8.118e-6
-1.302, 8.234e-6
-1.303, 8.451e-6
-1.304, 8.526e-6
-1.305, 8.388e-6
-1.306, 8.352e-6
-1.307, 8.428e-6
-1.308, 8.655e-6
-1.309, 8.767e-6
-1.310, 8.610e-6
-1.311, 8.551e-6
-1.312, 8.625e-6
-1.313, 8.907e-6
-1.314, 8.974e-6
-1.315, 8.830e-6
-1.316, 8.759e-6
-1.317, 8.897e-6
-1.318, 9.091e-6
-1.319, 9.223e-6
-1.320, 9.109e-6
-1.321, 9.021e-6
-1.322, 9.151e-6
-1.323, 9.365e-6
-1.324, 9.395e-6
-1.325, 9.314e-6
-1.326, 9.258e-6
-1.327, 9.344e-6
-1.328, 9.555e-6
-1.329, 9.613e-6
-1.330, 9.546e-6
-1.331, 9.493e-6
-1.332, 9.597e-6
-1.333, 9.787e-6
-1.334, 9.868e-6
-1.335, 9.783e-6
-1.336, 9.737e-6
-1.337, 9.847e-6
-1.338, 1.004e-5
-1.339, 1.010e-5
-1.340, 1.004e-5
-1.341, 9.974e-6
-1.342, 1.006e-5
-1.343, 1.054e-5
-1.344, 1.051e-5
-1.345, 1.044e-5
-1.346, 1.031e-5
-1.347, 1.040e-5
-1.348, 1.057e-5
-1.349, 1.061e-5
-1.350, 1.047e-5
-1.351, 1.042e-5
-1.352, 1.055e-5
-1.353, 1.078e-5
-1.354, 1.085e-5
-1.355, 1.076e-5
-1.356, 1.071e-5
-1.357, 1.077e-5
-1.358, 1.100e-5
-1.359, 1.113e-5
-1.360, 1.100e-5
-1.361, 1.096e-5
-1.362, 1.104e-5
-1.363, 1.133e-5
-1.364, 1.136e-5
-1.365, 1.126e-5
-1.366, 1.122e-5
-1.367, 1.127e-5
-1.368, 1.151e-5
-1.369, 1.164e-5
-1.370, 1.151e-5
-1.371, 1.149e-5
-1.372, 1.157e-5
-1.373, 1.181e-5
-1.374, 1.190e-5
-1.375, 1.186e-5
-1.376, 1.176e-5
-1.377, 1.184e-5
-1.378, 1.209e-5
-1.379, 1.216e-5
-1.380, 1.211e-5
-1.381, 1.207e-5
-1.382, 1.214e-5
-1.383, 1.238e-5
-1.384, 1.243e-5
-1.385, 1.238e-5
-1.386, 1.231e-5
-1.387, 1.244e-5
-1.388, 1.267e-5
-1.389, 1.276e-5
-1.390, 1.266e-5
-1.391, 1.263e-5
-1.392, 1.271e-5
-1.393, 1.293e-5
-1.394, 1.308e-5
-1.395, 1.299e-5
-1.396, 1.294e-5
-1.397, 1.302e-5
-1.398, 1.324e-5
-1.399, 1.340e-5
-1.400, 1.332e-5
-1.401, 1.324e-5
-1.402, 1.336e-5
-1.403, 1.360e-5
-1.404, 1.373e-5
-1.405, 1.375e-5
-1.406, 1.388e-5
-1.407, 1.453e-5
-1.408, 1.488e-5
-1.409, 1.497e-5
-1.410, 1.482e-5
-1.411, 1.456e-5
-1.412, 1.457e-5
-1.413, 1.462e-5
-1.414, 1.461e-5
-1.415, 1.452e-5
-1.416, 1.436e-5
-1.417, 1.448e-5
-1.418, 1.469e-5
-1.419, 1.478e-5
-1.420, 1.473e-5
-1.421, 1.469e-5
-1.422, 1.481e-5
-1.423, 1.507e-5
-1.424, 1.519e-5
-1.425, 1.511e-5
-1.426, 1.511e-5
-1.427, 1.521e-5
-1.428, 1.545e-5
-1.429, 1.565e-5
-1.430, 1.555e-5
-1.431, 1.553e-5
-1.432, 1.569e-5
-1.433, 1.588e-5
-1.434, 1.609e-5
-1.435, 1.600e-5
-1.436, 1.596e-5
-1.437, 1.609e-5
-1.438, 1.635e-5
-1.439, 1.647e-5
-1.440, 1.643e-5
-1.441, 1.643e-5
-1.442, 1.663e-5
-1.443, 1.675e-5
-1.444, 1.697e-5
-1.445, 1.695e-5
-1.446, 1.691e-5
-1.447, 1.707e-5
-1.448, 1.733e-5
-1.449, 1.750e-5
-1.450, 1.751e-5
-1.451, 1.745e-5
-1.452, 1.760e-5
-1.453, 1.785e-5
-1.454, 1.803e-5
-1.455, 1.804e-5
-1.456, 1.798e-5
-1.457, 1.818e-5
-1.458, 1.843e-5
-1.459, 1.867e-5
-1.460, 1.862e-5
-1.461, 1.859e-5
-1.462, 1.879e-5
-1.463, 1.900e-5
-1.464, 1.922e-5
-1.465, 1.922e-5
-1.466, 1.922e-5
-1.467, 1.942e-5
-1.468, 1.967e-5
-1.469, 1.988e-5
-1.470, 1.988e-5
-1.471, 1.989e-5
-1.472, 2.008e-5
-1.473, 2.037e-5
-1.474, 2.058e-5
-1.475, 2.063e-5
-1.476, 2.058e-5
-1.477, 2.082e-5
-1.478, 2.108e-5
-1.479, 2.136e-5
-1.480, 2.138e-5
-1.481, 2.139e-5
-1.482, 2.165e-5
-1.483, 2.189e-5
-1.484, 2.218e-5
-1.485, 2.227e-5
-1.486, 2.228e-5
-1.487, 2.258e-5
-1.488, 2.279e-5
-1.489, 2.306e-5
-1.490, 2.316e-5
-1.491, 2.318e-5
-1.492, 2.343e-5
-1.493, 2.372e-5
-1.494, 2.403e-5
-1.495, 2.413e-5
-1.496, 2.421e-5
-1.497, 2.450e-5
-1.498, 2.485e-5
-1.499, 2.516e-5
-1.500, 2.521e-5
-1.501, 2.535e-5
-1.502, 2.562e-5
-1.503, 2.596e-5
-1.504, 2.629e-5
-1.505, 2.641e-5
-1.506, 2.657e-5
-1.507, 2.682e-5
-1.508, 2.724e-5
-1.509, 2.760e-5
-1.510, 2.775e-5
-1.511, 2.790e-5
-1.512, 2.830e-5
-1.513, 2.867e-5
-1.514, 2.914e-5
-1.515, 2.924e-5
-1.516, 2.941e-5
-1.517, 2.985e-5
-1.518, 3.025e-5
-1.519, 3.076e-5
-1.520, 3.094e-5
-1.521, 3.109e-5
-1.522, 3.158e-5
-1.523, 3.199e-5
-1.524, 3.255e-5
-1.525, 3.273e-5
-1.526, 3.297e-5
-1.527, 3.346e-5
-1.528, 3.397e-5
-1.529, 3.448e-5
-1.530, 3.481e-5
-1.531, 3.504e-5
-1.532, 3.551e-5
-1.533, 3.609e-5
-1.534, 3.664e-5
-1.535, 3.705e-5
-1.536, 3.727e-5
-1.537, 3.782e-5
-1.538, 3.849e-5
-1.539, 3.910e-5
-1.540, 3.942e-5
-1.541, 3.981e-5
-1.542, 4.040e-5
-1.543, 4.107e-5
-1.544, 4.172e-5
-1.545, 4.220e-5
-1.546, 4.256e-5
-1.547, 4.322e-5
-1.548, 4.391e-5
-1.549, 4.466e-5
-1.550, 4.510e-5
-1.551, 4.560e-5
-1.552, 4.630e-5
-1.553, 4.709e-5
-1.554, 4.791e-5
-1.555, 4.843e-5
-1.556, 4.902e-5
-1.557, 4.975e-5
-1.558, 5.065e-5
-1.559, 5.149e-5
-1.560, 5.206e-5
-1.561, 5.273e-5
-1.562, 5.361e-5
-1.563, 5.451e-5
-1.564, 5.550e-5
-1.565, 5.627e-5
-1.566, 5.697e-5
-1.567, 5.798e-5
-1.568, 5.894e-5
-1.569, 6.000e-5
-1.570, 6.083e-5
-1.571, 6.162e-5
-1.572, 6.269e-5
-1.573, 6.380e-5
-1.574, 6.500e-5
-1.575, 6.598e-5
-1.576, 6.693e-5
-1.577, 6.807e-5
-1.578, 6.937e-5
-1.579, 7.061e-5
-1.580, 7.175e-5
-1.581, 7.281e-5
-1.582, 7.415e-5
-1.583, 7.558e-5
-1.584, 7.697e-5
-1.585, 7.825e-5
-1.586, 7.951e-5
-1.587, 8.097e-5
-1.588, 8.260e-5
-1.589, 8.426e-5
-1.590, 8.573e-5
-1.591, 8.722e-5
-1.592, 8.882e-5
-1.593, 9.068e-5
-1.594, 9.256e-5
-1.595, 9.421e-5
-1.596, 9.584e-5
-1.597, 9.783e-5
-1.598, 9.979e-5
-1.599, 1.020e-4
-1.600, 1.038e-4
-1.601, 1.058e-4
-1.602, 1.080e-4
-1.603, 1.103e-4
-1.604, 1.128e-4
-1.605, 1.150e-4
-1.606, 1.172e-4
-1.607, 1.198e-4
-1.608, 1.225e-4
-1.609, 1.253e-4
-1.610, 1.280e-4
-1.611, 1.306e-4
-1.612, 1.335e-4
-1.613, 1.366e-4
-1.614, 1.399e-4
-1.615, 1.431e-4
-1.616, 1.461e-4
-1.617, 1.495e-4
-1.618, 1.532e-4
-1.619, 1.569e-4
-1.620, 1.606e-4
-1.621, 1.641e-4
-1.622, 1.681e-4
-1.623, 1.724e-4
-1.624, 1.767e-4
-1.625, 1.809e-4
-1.626, 1.852e-4
-1.627, 1.897e-4
-1.628, 1.945e-4
-1.629, 1.994e-4
-1.630, 2.043e-4
-1.631, 2.093e-4
-1.632, 2.145e-4
-1.633, 2.201e-4
-1.634, 2.259e-4
-1.635, 2.316e-4
-1.636, 2.374e-4
-1.637, 2.434e-4
-1.638, 2.500e-4
-1.639, 2.567e-4
-1.640, 2.633e-4
-1.641, 2.700e-4
-1.642, 2.771e-4
-1.643, 2.845e-4
-1.644, 2.922e-4
-1.645, 2.999e-4
-1.646, 3.076e-4
-1.647, 3.157e-4
-1.648, 3.244e-4
-1.649, 3.333e-4
-1.650, 3.424e-4
-1.651, 3.514e-4
-1.652, 3.610e-4
-1.653, 3.709e-4
-1.654, 3.812e-4
-1.655, 3.917e-4
-1.656, 4.022e-4
-1.657, 4.132e-4
-1.658, 4.248e-4
-1.659, 4.367e-4
-1.660, 4.489e-4
-1.661, 4.613e-4
-1.662, 4.740e-4
-1.663, 4.874e-4
-1.664, 5.011e-4
-1.665, 5.151e-4
-1.666, 5.296e-4
-1.667, 5.444e-4
-1.668, 5.599e-4
-1.669, 5.757e-4
-1.670, 5.917e-4
-1.671, 6.083e-4
-1.672, 6.253e-4
-1.673, 6.430e-4
-1.674, 6.612e-4
-1.675, 6.797e-4
-1.676, 6.990e-4
-1.677, 7.184e-4
-1.678, 7.388e-4
-1.679, 7.593e-4
-1.680, 7.805e-4
-1.681, 8.027e-4
-1.682, 8.248e-4
-1.683, 8.478e-4
-1.684, 8.715e-4
-1.685, 8.959e-4
-1.686, 9.206e-4
-1.687, 9.461e-4
-1.688, 9.722e-4
-1.689, 9.990e-4
-1.690, 1.027e-3
-1.691, 1.054e-3
-1.692, 1.083e-3
-1.693, 1.112e-3
-1.694, 1.142e-3
-1.695, 1.173e-3
-1.696, 1.204e-3
-1.697, 1.236e-3
-1.698, 1.268e-3
-1.699, 1.303e-3
-1.700, 1.316e-3
-1.699, 1.307e-3
-1.698, 1.298e-3
-1.697, 1.287e-3
-1.696, 1.277e-3
-1.695, 1.265e-3
-1.694, 1.252e-3
-1.693, 1.239e-3
-1.692, 1.225e-3
-1.691, 1.212e-3
-1.690, 1.197e-3
-1.689, 1.182e-3
-1.688, 1.166e-3
-1.687, 1.150e-3
-1.686, 1.136e-3
-1.685, 1.122e-3
-1.684, 1.106e-3
-1.683, 1.089e-3
-1.682, 1.073e-3
-1.681, 1.057e-3
-1.680, 1.043e-3
-1.679, 1.027e-3
-1.678, 1.011e-3
-1.677, 9.962e-4
-1.676, 9.809e-4
-1.675, 9.654e-4
-1.674, 9.495e-4
-1.673, 9.341e-4
-1.672, 9.194e-4
-1.671, 9.046e-4
-1.670, 8.895e-4
-1.669, 8.745e-4
-1.668, 8.600e-4
-1.667, 8.456e-4
-1.666, 8.313e-4
-1.665, 8.166e-4
-1.664, 8.025e-4
-1.663, 7.883e-4
-1.662, 7.746e-4
-1.661, 7.613e-4
-1.660, 7.478e-4
-1.659, 7.345e-4
-1.658, 7.214e-4
-1.657, 7.085e-4
-1.656, 6.960e-4
-1.655, 6.832e-4
-1.654, 6.707e-4
-1.653, 6.582e-4
-1.652, 6.462e-4
-1.651, 6.342e-4
-1.650, 6.226e-4
-1.649, 6.108e-4
-1.648, 5.992e-4
-1.647, 5.880e-4
-1.646, 5.771e-4
-1.645, 5.663e-4
-1.644, 5.554e-4
-1.643, 5.445e-4
-1.642, 5.343e-4
-1.641, 5.241e-4
-1.640, 5.142e-4
-1.639, 5.039e-4
-1.638, 4.938e-4
-1.637, 4.844e-4
-1.636, 4.752e-4
-1.635, 4.660e-4
-1.634, 4.567e-4
-1.633, 4.475e-4
-1.632, 4.390e-4
-1.631, 4.306e-4
-1.630, 4.220e-4
-1.629, 4.136e-4
-1.628, 4.051e-4
-1.627, 3.971e-4
-1.626, 3.895e-4
-1.625, 3.818e-4
-1.624, 3.739e-4
-1.623, 3.663e-4
-1.622, 3.591e-4
-1.621, 3.522e-4
-1.620, 3.450e-4
-1.619, 3.379e-4
-1.618, 3.309e-4
-1.617, 3.243e-4
-1.616, 3.180e-4
-1.615, 3.114e-4
-1.614, 3.049e-4
-1.613, 2.986e-4
-1.612, 2.926e-4
-1.611, 2.868e-4
-1.610, 2.809e-4
-1.609, 2.750e-4
-1.608, 2.693e-4
-1.607, 2.639e-4
-1.606, 2.586e-4
-1.605, 2.533e-4
-1.604, 2.480e-4
-1.603, 2.427e-4
-1.602, 2.378e-4
-1.601, 2.330e-4
-1.600, 2.281e-4
-1.599, 2.232e-4
-1.598, 2.184e-4
-1.597, 2.141e-4
-1.596, 2.097e-4
-1.595, 2.053e-4
-1.594, 2.009e-4
-1.593, 1.965e-4
-1.592, 1.926e-4
-1.591, 1.887e-4
-1.590, 1.847e-4
-1.589, 1.807e-4
-1.588, 1.768e-4
-1.587, 1.731e-4
-1.586, 1.696e-4
-1.585, 1.659e-4
-1.584, 1.623e-4
-1.583, 1.588e-4
-1.582, 1.555e-4
-1.581, 1.524e-4
-1.580, 1.491e-4
-1.579, 1.457e-4
-1.578, 1.426e-4
-1.577, 1.396e-4
-1.576, 1.368e-4
-1.575, 1.339e-4
-1.574, 1.308e-4
-1.573, 1.280e-4
-1.572, 1.254e-4
-1.571, 1.229e-4
-1.570, 1.202e-4
-1.569, 1.174e-4
-1.568, 1.148e-4
-1.567, 1.125e-4
-1.566, 1.102e-4
-1.565, 1.078e-4
-1.564, 1.053e-4
-1.563, 1.030e-4
-1.562, 1.010e-4
-1.561, 9.882e-5
-1.560, 9.666e-5
-1.559, 9.438e-5
-1.558, 9.224e-5
-1.557, 9.036e-5
-1.556, 8.856e-5
-1.555, 8.648e-5
-1.554, 8.446e-5
-1.553, 8.249e-5
-1.552, 8.087e-5
-1.551, 7.924e-5
-1.550, 7.736e-5
-1.549, 7.558e-5
-1.548, 7.385e-5
-1.547, 7.236e-5
-1.546, 7.090e-5
-1.545, 6.920e-5
-1.544, 6.756e-5
-1.543, 6.604e-5
-1.542, 6.466e-5
-1.541, 6.338e-5
-1.540, 6.182e-5
-1.539, 6.029e-5
-1.538, 5.885e-5
-1.537, 5.766e-5
-1.536, 5.652e-5
-1.535, 5.520e-5
-1.534, 5.375e-5
-1.533, 5.257e-5
-1.532, 5.149e-5
-1.531, 5.045e-5
-1.530, 4.923e-5
-1.529, 4.788e-5
-1.528, 4.679e-5
-1.527, 4.592e-5
-1.526, 4.493e-5
-1.525, 4.389e-5
-1.524, 4.271e-5
-1.523, 4.169e-5
-1.522, 4.091e-5
-1.521, 4.003e-5
-1.520, 3.910e-5
-1.519, 3.802e-5
-1.518, 3.704e-5
-1.517, 3.633e-5
-1.516, 3.562e-5
-1.515, 3.476e-5
-1.514, 3.380e-5
-1.513, 3.291e-5
-1.512, 3.234e-5
-1.511, 3.171e-5
-1.510, 3.083e-5
-1.509, 2.995e-5
-1.508, 2.922e-5
-1.507, 2.862e-5
-1.506, 2.810e-5
-1.505, 2.733e-5
-1.504, 2.655e-5
-1.503, 2.585e-5
-1.502, 2.537e-5
-1.501, 2.491e-5
-1.500, 2.426e-5
-1.499, 2.345e-5
-1.498, 2.289e-5
-1.497, 2.244e-5
-1.496, 2.207e-5
-1.495, 2.145e-5
-1.494, 2.074e-5
-1.493, 2.019e-5
-1.492, 1.980e-5
-1.491, 1.946e-5
-1.490, 1.893e-5
-1.489, 1.827e-5
-1.488, 1.776e-5
-1.487, 1.743e-5
-1.486, 1.712e-5
-1.485, 1.662e-5
-1.484, 1.603e-5
-1.483, 1.556e-5
-1.482, 1.537e-5
-1.481, 1.503e-5
-1.480, 1.464e-5
-1.479, 1.407e-5
-1.478, 1.367e-5
-1.477, 1.348e-5
-1.476, 1.324e-5
-1.475, 1.281e-5
-1.474, 1.225e-5
-1.473, 1.193e-5
-1.472, 1.176e-5
-1.471, 1.155e-5
-1.470, 1.116e-5
-1.469, 1.069e-5
-1.468, 1.033e-5
-1.467, 1.017e-5
-1.466, 1.005e-5
-1.465, 9.681e-6
-1.464, 9.201e-6
-1.463, 8.973e-6
-1.462, 8.814e-6
-1.461, 8.691e-6
-1.460, 8.412e-6
-1.459, 7.913e-6
-1.458, 7.673e-6
-1.457, 7.546e-6
-1.456, 7.491e-6
-1.455, 7.159e-6
-1.454, 6.748e-6
-1.453, 6.547e-6
-1.452, 6.447e-6
-1.451, 6.346e-6
-1.450, 6.055e-6
-1.449, 5.719e-6
-1.448, 5.483e-6
-1.447, 5.454e-6
-1.446, 5.350e-6
-1.445, 5.137e-6
-1.444, 4.741e-6
-1.443, 4.523e-6
-1.442, 4.521e-6
-1.441, 4.513e-6
-1.440, 4.225e-6
-1.439, 3.860e-6
-1.438, 3.671e-6
-1.437, 3.661e-6
-1.436, 3.631e-6
-1.435, 3.411e-6
-1.434, 3.057e-6
-1.433, 2.928e-6
-1.432, 2.885e-6
-1.431, 2.906e-6
-1.430, 2.664e-6
-1.429, 2.385e-6
-1.428, 2.245e-6
-1.427, 2.155e-6
-1.426, 2.211e-6
-1.425, 2.002e-6
-1.424, 1.730e-6
-1.423, 1.541e-6
-1.422, 1.530e-6
-1.421, 1.599e-6
-1.420, 1.391e-6
-1.419, 1.084e-6
-1.418, 9.607e-7
-1.417, 9.045e-7
-1.416, 9.775e-7
-1.415, 8.424e-7
-1.414, 5.375e-7
-1.413, 4.467e-7
-1.412, 3.846e-7
-1.411, 4.714e-7
-1.410, 3.066e-7
-1.409, 1.164e-8
-1.408, -1.137e-7
-1.407, -5.446e-8
-1.406, -2.980e-8
-1.405, -1.551e-7
-1.404, -4.471e-7
-1.403, -5.991e-7
-1.402, -5.418e-7
-1.401, -4.945e-7
-1.400, -6.079e-7
-1.399, -8.832e-7
-1.398, -1.041e-6
-1.397, -9.986e-7
-1.396, -9.098e-7
-1.395, -1.108e-6
-1.394, -1.314e-6
-1.393, -1.478e-6
-1.392, -1.409e-6
-1.391, -1.267e-6
-1.390, -1.478e-6
-1.389, -1.713e-6
-1.388, -1.895e-6
-1.387, -1.831e-6
-1.386, -1.725e-6
-1.385, -1.893e-6
-1.384, -2.112e-6
-1.383, -2.268e-6
-1.382, -2.251e-6
-1.381, -2.142e-6
-1.380, -2.271e-6
-1.379, -2.523e-6
-1.378, -2.653e-6
-1.377, -2.612e-6
-1.376, -2.476e-6
-1.375, -2.653e-6
-1.374, -2.938e-6
-1.373, -3.003e-6
-1.372, -2.999e-6
-1.371, -2.886e-6
-1.370, -3.018e-6
-1.369, -3.245e-6
-1.368, -3.391e-6
-1.367, -3.330e-6
-1.366, -3.262e-6
-1.365, -3.403e-6
-1.364, -3.624e-6
-1.363, -3.786e-6
-1.362, -3.677e-6
-1.361, -3.658e-6
-1.360, -3.729e-6
-1.359, -4.007e-6
-1.358, -4.146e-6
-1.357, -4.041e-6
-1.356, -3.995e-6
-1.355, -4.109e-6
-1.354, -4.344e-6
-1.353, -4.516e-6
-1.352, -4.481e-6
-1.351, -4.337e-6
-1.350, -4.524e-6
-1.349, -4.705e-6
-1.348, -4.866e-6
-1.347, -4.817e-6
-1.346, -4.686e-6
-1.345, -4.864e-6
-1.344, -5.079e-6
-1.343, -5.224e-6
-1.342, -5.229e-6
-1.341, -5.065e-6
-1.340, -5.217e-6
-1.339, -5.486e-6
-1.338, -5.634e-6
-1.337, -5.532e-6
-1.336, -5.431e-6
-1.335, -5.582e-6
-1.334, -5.841e-6
-1.333, -5.976e-6
-1.332, -5.940e-6
-1.331, -5.822e-6
-1.330, -5.957e-6
-1.329, -6.228e-6
-1.328, -6.319e-6
-1.327, -6.245e-6
-1.326, -6.163e-6
-1.325, -6.329e-6
-1.324, -6.561e-6
-1.323, -6.733e-6
-1.322, -6.666e-6
-1.321, -6.624e-6
-1.320, -6.675e-6
-1.319, -6.923e-6
-1.318, -7.117e-6
-1.317, -7.033e-6
-1.316, -6.957e-6
-1.315, -7.119e-6
-1.314, -7.272e-6
-1.313, -7.497e-6
-1.312, -7.466e-6
-1.311, -7.279e-6
-1.310, -7.485e-6
-1.309, -7.652e-6
-1.308, -7.845e-6
-1.307, -7.825e-6
-1.306, -7.706e-6
-1.305, -7.911e-6
-1.304, -8.076e-6
-1.303, -8.242e-6
-1.302, -8.227e-6
-1.301, -8.072e-6
-1.300, -8.207e-6
-1.299, -8.444e-6
-1.298, -8.597e-6
-1.297, -8.556e-6
-1.296, -8.441e-6
-1.295, -8.610e-6
-1.294, -8.785e-6
-1.293, -8.969e-6
-1.292, -8.932e-6
-1.291, -8.845e-6
-1.290, -8.969e-6
-1.289, -9.186e-6
-1.288, -9.336e-6
-1.287, -9.283e-6
-1.286, -9.206e-6
-1.285, -9.353e-6
-1.284, -9.534e-6
-1.283, -9.719e-6
-1.282, -9.640e-6
-1.281, -9.576e-6
-1.280, -9.726e-6
-1.279, -9.923e-6
-1.278, -1.012e-5
-1.277, -1.003e-5
-1.276, -9.933e-6
-1.275, -1.007e-5
-1.274, -1.024e-5
-1.273, -1.047e-5
-1.272, -1.040e-5
-1.271, -1.030e-5
-1.270, -1.042e-5
-1.269, -1.062e-5
-1.268, -1.077e-5
-1.267, -1.077e-5
-1.266, -1.063e-5
-1.265, -1.078e-5
-1.264, -1.095e-5
-1.263, -1.110e-5
-1.262, -1.110e-5
-1.261, -1.097e-5
-1.260, -1.108e-5
-1.259, -1.128e-5
-1.258, -1.144e-5
-1.257, -1.142e-5
-1.256, -1.128e-5
-1.255, -1.141e-5
-1.254, -1.161e-5
-1.253, -1.177e-5
-1.252, -1.166e-5
-1.251, -1.161e-5
-1.250, -1.174e-5
-1.249, -1.192e-5
-1.248, -1.206e-5
-1.247, -1.200e-5
-1.246, -1.193e-5
-1.245, -1.205e-5
-1.244, -1.223e-5
-1.243, -1.231e-5
-1.242, -1.229e-5
-1.241, -1.220e-5
-1.240, -1.229e-5
-1.239, -1.246e-5
-1.238, -1.261e-5
-1.237, -1.250e-5
-1.236, -1.242e-5
-1.235, -1.259e-5
-1.234, -1.271e-5
-1.233, -1.291e-5
-1.232, -1.279e-5
-1.231, -1.269e-5
-1.230, -1.284e-5
-1.229, -1.303e-5
-1.228, -1.316e-5
-1.227, -1.306e-5
-1.226, -1.292e-5
-1.225, -1.307e-5
-1.224, -1.317e-5
-1.223, -1.334e-5
-1.222, -1.325e-5
-1.221, -1.312e-5
-1.220, -1.325e-5
-1.219, -1.338e-5
-1.218, -1.350e-5
-1.217, -1.343e-5
-1.216, -1.330e-5
-1.215, -1.338e-5
-1.214, -1.353e-5
-1.213, -1.366e-5
-1.212, -1.357e-5
-1.211, -1.344e-5
-1.210, -1.356e-5
-1.209, -1.370e-5
-1.208, -1.379e-5
-1.207, -1.369e-5
-1.206, -1.360e-5
-1.205, -1.367e-5
-1.204, -1.377e-5
-1.203, -1.393e-5
-1.202, -1.383e-5
-1.201, -1.369e-5
-1.200, -1.373e-5
-1.199, -1.386e-5
-1.198, -1.401e-5
-1.197, -1.388e-5
-1.196, -1.374e-5
-1.195, -1.385e-5
-1.194, -1.393e-5
-1.193, -1.407e-5
-1.192, -1.395e-5
-1.191, -1.380e-5
-1.190, -1.391e-5
-1.189, -1.396e-5
-1.188, -1.409e-5
-1.187, -1.399e-5
-1.186, -1.380e-5
-1.185, -1.393e-5
-1.184, -1.400e-5
-1.183, -1.410e-5
-1.182, -1.399e-5
-1.181, -1.382e-5
-1.180, -1.391e-5
-1.179, -1.404e-5
-1.178, -1.411e-5
-1.177, -1.401e-5
-1.176, -1.380e-5
-1.175, -1.387e-5
-1.174, -1.401e-5
-1.173, -1.408e-5
-1.172, -1.397e-5
-1.171, -1.383e-5
-1.170, -1.384e-5
-1.169, -1.398e-5
-1.168, -1.407e-5
-1.167, -1.391e-5
-1.166, -1.377e-5
-1.165, -1.385e-5
-1.164, -1.390e-5
-1.163, -1.406e-5
-1.162, -1.390e-5
-1.161, -1.375e-5
-1.160, -1.378e-5
-1.159, -1.389e-5
-1.158, -1.397e-5
-1.157, -1.386e-5
-1.156, -1.367e-5
-1.155, -1.376e-5
-1.154, -1.384e-5
-1.153, -1.395e-5
-1.152, -1.381e-5
-1.151, -1.366e-5
-1.150, -1.371e-5
-1.149, -1.379e-5
-1.148, -1.392e-5
-1.147, -1.382e-5
-1.146, -1.356e-5
-1.145, -1.371e-5
-1.144, -1.375e-5
-1.143, -1.386e-5
-1.142, -1.376e-5
-1.141, -1.361e-5
-1.140, -1.364e-5
-1.139, -1.380e-5
-1.138, -1.386e-5
-1.137, -1.377e-5
-1.136, -1.357e-5
-1.135, -1.362e-5
-1.134, -1.380e-5
-1.133, -1.385e-5
-1.132, -1.373e-5
-1.131, -1.363e-5
-1.130, -1.365e-5
-1.129, -1.380e-5
-1.128, -1.389e-5
-1.127, -1.376e-5
-1.126, -1.363e-5
-1.125, -1.371e-5
-1.124, -1.380e-5
-1.123, -1.393e-5
-1.122, -1.380e-5
-1.121, -1.364e-5
-1.120, -1.373e-5
-1.119, -1.386e-5
-1.118, -1.399e-5
-1.117, -1.385e-5
-1.116, -1.371e-5
-1.115, -1.380e-5
-1.114, -1.390e-5
-1.113, -1.405e-5
-1.112, -1.394e-5
-1.111, -1.376e-5
-1.110, -1.392e-5
-1.109, -1.401e-5
-1.108, -1.414e-5
-1.107, -1.405e-5
-1.106, -1.393e-5
-1.105, -1.401e-5
-1.104, -1.407e-5
-1.103, -1.428e-5
-1.102, -1.418e-5
-1.101, -1.402e-5
-1.100, -1.408e-5
-1.099, -1.428e-5
-1.098, -1.442e-5
-1.097, -1.428e-5
-1.096, -1.418e-5
-1.095, -1.424e-5
-1.094, -1.443e-5
-1.093, -1.449e-5
-1.092, -1.443e-5
-1.091, -1.433e-5
-1.090, -1.441e-5
-1.089, -1.458e-5
-1.088, -1.469e-5
-1.087, -1.458e-5
-1.086, -1.448e-5
-1.085, -1.458e-5
-1.084, -1.473e-5
-1.083, -1.491e-5
-1.082, -1.474e-5
-1.081, -1.470e-5
-1.080, -1.478e-5
-1.079, -1.492e-5
-1.078, -1.509e-5
-1.077, -1.497e-5
-1.076, -1.486e-5
-1.075, -1.502e-5
-1.074, -1.513e-5
-1.073, -1.526e-5
-1.072, -1.519e-5
-1.071, -1.506e-5
-1.070, -1.518e-5
-1.069, -1.534e-5
-1.068, -1.547e-5
-1.067, -1.543e-5
-1.066, -1.524e-5
-1.065, -1.538e-5
-1.064, -1.553e-5
-1.063, -1.570e-5
-1.062, -1.566e-5
-1.061, -1.547e-5
-1.060, -1.561e-5
-1.059, -1.580e-5
-1.058, -1.595e-5
-1.057, -1.587e-5
-1.056, -1.571e-5
-1.055, -1.584e-5
-1.054, -1.601e-5
-1.053, -1.618e-5
-1.052, -1.610e-5
-1.051, -1.596e-5
-1.050, -1.607e-5
-1.049, -1.626e-5
-1.048, -1.642e-5
-1.047, -1.637e-5
-1.046, -1.622e-5
-1.045, -1.633e-5
-1.044, -1.652e-5
-1.043, -1.672e-5
-1.042, -1.661e-5
-1.041, -1.651e-5
-1.040, -1.662e-5
-1.039, -1.678e-5
-1.038, -1.697e-5
-1.037, -1.690e-5
-1.036, -1.670e-5
-1.035, -1.692e-5
-1.034, -1.706e-5
-1.033, -1.728e-5
-1.032, -1.714e-5
-1.031, -1.706e-5
-1.030, -1.717e-5
-1.029, -1.736e-5
-1.028, -1.750e-5
-1.027, -1.748e-5
-1.026, -1.736e-5
-1.025, -1.746e-5
-1.024, -1.760e-5
-1.023, -1.786e-5
-1.022, -1.777e-5
-1.021, -1.757e-5
-1.020, -1.771e-5
-1.019, -1.788e-5
-1.018, -1.809e-5
-1.017, -1.803e-5
-1.016, -1.785e-5
-1.015, -1.800e-5
-1.014, -1.820e-5
-1.013, -1.835e-5
-1.012, -1.827e-5
-1.011, -1.814e-5
-1.010, -1.822e-5
-1.009, -1.846e-5
-1.008, -1.864e-5
-1.007, -1.850e-5
-1.006, -1.840e-5
-1.005, -1.844e-5
-1.004, -1.866e-5
-1.003, -1.886e-5
-1.002, -1.879e-5
-1.001, -1.860e-5
-1.000, -1.408e-5
-1.001, -1.162e-5
-1.002, -1.036e-5
-1.003, -9.168e-6
-1.004, -8.043e-6
-1.005, -7.276e-6
-1.006, -6.741e-6
-1.007, -6.194e-6
-1.008, -5.493e-6
-1.009, -4.766e-6
-1.010, -4.290e-6
-1.011, -3.995e-6
-1.012, -3.686e-6
-1.013, -3.126e-6
-1.014, -2.600e-6
-1.015, -2.271e-6
-1.016, -2.097e-6
-1.017, -1.933e-6
-1.018, -1.438e-6
-1.019, -9.957e-7
-1.020, -7.293e-7
-1.021, -6.642e-7
-1.022, -5.754e-7
-1.023, -1.620e-7
-1.024, 2.267e-7
-1.025, 3.629e-7
-1.026, 4.339e-7
-1.027, 4.684e-7
-1.028, 8.197e-7
-1.029, 1.157e-6
-1.030, 1.257e-6
-1.031, 1.289e-6
-1.032, 1.281e-6
-1.033, 1.548e-6
-1.034, 1.938e-6
-1.035, 1.961e-6
-1.036, 1.969e-6
-1.037, 1.977e-6
-1.038, 2.193e-6
-1.039, 2.539e-6
-1.040, 2.509e-6
-1.041, 2.496e-6
-1.042, 2.546e-6
-1.043, 2.728e-6
-1.044, 2.972e-6
-1.045, 3.012e-6
-1.046, 2.927e-6
-1.047, 2.969e-6
-1.048, 3.107e-6
-1.049, 3.383e-6
-1.050, 3.401e-6
-1.051, 3.326e-6
-1.052, 3.281e-6
-1.053, 3.475e-6
-1.054, 3.708e-6
-1.055, 3.717e-6
-1.056, 3.616e-6
-1.057, 3.558e-6
-1.058, 3.756e-6
-1.059, 3.962e-6
-1.060, 3.933e-6
-1.061, 3.865e-6
-1.062, 3.787e-6
-1.063, 3.966e-6
-1.064, 4.183e-6
-1.065, 4.173e-6
-1.066, 4.079e-6
-1.067, 3.975e-6
-1.068, 4.172e-6
-1.069, 4.363e-6
-1.070, 4.313e-6
-1.071, 4.214e-6
-1.072, 4.168e-6
-1.073, 4.308e-6
-1.074, 4.509e-6
-1.075, 4.467e-6
-1.076, 4.420e-6
-1.077, 4.282e-6
-1.078, 4.400e-6
-1.079, 4.691e-6
-1.080, 4.564e-6
-1.081, 4.497e-6
-1.082, 4.407e-6
-1.083, 4.536e-6
-1.084, 4.763e-6
-1.085, 4.661e-6
-1.086, 4.578e-6
-1.087, 4.483e-6
-1.088, 4.665e-6
-1.089, 4.798e-6
-1.090, 4.790e-6
-1.091, 4.644e-6
-1.092, 4.541e-6
-1.093, 4.687e-6
-1.094, 4.865e-6
-1.095, 4.805e-6
-1.096, 4.705e-6
-1.097, 4.604e-6
-1.098, 4.754e-6
-1.099, 4.897e-6
-1.100, 4.834e-6
-1.101, 4.750e-6
-1.102, 4.642e-6
-1.103, 4.796e-6
-1.104, 4.935e-6
-1.105, 4.853e-6
-1.106, 4.834e-6
-1.107, 4.682e-6
-1.108, 4.810e-6
-1.109, 4.997e-6
-1.110, 4.925e-6
-1.111, 4.834e-6
-1.112, 4.736e-6
-1.113, 4.852e-6
-1.114, 5.017e-6
-1.115, 4.939e-6
-1.116, 4.855e-6
-1.117, 4.737e-6
-1.118, 4.881e-6
-1.119, 5.061e-6
-1.120, 4.942e-6
-1.121, 4.856e-6
-1.122, 4.800e-6
-1.123, 4.840e-6
-1.124, 5.018e-6
-1.125, 4.991e-6
-1.126, 4.836e-6
-1.127, 4.835e-6
-1.128, 4.863e-6
-1.129, 5.048e-6
-1.130, 4.975e-6
-1.131, 4.869e-6
-1.132, 4.797e-6
-1.133, 4.882e-6
-1.134, 5.055e-6
-1.135, 5.022e-6
-1.136, 4.890e-6
-1.137, 4.772e-6
-1.138, 4.925e-6
-1.139, 5.068e-6
-1.140, 4.995e-6
-1.141, 4.901e-6
-1.142, 4.771e-6
-1.143, 4.927e-6
-1.144, 5.063e-6
-1.145, 5.003e-6
-1.146, 4.903e-6
-1.147, 4.792e-6
-1.148, 4.925e-6
-1.149, 5.089e-6
-1.150, 4.992e-6
-1.151, 4.894e-6
-1.152, 4.796e-6
-1.153, 4.919e-6
-1.154, 5.094e-6
-1.155, 5.007e-6
-1.156, 4.875e-6
-1.157, 4.792e-6
-1.158, 4.931e-6
-1.159, 5.086e-6
-1.160, 4.962e-6
-1.161, 4.879e-6
-1.162, 4.812e-6
-1.163, 4.948e-6
-1.164, 5.052e-6
-1.165, 5.019e-6
-1.166, 4.873e-6
-1.167, 4.812e-6
-1.168, 4.915e-6
-1.169, 5.052e-6
-1.170, 4.998e-6
-1.171, 4.934e-6
-1.172, 4.822e-6
-1.173, 4.926e-6
-1.174, 5.044e-6
-1.175, 5.018e-6
-1.176, 4.866e-6
-1.177, 4.801e-6
-1.178, 4.936e-6
-1.179, 5.065e-6
-1.180, 5.036e-6
-1.181, 4.935e-6
-1.182, 4.838e-6
-1.183, 4.957e-6
-1.184, 5.069e-6
-1.185, 5.027e-6
-1.186, 4.955e-6
-1.187, 4.811e-6
-1.188, 4.939e-6
-1.189, 5.082e-6
-1.190, 5.059e-6
-1.191, 4.953e-6
-1.192, 4.806e-6
-1.193, 4.947e-6
-1.194, 5.134e-6
-1.195, 5.029e-6
-1.196, 4.950e-6
-1.197, 4.836e-6
-1.198, 4.959e-6
-1.199, 5.140e-6
-1.200, 4.984e-6
-1.201, 4.941e-6
-1.202, 4.891e-6
-1.203, 4.979e-6
-1.204, 5.131e-6
-1.205, 5.080e-6
-1.206, 4.967e-6
-1.207, 4.899e-6
-1.208, 4.988e-6
-1.209, 5.137e-6
-1.210, 5.105e-6
-1.211, 5.006e-6
-1.212, 4.887e-6
-1.213, 5.053e-6
-1.214, 5.153e-6
-1.215, 5.119e-6
-1.216, 5.022e-6
-1.217, 4.898e-6
-1.218, 5.056e-6
-1.219, 5.190e-6
-1.220, 5.164e-6
-1.221, 5.044e-6
-1.222, 4.967e-6
-1.223, 5.117e-6
-1.224, 5.220e-6
-1.225, 5.158e-6
-1.226, 5.080e-6
-1.227, 5.018e-6
-1.228, 5.169e-6
-1.229, 5.318e-6
-1.230, 5.199e-6
-1.231, 5.147e-6
-1.232, 5.043e-6
-1.233, 5.196e-6
-1.234, 5.319e-6
-1.235, 5.236e-6
-1.236, 5.187e-6
-1.237, 5.106e-6
-1.238, 5.230e-6
-1.239, 5.380e-6
-1.240, 5.333e-6
-1.241, 5.210e-6
-1.242, 5.179e-6
-1.243, 5.308e-6
-1.244, 5.451e-6
-1.245, 5.422e-6
-1.246, 5.306e-6
-1.247, 5.264e-6
-1.248, 5.332e-6
-1.249, 5.509e-6
-1.250, 5.474e-6
-1.251, 5.303e-6
-1.252, 5.337e-6
-1.253, 5.432e-6
-1.254, 5.573e-6
-1.255, 5.548e-6
-1.256, 5.436e-6
-1.257, 5.395e-6
-1.258, 5.504e-6
-1.259, 5.680e-6
-1.260, 5.618e-6
-1.261, 5.520e-6
-1.262, 5.502e-6
-1.263, 5.618e-6
-1.264, 5.736e-6
-1.265, 5.699e-6
-1.266, 5.644e-6
-1.267, 5.597e-6
-1.268, 5.688e-6
-1.269, 5.901e-6
-1.270, 5.789e-6
-1.271, 5.758e-6
-1.272, 5.705e-6
-1.273, 5.815e-6
-1.274, 6.029e-6
-1.275, 5.922e-6
-1.276, 5.890e-6
-1.277, 5.821e-6
-1.278, 5.952e-6
-1.279, 6.156e-6
-1.280, 6.086e-6
-1.281, 6.019e-6
-1.282, 5.979e-6
-1.283, 6.124e-6
-1.284, 6.251e-6
-1.285, 6.248e-6
-1.286, 6.205e-6
-1.287, 6.127e-6
-1.288, 6.246e-6
-1.289, 6.404e-6
-1.290, 6.422e-6
-1.291, 6.338e-6
-1.292, 6.223e-6
-1.293, 6.419e-6
-1.294, 6.611e-6
-1.295, 6.566e-6
-1.296, 6.476e-6
-1.297, 6.438e-6
-1.298, 6.613e-6
-1.299, 6.740e-6
-1.300, 6.750e-6
-1.301, 6.661e-6
-1.302, 6.619e-6
-1.303, 6.793e-6
-1.304, 6.921e-6
-1.305, 6.907e-6
-1.306, 6.870e-6
-1.307, 6.821e-6
-1.308, 6.956e-6
-1.309, 7.086e-6
-1.310, 7.095e-6
-1.311, 7.020e-6
-1.312, 7.002e-6
-1.313, 7.142e-6
-1.314, 7.321e-6
-1.315, 7.264e-6
-1.316, 7.219e-6
-1.317, 7.169e-6
-1.318, 7.296e-6
-1.319, 7.541e-6
-1.320, 7.447e-6
-1.321, 7.444e-6
-1.322, 7.410e-6
-1.323, 7.532e-6
-1.324, 7.709e-6
-1.325, 7.675e-6
-1.326, 7.611e-6
-1.327, 7.577e-6
-1.328, 7.717e-6
-1.329, 7.879e-6
-1.330, 7.864e-6
-1.331, 7.787e-6
-1.332, 7.768e-6
-1.333, 7.932e-6
-1.334, 8.070e-6
-1.335, 8.073e-6
-1.336, 8.021e-6
-1.337, 7.971e-6
-1.338, 8.121e-6
-1.339, 8.288e-6
-1.340, 8.245e-6
-1.341, 8.239e-6
-1.342, 8.146e-6
-1.343, 8.289e-6
-1.344, 8.403e-6
-1.345, 8.445e-6
-1.346, 8.406e-6
-1.347, 8.285e-6
-1.348, 8.475e-6
-1.349, 8.659e-6
-1.350, 8.602e-6
-1.351, 8.542e-6
-1.352, 8.475e-6
-1.353, 8.615e-6
-1.354, 8.818e-6
-1.355, 8.766e-6
-1.356, 8.705e-6
-1.357, 8.676e-6
-1.358, 8.789e-6
-1.359, 8.977e-6
-1.360, 8.916e-6
-1.361, 8.863e-6
-1.362, 8.840e-6
-1.363, 8.942e-6
-1.364, 9.097e-6
-1.365, 9.085e-6
-1.366, 9.025e-6
-1.367, 8.955e-6
-1.368, 9.092e-6
-1.369, 9.241e-6
-1.370, 9.243e-6
-1.371, 9.173e-6
-1.372, 9.084e-6
-1.373, 9.225e-6
-1.374, 9.377e-6
-1.375, 9.337e-6
-1.376, 9.258e-6
-1.377, 9.221e-6
-1.378, 9.369e-6
-1.379, 9.484e-6
-1.380, 9.474e-6
-1.381, 9.412e-6
-1.382, 9.400e-6
-1.383, 9.481e-6
-1.384, 9.686e-6
-1.385, 9.586e-6
-1.386, 9.552e-6
-1.387, 9.516e-6
-1.388, 9.583e-6
-1.389, 9.772e-6
-1.390, 9.740e-6
-1.391, 9.657e-6
-1.392, 9.585e-6
-1.393, 9.679e-6
-1.394, 9.923e-6
-1.395, 9.818e-6
-1.396, 9.795e-6
-1.397, 9.737e-6
-1.398, 9.857e-6
-1.399, 1.001e-5
-1.400, 9.977e-6
-1.401, 9.887e-6
-1.402, 9.858e-6
-1.403, 9.971e-6
-1.404, 1.015e-5
-1.405, 1.009e-5
-1.406, 1.001e-5
-1.407, 9.951e-6
-1.408, 1.008e-5
-1.409, 1.029e-5
-1.410, 1.023e-5
-1.411, 1.012e-5
-1.412, 1.007e-5
-1.413, 1.022e-5
-1.414, 1.039e-5
-1.415, 1.035e-5
-1.416, 1.028e-5
-1.417, 1.021e-5
-1.418, 1.037e-5
-1.419, 1.053e-5
-1.420, 1.048e-5
-1.421, 1.043e-5
-1.422, 1.042e-5
-1.423, 1.053e-5
-1.424, 1.067e-5
-1.425, 1.065e-5
-1.426, 1.056e-5
-1.427, 1.050e-5
-1.428, 1.071e-5
-1.429, 1.087e-5
-1.430, 1.077e-5
-1.431, 1.073e-5
-1.432, 1.067e-5
-1.433, 1.087e-5
-1.434, 1.104e-5
-1.435, 1.098e-5
-1.436, 1.088e-5
-1.437, 1.094e-5
-1.438, 1.099e-5
-1.439, 1.120e-5
-1.440, 1.119e-5
-1.441, 1.111e-5
-1.442, 1.107e-5
-1.443, 1.120e-5
-1.444, 1.143e-5
-1.445, 1.139e-5
-1.446, 1.133e-5
-1.447, 1.133e-5
-1.448, 1.138e-5
-1.449, 1.162e-5
-1.450, 1.159e-5
-1.451, 1.158e-5
-1.452, 1.154e-5
-1.453, 1.171e-5
-1.454, 1.193e-5
-1.455, 1.190e-5
-1.456, 1.185e-5
-1.457, 1.185e-5
-1.458, 1.197e-5
-1.459, 1.221e-5
-1.460, 1.221e-5
-1.461, 1.212e-5
-1.462, 1.214e-5
-1.463, 1.230e-5
-1.464, 1.251e-5
-1.465, 1.251e-5
-1.466, 1.249e-5
-1.467, 1.250e-5
-1.468, 1.269e-5
-1.469, 1.291e-5
-1.470, 1.291e-5
-1.471, 1.293e-5
-1.472, 1.290e-5
-1.473, 1.313e-5
-1.474, 1.339e-5
-1.475, 1.333e-5
-1.476, 1.336e-5
-1.477, 1.342e-5
-1.478, 1.365e-5
-1.479, 1.386e-5
-1.480, 1.391e-5
-1.481, 1.388e-5
-1.482, 1.393e-5
-1.483, 1.412e-5
-1.484, 1.441e-5
-1.485, 1.449e-5
-1.486, 1.449e-5
-1.487, 1.462e-5
-1.488, 1.483e-5
-1.489, 1.508e-5
-1.490, 1.519e-5
-1.491, 1.522e-5
-1.492, 1.533e-5
-1.493, 1.557e-5
-1.494, 1.588e-5
-1.495, 1.596e-5
-1.496, 1.602e-5
-1.497, 1.611e-5
-1.498, 1.643e-5
-1.499, 1.681e-5
-1.500, 1.686e-5
-1.501, 1.696e-5
-1.502, 1.712e-5
-1.503, 1.744e-5
-1.504, 1.774e-5
-1.505, 1.791e-5
-1.506, 1.809e-5
-1.507, 1.818e-5
-1.508, 1.855e-5
-1.509, 1.895e-5
-1.510, 1.911e-5
-1.511, 1.925e-5
-1.512, 1.947e-5
-1.513, 1.988e-5
-1.514, 2.028e-5
-1.515, 2.047e-5
-1.516, 2.114e-5
-1.517, 2.102e-5
-1.518, 2.138e-5
-1.519, 2.176e-5
-1.520, 2.205e-5
-1.521, 2.225e-5
-1.522, 2.260e-5
-1.523, 2.306e-5
-1.524, 2.355e-5
-1.525, 2.383e-5
-1.526, 2.414e-5
-1.527, 2.442e-5
-1.528, 2.497e-5
-1.529, 2.545e-5
-1.530, 2.584e-5
-1.531, 2.616e-5
-1.532, 2.649e-5
-1.533, 2.712e-5
-1.534, 2.768e-5
-1.535, 2.810e-5
-1.536, 2.842e-5
-1.537, 2.888e-5
-1.538, 2.951e-5
-1.539, 3.015e-5
-1.540, 3.060e-5
-1.541, 3.105e-5
-1.542, 3.155e-5
-1.543, 3.222e-5
-1.544, 3.289e-5
-1.545, 3.340e-5
-1.546, 3.396e-5
-1.547, 3.445e-5
-1.548, 3.517e-5
-1.549, 3.595e-5
-1.550, 3.654e-5
-1.551, 3.712e-5
-1.552, 3.761e-5
-1.553, 3.847e-5
-1.554, 3.932e-5
-1.555, 3.993e-5
-1.556, 4.059e-5
-1.557, 4.128e-5
-1.558, 4.214e-5
-1.559, 4.306e-5
-1.560, 4.373e-5
-1.561, 4.445e-5
-1.562, 4.524e-5
-1.563, 4.615e-5
-1.564, 4.718e-5
-1.565, 4.796e-5
-1.566, 4.882e-5
-1.567, 4.968e-5
-1.568, 5.069e-5
-1.569, 5.180e-5
-1.570, 5.269e-5
-1.571, 5.364e-5
-1.572, 5.458e-5
-1.573, 5.571e-5
-1.574, 5.702e-5
-1.575, 5.808e-5
-1.576, 5.909e-5
-1.577, 6.013e-5
-1.578, 6.144e-5
-1.579, 6.282e-5
-1.580, 6.399e-5
-1.581, 6.522e-5
-1.582, 6.644e-5
-1.583, 6.790e-5
-1.584, 6.944e-5
-1.585, 7.079e-5
-1.586, 7.222e-5
-1.587, 7.362e-5
-1.588, 7.530e-5
-1.589, 7.707e-5
-1.590, 7.862e-5
-1.591, 8.026e-5
-1.592, 8.185e-5
-1.593, 8.372e-5
-1.594, 8.570e-5
-1.595, 8.751e-5
-1.596, 8.940e-5
-1.597, 9.124e-5
-1.598, 9.338e-5
-1.599, 9.563e-5
-1.600, 9.770e-5
-1.601, 9.986e-5
-1.602, 1.020e-4
-1.603, 1.045e-4
-1.604, 1.071e-4
-1.605, 1.095e-4
-1.606, 1.119e-4
-1.607, 1.144e-4
-1.608, 1.172e-4
-1.609, 1.202e-4
-1.610, 1.230e-4
-1.611, 1.259e-4
-1.612, 1.288e-4
-1.613, 1.320e-4
-1.614, 1.355e-4
-1.615, 1.387e-4
-1.616, 1.420e-4
-1.617, 1.454e-4
-1.618, 1.491e-4
-1.619, 1.530e-4
-1.620, 1.568e-4
-1.621, 1.606e-4
-1.622, 1.645e-4
-1.623, 1.688e-4
-1.624, 1.731e-4
-1.625, 1.775e-4
-1.626, 1.819e-4
-1.627, 1.864e-4
-1.628, 1.913e-4
-1.629, 1.963e-4
-1.630, 2.013e-4
-1.631, 2.064e-4
-1.632, 2.114e-4
-1.633, 2.170e-4
-1.634, 2.228e-4
-1.635, 2.285e-4
-1.636, 2.343e-4
-1.637, 2.402e-4
-1.638, 2.466e-4
-1.639, 2.533e-4
-1.640, 2.599e-4
-1.641, 2.666e-4
-1.642, 2.734e-4
-1.643, 2.805e-4
-1.644, 2.881e-4
-1.645, 2.956e-4
-1.646, 3.034e-4
-1.647, 3.113e-4
-1.648, 3.195e-4
-1.649, 3.282e-4
-1.650, 3.370e-4
-1.651, 3.459e-4
-1.652, 3.550e-4
-1.653, 3.647e-4
-1.654, 3.787e-4
-1.655, 3.848e-4
-1.656, 3.950e-4
-1.657, 4.055e-4
-1.658, 4.164e-4
-1.659, 4.276e-4
-1.660, 4.391e-4
-1.661, 4.509e-4
-1.662, 4.629e-4
-1.663, 4.754e-4
-1.664, 4.886e-4
-1.665, 5.018e-4
-1.666, 5.153e-4
-1.667, 5.290e-4
-1.668, 5.435e-4
-1.669, 5.583e-4
-1.670, 5.733e-4
-1.671, 5.888e-4
-1.672, 6.045e-4
-1.673, 6.207e-4
-1.674, 6.377e-4
-1.675, 6.549e-4
-1.676, 6.728e-4
-1.677, 6.907e-4
-1.678, 7.092e-4
-1.679, 7.285e-4
-1.680, 7.480e-4
-1.681, 7.682e-4
-1.682, 7.884e-4
-1.683, 8.093e-4
-1.684, 8.309e-4
-1.685, 8.534e-4
-1.686, 8.761e-4
-1.687, 8.990e-4
-1.688, 9.224e-4
-1.689, 9.469e-4
-1.690, 9.727e-4
-1.691, 9.980e-4
-1.692, 1.024e-3
-1.693, 1.050e-3
-1.694, 1.078e-3
-1.695, 1.106e-3
-1.696, 1.135e-3
-1.697, 1.163e-3
-1.698, 1.193e-3
-1.699, 1.224e-3
-1.700, 1.236e-3
-1.699, 1.226e-3
-1.698, 1.216e-3
-1.697, 1.205e-3
-1.696, 1.194e-3
-1.695, 1.182e-3
-1.694, 1.168e-3
-1.693, 1.155e-3
-1.692, 1.141e-3
-1.691, 1.128e-3
-1.690, 1.113e-3
-1.689, 1.099e-3
-1.688, 1.084e-3
-1.687, 1.070e-3
-1.686, 1.055e-3
-1.685, 1.040e-3
-1.684, 1.024e-3
-1.683, 1.009e-3
-1.682, 9.948e-4
-1.681, 9.796e-4
-1.680, 9.648e-4
-1.679, 9.501e-4
-1.678, 9.351e-4
-1.677, 9.203e-4
-1.676, 9.058e-4
-1.675, 8.915e-4
-1.674, 8.769e-4
-1.673, 8.622e-4
-1.672, 8.478e-4
-1.671, 8.339e-4
-1.670, 8.201e-4
-1.669, 8.061e-4
-1.668, 7.921e-4
-1.667, 7.784e-4
-1.666, 7.654e-4
-1.665, 7.523e-4
-1.664, 7.391e-4
-1.663, 7.258e-4
-1.662, 7.129e-4
-1.661, 7.006e-4
-1.660, 6.882e-4
-1.659, 6.755e-4
-1.658, 6.629e-4
-1.657, 6.509e-4
-1.656, 6.397e-4
-1.655, 6.281e-4
-1.654, 6.163e-4
-1.653, 6.045e-4
-1.652, 5.933e-4
-1.651, 5.826e-4
-1.650, 5.722e-4
-1.649, 5.613e-4
-1.648, 5.505e-4
-1.647, 5.400e-4
-1.646, 5.301e-4
-1.645, 5.201e-4
-1.644, 5.101e-4
-1.643, 5.000e-4
-1.642, 4.905e-4
-1.641, 4.812e-4
-1.640, 4.722e-4
-1.639, 4.627e-4
-1.638, 4.534e-4
-1.637, 4.447e-4
-1.636, 4.363e-4
-1.635, 4.279e-4
-1.634, 4.194e-4
-1.633, 4.110e-4
-1.632, 4.029e-4
-1.631, 3.952e-4
-1.630, 3.874e-4
-1.629, 3.796e-4
-1.628, 3.720e-4
-1.627, 3.645e-4
-1.626, 3.576e-4
-1.625, 3.505e-4
-1.624, 3.434e-4
-1.623, 3.365e-4
-1.622, 3.298e-4
-1.621, 3.234e-4
-1.620, 3.168e-4
-1.619, 3.102e-4
-1.618, 3.038e-4
-1.617, 2.978e-4
-1.616, 2.920e-4
-1.615, 2.861e-4
-1.614, 2.803e-4
-1.613, 2.744e-4
-1.612, 2.689e-4
-1.611, 2.636e-4
-1.610, 2.606e-4
-1.609, 2.529e-4
-1.608, 2.476e-4
-1.607, 2.426e-4
-1.606, 2.378e-4
-1.605, 2.329e-4
-1.604, 2.280e-4
-1.603, 2.232e-4
-1.602, 2.187e-4
-1.601, 2.143e-4
-1.600, 2.098e-4
-1.599, 2.054e-4
-1.598, 2.011e-4
-1.597, 1.970e-4
-1.596, 1.931e-4
-1.595, 1.891e-4
-1.594, 1.851e-4
-1.593, 1.811e-4
-1.592, 1.774e-4
-1.591, 1.738e-4
-1.590, 1.702e-4
-1.589, 1.665e-4
-1.588, 1.629e-4
-1.587, 1.596e-4
-1.586, 1.564e-4
-1.585, 1.531e-4
-1.584, 1.497e-4
-1.583, 1.464e-4
-1.582, 1.434e-4
-1.581, 1.406e-4
-1.580, 1.376e-4
-1.579, 1.346e-4
-1.578, 1.317e-4
-1.577, 1.289e-4
-1.576, 1.264e-4
-1.575, 1.237e-4
-1.574, 1.209e-4
-1.573, 1.184e-4
-1.572, 1.160e-4
-1.571, 1.136e-4
-1.570, 1.111e-4
-1.569, 1.086e-4
-1.568, 1.063e-4
-1.567, 1.041e-4
-1.566, 1.020e-4
-1.565, 9.985e-5
-1.564, 9.758e-5
-1.563, 9.537e-5
-1.562, 9.337e-5
-1.561, 9.150e-5
-1.560, 8.956e-5
-1.559, 8.748e-5
-1.558, 8.550e-5
-1.557, 8.373e-5
-1.556, 8.205e-5
-1.555, 8.030e-5
-1.554, 7.893e-5
-1.553, 7.731e-5
-1.552, 7.570e-5
-1.551, 7.433e-5
-1.550, 7.204e-5
-1.549, 7.038e-5
-1.548, 6.883e-5
-1.547, 6.744e-5
-1.546, 6.605e-5
-1.545, 6.466e-5
-1.544, 6.324e-5
-1.543, 6.158e-5
-1.542, 6.023e-5
-1.541, 5.904e-5
-1.540, 5.771e-5
-1.539, 5.630e-5
-1.538, 5.502e-5
-1.537, 5.384e-5
-1.536, 5.272e-5
-1.535, 5.152e-5
-1.534, 5.024e-5
-1.533, 4.908e-5
-1.532, 4.803e-5
-1.531, 4.712e-5
-1.530, 4.607e-5
-1.529, 4.486e-5
-1.528, 4.384e-5
-1.527, 4.288e-5
-1.526, 4.209e-5
-1.525, 4.113e-5
-1.524, 4.008e-5
-1.523, 3.905e-5
-1.522, 3.825e-5
-1.521, 3.754e-5
-1.520, 3.666e-5
-1.519, 3.565e-5
-1.518, 3.481e-5
-1.517, 3.407e-5
-1.516, 3.344e-5
-1.515, 3.267e-5
-1.514, 3.173e-5
-1.513, 3.096e-5
-1.512, 3.035e-5
-1.511, 2.977e-5
-1.510, 2.902e-5
-1.509, 2.821e-5
-1.508, 2.748e-5
-1.507, 2.691e-5
-1.506, 2.644e-5
-1.505, 2.577e-5
-1.504, 2.499e-5
-1.503, 2.441e-5
-1.502, 2.391e-5
-1.501, 2.345e-5
-1.500, 2.290e-5
-1.499, 2.215e-5
-1.498, 2.159e-5
-1.497, 2.112e-5
-1.496, 2.078e-5
-1.495, 2.027e-5
-1.494, 1.961e-5
-1.493, 1.911e-5
-1.492, 1.871e-5
-1.491, 1.838e-5
-1.490, 1.798e-5
-1.489, 1.732e-5
-1.488, 1.686e-5
-1.487, 1.648e-5
-1.486, 1.622e-5
-1.485, 1.582e-5
-1.484, 1.525e-5
-1.483, 1.473e-5
-1.482, 1.450e-5
-1.481, 1.425e-5
-1.480, 1.390e-5
-1.479, 1.337e-5
-1.478, 1.292e-5
-1.477, 1.275e-5
-1.476, 1.253e-5
-1.475, 1.216e-5
-1.474, 1.165e-5
-1.473, 1.130e-5
-1.472, 1.108e-5
-1.471, 1.094e-5
-1.470, 1.064e-5
-1.469, 1.017e-5
-1.468, 9.819e-6
-1.467, 9.613e-6
-1.466, 9.524e-6
-1.465, 9.196e-6
-1.464, 8.788e-6
-1.463, 8.442e-6
-1.462, 8.290e-6
-1.461, 8.240e-6
-1.460, 7.984e-6
-1.459, 7.529e-6
-1.458, 7.255e-6
-1.457, 7.138e-6
-1.456, 7.052e-6
-1.455, 6.870e-6
-1.454, 6.444e-6
-1.453, 6.194e-6
-1.452, 6.091e-6
-1.451, 5.971e-6
-1.450, 5.839e-6
-1.449, 5.432e-6
-1.448, 5.207e-6
-1.447, 5.111e-6
-1.446, 5.052e-6
-1.445, 4.946e-6
-1.444, 4.559e-6
-1.443, 4.305e-6
-1.442, 4.274e-6
-1.441, 4.221e-6
-1.440, 4.069e-6
-1.439, 3.750e-6
-1.438, 3.514e-6
-1.437, 3.481e-6
-1.436, 3.461e-6
-1.435, 3.319e-6
-1.434, 2.986e-6
-1.433, 2.713e-6
-1.432, 2.684e-6
-1.431, 2.747e-6
-1.430, 2.585e-6
-1.429, 2.305e-6
-1.428, 2.090e-6
-1.427, 2.030e-6
-1.426, 2.091e-6
-1.425, 1.969e-6
-1.424, 1.655e-6
-1.423, 1.485e-6
-1.422, 1.427e-6
-1.421, 1.449e-6
-1.420, 1.406e-6
-1.419, 1.056e-6
-1.418, 9.134e-7
-1.417, 8.394e-7
-1.416, 9.193e-7
-1.415, 9.104e-7
-1.414, 5.138e-7
-1.413, 3.579e-7
-1.412, 3.905e-7
-1.411, 3.974e-7
-1.410, 3.086e-7
-1.409, 4.223e-8
-1.408, -1.452e-7
-1.407, -1.117e-7
-1.406, -1.146e-7
-1.405, -1.058e-7
-1.404, -4.017e-7
-1.403, -6.188e-7
-1.402, -5.931e-7
-1.401, -5.468e-7
-1.400, -5.468e-7
-1.399, -8.299e-7
-1.398, -1.028e-6
-1.397, -1.004e-6
-1.396, -9.375e-7
-1.395, -9.611e-7
-1.394, -1.289e-6
-1.393, -1.464e-6
-1.392, -1.443e-6
-1.391, -1.356e-6
-1.390, -1.374e-6
-1.389, -1.630e-6
-1.388, -1.807e-6
-1.387, -1.838e-6
-1.386, -1.679e-6
-1.385, -1.744e-6
-1.384, -2.004e-6
-1.383, -2.174e-6
-1.382, -2.205e-6
-1.381, -2.102e-6
-1.380, -2.081e-6
-1.379, -2.424e-6
-1.378, -2.558e-6
-1.377, -2.570e-6
-1.376, -2.459e-6
-1.375, -2.428e-6
-1.374, -2.776e-6
-1.373, -2.903e-6
-1.372, -2.860e-6
-1.371, -2.821e-6
-1.370, -2.819e-6
-1.369, -3.094e-6
-1.368, -3.243e-6
-1.367, -3.214e-6
-1.366, -3.165e-6
-1.365, -3.145e-6
-1.364, -3.427e-6
-1.363, -3.609e-6
-1.362, -3.555e-6
-1.361, -3.495e-6
-1.360, -3.477e-6
-1.359, -3.766e-6
-1.358, -3.940e-6
-1.357, -3.897e-6
-1.356, -3.830e-6
-1.355, -3.855e-6
-1.354, -4.108e-6
-1.353, -4.194e-6
-1.352, -4.213e-6
-1.351, -4.151e-6
-1.350, -4.143e-6
-1.349, -4.411e-6
-1.348, -4.589e-6
-1.347, -4.592e-6
-1.346, -4.450e-6
-1.345, -4.463e-6
-1.344, -4.752e-6
-1.343, -4.887e-6
-1.342, -4.909e-6
-1.341, -4.783e-6
-1.340, -4.825e-6
-1.339, -5.090e-6
-1.338, -5.270e-6
-1.337, -5.229e-6
-1.336, -5.161e-6
-1.335, -5.135e-6
-1.334, -5.439e-6
-1.333, -5.563e-6
-1.332, -5.552e-6
-1.331, -5.485e-6
-1.330, -5.480e-6
-1.329, -5.736e-6
-1.328, -5.899e-6
-1.327, -5.891e-6
-1.326, -5.831e-6
-1.325, -5.786e-6
-1.324, -6.066e-6
-1.323, -6.280e-6
-1.322, -6.228e-6
-1.321, -6.122e-6
-1.320, -6.116e-6
-1.319, -6.393e-6
-1.318, -6.596e-6
-1.317, -6.556e-6
-1.316, -6.432e-6
-1.315, -6.471e-6
-1.314, -6.699e-6
-1.313, -6.903e-6
-1.312, -6.867e-6
-1.311, -6.762e-6
-1.310, -6.778e-6
-1.309, -7.026e-6
-1.308, -7.225e-6
-1.307, -7.227e-6
-1.306, -7.111e-6
-1.305, -7.117e-6
-1.304, -7.361e-6
-1.303, -7.534e-6
-1.302, -7.585e-6
-1.301, -7.410e-6
-1.300, -7.426e-6
-1.299, -7.711e-6
-1.298, -7.882e-6
-1.297, -7.834e-6
-1.296, -7.737e-6
-1.295, -7.741e-6
-1.294, -8.036e-6
-1.293, -8.161e-6
-1.292, -8.131e-6
-1.291, -8.118e-6
-1.290, -8.054e-6
-1.289, -8.312e-6
-1.288, -8.480e-6
-1.287, -8.455e-6
-1.286, -8.383e-6
-1.285, -8.414e-6
-1.284, -8.601e-6
-1.283, -8.812e-6
-1.282, -8.794e-6
-1.281, -8.680e-6
-1.280, -8.687e-6
-1.279, -8.913e-6
-1.278, -9.102e-6
-1.277, -9.109e-6
-1.276, -8.989e-6
-1.275, -8.969e-6
-1.274, -9.198e-6
-1.273, -9.415e-6
-1.272, -9.382e-6
-1.271, -9.268e-6
-1.270, -9.297e-6
-1.269, -9.496e-6
-1.268, -9.706e-6
-1.267, -9.681e-6
-1.266, -9.537e-6
-1.265, -9.586e-6
-1.264, -9.792e-6
-1.263, -9.953e-6
-1.262, -1.000e-5
-1.261, -9.837e-6
-1.260, -9.829e-6
-1.259, -1.007e-5
-1.258, -1.026e-5
-1.257, -1.026e-5
-1.256, -1.010e-5
-1.255, -1.013e-5
-1.254, -1.034e-5
-1.253, -1.054e-5
-1.252, -1.053e-5
-1.251, -1.039e-5
-1.250, -1.038e-5
-1.249, -1.061e-5
-1.248, -1.074e-5
-1.247, -1.078e-5
-1.246, -1.065e-5
-1.245, -1.059e-5
-1.244, -1.084e-5
-1.243, -1.100e-5
-1.242, -1.105e-5
-1.241, -1.088e-5
-1.240, -1.084e-5
-1.239, -1.105e-5
-1.238, -1.126e-5
-1.237, -1.124e-5
-1.236, -1.106e-5
-1.235, -1.113e-5
-1.234, -1.131e-5
-1.233, -1.148e-5
-1.232, -1.143e-5
-1.231, -1.131e-5
-1.230, -1.133e-5
-1.229, -1.155e-5
-1.228, -1.164e-5
-1.227, -1.167e-5
-1.226, -1.151e-5
-1.225, -1.153e-5
-1.224, -1.172e-5
-1.223, -1.182e-5
-1.222, -1.185e-5
-1.221, -1.171e-5
-1.220, -1.169e-5
-1.219, -1.185e-5
-1.218, -1.198e-5
-1.217, -1.201e-5
-1.216, -1.183e-5
-1.215, -1.185e-5
-1.214, -1.199e-5
-1.213, -1.215e-5
-1.212, -1.213e-5
-1.211, -1.199e-5
-1.210, -1.193e-5
-1.209, -1.213e-5
-1.208, -1.227e-5
-1.207, -1.222e-5
-1.206, -1.210e-5
-1.205, -1.205e-5
-1.204, -1.218e-5
-1.203, -1.237e-5
-1.202, -1.237e-5
-1.201, -1.222e-5
-1.200, -1.216e-5
-1.199, -1.231e-5
-1.198, -1.250e-5
-1.197, -1.242e-5
-1.196, -1.225e-5
-1.195, -1.228e-5
-1.194, -1.234e-5
-1.193, -1.252e-5
-1.192, -1.251e-5
-1.191, -1.232e-5
-1.190, -1.232e-5
-1.189, -1.242e-5
-1.188, -1.256e-5
-1.187, -1.256e-5
-1.186, -1.239e-5
-1.185, -1.234e-5
-1.184, -1.246e-5
-1.183, -1.261e-5
-1.182, -1.261e-5
-1.181, -1.244e-5
-1.180, -1.240e-5
-1.179, -1.254e-5
-1.178, -1.269e-5
-1.177, -1.267e-5
-1.176, -1.248e-5
-1.175, -1.242e-5
-1.174, -1.255e-5
-1.173, -1.268e-5
-1.172, -1.261e-5
-1.171, -1.258e-5
-1.170, -1.247e-5
-1.169, -1.260e-5
-1.168, -1.272e-5
-1.167, -1.268e-5
-1.166, -1.253e-5
-1.165, -1.251e-5
-1.164, -1.260e-5
-1.163, -1.277e-5
-1.162, -1.272e-5
-1.161, -1.255e-5
-1.160, -1.252e-5
-1.159, -1.262e-5
-1.158, -1.280e-5
-1.157, -1.273e-5
-1.156, -1.261e-5
-1.155, -1.255e-5
-1.154, -1.264e-5
-1.153, -1.282e-5
-1.152, -1.279e-5
-1.151, -1.266e-5
-1.150, -1.258e-5
-1.149, -1.270e-5
-1.148, -1.285e-5
-1.147, -1.281e-5
-1.146, -1.271e-5
-1.145, -1.264e-5
-1.144, -1.273e-5
-1.143, -1.290e-5
-1.142, -1.287e-5
-1.141, -1.275e-5
-1.140, -1.269e-5
-1.139, -1.283e-5
-1.138, -1.295e-5
-1.137, -1.295e-5
-1.136, -1.283e-5
-1.135, -1.276e-5
-1.134, -1.291e-5
-1.133, -1.304e-5
-1.132, -1.301e-5
-1.131, -1.294e-5
-1.130, -1.283e-5
-1.129, -1.297e-5
-1.128, -1.314e-5
-1.127, -1.309e-5
-1.126, -1.300e-5
-1.125, -1.294e-5
-1.124, -1.312e-5
-1.123, -1.326e-5
-1.122, -1.318e-5
-1.121, -1.312e-5
-1.120, -1.307e-5
-1.119, -1.322e-5
-1.118, -1.334e-5
-1.117, -1.332e-5
-1.116, -1.331e-5
-1.115, -1.320e-5
-1.114, -1.333e-5
-1.113, -1.353e-5
-1.112, -1.349e-5
-1.111, -1.343e-5
-1.110, -1.336e-5
-1.109, -1.352e-5
-1.108, -1.370e-5
-1.107, -1.369e-5
-1.106, -1.356e-5
-1.105, -1.358e-5
-1.104, -1.364e-5
-1.103, -1.385e-5
-1.102, -1.387e-5
-1.101, -1.378e-5
-1.100, -1.370e-5
-1.099, -1.388e-5
-1.098, -1.406e-5
-1.097, -1.405e-5
-1.096, -1.397e-5
-1.095, -1.392e-5
-1.094, -1.411e-5
-1.093, -1.425e-5
-1.092, -1.427e-5
-1.091, -1.420e-5
-1.090, -1.415e-5
-1.089, -1.434e-5
-1.088, -1.449e-5
-1.087, -1.449e-5
-1.086, -1.443e-5
-1.085, -1.436e-5
-1.084, -1.452e-5
-1.083, -1.476e-5
-1.082, -1.470e-5
-1.081, -1.467e-5
-1.080, -1.457e-5
-1.079, -1.480e-5
-1.078, -1.500e-5
-1.077, -1.494e-5
-1.076, -1.495e-5
-1.075, -1.488e-5
-1.074, -1.504e-5
-1.073, -1.528e-5
-1.072, -1.523e-5
-1.071, -1.519e-5
-1.070, -1.517e-5
-1.069, -1.532e-5
-1.068, -1.548e-5
-1.067, -1.550e-5
-1.066, -1.546e-5
-1.065, -1.540e-5
-1.064, -1.557e-5
-1.063, -1.578e-5
-1.062, -1.576e-5
-1.061, -1.571e-5
-1.060, -1.565e-5
-1.059, -1.583e-5
-1.058, -1.604e-5
-1.057, -1.608e-5
-1.056, -1.596e-5
-1.055, -1.590e-5
-1.054, -1.610e-5
-1.053, -1.628e-5
-1.052, -1.633e-5
-1.051, -1.630e-5
-1.050, -1.617e-5
-1.049, -1.639e-5
-1.048, -1.659e-5
-1.047, -1.662e-5
-1.046, -1.655e-5
-1.045, -1.648e-5
-1.044, -1.659e-5
-1.043, -1.689e-5
-1.042, -1.692e-5
-1.041, -1.684e-5
-1.040, -1.675e-5
-1.039, -1.693e-5
-1.038, -1.722e-5
-1.037, -1.722e-5
-1.036, -1.711e-5
-1.035, -1.705e-5
-1.034, -1.720e-5
-1.033, -1.750e-5
-1.032, -1.750e-5
-1.031, -1.738e-5
-1.030, -1.738e-5
-1.029, -1.751e-5
-1.028, -1.774e-5
-1.027, -1.783e-5
-1.026, -1.770e-5
-1.025, -1.764e-5
-1.024, -1.786e-5
-1.023, -1.809e-5
-1.022, -1.813e-5
-1.021, -1.795e-5
-1.020, -1.793e-5
-1.019, -1.813e-5
-1.018, -1.834e-5
-1.017, -1.843e-5
-1.016, -1.827e-5
-1.015, -1.825e-5
-1.014, -1.843e-5
-1.013, -1.860e-5
-1.012, -1.868e-5
-1.011, -1.857e-5
-1.010, -1.854e-5
-1.009, -1.869e-5
-1.008, -1.892e-5
-1.007, -1.901e-5
-1.006, -1.888e-5
-1.005, -1.877e-5
-1.004, -1.895e-5
-1.003, -1.918e-5
-1.002, -1.927e-5
-1.001, -1.911e-5
-1.000, -1.478e-5
-1.001, -1.236e-5
-1.002, -1.116e-5
-1.003, -1.017e-5
-1.004, -9.004e-6
-1.005, -8.128e-6
-1.006, -7.485e-6
-1.007, -6.994e-6
-1.008, -6.528e-6
-1.009, -5.726e-6
-1.010, -5.108e-6
-1.011, -4.719e-6
-1.012, -4.451e-6
-1.013, -4.105e-6
-1.014, -3.483e-6
-1.015, -3.000e-6
-1.016, -2.762e-6
-1.017, -2.635e-6
-1.018, -2.357e-6
-1.019, -1.863e-6
-1.020, -1.473e-6
-1.021, -1.302e-6
-1.022, -1.254e-6
-1.023, -1.005e-6
-1.024, -5.902e-7
-1.025, -2.932e-7
-1.026, -1.225e-7
-1.027, -1.363e-7
-1.028, 3.039e-8
-1.029, 4.152e-7
-1.030, 6.588e-7
-1.031, 7.940e-7
-1.032, 7.427e-7
-1.033, 8.256e-7
-1.034, 1.158e-6
-1.035, 1.420e-6
-1.036, 1.466e-6
-1.037, 1.451e-6
-1.038, 1.509e-6
-1.039, 1.834e-6
-1.040, 2.052e-6
-1.041, 2.044e-6
-1.042, 2.030e-6
-1.043, 2.082e-6
-1.044, 2.342e-6
-1.045, 2.555e-6
-1.046, 2.554e-6
-1.047, 2.483e-6
-1.048, 2.494e-6
-1.049, 2.801e-6
-1.050, 2.977e-6
-1.051, 2.950e-6
-1.052, 2.874e-6
-1.053, 2.883e-6
-1.054, 3.164e-6
-1.055, 3.331e-6
-1.056, 3.277e-6
-1.057, 3.195e-6
-1.058, 3.202e-6
-1.059, 3.407e-6
-1.060, 3.576e-6
-1.061, 3.559e-6
-1.062, 3.428e-6
-1.063, 3.464e-6
-1.064, 3.658e-6
-1.065, 3.830e-6
-1.066, 3.770e-6
-1.067, 3.649e-6
-1.068, 3.645e-6
-1.069, 3.861e-6
-1.070, 4.021e-6
-1.071, 3.975e-6
-1.072, 3.875e-6
-1.073, 3.846e-6
-1.074, 4.024e-6
-1.075, 4.187e-6
-1.076, 4.162e-6
-1.077, 4.039e-6
-1.078, 3.976e-6
-1.079, 4.170e-6
-1.080, 4.307e-6
-1.081, 4.285e-6
-1.082, 4.135e-6
-1.083, 4.131e-6
-1.084, 4.272e-6
-1.085, 4.438e-6
-1.086, 4.365e-6
-1.087, 4.248e-6
-1.088, 4.218e-6
-1.089, 4.368e-6
-1.090, 4.542e-6
-1.091, 4.476e-6
-1.092, 4.328e-6
-1.093, 4.309e-6
-1.094, 4.447e-6
-1.095, 4.631e-6
-1.096, 4.515e-6
-1.097, 4.395e-6
-1.098, 4.417e-6
-1.099, 4.508e-6
-1.100, 4.612e-6
-1.101, 4.612e-6
-1.102, 4.450e-6
-1.103, 4.462e-6
-1.104, 4.560e-6
-1.105, 4.696e-6
-1.106, 4.677e-6
-1.107, 4.507e-6
-1.108, 4.496e-6
-1.109, 4.612e-6
-1.110, 4.725e-6
-1.111, 4.711e-6
-1.112, 4.554e-6
-1.113, 4.492e-6
-1.114, 4.663e-6
-1.115, 4.722e-6
-1.116, 4.763e-6
-1.117, 4.599e-6
-1.118, 4.544e-6
-1.119, 4.647e-6
-1.120, 4.806e-6
-1.121, 4.754e-6
-1.122, 4.613e-6
-1.123, 4.565e-6
-1.124, 4.673e-6
-1.125, 4.800e-6
-1.126, 4.770e-6
-1.127, 4.606e-6
-1.128, 4.583e-6
-1.129, 4.667e-6
-1.130, 4.819e-6
-1.131, 4.815e-6
-1.132, 4.634e-6
-1.133, 4.559e-6
-1.134, 4.711e-6
-1.135, 4.838e-6
-1.136, 4.797e-6
-1.137, 4.640e-6
-1.138, 4.642e-6
-1.139, 4.684e-6
-1.140, 4.834e-6
-1.141, 4.806e-6
-1.142, 4.609e-6
-1.143, 4.609e-6
-1.144, 4.680e-6
-1.145, 4.861e-6
-1.146, 4.817e-6
-1.147, 4.629e-6
-1.148, 4.600e-6
-1.149, 4.716e-6
-1.150, 4.842e-6
-1.151, 4.799e-6
-1.152, 4.648e-6
-1.153, 4.588e-6
-1.154, 4.733e-6
-1.155, 4.841e-6
-1.156, 4.794e-6
-1.157, 4.681e-6
-1.158, 4.615e-6
-1.159, 4.738e-6
-1.160, 4.824e-6
-1.161, 4.785e-6
-1.162, 4.732e-6
-1.163, 4.599e-6
-1.164, 4.711e-6
-1.165, 4.832e-6
-1.166, 4.769e-6
-1.167, 4.707e-6
-1.168, 4.618e-6
-1.169, 4.705e-6
-1.170, 4.858e-6
-1.171, 4.741e-6
-1.172, 4.676e-6
-1.173, 4.640e-6
-1.174, 4.695e-6
-1.175, 4.827e-6
-1.176, 4.773e-6
-1.177, 4.672e-6
-1.178, 4.635e-6
-1.179, 4.724e-6
-1.180, 4.857e-6
-1.181, 4.812e-6
-1.182, 4.708e-6
-1.183, 4.630e-6
-1.184, 4.727e-6
-1.185, 4.845e-6
-1.186, 4.812e-6
-1.187, 4.717e-6
-1.188, 4.677e-6
-1.189, 4.730e-6
-1.190, 4.888e-6
-1.191, 4.820e-6
-1.192, 4.741e-6
-1.193, 4.664e-6
-1.194, 4.755e-6
-1.195, 4.868e-6
-1.196, 4.800e-6
-1.197, 4.746e-6
-1.198, 4.654e-6
-1.199, 4.801e-6
-1.200, 4.869e-6
-1.201, 4.825e-6
-1.202, 4.769e-6
-1.203, 4.670e-6
-1.204, 4.783e-6
-1.205, 4.928e-6
-1.206, 4.886e-6
-1.207, 4.752e-6
-1.208, 4.659e-6
-1.209, 4.780e-6
-1.210, 4.974e-6
-1.211, 4.895e-6
-1.212, 4.773e-6
-1.213, 4.737e-6
-1.214, 4.791e-6
-1.215, 4.976e-6
-1.216, 4.887e-6
-1.217, 4.788e-6
-1.218, 4.775e-6
-1.219, 4.803e-6
-1.220, 5.022e-6
-1.221, 4.937e-6
-1.222, 4.838e-6
-1.223, 4.791e-6
-1.224, 4.829e-6
-1.225, 4.969e-6
-1.226, 4.993e-6
-1.227, 4.869e-6
-1.228, 4.819e-6
-1.229, 4.931e-6
-1.230, 5.055e-6
-1.231, 5.027e-6
-1.232, 4.873e-6
-1.233, 4.820e-6
-1.234, 4.932e-6
-1.235, 5.081e-6
-1.236, 5.045e-6
-1.237, 4.948e-6
-1.238, 4.889e-6
-1.239, 4.990e-6
-1.240, 5.109e-6
-1.241, 5.084e-6
-1.242, 4.993e-6
-1.243, 4.910e-6
-1.244, 5.045e-6
-1.245, 5.197e-6
-1.246, 5.157e-6
-1.247, 5.037e-6
-1.248, 4.994e-6
-1.249, 5.117e-6
-1.250, 5.257e-6
-1.251, 5.206e-6
-1.252, 5.084e-6
-1.253, 5.062e-6
-1.254, 5.154e-6
-1.255, 5.311e-6
-1.256, 5.320e-6
-1.257, 5.163e-6
-1.258, 5.181e-6
-1.259, 5.226e-6
-1.260, 5.372e-6
-1.261, 5.403e-6
-1.262, 5.247e-6
-1.263, 5.214e-6
-1.264, 5.306e-6
-1.265, 5.471e-6
-1.266, 5.487e-6
-1.267, 5.358e-6
-1.268, 5.307e-6
-1.269, 5.435e-6
-1.270, 5.547e-6
-1.271, 5.623e-6
-1.272, 5.457e-6
-1.273, 5.415e-6
-1.274, 5.575e-6
-1.275, 5.646e-6
-1.276, 5.745e-6
-1.277, 5.536e-6
-1.278, 5.543e-6
-1.279, 5.639e-6
-1.280, 5.793e-6
-1.281, 5.897e-6
-1.282, 5.702e-6
-1.283, 5.678e-6
-1.284, 5.796e-6
-1.285, 5.902e-6
-1.286, 6.020e-6
-1.287, 5.843e-6
-1.288, 5.799e-6
-1.289, 5.906e-6
-1.290, 6.103e-6
-1.291, 6.129e-6
-1.292, 6.021e-6
-1.293, 5.990e-6
-1.294, 6.057e-6
-1.295, 6.230e-6
-1.296, 6.278e-6
-1.297, 6.166e-6
-1.298, 6.164e-6
-1.299, 6.209e-6
-1.300, 6.409e-6
-1.301, 6.454e-6
-1.302, 6.321e-6
-1.303, 6.287e-6
-1.304, 6.392e-6
-1.305, 6.538e-6
-1.306, 6.662e-6
-1.307, 6.527e-6
-1.308, 6.445e-6
-1.309, 6.590e-6
-1.310, 6.707e-6
-1.311, 6.842e-6
-1.312, 6.702e-6
-1.313, 6.670e-6
-1.314, 6.776e-6
-1.315, 6.925e-6
-1.316, 7.037e-6
-1.317, 6.906e-6
-1.318, 6.833e-6
-1.319, 6.980e-6
-1.320, 7.092e-6
-1.321, 7.195e-6
-1.322, 7.094e-6
-1.323, 7.036e-6
-1.324, 7.124e-6
-1.325, 7.335e-6
-1.326, 7.379e-6
-1.327, 7.255e-6
-1.328, 7.233e-6
-1.329, 7.317e-6
-1.330, 7.503e-6
-1.331, 7.584e-6
-1.332, 7.475e-6
-1.333, 7.392e-6
-1.334, 7.537e-6
-1.335, 7.699e-6
-1.336, 7.738e-6
-1.337, 7.612e-6
-1.338, 7.584e-6
-1.339, 7.678e-6
-1.340, 7.862e-6
-1.341, 7.971e-6
-1.342, 7.815e-6
-1.343, 7.783e-6
-1.344, 7.857e-6
-1.345, 8.054e-6
-1.346, 8.115e-6
-1.347, 8.013e-6
-1.348, 7.955e-6
-1.349, 7.991e-6
-1.350, 8.237e-6
-1.351, 8.295e-6
-1.352, 8.180e-6
-1.353, 8.151e-6
-1.354, 8.199e-6
-1.355, 8.407e-6
-1.356, 8.441e-6
-1.357, 8.386e-6
-1.358, 8.279e-6
-1.359, 8.365e-6
-1.360, 8.520e-6
-1.361, 8.609e-6
-1.362, 8.535e-6
-1.363, 8.444e-6
-1.364, 8.519e-6
-1.365, 8.693e-6
-1.366, 8.747e-6
-1.367, 8.675e-6
-1.368, 8.571e-6
-1.369, 8.666e-6
-1.370, 8.831e-6
-1.371, 8.863e-6
-1.372, 8.815e-6
-1.373, 8.742e-6
-1.374, 8.802e-6
-1.375, 8.980e-6
-1.376, 9.099e-6
-1.377, 8.950e-6
-1.378, 8.869e-6
-1.379, 8.916e-6
-1.380, 9.125e-6
-1.381, 9.168e-6
-1.382, 9.083e-6
-1.383, 8.976e-6
-1.384, 9.055e-6
-1.385, 9.216e-6
-1.386, 9.329e-6
-1.387, 9.219e-6
-1.388, 9.132e-6
-1.389, 9.190e-6
-1.390, 9.335e-6
-1.391, 9.467e-6
-1.392, 9.324e-6
-1.393, 9.221e-6
-1.394, 9.352e-6
-1.395, 9.467e-6
-1.396, 9.538e-6
-1.397, 9.485e-6
-1.398, 9.381e-6
-1.399, 9.440e-6
-1.400, 9.562e-6
-1.401, 9.693e-6
-1.402, 9.610e-6
-1.403, 9.438e-6
-1.404, 9.539e-6
-1.405, 9.656e-6
-1.406, 9.792e-6
-1.407, 9.693e-6
-1.408, 9.571e-6
-1.409, 9.640e-6
-1.410, 9.855e-6
-1.411, 9.894e-6
-1.412, 9.771e-6
-1.413, 9.718e-6
-1.414, 9.790e-6
-1.415, 9.940e-6
-1.416, 9.998e-6
-1.417, 9.918e-6
-1.418, 9.845e-6
-1.419, 9.895e-6
-1.420, 1.007e-5
-1.421, 1.016e-5
-1.422, 1.006e-5
-1.423, 9.950e-6
-1.424, 1.007e-5
-1.425, 1.018e-5
-1.426, 1.028e-5
-1.427, 1.018e-5
-1.428, 1.010e-5
-1.429, 1.022e-5
-1.430, 1.032e-5
-1.431, 1.043e-5
-1.432, 1.037e-5
-1.433, 1.026e-5
-1.434, 1.035e-5
-1.435, 1.049e-5
-1.436, 1.059e-5
-1.437, 1.050e-5
-1.438, 1.046e-5
-1.439, 1.049e-5
-1.440, 1.067e-5
-1.441, 1.081e-5
-1.442, 1.072e-5
-1.443, 1.059e-5
-1.444, 1.073e-5
-1.445, 1.082e-5
-1.446, 1.094e-5
-1.447, 1.094e-5
-1.448, 1.081e-5
-1.449, 1.092e-5
-1.450, 1.105e-5
-1.451, 1.117e-5
-1.452, 1.115e-5
-1.453, 1.104e-5
-1.454, 1.118e-5
-1.455, 1.131e-5
-1.456, 1.146e-5
-1.457, 1.143e-5
-1.458, 1.127e-5
-1.459, 1.142e-5
-1.460, 1.156e-5
-1.461, 1.176e-5
-1.462, 1.168e-5
-1.463, 1.162e-5
-1.464, 1.176e-5
-1.465, 1.186e-5
-1.466, 1.206e-5
-1.467, 1.202e-5
-1.468, 1.192e-5
-1.469, 1.206e-5
-1.470, 1.227e-5
-1.471, 1.242e-5
-1.472, 1.238e-5
-1.473, 1.236e-5
-1.474, 1.250e-5
-1.475, 1.267e-5
-1.476, 1.280e-5
-1.477, 1.279e-5
-1.478, 1.277e-5
-1.479, 1.294e-5
-1.480, 1.311e-5
-1.481, 1.336e-5
-1.482, 1.333e-5
-1.483, 1.330e-5
-1.484, 1.349e-5
-1.485, 1.369e-5
-1.486, 1.390e-5
-1.487, 1.392e-5
-1.488, 1.390e-5
-1.489, 1.412e-5
-1.490, 1.431e-5
-1.491, 1.454e-5
-1.492, 1.459e-5
-1.493, 1.458e-5
-1.494, 1.476e-5
-1.495, 1.508e-5
-1.496, 1.529e-5
-1.497, 1.534e-5
-1.498, 1.540e-5
-1.499, 1.560e-5
-1.500, 1.587e-5
-1.501, 1.616e-5
-1.502, 1.620e-5
-1.503, 1.628e-5
-1.504, 1.654e-5
-1.505, 1.687e-5
-1.506, 1.715e-5
-1.507, 1.725e-5
-1.508, 1.735e-5
-1.509, 1.760e-5
-1.510, 1.797e-5
-1.511, 1.831e-5
-1.512, 1.843e-5
-1.513, 1.856e-5
-1.514, 1.881e-5
-1.515, 1.924e-5
-1.516, 1.959e-5
-1.517, 1.977e-5
-1.518, 1.996e-5
-1.519, 2.030e-5
-1.520, 2.078e-5
-1.521, 2.111e-5
-1.522, 2.138e-5
-1.523, 2.156e-5
-1.524, 2.188e-5
-1.525, 2.239e-5
-1.526, 2.284e-5
-1.527, 2.310e-5
-1.528, 2.333e-5
-1.529, 2.376e-5
-1.530, 2.436e-5
-1.531, 2.474e-5
-1.532, 2.512e-5
-1.533, 2.545e-5
-1.534, 2.587e-5
-1.535, 2.643e-5
-1.536, 2.697e-5
-1.537, 2.738e-5
-1.538, 2.780e-5
-1.539, 2.821e-5
-1.540, 2.886e-5
-1.541, 2.942e-5
-1.542, 2.990e-5
-1.543, 3.031e-5
-1.544, 3.082e-5
-1.545, 3.158e-5
-1.546, 3.221e-5
-1.547, 3.273e-5
-1.548, 3.318e-5
-1.549, 3.380e-5
-1.550, 3.455e-5
-1.551, 3.526e-5
-1.552, 3.584e-5
-1.553, 3.643e-5
-1.554, 3.709e-5
-1.555, 3.792e-5
-1.556, 3.867e-5
-1.557, 3.939e-5
-1.558, 3.997e-5
-1.559, 4.069e-5
-1.560, 4.162e-5
-1.561, 4.247e-5
-1.562, 4.319e-5
-1.563, 4.392e-5
-1.564, 4.470e-5
-1.565, 4.571e-5
-1.566, 4.667e-5
-1.567, 4.751e-5
-1.568, 4.826e-5
-1.569, 4.913e-5
-1.570, 5.026e-5
-1.571, 5.136e-5
-1.572, 5.222e-5
-1.573, 5.312e-5
-1.574, 5.411e-5
-1.575, 5.534e-5
-1.576, 5.657e-5
-1.577, 5.763e-5
-1.578, 5.864e-5
-1.579, 5.975e-5
-1.580, 6.109e-5
-1.581, 6.245e-5
-1.582, 6.364e-5
-1.583, 6.483e-5
-1.584, 6.611e-5
-1.585, 6.758e-5
-1.586, 6.915e-5
-1.587, 7.055e-5
-1.588, 7.189e-5
-1.589, 7.335e-5
-1.590, 7.504e-5
-1.591, 7.680e-5
-1.592, 7.836e-5
-1.593, 7.991e-5
-1.594, 8.159e-5
-1.595, 8.359e-5
-1.596, 8.555e-5
-1.597, 8.744e-5
-1.598, 8.917e-5
-1.599, 9.116e-5
-1.600, 9.332e-5
-1.601, 9.558e-5
-1.602, 9.774e-5
-1.603, 9.981e-5
-1.604, 1.020e-4
-1.605, 1.045e-4
-1.606, 1.071e-4
-1.607, 1.096e-4
-1.608, 1.121e-4
-1.609, 1.146e-4
-1.610, 1.175e-4
-1.611, 1.204e-4
-1.612, 1.233e-4
-1.613, 1.261e-4
-1.614, 1.291e-4
-1.615, 1.324e-4
-1.616, 1.358e-4
-1.617, 1.391e-4
-1.618, 1.424e-4
-1.619, 1.458e-4
-1.620, 1.495e-4
-1.621, 1.534e-4
-1.622, 1.572e-4
-1.623, 1.610e-4
-1.624, 1.649e-4
-1.625, 1.692e-4
-1.626, 1.738e-4
-1.627, 1.781e-4
-1.628, 1.824e-4
-1.629, 1.869e-4
-1.630, 1.917e-4
-1.631, 1.967e-4
-1.632, 2.017e-4
-1.633, 2.066e-4
-1.634, 2.118e-4
-1.635, 2.174e-4
-1.636, 2.231e-4
-1.637, 2.287e-4
-1.638, 2.346e-4
-1.639, 2.406e-4
-1.640, 2.469e-4
-1.641, 2.534e-4
-1.642, 2.600e-4
-1.643, 2.666e-4
-1.644, 2.734e-4
-1.645, 2.805e-4
-1.646, 2.879e-4
-1.647, 2.954e-4
-1.648, 3.029e-4
-1.649, 3.108e-4
-1.650, 3.191e-4
-1.651, 3.275e-4
-1.652, 3.364e-4
-1.653, 3.451e-4
-1.654, 3.539e-4
-1.655, 3.634e-4
-1.656, 3.731e-4
-1.657, 3.831e-4
-1.658, 3.931e-4
-1.659, 4.034e-4
-1.660, 4.143e-4
-1.661, 4.255e-4
-1.662, 4.369e-4
-1.663, 4.482e-4
-1.664, 4.598e-4
-1.665, 4.723e-4
-1.666, 4.852e-4
-1.667, 4.982e-4
-1.668, 5.114e-4
-1.669, 5.250e-4
-1.670, 5.390e-4
-1.671, 5.536e-4
-1.672, 5.685e-4
-1.673, 5.834e-4
-1.674, 5.986e-4
-1.675, 6.147e-4
-1.676, 6.313e-4
-1.677, 6.482e-4
-1.678, 6.650e-4
-1.679, 6.828e-4
-1.680, 7.008e-4
-1.681, 7.197e-4
-1.682, 7.386e-4
-1.683, 7.578e-4
-1.684, 7.779e-4
-1.685, 7.982e-4
-1.686, 8.196e-4
-1.687, 8.409e-4
-1.688, 8.630e-4
-1.689, 8.858e-4
-1.690, 9.088e-4
-1.691, 9.328e-4
-1.692, 9.567e-4
-1.693, 9.814e-4
-1.694, 1.007e-3
-1.695, 1.032e-3
-1.696, 1.059e-3
-1.697, 1.086e-3
-1.698, 1.114e-3
-1.699, 1.142e-3
-1.700, 1.152e-3
-1.699, 1.144e-3
-1.698, 1.134e-3
-1.697, 1.123e-3
-1.696, 1.112e-3
-1.695, 1.100e-3
-1.694, 1.088e-3
-1.693, 1.076e-3
-1.692, 1.063e-3
-1.691, 1.049e-3
-1.690, 1.035e-3
-1.689, 1.022e-3
-1.688, 1.008e-3
-1.687, 9.939e-4
-1.686, 9.798e-4
-1.685, 9.659e-4
-1.684, 9.519e-4
-1.683, 9.378e-4
-1.682, 9.235e-4
-1.681, 9.093e-4
-1.680, 8.955e-4
-1.679, 8.817e-4
-1.678, 8.678e-4
-1.677, 8.537e-4
-1.676, 8.401e-4
-1.675, 8.264e-4
-1.674, 8.130e-4
-1.673, 7.993e-4
-1.672, 7.860e-4
-1.671, 7.725e-4
-1.670, 7.593e-4
-1.669, 7.466e-4
-1.668, 7.338e-4
-1.667, 7.210e-4
-1.666, 7.083e-4
-1.665, 6.959e-4
-1.664, 6.839e-4
-1.663, 6.719e-4
-1.662, 6.599e-4
-1.661, 6.481e-4
-1.660, 6.364e-4
-1.659, 6.249e-4
-1.658, 6.137e-4
-1.657, 6.024e-4
-1.656, 5.912e-4
-1.655, 5.801e-4
-1.654, 5.696e-4
-1.653, 5.592e-4
-1.652, 5.488e-4
-1.651, 5.383e-4
-1.650, 5.281e-4
-1.649, 5.183e-4
-1.648, 5.087e-4
-1.647, 4.991e-4
-1.646, 4.896e-4
-1.645, 4.802e-4
-1.644, 4.712e-4
-1.643, 4.622e-4
-1.642, 4.533e-4
-1.641, 4.445e-4
-1.640, 4.359e-4
-1.639, 4.274e-4
-1.638, 4.190e-4
-1.637, 4.108e-4
-1.636, 4.027e-4
-1.635, 3.949e-4
-1.634, 3.873e-4
-1.633, 3.796e-4
-1.632, 3.721e-4
-1.631, 3.647e-4
-1.630, 3.576e-4
-1.629, 3.507e-4
-1.628, 3.437e-4
-1.627, 3.368e-4
-1.626, 3.299e-4
-1.625, 3.234e-4
-1.624, 3.172e-4
-1.623, 3.108e-4
-1.622, 3.045e-4
-1.621, 2.983e-4
-1.620, 2.923e-4
-1.619, 2.867e-4
-1.618, 2.809e-4
-1.617, 2.751e-4
-1.616, 2.694e-4
-1.615, 2.641e-4
-1.614, 2.590e-4
-1.613, 2.537e-4
-1.612, 2.484e-4
-1.611, 2.432e-4
-1.610, 2.384e-4
-1.609, 2.336e-4
-1.608, 2.288e-4
-1.607, 2.240e-4
-1.606, 2.193e-4
-1.605, 2.149e-4
-1.604, 2.107e-4
-1.603, 2.063e-4
-1.602, 2.021e-4
-1.601, 1.977e-4
-1.600, 1.937e-4
-1.599, 1.898e-4
-1.598, 1.859e-4
-1.597, 1.820e-4
-1.596, 1.781e-4
-1.595, 1.745e-4
-1.594, 1.710e-4
-1.593, 1.674e-4
-1.592, 1.639e-4
-1.591, 1.603e-4
-1.590, 1.570e-4
-1.589, 1.539e-4
-1.588, 1.507e-4
-1.587, 1.474e-4
-1.586, 1.442e-4
-1.585, 1.412e-4
-1.584, 1.384e-4
-1.583, 1.355e-4
-1.582, 1.326e-4
-1.581, 1.297e-4
-1.580, 1.271e-4
-1.579, 1.245e-4
-1.578, 1.219e-4
-1.577, 1.192e-4
-1.576, 1.166e-4
-1.575, 1.142e-4
-1.574, 1.120e-4
-1.573, 1.096e-4
-1.572, 1.072e-4
-1.571, 1.048e-4
-1.570, 1.027e-4
-1.569, 1.006e-4
-1.568, 9.846e-5
-1.567, 9.624e-5
-1.566, 9.411e-5
-1.565, 9.215e-5
-1.564, 9.035e-5
-1.563, 8.836e-5
-1.562, 8.636e-5
-1.561, 8.441e-5
-1.560, 8.271e-5
-1.559, 8.105e-5
-1.558, 7.928e-5
-1.557, 7.747e-5
-1.556, 7.571e-5
-1.555, 7.411e-5
-1.554, 7.263e-5
-1.553, 7.106e-5
-1.552, 6.939e-5
-1.551, 6.787e-5
-1.550, 6.643e-5
-1.549, 6.511e-5
-1.548, 6.366e-5
-1.547, 6.213e-5
-1.546, 6.075e-5
-1.545, 5.943e-5
-1.544, 5.831e-5
-1.543, 5.700e-5
-1.542, 5.559e-5
-1.541, 5.437e-5
-1.540, 5.323e-5
-1.539, 5.217e-5
-1.538, 5.106e-5
-1.537, 4.978e-5
-1.536, 4.860e-5
-1.535, 4.762e-5
-1.534, 4.665e-5
-1.533, 4.564e-5
-1.532, 4.447e-5
-1.531, 4.342e-5
-1.530, 4.256e-5
-1.529, 4.173e-5
-1.528, 4.079e-5
-1.527, 3.970e-5
-1.526, 3.877e-5
-1.525, 3.794e-5
-1.524, 3.723e-5
-1.523, 3.642e-5
-1.522, 3.541e-5
-1.521, 3.455e-5
-1.520, 3.386e-5
-1.519, 3.322e-5
-1.518, 3.247e-5
-1.517, 3.156e-5
-1.516, 3.081e-5
-1.515, 3.015e-5
-1.514, 2.958e-5
-1.513, 2.890e-5
-1.512, 2.812e-5
-1.511, 2.741e-5
-1.510, 2.678e-5
-1.509, 2.636e-5
-1.508, 2.574e-5
-1.507, 2.496e-5
-1.506, 2.432e-5
-1.505, 2.385e-5
-1.504, 2.346e-5
-1.503, 2.292e-5
-1.502, 2.217e-5
-1.501, 2.160e-5
-1.500, 2.115e-5
-1.499, 2.077e-5
-1.498, 2.030e-5
-1.497, 1.961e-5
-1.496, 1.911e-5
-1.495, 1.876e-5
-1.494, 1.839e-5
-1.493, 1.797e-5
-1.492, 1.738e-5
-1.491, 1.687e-5
-1.490, 1.653e-5
-1.489, 1.622e-5
-1.488, 1.587e-5
-1.487, 1.532e-5
-1.486, 1.485e-5
-1.485, 1.450e-5
-1.484, 1.433e-5
-1.483, 1.396e-5
-1.482, 1.347e-5
-1.481, 1.302e-5
-1.480, 1.279e-5
-1.479, 1.257e-5
-1.478, 1.225e-5
-1.477, 1.179e-5
-1.476, 1.138e-5
-1.475, 1.115e-5
-1.474, 1.097e-5
-1.473, 1.073e-5
-1.472, 1.030e-5
-1.471, 9.936e-6
-1.470, 9.706e-6
-1.469, 9.610e-6
-1.468, 9.356e-6
-1.467, 8.902e-6
-1.466, 8.571e-6
-1.465, 8.384e-6
-1.464, 8.313e-6
-1.463, 8.153e-6
-1.462, 7.689e-6
-1.461, 7.445e-6
-1.460, 7.256e-6
-1.459, 7.175e-6
-1.458, 7.041e-6
-1.457, 6.609e-6
-1.456, 6.338e-6
-1.455, 6.169e-6
-1.454, 6.131e-6
-1.453, 5.999e-6
-1.452, 5.595e-6
-1.451, 5.343e-6
-1.450, 5.215e-6
-1.449, 5.215e-6
-1.448, 5.127e-6
-1.447, 4.745e-6
-1.446, 4.453e-6
-1.445, 4.360e-6
-1.444, 4.373e-6
-1.443, 4.226e-6
-1.442, 3.947e-6
-1.441, 3.609e-6
-1.440, 3.627e-6
-1.439, 3.578e-6
-1.438, 3.496e-6
-1.437, 3.204e-6
-1.436, 2.920e-6
-1.435, 2.898e-6
-1.434, 2.842e-6
-1.433, 2.791e-6
-1.432, 2.467e-6
-1.431, 2.288e-6
-1.430, 2.191e-6
-1.429, 2.237e-6
-1.428, 2.212e-6
-1.427, 1.841e-6
-1.426, 1.647e-6
-1.425, 1.609e-6
-1.424, 1.679e-6
-1.423, 1.622e-6
-1.422, 1.304e-6
-1.421, 1.129e-6
-1.420, 1.071e-6
-1.419, 1.082e-6
-1.418, 1.103e-6
-1.417, 7.999e-7
-1.416, 5.779e-7
-1.415, 5.691e-7
-1.414, 6.046e-7
-1.413, 5.691e-7
-1.412, 3.116e-7
-1.411, 1.320e-7
-1.410, 6.393e-8
-1.409, 1.577e-7
-1.408, 1.064e-7
-1.407, -1.837e-7
-1.406, -3.238e-7
-1.405, -3.416e-7
-1.404, -2.903e-7
-1.403, -3.366e-7
-1.402, -5.823e-7
-1.401, -7.964e-7
-1.400, -7.836e-7
-1.399, -6.938e-7
-1.398, -7.105e-7
-1.397, -9.463e-7
-1.396, -1.166e-6
-1.395, -1.195e-6
-1.394, -1.074e-6
-1.393, -1.109e-6
-1.392, -1.347e-6
-1.391, -1.516e-6
-1.390, -1.538e-6
-1.389, -1.431e-6
-1.388, -1.448e-6
-1.387, -1.737e-6
-1.386, -1.875e-6
-1.385, -1.910e-6
-1.384, -1.791e-6
-1.383, -1.813e-6
-1.382, -2.046e-6
-1.381, -2.196e-6
-1.380, -2.211e-6
-1.379, -2.178e-6
-1.378, -2.141e-6
-1.377, -2.378e-6
-1.376, -2.560e-6
-1.375, -2.530e-6
-1.374, -2.506e-6
-1.373, -2.439e-6
-1.372, -2.683e-6
-1.371, -2.898e-6
-1.370, -2.898e-6
-1.369, -2.766e-6
-1.368, -2.796e-6
-1.367, -3.037e-6
-1.366, -3.218e-6
-1.365, -3.195e-6
-1.364, -3.077e-6
-1.363, -3.148e-6
-1.362, -3.314e-6
-1.361, -3.521e-6
-1.360, -3.493e-6
-1.359, -3.405e-6
-1.358, -3.422e-6
-1.357, -3.640e-6
-1.356, -3.831e-6
-1.355, -3.875e-6
-1.354, -3.739e-6
-1.353, -3.760e-6
-1.352, -3.934e-6
-1.351, -4.088e-6
-1.350, -4.174e-6
-1.349, -4.041e-6
-1.348, -4.072e-6
-1.347, -4.243e-6
-1.346, -4.435e-6
-1.345, -4.490e-6
-1.344, -4.318e-6
-1.343, -4.370e-6
-1.342, -4.541e-6
-1.341, -4.748e-6
-1.340, -4.726e-6
-1.339, -4.688e-6
-1.338, -4.637e-6
-1.337, -4.871e-6
-1.336, -5.016e-6
-1.335, -5.050e-6
-1.334, -4.991e-6
-1.333, -4.983e-6
-1.332, -5.176e-6
-1.331, -5.369e-6
-1.330, -5.385e-6
-1.329, -5.244e-6
-1.328, -5.281e-6
-1.327, -5.484e-6
-1.326, -5.677e-6
-1.325, -5.668e-6
-1.324, -5.547e-6
-1.323, -5.597e-6
-1.322, -5.777e-6
-1.321, -5.958e-6
-1.320, -5.979e-6
-1.319, -5.858e-6
-1.318, -5.886e-6
-1.317, -6.054e-6
-1.316, -6.261e-6
-1.315, -6.315e-6
-1.314, -6.143e-6
-1.313, -6.184e-6
-1.312, -6.350e-6
-1.311, -6.510e-6
-1.310, -6.576e-6
-1.309, -6.430e-6
-1.308, -6.445e-6
-1.307, -6.690e-6
-1.306, -6.809e-6
-1.305, -6.878e-6
-1.304, -6.704e-6
-1.303, -6.759e-6
-1.302, -6.978e-6
-1.301, -7.144e-6
-1.300, -7.134e-6
-1.299, -7.031e-6
-1.298, -7.057e-6
-1.297, -7.252e-6
-1.296, -7.420e-6
-1.295, -7.427e-6
-1.294, -7.340e-6
-1.293, -7.344e-6
-1.292, -7.501e-6
-1.291, -7.739e-6
-1.290, -7.693e-6
-1.289, -7.637e-6
-1.288, -7.611e-6
-1.287, -7.790e-6
-1.286, -8.018e-6
-1.285, -7.999e-6
-1.284, -7.862e-6
-1.283, -7.849e-6
-1.282, -8.065e-6
-1.281, -8.280e-6
-1.280, -8.297e-6
-1.279, -8.169e-6
-1.278, -8.166e-6
-1.277, -8.314e-6
-1.276, -8.535e-6
-1.275, -8.539e-6
-1.274, -8.445e-6
-1.273, -8.419e-6
-1.272, -8.589e-6
-1.271, -8.770e-6
-1.270, -8.789e-6
-1.269, -8.689e-6
-1.268, -8.693e-6
-1.267, -8.885e-6
-1.266, -9.036e-6
-1.265, -9.089e-6
-1.264, -8.949e-6
-1.263, -8.967e-6
-1.262, -9.118e-6
-1.261, -9.315e-6
-1.260, -9.299e-6
-1.259, -9.213e-6
-1.258, -9.155e-6
-1.257, -9.373e-6
-1.256, -9.538e-6
-1.255, -9.550e-6
-1.254, -9.477e-6
-1.253, -9.440e-6
-1.252, -9.566e-6
-1.251, -9.782e-6
-1.250, -9.801e-6
-1.249, -9.700e-6
-1.248, -9.634e-6
-1.247, -9.811e-6
-1.246, -1.003e-5
-1.245, -1.001e-5
-1.244, -9.885e-6
-1.243, -9.874e-6
-1.242, -1.001e-5
-1.241, -1.022e-5
-1.240, -1.019e-5
-1.239, -1.013e-5
-1.238, -1.006e-5
-1.237, -1.022e-5
-1.236, -1.040e-5
-1.235, -1.039e-5
-1.234, -1.031e-5
-1.233, -1.026e-5
-1.232, -1.037e-5
-1.231, -1.058e-5
-1.230, -1.054e-5
-1.229, -1.057e-5
-1.228, -1.045e-5
-1.227, -1.057e-5
-1.226, -1.077e-5
-1.225, -1.077e-5
-1.224, -1.069e-5
-1.223, -1.058e-5
-1.222, -1.077e-5
-1.221, -1.091e-5
-1.220, -1.094e-5
-1.219, -1.082e-5
-1.218, -1.070e-5
-1.217, -1.088e-5
-1.216, -1.104e-5
-1.215, -1.102e-5
-1.214, -1.093e-5
-1.213, -1.083e-5
-1.212, -1.098e-5
-1.211, -1.119e-5
-1.210, -1.112e-5
-1.209, -1.106e-5
-1.208, -1.094e-5
-1.207, -1.109e-5
-1.206, -1.127e-5
-1.205, -1.120e-5
-1.204, -1.113e-5
-1.203, -1.109e-5
-1.202, -1.118e-5
-1.201, -1.136e-5
-1.200, -1.128e-5
-1.199, -1.125e-5
-1.198, -1.114e-5
-1.197, -1.126e-5
-1.196, -1.140e-5
-1.195, -1.138e-5
-1.194, -1.131e-5
-1.193, -1.122e-5
-1.192, -1.137e-5
-1.191, -1.146e-5
-1.190, -1.148e-5
-1.189, -1.136e-5
-1.188, -1.125e-5
-1.187, -1.142e-5
-1.186, -1.155e-5
-1.185, -1.149e-5
-1.184, -1.143e-5
-1.183, -1.134e-5
-1.182, -1.150e-5
-1.181, -1.158e-5
-1.180, -1.160e-5
-1.179, -1.147e-5
-1.178, -1.141e-5
-1.177, -1.152e-5
-1.176, -1.169e-5
-1.175, -1.158e-5
-1.174, -1.153e-5
-1.173, -1.148e-5
-1.172, -1.157e-5
-1.171, -1.173e-5
-1.170, -1.165e-5
-1.169, -1.159e-5
-1.168, -1.146e-5
-1.167, -1.161e-5
-1.166, -1.176e-5
-1.165, -1.169e-5
-1.164, -1.164e-5
-1.163, -1.154e-5
-1.162, -1.168e-5
-1.161, -1.181e-5
-1.160, -1.173e-5
-1.159, -1.164e-5
-1.158, -1.163e-5
-1.157, -1.172e-5
-1.156, -1.187e-5
-1.155, -1.182e-5
-1.154, -1.175e-5
-1.153, -1.165e-5
-1.152, -1.178e-5
-1.151, -1.193e-5
-1.150, -1.188e-5
-1.149, -1.179e-5
-1.148, -1.173e-5
-1.147, -1.186e-5
-1.146, -1.198e-5
-1.145, -1.197e-5
-1.144, -1.187e-5
-1.143, -1.179e-5
-1.142, -1.196e-5
-1.141, -1.208e-5
-1.140, -1.206e-5
-1.139, -1.201e-5
-1.138, -1.192e-5
-1.137, -1.206e-5
-1.136, -1.219e-5
-1.135, -1.215e-5
-1.134, -1.209e-5
-1.133, -1.200e-5
-1.132, -1.215e-5
-1.131, -1.234e-5
-1.130, -1.227e-5
-1.129, -1.220e-5
-1.128, -1.214e-5
-1.127, -1.225e-5
-1.126, -1.246e-5
-1.125, -1.238e-5
-1.124, -1.234e-5
-1.123, -1.227e-5
-1.122, -1.240e-5
-1.121, -1.260e-5
-1.120, -1.256e-5
-1.119, -1.248e-5
-1.118, -1.242e-5
-1.117, -1.258e-5
-1.116, -1.274e-5
-1.115, -1.276e-5
-1.114, -1.265e-5
-1.113, -1.258e-5
-1.112, -1.275e-5
-1.111, -1.294e-5
-1.110, -1.293e-5
-1.109, -1.285e-5
-1.108, -1.276e-5
-1.107, -1.294e-5
-1.106, -1.316e-5
-1.105, -1.311e-5
-1.104, -1.304e-5
-1.103, -1.297e-5
-1.102, -1.317e-5
-1.101, -1.334e-5
-1.100, -1.332e-5
-1.099, -1.327e-5
-1.098, -1.323e-5
-1.097, -1.338e-5
-1.096, -1.358e-5
-1.095, -1.354e-5
-1.094, -1.350e-5
-1.093, -1.344e-5
-1.092, -1.361e-5
-1.091, -1.381e-5
-1.090, -1.382e-5
-1.089, -1.375e-5
-1.088, -1.370e-5
-1.087, -1.386e-5
-1.086, -1.408e-5
-1.085, -1.408e-5
-1.084, -1.400e-5
-1.083, -1.398e-5
-1.082, -1.409e-5
-1.081, -1.433e-5
-1.080, -1.432e-5
-1.079, -1.427e-5
-1.078, -1.424e-5
-1.077, -1.435e-5
-1.076, -1.461e-5
-1.075, -1.464e-5
-1.074, -1.456e-5
-1.073, -1.453e-5
-1.072, -1.469e-5
-1.071, -1.487e-5
-1.070, -1.493e-5
-1.069, -1.484e-5
-1.068, -1.479e-5
-1.067, -1.493e-5
-1.066, -1.518e-5
-1.065, -1.523e-5
-1.064, -1.509e-5
-1.063, -1.507e-5
-1.062, -1.523e-5
-1.061, -1.544e-5
-1.060, -1.546e-5
-1.059, -1.545e-5
-1.058, -1.536e-5
-1.057, -1.554e-5
-1.056, -1.575e-5
-1.055, -1.576e-5
-1.054, -1.573e-5
-1.053, -1.564e-5
-1.052, -1.583e-5
-1.051, -1.602e-5
-1.050, -1.608e-5
-1.049, -1.600e-5
-1.048, -1.594e-5
-1.047, -1.607e-5
-1.046, -1.634e-5
-1.045, -1.636e-5
-1.044, -1.631e-5
-1.043, -1.624e-5
-1.042, -1.638e-5
-1.041, -1.663e-5
-1.040, -1.666e-5
-1.039, -1.657e-5
-1.038, -1.654e-5
-1.037, -1.668e-5
-1.036, -1.693e-5
-1.035, -1.699e-5
-1.034, -1.690e-5
-1.033, -1.686e-5
-1.032, -1.699e-5
-1.031, -1.722e-5
-1.030, -1.732e-5
-1.029, -1.716e-5
-1.028, -1.713e-5
-1.027, -1.727e-5
-1.026, -1.753e-5
-1.025, -1.759e-5
-1.024, -1.750e-5
-1.023, -1.745e-5
-1.022, -1.762e-5
-1.021, -1.785e-5
-1.020, -1.788e-5
-1.019, -1.780e-5
-1.018, -1.776e-5
-1.017, -1.792e-5
-1.016, -1.816e-5
-1.015, -1.819e-5
-1.014, -1.814e-5
-1.013, -1.803e-5
-1.012, -1.822e-5
-1.011, -1.848e-5
-1.010, -1.850e-5
-1.009, -1.844e-5
-1.008, -1.836e-5
-1.007, -1.852e-5
-1.006, -1.876e-5
-1.005, -1.881e-5
-1.004, -1.868e-5
-1.003, -1.865e-5
-1.002, -1.881e-5
-1.001, -1.900e-5
