Potential V vs RHE, Current mA cm-2
0.013299999999999867,-10.208556739826104
0.012299999999999978,-11.415305478610982
0.011299999999999866,-12.266961681129732
0.010299999999999976,-13.173791624343222
0.009299999999999864,-13.865585449977225
0.008299999999999974,-14.62811484060448
0.007299999999999862,-15.250587812545096
0.006299999999999972,-15.78817810649381
0.00529999999999986,-16.354062626439823
0.0042999999999999705,-16.52382798242363
0.0032999999999998586,-16.93409425938449
0.0022999999999999687,-17.45753744033455
0.0012999999999998568,-17.797068152302163
0.00029999999999996696,-18.292217107254928
-0.000700000000000145,-18.617600706223882
-0.0017000000000000348,-18.858101627200938
-0.0027000000000001467,-19.01371987018609
-0.0037000000000000366,-19.28251501716045
-0.0047000000000001485,-19.862546650105116
-0.005700000000000038,-20.400136944053827
-0.00670000000000015,-20.78210899501739
-0.00770000000000004,-21.107492593986347
-0.008700000000000152,-21.22066949797555
-0.009700000000000042,-21.065051254990397
-0.010700000000000154,-20.838697447011988
-0.011700000000000044,-21.19237527197825
-0.012700000000000156,-21.43287619295531
-0.013700000000000045,-21.602641548939108
-0.014700000000000157,-21.871436695913467
-0.015700000000000047,-21.91387803490942
-0.01670000000000016,-22.225114520879725
-0.01770000000000005,-22.550498119848687
-0.01870000000000016,-22.91832305781359
-0.01970000000000005,-23.286147995778503
-0.020700000000000163,-23.24370665678255
-0.021700000000000053,-23.102235526796047
-0.022700000000000164,-22.84758749282034
-0.023700000000000054,-23.059794187800097
-0.024700000000000166,-23.371030673770406
-0.025700000000000056,-23.54079602975421
-0.026700000000000168,-23.852032515724517
-0.027700000000000058,-24.078386323702922
-0.02870000000000017,-24.17741611469348
-0.02970000000000006,-24.20571034069078
-0.03070000000000017,-24.191563227692125
-0.03170000000000006,-24.33303435767863
-0.03270000000000017,-24.417917035670534
-0.03370000000000006,-24.559388165657033
-0.034700000000000175,-24.74330063463949
-0.035700000000000065,-24.898918877624645
-0.03670000000000018,-25.167714024599
-0.03770000000000007,-25.351626493581456
-0.03870000000000018,-25.49309762356796
-0.03970000000000007,-25.634568753554465
-0.04070000000000018,-25.535538962563912
-0.04170000000000007,-25.662862979551768
-0.04270000000000018,-25.832628335535567
-0.04370000000000007,-25.94580523952477
-0.044700000000000184,-26.20045327350048
-0.045700000000000074,-26.22874749949778
-0.046700000000000186,-26.426807081478888
-0.047700000000000076,-26.426807081478888
-0.04870000000000019,-26.455101307476184
-0.04970000000000008,-26.65316088945729
-0.05070000000000019,-26.752190680447846
-0.05170000000000008,-26.95025026242895
-0.05270000000000019,-27.049280053419505
-0.05370000000000008,-27.091721392415455
-0.05470000000000019,-27.14830984441005
-0.05570000000000008,-27.06342716641815
-0.056700000000000195,-27.247339635400607
-0.057700000000000085,-27.40295787838576
-0.058700000000000196,-27.601017460366865
-0.059700000000000086,-27.898106833338524
-0.0607000000000002,-28.05372507632368
-0.06170000000000009,-28.265931771303435
-0.0627000000000002,-28.393255788291288
-0.06370000000000009,-28.265931771303435
-0.0647000000000002,-28.379108675292635
-0.06570000000000009,-28.308373110299385
-0.0667000000000002,-28.407402901289935
-0.0677000000000001,-28.52057980527914
-0.0687000000000002,-28.577168257273744
-0.0697000000000001,-28.80352206525215
-0.07070000000000021,-28.88840474324405
-0.0717000000000001,-29.14305277721976
-0.07270000000000021,-29.086464325225155
-0.0737000000000001,-28.944993195238652
-0.07470000000000021,-29.213788342213007
-0.0757000000000001,-29.482583489187363
-0.07670000000000021,-29.949438218142824
-0.0777000000000001,-30.246527591114486
-0.07870000000000021,-29.949438218142824
-0.0797000000000001,-30.10505646112798
-0.08070000000000022,-29.850408427152274
-0.0817000000000001,-29.62405461917387
-0.08270000000000022,-29.80796708815632
-0.08370000000000011,-29.977732444140123
-0.08470000000000022,-30.37385160810234
-0.08570000000000011,-30.55776407708479
-0.08670000000000022,-30.699235207071297
-0.08770000000000011,-30.699235207071297
-0.08870000000000022,-30.79826499806185
-0.08970000000000011,-31.010471693041605
-0.09070000000000022,-31.038765919038905
-0.09170000000000011,-31.095354371033505
-0.09270000000000023,-31.20853127502271
-0.09370000000000012,-31.20853127502271
-0.09470000000000023,-31.36414951800786
-0.09570000000000012,-31.505620647994366
-0.09670000000000023,-31.77441579496872
-0.09770000000000012,-31.873445585959274
-0.09870000000000023,-31.915886924955227
-0.09970000000000012,-32.07150516794038
-0.10070000000000023,-32.04321094194308
-0.10170000000000012,-32.24127052392419
-0.10270000000000024,-32.32615320191609
-0.10370000000000013,-32.32615320191609
-0.10470000000000024,-32.439330105905285
-0.10570000000000013,-32.4676243319026
-0.10670000000000024,-32.66568391388369
-0.10770000000000013,-32.764713704874254
-0.10870000000000024,-32.90618483486075
-0.10970000000000013,-33.231568433829715
-0.11070000000000024,-33.358892450817564
-0.11170000000000013,-33.54280491980002
-0.11270000000000002,-33.52865780680137
-0.11370000000000013,-33.54280491980002
-0.11470000000000002,-33.61354048479327
-0.11570000000000014,-33.627687597791926
-0.11670000000000003,-33.88233563176763
-0.11770000000000014,-34.05210098775143
-0.11870000000000003,-34.193572117737936
-0.11970000000000014,-34.39163169971904
-0.12070000000000003,-34.44822015171364
-0.12170000000000014,-34.64627973369475
-0.12270000000000003,-34.773603750682604
-0.12370000000000014,-34.94336910666641
-0.12470000000000003,-35.21216425364076
-0.12570000000000014,-35.254605592636715
-0.12670000000000003,-35.311194044631314
-0.12770000000000015,-35.353635383627264
-0.12870000000000004,-35.48095940061512
-0.12970000000000015,-35.636577643600276
-0.13070000000000004,-35.74975454758948
-0.13170000000000015,-35.90537279057463
-0.13270000000000004,-36.01854969456383
-0.13370000000000015,-36.17416793754898
-0.13470000000000004,-36.4288159715247
-0.13570000000000015,-36.69761111849905
-0.13670000000000004,-37.037141830466666
-0.13770000000000016,-37.107877395459916
-0.13870000000000005,-37.136171621457216
-0.13970000000000016,-37.27764275144372
-0.14070000000000005,-37.291789864442364
-0.14170000000000016,-37.47570233342482
-0.14270000000000005,-37.60302635041268
-0.14370000000000016,-37.73035036740053
-0.14470000000000005,-37.92840994938163
-0.14570000000000016,-37.90011572338433
-0.14670000000000005,-38.12646953136274
-0.14770000000000016,-38.32452911334384
-0.14870000000000005,-38.5084415823263
-0.14970000000000017,-38.805530955297954
-0.15070000000000006,-38.96114919828311
-0.15170000000000017,-39.21579723225882
-0.15270000000000006,-39.272385684253415
-0.15370000000000017,-39.244091458256115
-0.15470000000000006,-39.229944345257465
-0.15570000000000017,-39.72509330021023
-0.15670000000000006,-40.12121246417244
-0.15770000000000017,-40.33341915915219
-0.15870000000000006,-40.3900076111468
-0.15970000000000018,-40.559772967130606
-0.16070000000000007,-40.51733162813464
-0.16170000000000018,-40.715391210115754
-0.16270000000000007,-40.78612677510901
-0.16370000000000018,-40.87100945310091
-0.16470000000000007,-41.210540165068515
-0.16570000000000018,-41.32371706905772
-0.16670000000000007,-41.620806442029384
-0.16770000000000018,-41.98863137999429
-0.16870000000000007,-42.243279413969994
-0.16970000000000018,-42.34230920496055
-0.17070000000000007,-42.3847505439565
-0.17170000000000019,-42.72428125592411
-0.17270000000000008,-42.82331104691466
-0.1737000000000002,-42.92234083790521
-0.17470000000000008,-43.30431288886877
-0.1757000000000002,-43.41748979285798
-0.17670000000000008,-43.643843600836384
-0.1777000000000002,-43.84190318281749
-0.17870000000000008,-44.03996276479859
-0.1797000000000002,-44.2946107987743
-0.18070000000000008,-44.39364058976485
-0.1817000000000002,-44.775612640728404
-0.18270000000000008,-45.11514335269602
-0.1837000000000002,-45.20002603068792
-0.1847000000000001,-45.497115403659585
-0.1857000000000002,-45.83664611562718
-0.1867000000000001,-45.79420477663124
-0.1877000000000002,-45.963970132615046
-0.1887000000000001,-46.36008929657725
-0.1897000000000002,-46.69962000854486
-0.1907000000000001,-46.628884443551605
-0.1917000000000001,-46.85523825153001
-0.19269999999999998,-47.16647473750032
-0.1937000000000001,-47.36453431948143
-0.19469999999999998,-47.67577080545174
-0.1957000000000001,-47.8879775004315
-0.19669999999999999,-48.12847842140855
-0.1977000000000001,-48.26994955139505
-0.1987,-48.43971490737886
-0.1997000000000001,-48.76509850634781
-0.2007,-48.89242252333566
-0.2017000000000001,-49.14707055731138
-0.2027,-49.35927725229113
-0.2037000000000001,-49.58563106026953
-0.2047,-50.0807800152223
-0.2057000000000001,-50.68910587416426
-0.2067,-51.28328462010758
-0.2077000000000001,-51.46719708909004
-0.2087,-51.33987307210218
-0.2097000000000001,-51.325725959103536
-0.2107,-51.934051818045496
-0.2117000000000001,-52.59896612898206
-0.2127,-52.59896612898206
-0.2137000000000001,-52.33017098200771
-0.2147,-52.45749499899556
-0.2157000000000001,-52.58481901598341
-0.2167,-53.10826219693348
-0.21770000000000012,-53.63170537788354
-0.2187,-53.9570889768525
-0.21970000000000012,-54.38150236681201
-0.2207,-54.551267722795814
-0.22170000000000012,-54.919092660760725
-0.2227,-55.32935893772159
-0.22370000000000012,-55.6688896496892
-0.2247,-55.8103607796757
-0.22570000000000012,-55.711330988685134
-0.2267,-56.022567474655446
-0.22770000000000012,-56.26306839563251
-0.22870000000000001,-56.63089333359741
-0.22970000000000013,-57.111895175551524
-0.23070000000000002,-57.423131661521836
-0.23170000000000013,-57.73436814749215
-0.23270000000000002,-57.9465748424719
-0.23370000000000013,-58.04560463346245
-0.23470000000000002,-58.24366421544356
-0.23570000000000013,-58.44172379742467
-0.23670000000000002,-58.85199007438552
-0.2376999999999999,-59.19152078635314
-0.23870000000000002,-59.53105149832074
-0.2396999999999999,-60.04034756627216
-0.24070000000000003,-60.26670137425056
-0.24169999999999991,-60.521349408226264
-0.24270000000000003,-60.80429166819927
-0.24369999999999992,-61.07308681517363
-0.24470000000000003,-61.398470414142594
-0.24569999999999992,-61.525794431130436
-0.24670000000000003,-61.87947225609671
-0.24769999999999992,-62.19070874206701
-0.24870000000000003,-62.501945228037314
-0.24969999999999992,-62.92635861799682
-0.25070000000000003,-63.181006651972545
-0.2516999999999999,-63.61956715493069
-0.25270000000000004,-64.02983343189156
-0.2536999999999999,-64.18545167487672
-0.25470000000000004,-64.82207175981598
-0.2556999999999999,-65.04842556779438
-0.25670000000000004,-65.23233803677684
-0.25769999999999993,-65.31722071476874
-0.25870000000000004,-65.37380916676335
-0.25969999999999993,-65.51528029674984
-0.26070000000000004,-65.670898539735
-0.26169999999999993,-66.03872347769992
-0.26270000000000004,-66.47728398065809
-0.26369999999999993,-67.128051178596
-0.26470000000000005,-68.04761352350828
-0.26569999999999994,-68.38714423547587
-0.26670000000000005,-68.61349804345427
-0.26769999999999994,-68.68423360844753
-0.26870000000000005,-68.82570473843404
-0.26969999999999994,-69.151088337403
-0.27070000000000005,-69.36329503238275
-0.27169999999999994,-69.74526708334632
-0.27270000000000005,-70.09894490831257
-0.27369999999999994,-70.43847562028017
-0.27470000000000006,-71.15997838321134
-0.27569999999999995,-71.57024466017221
-0.27670000000000006,-72.03709938912766
-0.27769999999999995,-72.26345319710607
-0.27870000000000006,-72.30589453610202
-0.27969999999999995,-72.58883679607503
-0.28070000000000006,-72.87177905604804
-0.28169999999999995,-73.43766357599405
-0.28270000000000006,-73.83378273995626
-0.28369999999999995,-74.18746056492253
-0.28470000000000006,-74.7109037458726
-0.28569999999999995,-74.9938460058456
-0.28670000000000007,-75.36167094381051
-0.28769999999999996,-75.7294958817754
-0.28870000000000007,-76.06902659374302
-0.28969999999999996,-76.56417554869579
-0.29070000000000007,-76.91785337366204
-0.29169999999999996,-77.37056098961885
-0.29270000000000007,-77.83741571857432
-0.29369999999999996,-78.29012333453113
-0.2947000000000001,-78.84186074147848
-0.29569999999999996,-79.02577321046095
-0.2967000000000001,-79.40774526142451
-0.29769999999999996,-79.76142308639076
-0.2987000000000001,-79.95948266837188
-0.29969999999999997,-80.52536718831789
-0.3007000000000001,-80.79416233529224
-0.30169999999999997,-81.54395932422072
-0.3027000000000001,-82.53425723412623
-0.30369999999999997,-83.08599464107361
-0.3047000000000001,-83.48211380503581
-0.30569999999999997,-83.59529070902502
-0.3067000000000001,-83.63773204802096
-0.3077,-83.83579163000208
-0.3087000000000001,-84.04799832498183
-0.3097,-84.769501087913
-0.3107000000000001,-85.57588652883607
-0.3117,-86.45300753475239
-0.3127000000000001,-87.14621607168625
-0.3137,-87.47159967065522
-0.3147000000000001,-87.83942460862012
-0.3157,-87.98089573860662
-0.3167000000000001,-88.3345735635729
-0.3177,-88.6741042755405
-0.3187000000000001,-89.07022343950271
-0.3197,-89.79172620243388
-0.3207000000000001,-90.4424934003718
-0.3217,-91.22058461529755
-0.3227000000000001,-91.87135181323548
-0.3237,-92.28161809019635
-0.3247000000000001,-92.84750261014237
-0.3257,-93.25776888710321
-0.3267000000000001,-93.80950629405058
-0.3277,-94.36124370099793
-0.3287000000000001,-94.95542244694126
-0.3297,-95.74766077486568
-0.3307000000000001,-96.22866261681979
-0.3317,-96.72381157177257
-0.3327000000000001,-97.10578362273613
-0.3337,-97.44531433470372
-0.3347000000000001,-98.12437575863895
-0.3357,-98.647818939589
-0.3367000000000001,-99.24199768553233
-0.3377,-99.90691199646888
-0.3387000000000001,-100.58597342040412
-0.3397,-101.32162329633393
-0.3407000000000001,-101.8167722512867
-0.3417,-102.5241279012192
-0.3427000000000001,-103.17489509915713
-0.3437,-103.65589694111124
-0.3447000000000001,-104.25007568705455
-0.3457,-104.71693041601002
-0.3467000000000001,-105.4384331789412
-0.3477,-106.10334748987775
-0.3487000000000001,-106.73996757481702
-0.3497,-107.54635301574008
-0.3507000000000001,-108.21126732667666
-0.3517,-108.87618163761321
-0.3527000000000001,-109.654272852539
-0.3537,-110.38992272846882
-0.3547000000000001,-111.15386683039593
-0.3557,-111.7904869153352
-0.35670000000000013,-112.83737327723534
-0.3577,-113.67205294415571
-0.35870000000000013,-114.43599704608283
-0.3597,-115.440442068987
-0.36070000000000013,-116.20438617091412
-0.3617,-117.32200809780748
-0.3626999999999999,-118.15668776472786
-0.3637,-118.43963002470086
-0.3646999999999999,-118.92063186665499
-0.3657,-119.38748659561045
-0.3666999999999999,-120.26460760152676
-0.3677,-121.18416994643904
-0.3686999999999999,-122.03299672635806
-0.36970000000000003,-123.17891287924873
-0.3706999999999999,-124.19750501515158
-0.37170000000000003,-125.17365581205844
-0.3726999999999999,-125.99418836598016
-0.37370000000000003,-126.6732497899154
-0.3746999999999999,-127.29572276185603
-0.37570000000000003,-127.57866502182902
-0.3766999999999999,-128.27187355876288
-0.37770000000000004,-128.9226407567008
-0.3786999999999999,-129.79976176261712
-0.37970000000000004,-131.0022663675024
-0.3806999999999999,-132.0067113904066
-0.38170000000000004,-133.18092176929454
-0.38269999999999993,-134.24195524419332
-0.38370000000000004,-135.06248779811506
-0.38469999999999993,-136.15181549901115
-0.38570000000000004,-137.0147893919288
-0.38669999999999993,-136.23669817700303
-0.38570000000000004,-134.2702494701906
-0.38469999999999993,-132.44527189336475
-0.38370000000000004,-130.5495587515456
-0.38269999999999993,-128.93678786969946
-0.38170000000000004,-127.74843037781281
-0.3806999999999999,-126.40445464294103
-0.37970000000000004,-125.03218468207194
-0.3786999999999999,-123.9852983201718
-0.37770000000000004,-122.30179187333242
-0.3766999999999999,-120.97196325145929
-0.37570000000000003,-119.7977528725713
-0.3746999999999999,-118.3688944597076
-0.37370000000000003,-117.10980140282774
-0.3726999999999999,-115.63850165096811
-0.37170000000000003,-114.3511143680909
-0.3706999999999999,-113.27593378019348
-0.36970000000000003,-111.7056042373433
-0.3686999999999999,-110.53139385845533
-0.3677,-109.30059502757274
-0.3666999999999999,-107.95661929270095
-0.3657,-106.64093778382647
-0.3646999999999999,-105.65063987392094
-0.3637,-104.67448907701407
-0.3626999999999999,-103.24563066415038
-0.3617,-102.24118564124619
-0.36070000000000013,-101.34991752233122
-0.3597,-99.86447065747295
-0.35870000000000013,-98.7044073915836
-0.3577,-97.6575210296835
-0.35670000000000013,-96.5116048767928
-0.3557,-95.11104068992641
-0.3547000000000001,-94.07830144102493
-0.3537,-93.28606311310051
-0.3527000000000001,-91.89964603923279
-0.3517,-91.09326059830971
-0.3507000000000001,-90.15955114039879
-0.3497,-88.57507448454994
-0.3487000000000001,-87.51404100965117
-0.3477,-86.35397774376185
-0.3467000000000001,-85.17976736487385
-0.3457,-83.86408585599938
-0.3447000000000001,-82.52011012112759
-0.3437,-81.51566509822342
-0.3427000000000001,-80.32730760633679
-0.3417,-79.30871547043395
-0.3407000000000001,-78.44574157751629
-0.3397,-77.59691479759726
-0.3387000000000001,-76.83297069567014
-0.3377,-75.88511412476056
-0.3367000000000001,-75.03628734484154
-0.3357,-74.15916633892522
-0.3347000000000001,-73.06983863802915
-0.3337,-72.05124650212633
-0.3327000000000001,-70.87703612323833
-0.3317,-69.8301497613382
-0.3307000000000001,-68.83985185143268
-0.3297,-67.8071126025312
-0.3287000000000001,-66.98658004860948
-0.3277,-65.93969368670936
-0.3267000000000001,-65.02013134179708
-0.3257,-64.0722747708875
-0.3247000000000001,-62.95465284399414
-0.3237,-61.95020782108996
-0.3227000000000001,-60.93161568518713
-0.3217,-60.43646673023436
-0.3207000000000001,-59.983759114277554
-0.3197,-59.31884480334099
-0.3187000000000001,-58.880284300382826
-0.3177,-58.17292865045031
-0.3167000000000001,-57.027012497559625
-0.3157,-55.6688896496892
-0.3147000000000001,-54.508826383799864
-0.3137,-53.617558264884885
-0.3127000000000001,-52.66970169397532
-0.3117,-51.934051818045496
-0.3107000000000001,-51.071077925127824
-0.3097,-50.1656626932142
-0.3087000000000001,-49.52904260827494
-0.3077,-48.83583407134107
-0.3067000000000001,-48.18506687340315
-0.30569999999999997,-47.39282854547873
-0.3047000000000001,-46.544001765559706
-0.30369999999999997,-45.99226435861234
-0.3027000000000001,-45.11514335269602
-0.30169999999999997,-44.25216945977835
-0.3007000000000001,-43.30431288886877
-0.29969999999999997,-42.29986786596459
-0.2987000000000001,-41.70568912002128
-0.29769999999999996,-40.85686234010226
-0.2967000000000001,-40.07877112517649
-0.29569999999999996,-39.314827023249364
-0.2947000000000001,-38.5367358083236
-0.29369999999999996,-37.87182149738703
-0.29270000000000007,-37.107877395459916
-0.29169999999999996,-36.45711019752199
-0.29070000000000007,-35.763901660588125
-0.28969999999999996,-34.92922199366775
-0.28870000000000007,-34.292601908728486
-0.28769999999999996,-33.51451069380272
-0.28670000000000007,-32.8637434958648
-0.28569999999999995,-32.255417636922836
-0.28470000000000006,-31.632944664982226
-0.28369999999999995,-31.052913032037555
-0.28270000000000006,-30.17579202612123
-0.28169999999999995,-29.609907506175215
-0.28070000000000006,-28.88840474324405
-0.27969999999999995,-28.15275486731423
-0.27870000000000006,-27.558576121370916
-0.27769999999999995,-26.936103149430302
-0.27670000000000006,-26.370218629484285
-0.27569999999999995,-25.90336390052882
-0.27470000000000006,-25.351626493581456
-0.27369999999999994,-24.941360216620595
-0.27270000000000005,-24.262298792685378
-0.27169999999999994,-23.62567870774611
-0.27070000000000005,-22.80514615382439
-0.26969999999999994,-21.92802514790807
-0.26870000000000005,-21.390434853959356
-0.26769999999999994,-20.824550334013338
-0.26670000000000005,-20.400136944053827
-0.26569999999999994,-20.03231200608892
