Potential V vs RHE, Current mA cm-2
0.013299999999999867,1.655212220842093
0.012299999999999978,0.17231183632356148
0.011299999999999866,-1.1362961160515976
0.010299999999999976,-2.2706116362833835
0.009299999999999864,-3.447651437771094
0.008299999999999974,-4.494537799671222
0.007299999999999862,-5.585280211867165
0.006299999999999972,-6.54445447317566
0.00529999999999986,-7.50504344578402
0.0042999999999999705,-8.4203616567967
0.0032999999999998586,-9.293238528813426
0.0022999999999999687,-10.120844639234473
0.0012999999999998568,-10.906009410659568
0.00029999999999996696,-11.604876792792895
-0.000700000000000145,-12.302329463626359
-0.0017000000000000348,-12.913484745168056
-0.0027000000000001467,-13.523225315409885
-0.0037000000000000366,-14.090524546655764
-0.0047000000000001485,-14.57152638860988
-0.005700000000000038,-15.137410908555893
-0.00670000000000015,-15.618412750510005
-0.00770000000000004,-16.141855931460068
-0.008700000000000152,-16.70774045140608
-0.009700000000000042,-17.188742293360193
-0.010700000000000154,-17.71218547431026
-0.011700000000000044,-18.23562865526032
-0.012700000000000156,-18.716630497214435
-0.013700000000000045,-19.197632339168546
-0.014700000000000157,-19.678634181122664
-0.015700000000000047,-20.10304757108217
-0.01670000000000016,-20.456725396048434
-0.01770000000000005,-20.85284456001064
-0.01870000000000016,-21.2065223849769
-0.01970000000000005,-21.54605309694451
-0.020700000000000163,-21.94217226090672
-0.021700000000000053,-22.295850085872978
-0.022700000000000164,-22.67782213683654
-0.023700000000000054,-23.073941300798747
-0.024700000000000166,-23.47006046476096
-0.025700000000000056,-23.86617962872317
-0.026700000000000168,-24.290593018682678
-0.027700000000000058,-24.686712182644893
-0.02870000000000017,-25.0828313466071
-0.02970000000000006,-25.43650917157336
-0.03070000000000017,-25.77603988354097
-0.03170000000000006,-26.087276369511276
-0.03270000000000017,-26.440954194477534
-0.03370000000000006,-26.738043567449193
-0.034700000000000175,-27.049280053419505
-0.035700000000000065,-27.34636942639116
-0.03670000000000018,-27.700047251357418
-0.03770000000000007,-28.05372507632368
-0.03870000000000018,-28.393255788291288
-0.03970000000000007,-28.789374952253496
-0.04070000000000018,-29.18549411621571
-0.04170000000000007,-29.581613280177915
-0.04270000000000018,-29.96358533114148
-0.04370000000000007,-30.359704495103685
-0.044700000000000184,-30.71338232006995
-0.045700000000000074,-31.052913032037555
-0.046700000000000186,-31.40659085700382
-0.047700000000000076,-31.76026868197007
-0.04870000000000019,-32.05735805494172
-0.04970000000000008,-32.368594540912035
-0.05070000000000019,-32.70812525287965
-0.05170000000000008,-33.06180307784591
-0.05270000000000019,-33.41548090281216
-0.05370000000000008,-33.81160006677438
-0.05470000000000019,-34.193572117737936
-0.05570000000000008,-34.58969128170015
-0.056700000000000195,-34.98581044566235
-0.057700000000000085,-35.42437094862052
-0.058700000000000196,-35.763901660588125
-0.059700000000000086,-36.16002082455034
-0.0607000000000002,-36.55613998851254
-0.06170000000000009,-36.89567070048016
-0.0627000000000002,-37.249348525446415
-0.06370000000000009,-37.60302635041268
-0.0647000000000002,-37.90011572338433
-0.06570000000000009,-38.253793548350586
-0.0667000000000002,-38.6499127123128
-0.0677000000000001,-39.046031876275016
-0.0687000000000002,-39.42800392723857
-0.0697000000000001,-39.82412309120078
-0.07070000000000021,-40.30512493315489
-0.0717000000000001,-40.78612677510901
-0.07270000000000021,-41.22468727806717
-0.0737000000000001,-41.70568912002128
-0.07470000000000021,-42.130102509980794
-0.0757000000000001,-42.568663012938956
-0.07670000000000021,-42.96478217690117
-0.0777000000000001,-43.36090134086337
-0.07870000000000021,-43.79946184382153
-0.0797000000000001,-44.138992555789144
-0.08070000000000022,-44.535111719751356
-0.0817000000000001,-44.93123088371356
-0.08270000000000022,-45.36979138667173
-0.08370000000000011,-45.79420477663124
-0.08470000000000022,-46.2327652795894
-0.08570000000000011,-46.67132578254756
-0.08670000000000022,-47.15232762450167
-0.08770000000000011,-47.54844678846388
-0.08870000000000022,-47.987007291422046
-0.08970000000000011,-48.36897934238561
-0.09070000000000022,-48.80753984534376
-0.09170000000000011,-49.16121767031002
-0.09270000000000023,-49.557336834272235
-0.09370000000000012,-49.89686754623985
-0.09470000000000023,-50.29298671020206
-0.09570000000000012,-50.68910587416426
-0.09670000000000023,-51.071077925127824
-0.09770000000000012,-51.55207976708194
-0.09870000000000023,-51.990640270040096
-0.09970000000000012,-52.42920077299826
-0.10070000000000023,-52.91020261495237
-0.10170000000000012,-53.39120445690648
-0.10270000000000024,-53.872206298860604
-0.10370000000000013,-54.31076680181876
-0.10470000000000024,-54.73518019177827
-0.10570000000000013,-55.17374069473642
-0.10670000000000024,-55.56985985869864
-0.10770000000000013,-55.96597902266086
-0.10870000000000024,-56.36209818662306
-0.10970000000000013,-56.74407023758662
-0.11070000000000024,-57.14018940154883
-0.11170000000000013,-57.57874990450699
-0.11270000000000002,-58.017310407465146
-0.11370000000000013,-58.498312249419264
-0.11470000000000002,-58.92272563937878
-0.11570000000000014,-59.403727481332886
-0.11670000000000003,-59.92717066228296
-0.11770000000000014,-60.36573116524111
-0.11870000000000003,-60.84673300719523
-0.11970000000000014,-61.28529351015339
-0.12070000000000003,-61.72385401311155
-0.12170000000000014,-62.06338472507916
-0.12270000000000003,-62.459503889041365
-0.12370000000000014,-62.855623053003576
-0.12470000000000003,-63.20930087796983
-0.12570000000000014,-63.59127292893339
-0.12670000000000003,-63.98739209289561
-0.12770000000000015,-64.42595259585376
-0.12870000000000004,-64.86451309881193
-0.12970000000000015,-65.34551494076604
-0.13070000000000004,-65.76992833072556
-0.13170000000000015,-66.29337151167562
-0.13270000000000004,-66.77437335362974
-0.13370000000000015,-67.25537519558385
-0.13470000000000004,-67.73637703753796
-0.13570000000000015,-68.17493754049613
-0.13670000000000004,-68.57105670445833
-0.13770000000000016,-69.0096172074165
-0.13870000000000005,-69.39158925838004
-0.13970000000000016,-69.78770842234226
-0.14070000000000005,-70.22626892530042
-0.14170000000000016,-70.62238808926263
-0.14270000000000005,-71.10338993121674
-0.14370000000000016,-71.52780332117625
-0.14470000000000005,-71.96636382413442
-0.14570000000000016,-72.44736566608852
-0.14670000000000005,-72.97080884703858
-0.14770000000000016,-73.3669280110008
-0.14870000000000005,-73.8479298529549
-0.14970000000000017,-74.24404901691713
-0.15070000000000006,-74.66846240687663
-0.15170000000000017,-75.06458157083884
-0.15270000000000006,-75.46070073480107
-0.15370000000000017,-75.85681989876326
-0.15470000000000006,-76.19635061073087
-0.15570000000000017,-76.63491111368903
-0.15670000000000006,-77.03103027765125
-0.15770000000000017,-77.46959078060941
-0.15870000000000006,-77.95059262256353
-0.15970000000000018,-78.38915312552167
-0.16070000000000007,-78.91259630647174
-0.16170000000000018,-79.42189237442317
-0.16270000000000007,-79.90289421637728
-0.16370000000000018,-80.38389605833139
-0.16470000000000007,-80.86489790028548
-0.16570000000000018,-81.30345840324367
-0.16670000000000007,-81.74201890620182
-0.16770000000000018,-82.13813807016405
-0.16870000000000007,-82.52011012112759
-0.16970000000000018,-82.9162292850898
-0.17070000000000007,-83.31234844905201
-0.17170000000000019,-83.70846761301424
-0.17270000000000008,-84.13288100297372
-0.1737000000000002,-84.57144150593189
-0.17470000000000008,-85.052443347886
-0.1757000000000002,-85.44856251184822
-0.17670000000000008,-85.97200569279828
-0.1777000000000002,-86.45300753475239
-0.17870000000000008,-86.89156803771054
-0.1797000000000002,-87.33012854066871
-0.18070000000000008,-87.75454193062824
-0.1817000000000002,-88.19310243358639
-0.18270000000000008,-88.5892215975486
-0.1837000000000002,-88.9853407615108
-0.1847000000000001,-89.36731281247435
-0.1857000000000002,-89.80587331543254
-0.1867000000000001,-90.20199247939475
-0.1877000000000002,-90.68299432134886
-0.1887000000000001,-91.16399616330297
-0.1897000000000002,-91.64499800525708
-0.1907000000000001,-92.12599984721119
-0.1917000000000001,-92.6070016891653
-0.19269999999999998,-93.13044487011537
-0.1937000000000001,-93.55485826007487
-0.19469999999999998,-93.99341876303303
-0.1957000000000001,-94.47442060498715
-0.19669999999999999,-94.8280984299534
-0.1977000000000001,-95.26665893291157
-0.1987,-95.64863098387512
-0.1997000000000001,-96.00230880884139
-0.2007,-96.3984279728036
-0.2017000000000001,-96.79454713676581
-0.2027,-97.21896052672531
-0.2037000000000001,-97.6575210296835
-0.2047,-98.13852287163759
-0.2057000000000001,-98.6195247135917
-0.2067,-99.05808521654988
-0.2077000000000001,-99.53908705850398
-0.2087,-100.02008890045809
-0.2097000000000001,-100.45864940341626
-0.2107,-100.88306279337576
-0.2117000000000001,-101.32162329633393
-0.2127,-101.76018379929208
-0.2137000000000001,-102.1563029632543
-0.2147,-102.5524221272165
-0.2157000000000001,-103.01927685617197
-0.2167,-103.45783735913014
-0.21770000000000012,-103.93883920108425
-0.2187,-104.41984104303836
-0.21970000000000012,-104.85840154599651
-0.2207,-105.38184472694657
-0.22170000000000012,-105.86284656890071
-0.2227,-106.30140707185885
-0.22370000000000012,-106.78240891381296
-0.2247,-107.20682230377247
-0.22570000000000012,-107.64538280673065
-0.2267,-108.0839433096888
-0.22770000000000012,-108.52250381264696
-0.22870000000000001,-108.96106431560513
-0.22970000000000013,-109.35718347956733
-0.23070000000000002,-109.78159686952685
-0.23170000000000013,-110.22015737248502
-0.23270000000000002,-110.70115921443913
-0.23370000000000013,-111.18216105639323
-0.23470000000000002,-111.66316289834735
-0.23570000000000013,-112.14416474030146
-0.23670000000000002,-112.66760792125153
-0.2376999999999999,-113.14860976320564
-0.23870000000000002,-113.58717026616378
-0.2396999999999999,-114.0115836561233
-0.24070000000000003,-114.4925854980774
-0.24169999999999991,-114.88870466203963
-0.24270000000000003,-115.32726516499778
-0.24369999999999992,-115.76582566795594
-0.24470000000000003,-116.14779771891952
-0.24569999999999992,-116.58635822187767
-0.24670000000000003,-117.02491872483584
-0.24769999999999992,-117.50592056678994
-0.24870000000000003,-118.07180508673595
-0.24969999999999992,-118.59524826768603
-0.25070000000000003,-119.07625010964013
-0.2516999999999999,-119.64213462958614
-0.25270000000000004,-120.20801914953216
-0.2536999999999999,-120.68902099148629
-0.25470000000000004,-121.21246417243634
-0.2556999999999999,-121.69346601439047
-0.25670000000000004,-122.1320265173486
-0.25769999999999993,-122.52814568131083
-0.25870000000000004,-122.95255907127036
-0.25969999999999993,-123.34867823523254
-0.26070000000000004,-123.78723873819072
-0.26169999999999993,-124.18335790215292
-0.26270000000000004,-124.66435974410705
-0.26369999999999993,-125.10292024706521
-0.26470000000000005,-125.56977497602065
-0.26569999999999994,-126.09321815697072
-0.26670000000000005,-126.57421999892482
-0.26769999999999994,-127.05522184087894
-0.26870000000000005,-127.57866502182902
-0.26969999999999994,-128.01722552478716
-0.27070000000000005,-128.4982273667413
-0.27169999999999994,-128.93678786969946
-0.27270000000000005,-129.41778971165354
-0.27369999999999994,-129.8563502146117
-0.27470000000000006,-130.23832226557528
-0.27569999999999995,-130.7193241075294
-0.27670000000000006,-131.2003259494835
-0.27769999999999995,-131.72376913043357
-0.27870000000000006,-132.24721231138363
-0.27969999999999995,-132.7706554923337
-0.28070000000000006,-133.3365400122797
-0.28169999999999995,-133.8599831932298
-0.28270000000000006,-134.42586771317576
-0.28369999999999995,-134.9917522331218
-0.28470000000000006,-135.51519541407185
-0.28569999999999995,-136.08107993401788
-0.28670000000000007,-136.51964043697603
-0.28769999999999996,-137.00064227893017
-0.28870000000000007,-137.43920278188833
-0.28969999999999996,-137.87776328484648
-0.29070000000000007,-138.3163237878046
-0.29169999999999996,-138.7548842907628
-0.29270000000000007,-139.1792976807223
-0.29369999999999996,-139.6602995226764
-0.2947000000000001,-140.14130136463055
-0.29569999999999996,-140.62230320658463
-0.2967000000000001,-141.14574638753473
-0.29769999999999996,-141.61260111649017
-0.2987000000000001,-142.17848563643616
-0.29969999999999997,-142.7443701563822
-0.3007000000000001,-143.16878354634173
-0.30169999999999997,-143.73466806628772
-0.3027000000000001,-144.15908145624724
-0.30369999999999997,-144.72496597619326
-0.3047000000000001,-145.14937936615277
-0.30569999999999997,-145.7152638860988
-0.3067000000000001,-146.28114840604482
-0.3077,-146.8470329259908
-0.3087000000000001,-147.27144631595033
-0.3097,-147.83733083589632
-0.3107000000000001,-148.40321535584232
-0.3117,-148.96909987578834
-0.3127000000000001,-149.53498439573437
-0.3137,-149.95939778569388
-0.3147000000000001,-150.38381117565342
-0.3157,-150.8082245656129
-0.3167000000000001,-151.23263795557244
-0.3177,-151.65705134553193
-0.3187000000000001,-152.0814647354914
-0.3197,-152.64734925543743
-0.3207000000000001,-153.07176264539694
-0.3217,-153.63764716534297
-0.3227000000000001,-154.0620605553025
-0.3237,-154.6279450752485
-0.3247000000000001,-155.19382959519453
-0.3257,-155.75971411514055
-0.3267000000000001,-156.32559863508658
-0.3277,-156.75001202504606
-0.3287000000000001,-157.31589654499206
-0.3297,-157.7403099349516
-0.3307000000000001,-158.1647233249111
-0.3317,-158.5891367148706
-0.3327000000000001,-159.01355010483013
-0.3337,-159.57943462477613
-0.3347000000000001,-159.86237688474912
-0.3357,-160.28679027470866
-0.3367000000000001,-160.71120366466818
-0.3377,-161.2770881846142
-0.3387000000000001,-161.70150157457368
-0.3397,-162.2673860945197
-0.3407000000000001,-162.6917994844792
-0.3417,-163.25768400442522
-0.3427000000000001,-163.82356852437124
-0.3437,-164.24798191433075
-0.3447000000000001,-164.81386643427678
-0.3457,-165.2382798242363
-0.3467000000000001,-165.6626932141958
-0.3477,-166.0871066041553
-0.3487000000000001,-166.51151999411482
-0.3497,-167.07740451406085
-0.3507000000000001,-167.50181790402033
-0.3517,-167.78476016399335
-0.3527000000000001,-168.35064468393938
-0.3537,-168.77505807389886
-0.3547000000000001,-169.19947146385837
-0.3557,-169.7653559838044
-0.35670000000000013,-170.18976937376394
-0.3577,-170.61418276372342
-0.35870000000000013,-171.18006728366944
-0.3597,-171.60448067362896
-0.36070000000000013,-172.0288940635885
-0.3617,-172.45330745354798
-0.3626999999999999,-172.87772084350746
-0.3637,-173.302134233467
-0.3646999999999999,-173.72654762342648
-0.3657,-174.150961013386
-0.3666999999999999,-174.57537440334553
-0.3677,-174.99978779330505
-0.3686999999999999,-175.56567231325104
-0.36970000000000003,-175.99008570321055
-0.3706999999999999,-176.4144990931701
-0.37170000000000003,-176.98038361311612
-0.3726999999999999,-177.4047970030756
-0.37370000000000003,-177.82921039303508
-0.3746999999999999,-178.25362378299462
-0.37570000000000003,-178.53656604296762
-0.3766999999999999,-178.96097943292713
-0.37770000000000004,-179.24392169290016
-0.3786999999999999,-179.52686395287316
-0.37970000000000004,-179.80980621284618
-0.3806999999999999,-180.23421960280567
-0.38170000000000004,-180.5171618627787
-0.38269999999999993,-181.08304638272472
-0.38370000000000004,-181.36598864269772
-0.38469999999999993,-181.79040203265723
-0.38570000000000004,-182.21481542261674
-0.38669999999999993,-182.63922881257625
-0.38770000000000004,-183.20511333252225
-0.38869999999999993,-183.62952672248176
-0.38970000000000005,-184.05394011244127
-0.39069999999999994,-184.47835350240078
-0.39170000000000005,-184.7612957623738
-0.39269999999999994,-185.0442380223468
-0.39370000000000005,-185.46865141230631
-0.39469999999999994,-185.7515936722793
-0.39570000000000005,-186.03453593225234
-0.39669999999999994,-186.31747819222534
-0.39770000000000005,-186.74189158218485
-0.39869999999999994,-187.02483384215788
-0.39970000000000006,-187.44924723211736
-0.40069999999999995,-187.73218949209036
-0.40170000000000006,-188.15660288204987
-0.40269999999999995,-188.4395451420229
-0.40370000000000006,-188.72248740199586
-0.40469999999999995,-189.0054296619689
-0.40570000000000006,-189.2883719219419
-0.40669999999999995,-189.57131418191491
-0.40770000000000006,-189.8542564418879
-0.40869999999999995,-190.13719870186094
-0.40970000000000006,-190.27866983184742
-0.41069999999999995,-190.42014096183394
-0.41170000000000007,-190.70308322180696
-0.41269999999999996,-190.84455435179345
-0.41370000000000007,-191.268967741753
-0.41469999999999996,-191.551910001726
-0.41570000000000007,-191.69338113171247
-0.41669999999999996,-191.9763233916855
-0.41770000000000007,-192.2592656516585
-0.41869999999999996,-192.54220791163152
-0.4197000000000001,-192.683679041618
-0.42069999999999996,-192.966621301591
-0.4217000000000001,-193.249563561564
-0.42269999999999996,-193.3910346915505
-0.4237000000000001,-193.6739769515235
-0.42469999999999997,-193.81544808151003
-0.4257000000000001,-194.09839034148303
-0.42669999999999997,-194.38133260145605
-0.4277000000000001,-194.66427486142905
-0.42869999999999997,-194.94721712140205
-0.4297000000000001,-195.08868825138856
-0.43069999999999997,-195.23015938137505
-0.4317000000000001,-195.51310164134807
-0.4327,-195.51310164134807
-0.4337000000000001,-195.65457277133459
-0.4347,-195.79604390132107
-0.4357000000000001,-195.79604390132107
-0.4367,-195.93751503130758
-0.4377000000000001,-195.93751503130758
-0.4387,-196.0789861612941
-0.4397000000000001,-196.0789861612941
-0.4407,-196.2204572912806
-0.4417000000000001,-196.3619284212671
-0.4427,-196.50339955125358
-0.4437000000000001,-196.6448706812401
-0.4447,-196.92781294121312
-0.4457000000000001,-197.0692840711996
-0.4467,-197.21075520118612
-0.4477000000000001,-197.35222633117263
-0.4487,-197.49369746115914
-0.4497000000000001,-197.49369746115914
-0.4507,-197.63516859114563
-0.4517000000000001,-197.63516859114563
-0.4527,-197.63516859114563
-0.4537000000000001,-197.49369746115914
-0.4547,-197.49369746115914
-0.4557000000000001,-197.35222633117263
-0.4567,-197.35222633117263
-0.4577000000000001,-197.35222633117263
-0.4587,-197.35222633117263
-0.4597000000000001,-197.35222633117263
-0.4607,-197.49369746115914
-0.4617000000000001,-197.49369746115914
-0.4627,-197.49369746115914
-0.4637000000000001,-197.63516859114563
-0.4647,-197.63516859114563
-0.4657000000000001,-197.63516859114563
-0.4667,-197.63516859114563
-0.4677000000000001,-197.63516859114563
-0.4687,-197.63516859114563
-0.4697000000000001,-197.63516859114563
-0.4707,-197.63516859114563
-0.4717000000000001,-197.63516859114563
-0.4727,-197.91811085111863
-0.4737000000000001,-197.91811085111863
-0.4747,-198.05958198110514
-0.4757000000000001,-198.20105311109162
-0.4767,-198.3425242410781
-0.4777000000000001,-198.3425242410781
-0.4787,-198.48399537106465
-0.4797000000000001,-198.48399537106465
-0.4807,-198.62546650105114
-0.48170000000000013,-198.76693763103765
-0.4827,-198.76693763103765
-0.48370000000000013,-198.76693763103765
-0.4847,-198.76693763103765
-0.48570000000000013,-198.90840876102413
-0.4867,-197.77663972113214
-0.48570000000000013,-194.80574599141553
-0.4847,-191.83485226169896
-0.48370000000000013,-189.0054296619689
-0.4827,-186.31747819222534
-0.48170000000000013,-183.77099785246824
-0.4807,-181.2245175127112
-0.4797000000000001,-178.67803717295413
-0.4787,-176.27302796318358
-0.4777000000000001,-173.86801875341303
-0.4767,-171.46300954364247
-0.4757000000000001,-169.19947146385837
-0.4747,-166.93593338407433
-0.4737000000000001,-164.67239530429026
-0.4727,-162.40885722450622
-0.4717000000000001,-160.14531914472215
-0.4707,-158.02325219492457
-0.4697000000000001,-155.90118524512707
-0.4687,-153.77911829532948
-0.4677000000000001,-151.7985224755184
-0.4667,-149.8179266557074
-0.4657000000000001,-147.6958597059098
