Aug. 17, 2024   22:47:34
Cyclic Voltammetry
File: c:/users/guazh/data/20240813_batch_94_500/2024-08-15-exp117\exp117-2024-08-17t22_37_35-h2koh\exp117_cv_sr_200mvs_efin_-1500mv.bin
Data Source:  Experiment
Instrument Model:  CHI760E
Header: CV ran at 200 mVs
Note: 

Init E (V) = -1
High E (V) = -1
Low E (V) = -1.5
Final E (V) = -1
Init P/N = N
Scan Rate (V/s) = 0.2
Segment = 3
Sample Interval (V) = 0.001
Quiet Time (sec) = 2
Sensitivity (A/V) = 0.01
Comp R (ohm) = 1.5

Results:

Channel 1:
Segment 1:

Segment 2:

Segment 3:

Potential/V, Current/A

-1.000, 3.244e-6
-1.001, 1.447e-5
-1.002, 1.873e-5
-1.003, 2.197e-5
-1.004, 2.451e-5
-1.005, 2.656e-5
-1.006, 2.796e-5
-1.007, 3.016e-5
-1.008, 3.168e-5
-1.009, 3.264e-5
-1.010, 3.434e-5
-1.011, 3.578e-5
-1.012, 3.692e-5
-1.013, 3.785e-5
-1.014, 3.890e-5
-1.015, 4.005e-5
-1.016, 4.083e-5
-1.017, 4.211e-5
-1.018, 4.281e-5
-1.019, 4.359e-5
-1.020, 4.480e-5
-1.021, 4.545e-5
-1.022, 4.619e-5
-1.023, 4.699e-5
-1.024, 4.830e-5
-1.025, 4.890e-5
-1.026, 4.951e-5
-1.027, 5.070e-5
-1.028, 5.149e-5
-1.029, 5.213e-5
-1.030, 5.305e-5
-1.031, 5.399e-5
-1.032, 5.451e-5
-1.033, 5.543e-5
-1.034, 5.634e-5
-1.035, 5.688e-5
-1.036, 5.766e-5
-1.037, 5.874e-5
-1.038, 5.921e-5
-1.039, 6.011e-5
-1.040, 6.076e-5
-1.041, 6.177e-5
-1.042, 6.263e-5
-1.043, 6.357e-5
-1.044, 6.442e-5
-1.045, 6.514e-5
-1.046, 6.625e-5
-1.047, 6.778e-5
-1.048, 6.852e-5
-1.049, 6.961e-5
-1.050, 7.146e-5
-1.051, 7.244e-5
-1.052, 7.411e-5
-1.053, 7.534e-5
-1.054, 7.720e-5
-1.055, 7.906e-5
-1.056, 8.051e-5
-1.057, 8.259e-5
-1.058, 8.462e-5
-1.059, 8.627e-5
-1.060, 8.885e-5
-1.061, 9.061e-5
-1.062, 9.293e-5
-1.063, 9.549e-5
-1.064, 9.792e-5
-1.065, 1.001e-4
-1.066, 1.027e-4
-1.067, 1.053e-4
-1.068, 1.076e-4
-1.069, 1.099e-4
-1.070, 1.127e-4
-1.071, 1.153e-4
-1.072, 1.175e-4
-1.073, 1.197e-4
-1.074, 1.220e-4
-1.075, 1.242e-4
-1.076, 1.263e-4
-1.077, 1.282e-4
-1.078, 1.299e-4
-1.079, 1.319e-4
-1.080, 1.332e-4
-1.081, 1.347e-4
-1.082, 1.359e-4
-1.083, 1.371e-4
-1.084, 1.382e-4
-1.085, 1.389e-4
-1.086, 1.397e-4
-1.087, 1.412e-4
-1.088, 1.420e-4
-1.089, 1.423e-4
-1.090, 1.434e-4
-1.091, 1.437e-4
-1.092, 1.441e-4
-1.093, 1.447e-4
-1.094, 1.452e-4
-1.095, 1.457e-4
-1.096, 1.462e-4
-1.097, 1.470e-4
-1.098, 1.471e-4
-1.099, 1.472e-4
-1.100, 1.479e-4
-1.101, 1.481e-4
-1.102, 1.487e-4
-1.103, 1.491e-4
-1.104, 1.495e-4
-1.105, 1.494e-4
-1.106, 1.498e-4
-1.107, 1.500e-4
-1.108, 1.505e-4
-1.109, 1.504e-4
-1.110, 1.509e-4
-1.111, 1.513e-4
-1.112, 1.513e-4
-1.113, 1.520e-4
-1.114, 1.519e-4
-1.115, 1.518e-4
-1.116, 1.519e-4
-1.117, 1.524e-4
-1.118, 1.525e-4
-1.119, 1.524e-4
-1.120, 1.529e-4
-1.121, 1.533e-4
-1.122, 1.529e-4
-1.123, 1.530e-4
-1.124, 1.535e-4
-1.125, 1.532e-4
-1.126, 1.535e-4
-1.127, 1.540e-4
-1.128, 1.542e-4
-1.129, 1.539e-4
-1.130, 1.545e-4
-1.131, 1.544e-4
-1.132, 1.546e-4
-1.133, 1.550e-4
-1.134, 1.553e-4
-1.135, 1.554e-4
-1.136, 1.551e-4
-1.137, 1.559e-4
-1.138, 1.558e-4
-1.139, 1.559e-4
-1.140, 1.566e-4
-1.141, 1.561e-4
-1.142, 1.562e-4
-1.143, 1.567e-4
-1.144, 1.570e-4
-1.145, 1.568e-4
-1.146, 1.575e-4
-1.147, 1.578e-4
-1.148, 1.574e-4
-1.149, 1.577e-4
-1.150, 1.580e-4
-1.151, 1.582e-4
-1.152, 1.582e-4
-1.153, 1.586e-4
-1.154, 1.591e-4
-1.155, 1.589e-4
-1.156, 1.590e-4
-1.157, 1.599e-4
-1.158, 1.598e-4
-1.159, 1.599e-4
-1.160, 1.604e-4
-1.161, 1.604e-4
-1.162, 1.605e-4
-1.163, 1.607e-4
-1.164, 1.611e-4
-1.165, 1.612e-4
-1.166, 1.613e-4
-1.167, 1.619e-4
-1.168, 1.615e-4
-1.169, 1.618e-4
-1.170, 1.625e-4
-1.171, 1.627e-4
-1.172, 1.628e-4
-1.173, 1.629e-4
-1.174, 1.632e-4
-1.175, 1.632e-4
-1.176, 1.634e-4
-1.177, 1.643e-4
-1.178, 1.642e-4
-1.179, 1.646e-4
-1.180, 1.650e-4
-1.181, 1.649e-4
-1.182, 1.650e-4
-1.183, 1.655e-4
-1.184, 1.658e-4
-1.185, 1.659e-4
-1.186, 1.663e-4
-1.187, 1.668e-4
-1.188, 1.669e-4
-1.189, 1.667e-4
-1.190, 1.676e-4
-1.191, 1.680e-4
-1.192, 1.677e-4
-1.193, 1.683e-4
-1.194, 1.689e-4
-1.195, 1.688e-4
-1.196, 1.691e-4
-1.197, 1.696e-4
-1.198, 1.696e-4
-1.199, 1.699e-4
-1.200, 1.706e-4
-1.201, 1.709e-4
-1.202, 1.715e-4
-1.203, 1.717e-4
-1.204, 1.725e-4
-1.205, 1.725e-4
-1.206, 1.729e-4
-1.207, 1.737e-4
-1.208, 1.739e-4
-1.209, 1.745e-4
-1.210, 1.753e-4
-1.211, 1.754e-4
-1.212, 1.759e-4
-1.213, 1.766e-4
-1.214, 1.772e-4
-1.215, 1.777e-4
-1.216, 1.781e-4
-1.217, 1.791e-4
-1.218, 1.797e-4
-1.219, 1.799e-4
-1.220, 1.813e-4
-1.221, 1.814e-4
-1.222, 1.820e-4
-1.223, 1.833e-4
-1.224, 1.840e-4
-1.225, 1.846e-4
-1.226, 1.855e-4
-1.227, 1.863e-4
-1.228, 1.872e-4
-1.229, 1.885e-4
-1.230, 1.894e-4
-1.231, 1.903e-4
-1.232, 1.910e-4
-1.233, 1.920e-4
-1.234, 1.931e-4
-1.235, 1.938e-4
-1.236, 1.948e-4
-1.237, 1.962e-4
-1.238, 1.972e-4
-1.239, 1.984e-4
-1.240, 1.996e-4
-1.241, 2.007e-4
-1.242, 2.016e-4
-1.243, 2.032e-4
-1.244, 2.047e-4
-1.245, 2.057e-4
-1.246, 2.068e-4
-1.247, 2.087e-4
-1.248, 2.099e-4
-1.249, 2.114e-4
-1.250, 2.132e-4
-1.251, 2.147e-4
-1.252, 2.160e-4
-1.253, 2.178e-4
-1.254, 2.196e-4
-1.255, 2.209e-4
-1.256, 2.227e-4
-1.257, 2.246e-4
-1.258, 2.265e-4
-1.259, 2.286e-4
-1.260, 2.305e-4
-1.261, 2.323e-4
-1.262, 2.341e-4
-1.263, 2.363e-4
-1.264, 2.384e-4
-1.265, 2.406e-4
-1.266, 2.427e-4
-1.267, 2.455e-4
-1.268, 2.476e-4
-1.269, 2.493e-4
-1.270, 2.522e-4
-1.271, 2.546e-4
-1.272, 2.568e-4
-1.273, 2.596e-4
-1.274, 2.626e-4
-1.275, 2.653e-4
-1.276, 2.681e-4
-1.277, 2.707e-4
-1.278, 2.734e-4
-1.279, 2.763e-4
-1.280, 2.796e-4
-1.281, 2.826e-4
-1.282, 2.858e-4
-1.283, 2.891e-4
-1.284, 2.924e-4
-1.285, 2.954e-4
-1.286, 2.987e-4
-1.287, 3.022e-4
-1.288, 3.053e-4
-1.289, 3.094e-4
-1.290, 3.132e-4
-1.291, 3.170e-4
-1.292, 3.205e-4
-1.293, 3.242e-4
-1.294, 3.282e-4
-1.295, 3.321e-4
-1.296, 3.357e-4
-1.297, 3.407e-4
-1.298, 3.448e-4
-1.299, 3.490e-4
-1.300, 3.535e-4
-1.301, 3.576e-4
-1.302, 3.618e-4
-1.303, 3.664e-4
-1.304, 3.710e-4
-1.305, 3.759e-4
-1.306, 3.810e-4
-1.307, 3.863e-4
-1.308, 3.910e-4
-1.309, 3.956e-4
-1.310, 4.007e-4
-1.311, 4.060e-4
-1.312, 4.108e-4
-1.313, 4.162e-4
-1.314, 4.223e-4
-1.315, 4.276e-4
-1.316, 4.333e-4
-1.317, 4.392e-4
-1.318, 4.441e-4
-1.319, 4.500e-4
-1.320, 4.571e-4
-1.321, 4.629e-4
-1.322, 4.692e-4
-1.323, 4.760e-4
-1.324, 4.822e-4
-1.325, 4.886e-4
-1.326, 4.945e-4
-1.327, 5.016e-4
-1.328, 5.080e-4
-1.329, 5.148e-4
-1.330, 5.223e-4
-1.331, 5.295e-4
-1.332, 5.366e-4
-1.333, 5.439e-4
-1.334, 5.513e-4
-1.335, 5.585e-4
-1.336, 5.656e-4
-1.337, 5.733e-4
-1.338, 5.805e-4
-1.339, 5.887e-4
-1.340, 5.969e-4
-1.341, 6.050e-4
-1.342, 6.127e-4
-1.343, 6.210e-4
-1.344, 6.293e-4
-1.345, 6.376e-4
-1.346, 6.467e-4
-1.347, 6.556e-4
-1.348, 6.641e-4
-1.349, 6.722e-4
-1.350, 6.816e-4
-1.351, 6.903e-4
-1.352, 6.999e-4
-1.353, 7.101e-4
-1.354, 7.193e-4
-1.355, 7.284e-4
-1.356, 7.375e-4
-1.357, 7.474e-4
-1.358, 7.570e-4
-1.359, 7.676e-4
-1.360, 7.788e-4
-1.361, 7.889e-4
-1.362, 7.986e-4
-1.363, 8.089e-4
-1.364, 8.198e-4
-1.365, 8.300e-4
-1.366, 8.416e-4
-1.367, 8.542e-4
-1.368, 8.650e-4
-1.369, 8.759e-4
-1.370, 8.868e-4
-1.371, 8.983e-4
-1.372, 9.100e-4
-1.373, 9.227e-4
-1.374, 9.357e-4
-1.375, 9.476e-4
-1.376, 9.589e-4
-1.377, 9.712e-4
-1.378, 9.830e-4
-1.379, 9.954e-4
-1.380, 1.009e-3
-1.381, 1.022e-3
-1.382, 1.036e-3
-1.383, 1.049e-3
-1.384, 1.061e-3
-1.385, 1.074e-3
-1.386, 1.087e-3
-1.387, 1.102e-3
-1.388, 1.116e-3
-1.389, 1.132e-3
-1.390, 1.147e-3
-1.391, 1.160e-3
-1.392, 1.173e-3
-1.393, 1.187e-3
-1.394, 1.201e-3
-1.395, 1.215e-3
-1.396, 1.230e-3
-1.397, 1.247e-3
-1.398, 1.263e-3
-1.399, 1.277e-3
-1.400, 1.292e-3
-1.401, 1.307e-3
-1.402, 1.323e-3
-1.403, 1.341e-3
-1.404, 1.358e-3
-1.405, 1.376e-3
-1.406, 1.391e-3
-1.407, 1.407e-3
-1.408, 1.423e-3
-1.409, 1.439e-3
-1.410, 1.457e-3
-1.411, 1.475e-3
-1.412, 1.495e-3
-1.413, 1.513e-3
-1.414, 1.529e-3
-1.415, 1.546e-3
-1.416, 1.563e-3
-1.417, 1.583e-3
-1.418, 1.602e-3
-1.419, 1.622e-3
-1.420, 1.643e-3
-1.421, 1.661e-3
-1.422, 1.678e-3
-1.423, 1.696e-3
-1.424, 1.715e-3
-1.425, 1.734e-3
-1.426, 1.755e-3
-1.427, 1.777e-3
-1.428, 1.797e-3
-1.429, 1.817e-3
-1.430, 1.837e-3
-1.431, 1.855e-3
-1.432, 1.874e-3
-1.433, 1.895e-3
-1.434, 1.917e-3
-1.435, 1.938e-3
-1.436, 1.962e-3
-1.437, 1.985e-3
-1.438, 2.006e-3
-1.439, 2.026e-3
-1.440, 2.047e-3
-1.441, 2.068e-3
-1.442, 2.089e-3
-1.443, 2.112e-3
-1.444, 2.136e-3
-1.445, 2.159e-3
-1.446, 2.180e-3
-1.447, 2.201e-3
-1.448, 2.222e-3
-1.449, 2.244e-3
-1.450, 2.268e-3
-1.451, 2.294e-3
-1.452, 2.323e-3
-1.453, 2.345e-3
-1.454, 2.367e-3
-1.455, 2.389e-3
-1.456, 2.413e-3
-1.457, 2.439e-3
-1.458, 2.463e-3
-1.459, 2.490e-3
-1.460, 2.517e-3
-1.461, 2.540e-3
-1.462, 2.562e-3
-1.463, 2.586e-3
-1.464, 2.609e-3
-1.465, 2.634e-3
-1.466, 2.660e-3
-1.467, 2.688e-3
-1.468, 2.717e-3
-1.469, 2.742e-3
-1.470, 2.765e-3
-1.471, 2.789e-3
-1.472, 2.813e-3
-1.473, 2.840e-3
-1.474, 2.869e-3
-1.475, 2.898e-3
-1.476, 2.928e-3
-1.477, 2.956e-3
-1.478, 2.980e-3
-1.479, 2.999e-3
-1.480, 3.033e-3
-1.481, 3.060e-3
-1.482, 3.087e-3
-1.483, 3.118e-3
-1.484, 3.151e-3
-1.485, 3.180e-3
-1.486, 3.205e-3
-1.487, 3.232e-3
-1.488, 3.258e-3
-1.489, 3.286e-3
-1.490, 3.318e-3
-1.491, 3.350e-3
-1.492, 3.384e-3
-1.493, 3.413e-3
-1.494, 3.439e-3
-1.495, 3.467e-3
-1.496, 3.495e-3
-1.497, 3.526e-3
-1.498, 3.556e-3
-1.499, 3.588e-3
-1.500, 3.563e-3
-1.499, 3.499e-3
-1.498, 3.454e-3
-1.497, 3.413e-3
-1.496, 3.375e-3
-1.495, 3.336e-3
-1.494, 3.300e-3
-1.493, 3.266e-3
-1.492, 3.223e-3
-1.491, 3.191e-3
-1.490, 3.154e-3
-1.489, 3.130e-3
-1.488, 3.093e-3
-1.487, 3.054e-3
-1.486, 3.016e-3
-1.485, 2.980e-3
-1.484, 2.947e-3
-1.483, 2.919e-3
-1.482, 2.883e-3
-1.481, 2.845e-3
-1.480, 2.810e-3
-1.479, 2.777e-3
-1.478, 2.744e-3
-1.477, 2.715e-3
-1.476, 2.684e-3
-1.475, 2.652e-3
-1.474, 2.621e-3
-1.473, 2.590e-3
-1.472, 2.558e-3
-1.471, 2.526e-3
-1.470, 2.495e-3
-1.469, 2.464e-3
-1.468, 2.436e-3
-1.467, 2.406e-3
-1.466, 2.375e-3
-1.465, 2.344e-3
-1.464, 2.314e-3
-1.463, 2.285e-3
-1.462, 2.259e-3
-1.461, 2.234e-3
-1.460, 2.206e-3
-1.459, 2.180e-3
-1.458, 2.153e-3
-1.457, 2.125e-3
-1.456, 2.101e-3
-1.455, 2.077e-3
-1.454, 2.051e-3
-1.453, 2.024e-3
-1.452, 1.999e-3
-1.451, 1.972e-3
-1.450, 1.949e-3
-1.449, 1.926e-3
-1.448, 1.908e-3
-1.447, 1.882e-3
-1.446, 1.855e-3
-1.445, 1.830e-3
-1.444, 1.807e-3
-1.443, 1.787e-3
-1.442, 1.763e-3
-1.441, 1.743e-3
-1.440, 1.722e-3
-1.439, 1.698e-3
-1.438, 1.674e-3
-1.437, 1.652e-3
-1.436, 1.629e-3
-1.435, 1.608e-3
-1.434, 1.589e-3
-1.433, 1.571e-3
-1.432, 1.549e-3
-1.431, 1.528e-3
-1.430, 1.507e-3
-1.429, 1.486e-3
-1.428, 1.465e-3
-1.427, 1.446e-3
-1.426, 1.430e-3
-1.425, 1.413e-3
-1.424, 1.392e-3
-1.423, 1.372e-3
-1.422, 1.352e-3
-1.421, 1.333e-3
-1.420, 1.316e-3
-1.419, 1.298e-3
-1.418, 1.282e-3
-1.417, 1.264e-3
-1.416, 1.246e-3
-1.415, 1.228e-3
-1.414, 1.211e-3
-1.413, 1.195e-3
-1.412, 1.179e-3
-1.411, 1.163e-3
-1.410, 1.152e-3
-1.409, 1.135e-3
-1.408, 1.117e-3
-1.407, 1.100e-3
-1.406, 1.084e-3
-1.405, 1.068e-3
-1.404, 1.053e-3
-1.403, 1.039e-3
-1.402, 1.025e-3
-1.401, 1.009e-3
-1.400, 9.937e-4
-1.399, 9.787e-4
-1.398, 9.641e-4
-1.397, 9.507e-4
-1.396, 9.375e-4
-1.395, 9.244e-4
-1.394, 9.097e-4
-1.393, 8.963e-4
-1.392, 8.828e-4
-1.391, 8.689e-4
-1.390, 8.561e-4
-1.389, 8.437e-4
-1.388, 8.326e-4
-1.387, 8.213e-4
-1.386, 8.079e-4
-1.385, 7.942e-4
-1.384, 7.805e-4
-1.383, 7.684e-4
-1.382, 7.571e-4
-1.381, 7.459e-4
-1.380, 7.342e-4
-1.379, 7.215e-4
-1.378, 7.101e-4
-1.377, 6.983e-4
-1.376, 6.867e-4
-1.375, 6.751e-4
-1.374, 6.637e-4
-1.373, 6.534e-4
-1.372, 6.429e-4
-1.371, 6.327e-4
-1.370, 6.226e-4
-1.369, 6.121e-4
-1.368, 6.017e-4
-1.367, 5.921e-4
-1.366, 5.829e-4
-1.365, 5.747e-4
-1.364, 5.639e-4
-1.363, 5.541e-4
-1.362, 5.439e-4
-1.361, 5.336e-4
-1.360, 5.243e-4
-1.359, 5.143e-4
-1.358, 5.048e-4
-1.357, 4.961e-4
-1.356, 4.876e-4
-1.355, 4.781e-4
-1.354, 4.692e-4
-1.353, 4.607e-4
-1.352, 4.520e-4
-1.351, 4.431e-4
-1.350, 4.350e-4
-1.349, 4.274e-4
-1.348, 4.204e-4
-1.347, 4.120e-4
-1.346, 4.037e-4
-1.345, 3.953e-4
-1.344, 3.874e-4
-1.343, 3.800e-4
-1.342, 3.720e-4
-1.341, 3.693e-4
-1.340, 3.646e-4
-1.339, 3.556e-4
-1.338, 3.467e-4
-1.337, 3.387e-4
-1.336, 3.313e-4
-1.335, 3.236e-4
-1.334, 3.165e-4
-1.333, 3.100e-4
-1.332, 3.030e-4
-1.331, 2.962e-4
-1.330, 2.898e-4
-1.329, 2.826e-4
-1.328, 2.762e-4
-1.327, 2.701e-4
-1.326, 2.637e-4
-1.325, 2.577e-4
-1.324, 2.514e-4
-1.323, 2.460e-4
-1.322, 2.399e-4
-1.321, 2.338e-4
-1.320, 2.283e-4
-1.319, 2.226e-4
-1.318, 2.168e-4
-1.317, 2.119e-4
-1.316, 2.074e-4
-1.315, 2.021e-4
-1.314, 1.966e-4
-1.313, 1.914e-4
-1.312, 1.859e-4
-1.311, 1.811e-4
-1.310, 1.761e-4
-1.309, 1.715e-4
-1.308, 1.665e-4
-1.307, 1.621e-4
-1.306, 1.574e-4
-1.305, 1.527e-4
-1.304, 1.480e-4
-1.303, 1.441e-4
-1.302, 1.393e-4
-1.301, 1.351e-4
-1.300, 1.312e-4
-1.299, 1.269e-4
-1.298, 1.224e-4
-1.297, 1.189e-4
-1.296, 1.149e-4
-1.295, 1.109e-4
-1.294, 1.073e-4
-1.293, 1.039e-4
-1.292, 9.975e-5
-1.291, 9.644e-5
-1.290, 9.314e-5
-1.289, 8.938e-5
-1.288, 8.640e-5
-1.287, 8.300e-5
-1.286, 8.002e-5
-1.285, 7.672e-5
-1.284, 7.369e-5
-1.283, 7.072e-5
-1.282, 6.750e-5
-1.281, 6.445e-5
-1.280, 6.176e-5
-1.279, 5.871e-5
-1.278, 5.609e-5
-1.277, 5.391e-5
-1.276, 5.127e-5
-1.275, 4.845e-5
-1.274, 4.579e-5
-1.273, 4.324e-5
-1.272, 4.087e-5
-1.271, 3.854e-5
-1.270, 3.629e-5
-1.269, 3.366e-5
-1.268, 3.148e-5
-1.267, 2.911e-5
-1.266, 2.739e-5
-1.265, 2.465e-5
-1.264, 2.290e-5
-1.263, 2.109e-5
-1.262, 1.845e-5
-1.261, 1.650e-5
-1.260, 1.487e-5
-1.259, 1.250e-5
-1.258, 1.073e-5
-1.257, 9.006e-6
-1.256, 7.141e-6
-1.255, 4.961e-6
-1.254, 2.879e-6
-1.253, 1.803e-6
-1.252, -5.150e-7
-1.251, -2.103e-6
-1.250, -3.514e-6
-1.249, -5.428e-6
-1.248, -7.510e-6
-1.247, -8.398e-6
-1.246, -1.054e-5
-1.245, -1.219e-5
-1.244, -1.378e-5
-1.243, -1.523e-5
-1.242, -1.735e-5
-1.241, -1.890e-5
-1.240, -2.036e-5
-1.239, -2.206e-5
-1.238, -2.379e-5
-1.237, -2.492e-5
-1.236, -2.681e-5
-1.235, -2.849e-5
-1.234, -2.993e-5
-1.233, -3.121e-5
-1.232, -3.297e-5
-1.231, -3.452e-5
-1.230, -3.571e-5
-1.229, -3.769e-5
-1.228, -3.882e-5
-1.227, -3.963e-5
-1.226, -4.060e-5
-1.225, -4.171e-5
-1.224, -4.234e-5
-1.223, -4.282e-5
-1.222, -4.413e-5
-1.221, -4.468e-5
-1.220, -4.532e-5
-1.219, -4.602e-5
-1.218, -4.684e-5
-1.217, -4.732e-5
-1.216, -4.788e-5
-1.215, -4.871e-5
-1.214, -4.958e-5
-1.213, -4.980e-5
-1.212, -5.082e-5
-1.211, -5.148e-5
-1.210, -5.165e-5
-1.209, -5.273e-5
-1.208, -5.319e-5
-1.207, -5.352e-5
-1.206, -5.433e-5
-1.205, -5.458e-5
-1.204, -5.508e-5
-1.203, -5.562e-5
-1.202, -5.593e-5
-1.201, -5.668e-5
-1.200, -5.659e-5
-1.199, -5.724e-5
-1.198, -5.782e-5
-1.197, -5.801e-5
-1.196, -5.844e-5
-1.195, -5.901e-5
-1.194, -5.946e-5
-1.193, -5.962e-5
-1.192, -6.012e-5
-1.191, -6.057e-5
-1.190, -6.082e-5
-1.189, -6.127e-5
-1.188, -6.167e-5
-1.187, -6.196e-5
-1.186, -6.207e-5
-1.185, -6.247e-5
-1.184, -6.304e-5
-1.183, -6.426e-5
-1.182, -6.479e-5
-1.181, -6.514e-5
-1.180, -6.481e-5
-1.179, -6.558e-5
-1.178, -6.615e-5
-1.177, -6.644e-5
-1.176, -6.694e-5
-1.175, -6.734e-5
-1.174, -6.787e-5
-1.173, -6.777e-5
-1.172, -6.864e-5
-1.171, -6.914e-5
-1.170, -6.929e-5
-1.169, -6.989e-5
-1.168, -7.025e-5
-1.167, -7.058e-5
-1.166, -7.118e-5
-1.165, -7.172e-5
-1.164, -7.230e-5
-1.163, -7.221e-5
-1.162, -7.304e-5
-1.161, -7.355e-5
-1.160, -7.355e-5
-1.159, -7.444e-5
-1.158, -7.535e-5
-1.157, -7.508e-5
-1.156, -7.566e-5
-1.155, -7.634e-5
-1.154, -7.677e-5
-1.153, -7.697e-5
-1.152, -7.779e-5
-1.151, -7.827e-5
-1.150, -7.873e-5
-1.149, -7.891e-5
-1.148, -7.971e-5
-1.147, -8.006e-5
-1.146, -8.056e-5
-1.145, -8.141e-5
-1.144, -8.178e-5
-1.143, -8.183e-5
-1.142, -8.304e-5
-1.141, -8.348e-5
-1.140, -8.381e-5
-1.139, -8.450e-5
-1.138, -8.516e-5
-1.137, -8.561e-5
-1.136, -8.625e-5
-1.135, -8.669e-5
-1.134, -8.757e-5
-1.133, -8.777e-5
-1.132, -8.843e-5
-1.131, -8.975e-5
-1.130, -8.975e-5
-1.129, -9.063e-5
-1.128, -9.141e-5
-1.127, -9.220e-5
-1.126, -9.323e-5
-1.125, -9.425e-5
-1.124, -9.495e-5
-1.123, -9.550e-5
-1.122, -9.684e-5
-1.121, -9.805e-5
-1.120, -9.859e-5
-1.119, -1.000e-4
-1.118, -1.014e-4
-1.117, -1.023e-4
-1.116, -1.036e-4
-1.115, -1.054e-4
-1.114, -1.066e-4
-1.113, -1.081e-4
-1.112, -1.098e-4
-1.111, -1.114e-4
-1.110, -1.129e-4
-1.109, -1.151e-4
-1.108, -1.170e-4
-1.107, -1.189e-4
-1.106, -1.208e-4
-1.105, -1.226e-4
-1.104, -1.242e-4
-1.103, -1.261e-4
-1.102, -1.283e-4
-1.101, -1.299e-4
-1.100, -1.320e-4
-1.099, -1.337e-4
-1.098, -1.354e-4
-1.097, -1.367e-4
-1.096, -1.380e-4
-1.095, -1.399e-4
-1.094, -1.415e-4
-1.093, -1.425e-4
-1.092, -1.441e-4
-1.091, -1.455e-4
-1.090, -1.462e-4
-1.089, -1.478e-4
-1.088, -1.489e-4
-1.087, -1.496e-4
-1.086, -1.511e-4
-1.085, -1.520e-4
-1.084, -1.529e-4
-1.083, -1.534e-4
-1.082, -1.544e-4
-1.081, -1.557e-4
-1.080, -1.559e-4
-1.079, -1.569e-4
-1.078, -1.581e-4
-1.077, -1.586e-4
-1.076, -1.592e-4
-1.075, -1.608e-4
-1.074, -1.608e-4
-1.073, -1.614e-4
-1.072, -1.625e-4
-1.071, -1.630e-4
-1.070, -1.638e-4
-1.069, -1.642e-4
-1.068, -1.652e-4
-1.067, -1.654e-4
-1.066, -1.658e-4
-1.065, -1.667e-4
-1.064, -1.674e-4
-1.063, -1.678e-4
-1.062, -1.687e-4
-1.061, -1.695e-4
-1.060, -1.697e-4
-1.059, -1.706e-4
-1.058, -1.711e-4
-1.057, -1.715e-4
-1.056, -1.720e-4
-1.055, -1.727e-4
-1.054, -1.733e-4
-1.053, -1.735e-4
-1.052, -1.744e-4
-1.051, -1.752e-4
-1.050, -1.755e-4
-1.049, -1.763e-4
-1.048, -1.770e-4
-1.047, -1.775e-4
-1.046, -1.779e-4
-1.045, -1.787e-4
-1.044, -1.795e-4
-1.043, -1.800e-4
-1.042, -1.808e-4
-1.041, -1.813e-4
-1.040, -1.815e-4
-1.039, -1.827e-4
-1.038, -1.834e-4
-1.037, -1.833e-4
-1.036, -1.842e-4
-1.035, -1.850e-4
-1.034, -1.856e-4
-1.033, -1.861e-4
-1.032, -1.864e-4
-1.031, -1.880e-4
-1.030, -1.884e-4
-1.029, -1.889e-4
-1.028, -1.898e-4
-1.027, -1.902e-4
-1.026, -1.907e-4
-1.025, -1.919e-4
-1.024, -1.928e-4
-1.023, -1.933e-4
-1.022, -1.947e-4
-1.021, -1.950e-4
-1.020, -1.956e-4
-1.019, -1.966e-4
-1.018, -1.973e-4
-1.017, -1.981e-4
-1.016, -1.989e-4
-1.015, -1.999e-4
-1.014, -2.011e-4
-1.013, -2.011e-4
-1.012, -2.023e-4
-1.011, -2.033e-4
-1.010, -2.034e-4
-1.009, -2.049e-4
-1.008, -2.061e-4
-1.007, -2.067e-4
-1.006, -2.080e-4
-1.005, -2.089e-4
-1.004, -2.095e-4
-1.003, -2.102e-4
-1.002, -2.117e-4
-1.001, -2.129e-4
