Potential V vs RHE, Current mA cm-2
0.013299999999999867,0.046784502686536764
0.012299999999999978,-0.03975338752620753
0.011299999999999866,-0.0771583542946391
0.010299999999999976,-0.10297683551717601
0.009299999999999864,-0.12810210820277906
0.008299999999999974,-0.14430055258623375
0.007299999999999862,-0.16608710660415532
0.006299999999999972,-0.18263922881257624
0.00529999999999986,-0.19438133260145604
0.0042999999999999705,-0.21008462802995795
0.0032999999999998586,-0.2192802514790807
0.0022999999999999687,-0.2313052975279335
0.0012999999999998568,-0.2443206414866918
0.00029999999999996696,-0.252808909285882
-0.000700000000000145,-0.2648339553347349
-0.0017000000000000348,-0.2737466365238846
-0.0027000000000001467,-0.2840740290128994
-0.0037000000000000366,-0.29199641229214357
-0.0047000000000001485,-0.30204086252118534
-0.005700000000000038,-0.3113779571002946
-0.00670000000000015,-0.3168953311697682
-0.00770000000000004,-0.32764713704874243
-0.008700000000000152,-0.33655981823789227
-0.009700000000000042,-0.3470286818568935
-0.010700000000000154,-0.35792195886585426
-0.011700000000000044,-0.36414668858526045
-0.012700000000000156,-0.37588879237414025
-0.013700000000000045,-0.3809817530536544
-0.014700000000000157,-0.3901773765027771
-0.015700000000000047,-0.3985241731719808
-0.01670000000000016,-0.40390007611146794
-0.01770000000000005,-0.4147933531204288
-0.01870000000000016,-0.42158396735978093
-0.01970000000000005,-0.4280916393391601
-0.020700000000000163,-0.43728726278828284
-0.021700000000000053,-0.442097281207824
-0.022700000000000164,-0.45511262516658224
-0.023700000000000054,-0.4556785096865283
-0.024700000000000166,-0.46756208460539456
-0.025700000000000056,-0.47675770805451734
-0.026700000000000168,-0.481709197604045
-0.027700000000000058,-0.49387571478288433
-0.02870000000000017,-0.5075984143915752
-0.02970000000000006,-0.5139646152409678
-0.03070000000000017,-0.5302337951894158
-0.03170000000000006,-0.5411270721983766
-0.03270000000000017,-0.557254781016838
-0.03370000000000006,-0.5739483743552454
-0.034700000000000175,-0.5866807760540307
-0.035700000000000065,-0.6054964363422356
-0.03670000000000018,-0.6251609234103597
-0.03770000000000007,-0.6438351125685782
-0.03870000000000018,-0.6622263594668236
-0.03970000000000007,-0.6814664331449882
-0.04070000000000018,-0.7026871026429637
-0.04170000000000007,-0.7250395411808312
-0.04270000000000018,-0.7455528550288744
-0.04370000000000007,-0.768471178086688
-0.044700000000000184,-0.7916724434044745
-0.045700000000000074,-0.812327228382504
-0.046700000000000186,-0.832840542230547
-0.047700000000000076,-0.8578809322381583
-0.04870000000000019,-0.8793845439961068
-0.04970000000000008,-0.904141991743745
-0.05070000000000019,-0.9215429407320849
-0.05170000000000008,-0.942622139100074
-0.05270000000000019,-0.9648331065079551
-0.05370000000000008,-0.981668170976349
-0.05470000000000019,-1.0026058982143515
-0.05570000000000008,-1.0207142028526242
-0.056700000000000195,-1.0347198447212878
-0.057700000000000085,-1.0538184472694658
-0.058700000000000196,-1.0652776087983726
-0.059700000000000086,-1.0787173661470904
-0.0607000000000002,-1.0964012573954034
-0.06170000000000009,-1.1075774766643371
-0.0627000000000002,-1.1188951670632574
-0.06370000000000009,-1.1266760792125152
-0.0647000000000002,-1.1347399336217459
-0.06570000000000009,-1.1452087972407472
-0.0667000000000002,-1.148038219840477
-0.0677000000000001,-1.1545458918198563
-0.0687000000000002,-1.1616194483191815
-0.0697000000000001,-1.1637415152689792
-0.07070000000000021,-1.1708150717683043
-0.0717000000000001,-1.175766561317832
-0.07270000000000021,-1.1781715705276026
-0.0737000000000001,-1.1804351086073865
-0.07470000000000021,-1.1819912910372383
-0.0757000000000001,-1.1879330784966713
-0.07670000000000021,-1.1860939538068467
-0.0777000000000001,-1.190055145446469
-0.07870000000000021,-1.1921772123962666
-0.0797000000000001,-1.191752799006307
-0.08070000000000022,-1.1945822216060369
-0.0817000000000001,-1.194016337086091
-0.08270000000000022,-1.1968457596858209
-0.08370000000000011,-1.199109297765605
-0.08470000000000022,-1.1975531153357537
-0.08570000000000011,-1.198260470985686
-0.08670000000000022,-1.1975531153357537
-0.08770000000000011,-1.2022216626253082
-0.08870000000000022,-1.2019387203653351
-0.08970000000000011,-1.2040607873151328
-0.09070000000000022,-1.2057584408749709
-0.09170000000000011,-1.2053340274850113
-0.09270000000000023,-1.2092952191246333
-0.09370000000000012,-1.2081634500847414
-0.09470000000000023,-1.2094366902546199
-0.09570000000000012,-1.211134343814458
-0.09670000000000023,-1.206324325394917
-0.09770000000000012,-1.2126905262443095
-0.09870000000000023,-1.2094366902546199
-0.09970000000000012,-1.2094366902546199
-0.10070000000000023,-1.213114939634269
-0.10170000000000012,-1.2136808241542152
-0.10270000000000024,-1.2152370065840665
-0.10370000000000013,-1.2149540643240935
-0.10470000000000024,-1.215661419974026
-0.10570000000000013,-1.2208958517835267
-0.10670000000000024,-1.2159443622339992
-0.10770000000000013,-1.2206129095235536
-0.10870000000000024,-1.2191981982236886
-0.10970000000000013,-1.2211787940434997
-0.11070000000000024,-1.2235838032532702
-0.11170000000000013,-1.2214617363034728
-0.11270000000000002,-1.2269791103729464
-0.11370000000000013,-1.2281108794128386
-0.11470000000000002,-1.2261302835930272
-0.11570000000000014,-1.230798830882582
-0.11670000000000003,-1.2286767639327845
-0.11770000000000014,-1.233345311222339
-0.11870000000000003,-1.23249648444242
-0.11970000000000014,-1.2327794267023928
-0.12070000000000003,-1.2339111957422848
-0.12170000000000014,-1.2339111957422848
-0.12270000000000003,-1.2350429647821768
-0.12370000000000014,-1.2370235606019881
-0.12470000000000003,-1.2382968007718667
-0.12570000000000014,-1.2416921078915426
-0.12670000000000003,-1.2407018099816371
-0.12770000000000015,-1.242682405801448
-0.12870000000000004,-1.2429653480614211
-0.12970000000000015,-1.2469265397010434
-0.13070000000000004,-1.2472094819610162
-0.13170000000000015,-1.2456532995311649
-0.13270000000000004,-1.2501803756907328
-0.13370000000000015,-1.24989743343076
-0.13470000000000004,-1.2501803756907328
-0.13570000000000015,-1.254141567330355
-0.13670000000000004,-1.253009798290463
-0.13770000000000016,-1.2558392208901932
-0.13870000000000005,-1.2576783455800176
-0.13970000000000016,-1.2613565949596666
-0.14070000000000005,-1.2651763154693023
-0.14170000000000016,-1.2622054217395857
-0.14270000000000005,-1.2661666133792076
-0.14370000000000016,-1.2667324978991539
-0.14470000000000005,-1.2682886803290054
-0.14570000000000016,-1.2733816410085195
-0.14670000000000005,-1.2694204493688974
-0.14770000000000016,-1.2753622368283306
-0.14870000000000005,-1.2790404862079796
-0.14970000000000017,-1.278333130558047
-0.15070000000000006,-1.281162553157777
-0.15170000000000017,-1.2822943221976693
-0.15270000000000006,-1.2873872828771833
-0.15370000000000017,-1.2883775807870887
-0.15470000000000006,-1.2899337632169405
-0.15570000000000017,-1.2950267238964543
-0.15670000000000006,-1.2972902619762388
-0.15770000000000017,-1.3006855690959147
-0.15870000000000006,-1.3036564628256313
-0.15970000000000018,-1.3059200009054155
-0.16070000000000007,-1.3084664812451725
-0.16170000000000018,-1.3098811925450375
-0.16270000000000007,-1.3149741532245516
-0.16370000000000018,-1.3180865180842547
-0.16470000000000007,-1.3213403540739443
-0.16570000000000018,-1.3275650837933504
-0.16670000000000007,-1.3284139105732695
-0.16770000000000018,-1.3340727557727297
-0.16870000000000007,-1.3352045248126216
-0.16970000000000018,-1.3380339474123517
-0.17070000000000007,-1.3425610235719199
-0.17170000000000019,-1.346239272951569
-0.17270000000000008,-1.350766349111137
-0.1737000000000002,-1.3538787139708401
-0.17470000000000008,-1.3574154922205026
-0.1757000000000002,-1.365054933239774
-0.17670000000000008,-1.3654793466297335
-0.1777000000000002,-1.3741090855589102
-0.17870000000000008,-1.3749579123388291
-0.1797000000000002,-1.3813241131882217
-0.18070000000000008,-1.386982958387682
-0.1817000000000002,-1.3891050253374793
-0.18270000000000008,-1.3971688797467103
-0.1837000000000002,-1.4021203692962378
-0.1847000000000001,-1.405798618675887
-0.1857000000000002,-1.4135795308251449
-0.1867000000000001,-1.4132965885651718
-0.1877000000000002,-1.4246142789640919
-0.1887000000000001,-1.4302731241635522
-0.1897000000000002,-1.4359319693630124
-0.1907000000000001,-1.4430055258623373
-0.1917000000000001,-1.4486643710617975
-0.19269999999999998,-1.4557379275611226
-0.1937000000000001,-1.4642261953603128
-0.19469999999999998,-1.4670556179600431
-0.1957000000000001,-1.4783733083589634
-0.19669999999999999,-1.4840321535584236
-0.1977000000000001,-1.4911057100577487
-0.1987,-1.502423400456669
-0.1997000000000001,-1.510911668255859
-0.2007,-1.5208146473549145
-0.2017000000000001,-1.5250587812545096
-0.2027,-1.5349617603535646
-0.2037000000000001,-1.54486473945262
-0.2047,-1.5575971411514054
-0.2057000000000001,-1.5660854089505953
-0.2067,-1.5745736767497858
-0.2077000000000001,-1.587306078448571
-0.2087,-1.5972090575476263
-0.2097000000000001,-1.6085267479465466
-0.2107,-1.6198444383454669
-0.2117000000000001,-1.626917994844792
-0.2127,-1.643894530443173
-0.2137000000000001,-1.653797509542228
-0.2147,-1.6693593338407433
-0.2157000000000001,-1.6877505807389888
-0.2167,-1.696238848538179
-0.21770000000000012,-1.7132153841365596
-0.2187,-1.7259477858353447
-0.21970000000000012,-1.7415096101338603
-0.2207,-1.7599008570321055
-0.22170000000000012,-1.769803836131161
-0.2227,-1.7881950830294064
-0.22370000000000012,-1.8065863299276517
-0.2247,-1.8193187316264372
-0.22570000000000012,-1.8405394011244125
-0.2267,-1.8546865141230628
-0.22770000000000012,-1.8759071836210386
-0.22870000000000001,-1.895713141819149
-0.22970000000000013,-1.9126896774175295
-0.23070000000000002,-1.93532505821537
-0.23170000000000013,-1.9523015938137507
-0.23270000000000002,-1.9735222633117262
-0.23370000000000013,-1.9961576441095665
-0.23470000000000002,-2.0187930249074073
-0.23570000000000013,-2.042843117005113
-0.23670000000000002,-2.0598196526034935
-0.2376999999999999,-2.0881138786007942
-0.23870000000000002,-2.113578681998365
-0.2396999999999999,-2.136214062796206
-0.24070000000000003,-2.1630935774936413
-0.24169999999999991,-2.184314246991617
-0.24270000000000003,-2.2182673181883774
-0.24369999999999992,-2.2437321215859485
-0.24470000000000003,-2.2706116362833835
-0.24569999999999992,-2.3003205735805494
-0.24670000000000003,-2.32861479957785
-0.24769999999999992,-2.358323736875016
-0.24870000000000003,-2.389447385472047
-0.24969999999999992,-2.4234004566688077
-0.25070000000000003,-2.4545241052658384
-0.2516999999999999,-2.4870624651627344
-0.25270000000000004,-2.5196008250596305
-0.2536999999999999,-2.5535538962563913
-0.25470000000000004,-2.590336390052882
-0.2556999999999999,-2.6257041725495083
-0.25670000000000004,-2.661071955046134
-0.25769999999999993,-2.70209858274222
-0.25870000000000004,-2.734636942639116
-0.25969999999999993,-2.7742488590353367
-0.26070000000000004,-2.820934331930883
-0.26169999999999993,-2.867619804826429
-0.26270000000000004,-2.9072317212226504
-0.26369999999999993,-2.9482583489187366
-0.26470000000000005,-2.9864555540150928
-0.26569999999999994,-3.031726315610774
-0.26670000000000005,-3.076997077206455
-0.26769999999999994,-3.126511972701731
-0.26870000000000005,-3.1703680229975473
-0.26969999999999994,-3.2198829184928233
-0.27070000000000005,-3.265153680088505
-0.27169999999999994,-3.310424441684186
-0.27270000000000005,-3.3641834710790572
-0.27369999999999994,-3.4165277891740633
-0.27470000000000006,-3.4660426846693397
-0.27569999999999995,-3.519801714064211
-0.27670000000000006,-3.5778048773586777
-0.27769999999999995,-3.6329786180534143
-0.27870000000000006,-3.686737647448285
-0.27969999999999995,-3.7433260994428865
-0.28070000000000006,-3.8069881079368133
-0.28169999999999995,-3.8621618486315503
-0.28270000000000006,-3.922994434525747
-0.28369999999999995,-3.9852417317198086
-0.28470000000000006,-4.050318451513601
-0.28569999999999995,-4.113980460007527
-0.28670000000000007,-4.177642468501453
-0.28769999999999996,-4.24696332219484
-0.28870000000000007,-4.316284175888227
-0.28969999999999996,-4.382775606981883
-0.29070000000000007,-4.45209646067527
-0.29169999999999996,-4.527076159568118
-0.29270000000000007,-4.600641147161099
-0.29369999999999996,-4.669962000854486
-0.2947000000000001,-4.747771122347063
-0.29569999999999996,-4.829824377739236
-0.2967000000000001,-4.900559942732487
-0.29769999999999996,-4.978369064225063
-0.2987000000000001,-5.0618370309171015
-0.29969999999999997,-5.1467197089090035
-0.3007000000000001,-5.22452883040158
-0.30169999999999997,-5.303752663194023
-0.3027000000000001,-5.397123608985115
-0.30369999999999997,-5.484835709576747
-0.3047000000000001,-5.569718387568649
-0.30569999999999997,-5.656015776860417
-0.3067000000000001,-5.742313166152184
-0.3077,-5.839928245842872
-0.3087000000000001,-5.9347139029338285
-0.3097,-6.025255426125191
-0.3107000000000001,-6.115796949316553
-0.3117,-6.209167895107646
-0.3127000000000001,-6.311027108697928
-0.3137,-6.414301033588076
-0.3147000000000001,-6.510501401978899
-0.3157,-6.615190038168912
-0.3167000000000001,-6.715634540459329
-0.3177,-6.825982021848802
-0.3187000000000001,-6.933500080638546
-0.3197,-7.035359294228828
-0.3207000000000001,-7.14853619821803
-0.3217,-7.258883679607503
-0.3227000000000001,-7.369231160996977
-0.3237,-7.48523748758591
-0.3247000000000001,-7.604073236774572
-0.3257,-7.715835429463911
-0.3267000000000001,-7.833256467352707
-0.3277,-7.967654040839887
-0.3287000000000001,-8.082245656128954
-0.3297,-8.198251982717888
-0.3307000000000001,-8.324161288405875
-0.3317,-8.452900016693595
-0.3327000000000001,-8.574565188481987
-0.3337,-8.693400937670651
-0.3347000000000001,-8.830627933757558
-0.3357,-8.973513775043926
-0.3367000000000001,-9.090934812932726
-0.3377,-9.222502963820174
-0.3387000000000001,-9.365388805106543
-0.3397,-9.513933491592372
-0.3407000000000001,-9.64267221988009
-0.3417,-9.775655082067402
-0.3427000000000001,-9.936932170252017
-0.3437,-10.084062145437981
-0.3447000000000001,-10.214215585025565
-0.3457,-10.367004405410988
-0.3467000000000001,-10.52403735969601
-0.3477,-10.66833791228224
-0.3487000000000001,-10.814053176168342
-0.3497,-10.989477377351605
-0.3507000000000001,-11.140851486437164
-0.3517,-11.286566750323264
-0.3527000000000001,-11.459161528906796
-0.3537,-11.637415152689792
-0.3547000000000001,-11.785959839175622
-0.3557,-11.945822216060371
-0.35670000000000013,-12.119831705943769
-0.3577,-12.299500041026628
-0.35870000000000013,-12.472094819610163
-0.3597,-12.629127773895183
-0.36070000000000013,-12.79181957337966
-0.3617,-12.984220310161305
-0.3626999999999999,-13.163888645244166
-0.3637,-13.329409867328376
-0.3646999999999999,-13.520395892810155
-0.3657,-13.700064227893014
-0.3666999999999999,-13.871244295176684
-0.3677,-14.06647445455806
-0.3686999999999999,-14.274437015638219
-0.36970000000000003,-14.444202371622024
-0.3706999999999999,-14.62811484060448
-0.37170000000000003,-14.826174422585586
-0.3726999999999999,-14.995939778569388
-0.37370000000000003,-15.137410908555893
-0.3746999999999999,-15.363764716534297
-0.37570000000000003,-15.590118524512702
-0.3766999999999999,-15.77403099349516
-0.37770000000000004,-15.972090575476265
-0.3786999999999999,-16.19844438345467
-0.37970000000000004,-16.396503965435777
-0.3806999999999999,-16.59456354741688
-0.38170000000000004,-16.792623129397985
-0.38269999999999993,-17.03312405037504
-0.38370000000000004,-17.217036519357496
-0.38469999999999993,-17.4150961013386
-0.38570000000000004,-17.641449909317007
-0.38669999999999993,-17.881950830294063
-0.38770000000000004,-18.08001041227517
-0.38869999999999993,-18.292217107254928
-0.38970000000000005,-18.53271802823198
-0.39069999999999994,-18.872248740199588
-0.39170000000000005,-19.084455435179343
-0.39269999999999994,-19.28251501716045
-0.39370000000000005,-19.537163051136158
-0.39469999999999994,-19.77766397211321
-0.39570000000000005,-19.97572355409432
-0.39669999999999994,-20.21622447507137
-0.39770000000000005,-20.48501962204573
-0.39869999999999994,-20.711373430024135
-0.39970000000000006,-20.93772723800254
-0.40069999999999995,-21.2065223849769
-0.40170000000000006,-21.503611757948562
-0.40269999999999995,-21.701671339929664
-0.40370000000000006,-21.94217226090672
-0.40469999999999995,-22.210967407881075
-0.40570000000000006,-22.479762554855434
-0.40669999999999995,-22.706116362833843
-0.40770000000000006,-22.974911509808198
-0.40869999999999995,-23.272000882779853
-0.40970000000000006,-23.597384481748815
-0.41069999999999995,-23.83788540272587
-0.41170000000000007,-24.064239210704276
-0.41269999999999996,-24.34718147067728
-0.41370000000000007,-24.64427084364894
-0.41469999999999996,-24.95550732961925
-0.41570000000000007,-25.238449589592253
-0.41669999999999996,-25.478950510569312
-0.41770000000000007,-25.747745657543668
-0.41869999999999996,-26.087276369511276
-0.4197000000000001,-26.370218629484285
-0.42069999999999996,-26.62486666345999
-0.4217000000000001,-26.89366181043435
-0.42269999999999996,-27.219045409403304
-0.4237000000000001,-27.501987669376312
-0.42469999999999997,-27.78492992934932
-0.4257000000000001,-28.05372507632368
-0.42669999999999997,-28.393255788291288
-0.4277000000000001,-28.662050935265643
-0.42869999999999997,-28.93084608224
-0.4297000000000001,-29.242082568210304
-0.43069999999999997,-29.609907506175215
-0.4317000000000001,-29.906996879146874
-0.4327,-30.189939139119886
-0.4337000000000001,-30.51532273808884
-0.4347,-30.854853450056453
-0.4357000000000001,-31.12364859703081
-0.4367,-31.46317930899841
-0.4377000000000001,-31.802710020966025
-0.4387,-32.14224073293363
-0.4397000000000001,-32.45347721890394
-0.4407,-32.73641947887695
-0.4417000000000001,-33.0335088518486
-0.4427,-33.373039563816214
-0.4437000000000001,-33.79745295377573
-0.4447,-34.06624810075008
-0.4457000000000001,-34.43407303871499
-0.4467,-34.773603750682604
-0.4477000000000001,-35.05654601065561
-0.4487,-35.396076722623214
-0.4497000000000001,-35.74975454758948
-0.4507,-36.03269680756248
-0.4517000000000001,-36.35808040653144
-0.4527,-36.78249379649095
-0.4537000000000001,-37.05128894346531
-0.4547,-37.34837831643697
-0.4557000000000001,-37.73035036740053
-0.4567,-38.11232241836409
-0.4577000000000001,-38.42355890433439
-0.4587,-38.777236729300654
-0.4597000000000001,-39.187503006261515
-0.4607,-39.48459237923317
-0.4617000000000001,-39.79582886520348
-0.4627,-40.191948029165694
-0.4637000000000001,-40.616361419125205
-0.4647,-40.92759790509552
-0.4657000000000001,-41.23883439106582
-0.4667,-41.63495355502803
-0.4677000000000001,-42.087661170984845
-0.4687,-42.4413389959511
-0.4697000000000001,-42.80916393391601
-0.4707,-43.219430210876865
-0.4717000000000001,-43.629696487837734
-0.4727,-43.94093297380804
-0.4737000000000001,-44.2946107987743
-0.4747,-44.80390686672572
-0.4757000000000001,-45.29905582167847
-0.4767,-45.624439420647434
-0.4777000000000001,-46.006411471610996
-0.4787,-46.47326620056646
-0.4797000000000001,-46.88353247752732
-0.4807,-47.20891607649628
-0.48170000000000013,-47.506005449467935
-0.4827,-47.87383038743284
-0.48370000000000013,-48.2558024383964
-0.4847,-48.82168695834242
-0.48570000000000013,-49.118776331314066
-0.4867,-48.89242252333566
-0.48570000000000013,-48.26994955139505
-0.4847,-47.77480059644228
-0.48370000000000013,-47.180621850498966
-0.4827,-46.67132578254756
-0.48170000000000013,-46.2327652795894
-0.4807,-45.70932209863933
-0.4797000000000001,-45.157584691691966
-0.4787,-44.66243573673921
-0.4777000000000001,-44.025815651799945
-0.4767,-43.58725514884178
-0.4757000000000001,-43.19113598487957
-0.4747,-42.653545690930855
-0.4737000000000001,-42.10180828398349
-0.4727,-41.63495355502803
-0.4717000000000001,-41.22468727806717
-0.4707,-40.701244097117105
-0.4697000000000001,-40.14950669016974
-0.4687,-39.71094618721158
-0.4677000000000001,-39.30067991025072
