Potential V vs RHE, Current mA cm-2
0.05339999999999995,0.6438351125685782
0.05239999999999995,0.5762119124350294
0.051399999999999946,0.5108522503812647
0.050399999999999945,0.46105441262601543
0.049399999999999944,0.4190374870200239
0.04839999999999994,0.3823964643535194
0.04739999999999994,0.3495751621966506
0.04639999999999994,0.31972475376949827
0.04539999999999994,0.29128905664221105
0.04439999999999994,0.26440954194477534
0.04339999999999994,0.23908620967719119
0.04239999999999994,0.21503611757948557
0.04139999999999994,0.1922592656516585
0.040399999999999936,0.17018976937376393
0.039399999999999935,0.14868615761581536
0.038399999999999934,0.12725328142286002
0.03739999999999993,0.10747561745074685
0.03639999999999993,0.08885801674452294
0.03539999999999993,0.07070727076725454
0.03439999999999993,0.052075522948032
0.03339999999999993,0.034335043247724434
0.03239999999999993,0.0173019191973494
0.03139999999999993,0.0012368820894720016
0.030399999999999927,-0.014599820614607179
0.029399999999999926,-0.031067060145036202
0.028399999999999925,-0.046713767121543515
0.027399999999999924,-0.061440911753138545
0.026399999999999924,-0.07589926123775922
0.025399999999999923,-0.09007466846240689
0.024399999999999922,-0.10464619485101677
0.02339999999999992,-0.11897722031864959
0.02239999999999992,-0.1320491527294025
0.02139999999999992,-0.14514937936615277
0.020399999999999918,-0.15788178106493808
0.019399999999999917,-0.17075565389370992
0.018399999999999916,-0.18377099785246825
0.017399999999999916,-0.19565457277133455
0.016399999999999915,-0.20711373430024138
0.015399999999999914,-0.2189973092191077
0.014399999999999913,-0.2310223552679605
0.013399999999999912,-0.24304740131681332
0.012399999999999911,-0.25422362058574705
0.01139999999999991,-0.26455101307476186
0.01039999999999991,-0.27530281895373615
0.009399999999999908,-0.28619609596269696
0.008399999999999908,-0.29708937297165766
0.007399999999999907,-0.3074167654606725
0.006399999999999906,-0.3168953311697682
0.005399999999999905,-0.32708125252879644
0.004399999999999904,-0.33726717388782473
0.003399999999999903,-0.34717015298688
0.002399999999999902,-0.3567901898259622
0.0013999999999999013,-0.365985813275085
0.00039999999999990044,-0.37518143672420773
-0.0006000000000001005,-0.38466000243330345
-0.0016000000000001013,-0.39385562588242623
-0.0026000000000001022,-0.4027683070715759
-0.003600000000000103,-0.4109736326107932
-0.004600000000000104,-0.4197448426699564
-0.005600000000000105,-0.42894046611907916
-0.006600000000000106,-0.4375702050482558
-0.007600000000000107,-0.4459170017174596
-0.008600000000000108,-0.45383938499670373
-0.009600000000000108,-0.4619032394059345
-0.01060000000000011,-0.4706744494650977
-0.01160000000000011,-0.47887977500431494
-0.012600000000000111,-0.4873680428035051
-0.013600000000000112,-0.4950074838227763
-0.014600000000000113,-0.502222511452088
-0.015600000000000114,-0.5102863658613187
-0.016600000000000115,-0.5183502202705494
-0.017600000000000116,-0.5254237767698746
-0.018600000000000116,-0.5327802755291728
-0.019600000000000117,-0.539853832028498
-0.020600000000000118,-0.5473518019177827
-0.02160000000000012,-0.5551327140670403
-0.02260000000000012,-0.5619233283063926
-0.02360000000000012,-0.5688554136757313
-0.024600000000000122,-0.57578749904507
-0.025600000000000123,-0.5831439978043682
-0.026600000000000124,-0.5905004965636662
-0.027600000000000124,-0.5971496396730319
-0.028600000000000125,-0.6036573116524112
-0.029600000000000126,-0.6104479258917633
-0.030600000000000127,-0.617380011261102
-0.03160000000000013,-0.6243120966304406
-0.03260000000000013,-0.6309612397398063
-0.03360000000000013,-0.6367615560692529
-0.03460000000000002,-0.6429862857886591
-0.03560000000000002,-0.6497769000280114
-0.03660000000000002,-0.6565675142673635
-0.03760000000000002,-0.6629337151167561
-0.03860000000000002,-0.6687340314462029
-0.039600000000000024,-0.6751002322955955
-0.040600000000000025,-0.6820323176649342
-0.041600000000000026,-0.6882570473843403
-0.04260000000000003,-0.6944817771037465
-0.04360000000000003,-0.7002820934331931
-0.04460000000000003,-0.7060824097626398
-0.04560000000000003,-0.7127315528720055
-0.04660000000000003,-0.7190977537213982
-0.04760000000000003,-0.7250395411808312
-0.04860000000000003,-0.730556915250305
-0.04960000000000003,-0.7363572315797515
-0.050600000000000034,-0.7431478458191038
-0.051600000000000035,-0.7495140466684964
-0.052600000000000036,-0.75503142073797
-0.053600000000000037,-0.7604073236774572
-0.05460000000000004,-0.7660661688769174
-0.05560000000000004,-0.7725738408562965
-0.05660000000000004,-0.7786570994457161
-0.05760000000000004,-0.7843159446451763
-0.05860000000000004,-0.7898333187146499
-0.05960000000000004,-0.7953506927841236
-0.06060000000000004,-0.8015754225035298
-0.061600000000000044,-0.8076586810929495
-0.06260000000000004,-0.8131760551624231
-0.06360000000000005,-0.8185519581019103
-0.06460000000000005,-0.824352274431357
-0.06560000000000005,-0.8301525907608036
-0.06660000000000005,-0.8362358493502232
-0.06760000000000005,-0.8416117522897104
-0.06860000000000005,-0.8467047129692244
-0.06960000000000005,-0.8522220870386981
-0.07060000000000005,-0.8583053456281178
-0.07160000000000005,-0.8643886042175374
-0.07260000000000005,-0.870188920546984
-0.07360000000000005,-0.8751404100965116
-0.07460000000000006,-0.8810821975559447
-0.07560000000000006,-0.8871654561453645
-0.07660000000000006,-0.8928243013448246
-0.07760000000000006,-0.8986246176742713
-0.07860000000000006,-0.9035761072237989
-0.07960000000000006,-0.9092349524232591
-0.08060000000000006,-0.9154596821426652
-0.08160000000000006,-0.9212599984721118
-0.08260000000000006,-0.9266359014115991
-0.08360000000000006,-0.931728862091113
-0.08460000000000006,-0.9373877072905734
-0.08560000000000006,-0.943753908139966
-0.08660000000000007,-0.9495542244694126
-0.08760000000000007,-0.9550715985388862
-0.08860000000000007,-0.9601645592184004
-0.08960000000000007,-0.9661063466778336
-0.09060000000000007,-0.9724725475272262
-0.09160000000000007,-0.9782728638566729
-0.09260000000000007,-0.983931709056133
-0.09360000000000007,-0.9893076119956202
-0.09460000000000007,-0.9949664571950803
-0.09560000000000007,-1.0010497157844997
-0.09660000000000007,-1.007274445503906
-0.09760000000000008,-1.0130747618333529
-0.09860000000000008,-1.0191580204227724
-0.09960000000000008,-1.024958336752219
-0.10060000000000008,-1.0309001242116522
-0.10160000000000008,-1.036983382801072
-0.10260000000000008,-1.0425007568705453
-0.10360000000000008,-1.0481596020700057
-0.10460000000000008,-1.0535355050094928
-0.10560000000000008,-1.059477292468926
-0.10660000000000008,-1.0658434933183185
-0.10760000000000008,-1.0713608673877921
-0.10860000000000009,-1.0765952991972931
-0.10960000000000009,-1.0823956155267396
-0.11060000000000009,-1.0887618163761321
-0.11160000000000009,-1.0952694883555114
-0.11260000000000009,-1.101352746944931
-0.11360000000000009,-1.1070115921443913
-0.11460000000000009,-1.1138022063837434
-0.11560000000000009,-1.1207342917530823
-0.11660000000000009,-1.1269590214724883
-0.1176000000000001,-1.1327593378019347
-0.1186000000000001,-1.1382767118714086
-0.1196000000000001,-1.1443599704608283
-0.1206000000000001,-1.1508676424402073
-0.1216000000000001,-1.1570923721596134
-0.1226000000000001,-1.1630341596190465
-0.1236000000000001,-1.1686930048185067
-0.1246000000000001,-1.174917734537913
-0.1256000000000001,-1.1818498199072518
-0.1266000000000001,-1.1880745496266578
-0.1276000000000001,-1.1942992793460638
-0.1286000000000001,-1.200241066805497
-0.1296000000000001,-1.2064657965249033
-0.1306000000000001,-1.2129734685042826
-0.1316000000000001,-1.219339669353675
-0.1326000000000001,-1.2252814568131083
-0.1336000000000001,-1.2315061865325145
-0.1346000000000001,-1.237872387381907
-0.1356000000000001,-1.2443800593612864
-0.1366000000000001,-1.2510292024706522
-0.1376000000000001,-1.2571124610600715
-0.1386000000000001,-1.2639030752994236
-0.1396000000000001,-1.2704107472788029
-0.1406000000000001,-1.277484303778128
-0.14160000000000011,-1.2842749180174802
-0.14260000000000012,-1.2902167054769134
-0.14360000000000012,-1.2964414351963194
-0.14460000000000012,-1.3029491071756987
-0.14560000000000012,-1.3097397214150508
-0.14660000000000012,-1.316813277914376
-0.14760000000000012,-1.3234624210237418
-0.14860000000000012,-1.329687150743148
-0.14960000000000012,-1.3363362938525138
-0.15060000000000012,-1.3431269080918657
-0.15160000000000012,-1.35104929137111
-0.15260000000000012,-1.3575569633504891
-0.15360000000000013,-1.3634987508099223
-0.15460000000000013,-1.3691575960093827
-0.15560000000000013,-1.3758067391187483
-0.15660000000000013,-1.3825973533581004
-0.15760000000000013,-1.389246496467466
-0.15860000000000013,-1.3954712261868722
-0.15960000000000002,-1.4024033115562107
-0.16060000000000002,-1.409759810315509
-0.16160000000000002,-1.4175407224647667
-0.16260000000000002,-1.423199567664227
-0.16360000000000002,-1.4302731241635522
-0.16460000000000002,-1.4373466806628774
-0.16560000000000002,-1.4444202371622026
-0.16660000000000003,-1.4543232162612578
-0.16760000000000003,-1.459982061460718
-0.16860000000000003,-1.4670556179600431
-0.16960000000000003,-1.472714463159503
-0.17060000000000003,-1.4812027309586933
-0.17160000000000003,-1.4882762874580184
-0.17260000000000003,-1.4939351326574788
-0.17360000000000003,-1.501008689156804
-0.17460000000000003,-1.5080822456561291
-0.17560000000000003,-1.5151558021554543
-0.17660000000000003,-1.5222293586547795
-0.17760000000000004,-1.5293029151541047
-0.17860000000000004,-1.5363764716534298
-0.17960000000000004,-1.543450028152755
-0.18060000000000004,-1.55052358465208
-0.18160000000000004,-1.5575971411514054
-0.18260000000000004,-1.5646706976507305
-0.18360000000000004,-1.5717442541500557
-0.18460000000000004,-1.5788178106493809
-0.18560000000000004,-1.585891367148706
-0.18660000000000004,-1.5929649236480312
-0.18760000000000004,-1.6000384801473564
-0.18860000000000005,-1.6056973253468165
-0.18960000000000005,-1.612770881846142
-0.19060000000000005,-1.6212591496453321
-0.19160000000000005,-1.6283327061446573
-0.19260000000000005,-1.6354062626439825
-0.19360000000000005,-1.6424798191433077
-0.19460000000000005,-1.6495533756426328
-0.19560000000000005,-1.656626932141958
-0.19660000000000005,-1.6651151999411482
-0.19760000000000005,-1.6721887564404734
-0.19860000000000005,-1.6778476016399335
-0.19960000000000006,-1.6863358694391237
-0.20060000000000006,-1.693409425938449
-0.20160000000000006,-1.700482982437774
-0.20260000000000006,-1.7075565389370995
-0.20360000000000006,-1.7146300954364246
-0.20460000000000006,-1.7217036519357498
-0.20560000000000006,-1.7301919197349398
-0.20660000000000006,-1.7372654762342652
-0.20760000000000006,-1.7457537440334552
-0.20860000000000006,-1.7514125892329155
-0.20960000000000006,-1.7584861457322407
-0.21060000000000006,-1.766974413531431
-0.21160000000000007,-1.775462681330621
-0.21260000000000007,-1.781121526530081
-0.21360000000000007,-1.7881950830294064
-0.21460000000000007,-1.7966833508285964
-0.21560000000000007,-1.8051716186277869
-0.21660000000000007,-1.813659886426977
-0.21760000000000007,-1.8207334429263025
-0.21860000000000007,-1.8278069994256272
-0.21960000000000007,-1.8348805559249526
-0.22060000000000007,-1.8433688237241426
-0.22160000000000007,-1.8518570915233332
-0.22260000000000008,-1.857515936722793
-0.22360000000000008,-1.8645894932221183
-0.22460000000000008,-1.8730777610213083
-0.22560000000000008,-1.8801513175206337
-0.22660000000000008,-1.8886395853198237
-0.22760000000000008,-1.895713141819149
-0.22860000000000008,-1.9027866983184742
-0.22960000000000008,-1.9112749661176645
-0.23060000000000008,-1.9183485226169896
-0.23160000000000008,-1.925422079116315
-0.23260000000000008,-1.933910346915505
-0.23360000000000009,-1.9409839034148304
-0.2346000000000001,-1.9480574599141556
-0.2356000000000001,-1.9565457277133458
-0.2366000000000001,-1.963619284212671
-0.2376000000000001,-1.9706928407119961
-0.2386000000000001,-1.9777663972113213
-0.2396000000000001,-1.9862546650105113
-0.2406000000000001,-1.9947429328097017
-0.2416000000000001,-2.0032312006088917
-0.2426000000000001,-2.0103047571082175
-0.2436000000000001,-2.0187930249074073
-0.2446000000000001,-2.0272812927065975
-0.2456000000000001,-2.0357695605057877
-0.2466000000000001,-2.042843117005113
-0.2476000000000001,-2.051331384804303
-0.2486000000000001,-2.0584049413036287
-0.2496000000000001,-2.0654784978029537
-0.2506000000000001,-2.072552054302279
-0.2516000000000001,-2.081040322101469
-0.2526000000000001,-2.0895285899006595
-0.2536000000000001,-2.0966021463999844
-0.2546000000000001,-2.105090414199175
-0.2556000000000001,-2.113578681998365
-0.2566000000000001,-2.122066949797555
-0.2576000000000001,-2.1305552175967453
-0.2586000000000001,-2.13762877409607
-0.2596000000000001,-2.1475317531951257
-0.2606000000000001,-2.1546053096944506
-0.2616000000000001,-2.1630935774936413
-0.2626000000000001,-2.1701671339929662
-0.2636000000000001,-2.178655401792157
-0.2646000000000001,-2.1871436695913467
-0.2656000000000001,-2.1956319373905373
-0.2666000000000001,-2.204120205189727
-0.2676000000000001,-2.2126084729889177
-0.2686000000000001,-2.2196820294882422
-0.2696000000000001,-2.228170297287433
-0.2706000000000001,-2.2366585650866226
-0.2716000000000001,-2.2451468328858133
-0.2726000000000001,-2.2522203893851382
-0.2736000000000001,-2.260708657184329
-0.2746000000000001,-2.2677822136836534
-0.2756000000000001,-2.276270481482844
-0.2766000000000001,-2.283344037982169
-0.2776000000000001,-2.2918323057813597
-0.2786000000000001,-2.298905862280684
-0.2796000000000001,-2.307394130079875
-0.2806000000000001,-2.3158823978790646
-0.28160000000000013,-2.3243706656782552
-0.28260000000000013,-2.3328589334774454
-0.28360000000000013,-2.3413472012766356
-0.2846,-2.349835469075826
-0.2856,-2.358323736875016
-0.2866,-2.3668120046742067
-0.2876,-2.3767149837732613
-0.2886,-2.383788540272587
-0.2896,-2.392276808071777
-0.2906,-2.4007650758709675
-0.2916,-2.4092533436701573
-0.2926,-2.417741611469348
-0.2936,-2.427644590568403
-0.29460000000000003,-2.436132858367593
-0.29560000000000003,-2.4446211261667834
-0.29660000000000003,-2.4545241052658384
-0.29760000000000003,-2.463012373065029
-0.29860000000000003,-2.4715006408642193
-0.29960000000000003,-2.4814036199632743
-0.30060000000000003,-2.4913065990623298
-0.30160000000000003,-2.49979486686152
-0.30260000000000004,-2.50828313466071
-0.30360000000000004,-2.518186113759765
-0.30460000000000004,-2.5266743815589554
-0.30560000000000004,-2.536577360658011
-0.30660000000000004,-2.5478950510569307
-0.30760000000000004,-2.5592127414558514
-0.30860000000000004,-2.5691157205549064
-0.30960000000000004,-2.579018699653962
-0.31060000000000004,-2.587506967453152
-0.31160000000000004,-2.597409946552207
-0.31260000000000004,-2.6073129256512626
-0.31360000000000005,-2.6172159047503176
-0.31460000000000005,-2.624289461249643
-0.31560000000000005,-2.6327777290488332
-0.31660000000000005,-2.6440954194477535
-0.31760000000000005,-2.6539983985468085
-0.31860000000000005,-2.663901377645864
-0.31960000000000005,-2.6738043567449195
-0.32060000000000005,-2.6851220471438397
-0.32160000000000005,-2.6950250262428948
-0.32260000000000005,-2.706342716641815
-0.32360000000000005,-2.7148309844410052
-0.32460000000000006,-2.7247339635400607
-0.32560000000000006,-2.7360516539389814
-0.32660000000000006,-2.7473693443379013
-0.32760000000000006,-2.7572723234369563
-0.32860000000000006,-2.768590013835877
-0.32960000000000006,-2.778492992934932
-0.33060000000000006,-2.788395972033987
-0.33160000000000006,-2.8011283737327726
-0.33260000000000006,-2.811031352831828
-0.33360000000000006,-2.822349043230748
-0.33460000000000006,-2.8308373110299385
-0.33560000000000006,-2.842155001428859
-0.33660000000000007,-2.852057980527914
-0.33760000000000007,-2.863375670926834
-0.33860000000000007,-2.8732786500258896
-0.33960000000000007,-2.8845963404248094
-0.34060000000000007,-2.897328742123595
-0.34160000000000007,-2.9086464325225156
-0.34260000000000007,-2.9185494116215707
-0.34360000000000007,-2.9298671020204905
-0.3446000000000001,-2.941184792419411
-0.3456000000000001,-2.9525024828183315
-0.3466000000000001,-2.965234884517117
-0.34759999999999996,-2.976552574916037
-0.3486000000000001,-2.9878702653149576
-0.34959999999999997,-3.000602667013743
-0.3506000000000001,-3.0119203574126634
-0.35159999999999997,-3.024652759111448
-0.3526000000000001,-3.0359704495103688
-0.35359999999999997,-3.0487028512091543
-0.3546000000000001,-3.0600205416080746
-0.35559999999999997,-3.0727529433068597
-0.3566000000000001,-3.0854853450056448
-0.3576,-3.0982177467044303
-0.3586000000000001,-3.1095354371033506
-0.3596,-3.122267838802136
-0.3606000000000001,-3.1364149518007864
-0.3616,-3.1491473534995715
-0.3626000000000001,-3.1632944664982214
-0.3636,-3.1760268681970074
-0.3646000000000001,-3.1887592698957925
-0.3656,-3.202906382894443
-0.3666000000000001,-3.217053495893093
-0.3676,-3.2297858975918787
-0.3686000000000001,-3.243933010590529
-0.3696,-3.2580801235891794
-0.3706000000000001,-3.27222723658783
-0.3716,-3.287789060886346
-0.3726000000000001,-3.3005214625851305
-0.3736,-3.314668575583781
-0.3746000000000001,-3.328815688582431
-0.3756,-3.3443775128809468
-0.3766000000000001,-3.359939337179462
-0.3776,-3.3740864501781123
-0.3786000000000001,-3.3882335631767626
-0.3796,-3.403795387475278
-0.3806000000000001,-3.4193572117737934
-0.3816,-3.434919036072309
-0.3826000000000001,-3.4490661490709593
-0.3836,-3.4646279733694745
-0.3846000000000001,-3.4816045089678553
-0.3856,-3.4971663332663705
-0.3866000000000001,-3.5141428688647514
-0.3876,-3.5297046931632665
-0.3886000000000001,-3.545266517461782
-0.3896,-3.562243053060162
-0.3906000000000001,-3.579219588658543
-0.3916,-3.5976108355567886
-0.3926000000000001,-3.6131726598553033
-0.3936,-3.630149195453684
-0.3946000000000001,-3.6485404423519294
-0.3956,-3.666931689250175
-0.3966000000000001,-3.683908224848555
-0.3976,-3.700884760446936
-0.3986000000000001,-3.7178612960453163
-0.3996,-3.7362525429435625
-0.4006000000000001,-3.7546437898418072
-0.4016,-3.7716203254401877
-0.4026000000000001,-3.7900115723384333
-0.4036,-3.8084028192366786
-0.4046000000000001,-3.8267940661349247
-0.4056,-3.8466000243330347
-0.40660000000000013,-3.8649912712312804
-0.4076,-3.884797229429391
-0.40860000000000013,-3.9046031876275014
-0.4096,-3.9244091458256123
-0.41060000000000013,-3.9428003927238575
-0.4116,-3.962606350921967
-0.41260000000000013,-3.982412309120079
-0.4136,-4.002218267318188
-0.41460000000000014,-4.0220242255163
-0.4156,-4.043244895014275
-0.41660000000000014,-4.0644655645122505
-0.4176,-4.085686234010226
-0.41860000000000014,-4.106906903508202
-0.41960000000000003,-4.126712861706312
-0.42060000000000014,-4.149348242504152
-0.42160000000000003,-4.171983623301993
-0.42260000000000014,-4.193204292799969
-0.42360000000000003,-4.214424962297944
-0.42460000000000014,-4.237060343095785
-0.42560000000000003,-4.259695723893626
-0.42660000000000015,-4.282331104691466
-0.42760000000000004,-4.303551774189442
-0.42860000000000015,-4.326187154987283
-0.42960000000000004,-4.350237247084988
-0.43060000000000015,-4.375702050482558
-0.43160000000000004,-4.402581565179994
-0.43260000000000015,-4.430875791177296
-0.43360000000000004,-4.456340594574866
-0.43460000000000015,-4.483220109272302
-0.43560000000000004,-4.508684912669872
-0.43660000000000015,-4.534149716067443
-0.43760000000000004,-4.559614519465013
-0.43860000000000016,-4.585079322862584
-0.43960000000000005,-4.61195883756002
-0.44060000000000016,-4.63742364095759
-0.44160000000000005,-4.664303155655026
-0.44260000000000016,-4.691182670352461
-0.44360000000000005,-4.719476896349762
-0.44460000000000016,-4.7463564110471985
-0.44560000000000005,-4.774650637044499
-0.44660000000000016,-4.804359574341665
-0.44760000000000005,-4.83406851163883
-0.44860000000000017,-4.863777448935997
-0.44960000000000006,-4.893486386233161
-0.45060000000000017,-4.926024746130058
