Dec. 27, 2024   15:54:18
Cyclic Voltammetry
File: c:/users/guazh/data/banditlqround7_x0exp136_r20/2024-12-24-exp759\exp759-2024-12-27t15_49_20-arkoh\exp759_cv_50mvs_efin_-1400mv.bin
Data Source:  Experiment
Instrument Model:  CHI760E
Header: CV ran at 50 mVs
Note: 

Init E (V) = -1
High E (V) = -1
Low E (V) = -1.4
Final E (V) = -1
Init P/N = N
Scan Rate (V/s) = 0.05
Segment = 7
Sample Interval (V) = 0.001
Quiet Time (sec) = 60
Sensitivity (A/V) = 0.001
Comp R (ohm) = 1.5

Results:

Channel 1:
Segment 1:

Segment 2:

Segment 3:

Segment 4:

Segment 5:

Segment 6:

Segment 7:

Potential/V, Current/A

-1.000, 8.366e-8
-1.001, 1.281e-7
-1.002, 1.616e-7
-1.003, 2.326e-7
-1.004, 2.277e-7
-1.005, 1.813e-7
-1.006, 2.297e-7
-1.007, 2.287e-7
-1.008, 2.701e-7
-1.009, 2.474e-7
-1.010, 2.405e-7
-1.011, 2.573e-7
-1.012, 2.751e-7
-1.013, 3.362e-7
-1.014, 3.096e-7
-1.015, 3.185e-7
-1.016, 2.938e-7
-1.017, 2.810e-7
-1.018, 3.570e-7
-1.019, 3.145e-7
-1.020, 3.570e-7
-1.021, 3.165e-7
-1.022, 3.451e-7
-1.023, 3.875e-7
-1.024, 3.560e-7
-1.025, 3.717e-7
-1.026, 3.757e-7
-1.027, 4.102e-7
-1.028, 4.418e-7
-1.029, 4.635e-7
-1.030, 3.895e-7
-1.031, 4.309e-7
-1.032, 3.994e-7
-1.033, 4.517e-7
-1.034, 4.586e-7
-1.035, 4.250e-7
-1.036, 4.379e-7
-1.037, 4.428e-7
-1.038, 4.803e-7
-1.039, 4.714e-7
-1.040, 4.329e-7
-1.041, 4.744e-7
-1.042, 4.822e-7
-1.043, 4.980e-7
-1.044, 5.000e-7
-1.045, 4.980e-7
-1.046, 4.517e-7
-1.047, 5.188e-7
-1.048, 5.464e-7
-1.049, 5.375e-7
-1.050, 5.197e-7
-1.051, 4.803e-7
-1.052, 5.257e-7
-1.053, 5.710e-7
-1.054, 5.681e-7
-1.055, 5.533e-7
-1.056, 5.266e-7
-1.057, 5.572e-7
-1.058, 6.115e-7
-1.059, 5.720e-7
-1.060, 5.681e-7
-1.061, 5.533e-7
-1.062, 5.651e-7
-1.063, 5.937e-7
-1.064, 5.927e-7
-1.065, 6.046e-7
-1.066, 5.947e-7
-1.067, 6.026e-7
-1.068, 6.135e-7
-1.069, 6.352e-7
-1.070, 5.957e-7
-1.071, 6.214e-7
-1.072, 6.253e-7
-1.073, 6.411e-7
-1.074, 6.421e-7
-1.075, 6.440e-7
-1.076, 5.898e-7
-1.077, 6.658e-7
-1.078, 7.023e-7
-1.079, 6.490e-7
-1.080, 6.628e-7
-1.081, 6.283e-7
-1.082, 6.934e-7
-1.083, 7.368e-7
-1.084, 6.667e-7
-1.085, 7.299e-7
-1.086, 6.500e-7
-1.087, 7.111e-7
-1.088, 7.407e-7
-1.089, 6.954e-7
-1.090, 7.388e-7
-1.091, 6.776e-7
-1.092, 7.032e-7
-1.093, 7.812e-7
-1.094, 7.397e-7
-1.095, 7.319e-7
-1.096, 7.328e-7
-1.097, 7.358e-7
-1.098, 7.861e-7
-1.099, 7.457e-7
-1.100, 7.476e-7
-1.101, 7.476e-7
-1.102, 7.713e-7
-1.103, 7.841e-7
-1.104, 7.999e-7
-1.105, 7.841e-7
-1.106, 7.447e-7
-1.107, 8.137e-7
-1.108, 8.315e-7
-1.109, 8.463e-7
-1.110, 7.911e-7
-1.111, 7.989e-7
-1.112, 8.049e-7
-1.113, 8.798e-7
-1.114, 8.414e-7
-1.115, 8.305e-7
-1.116, 8.364e-7
-1.117, 8.473e-7
-1.118, 8.591e-7
-1.119, 8.354e-7
-1.120, 8.828e-7
-1.121, 8.226e-7
-1.122, 8.779e-7
-1.123, 8.986e-7
-1.124, 8.976e-7
-1.125, 8.828e-7
-1.126, 8.601e-7
-1.127, 8.966e-7
-1.128, 9.173e-7
-1.129, 9.262e-7
-1.130, 9.321e-7
-1.131, 8.897e-7
-1.132, 9.341e-7
-1.133, 9.607e-7
-1.134, 9.578e-7
-1.135, 9.440e-7
-1.136, 9.262e-7
-1.137, 9.420e-7
-1.138, 9.894e-7
-1.139, 9.815e-7
-1.140, 9.598e-7
-1.141, 9.657e-7
-1.142, 9.430e-7
-1.143, 1.025e-6
-1.144, 1.004e-6
-1.145, 9.331e-7
-1.146, 9.667e-7
-1.147, 1.003e-6
-1.148, 1.042e-6
-1.149, 1.062e-6
-1.150, 9.795e-7
-1.151, 9.834e-7
-1.152, 9.884e-7
-1.153, 1.062e-6
-1.154, 1.036e-6
-1.155, 1.018e-6
-1.156, 1.019e-6
-1.157, 1.023e-6
-1.158, 1.068e-6
-1.159, 1.086e-6
-1.160, 1.040e-6
-1.161, 1.060e-6
-1.162, 1.052e-6
-1.163, 1.094e-6
-1.164, 1.106e-6
-1.165, 1.057e-6
-1.166, 1.052e-6
-1.167, 1.110e-6
-1.168, 1.092e-6
-1.169, 1.117e-6
-1.170, 1.094e-6
-1.171, 1.091e-6
-1.172, 1.147e-6
-1.173, 1.112e-6
-1.174, 1.161e-6
-1.175, 1.115e-6
-1.176, 1.106e-6
-1.177, 1.152e-6
-1.178, 1.143e-6
-1.179, 1.172e-6
-1.180, 1.141e-6
-1.181, 1.138e-6
-1.182, 1.194e-6
-1.183, 1.191e-6
-1.184, 1.212e-6
-1.185, 1.190e-6
-1.186, 1.161e-6
-1.187, 1.197e-6
-1.188, 1.204e-6
-1.189, 1.218e-6
-1.190, 1.204e-6
-1.191, 1.160e-6
-1.192, 1.230e-6
-1.193, 1.243e-6
-1.194, 1.219e-6
-1.195, 1.246e-6
-1.196, 1.200e-6
-1.197, 1.221e-6
-1.198, 1.259e-6
-1.199, 1.264e-6
-1.200, 1.245e-6
-1.201, 1.224e-6
-1.202, 1.285e-6
-1.203, 1.293e-6
-1.204, 1.309e-6
-1.205, 1.234e-6
-1.206, 1.261e-6
-1.207, 1.296e-6
-1.208, 1.303e-6
-1.209, 1.281e-6
-1.210, 1.318e-6
-1.211, 1.280e-6
-1.212, 1.305e-6
-1.213, 1.328e-6
-1.214, 1.325e-6
-1.215, 1.299e-6
-1.216, 1.298e-6
-1.217, 1.328e-6
-1.218, 1.355e-6
-1.219, 1.348e-6
-1.220, 1.353e-6
-1.221, 1.319e-6
-1.222, 1.388e-6
-1.223, 1.371e-6
-1.224, 1.375e-6
-1.225, 1.359e-6
-1.226, 1.310e-6
-1.227, 1.386e-6
-1.228, 1.394e-6
-1.229, 1.395e-6
-1.230, 1.422e-6
-1.231, 1.390e-6
-1.232, 1.406e-6
-1.233, 1.482e-6
-1.234, 1.429e-6
-1.235, 1.429e-6
-1.236, 1.397e-6
-1.237, 1.482e-6
-1.238, 1.498e-6
-1.239, 1.517e-6
-1.240, 1.450e-6
-1.241, 1.450e-6
-1.242, 1.475e-6
-1.243, 1.539e-6
-1.244, 1.511e-6
-1.245, 1.474e-6
-1.246, 1.498e-6
-1.247, 1.504e-6
-1.248, 1.533e-6
-1.249, 1.520e-6
-1.250, 1.491e-6
-1.251, 1.509e-6
-1.252, 1.541e-6
-1.253, 1.580e-6
-1.254, 1.581e-6
-1.255, 1.536e-6
-1.256, 1.477e-6
-1.257, 1.562e-6
-1.258, 1.596e-6
-1.259, 1.556e-6
-1.260, 1.580e-6
-1.261, 1.545e-6
-1.262, 1.603e-6
-1.263, 1.602e-6
-1.264, 1.598e-6
-1.265, 1.588e-6
-1.266, 1.615e-6
-1.267, 1.636e-6
-1.268, 1.647e-6
-1.269, 1.653e-6
-1.270, 1.628e-6
-1.271, 1.622e-6
-1.272, 1.660e-6
-1.273, 1.715e-6
-1.274, 1.675e-6
-1.275, 1.666e-6
-1.276, 1.658e-6
-1.277, 1.696e-6
-1.278, 1.760e-6
-1.279, 1.715e-6
-1.280, 1.713e-6
-1.281, 1.737e-6
-1.282, 1.754e-6
-1.283, 1.813e-6
-1.284, 1.768e-6
-1.285, 1.783e-6
-1.286, 1.757e-6
-1.287, 1.788e-6
-1.288, 1.821e-6
-1.289, 1.775e-6
-1.290, 1.787e-6
-1.291, 1.806e-6
-1.292, 1.840e-6
-1.293, 1.857e-6
-1.294, 1.845e-6
-1.295, 1.775e-6
-1.296, 1.831e-6
-1.297, 1.859e-6
-1.298, 1.887e-6
-1.299, 1.901e-6
-1.300, 1.860e-6
-1.301, 1.850e-6
-1.302, 1.914e-6
-1.303, 1.969e-6
-1.304, 1.919e-6
-1.305, 1.875e-6
-1.306, 1.917e-6
-1.307, 1.984e-6
-1.308, 1.988e-6
-1.309, 1.974e-6
-1.310, 1.939e-6
-1.311, 1.910e-6
-1.312, 2.018e-6
-1.313, 2.060e-6
-1.314, 2.008e-6
-1.315, 1.965e-6
-1.316, 2.002e-6
-1.317, 2.042e-6
-1.318, 2.093e-6
-1.319, 2.075e-6
-1.320, 2.036e-6
-1.321, 2.033e-6
-1.322, 2.098e-6
-1.323, 2.143e-6
-1.324, 2.091e-6
-1.325, 2.096e-6
-1.326, 2.088e-6
-1.327, 2.109e-6
-1.328, 2.170e-6
-1.329, 2.190e-6
-1.330, 2.109e-6
-1.331, 2.160e-6
-1.332, 2.227e-6
-1.333, 2.192e-6
-1.334, 2.256e-6
-1.335, 2.149e-6
-1.336, 2.237e-6
-1.337, 2.242e-6
-1.338, 2.266e-6
-1.339, 2.283e-6
-1.340, 2.252e-6
-1.341, 2.232e-6
-1.342, 2.348e-6
-1.343, 2.334e-6
-1.344, 2.348e-6
-1.345, 2.345e-6
-1.346, 2.329e-6
-1.347, 2.351e-6
-1.348, 2.377e-6
-1.349, 2.376e-6
-1.350, 2.360e-6
-1.351, 2.377e-6
-1.352, 2.433e-6
-1.353, 2.474e-6
-1.354, 2.444e-6
-1.355, 2.436e-6
-1.356, 2.449e-6
-1.357, 2.497e-6
-1.358, 2.541e-6
-1.359, 2.501e-6
-1.360, 2.486e-6
-1.361, 2.454e-6
-1.362, 2.550e-6
-1.363, 2.595e-6
-1.364, 2.593e-6
-1.365, 2.529e-6
-1.366, 2.568e-6
-1.367, 2.585e-6
-1.368, 2.664e-6
-1.369, 2.614e-6
-1.370, 2.646e-6
-1.371, 2.654e-6
-1.372, 2.709e-6
-1.373, 2.735e-6
-1.374, 2.742e-6
-1.375, 2.676e-6
-1.376, 2.711e-6
-1.377, 2.782e-6
-1.378, 2.794e-6
-1.379, 2.807e-6
-1.380, 2.782e-6
-1.381, 2.838e-6
-1.382, 2.861e-6
-1.383, 2.909e-6
-1.384, 2.906e-6
-1.385, 2.879e-6
-1.386, 2.894e-6
-1.387, 2.959e-6
-1.388, 2.985e-6
-1.389, 3.016e-6
-1.390, 2.949e-6
-1.391, 3.014e-6
-1.392, 3.076e-6
-1.393, 3.119e-6
-1.394, 3.111e-6
-1.395, 3.110e-6
-1.396, 3.140e-6
-1.397, 3.166e-6
-1.398, 3.262e-6
-1.399, 3.196e-6
-1.400, 2.984e-6
-1.399, 2.778e-6
-1.398, 2.680e-6
-1.397, 2.667e-6
-1.396, 2.507e-6
-1.395, 2.396e-6
-1.394, 2.352e-6
-1.393, 2.301e-6
-1.392, 2.296e-6
-1.391, 2.189e-6
-1.390, 2.140e-6
-1.389, 2.039e-6
-1.388, 2.044e-6
-1.387, 2.028e-6
-1.386, 1.983e-6
-1.385, 1.859e-6
-1.384, 1.837e-6
-1.383, 1.826e-6
-1.382, 1.816e-6
-1.381, 1.752e-6
-1.380, 1.682e-6
-1.379, 1.655e-6
-1.378, 1.642e-6
-1.377, 1.664e-6
-1.376, 1.580e-6
-1.375, 1.527e-6
-1.374, 1.481e-6
-1.373, 1.480e-6
-1.372, 1.484e-6
-1.371, 1.438e-6
-1.370, 1.408e-6
-1.369, 1.374e-6
-1.368, 1.315e-6
-1.367, 1.388e-6
-1.366, 1.285e-6
-1.365, 1.313e-6
-1.364, 1.253e-6
-1.363, 1.278e-6
-1.362, 1.275e-6
-1.361, 1.250e-6
-1.360, 1.138e-6
-1.359, 1.178e-6
-1.358, 1.150e-6
-1.357, 1.177e-6
-1.356, 1.109e-6
-1.355, 9.973e-7
-1.354, 1.019e-6
-1.353, 1.093e-6
-1.352, 1.074e-6
-1.351, 1.032e-6
-1.350, 9.548e-7
-1.349, 9.440e-7
-1.348, 9.746e-7
-1.347, 9.578e-7
-1.346, 9.420e-7
-1.345, 8.414e-7
-1.344, 8.690e-7
-1.343, 9.233e-7
-1.342, 9.055e-7
-1.341, 8.226e-7
-1.340, 8.483e-7
-1.339, 7.891e-7
-1.338, 8.739e-7
-1.337, 8.384e-7
-1.336, 7.871e-7
-1.335, 7.585e-7
-1.334, 7.555e-7
-1.333, 8.177e-7
-1.332, 7.338e-7
-1.331, 6.963e-7
-1.330, 7.269e-7
-1.329, 6.954e-7
-1.328, 7.161e-7
-1.327, 6.954e-7
-1.326, 6.293e-7
-1.325, 6.697e-7
-1.324, 6.362e-7
-1.323, 6.648e-7
-1.322, 6.658e-7
-1.321, 5.937e-7
-1.320, 5.651e-7
-1.319, 5.947e-7
-1.318, 6.204e-7
-1.317, 6.036e-7
-1.316, 5.592e-7
-1.315, 5.424e-7
-1.314, 5.217e-7
-1.313, 5.691e-7
-1.312, 5.138e-7
-1.311, 5.424e-7
-1.310, 4.744e-7
-1.309, 4.832e-7
-1.308, 4.882e-7
-1.307, 5.128e-7
-1.306, 4.704e-7
-1.305, 4.487e-7
-1.304, 4.536e-7
-1.303, 4.714e-7
-1.302, 4.586e-7
-1.301, 4.467e-7
-1.300, 3.935e-7
-1.299, 4.142e-7
-1.298, 4.615e-7
-1.297, 4.674e-7
-1.296, 4.053e-7
-1.295, 3.658e-7
-1.294, 3.747e-7
-1.293, 3.915e-7
-1.292, 3.895e-7
-1.291, 3.441e-7
-1.290, 3.027e-7
-1.289, 3.204e-7
-1.288, 3.994e-7
-1.287, 3.885e-7
-1.286, 2.958e-7
-1.285, 3.145e-7
-1.284, 3.185e-7
-1.283, 3.412e-7
-1.282, 3.540e-7
-1.281, 3.086e-7
-1.280, 2.810e-7
-1.279, 2.405e-7
-1.278, 2.889e-7
-1.277, 3.323e-7
-1.276, 2.691e-7
-1.275, 2.277e-7
-1.274, 2.238e-7
-1.273, 2.514e-7
-1.272, 2.366e-7
-1.271, 2.553e-7
-1.270, 2.129e-7
-1.269, 2.030e-7
-1.268, 2.465e-7
-1.267, 2.129e-7
-1.266, 2.139e-7
-1.265, 2.198e-7
-1.264, 1.833e-7
-1.263, 2.297e-7
-1.262, 2.178e-7
-1.261, 1.813e-7
-1.260, 1.517e-7
-1.259, 1.695e-7
-1.258, 2.070e-7
-1.257, 2.099e-7
-1.256, 1.636e-7
-1.255, 1.172e-7
-1.254, 9.748e-8
-1.253, 1.527e-7
-1.252, 1.971e-7
-1.251, 1.429e-7
-1.250, 1.073e-7
-1.249, 1.300e-7
-1.248, 1.379e-7
-1.247, 1.685e-7
-1.246, 5.998e-8
-1.245, 9.945e-8
-1.244, 9.353e-8
-1.243, 9.057e-8
-1.242, 1.330e-7
-1.241, 8.860e-8
-1.240, 6.393e-8
-1.239, 1.142e-7
-1.238, 8.761e-8
-1.237, 1.093e-7
-1.236, 4.025e-8
-1.235, 4.321e-8
-1.234, 4.124e-8
-1.233, 7.577e-8
-1.232, 7.972e-8
-1.231, 5.900e-8
-1.230, 2.447e-8
-1.229, 3.039e-8
-1.228, 6.294e-8
-1.227, 5.111e-8
-1.226, 2.940e-8
-1.225, -6.117e-9
-1.224, -8.090e-9
-1.223, 4.420e-8
-1.222, 8.682e-9
-1.221, -4.854e-8
-1.220, -1.184e-9
-1.219, -1.500e-8
-1.218, -7.103e-9
-1.217, -2.388e-8
-1.216, -5.545e-8
-1.215, -5.347e-8
-1.214, -5.347e-8
-1.213, 1.263e-8
-1.212, 4.736e-9
-1.211, -4.459e-8
-1.210, -8.110e-8
-1.209, -4.558e-8
-1.208, -2.486e-8
-1.207, -1.697e-8
-1.206, -6.038e-8
-1.205, -6.038e-8
-1.204, -9.491e-8
-1.203, -1.500e-8
-1.202, -1.401e-8
-1.201, -6.038e-8
-1.200, -9.688e-8
-1.199, -4.953e-8
-1.198, -6.433e-8
-1.197, -5.643e-8
-1.196, -9.392e-8
-1.195, -1.117e-7
-1.194, -1.077e-7
-1.193, -7.123e-8
-1.192, -7.321e-8
-1.191, -9.096e-8
-1.190, -1.541e-7
-1.189, -1.048e-7
-1.188, -6.630e-8
-1.187, -9.096e-8
-1.186, -1.097e-7
-1.185, -1.215e-7
-1.184, -1.502e-7
-1.183, -8.603e-8
-1.182, -1.571e-7
-1.181, -1.206e-7
-1.180, -1.699e-7
-1.179, -1.196e-7
-1.178, -6.433e-8
-1.177, -1.630e-7
-1.176, -1.304e-7
-1.175, -1.877e-7
-1.174, -1.729e-7
-1.173, -1.008e-7
-1.172, -1.442e-7
-1.171, -1.946e-7
-1.170, -1.541e-7
-1.169, -1.768e-7
-1.168, -1.393e-7
-1.167, -1.768e-7
-1.166, -2.103e-7
-1.165, -1.748e-7
-1.164, -1.857e-7
-1.163, -1.729e-7
-1.162, -2.015e-7
-1.161, -2.172e-7
-1.160, -2.202e-7
-1.159, -2.024e-7
-1.158, -1.847e-7
-1.157, -1.669e-7
-1.156, -2.094e-7
-1.155, -2.538e-7
-1.154, -1.788e-7
-1.153, -1.590e-7
-1.152, -1.867e-7
-1.151, -1.975e-7
-1.150, -2.607e-7
-1.149, -2.330e-7
-1.148, -2.113e-7
-1.147, -2.202e-7
-1.146, -2.360e-7
-1.145, -2.784e-7
-1.144, -2.626e-7
-1.143, -2.222e-7
-1.142, -2.626e-7
-1.141, -2.577e-7
-1.140, -3.060e-7
-1.139, -2.834e-7
-1.138, -2.232e-7
-1.137, -2.962e-7
-1.136, -2.824e-7
-1.135, -3.169e-7
-1.134, -2.587e-7
-1.133, -2.261e-7
-1.132, -2.932e-7
-1.131, -2.824e-7
-1.130, -3.228e-7
-1.129, -3.268e-7
-1.128, -2.468e-7
-1.127, -2.774e-7
-1.126, -3.060e-7
-1.125, -3.425e-7
-1.124, -3.356e-7
-1.123, -3.001e-7
-1.122, -2.903e-7
-1.121, -3.425e-7
-1.120, -3.702e-7
-1.119, -3.366e-7
-1.118, -3.218e-7
-1.117, -3.366e-7
-1.116, -3.228e-7
-1.115, -3.573e-7
-1.114, -3.001e-7
-1.113, -3.228e-7
-1.112, -3.583e-7
-1.111, -3.850e-7
-1.110, -3.968e-7
-1.109, -3.366e-7
-1.108, -3.179e-7
-1.107, -3.554e-7
-1.106, -3.810e-7
-1.105, -3.840e-7
-1.104, -3.899e-7
-1.103, -3.347e-7
-1.102, -4.086e-7
-1.101, -4.106e-7
-1.100, -4.106e-7
-1.099, -4.185e-7
-1.098, -3.475e-7
-1.097, -3.741e-7
-1.096, -4.274e-7
-1.095, -4.175e-7
-1.094, -4.284e-7
-1.093, -3.840e-7
-1.092, -3.830e-7
-1.091, -4.304e-7
-1.090, -4.353e-7
-1.089, -4.698e-7
-1.088, -4.077e-7
-1.087, -4.185e-7
-1.086, -4.619e-7
-1.085, -4.412e-7
-1.084, -4.590e-7
-1.083, -4.234e-7
-1.082, -4.363e-7
-1.081, -4.817e-7
-1.080, -5.014e-7
-1.079, -4.373e-7
-1.078, -4.540e-7
-1.077, -4.363e-7
-1.076, -4.747e-7
-1.075, -5.073e-7
-1.074, -4.412e-7
-1.073, -4.560e-7
-1.072, -4.442e-7
-1.071, -4.866e-7
-1.070, -5.379e-7
-1.069, -5.142e-7
-1.068, -4.807e-7
-1.067, -5.043e-7
-1.066, -5.241e-7
-1.065, -5.468e-7
-1.064, -4.846e-7
-1.063, -4.757e-7
-1.062, -5.152e-7
-1.061, -5.300e-7
-1.060, -5.566e-7
-1.059, -5.359e-7
-1.058, -4.669e-7
-1.057, -5.093e-7
-1.056, -5.606e-7
-1.055, -5.379e-7
-1.054, -5.478e-7
-1.053, -4.915e-7
-1.052, -5.162e-7
-1.051, -5.793e-7
-1.050, -5.547e-7
-1.049, -5.487e-7
-1.048, -5.566e-7
-1.047, -5.152e-7
-1.046, -6.119e-7
-1.045, -6.218e-7
-1.044, -5.626e-7
-1.043, -5.803e-7
-1.042, -5.280e-7
-1.041, -6.109e-7
-1.040, -6.168e-7
-1.039, -5.576e-7
-1.038, -5.714e-7
-1.037, -5.428e-7
-1.036, -6.306e-7
-1.035, -6.790e-7
-1.034, -5.902e-7
-1.033, -5.872e-7
-1.032, -5.951e-7
-1.031, -6.129e-7
-1.030, -6.444e-7
-1.029, -5.951e-7
-1.028, -6.020e-7
-1.027, -6.523e-7
-1.026, -6.148e-7
-1.025, -6.859e-7
-1.024, -6.661e-7
-1.023, -5.872e-7
-1.022, -6.494e-7
-1.021, -6.888e-7
-1.020, -6.819e-7
-1.019, -6.523e-7
-1.018, -6.859e-7
-1.017, -6.839e-7
-1.016, -7.234e-7
-1.015, -6.918e-7
-1.014, -6.711e-7
-1.013, -6.484e-7
-1.012, -6.592e-7
-1.011, -7.125e-7
-1.010, -6.869e-7
-1.009, -6.740e-7
-1.008, -6.898e-7
-1.007, -6.721e-7
-1.006, -6.869e-7
-1.005, -7.480e-7
-1.004, -7.155e-7
-1.003, -7.046e-7
-1.002, -7.046e-7
-1.001, -7.204e-7
-1.000, -6.070e-7
-1.001, -4.955e-7
-1.002, -4.382e-7
-1.003, -4.126e-7
-1.004, -4.008e-7
-1.005, -4.116e-7
-1.006, -3.514e-7
-1.007, -2.607e-7
-1.008, -2.784e-7
-1.009, -3.021e-7
-1.010, -2.764e-7
-1.011, -2.360e-7
-1.012, -1.551e-7
-1.013, -1.906e-7
-1.014, -1.837e-7
-1.015, -1.817e-7
-1.016, -1.423e-7
-1.017, -9.096e-8
-1.018, -1.087e-7
-1.019, -1.255e-7
-1.020, -1.176e-7
-1.021, -5.446e-8
-1.022, -1.401e-8
-1.023, -2.486e-8
-1.024, -4.065e-8
-1.025, -2.388e-8
-1.026, -2.486e-8
-1.027, 5.703e-8
-1.028, -2.171e-9
-1.029, -1.105e-8
-1.030, -4.144e-9
-1.031, 3.532e-8
-1.032, 4.321e-8
-1.033, 7.182e-8
-1.034, 7.774e-8
-1.035, 4.815e-8
-1.036, 8.564e-8
-1.037, 1.034e-7
-1.038, 7.972e-8
-1.039, 1.389e-7
-1.040, 9.550e-8
-1.041, 1.103e-7
-1.042, 2.080e-7
-1.043, 1.350e-7
-1.044, 1.369e-7
-1.045, 1.448e-7
-1.046, 1.892e-7
-1.047, 1.942e-7
-1.048, 2.060e-7
-1.049, 1.685e-7
-1.050, 2.030e-7
-1.051, 2.169e-7
-1.052, 2.563e-7
-1.053, 2.287e-7
-1.054, 2.139e-7
-1.055, 1.833e-7
-1.056, 2.425e-7
-1.057, 2.918e-7
-1.058, 2.622e-7
-1.059, 2.741e-7
-1.060, 2.238e-7
-1.061, 3.204e-7
-1.062, 2.968e-7
-1.063, 3.234e-7
-1.064, 2.889e-7
-1.065, 2.820e-7
-1.066, 3.135e-7
-1.067, 3.461e-7
-1.068, 3.461e-7
-1.069, 3.116e-7
-1.070, 3.037e-7
-1.071, 3.717e-7
-1.072, 3.619e-7
-1.073, 3.796e-7
-1.074, 3.412e-7
-1.075, 3.195e-7
-1.076, 4.102e-7
-1.077, 4.043e-7
-1.078, 4.004e-7
-1.079, 3.865e-7
-1.080, 3.520e-7
-1.081, 4.053e-7
-1.082, 4.635e-7
-1.083, 4.369e-7
-1.084, 4.161e-7
-1.085, 3.925e-7
-1.086, 4.517e-7
-1.087, 4.773e-7
-1.088, 4.665e-7
-1.089, 4.191e-7
-1.090, 4.171e-7
-1.091, 5.000e-7
-1.092, 5.059e-7
-1.093, 4.862e-7
-1.094, 4.477e-7
-1.095, 4.724e-7
-1.096, 5.049e-7
-1.097, 4.882e-7
-1.098, 4.832e-7
-1.099, 4.339e-7
-1.100, 5.069e-7
-1.101, 5.375e-7
-1.102, 5.365e-7
-1.103, 4.901e-7
-1.104, 5.158e-7
-1.105, 5.168e-7
-1.106, 5.651e-7
-1.107, 5.464e-7
-1.108, 5.474e-7
-1.109, 5.276e-7
-1.110, 5.336e-7
-1.111, 6.273e-7
-1.112, 5.829e-7
-1.113, 5.898e-7
-1.114, 5.612e-7
-1.115, 5.109e-7
-1.116, 5.927e-7
-1.117, 6.164e-7
-1.118, 5.947e-7
-1.119, 5.533e-7
-1.120, 5.878e-7
-1.121, 6.174e-7
-1.122, 6.421e-7
-1.123, 6.006e-7
-1.124, 5.997e-7
-1.125, 5.868e-7
-1.126, 5.987e-7
-1.127, 6.727e-7
-1.128, 6.184e-7
-1.129, 6.184e-7
-1.130, 6.263e-7
-1.131, 6.460e-7
-1.132, 6.648e-7
-1.133, 6.371e-7
-1.134, 6.184e-7
-1.135, 6.510e-7
-1.136, 6.569e-7
-1.137, 7.092e-7
-1.138, 7.200e-7
-1.139, 6.904e-7
-1.140, 6.519e-7
-1.141, 6.983e-7
-1.142, 7.121e-7
-1.143, 6.993e-7
-1.144, 6.756e-7
-1.145, 6.638e-7
-1.146, 6.727e-7
-1.147, 7.496e-7
-1.148, 7.171e-7
-1.149, 7.102e-7
-1.150, 7.230e-7
-1.151, 7.289e-7
-1.152, 7.920e-7
-1.153, 7.368e-7
-1.154, 7.319e-7
-1.155, 7.457e-7
-1.156, 7.585e-7
-1.157, 7.753e-7
-1.158, 7.891e-7
-1.159, 7.240e-7
-1.160, 7.447e-7
-1.161, 7.812e-7
-1.162, 8.128e-7
-1.163, 7.901e-7
-1.164, 7.467e-7
-1.165, 7.792e-7
-1.166, 8.216e-7
-1.167, 8.068e-7
-1.168, 8.118e-7
-1.169, 8.137e-7
-1.170, 7.555e-7
-1.171, 8.354e-7
-1.172, 8.483e-7
-1.173, 8.354e-7
-1.174, 8.118e-7
-1.175, 8.246e-7
-1.176, 8.493e-7
-1.177, 8.641e-7
-1.178, 8.562e-7
-1.179, 8.216e-7
-1.180, 8.562e-7
-1.181, 8.483e-7
-1.182, 9.124e-7
-1.183, 8.443e-7
-1.184, 8.493e-7
-1.185, 8.542e-7
-1.186, 8.433e-7
-1.187, 9.065e-7
-1.188, 9.233e-7
-1.189, 8.650e-7
-1.190, 8.572e-7
-1.191, 8.927e-7
-1.192, 9.173e-7
-1.193, 9.341e-7
-1.194, 9.085e-7
-1.195, 8.986e-7
-1.196, 9.292e-7
-1.197, 9.469e-7
-1.198, 9.262e-7
-1.199, 9.203e-7
-1.200, 9.035e-7
-1.201, 9.716e-7
-1.202, 9.430e-7
-1.203, 9.588e-7
-1.204, 9.420e-7
-1.205, 9.311e-7
-1.206, 9.509e-7
-1.207, 1.045e-6
-1.208, 9.420e-7
-1.209, 9.144e-7
-1.210, 9.509e-7
-1.211, 9.538e-7
-1.212, 1.018e-6
-1.213, 9.647e-7
-1.214, 9.657e-7
-1.215, 9.825e-7
-1.216, 9.884e-7
-1.217, 1.017e-6
-1.218, 9.746e-7
-1.219, 9.657e-7
-1.220, 9.854e-7
-1.221, 1.029e-6
-1.222, 1.039e-6
-1.223, 1.037e-6
-1.224, 9.736e-7
-1.225, 9.973e-7
-1.226, 1.049e-6
-1.227, 1.013e-6
-1.228, 1.031e-6
-1.229, 1.019e-6
-1.230, 1.008e-6
-1.231, 1.097e-6
-1.232, 1.064e-6
-1.233, 1.026e-6
-1.234, 1.050e-6
-1.235, 1.049e-6
-1.236, 1.037e-6
-1.237, 1.098e-6
-1.238, 1.089e-6
-1.239, 1.052e-6
-1.240, 1.067e-6
-1.241, 1.060e-6
-1.242, 1.135e-6
-1.243, 1.074e-6
-1.244, 1.048e-6
-1.245, 1.075e-6
-1.246, 1.125e-6
-1.247, 1.126e-6
-1.248, 1.128e-6
-1.249, 1.102e-6
-1.250, 1.122e-6
-1.251, 1.137e-6
-1.252, 1.156e-6
-1.253, 1.132e-6
-1.254, 1.112e-6
-1.255, 1.158e-6
-1.256, 1.141e-6
-1.257, 1.161e-6
-1.258, 1.177e-6
-1.259, 1.151e-6
-1.260, 1.121e-6
-1.261, 1.225e-6
-1.262, 1.217e-6
-1.263, 1.137e-6
-1.264, 1.191e-6
-1.265, 1.164e-6
-1.266, 1.237e-6
-1.267, 1.244e-6
-1.268, 1.194e-6
-1.269, 1.190e-6
-1.270, 1.219e-6
-1.271, 1.246e-6
-1.272, 1.279e-6
-1.273, 1.250e-6
-1.274, 1.221e-6
-1.275, 1.269e-6
-1.276, 1.273e-6
-1.277, 1.298e-6
-1.278, 1.302e-6
-1.279, 1.236e-6
-1.280, 1.238e-6
-1.281, 1.323e-6
-1.282, 1.328e-6
-1.283, 1.293e-6
-1.284, 1.253e-6
-1.285, 1.248e-6
-1.286, 1.342e-6
-1.287, 1.337e-6
-1.288, 1.302e-6
-1.289, 1.312e-6
-1.290, 1.291e-6
-1.291, 1.377e-6
-1.292, 1.358e-6
-1.293, 1.381e-6
-1.294, 1.366e-6
-1.295, 1.350e-6
-1.296, 1.374e-6
-1.297, 1.409e-6
-1.298, 1.392e-6
-1.299, 1.384e-6
-1.300, 1.370e-6
-1.301, 1.402e-6
-1.302, 1.442e-6
-1.303, 1.420e-6
-1.304, 1.381e-6
-1.305, 1.376e-6
-1.306, 1.470e-6
-1.307, 1.488e-6
-1.308, 1.456e-6
-1.309, 1.368e-6
-1.310, 1.425e-6
-1.311, 1.485e-6
-1.312, 1.480e-6
-1.313, 1.450e-6
-1.314, 1.430e-6
-1.315, 1.457e-6
-1.316, 1.531e-6
-1.317, 1.524e-6
-1.318, 1.454e-6
-1.319, 1.505e-6
-1.320, 1.493e-6
-1.321, 1.549e-6
-1.322, 1.557e-6
-1.323, 1.513e-6
-1.324, 1.499e-6
-1.325, 1.499e-6
-1.326, 1.553e-6
-1.327, 1.625e-6
-1.328, 1.514e-6
-1.329, 1.544e-6
-1.330, 1.605e-6
-1.331, 1.597e-6
-1.332, 1.621e-6
-1.333, 1.598e-6
-1.334, 1.605e-6
-1.335, 1.625e-6
-1.336, 1.651e-6
-1.337, 1.669e-6
-1.338, 1.677e-6
-1.339, 1.590e-6
-1.340, 1.658e-6
-1.341, 1.709e-6
-1.342, 1.716e-6
-1.343, 1.669e-6
-1.344, 1.710e-6
-1.345, 1.717e-6
-1.346, 1.787e-6
-1.347, 1.774e-6
-1.348, 1.738e-6
-1.349, 1.747e-6
-1.350, 1.794e-6
-1.351, 1.841e-6
-1.352, 1.850e-6
-1.353, 1.783e-6
-1.354, 1.824e-6
-1.355, 1.816e-6
-1.356, 1.872e-6
-1.357, 1.905e-6
-1.358, 1.874e-6
-1.359, 1.844e-6
-1.360, 1.897e-6
-1.361, 1.943e-6
-1.362, 1.942e-6
-1.363, 1.976e-6
-1.364, 1.935e-6
-1.365, 1.952e-6
-1.366, 2.011e-6
-1.367, 1.992e-6
-1.368, 1.980e-6
-1.369, 1.955e-6
-1.370, 2.030e-6
-1.371, 2.066e-6
-1.372, 2.095e-6
-1.373, 2.071e-6
-1.374, 2.039e-6
-1.375, 2.070e-6
-1.376, 2.162e-6
-1.377, 2.124e-6
-1.378, 2.182e-6
-1.379, 2.157e-6
-1.380, 2.183e-6
-1.381, 2.215e-6
-1.382, 2.243e-6
-1.383, 2.224e-6
-1.384, 2.211e-6
-1.385, 2.241e-6
-1.386, 2.322e-6
-1.387, 2.319e-6
-1.388, 2.321e-6
-1.389, 2.288e-6
-1.390, 2.353e-6
-1.391, 2.385e-6
-1.392, 2.398e-6
-1.393, 2.424e-6
-1.394, 2.388e-6
-1.395, 2.464e-6
-1.396, 2.499e-6
-1.397, 2.496e-6
-1.398, 2.512e-6
-1.399, 2.455e-6
-1.400, 2.276e-6
-1.399, 2.159e-6
-1.398, 2.032e-6
-1.397, 1.968e-6
-1.396, 1.891e-6
-1.395, 1.873e-6
-1.394, 1.855e-6
-1.393, 1.806e-6
-1.392, 1.726e-6
-1.391, 1.629e-6
-1.390, 1.636e-6
-1.389, 1.644e-6
-1.388, 1.557e-6
-1.387, 1.512e-6
-1.386, 1.473e-6
-1.385, 1.447e-6
-1.384, 1.488e-6
-1.383, 1.410e-6
-1.382, 1.371e-6
-1.381, 1.332e-6
-1.380, 1.290e-6
-1.379, 1.355e-6
-1.378, 1.328e-6
-1.377, 1.267e-6
-1.376, 1.217e-6
-1.375, 1.164e-6
-1.374, 1.230e-6
-1.373, 1.155e-6
-1.372, 1.090e-6
-1.371, 1.115e-6
-1.370, 1.119e-6
-1.369, 1.125e-6
-1.368, 1.066e-6
-1.367, 9.933e-7
-1.366, 9.953e-7
-1.365, 1.005e-6
-1.364, 1.011e-6
-1.363, 1.009e-6
-1.362, 9.538e-7
-1.361, 9.242e-7
-1.360, 9.292e-7
-1.359, 9.607e-7
-1.358, 9.341e-7
-1.357, 8.917e-7
-1.356, 8.276e-7
-1.355, 8.818e-7
-1.354, 8.552e-7
-1.353, 8.601e-7
-1.352, 8.108e-7
-1.351, 7.664e-7
-1.350, 7.891e-7
-1.349, 8.147e-7
-1.348, 7.644e-7
-1.347, 7.674e-7
-1.346, 7.062e-7
-1.345, 7.358e-7
-1.344, 7.190e-7
-1.343, 7.111e-7
-1.342, 6.687e-7
-1.341, 6.421e-7
-1.340, 6.569e-7
-1.339, 7.032e-7
-1.338, 6.125e-7
-1.337, 6.204e-7
-1.336, 5.888e-7
-1.335, 6.016e-7
-1.334, 6.154e-7
-1.333, 6.026e-7
-1.332, 5.770e-7
-1.331, 5.257e-7
-1.330, 5.227e-7
-1.329, 5.977e-7
-1.328, 5.266e-7
-1.327, 5.286e-7
-1.326, 4.536e-7
-1.325, 4.921e-7
-1.324, 5.444e-7
-1.323, 4.783e-7
-1.322, 4.704e-7
-1.321, 4.171e-7
-1.320, 4.615e-7
-1.319, 5.237e-7
-1.318, 4.507e-7
-1.317, 4.359e-7
-1.316, 4.092e-7
-1.315, 4.161e-7
-1.314, 4.388e-7
-1.313, 4.033e-7
-1.312, 4.083e-7
-1.311, 3.856e-7
-1.310, 4.073e-7
-1.309, 4.231e-7
-1.308, 3.856e-7
-1.307, 3.639e-7
-1.306, 3.441e-7
-1.305, 3.540e-7
-1.304, 4.073e-7
-1.303, 3.204e-7
-1.302, 3.629e-7
-1.301, 2.978e-7
-1.300, 2.997e-7
-1.299, 3.254e-7
-1.298, 3.244e-7
-1.297, 2.987e-7
-1.296, 2.859e-7
-1.295, 2.603e-7
-1.294, 3.491e-7
-1.293, 3.106e-7
-1.292, 2.830e-7
-1.291, 2.465e-7
-1.290, 2.820e-7
-1.289, 3.185e-7
-1.288, 2.770e-7
-1.287, 2.534e-7
-1.286, 2.465e-7
-1.285, 2.178e-7
-1.284, 2.997e-7
-1.283, 2.484e-7
-1.282, 1.892e-7
-1.281, 1.961e-7
-1.280, 1.764e-7
-1.279, 1.912e-7
-1.278, 2.514e-7
-1.277, 1.665e-7
-1.276, 1.784e-7
-1.275, 2.050e-7
-1.274, 2.099e-7
-1.273, 1.902e-7
-1.272, 1.685e-7
-1.271, 1.665e-7
-1.270, 1.892e-7
-1.269, 2.228e-7
-1.268, 2.119e-7
-1.267, 1.202e-7
-1.266, 1.241e-7
-1.265, 2.149e-7
-1.264, 1.695e-7
-1.263, 1.557e-7
-1.262, 1.290e-7
-1.261, 1.103e-7
-1.260, 1.458e-7
-1.259, 1.557e-7
-1.258, 1.083e-7
-1.257, 1.290e-7
-1.256, 9.945e-8
-1.255, 1.073e-7
-1.254, 1.054e-7
-1.253, 7.182e-8
-1.252, 1.093e-7
-1.251, 7.281e-8
-1.250, 5.505e-8
-1.249, 1.369e-7
-1.248, 5.998e-8
-1.247, 4.617e-8
-1.246, 3.236e-8
-1.245, 2.249e-8
-1.244, 9.353e-8
-1.243, 5.308e-8
-1.242, -1.006e-8
-1.241, 2.743e-8
-1.240, 3.433e-8
-1.239, 5.407e-8
-1.238, 7.972e-8
-1.237, -1.697e-8
-1.236, 6.709e-9
-1.235, 5.801e-8
-1.234, 5.900e-8
-1.233, 4.716e-8
-1.232, -3.867e-8
-1.231, -3.177e-8
-1.230, 2.447e-8
-1.229, 2.052e-8
-1.228, 8.682e-9
-1.227, -3.966e-8
-1.226, -5.347e-8
-1.225, -2.684e-8
-1.224, -1.973e-10
-1.223, -4.459e-8
-1.222, -5.150e-8
-1.221, -7.518e-8
-1.220, -2.782e-8
-1.219, -2.782e-8
-1.218, -4.755e-8
-1.217, -6.531e-8
-1.216, -5.939e-8
-1.215, -5.051e-8
-1.214, -2.388e-8
-1.213, -1.028e-7
-1.212, -6.926e-8
-1.211, -4.854e-8
-1.210, -4.854e-8
-1.209, -4.953e-8
-1.208, -1.176e-7
-1.207, -7.222e-8
-1.206, -1.127e-7
-1.205, -1.067e-7
-1.204, -2.782e-8
-1.203, -1.117e-7
-1.202, -1.245e-7
-1.201, -1.196e-7
-1.200, -8.307e-8
-1.199, -7.518e-8
-1.198, -1.127e-7
-1.197, -1.640e-7
-1.196, -1.225e-7
-1.195, -1.265e-7
-1.194, -6.827e-8
-1.193, -1.265e-7
-1.192, -1.285e-7
-1.191, -1.541e-7
-1.190, -1.334e-7
-1.189, -1.373e-7
-1.188, -1.275e-7
-1.187, -2.005e-7
-1.186, -1.511e-7
-1.185, -1.472e-7
-1.184, -1.462e-7
-1.183, -1.561e-7
-1.182, -1.886e-7
-1.181, -2.005e-7
-1.180, -1.590e-7
-1.179, -1.669e-7
-1.178, -1.590e-7
-1.177, -1.827e-7
-1.176, -2.301e-7
-1.175, -1.413e-7
-1.174, -2.015e-7
-1.173, -1.965e-7
-1.172, -2.459e-7
-1.171, -2.478e-7
-1.170, -1.955e-7
-1.169, -1.955e-7
-1.168, -2.459e-7
-1.167, -2.459e-7
-1.166, -2.962e-7
-1.165, -2.212e-7
-1.164, -2.242e-7
-1.163, -2.390e-7
-1.162, -2.646e-7
-1.161, -2.656e-7
-1.160, -2.409e-7
-1.159, -2.478e-7
-1.158, -2.528e-7
-1.157, -2.863e-7
-1.156, -2.498e-7
-1.155, -2.538e-7
-1.154, -2.380e-7
-1.153, -2.903e-7
-1.152, -2.952e-7
-1.151, -3.011e-7
-1.150, -2.360e-7
-1.149, -2.824e-7
-1.148, -2.764e-7
-1.147, -3.445e-7
-1.146, -3.189e-7
-1.145, -2.666e-7
-1.144, -2.646e-7
-1.143, -2.774e-7
-1.142, -3.485e-7
-1.141, -3.189e-7
-1.140, -2.903e-7
-1.139, -3.031e-7
-1.138, -3.031e-7
-1.137, -3.475e-7
-1.136, -3.603e-7
-1.135, -2.824e-7
-1.134, -2.922e-7
-1.133, -3.386e-7
-1.132, -3.583e-7
-1.131, -3.603e-7
-1.130, -3.090e-7
-1.129, -3.001e-7
-1.128, -3.554e-7
-1.127, -3.682e-7
-1.126, -3.238e-7
-1.125, -3.268e-7
-1.124, -3.258e-7
-1.123, -3.554e-7
-1.122, -3.899e-7
-1.121, -3.860e-7
-1.120, -3.435e-7
-1.119, -3.465e-7
-1.118, -3.386e-7
-1.117, -3.988e-7
-1.116, -4.254e-7
-1.115, -3.228e-7
-1.114, -3.702e-7
-1.113, -4.363e-7
-1.112, -3.840e-7
-1.111, -4.077e-7
-1.110, -3.879e-7
-1.109, -3.830e-7
-1.108, -4.195e-7
-1.107, -4.195e-7
-1.106, -4.215e-7
-1.105, -4.037e-7
-1.104, -3.899e-7
-1.103, -4.580e-7
-1.102, -4.866e-7
-1.101, -3.978e-7
-1.100, -4.254e-7
-1.099, -4.402e-7
-1.098, -4.422e-7
-1.097, -4.895e-7
-1.096, -4.639e-7
-1.095, -4.136e-7
-1.094, -4.402e-7
-1.093, -4.639e-7
-1.092, -4.876e-7
-1.091, -4.915e-7
-1.090, -4.343e-7
-1.089, -4.353e-7
-1.088, -4.984e-7
-1.087, -4.866e-7
-1.086, -5.083e-7
-1.085, -4.669e-7
-1.084, -4.629e-7
-1.083, -4.757e-7
-1.082, -5.034e-7
-1.081, -4.876e-7
-1.080, -5.004e-7
-1.079, -4.402e-7
-1.078, -5.339e-7
-1.077, -5.191e-7
-1.076, -4.836e-7
-1.075, -4.945e-7
-1.074, -5.349e-7
-1.073, -5.172e-7
-1.072, -5.557e-7
-1.071, -5.497e-7
-1.070, -4.540e-7
-1.069, -5.241e-7
-1.068, -5.448e-7
-1.067, -5.537e-7
-1.066, -5.290e-7
-1.065, -5.162e-7
-1.064, -4.955e-7
-1.063, -5.655e-7
-1.062, -5.606e-7
-1.061, -5.527e-7
-1.060, -4.935e-7
-1.059, -5.369e-7
-1.058, -5.991e-7
-1.057, -5.843e-7
-1.056, -5.704e-7
-1.055, -5.557e-7
-1.054, -5.596e-7
-1.053, -6.099e-7
-1.052, -5.734e-7
-1.051, -6.099e-7
-1.050, -5.458e-7
-1.049, -5.576e-7
-1.048, -5.991e-7
-1.047, -6.296e-7
-1.046, -5.606e-7
-1.045, -6.020e-7
-1.044, -5.971e-7
-1.043, -6.484e-7
-1.042, -6.346e-7
-1.041, -6.109e-7
-1.040, -5.991e-7
-1.039, -5.931e-7
-1.038, -6.375e-7
-1.037, -6.701e-7
-1.036, -6.267e-7
-1.035, -6.415e-7
-1.034, -6.198e-7
-1.033, -6.099e-7
-1.032, -7.036e-7
-1.031, -6.119e-7
-1.030, -6.148e-7
-1.029, -6.514e-7
-1.028, -6.553e-7
-1.027, -6.967e-7
-1.026, -6.671e-7
-1.025, -6.287e-7
-1.024, -6.661e-7
-1.023, -6.661e-7
-1.022, -7.401e-7
-1.021, -6.622e-7
-1.020, -6.740e-7
-1.019, -7.234e-7
-1.018, -6.760e-7
-1.017, -7.283e-7
-1.016, -7.184e-7
-1.015, -6.681e-7
-1.014, -7.244e-7
-1.013, -7.244e-7
-1.012, -7.579e-7
-1.011, -7.372e-7
-1.010, -7.253e-7
-1.009, -6.997e-7
-1.008, -7.451e-7
-1.007, -7.411e-7
-1.006, -7.776e-7
-1.005, -7.076e-7
-1.004, -7.303e-7
-1.003, -7.855e-7
-1.002, -7.885e-7
-1.001, -7.540e-7
-1.000, -5.951e-7
-1.001, -5.547e-7
-1.002, -5.103e-7
-1.003, -4.955e-7
-1.004, -4.402e-7
-1.005, -3.869e-7
-1.006, -3.544e-7
-1.007, -3.583e-7
-1.008, -3.731e-7
-1.009, -2.794e-7
-1.010, -2.557e-7
-1.011, -2.824e-7
-1.012, -2.153e-7
-1.013, -2.824e-7
-1.014, -2.143e-7
-1.015, -1.571e-7
-1.016, -1.620e-7
-1.017, -1.472e-7
-1.018, -1.798e-7
-1.019, -1.137e-7
-1.020, -8.110e-8
-1.021, -1.058e-7
-1.022, -1.255e-7
-1.023, -9.590e-8
-1.024, -3.867e-8
-1.025, -1.796e-8
-1.026, -9.077e-9
-1.027, -5.446e-8
-1.028, -3.275e-8
-1.029, -3.966e-8
-1.030, 4.519e-8
-1.031, 2.545e-8
-1.032, 1.756e-8
-1.033, 2.743e-8
-1.034, 3.729e-8
-1.035, 9.748e-8
-1.036, 7.577e-8
-1.037, 4.025e-8
-1.038, 5.998e-8
-1.039, 8.366e-8
-1.040, 1.429e-7
-1.041, 1.142e-7
-1.042, 1.212e-7
-1.043, 6.689e-8
-1.044, 1.231e-7
-1.045, 1.715e-7
-1.046, 1.606e-7
-1.047, 1.231e-7
-1.048, 1.379e-7
-1.049, 1.468e-7
-1.050, 2.149e-7
-1.051, 2.090e-7
-1.052, 1.517e-7
-1.053, 1.478e-7
-1.054, 2.198e-7
-1.055, 2.455e-7
-1.056, 2.188e-7
-1.057, 1.853e-7
-1.058, 1.843e-7
-1.059, 2.455e-7
-1.060, 2.553e-7
-1.061, 2.376e-7
-1.062, 2.504e-7
-1.063, 2.238e-7
-1.064, 2.682e-7
-1.065, 2.869e-7
-1.066, 2.731e-7
-1.067, 2.958e-7
-1.068, 2.563e-7
-1.069, 3.056e-7
-1.070, 3.145e-7
-1.071, 3.017e-7
-1.072, 3.007e-7
-1.073, 2.701e-7
-1.074, 3.293e-7
-1.075, 3.757e-7
-1.076, 3.412e-7
-1.077, 2.968e-7
-1.078, 3.382e-7
-1.079, 3.520e-7
-1.080, 3.865e-7
-1.081, 3.935e-7
-1.082, 3.441e-7
-1.083, 3.471e-7
-1.084, 3.668e-7
-1.085, 3.974e-7
-1.086, 3.885e-7
-1.087, 3.787e-7
-1.088, 4.053e-7
-1.089, 4.053e-7
-1.090, 4.566e-7
-1.091, 4.073e-7
-1.092, 3.836e-7
-1.093, 4.142e-7
-1.094, 4.438e-7
-1.095, 4.625e-7
-1.096, 4.655e-7
-1.097, 4.152e-7
-1.098, 4.319e-7
-1.099, 4.556e-7
-1.100, 4.931e-7
-1.101, 4.684e-7
-1.102, 4.744e-7
-1.103, 4.457e-7
-1.104, 5.316e-7
-1.105, 5.197e-7
-1.106, 5.118e-7
-1.107, 4.773e-7
-1.108, 4.665e-7
-1.109, 5.355e-7
-1.110, 5.464e-7
-1.111, 5.089e-7
-1.112, 5.296e-7
-1.113, 5.326e-7
-1.114, 5.405e-7
-1.115, 5.710e-7
-1.116, 5.562e-7
-1.117, 5.069e-7
-1.118, 5.336e-7
-1.119, 5.819e-7
-1.120, 6.223e-7
-1.121, 5.582e-7
-1.122, 5.286e-7
-1.123, 5.868e-7
-1.124, 5.829e-7
-1.125, 5.819e-7
-1.126, 5.927e-7
-1.127, 5.493e-7
-1.128, 5.878e-7
-1.129, 6.075e-7
-1.130, 6.381e-7
-1.131, 6.026e-7
-1.132, 5.651e-7
-1.133, 6.164e-7
-1.134, 6.480e-7
-1.135, 6.500e-7
-1.136, 6.342e-7
-1.137, 6.125e-7
-1.138, 6.204e-7
-1.139, 6.598e-7
-1.140, 6.697e-7
-1.141, 6.875e-7
-1.142, 6.253e-7
-1.143, 6.480e-7
-1.144, 7.042e-7
-1.145, 6.954e-7
-1.146, 6.993e-7
-1.147, 6.648e-7
-1.148, 6.786e-7
-1.149, 6.736e-7
-1.150, 7.388e-7
-1.151, 7.496e-7
-1.152, 7.062e-7
-1.153, 6.944e-7
-1.154, 7.102e-7
-1.155, 7.388e-7
-1.156, 7.151e-7
-1.157, 6.983e-7
-1.158, 7.279e-7
-1.159, 7.693e-7
-1.160, 7.861e-7
-1.161, 7.299e-7
-1.162, 6.884e-7
-1.163, 7.388e-7
-1.164, 8.068e-7
-1.165, 7.901e-7
-1.166, 8.049e-7
-1.167, 7.230e-7
-1.168, 7.861e-7
-1.169, 8.177e-7
-1.170, 8.098e-7
-1.171, 8.108e-7
-1.172, 7.871e-7
-1.173, 7.723e-7
-1.174, 8.246e-7
-1.175, 8.473e-7
-1.176, 7.881e-7
-1.177, 8.177e-7
-1.178, 7.822e-7
-1.179, 8.502e-7
-1.180, 8.838e-7
-1.181, 8.345e-7
-1.182, 8.177e-7
-1.183, 8.009e-7
-1.184, 8.601e-7
-1.185, 9.045e-7
-1.186, 8.374e-7
-1.187, 8.276e-7
-1.188, 8.542e-7
-1.189, 8.848e-7
-1.190, 8.670e-7
-1.191, 8.976e-7
-1.192, 8.335e-7
-1.193, 8.424e-7
-1.194, 9.440e-7
-1.195, 9.025e-7
-1.196, 9.223e-7
-1.197, 8.808e-7
-1.198, 8.729e-7
-1.199, 9.410e-7
-1.200, 9.183e-7
-1.201, 9.341e-7
-1.202, 9.025e-7
-1.203, 8.670e-7
-1.204, 9.578e-7
-1.205, 9.282e-7
-1.206, 9.045e-7
-1.207, 9.055e-7
-1.208, 8.779e-7
-1.209, 9.706e-7
-1.210, 9.519e-7
-1.211, 9.045e-7
-1.212, 9.440e-7
-1.213, 9.045e-7
-1.214, 9.647e-7
-1.215, 9.765e-7
-1.216, 9.499e-7
-1.217, 9.400e-7
-1.218, 9.420e-7
-1.219, 9.548e-7
-1.220, 1.011e-6
-1.221, 9.469e-7
-1.222, 9.765e-7
-1.223, 9.371e-7
-1.224, 9.706e-7
-1.225, 1.025e-6
-1.226, 9.755e-7
-1.227, 9.775e-7
-1.228, 9.844e-7
-1.229, 1.051e-6
-1.230, 1.064e-6
-1.231, 9.854e-7
-1.232, 1.021e-6
-1.233, 9.647e-7
-1.234, 1.043e-6
-1.235, 1.063e-6
-1.236, 1.015e-6
-1.237, 1.008e-6
-1.238, 1.046e-6
-1.239, 1.072e-6
-1.240, 1.070e-6
-1.241, 1.036e-6
-1.242, 1.024e-6
-1.243, 1.050e-6
-1.244, 1.086e-6
-1.245, 1.074e-6
-1.246, 1.063e-6
-1.247, 1.052e-6
-1.248, 1.052e-6
-1.249, 1.113e-6
-1.250, 1.131e-6
-1.251, 1.094e-6
-1.252, 1.079e-6
-1.253, 1.069e-6
-1.254, 1.146e-6
-1.255, 1.135e-6
-1.256, 1.095e-6
-1.257, 1.116e-6
-1.258, 1.091e-6
-1.259, 1.149e-6
-1.260, 1.156e-6
-1.261, 1.110e-6
-1.262, 1.100e-6
-1.263, 1.118e-6
-1.264, 1.174e-6
-1.265, 1.174e-6
-1.266, 1.104e-6
-1.267, 1.138e-6
-1.268, 1.136e-6
-1.269, 1.167e-6
-1.270, 1.220e-6
-1.271, 1.130e-6
-1.272, 1.109e-6
-1.273, 1.174e-6
-1.274, 1.215e-6
-1.275, 1.228e-6
-1.276, 1.193e-6
-1.277, 1.178e-6
-1.278, 1.200e-6
-1.279, 1.220e-6
-1.280, 1.253e-6
-1.281, 1.221e-6
-1.282, 1.215e-6
-1.283, 1.210e-6
-1.284, 1.199e-6
-1.285, 1.284e-6
-1.286, 1.242e-6
-1.287, 1.233e-6
-1.288, 1.249e-6
-1.289, 1.258e-6
-1.290, 1.281e-6
-1.291, 1.282e-6
-1.292, 1.253e-6
-1.293, 1.233e-6
-1.294, 1.265e-6
-1.295, 1.290e-6
-1.296, 1.264e-6
-1.297, 1.272e-6
-1.298, 1.269e-6
-1.299, 1.355e-6
-1.300, 1.331e-6
-1.301, 1.285e-6
-1.302, 1.303e-6
-1.303, 1.330e-6
-1.304, 1.305e-6
-1.305, 1.393e-6
-1.306, 1.289e-6
-1.307, 1.333e-6
-1.308, 1.318e-6
-1.309, 1.368e-6
-1.310, 1.408e-6
-1.311, 1.350e-6
-1.312, 1.375e-6
-1.313, 1.375e-6
-1.314, 1.402e-6
-1.315, 1.443e-6
-1.316, 1.374e-6
-1.317, 1.358e-6
-1.318, 1.418e-6
-1.319, 1.466e-6
-1.320, 1.457e-6
-1.321, 1.430e-6
-1.322, 1.390e-6
-1.323, 1.474e-6
-1.324, 1.495e-6
-1.325, 1.487e-6
-1.326, 1.493e-6
-1.327, 1.453e-6
-1.328, 1.501e-6
-1.329, 1.543e-6
-1.330, 1.494e-6
-1.331, 1.492e-6
-1.332, 1.494e-6
-1.333, 1.537e-6
-1.334, 1.579e-6
-1.335, 1.550e-6
-1.336, 1.546e-6
-1.337, 1.568e-6
-1.338, 1.577e-6
-1.339, 1.634e-6
-1.340, 1.605e-6
-1.341, 1.571e-6
-1.342, 1.569e-6
-1.343, 1.641e-6
-1.344, 1.654e-6
-1.345, 1.654e-6
-1.346, 1.627e-6
-1.347, 1.634e-6
-1.348, 1.634e-6
-1.349, 1.719e-6
-1.350, 1.726e-6
-1.351, 1.678e-6
-1.352, 1.697e-6
-1.353, 1.728e-6
-1.354, 1.752e-6
-1.355, 1.746e-6
-1.356, 1.712e-6
-1.357, 1.740e-6
-1.358, 1.755e-6
-1.359, 1.827e-6
-1.360, 1.812e-6
-1.361, 1.813e-6
-1.362, 1.822e-6
-1.363, 1.848e-6
-1.364, 1.871e-6
-1.365, 1.878e-6
-1.366, 1.861e-6
-1.367, 1.820e-6
-1.368, 1.819e-6
-1.369, 1.942e-6
-1.370, 1.923e-6
-1.371, 1.944e-6
-1.372, 1.921e-6
-1.373, 1.923e-6
-1.374, 2.019e-6
-1.375, 2.009e-6
-1.376, 1.971e-6
-1.377, 2.010e-6
-1.378, 2.015e-6
-1.379, 2.023e-6
-1.380, 2.085e-6
-1.381, 2.063e-6
-1.382, 2.018e-6
-1.383, 2.123e-6
-1.384, 2.156e-6
-1.385, 2.140e-6
-1.386, 2.162e-6
-1.387, 2.163e-6
-1.388, 2.196e-6
-1.389, 2.229e-6
-1.390, 2.250e-6
-1.391, 2.281e-6
-1.392, 2.211e-6
-1.393, 2.287e-6
-1.394, 2.335e-6
-1.395, 2.334e-6
-1.396, 2.345e-6
-1.397, 2.307e-6
-1.398, 2.392e-6
-1.399, 2.407e-6
-1.400, 2.214e-6
-1.399, 2.009e-6
-1.398, 1.896e-6
-1.397, 1.810e-6
-1.396, 1.838e-6
-1.395, 1.779e-6
-1.394, 1.687e-6
-1.393, 1.563e-6
-1.392, 1.592e-6
-1.391, 1.580e-6
-1.390, 1.519e-6
-1.389, 1.485e-6
-1.388, 1.416e-6
-1.387, 1.383e-6
-1.386, 1.449e-6
-1.385, 1.396e-6
-1.384, 1.336e-6
-1.383, 1.227e-6
-1.382, 1.257e-6
-1.381, 1.288e-6
-1.380, 1.215e-6
-1.379, 1.195e-6
-1.378, 1.170e-6
-1.377, 1.141e-6
-1.376, 1.160e-6
-1.375, 1.146e-6
-1.374, 1.081e-6
-1.373, 1.095e-6
-1.372, 1.026e-6
-1.371, 1.083e-6
-1.370, 9.943e-7
-1.369, 9.844e-7
-1.368, 9.351e-7
-1.367, 9.588e-7
-1.366, 9.489e-7
-1.365, 9.607e-7
-1.364, 8.917e-7
-1.363, 8.848e-7
-1.362, 8.650e-7
-1.361, 9.025e-7
-1.360, 8.946e-7
-1.359, 8.424e-7
-1.358, 7.911e-7
-1.357, 8.276e-7
-1.356, 8.542e-7
-1.355, 7.782e-7
-1.354, 7.684e-7
-1.353, 7.397e-7
-1.352, 7.437e-7
-1.351, 7.901e-7
-1.350, 7.299e-7
-1.349, 6.736e-7
-1.348, 6.391e-7
-1.347, 6.717e-7
-1.346, 7.141e-7
-1.345, 6.894e-7
-1.344, 6.510e-7
-1.343, 6.223e-7
-1.342, 6.243e-7
-1.341, 6.460e-7
-1.340, 6.490e-7
-1.339, 6.214e-7
-1.338, 5.691e-7
-1.337, 5.849e-7
-1.336, 5.849e-7
-1.335, 5.819e-7
-1.334, 5.099e-7
-1.333, 5.276e-7
-1.332, 5.336e-7
-1.331, 6.006e-7
-1.330, 5.513e-7
-1.329, 5.109e-7
-1.328, 4.793e-7
-1.327, 5.099e-7
-1.326, 5.109e-7
-1.325, 4.655e-7
-1.324, 4.980e-7
-1.323, 4.319e-7
-1.322, 4.507e-7
-1.321, 4.941e-7
-1.320, 4.418e-7
-1.319, 4.240e-7
-1.318, 4.063e-7
-1.317, 3.826e-7
-1.316, 4.625e-7
-1.315, 4.142e-7
-1.314, 3.865e-7
-1.313, 3.609e-7
-1.312, 3.599e-7
-1.311, 4.161e-7
-1.310, 3.648e-7
-1.309, 3.165e-7
-1.308, 3.086e-7
-1.307, 3.510e-7
-1.306, 3.570e-7
-1.305, 3.688e-7
-1.304, 3.135e-7
-1.303, 2.908e-7
-1.302, 3.343e-7
-1.301, 3.431e-7
-1.300, 3.106e-7
-1.299, 2.820e-7
-1.298, 2.642e-7
-1.297, 3.471e-7
-1.296, 3.362e-7
-1.295, 2.514e-7
-1.294, 2.820e-7
-1.293, 2.356e-7
-1.292, 2.682e-7
-1.291, 2.760e-7
-1.290, 2.366e-7
-1.289, 2.455e-7
-1.288, 2.050e-7
-1.287, 2.307e-7
-1.286, 2.415e-7
-1.285, 2.297e-7
-1.284, 2.080e-7
-1.283, 1.656e-7
-1.282, 1.843e-7
-1.281, 2.336e-7
-1.280, 1.991e-7
-1.279, 1.468e-7
-1.278, 1.774e-7
-1.277, 1.409e-7
-1.276, 1.922e-7
-1.275, 2.060e-7
-1.274, 1.419e-7
-1.273, 1.093e-7
-1.272, 1.912e-7
-1.271, 1.616e-7
-1.270, 1.537e-7
-1.269, 8.761e-8
-1.268, 6.985e-8
-1.267, 1.389e-7
-1.266, 1.429e-7
-1.265, 1.567e-7
-1.264, 1.024e-7
-1.263, 8.860e-8
-1.262, 1.369e-7
-1.261, 1.172e-7
-1.260, 1.379e-7
-1.259, 8.958e-8
-1.258, 4.321e-8
-1.257, 8.761e-8
-1.256, 1.281e-7
-1.255, 1.054e-7
-1.254, 8.366e-8
-1.253, 2.743e-8
-1.252, 7.084e-8
-1.251, 8.958e-8
-1.250, 4.815e-8
-1.249, 6.196e-8
-1.248, 2.644e-8
-1.247, 4.124e-8
-1.246, 7.478e-8
-1.245, 7.380e-8
-1.244, 1.657e-8
-1.243, -4.144e-9
-1.242, 3.729e-8
-1.241, 7.478e-8
-1.240, 4.716e-8
-1.239, -1.401e-8
-1.238, 7.893e-10
-1.237, 4.223e-8
-1.236, 3.039e-8
-1.235, 1.776e-9
-1.234, -1.697e-8
-1.233, -4.144e-9
-1.232, 8.682e-9
-1.231, 3.729e-8
-1.230, 4.321e-8
-1.229, -5.130e-9
-1.228, -6.137e-8
-1.227, -1.796e-8
-1.226, 4.736e-9
-1.225, 7.695e-9
-1.224, -6.235e-8
-1.223, -6.926e-8
-1.222, -2.388e-8
-1.221, -5.742e-8
-1.220, -9.077e-9
-1.219, -7.419e-8
-1.218, -6.827e-8
-1.217, -4.558e-8
-1.216, -6.137e-8
-1.215, -7.321e-8
-1.214, -5.446e-8
-1.213, -1.107e-7
-1.212, -4.657e-8
-1.211, -6.926e-8
-1.210, -6.926e-8
-1.209, -1.087e-7
-1.208, -1.196e-7
-1.207, -6.137e-8
-1.206, -6.433e-8
-1.205, -7.025e-8
-1.204, -1.058e-7
-1.203, -1.324e-7
-1.202, -8.110e-8
-1.201, -8.899e-8
-1.200, -1.265e-7
-1.199, -1.146e-7
-1.198, -1.294e-7
-1.197, -1.521e-7
-1.196, -7.715e-8
-1.195, -1.679e-7
-1.194, -1.926e-7
-1.193, -1.462e-7
-1.192, -1.176e-7
-1.191, -1.235e-7
-1.190, -1.196e-7
-1.189, -1.679e-7
-1.188, -1.896e-7
-1.187, -1.097e-7
-1.186, -1.275e-7
-1.185, -1.423e-7
-1.184, -1.847e-7
-1.183, -1.788e-7
-1.182, -1.462e-7
-1.181, -1.541e-7
-1.180, -1.965e-7
-1.179, -1.719e-7
-1.178, -2.222e-7
-1.177, -1.955e-7
-1.176, -1.403e-7
-1.175, -2.350e-7
-1.174, -2.439e-7
-1.173, -2.222e-7
-1.172, -1.610e-7
-1.171, -1.807e-7
-1.170, -1.877e-7
-1.169, -2.251e-7
-1.168, -2.478e-7
-1.167, -2.212e-7
-1.166, -1.857e-7
-1.165, -2.163e-7
-1.164, -2.636e-7
-1.163, -2.725e-7
-1.162, -1.985e-7
-1.161, -2.528e-7
-1.160, -2.459e-7
-1.159, -2.972e-7
-1.158, -2.991e-7
-1.157, -2.715e-7
-1.156, -2.143e-7
-1.155, -2.814e-7
-1.154, -2.912e-7
-1.153, -3.100e-7
-1.152, -2.656e-7
-1.151, -2.646e-7
-1.150, -3.031e-7
-1.149, -3.317e-7
-1.148, -3.120e-7
-1.147, -2.863e-7
-1.146, -2.755e-7
-1.145, -3.001e-7
-1.144, -3.307e-7
-1.143, -3.051e-7
-1.142, -2.952e-7
-1.141, -3.051e-7
-1.140, -2.774e-7
-1.139, -3.652e-7
-1.138, -3.416e-7
-1.137, -3.366e-7
-1.136, -2.981e-7
-1.135, -3.416e-7
-1.134, -3.445e-7
-1.133, -3.850e-7
-1.132, -3.268e-7
-1.131, -3.524e-7
-1.130, -3.356e-7
-1.129, -3.771e-7
-1.128, -3.810e-7
-1.127, -3.850e-7
-1.126, -3.504e-7
-1.125, -3.761e-7
-1.124, -3.771e-7
-1.123, -4.037e-7
-1.122, -3.879e-7
-1.121, -3.524e-7
-1.120, -4.165e-7
-1.119, -4.146e-7
-1.118, -4.432e-7
-1.117, -4.086e-7
-1.116, -3.919e-7
-1.115, -3.741e-7
-1.114, -4.442e-7
-1.113, -4.116e-7
-1.112, -4.096e-7
-1.111, -3.879e-7
-1.110, -4.343e-7
-1.109, -4.481e-7
-1.108, -4.521e-7
-1.107, -4.067e-7
-1.106, -3.988e-7
-1.105, -4.382e-7
-1.104, -4.432e-7
-1.103, -4.442e-7
-1.102, -4.471e-7
-1.101, -4.096e-7
-1.100, -4.688e-7
-1.099, -4.807e-7
-1.098, -4.659e-7
-1.097, -4.530e-7
-1.096, -4.215e-7
-1.095, -4.570e-7
-1.094, -5.103e-7
-1.093, -4.708e-7
-1.092, -4.984e-7
-1.091, -4.817e-7
-1.090, -4.392e-7
-1.089, -5.221e-7
-1.088, -5.113e-7
-1.087, -4.570e-7
-1.086, -4.728e-7
-1.085, -4.738e-7
-1.084, -5.113e-7
-1.083, -4.965e-7
-1.082, -4.945e-7
-1.081, -5.172e-7
-1.080, -5.448e-7
-1.079, -5.162e-7
-1.078, -5.310e-7
-1.077, -5.093e-7
-1.076, -5.251e-7
-1.075, -5.251e-7
-1.074, -5.418e-7
-1.073, -5.586e-7
-1.072, -5.497e-7
-1.071, -4.955e-7
-1.070, -5.339e-7
-1.069, -5.626e-7
-1.068, -5.645e-7
-1.067, -5.497e-7
-1.066, -5.438e-7
-1.065, -5.596e-7
-1.064, -5.793e-7
-1.063, -5.862e-7
-1.062, -5.704e-7
-1.061, -5.655e-7
-1.060, -5.823e-7
-1.059, -6.050e-7
-1.058, -5.813e-7
-1.057, -5.695e-7
-1.056, -5.724e-7
-1.055, -5.468e-7
-1.054, -6.425e-7
-1.053, -5.991e-7
-1.052, -5.586e-7
-1.051, -5.823e-7
-1.050, -6.139e-7
-1.049, -6.395e-7
-1.048, -5.951e-7
-1.047, -5.892e-7
-1.046, -6.099e-7
-1.045, -6.346e-7
-1.044, -6.218e-7
-1.043, -6.514e-7
-1.042, -6.257e-7
-1.041, -5.961e-7
-1.040, -6.385e-7
-1.039, -6.800e-7
-1.038, -6.612e-7
-1.037, -6.366e-7
-1.036, -6.070e-7
-1.035, -6.494e-7
-1.034, -6.731e-7
-1.033, -6.425e-7
-1.032, -6.849e-7
-1.031, -5.902e-7
-1.030, -6.888e-7
-1.029, -7.105e-7
-1.028, -6.415e-7
-1.027, -6.879e-7
-1.026, -6.346e-7
-1.025, -6.642e-7
-1.024, -7.135e-7
-1.023, -7.224e-7
-1.022, -6.800e-7
-1.021, -7.401e-7
-1.020, -6.356e-7
-1.019, -7.490e-7
-1.018, -7.401e-7
-1.017, -6.977e-7
-1.016, -6.908e-7
-1.015, -7.017e-7
-1.014, -7.441e-7
-1.013, -7.717e-7
-1.012, -7.155e-7
-1.011, -7.352e-7
-1.010, -7.490e-7
-1.009, -7.461e-7
-1.008, -7.885e-7
-1.007, -7.303e-7
-1.006, -7.352e-7
-1.005, -7.638e-7
-1.004, -7.875e-7
-1.003, -7.934e-7
-1.002, -7.628e-7
-1.001, -7.480e-7
