Aug. 8, 2024   10:09:04
Cyclic Voltammetry
File: c:/users/guazh/data/20240802_batch_500/2024-08-02-exp53\exp53-2024-08-08t09_48_54-arkoh\exp53_cv_sr_800mvs_efin_-1700mv.bin
Data Source:  Experiment
Instrument Model:  CHI760E
Header: CV ran at 800 mVs
Note: 

Init E (V) = -1
High E (V) = -1
Low E (V) = -1.7
Final E (V) = -1
Init P/N = N
Scan Rate (V/s) = 0.8
Segment = 3
Sample Interval (V) = 0.001
Quiet Time (sec) = 2
Sensitivity (A/V) = 0.01
Comp R (ohm) = 1.9

Results:

Channel 1:
Segment 1:

Segment 2:

Segment 3:

Potential/V, Current/A

-1.000, 1.865e-5
-1.001, 2.482e-5
-1.002, 2.790e-5
-1.003, 2.482e-5
-1.004, 2.790e-5
-1.005, 2.790e-5
-1.006, 3.099e-5
-1.007, 3.099e-5
-1.008, 3.099e-5
-1.009, 3.099e-5
-1.010, 3.407e-5
-1.011, 3.099e-5
-1.012, 3.407e-5
-1.013, 3.099e-5
-1.014, 3.099e-5
-1.015, 3.099e-5
-1.016, 3.099e-5
-1.017, 3.099e-5
-1.018, 3.099e-5
-1.019, 3.099e-5
-1.020, 3.407e-5
-1.021, 3.099e-5
-1.022, 3.407e-5
-1.023, 3.407e-5
-1.024, 3.407e-5
-1.025, 3.407e-5
-1.026, 3.407e-5
-1.027, 3.407e-5
-1.028, 3.407e-5
-1.029, 3.407e-5
-1.030, 3.407e-5
-1.031, 3.407e-5
-1.032, 3.099e-5
-1.033, 3.407e-5
-1.034, 3.407e-5
-1.035, 3.407e-5
-1.036, 3.715e-5
-1.037, 3.407e-5
-1.038, 3.407e-5
-1.039, 3.715e-5
-1.040, 3.407e-5
-1.041, 3.407e-5
-1.042, 3.407e-5
-1.043, 3.099e-5
-1.044, 3.407e-5
-1.045, 3.407e-5
-1.046, 3.407e-5
-1.047, 3.715e-5
-1.048, 3.407e-5
-1.049, 3.715e-5
-1.050, 3.715e-5
-1.051, 3.715e-5
-1.052, 3.715e-5
-1.053, 3.407e-5
-1.054, 3.407e-5
-1.055, 3.407e-5
-1.056, 3.407e-5
-1.057, 3.407e-5
-1.058, 3.715e-5
-1.059, 3.407e-5
-1.060, 3.407e-5
-1.061, 3.407e-5
-1.062, 3.715e-5
-1.063, 4.024e-5
-1.064, 3.715e-5
-1.065, 3.715e-5
-1.066, 3.715e-5
-1.067, 3.715e-5
-1.068, 3.715e-5
-1.069, 3.715e-5
-1.070, 3.715e-5
-1.071, 3.407e-5
-1.072, 3.407e-5
-1.073, 3.715e-5
-1.074, 3.715e-5
-1.075, 3.715e-5
-1.076, 3.715e-5
-1.077, 4.024e-5
-1.078, 3.715e-5
-1.079, 3.715e-5
-1.080, 3.715e-5
-1.081, 3.715e-5
-1.082, 3.715e-5
-1.083, 3.715e-5
-1.084, 3.715e-5
-1.085, 3.715e-5
-1.086, 3.715e-5
-1.087, 3.715e-5
-1.088, 3.715e-5
-1.089, 3.715e-5
-1.090, 4.024e-5
-1.091, 3.715e-5
-1.092, 4.024e-5
-1.093, 3.715e-5
-1.094, 3.715e-5
-1.095, 3.715e-5
-1.096, 3.715e-5
-1.097, 3.715e-5
-1.098, 3.715e-5
-1.099, 3.715e-5
-1.100, 3.715e-5
-1.101, 3.715e-5
-1.102, 4.024e-5
-1.103, 4.024e-5
-1.104, 3.715e-5
-1.105, 4.024e-5
-1.106, 3.715e-5
-1.107, 3.715e-5
-1.108, 3.715e-5
-1.109, 3.715e-5
-1.110, 3.715e-5
-1.111, 3.715e-5
-1.112, 3.715e-5
-1.113, 4.024e-5
-1.114, 4.024e-5
-1.115, 4.024e-5
-1.116, 4.024e-5
-1.117, 4.024e-5
-1.118, 4.024e-5
-1.119, 4.024e-5
-1.120, 4.024e-5
-1.121, 4.024e-5
-1.122, 3.715e-5
-1.123, 4.024e-5
-1.124, 3.715e-5
-1.125, 4.024e-5
-1.126, 4.024e-5
-1.127, 4.024e-5
-1.128, 4.024e-5
-1.129, 4.024e-5
-1.130, 4.024e-5
-1.131, 4.024e-5
-1.132, 4.024e-5
-1.133, 4.024e-5
-1.134, 4.024e-5
-1.135, 4.024e-5
-1.136, 4.024e-5
-1.137, 4.024e-5
-1.138, 4.024e-5
-1.139, 4.024e-5
-1.140, 4.024e-5
-1.141, 4.024e-5
-1.142, 4.024e-5
-1.143, 4.332e-5
-1.144, 4.024e-5
-1.145, 4.024e-5
-1.146, 4.024e-5
-1.147, 4.024e-5
-1.148, 4.024e-5
-1.149, 4.024e-5
-1.150, 4.024e-5
-1.151, 4.024e-5
-1.152, 4.024e-5
-1.153, 4.024e-5
-1.154, 4.024e-5
-1.155, 4.332e-5
-1.156, 4.332e-5
-1.157, 4.024e-5
-1.158, 4.332e-5
-1.159, 4.024e-5
-1.160, 4.332e-5
-1.161, 4.024e-5
-1.162, 4.024e-5
-1.163, 4.024e-5
-1.164, 4.024e-5
-1.165, 4.024e-5
-1.166, 4.024e-5
-1.167, 4.024e-5
-1.168, 4.024e-5
-1.169, 4.332e-5
-1.170, 4.332e-5
-1.171, 4.332e-5
-1.172, 4.332e-5
-1.173, 4.024e-5
-1.174, 4.024e-5
-1.175, 4.024e-5
-1.176, 4.024e-5
-1.177, 4.024e-5
-1.178, 4.332e-5
-1.179, 4.024e-5
-1.180, 4.024e-5
-1.181, 4.024e-5
-1.182, 4.332e-5
-1.183, 4.332e-5
-1.184, 4.332e-5
-1.185, 4.024e-5
-1.186, 4.332e-5
-1.187, 4.024e-5
-1.188, 4.332e-5
-1.189, 4.332e-5
-1.190, 4.024e-5
-1.191, 4.024e-5
-1.192, 4.024e-5
-1.193, 4.332e-5
-1.194, 4.332e-5
-1.195, 4.332e-5
-1.196, 4.332e-5
-1.197, 4.332e-5
-1.198, 4.332e-5
-1.199, 4.332e-5
-1.200, 4.332e-5
-1.201, 4.332e-5
-1.202, 4.332e-5
-1.203, 4.332e-5
-1.204, 4.332e-5
-1.205, 4.024e-5
-1.206, 4.332e-5
-1.207, 4.332e-5
-1.208, 4.332e-5
-1.209, 4.332e-5
-1.210, 4.332e-5
-1.211, 4.332e-5
-1.212, 4.332e-5
-1.213, 4.332e-5
-1.214, 4.332e-5
-1.215, 4.332e-5
-1.216, 4.024e-5
-1.217, 4.332e-5
-1.218, 4.332e-5
-1.219, 4.332e-5
-1.220, 4.332e-5
-1.221, 4.332e-5
-1.222, 4.332e-5
-1.223, 4.640e-5
-1.224, 4.332e-5
-1.225, 4.332e-5
-1.226, 4.332e-5
-1.227, 4.332e-5
-1.228, 4.332e-5
-1.229, 4.332e-5
-1.230, 4.332e-5
-1.231, 4.332e-5
-1.232, 4.332e-5
-1.233, 4.332e-5
-1.234, 4.332e-5
-1.235, 4.332e-5
-1.236, 4.640e-5
-1.237, 4.332e-5
-1.238, 4.332e-5
-1.239, 4.640e-5
-1.240, 4.332e-5
-1.241, 4.332e-5
-1.242, 4.332e-5
-1.243, 4.332e-5
-1.244, 4.332e-5
-1.245, 4.332e-5
-1.246, 4.640e-5
-1.247, 4.332e-5
-1.248, 4.640e-5
-1.249, 4.640e-5
-1.250, 4.640e-5
-1.251, 4.640e-5
-1.252, 4.640e-5
-1.253, 4.640e-5
-1.254, 4.640e-5
-1.255, 4.332e-5
-1.256, 4.640e-5
-1.257, 4.332e-5
-1.258, 4.640e-5
-1.259, 4.332e-5
-1.260, 4.640e-5
-1.261, 4.640e-5
-1.262, 4.640e-5
-1.263, 4.949e-5
-1.264, 4.640e-5
-1.265, 4.640e-5
-1.266, 4.640e-5
-1.267, 4.640e-5
-1.268, 4.640e-5
-1.269, 4.640e-5
-1.270, 4.640e-5
-1.271, 4.640e-5
-1.272, 4.640e-5
-1.273, 4.949e-5
-1.274, 4.949e-5
-1.275, 4.949e-5
-1.276, 4.949e-5
-1.277, 4.949e-5
-1.278, 4.949e-5
-1.279, 4.949e-5
-1.280, 4.949e-5
-1.281, 4.949e-5
-1.282, 4.949e-5
-1.283, 4.640e-5
-1.284, 4.949e-5
-1.285, 4.949e-5
-1.286, 4.949e-5
-1.287, 4.949e-5
-1.288, 4.949e-5
-1.289, 5.257e-5
-1.290, 5.257e-5
-1.291, 5.257e-5
-1.292, 4.949e-5
-1.293, 4.949e-5
-1.294, 4.949e-5
-1.295, 4.949e-5
-1.296, 5.257e-5
-1.297, 5.257e-5
-1.298, 5.257e-5
-1.299, 5.257e-5
-1.300, 5.257e-5
-1.301, 5.257e-5
-1.302, 5.257e-5
-1.303, 5.565e-5
-1.304, 5.257e-5
-1.305, 5.257e-5
-1.306, 5.565e-5
-1.307, 5.257e-5
-1.308, 5.565e-5
-1.309, 5.565e-5
-1.310, 5.565e-5
-1.311, 5.565e-5
-1.312, 5.565e-5
-1.313, 5.873e-5
-1.314, 5.873e-5
-1.315, 5.873e-5
-1.316, 5.873e-5
-1.317, 5.873e-5
-1.318, 5.873e-5
-1.319, 5.873e-5
-1.320, 5.873e-5
-1.321, 5.873e-5
-1.322, 5.873e-5
-1.323, 5.873e-5
-1.324, 6.182e-5
-1.325, 5.873e-5
-1.326, 6.182e-5
-1.327, 6.182e-5
-1.328, 6.182e-5
-1.329, 6.490e-5
-1.330, 6.490e-5
-1.331, 6.490e-5
-1.332, 6.490e-5
-1.333, 6.490e-5
-1.334, 6.490e-5
-1.335, 6.490e-5
-1.336, 6.490e-5
-1.337, 6.490e-5
-1.338, 6.490e-5
-1.339, 6.490e-5
-1.340, 6.798e-5
-1.341, 6.798e-5
-1.342, 7.107e-5
-1.343, 7.107e-5
-1.344, 6.798e-5
-1.345, 7.107e-5
-1.346, 7.107e-5
-1.347, 7.107e-5
-1.348, 7.107e-5
-1.349, 7.107e-5
-1.350, 7.107e-5
-1.351, 7.415e-5
-1.352, 7.415e-5
-1.353, 7.415e-5
-1.354, 7.723e-5
-1.355, 7.723e-5
-1.356, 7.723e-5
-1.357, 7.723e-5
-1.358, 7.723e-5
-1.359, 8.032e-5
-1.360, 8.032e-5
-1.361, 8.032e-5
-1.362, 8.032e-5
-1.363, 8.032e-5
-1.364, 8.340e-5
-1.365, 8.340e-5
-1.366, 8.648e-5
-1.367, 8.648e-5
-1.368, 8.648e-5
-1.369, 8.957e-5
-1.370, 8.957e-5
-1.371, 8.957e-5
-1.372, 9.265e-5
-1.373, 9.265e-5
-1.374, 9.265e-5
-1.375, 9.265e-5
-1.376, 9.573e-5
-1.377, 9.573e-5
-1.378, 9.573e-5
-1.379, 9.573e-5
-1.380, 9.882e-5
-1.381, 9.882e-5
-1.382, 1.019e-4
-1.383, 1.019e-4
-1.384, 1.019e-4
-1.385, 1.050e-4
-1.386, 1.050e-4
-1.387, 1.050e-4
-1.388, 1.081e-4
-1.389, 1.081e-4
-1.390, 1.081e-4
-1.391, 1.111e-4
-1.392, 1.111e-4
-1.393, 1.142e-4
-1.394, 1.142e-4
-1.395, 1.173e-4
-1.396, 1.204e-4
-1.397, 1.173e-4
-1.398, 1.204e-4
-1.399, 1.204e-4
-1.400, 1.235e-4
-1.401, 1.235e-4
-1.402, 1.266e-4
-1.403, 1.235e-4
-1.404, 1.266e-4
-1.405, 1.296e-4
-1.406, 1.327e-4
-1.407, 1.327e-4
-1.408, 1.327e-4
-1.409, 1.358e-4
-1.410, 1.389e-4
-1.411, 1.389e-4
-1.412, 1.420e-4
-1.413, 1.420e-4
-1.414, 1.420e-4
-1.415, 1.420e-4
-1.416, 1.481e-4
-1.417, 1.481e-4
-1.418, 1.481e-4
-1.419, 1.512e-4
-1.420, 1.543e-4
-1.421, 1.543e-4
-1.422, 1.574e-4
-1.423, 1.605e-4
-1.424, 1.605e-4
-1.425, 1.636e-4
-1.426, 1.666e-4
-1.427, 1.666e-4
-1.428, 1.666e-4
-1.429, 1.697e-4
-1.430, 1.697e-4
-1.431, 1.728e-4
-1.432, 1.759e-4
-1.433, 1.790e-4
-1.434, 1.790e-4
-1.435, 1.851e-4
-1.436, 1.851e-4
-1.437, 1.882e-4
-1.438, 1.913e-4
-1.439, 1.944e-4
-1.440, 1.944e-4
-1.441, 1.975e-4
-1.442, 1.975e-4
-1.443, 2.006e-4
-1.444, 2.036e-4
-1.445, 2.036e-4
-1.446, 2.067e-4
-1.447, 2.098e-4
-1.448, 2.129e-4
-1.449, 2.160e-4
-1.450, 2.191e-4
-1.451, 2.191e-4
-1.452, 2.221e-4
-1.453, 2.252e-4
-1.454, 2.252e-4
-1.455, 2.283e-4
-1.456, 2.314e-4
-1.457, 2.345e-4
-1.458, 2.376e-4
-1.459, 2.376e-4
-1.460, 2.437e-4
-1.461, 2.437e-4
-1.462, 2.499e-4
-1.463, 2.530e-4
-1.464, 2.530e-4
-1.465, 2.561e-4
-1.466, 2.591e-4
-1.467, 2.622e-4
-1.468, 2.653e-4
-1.469, 2.684e-4
-1.470, 2.715e-4
-1.471, 2.746e-4
-1.472, 2.746e-4
-1.473, 2.807e-4
-1.474, 2.807e-4
-1.475, 2.869e-4
-1.476, 2.900e-4
-1.477, 2.931e-4
-1.478, 2.961e-4
-1.479, 2.992e-4
-1.480, 3.023e-4
-1.481, 3.054e-4
-1.482, 3.085e-4
-1.483, 3.115e-4
-1.484, 3.146e-4
-1.485, 3.177e-4
-1.486, 3.208e-4
-1.487, 3.239e-4
-1.488, 3.270e-4
-1.489, 3.331e-4
-1.490, 3.362e-4
-1.491, 3.393e-4
-1.492, 3.455e-4
-1.493, 3.485e-4
-1.494, 3.485e-4
-1.495, 3.547e-4
-1.496, 3.578e-4
-1.497, 3.609e-4
-1.498, 3.640e-4
-1.499, 3.670e-4
-1.500, 3.732e-4
-1.501, 3.763e-4
-1.502, 3.794e-4
-1.503, 3.855e-4
-1.504, 3.886e-4
-1.505, 3.917e-4
-1.506, 3.979e-4
-1.507, 4.010e-4
-1.508, 4.040e-4
-1.509, 4.102e-4
-1.510, 4.102e-4
-1.511, 4.164e-4
-1.512, 4.195e-4
-1.513, 4.256e-4
-1.514, 4.287e-4
-1.515, 4.349e-4
-1.516, 4.380e-4
-1.517, 4.441e-4
-1.518, 4.472e-4
-1.519, 4.534e-4
-1.520, 4.565e-4
-1.521, 4.595e-4
-1.522, 4.626e-4
-1.523, 4.688e-4
-1.524, 4.750e-4
-1.525, 4.811e-4
-1.526, 4.842e-4
-1.527, 4.873e-4
-1.528, 4.935e-4
-1.529, 4.996e-4
-1.530, 5.058e-4
-1.531, 5.089e-4
-1.532, 5.150e-4
-1.533, 5.181e-4
-1.534, 5.243e-4
-1.535, 5.274e-4
-1.536, 5.335e-4
-1.537, 5.397e-4
-1.538, 5.459e-4
-1.539, 5.489e-4
-1.540, 5.582e-4
-1.541, 5.613e-4
-1.542, 5.705e-4
-1.543, 5.767e-4
-1.544, 5.798e-4
-1.545, 5.890e-4
-1.546, 5.921e-4
-1.547, 5.983e-4
-1.548, 6.044e-4
-1.549, 6.106e-4
-1.550, 6.168e-4
-1.551, 6.229e-4
-1.552, 6.291e-4
-1.553, 6.353e-4
-1.554, 6.414e-4
-1.555, 6.507e-4
-1.556, 6.569e-4
-1.557, 6.630e-4
-1.558, 6.723e-4
-1.559, 6.815e-4
-1.560, 6.846e-4
-1.561, 6.939e-4
-1.562, 7.000e-4
-1.563, 7.062e-4
-1.564, 7.154e-4
-1.565, 7.216e-4
-1.566, 7.309e-4
-1.567, 7.370e-4
-1.568, 7.463e-4
-1.569, 7.586e-4
-1.570, 7.648e-4
-1.571, 7.740e-4
-1.572, 7.833e-4
-1.573, 7.925e-4
-1.574, 7.987e-4
-1.575, 8.079e-4
-1.576, 8.203e-4
-1.577, 8.264e-4
-1.578, 8.357e-4
-1.579, 8.449e-4
-1.580, 8.573e-4
-1.581, 8.665e-4
-1.582, 8.788e-4
-1.583, 8.912e-4
-1.584, 8.973e-4
-1.585, 9.097e-4
-1.586, 9.220e-4
-1.587, 9.343e-4
-1.588, 9.436e-4
-1.589, 9.559e-4
-1.590, 9.652e-4
-1.591, 9.775e-4
-1.592, 9.898e-4
-1.593, 1.002e-3
-1.594, 1.014e-3
-1.595, 1.027e-3
-1.596, 1.039e-3
-1.597, 1.055e-3
-1.598, 1.067e-3
-1.599, 1.082e-3
-1.600, 1.095e-3
-1.601, 1.107e-3
-1.602, 1.119e-3
-1.603, 1.135e-3
-1.604, 1.150e-3
-1.605, 1.162e-3
-1.606, 1.178e-3
-1.607, 1.193e-3
-1.608, 1.209e-3
-1.609, 1.224e-3
-1.610, 1.243e-3
-1.611, 1.258e-3
-1.612, 1.277e-3
-1.613, 1.289e-3
-1.614, 1.307e-3
-1.615, 1.326e-3
-1.616, 1.344e-3
-1.617, 1.360e-3
-1.618, 1.378e-3
-1.619, 1.397e-3
-1.620, 1.415e-3
-1.621, 1.434e-3
-1.622, 1.455e-3
-1.623, 1.474e-3
-1.624, 1.495e-3
-1.625, 1.517e-3
-1.626, 1.539e-3
-1.627, 1.557e-3
-1.628, 1.582e-3
-1.629, 1.600e-3
-1.630, 1.622e-3
-1.631, 1.643e-3
-1.632, 1.665e-3
-1.633, 1.690e-3
-1.634, 1.714e-3
-1.635, 1.736e-3
-1.636, 1.764e-3
-1.637, 1.788e-3
-1.638, 1.816e-3
-1.639, 1.841e-3
-1.640, 1.865e-3
-1.641, 1.893e-3
-1.642, 1.918e-3
-1.643, 1.943e-3
-1.644, 1.970e-3
-1.645, 1.998e-3
-1.646, 2.026e-3
-1.647, 2.054e-3
-1.648, 2.081e-3
-1.649, 2.112e-3
-1.650, 2.143e-3
-1.651, 2.174e-3
-1.652, 2.205e-3
-1.653, 2.235e-3
-1.654, 2.266e-3
-1.655, 2.300e-3
-1.656, 2.331e-3
-1.657, 2.362e-3
-1.658, 2.393e-3
-1.659, 2.427e-3
-1.660, 2.460e-3
-1.661, 2.497e-3
-1.662, 2.534e-3
-1.663, 2.568e-3
-1.664, 2.605e-3
-1.665, 2.645e-3
-1.666, 2.682e-3
-1.667, 2.719e-3
-1.668, 2.756e-3
-1.669, 2.793e-3
-1.670, 2.830e-3
-1.671, 2.871e-3
-1.672, 2.908e-3
-1.673, 2.948e-3
-1.674, 2.991e-3
-1.675, 3.031e-3
-1.676, 3.077e-3
-1.677, 3.120e-3
-1.678, 3.163e-3
-1.679, 3.210e-3
-1.680, 3.253e-3
-1.681, 3.296e-3
-1.682, 3.342e-3
-1.683, 3.385e-3
-1.684, 3.432e-3
-1.685, 3.478e-3
-1.686, 3.524e-3
-1.687, 3.570e-3
-1.688, 3.620e-3
-1.689, 3.672e-3
-1.690, 3.725e-3
-1.691, 3.774e-3
-1.692, 3.826e-3
-1.693, 3.879e-3
-1.694, 3.931e-3
-1.695, 3.980e-3
-1.696, 4.036e-3
-1.697, 4.085e-3
-1.698, 4.141e-3
-1.699, 4.190e-3
-1.700, 4.202e-3
-1.699, 4.162e-3
-1.698, 4.119e-3
-1.697, 4.076e-3
-1.696, 4.033e-3
-1.695, 3.987e-3
-1.694, 3.940e-3
-1.693, 3.894e-3
-1.692, 3.845e-3
-1.691, 3.795e-3
-1.690, 3.746e-3
-1.689, 3.697e-3
-1.688, 3.651e-3
-1.687, 3.601e-3
-1.686, 3.555e-3
-1.685, 3.509e-3
-1.684, 3.462e-3
-1.683, 3.419e-3
-1.682, 3.373e-3
-1.681, 3.330e-3
-1.680, 3.284e-3
-1.679, 3.237e-3
-1.678, 3.191e-3
-1.677, 3.145e-3
-1.676, 3.099e-3
-1.675, 3.056e-3
-1.674, 3.009e-3
-1.673, 2.969e-3
-1.672, 2.926e-3
-1.671, 2.886e-3
-1.670, 2.846e-3
-1.669, 2.806e-3
-1.668, 2.766e-3
-1.667, 2.726e-3
-1.666, 2.682e-3
-1.665, 2.642e-3
-1.664, 2.605e-3
-1.663, 2.562e-3
-1.662, 2.522e-3
-1.661, 2.485e-3
-1.660, 2.448e-3
-1.659, 2.411e-3
-1.658, 2.374e-3
-1.657, 2.340e-3
-1.656, 2.303e-3
-1.655, 2.269e-3
-1.654, 2.235e-3
-1.653, 2.201e-3
-1.652, 2.164e-3
-1.651, 2.131e-3
-1.650, 2.094e-3
-1.649, 2.063e-3
-1.648, 2.029e-3
-1.647, 1.998e-3
-1.646, 1.964e-3
-1.645, 1.933e-3
-1.644, 1.906e-3
-1.643, 1.875e-3
-1.642, 1.844e-3
-1.641, 1.816e-3
-1.640, 1.788e-3
-1.639, 1.758e-3
-1.638, 1.727e-3
-1.637, 1.699e-3
-1.636, 1.671e-3
-1.635, 1.643e-3
-1.634, 1.616e-3
-1.633, 1.588e-3
-1.632, 1.563e-3
-1.631, 1.539e-3
-1.630, 1.514e-3
-1.629, 1.489e-3
-1.628, 1.465e-3
-1.627, 1.440e-3
-1.626, 1.415e-3
-1.625, 1.391e-3
-1.624, 1.369e-3
-1.623, 1.341e-3
-1.622, 1.320e-3
-1.621, 1.298e-3
-1.620, 1.277e-3
-1.619, 1.255e-3
-1.618, 1.233e-3
-1.617, 1.215e-3
-1.616, 1.196e-3
-1.615, 1.175e-3
-1.614, 1.156e-3
-1.613, 1.138e-3
-1.612, 1.116e-3
-1.611, 1.098e-3
-1.610, 1.076e-3
-1.609, 1.061e-3
-1.608, 1.039e-3
-1.607, 1.024e-3
-1.606, 1.008e-3
-1.605, 9.898e-4
-1.604, 9.744e-4
-1.603, 9.590e-4
-1.602, 9.405e-4
-1.601, 9.251e-4
-1.600, 9.097e-4
-1.599, 8.912e-4
-1.598, 8.758e-4
-1.597, 8.603e-4
-1.596, 8.449e-4
-1.595, 8.326e-4
-1.594, 8.172e-4
-1.593, 8.018e-4
-1.592, 7.894e-4
-1.591, 7.771e-4
-1.590, 7.648e-4
-1.589, 7.524e-4
-1.588, 7.370e-4
-1.587, 7.247e-4
-1.586, 7.124e-4
-1.585, 7.000e-4
-1.584, 6.877e-4
-1.583, 6.754e-4
-1.582, 6.630e-4
-1.581, 6.507e-4
-1.580, 6.414e-4
-1.579, 6.322e-4
-1.578, 6.229e-4
-1.577, 6.106e-4
-1.576, 6.014e-4
-1.575, 5.890e-4
-1.574, 5.798e-4
-1.573, 5.705e-4
-1.572, 5.613e-4
-1.571, 5.520e-4
-1.570, 5.428e-4
-1.569, 5.335e-4
-1.568, 5.243e-4
-1.567, 5.150e-4
-1.566, 5.089e-4
-1.565, 4.996e-4
-1.564, 4.904e-4
-1.563, 4.842e-4
-1.562, 4.780e-4
-1.561, 4.688e-4
-1.560, 4.595e-4
-1.559, 4.503e-4
-1.558, 4.441e-4
-1.557, 4.380e-4
-1.556, 4.318e-4
-1.555, 4.225e-4
-1.554, 4.164e-4
-1.553, 4.102e-4
-1.552, 4.040e-4
-1.551, 4.010e-4
-1.550, 3.948e-4
-1.549, 3.855e-4
-1.548, 3.825e-4
-1.547, 3.732e-4
-1.546, 3.670e-4
-1.545, 3.640e-4
-1.544, 3.547e-4
-1.543, 3.516e-4
-1.542, 3.455e-4
-1.541, 3.393e-4
-1.540, 3.362e-4
-1.539, 3.300e-4
-1.538, 3.270e-4
-1.537, 3.208e-4
-1.536, 3.177e-4
-1.535, 3.115e-4
-1.534, 3.085e-4
-1.533, 3.023e-4
-1.532, 2.961e-4
-1.531, 2.931e-4
-1.530, 2.900e-4
-1.529, 2.869e-4
-1.528, 2.807e-4
-1.527, 2.776e-4
-1.526, 2.746e-4
-1.525, 2.684e-4
-1.524, 2.653e-4
-1.523, 2.653e-4
-1.522, 2.591e-4
-1.521, 2.561e-4
-1.520, 2.499e-4
-1.519, 2.468e-4
-1.518, 2.437e-4
-1.517, 2.406e-4
-1.516, 2.376e-4
-1.515, 2.345e-4
-1.514, 2.314e-4
-1.513, 2.283e-4
-1.512, 2.252e-4
-1.511, 2.252e-4
-1.510, 2.221e-4
-1.509, 2.191e-4
-1.508, 2.160e-4
-1.507, 2.098e-4
-1.506, 2.098e-4
-1.505, 2.067e-4
-1.504, 2.036e-4
-1.503, 2.006e-4
-1.502, 1.975e-4
-1.501, 1.944e-4
-1.500, 1.944e-4
-1.499, 1.913e-4
-1.498, 1.913e-4
-1.497, 1.851e-4
-1.496, 1.851e-4
-1.495, 1.821e-4
-1.494, 1.790e-4
-1.493, 1.759e-4
-1.492, 1.759e-4
-1.491, 1.728e-4
-1.490, 1.697e-4
-1.489, 1.666e-4
-1.488, 1.666e-4
-1.487, 1.636e-4
-1.486, 1.636e-4
-1.485, 1.605e-4
-1.484, 1.574e-4
-1.483, 1.574e-4
-1.482, 1.543e-4
-1.481, 1.543e-4
-1.480, 1.512e-4
-1.479, 1.481e-4
-1.478, 1.451e-4
-1.477, 1.451e-4
-1.476, 1.420e-4
-1.475, 1.420e-4
-1.474, 1.389e-4
-1.473, 1.358e-4
-1.472, 1.358e-4
-1.471, 1.358e-4
-1.470, 1.327e-4
-1.469, 1.327e-4
-1.468, 1.296e-4
-1.467, 1.296e-4
-1.466, 1.266e-4
-1.465, 1.235e-4
-1.464, 1.235e-4
-1.463, 1.204e-4
-1.462, 1.173e-4
-1.461, 1.173e-4
-1.460, 1.173e-4
-1.459, 1.142e-4
-1.458, 1.142e-4
-1.457, 1.142e-4
-1.456, 1.111e-4
-1.455, 1.081e-4
-1.454, 1.081e-4
-1.453, 1.050e-4
-1.452, 1.050e-4
-1.451, 1.019e-4
-1.450, 9.882e-5
-1.449, 9.882e-5
-1.448, 9.882e-5
-1.447, 9.882e-5
-1.446, 9.573e-5
-1.445, 9.265e-5
-1.444, 9.265e-5
-1.443, 9.265e-5
-1.442, 8.957e-5
-1.441, 8.957e-5
-1.440, 8.648e-5
-1.439, 8.648e-5
-1.438, 8.340e-5
-1.437, 8.340e-5
-1.436, 8.032e-5
-1.435, 8.032e-5
-1.434, 7.723e-5
-1.433, 7.723e-5
-1.432, 7.723e-5
-1.431, 7.723e-5
-1.430, 7.415e-5
-1.429, 7.415e-5
-1.428, 7.107e-5
-1.427, 6.798e-5
-1.426, 6.798e-5
-1.425, 6.798e-5
-1.424, 6.798e-5
-1.423, 6.182e-5
-1.422, 6.182e-5
-1.421, 6.182e-5
-1.420, 6.182e-5
-1.419, 6.182e-5
-1.418, 5.873e-5
-1.417, 5.873e-5
-1.416, 5.873e-5
-1.415, 5.565e-5
-1.414, 5.565e-5
-1.413, 5.257e-5
-1.412, 5.257e-5
-1.411, 4.949e-5
-1.410, 4.949e-5
-1.409, 4.949e-5
-1.408, 4.640e-5
-1.407, 4.640e-5
-1.406, 4.640e-5
-1.405, 4.332e-5
-1.404, 4.332e-5
-1.403, 4.332e-5
-1.402, 4.332e-5
-1.401, 4.024e-5
-1.400, 4.024e-5
-1.399, 3.715e-5
-1.398, 3.407e-5
-1.397, 3.407e-5
-1.396, 3.407e-5
-1.395, 3.407e-5
-1.394, 3.099e-5
-1.393, 3.099e-5
-1.392, 3.099e-5
-1.391, 3.099e-5
-1.390, 3.099e-5
-1.389, 2.790e-5
-1.388, 2.790e-5
-1.387, 2.482e-5
-1.386, 2.482e-5
-1.385, 2.482e-5
-1.384, 2.174e-5
-1.383, 2.174e-5
-1.382, 1.865e-5
-1.381, 1.865e-5
-1.380, 1.865e-5
-1.379, 1.865e-5
-1.378, 1.865e-5
-1.377, 1.557e-5
-1.376, 1.557e-5
-1.375, 1.557e-5
-1.374, 1.557e-5
-1.373, 1.249e-5
-1.372, 1.249e-5
-1.371, 1.249e-5
-1.370, 9.405e-6
-1.369, 9.405e-6
-1.368, 9.405e-6
-1.367, 9.405e-6
-1.366, 9.405e-6
-1.365, 6.322e-6
-1.364, 6.322e-6
-1.363, 6.322e-6
-1.362, 6.322e-6
-1.361, 3.239e-6
-1.360, 3.239e-6
-1.359, 3.239e-6
-1.358, 1.559e-7
-1.357, 3.239e-6
-1.356, 1.559e-7
-1.355, 1.559e-7
-1.354, 1.559e-7
-1.353, -2.927e-6
-1.352, -2.927e-6
-1.351, -2.927e-6
-1.350, 1.559e-7
-1.349, -2.927e-6
-1.348, -2.927e-6
-1.347, -6.010e-6
-1.346, -6.010e-6
-1.345, -6.010e-6
-1.344, -6.010e-6
-1.343, -9.093e-6
-1.342, -9.093e-6
-1.341, -9.093e-6
-1.340, -9.093e-6
-1.339, -9.093e-6
-1.338, -9.093e-6
-1.337, -9.093e-6
-1.336, -1.218e-5
-1.335, -1.218e-5
-1.334, -1.218e-5
-1.333, -1.218e-5
-1.332, -1.218e-5
-1.331, -1.526e-5
-1.330, -1.526e-5
-1.329, -1.526e-5
-1.328, -1.526e-5
-1.327, -1.526e-5
-1.326, -1.526e-5
-1.325, -1.526e-5
-1.324, -1.526e-5
-1.323, -1.526e-5
-1.322, -1.526e-5
-1.321, -1.834e-5
-1.320, -1.834e-5
-1.319, -1.834e-5
-1.318, -1.834e-5
-1.317, -2.143e-5
-1.316, -2.143e-5
-1.315, -1.834e-5
-1.314, -2.143e-5
-1.313, -2.143e-5
-1.312, -2.143e-5
-1.311, -1.834e-5
-1.310, -2.143e-5
-1.309, -2.143e-5
-1.308, -2.143e-5
-1.307, -2.143e-5
-1.306, -2.451e-5
-1.305, -2.451e-5
-1.304, -2.451e-5
-1.303, -2.451e-5
-1.302, -2.451e-5
-1.301, -2.451e-5
-1.300, -2.451e-5
-1.299, -2.451e-5
-1.298, -2.451e-5
-1.297, -2.451e-5
-1.296, -2.451e-5
-1.295, -2.451e-5
-1.294, -2.451e-5
-1.293, -2.759e-5
-1.292, -2.759e-5
-1.291, -2.759e-5
-1.290, -2.759e-5
-1.289, -2.759e-5
-1.288, -2.759e-5
-1.287, -2.759e-5
-1.286, -2.759e-5
-1.285, -2.759e-5
-1.284, -2.759e-5
-1.283, -2.759e-5
-1.282, -2.759e-5
-1.281, -3.068e-5
-1.280, -3.068e-5
-1.279, -3.068e-5
-1.278, -3.068e-5
-1.277, -3.068e-5
-1.276, -3.068e-5
-1.275, -3.068e-5
-1.274, -3.068e-5
-1.273, -3.068e-5
-1.272, -3.068e-5
-1.271, -3.068e-5
-1.270, -3.068e-5
-1.269, -3.068e-5
-1.268, -3.068e-5
-1.267, -3.376e-5
-1.266, -3.068e-5
-1.265, -3.376e-5
-1.264, -3.376e-5
-1.263, -3.376e-5
-1.262, -3.376e-5
-1.261, -3.376e-5
-1.260, -3.068e-5
-1.259, -3.068e-5
-1.258, -3.376e-5
-1.257, -3.376e-5
-1.256, -3.068e-5
-1.255, -3.068e-5
-1.254, -3.376e-5
-1.253, -3.376e-5
-1.252, -3.376e-5
-1.251, -3.376e-5
-1.250, -3.376e-5
-1.249, -3.376e-5
-1.248, -3.684e-5
-1.247, -3.376e-5
-1.246, -3.376e-5
-1.245, -3.376e-5
-1.244, -3.376e-5
-1.243, -3.376e-5
-1.242, -3.376e-5
-1.241, -3.376e-5
-1.240, -3.684e-5
-1.239, -3.376e-5
-1.238, -3.684e-5
-1.237, -3.684e-5
-1.236, -3.684e-5
-1.235, -3.376e-5
-1.234, -3.684e-5
-1.233, -3.684e-5
-1.232, -3.684e-5
-1.231, -3.376e-5
-1.230, -3.376e-5
-1.229, -3.684e-5
-1.228, -3.684e-5
-1.227, -3.684e-5
-1.226, -3.684e-5
-1.225, -3.684e-5
-1.224, -3.684e-5
-1.223, -3.684e-5
-1.222, -3.684e-5
-1.221, -3.684e-5
-1.220, -3.684e-5
-1.219, -3.684e-5
-1.218, -3.376e-5
-1.217, -3.684e-5
-1.216, -3.376e-5
-1.215, -3.684e-5
-1.214, -3.684e-5
-1.213, -3.684e-5
-1.212, -3.684e-5
-1.211, -3.684e-5
-1.210, -3.684e-5
-1.209, -3.992e-5
-1.208, -3.684e-5
-1.207, -3.684e-5
-1.206, -3.684e-5
-1.205, -3.684e-5
-1.204, -3.684e-5
-1.203, -3.684e-5
-1.202, -3.684e-5
-1.201, -3.684e-5
-1.200, -3.684e-5
-1.199, -3.684e-5
-1.198, -3.992e-5
-1.197, -3.684e-5
-1.196, -3.684e-5
-1.195, -3.684e-5
-1.194, -3.992e-5
-1.193, -3.684e-5
-1.192, -3.684e-5
-1.191, -3.684e-5
-1.190, -3.684e-5
-1.189, -3.684e-5
-1.188, -3.684e-5
-1.187, -3.992e-5
-1.186, -3.992e-5
-1.185, -3.992e-5
-1.184, -3.992e-5
-1.183, -3.992e-5
-1.182, -3.992e-5
-1.181, -3.992e-5
-1.180, -3.992e-5
-1.179, -3.684e-5
-1.178, -3.684e-5
-1.177, -3.684e-5
-1.176, -3.992e-5
-1.175, -3.684e-5
-1.174, -3.992e-5
-1.173, -3.684e-5
-1.172, -3.992e-5
-1.171, -3.992e-5
-1.170, -3.992e-5
-1.169, -3.992e-5
-1.168, -3.992e-5
-1.167, -3.992e-5
-1.166, -3.992e-5
-1.165, -3.992e-5
-1.164, -3.992e-5
-1.163, -3.992e-5
-1.162, -3.992e-5
-1.161, -3.992e-5
-1.160, -3.992e-5
-1.159, -3.992e-5
-1.158, -3.992e-5
-1.157, -3.992e-5
-1.156, -3.992e-5
-1.155, -4.301e-5
-1.154, -4.301e-5
-1.153, -3.992e-5
-1.152, -3.992e-5
-1.151, -3.992e-5
-1.150, -3.684e-5
-1.149, -3.992e-5
-1.148, -3.992e-5
-1.147, -3.992e-5
-1.146, -3.992e-5
-1.145, -3.992e-5
-1.144, -3.992e-5
-1.143, -4.301e-5
-1.142, -4.301e-5
-1.141, -4.301e-5
-1.140, -3.992e-5
-1.139, -3.992e-5
-1.138, -3.992e-5
-1.137, -3.992e-5
-1.136, -3.992e-5
-1.135, -4.301e-5
-1.134, -3.992e-5
-1.133, -3.992e-5
-1.132, -4.301e-5
-1.131, -4.301e-5
-1.130, -4.301e-5
-1.129, -4.301e-5
-1.128, -4.301e-5
-1.127, -4.301e-5
-1.126, -3.992e-5
-1.125, -4.301e-5
-1.124, -3.992e-5
-1.123, -3.992e-5
-1.122, -4.301e-5
-1.121, -4.301e-5
-1.120, -4.301e-5
-1.119, -4.301e-5
-1.118, -4.301e-5
-1.117, -4.301e-5
-1.116, -4.301e-5
-1.115, -4.301e-5
-1.114, -4.609e-5
-1.113, -4.301e-5
-1.112, -4.609e-5
-1.111, -4.301e-5
-1.110, -4.301e-5
-1.109, -4.301e-5
-1.108, -4.301e-5
-1.107, -4.609e-5
-1.106, -4.609e-5
-1.105, -4.609e-5
-1.104, -4.609e-5
-1.103, -4.301e-5
-1.102, -4.609e-5
-1.101, -4.609e-5
-1.100, -4.609e-5
-1.099, -4.301e-5
-1.098, -4.301e-5
-1.097, -4.301e-5
-1.096, -4.301e-5
-1.095, -4.301e-5
-1.094, -4.609e-5
-1.093, -4.301e-5
-1.092, -4.609e-5
-1.091, -4.609e-5
-1.090, -4.609e-5
-1.089, -4.609e-5
-1.088, -4.609e-5
-1.087, -4.609e-5
-1.086, -4.609e-5
-1.085, -4.609e-5
-1.084, -4.609e-5
-1.083, -4.609e-5
-1.082, -4.609e-5
-1.081, -4.609e-5
-1.080, -4.917e-5
-1.079, -4.609e-5
-1.078, -4.609e-5
-1.077, -4.609e-5
-1.076, -4.917e-5
-1.075, -4.917e-5
-1.074, -4.917e-5
-1.073, -4.917e-5
-1.072, -4.609e-5
-1.071, -4.609e-5
-1.070, -4.609e-5
-1.069, -4.917e-5
-1.068, -4.917e-5
-1.067, -4.917e-5
-1.066, -4.917e-5
-1.065, -4.917e-5
-1.064, -4.917e-5
-1.063, -4.917e-5
-1.062, -4.917e-5
-1.061, -4.917e-5
-1.060, -4.917e-5
-1.059, -4.917e-5
-1.058, -4.917e-5
-1.057, -4.917e-5
-1.056, -4.917e-5
-1.055, -4.917e-5
-1.054, -4.917e-5
-1.053, -4.917e-5
-1.052, -4.917e-5
-1.051, -5.226e-5
-1.050, -5.226e-5
-1.049, -5.226e-5
-1.048, -5.226e-5
-1.047, -5.226e-5
-1.046, -5.226e-5
-1.045, -4.917e-5
-1.044, -5.226e-5
-1.043, -4.917e-5
-1.042, -5.226e-5
-1.041, -5.226e-5
-1.040, -5.226e-5
-1.039, -5.226e-5
-1.038, -5.534e-5
-1.037, -5.226e-5
-1.036, -5.226e-5
-1.035, -5.226e-5
-1.034, -5.534e-5
-1.033, -5.226e-5
-1.032, -5.226e-5
-1.031, -5.226e-5
-1.030, -5.226e-5
-1.029, -5.226e-5
-1.028, -5.226e-5
-1.027, -5.226e-5
-1.026, -5.534e-5
-1.025, -5.534e-5
-1.024, -5.534e-5
-1.023, -5.534e-5
-1.022, -5.534e-5
-1.021, -5.534e-5
-1.020, -5.534e-5
-1.019, -5.534e-5
-1.018, -5.534e-5
-1.017, -5.534e-5
-1.016, -5.534e-5
-1.015, -5.534e-5
-1.014, -5.534e-5
-1.013, -5.842e-5
-1.012, -5.842e-5
-1.011, -5.842e-5
-1.010, -5.842e-5
-1.009, -5.842e-5
-1.008, -5.842e-5
-1.007, -5.842e-5
-1.006, -5.842e-5
-1.005, -5.842e-5
-1.004, -5.842e-5
-1.003, -5.842e-5
-1.002, -5.842e-5
-1.001, -6.151e-5
