Sept. 16, 2024   13:40:48
Cyclic Voltammetry
File: c:/users/guazh/data/20240903_batch_252_500/2024-09-03-exp370\exp370-2024-09-16t13_23_06-h2koh\exp370_cv_sr_100mvs_efin_-1700mv.bin
Data Source:  Experiment
Instrument Model:  CHI760E
Header: CV ran at 100 mVs
Note: 

Init E (V) = -1
High E (V) = -1
Low E (V) = -1.7
Final E (V) = -1
Init P/N = N
Scan Rate (V/s) = 0.1
Segment = 3
Sample Interval (V) = 0.001
Quiet Time (sec) = 2
Sensitivity (A/V) = 0.01
Comp R (ohm) = 2.9

Results:

Channel 1:
Segment 1:

Segment 2:

Segment 3:

Potential/V, Current/A

-1.000, 2.622e-6
-1.001, 1.181e-5
-1.002, 1.347e-5
-1.003, 1.494e-5
-1.004, 1.668e-5
-1.005, 1.638e-5
-1.006, 1.781e-5
-1.007, 1.835e-5
-1.008, 1.882e-5
-1.009, 2.005e-5
-1.010, 1.961e-5
-1.011, 2.075e-5
-1.012, 2.083e-5
-1.013, 2.139e-5
-1.014, 2.217e-5
-1.015, 2.186e-5
-1.016, 2.277e-5
-1.017, 2.256e-5
-1.018, 2.322e-5
-1.019, 2.384e-5
-1.020, 2.330e-5
-1.021, 2.445e-5
-1.022, 2.400e-5
-1.023, 2.473e-5
-1.024, 2.560e-5
-1.025, 2.464e-5
-1.026, 2.570e-5
-1.027, 2.530e-5
-1.028, 2.605e-5
-1.029, 2.668e-5
-1.030, 2.582e-5
-1.031, 2.714e-5
-1.032, 2.665e-5
-1.033, 2.694e-5
-1.034, 2.758e-5
-1.035, 2.690e-5
-1.036, 2.797e-5
-1.037, 2.767e-5
-1.038, 2.807e-5
-1.039, 2.866e-5
-1.040, 2.769e-5
-1.041, 2.886e-5
-1.042, 2.850e-5
-1.043, 2.886e-5
-1.044, 2.951e-5
-1.045, 2.858e-5
-1.046, 2.972e-5
-1.047, 2.943e-5
-1.048, 2.960e-5
-1.049, 3.020e-5
-1.050, 2.947e-5
-1.051, 3.040e-5
-1.052, 3.032e-5
-1.053, 3.041e-5
-1.054, 3.104e-5
-1.055, 3.036e-5
-1.056, 3.116e-5
-1.057, 3.099e-5
-1.058, 3.121e-5
-1.059, 3.158e-5
-1.060, 3.093e-5
-1.061, 3.186e-5
-1.062, 3.149e-5
-1.063, 3.182e-5
-1.064, 3.227e-5
-1.065, 3.145e-5
-1.066, 3.250e-5
-1.067, 3.208e-5
-1.068, 3.257e-5
-1.069, 3.301e-5
-1.070, 3.187e-5
-1.071, 3.317e-5
-1.072, 3.263e-5
-1.073, 3.309e-5
-1.074, 3.360e-5
-1.075, 3.280e-5
-1.076, 3.381e-5
-1.077, 3.338e-5
-1.078, 3.345e-5
-1.079, 3.431e-5
-1.080, 3.310e-5
-1.081, 3.434e-5
-1.082, 3.388e-5
-1.083, 3.408e-5
-1.084, 3.466e-5
-1.085, 3.364e-5
-1.086, 3.458e-5
-1.087, 3.449e-5
-1.088, 3.457e-5
-1.089, 3.500e-5
-1.090, 3.442e-5
-1.091, 3.510e-5
-1.092, 3.497e-5
-1.093, 3.506e-5
-1.094, 3.562e-5
-1.095, 3.475e-5
-1.096, 3.566e-5
-1.097, 3.517e-5
-1.098, 3.545e-5
-1.099, 3.599e-5
-1.100, 3.518e-5
-1.101, 3.625e-5
-1.102, 3.558e-5
-1.103, 3.596e-5
-1.104, 3.636e-5
-1.105, 3.549e-5
-1.106, 3.648e-5
-1.107, 3.604e-5
-1.108, 3.629e-5
-1.109, 3.671e-5
-1.110, 3.581e-5
-1.111, 3.694e-5
-1.112, 3.630e-5
-1.113, 3.665e-5
-1.114, 3.730e-5
-1.115, 3.624e-5
-1.116, 3.725e-5
-1.117, 3.680e-5
-1.118, 3.689e-5
-1.119, 3.752e-5
-1.120, 3.646e-5
-1.121, 3.758e-5
-1.122, 3.702e-5
-1.123, 3.720e-5
-1.124, 3.793e-5
-1.125, 3.682e-5
-1.126, 3.755e-5
-1.127, 3.739e-5
-1.128, 3.748e-5
-1.129, 3.801e-5
-1.130, 3.707e-5
-1.131, 3.810e-5
-1.132, 3.754e-5
-1.133, 3.775e-5
-1.134, 3.832e-5
-1.135, 3.729e-5
-1.136, 3.820e-5
-1.137, 3.779e-5
-1.138, 3.800e-5
-1.139, 3.845e-5
-1.140, 3.738e-5
-1.141, 3.847e-5
-1.142, 3.789e-5
-1.143, 3.830e-5
-1.144, 3.855e-5
-1.145, 3.762e-5
-1.146, 3.881e-5
-1.147, 3.813e-5
-1.148, 3.836e-5
-1.149, 3.890e-5
-1.150, 3.779e-5
-1.151, 3.876e-5
-1.152, 3.841e-5
-1.153, 3.838e-5
-1.154, 3.905e-5
-1.155, 3.795e-5
-1.156, 3.901e-5
-1.157, 3.840e-5
-1.158, 3.848e-5
-1.159, 3.912e-5
-1.160, 3.781e-5
-1.161, 3.901e-5
-1.162, 3.854e-5
-1.163, 3.852e-5
-1.164, 3.923e-5
-1.165, 3.819e-5
-1.166, 3.905e-5
-1.167, 3.861e-5
-1.168, 3.877e-5
-1.169, 3.923e-5
-1.170, 3.834e-5
-1.171, 3.932e-5
-1.172, 3.897e-5
-1.173, 3.869e-5
-1.174, 3.923e-5
-1.175, 3.831e-5
-1.176, 3.930e-5
-1.177, 3.884e-5
-1.178, 3.890e-5
-1.179, 3.932e-5
-1.180, 3.849e-5
-1.181, 3.942e-5
-1.182, 3.880e-5
-1.183, 3.905e-5
-1.184, 3.946e-5
-1.185, 3.834e-5
-1.186, 3.939e-5
-1.187, 3.878e-5
-1.188, 3.914e-5
-1.189, 3.951e-5
-1.190, 3.838e-5
-1.191, 3.967e-5
-1.192, 3.891e-5
-1.193, 3.908e-5
-1.194, 3.977e-5
-1.195, 3.851e-5
-1.196, 3.966e-5
-1.197, 3.914e-5
-1.198, 3.918e-5
-1.199, 3.994e-5
-1.200, 3.862e-5
-1.201, 3.972e-5
-1.202, 3.917e-5
-1.203, 3.912e-5
-1.204, 3.999e-5
-1.205, 3.872e-5
-1.206, 3.969e-5
-1.207, 3.924e-5
-1.208, 3.930e-5
-1.209, 3.994e-5
-1.210, 3.900e-5
-1.211, 3.983e-5
-1.212, 3.934e-5
-1.213, 3.935e-5
-1.214, 3.995e-5
-1.215, 3.910e-5
-1.216, 3.994e-5
-1.217, 3.957e-5
-1.218, 3.967e-5
-1.219, 4.005e-5
-1.220, 3.912e-5
-1.221, 4.014e-5
-1.222, 3.951e-5
-1.223, 3.992e-5
-1.224, 4.026e-5
-1.225, 3.919e-5
-1.226, 4.047e-5
-1.227, 3.943e-5
-1.228, 4.014e-5
-1.229, 4.077e-5
-1.230, 3.956e-5
-1.231, 4.057e-5
-1.232, 3.993e-5
-1.233, 4.024e-5
-1.234, 4.071e-5
-1.235, 3.956e-5
-1.236, 4.075e-5
-1.237, 4.006e-5
-1.238, 4.017e-5
-1.239, 4.097e-5
-1.240, 3.978e-5
-1.241, 4.087e-5
-1.242, 4.051e-5
-1.243, 4.039e-5
-1.244, 4.114e-5
-1.245, 3.993e-5
-1.246, 4.080e-5
-1.247, 4.052e-5
-1.248, 4.073e-5
-1.249, 4.102e-5
-1.250, 4.024e-5
-1.251, 4.120e-5
-1.252, 4.086e-5
-1.253, 4.080e-5
-1.254, 4.131e-5
-1.255, 4.049e-5
-1.256, 4.144e-5
-1.257, 4.099e-5
-1.258, 4.113e-5
-1.259, 4.161e-5
-1.260, 4.068e-5
-1.261, 4.172e-5
-1.262, 4.118e-5
-1.263, 4.132e-5
-1.264, 4.177e-5
-1.265, 4.082e-5
-1.266, 4.189e-5
-1.267, 4.143e-5
-1.268, 4.172e-5
-1.269, 4.208e-5
-1.270, 4.109e-5
-1.271, 4.251e-5
-1.272, 4.166e-5
-1.273, 4.184e-5
-1.274, 4.250e-5
-1.275, 4.135e-5
-1.276, 4.273e-5
-1.277, 4.194e-5
-1.278, 4.211e-5
-1.279, 4.282e-5
-1.280, 4.182e-5
-1.281, 4.300e-5
-1.282, 4.255e-5
-1.283, 4.244e-5
-1.284, 4.317e-5
-1.285, 4.207e-5
-1.286, 4.296e-5
-1.287, 4.283e-5
-1.288, 4.276e-5
-1.289, 4.342e-5
-1.290, 4.235e-5
-1.291, 4.364e-5
-1.292, 4.306e-5
-1.293, 4.322e-5
-1.294, 4.372e-5
-1.295, 4.286e-5
-1.296, 4.389e-5
-1.297, 4.327e-5
-1.298, 4.359e-5
-1.299, 4.401e-5
-1.300, 4.320e-5
-1.301, 4.419e-5
-1.302, 4.361e-5
-1.303, 4.411e-5
-1.304, 4.444e-5
-1.305, 4.351e-5
-1.306, 4.476e-5
-1.307, 4.401e-5
-1.308, 4.456e-5
-1.309, 4.490e-5
-1.310, 4.401e-5
-1.311, 4.525e-5
-1.312, 4.455e-5
-1.313, 4.476e-5
-1.314, 4.532e-5
-1.315, 4.434e-5
-1.316, 4.558e-5
-1.317, 4.478e-5
-1.318, 4.512e-5
-1.319, 4.602e-5
-1.320, 4.464e-5
-1.321, 4.586e-5
-1.322, 4.533e-5
-1.323, 4.553e-5
-1.324, 4.628e-5
-1.325, 4.504e-5
-1.326, 4.628e-5
-1.327, 4.580e-5
-1.328, 4.600e-5
-1.329, 4.669e-5
-1.330, 4.557e-5
-1.331, 4.675e-5
-1.332, 4.627e-5
-1.333, 4.642e-5
-1.334, 4.696e-5
-1.335, 4.608e-5
-1.336, 4.707e-5
-1.337, 4.672e-5
-1.338, 4.703e-5
-1.339, 4.752e-5
-1.340, 4.656e-5
-1.341, 4.770e-5
-1.342, 4.697e-5
-1.343, 4.742e-5
-1.344, 4.810e-5
-1.345, 4.664e-5
-1.346, 4.839e-5
-1.347, 4.735e-5
-1.348, 4.801e-5
-1.349, 4.834e-5
-1.350, 4.719e-5
-1.351, 4.872e-5
-1.352, 4.787e-5
-1.353, 4.825e-5
-1.354, 4.896e-5
-1.355, 4.760e-5
-1.356, 4.901e-5
-1.357, 4.847e-5
-1.358, 4.860e-5
-1.359, 4.934e-5
-1.360, 4.825e-5
-1.361, 4.948e-5
-1.362, 4.895e-5
-1.363, 4.900e-5
-1.364, 4.987e-5
-1.365, 4.867e-5
-1.366, 4.980e-5
-1.367, 4.948e-5
-1.368, 4.952e-5
-1.369, 5.011e-5
-1.370, 4.904e-5
-1.371, 5.046e-5
-1.372, 4.985e-5
-1.373, 4.998e-5
-1.374, 5.058e-5
-1.375, 4.973e-5
-1.376, 5.089e-5
-1.377, 5.018e-5
-1.378, 5.069e-5
-1.379, 5.099e-5
-1.380, 5.015e-5
-1.381, 5.119e-5
-1.382, 5.079e-5
-1.383, 5.103e-5
-1.384, 5.167e-5
-1.385, 5.040e-5
-1.386, 5.196e-5
-1.387, 5.118e-5
-1.388, 5.146e-5
-1.389, 5.204e-5
-1.390, 5.094e-5
-1.391, 5.244e-5
-1.392, 5.150e-5
-1.393, 5.197e-5
-1.394, 5.248e-5
-1.395, 5.153e-5
-1.396, 5.279e-5
-1.397, 5.201e-5
-1.398, 5.239e-5
-1.399, 5.314e-5
-1.400, 5.186e-5
-1.401, 5.330e-5
-1.402, 5.271e-5
-1.403, 5.297e-5
-1.404, 5.353e-5
-1.405, 5.244e-5
-1.406, 5.386e-5
-1.407, 5.319e-5
-1.408, 5.361e-5
-1.409, 5.417e-5
-1.410, 5.321e-5
-1.411, 5.441e-5
-1.412, 5.401e-5
-1.413, 5.414e-5
-1.414, 5.483e-5
-1.415, 5.393e-5
-1.416, 5.493e-5
-1.417, 5.443e-5
-1.418, 5.473e-5
-1.419, 5.528e-5
-1.420, 5.445e-5
-1.421, 5.576e-5
-1.422, 5.508e-5
-1.423, 5.559e-5
-1.424, 5.596e-5
-1.425, 5.498e-5
-1.426, 5.655e-5
-1.427, 5.566e-5
-1.428, 5.655e-5
-1.429, 5.677e-5
-1.430, 5.599e-5
-1.431, 5.745e-5
-1.432, 5.666e-5
-1.433, 5.711e-5
-1.434, 5.792e-5
-1.435, 5.708e-5
-1.436, 5.846e-5
-1.437, 5.796e-5
-1.438, 5.826e-5
-1.439, 5.915e-5
-1.440, 5.823e-5
-1.441, 5.956e-5
-1.442, 5.915e-5
-1.443, 5.954e-5
-1.444, 6.029e-5
-1.445, 5.942e-5
-1.446, 6.083e-5
-1.447, 6.069e-5
-1.448, 6.094e-5
-1.449, 6.178e-5
-1.450, 6.094e-5
-1.451, 6.251e-5
-1.452, 6.217e-5
-1.453, 6.277e-5
-1.454, 6.358e-5
-1.455, 6.289e-5
-1.456, 6.442e-5
-1.457, 6.404e-5
-1.458, 6.475e-5
-1.459, 6.555e-5
-1.460, 6.498e-5
-1.461, 6.663e-5
-1.462, 6.625e-5
-1.463, 6.705e-5
-1.464, 6.795e-5
-1.465, 6.751e-5
-1.466, 6.931e-5
-1.467, 6.894e-5
-1.468, 6.988e-5
-1.469, 7.079e-5
-1.470, 7.049e-5
-1.471, 7.246e-5
-1.472, 7.211e-5
-1.473, 7.314e-5
-1.474, 7.443e-5
-1.475, 7.406e-5
-1.476, 7.597e-5
-1.477, 7.606e-5
-1.478, 7.703e-5
-1.479, 7.861e-5
-1.480, 7.840e-5
-1.481, 8.047e-5
-1.482, 8.075e-5
-1.483, 8.195e-5
-1.484, 8.371e-5
-1.485, 8.362e-5
-1.486, 8.591e-5
-1.487, 8.657e-5
-1.488, 8.783e-5
-1.489, 8.961e-5
-1.490, 8.996e-5
-1.491, 9.264e-5
-1.492, 9.342e-5
-1.493, 9.486e-5
-1.494, 9.693e-5
-1.495, 9.758e-5
-1.496, 1.003e-4
-1.497, 1.013e-4
-1.498, 1.036e-4
-1.499, 1.058e-4
-1.500, 1.067e-4
-1.501, 1.099e-4
-1.502, 1.111e-4
-1.503, 1.136e-4
-1.504, 1.162e-4
-1.505, 1.176e-4
-1.506, 1.212e-4
-1.507, 1.228e-4
-1.508, 1.256e-4
-1.509, 1.288e-4
-1.510, 1.306e-4
-1.511, 1.345e-4
-1.512, 1.366e-4
-1.513, 1.399e-4
-1.514, 1.435e-4
-1.515, 1.457e-4
-1.516, 1.500e-4
-1.517, 1.527e-4
-1.518, 1.562e-4
-1.519, 1.602e-4
-1.520, 1.629e-4
-1.521, 1.677e-4
-1.522, 1.705e-4
-1.523, 1.747e-4
-1.524, 1.791e-4
-1.525, 1.821e-4
-1.526, 1.875e-4
-1.527, 1.909e-4
-1.528, 1.952e-4
-1.529, 2.000e-4
-1.530, 2.036e-4
-1.531, 2.091e-4
-1.532, 2.129e-4
-1.533, 2.178e-4
-1.534, 2.229e-4
-1.535, 2.270e-4
-1.536, 2.329e-4
-1.537, 2.370e-4
-1.538, 2.425e-4
-1.539, 2.480e-4
-1.540, 2.524e-4
-1.541, 2.589e-4
-1.542, 2.635e-4
-1.543, 2.697e-4
-1.544, 2.755e-4
-1.545, 2.805e-4
-1.546, 2.874e-4
-1.547, 2.925e-4
-1.548, 2.990e-4
-1.549, 3.055e-4
-1.550, 3.111e-4
-1.551, 3.187e-4
-1.552, 3.244e-4
-1.553, 3.314e-4
-1.554, 3.387e-4
-1.555, 3.446e-4
-1.556, 3.531e-4
-1.557, 3.594e-4
-1.558, 3.671e-4
-1.559, 3.748e-4
-1.560, 3.815e-4
-1.561, 3.906e-4
-1.562, 3.979e-4
-1.563, 4.061e-4
-1.564, 4.146e-4
-1.565, 4.221e-4
-1.566, 4.317e-4
-1.567, 4.396e-4
-1.568, 4.489e-4
-1.569, 4.586e-4
-1.570, 4.674e-4
-1.571, 4.781e-4
-1.572, 4.871e-4
-1.573, 4.974e-4
-1.574, 5.083e-4
-1.575, 5.180e-4
-1.576, 5.301e-4
-1.577, 5.404e-4
-1.578, 5.516e-4
-1.579, 5.640e-4
-1.580, 5.752e-4
-1.581, 5.885e-4
-1.582, 6.002e-4
-1.583, 6.134e-4
-1.584, 6.264e-4
-1.585, 6.396e-4
-1.586, 6.546e-4
-1.587, 6.687e-4
-1.588, 6.838e-4
-1.589, 6.990e-4
-1.590, 7.133e-4
-1.591, 7.308e-4
-1.592, 7.459e-4
-1.593, 7.633e-4
-1.594, 7.817e-4
-1.595, 7.984e-4
-1.596, 8.187e-4
-1.597, 8.366e-4
-1.598, 8.567e-4
-1.599, 8.777e-4
-1.600, 8.978e-4
-1.601, 9.213e-4
-1.602, 9.428e-4
-1.603, 9.660e-4
-1.604, 9.904e-4
-1.605, 1.013e-3
-1.606, 1.039e-3
-1.607, 1.064e-3
-1.608, 1.092e-3
-1.609, 1.120e-3
-1.610, 1.147e-3
-1.611, 1.178e-3
-1.612, 1.206e-3
-1.613, 1.236e-3
-1.614, 1.267e-3
-1.615, 1.299e-3
-1.616, 1.333e-3
-1.617, 1.367e-3
-1.618, 1.403e-3
-1.619, 1.439e-3
-1.620, 1.476e-3
-1.621, 1.514e-3
-1.622, 1.550e-3
-1.623, 1.589e-3
-1.624, 1.629e-3
-1.625, 1.668e-3
-1.626, 1.709e-3
-1.627, 1.748e-3
-1.628, 1.788e-3
-1.629, 1.826e-3
-1.630, 1.866e-3
-1.631, 1.908e-3
-1.632, 1.946e-3
-1.633, 1.989e-3
-1.634, 2.029e-3
-1.635, 2.068e-3
-1.636, 2.110e-3
-1.637, 2.149e-3
-1.638, 2.191e-3
-1.639, 2.232e-3
-1.640, 2.272e-3
-1.641, 2.314e-3
-1.642, 2.352e-3
-1.643, 2.394e-3
-1.644, 2.435e-3
-1.645, 2.474e-3
-1.646, 2.515e-3
-1.647, 2.554e-3
-1.648, 2.594e-3
-1.649, 2.634e-3
-1.650, 2.675e-3
-1.651, 2.714e-3
-1.652, 2.753e-3
-1.653, 2.793e-3
-1.654, 2.834e-3
-1.655, 2.875e-3
-1.656, 2.917e-3
-1.657, 2.958e-3
-1.658, 2.997e-3
-1.659, 3.037e-3
-1.660, 3.079e-3
-1.661, 3.124e-3
-1.662, 3.163e-3
-1.663, 3.207e-3
-1.664, 3.246e-3
-1.665, 3.288e-3
-1.666, 3.328e-3
-1.667, 3.367e-3
-1.668, 3.408e-3
-1.669, 3.448e-3
-1.670, 3.491e-3
-1.671, 3.532e-3
-1.672, 3.574e-3
-1.673, 3.616e-3
-1.674, 3.659e-3
-1.675, 3.702e-3
-1.676, 3.748e-3
-1.677, 3.789e-3
-1.678, 3.834e-3
-1.679, 3.876e-3
-1.680, 3.918e-3
-1.681, 3.961e-3
-1.682, 4.004e-3
-1.683, 4.052e-3
-1.684, 4.096e-3
-1.685, 4.136e-3
-1.686, 4.179e-3
-1.687, 4.222e-3
-1.688, 4.268e-3
-1.689, 4.314e-3
-1.690, 4.361e-3
-1.691, 4.407e-3
-1.692, 4.449e-3
-1.693, 4.495e-3
-1.694, 4.538e-3
-1.695, 4.583e-3
-1.696, 4.629e-3
-1.697, 4.672e-3
-1.698, 4.715e-3
-1.699, 4.761e-3
-1.700, 4.755e-3
-1.699, 4.702e-3
-1.698, 4.650e-3
-1.697, 4.599e-3
-1.696, 4.551e-3
-1.695, 4.502e-3
-1.694, 4.453e-3
-1.693, 4.403e-3
-1.692, 4.354e-3
-1.691, 4.306e-3
-1.690, 4.254e-3
-1.689, 4.208e-3
-1.688, 4.163e-3
-1.687, 4.116e-3
-1.686, 4.065e-3
-1.685, 4.019e-3
-1.684, 3.972e-3
-1.683, 3.925e-3
-1.682, 3.878e-3
-1.681, 3.831e-3
-1.680, 3.784e-3
-1.679, 3.739e-3
-1.678, 3.689e-3
-1.677, 3.644e-3
-1.676, 3.597e-3
-1.675, 3.551e-3
-1.674, 3.507e-3
-1.673, 3.458e-3
-1.672, 3.415e-3
-1.671, 3.369e-3
-1.670, 3.320e-3
-1.669, 3.273e-3
-1.668, 3.229e-3
-1.667, 3.183e-3
-1.666, 3.138e-3
-1.665, 3.096e-3
-1.664, 3.056e-3
-1.663, 3.013e-3
-1.662, 2.970e-3
-1.661, 2.928e-3
-1.660, 2.887e-3
-1.659, 2.845e-3
-1.658, 2.802e-3
-1.657, 2.764e-3
-1.656, 2.725e-3
-1.655, 2.684e-3
-1.654, 2.644e-3
-1.653, 2.603e-3
-1.652, 2.564e-3
-1.651, 2.525e-3
-1.650, 2.487e-3
-1.649, 2.448e-3
-1.648, 2.407e-3
-1.647, 2.369e-3
-1.646, 2.331e-3
-1.645, 2.293e-3
-1.644, 2.256e-3
-1.643, 2.219e-3
-1.642, 2.184e-3
-1.641, 2.149e-3
-1.640, 2.111e-3
-1.639, 2.076e-3
-1.638, 2.038e-3
-1.637, 2.003e-3
-1.636, 1.968e-3
-1.635, 1.932e-3
-1.634, 1.900e-3
-1.633, 1.864e-3
-1.632, 1.833e-3
-1.631, 1.798e-3
-1.630, 1.763e-3
-1.629, 1.732e-3
-1.628, 1.699e-3
-1.627, 1.668e-3
-1.626, 1.636e-3
-1.625, 1.603e-3
-1.624, 1.573e-3
-1.623, 1.542e-3
-1.622, 1.514e-3
-1.621, 1.484e-3
-1.620, 1.453e-3
-1.619, 1.424e-3
-1.618, 1.394e-3
-1.617, 1.366e-3
-1.616, 1.337e-3
-1.615, 1.309e-3
-1.614, 1.282e-3
-1.613, 1.254e-3
-1.612, 1.227e-3
-1.611, 1.201e-3
-1.610, 1.175e-3
-1.609, 1.151e-3
-1.608, 1.125e-3
-1.607, 1.101e-3
-1.606, 1.075e-3
-1.605, 1.050e-3
-1.604, 1.027e-3
-1.603, 1.002e-3
-1.602, 9.796e-4
-1.601, 9.558e-4
-1.600, 9.325e-4
-1.599, 9.098e-4
-1.598, 8.871e-4
-1.597, 8.661e-4
-1.596, 8.451e-4
-1.595, 8.230e-4
-1.594, 8.029e-4
-1.593, 7.803e-4
-1.592, 7.610e-4
-1.591, 7.411e-4
-1.590, 7.213e-4
-1.589, 7.036e-4
-1.588, 6.836e-4
-1.587, 6.650e-4
-1.586, 6.472e-4
-1.585, 6.287e-4
-1.584, 6.133e-4
-1.583, 5.951e-4
-1.582, 5.792e-4
-1.581, 5.629e-4
-1.580, 5.461e-4
-1.579, 5.314e-4
-1.578, 5.146e-4
-1.577, 5.002e-4
-1.576, 4.855e-4
-1.575, 4.702e-4
-1.574, 4.572e-4
-1.573, 4.423e-4
-1.572, 4.294e-4
-1.571, 4.161e-4
-1.570, 4.029e-4
-1.569, 3.912e-4
-1.568, 3.773e-4
-1.567, 3.658e-4
-1.566, 3.538e-4
-1.565, 3.419e-4
-1.564, 3.318e-4
-1.563, 3.194e-4
-1.562, 3.095e-4
-1.561, 2.985e-4
-1.560, 2.881e-4
-1.559, 2.792e-4
-1.558, 2.682e-4
-1.557, 2.592e-4
-1.556, 2.500e-4
-1.555, 2.404e-4
-1.554, 2.329e-4
-1.553, 2.229e-4
-1.552, 2.157e-4
-1.551, 2.076e-4
-1.550, 1.987e-4
-1.549, 1.922e-4
-1.548, 1.831e-4
-1.547, 1.768e-4
-1.546, 1.696e-4
-1.545, 1.618e-4
-1.544, 1.563e-4
-1.543, 1.483e-4
-1.542, 1.425e-4
-1.541, 1.364e-4
-1.540, 1.298e-4
-1.539, 1.249e-4
-1.538, 1.181e-4
-1.537, 1.128e-4
-1.536, 1.075e-4
-1.535, 1.016e-4
-1.534, 9.746e-5
-1.533, 9.164e-5
-1.532, 8.721e-5
-1.531, 8.259e-5
-1.530, 7.749e-5
-1.529, 7.393e-5
-1.528, 6.849e-5
-1.527, 6.498e-5
-1.526, 6.074e-5
-1.525, 5.624e-5
-1.524, 5.328e-5
-1.523, 4.838e-5
-1.522, 4.529e-5
-1.521, 4.164e-5
-1.520, 3.758e-5
-1.519, 3.537e-5
-1.518, 3.098e-5
-1.517, 2.843e-5
-1.516, 2.515e-5
-1.515, 2.152e-5
-1.514, 1.984e-5
-1.513, 1.553e-5
-1.512, 1.365e-5
-1.511, 1.091e-5
-1.510, 7.644e-6
-1.509, 6.342e-6
-1.508, 2.672e-6
-1.507, 7.577e-7
-1.506, -1.225e-6
-1.505, -4.402e-6
-1.504, -5.231e-6
-1.503, -8.378e-6
-1.502, -1.008e-5
-1.501, -1.156e-5
-1.500, -1.446e-5
-1.499, -1.522e-5
-1.498, -1.803e-5
-1.497, -1.938e-5
-1.496, -2.069e-5
-1.495, -2.302e-5
-1.494, -2.366e-5
-1.493, -2.614e-5
-1.492, -2.720e-5
-1.491, -2.861e-5
-1.490, -3.055e-5
-1.489, -3.114e-5
-1.488, -3.317e-5
-1.487, -3.397e-5
-1.486, -3.506e-5
-1.485, -3.727e-5
-1.484, -3.708e-5
-1.483, -3.939e-5
-1.482, -3.992e-5
-1.481, -4.103e-5
-1.480, -4.248e-5
-1.479, -4.236e-5
-1.478, -4.470e-5
-1.477, -4.495e-5
-1.476, -4.568e-5
-1.475, -4.722e-5
-1.474, -4.680e-5
-1.473, -4.897e-5
-1.472, -4.900e-5
-1.471, -4.963e-5
-1.470, -5.120e-5
-1.469, -5.056e-5
-1.468, -5.250e-5
-1.467, -5.267e-5
-1.466, -5.299e-5
-1.465, -5.448e-5
-1.464, -5.377e-5
-1.463, -5.531e-5
-1.462, -5.555e-5
-1.461, -5.572e-5
-1.460, -5.692e-5
-1.459, -5.632e-5
-1.458, -5.790e-5
-1.457, -5.803e-5
-1.456, -5.786e-5
-1.455, -5.919e-5
-1.454, -5.853e-5
-1.453, -5.990e-5
-1.452, -5.964e-5
-1.451, -5.979e-5
-1.450, -6.080e-5
-1.449, -6.031e-5
-1.448, -6.129e-5
-1.447, -6.096e-5
-1.446, -6.124e-5
-1.445, -6.195e-5
-1.444, -6.125e-5
-1.443, -6.247e-5
-1.442, -6.219e-5
-1.441, -6.215e-5
-1.440, -6.301e-5
-1.439, -6.206e-5
-1.438, -6.337e-5
-1.437, -6.286e-5
-1.436, -6.283e-5
-1.435, -6.367e-5
-1.434, -6.281e-5
-1.433, -6.410e-5
-1.432, -6.347e-5
-1.431, -6.341e-5
-1.430, -6.425e-5
-1.429, -6.322e-5
-1.428, -6.419e-5
-1.427, -6.386e-5
-1.426, -6.344e-5
-1.425, -6.438e-5
-1.424, -6.334e-5
-1.423, -6.426e-5
-1.422, -6.392e-5
-1.421, -6.366e-5
-1.420, -6.426e-5
-1.419, -6.341e-5
-1.418, -6.418e-5
-1.417, -6.379e-5
-1.416, -6.343e-5
-1.415, -6.416e-5
-1.414, -6.317e-5
-1.413, -6.427e-5
-1.412, -6.370e-5
-1.411, -6.344e-5
-1.410, -6.408e-5
-1.409, -6.298e-5
-1.408, -6.390e-5
-1.407, -6.350e-5
-1.406, -6.319e-5
-1.405, -6.381e-5
-1.404, -6.267e-5
-1.403, -6.375e-5
-1.402, -6.306e-5
-1.401, -6.299e-5
-1.400, -6.356e-5
-1.399, -6.240e-5
-1.398, -6.345e-5
-1.397, -6.257e-5
-1.396, -6.237e-5
-1.395, -6.330e-5
-1.394, -6.211e-5
-1.393, -6.325e-5
-1.392, -6.270e-5
-1.391, -6.229e-5
-1.390, -6.308e-5
-1.389, -6.190e-5
-1.388, -6.300e-5
-1.387, -6.254e-5
-1.386, -6.213e-5
-1.385, -6.304e-5
-1.384, -6.154e-5
-1.383, -6.283e-5
-1.382, -6.238e-5
-1.381, -6.183e-5
-1.380, -6.258e-5
-1.379, -6.148e-5
-1.378, -6.234e-5
-1.377, -6.193e-5
-1.376, -6.149e-5
-1.375, -6.222e-5
-1.374, -6.120e-5
-1.373, -6.198e-5
-1.372, -6.152e-5
-1.371, -6.134e-5
-1.370, -6.189e-5
-1.369, -6.086e-5
-1.368, -6.161e-5
-1.367, -6.124e-5
-1.366, -6.108e-5
-1.365, -6.148e-5
-1.364, -6.056e-5
-1.363, -6.151e-5
-1.362, -6.101e-5
-1.361, -6.086e-5
-1.360, -6.155e-5
-1.359, -6.009e-5
-1.358, -6.144e-5
-1.357, -6.085e-5
-1.356, -6.056e-5
-1.355, -6.130e-5
-1.354, -5.998e-5
-1.353, -6.129e-5
-1.352, -6.062e-5
-1.351, -6.039e-5
-1.350, -6.138e-5
-1.349, -6.007e-5
-1.348, -6.119e-5
-1.347, -6.061e-5
-1.346, -6.045e-5
-1.345, -6.132e-5
-1.344, -6.006e-5
-1.343, -6.113e-5
-1.342, -6.077e-5
-1.341, -6.028e-5
-1.340, -6.117e-5
-1.339, -6.013e-5
-1.338, -6.112e-5
-1.337, -6.080e-5
-1.336, -6.047e-5
-1.335, -6.105e-5
-1.334, -6.017e-5
-1.333, -6.121e-5
-1.332, -6.071e-5
-1.331, -6.049e-5
-1.330, -6.122e-5
-1.329, -6.035e-5
-1.328, -6.122e-5
-1.327, -6.082e-5
-1.326, -6.064e-5
-1.325, -6.144e-5
-1.324, -6.037e-5
-1.323, -6.170e-5
-1.322, -6.090e-5
-1.321, -6.091e-5
-1.320, -6.156e-5
-1.319, -6.035e-5
-1.318, -6.182e-5
-1.317, -6.100e-5
-1.316, -6.095e-5
-1.315, -6.181e-5
-1.314, -6.045e-5
-1.313, -6.176e-5
-1.312, -6.128e-5
-1.311, -6.117e-5
-1.310, -6.207e-5
-1.309, -6.071e-5
-1.308, -6.199e-5
-1.307, -6.169e-5
-1.306, -6.171e-5
-1.305, -6.275e-5
-1.304, -6.142e-5
-1.303, -6.248e-5
-1.302, -6.223e-5
-1.301, -6.188e-5
-1.300, -6.278e-5
-1.299, -6.174e-5
-1.298, -6.279e-5
-1.297, -6.266e-5
-1.296, -6.226e-5
-1.295, -6.302e-5
-1.294, -6.214e-5
-1.293, -6.312e-5
-1.292, -6.286e-5
-1.291, -6.260e-5
-1.290, -6.327e-5
-1.289, -6.228e-5
-1.288, -6.357e-5
-1.287, -6.286e-5
-1.286, -6.300e-5
-1.285, -6.360e-5
-1.284, -6.250e-5
-1.283, -6.386e-5
-1.282, -6.326e-5
-1.281, -6.320e-5
-1.280, -6.447e-5
-1.279, -6.297e-5
-1.278, -6.445e-5
-1.277, -6.364e-5
-1.276, -6.360e-5
-1.275, -6.445e-5
-1.274, -6.332e-5
-1.273, -6.496e-5
-1.272, -6.428e-5
-1.271, -6.407e-5
-1.270, -6.506e-5
-1.269, -6.384e-5
-1.268, -6.526e-5
-1.267, -6.483e-5
-1.266, -6.450e-5
-1.265, -6.555e-5
-1.264, -6.438e-5
-1.263, -6.583e-5
-1.262, -6.528e-5
-1.261, -6.504e-5
-1.260, -6.594e-5
-1.259, -6.491e-5
-1.258, -6.610e-5
-1.257, -6.570e-5
-1.256, -6.532e-5
-1.255, -6.647e-5
-1.254, -6.544e-5
-1.253, -6.665e-5
-1.252, -6.604e-5
-1.251, -6.618e-5
-1.250, -6.696e-5
-1.249, -6.579e-5
-1.248, -6.723e-5
-1.247, -6.662e-5
-1.246, -6.694e-5
-1.245, -6.749e-5
-1.244, -6.641e-5
-1.243, -6.790e-5
-1.242, -6.739e-5
-1.241, -6.755e-5
-1.240, -6.815e-5
-1.239, -6.700e-5
-1.238, -6.849e-5
-1.237, -6.775e-5
-1.236, -6.789e-5
-1.235, -6.885e-5
-1.234, -6.780e-5
-1.233, -6.921e-5
-1.232, -6.844e-5
-1.231, -6.845e-5
-1.230, -6.948e-5
-1.229, -6.902e-5
-1.228, -7.001e-5
-1.227, -6.953e-5
-1.226, -6.938e-5
-1.225, -7.050e-5
-1.224, -6.920e-5
-1.223, -7.057e-5
-1.222, -7.028e-5
-1.221, -7.006e-5
-1.220, -7.109e-5
-1.219, -7.015e-5
-1.218, -7.138e-5
-1.217, -7.103e-5
-1.216, -7.095e-5
-1.215, -7.211e-5
-1.214, -7.108e-5
-1.213, -7.231e-5
-1.212, -7.189e-5
-1.211, -7.190e-5
-1.210, -7.276e-5
-1.209, -7.173e-5
-1.208, -7.304e-5
-1.207, -7.264e-5
-1.206, -7.275e-5
-1.205, -7.346e-5
-1.204, -7.256e-5
-1.203, -7.405e-5
-1.202, -7.351e-5
-1.201, -7.375e-5
-1.200, -7.434e-5
-1.199, -7.350e-5
-1.198, -7.493e-5
-1.197, -7.443e-5
-1.196, -7.451e-5
-1.195, -7.554e-5
-1.194, -7.439e-5
-1.193, -7.594e-5
-1.192, -7.537e-5
-1.191, -7.533e-5
-1.190, -7.662e-5
-1.189, -7.539e-5
-1.188, -7.681e-5
-1.187, -7.648e-5
-1.186, -7.642e-5
-1.185, -7.754e-5
-1.184, -7.636e-5
-1.183, -7.787e-5
-1.182, -7.751e-5
-1.181, -7.743e-5
-1.180, -7.856e-5
-1.179, -7.746e-5
-1.178, -7.916e-5
-1.177, -7.878e-5
-1.176, -7.872e-5
-1.175, -7.946e-5
-1.174, -7.890e-5
-1.173, -8.018e-5
-1.172, -7.975e-5
-1.171, -7.990e-5
-1.170, -8.062e-5
-1.169, -7.980e-5
-1.168, -8.128e-5
-1.167, -8.079e-5
-1.166, -8.093e-5
-1.165, -8.185e-5
-1.164, -8.094e-5
-1.163, -8.266e-5
-1.162, -8.200e-5
-1.161, -8.229e-5
-1.160, -8.316e-5
-1.159, -8.221e-5
-1.158, -8.389e-5
-1.157, -8.326e-5
-1.156, -8.328e-5
-1.155, -8.451e-5
-1.154, -8.328e-5
-1.153, -8.527e-5
-1.152, -8.454e-5
-1.151, -8.472e-5
-1.150, -8.583e-5
-1.149, -8.460e-5
-1.148, -8.638e-5
-1.147, -8.591e-5
-1.146, -8.595e-5
-1.145, -8.706e-5
-1.144, -8.594e-5
-1.143, -8.755e-5
-1.142, -8.742e-5
-1.141, -8.731e-5
-1.140, -8.825e-5
-1.139, -8.749e-5
-1.138, -8.896e-5
-1.137, -8.869e-5
-1.136, -8.867e-5
-1.135, -8.969e-5
-1.134, -8.889e-5
-1.133, -9.025e-5
-1.132, -8.997e-5
-1.131, -9.009e-5
-1.130, -9.104e-5
-1.129, -9.022e-5
-1.128, -9.155e-5
-1.127, -9.142e-5
-1.126, -9.164e-5
-1.125, -9.240e-5
-1.124, -9.158e-5
-1.123, -9.325e-5
-1.122, -9.267e-5
-1.121, -9.293e-5
-1.120, -9.365e-5
-1.119, -9.302e-5
-1.118, -9.459e-5
-1.117, -9.398e-5
-1.116, -9.421e-5
-1.115, -9.531e-5
-1.114, -9.423e-5
-1.113, -9.583e-5
-1.112, -9.545e-5
-1.111, -9.556e-5
-1.110, -9.661e-5
-1.109, -9.562e-5
-1.108, -9.732e-5
-1.107, -9.696e-5
-1.106, -9.713e-5
-1.105, -9.801e-5
-1.104, -9.709e-5
-1.103, -9.861e-5
-1.102, -9.847e-5
-1.101, -9.832e-5
-1.100, -9.954e-5
-1.099, -9.863e-5
-1.098, -1.002e-4
-1.097, -9.974e-5
-1.096, -9.981e-5
-1.095, -1.008e-4
-1.094, -1.001e-4
-1.093, -1.015e-4
-1.092, -1.010e-4
-1.091, -1.012e-4
-1.090, -1.023e-4
-1.089, -1.014e-4
-1.088, -1.028e-4
-1.087, -1.024e-4
-1.086, -1.027e-4
-1.085, -1.035e-4
-1.084, -1.025e-4
-1.083, -1.042e-4
-1.082, -1.039e-4
-1.081, -1.041e-4
-1.080, -1.049e-4
-1.079, -1.040e-4
-1.078, -1.056e-4
-1.077, -1.050e-4
-1.076, -1.054e-4
-1.075, -1.064e-4
-1.074, -1.054e-4
-1.073, -1.070e-4
-1.072, -1.063e-4
-1.071, -1.066e-4
-1.070, -1.076e-4
-1.069, -1.064e-4
-1.068, -1.082e-4
-1.067, -1.077e-4
-1.066, -1.078e-4
-1.065, -1.088e-4
-1.064, -1.076e-4
-1.063, -1.095e-4
-1.062, -1.092e-4
-1.061, -1.090e-4
-1.060, -1.100e-4
-1.059, -1.090e-4
-1.058, -1.106e-4
-1.057, -1.104e-4
-1.056, -1.102e-4
-1.055, -1.111e-4
-1.054, -1.102e-4
-1.053, -1.115e-4
-1.052, -1.113e-4
-1.051, -1.114e-4
-1.050, -1.123e-4
-1.049, -1.116e-4
-1.048, -1.127e-4
-1.047, -1.123e-4
-1.046, -1.126e-4
-1.045, -1.133e-4
-1.044, -1.126e-4
-1.043, -1.140e-4
-1.042, -1.134e-4
-1.041, -1.137e-4
-1.040, -1.143e-4
-1.039, -1.135e-4
-1.038, -1.149e-4
-1.037, -1.144e-4
-1.036, -1.147e-4
-1.035, -1.156e-4
-1.034, -1.146e-4
-1.033, -1.161e-4
-1.032, -1.155e-4
-1.031, -1.156e-4
-1.030, -1.166e-4
-1.029, -1.156e-4
-1.028, -1.169e-4
-1.027, -1.166e-4
-1.026, -1.164e-4
-1.025, -1.176e-4
-1.024, -1.167e-4
-1.023, -1.182e-4
-1.022, -1.176e-4
-1.021, -1.176e-4
-1.020, -1.184e-4
-1.019, -1.176e-4
-1.018, -1.188e-4
-1.017, -1.186e-4
-1.016, -1.185e-4
-1.015, -1.194e-4
-1.014, -1.185e-4
-1.013, -1.198e-4
-1.012, -1.192e-4
-1.011, -1.197e-4
-1.010, -1.204e-4
-1.009, -1.194e-4
-1.008, -1.208e-4
-1.007, -1.203e-4
-1.006, -1.206e-4
-1.005, -1.214e-4
-1.004, -1.204e-4
-1.003, -1.219e-4
-1.002, -1.213e-4
-1.001, -1.215e-4
