Sept. 14, 2024   04:00:41
Cyclic Voltammetry
File: c:/users/guazh/data/20240903_batch_252_500/2024-09-03-exp348\exp348-2024-09-14t03_35_38-h2koh\exp348_cv_50mvs_efin_-1900mv.bin
Data Source:  Experiment
Instrument Model:  CHI760E
Header: CV ran at 50 mVs
Note: 

Init E (V) = -1
High E (V) = -1
Low E (V) = -1.9
Final E (V) = -1
Init P/N = N
Scan Rate (V/s) = 0.05
Segment = 7
Sample Interval (V) = 0.001
Quiet Time (sec) = 60
Sensitivity (A/V) = 0.001
Comp R (ohm) = 2.9

Results:

Channel 1:
Segment 1:

Segment 2:

Segment 3:

Segment 4:

Segment 5:

Segment 6:

Segment 7:

Potential/V, Current/A

-1.000, 7.703e-7
-1.001, 8.473e-7
-1.002, 8.236e-7
-1.003, 8.621e-7
-1.004, 9.016e-7
-1.005, 9.262e-7
-1.006, 9.578e-7
-1.007, 9.381e-7
-1.008, 9.400e-7
-1.009, 1.012e-6
-1.010, 1.037e-6
-1.011, 1.042e-6
-1.012, 1.064e-6
-1.013, 1.070e-6
-1.014, 1.126e-6
-1.015, 1.098e-6
-1.016, 1.110e-6
-1.017, 1.150e-6
-1.018, 1.153e-6
-1.019, 1.176e-6
-1.020, 1.189e-6
-1.021, 1.199e-6
-1.022, 1.214e-6
-1.023, 1.192e-6
-1.024, 1.241e-6
-1.025, 1.258e-6
-1.026, 1.304e-6
-1.027, 1.265e-6
-1.028, 1.279e-6
-1.029, 1.315e-6
-1.030, 1.349e-6
-1.031, 1.342e-6
-1.032, 1.362e-6
-1.033, 1.394e-6
-1.034, 1.352e-6
-1.035, 1.372e-6
-1.036, 1.405e-6
-1.037, 1.431e-6
-1.038, 1.461e-6
-1.039, 1.468e-6
-1.040, 1.452e-6
-1.041, 1.499e-6
-1.042, 1.497e-6
-1.043, 1.494e-6
-1.044, 1.514e-6
-1.045, 1.511e-6
-1.046, 1.549e-6
-1.047, 1.526e-6
-1.048, 1.525e-6
-1.049, 1.568e-6
-1.050, 1.569e-6
-1.051, 1.610e-6
-1.052, 1.567e-6
-1.053, 1.586e-6
-1.054, 1.657e-6
-1.055, 1.654e-6
-1.056, 1.630e-6
-1.057, 1.660e-6
-1.058, 1.657e-6
-1.059, 1.692e-6
-1.060, 1.697e-6
-1.061, 1.679e-6
-1.062, 1.735e-6
-1.063, 1.717e-6
-1.064, 1.721e-6
-1.065, 1.735e-6
-1.066, 1.749e-6
-1.067, 1.770e-6
-1.068, 1.808e-6
-1.069, 1.754e-6
-1.070, 1.797e-6
-1.071, 1.800e-6
-1.072, 1.827e-6
-1.073, 1.825e-6
-1.074, 1.833e-6
-1.075, 1.833e-6
-1.076, 1.852e-6
-1.077, 1.860e-6
-1.078, 1.870e-6
-1.079, 1.901e-6
-1.080, 1.897e-6
-1.081, 1.887e-6
-1.082, 1.904e-6
-1.083, 1.917e-6
-1.084, 1.920e-6
-1.085, 1.921e-6
-1.086, 1.954e-6
-1.087, 1.958e-6
-1.088, 1.962e-6
-1.089, 1.982e-6
-1.090, 1.957e-6
-1.091, 2.010e-6
-1.092, 2.001e-6
-1.093, 2.009e-6
-1.094, 2.004e-6
-1.095, 2.021e-6
-1.096, 2.034e-6
-1.097, 2.074e-6
-1.098, 2.048e-6
-1.099, 2.056e-6
-1.100, 2.070e-6
-1.101, 2.063e-6
-1.102, 2.088e-6
-1.103, 2.072e-6
-1.104, 2.088e-6
-1.105, 2.148e-6
-1.106, 2.127e-6
-1.107, 2.146e-6
-1.108, 2.171e-6
-1.109, 2.145e-6
-1.110, 2.157e-6
-1.111, 2.163e-6
-1.112, 2.163e-6
-1.113, 2.197e-6
-1.114, 2.190e-6
-1.115, 2.224e-6
-1.116, 2.232e-6
-1.117, 2.213e-6
-1.118, 2.255e-6
-1.119, 2.247e-6
-1.120, 2.266e-6
-1.121, 2.257e-6
-1.122, 2.260e-6
-1.123, 2.257e-6
-1.124, 2.305e-6
-1.125, 2.264e-6
-1.126, 2.268e-6
-1.127, 2.319e-6
-1.128, 2.290e-6
-1.129, 2.325e-6
-1.130, 2.313e-6
-1.131, 2.311e-6
-1.132, 2.349e-6
-1.133, 2.333e-6
-1.134, 2.361e-6
-1.135, 2.361e-6
-1.136, 2.377e-6
-1.137, 2.360e-6
-1.138, 2.372e-6
-1.139, 2.375e-6
-1.140, 2.403e-6
-1.141, 2.390e-6
-1.142, 2.431e-6
-1.143, 2.410e-6
-1.144, 2.414e-6
-1.145, 2.469e-6
-1.146, 2.427e-6
-1.147, 2.442e-6
-1.148, 2.478e-6
-1.149, 2.488e-6
-1.150, 2.469e-6
-1.151, 2.464e-6
-1.152, 2.477e-6
-1.153, 2.497e-6
-1.154, 2.487e-6
-1.155, 2.495e-6
-1.156, 2.535e-6
-1.157, 2.532e-6
-1.158, 2.542e-6
-1.159, 2.527e-6
-1.160, 2.518e-6
-1.161, 2.547e-6
-1.162, 2.574e-6
-1.163, 2.560e-6
-1.164, 2.576e-6
-1.165, 2.571e-6
-1.166, 2.604e-6
-1.167, 2.573e-6
-1.168, 2.577e-6
-1.169, 2.615e-6
-1.170, 2.609e-6
-1.171, 2.601e-6
-1.172, 2.639e-6
-1.173, 2.619e-6
-1.174, 2.648e-6
-1.175, 2.662e-6
-1.176, 2.628e-6
-1.177, 2.667e-6
-1.178, 2.661e-6
-1.179, 2.690e-6
-1.180, 2.653e-6
-1.181, 2.688e-6
-1.182, 2.699e-6
-1.183, 2.702e-6
-1.184, 2.689e-6
-1.185, 2.716e-6
-1.186, 2.718e-6
-1.187, 2.749e-6
-1.188, 2.778e-6
-1.189, 2.751e-6
-1.190, 2.773e-6
-1.191, 2.786e-6
-1.192, 2.751e-6
-1.193, 2.767e-6
-1.194, 2.813e-6
-1.195, 2.808e-6
-1.196, 2.794e-6
-1.197, 2.800e-6
-1.198, 2.822e-6
-1.199, 2.851e-6
-1.200, 2.832e-6
-1.201, 2.836e-6
-1.202, 2.872e-6
-1.203, 2.867e-6
-1.204, 2.897e-6
-1.205, 2.854e-6
-1.206, 2.913e-6
-1.207, 2.931e-6
-1.208, 2.886e-6
-1.209, 2.909e-6
-1.210, 2.942e-6
-1.211, 2.957e-6
-1.212, 2.927e-6
-1.213, 2.971e-6
-1.214, 2.927e-6
-1.215, 2.989e-6
-1.216, 2.984e-6
-1.217, 2.996e-6
-1.218, 2.983e-6
-1.219, 3.026e-6
-1.220, 3.022e-6
-1.221, 3.027e-6
-1.222, 3.034e-6
-1.223, 3.054e-6
-1.224, 3.047e-6
-1.225, 3.032e-6
-1.226, 3.035e-6
-1.227, 3.067e-6
-1.228, 3.071e-6
-1.229, 3.124e-6
-1.230, 3.054e-6
-1.231, 3.117e-6
-1.232, 3.112e-6
-1.233, 3.143e-6
-1.234, 3.126e-6
-1.235, 3.156e-6
-1.236, 3.186e-6
-1.237, 3.173e-6
-1.238, 3.180e-6
-1.239, 3.200e-6
-1.240, 3.203e-6
-1.241, 3.203e-6
-1.242, 3.214e-6
-1.243, 3.206e-6
-1.244, 3.247e-6
-1.245, 3.254e-6
-1.246, 3.239e-6
-1.247, 3.264e-6
-1.248, 3.264e-6
-1.249, 3.317e-6
-1.250, 3.315e-6
-1.251, 3.295e-6
-1.252, 3.313e-6
-1.253, 3.327e-6
-1.254, 3.351e-6
-1.255, 3.348e-6
-1.256, 3.368e-6
-1.257, 3.367e-6
-1.258, 3.415e-6
-1.259, 3.355e-6
-1.260, 3.408e-6
-1.261, 3.424e-6
-1.262, 3.410e-6
-1.263, 3.454e-6
-1.264, 3.466e-6
-1.265, 3.501e-6
-1.266, 3.490e-6
-1.267, 3.464e-6
-1.268, 3.507e-6
-1.269, 3.540e-6
-1.270, 3.536e-6
-1.271, 3.537e-6
-1.272, 3.581e-6
-1.273, 3.566e-6
-1.274, 3.617e-6
-1.275, 3.614e-6
-1.276, 3.589e-6
-1.277, 3.629e-6
-1.278, 3.630e-6
-1.279, 3.674e-6
-1.280, 3.702e-6
-1.281, 3.702e-6
-1.282, 3.720e-6
-1.283, 3.731e-6
-1.284, 3.719e-6
-1.285, 3.703e-6
-1.286, 3.775e-6
-1.287, 3.760e-6
-1.288, 3.778e-6
-1.289, 3.791e-6
-1.290, 3.789e-6
-1.291, 3.808e-6
-1.292, 3.853e-6
-1.293, 3.839e-6
-1.294, 3.862e-6
-1.295, 3.891e-6
-1.296, 3.882e-6
-1.297, 3.908e-6
-1.298, 3.906e-6
-1.299, 3.962e-6
-1.300, 3.932e-6
-1.301, 4.001e-6
-1.302, 3.993e-6
-1.303, 4.027e-6
-1.304, 4.025e-6
-1.305, 4.012e-6
-1.306, 4.094e-6
-1.307, 4.062e-6
-1.308, 4.101e-6
-1.309, 4.105e-6
-1.310, 4.120e-6
-1.311, 4.129e-6
-1.312, 4.168e-6
-1.313, 4.182e-6
-1.314, 4.214e-6
-1.315, 4.182e-6
-1.316, 4.218e-6
-1.317, 4.236e-6
-1.318, 4.250e-6
-1.319, 4.288e-6
-1.320, 4.297e-6
-1.321, 4.304e-6
-1.322, 4.379e-6
-1.323, 4.352e-6
-1.324, 4.389e-6
-1.325, 4.409e-6
-1.326, 4.386e-6
-1.327, 4.439e-6
-1.328, 4.500e-6
-1.329, 4.436e-6
-1.330, 4.483e-6
-1.331, 4.538e-6
-1.332, 4.522e-6
-1.333, 4.560e-6
-1.334, 4.566e-6
-1.335, 4.589e-6
-1.336, 4.592e-6
-1.337, 4.650e-6
-1.338, 4.683e-6
-1.339, 4.709e-6
-1.340, 4.702e-6
-1.341, 4.748e-6
-1.342, 4.732e-6
-1.343, 4.788e-6
-1.344, 4.828e-6
-1.345, 4.816e-6
-1.346, 4.833e-6
-1.347, 4.877e-6
-1.348, 4.890e-6
-1.349, 4.914e-6
-1.350, 4.909e-6
-1.351, 4.973e-6
-1.352, 5.007e-6
-1.353, 5.021e-6
-1.354, 5.063e-6
-1.355, 5.074e-6
-1.356, 5.119e-6
-1.357, 5.102e-6
-1.358, 5.139e-6
-1.359, 5.177e-6
-1.360, 5.209e-6
-1.361, 5.215e-6
-1.362, 5.248e-6
-1.363, 5.276e-6
-1.364, 5.300e-6
-1.365, 5.358e-6
-1.366, 5.328e-6
-1.367, 5.420e-6
-1.368, 5.456e-6
-1.369, 5.454e-6
-1.370, 5.515e-6
-1.371, 5.490e-6
-1.372, 5.542e-6
-1.373, 5.590e-6
-1.374, 5.586e-6
-1.375, 5.601e-6
-1.376, 5.651e-6
-1.377, 5.684e-6
-1.378, 5.738e-6
-1.379, 5.746e-6
-1.380, 5.763e-6
-1.381, 5.808e-6
-1.382, 5.837e-6
-1.383, 5.871e-6
-1.384, 5.894e-6
-1.385, 5.919e-6
-1.386, 5.935e-6
-1.387, 5.992e-6
-1.388, 5.997e-6
-1.389, 6.033e-6
-1.390, 6.056e-6
-1.391, 6.074e-6
-1.392, 6.138e-6
-1.393, 6.143e-6
-1.394, 6.223e-6
-1.395, 6.189e-6
-1.396, 6.236e-6
-1.397, 6.303e-6
-1.398, 6.305e-6
-1.399, 6.335e-6
-1.400, 6.390e-6
-1.401, 6.402e-6
-1.402, 6.449e-6
-1.403, 6.475e-6
-1.404, 6.483e-6
-1.405, 6.517e-6
-1.406, 6.543e-6
-1.407, 6.575e-6
-1.408, 6.629e-6
-1.409, 6.676e-6
-1.410, 6.700e-6
-1.411, 6.730e-6
-1.412, 6.746e-6
-1.413, 6.777e-6
-1.414, 6.845e-6
-1.415, 6.821e-6
-1.416, 6.888e-6
-1.417, 6.924e-6
-1.418, 6.942e-6
-1.419, 6.996e-6
-1.420, 7.008e-6
-1.421, 7.101e-6
-1.422, 7.077e-6
-1.423, 7.121e-6
-1.424, 7.178e-6
-1.425, 7.185e-6
-1.426, 7.202e-6
-1.427, 7.244e-6
-1.428, 7.285e-6
-1.429, 7.308e-6
-1.430, 7.384e-6
-1.431, 7.395e-6
-1.432, 7.451e-6
-1.433, 7.462e-6
-1.434, 7.539e-6
-1.435, 7.550e-6
-1.436, 7.577e-6
-1.437, 7.616e-6
-1.438, 7.661e-6
-1.439, 7.712e-6
-1.440, 7.714e-6
-1.441, 7.770e-6
-1.442, 7.831e-6
-1.443, 7.865e-6
-1.444, 7.834e-6
-1.445, 7.938e-6
-1.446, 7.959e-6
-1.447, 8.024e-6
-1.448, 8.047e-6
-1.449, 8.066e-6
-1.450, 8.118e-6
-1.451, 8.148e-6
-1.452, 8.175e-6
-1.453, 8.232e-6
-1.454, 8.269e-6
-1.455, 8.279e-6
-1.456, 8.366e-6
-1.457, 8.377e-6
-1.458, 8.436e-6
-1.459, 8.459e-6
-1.460, 8.493e-6
-1.461, 8.552e-6
-1.462, 8.548e-6
-1.463, 8.607e-6
-1.464, 8.688e-6
-1.465, 8.691e-6
-1.466, 8.742e-6
-1.467, 8.775e-6
-1.468, 8.850e-6
-1.469, 8.867e-6
-1.470, 8.936e-6
-1.471, 8.971e-6
-1.472, 9.031e-6
-1.473, 9.056e-6
-1.474, 9.081e-6
-1.475, 9.166e-6
-1.476, 9.158e-6
-1.477, 9.236e-6
-1.478, 9.270e-6
-1.479, 9.349e-6
-1.480, 9.365e-6
-1.481, 9.414e-6
-1.482, 9.450e-6
-1.483, 9.521e-6
-1.484, 9.552e-6
-1.485, 9.634e-6
-1.486, 9.689e-6
-1.487, 9.735e-6
-1.488, 9.767e-6
-1.489, 9.801e-6
-1.490, 9.852e-6
-1.491, 9.917e-6
-1.492, 9.972e-6
-1.493, 1.001e-5
-1.494, 1.006e-5
-1.495, 1.011e-5
-1.496, 1.016e-5
-1.497, 1.024e-5
-1.498, 1.028e-5
-1.499, 1.036e-5
-1.500, 1.041e-5
-1.501, 1.046e-5
-1.502, 1.054e-5
-1.503, 1.057e-5
-1.504, 1.069e-5
-1.505, 1.071e-5
-1.506, 1.078e-5
-1.507, 1.085e-5
-1.508, 1.091e-5
-1.509, 1.095e-5
-1.510, 1.102e-5
-1.511, 1.110e-5
-1.512, 1.113e-5
-1.513, 1.119e-5
-1.514, 1.127e-5
-1.515, 1.131e-5
-1.516, 1.137e-5
-1.517, 1.147e-5
-1.518, 1.151e-5
-1.519, 1.157e-5
-1.520, 1.162e-5
-1.521, 1.168e-5
-1.522, 1.181e-5
-1.523, 1.184e-5
-1.524, 1.192e-5
-1.525, 1.199e-5
-1.526, 1.205e-5
-1.527, 1.208e-5
-1.528, 1.216e-5
-1.529, 1.226e-5
-1.530, 1.229e-5
-1.531, 1.236e-5
-1.532, 1.243e-5
-1.533, 1.255e-5
-1.534, 1.259e-5
-1.535, 1.266e-5
-1.536, 1.279e-5
-1.537, 1.287e-5
-1.538, 1.295e-5
-1.539, 1.303e-5
-1.540, 1.312e-5
-1.541, 1.319e-5
-1.542, 1.327e-5
-1.543, 1.332e-5
-1.544, 1.343e-5
-1.545, 1.351e-5
-1.546, 1.361e-5
-1.547, 1.369e-5
-1.548, 1.383e-5
-1.549, 1.391e-5
-1.550, 1.397e-5
-1.551, 1.401e-5
-1.552, 1.413e-5
-1.553, 1.419e-5
-1.554, 1.431e-5
-1.555, 1.440e-5
-1.556, 1.451e-5
-1.557, 1.462e-5
-1.558, 1.471e-5
-1.559, 1.476e-5
-1.560, 1.491e-5
-1.561, 1.500e-5
-1.562, 1.514e-5
-1.563, 1.524e-5
-1.564, 1.534e-5
-1.565, 1.542e-5
-1.566, 1.551e-5
-1.567, 1.562e-5
-1.568, 1.574e-5
-1.569, 1.587e-5
-1.570, 1.601e-5
-1.571, 1.614e-5
-1.572, 1.621e-5
-1.573, 1.636e-5
-1.574, 1.646e-5
-1.575, 1.656e-5
-1.576, 1.665e-5
-1.577, 1.676e-5
-1.578, 1.695e-5
-1.579, 1.710e-5
-1.580, 1.722e-5
-1.581, 1.735e-5
-1.582, 1.745e-5
-1.583, 1.757e-5
-1.584, 1.772e-5
-1.585, 1.785e-5
-1.586, 1.796e-5
-1.587, 1.809e-5
-1.588, 1.819e-5
-1.589, 1.840e-5
-1.590, 1.857e-5
-1.591, 1.871e-5
-1.592, 1.887e-5
-1.593, 1.899e-5
-1.594, 1.913e-5
-1.595, 1.928e-5
-1.596, 1.946e-5
-1.597, 1.964e-5
-1.598, 1.979e-5
-1.599, 1.996e-5
-1.600, 2.018e-5
-1.601, 2.029e-5
-1.602, 2.044e-5
-1.603, 2.063e-5
-1.604, 2.081e-5
-1.605, 2.095e-5
-1.606, 2.118e-5
-1.607, 2.137e-5
-1.608, 2.158e-5
-1.609, 2.176e-5
-1.610, 2.192e-5
-1.611, 2.212e-5
-1.612, 2.228e-5
-1.613, 2.248e-5
-1.614, 2.266e-5
-1.615, 2.286e-5
-1.616, 2.313e-5
-1.617, 2.332e-5
-1.618, 2.354e-5
-1.619, 2.381e-5
-1.620, 2.404e-5
-1.621, 2.428e-5
-1.622, 2.461e-5
-1.623, 2.477e-5
-1.624, 2.510e-5
-1.625, 2.540e-5
-1.626, 2.567e-5
-1.627, 2.602e-5
-1.628, 2.623e-5
-1.629, 2.647e-5
-1.630, 2.679e-5
-1.631, 2.710e-5
-1.632, 2.734e-5
-1.633, 2.763e-5
-1.634, 2.795e-5
-1.635, 2.837e-5
-1.636, 2.874e-5
-1.637, 2.906e-5
-1.638, 2.947e-5
-1.639, 2.985e-5
-1.640, 3.018e-5
-1.641, 3.058e-5
-1.642, 3.093e-5
-1.643, 3.143e-5
-1.644, 3.182e-5
-1.645, 3.221e-5
-1.646, 3.265e-5
-1.647, 3.307e-5
-1.648, 3.355e-5
-1.649, 3.405e-5
-1.650, 3.447e-5
-1.651, 3.485e-5
-1.652, 3.541e-5
-1.653, 3.584e-5
-1.654, 3.634e-5
-1.655, 3.681e-5
-1.656, 3.724e-5
-1.657, 3.773e-5
-1.658, 3.826e-5
-1.659, 3.872e-5
-1.660, 3.927e-5
-1.661, 3.976e-5
-1.662, 4.035e-5
-1.663, 4.094e-5
-1.664, 4.155e-5
-1.665, 4.207e-5
-1.666, 4.273e-5
-1.667, 4.331e-5
-1.668, 4.408e-5
-1.669, 4.468e-5
-1.670, 4.533e-5
-1.671, 4.594e-5
-1.672, 4.655e-5
-1.673, 4.733e-5
-1.674, 4.813e-5
-1.675, 4.885e-5
-1.676, 4.959e-5
-1.677, 5.052e-5
-1.678, 5.133e-5
-1.679, 5.206e-5
-1.680, 5.293e-5
-1.681, 5.377e-5
-1.682, 5.465e-5
-1.683, 5.547e-5
-1.684, 5.621e-5
-1.685, 5.726e-5
-1.686, 5.818e-5
-1.687, 5.922e-5
-1.688, 6.020e-5
-1.689, 6.120e-5
-1.690, 6.231e-5
-1.691, 6.359e-5
-1.692, 6.464e-5
-1.693, 6.580e-5
-1.694, 6.693e-5
-1.695, 6.787e-5
-1.696, 6.896e-5
-1.697, 7.020e-5
-1.698, 7.157e-5
-1.699, 7.278e-5
-1.700, 7.398e-5
-1.701, 7.524e-5
-1.702, 7.671e-5
-1.703, 7.804e-5
-1.704, 7.923e-5
-1.705, 8.063e-5
-1.706, 8.225e-5
-1.707, 8.368e-5
-1.708, 8.510e-5
-1.709, 8.696e-5
-1.710, 8.874e-5
-1.711, 9.071e-5
-1.712, 9.250e-5
-1.713, 9.433e-5
-1.714, 9.601e-5
-1.715, 9.788e-5
-1.716, 9.980e-5
-1.717, 1.020e-4
-1.718, 1.041e-4
-1.719, 1.062e-4
-1.720, 1.086e-4
-1.721, 1.113e-4
-1.722, 1.135e-4
-1.723, 1.156e-4
-1.724, 1.180e-4
-1.725, 1.204e-4
-1.726, 1.231e-4
-1.727, 1.258e-4
-1.728, 1.289e-4
-1.729, 1.317e-4
-1.730, 1.348e-4
-1.731, 1.379e-4
-1.732, 1.415e-4
-1.733, 1.447e-4
-1.734, 1.477e-4
-1.735, 1.514e-4
-1.736, 1.548e-4
-1.737, 1.581e-4
-1.738, 1.618e-4
-1.739, 1.658e-4
-1.740, 1.698e-4
-1.741, 1.742e-4
-1.742, 1.783e-4
-1.743, 1.824e-4
-1.744, 1.866e-4
-1.745, 1.905e-4
-1.746, 1.945e-4
-1.747, 1.989e-4
-1.748, 2.039e-4
-1.749, 2.090e-4
-1.750, 2.146e-4
-1.751, 2.204e-4
-1.752, 2.265e-4
-1.753, 2.301e-4
-1.754, 2.335e-4
-1.755, 2.390e-4
-1.756, 2.443e-4
-1.757, 2.497e-4
-1.758, 2.553e-4
-1.759, 2.617e-4
-1.760, 2.680e-4
-1.761, 2.745e-4
-1.762, 2.818e-4
-1.763, 2.896e-4
-1.764, 2.969e-4
-1.765, 3.047e-4
-1.766, 3.126e-4
-1.767, 3.208e-4
-1.768, 3.293e-4
-1.769, 3.376e-4
-1.770, 3.467e-4
-1.771, 3.554e-4
-1.772, 3.638e-4
-1.773, 3.734e-4
-1.774, 3.834e-4
-1.775, 3.945e-4
-1.776, 4.031e-4
-1.777, 4.153e-4
-1.778, 4.277e-4
-1.779, 4.410e-4
-1.780, 4.529e-4
-1.781, 4.633e-4
-1.782, 4.746e-4
-1.783, 4.878e-4
-1.784, 5.021e-4
-1.785, 5.154e-4
-1.786, 5.278e-4
-1.787, 5.423e-4
-1.788, 5.594e-4
-1.789, 5.739e-4
-1.790, 5.913e-4
-1.791, 6.080e-4
-1.792, 6.226e-4
-1.793, 6.392e-4
-1.794, 6.579e-4
-1.795, 6.761e-4
-1.796, 6.943e-4
-1.797, 7.142e-4
-1.798, 7.352e-4
-1.799, 7.552e-4
-1.800, 7.764e-4
-1.801, 7.968e-4
-1.802, 8.193e-4
-1.803, 8.400e-4
-1.804, 8.636e-4
-1.805, 8.858e-4
-1.806, 9.108e-4
-1.807, 9.346e-4
-1.808, 9.614e-4
-1.809, 9.864e-4
-1.810, 1.013e-3
-1.811, 1.039e-3
-1.812, 1.067e-3
-1.813, 1.095e-3
-1.814, 1.123e-3
-1.815, 1.152e-3
-1.816, 1.182e-3
-1.817, 1.214e-3
-1.818, 1.245e-3
-1.819, 1.277e-3
-1.820, 1.307e-3
-1.821, 1.339e-3
-1.822, 1.373e-3
-1.823, 1.408e-3
-1.824, 1.443e-3
-1.825, 1.480e-3
-1.826, 1.515e-3
-1.827, 1.550e-3
-1.828, 1.587e-3
-1.829, 1.626e-3
-1.830, 1.664e-3
-1.831, 1.703e-3
-1.832, 1.743e-3
-1.833, 1.783e-3
-1.834, 1.824e-3
-1.835, 1.865e-3
-1.836, 1.907e-3
-1.837, 1.950e-3
-1.838, 1.992e-3
-1.839, 2.035e-3
-1.840, 2.081e-3
-1.841, 2.126e-3
-1.842, 2.172e-3
-1.843, 2.219e-3
-1.844, 2.266e-3
-1.845, 2.313e-3
-1.846, 2.358e-3
-1.847, 2.407e-3
-1.848, 2.457e-3
-1.849, 2.504e-3
-1.850, 2.552e-3
-1.851, 2.603e-3
-1.852, 2.654e-3
-1.853, 2.705e-3
-1.854, 2.755e-3
-1.855, 2.809e-3
-1.856, 2.860e-3
-1.857, 2.910e-3
-1.858, 2.961e-3
-1.859, 3.016e-3
-1.860, 3.073e-3
-1.861, 3.129e-3
-1.862, 3.182e-3
-1.863, 3.239e-3
-1.864, 3.295e-3
-1.865, 3.352e-3
-1.866, 3.407e-3
-1.867, 3.458e-3
-1.868, 3.514e-3
-1.869, 3.570e-3
-1.870, 3.629e-3
-1.871, 3.688e-3
-1.872, 3.745e-3
-1.873, 3.803e-3
-1.874, 3.861e-3
-1.875, 3.919e-3
-1.876, 3.980e-3
-1.877, 4.044e-3
-1.878, 4.102e-3
-1.879, 4.158e-3
-1.880, 4.212e-3
-1.881, 4.274e-3
-1.882, 4.332e-3
-1.883, 4.391e-3
-1.884, 4.449e-3
-1.885, 4.512e-3
-1.886, 4.572e-3
-1.887, 4.638e-3
-1.888, 4.698e-3
-1.889, 4.755e-3
-1.890, 4.818e-3
-1.891, 4.877e-3
-1.892, 4.940e-3
-1.893, 5.002e-3
-1.894, 5.062e-3
-1.895, 5.124e-3
-1.896, 5.192e-3
-1.897, 5.250e-3
-1.898, 5.306e-3
-1.899, 5.373e-3
-1.900, 5.400e-3
-1.899, 5.371e-3
-1.898, 5.339e-3
-1.897, 5.299e-3
-1.896, 5.258e-3
-1.895, 5.222e-3
-1.894, 5.183e-3
-1.893, 5.143e-3
-1.892, 5.103e-3
-1.891, 5.066e-3
-1.890, 5.021e-3
-1.889, 4.974e-3
-1.888, 4.932e-3
-1.887, 4.890e-3
-1.886, 4.847e-3
-1.885, 4.798e-3
-1.884, 4.755e-3
-1.883, 4.712e-3
-1.882, 4.671e-3
-1.881, 4.627e-3
-1.880, 4.581e-3
-1.879, 4.536e-3
-1.878, 4.488e-3
-1.877, 4.441e-3
-1.876, 4.404e-3
-1.875, 4.357e-3
-1.874, 4.313e-3
-1.873, 4.269e-3
-1.872, 4.229e-3
-1.871, 4.194e-3
-1.870, 4.148e-3
-1.869, 4.106e-3
-1.868, 4.061e-3
-1.867, 4.020e-3
-1.866, 3.976e-3
-1.865, 3.934e-3
-1.864, 3.895e-3
-1.863, 3.859e-3
-1.862, 3.813e-3
-1.861, 3.766e-3
-1.860, 3.723e-3
-1.859, 3.682e-3
-1.858, 3.646e-3
-1.857, 3.607e-3
-1.856, 3.571e-3
-1.855, 3.529e-3
-1.854, 3.490e-3
-1.853, 3.452e-3
-1.852, 3.410e-3
-1.851, 3.368e-3
-1.850, 3.327e-3
-1.849, 3.291e-3
-1.848, 3.264e-3
-1.847, 3.229e-3
-1.846, 3.194e-3
-1.845, 3.155e-3
-1.844, 3.115e-3
-1.843, 3.079e-3
-1.842, 3.042e-3
-1.841, 3.006e-3
-1.840, 2.975e-3
-1.839, 2.942e-3
-1.838, 2.904e-3
-1.837, 2.868e-3
-1.836, 2.834e-3
-1.835, 2.802e-3
-1.834, 2.768e-3
-1.833, 2.732e-3
-1.832, 2.702e-3
-1.831, 2.674e-3
-1.830, 2.637e-3
-1.829, 2.603e-3
-1.828, 2.568e-3
-1.827, 2.533e-3
-1.826, 2.500e-3
-1.825, 2.466e-3
-1.824, 2.435e-3
-1.823, 2.404e-3
-1.822, 2.371e-3
-1.821, 2.339e-3
-1.820, 2.311e-3
-1.819, 2.282e-3
-1.818, 2.250e-3
-1.817, 2.219e-3
-1.816, 2.188e-3
-1.815, 2.158e-3
-1.814, 2.129e-3
-1.813, 2.102e-3
-1.812, 2.074e-3
-1.811, 2.045e-3
-1.810, 2.017e-3
-1.809, 1.990e-3
-1.808, 1.963e-3
-1.807, 1.935e-3
-1.806, 1.908e-3
-1.805, 1.884e-3
-1.804, 1.865e-3
-1.803, 1.837e-3
-1.802, 1.811e-3
-1.801, 1.786e-3
-1.800, 1.760e-3
-1.799, 1.735e-3
-1.798, 1.711e-3
-1.797, 1.686e-3
-1.796, 1.661e-3
-1.795, 1.637e-3
-1.794, 1.612e-3
-1.793, 1.588e-3
-1.792, 1.563e-3
-1.791, 1.540e-3
-1.790, 1.517e-3
-1.789, 1.495e-3
-1.788, 1.472e-3
-1.787, 1.452e-3
-1.786, 1.430e-3
-1.785, 1.410e-3
-1.784, 1.388e-3
-1.783, 1.366e-3
-1.782, 1.345e-3
-1.781, 1.325e-3
-1.780, 1.305e-3
-1.779, 1.286e-3
-1.778, 1.266e-3
-1.777, 1.246e-3
-1.776, 1.227e-3
-1.775, 1.209e-3
-1.774, 1.190e-3
-1.773, 1.174e-3
-1.772, 1.155e-3
-1.771, 1.137e-3
-1.770, 1.120e-3
-1.769, 1.103e-3
-1.768, 1.086e-3
-1.767, 1.069e-3
-1.766, 1.052e-3
-1.765, 1.035e-3
-1.764, 1.018e-3
-1.763, 1.002e-3
-1.762, 9.850e-4
-1.761, 9.697e-4
-1.760, 9.560e-4
-1.759, 9.415e-4
-1.758, 9.257e-4
-1.757, 9.103e-4
-1.756, 8.953e-4
-1.755, 8.810e-4
-1.754, 8.663e-4
-1.753, 8.524e-4
-1.752, 8.384e-4
-1.751, 8.248e-4
-1.750, 8.118e-4
-1.749, 7.980e-4
-1.748, 7.849e-4
-1.747, 7.712e-4
-1.746, 7.587e-4
-1.745, 7.467e-4
-1.744, 7.339e-4
-1.743, 7.220e-4
-1.742, 7.096e-4
-1.741, 6.979e-4
-1.740, 6.865e-4
-1.739, 6.751e-4
-1.738, 6.641e-4
-1.737, 6.529e-4
-1.736, 6.420e-4
-1.735, 6.317e-4
-1.734, 6.207e-4
-1.733, 6.106e-4
-1.732, 6.001e-4
-1.731, 5.902e-4
-1.730, 5.792e-4
-1.729, 5.691e-4
-1.728, 5.596e-4
-1.727, 5.498e-4
-1.726, 5.401e-4
-1.725, 5.310e-4
-1.724, 5.218e-4
-1.723, 5.134e-4
-1.722, 5.044e-4
-1.721, 4.962e-4
-1.720, 4.877e-4
-1.719, 4.796e-4
-1.718, 4.711e-4
-1.717, 4.623e-4
-1.716, 4.544e-4
-1.715, 4.463e-4
-1.714, 4.385e-4
-1.713, 4.310e-4
-1.712, 4.231e-4
-1.711, 4.163e-4
-1.710, 4.091e-4
-1.709, 4.018e-4
-1.708, 3.946e-4
-1.707, 3.878e-4
-1.706, 3.810e-4
-1.705, 3.746e-4
-1.704, 3.683e-4
-1.703, 3.614e-4
-1.702, 3.552e-4
-1.701, 3.488e-4
-1.700, 3.424e-4
-1.699, 3.365e-4
-1.698, 3.309e-4
-1.697, 3.255e-4
-1.696, 3.200e-4
-1.695, 3.140e-4
-1.694, 3.086e-4
-1.693, 3.034e-4
-1.692, 2.978e-4
-1.691, 2.927e-4
-1.690, 2.875e-4
-1.689, 2.825e-4
-1.688, 2.776e-4
-1.687, 2.726e-4
-1.686, 2.679e-4
-1.685, 2.631e-4
-1.684, 2.585e-4
-1.683, 2.538e-4
-1.682, 2.492e-4
-1.681, 2.447e-4
-1.680, 2.401e-4
-1.679, 2.359e-4
-1.678, 2.318e-4
-1.677, 2.277e-4
-1.676, 2.237e-4
-1.675, 2.195e-4
-1.674, 2.158e-4
-1.673, 2.124e-4
-1.672, 2.082e-4
-1.671, 2.047e-4
-1.670, 2.011e-4
-1.669, 1.977e-4
-1.668, 1.943e-4
-1.667, 1.907e-4
-1.666, 1.872e-4
-1.665, 1.837e-4
-1.664, 1.804e-4
-1.663, 1.772e-4
-1.662, 1.741e-4
-1.661, 1.714e-4
-1.660, 1.684e-4
-1.659, 1.653e-4
-1.658, 1.625e-4
-1.657, 1.595e-4
-1.656, 1.568e-4
-1.655, 1.541e-4
-1.654, 1.515e-4
-1.653, 1.487e-4
-1.652, 1.460e-4
-1.651, 1.433e-4
-1.650, 1.408e-4
-1.649, 1.383e-4
-1.648, 1.360e-4
-1.647, 1.335e-4
-1.646, 1.311e-4
-1.645, 1.286e-4
-1.644, 1.264e-4
-1.643, 1.244e-4
-1.642, 1.221e-4
-1.641, 1.201e-4
-1.640, 1.180e-4
-1.639, 1.157e-4
-1.638, 1.136e-4
-1.637, 1.117e-4
-1.636, 1.098e-4
-1.635, 1.078e-4
-1.634, 1.059e-4
-1.633, 1.040e-4
-1.632, 1.023e-4
-1.631, 1.004e-4
-1.630, 9.869e-5
-1.629, 9.696e-5
-1.628, 9.531e-5
-1.627, 9.370e-5
-1.626, 9.202e-5
-1.625, 9.052e-5
-1.624, 8.875e-5
-1.623, 8.714e-5
-1.622, 8.568e-5
-1.621, 8.424e-5
-1.620, 8.275e-5
-1.619, 8.131e-5
-1.618, 7.989e-5
-1.617, 7.852e-5
-1.616, 7.710e-5
-1.615, 7.579e-5
-1.614, 7.453e-5
-1.613, 7.330e-5
-1.612, 7.196e-5
-1.611, 7.079e-5
-1.610, 6.950e-5
-1.609, 6.833e-5
-1.608, 6.718e-5
-1.607, 6.608e-5
-1.606, 6.499e-5
-1.605, 6.382e-5
-1.604, 6.269e-5
-1.603, 6.163e-5
-1.602, 6.059e-5
-1.601, 5.959e-5
-1.600, 5.855e-5
-1.599, 5.756e-5
-1.598, 5.652e-5
-1.597, 5.562e-5
-1.596, 5.471e-5
-1.595, 5.378e-5
-1.594, 5.290e-5
-1.593, 5.203e-5
-1.592, 5.115e-5
-1.591, 5.033e-5
-1.590, 4.962e-5
-1.589, 4.866e-5
-1.588, 4.786e-5
-1.587, 4.702e-5
-1.586, 4.625e-5
-1.585, 4.551e-5
-1.584, 4.473e-5
-1.583, 4.395e-5
-1.582, 4.324e-5
-1.581, 4.249e-5
-1.580, 4.184e-5
-1.579, 4.122e-5
-1.578, 4.054e-5
-1.577, 3.978e-5
-1.576, 3.923e-5
-1.575, 3.853e-5
-1.574, 3.790e-5
-1.573, 3.717e-5
-1.572, 3.654e-5
-1.571, 3.593e-5
-1.570, 3.538e-5
-1.569, 3.474e-5
-1.568, 3.418e-5
-1.567, 3.364e-5
-1.566, 3.304e-5
-1.565, 3.252e-5
-1.564, 3.193e-5
-1.563, 3.137e-5
-1.562, 3.088e-5
-1.561, 3.034e-5
-1.560, 2.985e-5
-1.559, 2.935e-5
-1.558, 2.883e-5
-1.557, 2.838e-5
-1.556, 2.791e-5
-1.555, 2.749e-5
-1.554, 2.703e-5
-1.553, 2.655e-5
-1.552, 2.620e-5
-1.551, 2.570e-5
-1.550, 2.525e-5
-1.549, 2.485e-5
-1.548, 2.443e-5
-1.547, 2.407e-5
-1.546, 2.367e-5
-1.545, 2.326e-5
-1.544, 2.300e-5
-1.543, 2.260e-5
-1.542, 2.222e-5
-1.541, 2.188e-5
-1.540, 2.153e-5
-1.539, 2.123e-5
-1.538, 2.083e-5
-1.537, 2.053e-5
-1.536, 2.017e-5
-1.535, 1.989e-5
-1.534, 1.958e-5
-1.533, 1.928e-5
-1.532, 1.891e-5
-1.531, 1.868e-5
-1.530, 1.839e-5
-1.529, 1.802e-5
-1.528, 1.778e-5
-1.527, 1.750e-5
-1.526, 1.727e-5
-1.525, 1.696e-5
-1.524, 1.671e-5
-1.523, 1.642e-5
-1.522, 1.618e-5
-1.521, 1.594e-5
-1.520, 1.569e-5
-1.519, 1.541e-5
-1.518, 1.520e-5
-1.517, 1.499e-5
-1.516, 1.476e-5
-1.515, 1.456e-5
-1.514, 1.430e-5
-1.513, 1.405e-5
-1.512, 1.383e-5
-1.511, 1.362e-5
-1.510, 1.341e-5
-1.509, 1.323e-5
-1.508, 1.301e-5
-1.507, 1.281e-5
-1.506, 1.267e-5
-1.505, 1.246e-5
-1.504, 1.227e-5
-1.503, 1.204e-5
-1.502, 1.185e-5
-1.501, 1.168e-5
-1.500, 1.150e-5
-1.499, 1.134e-5
-1.498, 1.116e-5
-1.497, 1.097e-5
-1.496, 1.084e-5
-1.495, 1.065e-5
-1.494, 1.051e-5
-1.493, 1.035e-5
-1.492, 1.014e-5
-1.491, 1.005e-5
-1.490, 9.845e-6
-1.489, 9.710e-6
-1.488, 9.600e-6
-1.487, 9.424e-6
-1.486, 9.270e-6
-1.485, 9.221e-6
-1.484, 9.011e-6
-1.483, 8.867e-6
-1.482, 8.749e-6
-1.481, 8.651e-6
-1.480, 8.528e-6
-1.479, 8.356e-6
-1.478, 8.231e-6
-1.477, 8.120e-6
-1.476, 7.970e-6
-1.475, 7.871e-6
-1.474, 7.769e-6
-1.473, 7.662e-6
-1.472, 7.705e-6
-1.471, 7.426e-6
-1.470, 7.304e-6
-1.469, 7.215e-6
-1.468, 7.111e-6
-1.467, 6.982e-6
-1.466, 6.879e-6
-1.465, 6.779e-6
-1.464, 6.705e-6
-1.463, 6.591e-6
-1.462, 6.500e-6
-1.461, 6.425e-6
-1.460, 6.326e-6
-1.459, 6.237e-6
-1.458, 6.149e-6
-1.457, 6.088e-6
-1.456, 6.001e-6
-1.455, 5.904e-6
-1.454, 5.834e-6
-1.453, 5.733e-6
-1.452, 5.655e-6
-1.451, 5.585e-6
-1.450, 5.535e-6
-1.449, 5.406e-6
-1.448, 5.374e-6
-1.447, 5.265e-6
-1.446, 5.188e-6
-1.445, 5.145e-6
-1.444, 5.058e-6
-1.443, 4.987e-6
-1.442, 4.899e-6
-1.441, 4.879e-6
-1.440, 4.749e-6
-1.439, 4.728e-6
-1.438, 4.659e-6
-1.437, 4.597e-6
-1.436, 4.554e-6
-1.435, 4.483e-6
-1.434, 4.399e-6
-1.433, 4.342e-6
-1.432, 4.312e-6
-1.431, 4.247e-6
-1.430, 4.175e-6
-1.429, 4.157e-6
-1.428, 4.075e-6
-1.427, 4.035e-6
-1.426, 3.952e-6
-1.425, 3.896e-6
-1.424, 3.876e-6
-1.423, 3.830e-6
-1.422, 3.763e-6
-1.421, 3.739e-6
-1.420, 3.659e-6
-1.419, 3.613e-6
-1.418, 3.572e-6
-1.417, 3.502e-6
-1.416, 3.495e-6
-1.415, 3.451e-6
-1.414, 3.379e-6
-1.413, 3.340e-6
-1.412, 3.334e-6
-1.411, 3.275e-6
-1.410, 3.304e-6
-1.409, 3.222e-6
-1.408, 3.281e-6
-1.407, 3.173e-6
-1.406, 3.120e-6
-1.405, 3.079e-6
-1.404, 3.067e-6
-1.403, 2.984e-6
-1.402, 2.967e-6
-1.401, 2.914e-6
-1.400, 2.867e-6
-1.399, 2.868e-6
-1.398, 2.819e-6
-1.397, 2.802e-6
-1.396, 2.751e-6
-1.395, 2.702e-6
-1.394, 2.686e-6
-1.393, 2.614e-6
-1.392, 2.596e-6
-1.391, 2.584e-6
-1.390, 2.537e-6
-1.389, 2.524e-6
-1.388, 2.477e-6
-1.387, 2.437e-6
-1.386, 2.453e-6
-1.385, 2.384e-6
-1.384, 2.351e-6
-1.383, 2.317e-6
-1.382, 2.270e-6
-1.381, 2.257e-6
-1.380, 2.247e-6
-1.379, 2.210e-6
-1.378, 2.187e-6
-1.377, 2.149e-6
-1.376, 2.129e-6
-1.375, 2.127e-6
-1.374, 2.061e-6
-1.373, 2.038e-6
-1.372, 2.024e-6
-1.371, 1.987e-6
-1.370, 1.985e-6
-1.369, 1.988e-6
-1.368, 1.936e-6
-1.367, 1.924e-6
-1.366, 1.895e-6
-1.365, 1.863e-6
-1.364, 1.830e-6
-1.363, 1.794e-6
-1.362, 1.803e-6
-1.361, 1.743e-6
-1.360, 1.745e-6
-1.359, 1.718e-6
-1.358, 1.725e-6
-1.357, 1.691e-6
-1.356, 1.660e-6
-1.355, 1.586e-6
-1.354, 1.614e-6
-1.353, 1.574e-6
-1.352, 1.544e-6
-1.351, 1.564e-6
-1.350, 1.508e-6
-1.349, 1.512e-6
-1.348, 1.489e-6
-1.347, 1.453e-6
-1.346, 1.471e-6
-1.345, 1.415e-6
-1.344, 1.409e-6
-1.343, 1.382e-6
-1.342, 1.398e-6
-1.341, 1.355e-6
-1.340, 1.338e-6
-1.339, 1.324e-6
-1.338, 1.295e-6
-1.337, 1.300e-6
-1.336, 1.269e-6
-1.335, 1.280e-6
-1.334, 1.218e-6
-1.333, 1.209e-6
-1.332, 1.190e-6
-1.331, 1.194e-6
-1.330, 1.155e-6
-1.329, 1.160e-6
-1.328, 1.124e-6
-1.327, 1.117e-6
-1.326, 1.107e-6
-1.325, 1.099e-6
-1.324, 1.098e-6
-1.323, 1.041e-6
-1.322, 1.063e-6
-1.321, 1.055e-6
-1.320, 1.017e-6
-1.319, 1.003e-6
-1.318, 9.716e-7
-1.317, 1.000e-6
-1.316, 9.548e-7
-1.315, 9.489e-7
-1.314, 9.351e-7
-1.313, 9.321e-7
-1.312, 8.937e-7
-1.311, 8.946e-7
-1.310, 8.937e-7
-1.309, 8.749e-7
-1.308, 8.927e-7
-1.307, 8.532e-7
-1.306, 8.463e-7
-1.305, 8.404e-7
-1.304, 8.354e-7
-1.303, 8.266e-7
-1.302, 8.098e-7
-1.301, 8.088e-7
-1.300, 7.881e-7
-1.299, 7.664e-7
-1.298, 7.368e-7
-1.297, 7.615e-7
-1.296, 7.171e-7
-1.295, 7.131e-7
-1.294, 7.299e-7
-1.293, 6.717e-7
-1.292, 6.993e-7
-1.291, 6.766e-7
-1.290, 6.697e-7
-1.289, 6.598e-7
-1.288, 6.539e-7
-1.287, 6.164e-7
-1.286, 6.105e-7
-1.285, 6.293e-7
-1.284, 6.016e-7
-1.283, 6.302e-7
-1.282, 5.789e-7
-1.281, 5.908e-7
-1.280, 5.316e-7
-1.279, 5.543e-7
-1.278, 5.168e-7
-1.277, 5.118e-7
-1.276, 5.040e-7
-1.275, 5.217e-7
-1.274, 4.931e-7
-1.273, 5.158e-7
-1.272, 4.941e-7
-1.271, 4.882e-7
-1.270, 4.674e-7
-1.269, 4.457e-7
-1.268, 4.665e-7
-1.267, 4.517e-7
-1.266, 3.935e-7
-1.265, 4.280e-7
-1.264, 4.083e-7
-1.263, 4.240e-7
-1.262, 3.787e-7
-1.261, 3.688e-7
-1.260, 3.688e-7
-1.259, 3.935e-7
-1.258, 3.550e-7
-1.257, 3.658e-7
-1.256, 3.264e-7
-1.255, 3.382e-7
-1.254, 3.037e-7
-1.253, 3.106e-7
-1.252, 3.066e-7
-1.251, 2.908e-7
-1.250, 2.879e-7
-1.249, 2.642e-7
-1.248, 2.622e-7
-1.247, 2.632e-7
-1.246, 2.642e-7
-1.245, 2.445e-7
-1.244, 2.307e-7
-1.243, 2.178e-7
-1.242, 2.109e-7
-1.241, 2.287e-7
-1.240, 1.981e-7
-1.239, 1.951e-7
-1.238, 2.109e-7
-1.237, 1.557e-7
-1.236, 1.606e-7
-1.235, 1.586e-7
-1.234, 1.448e-7
-1.233, 1.537e-7
-1.232, 1.162e-7
-1.231, 1.182e-7
-1.230, 1.389e-7
-1.229, 9.550e-8
-1.228, 7.380e-8
-1.227, 9.254e-8
-1.226, 7.873e-8
-1.225, 6.196e-8
-1.224, 7.676e-8
-1.223, 2.940e-8
-1.222, 5.407e-8
-1.221, 4.913e-8
-1.220, 3.137e-8
-1.219, 1.066e-8
-1.218, -5.130e-9
-1.217, 9.669e-9
-1.216, -2.289e-8
-1.215, -2.092e-8
-1.214, -1.302e-8
-1.213, -1.500e-8
-1.212, -5.545e-8
-1.211, -1.894e-8
-1.210, -7.222e-8
-1.209, -7.321e-8
-1.208, -8.603e-8
-1.207, -9.787e-8
-1.206, -1.067e-7
-1.205, -9.787e-8
-1.204, -1.235e-7
-1.203, -1.176e-7
-1.202, -1.107e-7
-1.201, -1.482e-7
-1.200, -1.511e-7
-1.199, -1.946e-7
-1.198, -1.748e-7
-1.197, -1.778e-7
-1.196, -2.163e-7
-1.195, -2.074e-7
-1.194, -1.916e-7
-1.193, -2.005e-7
-1.192, -2.074e-7
-1.191, -2.439e-7
-1.190, -2.587e-7
-1.189, -2.478e-7
-1.188, -2.824e-7
-1.187, -2.646e-7
-1.186, -2.853e-7
-1.185, -2.686e-7
-1.184, -2.834e-7
-1.183, -3.060e-7
-1.182, -3.149e-7
-1.181, -3.228e-7
-1.180, -3.396e-7
-1.179, -3.406e-7
-1.178, -3.643e-7
-1.177, -3.909e-7
-1.176, -3.860e-7
-1.175, -3.929e-7
-1.174, -3.938e-7
-1.173, -4.037e-7
-1.172, -4.363e-7
-1.171, -4.481e-7
-1.170, -4.649e-7
-1.169, -4.442e-7
-1.168, -4.866e-7
-1.167, -4.698e-7
-1.166, -4.846e-7
-1.165, -5.191e-7
-1.164, -5.073e-7
-1.163, -5.221e-7
-1.162, -5.310e-7
-1.161, -5.655e-7
-1.160, -5.724e-7
-1.159, -6.060e-7
-1.158, -6.000e-7
-1.157, -5.961e-7
-1.156, -6.030e-7
-1.155, -6.218e-7
-1.154, -6.553e-7
-1.153, -6.198e-7
-1.152, -6.661e-7
-1.151, -6.740e-7
-1.150, -7.105e-7
-1.149, -7.096e-7
-1.148, -7.224e-7
-1.147, -7.411e-7
-1.146, -7.609e-7
-1.145, -7.658e-7
-1.144, -7.589e-7
-1.143, -8.161e-7
-1.142, -8.092e-7
-1.141, -8.033e-7
-1.140, -8.526e-7
-1.139, -8.566e-7
-1.138, -9.049e-7
-1.137, -8.832e-7
-1.136, -8.960e-7
-1.135, -9.128e-7
-1.134, -9.621e-7
-1.133, -9.759e-7
-1.132, -9.799e-7
-1.131, -9.937e-7
-1.130, -9.976e-7
-1.129, -1.013e-6
-1.128, -1.035e-6
-1.127, -1.069e-6
-1.126, -1.099e-6
-1.125, -1.093e-6
-1.124, -1.146e-6
-1.123, -1.152e-6
-1.122, -1.171e-6
-1.121, -1.174e-6
-1.120, -1.203e-6
-1.119, -1.219e-6
-1.118, -1.292e-6
-1.117, -1.271e-6
-1.116, -1.303e-6
-1.115, -1.323e-6
-1.114, -1.336e-6
-1.113, -1.375e-6
-1.112, -1.398e-6
-1.111, -1.415e-6
-1.110, -1.449e-6
-1.109, -1.480e-6
-1.108, -1.495e-6
-1.107, -1.542e-6
-1.106, -1.545e-6
-1.105, -1.604e-6
-1.104, -1.603e-6
-1.103, -1.649e-6
-1.102, -1.687e-6
-1.101, -1.701e-6
-1.100, -1.761e-6
-1.099, -1.753e-6
-1.098, -1.819e-6
-1.097, -1.851e-6
-1.096, -1.873e-6
-1.095, -1.904e-6
-1.094, -1.932e-6
-1.093, -1.975e-6
-1.092, -2.010e-6
-1.091, -2.068e-6
-1.090, -2.061e-6
-1.089, -2.135e-6
-1.088, -2.139e-6
-1.087, -2.194e-6
-1.086, -2.227e-6
-1.085, -2.238e-6
-1.084, -2.312e-6
-1.083, -2.353e-6
-1.082, -2.390e-6
-1.081, -2.444e-6
-1.080, -2.456e-6
-1.079, -2.498e-6
-1.078, -2.542e-6
-1.077, -2.591e-6
-1.076, -2.655e-6
-1.075, -2.699e-6
-1.074, -2.675e-6
-1.073, -2.769e-6
-1.072, -2.809e-6
-1.071, -2.844e-6
-1.070, -2.879e-6
-1.069, -2.890e-6
-1.068, -2.945e-6
-1.067, -2.999e-6
-1.066, -3.025e-6
-1.065, -3.074e-6
-1.064, -3.093e-6
-1.063, -3.149e-6
-1.062, -3.176e-6
-1.061, -3.193e-6
-1.060, -3.233e-6
-1.059, -3.278e-6
-1.058, -3.282e-6
-1.057, -3.342e-6
-1.056, -3.365e-6
-1.055, -3.394e-6
-1.054, -3.419e-6
-1.053, -3.434e-6
-1.052, -3.429e-6
-1.051, -3.491e-6
-1.050, -3.503e-6
-1.049, -3.517e-6
-1.048, -3.537e-6
-1.047, -3.550e-6
-1.046, -3.590e-6
-1.045, -3.558e-6
-1.044, -3.587e-6
-1.043, -3.604e-6
-1.042, -3.606e-6
-1.041, -3.620e-6
-1.040, -3.611e-6
-1.039, -3.620e-6
-1.038, -3.658e-6
-1.037, -3.652e-6
-1.036, -3.628e-6
-1.035, -3.672e-6
-1.034, -3.630e-6
-1.033, -3.654e-6
-1.032, -3.690e-6
-1.031, -3.664e-6
-1.030, -3.694e-6
-1.029, -3.665e-6
-1.028, -3.653e-6
-1.027, -3.682e-6
-1.026, -3.658e-6
-1.025, -3.649e-6
-1.024, -3.639e-6
-1.023, -3.689e-6
-1.022, -3.703e-6
-1.021, -3.688e-6
-1.020, -3.661e-6
-1.019, -3.665e-6
-1.018, -3.699e-6
-1.017, -3.679e-6
-1.016, -3.694e-6
-1.015, -3.691e-6
-1.014, -3.692e-6
-1.013, -3.693e-6
-1.012, -3.693e-6
-1.011, -3.747e-6
-1.010, -3.745e-6
-1.009, -3.702e-6
-1.008, -3.751e-6
-1.007, -3.722e-6
-1.006, -3.749e-6
-1.005, -3.737e-6
-1.004, -3.739e-6
-1.003, -3.773e-6
-1.002, -3.790e-6
-1.001, -3.792e-6
-1.000, -3.593e-6
-1.001, -3.314e-6
-1.002, -3.122e-6
-1.003, -2.923e-6
-1.004, -2.724e-6
-1.005, -2.553e-6
-1.006, -2.434e-6
-1.007, -2.248e-6
-1.008, -2.112e-6
-1.009, -1.999e-6
-1.010, -1.869e-6
-1.011, -1.769e-6
-1.012, -1.638e-6
-1.013, -1.549e-6
-1.014, -1.426e-6
-1.015, -1.365e-6
-1.016, -1.252e-6
-1.017, -1.197e-6
-1.018, -1.091e-6
-1.019, -1.039e-6
-1.020, -9.237e-7
-1.021, -8.911e-7
-1.022, -8.250e-7
-1.023, -7.648e-7
-1.024, -6.790e-7
-1.025, -6.030e-7
-1.026, -5.783e-7
-1.027, -5.359e-7
-1.028, -4.156e-7
-1.029, -4.077e-7
-1.030, -3.544e-7
-1.031, -2.893e-7
-1.032, -2.656e-7
-1.033, -1.985e-7
-1.034, -1.581e-7
-1.035, -1.521e-7
-1.036, -8.208e-8
-1.037, -4.065e-8
-1.038, -5.130e-9
-1.039, 1.756e-8
-1.040, 7.281e-8
-1.041, 1.014e-7
-1.042, 1.350e-7
-1.043, 1.419e-7
-1.044, 1.774e-7
-1.045, 2.484e-7
-1.046, 2.968e-7
-1.047, 3.007e-7
-1.048, 3.155e-7
-1.049, 3.431e-7
-1.050, 4.033e-7
-1.051, 3.777e-7
-1.052, 4.211e-7
-1.053, 4.556e-7
-1.054, 4.951e-7
-1.055, 4.813e-7
-1.056, 5.355e-7
-1.057, 5.424e-7
-1.058, 5.553e-7
-1.059, 5.720e-7
-1.060, 6.056e-7
-1.061, 6.440e-7
-1.062, 6.214e-7
-1.063, 6.914e-7
-1.064, 6.875e-7
-1.065, 7.230e-7
-1.066, 7.555e-7
-1.067, 7.092e-7
-1.068, 7.881e-7
-1.069, 7.763e-7
-1.070, 8.088e-7
-1.071, 8.256e-7
-1.072, 8.236e-7
-1.073, 8.256e-7
-1.074, 8.700e-7
-1.075, 9.035e-7
-1.076, 9.183e-7
-1.077, 9.568e-7
-1.078, 9.292e-7
-1.079, 9.607e-7
-1.080, 9.598e-7
-1.081, 1.000e-6
-1.082, 1.009e-6
-1.083, 1.004e-6
-1.084, 1.016e-6
-1.085, 1.060e-6
-1.086, 1.048e-6
-1.087, 1.061e-6
-1.088, 1.084e-6
-1.089, 1.090e-6
-1.090, 1.134e-6
-1.091, 1.111e-6
-1.092, 1.100e-6
-1.093, 1.141e-6
-1.094, 1.158e-6
-1.095, 1.198e-6
-1.096, 1.153e-6
-1.097, 1.173e-6
-1.098, 1.199e-6
-1.099, 1.225e-6
-1.100, 1.219e-6
-1.101, 1.247e-6
-1.102, 1.255e-6
-1.103, 1.260e-6
-1.104, 1.279e-6
-1.105, 1.287e-6
-1.106, 1.325e-6
-1.107, 1.315e-6
-1.108, 1.303e-6
-1.109, 1.344e-6
-1.110, 1.353e-6
-1.111, 1.387e-6
-1.112, 1.352e-6
-1.113, 1.356e-6
-1.114, 1.382e-6
-1.115, 1.428e-6
-1.116, 1.398e-6
-1.117, 1.390e-6
-1.118, 1.410e-6
-1.119, 1.434e-6
-1.120, 1.431e-6
-1.121, 1.454e-6
-1.122, 1.450e-6
-1.123, 1.469e-6
-1.124, 1.495e-6
-1.125, 1.491e-6
-1.126, 1.517e-6
-1.127, 1.524e-6
-1.128, 1.531e-6
-1.129, 1.511e-6
-1.130, 1.542e-6
-1.131, 1.571e-6
-1.132, 1.563e-6
-1.133, 1.577e-6
-1.134, 1.581e-6
-1.135, 1.616e-6
-1.136, 1.611e-6
-1.137, 1.595e-6
-1.138, 1.634e-6
-1.139, 1.641e-6
-1.140, 1.633e-6
-1.141, 1.660e-6
-1.142, 1.642e-6
-1.143, 1.648e-6
-1.144, 1.691e-6
-1.145, 1.678e-6
-1.146, 1.683e-6
-1.147, 1.706e-6
-1.148, 1.726e-6
-1.149, 1.732e-6
-1.150, 1.710e-6
-1.151, 1.748e-6
-1.152, 1.745e-6
-1.153, 1.742e-6
-1.154, 1.754e-6
-1.155, 1.744e-6
-1.156, 1.783e-6
-1.157, 1.789e-6
-1.158, 1.766e-6
-1.159, 1.814e-6
-1.160, 1.804e-6
-1.161, 1.810e-6
-1.162, 1.807e-6
-1.163, 1.811e-6
-1.164, 1.819e-6
-1.165, 1.871e-6
-1.166, 1.857e-6
-1.167, 1.847e-6
-1.168, 1.894e-6
-1.169, 1.893e-6
-1.170, 1.892e-6
-1.171, 1.902e-6
-1.172, 1.917e-6
-1.173, 1.940e-6
-1.174, 1.928e-6
-1.175, 1.927e-6
-1.176, 1.976e-6
-1.177, 1.933e-6
-1.178, 1.972e-6
-1.179, 1.960e-6
-1.180, 1.985e-6
-1.181, 2.008e-6
-1.182, 2.000e-6
-1.183, 2.006e-6
-1.184, 2.009e-6
-1.185, 2.027e-6
-1.186, 2.035e-6
-1.187, 2.051e-6
-1.188, 2.040e-6
-1.189, 2.055e-6
-1.190, 2.102e-6
-1.191, 2.086e-6
-1.192, 2.083e-6
-1.193, 2.096e-6
-1.194, 2.133e-6
-1.195, 2.118e-6
-1.196, 2.127e-6
-1.197, 2.144e-6
-1.198, 2.165e-6
-1.199, 2.149e-6
-1.200, 2.167e-6
-1.201, 2.147e-6
-1.202, 2.174e-6
-1.203, 2.215e-6
-1.204, 2.210e-6
-1.205, 2.219e-6
-1.206, 2.226e-6
-1.207, 2.229e-6
-1.208, 2.249e-6
-1.209, 2.236e-6
-1.210, 2.250e-6
-1.211, 2.302e-6
-1.212, 2.244e-6
-1.213, 2.320e-6
-1.214, 2.308e-6
-1.215, 2.300e-6
-1.216, 2.329e-6
-1.217, 2.306e-6
-1.218, 2.350e-6
-1.219, 2.358e-6
-1.220, 2.339e-6
-1.221, 2.362e-6
-1.222, 2.376e-6
-1.223, 2.391e-6
-1.224, 2.401e-6
-1.225, 2.415e-6
-1.226, 2.445e-6
-1.227, 2.439e-6
-1.228, 2.432e-6
-1.229, 2.464e-6
-1.230, 2.490e-6
-1.231, 2.489e-6
-1.232, 2.502e-6
-1.233, 2.481e-6
-1.234, 2.524e-6
-1.235, 2.551e-6
-1.236, 2.513e-6
-1.237, 2.517e-6
-1.238, 2.548e-6
-1.239, 2.554e-6
-1.240, 2.548e-6
-1.241, 2.598e-6
-1.242, 2.595e-6
-1.243, 2.617e-6
-1.244, 2.590e-6
-1.245, 2.600e-6
-1.246, 2.671e-6
-1.247, 2.621e-6
-1.248, 2.684e-6
-1.249, 2.687e-6
-1.250, 2.696e-6
-1.251, 2.709e-6
-1.252, 2.727e-6
-1.253, 2.729e-6
-1.254, 2.726e-6
-1.255, 2.766e-6
-1.256, 2.775e-6
-1.257, 2.791e-6
-1.258, 2.777e-6
-1.259, 2.829e-6
-1.260, 2.815e-6
-1.261, 2.822e-6
-1.262, 2.829e-6
-1.263, 2.838e-6
-1.264, 2.908e-6
-1.265, 2.878e-6
-1.266, 2.887e-6
-1.267, 2.908e-6
-1.268, 2.953e-6
-1.269, 2.943e-6
-1.270, 2.936e-6
-1.271, 2.980e-6
-1.272, 3.006e-6
-1.273, 3.004e-6
-1.274, 3.016e-6
-1.275, 3.036e-6
-1.276, 3.017e-6
-1.277, 3.042e-6
-1.278, 3.082e-6
-1.279, 3.085e-6
-1.280, 3.137e-6
-1.281, 3.152e-6
-1.282, 3.137e-6
-1.283, 3.172e-6
-1.284, 3.187e-6
-1.285, 3.176e-6
-1.286, 3.187e-6
-1.287, 3.187e-6
-1.288, 3.286e-6
-1.289, 3.260e-6
-1.290, 3.276e-6
-1.291, 3.290e-6
-1.292, 3.279e-6
-1.293, 3.334e-6
-1.294, 3.323e-6
-1.295, 3.320e-6
-1.296, 3.388e-6
-1.297, 3.375e-6
-1.298, 3.398e-6
-1.299, 3.428e-6
-1.300, 3.453e-6
-1.301, 3.474e-6
-1.302, 3.498e-6
-1.303, 3.481e-6
-1.304, 3.541e-6
-1.305, 3.532e-6
-1.306, 3.546e-6
-1.307, 3.562e-6
-1.308, 3.592e-6
-1.309, 3.634e-6
-1.310, 3.659e-6
-1.311, 3.642e-6
-1.312, 3.696e-6
-1.313, 3.729e-6
-1.314, 3.726e-6
-1.315, 3.742e-6
-1.316, 3.767e-6
-1.317, 3.765e-6
-1.318, 3.826e-6
-1.319, 3.829e-6
-1.320, 3.883e-6
-1.321, 3.878e-6
-1.322, 3.888e-6
-1.323, 3.921e-6
-1.324, 3.955e-6
-1.325, 3.980e-6
-1.326, 4.022e-6
-1.327, 3.985e-6
-1.328, 4.045e-6
-1.329, 4.126e-6
-1.330, 4.073e-6
-1.331, 4.151e-6
-1.332, 4.150e-6
-1.333, 4.189e-6
-1.334, 4.210e-6
-1.335, 4.202e-6
-1.336, 4.251e-6
-1.337, 4.279e-6
-1.338, 4.300e-6
-1.339, 4.332e-6
-1.340, 4.379e-6
-1.341, 4.390e-6
-1.342, 4.428e-6
-1.343, 4.452e-6
-1.344, 4.489e-6
-1.345, 4.560e-6
-1.346, 4.533e-6
-1.347, 4.603e-6
-1.348, 4.598e-6
-1.349, 4.649e-6
-1.350, 4.679e-6
-1.351, 4.725e-6
-1.352, 4.763e-6
-1.353, 4.783e-6
-1.354, 4.793e-6
-1.355, 4.824e-6
-1.356, 4.852e-6
-1.357, 4.863e-6
-1.358, 4.933e-6
-1.359, 4.978e-6
-1.360, 5.013e-6
-1.361, 5.015e-6
-1.362, 5.029e-6
-1.363, 5.084e-6
-1.364, 5.091e-6
-1.365, 5.120e-6
-1.366, 5.167e-6
-1.367, 5.188e-6
-1.368, 5.235e-6
-1.369, 5.252e-6
-1.370, 5.276e-6
-1.371, 5.310e-6
-1.372, 5.333e-6
-1.373, 5.339e-6
-1.374, 5.439e-6
-1.375, 5.441e-6
-1.376, 5.480e-6
-1.377, 5.532e-6
-1.378, 5.513e-6
-1.379, 5.567e-6
-1.380, 5.614e-6
-1.381, 5.597e-6
-1.382, 5.660e-6
-1.383, 5.699e-6
-1.384, 5.722e-6
-1.385, 5.766e-6
-1.386, 5.791e-6
-1.387, 5.816e-6
-1.388, 5.859e-6
-1.389, 5.867e-6
-1.390, 5.919e-6
-1.391, 5.942e-6
-1.392, 5.987e-6
-1.393, 6.025e-6
-1.394, 6.059e-6
-1.395, 6.093e-6
-1.396, 6.140e-6
-1.397, 6.130e-6
-1.398, 6.179e-6
-1.399, 6.230e-6
-1.400, 6.254e-6
-1.401, 6.332e-6
-1.402, 6.334e-6
-1.403, 6.386e-6
-1.404, 6.402e-6
-1.405, 6.425e-6
-1.406, 6.465e-6
-1.407, 6.507e-6
-1.408, 6.531e-6
-1.409, 6.589e-6
-1.410, 6.622e-6
-1.411, 6.671e-6
-1.412, 6.711e-6
-1.413, 6.714e-6
-1.414, 6.767e-6
-1.415, 6.815e-6
-1.416, 6.806e-6
-1.417, 6.870e-6
-1.418, 6.890e-6
-1.419, 6.957e-6
-1.420, 6.992e-6
-1.421, 7.002e-6
-1.422, 7.049e-6
-1.423, 7.096e-6
-1.424, 7.107e-6
-1.425, 7.175e-6
-1.426, 7.196e-6
-1.427, 7.233e-6
-1.428, 7.278e-6
-1.429, 7.300e-6
-1.430, 7.314e-6
-1.431, 7.356e-6
-1.432, 7.392e-6
-1.433, 7.461e-6
-1.434, 7.458e-6
-1.435, 7.528e-6
-1.436, 7.603e-6
-1.437, 7.618e-6
-1.438, 7.613e-6
-1.439, 7.682e-6
-1.440, 7.709e-6
-1.441, 7.763e-6
-1.442, 7.788e-6
-1.443, 7.815e-6
-1.444, 7.899e-6
-1.445, 7.926e-6
-1.446, 7.954e-6
-1.447, 7.991e-6
-1.448, 8.037e-6
-1.449, 8.061e-6
-1.450, 8.114e-6
-1.451, 8.154e-6
-1.452, 8.164e-6
-1.453, 8.221e-6
-1.454, 8.258e-6
-1.455, 8.293e-6
-1.456, 8.320e-6
-1.457, 8.371e-6
-1.458, 8.403e-6
-1.459, 8.437e-6
-1.460, 8.518e-6
-1.461, 8.635e-6
-1.462, 8.640e-6
-1.463, 8.677e-6
-1.464, 8.669e-6
-1.465, 8.752e-6
-1.466, 8.821e-6
-1.467, 8.803e-6
-1.468, 8.880e-6
-1.469, 8.936e-6
-1.470, 8.963e-6
-1.471, 8.993e-6
-1.472, 9.025e-6
-1.473, 9.095e-6
-1.474, 9.195e-6
-1.475, 9.180e-6
-1.476, 9.278e-6
-1.477, 9.295e-6
-1.478, 9.327e-6
-1.479, 9.396e-6
-1.480, 9.405e-6
-1.481, 9.460e-6
-1.482, 9.527e-6
-1.483, 9.556e-6
-1.484, 9.631e-6
-1.485, 9.702e-6
-1.486, 9.734e-6
-1.487, 9.808e-6
-1.488, 9.824e-6
-1.489, 9.877e-6
-1.490, 9.948e-6
-1.491, 1.001e-5
-1.492, 1.004e-5
-1.493, 1.011e-5
-1.494, 1.014e-5
-1.495, 1.024e-5
-1.496, 1.023e-5
-1.497, 1.032e-5
-1.498, 1.040e-5
-1.499, 1.044e-5
-1.500, 1.050e-5
-1.501, 1.054e-5
-1.502, 1.061e-5
-1.503, 1.069e-5
-1.504, 1.073e-5
-1.505, 1.080e-5
-1.506, 1.087e-5
-1.507, 1.091e-5
-1.508, 1.096e-5
-1.509, 1.103e-5
-1.510, 1.109e-5
-1.511, 1.123e-5
-1.512, 1.124e-5
-1.513, 1.130e-5
-1.514, 1.138e-5
-1.515, 1.143e-5
-1.516, 1.150e-5
-1.517, 1.154e-5
-1.518, 1.160e-5
-1.519, 1.170e-5
-1.520, 1.177e-5
-1.521, 1.188e-5
-1.522, 1.189e-5
-1.523, 1.197e-5
-1.524, 1.205e-5
-1.525, 1.212e-5
-1.526, 1.215e-5
-1.527, 1.226e-5
-1.528, 1.231e-5
-1.529, 1.238e-5
-1.530, 1.248e-5
-1.531, 1.255e-5
-1.532, 1.263e-5
-1.533, 1.268e-5
-1.534, 1.277e-5
-1.535, 1.283e-5
-1.536, 1.294e-5
-1.537, 1.300e-5
-1.538, 1.303e-5
-1.539, 1.313e-5
-1.540, 1.321e-5
-1.541, 1.330e-5
-1.542, 1.337e-5
-1.543, 1.346e-5
-1.544, 1.354e-5
-1.545, 1.360e-5
-1.546, 1.372e-5
-1.547, 1.376e-5
-1.548, 1.386e-5
-1.549, 1.394e-5
-1.550, 1.401e-5
-1.551, 1.416e-5
-1.552, 1.426e-5
-1.553, 1.435e-5
-1.554, 1.446e-5
-1.555, 1.453e-5
-1.556, 1.464e-5
-1.557, 1.473e-5
-1.558, 1.481e-5
-1.559, 1.493e-5
-1.560, 1.501e-5
-1.561, 1.513e-5
-1.562, 1.519e-5
-1.563, 1.532e-5
-1.564, 1.540e-5
-1.565, 1.553e-5
-1.566, 1.565e-5
-1.567, 1.575e-5
-1.568, 1.586e-5
-1.569, 1.598e-5
-1.570, 1.614e-5
-1.571, 1.619e-5
-1.572, 1.639e-5
-1.573, 1.650e-5
-1.574, 1.655e-5
-1.575, 1.669e-5
-1.576, 1.680e-5
-1.577, 1.695e-5
-1.578, 1.709e-5
-1.579, 1.721e-5
-1.580, 1.732e-5
-1.581, 1.743e-5
-1.582, 1.755e-5
-1.583, 1.768e-5
-1.584, 1.783e-5
-1.585, 1.800e-5
-1.586, 1.819e-5
-1.587, 1.826e-5
-1.588, 1.842e-5
-1.589, 1.859e-5
-1.590, 1.873e-5
-1.591, 1.890e-5
-1.592, 1.903e-5
-1.593, 1.920e-5
-1.594, 1.942e-5
-1.595, 1.952e-5
-1.596, 1.970e-5
-1.597, 1.986e-5
-1.598, 2.004e-5
-1.599, 2.022e-5
-1.600, 2.038e-5
-1.601, 2.056e-5
-1.602, 2.078e-5
-1.603, 2.095e-5
-1.604, 2.116e-5
-1.605, 2.134e-5
-1.606, 2.154e-5
-1.607, 2.174e-5
-1.608, 2.195e-5
-1.609, 2.210e-5
-1.610, 2.234e-5
-1.611, 2.255e-5
-1.612, 2.277e-5
-1.613, 2.298e-5
-1.614, 2.316e-5
-1.615, 2.341e-5
-1.616, 2.368e-5
-1.617, 2.392e-5
-1.618, 2.414e-5
-1.619, 2.438e-5
-1.620, 2.470e-5
-1.621, 2.492e-5
-1.622, 2.519e-5
-1.623, 2.545e-5
-1.624, 2.572e-5
-1.625, 2.595e-5
-1.626, 2.626e-5
-1.627, 2.651e-5
-1.628, 2.683e-5
-1.629, 2.713e-5
-1.630, 2.744e-5
-1.631, 2.778e-5
-1.632, 2.809e-5
-1.633, 2.840e-5
-1.634, 2.873e-5
-1.635, 2.902e-5
-1.636, 2.939e-5
-1.637, 2.969e-5
-1.638, 3.013e-5
-1.639, 3.053e-5
-1.640, 3.089e-5
-1.641, 3.122e-5
-1.642, 3.157e-5
-1.643, 3.192e-5
-1.644, 3.238e-5
-1.645, 3.276e-5
-1.646, 3.341e-5
-1.647, 3.384e-5
-1.648, 3.441e-5
-1.649, 3.486e-5
-1.650, 3.532e-5
-1.651, 3.579e-5
-1.652, 3.625e-5
-1.653, 3.696e-5
-1.654, 3.728e-5
-1.655, 3.757e-5
-1.656, 3.807e-5
-1.657, 3.851e-5
-1.658, 3.896e-5
-1.659, 3.951e-5
-1.660, 4.000e-5
-1.661, 4.045e-5
-1.662, 4.109e-5
-1.663, 4.157e-5
-1.664, 4.216e-5
-1.665, 4.285e-5
-1.666, 4.364e-5
-1.667, 4.419e-5
-1.668, 4.487e-5
-1.669, 4.557e-5
-1.670, 4.615e-5
-1.671, 4.694e-5
-1.672, 4.765e-5
-1.673, 4.838e-5
-1.674, 4.913e-5
-1.675, 4.997e-5
-1.676, 5.084e-5
-1.677, 5.165e-5
-1.678, 5.254e-5
-1.679, 5.341e-5
-1.680, 5.435e-5
-1.681, 5.515e-5
-1.682, 5.600e-5
-1.683, 5.673e-5
-1.684, 5.786e-5
-1.685, 5.859e-5
-1.686, 5.960e-5
-1.687, 6.048e-5
-1.688, 6.144e-5
-1.689, 6.257e-5
-1.690, 6.381e-5
-1.691, 6.487e-5
-1.692, 6.606e-5
-1.693, 6.722e-5
-1.694, 6.837e-5
-1.695, 6.969e-5
-1.696, 7.096e-5
-1.697, 7.242e-5
-1.698, 7.372e-5
-1.699, 7.513e-5
-1.700, 7.627e-5
-1.701, 7.768e-5
-1.702, 7.916e-5
-1.703, 8.043e-5
-1.704, 8.187e-5
-1.705, 8.355e-5
-1.706, 8.503e-5
-1.707, 8.693e-5
-1.708, 8.826e-5
-1.709, 9.004e-5
-1.710, 9.191e-5
-1.711, 9.352e-5
-1.712, 9.522e-5
-1.713, 9.723e-5
-1.714, 9.978e-5
-1.715, 1.018e-4
-1.716, 1.039e-4
-1.717, 1.058e-4
-1.718, 1.078e-4
-1.719, 1.101e-4
-1.720, 1.129e-4
-1.721, 1.155e-4
-1.722, 1.179e-4
-1.723, 1.199e-4
-1.724, 1.224e-4
-1.725, 1.249e-4
-1.726, 1.275e-4
-1.727, 1.303e-4
-1.728, 1.333e-4
-1.729, 1.361e-4
-1.730, 1.389e-4
-1.731, 1.417e-4
-1.732, 1.449e-4
-1.733, 1.484e-4
-1.734, 1.520e-4
-1.735, 1.555e-4
-1.736, 1.589e-4
-1.737, 1.626e-4
-1.738, 1.663e-4
-1.739, 1.696e-4
-1.740, 1.733e-4
-1.741, 1.772e-4
-1.742, 1.812e-4
-1.743, 1.855e-4
-1.744, 1.902e-4
-1.745, 1.945e-4
-1.746, 1.990e-4
-1.747, 2.036e-4
-1.748, 2.084e-4
-1.749, 2.135e-4
-1.750, 2.187e-4
-1.751, 2.241e-4
-1.752, 2.294e-4
-1.753, 2.347e-4
-1.754, 2.402e-4
-1.755, 2.461e-4
-1.756, 2.521e-4
-1.757, 2.579e-4
-1.758, 2.646e-4
-1.759, 2.714e-4
-1.760, 2.780e-4
-1.761, 2.849e-4
-1.762, 2.915e-4
-1.763, 2.991e-4
-1.764, 3.068e-4
-1.765, 3.148e-4
-1.766, 3.225e-4
-1.767, 3.304e-4
-1.768, 3.385e-4
-1.769, 3.468e-4
-1.770, 3.569e-4
-1.771, 3.667e-4
-1.772, 3.757e-4
-1.773, 3.852e-4
-1.774, 3.951e-4
-1.775, 4.056e-4
-1.776, 4.159e-4
-1.777, 4.264e-4
-1.778, 4.376e-4
-1.779, 4.498e-4
-1.780, 4.616e-4
-1.781, 4.740e-4
-1.782, 4.867e-4
-1.783, 4.988e-4
-1.784, 5.119e-4
-1.785, 5.249e-4
-1.786, 5.388e-4
-1.787, 5.532e-4
-1.788, 5.666e-4
-1.789, 5.827e-4
-1.790, 5.983e-4
-1.791, 6.144e-4
-1.792, 6.311e-4
-1.793, 6.475e-4
-1.794, 6.647e-4
-1.795, 6.830e-4
-1.796, 7.005e-4
-1.797, 7.194e-4
-1.798, 7.389e-4
-1.799, 7.586e-4
-1.800, 7.795e-4
-1.801, 7.995e-4
-1.802, 8.208e-4
-1.803, 8.423e-4
-1.804, 8.648e-4
-1.805, 8.876e-4
-1.806, 9.105e-4
-1.807, 9.340e-4
-1.808, 9.584e-4
-1.809, 9.831e-4
-1.810, 1.010e-3
-1.811, 1.035e-3
-1.812, 1.063e-3
-1.813, 1.089e-3
-1.814, 1.117e-3
-1.815, 1.147e-3
-1.816, 1.176e-3
-1.817, 1.206e-3
-1.818, 1.236e-3
-1.819, 1.268e-3
-1.820, 1.299e-3
-1.821, 1.331e-3
-1.822, 1.364e-3
-1.823, 1.397e-3
-1.824, 1.433e-3
-1.825, 1.468e-3
-1.826, 1.504e-3
-1.827, 1.541e-3
-1.828, 1.578e-3
-1.829, 1.615e-3
-1.830, 1.653e-3
-1.831, 1.693e-3
-1.832, 1.731e-3
-1.833, 1.772e-3
-1.834, 1.813e-3
-1.835, 1.854e-3
-1.836, 1.897e-3
-1.837, 1.940e-3
-1.838, 1.983e-3
-1.839, 2.026e-3
-1.840, 2.072e-3
-1.841, 2.117e-3
-1.842, 2.162e-3
-1.843, 2.209e-3
-1.844, 2.256e-3
-1.845, 2.306e-3
-1.846, 2.355e-3
-1.847, 2.404e-3
-1.848, 2.452e-3
-1.849, 2.500e-3
-1.850, 2.550e-3
-1.851, 2.601e-3
-1.852, 2.652e-3
-1.853, 2.701e-3
-1.854, 2.751e-3
-1.855, 2.804e-3
-1.856, 2.857e-3
-1.857, 2.914e-3
-1.858, 2.969e-3
-1.859, 3.024e-3
-1.860, 3.078e-3
-1.861, 3.133e-3
-1.862, 3.190e-3
-1.863, 3.246e-3
-1.864, 3.301e-3
-1.865, 3.366e-3
-1.866, 3.430e-3
-1.867, 3.484e-3
-1.868, 3.538e-3
-1.869, 3.589e-3
-1.870, 3.646e-3
-1.871, 3.704e-3
-1.872, 3.765e-3
-1.873, 3.822e-3
-1.874, 3.881e-3
-1.875, 3.941e-3
-1.876, 4.002e-3
-1.877, 4.061e-3
-1.878, 4.122e-3
-1.879, 4.183e-3
-1.880, 4.246e-3
-1.881, 4.311e-3
-1.882, 4.373e-3
-1.883, 4.435e-3
-1.884, 4.496e-3
-1.885, 4.557e-3
-1.886, 4.619e-3
-1.887, 4.677e-3
-1.888, 4.744e-3
-1.889, 4.807e-3
-1.890, 4.867e-3
-1.891, 4.933e-3
-1.892, 4.996e-3
-1.893, 5.057e-3
-1.894, 5.111e-3
-1.895, 5.170e-3
-1.896, 5.225e-3
-1.897, 5.297e-3
-1.898, 5.367e-3
-1.899, 5.444e-3
-1.900, 5.476e-3
-1.899, 5.448e-3
-1.898, 5.405e-3
-1.897, 5.368e-3
-1.896, 5.334e-3
-1.895, 5.295e-3
-1.894, 5.258e-3
-1.893, 5.219e-3
-1.892, 5.179e-3
-1.891, 5.142e-3
-1.890, 5.101e-3
-1.889, 5.058e-3
-1.888, 5.017e-3
-1.887, 4.974e-3
-1.886, 4.934e-3
-1.885, 4.889e-3
-1.884, 4.848e-3
-1.883, 4.808e-3
-1.882, 4.768e-3
-1.881, 4.724e-3
-1.880, 4.684e-3
-1.879, 4.641e-3
-1.878, 4.598e-3
-1.877, 4.555e-3
-1.876, 4.513e-3
-1.875, 4.469e-3
-1.874, 4.427e-3
-1.873, 4.387e-3
-1.872, 4.345e-3
-1.871, 4.307e-3
-1.870, 4.261e-3
-1.869, 4.219e-3
-1.868, 4.178e-3
-1.867, 4.136e-3
-1.866, 4.096e-3
-1.865, 4.056e-3
-1.864, 4.017e-3
-1.863, 3.980e-3
-1.862, 3.941e-3
-1.861, 3.901e-3
-1.860, 3.858e-3
-1.859, 3.816e-3
-1.858, 3.775e-3
-1.857, 3.733e-3
-1.856, 3.693e-3
-1.855, 3.655e-3
-1.854, 3.616e-3
-1.853, 3.578e-3
-1.852, 3.541e-3
-1.851, 3.507e-3
-1.850, 3.462e-3
-1.849, 3.420e-3
-1.848, 3.380e-3
-1.847, 3.343e-3
-1.846, 3.312e-3
-1.845, 3.275e-3
-1.844, 3.238e-3
-1.843, 3.201e-3
-1.842, 3.165e-3
-1.841, 3.130e-3
-1.840, 3.094e-3
-1.839, 3.056e-3
-1.838, 3.022e-3
-1.837, 2.993e-3
-1.836, 2.956e-3
-1.835, 2.920e-3
-1.834, 2.884e-3
-1.833, 2.845e-3
-1.832, 2.809e-3
-1.831, 2.775e-3
-1.830, 2.743e-3
-1.829, 2.711e-3
-1.828, 2.680e-3
-1.827, 2.646e-3
-1.826, 2.613e-3
-1.825, 2.580e-3
-1.824, 2.548e-3
-1.823, 2.516e-3
-1.822, 2.483e-3
-1.821, 2.451e-3
-1.820, 2.420e-3
-1.819, 2.390e-3
-1.818, 2.360e-3
-1.817, 2.328e-3
-1.816, 2.297e-3
-1.815, 2.265e-3
-1.814, 2.238e-3
-1.813, 2.208e-3
-1.812, 2.177e-3
-1.811, 2.146e-3
-1.810, 2.118e-3
-1.809, 2.089e-3
-1.808, 2.060e-3
-1.807, 2.031e-3
-1.806, 2.004e-3
-1.805, 1.975e-3
-1.804, 1.948e-3
-1.803, 1.921e-3
-1.802, 1.896e-3
-1.801, 1.868e-3
-1.800, 1.841e-3
-1.799, 1.820e-3
-1.798, 1.797e-3
-1.797, 1.771e-3
-1.796, 1.744e-3
-1.795, 1.718e-3
-1.794, 1.692e-3
-1.793, 1.670e-3
-1.792, 1.646e-3
-1.791, 1.623e-3
-1.790, 1.598e-3
-1.789, 1.575e-3
-1.788, 1.552e-3
-1.787, 1.529e-3
-1.786, 1.506e-3
-1.785, 1.483e-3
-1.784, 1.461e-3
-1.783, 1.441e-3
-1.782, 1.420e-3
-1.781, 1.398e-3
-1.780, 1.377e-3
-1.779, 1.356e-3
-1.778, 1.336e-3
-1.777, 1.315e-3
-1.776, 1.295e-3
-1.775, 1.276e-3
-1.774, 1.256e-3
-1.773, 1.236e-3
-1.772, 1.218e-3
-1.771, 1.198e-3
-1.770, 1.179e-3
-1.769, 1.161e-3
-1.768, 1.143e-3
-1.767, 1.126e-3
-1.766, 1.108e-3
-1.765, 1.091e-3
-1.764, 1.073e-3
-1.763, 1.056e-3
-1.762, 1.039e-3
-1.761, 1.022e-3
-1.760, 1.006e-3
-1.759, 9.893e-4
-1.758, 9.734e-4
-1.757, 9.579e-4
-1.756, 9.421e-4
-1.755, 9.268e-4
-1.754, 9.118e-4
-1.753, 8.980e-4
-1.752, 8.828e-4
-1.751, 8.691e-4
-1.750, 8.548e-4
-1.749, 8.402e-4
-1.748, 8.267e-4
-1.747, 8.131e-4
-1.746, 7.992e-4
-1.745, 7.865e-4
-1.744, 7.738e-4
-1.743, 7.605e-4
-1.742, 7.474e-4
-1.741, 7.357e-4
-1.740, 7.232e-4
-1.739, 7.111e-4
-1.738, 6.992e-4
-1.737, 6.881e-4
-1.736, 6.763e-4
-1.735, 6.647e-4
-1.734, 6.534e-4
-1.733, 6.421e-4
-1.732, 6.308e-4
-1.731, 6.201e-4
-1.730, 6.096e-4
-1.729, 5.991e-4
-1.728, 5.885e-4
-1.727, 5.783e-4
-1.726, 5.682e-4
-1.725, 5.582e-4
-1.724, 5.492e-4
-1.723, 5.404e-4
-1.722, 5.311e-4
-1.721, 5.215e-4
-1.720, 5.130e-4
-1.719, 5.035e-4
-1.718, 4.951e-4
-1.717, 4.863e-4
-1.716, 4.780e-4
-1.715, 4.697e-4
-1.714, 4.613e-4
-1.713, 4.532e-4
-1.712, 4.451e-4
-1.711, 4.373e-4
-1.710, 4.295e-4
-1.709, 4.219e-4
-1.708, 4.143e-4
-1.707, 4.074e-4
-1.706, 4.000e-4
-1.705, 3.928e-4
-1.704, 3.858e-4
-1.703, 3.787e-4
-1.702, 3.720e-4
-1.701, 3.654e-4
-1.700, 3.586e-4
-1.699, 3.524e-4
-1.698, 3.459e-4
-1.697, 3.397e-4
-1.696, 3.337e-4
-1.695, 3.275e-4
-1.694, 3.219e-4
-1.693, 3.160e-4
-1.692, 3.104e-4
-1.691, 3.048e-4
-1.690, 2.994e-4
-1.689, 2.939e-4
-1.688, 2.886e-4
-1.687, 2.831e-4
-1.686, 2.781e-4
-1.685, 2.732e-4
-1.684, 2.680e-4
-1.683, 2.632e-4
-1.682, 2.586e-4
-1.681, 2.536e-4
-1.680, 2.494e-4
-1.679, 2.447e-4
-1.678, 2.404e-4
-1.677, 2.357e-4
-1.676, 2.316e-4
-1.675, 2.279e-4
-1.674, 2.240e-4
-1.673, 2.206e-4
-1.672, 2.166e-4
-1.671, 2.125e-4
-1.670, 2.083e-4
-1.669, 2.046e-4
-1.668, 2.009e-4
-1.667, 1.973e-4
-1.666, 1.937e-4
-1.665, 1.902e-4
-1.664, 1.868e-4
-1.663, 1.834e-4
-1.662, 1.803e-4
-1.661, 1.770e-4
-1.660, 1.738e-4
-1.659, 1.704e-4
-1.658, 1.672e-4
-1.657, 1.641e-4
-1.656, 1.611e-4
-1.655, 1.583e-4
-1.654, 1.555e-4
-1.653, 1.524e-4
-1.652, 1.497e-4
-1.651, 1.473e-4
-1.650, 1.444e-4
-1.649, 1.417e-4
-1.648, 1.390e-4
-1.647, 1.364e-4
-1.646, 1.339e-4
-1.645, 1.316e-4
-1.644, 1.293e-4
-1.643, 1.270e-4
-1.642, 1.247e-4
-1.641, 1.222e-4
-1.640, 1.201e-4
-1.639, 1.180e-4
-1.638, 1.156e-4
-1.637, 1.134e-4
-1.636, 1.113e-4
-1.635, 1.094e-4
-1.634, 1.073e-4
-1.633, 1.053e-4
-1.632, 1.034e-4
-1.631, 1.016e-4
-1.630, 9.981e-5
-1.629, 9.803e-5
-1.628, 9.628e-5
-1.627, 9.449e-5
-1.626, 9.270e-5
-1.625, 9.113e-5
-1.624, 8.949e-5
-1.623, 8.779e-5
-1.622, 8.623e-5
-1.621, 8.469e-5
-1.620, 8.319e-5
-1.619, 8.168e-5
-1.618, 8.022e-5
-1.617, 7.872e-5
-1.616, 7.732e-5
-1.615, 7.596e-5
-1.614, 7.454e-5
-1.613, 7.327e-5
-1.612, 7.197e-5
-1.611, 7.062e-5
-1.610, 6.936e-5
-1.609, 6.824e-5
-1.608, 6.694e-5
-1.607, 6.581e-5
-1.606, 6.464e-5
-1.605, 6.349e-5
-1.604, 6.231e-5
-1.603, 6.121e-5
-1.602, 6.016e-5
-1.601, 5.914e-5
-1.600, 5.807e-5
-1.599, 5.702e-5
-1.598, 5.595e-5
-1.597, 5.504e-5
-1.596, 5.395e-5
-1.595, 5.301e-5
-1.594, 5.199e-5
-1.593, 5.114e-5
-1.592, 5.015e-5
-1.591, 4.941e-5
-1.590, 4.862e-5
-1.589, 4.773e-5
-1.588, 4.686e-5
-1.587, 4.607e-5
-1.586, 4.527e-5
-1.585, 4.445e-5
-1.584, 4.371e-5
-1.583, 4.295e-5
-1.582, 4.218e-5
-1.581, 4.150e-5
-1.580, 4.070e-5
-1.579, 3.998e-5
-1.578, 3.930e-5
-1.577, 3.865e-5
-1.576, 3.801e-5
-1.575, 3.737e-5
-1.574, 3.668e-5
-1.573, 3.602e-5
-1.572, 3.542e-5
-1.571, 3.484e-5
-1.570, 3.420e-5
-1.569, 3.366e-5
-1.568, 3.308e-5
-1.567, 3.248e-5
-1.566, 3.189e-5
-1.565, 3.140e-5
-1.564, 3.085e-5
-1.563, 3.041e-5
-1.562, 2.984e-5
-1.561, 2.936e-5
-1.560, 2.880e-5
-1.559, 2.832e-5
-1.558, 2.780e-5
-1.557, 2.739e-5
-1.556, 2.697e-5
-1.555, 2.648e-5
-1.554, 2.609e-5
-1.553, 2.562e-5
-1.552, 2.523e-5
-1.551, 2.477e-5
-1.550, 2.437e-5
-1.549, 2.395e-5
-1.548, 2.355e-5
-1.547, 2.314e-5
-1.546, 2.274e-5
-1.545, 2.244e-5
-1.544, 2.201e-5
-1.543, 2.162e-5
-1.542, 2.125e-5
-1.541, 2.087e-5
-1.540, 2.059e-5
-1.539, 2.025e-5
-1.538, 1.996e-5
-1.537, 1.964e-5
-1.536, 1.932e-5
-1.535, 1.895e-5
-1.534, 1.859e-5
-1.533, 1.854e-5
-1.532, 1.809e-5
-1.531, 1.780e-5
-1.530, 1.751e-5
-1.529, 1.723e-5
-1.528, 1.692e-5
-1.527, 1.684e-5
-1.526, 1.642e-5
-1.525, 1.617e-5
-1.524, 1.587e-5
-1.523, 1.558e-5
-1.522, 1.533e-5
-1.521, 1.512e-5
-1.520, 1.483e-5
-1.519, 1.463e-5
-1.518, 1.437e-5
-1.517, 1.413e-5
-1.516, 1.390e-5
-1.515, 1.367e-5
-1.514, 1.343e-5
-1.513, 1.323e-5
-1.512, 1.304e-5
-1.511, 1.284e-5
-1.510, 1.261e-5
-1.509, 1.241e-5
-1.508, 1.219e-5
-1.507, 1.200e-5
-1.506, 1.180e-5
-1.505, 1.165e-5
-1.504, 1.145e-5
-1.503, 1.127e-5
-1.502, 1.109e-5
-1.501, 1.092e-5
-1.500, 1.074e-5
-1.499, 1.058e-5
-1.498, 1.042e-5
-1.497, 1.025e-5
-1.496, 1.009e-5
-1.495, 9.925e-6
-1.494, 9.769e-6
-1.493, 9.610e-6
-1.492, 9.476e-6
-1.491, 9.296e-6
-1.490, 9.148e-6
-1.489, 9.048e-6
-1.488, 8.910e-6
-1.487, 8.773e-6
-1.486, 8.630e-6
-1.485, 8.484e-6
-1.484, 8.350e-6
-1.483, 8.228e-6
-1.482, 8.090e-6
-1.481, 7.981e-6
-1.480, 7.844e-6
-1.479, 7.740e-6
-1.478, 7.619e-6
-1.477, 7.499e-6
-1.476, 7.391e-6
-1.475, 7.306e-6
-1.474, 7.167e-6
-1.473, 7.056e-6
-1.472, 6.950e-6
-1.471, 6.832e-6
-1.470, 6.746e-6
-1.469, 6.637e-6
-1.468, 6.708e-6
-1.467, 6.646e-6
-1.466, 6.499e-6
-1.465, 6.397e-6
-1.464, 6.303e-6
-1.463, 6.229e-6
-1.462, 6.134e-6
-1.461, 6.004e-6
-1.460, 5.936e-6
-1.459, 5.883e-6
-1.458, 5.724e-6
-1.457, 5.645e-6
-1.456, 5.585e-6
-1.455, 5.535e-6
-1.454, 5.421e-6
-1.453, 5.316e-6
-1.452, 5.268e-6
-1.451, 5.180e-6
-1.450, 5.093e-6
-1.449, 5.041e-6
-1.448, 4.937e-6
-1.447, 4.905e-6
-1.446, 4.801e-6
-1.445, 4.724e-6
-1.444, 4.673e-6
-1.443, 4.616e-6
-1.442, 4.544e-6
-1.441, 4.482e-6
-1.440, 4.422e-6
-1.439, 4.349e-6
-1.438, 4.272e-6
-1.437, 4.219e-6
-1.436, 4.154e-6
-1.435, 4.110e-6
-1.434, 4.063e-6
-1.433, 3.980e-6
-1.432, 3.935e-6
-1.431, 3.885e-6
-1.430, 3.874e-6
-1.429, 3.804e-6
-1.428, 3.702e-6
-1.427, 3.690e-6
-1.426, 3.646e-6
-1.425, 3.593e-6
-1.424, 3.526e-6
-1.423, 3.487e-6
-1.422, 3.460e-6
-1.421, 3.423e-6
-1.420, 3.363e-6
-1.419, 3.317e-6
-1.418, 3.262e-6
-1.417, 3.247e-6
-1.416, 3.191e-6
-1.415, 3.128e-6
-1.414, 3.106e-6
-1.413, 3.053e-6
-1.412, 3.027e-6
-1.411, 2.977e-6
-1.410, 2.964e-6
-1.409, 2.922e-6
-1.408, 2.852e-6
-1.407, 2.819e-6
-1.406, 2.790e-6
-1.405, 2.749e-6
-1.404, 2.698e-6
-1.403, 2.681e-6
-1.402, 2.658e-6
-1.401, 2.624e-6
-1.400, 2.587e-6
-1.399, 2.535e-6
-1.398, 2.515e-6
-1.397, 2.471e-6
-1.396, 2.453e-6
-1.395, 2.408e-6
-1.394, 2.363e-6
-1.393, 2.318e-6
-1.392, 2.342e-6
-1.391, 2.277e-6
-1.390, 2.243e-6
-1.389, 2.245e-6
-1.388, 2.182e-6
-1.387, 2.205e-6
-1.386, 2.140e-6
-1.385, 2.119e-6
-1.384, 2.070e-6
-1.383, 2.055e-6
-1.382, 2.002e-6
-1.381, 2.007e-6
-1.380, 1.979e-6
-1.379, 1.952e-6
-1.378, 1.925e-6
-1.377, 1.909e-6
-1.376, 1.878e-6
-1.375, 1.842e-6
-1.374, 1.805e-6
-1.373, 1.794e-6
-1.372, 1.764e-6
-1.371, 1.724e-6
-1.370, 1.717e-6
-1.369, 1.676e-6
-1.368, 1.667e-6
-1.367, 1.662e-6
-1.366, 1.591e-6
-1.365, 1.599e-6
-1.364, 1.569e-6
-1.363, 1.551e-6
-1.362, 1.548e-6
-1.361, 1.498e-6
-1.360, 1.504e-6
-1.359, 1.487e-6
-1.358, 1.462e-6
-1.357, 1.415e-6
-1.356, 1.407e-6
-1.355, 1.384e-6
-1.354, 1.342e-6
-1.353, 1.334e-6
-1.352, 1.321e-6
-1.351, 1.328e-6
-1.350, 1.271e-6
-1.349, 1.281e-6
-1.348, 1.262e-6
-1.347, 1.242e-6
-1.346, 1.225e-6
-1.345, 1.204e-6
-1.344, 1.154e-6
-1.343, 1.174e-6
-1.342, 1.122e-6
-1.341, 1.104e-6
-1.340, 1.122e-6
-1.339, 1.082e-6
-1.338, 1.086e-6
-1.337, 1.042e-6
-1.336, 1.048e-6
-1.335, 1.064e-6
-1.334, 9.923e-7
-1.333, 1.004e-6
-1.332, 9.677e-7
-1.331, 9.489e-7
-1.330, 9.617e-7
-1.329, 9.085e-7
-1.328, 9.075e-7
-1.327, 9.331e-7
-1.326, 8.868e-7
-1.325, 8.759e-7
-1.324, 8.512e-7
-1.323, 8.394e-7
-1.322, 8.404e-7
-1.321, 8.019e-7
-1.320, 8.049e-7
-1.319, 7.901e-7
-1.318, 7.772e-7
-1.317, 7.486e-7
-1.316, 7.486e-7
-1.315, 7.269e-7
-1.314, 7.348e-7
-1.313, 7.279e-7
-1.312, 6.865e-7
-1.311, 6.914e-7
-1.310, 6.697e-7
-1.309, 6.776e-7
-1.308, 6.697e-7
-1.307, 6.401e-7
-1.306, 6.154e-7
-1.305, 6.115e-7
-1.304, 5.888e-7
-1.303, 5.849e-7
-1.302, 5.730e-7
-1.301, 5.720e-7
-1.300, 5.779e-7
-1.299, 5.395e-7
-1.298, 5.434e-7
-1.297, 5.326e-7
-1.296, 5.247e-7
-1.295, 5.257e-7
-1.294, 4.990e-7
-1.293, 4.921e-7
-1.292, 4.596e-7
-1.291, 4.517e-7
-1.290, 4.951e-7
-1.289, 4.566e-7
-1.288, 4.240e-7
-1.287, 4.329e-7
-1.286, 4.250e-7
-1.285, 4.092e-7
-1.284, 3.974e-7
-1.283, 3.717e-7
-1.282, 3.629e-7
-1.281, 3.639e-7
-1.280, 3.274e-7
-1.279, 3.204e-7
-1.278, 3.264e-7
-1.277, 3.214e-7
-1.276, 3.126e-7
-1.275, 2.869e-7
-1.274, 3.007e-7
-1.273, 2.691e-7
-1.272, 2.879e-7
-1.271, 2.622e-7
-1.270, 2.672e-7
-1.269, 2.445e-7
-1.268, 2.415e-7
-1.267, 2.277e-7
-1.266, 2.317e-7
-1.265, 2.178e-7
-1.264, 1.922e-7
-1.263, 1.734e-7
-1.262, 1.912e-7
-1.261, 1.695e-7
-1.260, 1.675e-7
-1.259, 1.646e-7
-1.258, 1.409e-7
-1.257, 1.537e-7
-1.256, 1.547e-7
-1.255, 1.133e-7
-1.254, 8.366e-8
-1.253, 9.452e-8
-1.252, 1.212e-7
-1.251, 8.564e-8
-1.250, 7.774e-8
-1.249, 8.564e-8
-1.248, 7.281e-8
-1.247, 5.012e-8
-1.246, 5.012e-8
-1.245, 6.886e-8
-1.244, 2.151e-8
-1.243, 4.025e-8
-1.242, -2.171e-9
-1.241, -1.894e-8
-1.240, -8.090e-9
-1.239, -2.289e-8
-1.238, -1.302e-8
-1.237, -1.796e-8
-1.236, -3.571e-8
-1.235, -5.742e-8
-1.234, -6.827e-8
-1.233, -8.504e-8
-1.232, -9.886e-8
-1.231, -5.643e-8
-1.230, -1.048e-7
-1.229, -1.097e-7
-1.228, -1.354e-7
-1.227, -1.196e-7
-1.226, -1.127e-7
-1.225, -1.334e-7
-1.224, -1.699e-7
-1.223, -1.373e-7
-1.222, -1.798e-7
-1.221, -1.916e-7
-1.220, -1.748e-7
-1.219, -1.955e-7
-1.218, -1.886e-7
-1.217, -1.946e-7
-1.216, -2.380e-7
-1.215, -2.222e-7
-1.214, -2.459e-7
-1.213, -2.676e-7
-1.212, -2.567e-7
-1.211, -2.666e-7
-1.210, -2.883e-7
-1.209, -3.001e-7
-1.208, -3.031e-7
-1.207, -2.794e-7
-1.206, -3.120e-7
-1.205, -3.248e-7
-1.204, -3.603e-7
-1.203, -3.652e-7
-1.202, -3.731e-7
-1.201, -3.761e-7
-1.200, -3.731e-7
-1.199, -4.077e-7
-1.198, -4.146e-7
-1.197, -4.382e-7
-1.196, -4.047e-7
-1.195, -4.146e-7
-1.194, -4.432e-7
-1.193, -4.590e-7
-1.192, -4.669e-7
-1.191, -4.550e-7
-1.190, -4.915e-7
-1.189, -5.103e-7
-1.188, -5.172e-7
-1.187, -5.142e-7
-1.186, -5.182e-7
-1.185, -5.330e-7
-1.184, -5.695e-7
-1.183, -5.655e-7
-1.182, -5.606e-7
-1.181, -5.418e-7
-1.180, -5.902e-7
-1.179, -6.070e-7
-1.178, -6.247e-7
-1.177, -6.533e-7
-1.176, -6.701e-7
-1.175, -6.642e-7
-1.174, -6.879e-7
-1.173, -6.721e-7
-1.172, -7.007e-7
-1.171, -7.145e-7
-1.170, -7.175e-7
-1.169, -7.559e-7
-1.168, -7.530e-7
-1.167, -7.609e-7
-1.166, -7.579e-7
-1.165, -7.845e-7
-1.164, -8.072e-7
-1.163, -8.408e-7
-1.162, -8.299e-7
-1.161, -8.201e-7
-1.160, -8.654e-7
-1.159, -8.842e-7
-1.158, -9.000e-7
-1.157, -8.842e-7
-1.156, -9.414e-7
-1.155, -9.315e-7
-1.154, -9.444e-7
-1.153, -9.582e-7
-1.152, -9.828e-7
-1.151, -1.006e-6
-1.150, -1.018e-6
-1.149, -1.056e-6
-1.148, -1.064e-6
-1.147, -1.093e-6
-1.146, -1.083e-6
-1.145, -1.100e-6
-1.144, -1.156e-6
-1.143, -1.136e-6
-1.142, -1.174e-6
-1.141, -1.178e-6
-1.140, -1.192e-6
-1.139, -1.231e-6
-1.138, -1.257e-6
-1.137, -1.243e-6
-1.136, -1.298e-6
-1.135, -1.293e-6
-1.134, -1.341e-6
-1.133, -1.367e-6
-1.132, -1.344e-6
-1.131, -1.416e-6
-1.130, -1.426e-6
-1.129, -1.466e-6
-1.128, -1.461e-6
-1.127, -1.504e-6
-1.126, -1.529e-6
-1.125, -1.545e-6
-1.124, -1.571e-6
-1.123, -1.604e-6
-1.122, -1.632e-6
-1.121, -1.653e-6
-1.120, -1.702e-6
-1.119, -1.684e-6
-1.118, -1.753e-6
-1.117, -1.768e-6
-1.116, -1.804e-6
-1.115, -1.826e-6
-1.114, -1.892e-6
-1.113, -1.900e-6
-1.112, -1.899e-6
-1.111, -1.960e-6
-1.110, -1.971e-6
-1.109, -2.055e-6
-1.108, -2.051e-6
-1.107, -2.093e-6
-1.106, -2.144e-6
-1.105, -2.136e-6
-1.104, -2.208e-6
-1.103, -2.222e-6
-1.102, -2.284e-6
-1.101, -2.313e-6
-1.100, -2.353e-6
-1.099, -2.402e-6
-1.098, -2.448e-6
-1.097, -2.458e-6
-1.096, -2.524e-6
-1.095, -2.566e-6
-1.094, -2.588e-6
-1.093, -2.650e-6
-1.092, -2.670e-6
-1.091, -2.720e-6
-1.090, -2.791e-6
-1.089, -2.837e-6
-1.088, -2.886e-6
-1.087, -2.905e-6
-1.086, -2.974e-6
-1.085, -3.007e-6
-1.084, -3.051e-6
-1.083, -3.071e-6
-1.082, -3.127e-6
-1.081, -3.181e-6
-1.080, -3.242e-6
-1.079, -3.271e-6
-1.078, -3.304e-6
-1.077, -3.377e-6
-1.076, -3.393e-6
-1.075, -3.486e-6
-1.074, -3.519e-6
-1.073, -3.569e-6
-1.072, -3.602e-6
-1.071, -3.627e-6
-1.070, -3.681e-6
-1.069, -3.742e-6
-1.068, -3.772e-6
-1.067, -3.799e-6
-1.066, -3.833e-6
-1.065, -3.834e-6
-1.064, -3.922e-6
-1.063, -3.945e-6
-1.062, -3.976e-6
-1.061, -4.019e-6
-1.060, -4.071e-6
-1.059, -4.123e-6
-1.058, -4.104e-6
-1.057, -4.127e-6
-1.056, -4.178e-6
-1.055, -4.193e-6
-1.054, -4.234e-6
-1.053, -4.241e-6
-1.052, -4.260e-6
-1.051, -4.299e-6
-1.050, -4.303e-6
-1.049, -4.324e-6
-1.048, -4.358e-6
-1.047, -4.343e-6
-1.046, -4.360e-6
-1.045, -4.395e-6
-1.044, -4.411e-6
-1.043, -4.451e-6
-1.042, -4.445e-6
-1.041, -4.454e-6
-1.040, -4.485e-6
-1.039, -4.474e-6
-1.038, -4.503e-6
-1.037, -4.505e-6
-1.036, -4.520e-6
-1.035, -4.556e-6
-1.034, -4.566e-6
-1.033, -4.540e-6
-1.032, -4.565e-6
-1.031, -4.591e-6
-1.030, -4.598e-6
-1.029, -4.637e-6
-1.028, -4.639e-6
-1.027, -4.673e-6
-1.026, -4.676e-6
-1.025, -4.666e-6
-1.024, -4.701e-6
-1.023, -4.724e-6
-1.022, -4.730e-6
-1.021, -4.756e-6
-1.020, -4.749e-6
-1.019, -4.801e-6
-1.018, -4.820e-6
-1.017, -4.815e-6
-1.016, -4.859e-6
-1.015, -4.858e-6
-1.014, -4.883e-6
-1.013, -4.915e-6
-1.012, -4.941e-6
-1.011, -4.951e-6
-1.010, -4.981e-6
-1.009, -4.982e-6
-1.008, -5.011e-6
-1.007, -5.015e-6
-1.006, -5.038e-6
-1.005, -5.073e-6
-1.004, -5.079e-6
-1.003, -5.099e-6
-1.002, -5.140e-6
-1.001, -5.143e-6
-1.000, -4.903e-6
-1.001, -4.544e-6
-1.002, -4.312e-6
-1.003, -4.056e-6
-1.004, -3.811e-6
-1.005, -3.597e-6
-1.006, -3.416e-6
-1.007, -3.202e-6
-1.008, -3.029e-6
-1.009, -2.858e-6
-1.010, -2.691e-6
-1.011, -2.588e-6
-1.012, -2.415e-6
-1.013, -2.312e-6
-1.014, -2.164e-6
-1.015, -2.039e-6
-1.016, -1.938e-6
-1.017, -1.816e-6
-1.018, -1.708e-6
-1.019, -1.621e-6
-1.020, -1.521e-6
-1.021, -1.407e-6
-1.022, -1.357e-6
-1.023, -1.248e-6
-1.024, -1.212e-6
-1.025, -1.098e-6
-1.026, -1.028e-6
-1.027, -9.819e-7
-1.028, -8.595e-7
-1.029, -8.319e-7
-1.030, -7.688e-7
-1.031, -7.303e-7
-1.032, -6.474e-7
-1.033, -5.902e-7
-1.034, -5.379e-7
-1.035, -5.053e-7
-1.036, -4.392e-7
-1.037, -3.909e-7
-1.038, -3.514e-7
-1.039, -3.149e-7
-1.040, -2.547e-7
-1.041, -1.916e-7
-1.042, -1.699e-7
-1.043, -1.600e-7
-1.044, -9.688e-8
-1.045, -7.222e-8
-1.046, -1.500e-8
-1.047, 4.736e-9
-1.048, 4.617e-8
-1.049, 8.169e-8
-1.050, 1.340e-7
-1.051, 1.409e-7
-1.052, 1.823e-7
-1.053, 2.307e-7
-1.054, 2.553e-7
-1.055, 2.800e-7
-1.056, 2.711e-7
-1.057, 3.096e-7
-1.058, 3.461e-7
-1.059, 3.806e-7
-1.060, 4.122e-7
-1.061, 4.043e-7
-1.062, 4.517e-7
-1.063, 4.872e-7
-1.064, 4.901e-7
-1.065, 5.128e-7
-1.066, 5.710e-7
-1.067, 5.631e-7
-1.068, 5.819e-7
-1.069, 6.075e-7
-1.070, 6.233e-7
-1.071, 6.598e-7
-1.072, 6.470e-7
-1.073, 6.825e-7
-1.074, 7.032e-7
-1.075, 7.062e-7
-1.076, 7.388e-7
-1.077, 7.624e-7
-1.078, 7.733e-7
-1.079, 8.108e-7
-1.080, 8.167e-7
-1.081, 8.118e-7
-1.082, 8.404e-7
-1.083, 8.424e-7
-1.084, 8.818e-7
-1.085, 8.937e-7
-1.086, 9.104e-7
-1.087, 9.459e-7
-1.088, 9.400e-7
-1.089, 9.381e-7
-1.090, 9.627e-7
-1.091, 9.746e-7
-1.092, 1.000e-6
-1.093, 1.010e-6
-1.094, 1.013e-6
-1.095, 1.046e-6
-1.096, 1.057e-6
-1.097, 1.040e-6
-1.098, 1.069e-6
-1.099, 1.096e-6
-1.100, 1.092e-6
-1.101, 1.088e-6
-1.102, 1.112e-6
-1.103, 1.153e-6
-1.104, 1.165e-6
-1.105, 1.173e-6
-1.106, 1.184e-6
-1.107, 1.178e-6
-1.108, 1.197e-6
-1.109, 1.218e-6
-1.110, 1.213e-6
-1.111, 1.238e-6
-1.112, 1.233e-6
-1.113, 1.258e-6
-1.114, 1.246e-6
-1.115, 1.273e-6
-1.116, 1.284e-6
-1.117, 1.295e-6
-1.118, 1.308e-6
-1.119, 1.292e-6
-1.120, 1.306e-6
-1.121, 1.324e-6
-1.122, 1.364e-6
-1.123, 1.357e-6
-1.124, 1.387e-6
-1.125, 1.386e-6
-1.126, 1.370e-6
-1.127, 1.410e-6
-1.128, 1.427e-6
-1.129, 1.404e-6
-1.130, 1.456e-6
-1.131, 1.443e-6
-1.132, 1.449e-6
-1.133, 1.464e-6
-1.134, 1.455e-6
-1.135, 1.468e-6
-1.136, 1.491e-6
-1.137, 1.492e-6
-1.138, 1.522e-6
-1.139, 1.516e-6
-1.140, 1.542e-6
-1.141, 1.575e-6
-1.142, 1.554e-6
-1.143, 1.568e-6
-1.144, 1.557e-6
-1.145, 1.558e-6
-1.146, 1.613e-6
-1.147, 1.582e-6
-1.148, 1.627e-6
-1.149, 1.646e-6
-1.150, 1.641e-6
-1.151, 1.623e-6
-1.152, 1.656e-6
-1.153, 1.667e-6
-1.154, 1.674e-6
-1.155, 1.682e-6
-1.156, 1.682e-6
-1.157, 1.698e-6
-1.158, 1.712e-6
-1.159, 1.708e-6
-1.160, 1.740e-6
-1.161, 1.737e-6
-1.162, 1.748e-6
-1.163, 1.726e-6
-1.164, 1.739e-6
-1.165, 1.800e-6
-1.166, 1.792e-6
-1.167, 1.814e-6
-1.168, 1.805e-6
-1.169, 1.819e-6
-1.170, 1.841e-6
-1.171, 1.832e-6
-1.172, 1.823e-6
-1.173, 1.847e-6
-1.174, 1.859e-6
-1.175, 1.865e-6
-1.176, 1.896e-6
-1.177, 1.873e-6
-1.178, 1.918e-6
-1.179, 1.921e-6
-1.180, 1.921e-6
-1.181, 1.927e-6
-1.182, 1.930e-6
-1.183, 1.926e-6
-1.184, 1.953e-6
-1.185, 1.930e-6
-1.186, 2.001e-6
-1.187, 2.001e-6
-1.188, 1.978e-6
-1.189, 1.992e-6
-1.190, 2.002e-6
-1.191, 2.019e-6
-1.192, 2.046e-6
-1.193, 2.010e-6
-1.194, 2.062e-6
-1.195, 2.090e-6
-1.196, 2.038e-6
-1.197, 2.074e-6
-1.198, 2.108e-6
-1.199, 2.111e-6
-1.200, 2.097e-6
-1.201, 2.114e-6
-1.202, 2.131e-6
-1.203, 2.148e-6
-1.204, 2.142e-6
-1.205, 2.169e-6
-1.206, 2.149e-6
-1.207, 2.194e-6
-1.208, 2.227e-6
-1.209, 2.179e-6
-1.210, 2.230e-6
-1.211, 2.217e-6
-1.212, 2.229e-6
-1.213, 2.255e-6
-1.214, 2.233e-6
-1.215, 2.267e-6
-1.216, 2.286e-6
-1.217, 2.303e-6
-1.218, 2.294e-6
-1.219, 2.324e-6
-1.220, 2.302e-6
-1.221, 2.348e-6
-1.222, 2.327e-6
-1.223, 2.377e-6
-1.224, 2.372e-6
-1.225, 2.361e-6
-1.226, 2.384e-6
-1.227, 2.407e-6
-1.228, 2.412e-6
-1.229, 2.445e-6
-1.230, 2.463e-6
-1.231, 2.443e-6
-1.232, 2.491e-6
-1.233, 2.466e-6
-1.234, 2.503e-6
-1.235, 2.491e-6
-1.236, 2.517e-6
-1.237, 2.533e-6
-1.238, 2.511e-6
-1.239, 2.542e-6
-1.240, 2.553e-6
-1.241, 2.584e-6
-1.242, 2.607e-6
-1.243, 2.623e-6
-1.244, 2.627e-6
-1.245, 2.646e-6
-1.246, 2.647e-6
-1.247, 2.636e-6
-1.248, 2.681e-6
-1.249, 2.665e-6
-1.250, 2.719e-6
-1.251, 2.705e-6
-1.252, 2.713e-6
-1.253, 2.733e-6
-1.254, 2.745e-6
-1.255, 2.755e-6
-1.256, 2.773e-6
-1.257, 2.783e-6
-1.258, 2.780e-6
-1.259, 2.826e-6
-1.260, 2.831e-6
-1.261, 2.852e-6
-1.262, 2.880e-6
-1.263, 2.881e-6
-1.264, 2.923e-6
-1.265, 2.889e-6
-1.266, 2.922e-6
-1.267, 2.942e-6
-1.268, 2.964e-6
-1.269, 2.975e-6
-1.270, 2.986e-6
-1.271, 2.971e-6
-1.272, 3.014e-6
-1.273, 3.033e-6
-1.274, 3.034e-6
-1.275, 3.067e-6
-1.276, 3.072e-6
-1.277, 3.096e-6
-1.278, 3.087e-6
-1.279, 3.117e-6
-1.280, 3.160e-6
-1.281, 3.171e-6
-1.282, 3.189e-6
-1.283, 3.203e-6
-1.284, 3.200e-6
-1.285, 3.249e-6
-1.286, 3.250e-6
-1.287, 3.284e-6
-1.288, 3.288e-6
-1.289, 3.301e-6
-1.290, 3.331e-6
-1.291, 3.334e-6
-1.292, 3.330e-6
-1.293, 3.382e-6
-1.294, 3.421e-6
-1.295, 3.406e-6
-1.296, 3.415e-6
-1.297, 3.440e-6
-1.298, 3.483e-6
-1.299, 3.499e-6
-1.300, 3.514e-6
-1.301, 3.559e-6
-1.302, 3.579e-6
-1.303, 3.586e-6
-1.304, 3.617e-6
-1.305, 3.615e-6
-1.306, 3.611e-6
-1.307, 3.683e-6
-1.308, 3.685e-6
-1.309, 3.728e-6
-1.310, 3.726e-6
-1.311, 3.743e-6
-1.312, 3.761e-6
-1.313, 3.782e-6
-1.314, 3.833e-6
-1.315, 3.852e-6
-1.316, 3.840e-6
-1.317, 3.902e-6
-1.318, 3.905e-6
-1.319, 3.928e-6
-1.320, 3.951e-6
-1.321, 3.994e-6
-1.322, 4.021e-6
-1.323, 4.038e-6
-1.324, 4.051e-6
-1.325, 4.078e-6
-1.326, 4.073e-6
-1.327, 4.116e-6
-1.328, 4.154e-6
-1.329, 4.170e-6
-1.330, 4.179e-6
-1.331, 4.230e-6
-1.332, 4.240e-6
-1.333, 4.275e-6
-1.334, 4.301e-6
-1.335, 4.321e-6
-1.336, 4.359e-6
-1.337, 4.350e-6
-1.338, 4.399e-6
-1.339, 4.433e-6
-1.340, 4.434e-6
-1.341, 4.468e-6
-1.342, 4.501e-6
-1.343, 4.522e-6
-1.344, 4.566e-6
-1.345, 4.588e-6
-1.346, 4.592e-6
-1.347, 4.632e-6
-1.348, 4.661e-6
-1.349, 4.693e-6
-1.350, 4.711e-6
-1.351, 4.722e-6
-1.352, 4.771e-6
-1.353, 4.783e-6
-1.354, 4.801e-6
-1.355, 4.873e-6
-1.356, 4.882e-6
-1.357, 4.916e-6
-1.358, 4.939e-6
-1.359, 4.972e-6
-1.360, 4.990e-6
-1.361, 5.015e-6
-1.362, 5.025e-6
-1.363, 5.072e-6
-1.364, 5.130e-6
-1.365, 5.143e-6
-1.366, 5.146e-6
-1.367, 5.151e-6
-1.368, 5.247e-6
-1.369, 5.254e-6
-1.370, 5.275e-6
-1.371, 5.333e-6
-1.372, 5.339e-6
-1.373, 5.393e-6
-1.374, 5.385e-6
-1.375, 5.415e-6
-1.376, 5.453e-6
-1.377, 5.505e-6
-1.378, 5.504e-6
-1.379, 5.572e-6
-1.380, 5.588e-6
-1.381, 5.609e-6
-1.382, 5.644e-6
-1.383, 5.663e-6
-1.384, 5.700e-6
-1.385, 5.741e-6
-1.386, 5.757e-6
-1.387, 5.792e-6
-1.388, 5.818e-6
-1.389, 5.830e-6
-1.390, 5.895e-6
-1.391, 5.916e-6
-1.392, 5.951e-6
-1.393, 5.991e-6
-1.394, 5.993e-6
-1.395, 6.031e-6
-1.396, 6.073e-6
-1.397, 6.097e-6
-1.398, 6.154e-6
-1.399, 6.204e-6
-1.400, 6.242e-6
-1.401, 6.247e-6
-1.402, 6.255e-6
-1.403, 6.275e-6
-1.404, 6.314e-6
-1.405, 6.354e-6
-1.406, 6.406e-6
-1.407, 6.426e-6
-1.408, 6.459e-6
-1.409, 6.512e-6
-1.410, 6.563e-6
-1.411, 6.580e-6
-1.412, 6.579e-6
-1.413, 6.627e-6
-1.414, 6.651e-6
-1.415, 6.697e-6
-1.416, 6.678e-6
-1.417, 6.771e-6
-1.418, 6.768e-6
-1.419, 6.813e-6
-1.420, 6.849e-6
-1.421, 6.909e-6
-1.422, 6.954e-6
-1.423, 6.976e-6
-1.424, 6.992e-6
-1.425, 7.044e-6
-1.426, 7.054e-6
-1.427, 7.120e-6
-1.428, 7.144e-6
-1.429, 7.193e-6
-1.430, 7.214e-6
-1.431, 7.253e-6
-1.432, 7.263e-6
-1.433, 7.292e-6
-1.434, 7.335e-6
-1.435, 7.394e-6
-1.436, 7.385e-6
-1.437, 7.409e-6
-1.438, 7.455e-6
-1.439, 7.464e-6
-1.440, 7.522e-6
-1.441, 7.560e-6
-1.442, 7.607e-6
-1.443, 7.634e-6
-1.444, 7.701e-6
-1.445, 7.684e-6
-1.446, 7.744e-6
-1.447, 7.797e-6
-1.448, 7.801e-6
-1.449, 7.900e-6
-1.450, 7.911e-6
-1.451, 7.953e-6
-1.452, 8.010e-6
-1.453, 8.010e-6
-1.454, 8.087e-6
-1.455, 8.102e-6
-1.456, 8.124e-6
-1.457, 8.191e-6
-1.458, 8.229e-6
-1.459, 8.262e-6
-1.460, 8.326e-6
-1.461, 8.331e-6
-1.462, 8.387e-6
-1.463, 8.410e-6
-1.464, 8.458e-6
-1.465, 8.512e-6
-1.466, 8.535e-6
-1.467, 8.615e-6
-1.468, 8.667e-6
-1.469, 8.684e-6
-1.470, 8.737e-6
-1.471, 8.781e-6
-1.472, 8.835e-6
-1.473, 8.899e-6
-1.474, 8.919e-6
-1.475, 8.983e-6
-1.476, 9.017e-6
-1.477, 9.050e-6
-1.478, 9.096e-6
-1.479, 9.150e-6
-1.480, 9.217e-6
-1.481, 9.268e-6
-1.482, 9.280e-6
-1.483, 9.349e-6
-1.484, 9.419e-6
-1.485, 9.463e-6
-1.486, 9.492e-6
-1.487, 9.607e-6
-1.488, 9.632e-6
-1.489, 9.673e-6
-1.490, 9.721e-6
-1.491, 9.765e-6
-1.492, 9.870e-6
-1.493, 9.865e-6
-1.494, 9.950e-6
-1.495, 9.997e-6
-1.496, 1.008e-5
-1.497, 1.013e-5
-1.498, 1.018e-5
-1.499, 1.025e-5
-1.500, 1.029e-5
-1.501, 1.035e-5
-1.502, 1.042e-5
-1.503, 1.046e-5
-1.504, 1.054e-5
-1.505, 1.063e-5
-1.506, 1.065e-5
-1.507, 1.069e-5
-1.508, 1.074e-5
-1.509, 1.080e-5
-1.510, 1.084e-5
-1.511, 1.094e-5
-1.512, 1.103e-5
-1.513, 1.110e-5
-1.514, 1.116e-5
-1.515, 1.121e-5
-1.516, 1.125e-5
-1.517, 1.134e-5
-1.518, 1.138e-5
-1.519, 1.147e-5
-1.520, 1.153e-5
-1.521, 1.162e-5
-1.522, 1.169e-5
-1.523, 1.175e-5
-1.524, 1.180e-5
-1.525, 1.185e-5
-1.526, 1.191e-5
-1.527, 1.199e-5
-1.528, 1.203e-5
-1.529, 1.215e-5
-1.530, 1.221e-5
-1.531, 1.224e-5
-1.532, 1.238e-5
-1.533, 1.243e-5
-1.534, 1.252e-5
-1.535, 1.255e-5
-1.536, 1.265e-5
-1.537, 1.279e-5
-1.538, 1.285e-5
-1.539, 1.294e-5
-1.540, 1.299e-5
-1.541, 1.306e-5
-1.542, 1.316e-5
-1.543, 1.325e-5
-1.544, 1.327e-5
-1.545, 1.336e-5
-1.546, 1.349e-5
-1.547, 1.353e-5
-1.548, 1.363e-5
-1.549, 1.374e-5
-1.550, 1.382e-5
-1.551, 1.388e-5
-1.552, 1.401e-5
-1.553, 1.409e-5
-1.554, 1.420e-5
-1.555, 1.429e-5
-1.556, 1.438e-5
-1.557, 1.452e-5
-1.558, 1.461e-5
-1.559, 1.477e-5
-1.560, 1.481e-5
-1.561, 1.491e-5
-1.562, 1.503e-5
-1.563, 1.510e-5
-1.564, 1.524e-5
-1.565, 1.531e-5
-1.566, 1.542e-5
-1.567, 1.554e-5
-1.568, 1.563e-5
-1.569, 1.569e-5
-1.570, 1.579e-5
-1.571, 1.592e-5
-1.572, 1.614e-5
-1.573, 1.621e-5
-1.574, 1.630e-5
-1.575, 1.643e-5
-1.576, 1.653e-5
-1.577, 1.664e-5
-1.578, 1.681e-5
-1.579, 1.691e-5
-1.580, 1.702e-5
-1.581, 1.714e-5
-1.582, 1.731e-5
-1.583, 1.742e-5
-1.584, 1.758e-5
-1.585, 1.770e-5
-1.586, 1.785e-5
-1.587, 1.802e-5
-1.588, 1.814e-5
-1.589, 1.835e-5
-1.590, 1.850e-5
-1.591, 1.864e-5
-1.592, 1.875e-5
-1.593, 1.883e-5
-1.594, 1.903e-5
-1.595, 1.916e-5
-1.596, 1.931e-5
-1.597, 1.949e-5
-1.598, 1.964e-5
-1.599, 1.982e-5
-1.600, 1.999e-5
-1.601, 2.011e-5
-1.602, 2.032e-5
-1.603, 2.051e-5
-1.604, 2.068e-5
-1.605, 2.087e-5
-1.606, 2.108e-5
-1.607, 2.128e-5
-1.608, 2.147e-5
-1.609, 2.167e-5
-1.610, 2.187e-5
-1.611, 2.204e-5
-1.612, 2.223e-5
-1.613, 2.246e-5
-1.614, 2.271e-5
-1.615, 2.289e-5
-1.616, 2.319e-5
-1.617, 2.338e-5
-1.618, 2.363e-5
-1.619, 2.384e-5
-1.620, 2.411e-5
-1.621, 2.434e-5
-1.622, 2.456e-5
-1.623, 2.485e-5
-1.624, 2.511e-5
-1.625, 2.538e-5
-1.626, 2.561e-5
-1.627, 2.595e-5
-1.628, 2.629e-5
-1.629, 2.661e-5
-1.630, 2.680e-5
-1.631, 2.714e-5
-1.632, 2.743e-5
-1.633, 2.773e-5
-1.634, 2.806e-5
-1.635, 2.838e-5
-1.636, 2.873e-5
-1.637, 2.906e-5
-1.638, 2.940e-5
-1.639, 2.974e-5
-1.640, 3.013e-5
-1.641, 3.048e-5
-1.642, 3.089e-5
-1.643, 3.127e-5
-1.644, 3.169e-5
-1.645, 3.214e-5
-1.646, 3.254e-5
-1.647, 3.295e-5
-1.648, 3.335e-5
-1.649, 3.378e-5
-1.650, 3.424e-5
-1.651, 3.469e-5
-1.652, 3.520e-5
-1.653, 3.568e-5
-1.654, 3.619e-5
-1.655, 3.674e-5
-1.656, 3.727e-5
-1.657, 3.776e-5
-1.658, 3.836e-5
-1.659, 3.891e-5
-1.660, 3.953e-5
-1.661, 4.003e-5
-1.662, 4.067e-5
-1.663, 4.127e-5
-1.664, 4.199e-5
-1.665, 4.269e-5
-1.666, 4.334e-5
-1.667, 4.400e-5
-1.668, 4.463e-5
-1.669, 4.535e-5
-1.670, 4.603e-5
-1.671, 4.683e-5
-1.672, 4.752e-5
-1.673, 4.826e-5
-1.674, 4.908e-5
-1.675, 4.979e-5
-1.676, 5.093e-5
-1.677, 5.167e-5
-1.678, 5.249e-5
-1.679, 5.337e-5
-1.680, 5.430e-5
-1.681, 5.529e-5
-1.682, 5.625e-5
-1.683, 5.735e-5
-1.684, 5.845e-5
-1.685, 5.938e-5
-1.686, 6.041e-5
-1.687, 6.156e-5
-1.688, 6.273e-5
-1.689, 6.394e-5
-1.690, 6.522e-5
-1.691, 6.633e-5
-1.692, 6.765e-5
-1.693, 6.894e-5
-1.694, 7.024e-5
-1.695, 7.163e-5
-1.696, 7.297e-5
-1.697, 7.443e-5
-1.698, 7.588e-5
-1.699, 7.734e-5
-1.700, 7.884e-5
-1.701, 8.048e-5
-1.702, 8.238e-5
-1.703, 8.426e-5
-1.704, 8.573e-5
-1.705, 8.760e-5
-1.706, 8.954e-5
-1.707, 9.123e-5
-1.708, 9.316e-5
-1.709, 9.508e-5
-1.710, 9.716e-5
-1.711, 9.906e-5
-1.712, 1.010e-4
-1.713, 1.032e-4
-1.714, 1.054e-4
-1.715, 1.076e-4
-1.716, 1.100e-4
-1.717, 1.123e-4
-1.718, 1.146e-4
-1.719, 1.171e-4
-1.720, 1.197e-4
-1.721, 1.225e-4
-1.722, 1.250e-4
-1.723, 1.280e-4
-1.724, 1.307e-4
-1.725, 1.339e-4
-1.726, 1.368e-4
-1.727, 1.400e-4
-1.728, 1.431e-4
-1.729, 1.464e-4
-1.730, 1.498e-4
-1.731, 1.533e-4
-1.732, 1.569e-4
-1.733, 1.607e-4
-1.734, 1.645e-4
-1.735, 1.684e-4
-1.736, 1.726e-4
-1.737, 1.768e-4
-1.738, 1.811e-4
-1.739, 1.854e-4
-1.740, 1.900e-4
-1.741, 1.948e-4
-1.742, 1.994e-4
-1.743, 2.044e-4
-1.744, 2.098e-4
-1.745, 2.145e-4
-1.746, 2.200e-4
-1.747, 2.255e-4
-1.748, 2.310e-4
-1.749, 2.366e-4
-1.750, 2.424e-4
-1.751, 2.485e-4
-1.752, 2.550e-4
-1.753, 2.614e-4
-1.754, 2.681e-4
-1.755, 2.744e-4
-1.756, 2.816e-4
-1.757, 2.892e-4
-1.758, 2.965e-4
-1.759, 3.036e-4
-1.760, 3.109e-4
-1.761, 3.189e-4
-1.762, 3.267e-4
-1.763, 3.348e-4
-1.764, 3.438e-4
-1.765, 3.525e-4
-1.766, 3.616e-4
-1.767, 3.711e-4
-1.768, 3.803e-4
-1.769, 3.903e-4
-1.770, 4.004e-4
-1.771, 4.115e-4
-1.772, 4.225e-4
-1.773, 4.335e-4
-1.774, 4.444e-4
-1.775, 4.563e-4
-1.776, 4.687e-4
-1.777, 4.811e-4
-1.778, 4.936e-4
-1.779, 5.066e-4
-1.780, 5.205e-4
-1.781, 5.341e-4
-1.782, 5.480e-4
-1.783, 5.627e-4
-1.784, 5.778e-4
-1.785, 5.932e-4
-1.786, 6.088e-4
-1.787, 6.248e-4
-1.788, 6.415e-4
-1.789, 6.586e-4
-1.790, 6.759e-4
-1.791, 6.934e-4
-1.792, 7.122e-4
-1.793, 7.313e-4
-1.794, 7.507e-4
-1.795, 7.701e-4
-1.796, 7.915e-4
-1.797, 8.130e-4
-1.798, 8.348e-4
-1.799, 8.558e-4
-1.800, 8.783e-4
-1.801, 9.012e-4
-1.802, 9.246e-4
-1.803, 9.487e-4
-1.804, 9.736e-4
-1.805, 9.992e-4
-1.806, 1.025e-3
-1.807, 1.052e-3
-1.808, 1.079e-3
-1.809, 1.107e-3
-1.810, 1.136e-3
-1.811, 1.165e-3
-1.812, 1.193e-3
-1.813, 1.223e-3
-1.814, 1.255e-3
-1.815, 1.287e-3
-1.816, 1.319e-3
-1.817, 1.353e-3
-1.818, 1.386e-3
-1.819, 1.420e-3
-1.820, 1.455e-3
-1.821, 1.490e-3
-1.822, 1.525e-3
-1.823, 1.562e-3
-1.824, 1.600e-3
-1.825, 1.638e-3
-1.826, 1.677e-3
-1.827, 1.716e-3
-1.828, 1.756e-3
-1.829, 1.796e-3
-1.830, 1.836e-3
-1.831, 1.878e-3
-1.832, 1.921e-3
-1.833, 1.963e-3
-1.834, 2.006e-3
-1.835, 2.050e-3
-1.836, 2.095e-3
-1.837, 2.140e-3
-1.838, 2.186e-3
-1.839, 2.233e-3
-1.840, 2.281e-3
-1.841, 2.328e-3
-1.842, 2.375e-3
-1.843, 2.424e-3
-1.844, 2.472e-3
-1.845, 2.522e-3
-1.846, 2.572e-3
-1.847, 2.618e-3
-1.848, 2.670e-3
-1.849, 2.723e-3
-1.850, 2.776e-3
-1.851, 2.830e-3
-1.852, 2.885e-3
-1.853, 2.939e-3
-1.854, 2.991e-3
-1.855, 3.044e-3
-1.856, 3.099e-3
-1.857, 3.151e-3
-1.858, 3.205e-3
-1.859, 3.263e-3
-1.860, 3.322e-3
-1.861, 3.380e-3
-1.862, 3.434e-3
-1.863, 3.493e-3
-1.864, 3.552e-3
-1.865, 3.609e-3
-1.866, 3.665e-3
-1.867, 3.725e-3
-1.868, 3.786e-3
-1.869, 3.848e-3
-1.870, 3.905e-3
-1.871, 3.964e-3
-1.872, 4.021e-3
-1.873, 4.081e-3
-1.874, 4.138e-3
-1.875, 4.198e-3
-1.876, 4.265e-3
-1.877, 4.333e-3
-1.878, 4.392e-3
-1.879, 4.461e-3
-1.880, 4.523e-3
-1.881, 4.593e-3
-1.882, 4.652e-3
-1.883, 4.708e-3
-1.884, 4.763e-3
-1.885, 4.824e-3
-1.886, 4.886e-3
-1.887, 4.951e-3
-1.888, 5.013e-3
-1.889, 5.075e-3
-1.890, 5.137e-3
-1.891, 5.200e-3
-1.892, 5.260e-3
-1.893, 5.323e-3
-1.894, 5.388e-3
-1.895, 5.460e-3
-1.896, 5.529e-3
-1.897, 5.591e-3
-1.898, 5.649e-3
-1.899, 5.712e-3
-1.900, 5.731e-3
-1.899, 5.701e-3
-1.898, 5.665e-3
-1.897, 5.635e-3
-1.896, 5.606e-3
-1.895, 5.567e-3
-1.894, 5.525e-3
-1.893, 5.483e-3
-1.892, 5.446e-3
-1.891, 5.409e-3
-1.890, 5.356e-3
-1.889, 5.312e-3
-1.888, 5.304e-3
-1.887, 5.267e-3
-1.886, 5.223e-3
-1.885, 5.176e-3
-1.884, 5.132e-3
-1.883, 5.093e-3
-1.882, 5.047e-3
-1.881, 5.000e-3
-1.880, 4.952e-3
-1.879, 4.915e-3
-1.878, 4.868e-3
-1.877, 4.826e-3
-1.876, 4.783e-3
-1.875, 4.738e-3
-1.874, 4.691e-3
-1.873, 4.646e-3
-1.872, 4.603e-3
-1.871, 4.565e-3
-1.870, 4.518e-3
-1.869, 4.476e-3
-1.868, 4.435e-3
-1.867, 4.395e-3
-1.866, 4.353e-3
-1.865, 4.319e-3
-1.864, 4.279e-3
-1.863, 4.231e-3
-1.862, 4.186e-3
-1.861, 4.147e-3
-1.860, 4.108e-3
-1.859, 4.064e-3
-1.858, 4.017e-3
-1.857, 3.977e-3
-1.856, 3.937e-3
-1.855, 3.898e-3
-1.854, 3.856e-3
-1.853, 3.828e-3
-1.852, 3.803e-3
-1.851, 3.759e-3
-1.850, 3.719e-3
-1.849, 3.682e-3
-1.848, 3.640e-3
-1.847, 3.600e-3
-1.846, 3.563e-3
-1.845, 3.524e-3
-1.844, 3.484e-3
-1.843, 3.440e-3
-1.842, 3.398e-3
-1.841, 3.363e-3
-1.840, 3.329e-3
-1.839, 3.297e-3
-1.838, 3.260e-3
-1.837, 3.221e-3
-1.836, 3.186e-3
-1.835, 3.149e-3
-1.834, 3.116e-3
-1.833, 3.078e-3
-1.832, 3.043e-3
-1.831, 3.007e-3
-1.830, 2.975e-3
-1.829, 2.939e-3
-1.828, 2.900e-3
-1.827, 2.862e-3
-1.826, 2.828e-3
-1.825, 2.796e-3
-1.824, 2.763e-3
-1.823, 2.726e-3
-1.822, 2.692e-3
-1.821, 2.659e-3
-1.820, 2.625e-3
-1.819, 2.595e-3
-1.818, 2.562e-3
-1.817, 2.528e-3
-1.816, 2.495e-3
-1.815, 2.464e-3
-1.814, 2.432e-3
-1.813, 2.402e-3
-1.812, 2.371e-3
-1.811, 2.339e-3
-1.810, 2.309e-3
-1.809, 2.276e-3
-1.808, 2.246e-3
-1.807, 2.220e-3
-1.806, 2.191e-3
-1.805, 2.166e-3
-1.804, 2.135e-3
-1.803, 2.104e-3
-1.802, 2.075e-3
-1.801, 2.047e-3
-1.800, 2.018e-3
-1.799, 1.990e-3
-1.798, 1.963e-3
-1.797, 1.936e-3
-1.796, 1.908e-3
-1.795, 1.882e-3
-1.794, 1.855e-3
-1.793, 1.831e-3
-1.792, 1.805e-3
-1.791, 1.779e-3
-1.790, 1.753e-3
-1.789, 1.729e-3
-1.788, 1.705e-3
-1.787, 1.679e-3
-1.786, 1.656e-3
-1.785, 1.631e-3
-1.784, 1.607e-3
-1.783, 1.584e-3
-1.782, 1.559e-3
-1.781, 1.536e-3
-1.780, 1.513e-3
-1.779, 1.492e-3
-1.778, 1.470e-3
-1.777, 1.447e-3
-1.776, 1.426e-3
-1.775, 1.405e-3
-1.774, 1.382e-3
-1.773, 1.361e-3
-1.772, 1.340e-3
-1.771, 1.320e-3
-1.770, 1.302e-3
-1.769, 1.282e-3
-1.768, 1.261e-3
-1.767, 1.241e-3
-1.766, 1.223e-3
-1.765, 1.203e-3
-1.764, 1.184e-3
-1.763, 1.166e-3
-1.762, 1.150e-3
-1.761, 1.134e-3
-1.760, 1.117e-3
-1.759, 1.099e-3
-1.758, 1.080e-3
-1.757, 1.062e-3
-1.756, 1.046e-3
-1.755, 1.029e-3
-1.754, 1.013e-3
-1.753, 9.965e-4
-1.752, 9.806e-4
-1.751, 9.639e-4
-1.750, 9.477e-4
-1.749, 9.320e-4
-1.748, 9.165e-4
-1.747, 9.015e-4
-1.746, 8.897e-4
-1.745, 8.756e-4
-1.744, 8.616e-4
-1.743, 8.464e-4
-1.742, 8.319e-4
-1.741, 8.180e-4
-1.740, 8.046e-4
-1.739, 7.914e-4
-1.738, 7.781e-4
-1.737, 7.652e-4
-1.736, 7.526e-4
-1.735, 7.398e-4
-1.734, 7.274e-4
-1.733, 7.153e-4
-1.732, 7.026e-4
-1.731, 6.909e-4
-1.730, 6.794e-4
-1.729, 6.675e-4
-1.728, 6.569e-4
-1.727, 6.452e-4
-1.726, 6.343e-4
-1.725, 6.237e-4
-1.724, 6.128e-4
-1.723, 6.026e-4
-1.722, 5.919e-4
-1.721, 5.821e-4
-1.720, 5.716e-4
-1.719, 5.634e-4
-1.718, 5.537e-4
-1.717, 5.448e-4
-1.716, 5.356e-4
-1.715, 5.262e-4
-1.714, 5.173e-4
-1.713, 5.086e-4
-1.712, 4.990e-4
-1.711, 4.903e-4
-1.710, 4.819e-4
-1.709, 4.732e-4
-1.708, 4.644e-4
-1.707, 4.565e-4
-1.706, 4.485e-4
-1.705, 4.408e-4
-1.704, 4.334e-4
-1.703, 4.256e-4
-1.702, 4.181e-4
-1.701, 4.108e-4
-1.700, 4.033e-4
-1.699, 3.963e-4
-1.698, 3.889e-4
-1.697, 3.819e-4
-1.696, 3.749e-4
-1.695, 3.685e-4
-1.694, 3.619e-4
-1.693, 3.554e-4
-1.692, 3.490e-4
-1.691, 3.428e-4
-1.690, 3.366e-4
-1.689, 3.306e-4
-1.688, 3.247e-4
-1.687, 3.189e-4
-1.686, 3.131e-4
-1.685, 3.076e-4
-1.684, 3.019e-4
-1.683, 2.966e-4
-1.682, 2.915e-4
-1.681, 2.860e-4
-1.680, 2.809e-4
-1.679, 2.758e-4
-1.678, 2.709e-4
-1.677, 2.660e-4
-1.676, 2.611e-4
-1.675, 2.563e-4
-1.674, 2.516e-4
-1.673, 2.470e-4
-1.672, 2.428e-4
-1.671, 2.384e-4
-1.670, 2.341e-4
-1.669, 2.297e-4
-1.668, 2.256e-4
-1.667, 2.216e-4
-1.666, 2.176e-4
-1.665, 2.136e-4
-1.664, 2.097e-4
-1.663, 2.058e-4
-1.662, 2.021e-4
-1.661, 1.984e-4
-1.660, 1.947e-4
-1.659, 1.911e-4
-1.658, 1.876e-4
-1.657, 1.842e-4
-1.656, 1.808e-4
-1.655, 1.775e-4
-1.654, 1.743e-4
-1.653, 1.714e-4
-1.652, 1.681e-4
-1.651, 1.648e-4
-1.650, 1.619e-4
-1.649, 1.591e-4
-1.648, 1.562e-4
-1.647, 1.533e-4
-1.646, 1.506e-4
-1.645, 1.479e-4
-1.644, 1.452e-4
-1.643, 1.426e-4
-1.642, 1.401e-4
-1.641, 1.376e-4
-1.640, 1.350e-4
-1.639, 1.326e-4
-1.638, 1.302e-4
-1.637, 1.278e-4
-1.636, 1.255e-4
-1.635, 1.232e-4
-1.634, 1.209e-4
-1.633, 1.188e-4
-1.632, 1.167e-4
-1.631, 1.145e-4
-1.630, 1.125e-4
-1.629, 1.105e-4
-1.628, 1.086e-4
-1.627, 1.066e-4
-1.626, 1.046e-4
-1.625, 1.027e-4
-1.624, 1.007e-4
-1.623, 9.895e-5
-1.622, 9.718e-5
-1.621, 9.545e-5
-1.620, 9.369e-5
-1.619, 9.199e-5
-1.618, 9.038e-5
-1.617, 8.864e-5
-1.616, 8.709e-5
-1.615, 8.551e-5
-1.614, 8.408e-5
-1.613, 8.252e-5
-1.612, 8.109e-5
-1.611, 7.958e-5
-1.610, 7.820e-5
-1.609, 7.677e-5
-1.608, 7.540e-5
-1.607, 7.408e-5
-1.606, 7.281e-5
-1.605, 7.164e-5
-1.604, 7.023e-5
-1.603, 6.906e-5
-1.602, 6.782e-5
-1.601, 6.663e-5
-1.600, 6.549e-5
-1.599, 6.430e-5
-1.598, 6.313e-5
-1.597, 6.197e-5
-1.596, 6.088e-5
-1.595, 5.981e-5
-1.594, 5.868e-5
-1.593, 5.775e-5
-1.592, 5.667e-5
-1.591, 5.572e-5
-1.590, 5.474e-5
-1.589, 5.377e-5
-1.588, 5.283e-5
-1.587, 5.182e-5
-1.586, 5.099e-5
-1.585, 5.012e-5
-1.584, 4.920e-5
-1.583, 4.841e-5
-1.582, 4.758e-5
-1.581, 4.670e-5
-1.580, 4.600e-5
-1.579, 4.516e-5
-1.578, 4.441e-5
-1.577, 4.358e-5
-1.576, 4.289e-5
-1.575, 4.205e-5
-1.574, 4.145e-5
-1.573, 4.064e-5
-1.572, 3.981e-5
-1.571, 3.918e-5
-1.570, 3.850e-5
-1.569, 3.786e-5
-1.568, 3.715e-5
-1.567, 3.659e-5
-1.566, 3.593e-5
-1.565, 3.534e-5
-1.564, 3.470e-5
-1.563, 3.410e-5
-1.562, 3.359e-5
-1.561, 3.300e-5
-1.560, 3.240e-5
-1.559, 3.182e-5
-1.558, 3.137e-5
-1.557, 3.079e-5
-1.556, 3.028e-5
-1.555, 2.968e-5
-1.554, 2.918e-5
-1.553, 2.875e-5
-1.552, 2.821e-5
-1.551, 2.779e-5
-1.550, 2.730e-5
-1.549, 2.685e-5
-1.548, 2.636e-5
-1.547, 2.597e-5
-1.546, 2.560e-5
-1.545, 2.514e-5
-1.544, 2.475e-5
-1.543, 2.435e-5
-1.542, 2.395e-5
-1.541, 2.356e-5
-1.540, 2.316e-5
-1.539, 2.271e-5
-1.538, 2.235e-5
-1.537, 2.199e-5
-1.536, 2.164e-5
-1.535, 2.126e-5
-1.534, 2.095e-5
-1.533, 2.059e-5
-1.532, 2.021e-5
-1.531, 1.987e-5
-1.530, 1.953e-5
-1.529, 1.923e-5
-1.528, 1.892e-5
-1.527, 1.858e-5
-1.526, 1.831e-5
-1.525, 1.798e-5
-1.524, 1.769e-5
-1.523, 1.738e-5
-1.522, 1.712e-5
-1.521, 1.685e-5
-1.520, 1.654e-5
-1.519, 1.630e-5
-1.518, 1.601e-5
-1.517, 1.576e-5
-1.516, 1.549e-5
-1.515, 1.529e-5
-1.514, 1.505e-5
-1.513, 1.475e-5
-1.512, 1.451e-5
-1.511, 1.427e-5
-1.510, 1.403e-5
-1.509, 1.379e-5
-1.508, 1.360e-5
-1.507, 1.334e-5
-1.506, 1.311e-5
-1.505, 1.291e-5
-1.504, 1.274e-5
-1.503, 1.251e-5
-1.502, 1.230e-5
-1.501, 1.210e-5
-1.500, 1.192e-5
-1.499, 1.176e-5
-1.498, 1.152e-5
-1.497, 1.137e-5
-1.496, 1.118e-5
-1.495, 1.098e-5
-1.494, 1.081e-5
-1.493, 1.062e-5
-1.492, 1.050e-5
-1.491, 1.031e-5
-1.490, 1.014e-5
-1.489, 9.995e-6
-1.488, 9.852e-6
-1.487, 9.698e-6
-1.486, 9.534e-6
-1.485, 9.385e-6
-1.484, 9.262e-6
-1.483, 9.098e-6
-1.482, 8.945e-6
-1.481, 8.826e-6
-1.480, 8.686e-6
-1.479, 8.522e-6
-1.478, 8.393e-6
-1.477, 8.264e-6
-1.476, 8.134e-6
-1.475, 8.008e-6
-1.474, 7.879e-6
-1.473, 7.748e-6
-1.472, 7.636e-6
-1.471, 7.531e-6
-1.470, 7.396e-6
-1.469, 7.279e-6
-1.468, 7.160e-6
-1.467, 7.065e-6
-1.466, 6.944e-6
-1.465, 6.832e-6
-1.464, 6.716e-6
-1.463, 6.671e-6
-1.462, 6.537e-6
-1.461, 6.436e-6
-1.460, 6.331e-6
-1.459, 6.268e-6
-1.458, 6.129e-6
-1.457, 6.045e-6
-1.456, 5.967e-6
-1.455, 5.868e-6
-1.454, 5.806e-6
-1.453, 5.712e-6
-1.452, 5.628e-6
-1.451, 5.563e-6
-1.450, 5.448e-6
-1.449, 5.366e-6
-1.448, 5.280e-6
-1.447, 5.212e-6
-1.446, 5.135e-6
-1.445, 5.078e-6
-1.444, 4.968e-6
-1.443, 4.894e-6
-1.442, 4.831e-6
-1.441, 4.745e-6
-1.440, 4.661e-6
-1.439, 4.602e-6
-1.438, 4.554e-6
-1.437, 4.472e-6
-1.436, 4.401e-6
-1.435, 4.343e-6
-1.434, 4.268e-6
-1.433, 4.208e-6
-1.432, 4.128e-6
-1.431, 4.090e-6
-1.430, 4.030e-6
-1.429, 3.969e-6
-1.428, 3.900e-6
-1.427, 3.865e-6
-1.426, 3.804e-6
-1.425, 3.758e-6
-1.424, 3.695e-6
-1.423, 3.636e-6
-1.422, 3.578e-6
-1.421, 3.550e-6
-1.420, 3.508e-6
-1.419, 3.444e-6
-1.418, 3.384e-6
-1.417, 3.339e-6
-1.416, 3.315e-6
-1.415, 3.243e-6
-1.414, 3.207e-6
-1.413, 3.167e-6
-1.412, 3.131e-6
-1.411, 3.092e-6
-1.410, 3.051e-6
-1.409, 2.992e-6
-1.408, 2.960e-6
-1.407, 2.891e-6
-1.406, 2.878e-6
-1.405, 2.822e-6
-1.404, 2.774e-6
-1.403, 2.745e-6
-1.402, 2.672e-6
-1.401, 2.675e-6
-1.400, 2.616e-6
-1.399, 2.613e-6
-1.398, 2.553e-6
-1.397, 2.532e-6
-1.396, 2.508e-6
-1.395, 2.448e-6
-1.394, 2.411e-6
-1.393, 2.396e-6
-1.392, 2.350e-6
-1.391, 2.326e-6
-1.390, 2.297e-6
-1.389, 2.258e-6
-1.388, 2.244e-6
-1.387, 2.193e-6
-1.386, 2.166e-6
-1.385, 2.134e-6
-1.384, 2.076e-6
-1.383, 2.076e-6
-1.382, 2.025e-6
-1.381, 2.028e-6
-1.380, 1.979e-6
-1.379, 1.957e-6
-1.378, 1.914e-6
-1.377, 1.900e-6
-1.376, 1.870e-6
-1.375, 1.823e-6
-1.374, 1.807e-6
-1.373, 1.788e-6
-1.372, 1.788e-6
-1.371, 1.758e-6
-1.370, 1.714e-6
-1.369, 1.683e-6
-1.368, 1.661e-6
-1.367, 1.639e-6
-1.366, 1.629e-6
-1.365, 1.614e-6
-1.364, 1.569e-6
-1.363, 1.527e-6
-1.362, 1.546e-6
-1.361, 1.503e-6
-1.360, 1.528e-6
-1.359, 1.443e-6
-1.358, 1.431e-6
-1.357, 1.404e-6
-1.356, 1.378e-6
-1.355, 1.358e-6
-1.354, 1.350e-6
-1.353, 1.323e-6
-1.352, 1.302e-6
-1.351, 1.297e-6
-1.350, 1.252e-6
-1.349, 1.246e-6
-1.348, 1.208e-6
-1.347, 1.203e-6
-1.346, 1.200e-6
-1.345, 1.167e-6
-1.344, 1.125e-6
-1.343, 1.123e-6
-1.342, 1.125e-6
-1.341, 1.092e-6
-1.340, 1.042e-6
-1.339, 1.062e-6
-1.338, 1.029e-6
-1.337, 1.011e-6
-1.336, 1.017e-6
-1.335, 9.775e-7
-1.334, 9.746e-7
-1.333, 9.450e-7
-1.332, 9.430e-7
-1.331, 9.302e-7
-1.330, 9.223e-7
-1.329, 8.700e-7
-1.328, 8.828e-7
-1.327, 8.552e-7
-1.326, 8.502e-7
-1.325, 8.325e-7
-1.324, 8.068e-7
-1.323, 8.256e-7
-1.322, 8.059e-7
-1.321, 7.693e-7
-1.320, 7.368e-7
-1.319, 7.397e-7
-1.318, 7.161e-7
-1.317, 7.180e-7
-1.316, 6.944e-7
-1.315, 6.865e-7
-1.314, 6.944e-7
-1.313, 6.667e-7
-1.312, 6.322e-7
-1.311, 6.145e-7
-1.310, 5.967e-7
-1.309, 6.273e-7
-1.308, 5.957e-7
-1.307, 5.997e-7
-1.306, 5.622e-7
-1.305, 5.345e-7
-1.304, 5.345e-7
-1.303, 5.553e-7
-1.302, 5.197e-7
-1.301, 5.217e-7
-1.300, 4.832e-7
-1.299, 4.911e-7
-1.298, 4.783e-7
-1.297, 4.773e-7
-1.296, 4.645e-7
-1.295, 4.428e-7
-1.294, 4.477e-7
-1.293, 4.250e-7
-1.292, 4.122e-7
-1.291, 3.885e-7
-1.290, 3.944e-7
-1.289, 3.865e-7
-1.288, 3.787e-7
-1.287, 3.461e-7
-1.286, 3.323e-7
-1.285, 3.333e-7
-1.284, 3.313e-7
-1.283, 3.343e-7
-1.282, 3.066e-7
-1.281, 2.899e-7
-1.280, 2.978e-7
-1.279, 2.514e-7
-1.278, 2.583e-7
-1.277, 2.632e-7
-1.276, 2.524e-7
-1.275, 2.425e-7
-1.274, 2.395e-7
-1.273, 2.188e-7
-1.272, 2.159e-7
-1.271, 2.169e-7
-1.270, 1.873e-7
-1.269, 2.099e-7
-1.268, 1.646e-7
-1.267, 1.537e-7
-1.266, 1.596e-7
-1.265, 1.429e-7
-1.264, 1.547e-7
-1.263, 1.261e-7
-1.262, 9.649e-8
-1.261, 1.172e-7
-1.260, 8.366e-8
-1.259, 9.945e-8
-1.258, 9.945e-8
-1.257, 7.478e-8
-1.256, 6.788e-8
-1.255, 5.407e-8
-1.254, 3.631e-8
-1.253, 3.828e-8
-1.252, 4.223e-8
-1.251, 3.433e-8
-1.250, 8.682e-9
-1.249, -2.585e-8
-1.248, -7.103e-9
-1.247, -3.275e-8
-1.246, -1.796e-8
-1.245, -3.473e-8
-1.244, -4.065e-8
-1.243, -5.643e-8
-1.242, -7.419e-8
-1.241, -7.025e-8
-1.240, -9.886e-8
-1.239, -8.110e-8
-1.238, -1.324e-7
-1.237, -1.107e-7
-1.236, -1.225e-7
-1.235, -1.354e-7
-1.234, -1.206e-7
-1.233, -1.590e-7
-1.232, -1.531e-7
-1.231, -1.492e-7
-1.230, -1.679e-7
-1.229, -1.975e-7
-1.228, -1.896e-7
-1.227, -2.113e-7
-1.226, -2.074e-7
-1.225, -2.528e-7
-1.224, -2.143e-7
-1.223, -2.261e-7
-1.222, -2.695e-7
-1.221, -2.508e-7
-1.220, -2.952e-7
-1.219, -2.843e-7
-1.218, -2.883e-7
-1.217, -3.169e-7
-1.216, -3.268e-7
-1.215, -3.248e-7
-1.214, -3.297e-7
-1.213, -3.583e-7
-1.212, -3.583e-7
-1.211, -3.633e-7
-1.210, -3.465e-7
-1.209, -3.988e-7
-1.208, -3.781e-7
-1.207, -4.037e-7
-1.206, -3.938e-7
-1.205, -4.136e-7
-1.204, -4.373e-7
-1.203, -4.461e-7
-1.202, -4.452e-7
-1.201, -4.807e-7
-1.200, -4.826e-7
-1.199, -4.738e-7
-1.198, -5.113e-7
-1.197, -5.142e-7
-1.196, -5.221e-7
-1.195, -5.527e-7
-1.194, -5.132e-7
-1.193, -5.704e-7
-1.192, -5.596e-7
-1.191, -5.754e-7
-1.190, -6.188e-7
-1.189, -6.040e-7
-1.188, -6.070e-7
-1.187, -5.882e-7
-1.186, -6.375e-7
-1.185, -6.632e-7
-1.184, -6.800e-7
-1.183, -6.494e-7
-1.182, -6.770e-7
-1.181, -6.879e-7
-1.180, -7.411e-7
-1.179, -7.421e-7
-1.178, -7.273e-7
-1.177, -7.717e-7
-1.176, -7.984e-7
-1.175, -7.845e-7
-1.174, -8.082e-7
-1.173, -8.003e-7
-1.172, -8.309e-7
-1.171, -8.289e-7
-1.170, -8.487e-7
-1.169, -8.388e-7
-1.168, -8.783e-7
-1.167, -8.881e-7
-1.166, -9.089e-7
-1.165, -9.138e-7
-1.164, -9.237e-7
-1.163, -9.671e-7
-1.162, -9.740e-7
-1.161, -9.799e-7
-1.160, -9.917e-7
-1.159, -1.038e-6
-1.158, -1.048e-6
-1.157, -1.056e-6
-1.156, -1.060e-6
-1.155, -1.111e-6
-1.154, -1.124e-6
-1.153, -1.122e-6
-1.152, -1.171e-6
-1.151, -1.156e-6
-1.150, -1.199e-6
-1.149, -1.226e-6
-1.148, -1.209e-6
-1.147, -1.274e-6
-1.146, -1.255e-6
-1.145, -1.292e-6
-1.144, -1.332e-6
-1.143, -1.316e-6
-1.142, -1.339e-6
-1.141, -1.352e-6
-1.140, -1.391e-6
-1.139, -1.428e-6
-1.138, -1.447e-6
-1.137, -1.461e-6
-1.136, -1.490e-6
-1.135, -1.502e-6
-1.134, -1.543e-6
-1.133, -1.550e-6
-1.132, -1.579e-6
-1.131, -1.599e-6
-1.130, -1.656e-6
-1.129, -1.636e-6
-1.128, -1.688e-6
-1.127, -1.727e-6
-1.126, -1.749e-6
-1.125, -1.802e-6
-1.124, -1.787e-6
-1.123, -1.839e-6
-1.122, -1.875e-6
-1.121, -1.892e-6
-1.120, -1.944e-6
-1.119, -1.972e-6
-1.118, -2.014e-6
-1.117, -2.029e-6
-1.116, -2.070e-6
-1.115, -2.112e-6
-1.114, -2.151e-6
-1.113, -2.183e-6
-1.112, -2.226e-6
-1.111, -2.242e-6
-1.110, -2.305e-6
-1.109, -2.332e-6
-1.108, -2.353e-6
-1.107, -2.424e-6
-1.106, -2.447e-6
-1.105, -2.502e-6
-1.104, -2.528e-6
-1.103, -2.551e-6
-1.102, -2.642e-6
-1.101, -2.650e-6
-1.100, -2.714e-6
-1.099, -2.758e-6
-1.098, -2.813e-6
-1.097, -2.847e-6
-1.096, -2.886e-6
-1.095, -2.924e-6
-1.094, -3.002e-6
-1.093, -3.041e-6
-1.092, -3.083e-6
-1.091, -3.137e-6
-1.090, -3.186e-6
-1.089, -3.243e-6
-1.088, -3.284e-6
-1.087, -3.329e-6
-1.086, -3.417e-6
-1.085, -3.454e-6
-1.084, -3.497e-6
-1.083, -3.536e-6
-1.082, -3.614e-6
-1.081, -3.665e-6
-1.080, -3.725e-6
-1.079, -3.734e-6
-1.078, -3.814e-6
-1.077, -3.880e-6
-1.076, -3.902e-6
-1.075, -3.991e-6
-1.074, -4.016e-6
-1.073, -4.039e-6
-1.072, -4.133e-6
-1.071, -4.164e-6
-1.070, -4.202e-6
-1.069, -4.266e-6
-1.068, -4.306e-6
-1.067, -4.322e-6
-1.066, -4.412e-6
-1.065, -4.430e-6
-1.064, -4.484e-6
-1.063, -4.535e-6
-1.062, -4.534e-6
-1.061, -4.579e-6
-1.060, -4.591e-6
-1.059, -4.663e-6
-1.058, -4.680e-6
-1.057, -4.712e-6
-1.056, -4.747e-6
-1.055, -4.762e-6
-1.054, -4.820e-6
-1.053, -4.820e-6
-1.052, -4.867e-6
-1.051, -4.899e-6
-1.050, -4.918e-6
-1.049, -4.950e-6
-1.048, -4.955e-6
-1.047, -4.980e-6
-1.046, -5.004e-6
-1.045, -5.025e-6
-1.044, -5.052e-6
-1.043, -5.096e-6
-1.042, -5.078e-6
-1.041, -5.095e-6
-1.040, -5.128e-6
-1.039, -5.130e-6
-1.038, -5.154e-6
-1.037, -5.187e-6
-1.036, -5.208e-6
-1.035, -5.226e-6
-1.034, -5.228e-6
-1.033, -5.274e-6
-1.032, -5.266e-6
-1.031, -5.301e-6
-1.030, -5.348e-6
-1.029, -5.351e-6
-1.028, -5.396e-6
-1.027, -5.388e-6
-1.026, -5.437e-6
-1.025, -5.411e-6
-1.024, -5.487e-6
-1.023, -5.494e-6
-1.022, -5.510e-6
-1.021, -5.573e-6
-1.020, -5.587e-6
-1.019, -5.625e-6
-1.018, -5.631e-6
-1.017, -5.651e-6
-1.016, -5.728e-6
-1.015, -5.723e-6
-1.014, -5.747e-6
-1.013, -5.771e-6
-1.012, -5.797e-6
-1.011, -5.842e-6
-1.010, -5.866e-6
-1.009, -5.883e-6
-1.008, -5.918e-6
-1.007, -5.974e-6
-1.006, -5.994e-6
-1.005, -6.033e-6
-1.004, -6.037e-6
-1.003, -6.072e-6
-1.002, -6.123e-6
-1.001, -6.137e-6
