Sept. 14, 2024   04:05:05
Cyclic Voltammetry
File: c:/users/guazh/data/20240903_batch_252_500/2024-09-03-exp348\exp348-2024-09-14t03_35_38-h2koh\exp348_cv_sr_900mvs_efin_-1900mv.bin
Data Source:  Experiment
Instrument Model:  CHI760E
Header: CV ran at 900 mVs
Note: 

Init E (V) = -1
High E (V) = -1
Low E (V) = -1.9
Final E (V) = -1
Init P/N = N
Scan Rate (V/s) = 0.9
Segment = 3
Sample Interval (V) = 0.001
Quiet Time (sec) = 2
Sensitivity (A/V) = 0.01
Comp R (ohm) = 2.9

Results:

Channel 1:
Segment 1:

Segment 2:

Segment 3:

Potential/V, Current/A

-1.000, 3.239e-6
-1.001, 3.239e-6
-1.002, 3.239e-6
-1.003, 3.239e-6
-1.004, 3.239e-6
-1.005, 3.239e-6
-1.006, 6.322e-6
-1.007, 3.239e-6
-1.008, 6.322e-6
-1.009, 3.239e-6
-1.010, 3.239e-6
-1.011, 3.239e-6
-1.012, 6.322e-6
-1.013, 3.239e-6
-1.014, 3.239e-6
-1.015, 6.322e-6
-1.016, 3.239e-6
-1.017, 3.239e-6
-1.018, 3.239e-6
-1.019, 3.239e-6
-1.020, 6.322e-6
-1.021, 6.322e-6
-1.022, 6.322e-6
-1.023, 6.322e-6
-1.024, 3.239e-6
-1.025, 6.322e-6
-1.026, 3.239e-6
-1.027, 3.239e-6
-1.028, 3.239e-6
-1.029, 6.322e-6
-1.030, 6.322e-6
-1.031, 6.322e-6
-1.032, 6.322e-6
-1.033, 6.322e-6
-1.034, 3.239e-6
-1.035, 6.322e-6
-1.036, 6.322e-6
-1.037, 6.322e-6
-1.038, 6.322e-6
-1.039, 6.322e-6
-1.040, 6.322e-6
-1.041, 6.322e-6
-1.042, 6.322e-6
-1.043, 6.322e-6
-1.044, 6.322e-6
-1.045, 6.322e-6
-1.046, 6.322e-6
-1.047, 6.322e-6
-1.048, 6.322e-6
-1.049, 6.322e-6
-1.050, 6.322e-6
-1.051, 6.322e-6
-1.052, 6.322e-6
-1.053, 6.322e-6
-1.054, 6.322e-6
-1.055, 6.322e-6
-1.056, 6.322e-6
-1.057, 6.322e-6
-1.058, 6.322e-6
-1.059, 6.322e-6
-1.060, 6.322e-6
-1.061, 6.322e-6
-1.062, 6.322e-6
-1.063, 6.322e-6
-1.064, 6.322e-6
-1.065, 6.322e-6
-1.066, 6.322e-6
-1.067, 6.322e-6
-1.068, 6.322e-6
-1.069, 6.322e-6
-1.070, 6.322e-6
-1.071, 6.322e-6
-1.072, 6.322e-6
-1.073, 6.322e-6
-1.074, 9.405e-6
-1.075, 6.322e-6
-1.076, 6.322e-6
-1.077, 6.322e-6
-1.078, 6.322e-6
-1.079, 6.322e-6
-1.080, 9.405e-6
-1.081, 6.322e-6
-1.082, 6.322e-6
-1.083, 6.322e-6
-1.084, 6.322e-6
-1.085, 9.405e-6
-1.086, 6.322e-6
-1.087, 6.322e-6
-1.088, 9.405e-6
-1.089, 9.405e-6
-1.090, 6.322e-6
-1.091, 6.322e-6
-1.092, 9.405e-6
-1.093, 9.405e-6
-1.094, 9.405e-6
-1.095, 6.322e-6
-1.096, 6.322e-6
-1.097, 9.405e-6
-1.098, 9.405e-6
-1.099, 6.322e-6
-1.100, 9.405e-6
-1.101, 6.322e-6
-1.102, 9.405e-6
-1.103, 9.405e-6
-1.104, 9.405e-6
-1.105, 9.405e-6
-1.106, 9.405e-6
-1.107, 9.405e-6
-1.108, 9.405e-6
-1.109, 6.322e-6
-1.110, 9.405e-6
-1.111, 9.405e-6
-1.112, 9.405e-6
-1.113, 9.405e-6
-1.114, 9.405e-6
-1.115, 9.405e-6
-1.116, 9.405e-6
-1.117, 9.405e-6
-1.118, 9.405e-6
-1.119, 9.405e-6
-1.120, 9.405e-6
-1.121, 9.405e-6
-1.122, 9.405e-6
-1.123, 6.322e-6
-1.124, 9.405e-6
-1.125, 9.405e-6
-1.126, 9.405e-6
-1.127, 9.405e-6
-1.128, 9.405e-6
-1.129, 9.405e-6
-1.130, 9.405e-6
-1.131, 9.405e-6
-1.132, 9.405e-6
-1.133, 9.405e-6
-1.134, 9.405e-6
-1.135, 9.405e-6
-1.136, 9.405e-6
-1.137, 9.405e-6
-1.138, 9.405e-6
-1.139, 9.405e-6
-1.140, 9.405e-6
-1.141, 9.405e-6
-1.142, 9.405e-6
-1.143, 9.405e-6
-1.144, 9.405e-6
-1.145, 9.405e-6
-1.146, 9.405e-6
-1.147, 9.405e-6
-1.148, 9.405e-6
-1.149, 9.405e-6
-1.150, 9.405e-6
-1.151, 9.405e-6
-1.152, 9.405e-6
-1.153, 9.405e-6
-1.154, 9.405e-6
-1.155, 9.405e-6
-1.156, 9.405e-6
-1.157, 9.405e-6
-1.158, 9.405e-6
-1.159, 1.249e-5
-1.160, 9.405e-6
-1.161, 9.405e-6
-1.162, 9.405e-6
-1.163, 9.405e-6
-1.164, 9.405e-6
-1.165, 9.405e-6
-1.166, 9.405e-6
-1.167, 9.405e-6
-1.168, 1.249e-5
-1.169, 9.405e-6
-1.170, 9.405e-6
-1.171, 1.249e-5
-1.172, 1.249e-5
-1.173, 9.405e-6
-1.174, 9.405e-6
-1.175, 9.405e-6
-1.176, 9.405e-6
-1.177, 9.405e-6
-1.178, 9.405e-6
-1.179, 9.405e-6
-1.180, 1.249e-5
-1.181, 1.249e-5
-1.182, 1.249e-5
-1.183, 9.405e-6
-1.184, 9.405e-6
-1.185, 1.249e-5
-1.186, 9.405e-6
-1.187, 1.249e-5
-1.188, 1.249e-5
-1.189, 1.249e-5
-1.190, 9.405e-6
-1.191, 1.249e-5
-1.192, 1.249e-5
-1.193, 1.249e-5
-1.194, 1.249e-5
-1.195, 1.249e-5
-1.196, 1.249e-5
-1.197, 9.405e-6
-1.198, 1.249e-5
-1.199, 1.249e-5
-1.200, 1.249e-5
-1.201, 1.249e-5
-1.202, 1.249e-5
-1.203, 9.405e-6
-1.204, 1.249e-5
-1.205, 1.249e-5
-1.206, 9.405e-6
-1.207, 1.249e-5
-1.208, 1.249e-5
-1.209, 1.249e-5
-1.210, 1.249e-5
-1.211, 1.249e-5
-1.212, 1.249e-5
-1.213, 1.249e-5
-1.214, 1.249e-5
-1.215, 1.249e-5
-1.216, 1.249e-5
-1.217, 1.249e-5
-1.218, 1.249e-5
-1.219, 1.249e-5
-1.220, 1.249e-5
-1.221, 1.249e-5
-1.222, 1.249e-5
-1.223, 1.249e-5
-1.224, 1.249e-5
-1.225, 1.249e-5
-1.226, 1.249e-5
-1.227, 1.249e-5
-1.228, 1.249e-5
-1.229, 1.249e-5
-1.230, 1.249e-5
-1.231, 1.249e-5
-1.232, 1.249e-5
-1.233, 1.249e-5
-1.234, 1.249e-5
-1.235, 1.249e-5
-1.236, 1.249e-5
-1.237, 1.249e-5
-1.238, 1.249e-5
-1.239, 1.249e-5
-1.240, 1.249e-5
-1.241, 1.249e-5
-1.242, 1.249e-5
-1.243, 1.249e-5
-1.244, 1.249e-5
-1.245, 1.249e-5
-1.246, 1.249e-5
-1.247, 1.557e-5
-1.248, 1.249e-5
-1.249, 1.557e-5
-1.250, 1.249e-5
-1.251, 1.249e-5
-1.252, 1.557e-5
-1.253, 1.249e-5
-1.254, 1.557e-5
-1.255, 1.557e-5
-1.256, 1.557e-5
-1.257, 1.557e-5
-1.258, 1.557e-5
-1.259, 1.557e-5
-1.260, 1.249e-5
-1.261, 1.557e-5
-1.262, 1.557e-5
-1.263, 1.557e-5
-1.264, 1.249e-5
-1.265, 1.249e-5
-1.266, 1.557e-5
-1.267, 1.249e-5
-1.268, 1.557e-5
-1.269, 1.557e-5
-1.270, 1.557e-5
-1.271, 1.557e-5
-1.272, 1.557e-5
-1.273, 1.557e-5
-1.274, 1.557e-5
-1.275, 1.557e-5
-1.276, 1.557e-5
-1.277, 1.557e-5
-1.278, 1.557e-5
-1.279, 1.557e-5
-1.280, 1.557e-5
-1.281, 1.557e-5
-1.282, 1.557e-5
-1.283, 1.557e-5
-1.284, 1.557e-5
-1.285, 1.557e-5
-1.286, 1.557e-5
-1.287, 1.557e-5
-1.288, 1.557e-5
-1.289, 1.557e-5
-1.290, 1.557e-5
-1.291, 1.557e-5
-1.292, 1.557e-5
-1.293, 1.557e-5
-1.294, 1.557e-5
-1.295, 1.557e-5
-1.296, 1.557e-5
-1.297, 1.557e-5
-1.298, 1.865e-5
-1.299, 1.557e-5
-1.300, 1.865e-5
-1.301, 1.557e-5
-1.302, 1.557e-5
-1.303, 1.557e-5
-1.304, 1.865e-5
-1.305, 1.557e-5
-1.306, 1.557e-5
-1.307, 1.557e-5
-1.308, 1.865e-5
-1.309, 1.557e-5
-1.310, 1.557e-5
-1.311, 1.557e-5
-1.312, 1.865e-5
-1.313, 1.865e-5
-1.314, 1.557e-5
-1.315, 1.865e-5
-1.316, 1.557e-5
-1.317, 1.865e-5
-1.318, 1.557e-5
-1.319, 1.865e-5
-1.320, 1.865e-5
-1.321, 1.865e-5
-1.322, 1.865e-5
-1.323, 1.865e-5
-1.324, 1.865e-5
-1.325, 1.557e-5
-1.326, 1.865e-5
-1.327, 1.865e-5
-1.328, 1.865e-5
-1.329, 1.557e-5
-1.330, 1.865e-5
-1.331, 1.865e-5
-1.332, 1.865e-5
-1.333, 1.865e-5
-1.334, 1.865e-5
-1.335, 1.865e-5
-1.336, 1.865e-5
-1.337, 1.865e-5
-1.338, 1.865e-5
-1.339, 1.865e-5
-1.340, 1.865e-5
-1.341, 1.865e-5
-1.342, 1.865e-5
-1.343, 1.865e-5
-1.344, 1.865e-5
-1.345, 1.865e-5
-1.346, 1.865e-5
-1.347, 1.865e-5
-1.348, 1.865e-5
-1.349, 1.865e-5
-1.350, 1.865e-5
-1.351, 1.865e-5
-1.352, 1.865e-5
-1.353, 1.865e-5
-1.354, 1.865e-5
-1.355, 1.865e-5
-1.356, 1.865e-5
-1.357, 1.865e-5
-1.358, 2.174e-5
-1.359, 1.865e-5
-1.360, 2.174e-5
-1.361, 2.174e-5
-1.362, 1.865e-5
-1.363, 2.174e-5
-1.364, 2.174e-5
-1.365, 1.865e-5
-1.366, 2.174e-5
-1.367, 1.865e-5
-1.368, 2.174e-5
-1.369, 1.865e-5
-1.370, 2.174e-5
-1.371, 2.174e-5
-1.372, 2.174e-5
-1.373, 2.174e-5
-1.374, 2.174e-5
-1.375, 2.174e-5
-1.376, 2.174e-5
-1.377, 2.174e-5
-1.378, 2.174e-5
-1.379, 2.174e-5
-1.380, 2.174e-5
-1.381, 2.174e-5
-1.382, 2.174e-5
-1.383, 2.174e-5
-1.384, 2.174e-5
-1.385, 2.174e-5
-1.386, 2.174e-5
-1.387, 2.174e-5
-1.388, 2.174e-5
-1.389, 2.174e-5
-1.390, 2.174e-5
-1.391, 2.174e-5
-1.392, 2.174e-5
-1.393, 2.174e-5
-1.394, 2.174e-5
-1.395, 2.174e-5
-1.396, 2.174e-5
-1.397, 2.174e-5
-1.398, 2.482e-5
-1.399, 2.174e-5
-1.400, 2.482e-5
-1.401, 2.174e-5
-1.402, 2.482e-5
-1.403, 2.174e-5
-1.404, 2.482e-5
-1.405, 2.482e-5
-1.406, 2.482e-5
-1.407, 2.482e-5
-1.408, 2.482e-5
-1.409, 2.482e-5
-1.410, 2.174e-5
-1.411, 2.482e-5
-1.412, 2.482e-5
-1.413, 2.482e-5
-1.414, 2.482e-5
-1.415, 2.482e-5
-1.416, 2.482e-5
-1.417, 2.482e-5
-1.418, 2.482e-5
-1.419, 2.482e-5
-1.420, 2.482e-5
-1.421, 2.482e-5
-1.422, 2.482e-5
-1.423, 2.790e-5
-1.424, 2.482e-5
-1.425, 2.482e-5
-1.426, 2.482e-5
-1.427, 2.482e-5
-1.428, 2.482e-5
-1.429, 2.482e-5
-1.430, 2.482e-5
-1.431, 2.482e-5
-1.432, 2.482e-5
-1.433, 2.482e-5
-1.434, 2.482e-5
-1.435, 2.790e-5
-1.436, 2.482e-5
-1.437, 2.482e-5
-1.438, 2.790e-5
-1.439, 2.790e-5
-1.440, 2.482e-5
-1.441, 2.482e-5
-1.442, 2.790e-5
-1.443, 2.790e-5
-1.444, 2.790e-5
-1.445, 2.790e-5
-1.446, 2.790e-5
-1.447, 2.790e-5
-1.448, 2.790e-5
-1.449, 2.790e-5
-1.450, 2.790e-5
-1.451, 2.790e-5
-1.452, 2.790e-5
-1.453, 2.790e-5
-1.454, 2.790e-5
-1.455, 2.790e-5
-1.456, 2.790e-5
-1.457, 2.790e-5
-1.458, 3.099e-5
-1.459, 2.790e-5
-1.460, 3.099e-5
-1.461, 2.790e-5
-1.462, 2.790e-5
-1.463, 2.790e-5
-1.464, 2.790e-5
-1.465, 3.099e-5
-1.466, 3.099e-5
-1.467, 3.099e-5
-1.468, 2.790e-5
-1.469, 2.790e-5
-1.470, 3.099e-5
-1.471, 3.099e-5
-1.472, 3.099e-5
-1.473, 3.099e-5
-1.474, 3.099e-5
-1.475, 3.099e-5
-1.476, 3.099e-5
-1.477, 3.099e-5
-1.478, 3.099e-5
-1.479, 3.099e-5
-1.480, 3.099e-5
-1.481, 3.099e-5
-1.482, 3.099e-5
-1.483, 3.099e-5
-1.484, 3.099e-5
-1.485, 3.099e-5
-1.486, 3.099e-5
-1.487, 3.099e-5
-1.488, 3.407e-5
-1.489, 3.099e-5
-1.490, 3.099e-5
-1.491, 3.099e-5
-1.492, 3.099e-5
-1.493, 3.099e-5
-1.494, 3.099e-5
-1.495, 3.407e-5
-1.496, 3.407e-5
-1.497, 3.407e-5
-1.498, 3.407e-5
-1.499, 3.407e-5
-1.500, 3.407e-5
-1.501, 3.407e-5
-1.502, 3.407e-5
-1.503, 3.407e-5
-1.504, 3.407e-5
-1.505, 3.407e-5
-1.506, 3.407e-5
-1.507, 3.407e-5
-1.508, 3.407e-5
-1.509, 3.407e-5
-1.510, 3.407e-5
-1.511, 3.407e-5
-1.512, 3.715e-5
-1.513, 3.407e-5
-1.514, 3.407e-5
-1.515, 3.407e-5
-1.516, 3.407e-5
-1.517, 3.407e-5
-1.518, 3.715e-5
-1.519, 3.715e-5
-1.520, 3.407e-5
-1.521, 3.715e-5
-1.522, 3.407e-5
-1.523, 3.715e-5
-1.524, 3.715e-5
-1.525, 3.715e-5
-1.526, 3.715e-5
-1.527, 3.715e-5
-1.528, 3.715e-5
-1.529, 3.715e-5
-1.530, 3.715e-5
-1.531, 3.715e-5
-1.532, 3.715e-5
-1.533, 3.715e-5
-1.534, 3.715e-5
-1.535, 3.715e-5
-1.536, 3.715e-5
-1.537, 3.715e-5
-1.538, 3.715e-5
-1.539, 4.024e-5
-1.540, 3.715e-5
-1.541, 4.024e-5
-1.542, 4.024e-5
-1.543, 4.024e-5
-1.544, 4.024e-5
-1.545, 4.024e-5
-1.546, 4.024e-5
-1.547, 4.024e-5
-1.548, 4.024e-5
-1.549, 4.024e-5
-1.550, 4.024e-5
-1.551, 4.024e-5
-1.552, 4.024e-5
-1.553, 4.024e-5
-1.554, 4.024e-5
-1.555, 4.024e-5
-1.556, 4.024e-5
-1.557, 4.024e-5
-1.558, 4.024e-5
-1.559, 4.332e-5
-1.560, 4.332e-5
-1.561, 4.024e-5
-1.562, 4.332e-5
-1.563, 4.332e-5
-1.564, 4.332e-5
-1.565, 4.332e-5
-1.566, 4.332e-5
-1.567, 4.332e-5
-1.568, 4.332e-5
-1.569, 4.332e-5
-1.570, 4.332e-5
-1.571, 4.332e-5
-1.572, 4.332e-5
-1.573, 4.332e-5
-1.574, 4.640e-5
-1.575, 4.332e-5
-1.576, 4.640e-5
-1.577, 4.640e-5
-1.578, 4.640e-5
-1.579, 4.640e-5
-1.580, 4.640e-5
-1.581, 4.640e-5
-1.582, 4.640e-5
-1.583, 4.640e-5
-1.584, 4.640e-5
-1.585, 4.949e-5
-1.586, 4.949e-5
-1.587, 4.640e-5
-1.588, 4.949e-5
-1.589, 4.949e-5
-1.590, 4.640e-5
-1.591, 4.949e-5
-1.592, 4.949e-5
-1.593, 4.949e-5
-1.594, 4.949e-5
-1.595, 4.949e-5
-1.596, 4.949e-5
-1.597, 4.949e-5
-1.598, 4.949e-5
-1.599, 4.949e-5
-1.600, 4.949e-5
-1.601, 5.257e-5
-1.602, 5.257e-5
-1.603, 4.949e-5
-1.604, 5.257e-5
-1.605, 5.257e-5
-1.606, 5.257e-5
-1.607, 5.257e-5
-1.608, 5.257e-5
-1.609, 5.257e-5
-1.610, 5.257e-5
-1.611, 5.565e-5
-1.612, 5.565e-5
-1.613, 5.565e-5
-1.614, 5.565e-5
-1.615, 5.565e-5
-1.616, 5.565e-5
-1.617, 5.565e-5
-1.618, 5.565e-5
-1.619, 5.873e-5
-1.620, 5.565e-5
-1.621, 5.565e-5
-1.622, 5.565e-5
-1.623, 5.873e-5
-1.624, 5.873e-5
-1.625, 5.873e-5
-1.626, 5.873e-5
-1.627, 5.873e-5
-1.628, 5.873e-5
-1.629, 5.873e-5
-1.630, 6.182e-5
-1.631, 6.182e-5
-1.632, 6.182e-5
-1.633, 6.182e-5
-1.634, 6.182e-5
-1.635, 6.182e-5
-1.636, 6.182e-5
-1.637, 6.182e-5
-1.638, 6.490e-5
-1.639, 6.490e-5
-1.640, 6.490e-5
-1.641, 6.490e-5
-1.642, 6.490e-5
-1.643, 6.490e-5
-1.644, 6.798e-5
-1.645, 6.798e-5
-1.646, 6.798e-5
-1.647, 6.798e-5
-1.648, 6.798e-5
-1.649, 6.798e-5
-1.650, 6.798e-5
-1.651, 7.107e-5
-1.652, 7.107e-5
-1.653, 7.107e-5
-1.654, 7.107e-5
-1.655, 7.415e-5
-1.656, 7.107e-5
-1.657, 7.415e-5
-1.658, 7.415e-5
-1.659, 7.415e-5
-1.660, 7.723e-5
-1.661, 7.723e-5
-1.662, 7.723e-5
-1.663, 7.723e-5
-1.664, 8.032e-5
-1.665, 8.032e-5
-1.666, 8.032e-5
-1.667, 8.032e-5
-1.668, 8.340e-5
-1.669, 8.340e-5
-1.670, 8.340e-5
-1.671, 8.340e-5
-1.672, 8.340e-5
-1.673, 8.648e-5
-1.674, 8.648e-5
-1.675, 8.648e-5
-1.676, 8.957e-5
-1.677, 8.957e-5
-1.678, 9.265e-5
-1.679, 9.265e-5
-1.680, 9.265e-5
-1.681, 9.265e-5
-1.682, 9.573e-5
-1.683, 9.573e-5
-1.684, 9.573e-5
-1.685, 9.882e-5
-1.686, 9.882e-5
-1.687, 9.882e-5
-1.688, 1.019e-4
-1.689, 1.019e-4
-1.690, 1.050e-4
-1.691, 1.050e-4
-1.692, 1.081e-4
-1.693, 1.081e-4
-1.694, 1.081e-4
-1.695, 1.111e-4
-1.696, 1.111e-4
-1.697, 1.142e-4
-1.698, 1.142e-4
-1.699, 1.173e-4
-1.700, 1.173e-4
-1.701, 1.204e-4
-1.702, 1.204e-4
-1.703, 1.204e-4
-1.704, 1.235e-4
-1.705, 1.266e-4
-1.706, 1.296e-4
-1.707, 1.296e-4
-1.708, 1.296e-4
-1.709, 1.327e-4
-1.710, 1.358e-4
-1.711, 1.389e-4
-1.712, 1.389e-4
-1.713, 1.420e-4
-1.714, 1.451e-4
-1.715, 1.451e-4
-1.716, 1.481e-4
-1.717, 1.512e-4
-1.718, 1.543e-4
-1.719, 1.543e-4
-1.720, 1.605e-4
-1.721, 1.605e-4
-1.722, 1.636e-4
-1.723, 1.666e-4
-1.724, 1.697e-4
-1.725, 1.697e-4
-1.726, 1.728e-4
-1.727, 1.790e-4
-1.728, 1.790e-4
-1.729, 1.821e-4
-1.730, 1.851e-4
-1.731, 1.882e-4
-1.732, 1.913e-4
-1.733, 1.944e-4
-1.734, 2.006e-4
-1.735, 2.036e-4
-1.736, 2.067e-4
-1.737, 2.098e-4
-1.738, 2.129e-4
-1.739, 2.160e-4
-1.740, 2.221e-4
-1.741, 2.252e-4
-1.742, 2.283e-4
-1.743, 2.345e-4
-1.744, 2.376e-4
-1.745, 2.437e-4
-1.746, 2.468e-4
-1.747, 2.499e-4
-1.748, 2.561e-4
-1.749, 2.622e-4
-1.750, 2.684e-4
-1.751, 2.715e-4
-1.752, 2.776e-4
-1.753, 2.838e-4
-1.754, 2.869e-4
-1.755, 2.931e-4
-1.756, 2.992e-4
-1.757, 3.054e-4
-1.758, 3.115e-4
-1.759, 3.177e-4
-1.760, 3.239e-4
-1.761, 3.300e-4
-1.762, 3.393e-4
-1.763, 3.455e-4
-1.764, 3.516e-4
-1.765, 3.578e-4
-1.766, 3.670e-4
-1.767, 3.732e-4
-1.768, 3.825e-4
-1.769, 3.886e-4
-1.770, 3.979e-4
-1.771, 4.071e-4
-1.772, 4.133e-4
-1.773, 4.225e-4
-1.774, 4.318e-4
-1.775, 4.410e-4
-1.776, 4.503e-4
-1.777, 4.595e-4
-1.778, 4.719e-4
-1.779, 4.811e-4
-1.780, 4.904e-4
-1.781, 5.027e-4
-1.782, 5.120e-4
-1.783, 5.212e-4
-1.784, 5.335e-4
-1.785, 5.459e-4
-1.786, 5.551e-4
-1.787, 5.674e-4
-1.788, 5.798e-4
-1.789, 5.921e-4
-1.790, 6.075e-4
-1.791, 6.199e-4
-1.792, 6.322e-4
-1.793, 6.476e-4
-1.794, 6.599e-4
-1.795, 6.754e-4
-1.796, 6.908e-4
-1.797, 7.031e-4
-1.798, 7.216e-4
-1.799, 7.370e-4
-1.800, 7.524e-4
-1.801, 7.709e-4
-1.802, 7.863e-4
-1.803, 8.048e-4
-1.804, 8.203e-4
-1.805, 8.388e-4
-1.806, 8.573e-4
-1.807, 8.758e-4
-1.808, 8.973e-4
-1.809, 9.158e-4
-1.810, 9.343e-4
-1.811, 9.559e-4
-1.812, 9.744e-4
-1.813, 9.991e-4
-1.814, 1.021e-3
-1.815, 1.042e-3
-1.816, 1.064e-3
-1.817, 1.085e-3
-1.818, 1.110e-3
-1.819, 1.135e-3
-1.820, 1.156e-3
-1.821, 1.181e-3
-1.822, 1.209e-3
-1.823, 1.230e-3
-1.824, 1.258e-3
-1.825, 1.286e-3
-1.826, 1.310e-3
-1.827, 1.338e-3
-1.828, 1.366e-3
-1.829, 1.397e-3
-1.830, 1.425e-3
-1.831, 1.455e-3
-1.832, 1.483e-3
-1.833, 1.514e-3
-1.834, 1.545e-3
-1.835, 1.576e-3
-1.836, 1.610e-3
-1.837, 1.643e-3
-1.838, 1.674e-3
-1.839, 1.705e-3
-1.840, 1.742e-3
-1.841, 1.776e-3
-1.842, 1.810e-3
-1.843, 1.847e-3
-1.844, 1.881e-3
-1.845, 1.918e-3
-1.846, 1.955e-3
-1.847, 1.992e-3
-1.848, 2.029e-3
-1.849, 2.066e-3
-1.850, 2.106e-3
-1.851, 2.146e-3
-1.852, 2.186e-3
-1.853, 2.226e-3
-1.854, 2.266e-3
-1.855, 2.309e-3
-1.856, 2.349e-3
-1.857, 2.393e-3
-1.858, 2.436e-3
-1.859, 2.482e-3
-1.860, 2.522e-3
-1.861, 2.568e-3
-1.862, 2.615e-3
-1.863, 2.661e-3
-1.864, 2.707e-3
-1.865, 2.750e-3
-1.866, 2.797e-3
-1.867, 2.843e-3
-1.868, 2.892e-3
-1.869, 2.935e-3
-1.870, 2.985e-3
-1.871, 3.034e-3
-1.872, 3.083e-3
-1.873, 3.133e-3
-1.874, 3.182e-3
-1.875, 3.234e-3
-1.876, 3.287e-3
-1.877, 3.336e-3
-1.878, 3.388e-3
-1.879, 3.441e-3
-1.880, 3.493e-3
-1.881, 3.546e-3
-1.882, 3.598e-3
-1.883, 3.651e-3
-1.884, 3.703e-3
-1.885, 3.758e-3
-1.886, 3.814e-3
-1.887, 3.866e-3
-1.888, 3.925e-3
-1.889, 3.980e-3
-1.890, 4.036e-3
-1.891, 4.095e-3
-1.892, 4.153e-3
-1.893, 4.209e-3
-1.894, 4.264e-3
-1.895, 4.320e-3
-1.896, 4.375e-3
-1.897, 4.431e-3
-1.898, 4.489e-3
-1.899, 4.545e-3
-1.900, 4.575e-3
-1.899, 4.554e-3
-1.898, 4.532e-3
-1.897, 4.508e-3
-1.896, 4.483e-3
-1.895, 4.458e-3
-1.894, 4.428e-3
-1.893, 4.400e-3
-1.892, 4.369e-3
-1.891, 4.341e-3
-1.890, 4.310e-3
-1.889, 4.280e-3
-1.888, 4.243e-3
-1.887, 4.209e-3
-1.886, 4.178e-3
-1.885, 4.147e-3
-1.884, 4.113e-3
-1.883, 4.076e-3
-1.882, 4.042e-3
-1.881, 4.005e-3
-1.880, 3.974e-3
-1.879, 3.937e-3
-1.878, 3.903e-3
-1.877, 3.869e-3
-1.876, 3.836e-3
-1.875, 3.799e-3
-1.874, 3.768e-3
-1.873, 3.734e-3
-1.872, 3.700e-3
-1.871, 3.663e-3
-1.870, 3.629e-3
-1.869, 3.592e-3
-1.868, 3.558e-3
-1.867, 3.524e-3
-1.866, 3.487e-3
-1.865, 3.453e-3
-1.864, 3.419e-3
-1.863, 3.385e-3
-1.862, 3.351e-3
-1.861, 3.318e-3
-1.860, 3.281e-3
-1.859, 3.244e-3
-1.858, 3.210e-3
-1.857, 3.176e-3
-1.856, 3.139e-3
-1.855, 3.108e-3
-1.854, 3.071e-3
-1.853, 3.040e-3
-1.852, 3.009e-3
-1.851, 2.975e-3
-1.850, 2.945e-3
-1.849, 2.908e-3
-1.848, 2.877e-3
-1.847, 2.843e-3
-1.846, 2.812e-3
-1.845, 2.781e-3
-1.844, 2.747e-3
-1.843, 2.716e-3
-1.842, 2.682e-3
-1.841, 2.652e-3
-1.840, 2.621e-3
-1.839, 2.590e-3
-1.838, 2.559e-3
-1.837, 2.528e-3
-1.836, 2.494e-3
-1.835, 2.467e-3
-1.834, 2.436e-3
-1.833, 2.405e-3
-1.832, 2.377e-3
-1.831, 2.346e-3
-1.830, 2.319e-3
-1.829, 2.288e-3
-1.828, 2.260e-3
-1.827, 2.232e-3
-1.826, 2.201e-3
-1.825, 2.174e-3
-1.824, 2.146e-3
-1.823, 2.115e-3
-1.822, 2.091e-3
-1.821, 2.060e-3
-1.820, 2.035e-3
-1.819, 2.007e-3
-1.818, 1.980e-3
-1.817, 1.955e-3
-1.816, 1.927e-3
-1.815, 1.902e-3
-1.814, 1.875e-3
-1.813, 1.853e-3
-1.812, 1.825e-3
-1.811, 1.801e-3
-1.810, 1.776e-3
-1.809, 1.751e-3
-1.808, 1.727e-3
-1.807, 1.702e-3
-1.806, 1.677e-3
-1.805, 1.656e-3
-1.804, 1.631e-3
-1.803, 1.606e-3
-1.802, 1.582e-3
-1.801, 1.557e-3
-1.800, 1.536e-3
-1.799, 1.514e-3
-1.798, 1.492e-3
-1.797, 1.471e-3
-1.796, 1.446e-3
-1.795, 1.428e-3
-1.794, 1.406e-3
-1.793, 1.388e-3
-1.792, 1.366e-3
-1.791, 1.344e-3
-1.790, 1.323e-3
-1.789, 1.304e-3
-1.788, 1.283e-3
-1.787, 1.264e-3
-1.786, 1.243e-3
-1.785, 1.224e-3
-1.784, 1.206e-3
-1.783, 1.190e-3
-1.782, 1.169e-3
-1.781, 1.153e-3
-1.780, 1.135e-3
-1.779, 1.116e-3
-1.778, 1.098e-3
-1.777, 1.079e-3
-1.776, 1.064e-3
-1.775, 1.045e-3
-1.774, 1.030e-3
-1.773, 1.014e-3
-1.772, 9.960e-4
-1.771, 9.837e-4
-1.770, 9.652e-4
-1.769, 9.498e-4
-1.768, 9.343e-4
-1.767, 9.189e-4
-1.766, 9.035e-4
-1.765, 8.881e-4
-1.764, 8.727e-4
-1.763, 8.603e-4
-1.762, 8.449e-4
-1.761, 8.295e-4
-1.760, 8.172e-4
-1.759, 8.018e-4
-1.758, 7.894e-4
-1.757, 7.771e-4
-1.756, 7.617e-4
-1.755, 7.524e-4
-1.754, 7.370e-4
-1.753, 7.247e-4
-1.752, 7.124e-4
-1.751, 7.000e-4
-1.750, 6.908e-4
-1.749, 6.754e-4
-1.748, 6.661e-4
-1.747, 6.538e-4
-1.746, 6.445e-4
-1.745, 6.322e-4
-1.744, 6.199e-4
-1.743, 6.106e-4
-1.742, 5.983e-4
-1.741, 5.890e-4
-1.740, 5.767e-4
-1.739, 5.674e-4
-1.738, 5.551e-4
-1.737, 5.489e-4
-1.736, 5.397e-4
-1.735, 5.274e-4
-1.734, 5.181e-4
-1.733, 5.089e-4
-1.732, 5.027e-4
-1.731, 4.904e-4
-1.730, 4.842e-4
-1.729, 4.750e-4
-1.728, 4.657e-4
-1.727, 4.595e-4
-1.726, 4.503e-4
-1.725, 4.410e-4
-1.724, 4.318e-4
-1.723, 4.256e-4
-1.722, 4.195e-4
-1.721, 4.102e-4
-1.720, 4.040e-4
-1.719, 3.948e-4
-1.718, 3.886e-4
-1.717, 3.825e-4
-1.716, 3.763e-4
-1.715, 3.701e-4
-1.714, 3.609e-4
-1.713, 3.547e-4
-1.712, 3.485e-4
-1.711, 3.424e-4
-1.710, 3.362e-4
-1.709, 3.300e-4
-1.708, 3.239e-4
-1.707, 3.177e-4
-1.706, 3.115e-4
-1.705, 3.054e-4
-1.704, 3.023e-4
-1.703, 2.961e-4
-1.702, 2.900e-4
-1.701, 2.838e-4
-1.700, 2.807e-4
-1.699, 2.746e-4
-1.698, 2.684e-4
-1.697, 2.653e-4
-1.696, 2.591e-4
-1.695, 2.561e-4
-1.694, 2.499e-4
-1.693, 2.437e-4
-1.692, 2.406e-4
-1.691, 2.376e-4
-1.690, 2.345e-4
-1.689, 2.283e-4
-1.688, 2.252e-4
-1.687, 2.191e-4
-1.686, 2.160e-4
-1.685, 2.129e-4
-1.684, 2.067e-4
-1.683, 2.036e-4
-1.682, 2.006e-4
-1.681, 1.975e-4
-1.680, 1.944e-4
-1.679, 1.913e-4
-1.678, 1.882e-4
-1.677, 1.821e-4
-1.676, 1.790e-4
-1.675, 1.759e-4
-1.674, 1.728e-4
-1.673, 1.697e-4
-1.672, 1.666e-4
-1.671, 1.636e-4
-1.670, 1.605e-4
-1.669, 1.574e-4
-1.668, 1.543e-4
-1.667, 1.512e-4
-1.666, 1.481e-4
-1.665, 1.481e-4
-1.664, 1.451e-4
-1.663, 1.389e-4
-1.662, 1.389e-4
-1.661, 1.358e-4
-1.660, 1.327e-4
-1.659, 1.327e-4
-1.658, 1.296e-4
-1.657, 1.266e-4
-1.656, 1.235e-4
-1.655, 1.204e-4
-1.654, 1.204e-4
-1.653, 1.204e-4
-1.652, 1.173e-4
-1.651, 1.142e-4
-1.650, 1.111e-4
-1.649, 1.081e-4
-1.648, 1.081e-4
-1.647, 1.050e-4
-1.646, 1.050e-4
-1.645, 1.019e-4
-1.644, 9.882e-5
-1.643, 9.882e-5
-1.642, 9.573e-5
-1.641, 9.573e-5
-1.640, 9.265e-5
-1.639, 9.265e-5
-1.638, 8.957e-5
-1.637, 8.957e-5
-1.636, 8.648e-5
-1.635, 8.340e-5
-1.634, 8.340e-5
-1.633, 8.032e-5
-1.632, 8.032e-5
-1.631, 7.723e-5
-1.630, 7.723e-5
-1.629, 7.415e-5
-1.628, 7.415e-5
-1.627, 7.415e-5
-1.626, 7.107e-5
-1.625, 7.107e-5
-1.624, 6.798e-5
-1.623, 6.798e-5
-1.622, 6.798e-5
-1.621, 6.490e-5
-1.620, 6.490e-5
-1.619, 6.182e-5
-1.618, 6.182e-5
-1.617, 6.182e-5
-1.616, 6.182e-5
-1.615, 5.873e-5
-1.614, 5.873e-5
-1.613, 5.873e-5
-1.612, 5.565e-5
-1.611, 5.565e-5
-1.610, 5.565e-5
-1.609, 5.257e-5
-1.608, 5.257e-5
-1.607, 4.949e-5
-1.606, 4.949e-5
-1.605, 4.949e-5
-1.604, 4.949e-5
-1.603, 4.949e-5
-1.602, 4.640e-5
-1.601, 4.640e-5
-1.600, 4.640e-5
-1.599, 4.332e-5
-1.598, 4.332e-5
-1.597, 4.332e-5
-1.596, 4.332e-5
-1.595, 4.332e-5
-1.594, 4.024e-5
-1.593, 4.024e-5
-1.592, 4.024e-5
-1.591, 4.024e-5
-1.590, 4.024e-5
-1.589, 3.715e-5
-1.588, 3.715e-5
-1.587, 3.407e-5
-1.586, 3.407e-5
-1.585, 3.407e-5
-1.584, 3.407e-5
-1.583, 3.407e-5
-1.582, 3.099e-5
-1.581, 3.407e-5
-1.580, 3.099e-5
-1.579, 3.099e-5
-1.578, 3.099e-5
-1.577, 3.099e-5
-1.576, 3.099e-5
-1.575, 2.790e-5
-1.574, 2.790e-5
-1.573, 2.790e-5
-1.572, 2.790e-5
-1.571, 2.790e-5
-1.570, 2.790e-5
-1.569, 2.482e-5
-1.568, 2.482e-5
-1.567, 2.790e-5
-1.566, 2.482e-5
-1.565, 2.482e-5
-1.564, 2.482e-5
-1.563, 2.174e-5
-1.562, 2.482e-5
-1.561, 2.174e-5
-1.560, 2.174e-5
-1.559, 2.174e-5
-1.558, 2.174e-5
-1.557, 2.174e-5
-1.556, 2.174e-5
-1.555, 2.174e-5
-1.554, 1.865e-5
-1.553, 1.865e-5
-1.552, 1.865e-5
-1.551, 1.865e-5
-1.550, 1.865e-5
-1.549, 1.865e-5
-1.548, 1.865e-5
-1.547, 1.865e-5
-1.546, 1.557e-5
-1.545, 1.865e-5
-1.544, 1.865e-5
-1.543, 1.557e-5
-1.542, 1.557e-5
-1.541, 1.557e-5
-1.540, 1.557e-5
-1.539, 1.557e-5
-1.538, 1.249e-5
-1.537, 1.557e-5
-1.536, 1.557e-5
-1.535, 1.249e-5
-1.534, 1.557e-5
-1.533, 1.249e-5
-1.532, 1.249e-5
-1.531, 1.249e-5
-1.530, 1.249e-5
-1.529, 1.249e-5
-1.528, 1.249e-5
-1.527, 1.249e-5
-1.526, 1.249e-5
-1.525, 1.249e-5
-1.524, 1.249e-5
-1.523, 1.249e-5
-1.522, 9.405e-6
-1.521, 9.405e-6
-1.520, 9.405e-6
-1.519, 9.405e-6
-1.518, 9.405e-6
-1.517, 9.405e-6
-1.516, 9.405e-6
-1.515, 9.405e-6
-1.514, 9.405e-6
-1.513, 9.405e-6
-1.512, 9.405e-6
-1.511, 9.405e-6
-1.510, 9.405e-6
-1.509, 9.405e-6
-1.508, 9.405e-6
-1.507, 9.405e-6
-1.506, 6.322e-6
-1.505, 6.322e-6
-1.504, 6.322e-6
-1.503, 6.322e-6
-1.502, 6.322e-6
-1.501, 6.322e-6
-1.500, 6.322e-6
-1.499, 6.322e-6
-1.498, 6.322e-6
-1.497, 6.322e-6
-1.496, 6.322e-6
-1.495, 6.322e-6
-1.494, 6.322e-6
-1.493, 6.322e-6
-1.492, 6.322e-6
-1.491, 6.322e-6
-1.490, 6.322e-6
-1.489, 6.322e-6
-1.488, 6.322e-6
-1.487, 6.322e-6
-1.486, 3.239e-6
-1.485, 3.239e-6
-1.484, 6.322e-6
-1.483, 3.239e-6
-1.482, 3.239e-6
-1.481, 6.322e-6
-1.480, 6.322e-6
-1.479, 3.239e-6
-1.478, 3.239e-6
-1.477, 3.239e-6
-1.476, 3.239e-6
-1.475, 3.239e-6
-1.474, 3.239e-6
-1.473, 3.239e-6
-1.472, 3.239e-6
-1.471, 3.239e-6
-1.470, 3.239e-6
-1.469, 3.239e-6
-1.468, 3.239e-6
-1.467, 3.239e-6
-1.466, 3.239e-6
-1.465, 3.239e-6
-1.464, 3.239e-6
-1.463, 3.239e-6
-1.462, 3.239e-6
-1.461, 3.239e-6
-1.460, 3.239e-6
-1.459, 3.239e-6
-1.458, 3.239e-6
-1.457, 3.239e-6
-1.456, 3.239e-6
-1.455, 3.239e-6
-1.454, 3.239e-6
-1.453, 3.239e-6
-1.452, 1.559e-7
-1.451, 1.559e-7
-1.450, 3.239e-6
-1.449, 3.239e-6
-1.448, 1.559e-7
-1.447, 1.559e-7
-1.446, 3.239e-6
-1.445, 1.559e-7
-1.444, 3.239e-6
-1.443, 3.239e-6
-1.442, 1.559e-7
-1.441, 1.559e-7
-1.440, 1.559e-7
-1.439, 3.239e-6
-1.438, 1.559e-7
-1.437, 1.559e-7
-1.436, 1.559e-7
-1.435, 1.559e-7
-1.434, 1.559e-7
-1.433, 1.559e-7
-1.432, 1.559e-7
-1.431, 1.559e-7
-1.430, 1.559e-7
-1.429, 1.559e-7
-1.428, 1.559e-7
-1.427, 1.559e-7
-1.426, 1.559e-7
-1.425, 1.559e-7
-1.424, 1.559e-7
-1.423, 1.559e-7
-1.422, 1.559e-7
-1.421, 1.559e-7
-1.420, 1.559e-7
-1.419, 1.559e-7
-1.418, 1.559e-7
-1.417, 1.559e-7
-1.416, 1.559e-7
-1.415, 1.559e-7
-1.414, 1.559e-7
-1.413, 1.559e-7
-1.412, 1.559e-7
-1.411, 1.559e-7
-1.410, 1.559e-7
-1.409, 1.559e-7
-1.408, 1.559e-7
-1.407, 1.559e-7
-1.406, 1.559e-7
-1.405, 1.559e-7
-1.404, 1.559e-7
-1.403, 1.559e-7
-1.402, 1.559e-7
-1.401, 1.559e-7
-1.400, 1.559e-7
-1.399, 1.559e-7
-1.398, 1.559e-7
-1.397, 1.559e-7
-1.396, 1.559e-7
-1.395, 1.559e-7
-1.394, 1.559e-7
-1.393, -2.927e-6
-1.392, 1.559e-7
-1.391, 1.559e-7
-1.390, 1.559e-7
-1.389, 1.559e-7
-1.388, 1.559e-7
-1.387, -2.927e-6
-1.386, 1.559e-7
-1.385, -2.927e-6
-1.384, -2.927e-6
-1.383, 1.559e-7
-1.382, -2.927e-6
-1.381, 1.559e-7
-1.380, 1.559e-7
-1.379, -2.927e-6
-1.378, 1.559e-7
-1.377, -2.927e-6
-1.376, 1.559e-7
-1.375, -2.927e-6
-1.374, 1.559e-7
-1.373, -2.927e-6
-1.372, -2.927e-6
-1.371, -2.927e-6
-1.370, -2.927e-6
-1.369, -2.927e-6
-1.368, -2.927e-6
-1.367, 1.559e-7
-1.366, -2.927e-6
-1.365, -2.927e-6
-1.364, -2.927e-6
-1.363, -2.927e-6
-1.362, -2.927e-6
-1.361, -2.927e-6
-1.360, -2.927e-6
-1.359, -2.927e-6
-1.358, -2.927e-6
-1.357, -2.927e-6
-1.356, -2.927e-6
-1.355, -2.927e-6
-1.354, -2.927e-6
-1.353, -2.927e-6
-1.352, -2.927e-6
-1.351, -2.927e-6
-1.350, -2.927e-6
-1.349, -2.927e-6
-1.348, -2.927e-6
-1.347, -2.927e-6
-1.346, -2.927e-6
-1.345, -2.927e-6
-1.344, -2.927e-6
-1.343, -2.927e-6
-1.342, -2.927e-6
-1.341, -2.927e-6
-1.340, -2.927e-6
-1.339, -2.927e-6
-1.338, -2.927e-6
-1.337, -2.927e-6
-1.336, -2.927e-6
-1.335, -2.927e-6
-1.334, -2.927e-6
-1.333, -2.927e-6
-1.332, -2.927e-6
-1.331, -2.927e-6
-1.330, -2.927e-6
-1.329, -2.927e-6
-1.328, -2.927e-6
-1.327, -2.927e-6
-1.326, -2.927e-6
-1.325, -2.927e-6
-1.324, -2.927e-6
-1.323, -2.927e-6
-1.322, -2.927e-6
-1.321, -2.927e-6
-1.320, -2.927e-6
-1.319, -2.927e-6
-1.318, -2.927e-6
-1.317, -2.927e-6
-1.316, -2.927e-6
-1.315, -2.927e-6
-1.314, -2.927e-6
-1.313, -2.927e-6
-1.312, -2.927e-6
-1.311, -2.927e-6
-1.310, -2.927e-6
-1.309, -2.927e-6
-1.308, -2.927e-6
-1.307, -2.927e-6
-1.306, -2.927e-6
-1.305, -6.010e-6
-1.304, -2.927e-6
-1.303, -2.927e-6
-1.302, -2.927e-6
-1.301, -2.927e-6
-1.300, -2.927e-6
-1.299, -2.927e-6
-1.298, -2.927e-6
-1.297, -2.927e-6
-1.296, -2.927e-6
-1.295, -2.927e-6
-1.294, -2.927e-6
-1.293, -2.927e-6
-1.292, -2.927e-6
-1.291, -2.927e-6
-1.290, -2.927e-6
-1.289, -2.927e-6
-1.288, -2.927e-6
-1.287, -2.927e-6
-1.286, -2.927e-6
-1.285, -2.927e-6
-1.284, -2.927e-6
-1.283, -2.927e-6
-1.282, -2.927e-6
-1.281, -2.927e-6
-1.280, -2.927e-6
-1.279, -2.927e-6
-1.278, -2.927e-6
-1.277, -2.927e-6
-1.276, -2.927e-6
-1.275, -6.010e-6
-1.274, -2.927e-6
-1.273, -2.927e-6
-1.272, -2.927e-6
-1.271, -2.927e-6
-1.270, -2.927e-6
-1.269, -2.927e-6
-1.268, -6.010e-6
-1.267, -2.927e-6
-1.266, -2.927e-6
-1.265, -2.927e-6
-1.264, -2.927e-6
-1.263, -2.927e-6
-1.262, -2.927e-6
-1.261, -2.927e-6
-1.260, -2.927e-6
-1.259, -2.927e-6
-1.258, -2.927e-6
-1.257, -2.927e-6
-1.256, -2.927e-6
-1.255, -2.927e-6
-1.254, -2.927e-6
-1.253, -2.927e-6
-1.252, -2.927e-6
-1.251, -2.927e-6
-1.250, -2.927e-6
-1.249, -2.927e-6
-1.248, -6.010e-6
-1.247, -2.927e-6
-1.246, -2.927e-6
-1.245, -6.010e-6
-1.244, -2.927e-6
-1.243, -2.927e-6
-1.242, -2.927e-6
-1.241, -2.927e-6
-1.240, -2.927e-6
-1.239, -2.927e-6
-1.238, -2.927e-6
-1.237, -2.927e-6
-1.236, -2.927e-6
-1.235, -6.010e-6
-1.234, -6.010e-6
-1.233, -2.927e-6
-1.232, -2.927e-6
-1.231, -2.927e-6
-1.230, -6.010e-6
-1.229, -6.010e-6
-1.228, -2.927e-6
-1.227, -6.010e-6
-1.226, -6.010e-6
-1.225, -2.927e-6
-1.224, -6.010e-6
-1.223, -2.927e-6
-1.222, -6.010e-6
-1.221, -2.927e-6
-1.220, -6.010e-6
-1.219, -6.010e-6
-1.218, -2.927e-6
-1.217, -6.010e-6
-1.216, -6.010e-6
-1.215, -6.010e-6
-1.214, -6.010e-6
-1.213, -6.010e-6
-1.212, -6.010e-6
-1.211, -6.010e-6
-1.210, -6.010e-6
-1.209, -2.927e-6
-1.208, -6.010e-6
-1.207, -2.927e-6
-1.206, -6.010e-6
-1.205, -6.010e-6
-1.204, -6.010e-6
-1.203, -6.010e-6
-1.202, -6.010e-6
-1.201, -6.010e-6
-1.200, -2.927e-6
-1.199, -6.010e-6
-1.198, -6.010e-6
-1.197, -6.010e-6
-1.196, -6.010e-6
-1.195, -6.010e-6
-1.194, -6.010e-6
-1.193, -6.010e-6
-1.192, -6.010e-6
-1.191, -6.010e-6
-1.190, -6.010e-6
-1.189, -6.010e-6
-1.188, -6.010e-6
-1.187, -6.010e-6
-1.186, -2.927e-6
-1.185, -6.010e-6
-1.184, -6.010e-6
-1.183, -6.010e-6
-1.182, -6.010e-6
-1.181, -6.010e-6
-1.180, -6.010e-6
-1.179, -6.010e-6
-1.178, -6.010e-6
-1.177, -6.010e-6
-1.176, -6.010e-6
-1.175, -6.010e-6
-1.174, -6.010e-6
-1.173, -6.010e-6
-1.172, -2.927e-6
-1.171, -6.010e-6
-1.170, -6.010e-6
-1.169, -6.010e-6
-1.168, -6.010e-6
-1.167, -6.010e-6
-1.166, -6.010e-6
-1.165, -6.010e-6
-1.164, -6.010e-6
-1.163, -6.010e-6
-1.162, -6.010e-6
-1.161, -6.010e-6
-1.160, -6.010e-6
-1.159, -6.010e-6
-1.158, -6.010e-6
-1.157, -6.010e-6
-1.156, -6.010e-6
-1.155, -6.010e-6
-1.154, -6.010e-6
-1.153, -6.010e-6
-1.152, -6.010e-6
-1.151, -6.010e-6
-1.150, -6.010e-6
-1.149, -6.010e-6
-1.148, -6.010e-6
-1.147, -9.093e-6
-1.146, -6.010e-6
-1.145, -6.010e-6
-1.144, -6.010e-6
-1.143, -6.010e-6
-1.142, -6.010e-6
-1.141, -6.010e-6
-1.140, -6.010e-6
-1.139, -6.010e-6
-1.138, -6.010e-6
-1.137, -6.010e-6
-1.136, -6.010e-6
-1.135, -6.010e-6
-1.134, -6.010e-6
-1.133, -6.010e-6
-1.132, -6.010e-6
-1.131, -9.093e-6
-1.130, -6.010e-6
-1.129, -9.093e-6
-1.128, -6.010e-6
-1.127, -6.010e-6
-1.126, -6.010e-6
-1.125, -6.010e-6
-1.124, -6.010e-6
-1.123, -6.010e-6
-1.122, -9.093e-6
-1.121, -6.010e-6
-1.120, -6.010e-6
-1.119, -6.010e-6
-1.118, -9.093e-6
-1.117, -6.010e-6
-1.116, -6.010e-6
-1.115, -6.010e-6
-1.114, -6.010e-6
-1.113, -6.010e-6
-1.112, -6.010e-6
-1.111, -6.010e-6
-1.110, -9.093e-6
-1.109, -6.010e-6
-1.108, -9.093e-6
-1.107, -6.010e-6
-1.106, -9.093e-6
-1.105, -6.010e-6
-1.104, -6.010e-6
-1.103, -9.093e-6
-1.102, -9.093e-6
-1.101, -9.093e-6
-1.100, -9.093e-6
-1.099, -9.093e-6
-1.098, -9.093e-6
-1.097, -9.093e-6
-1.096, -9.093e-6
-1.095, -9.093e-6
-1.094, -9.093e-6
-1.093, -9.093e-6
-1.092, -9.093e-6
-1.091, -9.093e-6
-1.090, -9.093e-6
-1.089, -9.093e-6
-1.088, -9.093e-6
-1.087, -9.093e-6
-1.086, -9.093e-6
-1.085, -9.093e-6
-1.084, -9.093e-6
-1.083, -9.093e-6
-1.082, -9.093e-6
-1.081, -9.093e-6
-1.080, -9.093e-6
-1.079, -9.093e-6
-1.078, -9.093e-6
-1.077, -9.093e-6
-1.076, -9.093e-6
-1.075, -9.093e-6
-1.074, -9.093e-6
-1.073, -9.093e-6
-1.072, -9.093e-6
-1.071, -9.093e-6
-1.070, -9.093e-6
-1.069, -9.093e-6
-1.068, -9.093e-6
-1.067, -9.093e-6
-1.066, -9.093e-6
-1.065, -9.093e-6
-1.064, -9.093e-6
-1.063, -9.093e-6
-1.062, -9.093e-6
-1.061, -9.093e-6
-1.060, -9.093e-6
-1.059, -1.218e-5
-1.058, -9.093e-6
-1.057, -9.093e-6
-1.056, -9.093e-6
-1.055, -9.093e-6
-1.054, -9.093e-6
-1.053, -9.093e-6
-1.052, -9.093e-6
-1.051, -9.093e-6
-1.050, -1.218e-5
-1.049, -9.093e-6
-1.048, -1.218e-5
-1.047, -1.218e-5
-1.046, -1.218e-5
-1.045, -1.218e-5
-1.044, -1.218e-5
-1.043, -1.218e-5
-1.042, -9.093e-6
-1.041, -1.218e-5
-1.040, -1.218e-5
-1.039, -1.218e-5
-1.038, -1.218e-5
-1.037, -1.218e-5
-1.036, -1.218e-5
-1.035, -1.218e-5
-1.034, -1.218e-5
-1.033, -1.218e-5
-1.032, -1.218e-5
-1.031, -1.218e-5
-1.030, -1.218e-5
-1.029, -1.218e-5
-1.028, -1.218e-5
-1.027, -1.218e-5
-1.026, -1.218e-5
-1.025, -1.218e-5
-1.024, -1.218e-5
-1.023, -1.218e-5
-1.022, -1.218e-5
-1.021, -1.218e-5
-1.020, -1.218e-5
-1.019, -1.218e-5
-1.018, -1.218e-5
-1.017, -1.526e-5
-1.016, -1.218e-5
-1.015, -1.218e-5
-1.014, -1.218e-5
-1.013, -1.526e-5
-1.012, -1.218e-5
-1.011, -1.526e-5
-1.010, -1.526e-5
-1.009, -1.218e-5
-1.008, -1.526e-5
-1.007, -1.218e-5
-1.006, -1.218e-5
-1.005, -1.526e-5
-1.004, -1.526e-5
-1.003, -1.526e-5
-1.002, -1.218e-5
-1.001, -1.526e-5
