Potential V vs RHE, Current mA cm-2
0.05339999999999995,8.769795347863363
0.05239999999999995,8.612762393578345
0.051399999999999946,8.41470281159724
0.050399999999999945,8.218057940915998
0.049399999999999944,8.027071915434218
0.04839999999999994,7.841744735151897
0.04739999999999994,7.660661688769173
0.04639999999999994,7.483822776286043
0.04539999999999994,7.311227997702509
0.04439999999999994,7.142877353018569
0.04339999999999994,6.977356130934361
0.04239999999999994,6.814664331449882
0.04139999999999994,6.654801954565133
0.040399999999999936,6.497769000280114
0.039399999999999935,6.342150757294959
0.038399999999999934,6.1907766482094
0.03739999999999993,6.040817250423707
0.03639999999999993,5.893687275237743
0.03539999999999993,5.74938672265151
0.03439999999999993,5.6065008813651405
0.03339999999999993,5.466444462678503
0.03239999999999993,5.327802755291728
0.03139999999999993,5.191990470504685
0.030399999999999927,5.057592897017507
0.029399999999999926,4.924610034830192
0.028399999999999925,4.794456595242609
0.027399999999999924,4.664303155655026
0.026399999999999924,4.5369791386671725
0.025399999999999923,4.4124845442790495
0.024399999999999922,4.287989949890926
0.02339999999999992,4.166324778102533
0.02239999999999992,4.0446596063141405
0.02139999999999992,3.9258238571254775
0.020399999999999918,3.8084028192366786
0.019399999999999917,3.6923964926477457
0.018399999999999916,3.5778048773586777
0.017399999999999916,3.4646279733694745
0.016399999999999915,3.352865780680137
0.015399999999999914,3.2425182992906643
0.014399999999999913,3.135000240500921
0.013399999999999912,3.0260674704113137
0.012399999999999911,2.919964122921436
0.01139999999999991,2.8152754867314234
0.01039999999999991,2.712001561841275
0.009399999999999908,2.610142348250993
0.008399999999999908,2.50828313466071
0.007399999999999907,2.407838632370292
0.006399999999999906,2.310223552679605
0.005399999999999905,2.2126084729889177
0.004399999999999904,2.116408104598095
0.003399999999999903,2.0216224475071374
0.002399999999999902,1.92683679041618
0.0013999999999999013,1.8348805559249526
0.00039999999999990044,1.7429243214337253
-0.0006000000000001005,1.6523827982423631
-0.0016000000000001013,1.5632559863508655
-0.0026000000000001022,1.4741291744593683
-0.003600000000000103,1.3868414872576953
-0.004600000000000104,1.3005440979659282
-0.005600000000000105,1.2149540643240935
-0.006600000000000106,1.1310616842420969
-0.007600000000000107,1.0473107752900865
-0.008600000000000108,0.9648331065079551
-0.009600000000000108,0.8837701490256885
-0.01060000000000011,0.8032730760633678
-0.01160000000000011,0.7236248298809663
-0.012600000000000111,0.6442595259585376
-0.013600000000000112,0.5660259910760012
-0.014600000000000113,0.4892071674933296
-0.015600000000000114,0.4133786418205638
-0.016600000000000115,0.3386818851876898
-0.017600000000000116,0.2649754264647214
-0.018600000000000116,0.19155191000172597
-0.019600000000000117,0.11909039722263878
-0.020600000000000118,0.04777480059644229
-0.02160000000000012,-0.02310223552679605
-0.02260000000000012,-0.09262114880216396
-0.02360000000000012,-0.1618429727045602
-0.024600000000000122,-0.23003205735805496
-0.025600000000000123,-0.2973723152316307
-0.026600000000000124,-0.3642881597152469
-0.027600000000000124,-0.43021370628895766
-0.028600000000000125,-0.49529042608274926
-0.029600000000000126,-0.5596597902266085
-0.030600000000000127,-0.6227559142005892
-0.03160000000000013,-0.6857105670445833
-0.03260000000000013,-0.7480993353686314
-0.03360000000000013,-0.8093563346527874
-0.03460000000000002,-0.870188920546984
-0.03560000000000002,-0.9300312085312752
-0.03660000000000002,-0.9897320253855796
-0.03760000000000002,-1.0485840154599653
-0.03860000000000002,-1.1063042364944589
-0.039600000000000024,-1.1637415152689792
-0.040600000000000025,-1.2203299672635808
-0.041600000000000026,-1.2762110636082498
-0.04260000000000003,-1.331667746562959
-0.04360000000000003,-1.3862756027377494
-0.04460000000000003,-1.4401761032626073
-0.04560000000000003,-1.4939351326574788
-0.04660000000000003,-1.546279450752485
-0.04760000000000003,-1.6000384801473564
-0.04860000000000003,-1.6523827982423631
-0.04960000000000003,-1.7033124050375041
-0.050600000000000034,-1.7542420118326456
-0.051600000000000035,-1.8037569073279218
-0.052600000000000036,-1.8546865141230628
-0.053600000000000037,-1.9027866983184742
-0.05460000000000004,-1.9523015938137507
-0.05560000000000004,-2.0004017780091616
-0.05660000000000004,-2.047087250904708
-0.05760000000000004,-2.095187435100119
-0.05860000000000004,-2.1418729079956655
-0.05960000000000004,-2.1885583808912115
-0.06060000000000004,-2.2338291424868926
-0.061600000000000044,-2.279099904082574
-0.06260000000000004,-2.3243706656782552
-0.06360000000000005,-2.3696414272739363
-0.06460000000000005,-2.4134974775697526
-0.06560000000000005,-2.457353527865569
-0.06660000000000005,-2.5012095781613843
-0.06760000000000005,-2.543650917157336
-0.06860000000000005,-2.586092256153287
-0.06960000000000005,-2.6285335951492383
-0.07060000000000005,-2.670974934145189
-0.07160000000000005,-2.712001561841275
-0.07260000000000005,-2.754442900837226
-0.07360000000000005,-2.794054817233447
-0.07460000000000006,-2.8350814449295334
-0.07560000000000006,-2.8761080726256196
-0.07660000000000006,-2.91571998902184
-0.07760000000000006,-2.956746616717927
-0.07860000000000006,-2.994943821814283
-0.07960000000000006,-3.034555738210504
-0.08060000000000006,-3.074167654606725
-0.08160000000000006,-3.1123648597030806
-0.08260000000000006,-3.1519767760993016
-0.08360000000000006,-3.1887592698957925
-0.08460000000000006,-3.2269564749921487
-0.08560000000000006,-3.265153680088505
-0.08660000000000007,-3.3019361738849957
-0.08760000000000007,-3.3401333789813514
-0.08860000000000007,-3.3769158727778423
-0.08960000000000007,-3.4136983665743337
-0.09060000000000007,-3.450480860370824
-0.09160000000000007,-3.4872633541673155
-0.09260000000000007,-3.5240458479638064
-0.09360000000000007,-3.559413630460432
-0.09460000000000007,-3.5961961242569234
-0.09560000000000007,-3.6315639067535495
-0.09660000000000007,-3.666931689250175
-0.09760000000000008,-3.702299471746801
-0.09860000000000008,-3.7376672542434273
-0.09960000000000008,-3.7730350367400525
-0.10060000000000008,-3.8084028192366786
-0.10160000000000008,-3.84235589043344
-0.10260000000000008,-3.8777236729300655
-0.10360000000000008,-3.9130914554266916
-0.10460000000000008,-3.9470445266234524
-0.10560000000000008,-3.9809975978202137
-0.10660000000000008,-4.014950669016974
-0.10760000000000008,-4.048903740213735
-0.10860000000000009,-4.082856811410497
-0.10960000000000009,-4.118224593907121
-0.11060000000000009,-4.150762953804017
-0.11160000000000009,-4.184716025000778
-0.11260000000000009,-4.218669096197539
-0.11360000000000009,-4.251207456094435
-0.11460000000000009,-4.286575238591061
-0.11560000000000009,-4.3205283097878215
-0.11660000000000009,-4.353066669684718
-0.1176000000000001,-4.387019740881478
-0.1186000000000001,-4.419558100778375
-0.1196000000000001,-4.45209646067527
-0.1206000000000001,-4.4846348205721664
-0.1216000000000001,-4.5171731804690625
-0.1226000000000001,-4.5497115403659585
-0.1236000000000001,-4.582249900262854
-0.1246000000000001,-4.613373548859885
-0.1256000000000001,-4.645911908756781
-0.1266000000000001,-4.678450268653676
-0.1276000000000001,-4.710988628550572
-0.1286000000000001,-4.742112277147603
-0.1296000000000001,-4.773235925744634
-0.1306000000000001,-4.80577428564153
-0.1316000000000001,-4.836897934238561
-0.1326000000000001,-4.868021582835592
-0.1336000000000001,-4.900559942732487
-0.1346000000000001,-4.931683591329518
-0.1356000000000001,-4.962807239926549
-0.1366000000000001,-4.99393088852358
-0.1376000000000001,-5.02505453712061
-0.1386000000000001,-5.056178185717641
-0.1396000000000001,-5.085887123014808
-0.1406000000000001,-5.117010771611838
-0.14160000000000011,-5.148134420208869
-0.14260000000000012,-5.1792580688059
-0.14360000000000012,-5.208967006103065
-0.14460000000000012,-5.240090654700095
-0.14560000000000012,-5.269799591997262
-0.14660000000000012,-5.299508529294427
-0.14760000000000012,-5.329217466591594
-0.14860000000000012,-5.360341115188624
-0.14960000000000012,-5.3900500524857895
-0.15060000000000012,-5.419758989782956
-0.15160000000000012,-5.449467927080121
-0.15260000000000012,-5.479176864377286
-0.15360000000000013,-5.507471090374587
-0.15460000000000013,-5.537180027671754
-0.15560000000000013,-5.565474253669055
-0.15660000000000013,-5.59518319096622
-0.15760000000000013,-5.623477416963521
-0.15860000000000013,-5.651771642960822
-0.15960000000000002,-5.680065868958122
-0.16060000000000002,-5.708360094955423
-0.16160000000000002,-5.7380690322525885
-0.16260000000000002,-5.766363258249889
-0.16360000000000002,-5.793242772947325
-0.16460000000000002,-5.821536998944626
-0.16560000000000002,-5.851245936241792
-0.16660000000000003,-5.882369584838822
-0.16760000000000003,-5.909249099536258
-0.16860000000000003,-5.936128614233694
-0.16960000000000003,-5.963008128931129
-0.17060000000000003,-5.989887643628566
-0.17160000000000003,-6.016767158326001
-0.17260000000000003,-6.043646673023436
-0.17360000000000003,-6.069111476421008
-0.17460000000000003,-6.095990991118443
-0.17560000000000003,-6.121455794516013
-0.17660000000000003,-6.146920597913584
-0.17760000000000004,-6.172385401311155
-0.17860000000000004,-6.197850204708726
-0.17960000000000004,-6.2233150081062965
-0.18060000000000004,-6.248779811503867
-0.18160000000000004,-6.272829903601573
-0.18260000000000004,-6.298294706999143
-0.18360000000000004,-6.320930087796984
-0.18460000000000004,-6.34498017989469
-0.18560000000000004,-6.369030271992395
-0.18660000000000004,-6.393080364090101
-0.18760000000000004,-6.415715744887942
-0.18860000000000005,-6.4397658369856465
-0.18960000000000005,-6.462401217783487
-0.19060000000000005,-6.4850365985813285
-0.19160000000000005,-6.507671979379168
-0.19260000000000005,-6.528892648877145
-0.19360000000000005,-6.5515280296749845
-0.19460000000000005,-6.57274869917296
-0.19560000000000005,-6.593969368670936
-0.19660000000000005,-6.615190038168912
-0.19760000000000005,-6.634995996367022
-0.19860000000000005,-6.6562166658649975
-0.19960000000000006,-6.6760226240631075
-0.20060000000000006,-6.6958285822612185
-0.20160000000000006,-6.714219829159464
-0.20260000000000006,-6.7340257873575755
-0.20360000000000006,-6.75241703425582
-0.20460000000000006,-6.770808281154065
-0.20560000000000006,-6.789199528052311
-0.20660000000000006,-6.807590774950556
-0.20760000000000006,-6.825982021848802
-0.20860000000000006,-6.842958557447183
-0.20960000000000006,-6.858520381745699
-0.21060000000000006,-6.875496917344078
-0.21160000000000007,-6.892473452942459
-0.21260000000000007,-6.908035277240974
-0.21360000000000007,-6.923597101539489
-0.21460000000000007,-6.93774421453814
-0.21560000000000007,-6.953306038836654
-0.21660000000000007,-6.967453151835306
-0.21760000000000007,-6.983014976133821
-0.21860000000000007,-6.997162089132471
-0.21960000000000007,-7.009894490831256
-0.22060000000000007,-7.022626892530043
-0.22160000000000007,-7.0367740055286925
-0.22260000000000008,-7.048091695927613
-0.22360000000000008,-7.060824097626399
-0.22460000000000008,-7.072141788025317
-0.22560000000000008,-7.083459478424238
-0.22660000000000008,-7.094777168823159
-0.22760000000000008,-7.104680147922214
-0.22860000000000008,-7.1145831270212705
-0.22960000000000008,-7.124486106120324
-0.23060000000000008,-7.134389085219379
-0.23160000000000008,-7.142877353018569
-0.23260000000000008,-7.152780332117626
-0.23360000000000009,-7.161268599916816
-0.2346000000000001,-7.1683421564161405
-0.2356000000000001,-7.176830424215332
-0.2366000000000001,-7.183903980714656
-0.2376000000000001,-7.190977537213982
-0.2386000000000001,-7.198051093713307
-0.2396000000000001,-7.205124650212632
-0.2406000000000001,-7.210783495412092
-0.2416000000000001,-7.216442340611552
-0.2426000000000001,-7.223515897110879
-0.2436000000000001,-7.227760031010472
-0.2446000000000001,-7.2334188762099325
-0.2456000000000001,-7.237663010109527
-0.2466000000000001,-7.241907144009123
-0.2476000000000001,-7.246151277908718
-0.2486000000000001,-7.250395411808314
-0.2496000000000001,-7.254639545707908
-0.2506000000000001,-7.257468968307639
-0.2516000000000001,-7.260298390907368
-0.2526000000000001,-7.263127813507099
-0.2536000000000001,-7.2659572361068285
-0.2546000000000001,-7.268786658706559
-0.2556000000000001,-7.270201370006423
-0.2566000000000001,-7.2730307926061535
-0.2576000000000001,-7.274445503906019
-0.2586000000000001,-7.275860215205883
-0.2596000000000001,-7.277274926505749
-0.2606000000000001,-7.277274926505749
-0.2616000000000001,-7.278689637805614
-0.2626000000000001,-7.278689637805614
-0.2636000000000001,-7.278689637805614
-0.2646000000000001,-7.280104349105479
-0.2656000000000001,-7.278689637805614
-0.2666000000000001,-7.280104349105479
-0.2676000000000001,-7.278689637805614
-0.2686000000000001,-7.278689637805614
-0.2696000000000001,-7.278689637805614
-0.2706000000000001,-7.277274926505749
-0.2716000000000001,-7.275860215205883
-0.2726000000000001,-7.275860215205883
-0.2736000000000001,-7.274445503906019
-0.2746000000000001,-7.2730307926061535
-0.2756000000000001,-7.271616081306289
-0.2766000000000001,-7.270201370006423
-0.2776000000000001,-7.268786658706559
-0.2786000000000001,-7.267371947406693
-0.2796000000000001,-7.264542524806962
-0.2806000000000001,-7.263127813507099
-0.28160000000000013,-7.260298390907368
-0.28260000000000013,-7.260298390907368
-0.28360000000000013,-7.257468968307639
-0.2846,-7.254639545707908
-0.2856,-7.253224834408043
-0.2866,-7.250395411808314
-0.2876,-7.247565989208583
-0.2886,-7.244736566608854
-0.2896,-7.241907144009123
-0.2906,-7.2390777214093935
-0.2916,-7.236248298809663
-0.2926,-7.2334188762099325
-0.2936,-7.232004164910067
-0.29460000000000003,-7.229174742310337
-0.29560000000000003,-7.224930608410742
-0.29660000000000003,-7.222101185811012
-0.29760000000000003,-7.219271763211282
-0.29860000000000003,-7.216442340611552
-0.29960000000000003,-7.212198206711958
-0.30060000000000003,-7.209368784112227
-0.30160000000000003,-7.2065393615124975
-0.30260000000000004,-7.203709938912767
-0.30360000000000004,-7.199465805013171
-0.30460000000000004,-7.19663638241344
-0.30560000000000004,-7.192392248513847
-0.30660000000000004,-7.189562825914116
-0.30760000000000004,-7.186733403314386
-0.30860000000000004,-7.182489269414792
-0.30960000000000004,-7.179659846815062
-0.31060000000000004,-7.175415712915465
-0.31160000000000004,-7.172586290315736
-0.31260000000000004,-7.169756867716005
-0.31360000000000005,-7.165512733816411
-0.31460000000000005,-7.16268331121668
-0.31560000000000005,-7.158439177317086
-0.31660000000000005,-7.155609754717355
-0.31760000000000005,-7.152780332117626
-0.31860000000000005,-7.149950909517895
-0.31960000000000005,-7.147121486918166
-0.32060000000000005,-7.1457067756183
-0.32160000000000005,-7.1414626417187055
-0.32260000000000005,-7.138633219118976
-0.32360000000000005,-7.135803796519245
-0.32460000000000006,-7.132974373919516
-0.32560000000000006,-7.130144951319785
-0.32660000000000006,-7.127315528720055
-0.32760000000000006,-7.124486106120324
-0.32860000000000006,-7.1216566835205946
-0.32960000000000006,-7.118827260920864
-0.33060000000000006,-7.117412549621
-0.33160000000000006,-7.1145831270212705
-0.33260000000000006,-7.113168415721404
-0.33360000000000006,-7.110338993121674
-0.33460000000000006,-7.1089242818218095
-0.33560000000000006,-7.107509570521944
-0.33660000000000007,-7.104680147922214
-0.33760000000000007,-7.103265436622349
-0.33860000000000007,-7.101850725322484
-0.33960000000000007,-7.100436014022619
-0.34060000000000007,-7.099021302722755
-0.34160000000000007,-7.099021302722755
-0.34260000000000007,-7.097606591422889
-0.34360000000000007,-7.097606591422889
-0.3446000000000001,-7.096191880123024
-0.3456000000000001,-7.096191880123024
-0.3466000000000001,-7.096191880123024
-0.34759999999999996,-7.096191880123024
-0.3486000000000001,-7.096191880123024
-0.34959999999999997,-7.096191880123024
-0.3506000000000001,-7.094777168823159
-0.35159999999999997,-7.096191880123024
-0.3526000000000001,-7.097606591422889
-0.35359999999999997,-7.097606591422889
-0.3546000000000001,-7.097606591422889
-0.35559999999999997,-7.099021302722755
-0.3566000000000001,-7.099021302722755
-0.3576,-7.100436014022619
-0.3586000000000001,-7.101850725322484
-0.3596,-7.103265436622349
-0.3606000000000001,-7.104680147922214
-0.3616,-7.104680147922214
-0.3626000000000001,-7.107509570521944
-0.3636,-7.1089242818218095
-0.3646000000000001,-7.110338993121674
-0.3656,-7.111753704421539
-0.3666000000000001,-7.113168415721404
-0.3676,-7.115997838321134
-0.3686000000000001,-7.117412549621
-0.3696,-7.120241972220731
-0.3706000000000001,-7.1216566835205946
-0.3716,-7.125900817420191
-0.3726000000000001,-7.127315528720055
-0.3736,-7.130144951319785
-0.3746000000000001,-7.131559662619649
-0.3756,-7.134389085219379
-0.3766000000000001,-7.135803796519245
-0.3776,-7.138633219118976
-0.3786000000000001,-7.1414626417187055
-0.3796,-7.142877353018569
-0.3806000000000001,-7.1457067756183
-0.3816,-7.14853619821803
-0.3826000000000001,-7.15136562081776
-0.3836,-7.154195043417491
-0.3846000000000001,-7.15702446601722
-0.3856,-7.158439177317086
-0.3866000000000001,-7.161268599916816
-0.3876,-7.164098022516545
-0.3886000000000001,-7.166927445116276
-0.3896,-7.169756867716005
-0.3906000000000001,-7.171171579015871
-0.3916,-7.174001001615601
-0.3926000000000001,-7.176830424215332
-0.3936,-7.179659846815062
-0.3946000000000001,-7.181074558114926
-0.3956,-7.183903980714656
-0.3966000000000001,-7.186733403314386
-0.3976,-7.190977537213982
-0.3986000000000001,-7.192392248513847
-0.3996,-7.193806959813711
-0.4006000000000001,-7.19663638241344
-0.4016,-7.199465805013171
-0.4026000000000001,-7.2022952276129
-0.4036,-7.203709938912767
-0.4046000000000001,-7.205124650212632
-0.4056,-7.2079540728123614
-0.40660000000000013,-7.209368784112227
-0.4076,-7.212198206711958
-0.40860000000000013,-7.215027629311687
-0.4096,-7.216442340611552
-0.41060000000000013,-7.219271763211282
-0.4116,-7.220686474511147
-0.41260000000000013,-7.222101185811012
-0.4136,-7.223515897110879
-0.41460000000000014,-7.224930608410742
-0.4156,-7.227760031010472
-0.41660000000000014,-7.229174742310337
-0.4176,-7.230589453610202
-0.41860000000000014,-7.232004164910067
-0.41960000000000003,-7.2334188762099325
-0.42060000000000014,-7.234833587509797
-0.42160000000000003,-7.237663010109527
-0.42260000000000014,-7.2390777214093935
-0.42360000000000003,-7.241907144009123
-0.42460000000000014,-7.241907144009123
-0.42560000000000003,-7.243321855308987
-0.42660000000000015,-7.244736566608854
-0.42760000000000004,-7.246151277908718
-0.42860000000000015,-7.246151277908718
-0.42960000000000004,-7.247565989208583
-0.43060000000000015,-7.248980700508447
-0.43160000000000004,-7.250395411808314
-0.43260000000000015,-7.251810123108179
-0.43360000000000004,-7.251810123108179
-0.43460000000000015,-7.253224834408043
-0.43560000000000004,-7.254639545707908
-0.43660000000000015,-7.256054257007774
-0.43760000000000004,-7.257468968307639
-0.43860000000000016,-7.257468968307639
-0.43960000000000005,-7.258883679607503
-0.44060000000000016,-7.258883679607503
-0.44160000000000005,-7.260298390907368
-0.44260000000000016,-7.261713102207232
-0.44360000000000005,-7.263127813507099
-0.44460000000000016,-7.264542524806962
-0.44560000000000005,-7.2659572361068285
-0.44660000000000016,-7.267371947406693
-0.44760000000000005,-7.268786658706559
-0.44860000000000017,-7.270201370006423
-0.44960000000000006,-7.271616081306289
-0.45060000000000017,-7.2730307926061535
-0.45160000000000006,-7.274445503906019
-0.45260000000000017,-7.277274926505749
-0.45360000000000006,-7.278689637805614
-0.45460000000000017,-7.280104349105479
-0.45560000000000006,-7.281519060405343
-0.4566000000000002,-7.284348483005074
-0.45760000000000006,-7.28576319430494
-0.4586000000000002,-7.288592616904668
