Potential V vs RHE, Current mA cm-2
0.013299999999999867,-0.3947044526623452
0.012299999999999978,-2.576189277054232
0.011299999999999866,-4.626105950558669
0.010299999999999976,-6.54445447317566
0.009299999999999864,-8.376505606500881
0.008299999999999974,-10.078403300238522
0.007299999999999862,-11.778886282676295
0.006299999999999972,-13.349215825526485
0.00529999999999986,-14.826174422585586
0.0042999999999999705,-16.22673860945197
0.0032999999999998586,-17.584861457322408
0.0022999999999999687,-18.80151317520634
0.0012999999999998568,-19.93328221509837
0.00029999999999996696,-21.022609915994444
-0.000700000000000145,-22.069496277894572
-0.0017000000000000348,-22.989058622806844
-0.0027000000000001467,-23.993503645711023
-0.0037000000000000366,-24.9130659906233
-0.0047000000000001485,-25.81848122253692
-0.005700000000000038,-26.738043567449193
-0.00670000000000015,-27.615164573365515
-0.00770000000000004,-28.435697127287238
-0.008700000000000152,-29.27037679420761
-0.009700000000000042,-30.04846800913338
-0.010700000000000154,-30.79826499806185
-0.011700000000000044,-31.533914873991666
-0.012700000000000156,-32.09979939393769
-0.013700000000000045,-32.66568391388369
-0.014700000000000157,-33.18912709483376
-0.015700000000000047,-33.670128936787876
-0.01670000000000016,-34.15113077874198
-0.01770000000000005,-34.632132620696105
-0.01870000000000016,-35.07069312365426
-0.01970000000000005,-35.55169496560837
-0.020700000000000163,-36.07513814655844
-0.021700000000000053,-36.5136986495166
-0.022700000000000164,-36.99470049147071
-0.023700000000000054,-37.47570233342482
-0.024700000000000166,-37.90011572338433
-0.025700000000000056,-38.29623488734655
-0.026700000000000168,-38.692354051308754
-0.027700000000000058,-38.98944342428042
-0.02870000000000017,-39.30067991025072
-0.02970000000000006,-39.56947505722508
-0.03070000000000017,-39.78168175220483
-0.03170000000000006,-39.99388844718459
-0.03270000000000017,-40.26268359415894
-0.03370000000000006,-40.4748902891387
-0.034700000000000175,-40.78612677510901
-0.035700000000000065,-41.083216148080666
-0.03670000000000018,-41.30956995605907
-0.03770000000000007,-41.56421799003478
-0.03870000000000018,-41.87545447600508
-0.03970000000000007,-42.087661170984845
-0.04070000000000018,-42.31401497896325
-0.04170000000000007,-42.526221673943
-0.04270000000000018,-42.653545690930855
-0.04370000000000007,-42.752575481921404
-0.044700000000000184,-42.87989949890926
-0.045700000000000074,-42.92234083790521
-0.046700000000000186,-43.007223515897124
-0.047700000000000076,-43.09210619388902
-0.04870000000000019,-43.23357732387552
-0.04970000000000008,-43.36090134086337
-0.05070000000000019,-43.48822535785123
-0.05170000000000008,-43.657990713835034
-0.05270000000000019,-43.79946184382153
-0.05370000000000008,-43.96922719980534
-0.05470000000000019,-44.096551216793195
-0.05570000000000008,-44.181433894785094
-0.056700000000000195,-44.3229050247716
-0.057700000000000085,-44.36534636376755
-0.058700000000000196,-44.36534636376755
-0.059700000000000086,-44.4077877027635
-0.0607000000000002,-44.4077877027635
-0.06170000000000009,-44.36534636376755
-0.0627000000000002,-44.45022904175945
-0.06370000000000009,-44.45022904175945
-0.0647000000000002,-44.4926703807554
-0.06570000000000009,-44.577553058747306
-0.0667000000000002,-44.66243573673921
-0.0677000000000001,-44.74731841473111
-0.0687000000000002,-44.84634820572166
-0.0697000000000001,-44.93123088371356
-0.07070000000000021,-44.97367222270952
-0.0717000000000001,-45.01611356170547
-0.07270000000000021,-45.01611356170547
-0.0737000000000001,-44.97367222270952
-0.07470000000000021,-44.97367222270952
-0.0757000000000001,-44.88878954471762
-0.07670000000000021,-44.80390686672572
-0.0777000000000001,-44.80390686672572
-0.07870000000000021,-44.80390686672572
-0.0797000000000001,-44.80390686672572
-0.08070000000000022,-44.88878954471762
-0.0817000000000001,-44.88878954471762
-0.08270000000000022,-44.93123088371356
-0.08370000000000011,-45.05855490070142
-0.08470000000000022,-45.05855490070142
-0.08570000000000011,-45.10099623969737
-0.08670000000000022,-45.18587891768927
-0.08770000000000011,-45.143437578693316
-0.08870000000000022,-45.10099623969737
-0.08970000000000011,-45.05855490070142
-0.09070000000000022,-45.01611356170547
-0.09170000000000011,-44.93123088371356
-0.09270000000000023,-44.88878954471762
-0.09370000000000012,-44.88878954471762
-0.09470000000000023,-44.88878954471762
-0.09570000000000012,-44.93123088371356
-0.09670000000000023,-44.97367222270952
-0.09770000000000012,-45.01611356170547
-0.09870000000000023,-45.10099623969737
-0.09970000000000012,-45.18587891768927
-0.10070000000000023,-45.18587891768927
-0.10170000000000012,-45.27076159568118
-0.10270000000000024,-45.22832025668522
-0.10370000000000013,-45.18587891768927
-0.10470000000000024,-45.22832025668522
-0.10570000000000013,-45.143437578693316
-0.10670000000000024,-45.10099623969737
-0.10770000000000013,-45.10099623969737
-0.10870000000000024,-45.10099623969737
-0.10970000000000013,-45.18587891768927
-0.11070000000000024,-45.22832025668522
-0.11170000000000013,-45.27076159568118
-0.11270000000000002,-45.412232725667685
-0.11370000000000013,-45.497115403659585
-0.11470000000000002,-45.581998081651484
-0.11570000000000014,-45.624439420647434
-0.11670000000000003,-45.70932209863933
-0.11770000000000014,-45.75176343763528
-0.11870000000000003,-45.70932209863933
-0.11970000000000014,-45.70932209863933
-0.12070000000000003,-45.70932209863933
-0.12170000000000014,-45.666880759643384
-0.12270000000000003,-45.666880759643384
-0.12370000000000014,-45.666880759643384
-0.12470000000000003,-45.70932209863933
-0.12570000000000014,-45.85079322862584
-0.12670000000000003,-45.89323456762179
-0.12770000000000015,-45.97811724561369
-0.12870000000000004,-46.10544126260155
-0.12970000000000015,-46.19032394059345
-0.13070000000000004,-46.19032394059345
-0.13170000000000015,-46.27520661858535
-0.13270000000000004,-46.27520661858535
-0.13370000000000015,-46.2327652795894
-0.13470000000000004,-46.2327652795894
-0.13570000000000015,-46.19032394059345
-0.13670000000000004,-46.10544126260155
-0.13770000000000016,-46.10544126260155
-0.13870000000000005,-46.10544126260155
-0.13970000000000016,-46.10544126260155
-0.14070000000000005,-46.19032394059345
-0.14170000000000016,-46.19032394059345
-0.14270000000000005,-46.3176479575813
-0.14370000000000016,-46.37423640957591
-0.14470000000000005,-46.41667774857186
-0.14570000000000016,-46.45911908756781
-0.14670000000000005,-46.501560426563756
-0.14770000000000016,-46.501560426563756
-0.14870000000000005,-46.45911908756781
-0.14970000000000017,-46.41667774857186
-0.15070000000000006,-46.37423640957591
-0.15170000000000017,-46.27520661858535
-0.15270000000000006,-46.3176479575813
-0.15370000000000017,-46.27520661858535
-0.15470000000000006,-46.27520661858535
-0.15570000000000017,-46.37423640957591
-0.15670000000000006,-46.41667774857186
-0.15770000000000017,-46.501560426563756
-0.15870000000000006,-46.628884443551605
-0.15970000000000018,-46.713767121543505
-0.16070000000000007,-46.75620846053947
-0.16170000000000018,-46.88353247752732
-0.16270000000000007,-46.88353247752732
-0.16370000000000018,-46.88353247752732
-0.16470000000000007,-46.88353247752732
-0.16570000000000018,-46.88353247752732
-0.16670000000000007,-46.84109113853137
-0.16770000000000018,-46.84109113853137
-0.16870000000000007,-46.88353247752732
-0.16970000000000018,-46.94012092952192
-0.17070000000000007,-46.982562268517874
-0.17170000000000019,-47.067444946509774
-0.17270000000000008,-47.15232762450167
-0.1737000000000002,-47.27965164148953
-0.17470000000000008,-47.36453431948143
-0.1757000000000002,-47.46356411047198
-0.17670000000000008,-47.54844678846388
-0.1777000000000002,-47.54844678846388
-0.17870000000000008,-47.54844678846388
-0.1797000000000002,-47.54844678846388
-0.18070000000000008,-47.54844678846388
-0.1817000000000002,-47.506005449467935
-0.18270000000000008,-47.54844678846388
-0.1837000000000002,-47.590888127459834
-0.1847000000000001,-47.67577080545174
-0.1857000000000002,-47.76065348344364
-0.1867000000000001,-47.84553616143554
-0.1877000000000002,-48.029448630417996
-0.1887000000000001,-48.156772647405845
-0.1897000000000002,-48.2840966643937
-0.1907000000000001,-48.41142068138156
-0.1917000000000001,-48.55289181136806
-0.19269999999999998,-48.59533315036401
-0.1937000000000001,-48.63777448935996
-0.19469999999999998,-48.68021582835591
-0.1957000000000001,-48.76509850634781
-0.19669999999999999,-48.72265716735186
-0.1977000000000001,-48.80753984534376
-0.1987,-48.84998118433972
-0.1997000000000001,-48.93486386233162
-0.2007,-49.076334992318124
-0.2017000000000001,-49.20365900930597
-0.2027,-49.33098302629383
-0.2037000000000001,-49.50074838227763
-0.2047,-49.642219512264134
-0.2057000000000001,-49.72710219025603
-0.2067,-49.85442620724389
-0.2077000000000001,-49.89686754623985
-0.2087,-49.939308885235796
-0.2097000000000001,-50.024191563227696
-0.2107,-50.0807800152223
-0.2117000000000001,-50.0807800152223
-0.2127,-50.12322135421825
-0.2137000000000001,-50.20810403221015
-0.2147,-50.335428049198
-0.2157000000000001,-50.50519340518181
-0.2167,-50.64666453516831
-0.21770000000000012,-50.81642989115212
-0.2187,-50.98619524713592
-0.21970000000000012,-51.17010771611838
-0.2207,-51.25499039411028
-0.22170000000000012,-51.424755750094086
-0.2227,-51.55207976708194
-0.22370000000000012,-51.594521106077885
-0.2247,-51.69355089706845
-0.22570000000000012,-51.73599223606439
-0.2267,-51.77843357506035
-0.22770000000000012,-51.90575759204819
-0.22870000000000001,-51.990640270040096
-0.22970000000000013,-52.11796428702795
-0.23070000000000002,-52.34431809500636
-0.23170000000000013,-52.471642111994214
-0.23270000000000002,-52.69799591997262
-0.23370000000000013,-52.95264395394832
-0.23470000000000002,-53.12240930993213
-0.23570000000000013,-53.26388043991864
-0.23670000000000002,-53.476087134898386
-0.2376999999999999,-53.603411151886235
-0.23870000000000002,-53.74488228187274
-0.2396999999999999,-53.82976495986464
-0.24070000000000003,-53.999530315848446
-0.24169999999999991,-53.999530315848446
-0.24270000000000003,-54.16929567183226
-0.24369999999999992,-54.31076680181876
-0.24470000000000003,-54.43809081880661
-0.24569999999999992,-54.65029751378637
-0.24670000000000003,-54.876651321764776
-0.24769999999999992,-55.046416677748574
-0.24870000000000003,-55.31521182472294
-0.24969999999999992,-55.527418519702685
-0.25070000000000003,-55.65474253669055
-0.2516999999999999,-55.9235376836649
-0.25270000000000004,-56.05086170065276
-0.2536999999999999,-56.1781857176406
-0.25470000000000004,-56.36209818662306
-0.2556999999999999,-56.489422203610914
-0.25670000000000004,-56.61674622059877
-0.25769999999999993,-56.786511576582576
-0.25870000000000004,-56.97042404556503
-0.25969999999999993,-57.14018940154883
-0.26070000000000004,-57.408984548523186
-0.26169999999999993,-57.66363258249889
-0.26270000000000004,-57.974869068469204
-0.26369999999999993,-58.22951710244491
-0.26470000000000005,-58.54075358841522
-0.26569999999999994,-58.75296028339497
-0.26670000000000005,-59.06419676936528
-0.26769999999999994,-59.27640346434504
-0.26870000000000005,-59.44616882032884
-0.26969999999999994,-59.6300812893113
-0.27070000000000005,-59.842287984291055
-0.27169999999999994,-59.9696120012789
-0.27270000000000005,-60.23840714825326
-0.27369999999999994,-60.49305518222897
-0.27470000000000006,-60.71940899020737
-0.27569999999999995,-61.07308681517363
-0.27670000000000006,-61.327734849149344
-0.27769999999999995,-61.6814126741156
-0.27870000000000006,-61.97850204708726
-0.27969999999999995,-62.33217987205352
-0.28070000000000006,-62.64341635802381
-0.28169999999999995,-62.98294706999144
-0.28270000000000006,-63.251742216965795
-0.28369999999999995,-63.46394891194555
-0.28470000000000006,-63.77518539791585
-0.28569999999999995,-64.02983343189156
-0.28670000000000007,-64.19959878787537
-0.28769999999999996,-64.51083527384567
-0.28870000000000007,-64.82207175981598
-0.28969999999999996,-65.11916113278764
-0.29070000000000007,-65.43039761875795
-0.29169999999999996,-65.82651678272015
-0.29270000000000007,-66.20848883368372
-0.29369999999999996,-66.60460799764593
-0.2947000000000001,-67.00072716160814
-0.29569999999999996,-67.34025787357575
-0.2967000000000001,-67.73637703753796
-0.29769999999999996,-68.04761352350828
-0.2987000000000001,-68.34470289647993
-0.29969999999999997,-68.65593938245023
-0.3007000000000001,-68.96717586842054
-0.30169999999999997,-69.22182390239624
-0.3027000000000001,-69.57550172736251
-0.30369999999999997,-69.91503243933012
-0.3047000000000001,-70.26871026429637
-0.30569999999999997,-70.70727076725453
-0.3067000000000001,-71.06094859222078
-0.3077,-71.52780332117625
-0.3087000000000001,-71.96636382413442
-0.3097,-72.44736566608852
-0.3107000000000001,-72.84348483005074
-0.3117,-73.2820453330089
-0.3127000000000001,-73.6781644969711
-0.3137,-74.06013654793468
-0.3147000000000001,-74.45625571189689
-0.3157,-74.8523748758591
-0.3167000000000001,-75.19190558782671
-0.3177,-75.6729074297808
-0.3187000000000001,-76.11146793273898
-0.3197,-76.55002843569714
-0.3207000000000001,-77.11591295564315
-0.3217,-77.63935613659322
-0.3227000000000001,-78.20524065653922
-0.3237,-78.8135665154812
-0.3247000000000001,-79.37945103542721
-0.3257,-79.94533555537322
-0.3267000000000001,-80.52536718831789
-0.3277,-81.09125170826391
-0.3287000000000001,-81.57225355021802
-0.3297,-82.13813807016405
-0.3307000000000001,-82.6615812511141
-0.3317,-83.14258309306821
-0.3327000000000001,-83.70846761301424
-0.3337,-84.23191079396429
-0.3347000000000001,-84.84023665290624
-0.3357,-85.44856251184822
-0.3367000000000001,-86.09932970978613
-0.3377,-86.7076555687281
-0.3387000000000001,-87.41501121866061
-0.3397,-88.06577841659853
-0.3407000000000001,-88.71654561453644
-0.3417,-89.36731281247435
-0.3427000000000001,-90.03222712341093
-0.3437,-90.6405529823529
-0.3447000000000001,-91.29132018029082
-0.3457,-91.89964603923279
-0.3467000000000001,-92.4655305591788
-0.3477,-93.17288620911131
-0.3487000000000001,-93.82365340704924
-0.3497,-94.5168619439831
-0.3507000000000001,-95.30910027190752
-0.3517,-96.04475014783733
-0.3527000000000001,-96.83698847576176
-0.3537,-97.61507969068752
-0.3547000000000001,-98.40731801861195
-0.3557,-99.18540923353773
-0.35670000000000013,-100.02008890045809
-0.3577,-100.75573877638791
-0.35870000000000013,-101.50553576531638
-0.3597,-102.24118564124619
-0.36070000000000013,-102.97683551717601
-0.3617,-103.68419116710854
-0.3626999999999999,-104.46228238203432
-0.3637,-105.29696204895468
-0.3646999999999999,-106.07505326388046
-0.3657,-106.95217426979677
-0.3666999999999999,-107.78685393671715
-0.3677,-108.69226916863077
-0.3686999999999999,-109.61183151354304
-0.36970000000000003,-110.48895251945936
-0.3706999999999999,-111.394367751373
-0.37170000000000003,-112.31393009628526
-0.3726999999999999,-113.14860976320564
-0.37370000000000003,-114.0115836561233
-0.3746999999999999,-114.84626332304367
-0.37570000000000003,-115.68094298996405
-0.3766999999999999,-116.45903420488982
-0.37770000000000004,-117.33615521080614
-0.3786999999999999,-118.24157044271978
-0.37970000000000004,-119.16113278763203
-0.3806999999999999,-120.16557781053622
-0.38170000000000004,-121.17002283344038
-0.38269999999999993,-122.21690919534053
-0.38370000000000004,-123.3062368962366
-0.38469999999999993,-124.39556459713268
-0.38570000000000004,-125.44245095903281
-0.38669999999999993,-124.87656643908679
-0.38570000000000004,-121.33978818942418
-0.38469999999999993,-118.15668776472786
-0.38370000000000004,-115.15749980901398
-0.38269999999999993,-112.31393009628526
-0.38170000000000004,-109.56939017454708
-0.3806999999999999,-107.03705694778867
-0.37970000000000004,-104.64619485101677
-0.3786999999999999,-102.36850965823406
-0.37770000000000004,-100.14741291744595
-0.3766999999999999,-98.01119885464975
-0.37570000000000003,-96.04475014783733
-0.3746999999999999,-94.07830144102493
-0.37370000000000003,-92.25332386419905
-0.3726999999999999,-90.37175783537855
-0.37170000000000003,-88.5892215975486
-0.3706999999999999,-86.80668535971866
-0.36970000000000003,-84.96756066989411
-0.3686999999999999,-83.26990711005605
-0.3677,-81.57225355021802
-0.3666999999999999,-79.81801153838538
-0.3657,-78.20524065653922
-0.3646999999999999,-76.63491111368903
-0.3637,-75.06458157083884
-0.3626999999999999,-73.57913470598055
-0.3617,-72.15027629311687
-0.36070000000000013,-70.74971210625048
-0.3597,-69.3491479193841
-0.35870000000000013,-67.96273084551636
-0.3577,-66.56216665864997
-0.35670000000000013,-65.20404381077954
-0.3557,-63.81762673691181
-0.3547000000000001,-62.37462121104946
-0.3537,-61.01649836317903
-0.3527000000000001,-59.6300812893113
-0.3517,-58.18707576344896
-0.3507000000000001,-56.88554136757313
-0.3497,-55.56985985869864
-0.3487000000000001,-54.26832546282281
-0.3477,-53.03752663194023
-0.3467000000000001,-51.82087491405629
-0.3457,-50.64666453516831
-0.3447000000000001,-49.458307043281685
-0.3437,-48.2840966643937
-0.3427000000000001,-47.067444946509774
-0.3417,-45.93567590661774
-0.3407000000000001,-44.704877075735155
-0.3397,-43.44578401885527
-0.3387000000000001,-42.2715736399673
-0.3377,-40.99833347008877
-0.3367000000000001,-39.739240413208876
-0.3357,-38.607471373316855
-0.3347000000000001,-37.41911388143023
-0.3337,-36.28734484153819
-0.3327000000000001,-35.198017140642115
-0.3317,-34.15113077874198
-0.3307000000000001,-33.06180307784591
-0.3297,-32.01491671594578
-0.3287000000000001,-31.010471693041605
-0.3277,-29.96358533114148
-0.3267000000000001,-28.959140308237306
-0.3257,-27.869812607341224
-0.3247000000000001,-26.738043567449193
-0.3237,-25.691157205549064
-0.3227000000000001,-24.64427084364894
-0.3217,-23.51250180375691
-0.3207000000000001,-22.46561544185678
-0.3197,-21.461170418952605
-0.3187000000000001,-20.456725396048434
-0.3177,-19.537163051136158
-0.3167000000000001,-18.589306480226583
-0.3157,-17.71218547431026
-0.3147000000000001,-16.835064468393938
-0.3137,-15.91550212348166
-0.3127000000000001,-15.01008689156804
-0.3117,-14.13438059695158
-0.3107000000000001,-13.175206335643086
-0.3097,-12.214617363034726
-0.3087000000000001,-11.255443101726232
-0.3077,-10.296268840417738
-0.3067000000000001,-9.335679867809377
-0.30569999999999997,-8.464217707092514
-0.3047000000000001,-7.5474847847799715
-0.30369999999999997,-6.6760226240631075
-0.3027000000000001,-5.847001802342197
-0.30169999999999997,-5.017980980621284
-0.3007000000000001,-4.23281620919619
-0.29969999999999997,-3.4915074880669104
-0.2987000000000001,-2.7501987669376318
-0.29769999999999996,-1.92117794521672
-0.2967000000000001,-1.1798692240874404
-0.29569999999999996,-0.30755823659065895
-0.2947000000000001,0.5211796428702795
-0.29369999999999996,1.349917522331218
-0.29270000000000007,2.178655401792157
-0.29169999999999996,3.0515322738088844
-0.29070000000000007,3.8366970452339793
-0.28969999999999996,4.578005766363259
-0.28870000000000007,5.3631705377883545
-0.28769999999999996,6.016767158326001
-0.28670000000000007,6.75807587945528
-0.28569999999999995,7.413087211292793
-0.28470000000000006,8.066683831830439
-0.28369999999999995,8.72169516366795
-0.28270000000000006,9.419147834501414
-0.28169999999999995,10.03030311604311
-0.28070000000000006,10.771611837172388
-0.27969999999999995,11.51292055830167
-0.27870000000000006,12.210373229135131
-0.27769999999999995,12.95168195026441
-0.27670000000000006,13.69299067139369
-0.27569999999999995,14.345172580631472
-0.27470000000000006,15.05252823056399
-0.27369999999999994,15.70329542850191
-0.27270000000000005,16.269179948447924
-0.27169999999999994,16.877505807389888
-0.27070000000000005,17.4433903273359
-0.26969999999999994,17.966833508285966
-0.26870000000000005,18.49027668923603
-0.26769999999999994,19.098602548177997
-0.26670000000000005,19.664487068124007
-0.26569999999999994,20.272812927065978
-0.26470000000000005,20.93772723800254
-0.26369999999999993,21.503611757948562
