Potential V vs RHE, Current mA cm-2
0.013299999999999867,-0.4198863137999429
0.012299999999999978,-2.0584049413036287
0.011299999999999866,-3.28354492698675
0.010299999999999976,-4.222913230097134
0.009299999999999864,-5.109937215112512
0.008299999999999974,-5.832854689343546
0.007299999999999862,-6.320930087796984
0.006299999999999972,-6.821737887949207
0.00529999999999986,-7.291422039504399
0.0042999999999999705,-7.5743642994774065
0.0032999999999998586,-7.817694643054193
0.0022999999999999687,-8.164298911521126
0.0012999999999998568,-8.355284937002907
0.00029999999999996696,-8.4203616567967
-0.000700000000000145,-8.63964190827578
-0.0017000000000000348,-8.83628677895702
-0.0027000000000001467,-8.85609273715513
-0.0037000000000000366,-8.956537239445547
-0.0047000000000001485,-9.088105390332997
-0.005700000000000038,-9.11781432763016
-0.00670000000000015,-9.153182110126787
-0.00770000000000004,-9.262114880216396
-0.008700000000000152,-9.324362177410457
-0.009700000000000042,-9.303141507912482
-0.010700000000000154,-9.385194763304654
-0.011700000000000044,-9.444612637898985
-0.012700000000000156,-9.403586010202897
-0.013700000000000045,-9.461589173497366
-0.014700000000000157,-9.542227717589672
-0.015700000000000047,-9.489883399494666
-0.01670000000000016,-9.499786378593722
-0.01770000000000005,-9.587498479185355
-0.01870000000000016,-9.553545407988592
-0.01970000000000005,-9.489883399494666
-0.020700000000000163,-9.570521943586973
-0.021700000000000053,-9.62003683908225
-0.022700000000000164,-9.552130696688728
-0.023700000000000054,-9.579010211386164
-0.024700000000000166,-9.66813702327766
-0.025700000000000056,-9.641257508580225
-0.026700000000000168,-9.612963282582925
-0.027700000000000058,-9.690772404075501
-0.02870000000000017,-9.680869424976446
-0.02970000000000006,-9.615792705182653
-0.03070000000000017,-9.699260671874692
-0.03170000000000006,-9.744531433470373
-0.03270000000000017,-9.658234044178606
-0.03370000000000006,-9.68794298147577
-0.034700000000000175,-9.750190278669832
-0.035700000000000065,-9.675210579776985
-0.03670000000000018,-9.641257508580225
-0.03770000000000007,-9.724725475272262
-0.03870000000000018,-9.730384320471723
-0.03970000000000007,-9.649745776379415
-0.04070000000000018,-9.69360182667523
-0.04170000000000007,-9.748775567369968
-0.04270000000000018,-9.690772404075501
-0.04370000000000007,-9.700675383174557
-0.044700000000000184,-9.757263835169159
-0.045700000000000074,-9.70774893967388
-0.046700000000000186,-9.65681933287874
-0.047700000000000076,-9.720481341372667
-0.04870000000000019,-9.745946144770238
-0.04970000000000008,-9.683698847576176
-0.05070000000000019,-9.733213743071452
-0.05170000000000008,-9.761507969068754
-0.05270000000000019,-9.649745776379415
-0.05370000000000008,-9.685113558876042
-0.05470000000000019,-9.79404632896565
-0.05570000000000008,-9.7190666300728
-0.056700000000000195,-9.678040002376715
-0.057700000000000085,-9.765752102968348
-0.058700000000000196,-9.7190666300728
-0.059700000000000086,-9.628525106881439
-0.0607000000000002,-9.710578362273612
-0.06170000000000009,-9.775655082067402
-0.0627000000000002,-9.689357692775637
-0.06370000000000009,-9.690772404075501
-0.0647000000000002,-9.774240370767538
-0.06570000000000009,-9.717651918772937
-0.0667000000000002,-9.6624781780782
-0.0677000000000001,-9.740287299570777
-0.0687000000000002,-9.747360856070104
-0.0697000000000001,-9.690772404075501
-0.07070000000000021,-9.769996236867943
-0.0717000000000001,-9.788387483766188
-0.07270000000000021,-9.716237207473073
-0.0737000000000001,-9.7516049899697
-0.07470000000000021,-9.812437575863894
-0.0757000000000001,-9.754434412569427
-0.07670000000000021,-9.747360856070104
-0.0777000000000001,-9.819511132363221
-0.07870000000000021,-9.798290462865245
-0.0797000000000001,-9.703504805774287
-0.08070000000000022,-9.784143349866595
-0.0817000000000001,-9.815266998463624
-0.08270000000000022,-9.716237207473073
-0.08370000000000011,-9.758678546469023
-0.08470000000000022,-9.846390647060655
-0.08570000000000011,-9.788387483766188
-0.08670000000000022,-9.745946144770238
-0.08770000000000011,-9.823755266262815
-0.08870000000000022,-9.84780535836052
-0.08970000000000011,-9.768581525568079
-0.09070000000000022,-9.79404632896565
-0.09170000000000011,-9.860537760059307
-0.09270000000000023,-9.781313927266863
-0.09370000000000012,-9.796875751565379
-0.09470000000000023,-9.887417274756743
-0.09570000000000012,-9.822340554962949
-0.09670000000000023,-9.79404632896565
-0.09770000000000012,-9.901564387755393
-0.09870000000000023,-9.887417274756743
-0.09970000000000012,-9.789802195066054
-0.10070000000000023,-9.84214651316106
-0.10170000000000012,-9.902979099055257
-0.10270000000000024,-9.809608153264165
-0.10370000000000013,-9.79404632896565
-0.10470000000000024,-9.898734965155663
-0.10570000000000013,-9.874684873057957
-0.10670000000000024,-9.823755266262815
-0.10770000000000013,-9.928443902452829
-0.10870000000000024,-9.946835149351072
-0.10970000000000013,-9.863367182659037
-0.11070000000000024,-9.927029191152961
-0.11170000000000013,-9.99635004484635
-0.11270000000000002,-9.945420438051208
-0.11370000000000013,-9.934102747652288
-0.11470000000000002,-9.99069119964689
-0.11570000000000014,-9.945420438051208
-0.11670000000000003,-9.904393810355122
-0.11770000000000014,-9.977958797948103
-0.11870000000000003,-9.99917946744608
-0.11970000000000014,-9.931273325052558
-0.12070000000000003,-9.993520622246619
-0.12170000000000014,-10.055767919440681
-0.12270000000000003,-10.004838312645537
-0.12370000000000014,-9.980788220547833
-0.12470000000000003,-10.052938496840952
-0.12570000000000014,-10.05010907424122
-0.12670000000000003,-10.058597342040411
-0.12770000000000015,-10.099623969736497
-0.12870000000000004,-10.0670856098396
-0.12970000000000015,-10.034547249942705
-0.13070000000000004,-10.118015216634742
-0.13170000000000015,-10.171774246029615
-0.13270000000000004,-10.093965124537037
-0.13370000000000015,-10.084062145437981
-0.13470000000000004,-10.180262513828804
-0.13570000000000015,-10.143480020032312
-0.13670000000000004,-10.115185794035014
-0.13770000000000016,-10.197239049427184
-0.13870000000000005,-10.195824338127318
-0.13970000000000016,-10.136406463532989
-0.14070000000000005,-10.190165492927859
-0.14170000000000016,-10.239680388423137
-0.14270000000000005,-10.178847802528939
-0.14370000000000016,-10.184506647728398
-0.14470000000000005,-10.282121727419087
-0.14570000000000016,-10.256656924021515
-0.14670000000000005,-10.222703852824754
-0.14770000000000016,-10.310415953416387
-0.14870000000000005,-10.331636622914363
-0.14970000000000017,-10.283536438718953
-0.15070000000000006,-10.3585161376118
-0.15170000000000017,-10.413689878306533
-0.15270000000000006,-10.362760271511394
-0.15370000000000017,-10.379736807109774
-0.15470000000000006,-10.470278330301136
-0.15570000000000017,-10.42642228000532
-0.15670000000000006,-10.413689878306533
-0.15770000000000017,-10.502816690198033
-0.15870000000000006,-10.508475535397492
-0.15970000000000018,-10.473107752900868
-0.16070000000000007,-10.529696204895469
-0.16170000000000018,-10.572137543891419
-0.16270000000000007,-10.538184472694656
-0.16370000000000018,-10.59477292468926
-0.16470000000000007,-10.707949828678462
-0.16570000000000018,-10.678240891381297
-0.16670000000000007,-10.669752623582108
-0.16770000000000018,-10.778685393671715
-0.16870000000000007,-10.775855971071984
-0.16970000000000018,-10.675411468781567
-0.17070000000000007,-10.730585209476303
-0.17170000000000019,-10.814053176168342
-0.17270000000000008,-10.767367703272795
-0.1737000000000002,-10.79424721797023
-0.17470000000000008,-10.901765276759972
-0.1757000000000002,-10.872056339462807
-0.17670000000000008,-10.879129895962132
-0.1777000000000002,-11.002209779050391
-0.17870000000000008,-11.029089293747825
-0.1797000000000002,-10.997965645150796
-0.18070000000000008,-11.095580724841483
-0.1817000000000002,-11.146510331636625
-0.18270000000000008,-11.077189477943236
-0.1837000000000002,-11.105483703940537
-0.1847000000000001,-11.22714887572893
-0.1857000000000002,-11.220075319229606
-0.1867000000000001,-11.20734291753082
-0.1877000000000002,-11.326178666719484
-0.1887000000000001,-11.368620005715435
-0.1897000000000002,-11.331837511918945
-0.1907000000000001,-11.440770282008552
-0.1917000000000001,-11.525652960000453
-0.19269999999999998,-11.481796909704636
-0.1937000000000001,-11.528482382600183
-0.19469999999999998,-11.645903420488981
-0.1957000000000001,-11.641659286589386
-0.19669999999999999,-11.617609194491681
-0.1977000000000001,-11.77181272617697
-0.1987,-11.846792425069816
-0.1997000000000001,-11.810009931273326
-0.2007,-11.904795588364284
-0.2017000000000001,-11.985434132456591
-0.2027,-11.96845759685821
-0.2037000000000001,-12.033534316652002
-0.2047,-12.158028911040125
-0.2057000000000001,-12.14246708674161
-0.2067,-12.17359073533864
-0.2077000000000001,-12.326379555724063
-0.2087,-12.388626852918126
-0.2097000000000001,-12.349014936521906
-0.2107,-12.472094819610163
-0.2117000000000001,-12.610736526996936
-0.2127,-12.585271723599366
-0.2137000000000001,-12.5838570122995
-0.2147,-12.733816410085195
-0.2157000000000001,-12.90075234346927
-0.2167,-12.971487908462521
-0.21770000000000012,-13.039394050856043
-0.2187,-13.052126452554827
-0.21970000000000012,-13.101641348050105
-0.2207,-13.268577281434178
-0.22170000000000012,-13.333654001227972
-0.2227,-13.349215825526485
-0.22370000000000012,-13.4821986877138
-0.2247,-13.66469644539639
-0.22570000000000012,-13.667525867996119
-0.2267,-13.71562605219153
-0.22770000000000012,-13.981591776566157
-0.22870000000000001,-14.089109835355902
-0.22970000000000013,-14.01271542516319
-0.23070000000000002,-14.147112998650368
-0.23170000000000013,-14.359319693630123
-0.23270000000000002,-14.401761032626075
-0.23370000000000013,-14.430055258623375
-0.23470000000000002,-14.642261953603128
-0.23570000000000013,-14.769585970590983
-0.23670000000000002,-14.797880196588284
-0.2376999999999999,-14.967645552572087
-0.23870000000000002,-15.137410908555893
-0.2396999999999999,-15.193999360550496
-0.24070000000000003,-15.37791182953295
-0.24169999999999991,-15.533530072518102
-0.24270000000000003,-15.590118524512702
-0.24369999999999992,-15.731589654499205
-0.24470000000000003,-15.972090575476265
-0.24569999999999992,-16.056973253468165
-0.24670000000000003,-16.15600304445872
-0.24769999999999992,-16.382356852437127
-0.24870000000000003,-16.55212220842093
-0.24969999999999992,-16.60871066041553
-0.25070000000000003,-16.849211581392588
-0.2516999999999999,-17.07556538937099
-0.25270000000000004,-17.146300954364243
-0.2536999999999999,-17.3302134233467
-0.25470000000000004,-17.613155683319707
-0.2556999999999999,-17.74047970030756
-0.25670000000000004,-17.910245056291366
-0.25769999999999993,-18.207334429263025
-0.25870000000000004,-18.40539401124413
-0.25969999999999993,-18.504423802234676
-0.26070000000000004,-18.730777610213085
-0.26169999999999993,-19.01371987018609
-0.26270000000000004,-19.197632339168546
-0.26369999999999993,-19.395691921149652
-0.26470000000000005,-19.69278129412131
-0.26569999999999994,-19.876693763103766
-0.26670000000000005,-20.06060623208622
-0.26769999999999994,-20.42843117005113
-0.26870000000000005,-20.711373430024135
-0.26969999999999994,-20.923580125003895
-0.27070000000000005,-21.2348166109742
-0.27169999999999994,-21.54605309694451
-0.27270000000000005,-21.701671339929664
-0.27369999999999994,-21.95631937390537
-0.27470000000000006,-22.324144311870278
-0.27569999999999995,-22.536351006850033
-0.27670000000000006,-22.748557701829792
-0.27769999999999995,-23.13052975279335
-0.27870000000000006,-23.427619125765005
-0.27969999999999995,-23.61153159474746
-0.28070000000000006,-23.96520941971372
-0.28169999999999995,-24.34718147067728
-0.28270000000000006,-24.57353527865569
-0.28369999999999995,-24.884771764625995
-0.28470000000000006,-25.351626493581456
-0.28569999999999995,-25.648715866553115
-0.28670000000000007,-25.90336390052882
-0.28769999999999996,-26.38436574248293
-0.28870000000000007,-26.780484906445146
-0.28969999999999996,-27.049280053419505
-0.29070000000000007,-27.473693443379013
-0.29169999999999996,-27.940548172334477
-0.29270000000000007,-28.265931771303435
-0.29369999999999996,-28.676198048264297
-0.2947000000000001,-29.22793545521166
-0.29569999999999996,-29.567466167179266
-0.2967000000000001,-29.906996879146874
-0.29769999999999996,-30.402145834099635
-0.2987000000000001,-30.8690005630551
-0.29969999999999997,-31.265119727017314
-0.3007000000000001,-31.703680229975475
-0.30169999999999997,-32.19882918492823
-0.3027000000000001,-32.59494834889044
-0.30369999999999997,-33.04765596484726
-0.3047000000000001,-33.670128936787876
-0.30569999999999997,-34.12283655274469
-0.3067000000000001,-34.44822015171364
-0.3077,-35.098987349651566
-0.3087000000000001,-35.806342999584075
-0.3097,-36.20246216354629
-0.3107000000000001,-36.768346683492304
-0.3117,-37.291789864442364
-0.3127000000000001,-37.60302635041268
-0.3137,-38.253793548350586
-0.3147000000000001,-39.187503006261515
-0.3157,-39.62606350921968
-0.3167000000000001,-39.75338752620753
-0.3177,-40.27683070715759
-0.3187000000000001,-41.182245939071215
-0.3197,-41.74813045901723
-0.3207000000000001,-42.200838074974044
-0.3217,-42.837458159913304
-0.3227000000000001,-43.474078244852585
-0.3237,-44.011668538801295
-0.3247000000000001,-44.74731841473111
-0.3257,-45.412232725667685
-0.3267000000000001,-46.034705697608295
-0.3277,-46.79864979953541
-0.3287000000000001,-47.506005449467935
-0.3297,-48.1709197604045
-0.3307000000000001,-48.94901097533027
-0.3317,-49.628072399265484
-0.3327000000000001,-50.22225114520881
-0.3337,-50.915459682142675
-0.3347000000000001,-51.73599223606439
-0.3357,-52.37261232100366
-0.3367000000000001,-53.065820857937524
-0.3377,-53.84391207286329
-0.3387000000000001,-54.52297349679851
-0.3397,-55.27277048572698
-0.3407000000000001,-56.164038604641945
-0.3417,-56.98457115856368
-0.3427000000000001,-57.408984548523186
-0.3437,-58.18707576344896
-0.3447000000000001,-59.34713902933829
-0.3457,-60.12523024426406
-0.3467000000000001,-60.60623208621817
-0.3477,-61.46920597913584
-0.3487000000000001,-62.36047409805081
-0.3497,-63.03953552198603
-0.3507000000000001,-63.874215188906405
-0.3517,-64.68060062982947
-0.3527000000000001,-65.4162505057593
-0.3537,-66.20848883368372
-0.3547000000000001,-67.19878674358924
-0.3557,-68.14664331449882
-0.35670000000000013,-68.86814607742998
-0.3577,-69.7735613093436
-0.35870000000000013,-70.63653520226127
-0.3597,-71.48536198218031
-0.36070000000000013,-72.51810123108179
-0.3617,-73.40936934999675
-0.3626999999999999,-74.14501922592657
-0.3637,-75.220199813824
-0.3646999999999999,-76.33782174071737
-0.3657,-77.17250140763775
-0.3666999999999999,-78.07791663955136
-0.3677,-79.23797990544071
-0.3686999999999999,-80.19998358934893
-0.36970000000000003,-80.87904501328414
-0.3706999999999999,-81.88349003618832
-0.37170000000000003,-82.95867062408576
-0.3726999999999999,-83.77920317800748
-0.37370000000000003,-84.9392664438968
-0.3746999999999999,-86.15591816178073
-0.37570000000000003,-86.94815648970517
-0.3766999999999999,-87.74039481762958
-0.37770000000000004,-89.04192921350541
-0.3786999999999999,-90.00393289741362
-0.37970000000000004,-90.838612564334
-0.3806999999999999,-91.95623449122738
-0.38170000000000004,-93.07385641812076
-0.38269999999999993,-93.93683031103843
-0.38370000000000004,-94.91298110794531
-0.38469999999999993,-96.03060303483868
-0.38570000000000004,-96.8511355887604
-0.38669999999999993,-95.98816169584275
-0.38570000000000004,-93.99341876303303
-0.38469999999999993,-92.43723633318149
-0.38370000000000004,-90.79617122533804
-0.38269999999999993,-89.43804837746762
-0.38170000000000004,-88.23554377258235
-0.3806999999999999,-86.94815648970517
-0.37970000000000004,-85.57588652883607
-0.3786999999999999,-84.55729439293323
-0.37770000000000004,-83.45381957903851
-0.3766999999999999,-82.12399095716538
-0.37570000000000003,-80.9497805782774
-0.3746999999999999,-79.95948266837188
-0.37370000000000003,-78.9267434194704
-0.3726999999999999,-77.90815128356756
-0.37170000000000003,-76.80467646967284
-0.3706999999999999,-75.68705454277946
-0.36970000000000003,-74.72505085887124
-0.3686999999999999,-73.52254625398596
-0.3677,-72.57468968307639
-0.3666999999999999,-71.4004793041884
-0.3657,-70.26871026429637
-0.3646999999999999,-69.41988348437735
-0.3637,-68.48617402646643
-0.3626999999999999,-67.39684632557035
-0.3617,-66.39240130266617
-0.36070000000000013,-65.48698607075255
-0.3597,-64.48254104784839
-0.35870000000000013,-63.40736045995095
-0.3577,-62.33217987205352
-0.35670000000000013,-61.384323301143944
-0.3557,-60.53549652122492
-0.3547000000000001,-59.53105149832074
-0.3537,-58.45587091042332
-0.3527000000000001,-57.550455678509685
-0.3517,-56.63089333359741
-0.3507000000000001,-55.541565632701335
-0.3497,-54.65029751378637
-0.3487000000000001,-53.815617846866
-0.3477,-52.82531993696047
-0.3467000000000001,-51.8491691400536
-0.3457,-51.085225038126474
-0.3447000000000001,-50.179809806212845
-0.3437,-49.17536478330867
-0.3427000000000001,-48.2840966643937
-0.3417,-47.520152562466585
-0.3407000000000001,-46.628884443551605
-0.3397,-45.69517498564068
-0.3387000000000001,-44.90293665771627
-0.3377,-44.025815651799945
-0.3367000000000001,-43.04966485489307
-0.3357,-42.31401497896325
-0.3347000000000001,-41.59251221603208
-0.3337,-40.644655645122505
-0.3327000000000001,-39.80997597820213
-0.3317,-39.060178989273666
-0.3307000000000001,-38.22549932235329
-0.3297,-37.48984944642347
-0.3287000000000001,-36.768346683492304
-0.3277,-35.91951990357328
-0.3267000000000001,-35.14142868864751
-0.3257,-34.34919036072309
-0.3247000000000001,-33.54280491980002
-0.3237,-32.90618483486075
-0.3227000000000001,-32.283711862920136
-0.3217,-31.392443744005163
-0.3207000000000001,-30.642646755076694
-0.3197,-30.03432089613473
-0.3187000000000001,-29.369406585198163
-0.3177,-28.662050935265643
-0.3167000000000001,-27.883959720339874
-0.3157,-27.219045409403304
-0.3147000000000001,-26.61071955046134
-0.3137,-25.90336390052882
-0.3127000000000001,-25.295038041586857
-0.3117,-24.65841795664759
-0.3107000000000001,-23.894473854720466
-0.3097,-23.24370665678255
-0.3087000000000001,-22.67782213683654
-0.3077,-21.97046648690402
-0.3067000000000001,-21.291405062968803
-0.30569999999999997,-20.824550334013338
-0.3047000000000001,-20.315254266061928
-0.30369999999999997,-19.763516859114564
-0.3027000000000001,-19.1834852261699
-0.30169999999999997,-18.362952672248177
-0.3007000000000001,-17.627302796318357
-0.29969999999999997,-17.188742293360193
-0.2987000000000001,-16.778476016399335
-0.29769999999999996,-16.071120366466815
-0.2967000000000001,-15.4769416205235
-0.29569999999999996,-15.080822456561293
-0.2947000000000001,-14.529085049613924
-0.29369999999999996,-13.837291223979923
-0.29270000000000007,-13.367607072424732
-0.29169999999999996,-12.970073197162657
-0.29070000000000007,-12.401359254616912
-0.28969999999999996,-11.879330784966712
-0.28870000000000007,-11.486041043604232
-0.28769999999999996,-11.005039201650119
-0.28670000000000007,-10.46603419640154
-0.28569999999999995,-10.055767919440681
-0.28470000000000006,-9.62003683908225
-0.28369999999999995,-9.09800836943205
-0.28270000000000006,-8.658033155174026
-0.28169999999999995,-8.252011012112758
-0.28070000000000006,-7.759691479759726
-0.27969999999999995,-7.336692801100081
-0.27870000000000006,-7.005650356931662
-0.27769999999999995,-6.533136782776739
-0.27670000000000006,-6.070526187720873
-0.27569999999999995,-5.739483743552454
-0.27470000000000006,-5.380147073386734
-0.27369999999999994,-4.8849981184339715
-0.27270000000000005,-4.524246736968387
-0.27169999999999994,-4.22149851879727
-0.27070000000000005,-3.782938015839108
-0.26969999999999994,-3.408039521374873
-0.26870000000000005,-3.1321708179011907
-0.26769999999999994,-2.7586870347368215
-0.26670000000000005,-2.3371030673770408
-0.26569999999999994,-2.0555755187038987
