Mar. 31, 2025   01:10:11
Linear Sweep Voltammetry
File: c:/users/guazh/data/banditlqround7_x0exp518_r20/2025-03-28-exp994\regeneratedgce-2025-03-31t01_07_10-lsvinkoh\regeneratedgce_lsv_50mvs_efin_-1700mv.bin
Data Source:  Experiment
Instrument Model:  CHI760E
Header: LSV ran at 50 mVs with Efin at -1700mV
Note: 

Init E (V) = -0.6
Final E (V) = -1.7
Scan Rate (V/s) = 0.05
Sample Interval (V) = 0.001
Quiet Time (sec) = 2
Sensitivity (A/V) = 1e-4
Comp R (ohm) = 1.7

Results:

Channel 1:

Potential/V, Current/A

-0.600, 6.799e-7
-0.601, 7.975e-7
-0.602, 8.282e-7
-0.603, 8.422e-7
-0.604, 8.547e-7
-0.605, 8.642e-7
-0.606, 8.741e-7
-0.607, 8.811e-7
-0.608, 8.865e-7
-0.609, 8.947e-7
-0.610, 8.991e-7
-0.611, 9.068e-7
-0.612, 9.113e-7
-0.613, 9.162e-7
-0.614, 9.216e-7
-0.615, 9.297e-7
-0.616, 9.339e-7
-0.617, 9.392e-7
-0.618, 9.432e-7
-0.619, 9.467e-7
-0.620, 9.520e-7
-0.621, 9.569e-7
-0.622, 9.602e-7
-0.623, 9.632e-7
-0.624, 9.673e-7
-0.625, 9.737e-7
-0.626, 9.782e-7
-0.627, 9.824e-7
-0.628, 9.859e-7
-0.629, 9.886e-7
-0.630, 9.931e-7
-0.631, 9.977e-7
-0.632, 1.001e-6
-0.633, 1.003e-6
-0.634, 1.007e-6
-0.635, 1.011e-6
-0.636, 1.016e-6
-0.637, 1.020e-6
-0.638, 1.023e-6
-0.639, 1.024e-6
-0.640, 1.030e-6
-0.641, 1.035e-6
-0.642, 1.036e-6
-0.643, 1.038e-6
-0.644, 1.043e-6
-0.645, 1.047e-6
-0.646, 1.053e-6
-0.647, 1.056e-6
-0.648, 1.059e-6
-0.649, 1.062e-6
-0.650, 1.065e-6
-0.651, 1.069e-6
-0.652, 1.071e-6
-0.653, 1.072e-6
-0.654, 1.077e-6
-0.655, 1.080e-6
-0.656, 1.084e-6
-0.657, 1.088e-6
-0.658, 1.090e-6
-0.659, 1.093e-6
-0.660, 1.095e-6
-0.661, 1.100e-6
-0.662, 1.101e-6
-0.663, 1.103e-6
-0.664, 1.106e-6
-0.665, 1.110e-6
-0.666, 1.116e-6
-0.667, 1.117e-6
-0.668, 1.119e-6
-0.669, 1.121e-6
-0.670, 1.125e-6
-0.671, 1.127e-6
-0.672, 1.130e-6
-0.673, 1.134e-6
-0.674, 1.135e-6
-0.675, 1.139e-6
-0.676, 1.144e-6
-0.677, 1.144e-6
-0.678, 1.149e-6
-0.679, 1.151e-6
-0.680, 1.154e-6
-0.681, 1.159e-6
-0.682, 1.159e-6
-0.683, 1.163e-6
-0.684, 1.164e-6
-0.685, 1.169e-6
-0.686, 1.173e-6
-0.687, 1.175e-6
-0.688, 1.177e-6
-0.689, 1.179e-6
-0.690, 1.182e-6
-0.691, 1.186e-6
-0.692, 1.189e-6
-0.693, 1.189e-6
-0.694, 1.194e-6
-0.695, 1.197e-6
-0.696, 1.202e-6
-0.697, 1.205e-6
-0.698, 1.206e-6
-0.699, 1.207e-6
-0.700, 1.211e-6
-0.701, 1.215e-6
-0.702, 1.216e-6
-0.703, 1.219e-6
-0.704, 1.221e-6
-0.705, 1.226e-6
-0.706, 1.229e-6
-0.707, 1.232e-6
-0.708, 1.234e-6
-0.709, 1.235e-6
-0.710, 1.239e-6
-0.711, 1.242e-6
-0.712, 1.245e-6
-0.713, 1.247e-6
-0.714, 1.248e-6
-0.715, 1.253e-6
-0.716, 1.257e-6
-0.717, 1.259e-6
-0.718, 1.261e-6
-0.719, 1.262e-6
-0.720, 1.267e-6
-0.721, 1.271e-6
-0.722, 1.271e-6
-0.723, 1.273e-6
-0.724, 1.275e-6
-0.725, 1.278e-6
-0.726, 1.283e-6
-0.727, 1.285e-6
-0.728, 1.287e-6
-0.729, 1.290e-6
-0.730, 1.292e-6
-0.731, 1.297e-6
-0.732, 1.298e-6
-0.733, 1.300e-6
-0.734, 1.302e-6
-0.735, 1.306e-6
-0.736, 1.310e-6
-0.737, 1.312e-6
-0.738, 1.313e-6
-0.739, 1.316e-6
-0.740, 1.319e-6
-0.741, 1.323e-6
-0.742, 1.326e-6
-0.743, 1.328e-6
-0.744, 1.330e-6
-0.745, 1.333e-6
-0.746, 1.337e-6
-0.747, 1.338e-6
-0.748, 1.341e-6
-0.749, 1.343e-6
-0.750, 1.347e-6
-0.751, 1.349e-6
-0.752, 1.352e-6
-0.753, 1.354e-6
-0.754, 1.356e-6
-0.755, 1.361e-6
-0.756, 1.364e-6
-0.757, 1.364e-6
-0.758, 1.368e-6
-0.759, 1.369e-6
-0.760, 1.372e-6
-0.761, 1.377e-6
-0.762, 1.378e-6
-0.763, 1.381e-6
-0.764, 1.382e-6
-0.765, 1.385e-6
-0.766, 1.389e-6
-0.767, 1.390e-6
-0.768, 1.394e-6
-0.769, 1.396e-6
-0.770, 1.398e-6
-0.771, 1.403e-6
-0.772, 1.405e-6
-0.773, 1.407e-6
-0.774, 1.410e-6
-0.775, 1.411e-6
-0.776, 1.415e-6
-0.777, 1.418e-6
-0.778, 1.418e-6
-0.779, 1.420e-6
-0.780, 1.424e-6
-0.781, 1.427e-6
-0.782, 1.429e-6
-0.783, 1.432e-6
-0.784, 1.433e-6
-0.785, 1.438e-6
-0.786, 1.440e-6
-0.787, 1.443e-6
-0.788, 1.447e-6
-0.789, 1.446e-6
-0.790, 1.451e-6
-0.791, 1.454e-6
-0.792, 1.455e-6
-0.793, 1.457e-6
-0.794, 1.460e-6
-0.795, 1.463e-6
-0.796, 1.466e-6
-0.797, 1.468e-6
-0.798, 1.472e-6
-0.799, 1.473e-6
-0.800, 1.478e-6
-0.801, 1.481e-6
-0.802, 1.483e-6
-0.803, 1.485e-6
-0.804, 1.487e-6
-0.805, 1.489e-6
-0.806, 1.495e-6
-0.807, 1.495e-6
-0.808, 1.497e-6
-0.809, 1.499e-6
-0.810, 1.502e-6
-0.811, 1.507e-6
-0.812, 1.510e-6
-0.813, 1.510e-6
-0.814, 1.513e-6
-0.815, 1.515e-6
-0.816, 1.520e-6
-0.817, 1.521e-6
-0.818, 1.523e-6
-0.819, 1.529e-6
-0.820, 1.534e-6
-0.821, 1.535e-6
-0.822, 1.538e-6
-0.823, 1.540e-6
-0.824, 1.541e-6
-0.825, 1.545e-6
-0.826, 1.548e-6
-0.827, 1.551e-6
-0.828, 1.553e-6
-0.829, 1.555e-6
-0.830, 1.559e-6
-0.831, 1.562e-6
-0.832, 1.564e-6
-0.833, 1.568e-6
-0.834, 1.569e-6
-0.835, 1.573e-6
-0.836, 1.577e-6
-0.837, 1.578e-6
-0.838, 1.581e-6
-0.839, 1.583e-6
-0.840, 1.584e-6
-0.841, 1.590e-6
-0.842, 1.590e-6
-0.843, 1.594e-6
-0.844, 1.597e-6
-0.845, 1.601e-6
-0.846, 1.606e-6
-0.847, 1.606e-6
-0.848, 1.609e-6
-0.849, 1.611e-6
-0.850, 1.613e-6
-0.851, 1.618e-6
-0.852, 1.621e-6
-0.853, 1.621e-6
-0.854, 1.625e-6
-0.855, 1.629e-6
-0.856, 1.632e-6
-0.857, 1.634e-6
-0.858, 1.636e-6
-0.859, 1.639e-6
-0.860, 1.642e-6
-0.861, 1.645e-6
-0.862, 1.648e-6
-0.863, 1.650e-6
-0.864, 1.651e-6
-0.865, 1.656e-6
-0.866, 1.658e-6
-0.867, 1.661e-6
-0.868, 1.664e-6
-0.869, 1.664e-6
-0.870, 1.670e-6
-0.871, 1.675e-6
-0.872, 1.674e-6
-0.873, 1.679e-6
-0.874, 1.679e-6
-0.875, 1.684e-6
-0.876, 1.688e-6
-0.877, 1.690e-6
-0.878, 1.692e-6
-0.879, 1.695e-6
-0.880, 1.699e-6
-0.881, 1.702e-6
-0.882, 1.704e-6
-0.883, 1.707e-6
-0.884, 1.710e-6
-0.885, 1.714e-6
-0.886, 1.718e-6
-0.887, 1.719e-6
-0.888, 1.723e-6
-0.889, 1.724e-6
-0.890, 1.728e-6
-0.891, 1.732e-6
-0.892, 1.734e-6
-0.893, 1.736e-6
-0.894, 1.740e-6
-0.895, 1.743e-6
-0.896, 1.748e-6
-0.897, 1.751e-6
-0.898, 1.753e-6
-0.899, 1.755e-6
-0.900, 1.759e-6
-0.901, 1.763e-6
-0.902, 1.765e-6
-0.903, 1.767e-6
-0.904, 1.770e-6
-0.905, 1.774e-6
-0.906, 1.778e-6
-0.907, 1.781e-6
-0.908, 1.784e-6
-0.909, 1.785e-6
-0.910, 1.790e-6
-0.911, 1.793e-6
-0.912, 1.796e-6
-0.913, 1.798e-6
-0.914, 1.800e-6
-0.915, 1.806e-6
-0.916, 1.810e-6
-0.917, 1.811e-6
-0.918, 1.815e-6
-0.919, 1.815e-6
-0.920, 1.820e-6
-0.921, 1.825e-6
-0.922, 1.826e-6
-0.923, 1.830e-6
-0.924, 1.832e-6
-0.925, 1.837e-6
-0.926, 1.841e-6
-0.927, 1.842e-6
-0.928, 1.847e-6
-0.929, 1.847e-6
-0.930, 1.853e-6
-0.931, 1.858e-6
-0.932, 1.860e-6
-0.933, 1.863e-6
-0.934, 1.866e-6
-0.935, 1.871e-6
-0.936, 1.875e-6
-0.937, 1.877e-6
-0.938, 1.879e-6
-0.939, 1.881e-6
-0.940, 1.888e-6
-0.941, 1.891e-6
-0.942, 1.895e-6
-0.943, 1.897e-6
-0.944, 1.900e-6
-0.945, 1.905e-6
-0.946, 1.908e-6
-0.947, 1.911e-6
-0.948, 1.914e-6
-0.949, 1.916e-6
-0.950, 1.922e-6
-0.951, 1.926e-6
-0.952, 1.928e-6
-0.953, 1.931e-6
-0.954, 1.934e-6
-0.955, 1.938e-6
-0.956, 1.943e-6
-0.957, 1.946e-6
-0.958, 1.949e-6
-0.959, 1.950e-6
-0.960, 1.956e-6
-0.961, 1.961e-6
-0.962, 1.962e-6
-0.963, 1.965e-6
-0.964, 1.970e-6
-0.965, 1.974e-6
-0.966, 1.980e-6
-0.967, 1.982e-6
-0.968, 1.985e-6
-0.969, 1.987e-6
-0.970, 1.992e-6
-0.971, 1.996e-6
-0.972, 2.001e-6
-0.973, 2.007e-6
-0.974, 2.008e-6
-0.975, 2.011e-6
-0.976, 2.017e-6
-0.977, 2.019e-6
-0.978, 2.022e-6
-0.979, 2.026e-6
-0.980, 2.032e-6
-0.981, 2.036e-6
-0.982, 2.039e-6
-0.983, 2.042e-6
-0.984, 2.045e-6
-0.985, 2.051e-6
-0.986, 2.055e-6
-0.987, 2.059e-6
-0.988, 2.062e-6
-0.989, 2.065e-6
-0.990, 2.070e-6
-0.991, 2.075e-6
-0.992, 2.078e-6
-0.993, 2.081e-6
-0.994, 2.085e-6
-0.995, 2.090e-6
-0.996, 2.095e-6
-0.997, 2.098e-6
-0.998, 2.104e-6
-0.999, 2.107e-6
-1.000, 2.111e-6
-1.001, 2.118e-6
-1.002, 2.120e-6
-1.003, 2.124e-6
-1.004, 2.127e-6
-1.005, 2.132e-6
-1.006, 2.138e-6
-1.007, 2.141e-6
-1.008, 2.143e-6
-1.009, 2.148e-6
-1.010, 2.154e-6
-1.011, 2.159e-6
-1.012, 2.163e-6
-1.013, 2.166e-6
-1.014, 2.170e-6
-1.015, 2.173e-6
-1.016, 2.179e-6
-1.017, 2.183e-6
-1.018, 2.187e-6
-1.019, 2.192e-6
-1.020, 2.197e-6
-1.021, 2.200e-6
-1.022, 2.204e-6
-1.023, 2.207e-6
-1.024, 2.214e-6
-1.025, 2.219e-6
-1.026, 2.222e-6
-1.027, 2.226e-6
-1.028, 2.229e-6
-1.029, 2.232e-6
-1.030, 2.239e-6
-1.031, 2.244e-6
-1.032, 2.246e-6
-1.033, 2.250e-6
-1.034, 2.254e-6
-1.035, 2.259e-6
-1.036, 2.264e-6
-1.037, 2.267e-6
-1.038, 2.273e-6
-1.039, 2.275e-6
-1.040, 2.283e-6
-1.041, 2.288e-6
-1.042, 2.290e-6
-1.043, 2.296e-6
-1.044, 2.298e-6
-1.045, 2.303e-6
-1.046, 2.308e-6
-1.047, 2.312e-6
-1.048, 2.316e-6
-1.049, 2.321e-6
-1.050, 2.326e-6
-1.051, 2.332e-6
-1.052, 2.334e-6
-1.053, 2.337e-6
-1.054, 2.343e-6
-1.055, 2.347e-6
-1.056, 2.352e-6
-1.057, 2.357e-6
-1.058, 2.361e-6
-1.059, 2.364e-6
-1.060, 2.370e-6
-1.061, 2.376e-6
-1.062, 2.381e-6
-1.063, 2.384e-6
-1.064, 2.387e-6
-1.065, 2.395e-6
-1.066, 2.398e-6
-1.067, 2.401e-6
-1.068, 2.406e-6
-1.069, 2.410e-6
-1.070, 2.415e-6
-1.071, 2.419e-6
-1.072, 2.422e-6
-1.073, 2.427e-6
-1.074, 2.429e-6
-1.075, 2.438e-6
-1.076, 2.442e-6
-1.077, 2.444e-6
-1.078, 2.447e-6
-1.079, 2.452e-6
-1.080, 2.458e-6
-1.081, 2.462e-6
-1.082, 2.464e-6
-1.083, 2.470e-6
-1.084, 2.473e-6
-1.085, 2.477e-6
-1.086, 2.482e-6
-1.087, 2.485e-6
-1.088, 2.490e-6
-1.089, 2.494e-6
-1.090, 2.499e-6
-1.091, 2.504e-6
-1.092, 2.507e-6
-1.093, 2.509e-6
-1.094, 2.515e-6
-1.095, 2.521e-6
-1.096, 2.525e-6
-1.097, 2.528e-6
-1.098, 2.532e-6
-1.099, 2.535e-6
-1.100, 2.542e-6
-1.101, 2.546e-6
-1.102, 2.549e-6
-1.103, 2.554e-6
-1.104, 2.556e-6
-1.105, 2.562e-6
-1.106, 2.568e-6
-1.107, 2.570e-6
-1.108, 2.575e-6
-1.109, 2.578e-6
-1.110, 2.583e-6
-1.111, 2.587e-6
-1.112, 2.589e-6
-1.113, 2.594e-6
-1.114, 2.598e-6
-1.115, 2.605e-6
-1.116, 2.608e-6
-1.117, 2.611e-6
-1.118, 2.616e-6
-1.119, 2.619e-6
-1.120, 2.626e-6
-1.121, 2.632e-6
-1.122, 2.631e-6
-1.123, 2.636e-6
-1.124, 2.639e-6
-1.125, 2.645e-6
-1.126, 2.650e-6
-1.127, 2.653e-6
-1.128, 2.657e-6
-1.129, 2.662e-6
-1.130, 2.666e-6
-1.131, 2.671e-6
-1.132, 2.673e-6
-1.133, 2.675e-6
-1.134, 2.679e-6
-1.135, 2.683e-6
-1.136, 2.687e-6
-1.137, 2.692e-6
-1.138, 2.696e-6
-1.139, 2.701e-6
-1.140, 2.706e-6
-1.141, 2.711e-6
-1.142, 2.713e-6
-1.143, 2.715e-6
-1.144, 2.718e-6
-1.145, 2.724e-6
-1.146, 2.727e-6
-1.147, 2.729e-6
-1.148, 2.733e-6
-1.149, 2.735e-6
-1.150, 2.741e-6
-1.151, 2.746e-6
-1.152, 2.750e-6
-1.153, 2.752e-6
-1.154, 2.755e-6
-1.155, 2.761e-6
-1.156, 2.766e-6
-1.157, 2.769e-6
-1.158, 2.774e-6
-1.159, 2.777e-6
-1.160, 2.783e-6
-1.161, 2.787e-6
-1.162, 2.788e-6
-1.163, 2.791e-6
-1.164, 2.794e-6
-1.165, 2.799e-6
-1.166, 2.805e-6
-1.167, 2.807e-6
-1.168, 2.812e-6
-1.169, 2.817e-6
-1.170, 2.820e-6
-1.171, 2.825e-6
-1.172, 2.827e-6
-1.173, 2.830e-6
-1.174, 2.834e-6
-1.175, 2.839e-6
-1.176, 2.843e-6
-1.177, 2.847e-6
-1.178, 2.852e-6
-1.179, 2.855e-6
-1.180, 2.859e-6
-1.181, 2.862e-6
-1.182, 2.864e-6
-1.183, 2.867e-6
-1.184, 2.870e-6
-1.185, 2.877e-6
-1.186, 2.880e-6
-1.187, 2.883e-6
-1.188, 2.886e-6
-1.189, 2.889e-6
-1.190, 2.894e-6
-1.191, 2.898e-6
-1.192, 2.900e-6
-1.193, 2.906e-6
-1.194, 2.909e-6
-1.195, 2.915e-6
-1.196, 2.919e-6
-1.197, 2.921e-6
-1.198, 2.924e-6
-1.199, 2.926e-6
-1.200, 2.933e-6
-1.201, 2.936e-6
-1.202, 2.939e-6
-1.203, 2.943e-6
-1.204, 2.948e-6
-1.205, 2.952e-6
-1.206, 2.956e-6
-1.207, 2.958e-6
-1.208, 2.964e-6
-1.209, 2.968e-6
-1.210, 2.973e-6
-1.211, 2.978e-6
-1.212, 2.979e-6
-1.213, 2.981e-6
-1.214, 2.985e-6
-1.215, 2.990e-6
-1.216, 2.995e-6
-1.217, 2.998e-6
-1.218, 3.002e-6
-1.219, 3.006e-6
-1.220, 3.010e-6
-1.221, 3.014e-6
-1.222, 3.018e-6
-1.223, 3.022e-6
-1.224, 3.026e-6
-1.225, 3.031e-6
-1.226, 3.033e-6
-1.227, 3.036e-6
-1.228, 3.041e-6
-1.229, 3.052e-6
-1.230, 3.055e-6
-1.231, 3.056e-6
-1.232, 3.059e-6
-1.233, 3.063e-6
-1.234, 3.065e-6
-1.235, 3.073e-6
-1.236, 3.076e-6
-1.237, 3.078e-6
-1.238, 3.083e-6
-1.239, 3.086e-6
-1.240, 3.090e-6
-1.241, 3.095e-6
-1.242, 3.098e-6
-1.243, 3.101e-6
-1.244, 3.106e-6
-1.245, 3.111e-6
-1.246, 3.119e-6
-1.247, 3.122e-6
-1.248, 3.123e-6
-1.249, 3.129e-6
-1.250, 3.133e-6
-1.251, 3.139e-6
-1.252, 3.142e-6
-1.253, 3.144e-6
-1.254, 3.149e-6
-1.255, 3.154e-6
-1.256, 3.159e-6
-1.257, 3.163e-6
-1.258, 3.164e-6
-1.259, 3.169e-6
-1.260, 3.175e-6
-1.261, 3.180e-6
-1.262, 3.184e-6
-1.263, 3.187e-6
-1.264, 3.192e-6
-1.265, 3.197e-6
-1.266, 3.200e-6
-1.267, 3.206e-6
-1.268, 3.209e-6
-1.269, 3.213e-6
-1.270, 3.221e-6
-1.271, 3.223e-6
-1.272, 3.226e-6
-1.273, 3.231e-6
-1.274, 3.234e-6
-1.275, 3.241e-6
-1.276, 3.245e-6
-1.277, 3.248e-6
-1.278, 3.254e-6
-1.279, 3.257e-6
-1.280, 3.267e-6
-1.281, 3.272e-6
-1.282, 3.273e-6
-1.283, 3.278e-6
-1.284, 3.284e-6
-1.285, 3.289e-6
-1.286, 3.295e-6
-1.287, 3.298e-6
-1.288, 3.303e-6
-1.289, 3.308e-6
-1.290, 3.316e-6
-1.291, 3.322e-6
-1.292, 3.327e-6
-1.293, 3.332e-6
-1.294, 3.338e-6
-1.295, 3.345e-6
-1.296, 3.350e-6
-1.297, 3.356e-6
-1.298, 3.360e-6
-1.299, 3.367e-6
-1.300, 3.374e-6
-1.301, 3.380e-6
-1.302, 3.387e-6
-1.303, 3.393e-6
-1.304, 3.401e-6
-1.305, 3.410e-6
-1.306, 3.417e-6
-1.307, 3.422e-6
-1.308, 3.427e-6
-1.309, 3.434e-6
-1.310, 3.445e-6
-1.311, 3.451e-6
-1.312, 3.459e-6
-1.313, 3.468e-6
-1.314, 3.476e-6
-1.315, 3.486e-6
-1.316, 3.494e-6
-1.317, 3.498e-6
-1.318, 3.506e-6
-1.319, 3.514e-6
-1.320, 3.525e-6
-1.321, 3.535e-6
-1.322, 3.541e-6
-1.323, 3.551e-6
-1.324, 3.560e-6
-1.325, 3.571e-6
-1.326, 3.581e-6
-1.327, 3.590e-6
-1.328, 3.599e-6
-1.329, 3.612e-6
-1.330, 3.623e-6
-1.331, 3.635e-6
-1.332, 3.645e-6
-1.333, 3.652e-6
-1.334, 3.665e-6
-1.335, 3.677e-6
-1.336, 3.688e-6
-1.337, 3.699e-6
-1.338, 3.707e-6
-1.339, 3.722e-6
-1.340, 3.734e-6
-1.341, 3.743e-6
-1.342, 3.754e-6
-1.343, 3.763e-6
-1.344, 3.778e-6
-1.345, 3.792e-6
-1.346, 3.803e-6
-1.347, 3.814e-6
-1.348, 3.824e-6
-1.349, 3.835e-6
-1.350, 3.851e-6
-1.351, 3.861e-6
-1.352, 3.872e-6
-1.353, 3.884e-6
-1.354, 3.895e-6
-1.355, 3.909e-6
-1.356, 3.920e-6
-1.357, 3.930e-6
-1.358, 3.941e-6
-1.359, 3.951e-6
-1.360, 3.965e-6
-1.361, 3.976e-6
-1.362, 3.984e-6
-1.363, 3.995e-6
-1.364, 4.007e-6
-1.365, 4.020e-6
-1.366, 4.030e-6
-1.367, 4.039e-6
-1.368, 4.048e-6
-1.369, 4.060e-6
-1.370, 4.071e-6
-1.371, 4.082e-6
-1.372, 4.091e-6
-1.373, 4.099e-6
-1.374, 4.110e-6
-1.375, 4.122e-6
-1.376, 4.132e-6
-1.377, 4.140e-6
-1.378, 4.149e-6
-1.379, 4.162e-6
-1.380, 4.173e-6
-1.381, 4.181e-6
-1.382, 4.190e-6
-1.383, 4.198e-6
-1.384, 4.206e-6
-1.385, 4.218e-6
-1.386, 4.223e-6
-1.387, 4.233e-6
-1.388, 4.240e-6
-1.389, 4.249e-6
-1.390, 4.262e-6
-1.391, 4.268e-6
-1.392, 4.276e-6
-1.393, 4.287e-6
-1.394, 4.295e-6
-1.395, 4.307e-6
-1.396, 4.317e-6
-1.397, 4.322e-6
-1.398, 4.331e-6
-1.399, 4.339e-6
-1.400, 4.348e-6
-1.401, 4.357e-6
-1.402, 4.363e-6
-1.403, 4.372e-6
-1.404, 4.381e-6
-1.405, 4.391e-6
-1.406, 4.400e-6
-1.407, 4.408e-6
-1.408, 4.414e-6
-1.409, 4.423e-6
-1.410, 4.432e-6
-1.411, 4.440e-6
-1.412, 4.448e-6
-1.413, 4.452e-6
-1.414, 4.465e-6
-1.415, 4.472e-6
-1.416, 4.480e-6
-1.417, 4.488e-6
-1.418, 4.493e-6
-1.419, 4.503e-6
-1.420, 4.512e-6
-1.421, 4.519e-6
-1.422, 4.529e-6
-1.423, 4.533e-6
-1.424, 4.542e-6
-1.425, 4.554e-6
-1.426, 4.559e-6
-1.427, 4.568e-6
-1.428, 4.574e-6
-1.429, 4.582e-6
-1.430, 4.592e-6
-1.431, 4.597e-6
-1.432, 4.604e-6
-1.433, 4.611e-6
-1.434, 4.622e-6
-1.435, 4.632e-6
-1.436, 4.639e-6
-1.437, 4.642e-6
-1.438, 4.652e-6
-1.439, 4.659e-6
-1.440, 4.670e-6
-1.441, 4.675e-6
-1.442, 4.681e-6
-1.443, 4.688e-6
-1.444, 4.696e-6
-1.445, 4.705e-6
-1.446, 4.714e-6
-1.447, 4.720e-6
-1.448, 4.725e-6
-1.449, 4.734e-6
-1.450, 4.742e-6
-1.451, 4.750e-6
-1.452, 4.757e-6
-1.453, 4.761e-6
-1.454, 4.772e-6
-1.455, 4.781e-6
-1.456, 4.787e-6
-1.457, 4.795e-6
-1.458, 4.801e-6
-1.459, 4.812e-6
-1.460, 4.823e-6
-1.461, 4.827e-6
-1.462, 4.837e-6
-1.463, 4.842e-6
-1.464, 4.850e-6
-1.465, 4.861e-6
-1.466, 4.867e-6
-1.467, 4.874e-6
-1.468, 4.883e-6
-1.469, 4.889e-6
-1.470, 4.903e-6
-1.471, 4.909e-6
-1.472, 4.917e-6
-1.473, 4.926e-6
-1.474, 4.933e-6
-1.475, 4.947e-6
-1.476, 4.954e-6
-1.477, 4.962e-6
-1.478, 4.973e-6
-1.479, 4.982e-6
-1.480, 4.994e-6
-1.481, 5.001e-6
-1.482, 5.009e-6
-1.483, 5.020e-6
-1.484, 5.031e-6
-1.485, 5.049e-6
-1.486, 5.060e-6
-1.487, 5.068e-6
-1.488, 5.077e-6
-1.489, 5.089e-6
-1.490, 5.100e-6
-1.491, 5.112e-6
-1.492, 5.124e-6
-1.493, 5.133e-6
-1.494, 5.147e-6
-1.495, 5.161e-6
-1.496, 5.172e-6
-1.497, 5.185e-6
-1.498, 5.196e-6
-1.499, 5.211e-6
-1.500, 5.226e-6
-1.501, 5.240e-6
-1.502, 5.252e-6
-1.503, 5.265e-6
-1.504, 5.281e-6
-1.505, 5.301e-6
-1.506, 5.313e-6
-1.507, 5.327e-6
-1.508, 5.343e-6
-1.509, 5.359e-6
-1.510, 5.381e-6
-1.511, 5.395e-6
-1.512, 5.411e-6
-1.513, 5.428e-6
-1.514, 5.445e-6
-1.515, 5.469e-6
-1.516, 5.486e-6
-1.517, 5.504e-6
-1.518, 5.524e-6
-1.519, 5.542e-6
-1.520, 5.567e-6
-1.521, 5.588e-6
-1.522, 5.605e-6
-1.523, 5.629e-6
-1.524, 5.650e-6
-1.525, 5.674e-6
-1.526, 5.699e-6
-1.527, 5.721e-6
-1.528, 5.744e-6
-1.529, 5.771e-6
-1.530, 5.798e-6
-1.531, 5.823e-6
-1.532, 5.848e-6
-1.533, 5.869e-6
-1.534, 5.898e-6
-1.535, 5.924e-6
-1.536, 5.951e-6
-1.537, 5.981e-6
-1.538, 6.006e-6
-1.539, 6.041e-6
-1.540, 6.072e-6
-1.541, 6.101e-6
-1.542, 6.133e-6
-1.543, 6.162e-6
-1.544, 6.193e-6
-1.545, 6.227e-6
-1.546, 6.258e-6
-1.547, 6.295e-6
-1.548, 6.329e-6
-1.549, 6.368e-6
-1.550, 6.408e-6
-1.551, 6.442e-6
-1.552, 6.479e-6
-1.553, 6.518e-6
-1.554, 6.559e-6
-1.555, 6.604e-6
-1.556, 6.643e-6
-1.557, 6.681e-6
-1.558, 6.724e-6
-1.559, 6.769e-6
-1.560, 6.816e-6
-1.561, 6.862e-6
-1.562, 6.904e-6
-1.563, 6.949e-6
-1.564, 7.001e-6
-1.565, 7.051e-6
-1.566, 7.102e-6
-1.567, 7.148e-6
-1.568, 7.199e-6
-1.569, 7.255e-6
-1.570, 7.306e-6
-1.571, 7.361e-6
-1.572, 7.414e-6
-1.573, 7.469e-6
-1.574, 7.528e-6
-1.575, 7.587e-6
-1.576, 7.646e-6
-1.577, 7.706e-6
-1.578, 7.764e-6
-1.579, 7.830e-6
-1.580, 7.900e-6
-1.581, 7.962e-6
-1.582, 8.029e-6
-1.583, 8.092e-6
-1.584, 8.162e-6
-1.585, 8.237e-6
-1.586, 8.309e-6
-1.587, 8.381e-6
-1.588, 8.455e-6
-1.589, 8.530e-6
-1.590, 8.606e-6
-1.591, 8.681e-6
-1.592, 8.756e-6
-1.593, 8.836e-6
-1.594, 8.916e-6
-1.595, 9.002e-6
-1.596, 9.084e-6
-1.597, 9.168e-6
-1.598, 9.256e-6
-1.599, 9.346e-6
-1.600, 9.437e-6
-1.601, 9.528e-6
-1.602, 9.615e-6
-1.603, 9.711e-6
-1.604, 9.810e-6
-1.605, 9.908e-6
-1.606, 1.001e-5
-1.607, 1.011e-5
-1.608, 1.021e-5
-1.609, 1.031e-5
-1.610, 1.041e-5
-1.611, 1.052e-5
-1.612, 1.063e-5
-1.613, 1.074e-5
-1.614, 1.086e-5
-1.615, 1.098e-5
-1.616, 1.109e-5
-1.617, 1.121e-5
-1.618, 1.133e-5
-1.619, 1.146e-5
-1.620, 1.158e-5
-1.621, 1.171e-5
-1.622, 1.184e-5
-1.623, 1.197e-5
-1.624, 1.209e-5
-1.625, 1.222e-5
-1.626, 1.236e-5
-1.627, 1.250e-5
-1.628, 1.264e-5
-1.629, 1.279e-5
-1.630, 1.293e-5
-1.631, 1.308e-5
-1.632, 1.323e-5
-1.633, 1.338e-5
-1.634, 1.354e-5
-1.635, 1.369e-5
-1.636, 1.385e-5
-1.637, 1.400e-5
-1.638, 1.417e-5
-1.639, 1.435e-5
-1.640, 1.451e-5
-1.641, 1.469e-5
-1.642, 1.486e-5
-1.643, 1.505e-5
-1.644, 1.522e-5
-1.645, 1.540e-5
-1.646, 1.559e-5
-1.647, 1.578e-5
-1.648, 1.597e-5
-1.649, 1.615e-5
-1.650, 1.629e-5
-1.651, 1.644e-5
-1.652, 1.662e-5
-1.653, 1.683e-5
-1.654, 1.705e-5
-1.655, 1.727e-5
-1.656, 1.748e-5
-1.657, 1.769e-5
-1.658, 1.791e-5
-1.659, 1.814e-5
-1.660, 1.836e-5
-1.661, 1.858e-5
-1.662, 1.879e-5
-1.663, 1.896e-5
-1.664, 1.919e-5
-1.665, 1.945e-5
-1.666, 1.972e-5
-1.667, 1.999e-5
-1.668, 2.029e-5
-1.669, 2.052e-5
-1.670, 2.078e-5
-1.671, 2.106e-5
-1.672, 2.132e-5
-1.673, 2.159e-5
-1.674, 2.183e-5
-1.675, 2.210e-5
-1.676, 2.236e-5
-1.677, 2.263e-5
-1.678, 2.294e-5
-1.679, 2.323e-5
-1.680, 2.357e-5
-1.681, 2.386e-5
-1.682, 2.421e-5
-1.683, 2.449e-5
-1.684, 2.481e-5
-1.685, 2.517e-5
-1.686, 2.555e-5
-1.687, 2.589e-5
-1.688, 2.621e-5
-1.689, 2.661e-5
-1.690, 2.699e-5
-1.691, 2.734e-5
-1.692, 2.766e-5
-1.693, 2.802e-5
-1.694, 2.840e-5
-1.695, 2.881e-5
-1.696, 2.922e-5
-1.697, 2.963e-5
-1.698, 3.006e-5
-1.699, 3.048e-5
