Potential V vs RHE, Current mA cm-2
0.4132999999999999,-0.0025719451431546365
0.4122999999999999,-0.004450681749375406
0.4112999999999999,-0.005051934051818046
0.4102999999999999,-0.005322143910092268
0.4092999999999999,-0.005549912429370539
0.4082999999999999,-0.005760704413050429
0.4072999999999999,-0.0059884729323287
0.4062999999999999,-0.006093161568518714
0.4052999999999999,-0.0061992649160085905
0.4042999999999999,-0.006296879995699278
0.4032999999999999,-0.006431277569186457
0.4022999999999999,-0.006586895812171611
0.4012999999999999,-0.006654801954565132
0.4002999999999999,-0.006707146272660138
0.3992999999999999,-0.006796273084551636
0.3982999999999999,-0.0069023764320415145
0.3972999999999999,-0.006994332666532741
0.3962999999999999,-0.007073556499325183
0.3952999999999999,-0.007080630055824508
0.3942999999999999,-0.007135803796519245
0.39329999999999987,-0.007229174742310337
0.39229999999999987,-0.007346595780199136
0.39129999999999987,-0.007372060583596706
0.39029999999999987,-0.007396110675694412
0.38929999999999987,-0.0074498697050892826
0.38829999999999987,-0.00755597305257916
0.38729999999999987,-0.007626708617572412
0.38629999999999987,-0.0076946147599659355
0.38529999999999986,-0.00771583542946391
0.38429999999999986,-0.007734226676362155
0.38329999999999986,-0.007817694643054193
0.38229999999999986,-0.007891259630647175
0.38129999999999986,-0.007908236166245555
0.38029999999999986,-0.007928042124443665
0.37929999999999986,-0.00795209221654137
0.37829999999999986,-0.008021413070234759
0.37729999999999986,-0.00812044286122531
0.37629999999999986,-0.008127516417724636
0.37529999999999986,-0.00814873708722261
0.37429999999999986,-0.008155810643721936
0.37329999999999985,-0.008230790342614784
0.37229999999999985,-0.00832840542230547
0.37129999999999985,-0.008348211380503581
0.37029999999999985,-0.008334064267504932
0.36929999999999985,-0.008360943782202368
0.36829999999999985,-0.00841753223419697
0.36729999999999985,-0.008502414912188871
0.36629999999999985,-0.008543441539884955
0.36529999999999985,-0.00852505029298671
0.36429999999999985,-0.008567491631982662
0.36329999999999985,-0.008591541724080368
0.36229999999999984,-0.008675009690772404
0.36129999999999984,-0.008708962761969165
0.36029999999999984,-0.008718865741068222
0.35929999999999984,-0.008749989389665251
0.35829999999999984,-0.008785357172161877
0.35729999999999984,-0.008864581004954318
0.35629999999999984,-0.008898534076151082
0.35529999999999984,-0.008867410427554049
0.35429999999999984,-0.008894289942251485
0.35329999999999984,-0.008953707816845817
0.35229999999999984,-0.009032931649638259
0.35129999999999983,-0.009082446545133535
0.35029999999999983,-0.009062640586935424
0.34929999999999983,-0.009059811164335695
0.34829999999999983,-0.009126302595429353
0.34729999999999983,-0.009229576520319499
0.34629999999999983,-0.009229576520319499
0.34529999999999983,-0.009225332386419904
0.34429999999999983,-0.009226747097719768
0.3432999999999998,-0.009290409106213695
0.3422999999999998,-0.009349826980808027
0.3412999999999998,-0.009382365340704923
0.3402999999999998,-0.009396512453703574
0.3392999999999998,-0.009388024185904384
0.3382999999999998,-0.00944036850399939
0.3372999999999998,-0.009523836470691428
0.3362999999999998,-0.009528080604591021
0.3352999999999998,-0.009526665893291156
0.3342999999999998,-0.009546471851489267
0.3332999999999998,-0.009597401458284409
0.3322999999999998,-0.009666722311977795
0.3312999999999998,-0.009683698847576177
0.3302999999999998,-0.0096907724040755
0.3292999999999998,-0.009696431249274962
0.3282999999999998,-0.009737457876971048
0.3272999999999998,-0.00981385228716376
0.3262999999999998,-0.009835072956661734
0.3252999999999999,-0.00982799940016241
0.3242999999999999,-0.00982799940016241
0.3232999999999999,-0.009873270161758091
0.3222999999999999,-0.009960982262349724
0.3212999999999999,-0.010009082446545133
0.3202999999999999,-0.009989276488347024
0.3192999999999999,-0.009999179467446079
0.3182999999999999,-0.010038791383842298
0.3172999999999999,-0.010119429927934607
0.3162999999999999,-0.010147724153931907
0.3152999999999999,-0.010130747618333527
0.3142999999999999,-0.010146309442632043
0.3132999999999999,-0.010188750781627993
0.3122999999999999,-0.010255242212721652
0.3112999999999999,-0.010313245376016118
0.3102999999999999,-0.010290609995218277
0.3092999999999999,-0.010331636622914362
0.3082999999999999,-0.0103868103636091
0.3072999999999999,-0.010467448907701406
0.3062999999999999,-0.010505646112797763
0.3052999999999999,-0.010491498999799113
0.3042999999999999,-0.010471693041601003
0.3032999999999999,-0.010532525627495199
0.3022999999999999,-0.01059477292468926
0.3012999999999999,-0.01062589657328629
0.3002999999999999,-0.010624481861986425
0.2992999999999999,-0.010644287820184535
0.2982999999999999,-0.010696632138279542
0.2972999999999999,-0.010757464724173738
0.2962999999999999,-0.010806979619669015
0.2952999999999999,-0.010806979619669015
0.2942999999999999,-0.01081688259876807
0.2932999999999999,-0.010863568071663617
0.2922999999999999,-0.010937133059256598
0.2912999999999999,-0.010988062666051741
0.2902999999999999,-0.010988062666051741
0.2892999999999999,-0.011005039201650121
0.2882999999999999,-0.011040406984146746
0.2872999999999999,-0.011132363218637975
0.2862999999999999,-0.01116207215593514
0.2852999999999999,-0.011157828022035543
0.2842999999999999,-0.011194610515832037
0.2832999999999999,-0.011214416474030146
0.2822999999999999,-0.011302128574621777
0.2812999999999999,-0.011354472892716785
0.2802999999999999,-0.011358717026616378
0.2792999999999999,-0.011391255386513276
0.2782999999999999,-0.011432282014209361
0.2772999999999999,-0.011519994114800992
0.2762999999999999,-0.011559606031197215
0.2752999999999999,-0.01158082670069519
0.2742999999999999,-0.011589314968494382
0.2732999999999999,-0.011645903420488983
0.2722999999999999,-0.011719468408081964
0.2712999999999999,-0.01177747157137643
0.2702999999999999,-0.011801521663474136
0.2692999999999999,-0.011821327621672246
0.26829999999999987,-0.011899136743164824
0.26729999999999987,-0.011955725195159425
0.26629999999999987,-0.012020801914953217
0.26529999999999987,-0.012056169697449843
0.26429999999999987,-0.012090122768646605
0.26329999999999987,-0.01214812593194107
0.26229999999999987,-0.012221690919534053
0.26129999999999987,-0.012283938216728112
0.26029999999999986,-0.012276864660228788
0.25929999999999986,-0.012306573597525955
0.25829999999999986,-0.01237589445121934
0.25729999999999986,-0.012469265397010435
0.25629999999999986,-0.012515950869905978
0.25529999999999986,-0.012537171539403955
0.25429999999999986,-0.012558392208901932
0.25329999999999986,-0.012607907104397208
0.25229999999999986,-0.012716839874486815
0.25129999999999986,-0.012763525347382362
0.25029999999999986,-0.01278333130558047
0.24929999999999986,-0.012801722552478717
0.24829999999999985,-0.012849822736674128
0.24729999999999985,-0.012953096661564276
0.24629999999999985,-0.013005440979659283
0.24529999999999985,-0.013035149916956448
0.24429999999999985,-0.013076176544652533
0.24329999999999985,-0.01311437374974889
0.24229999999999985,-0.013202085850340523
0.24129999999999985,-0.013272821415333773
0.24029999999999985,-0.013271406704033909
0.23929999999999985,-0.013292627373531886
0.23829999999999985,-0.013349215825526487
0.23729999999999984,-0.013442586771317579
0.23629999999999984,-0.01350483406851164
0.23529999999999984,-0.013503419357211773
0.23429999999999984,-0.0135387871397084
0.23329999999999984,-0.013581228478704351
0.23229999999999984,-0.01367601413579531
0.23129999999999984,-0.01374957912338829
0.23029999999999984,-0.013767970370286538
0.22929999999999984,-0.013775043926785864
0.22829999999999984,-0.013823144110981272
0.22729999999999984,-0.013915100345472501
0.22629999999999983,-0.013995738889564808
0.22529999999999983,-0.01401271542516319
0.22429999999999983,-0.014016959559062781
0.22329999999999983,-0.01407496272235725
0.22229999999999983,-0.014147112998650365
0.22129999999999983,-0.014217848563643616
0.22029999999999983,-0.01426028990263957
0.21929999999999983,-0.014288584128636872
0.21829999999999983,-0.014331025467632824
0.21729999999999983,-0.014430055258623373
0.21629999999999983,-0.014472496597619325
0.21529999999999982,-0.014486643710617976
0.21429999999999982,-0.014543232162612576
0.21329999999999982,-0.014585673501608528
0.21229999999999982,-0.014684703292599082
0.21129999999999982,-0.014741291744593682
0.21029999999999982,-0.014769585970590984
0.20929999999999982,-0.014797880196588285
0.20829999999999982,-0.014854468648582884
0.20729999999999982,-0.014953498439573438
0.20629999999999982,-0.015024234004566688
0.20529999999999982,-0.01503838111756534
0.20429999999999982,-0.015066675343562642
0.20329999999999981,-0.015137410908555892
0.2022999999999998,-0.015264734925543746
0.2012999999999998,-0.015349617603535646
0.20029999999999992,-0.015377911829532949
0.19929999999999992,-0.015406206055530251
0.19829999999999992,-0.015420353168528897
0.19729999999999992,-0.015476941620523503
0.19629999999999992,-0.015561824298515404
0.19529999999999992,-0.015561824298515404
0.19429999999999992,-0.015646706976507305
0.19329999999999992,-0.015703295428501907
0.19229999999999992,-0.01575988388049651
0.19129999999999991,-0.01584476655848841
0.1902999999999999,-0.01584476655848841
0.1892999999999999,-0.01585891367148706
0.1882999999999999,-0.015901355010483013
0.1872999999999999,-0.015986237688474913
0.1862999999999999,-0.016056973253468165
0.1852999999999999,-0.016071120366466816
0.1842999999999999,-0.016071120366466816
0.1832999999999999,-0.01611356170546277
0.1822999999999999,-0.016212591496453318
0.1812999999999999,-0.01629747417444522
0.1802999999999999,-0.016325768400442524
0.1792999999999999,-0.016339915513441175
0.1782999999999999,-0.016368209739438477
0.1772999999999999,-0.016453092417430374
0.1762999999999999,-0.01652382798242363
0.1752999999999999,-0.016552122208420932
0.1742999999999999,-0.01656626932141958
0.1732999999999999,-0.01659456354741688
0.1722999999999999,-0.016693593338407434
0.1712999999999999,-0.016764328903400686
0.1702999999999999,-0.016778476016399334
0.1692999999999999,-0.016820917355395284
0.1682999999999999,-0.016849211581392583
0.1672999999999999,-0.016948241372383138
0.1662999999999999,-0.017018976937376393
0.1652999999999999,-0.017018976937376393
0.1642999999999999,-0.017047271163373692
0.1632999999999999,-0.017075565389370995
0.1622999999999999,-0.017188742293360197
0.1612999999999999,-0.017259477858353446
0.1602999999999999,-0.017259477858353446
0.1592999999999999,-0.01731606631034805
0.15829999999999989,-0.0173302134233467
0.15729999999999988,-0.0174150961013386
0.15629999999999988,-0.017499978779330502
0.15529999999999988,-0.017514125892329157
0.15429999999999988,-0.0175282730053278
0.15329999999999988,-0.017556567231325104
0.15229999999999988,-0.017641449909317007
0.15129999999999988,-0.01774047970030756
0.15029999999999988,-0.017754626813306213
0.14929999999999988,-0.01776877392630486
0.14829999999999988,-0.017797068152302163
0.14729999999999988,-0.017881950830294063
0.14629999999999987,-0.017995127734283266
0.14529999999999987,-0.018023421960280565
0.14429999999999987,-0.018051716186277867
0.14329999999999987,-0.018108304638272472
0.14229999999999987,-0.018193187316264375
0.14129999999999987,-0.018235628655260322
0.14029999999999987,-0.018249775768258973
0.13929999999999987,-0.018235628655260322
0.13829999999999987,-0.018292217107254923
0.13729999999999987,-0.018377099785246823
0.13629999999999987,-0.018447835350240076
0.13529999999999986,-0.01847612957623738
0.13429999999999986,-0.01849027668923603
0.13329999999999986,-0.01850442380223468
0.13229999999999986,-0.01858930648022658
0.13129999999999986,-0.018660042045219833
0.13029999999999986,-0.018688336271217135
0.12929999999999986,-0.018688336271217135
0.12829999999999986,-0.018716630497214438
0.12729999999999986,-0.018815660288204986
0.12629999999999986,-0.018886395853198238
0.12529999999999986,-0.018900542966196893
0.12429999999999986,-0.01892883719219419
0.12329999999999985,-0.018942984305192843
0.12229999999999985,-0.019013719870186095
0.12129999999999985,-0.019098602548177995
0.12029999999999985,-0.019112749661176646
0.11929999999999985,-0.019126896774175294
0.11829999999999985,-0.019141043887173945
0.11729999999999985,-0.019240073678164497
0.11629999999999985,-0.0193249563561564
0.11529999999999985,-0.0193249563561564
0.11429999999999985,-0.01933910346915505
0.11329999999999985,-0.019367397695152354
0.11229999999999984,-0.019438133260145606
0.11129999999999984,-0.019537163051136158
0.11029999999999984,-0.019551310164134805
0.10929999999999984,-0.019551310164134805
0.10829999999999984,-0.019622045729128058
0.10729999999999984,-0.01965033995512536
0.10629999999999984,-0.019721075520118612
0.10529999999999984,-0.019763516859114563
0.10429999999999984,-0.019749369746115915
0.10329999999999984,-0.019791811085111865
0.10229999999999984,-0.019834252424107815
0.10129999999999983,-0.019919135102099715
0.10029999999999983,-0.019947429328097017
0.09929999999999983,-0.019933282215098366
0.09829999999999983,-0.01997572355409432
0.09729999999999983,-0.02003231200608892
0.09629999999999983,-0.020103047571082173
0.09529999999999983,-0.02011719468408082
0.09429999999999983,-0.020145488910078124
0.09329999999999983,-0.020145488910078124
0.09229999999999983,-0.020216224475071376
0.09129999999999983,-0.020315254266061927
0.09029999999999982,-0.02032940137906058
0.08929999999999982,-0.020343548492059226
0.08829999999999982,-0.020371842718056525
0.08729999999999982,-0.02045672539604843
0.08629999999999982,-0.020513313848043033
0.08529999999999982,-0.02052746096104168
0.08429999999999982,-0.020541608074040336
0.08329999999999982,-0.02055575518703898
0.08229999999999982,-0.020626490752032236
0.08129999999999982,-0.02071137343002414
0.08029999999999982,-0.02071137343002414
0.07929999999999982,-0.02073966765602144
0.07829999999999981,-0.02075381476902009
0.07729999999999981,-0.020810403221014687
0.07629999999999981,-0.020909433012005242
0.07529999999999992,-0.020923580125003893
0.07429999999999992,-0.020937727238002544
0.07329999999999992,-0.020951874351001196
0.07229999999999992,-0.021022609915994445
0.07129999999999992,-0.021107492593986348
0.07029999999999992,-0.021135786819983647
0.06929999999999992,-0.021149933932982302
0.06829999999999992,-0.021149933932982302
0.06729999999999992,-0.02122066949797555
0.06629999999999991,-0.021333846401964753
0.06529999999999991,-0.021362140627962056
0.06429999999999991,-0.021362140627962056
0.06329999999999991,-0.021390434853959358
0.06229999999999991,-0.021447023305953956
0.06129999999999991,-0.02153190598394586
0.06029999999999991,-0.02157434732294181
0.05929999999999991,-0.021560200209943158
0.05829999999999991,-0.02161678866193776
0.05729999999999991,-0.021687524226931015
0.056299999999999906,-0.021758259791924264
0.055299999999999905,-0.021800701130920214
0.054299999999999904,-0.021786554017921567
0.0532999999999999,-0.021843142469916164
0.0522999999999999,-0.02197046648690402
0.0512999999999999,-0.02205534916489592
0.0502999999999999,-0.022126084729889174
0.0492999999999999,-0.022140231842887825
0.0482999999999999,-0.022154378955886473
0.0472999999999999,-0.022210967407881078
0.0462999999999999,-0.022281702972874327
0.045299999999999896,-0.02230999719887163
0.044299999999999895,-0.02230999719887163
0.043299999999999894,-0.02232414431187028
0.04229999999999989,-0.02240902698986218
0.04129999999999989,-0.022493909667854084
0.04029999999999989,-0.022578792345845984
0.03929999999999989,-0.022578792345845984
0.03829999999999989,-0.022578792345845984
0.03729999999999989,-0.02264952791083924
0.03629999999999989,-0.02273441058883114
0.03529999999999989,-0.02276270481482844
0.034299999999999886,-0.02277685192782709
0.033299999999999885,-0.022819293266823044
0.032299999999999884,-0.02287588171881764
0.031299999999999883,-0.022989058622806844
0.030299999999999883,-0.0230032057358055
0.02929999999999988,-0.023017352848804146
0.02829999999999988,-0.0230597941878001
0.02729999999999988,-0.02310223552679605
0.02629999999999988,-0.02318711820478795
0.025299999999999878,-0.0232295595437839
0.024299999999999877,-0.02324370665678255
0.023299999999999876,-0.02327200088277985
0.022299999999999875,-0.023314442221775804
0.021299999999999875,-0.023441766238763657
0.020299999999999874,-0.023484207577759608
0.019299999999999873,-0.02347006046476096
0.018299999999999872,-0.023498354690758262
0.01729999999999987,-0.02355494314275286
0.01629999999999987,-0.023639825820744764
0.01529999999999987,-0.023696414272739365
0.014299999999999868,-0.023710561385738016
0.013299999999999867,-0.023710561385738016
0.012299999999999978,-0.023795444063729916
0.011299999999999866,-0.02388032674172182
0.010299999999999976,-0.02393691519371642
0.009299999999999864,-0.02393691519371642
0.008299999999999974,-0.02395106230671507
0.007299999999999862,-0.024021797871708325
0.006299999999999972,-0.024106680549700225
0.00529999999999986,-0.024163269001694826
0.0042999999999999705,-0.024163269001694826
0.0032999999999998586,-0.02417741611469348
0.0022999999999999687,-0.02426229879268538
0.0012999999999998568,-0.024375475696674583
0.00029999999999996696,-0.024417917035670533
-0.000700000000000145,-0.024432064148669184
-0.0017000000000000348,-0.024446211261667832
-0.0027000000000001467,-0.024516946826661085
-0.0037000000000000366,-0.024601829504652988
-0.0047000000000001485,-0.024630123730650287
-0.005700000000000038,-0.024644270843648942
-0.00670000000000015,-0.02468671218264489
-0.00770000000000004,-0.024771594860636792
-0.008700000000000152,-0.024870624651627343
-0.009700000000000042,-0.024927213103621948
-0.010700000000000154,-0.024969654442617898
-0.011700000000000044,-0.025012095781613848
-0.012700000000000156,-0.025040390007611147
-0.013700000000000045,-0.02512527268560305
-0.014700000000000157,-0.025196008250596303
-0.015700000000000047,-0.025224302476593602
-0.01670000000000016,-0.025295038041586858
-0.01770000000000005,-0.025365773606580107
-0.01870000000000016,-0.02547895051056931
-0.01970000000000005,-0.025493097623567964
-0.020700000000000163,-0.02547895051056931
-0.021700000000000053,-0.025521391849565263
-0.022700000000000164,-0.025577980301559864
-0.023700000000000054,-0.025705304318547718
-0.024700000000000166,-0.025790186996539618
-0.025700000000000056,-0.025832628335535568
-0.026700000000000168,-0.02587506967453152
-0.027700000000000058,-0.02594580523952477
-0.02870000000000017,-0.026016540804518026
-0.02970000000000006,-0.026087276369511275
-0.03070000000000017,-0.026016540804518026
-0.03170000000000006,-0.026044835030515325
-0.03270000000000017,-0.026115570595508578
-0.03370000000000006,-0.02620045327350048
-0.034700000000000175,-0.026257041725495082
-0.035700000000000065,-0.02629948306449103
-0.03670000000000018,-0.02632777729048833
-0.03770000000000007,-0.026426807081478886
-0.03870000000000018,-0.02652583687246944
-0.03970000000000007,-0.02652583687246944
-0.04070000000000018,-0.026539983985468085
-0.04170000000000007,-0.02655413109846674
-0.04270000000000018,-0.02659657243746269
-0.04370000000000007,-0.02668145511545459
-0.044700000000000184,-0.026723896454450544
-0.045700000000000074,-0.026752190680447843
-0.046700000000000186,-0.026766337793446494
-0.047700000000000076,-0.02682292624544109
-0.04870000000000019,-0.026936103149430297
-0.04970000000000008,-0.026978544488426247
-0.05070000000000019,-0.026992691601424906
-0.05170000000000008,-0.0270209858274222
-0.05270000000000019,-0.027049280053419503
-0.05370000000000008,-0.027148309844410055
-0.05470000000000019,-0.027219045409403307
-0.05570000000000008,-0.02723319252240196
-0.056700000000000195,-0.027247339635400606
-0.057700000000000085,-0.027289780974396556
-0.058700000000000196,-0.027374663652388463
-0.059700000000000086,-0.02743125210438306
-0.0607000000000002,-0.027445399217381712
-0.06170000000000009,-0.027487840556377662
-0.0627000000000002,-0.02755857612137091
-0.06370000000000009,-0.02762931168636417
