Potential V vs RHE, Current mA cm-2
0.013299999999999867,-0.33259862659827016
0.012299999999999978,-1.1354472892716785
0.011299999999999866,-1.5745736767497858
0.010299999999999976,-1.8688336271217136
0.009299999999999864,-2.076796188201874
0.008299999999999974,-2.204120205189727
0.007299999999999862,-2.3356883560771755
0.006299999999999972,-2.414912188869618
0.00529999999999986,-2.5012095781613843
0.0042999999999999705,-2.5747745657543666
0.0032999999999998586,-2.624289461249643
0.0022999999999999687,-2.6865367584437045
0.0012999999999998568,-2.7162456957408705
0.00029999999999996696,-2.743125210438306
-0.000700000000000145,-2.7714194364356066
-0.0017000000000000348,-2.794054817233447
-0.0027000000000001467,-2.8308373110299385
-0.0037000000000000366,-2.852057980527914
-0.0047000000000001485,-2.8845963404248094
-0.005700000000000038,-2.91571998902184
-0.00670000000000015,-2.927037679420761
-0.00770000000000004,-2.9510877715184667
-0.008700000000000152,-2.9666495958169823
-0.009700000000000042,-2.990699687914687
-0.010700000000000154,-3.0147497800123935
-0.011700000000000044,-3.0147497800123935
-0.012700000000000156,-3.031726315610774
-0.013700000000000045,-3.028896893011044
-0.014700000000000157,-3.0402145834099636
-0.015700000000000047,-3.041629294709829
-0.01670000000000016,-3.0402145834099636
-0.01770000000000005,-3.054361696408614
-0.01870000000000016,-3.050117562509019
-0.01970000000000005,-3.0600205416080746
-0.020700000000000163,-3.0713382320069944
-0.021700000000000053,-3.0755823659065897
-0.022700000000000164,-3.1081207258034858
-0.023700000000000054,-3.1067060145036205
-0.024700000000000166,-3.119438416202406
-0.025700000000000056,-3.1279266840015962
-0.026700000000000168,-3.119438416202406
-0.027700000000000058,-3.135000240500921
-0.02870000000000017,-3.126511972701731
-0.02970000000000006,-3.1321708179011907
-0.03070000000000017,-3.1378296631006513
-0.03170000000000006,-3.1335855292010564
-0.03270000000000017,-3.1463179308998415
-0.03370000000000006,-3.1406590857003813
-0.034700000000000175,-3.1392443744005165
-0.035700000000000065,-3.150562064799437
-0.03670000000000018,-3.135000240500921
-0.03770000000000007,-3.1434885083001114
-0.03870000000000018,-3.1434885083001114
-0.03970000000000007,-3.1491473534995715
-0.04070000000000018,-3.156220909998897
-0.04170000000000007,-3.159050332598627
-0.04270000000000018,-3.1774415794968722
-0.04370000000000007,-3.166123889097952
-0.044700000000000184,-3.159050332598627
-0.045700000000000074,-3.1491473534995715
-0.046700000000000186,-3.1463179308998415
-0.047700000000000076,-3.164709177798087
-0.04870000000000019,-3.161879755198357
-0.04970000000000008,-3.174612156897142
-0.05070000000000019,-3.171782734297412
-0.05170000000000008,-3.164709177798087
-0.05270000000000019,-3.1816857133964676
-0.05370000000000008,-3.1774415794968722
-0.05470000000000019,-3.1873445585959277
-0.05570000000000008,-3.1845151359961976
-0.056700000000000195,-3.1845151359961976
-0.057700000000000085,-3.202906382894443
-0.058700000000000196,-3.1816857133964676
-0.059700000000000086,-3.178856290796737
-0.0607000000000002,-3.1703680229975473
-0.06170000000000009,-3.161879755198357
-0.0627000000000002,-3.1802710020966023
-0.06370000000000009,-3.150562064799437
-0.0647000000000002,-3.174612156897142
-0.06570000000000009,-3.1859298472960624
-0.0667000000000002,-3.174612156897142
-0.0677000000000001,-3.1845151359961976
-0.0687000000000002,-3.167538600397817
-0.0697000000000001,-3.168953311697682
-0.07070000000000021,-3.167538600397817
-0.0717000000000001,-3.160465043898492
-0.07270000000000021,-3.1731974455972773
-0.0737000000000001,-3.167538600397817
-0.07470000000000021,-3.1774415794968722
-0.0757000000000001,-3.1873445585959277
-0.07670000000000021,-3.1802710020966023
-0.0777000000000001,-3.1887592698957925
-0.07870000000000021,-3.1816857133964676
-0.0797000000000001,-3.1845151359961976
-0.08070000000000022,-3.1845151359961976
-0.0817000000000001,-3.1774415794968722
-0.08270000000000022,-3.1845151359961976
-0.08370000000000011,-3.1703680229975473
-0.08470000000000022,-3.174612156897142
-0.08570000000000011,-3.171782734297412
-0.08670000000000022,-3.164709177798087
-0.08770000000000011,-3.1703680229975473
-0.08870000000000022,-3.1703680229975473
-0.08970000000000011,-3.1816857133964676
-0.09070000000000022,-3.1802710020966023
-0.09170000000000011,-3.168953311697682
-0.09270000000000023,-3.178856290796737
-0.09370000000000012,-3.160465043898492
-0.09470000000000023,-3.167538600397817
-0.09570000000000012,-3.166123889097952
-0.09670000000000023,-3.156220909998897
-0.09770000000000012,-3.1845151359961976
-0.09870000000000023,-3.168953311697682
-0.09970000000000012,-3.178856290796737
-0.10070000000000023,-3.1887592698957925
-0.10170000000000012,-3.1831004246963324
-0.10270000000000024,-3.1972475376949827
-0.10370000000000013,-3.174612156897142
-0.10470000000000024,-3.1887592698957925
-0.10570000000000013,-3.1901739811956578
-0.10670000000000024,-3.1774415794968722
-0.10770000000000013,-3.1873445585959277
-0.10870000000000024,-3.1816857133964676
-0.10970000000000013,-3.1915886924955226
-0.11070000000000024,-3.195832826395118
-0.11170000000000013,-3.1802710020966023
-0.11270000000000002,-3.1944181150952526
-0.11370000000000013,-3.1802710020966023
-0.11470000000000002,-3.1731974455972773
-0.11570000000000014,-3.1845151359961976
-0.11670000000000003,-3.1760268681970074
-0.11770000000000014,-3.1816857133964676
-0.11870000000000003,-3.1816857133964676
-0.11970000000000014,-3.193003403795388
-0.12070000000000003,-3.204321094194308
-0.12170000000000014,-3.204321094194308
-0.12270000000000003,-3.211394650693633
-0.12370000000000014,-3.200076960294713
-0.12470000000000003,-3.201491671594578
-0.12570000000000014,-3.201491671594578
-0.12670000000000003,-3.204321094194308
-0.12770000000000015,-3.214224073293363
-0.12870000000000004,-3.2099799393937682
-0.12970000000000015,-3.2156387845932284
-0.13070000000000004,-3.2184682071929585
-0.13170000000000015,-3.204321094194308
-0.13270000000000004,-3.2156387845932284
-0.13370000000000015,-3.204321094194308
-0.13470000000000004,-3.2241270523924186
-0.13570000000000015,-3.228371186292014
-0.13670000000000004,-3.2227123410925533
-0.13770000000000016,-3.2297858975918787
-0.13870000000000005,-3.2099799393937682
-0.13970000000000016,-3.2198829184928233
-0.14070000000000005,-3.228371186292014
-0.14170000000000016,-3.2198829184928233
-0.14270000000000005,-3.243933010590529
-0.14370000000000016,-3.232615320191609
-0.14470000000000005,-3.249591855789989
-0.14570000000000016,-3.2594948348890447
-0.14670000000000005,-3.253835989689584
-0.14770000000000016,-3.279300793087155
-0.14870000000000005,-3.267983102688235
-0.14970000000000017,-3.273641947887695
-0.15070000000000006,-3.2849596382866153
-0.15170000000000017,-3.28354492698675
-0.15270000000000006,-3.2948626173856703
-0.15370000000000017,-3.28637434958648
-0.15470000000000006,-3.27222723658783
-0.15570000000000017,-3.276471370487425
-0.15670000000000006,-3.2623242574887747
-0.15770000000000017,-3.2849596382866153
-0.15870000000000006,-3.2920331947859403
-0.15970000000000018,-3.316083286883646
-0.16070000000000007,-3.3245715546828363
-0.16170000000000018,-3.307595019084456
-0.16270000000000007,-3.3203274207832414
-0.16370000000000018,-3.3203274207832414
-0.16470000000000007,-3.3344745337818917
-0.16570000000000018,-3.328815688582431
-0.16670000000000007,-3.3302303998822964
-0.16770000000000018,-3.3500363580804073
-0.16870000000000007,-3.3486216467805416
-0.16970000000000018,-3.371257027578382
-0.17070000000000007,-3.3783305840777076
-0.17170000000000019,-3.3769158727778423
-0.17270000000000008,-3.3953071196760884
-0.1737000000000002,-3.368427604978652
-0.17470000000000008,-3.3953071196760884
-0.1757000000000002,-3.412283655274469
-0.17670000000000008,-3.4136983665743337
-0.1777000000000002,-3.4335043247724437
-0.17870000000000008,-3.4250160569732535
-0.1797000000000002,-3.4434073038714996
-0.18070000000000008,-3.4490661490709593
-0.1817000000000002,-3.440577881271769
-0.18270000000000008,-3.4674573959692045
-0.1837000000000002,-3.4632132620696097
-0.1847000000000001,-3.4858486428674507
-0.1857000000000002,-3.4999957558661006
-0.1867000000000001,-3.4943369106666404
-0.1877000000000002,-3.512728157564886
-0.1887000000000001,-3.4971663332663705
-0.1897000000000002,-3.5212164253640763
-0.1907000000000001,-3.543851806161917
-0.1917000000000001,-3.533948827062862
-0.19269999999999998,-3.5679018982596227
-0.1937000000000001,-3.573560743459083
-0.19469999999999998,-3.589122567757598
-0.1957000000000001,-3.606099103355979
-0.19669999999999999,-3.6117579485554394
-0.1977000000000001,-3.6329786180534143
-0.1987,-3.641466885852605
-0.1997000000000001,-3.65702871015112
-0.2007,-3.6711758231497704
-0.2017000000000001,-3.686737647448285
-0.2027,-3.716446584745451
-0.2037000000000001,-3.7362525429435625
-0.2047,-3.7560585011416725
-0.2057000000000001,-3.7603026350412674
-0.2067,-3.7631320576409975
-0.2077000000000001,-3.782938015839108
-0.2087,-3.7871821497387033
-0.2097000000000001,-3.822549932235329
-0.2107,-3.8466000243330347
-0.2117000000000001,-3.8664059825311448
-0.2127,-3.906017898927366
-0.2137000000000001,-3.915920878026421
-0.2147,-3.9512886605230477
-0.2157000000000001,-3.9809975978202137
-0.2167,-3.9838270204199433
-0.21770000000000012,-4.009291823817514
-0.2187,-4.01636538031684
-0.21970000000000012,-4.054562585413195
-0.2207,-4.078612677510901
-0.22170000000000012,-4.09275979050955
-0.2227,-4.136615840805367
-0.22370000000000012,-4.143689397304692
-0.2247,-4.177642468501453
-0.22570000000000012,-4.20452198319889
-0.2267,-4.225742652696865
-0.22770000000000012,-4.269598702992681
-0.22870000000000001,-4.295063506390251
-0.22970000000000013,-4.331846000186743
-0.23070000000000002,-4.364384360083638
-0.23170000000000013,-4.388434452181344
-0.23270000000000002,-4.436534636376755
-0.23370000000000013,-4.467658284973785
-0.23470000000000002,-4.501611356170546
-0.23570000000000013,-4.538393849967037
-0.23670000000000002,-4.566688075964338
-0.2376999999999999,-4.6091294149602895
-0.23870000000000002,-4.647326620056646
-0.2396999999999999,-4.686938536452867
-0.24070000000000003,-4.726550452849088
-0.24169999999999991,-4.754844678846388
-0.24270000000000003,-4.811433130840991
-0.24369999999999992,-4.843971490737885
-0.24470000000000003,-4.887827541033701
-0.24569999999999992,-4.928854168729788
-0.24670000000000003,-4.968466085126009
-0.24769999999999992,-5.0222251145208805
-0.24870000000000003,-5.057592897017507
-0.24969999999999992,-5.117010771611838
-0.25070000000000003,-5.162281533207518
-0.2516999999999999,-5.210381717402931
-0.25270000000000004,-5.285361416295777
-0.2536999999999999,-5.347608713489839
-0.25470000000000004,-5.419758989782956
-0.2556999999999999,-5.467859173978367
-0.25670000000000004,-5.521618203373238
-0.25769999999999993,-5.59235376836649
-0.25870000000000004,-5.641868663861766
-0.25969999999999993,-5.712604228855018
-0.26070000000000004,-5.767777969549755
-0.26169999999999993,-5.820122287644761
-0.26270000000000004,-5.893687275237743
-0.26369999999999993,-5.936128614233694
-0.26470000000000005,-6.021011292225596
-0.26569999999999994,-6.086088012019388
-0.26670000000000005,-6.152579443113044
-0.26769999999999994,-6.226144430706027
-0.26870000000000005,-6.277074037501167
-0.26969999999999994,-6.360542004193205
-0.27070000000000005,-6.455327661284162
-0.27169999999999994,-6.53596620537647
-0.27270000000000005,-6.620848883368372
-0.27369999999999994,-6.681681469262568
-0.27470000000000006,-6.759490590755146
-0.27569999999999995,-6.838714423547587
-0.27670000000000006,-6.90944998854084
-0.27769999999999995,-7.012723913430986
-0.27870000000000006,-7.101850725322484
-0.27969999999999995,-7.2022952276129
-0.28070000000000006,-7.2984955960037246
-0.28169999999999995,-7.3975253869942765
-0.28270000000000006,-7.512117002283345
-0.28369999999999995,-7.599829102874978
-0.28470000000000006,-7.70734716166472
-0.28569999999999995,-7.792229839656622
-0.28670000000000007,-7.888430208047444
-0.28769999999999996,-8.008680668535973
-0.28870000000000007,-8.087904501328415
-0.28969999999999996,-8.205325539217212
-0.29070000000000007,-8.305770041507632
-0.29169999999999996,-8.394896853399128
-0.29270000000000007,-8.51090317998806
-0.29369999999999996,-8.618421238777803
-0.2947000000000001,-8.747159967065523
-0.29569999999999996,-8.857507448454994
-0.2967000000000001,-8.965025507244738
-0.29769999999999996,-9.086690679033131
-0.2987000000000001,-9.187135181323548
-0.29969999999999997,-9.318703332210998
-0.3007000000000001,-9.43753908139966
-0.30169999999999997,-9.552130696688728
-0.3027000000000001,-9.711993073573478
-0.30369999999999997,-9.830828822762141
-0.3047000000000001,-9.965226396249319
-0.30569999999999997,-10.099623969736497
-0.3067000000000001,-10.239680388423137
-0.3077,-10.39812805400802
-0.3087000000000001,-10.526866782295738
-0.3097,-10.669752623582108
-0.3107000000000001,-10.805564908369151
-0.3117,-10.937133059256597
-0.3127000000000001,-11.091336590941888
-0.3137,-11.220075319229606
-0.3147000000000001,-11.374278850914896
-0.3157,-11.517164692201263
-0.3167000000000001,-11.672782935186419
-0.3177,-11.808595219973462
-0.3187000000000001,-11.98260470985686
-0.3197,-12.121246417243634
-0.3207000000000001,-12.264132258530003
-0.3217,-12.397115120717316
-0.3227000000000001,-12.555562786302202
-0.3237,-12.719669297086545
-0.3247000000000001,-12.88660523047062
-0.3257,-13.059200009054155
-0.3267000000000001,-13.226135942438228
-0.3277,-13.404389566221221
-0.3287000000000001,-13.557178386606648
-0.3297,-13.72128489739099
-0.3307000000000001,-13.898123809874122
-0.3317,-14.087695124056035
-0.3327000000000001,-14.288584128636872
-0.3337,-14.430055258623375
-0.3347000000000001,-14.62811484060448
-0.3357,-14.797880196588284
-0.3367000000000001,-14.967645552572087
-0.3377,-15.151558021554543
-0.3387000000000001,-15.293029151541045
-0.3397,-15.491088733522153
-0.3407000000000001,-15.646706976507305
-0.3417,-15.830619445489761
-0.3427000000000001,-16.04282614046952
-0.3437,-16.22673860945197
-0.3447000000000001,-16.438945304431726
-0.3457,-16.637004886412832
-0.3467000000000001,-16.778476016399335
-0.3477,-16.93409425938449
-0.3487000000000001,-17.089712502369647
-0.3497,-17.2736249713521
-0.3507000000000001,-17.471684553333205
-0.3517,-17.683891248312957
-0.3527000000000001,-18.009274847281915
-0.3537,-18.23562865526032
-0.3547000000000001,-18.40539401124413
-0.3557,-18.561012254229283
-0.35670000000000013,-18.78736606220769
-0.3577,-19.01371987018609
-0.35870000000000013,-19.2683679041618
-0.3597,-19.508868825138855
-0.36070000000000013,-19.70692840711996
-0.3617,-19.890840876102416
-0.3626999999999999,-20.088900458083522
-0.3637,-20.244518701068674
-0.3646999999999999,-20.48501962204573
-0.3657,-20.69722631702549
-0.3666999999999999,-20.95187435100119
-0.3677,-21.19237527197825
-0.3686999999999999,-21.447023305953955
-0.36970000000000003,-21.701671339929664
-0.3706999999999999,-21.871436695913467
-0.37170000000000003,-22.083643390893226
-0.3726999999999999,-22.267555859875678
-0.37370000000000003,-22.46561544185678
-0.3746999999999999,-22.706116362833843
-0.37570000000000003,-22.932470170812245
-0.3766999999999999,-23.15882397879065
-0.37770000000000004,-23.48420757775961
-0.3786999999999999,-23.738855611735314
-0.37970000000000004,-23.96520941971372
-0.3806999999999999,-24.21985745368943
-0.38170000000000004,-24.502799713662437
-0.38269999999999993,-24.785741973635442
-0.38370000000000004,-25.026242894612498
-0.38469999999999993,-25.252596702590903
-0.38570000000000004,-25.521391849565262
-0.38669999999999993,-25.747745657543668
-0.38770000000000004,-26.030687917516673
-0.38869999999999993,-26.257041725495082
-0.38970000000000005,-26.568278211465387
-0.39069999999999994,-26.794632019443796
-0.39170000000000005,-27.049280053419505
-0.39269999999999994,-27.31807520039386
-0.39370000000000005,-27.64345879936282
-0.39469999999999994,-27.841518381343924
-0.39570000000000005,-28.09616641531963
-0.39669999999999994,-28.32252022329803
-0.39770000000000005,-28.619609596269694
-0.39869999999999994,-28.88840474324405
-0.39970000000000006,-29.18549411621571
-0.40069999999999995,-29.482583489187363
-0.40170000000000006,-29.73723152316307
-0.40269999999999995,-30.06261512213203
-0.40370000000000006,-30.331410269106385
-0.40469999999999995,-30.58605830308209
-0.40570000000000006,-30.91144190205105
-0.40669999999999995,-31.250972614018657
-0.40770000000000006,-31.604650438984915
-0.40869999999999995,-31.873445585959274
-0.40970000000000006,-32.170534958930936
-0.41069999999999995,-32.45347721890394
-0.41170000000000007,-32.7505665918756
-0.41269999999999996,-33.0335088518486
-0.41370000000000007,-33.302303998822964
-0.41469999999999996,-33.655981823789226
-0.41570000000000007,-33.89648274476628
-0.41669999999999996,-34.25016056973254
-0.41770000000000007,-34.60383839469879
-0.41869999999999996,-34.95751621966506
-0.4197000000000001,-35.297046931632664
-0.42069999999999996,-35.48095940061512
-0.4217000000000001,-35.778048773586775
-0.42269999999999996,-36.08928525955708
-0.4237000000000001,-36.40052174552739
-0.42469999999999997,-36.69761111849905
-0.4257000000000001,-37.05128894346531
-0.42669999999999997,-37.40496676843157
-0.4277000000000001,-37.78693881939513
-0.42869999999999997,-38.12646953136274
-0.4297000000000001,-38.46600024333035
-0.43069999999999997,-38.777236729300654
-0.4317000000000001,-39.173355893262865
-0.4327,-39.55532794422642
-0.4337000000000001,-39.90900576919269
-0.4347,-40.34756627215084
-0.4357000000000001,-40.715391210115754
-0.4367,-41.01248058308742
-0.4377000000000001,-41.352011295055014
-0.4387,-41.677394894023976
-0.4397000000000001,-42.03107271899024
-0.4407,-42.497927447945706
-0.4417000000000001,-42.766722594920054
-0.4427,-43.148694645883616
-0.4437000000000001,-43.34675422786472
-0.4447,-43.70043205283099
-0.4457000000000001,-44.110698329791845
-0.4467,-44.67658284973786
-0.4477000000000001,-45.21417314368657
-0.4487,-45.46882117766227
-0.4497000000000001,-45.69517498564068
-0.4507,-46.062999923605595
-0.4517000000000001,-46.558148878558356
-0.4527,-46.982562268517874
-0.4537000000000001,-47.30794586748683
-0.4547,-47.633329466455784
-0.4557000000000001,-48.100184195411245
-0.4567,-48.538744698369406
-0.4577000000000001,-48.991452314326224
-0.4587,-49.387571478288436
-0.4597000000000001,-49.81198486824794
-0.4607,-50.22225114520881
-0.4617000000000001,-50.68910587416426
-0.4627,-51.071077925127824
-0.4637000000000001,-51.46719708909004
-0.4647,-51.8491691400536
-0.4657000000000001,-52.25943541701445
-0.4667,-52.68384880697396
-0.4677000000000001,-53.17899776192673
-0.4687,-53.71658805587545
-0.4697000000000001,-54.14100144583495
-0.4707,-54.45223793180526
-0.4717000000000001,-54.77762153077422
-0.4727,-55.24447625972968
-0.4737000000000001,-55.6971838756865
-0.4747,-56.10745015264736
-0.4757000000000001,-56.53186354260687
-0.4767,-56.956276932566375
-0.4777000000000001,-57.394837435524536
-0.4787,-57.86169216448
-0.4797000000000001,-58.47001802342197
-0.4807,-58.965166978374725
-0.48170000000000013,-59.47446304632614
-0.4827,-59.983759114277554
-0.48370000000000013,-60.47890806923032
-0.4847,-61.00235125018038
-0.48570000000000013,-61.46920597913584
-0.4867,-60.974057024183075
-0.48570000000000013,-59.47446304632614
-0.4847,-58.28610555443952
-0.48370000000000013,-57.182630740544774
-0.4827,-56.489422203610914
-0.48170000000000013,-55.8103607796757
-0.4807,-55.23032914673103
-0.4797000000000001,-54.423943705807964
-0.4787,-53.56096981289029
-0.4777000000000001,-52.78287859796452
-0.4767,-52.0189344960374
-0.4757000000000001,-51.22669616811298
-0.4747,-50.47689917918451
-0.4737000000000001,-49.72710219025603
-0.4727,-49.005599427324874
-0.4717000000000001,-48.312390890391
-0.4707,-47.74650637044499
-0.4697000000000001,-47.13818051150302
-0.4687,-46.501560426563756
-0.4677000000000001,-45.83664611562718
-0.4667,-45.18587891768927
-0.4657000000000001,-44.591700171745956
-0.4647,-43.94093297380804
