Potential V vs RHE, Current mA cm-2
0.4132999999999999,0.0013374680628924056
0.4122999999999999,-0.0004924610034830192
0.4112999999999999,-0.0013172376913043356
0.4102999999999999,-0.0018122451751271117
0.4092999999999999,-0.0021574347322941808
0.4082999999999999,-0.0024432064148669184
0.4072999999999999,-0.0027388810765387114
0.4062999999999999,-0.003044458717309559
0.4052999999999999,-0.0032991067512852653
0.4042999999999999,-0.003470286818568935
0.4032999999999999,-0.003627319772853954
0.4022999999999999,-0.003833867622634249
0.4012999999999999,-0.00403617133851495
0.4002999999999999,-0.004201692560599159
0.3992999999999999,-0.004326187154987282
0.3982999999999999,-0.004454925883275
0.3972999999999999,-0.004575176343763528
0.3962999999999999,-0.004733624009348412
0.3952999999999999,-0.004843971490737885
0.3942999999999999,-0.0049189511896307325
0.39329999999999987,-0.00498827204332412
0.39229999999999987,-0.005083057700415077
0.39129999999999987,-0.005228772964301175
0.39029999999999987,-0.005316485064892808
0.38929999999999987,-0.005364585249088219
0.38829999999999987,-0.0054367355253813355
0.38729999999999987,-0.005508885801674453
0.38629999999999987,-0.005634795107362441
0.38529999999999986,-0.005736654320952724
0.38429999999999986,-0.005756460279150835
0.38329999999999986,-0.00581163401984557
0.38229999999999986,-0.005885199007438552
0.38129999999999986,-0.005981399375829375
0.38029999999999986,-0.006045061384323302
0.37929999999999986,-0.006073355610320603
0.37829999999999986,-0.006121455794516013
0.37729999999999986,-0.00618511780300994
0.37629999999999986,-0.006289806439199953
0.37529999999999986,-0.00635063902509415
0.37429999999999986,-0.006366200849392665
0.37329999999999985,-0.006415715744887941
0.37229999999999985,-0.006483621887281464
0.37129999999999985,-0.0065586015861743095
0.37029999999999985,-0.006627922439867697
0.36929999999999985,-0.006651972531965403
0.36829999999999985,-0.006673193201463378
0.36729999999999985,-0.006731196364757845
0.36629999999999985,-0.006821737887949208
0.36529999999999985,-0.006872667494744348
0.36429999999999985,-0.0068853998964431345
0.36329999999999985,-0.0069151088337402996
0.36229999999999984,-0.006967453151835307
0.36129999999999984,-0.007079215344524643
0.36029999999999984,-0.007110338993121673
0.35929999999999984,-0.0071329743739195145
0.35829999999999984,-0.007162683311216681
0.35729999999999984,-0.007222101185811012
0.35629999999999984,-0.0073296192446007545
0.35529999999999984,-0.007346595780199136
0.35429999999999984,-0.007380548851395896
0.35329999999999984,-0.007427234324291442
0.35229999999999984,-0.007473919797186989
0.35129999999999983,-0.007560217186478756
0.35029999999999983,-0.007604073236774573
0.34929999999999983,-0.007618220349773223
0.34829999999999983,-0.007669149956568363
0.34729999999999983,-0.007745544366761076
0.34629999999999983,-0.007817694643054193
0.34529999999999983,-0.007865794827249604
0.34429999999999983,-0.007860135982050145
0.3432999999999998,-0.007911065588845285
0.3422999999999998,-0.007956336350440966
0.3412999999999998,-0.008059610275331114
0.3402999999999998,-0.008110539882126256
0.3392999999999998,-0.008096392769127604
0.3382999999999998,-0.008164298911521126
0.3372999999999998,-0.008216643229616134
0.3362999999999998,-0.0083029406189079
0.3352999999999998,-0.008373676183901153
0.3342999999999998,-0.008375090895201017
0.3332999999999998,-0.008431679347195619
0.3322999999999998,-0.008493926644389681
0.3312999999999998,-0.008580224033681447
0.3302999999999998,-0.008624080083977264
0.3292999999999998,-0.008624080083977264
0.3282999999999998,-0.008675009690772404
0.3272999999999998,-0.008738671699266332
0.3262999999999998,-0.008813651398159178
0.3252999999999999,-0.008877313406653107
0.3242999999999999,-0.008905607632650405
0.3232999999999999,-0.008938145992547301
0.3222999999999999,-0.009007466846240689
0.3212999999999999,-0.009109326059830971
0.3202999999999999,-0.009161670377925977
0.3192999999999999,-0.009188549892623412
0.3182999999999999,-0.009212599984721119
0.3172999999999999,-0.009297482662713021
0.3162999999999999,-0.009399341876303305
0.3152999999999999,-0.00945451561699804
0.3142999999999999,-0.009475736286496016
0.3132999999999999,-0.009530910027190751
0.3122999999999999,-0.009598816169584273
0.3112999999999999,-0.009700675383174555
0.3102999999999999,-0.009750190278669833
0.3092999999999999,-0.009786972772466325
0.3082999999999999,-0.009846390647060655
0.3072999999999999,-0.009894490831256066
0.3062999999999999,-0.010009082446545133
0.3052999999999999,-0.010071329743739196
0.3042999999999999,-0.010091135701937308
0.3032999999999999,-0.010140650597432582
0.3022999999999999,-0.010208556739826105
0.3012999999999999,-0.010320318932515442
0.3002999999999999,-0.01036983382801072
0.2992999999999999,-0.010383980941009369
0.2982999999999999,-0.010416519300906266
0.2972999999999999,-0.010504231401497898
0.2962999999999999,-0.010607505326388047
0.2952999999999999,-0.010666923200982377
0.2942999999999999,-0.010664093778382646
0.2932999999999999,-0.010719267519077383
0.2922999999999999,-0.010801320774469554
0.2912999999999999,-0.010874885762062537
0.2902999999999999,-0.010921571234958082
0.2892999999999999,-0.010955524306154846
0.2882999999999999,-0.010959768440054439
0.2872999999999999,-0.011037577561547015
0.2862999999999999,-0.011118216105639324
0.2852999999999999,-0.01116207215593514
0.2842999999999999,-0.011188951670632576
0.2832999999999999,-0.01120451349493109
0.2822999999999999,-0.011261101946925691
0.2812999999999999,-0.011337496357118403
0.2802999999999999,-0.01136720529441557
0.2792999999999999,-0.011391255386513276
0.2782999999999999,-0.011382767118714086
0.2772999999999999,-0.01144642912720801
0.2762999999999999,-0.01151292055830167
0.2752999999999999,-0.011542629495598835
0.2742999999999999,-0.011538385361699238
0.2732999999999999,-0.011539800072999104
0.2722999999999999,-0.011589314968494382
0.2712999999999999,-0.011678441780385879
0.2702999999999999,-0.011695418315984257
0.2692999999999999,-0.011679856491685743
0.26829999999999987,-0.01169258889338453
0.26729999999999987,-0.01172371254198156
0.26629999999999987,-0.011802936374774
0.26529999999999987,-0.011805765797373732
0.26429999999999987,-0.011797277529574539
0.26329999999999987,-0.011802936374774
0.26229999999999987,-0.011821327621672246
0.26129999999999987,-0.011901966165764553
0.26029999999999986,-0.011921772123962664
0.25929999999999986,-0.011870842517167522
0.25829999999999986,-0.011896307320565094
0.25729999999999986,-0.01194299279346064
0.25629999999999986,-0.012000995956755106
0.25529999999999986,-0.011998166534155376
0.25429999999999986,-0.011985434132456592
0.25329999999999986,-0.011989678266356186
0.25229999999999986,-0.012034949027951866
0.25129999999999986,-0.01208587863474701
0.25029999999999986,-0.012095781613846062
0.24929999999999986,-0.012075975655647952
0.24829999999999985,-0.012066072676548897
0.24729999999999985,-0.012104269881645254
0.24629999999999985,-0.012160858333639855
0.24529999999999985,-0.012206129095235538
0.24429999999999985,-0.01219905553873621
0.24329999999999985,-0.012170761312738912
0.24229999999999985,-0.012217446785634457
0.24129999999999985,-0.012261302835930273
0.24029999999999985,-0.012259888124630408
0.23929999999999985,-0.012258473413330542
0.23829999999999985,-0.012223105630833916
0.23729999999999984,-0.012275449948928922
0.23629999999999984,-0.01234194138002258
0.23529999999999984,-0.01233345311222339
0.23429999999999984,-0.012330623689623661
0.23329999999999984,-0.012329208978323795
0.23229999999999984,-0.01236174733822069
0.23129999999999984,-0.012421165212815022
0.23029999999999984,-0.012428238769314348
0.22929999999999984,-0.012407018099816373
0.22829999999999984,-0.012405603388516507
0.22729999999999984,-0.012432482903213941
0.22629999999999983,-0.01250463317950706
0.22529999999999983,-0.01250746260210679
0.22429999999999983,-0.012484827221308949
0.22329999999999983,-0.01250463317950706
0.22229999999999983,-0.012532927405504359
0.22129999999999983,-0.012598004125298152
0.22029999999999983,-0.012607907104397208
0.21929999999999983,-0.01259234528009869
0.21829999999999983,-0.012598004125298152
0.21729999999999983,-0.012653177865992887
0.21629999999999983,-0.012688545648489515
0.21529999999999982,-0.012697033916288705
0.21429999999999982,-0.012680057380690323
0.21329999999999982,-0.012685716225889784
0.21229999999999982,-0.012743719389184251
0.21129999999999982,-0.012776257749081147
0.21029999999999982,-0.012788990150779932
0.20929999999999982,-0.012788990150779932
0.20829999999999982,-0.012779087171680878
0.20729999999999982,-0.012842749180174803
0.20629999999999982,-0.012899337632169404
0.20529999999999982,-0.01292055830166738
0.20429999999999982,-0.012912070033868189
0.20329999999999981,-0.012892264075670078
0.2022999999999998,-0.012950267238964546
0.2012999999999998,-0.013001196845759686
0.20029999999999992,-0.013015343958758337
0.19929999999999992,-0.013016758670058201
0.19829999999999992,-0.013021002803957798
0.19729999999999992,-0.013074761833352669
0.19629999999999992,-0.013149741532245515
0.19529999999999992,-0.01313700913054673
0.19429999999999992,-0.013172376913043356
0.19329999999999992,-0.013189353448641737
0.19229999999999992,-0.013207744695539982
0.19129999999999991,-0.01326574785883445
0.1902999999999999,-0.01326574785883445
0.1892999999999999,-0.013264333147534583
0.1882999999999999,-0.013268577281434178
0.1872999999999999,-0.013320921599529186
0.1862999999999999,-0.013383168896723247
0.1852999999999999,-0.013391657164522437
0.1842999999999999,-0.013380339474123518
0.1832999999999999,-0.013393071875822303
0.1822999999999999,-0.013435513214818253
0.1812999999999999,-0.01352746944930948
0.1802999999999999,-0.01352746944930948
0.1792999999999999,-0.01351332233631083
0.1782999999999999,-0.013523225315409887
0.1772999999999999,-0.013571325499605297
0.1762999999999999,-0.013636402219399088
0.1752999999999999,-0.0136562081775972
0.1742999999999999,-0.013633572796799357
0.1732999999999999,-0.013639231641998819
0.1722999999999999,-0.013692990671393691
0.1712999999999999,-0.013760896813787213
0.1702999999999999,-0.013767970370286538
0.1692999999999999,-0.013762311525087077
0.1682999999999999,-0.013784946905884917
0.1672999999999999,-0.01384153535787952
0.1662999999999999,-0.013899538521173984
0.1652999999999999,-0.013905197366373445
0.1642999999999999,-0.01390944150027304
0.1632999999999999,-0.013908026788973175
0.1622999999999999,-0.013974518220066835
0.1612999999999999,-0.014045253785060085
0.1602999999999999,-0.014025447826861973
0.1592999999999999,-0.01404949791895968
0.15829999999999989,-0.014039594939860626
0.15729999999999988,-0.014104671659654415
0.15629999999999988,-0.014175407224647668
0.15529999999999988,-0.014175407224647668
0.15429999999999988,-0.014203701450644968
0.15329999999999988,-0.014175407224647668
0.15229999999999988,-0.014217848563643616
0.15129999999999988,-0.014316878354634173
0.15029999999999988,-0.014316878354634173
0.14929999999999988,-0.01430273124163552
0.14829999999999988,-0.014331025467632824
0.14729999999999988,-0.014373466806628774
0.14629999999999987,-0.014458349484620674
0.14529999999999987,-0.014458349484620674
0.14429999999999987,-0.014458349484620674
0.14329999999999987,-0.014486643710617976
0.14229999999999987,-0.014571526388609878
0.14129999999999987,-0.01461396772760583
0.14029999999999987,-0.014628114840604478
0.13929999999999987,-0.014628114840604478
0.13829999999999987,-0.01465640906660178
0.13729999999999987,-0.01469885040559773
0.13629999999999987,-0.014769585970590984
0.13529999999999986,-0.014769585970590984
0.13429999999999986,-0.014783733083589632
0.13329999999999986,-0.014797880196588285
0.13229999999999986,-0.014854468648582884
0.13129999999999986,-0.014911057100577486
0.13029999999999986,-0.014939351326574786
0.12929999999999986,-0.014939351326574786
0.12829999999999986,-0.014953498439573438
0.12729999999999986,-0.01501008689156804
0.12629999999999986,-0.015080822456561293
0.12529999999999986,-0.01509496956955994
0.12429999999999986,-0.015123263795557243
0.12329999999999985,-0.015137410908555892
0.12229999999999985,-0.015193999360550494
0.12129999999999985,-0.015250587812545097
0.12029999999999985,-0.015264734925543746
0.11929999999999985,-0.015264734925543746
0.11829999999999985,-0.015307176264539698
0.11729999999999985,-0.015392058942531598
0.11629999999999985,-0.01546279450752485
0.11529999999999985,-0.015476941620523503
0.11429999999999985,-0.015476941620523503
0.11329999999999985,-0.015491088733522153
0.11229999999999984,-0.015547677185516754
0.11129999999999984,-0.015618412750510005
0.11029999999999984,-0.015618412750510005
0.10929999999999984,-0.015632559863508654
0.10829999999999984,-0.015675001202504608
0.10729999999999984,-0.015717442541500558
0.10629999999999984,-0.01578817810649381
0.10529999999999984,-0.01581647233249111
0.10429999999999984,-0.01583061944548976
0.10329999999999984,-0.01584476655848841
0.10229999999999984,-0.015901355010483013
0.10129999999999983,-0.01597209057547626
0.10029999999999983,-0.015986237688474913
0.09929999999999983,-0.015986237688474913
0.09829999999999983,-0.016028679027470863
0.09729999999999983,-0.01611356170546277
0.09629999999999983,-0.016170150157457368
0.09529999999999983,-0.01618429727045602
0.09429999999999983,-0.01619844438345467
0.09329999999999983,-0.016212591496453318
0.09229999999999983,-0.01629747417444522
0.09129999999999983,-0.016368209739438477
0.09029999999999982,-0.01638235685243712
0.08929999999999982,-0.01638235685243712
0.08829999999999982,-0.016396503965435776
0.08729999999999982,-0.01648138664342768
0.08629999999999982,-0.016552122208420932
0.08529999999999982,-0.01659456354741688
0.08429999999999982,-0.01660871066041553
0.08329999999999982,-0.01662285777341418
0.08229999999999982,-0.016693593338407434
0.08129999999999982,-0.016778476016399334
0.08029999999999982,-0.016792623129397985
0.07929999999999982,-0.016820917355395284
0.07829999999999981,-0.016849211581392583
0.07729999999999981,-0.01693409425938449
0.07629999999999981,-0.017018976937376393
0.07529999999999992,-0.017018976937376393
0.07429999999999992,-0.01703312405037504
0.07329999999999992,-0.017047271163373692
0.07229999999999992,-0.017132153841365592
0.07129999999999992,-0.017202889406358845
0.07029999999999992,-0.017231183632356147
0.06929999999999992,-0.0172453307453548
0.06829999999999992,-0.017273624971352097
0.06729999999999992,-0.01734436053634535
0.06629999999999991,-0.017429243214337253
0.06529999999999991,-0.017457537440334552
0.06429999999999991,-0.017471684553333203
0.06329999999999991,-0.017514125892329157
0.06229999999999991,-0.017584861457322406
0.06129999999999991,-0.01765559702231566
0.06029999999999991,-0.01768389124831296
0.05929999999999991,-0.01769803836131161
0.05829999999999991,-0.01772633258730891
0.05729999999999991,-0.017825362378299462
0.056299999999999906,-0.017881950830294063
0.055299999999999905,-0.017910245056291362
0.054299999999999904,-0.017924392169290013
0.0532999999999999,-0.017995127734283266
0.0522999999999999,-0.018065863299276518
0.0512999999999999,-0.01813659886426977
0.0502999999999999,-0.01816489309026707
0.0492999999999999,-0.01817904020326572
0.0482999999999999,-0.01820733442926302
0.0472999999999999,-0.018320511333252226
0.0462999999999999,-0.018377099785246823
0.045299999999999896,-0.018391246898245478
0.044299999999999895,-0.018433688237241428
0.043299999999999894,-0.018447835350240076
0.04229999999999989,-0.018575159367227933
0.04129999999999989,-0.018645894932221182
0.04029999999999989,-0.018688336271217135
0.03929999999999989,-0.018716630497214438
0.03829999999999989,-0.018759071836210388
0.03729999999999989,-0.01882980740120364
0.03629999999999989,-0.018942984305192843
0.03529999999999989,-0.01897127853119014
0.034299999999999886,-0.019013719870186095
0.033299999999999885,-0.019070308322180696
0.032299999999999884,-0.019141043887173945
0.031299999999999883,-0.019211779452167198
0.030299999999999883,-0.019211779452167198
0.02929999999999988,-0.019240073678164497
0.02829999999999988,-0.0192966621301591
0.02729999999999988,-0.019395691921149656
0.02629999999999988,-0.019480574599141553
0.025299999999999878,-0.019494721712140204
0.024299999999999877,-0.019523015938137503
0.023299999999999876,-0.019579604390132108
0.022299999999999875,-0.019664487068124008
0.021299999999999875,-0.01973522263311726
0.020299999999999874,-0.019749369746115915
0.019299999999999873,-0.019763516859114563
0.018299999999999872,-0.019820105311109164
0.01729999999999987,-0.019919135102099715
0.01629999999999987,-0.019989870667092968
0.01529999999999987,-0.020018164893090266
0.014299999999999868,-0.02003231200608892
0.013299999999999867,-0.02008890045808352
0.012299999999999978,-0.020173783136075422
0.011299999999999866,-0.020258665814067326
0.010299999999999976,-0.020286960040064625
0.009299999999999864,-0.02032940137906058
0.008299999999999974,-0.020357695605057877
0.007299999999999862,-0.02045672539604843
0.006299999999999972,-0.02052746096104168
0.00529999999999986,-0.020569902300037635
0.0042999999999999705,-0.020598196526034934
0.0032999999999998586,-0.020612343639033585
0.0022999999999999687,-0.020725520543022787
0.0012999999999998568,-0.020810403221014687
0.00029999999999996696,-0.020810403221014687
-0.000700000000000145,-0.02085284456001064
-0.0017000000000000348,-0.020895285899006594
-0.0027000000000001467,-0.020994315689997142
-0.0037000000000000366,-0.021079198367989046
-0.0047000000000001485,-0.021107492593986348
-0.005700000000000038,-0.021135786819983647
-0.00670000000000015,-0.0211782281589796
-0.00770000000000004,-0.021277257949970152
-0.008700000000000152,-0.021347993514963404
-0.009700000000000042,-0.021376287740960703
-0.010700000000000154,-0.021418729079956657
-0.011700000000000044,-0.021475317531951258
-0.012700000000000156,-0.021560200209943158
-0.013700000000000045,-0.02167337711393236
-0.014700000000000157,-0.021687524226931015
-0.015700000000000047,-0.021715818452928314
-0.01670000000000016,-0.021758259791924264
-0.01770000000000005,-0.021828995356917517
-0.01870000000000016,-0.021928025147908068
-0.01970000000000005,-0.021956319373905367
-0.020700000000000163,-0.02197046648690402
-0.021700000000000053,-0.02204120205189727
-0.022700000000000164,-0.022140231842887825
-0.023700000000000054,-0.022225114520879725
-0.024700000000000166,-0.022253408746877028
-0.025700000000000056,-0.02226755585987568
-0.026700000000000168,-0.02232414431187028
-0.027700000000000058,-0.02242317410286083
-0.02870000000000017,-0.022493909667854084
-0.02970000000000006,-0.022536351006850038
-0.03070000000000017,-0.022550498119848682
-0.03170000000000006,-0.022607086571843286
-0.03270000000000017,-0.02270611636283384
-0.03370000000000006,-0.02277685192782709
-0.034700000000000175,-0.022819293266823044
-0.035700000000000065,-0.022890028831816296
-0.03670000000000018,-0.022932470170812246
-0.03770000000000007,-0.023045647074801445
-0.03870000000000018,-0.023144676865792004
-0.03970000000000007,-0.023158823978790648
-0.04070000000000018,-0.02318711820478795
-0.04170000000000007,-0.0232295595437839
-0.04270000000000018,-0.023314442221775804
-0.04370000000000007,-0.023371030673770405
-0.044700000000000184,-0.02338517778676906
-0.045700000000000074,-0.023441766238763657
-0.046700000000000186,-0.023498354690758262
-0.047700000000000076,-0.023611531594747465
-0.04870000000000019,-0.023682267159740714
-0.04970000000000008,-0.023696414272739365
-0.05070000000000019,-0.02373885561173532
-0.05170000000000008,-0.023795444063729916
-0.05270000000000019,-0.02390862096771912
-0.05370000000000008,-0.023965209419713723
-0.05470000000000019,-0.023993503645711022
-0.05570000000000008,-0.024021797871708325
-0.056700000000000195,-0.024078386323702922
-0.057700000000000085,-0.024163269001694826
-0.058700000000000196,-0.02426229879268538
-0.059700000000000086,-0.02429059301868268
-0.0607000000000002,-0.02433303435767863
-0.06170000000000009,-0.024403769922671882
-0.0627000000000002,-0.02453109393965974
