Potential V vs RHE, Current mA cm-2
0.013299999999999867,1.6990682711379093
0.012299999999999978,-0.04582249900262853
0.011299999999999866,-1.4415908145624723
0.010299999999999976,-2.7501987669376318
0.009299999999999864,-4.014950669016974
0.008299999999999974,-5.235846520800501
0.007299999999999862,-6.458157083883892
0.006299999999999972,-7.5474847847799715
0.00529999999999986,-8.508073757388331
0.0042999999999999705,-9.335679867809377
0.0032999999999998586,-10.164700689530287
0.0022999999999999687,-10.993721511251199
0.0012999999999998568,-11.952895772559694
0.00029999999999996696,-12.869628694872238
-0.000700000000000145,-13.610937416001518
-0.0017000000000000348,-14.26028990263957
-0.0027000000000001467,-14.826174422585586
-0.0037000000000000366,-15.491088733522153
-0.0047000000000001485,-16.184297270456018
-0.005700000000000038,-16.919947146385837
-0.00670000000000015,-17.627302796318357
-0.00770000000000004,-18.15074597726842
-0.008700000000000152,-18.674189158218486
-0.009700000000000042,-19.155191000172596
-0.010700000000000154,-19.678634181122664
-0.011700000000000044,-20.286960040064624
-0.012700000000000156,-20.89528589900659
-0.013700000000000045,-21.503611757948562
-0.014700000000000157,-21.94217226090672
-0.015700000000000047,-22.33829142486893
-0.01670000000000016,-22.72026347583249
-0.01770000000000005,-23.24370665678255
-0.01870000000000016,-23.767149837732617
-0.01970000000000005,-24.389622809673234
-0.020700000000000163,-24.814036199632742
-0.021700000000000053,-25.167714024599
-0.022700000000000164,-25.521391849565262
-0.023700000000000054,-25.91751101352747
-0.024700000000000166,-26.38436574248293
-0.025700000000000056,-26.907808923433
-0.026700000000000168,-27.43125210438306
-0.027700000000000058,-27.78492992934932
-0.02870000000000017,-28.13860775431558
-0.02970000000000006,-28.435697127287238
-0.03070000000000017,-28.789374952253496
-0.03170000000000006,-29.27037679420761
-0.03270000000000017,-29.793819975157668
-0.03370000000000006,-30.232380478115836
-0.034700000000000175,-30.571911190083444
-0.035700000000000065,-30.8407063370578
-0.03670000000000018,-31.095354371033505
-0.03770000000000007,-31.533914873991666
-0.03870000000000018,-31.972475376949827
-0.03970000000000007,-32.45347721890394
-0.04070000000000018,-32.84959638286615
-0.04170000000000007,-33.14668575583781
-0.04270000000000018,-33.373039563816214
-0.04370000000000007,-33.712570275783825
-0.044700000000000184,-34.10868943974604
-0.045700000000000074,-34.5472499427042
-0.046700000000000186,-34.98581044566235
-0.047700000000000076,-35.282899818634014
-0.04870000000000019,-35.55169496560837
-0.04970000000000008,-35.806342999584075
-0.05070000000000019,-36.11757948555439
-0.05170000000000008,-36.5136986495166
-0.05270000000000019,-36.89567070048016
-0.05370000000000008,-37.291789864442364
-0.05470000000000019,-37.60302635041268
-0.05570000000000008,-37.77279170639648
-0.056700000000000195,-38.04158685337084
-0.057700000000000085,-38.33867622634249
-0.058700000000000196,-38.734795390304704
-0.059700000000000086,-39.130914554266916
-0.0607000000000002,-39.38556258824262
-0.06170000000000009,-39.61191639622103
-0.0627000000000002,-39.78168175220483
-0.06370000000000009,-39.99388844718459
-0.0647000000000002,-40.3900076111468
-0.06570000000000009,-40.78612677510901
-0.0667000000000002,-41.083216148080666
-0.0677000000000001,-41.30956995605907
-0.0687000000000002,-41.43689397304693
-0.0697000000000001,-41.56421799003478
-0.07070000000000021,-41.66324778102533
-0.0717000000000001,-41.83301313700913
-0.07270000000000021,-42.04521983198889
-0.0737000000000001,-42.2715736399673
-0.07470000000000021,-42.483780334947056
-0.0757000000000001,-42.653545690930855
-0.07670000000000021,-42.837458159913304
-0.0777000000000001,-43.04966485489307
-0.07870000000000021,-43.23357732387552
-0.0797000000000001,-43.36090134086337
-0.08070000000000022,-43.40334267985933
-0.0817000000000001,-43.48822535785123
-0.08270000000000022,-43.53066669684718
-0.08370000000000011,-43.70043205283099
-0.08470000000000022,-43.88434452181344
-0.08570000000000011,-44.096551216793195
-0.08670000000000022,-44.181433894785094
-0.08770000000000011,-44.138992555789144
-0.08870000000000022,-44.054109877797245
-0.08970000000000011,-44.054109877797245
-0.09070000000000022,-44.138992555789144
-0.09170000000000011,-44.4077877027635
-0.09270000000000023,-44.619994397743255
-0.09370000000000012,-44.704877075735155
-0.09470000000000023,-44.66243573673921
-0.09570000000000012,-44.4926703807554
-0.09670000000000023,-44.36534636376755
-0.09770000000000012,-44.4077877027635
-0.09870000000000023,-44.4926703807554
-0.09970000000000012,-44.619994397743255
-0.10070000000000023,-44.66243573673921
-0.10170000000000012,-44.535111719751356
-0.10270000000000024,-44.3229050247716
-0.10370000000000013,-44.138992555789144
-0.10470000000000024,-44.011668538801295
-0.10570000000000013,-44.011668538801295
-0.10670000000000024,-44.054109877797245
-0.10770000000000013,-43.96922719980534
-0.10870000000000024,-43.79946184382153
-0.10970000000000013,-43.57310803584313
-0.11070000000000024,-43.40334267985933
-0.11170000000000013,-43.27601866287147
-0.11270000000000002,-43.23357732387552
-0.11370000000000013,-43.04966485489307
-0.11470000000000002,-42.837458159913304
-0.11570000000000014,-42.568663012938956
-0.11670000000000003,-42.3564563179592
-0.11770000000000014,-42.186690961975394
-0.11870000000000003,-42.087661170984845
-0.11970000000000014,-41.96033715399699
-0.12070000000000003,-41.74813045901723
-0.12170000000000014,-41.39445263405098
-0.12270000000000003,-40.99833347008877
-0.12370000000000014,-40.743685436113054
-0.12470000000000003,-40.559772967130606
-0.12570000000000014,-40.43244895014274
-0.12670000000000003,-40.26268359415894
-0.12770000000000015,-39.95144710818864
-0.12870000000000004,-39.56947505722508
-0.12970000000000015,-39.21579723225882
-0.13070000000000004,-38.90456074628851
-0.13170000000000015,-38.692354051308754
-0.13270000000000004,-38.522588695324956
-0.13370000000000015,-38.253793548350586
-0.13470000000000004,-37.85767438438838
-0.13570000000000015,-37.41911388143023
-0.13670000000000004,-37.07958316946261
-0.13770000000000016,-36.768346683492304
-0.13870000000000005,-36.5985813275085
-0.13970000000000016,-36.329786180534136
-0.14070000000000005,-36.03269680756248
-0.14170000000000016,-35.594136304604326
-0.14270000000000005,-35.198017140642115
-0.14370000000000016,-34.8018979766799
-0.14470000000000005,-34.5472499427042
-0.14570000000000016,-34.33504324772444
-0.14670000000000005,-34.06624810075008
-0.14770000000000016,-33.755011614779775
-0.14870000000000005,-33.373039563816214
-0.14970000000000017,-32.892037721862096
-0.15070000000000006,-32.58080123589179
-0.15170000000000017,-32.368594540912035
-0.15270000000000006,-32.14224073293363
-0.15370000000000017,-31.887592698957924
-0.15470000000000006,-31.533914873991666
-0.15570000000000017,-31.137795710029454
-0.15670000000000006,-30.79826499806185
-0.15770000000000017,-30.529469851087494
-0.15870000000000006,-30.317263156107735
-0.15970000000000018,-30.147497800123933
-0.16070000000000007,-29.878702653149578
-0.16170000000000018,-29.525024828183312
-0.16270000000000007,-29.14305277721976
-0.16370000000000018,-28.831816291249446
-0.16470000000000007,-28.619609596269694
-0.16570000000000018,-28.478138466283188
-0.16670000000000007,-28.308373110299385
-0.16770000000000018,-28.05372507632368
-0.16870000000000007,-27.700047251357418
-0.16970000000000018,-27.34636942639116
-0.17070000000000007,-27.049280053419505
-0.17170000000000019,-26.907808923433
-0.17270000000000008,-26.780484906445146
-0.1737000000000002,-26.61071955046134
-0.17470000000000008,-26.34192440348698
-0.1757000000000002,-26.044835030515326
-0.17670000000000008,-25.77603988354097
-0.1777000000000002,-25.60627452755716
-0.17870000000000008,-25.478950510569312
-0.1797000000000002,-25.39406783257741
-0.18070000000000008,-25.210155363594954
-0.1817000000000002,-24.95550732961925
-0.18270000000000008,-24.64427084364894
-0.1837000000000002,-24.432064148669184
-0.1847000000000001,-24.34718147067728
-0.1857000000000002,-24.24815167968673
-0.1867000000000001,-24.120827662698876
-0.1877000000000002,-23.951062306715073
-0.1887000000000001,-23.639825820744765
-0.1897000000000002,-23.427619125765005
-0.1907000000000001,-23.24370665678255
-0.1917000000000001,-23.15882397879065
-0.19269999999999998,-23.15882397879065
-0.1937000000000001,-23.031499961802798
-0.19469999999999998,-22.819293266823045
-0.1957000000000001,-22.550498119848687
-0.19669999999999999,-22.33829142486893
-0.1977000000000001,-22.253408746877028
-0.1987,-22.196820294882425
-0.1997000000000001,-22.15437895588647
-0.2007,-22.069496277894572
-0.2017000000000001,-21.857289582914817
-0.2027,-21.63093577493641
-0.2037000000000001,-21.461170418952605
-0.2047,-21.418729079956652
-0.2057000000000001,-21.376287740960702
-0.2067,-21.333846401964752
-0.2077000000000001,-21.149933932982297
-0.2087,-20.980168576998494
-0.2097000000000001,-20.76796188201874
-0.2107,-20.683079204026836
-0.2117000000000001,-20.626490752032236
-0.2127,-20.626490752032236
-0.2137000000000001,-20.584049413036283
-0.2147,-20.414284057052477
-0.2157000000000001,-20.244518701068674
-0.2167,-20.10304757108217
-0.21770000000000012,-20.01816489309027
-0.2187,-20.01816489309027
-0.21970000000000012,-20.01816489309027
-0.2207,-19.93328221509837
-0.22170000000000012,-19.763516859114564
-0.2227,-19.537163051136158
-0.22370000000000012,-19.409839034148305
-0.2247,-19.409839034148305
-0.22570000000000012,-19.452280373144255
-0.2267,-19.409839034148305
-0.22770000000000012,-19.3249563561564
-0.22870000000000001,-19.112749661176647
-0.22970000000000013,-18.92883719219419
-0.23070000000000002,-18.843954514202288
-0.23170000000000013,-18.88639585319824
-0.23270000000000002,-18.88639585319824
-0.23370000000000013,-18.843954514202288
-0.23470000000000002,-18.716630497214435
-0.23570000000000013,-18.53271802823198
-0.23670000000000002,-18.40539401124413
-0.2376999999999999,-18.362952672248177
-0.23870000000000002,-18.44783535024008
-0.2396999999999999,-18.44783535024008
-0.24070000000000003,-18.40539401124413
-0.24169999999999991,-18.23562865526032
-0.24270000000000003,-18.06586329927652
-0.24369999999999992,-17.966833508285966
-0.24470000000000003,-17.966833508285966
-0.24569999999999992,-18.06586329927652
-0.24670000000000003,-18.06586329927652
-0.24769999999999992,-17.924392169290012
-0.24870000000000003,-17.797068152302163
-0.24969999999999992,-17.627302796318357
-0.25070000000000003,-17.48583166633185
-0.2516999999999999,-17.542420118326454
-0.25270000000000004,-17.669744135314307
-0.2536999999999999,-17.71218547431026
-0.25470000000000004,-17.669744135314307
-0.2556999999999999,-17.48583166633185
-0.25670000000000004,-17.358507649344002
-0.25769999999999993,-17.316066310348052
-0.25870000000000004,-17.2736249713521
-0.25969999999999993,-17.316066310348052
-0.26070000000000004,-17.316066310348052
-0.26169999999999993,-17.2736249713521
-0.26270000000000004,-17.146300954364243
-0.26369999999999993,-17.103859615368293
-0.26470000000000005,-17.146300954364243
-0.26569999999999994,-17.188742293360193
-0.26670000000000005,-17.231183632356142
-0.26769999999999994,-17.188742293360193
-0.26870000000000005,-17.061418276372343
-0.26969999999999994,-17.018976937376394
-0.27070000000000005,-17.018976937376394
-0.27169999999999994,-17.103859615368293
-0.27270000000000005,-17.188742293360193
-0.27369999999999994,-17.188742293360193
-0.27470000000000006,-17.103859615368293
-0.27569999999999995,-17.018976937376394
-0.27670000000000006,-16.962388485381787
-0.27769999999999995,-17.061418276372343
-0.27870000000000006,-17.188742293360193
-0.27969999999999995,-17.231183632356142
-0.28070000000000006,-17.231183632356142
-0.28169999999999995,-17.188742293360193
-0.28270000000000006,-17.103859615368293
-0.28369999999999995,-17.103859615368293
-0.28470000000000006,-17.231183632356142
-0.28569999999999995,-17.358507649344002
-0.28670000000000007,-17.4433903273359
-0.28769999999999996,-17.4433903273359
-0.28870000000000007,-17.40094898833995
-0.28969999999999996,-17.358507649344002
-0.29070000000000007,-17.40094898833995
-0.29169999999999996,-17.584861457322408
-0.29270000000000007,-17.75462681330621
-0.29369999999999996,-17.839509491298113
-0.2947000000000001,-17.797068152302163
-0.29569999999999996,-17.797068152302163
-0.2967000000000001,-17.797068152302163
-0.29769999999999996,-17.924392169290012
-0.2987000000000001,-18.19318731626437
-0.29969999999999997,-18.362952672248177
-0.3007000000000001,-18.44783535024008
-0.30169999999999997,-18.49027668923603
-0.3027000000000001,-18.44783535024008
-0.30369999999999997,-18.53271802823198
-0.3047000000000001,-18.759071836210385
-0.30569999999999997,-18.97127853119014
-0.3067000000000001,-19.197632339168546
-0.3077,-19.28251501716045
-0.3087000000000001,-19.3249563561564
-0.3097,-19.367397695152352
-0.3107000000000001,-19.579604390132108
-0.3117,-19.848399537106463
-0.3127000000000001,-20.10304757108217
-0.3137,-20.286960040064624
-0.3147000000000001,-20.414284057052477
-0.3157,-20.499166735044383
-0.3167000000000001,-20.683079204026836
-0.3177,-20.89528589900659
-0.3187000000000001,-21.248963723972853
-0.3197,-21.58849443594046
-0.3207000000000001,-21.814848243918867
-0.3217,-21.98461359990267
-0.3227000000000001,-22.111937616890522
-0.3237,-22.38073276386488
-0.3247000000000001,-22.776851927827092
-0.3257,-23.15882397879065
-0.3267000000000001,-23.51250180375691
-0.3277,-23.767149837732617
-0.3287000000000001,-24.035944984706973
-0.3297,-24.290593018682678
-0.3307000000000001,-24.64427084364894
-0.3317,-25.12527268560305
-0.3327000000000001,-25.60627452755716
-0.3337,-26.044835030515326
-0.3347000000000001,-26.38436574248293
-0.3357,-26.738043567449193
-0.3367000000000001,-27.091721392415455
-0.3377,-27.615164573365515
-0.3387000000000001,-28.18104909331153
-0.3397,-28.746933613257543
-0.3407000000000001,-29.27037679420761
-0.3417,-29.708937297165768
-0.3427000000000001,-30.147497800123933
-0.3437,-30.71338232006995
-0.3447000000000001,-31.321708179011907
-0.3457,-32.05735805494172
-0.3467000000000001,-32.764713704874254
-0.3477,-33.41548090281216
-0.3487000000000001,-33.98136542275818
-0.3497,-34.632132620696105
-0.3507000000000001,-35.32534115762997
-0.3517,-36.16002082455034
-0.3527000000000001,-37.037141830466666
-0.3537,-37.85767438438838
-0.3547000000000001,-38.607471373316855
-0.3557,-39.34312124924667
-0.35670000000000013,-40.135359577171094
-0.3577,-41.083216148080666
-0.35870000000000013,-42.130102509980794
-0.3597,-43.17698887188092
-0.36070000000000013,-44.181433894785094
-0.3617,-45.143437578693316
-0.3626999999999999,-46.10544126260155
-0.3637,-47.10988628550572
-0.3646999999999999,-48.24165532539775
-0.3657,-49.458307043281685
-0.3666999999999999,-50.68910587416426
-0.3677,-51.90575759204819
-0.3686999999999999,-53.079967970936174
-0.36970000000000003,-54.26832546282281
-0.3706999999999999,-55.527418519702685
-0.37170000000000003,-56.927982706569075
-0.3726999999999999,-58.39928245842871
-0.37370000000000003,-59.842287984291055
-0.3746999999999999,-61.242852171157445
-0.37570000000000003,-62.64341635802381
-0.3766999999999999,-64.0722747708875
-0.37770000000000004,-65.68504565273366
-0.3786999999999999,-67.39684632557035
-0.37970000000000004,-69.13694122440434
-0.3806999999999999,-70.8345947842424
-0.38170000000000004,-72.48980700508447
-0.38269999999999993,-74.14501922592657
-0.38370000000000004,-75.8992612377592
-0.38469999999999993,-77.80912149257702
-0.38570000000000004,-79.86045287738132
-0.38669999999999993,-80.56780852731384
-0.38570000000000004,-79.25212701843935
-0.38469999999999993,-78.29012333453113
-0.38370000000000004,-77.63935613659322
-0.38269999999999993,-77.1583542946391
-0.38170000000000004,-76.86126492166746
-0.3806999999999999,-76.55002843569714
-0.37970000000000004,-76.23879194972683
-0.3786999999999999,-75.77193722077136
-0.37770000000000004,-75.33337671781321
-0.3766999999999999,-74.89481621485504
-0.37570000000000003,-74.54113838988879
-0.3746999999999999,-74.24404901691713
-0.37370000000000003,-73.89037119195086
-0.3726999999999999,-73.45181068899271
-0.37170000000000003,-72.8859261690467
-0.3706999999999999,-72.32004164910067
-0.36970000000000003,-71.7965984681506
-0.3686999999999999,-71.31559662619651
-0.3677,-70.91947746223428
-0.3666999999999999,-70.43847562028017
-0.3657,-69.87259110033416
-0.3646999999999999,-69.1793825634003
-0.3637,-68.52861536546239
-0.3626999999999999,-67.86370105452582
-0.3617,-67.2978165345798
-0.36070000000000013,-66.77437335362974
-0.3597,-66.16604749468777
-0.35870000000000013,-65.4728389577539
-0.3577,-64.68060062982947
-0.35670000000000013,-63.944950753899654
-0.3557,-63.251742216965795
-0.3547000000000001,-62.64341635802381
-0.3537,-62.02094338608321
-0.3527000000000001,-61.327734849149344
-0.3517,-60.49305518222897
-0.3507000000000001,-59.67252262830725
-0.3497,-58.83784296138688
-0.3487000000000001,-58.14463442445301
-0.3477,-57.493867226515086
-0.3467000000000001,-56.82895291557852
-0.3457,-56.05086170065276
-0.3447000000000001,-55.17374069473642
-0.3437,-54.35320814081471
-0.3427000000000001,-53.518528473894335
-0.3417,-52.78287859796452
-0.3407000000000001,-52.075522948032
-0.3397,-51.33987307210218
-0.3387000000000001,-50.50519340518181
-0.3377,-49.642219512264134
-0.3367000000000001,-48.76509850634781
-0.3357,-47.93041883942744
-0.3347000000000001,-47.19476896349763
-0.3337,-46.501560426563756
-0.3327000000000001,-45.70932209863933
-0.3317,-44.84634820572166
-0.3307000000000001,-43.92678586080939
-0.3297,-43.04966485489307
-0.3287000000000001,-42.31401497896325
-0.3277,-41.66324778102533
-0.3267000000000001,-40.91345079209687
-0.3257,-40.135359577171094
-0.3247000000000001,-39.258238571254765
-0.3237,-38.38111756533845
-0.3227000000000001,-37.60302635041268
-0.3217,-36.8532293614842
-0.3207000000000001,-36.20246216354629
-0.3197,-35.46681228761647
-0.3187000000000001,-34.632132620696105
-0.3177,-33.81160006677438
-0.3167000000000001,-32.97692039985401
-0.3157,-32.24127052392419
-0.3147000000000001,-31.57635621298762
-0.3137,-30.925589015049702
-0.3127000000000001,-30.189939139119886
-0.3117,-29.35525947219951
-0.3107000000000001,-28.53472691827779
-0.3097,-27.742488590353368
-0.3087000000000001,-27.091721392415455
-0.3077,-26.483395533473487
-0.3067000000000001,-25.86092256153287
-0.30569999999999997,-25.12527268560305
-0.3047000000000001,-24.34718147067728
-0.30369999999999997,-23.55494314275286
-0.3027000000000001,-22.861734605818995
-0.30169999999999997,-22.295850085872978
-0.3007000000000001,-21.729965565926964
-0.29969999999999997,-21.065051254990397
-0.2987000000000001,-20.414284057052477
-0.29769999999999996,-19.636192842126707
-0.2967000000000001,-18.92883719219419
-0.29569999999999996,-18.362952672248177
-0.2947000000000001,-17.797068152302163
-0.29369999999999996,-17.2736249713521
-0.29270000000000007,-16.70774045140608
-0.29169999999999996,-16.014531914472215
-0.29070000000000007,-15.307176264539699
-0.28969999999999996,-14.69885040559773
-0.28870000000000007,-14.217848563643619
-0.28769999999999996,-13.741090855589102
-0.28670000000000007,-13.261503724934855
-0.28569999999999995,-12.694204493688973
-0.28470000000000006,-12.040607873151327
-0.28369999999999995,-11.385596541313816
-0.28270000000000006,-10.863568071663616
-0.28169999999999995,-10.382566229709504
-0.28070000000000006,-9.99069119964689
-0.27969999999999995,-9.55496011928846
-0.27870000000000006,-8.987660888042578
-0.27769999999999995,-8.4203616567967
-0.27670000000000006,-7.853062425550818
-0.27569999999999995,-7.37347529489657
-0.27470000000000006,-7.024041603829907
-0.27369999999999994,-6.6760226240631075
-0.27270000000000005,-6.238876832404812
-0.27169999999999994,-5.715433651454749
-0.27070000000000005,-5.191990470504685
-0.26969999999999994,-4.756259390146253
-0.26870000000000005,-4.406825699079589
-0.26769999999999994,-4.102662769608606
-0.26670000000000005,-3.7532290785419424
