Potential V vs RHE, Current mA cm-2
0.013299999999999867,1.701897693737639
0.012299999999999978,0.14939351326574787
0.011299999999999866,-0.9891661408656335
0.010299999999999976,-2.230999719887163
0.009299999999999864,-3.3330598224820265
0.008299999999999974,-4.068709698411845
0.007299999999999862,-4.927439457429923
0.006299999999999972,-5.879540162239093
0.00529999999999986,-6.480792464681733
0.0042999999999999705,-7.057994675026669
0.0032999999999998586,-7.86155069335001
0.0022999999999999687,-8.459973573192919
0.0012999999999998568,-8.868825138853914
0.00029999999999996696,-9.492712822094397
-0.000700000000000145,-10.119429927934608
-0.0017000000000000348,-10.443398815603702
-0.0027000000000001467,-10.914497678458758
-0.0037000000000000366,-11.532726516499778
-0.0047000000000001485,-11.836889445970762
-0.005700000000000038,-12.14812593194107
-0.00670000000000015,-12.74937823438371
-0.00770000000000004,-13.14549739834592
-0.008700000000000152,-13.3364834238277
-0.009700000000000042,-13.824558822281137
-0.010700000000000154,-14.331025467632822
-0.011700000000000044,-14.529085049613924
-0.012700000000000156,-14.840321535584234
-0.013700000000000045,-15.307176264539699
-0.014700000000000157,-15.505235846520803
-0.015700000000000047,-15.675001202504609
-0.01670000000000016,-16.141855931460068
-0.01770000000000005,-16.46723953042903
-0.01870000000000016,-16.55212220842093
-0.01970000000000005,-16.90580003338719
-0.020700000000000163,-17.316066310348052
-0.021700000000000053,-17.4433903273359
-0.022700000000000164,-17.683891248312957
-0.023700000000000054,-18.10830463827247
-0.024700000000000166,-18.292217107254928
-0.025700000000000056,-18.44783535024008
-0.026700000000000168,-18.843954514202288
-0.027700000000000058,-19.098602548177997
-0.02870000000000017,-19.211779452167196
-0.02970000000000006,-19.565457277133458
-0.03070000000000017,-19.876693763103766
-0.03170000000000006,-19.947429328097016
-0.03270000000000017,-20.21622447507137
-0.03370000000000006,-20.612343639033586
-0.034700000000000175,-20.69722631702549
-0.035700000000000065,-20.838697447011988
-0.03670000000000018,-21.22066949797555
-0.03770000000000007,-21.418729079956652
-0.03870000000000018,-21.447023305953955
-0.03970000000000007,-21.772406904922917
-0.04070000000000018,-22.055349164895922
-0.04170000000000007,-22.083643390893226
-0.04270000000000018,-22.281702972874328
-0.04370000000000007,-22.63538079784059
-0.044700000000000184,-22.67782213683654
-0.045700000000000074,-22.776851927827092
-0.046700000000000186,-23.13052975279335
-0.047700000000000076,-23.286147995778503
-0.04870000000000019,-23.286147995778503
-0.04970000000000008,-23.54079602975421
-0.05070000000000019,-23.767149837732617
-0.05170000000000008,-23.738855611735314
-0.05270000000000019,-23.88032674172182
-0.05370000000000008,-24.17741611469348
-0.05470000000000019,-24.191563227692125
-0.05570000000000008,-24.191563227692125
-0.056700000000000195,-24.488652600663784
-0.057700000000000085,-24.601829504652986
-0.058700000000000196,-24.502799713662437
-0.059700000000000086,-24.686712182644893
-0.0607000000000002,-24.9130659906233
-0.06170000000000009,-24.842330425630045
-0.0627000000000002,-24.898918877624645
-0.06370000000000009,-25.09697845960575
-0.0647000000000002,-25.026242894612498
-0.06570000000000009,-24.997948668615198
-0.0667000000000002,-25.196008250596304
-0.0677000000000001,-25.196008250596304
-0.0687000000000002,-25.054537120609798
-0.0697000000000001,-25.196008250596304
-0.07070000000000021,-25.266743815589557
-0.0717000000000001,-25.111125572604404
-0.07270000000000021,-25.153566911600354
-0.0737000000000001,-25.280890928588207
-0.07470000000000021,-25.210155363594954
-0.0757000000000001,-25.09697845960575
-0.07670000000000021,-25.18186113759765
-0.0777000000000001,-25.09697845960575
-0.07870000000000021,-24.941360216620595
-0.0797000000000001,-24.997948668615198
-0.08070000000000022,-24.997948668615198
-0.0817000000000001,-24.729153521640843
-0.08270000000000022,-24.630123730650286
-0.08370000000000011,-24.71500640864219
-0.08470000000000022,-24.488652600663784
-0.08570000000000011,-24.27644590568403
-0.08670000000000022,-24.34718147067728
-0.08770000000000011,-24.191563227692125
-0.08870000000000022,-23.894473854720466
-0.08970000000000011,-23.88032674172182
-0.09070000000000022,-23.852032515724517
-0.09170000000000011,-23.526648916755562
-0.09270000000000023,-23.371030673770406
-0.09370000000000012,-23.427619125765005
-0.09470000000000023,-23.144676865792
-0.09570000000000012,-22.819293266823045
-0.09670000000000023,-22.861734605818995
-0.09770000000000012,-22.72026347583249
-0.09870000000000023,-22.33829142486893
-0.09970000000000012,-22.253408746877028
-0.10070000000000023,-22.168526068885125
-0.10170000000000012,-21.800701130920213
-0.10270000000000024,-21.61678866193776
-0.10370000000000013,-21.574347322941808
-0.10470000000000024,-21.277257949970153
-0.10570000000000013,-21.008462802995794
-0.10670000000000024,-20.980168576998494
-0.10770000000000013,-20.76796188201874
-0.10870000000000024,-20.38598983105518
-0.10970000000000013,-20.301107153063278
-0.11070000000000024,-20.202077362072725
-0.11170000000000013,-19.820105311109163
-0.11270000000000002,-19.622045729128057
-0.11370000000000013,-19.593751503130758
-0.11470000000000002,-19.25422079116315
-0.11570000000000014,-18.97127853119014
-0.11670000000000003,-18.94298430519284
-0.11770000000000014,-18.730777610213085
-0.11870000000000003,-18.348805559249524
-0.11970000000000014,-18.249775768258974
-0.12070000000000003,-18.164893090267068
-0.12170000000000014,-17.797068152302163
-0.12270000000000003,-17.599008570321057
-0.12370000000000014,-17.599008570321057
-0.12470000000000003,-17.28777208435075
-0.12570000000000014,-17.00482982437774
-0.12670000000000003,-17.00482982437774
-0.12770000000000015,-16.806770242396635
-0.12870000000000004,-16.453092417430376
-0.12970000000000015,-16.396503965435777
-0.13070000000000004,-16.311621287443874
-0.13170000000000015,-15.957943462477614
-0.13270000000000004,-15.802325219492458
-0.13370000000000015,-15.78817810649381
-0.13470000000000004,-15.519382959519453
-0.13570000000000015,-15.250587812545096
-0.13670000000000004,-15.278882038542395
-0.13770000000000016,-15.094969569559943
-0.13870000000000005,-14.783733083589633
-0.13970000000000016,-14.769585970590983
-0.14070000000000005,-14.71299751859638
-0.14170000000000016,-14.387613919627421
-0.14270000000000005,-14.274437015638219
-0.14370000000000016,-14.274437015638219
-0.14470000000000005,-14.028277249461704
-0.14570000000000016,-13.817485265781814
-0.14670000000000005,-13.857097182178034
-0.14770000000000016,-13.72128489739099
-0.14870000000000005,-13.421366101819604
-0.14970000000000017,-13.434098503518388
-0.15070000000000006,-13.418536679219873
-0.15170000000000017,-13.121447306248216
-0.15270000000000006,-13.029491071756988
-0.15370000000000017,-13.09173836895105
-0.15470000000000006,-12.86679927227251
-0.15570000000000017,-12.677227958090594
-0.15670000000000006,-12.73806054398479
-0.15770000000000017,-12.623468928695722
-0.15870000000000006,-12.365991472120287
-0.15970000000000018,-12.388626852918126
-0.16070000000000007,-12.3815532964188
-0.16170000000000018,-12.138222952842016
-0.16270000000000007,-12.066072676548897
-0.16370000000000018,-12.14246708674161
-0.16470000000000007,-11.93167510306172
-0.16570000000000018,-11.774642148776701
-0.16670000000000007,-11.879330784966712
-0.16770000000000018,-11.754836190578589
-0.16870000000000007,-11.515749980901399
-0.16970000000000018,-11.576582566795595
-0.17070000000000007,-11.58648554589465
-0.17170000000000019,-11.33891106841827
-0.17270000000000008,-11.290810884222859
-0.1737000000000002,-11.388425963913546
-0.17470000000000008,-11.20734291753082
-0.1757000000000002,-11.057383519745128
-0.17670000000000008,-11.1677310011346
-0.1777000000000002,-11.088507168342158
-0.17870000000000008,-10.867812205563212
-0.1797000000000002,-10.935718347956733
-0.18070000000000008,-10.949865460955383
-0.1817000000000002,-10.722096941677114
-0.18270000000000008,-10.707949828678462
-0.1837000000000002,-10.805564908369151
-0.1847000000000001,-10.635799552385345
-0.1857000000000002,-10.508475535397492
-0.1867000000000001,-10.62023772808683
-0.1877000000000002,-10.556575719592905
-0.1887000000000001,-10.355686715012068
-0.1897000000000002,-10.422178146105725
-0.1907000000000001,-10.473107752900868
-0.1917000000000001,-10.249583367522192
-0.19269999999999998,-10.232606831923809
-0.1937000000000001,-10.357101426311932
-0.19469999999999998,-10.177433091229075
-0.1957000000000001,-10.057182630740547
-0.19669999999999999,-10.19299491552759
-0.1977000000000001,-10.127918195733796
-0.1987,-9.938346881551883
-0.1997000000000001,-10.02464427084365
-0.2007,-10.064256187239872
-0.2017000000000001,-9.8647818939589
-0.2027,-9.854878914859846
-0.2037000000000001,-9.983617643147563
-0.2047,-9.81668170976349
-0.2057000000000001,-9.709163650973746
-0.2067,-9.860537760059307
-0.2077000000000001,-9.8081934419643
-0.2087,-9.60871914868333
-0.2097000000000001,-9.703504805774287
-0.2107,-9.761507969068754
-0.2117000000000001,-9.574766077486567
-0.2127,-9.559204253188051
-0.2137000000000001,-9.683698847576176
-0.2147,-9.543642428889537
-0.2157000000000001,-9.470077441296555
-0.2167,-9.605889726083598
-0.21770000000000012,-9.552130696688728
-0.2187,-9.358315248607218
-0.21970000000000012,-9.461589173497366
-0.2207,-9.519592336791833
-0.22170000000000012,-9.327191600010188
-0.2227,-9.318703332210998
-0.22370000000000012,-9.44319792659912
-0.2247,-9.305970930512213
-0.22570000000000012,-9.225332386419904
-0.2267,-9.361144671206947
-0.22770000000000012,-9.322947466110591
-0.22870000000000001,-9.147523264927328
-0.22970000000000013,-9.24938247851761
-0.23070000000000002,-9.313044487011537
-0.23170000000000013,-9.12913201802908
-0.23270000000000002,-9.151767398826921
-0.23370000000000013,-9.294653240113291
-0.23470000000000002,-9.151767398826921
-0.23570000000000013,-9.065470009535154
-0.23670000000000002,-9.216844118620713
-0.2376999999999999,-9.178646913524359
-0.23870000000000002,-9.025858093138934
-0.2396999999999999,-9.147523264927328
-0.24070000000000003,-9.209770562121388
-0.24169999999999991,-9.020199247939473
-0.24270000000000003,-9.056981741735965
-0.24369999999999992,-9.228161809019635
-0.24470000000000003,-9.093764235532456
-0.24569999999999992,-9.01029626884042
-0.24670000000000003,-9.202697005622065
-0.24769999999999992,-9.171573357025034
-0.24870000000000003,-9.020199247939473
-0.24969999999999992,-9.156011532726518
-0.25070000000000003,-9.239479499418556
-0.2516999999999999,-9.073958277334345
-0.25270000000000004,-9.131961440628812
-0.2536999999999999,-9.304556219212346
-0.25470000000000004,-9.191379315223143
-0.2556999999999999,-9.127717306729215
-0.25670000000000004,-9.324362177410457
-0.25769999999999993,-9.328606311310052
-0.25870000000000004,-9.191379315223143
-0.25969999999999993,-9.349826980808027
-0.26070000000000004,-9.45734503959777
-0.26169999999999993,-9.32011804351086
-0.26270000000000004,-9.388024185904383
-0.26369999999999993,-9.574766077486567
-0.26470000000000005,-9.49695695599399
-0.26569999999999994,-9.472906863896286
-0.26670000000000005,-9.709163650973746
-0.26769999999999994,-9.726140186572128
-0.26870000000000005,-9.60871914868333
-0.26969999999999994,-9.789802195066054
-0.27070000000000005,-9.925614479853097
-0.27169999999999994,-9.801119885464974
-0.27270000000000005,-9.904393810355122
-0.27369999999999994,-10.130747618333528
-0.27470000000000006,-10.07274445503906
-0.27569999999999995,-10.085476856737847
-0.27670000000000006,-10.328807200314634
-0.27769999999999995,-10.381151518409638
-0.27870000000000006,-10.318904221215577
-0.27969999999999995,-10.528281493595602
-0.28070000000000006,-10.692388004379948
-0.28169999999999995,-10.63155541848575
-0.28270000000000006,-10.778685393671715
-0.28369999999999995,-11.053139385845531
-0.28470000000000006,-11.022015737248502
-0.28569999999999995,-11.075774766643372
-0.28670000000000007,-11.38701125261368
-0.28769999999999996,-11.491699888803693
-0.28870000000000007,-11.480382198404772
-0.28969999999999996,-11.766153880977509
-0.29070000000000007,-11.986848843756457
-0.29169999999999996,-11.967042885558346
-0.29270000000000007,-12.17642015793837
-0.29369999999999996,-12.49331548910814
-0.2947000000000001,-12.549903941102741
-0.29569999999999996,-12.643274886893833
-0.2967000000000001,-13.021002803957797
-0.29769999999999996,-13.213403540739444
-0.2987000000000001,-13.269991992734044
-0.29969999999999997,-13.608107993401788
-0.3007000000000001,-13.908026788973176
-0.30169999999999997,-13.973103508766966
-0.3027000000000001,-14.26028990263957
-0.30369999999999997,-14.67055617960043
-0.3047000000000001,-14.826174422585586
-0.30569999999999997,-15.05252823056399
-0.3067000000000001,-15.505235846520803
-0.3077,-15.78817810649381
-0.3087000000000001,-15.957943462477614
-0.3097,-16.410651078434423
-0.3107000000000001,-16.849211581392588
-0.3117,-17.03312405037504
-0.3127000000000001,-17.429243214337255
-0.3137,-17.980980621284615
-0.3147000000000001,-18.27806999425627
-0.3157,-18.645894932221182
-0.3167000000000001,-19.2683679041618
-0.3177,-19.678634181122664
-0.3187000000000001,-20.01816489309027
-0.3197,-20.668932091028186
-0.3207000000000001,-21.30555217596745
-0.3217,-21.67337711393236
-0.3227000000000001,-22.253408746877028
-0.3237,-23.017352848804148
-0.3247000000000001,-23.54079602975421
-0.3257,-24.134974775697525
-0.3267000000000001,-24.969654442617898
-0.3277,-25.620421640555815
-0.3287000000000001,-26.20045327350048
-0.3297,-27.120015618412754
-0.3307000000000001,-27.997136624329073
-0.3317,-28.633756709268344
-0.3327000000000001,-29.496730602186016
-0.3337,-30.55776407708479
-0.3347000000000001,-31.37829663100651
-0.3357,-32.255417636922836
-0.3367000000000001,-33.42962801581082
-0.3377,-34.462367264712285
-0.3387000000000001,-35.38192960962457
-0.3397,-36.64102266650445
-0.3407000000000001,-37.88596861038568
-0.3417,-38.93285497228581
-0.3427000000000001,-40.20609514216434
-0.3437,-41.66324778102533
-0.3447000000000001,-42.89404661190791
-0.3457,-44.25216945977835
-0.3467000000000001,-45.87908745462314
-0.3477,-47.39282854547873
-0.3487000000000001,-48.83583407134107
-0.3497,-50.59007608317371
-0.3507000000000001,-52.34431809500636
-0.3517,-53.91464763785655
-0.3527000000000001,-55.76791944067975
-0.3537,-57.819250825484055
-0.3547000000000001,-59.587639950315335
-0.3557,-61.46920597913584
-0.35670000000000013,-63.6761556069253
-0.3577,-65.71333987873095
-0.35870000000000013,-67.65149435954605
-0.3597,-69.88673821333282
-0.36070000000000013,-72.16442340611552
-0.3617,-74.25819612991579
-0.3626999999999999,-76.49343998370253
-0.3637,-78.8701549674758
-0.3646999999999999,-81.006369030272
-0.3657,-83.21331865806147
-0.3666999999999999,-85.70321054582392
-0.3677,-87.95260151260933
-0.3686999999999999,-90.11710980140283
-0.36970000000000003,-92.62114880216394
-0.3706999999999999,-95.02615801193451
-0.37170000000000003,-97.20481341372668
-0.3726999999999999,-99.58152839749994
-0.37370000000000003,-102.09971451125969
-0.3746999999999999,-104.3773997040424
-0.37570000000000003,-106.58434933183186
-0.3766999999999999,-109.03179988059838
-0.37770000000000004,-111.43680909036894
-0.3786999999999999,-113.72864139615028
-0.37970000000000004,-116.10535637992358
-0.3806999999999999,-118.38304157270628
-0.38170000000000004,-120.47681429650652
-0.38269999999999993,-122.9950004102663
-0.38370000000000004,-125.54148075002335
-0.38469999999999993,-127.64940058682225
-0.38570000000000004,-129.75732042362114
-0.38669999999999993,-130.5637058645442
-0.38570000000000004,-129.67243774562928
-0.38469999999999993,-128.85190519170752
-0.38370000000000004,-128.28602067176152
-0.38269999999999993,-127.64940058682225
-0.38170000000000004,-126.75813246790726
-0.3806999999999999,-125.99418836598016
-0.37970000000000004,-125.30097982904631
-0.3786999999999999,-124.35312325813672
-0.37770000000000004,-123.51844359121634
-0.3766999999999999,-122.81108794128383
-0.37570000000000003,-121.87737848337291
-0.3746999999999999,-120.67487387848762
-0.37370000000000003,-119.81189998556997
-0.3726999999999999,-119.00551454464687
-0.37170000000000003,-118.0010695217427
-0.3706999999999999,-117.06736006383179
-0.36970000000000003,-116.17609194491682
-0.3686999999999999,-115.03017579202613
-0.3677,-113.96914231712736
-0.3666999999999999,-113.06372708521374
-0.3657,-112.00269361031496
-0.3646999999999999,-110.87092457042293
-0.3637,-109.937215112512
-0.3626999999999999,-109.00350565460108
-0.3617,-107.7161183717239
-0.36070000000000013,-106.66923200982377
-0.3597,-105.891140794898
-0.35870000000000013,-104.68863619001272
-0.3577,-103.45783735913014
-0.35670000000000013,-102.53827501421786
-0.3557,-101.42065308732448
-0.3547000000000001,-100.17570714344325
-0.3537,-99.22785057253368
-0.3527000000000001,-98.20925843663085
-0.3517,-96.93601826675231
-0.3507000000000001,-95.83254345285758
-0.3497,-94.89883399494667
-0.3487000000000001,-93.69632939006138
-0.3477,-92.50797189817473
-0.3467000000000001,-91.56011532726518
-0.3457,-90.4424934003718
-0.3447000000000001,-89.16925323049325
-0.3437,-88.13651398159179
-0.3427000000000001,-87.10377473269031
-0.3417,-85.81638744981312
-0.3407000000000001,-84.78364820091166
-0.3397,-83.83579163000208
-0.3387000000000001,-82.53425723412623
-0.3377,-81.33175262924095
-0.3367000000000001,-80.44048451032599
-0.3357,-79.33700969643127
-0.3347000000000001,-78.02132818755678
-0.3337,-77.0168831646526
-0.3327000000000001,-75.99829102874978
-0.3317,-74.75334508486853
-0.3307000000000001,-73.7347529489657
-0.3297,-72.78689637805614
-0.3287000000000001,-71.49950909517896
-0.3277,-70.36774005528693
-0.3267000000000001,-69.58964884036115
-0.3257,-68.48617402646643
-0.3247000000000001,-67.25537519558385
-0.3237,-66.40654841566483
-0.3227000000000001,-65.57186874874445
-0.3217,-64.36936414385917
-0.3207000000000001,-63.322477781959044
-0.3197,-62.36047409805081
-0.3187000000000001,-61.28529351015339
-0.3177,-60.18181869625866
-0.3167000000000001,-59.31884480334099
-0.3157,-58.22951710244491
-0.3147000000000001,-56.942129819567725
-0.3137,-56.008420361656796
-0.3127000000000001,-55.07471090374588
-0.3117,-53.85805918586195
-0.3107000000000001,-52.86776127595642
-0.3097,-52.061375835033346
-0.3087000000000001,-50.92960679514132
-0.3077,-49.79783775524929
-0.3067000000000001,-48.991452314326224
-0.30569999999999997,-48.086037082412595
-0.3047000000000001,-47.01085649451517
-0.30369999999999997,-46.162029714596144
-0.3027000000000001,-45.242467369683865
-0.30169999999999997,-44.16728678178645
-0.3007000000000001,-43.30431288886877
-0.29969999999999997,-42.540368786941656
-0.2987000000000001,-41.50762953804018
-0.29769999999999996,-40.503184515136
-0.2967000000000001,-39.76753463920618
-0.29569999999999996,-38.89041363328986
-0.2947000000000001,-37.85767438438838
-0.29369999999999996,-37.107877395459916
-0.29270000000000007,-36.30149195453684
-0.29169999999999996,-35.268752705635364
-0.29070000000000007,-34.44822015171364
-0.28969999999999996,-33.76915872777842
-0.28870000000000007,-32.807155043870196
-0.28769999999999996,-31.915886924955227
-0.28670000000000007,-31.23682550102001
-0.28569999999999995,-30.444587173095588
-0.28470000000000006,-29.539171941181966
-0.28369999999999995,-28.86011051724675
-0.28270000000000006,-28.166901980312883
-0.28169999999999995,-27.261486748399253
-0.28070000000000006,-26.55413109846674
-0.27969999999999995,-25.974099465522073
-0.27870000000000006,-25.1394197986017
-0.27769999999999995,-24.33303435767863
-0.27670000000000006,-23.781296950731264
-0.27569999999999995,-23.045647074801447
-0.27470000000000006,-22.210967407881075
-0.27369999999999994,-21.659230000933714
-0.27270000000000005,-21.050904141991744
-0.27169999999999994,-20.230371588070028
-0.27070000000000005,-19.622045729128057
-0.26969999999999994,-19.141043887173947
-0.26870000000000005,-18.391246898245473
-0.26769999999999994,-17.698038361311607
