Potential V vs RHE, Current mA cm-2
0.013299999999999867,-0.07008479779531392
0.012299999999999978,-0.828596408330952
0.011299999999999866,-1.231081773142555
0.010299999999999976,-1.4896909987578837
0.009299999999999864,-1.6622857773414181
0.008299999999999974,-1.8037569073279218
0.007299999999999862,-1.9523015938137507
0.006299999999999972,-2.102260991599445
0.00529999999999986,-2.216852606888512
0.0042999999999999705,-2.3045647074801447
0.0032999999999998586,-2.388032674172182
0.0022999999999999687,-2.4927213103621946
0.0012999999999998568,-2.6200453273500477
0.00029999999999996696,-2.7105868505414104
-0.000700000000000145,-2.7799077042347973
-0.0017000000000000348,-2.856302114427509
-0.0027000000000001467,-2.9539171941181968
-0.0037000000000000366,-3.0755823659065897
-0.0047000000000001485,-3.171782734297412
-0.005700000000000038,-3.2425182992906643
-0.00670000000000015,-3.323156843382971
-0.00770000000000004,-3.426430768273119
-0.008700000000000152,-3.552340073961107
-0.009700000000000042,-3.6655169779503103
-0.010700000000000154,-3.751814367242077
-0.011700000000000044,-3.838111756533844
-0.012700000000000156,-3.9498739492231825
-0.013700000000000045,-4.077197966211036
-0.014700000000000157,-4.203107271899024
-0.015700000000000047,-4.289404661190791
-0.01670000000000016,-4.387019740881478
-0.01770000000000005,-4.514343757869332
-0.01870000000000016,-4.655814887855835
-0.01970000000000005,-4.791627172642879
-0.020700000000000163,-4.8977305201327574
-0.021700000000000053,-5.01373684672169
-0.022700000000000164,-5.158037399307924
-0.023700000000000054,-5.316485064892808
-0.024700000000000166,-5.466444462678503
-0.025700000000000056,-5.593768479666355
-0.026700000000000168,-5.7111895175551535
-0.027700000000000058,-5.869637183140037
-0.02870000000000017,-6.053549652122491
-0.02970000000000006,-6.2162414516069715
-0.03070000000000017,-6.3534684476938805
-0.03170000000000006,-6.4595717951837575
-0.03270000000000017,-6.620848883368372
-0.03370000000000006,-6.813249620150017
-0.034700000000000175,-6.975941419634496
-0.035700000000000065,-7.125900817420191
-0.03670000000000018,-7.280104349105479
-0.03770000000000007,-7.445625571189688
-0.03870000000000018,-7.645099864470658
-0.03970000000000007,-7.826182910853383
-0.04070000000000018,-7.976142308639078
-0.04170000000000007,-8.124686995124907
-0.04270000000000018,-8.29162292850898
-0.04370000000000007,-8.495341355689545
-0.044700000000000184,-8.66793613427308
-0.045700000000000074,-8.812236686859313
-0.046700000000000186,-8.967854929844465
-0.047700000000000076,-9.119229038930026
-0.04870000000000019,-9.3144591983114
-0.04970000000000008,-9.502615801193452
-0.05070000000000019,-9.639842797280359
-0.05170000000000008,-9.782728638566729
-0.05270000000000019,-9.945420438051208
-0.05370000000000008,-10.122259350534337
-0.05470000000000019,-10.290609995218277
-0.05570000000000008,-10.408031033107076
-0.056700000000000195,-10.533940338795064
-0.057700000000000085,-10.683899736580756
-0.058700000000000196,-10.839517979565912
-0.059700000000000086,-10.980989109552414
-0.0607000000000002,-11.089921879642024
-0.06170000000000009,-11.211587051430415
-0.0627000000000002,-11.348814047517324
-0.06370000000000009,-11.481796909704636
-0.0647000000000002,-11.594973813693839
-0.06570000000000009,-11.682685914285473
-0.0667000000000002,-11.74917734537913
-0.0677000000000001,-11.852451270269277
-0.0687000000000002,-11.967042885558346
-0.0697000000000001,-12.056169697449842
-0.07070000000000021,-12.131149396342689
-0.0717000000000001,-12.162273044939722
-0.07270000000000021,-12.225935053433647
-0.0737000000000001,-12.320720710524604
-0.07470000000000021,-12.374479739919476
-0.0757000000000001,-12.397115120717316
-0.07670000000000021,-12.408432811116237
-0.0777000000000001,-12.438141748413402
-0.07870000000000021,-12.497559623007733
-0.0797000000000001,-12.517365581205844
-0.08070000000000022,-12.514536158606116
-0.0817000000000001,-12.494730200408004
-0.08270000000000022,-12.48765664390868
-0.08370000000000011,-12.497559623007733
-0.08470000000000022,-12.49331548910814
-0.08570000000000011,-12.445215304912727
-0.08670000000000022,-12.394285698117587
-0.08770000000000011,-12.35042964782177
-0.08870000000000022,-12.343356091322446
-0.08970000000000011,-12.306573597525954
-0.09070000000000022,-12.207543806535401
-0.09170000000000011,-12.119831705943769
-0.09270000000000023,-12.056169697449842
-0.09370000000000012,-11.999581245455241
-0.09470000000000023,-11.933089814361585
-0.09570000000000012,-11.815668776472787
-0.09670000000000023,-11.698247738583987
-0.09770000000000012,-11.6006326588933
-0.09870000000000023,-11.519994114800994
-0.09970000000000012,-11.419549612510576
-0.10070000000000023,-11.295055018122452
-0.10170000000000012,-11.139436775137298
-0.10270000000000024,-11.024845159848232
-0.10370000000000013,-10.920156523658218
-0.10470000000000024,-10.805564908369151
-0.10570000000000013,-10.658434933183187
-0.10670000000000024,-10.501401978898167
-0.10770000000000013,-10.367004405410988
-0.10870000000000024,-10.248168656222326
-0.10970000000000013,-10.113771082735147
-0.11070000000000024,-9.953908705850399
-0.11170000000000013,-9.784143349866595
-0.11270000000000002,-9.64267221988009
-0.11370000000000013,-9.53656887239021
-0.11470000000000002,-9.393683031103844
-0.11570000000000014,-9.22674709771977
-0.11670000000000003,-9.071128854734614
-0.11770000000000014,-8.931072436047977
-0.11870000000000003,-8.815066109459044
-0.11970000000000014,-8.68774209247119
-0.12070000000000003,-8.537782694685495
-0.12170000000000014,-8.379335029100613
-0.12270000000000003,-8.244937455613433
-0.12370000000000014,-8.141663530723285
-0.12470000000000003,-8.027071915434218
-0.12570000000000014,-7.875697806348659
-0.12670000000000003,-7.722908985963235
-0.12770000000000015,-7.6012438141748415
-0.12870000000000004,-7.5092875796836145
-0.12970000000000015,-7.418746056492251
-0.13070000000000004,-7.2730307926061535
-0.13170000000000015,-7.144292064318436
-0.13270000000000004,-7.039603428128422
-0.13370000000000015,-6.9575501727362505
-0.13470000000000004,-6.879741051243673
-0.13570000000000015,-6.75241703425582
-0.13670000000000004,-6.6364107076668875
-0.13770000000000016,-6.545869184475525
-0.13870000000000005,-6.473718908182407
-0.13970000000000016,-6.405812765788886
-0.14070000000000005,-6.306782974798334
-0.14170000000000016,-6.197850204708726
-0.14270000000000005,-6.128529351015339
-0.14370000000000016,-6.073355610320603
-0.14470000000000005,-6.018181869625866
-0.14570000000000016,-5.9347139029338285
-0.14670000000000005,-5.837098823243141
-0.14770000000000016,-5.788998639047731
-0.14870000000000005,-5.74938672265151
-0.14970000000000017,-5.705530672355693
-0.15070000000000006,-5.627721550863116
-0.15170000000000017,-5.551327140670404
-0.15270000000000006,-5.506056379074723
-0.15370000000000017,-5.489079843476342
-0.15470000000000006,-5.453712060979717
-0.15570000000000017,-5.399953031584845
-0.15670000000000006,-5.333461600491188
-0.15770000000000017,-5.303752663194023
-0.15870000000000006,-5.2980938179945625
-0.15970000000000018,-5.276873148496587
-0.16070000000000007,-5.231602386900906
-0.16170000000000018,-5.180672780105764
-0.16270000000000007,-5.153793265408329
-0.16370000000000018,-5.167940378406978
-0.16470000000000007,-5.162281533207518
-0.16570000000000018,-5.118425482911703
-0.16670000000000007,-5.078813566515482
-0.16770000000000018,-5.060422319617237
-0.16870000000000007,-5.063251742216966
-0.16970000000000018,-5.068910587416426
-0.17070000000000007,-5.034957516219666
-0.17170000000000019,-4.99958973372304
-0.17270000000000008,-4.986857332024254
-0.1737000000000002,-5.001004445022905
-0.17470000000000008,-5.012322135421825
-0.1757000000000002,-4.9840279094245235
-0.17670000000000008,-4.951489549527628
-0.1777000000000002,-4.955733683427223
-0.17870000000000008,-4.968466085126009
-0.1797000000000002,-4.976954352925199
-0.18070000000000008,-4.959977817326819
-0.1817000000000002,-4.9302688800296535
-0.18270000000000008,-4.938757147828842
-0.1837000000000002,-4.955733683427223
-0.1847000000000001,-4.974124930325469
-0.1857000000000002,-4.954318972127359
-0.1867000000000001,-4.923195323530328
-0.1877000000000002,-4.934513013929248
-0.1887000000000001,-4.961392528626684
-0.1897000000000002,-4.9826131981246595
-0.1907000000000001,-4.971295507725738
-0.1917000000000001,-4.950074838227763
-0.19269999999999998,-4.962807239926549
-0.1937000000000001,-4.99958973372304
-0.19469999999999998,-5.01373684672169
-0.1957000000000001,-5.0094927128220945
-0.19669999999999999,-4.98827204332412
-0.1977000000000001,-4.998175022423175
-0.1987,-5.034957516219666
-0.1997000000000001,-5.0618370309171015
-0.2007,-5.0618370309171015
-0.2017000000000001,-5.051934051818047
-0.2027,-5.057592897017507
-0.2037000000000001,-5.092960679514132
-0.2047,-5.129743173310623
-0.2057000000000001,-5.132572595910353
-0.2067,-5.129743173310623
-0.2077000000000001,-5.139646152409678
-0.2087,-5.1792580688059
-0.2097000000000001,-5.216040562602391
-0.2107,-5.214625851302525
-0.2117000000000001,-5.211796428702795
-0.2127,-5.237261232100366
-0.2137000000000001,-5.282531993696048
-0.2147,-5.327802755291728
-0.2157000000000001,-5.356096981289029
-0.2167,-5.334876311791054
-0.21770000000000012,-5.3575116925888935
-0.2187,-5.397123608985115
-0.21970000000000012,-5.438150236681202
-0.2207,-5.448053215780256
-0.22170000000000012,-5.440979659280932
-0.2227,-5.474932730477692
-0.22370000000000012,-5.5272770485726985
-0.2247,-5.564059542369189
-0.22570000000000012,-5.585280211867165
-0.2267,-5.581036077967569
-0.22770000000000012,-5.607915592665005
-0.22870000000000001,-5.664504044659607
-0.22970000000000013,-5.709774806255288
-0.23070000000000002,-5.733824898352994
-0.23170000000000013,-5.723921919253939
-0.23270000000000002,-5.753630856551104
-0.23370000000000013,-5.8102193085457055
-0.23470000000000002,-5.849831224941926
-0.23570000000000013,-5.872466605739767
-0.23670000000000002,-5.876710739639362
-0.2376999999999999,-5.905004965636663
-0.23870000000000002,-5.970081685430455
-0.2396999999999999,-6.011108313126541
-0.24070000000000003,-6.029499560024787
-0.24169999999999991,-6.040817250423707
-0.24270000000000003,-6.067696765121143
-0.24369999999999992,-6.124285217115744
-0.24470000000000003,-6.17380011261102
-0.24569999999999992,-6.182288380410211
-0.24670000000000003,-6.200679627308456
-0.24769999999999992,-6.228973853305757
-0.24870000000000003,-6.285562305300359
-0.24969999999999992,-6.335077200795634
-0.25070000000000003,-6.349224313794284
-0.2516999999999999,-6.357712581593474
-0.25270000000000004,-6.391665652790236
-0.2536999999999999,-6.444009970885243
-0.25470000000000004,-6.494939577680383
-0.2556999999999999,-6.507671979379168
-0.25670000000000004,-6.517574958478224
-0.25769999999999993,-6.554357452274714
-0.25870000000000004,-6.608116481669587
-0.25969999999999993,-6.661875511064458
-0.26070000000000004,-6.683096180562433
-0.26169999999999993,-6.6887550257618935
-0.26270000000000004,-6.725537519558384
-0.26369999999999993,-6.784955394152716
-0.26470000000000005,-6.841543846147317
-0.26569999999999994,-6.867008649544887
-0.26670000000000005,-6.883985185143269
-0.26769999999999994,-6.922182390239625
-0.26870000000000005,-6.997162089132471
-0.26969999999999994,-7.052335829827209
-0.27070000000000005,-7.087703612323834
-0.27169999999999994,-7.106094859222079
-0.27270000000000005,-7.158439177317086
-0.27369999999999994,-7.237663010109527
-0.27470000000000006,-7.304154441203185
-0.27569999999999995,-7.352254625398595
-0.27670000000000006,-7.390451830494952
-0.27769999999999995,-7.451284416389148
-0.27870000000000006,-7.5474847847799715
-0.27969999999999995,-7.629538040172143
-0.28070000000000006,-7.688955914766475
-0.28169999999999995,-7.748373789360806
-0.28270000000000006,-7.826182910853383
-0.28369999999999995,-7.940774526142452
-0.28470000000000006,-8.046877873632328
-0.28569999999999995,-8.134589974223962
-0.28670000000000007,-8.220887363515727
-0.28769999999999996,-8.30859946410736
-0.28870000000000007,-8.437338192395078
-0.28969999999999996,-8.564662209382933
-0.29070000000000007,-8.675009690772406
-0.29169999999999996,-8.788186594761608
-0.29270000000000007,-8.923998879548652
-0.29369999999999996,-9.086690679033131
-0.2947000000000001,-9.259285457616667
-0.29569999999999996,-9.393683031103844
-0.2967000000000001,-9.530910027190751
-0.29769999999999996,-9.710578362273612
-0.2987000000000001,-9.907223232954852
-0.29969999999999997,-10.123674061834203
-0.3007000000000001,-10.313245376016118
-0.30169999999999997,-10.501401978898167
-0.3027000000000001,-10.724926364276843
-0.30369999999999997,-10.982403820852278
-0.3047000000000001,-11.249784256526773
-0.30569999999999997,-11.497358734003152
-0.3067000000000001,-11.744933211479534
-0.3077,-12.033534316652002
-0.3087000000000001,-12.377309162519206
-0.3097,-12.715425163186948
-0.3107000000000001,-13.053541163854694
-0.3117,-13.398730721021762
-0.3127000000000001,-13.801923441483297
-0.3137,-14.24614278964092
-0.3147000000000001,-14.727144631595033
-0.3157,-15.193999360550496
-0.3167000000000001,-15.689148315503255
-0.3177,-16.24088572245062
-0.3187000000000001,-16.877505807389888
-0.3197,-17.556567231325104
-0.3207000000000001,-18.263922881257624
-0.3217,-19.042014096183394
-0.3227000000000001,-19.919135102099716
-0.3237,-20.93772723800254
-0.3247000000000001,-22.055349164895922
-0.3257,-23.272000882779853
-0.3267000000000001,-24.65841795664759
-0.3277,-26.22874749949778
-0.3287000000000001,-28.011283737327723
-0.3297,-29.991879557138777
-0.3307000000000001,-32.12809361993498
-0.3317,-34.44822015171364
-0.3327000000000001,-36.98055337847206
-0.3337,-39.68265196121428
-0.3347000000000001,-42.540368786941656
-0.3357,-45.482968290660935
-0.3367000000000001,-48.538744698369406
-0.3377,-51.679403784069784
-0.3387000000000001,-54.947386886758025
-0.3397,-58.22951710244491
-0.3407000000000001,-61.53994154412909
-0.3417,-64.82207175981598
-0.3427000000000001,-68.14664331449882
-0.3437,-71.47121486918165
-0.3447000000000001,-74.76749219786718
-0.3457,-78.04962241355408
-0.3467000000000001,-81.27516417724635
-0.3477,-84.48655882793999
-0.3487000000000001,-87.65551213963768
-0.3497,-90.81031833833671
-0.3507000000000001,-93.88024185904384
-0.3517,-97.04919517074151
-0.3527000000000001,-100.35961961242569
-0.3537,-103.78322095809908
-0.3547000000000001,-106.95217426979677
-0.3557,-109.80989109552415
-0.35670000000000013,-112.58272524325962
-0.3577,-115.34141227799645
-0.35870000000000013,-118.0576579737373
-0.3597,-120.77390366947817
-0.36070000000000013,-123.532590704215
-0.3617,-126.27713062595316
-0.3626999999999999,-128.9792292086954
-0.3637,-131.63888645244168
-0.3646999999999999,-134.3126908091866
-0.3657,-136.9016124879396
-0.3666999999999999,-139.46223994069533
-0.3677,-141.89554337646317
-0.3686999999999999,-143.0273124163552
-0.36970000000000003,-143.0273124163552
-0.3706999999999999,-143.0273124163552
-0.37170000000000003,-143.0273124163552
-0.3726999999999999,-143.0273124163552
-0.37370000000000003,-143.0273124163552
-0.3746999999999999,-143.0273124163552
-0.37570000000000003,-143.0273124163552
-0.3766999999999999,-143.0273124163552
-0.37770000000000004,-143.0273124163552
-0.3786999999999999,-143.0273124163552
-0.37970000000000004,-143.0273124163552
-0.3806999999999999,-143.0273124163552
-0.38170000000000004,-143.0273124163552
-0.38269999999999993,-143.0273124163552
-0.38370000000000004,-143.0273124163552
-0.38469999999999993,-143.0273124163552
-0.38570000000000004,-143.0273124163552
-0.38669999999999993,-143.0273124163552
-0.38570000000000004,-143.0273124163552
-0.38469999999999993,-143.0273124163552
-0.38370000000000004,-143.0273124163552
-0.38269999999999993,-143.0273124163552
-0.38170000000000004,-143.0273124163552
-0.3806999999999999,-143.0273124163552
-0.37970000000000004,-143.0273124163552
-0.3786999999999999,-143.0273124163552
-0.37770000000000004,-143.0273124163552
-0.3766999999999999,-143.0273124163552
-0.37570000000000003,-143.0273124163552
-0.3746999999999999,-143.0273124163552
-0.37370000000000003,-143.0273124163552
-0.3726999999999999,-143.0273124163552
-0.37170000000000003,-143.0273124163552
-0.3706999999999999,-143.0273124163552
-0.36970000000000003,-143.0273124163552
-0.3686999999999999,-143.0273124163552
-0.3677,-143.0273124163552
-0.3666999999999999,-143.0273124163552
-0.3657,-142.4614278964092
-0.3646999999999999,-140.90524546655766
-0.3637,-139.19344479372097
-0.3626999999999999,-137.36846721689506
-0.3617,-135.74154922205025
-0.36070000000000013,-133.97316009721897
-0.3597,-132.1764767463904
-0.35870000000000013,-130.46467607355368
-0.3577,-128.76702251371566
-0.35670000000000013,-126.82886803290056
-0.3557,-124.97559623007734
-0.3547000000000001,-123.3345311222339
-0.3537,-121.70761312738911
-0.3527000000000001,-120.00995956755105
-0.3517,-118.29815889471436
-0.3507000000000001,-116.71368223886554
-0.3497,-115.14335269601534
-0.3487000000000001,-113.55887604016648
-0.3477,-111.97439938431765
-0.3467000000000001,-110.29089293747826
-0.3457,-108.69226916863077
-0.3447000000000001,-107.33414632076033
-0.3437,-106.07505326388046
-0.3427000000000001,-104.47642949503296
-0.3417,-102.97683551717601
-0.3407000000000001,-101.7035953472975
-0.3397,-99.94935333546483
-0.3387000000000001,-98.37902379261465
-0.3377,-97.17651918772938
-0.3367000000000001,-95.59204253188052
-0.3357,-94.17733123201549
-0.3347000000000001,-92.81920838414506
-0.3337,-91.39034997128137
-0.3327000000000001,-90.01808001041228
-0.3317,-88.6458100495432
-0.3307000000000001,-87.24524586267681
-0.3297,-85.95785857979962
-0.3287000000000001,-84.6280299579265
-0.3277,-83.14258309306821
-0.3267000000000001,-81.7986073581964
-0.3257,-80.49707296232059
-0.3247000000000001,-79.22383279244205
-0.3237,-78.02132818755678
-0.3227000000000001,-76.79052935667418
-0.3217,-75.47484784779972
-0.3207000000000001,-74.10257788693062
-0.3197,-73.0273972990332
-0.3187000000000001,-72.00880516313036
-0.3177,-70.74971210625048
-0.3167000000000001,-69.4906190493706
-0.3157,-68.18908465349477
-0.3147000000000001,-67.11390406559734
-0.3137,-66.05287059069857
-0.3127000000000001,-64.90695443780788
-0.3117,-63.71859694592126
-0.3107000000000001,-62.60097501902788
-0.3097,-61.5682357701264
-0.3087000000000001,-60.50720229522762
-0.3077,-59.33299191633964
-0.3067000000000001,-58.15878153745166
-0.30569999999999997,-57.027012497559625
-0.3047000000000001,-56.022567474655446
-0.30369999999999997,-55.018122451751275
-0.3027000000000001,-53.942941863853854
-0.30169999999999997,-52.86776127595642
-0.3007000000000001,-51.82087491405629
-0.29969999999999997,-50.87301834314672
-0.2987000000000001,-50.32128093619935
-0.29769999999999996,-49.35927725229113
-0.2967000000000001,-48.312390890391
-0.29569999999999996,-47.30794586748683
-0.2947000000000001,-46.289353731584
-0.29369999999999996,-45.35564427367308
-0.29270000000000007,-44.3511992507689
-0.29169999999999996,-43.44578401885527
-0.29070000000000007,-42.4696332219484
-0.28969999999999996,-41.55007087703613
-0.28870000000000007,-40.644655645122505
-0.28769999999999996,-39.739240413208876
-0.28670000000000007,-38.86211940729255
-0.28569999999999995,-37.91426283638298
-0.28470000000000006,-37.037141830466666
-0.28369999999999995,-36.18831505054764
-0.28270000000000006,-35.32534115762997
-0.28169999999999995,-34.43407303871499
-0.28070000000000006,-33.57109914579732
-0.27969999999999995,-32.807155043870196
-0.27870000000000006,-31.986622489948477
-0.27769999999999995,-31.180237049025404
-0.27670000000000006,-30.402145834099635
-0.27569999999999995,-29.652348845171172
-0.27470000000000006,-28.9025518562427
-0.27369999999999994,-28.166901980312883
-0.27270000000000005,-27.417104991384413
-0.27169999999999994,-26.62486666345999
-0.27070000000000005,-25.889216787530174
-0.26969999999999994,-25.196008250596304
-0.26870000000000005,-24.488652600663784
-0.26769999999999994,-23.88032674172182
-0.26670000000000005,-23.144676865792
-0.26569999999999994,-22.46561544185678
