Potential V vs RHE, Current mA cm-2
0.4132999999999999,-0.0036471257310520646
0.4122999999999999,-0.005358926403888758
0.4112999999999999,-0.005964422840230995
0.4102999999999999,-0.0063237595103967145
0.4092999999999999,-0.006622263594668237
0.4082999999999999,-0.006793443661951905
0.4072999999999999,-0.006929255946738949
0.4062999999999999,-0.007057994675026668
0.4052999999999999,-0.007224930608410743
0.4042999999999999,-0.007413087211292792
0.4032999999999999,-0.007513531713583209
0.4022999999999999,-0.007613976215873628
0.4012999999999999,-0.007693200048666069
0.4002999999999999,-0.007804962241355407
0.3992999999999999,-0.007961995195640427
0.3982999999999999,-0.008076586810929494
0.3972999999999999,-0.00810346632562693
0.3962999999999999,-0.008181275447119508
0.3952999999999999,-0.008270402259011005
0.3942999999999999,-0.008384993874300072
0.39329999999999987,-0.008440167614994809
0.39229999999999987,-0.008471291263591838
0.39129999999999987,-0.00854202682858509
0.39029999999999987,-0.008615591816178074
0.38929999999999987,-0.008720280452368086
0.38829999999999987,-0.008791016017361337
0.38729999999999987,-0.008813651398159178
0.38629999999999987,-0.008877313406653107
0.38529999999999986,-0.008966440218544603
0.38429999999999986,-0.009047078762636909
0.38329999999999986,-0.009117814327630161
0.38229999999999986,-0.009131961440628812
0.38129999999999986,-0.009163085089225842
0.38029999999999986,-0.00926635901411599
0.37929999999999986,-0.009366803516406407
0.37829999999999986,-0.009409244855402359
0.37729999999999986,-0.00942905081360047
0.37629999999999986,-0.0094601744621975
0.37529999999999986,-0.009547886562789133
0.37429999999999986,-0.00963984279728036
0.37329999999999985,-0.009727554897871993
0.37229999999999985,-0.009764337391668482
0.37129999999999985,-0.009767166814268213
0.37029999999999985,-0.009857708337459577
0.36929999999999985,-0.009946835149351073
0.36829999999999985,-0.009969470530148914
0.36729999999999985,-0.00999352062224662
0.36629999999999985,-0.010028888404743246
0.36529999999999985,-0.010109526948835552
0.36429999999999985,-0.010214215585025565
0.36329999999999985,-0.01022411856412462
0.36229999999999984,-0.010270804037020168
0.36129999999999984,-0.010290609995218277
0.36029999999999984,-0.010388225074908965
0.35929999999999984,-0.010470278330301137
0.35829999999999984,-0.010499987267598302
0.35729999999999984,-0.010528281493595602
0.35629999999999984,-0.01057779638909088
0.35529999999999984,-0.01064004368628494
0.35429999999999984,-0.010750391167674414
0.35329999999999984,-0.01078292952757131
0.35229999999999984,-0.010802735485769419
0.35129999999999983,-0.01085932393776402
0.35029999999999983,-0.010918741812358352
0.34929999999999983,-0.011031918716347558
0.34829999999999983,-0.011087092457042293
0.34729999999999983,-0.011143680909036894
0.34629999999999983,-0.011181878114133249
0.34529999999999983,-0.011275249059924341
0.34429999999999983,-0.011365790583115706
0.3432999999999998,-0.011402573076912195
0.3422999999999998,-0.01142096432381044
0.3412999999999998,-0.011474723353205311
0.3402999999999998,-0.01159497381369384
0.3392999999999998,-0.011686930048185069
0.3382999999999998,-0.011727956675881154
0.3372999999999998,-0.0117746421487767
0.3362999999999998,-0.011824157044271977
0.3352999999999998,-0.011938748659561044
0.3342999999999998,-0.012039193161851461
0.3332999999999998,-0.012107099304244983
0.3322999999999998,-0.012152370065840664
0.3312999999999998,-0.012208958517835267
0.3302999999999998,-0.01230798830882582
0.3292999999999998,-0.012431068191914077
0.3282999999999998,-0.01250463317950706
0.3272999999999998,-0.012564051054101391
0.3262999999999998,-0.012610736526996937
0.3252999999999999,-0.012749378234383713
0.3242999999999999,-0.012900752343469268
0.3232999999999999,-0.01297148790846252
0.3222999999999999,-0.013047882318655234
0.3212999999999999,-0.013146912109645786
0.3202999999999999,-0.013288383239632289
0.3192999999999999,-0.013429854369618792
0.3182999999999999,-0.013514737047610694
0.3172999999999999,-0.013601034436902462
0.3162999999999999,-0.013707137784392339
0.3152999999999999,-0.01384153535787952
0.3142999999999999,-0.01401554484776292
0.3132999999999999,-0.014140039442151042
0.3122999999999999,-0.014231995676642267
0.3112999999999999,-0.014345172580631472
0.3102999999999999,-0.014514937936615275
0.3092999999999999,-0.014670556179600431
0.3082999999999999,-0.014812027309586936
0.3072999999999999,-0.014911057100577486
0.3062999999999999,-0.01503838111756534
0.3052999999999999,-0.015208146473549147
0.3042999999999999,-0.015392058942531598
0.3032999999999999,-0.015505235846520802
0.3022999999999999,-0.015618412750510005
0.3012999999999999,-0.015745736767497857
0.3002999999999999,-0.015929649236480315
0.2992999999999999,-0.016099414592464115
0.2982999999999999,-0.016226738609451972
0.2972999999999999,-0.016339915513441175
0.2962999999999999,-0.01648138664342768
0.2952999999999999,-0.01666529911241013
0.2942999999999999,-0.016820917355395284
0.2932999999999999,-0.016962388485381792
0.2922999999999999,-0.01706141827637234
0.2912999999999999,-0.017160448067362895
0.2902999999999999,-0.0173302134233467
0.2892999999999999,-0.017499978779330502
0.2882999999999999,-0.017599008570321057
0.2872999999999999,-0.01768389124831296
0.2862999999999999,-0.01776877392630486
0.2852999999999999,-0.017896097943292714
0.2842999999999999,-0.018065863299276518
0.2832999999999999,-0.018150745977268422
0.2822999999999999,-0.018221481542261674
0.2812999999999999,-0.018292217107254923
0.2802999999999999,-0.018419541124242777
0.2792999999999999,-0.01856101225422928
0.2782999999999999,-0.018617600706223883
0.2772999999999999,-0.018660042045219833
0.2762999999999999,-0.018730777610213082
0.2752999999999999,-0.01882980740120364
0.2742999999999999,-0.018942984305192843
0.2732999999999999,-0.018985425644188793
0.2722999999999999,-0.019013719870186095
0.2712999999999999,-0.019056161209182042
0.2702999999999999,-0.0191551910001726
0.2692999999999999,-0.019254220791163148
0.26829999999999987,-0.0192683679041618
0.26729999999999987,-0.01928251501716045
0.26629999999999987,-0.0192966621301591
0.26529999999999987,-0.019367397695152354
0.26429999999999987,-0.019452280373144254
0.26329999999999987,-0.019480574599141553
0.26229999999999987,-0.019480574599141553
0.26129999999999987,-0.019480574599141553
0.26029999999999986,-0.019579604390132108
0.25929999999999986,-0.019664487068124008
0.25829999999999986,-0.01969278129412131
0.25729999999999986,-0.01967863418112266
0.25629999999999986,-0.019664487068124008
0.25529999999999986,-0.01970692840711996
0.25429999999999986,-0.019749369746115915
0.25329999999999986,-0.01973522263311726
0.25229999999999986,-0.01973522263311726
0.25129999999999986,-0.01973522263311726
0.25029999999999986,-0.019791811085111865
0.24929999999999986,-0.019848399537106463
0.24829999999999985,-0.019862546650105117
0.24729999999999985,-0.019834252424107815
0.24629999999999985,-0.019834252424107815
0.24529999999999985,-0.019890840876102416
0.24429999999999985,-0.019961576441095665
0.24329999999999985,-0.019904987989101064
0.24229999999999985,-0.019890840876102416
0.24129999999999985,-0.019904987989101064
0.24029999999999985,-0.019933282215098366
0.23929999999999985,-0.02000401778009162
0.23829999999999985,-0.01997572355409432
0.23729999999999984,-0.019961576441095665
0.23629999999999984,-0.019961576441095665
0.23529999999999984,-0.01997572355409432
0.23429999999999984,-0.02004645911908757
0.23329999999999984,-0.020018164893090266
0.23229999999999984,-0.020018164893090266
0.23129999999999984,-0.020018164893090266
0.23029999999999984,-0.02004645911908757
0.22929999999999984,-0.020103047571082173
0.22829999999999984,-0.02008890045808352
0.22729999999999984,-0.02006060623208622
0.22629999999999983,-0.02007475334508487
0.22529999999999983,-0.020103047571082173
0.22429999999999983,-0.020145488910078124
0.22329999999999983,-0.02015963602307677
0.22229999999999983,-0.020131341797079472
0.22129999999999983,-0.020131341797079472
0.22029999999999983,-0.02020207736207272
0.21929999999999983,-0.020258665814067326
0.21829999999999983,-0.020230371588070024
0.21729999999999983,-0.020216224475071376
0.21629999999999983,-0.02020207736207272
0.21529999999999982,-0.020272812927065977
0.21429999999999982,-0.020301107153063276
0.21329999999999982,-0.020315254266061927
0.21229999999999982,-0.020301107153063276
0.21129999999999982,-0.020286960040064625
0.21029999999999982,-0.020357695605057877
0.20929999999999982,-0.02041428405705248
0.20829999999999982,-0.02038598983105518
0.20729999999999982,-0.02042843117005113
0.20629999999999982,-0.020470872509047083
0.20529999999999982,-0.020541608074040336
0.20429999999999982,-0.020598196526034934
0.20329999999999981,-0.020598196526034934
0.2022999999999998,-0.020598196526034934
0.2012999999999998,-0.020584049413036282
0.20029999999999992,-0.020626490752032236
0.19929999999999992,-0.020668932091028186
0.19829999999999992,-0.020668932091028186
0.19729999999999992,-0.020683079204026837
0.19629999999999992,-0.020683079204026837
0.19529999999999992,-0.02073966765602144
0.19429999999999992,-0.02086699167300929
0.19329999999999992,-0.020895285899006594
0.19229999999999992,-0.020824550334013342
0.19129999999999991,-0.020838697447011986
0.1902999999999999,-0.02086699167300929
0.1892999999999999,-0.020923580125003893
0.1882999999999999,-0.020951874351001196
0.1872999999999999,-0.020937727238002544
0.1862999999999999,-0.020966021463999843
0.1852999999999999,-0.021022609915994445
0.1842999999999999,-0.021093345480987697
0.1832999999999999,-0.021093345480987697
0.1822999999999999,-0.021079198367989046
0.1812999999999999,-0.021093345480987697
0.1802999999999999,-0.021149933932982302
0.1792999999999999,-0.02122066949797555
0.1782999999999999,-0.0212348166109742
0.1772999999999999,-0.0212348166109742
0.1762999999999999,-0.02124896372397285
0.1752999999999999,-0.021319699288966102
0.1742999999999999,-0.021362140627962056
0.1732999999999999,-0.021376287740960703
0.1722999999999999,-0.021376287740960703
0.1712999999999999,-0.021376287740960703
0.1702999999999999,-0.021461170418952607
0.1692999999999999,-0.02153190598394586
0.1682999999999999,-0.021546053096944507
0.1672999999999999,-0.021560200209943158
0.1662999999999999,-0.021546053096944507
0.1652999999999999,-0.02161678866193776
0.1642999999999999,-0.021701671339929663
0.1632999999999999,-0.021687524226931015
0.1622999999999999,-0.021715818452928314
0.1612999999999999,-0.021715818452928314
0.1602999999999999,-0.021800701130920214
0.1592999999999999,-0.021871436695913467
0.15829999999999989,-0.021871436695913467
0.15729999999999988,-0.021885583808912118
0.15629999999999988,-0.02189973092191077
0.15529999999999988,-0.02197046648690402
0.15429999999999988,-0.022069496277894573
0.15329999999999988,-0.02205534916489592
0.15229999999999988,-0.022069496277894573
0.15129999999999988,-0.022097790503891875
0.15029999999999988,-0.022154378955886473
0.14929999999999988,-0.022225114520879725
0.14829999999999988,-0.022253408746877028
0.14729999999999988,-0.022253408746877028
0.14629999999999987,-0.022295850085872978
0.14529999999999987,-0.02238073276386488
0.14429999999999987,-0.022437321215859483
0.14329999999999987,-0.022465615441856785
0.14229999999999987,-0.022493909667854084
0.14129999999999987,-0.022493909667854084
0.14029999999999987,-0.022564645232847336
0.13929999999999987,-0.022635380797840585
0.13829999999999987,-0.022663675023837888
0.13729999999999987,-0.022663675023837888
0.13629999999999987,-0.022663675023837888
0.13529999999999986,-0.02274855770182979
0.13429999999999986,-0.022819293266823044
0.13329999999999986,-0.022847587492820343
0.13229999999999986,-0.022847587492820343
0.13129999999999986,-0.02287588171881764
0.13029999999999986,-0.022960764396809545
0.12929999999999986,-0.023045647074801445
0.12829999999999986,-0.023045647074801445
0.12729999999999986,-0.0230597941878001
0.12629999999999986,-0.02310223552679605
0.12529999999999986,-0.023172971091789302
0.12429999999999986,-0.023257853769781203
0.12329999999999985,-0.02327200088277985
0.12229999999999985,-0.023300295108777156
0.12129999999999985,-0.023328589334774455
0.12029999999999985,-0.02338517778676906
0.11929999999999985,-0.02347006046476096
0.11829999999999985,-0.023484207577759608
0.11729999999999985,-0.023512501803756906
0.11629999999999985,-0.02354079602975421
0.11529999999999985,-0.023625678707746112
0.11429999999999985,-0.023710561385738016
0.11329999999999985,-0.02373885561173532
0.11229999999999984,-0.023753002724733966
0.11129999999999984,-0.023795444063729916
0.11029999999999984,-0.02388032674172182
0.10929999999999984,-0.023965209419713723
0.10829999999999984,-0.02397935653271237
0.10729999999999984,-0.023993503645711022
0.10629999999999984,-0.024035944984706972
0.10529999999999984,-0.024106680549700225
0.10429999999999984,-0.024219857453689427
0.10329999999999984,-0.02424815167968673
0.10229999999999984,-0.02426229879268538
0.10129999999999983,-0.024318887244679982
0.10029999999999983,-0.024403769922671882
0.09929999999999983,-0.024488652600663786
0.09829999999999983,-0.024502799713662437
0.09729999999999983,-0.02453109393965974
0.09629999999999983,-0.024559388165657038
0.09529999999999983,-0.02465841795664759
0.09429999999999983,-0.024771594860636792
0.09329999999999983,-0.024856477538628696
0.09229999999999983,-0.024955507329619247
0.09129999999999983,-0.0250545371206098
0.09029999999999982,-0.025139419798601705
0.08929999999999982,-0.025196008250596303
0.08829999999999982,-0.025210155363594954
0.08729999999999982,-0.025224302476593602
0.08629999999999982,-0.025238449589592253
0.08529999999999982,-0.02535162649358146
0.08429999999999982,-0.02545065628457201
0.08329999999999982,-0.02547895051056931
0.08229999999999982,-0.025507244736566608
0.08129999999999982,-0.025577980301559864
0.08029999999999982,-0.025662862979551764
0.07929999999999982,-0.025747745657543668
0.07829999999999981,-0.02576189277054232
0.07729999999999981,-0.02580433410953827
0.07629999999999981,-0.025846775448534223
0.07529999999999992,-0.02594580523952477
0.07429999999999992,-0.026058982143513973
0.07329999999999992,-0.026101423482509926
0.07229999999999992,-0.02614386482150588
0.07129999999999992,-0.02620045327350048
0.07029999999999992,-0.02628533595149238
0.06929999999999992,-0.026370218629484285
0.06829999999999992,-0.026426807081478886
0.06729999999999992,-0.02645510130747619
0.06629999999999991,-0.026539983985468085
0.06529999999999991,-0.02665316088945729
0.06429999999999991,-0.026752190680447843
0.06329999999999991,-0.026794632019443793
0.06229999999999991,-0.026808779132442447
0.06129999999999991,-0.026865367584437045
0.06029999999999991,-0.026978544488426247
0.05929999999999991,-0.027063427166418155
0.05829999999999991,-0.027120015618412752
0.05729999999999991,-0.027162456957408702
0.056299999999999906,-0.02723319252240196
0.055299999999999905,-0.027332222313392506
0.054299999999999904,-0.02743125210438306
0.0532999999999999,-0.027487840556377662
0.0522999999999999,-0.027530281895373616
0.0512999999999999,-0.027586870347368214
0.0502999999999999,-0.02774248859035337
0.0492999999999999,-0.027869812607341227
0.0482999999999999,-0.027954695285333123
0.0472999999999999,-0.028011283737327728
0.0462999999999999,-0.028082019302320977
0.045299999999999896,-0.028166901980312884
0.044299999999999895,-0.028280078884302083
0.043299999999999894,-0.028308373110299385
0.04229999999999989,-0.028364961562293983
0.04129999999999989,-0.028435697127287232
0.04029999999999989,-0.028591315370272388
0.03929999999999989,-0.028718639387260245
0.03829999999999989,-0.028746933613257548
0.03729999999999989,-0.02880352206525215
0.03629999999999989,-0.028874257630245398
0.03529999999999989,-0.028987434534234607
0.034299999999999886,-0.029114758551222454
0.033299999999999885,-0.029157199890218404
0.032299999999999884,-0.029185494116215707
0.031299999999999883,-0.02927037679420761
0.030299999999999883,-0.02939770081119546
0.02929999999999988,-0.029510877715184666
0.02829999999999988,-0.029581613280177915
0.02729999999999988,-0.029638201732172516
0.02629999999999988,-0.02972308441016442
0.025299999999999878,-0.029836261314153626
0.024299999999999877,-0.029949438218142825
0.023299999999999876,-0.03000602667013743
0.022299999999999875,-0.03006261512213203
0.021299999999999875,-0.03011920357412663
0.020299999999999874,-0.030246527591114486
0.019299999999999873,-0.030359704495103685
0.018299999999999872,-0.030430440060096934
0.01729999999999987,-0.030501175625090193
0.01629999999999987,-0.030543616964086147
0.01529999999999987,-0.030685088094072648
0.014299999999999868,-0.030812412111060502
0.013299999999999867,-0.030840706337057794
0.012299999999999978,-0.030897294789052406
0.011299999999999866,-0.03099632458004295
0.010299999999999976,-0.031151942823028106
0.009299999999999864,-0.03129341395301461
0.008299999999999974,-0.03136414951800787
0.007299999999999862,-0.031434885083001116
0.006299999999999972,-0.031505620647994365
0.00529999999999986,-0.03161879755198357
0.0042999999999999705,-0.03171782734297412
0.0032999999999998586,-0.031731974455972776
0.0022999999999999687,-0.031802710020966025
0.0012999999999998568,-0.03190173981195658
0.00029999999999996696,-0.032014916715945786
-0.000700000000000145,-0.03214224073293363
-0.0017000000000000348,-0.032184682071929586
-0.0027000000000001467,-0.032255417636922835
-0.0037000000000000366,-0.032340300314914736
-0.0047000000000001485,-0.03243933010590529
-0.005700000000000038,-0.03256665412289315
-0.00670000000000015,-0.032623242574887745
-0.00770000000000004,-0.0326656839138837
-0.008700000000000152,-0.0327505665918756
-0.009700000000000042,-0.0328637434958648
-0.010700000000000154,-0.033005214625851306
-0.011700000000000044,-0.033075950190844555
-0.012700000000000156,-0.03311839152984051
-0.013700000000000045,-0.03318912709483376
-0.014700000000000157,-0.03331645111182161
-0.015700000000000047,-0.03341548090281216
-0.01670000000000016,-0.03348621646780542
-0.01770000000000005,-0.03352865780680137
-0.01870000000000016,-0.03361354048479327
-0.01970000000000005,-0.03376915872777843
-0.020700000000000163,-0.03385404140577032
-0.021700000000000053,-0.033910629857764926
-0.022700000000000164,-0.03395307119676088
-0.023700000000000054,-0.03403795387475279
-0.024700000000000166,-0.034179425004739285
-0.025700000000000056,-0.034278454795729836
-0.026700000000000168,-0.034335043247724434
-0.027700000000000058,-0.03440577881271769
-0.02870000000000017,-0.03450480860370824
-0.02970000000000006,-0.03467457395969205
-0.03070000000000017,-0.03481604508967855
-0.03170000000000006,-0.03487263354167316
-0.03270000000000017,-0.03494336910666641
-0.03370000000000006,-0.03498581044566235
-0.034700000000000175,-0.03508484023665291
-0.035700000000000065,-0.035198017140642114
-0.03670000000000018,-0.03525460559263671
-0.03770000000000007,-0.035297046931632665
-0.03870000000000018,-0.035381929609624566
-0.03970000000000007,-0.035509253626612426
-0.04070000000000018,-0.03563657764360027
-0.04170000000000007,-0.03570731320859352
-0.04270000000000018,-0.03576390166058813
-0.04370000000000007,-0.03584878433858003
-0.044700000000000184,-0.035947814129570585
-0.045700000000000074,-0.03607513814655844
-0.046700000000000186,-0.036131726598553036
-0.047700000000000076,-0.03617416793754899
-0.04870000000000019,-0.03624490350254224
-0.04970000000000008,-0.03638637463252875
-0.05070000000000019,-0.036499551536517946
-0.05170000000000008,-0.0365419928755139
-0.05270000000000019,-0.036584434214509846
-0.05370000000000008,-0.03664102266650445
-0.05470000000000019,-0.03679664090948961
-0.05570000000000008,-0.0369098178134788
-0.056700000000000195,-0.03698055337847206
-0.057700000000000085,-0.03702299471746801
-0.058700000000000196,-0.03709373028246127
-0.059700000000000086,-0.037235201412447766
-0.0607000000000002,-0.03733423120343832
-0.06170000000000009,-0.037390819655432915
-0.0627000000000002,-0.037461555220426164
-0.06370000000000009,-0.037503996559422124
-0.0647000000000002,-0.03765961480240728
