Apr. 21, 2025   19:08:06
Cyclic Voltammetry
File: c:/users/guazh/data/banditlqround7_x0exp590_r20/2025-04-16-exp1149\exp1149-2025-04-21t18_49_14-arkoh\exp1149_cv_sr_400mvs_efin_-1700mv.bin
Data Source:  Experiment
Instrument Model:  CHI760E
Header: CV ran at 400 mVs
Note: 

Init E (V) = -1
High E (V) = -1
Low E (V) = -1.7
Final E (V) = -1
Init P/N = N
Scan Rate (V/s) = 0.4
Segment = 3
Sample Interval (V) = 0.001
Quiet Time (sec) = 2
Sensitivity (A/V) = 0.01
Comp R (ohm) = 1.4

Results:

Channel 1:
Segment 1:

Segment 2:

Segment 3:

Potential/V, Current/A

-1.000, 6.322e-6
-1.001, 7.415e-5
-1.002, 1.173e-4
-1.003, 1.389e-4
-1.004, 1.358e-4
-1.005, 1.204e-4
-1.006, 1.081e-4
-1.007, 1.111e-4
-1.008, 1.296e-4
-1.009, 1.512e-4
-1.010, 1.574e-4
-1.011, 1.451e-4
-1.012, 1.235e-4
-1.013, 1.142e-4
-1.014, 1.235e-4
-1.015, 1.451e-4
-1.016, 1.605e-4
-1.017, 1.605e-4
-1.018, 1.451e-4
-1.019, 1.235e-4
-1.020, 1.204e-4
-1.021, 1.358e-4
-1.022, 1.574e-4
-1.023, 1.666e-4
-1.024, 1.605e-4
-1.025, 1.420e-4
-1.026, 1.235e-4
-1.027, 1.266e-4
-1.028, 1.451e-4
-1.029, 1.666e-4
-1.030, 1.697e-4
-1.031, 1.574e-4
-1.032, 1.358e-4
-1.033, 1.266e-4
-1.034, 1.358e-4
-1.035, 1.543e-4
-1.036, 1.728e-4
-1.037, 1.697e-4
-1.038, 1.512e-4
-1.039, 1.327e-4
-1.040, 1.296e-4
-1.041, 1.451e-4
-1.042, 1.666e-4
-1.043, 1.759e-4
-1.044, 1.666e-4
-1.045, 1.481e-4
-1.046, 1.327e-4
-1.047, 1.358e-4
-1.048, 1.512e-4
-1.049, 1.728e-4
-1.050, 1.759e-4
-1.051, 1.636e-4
-1.052, 1.420e-4
-1.053, 1.327e-4
-1.054, 1.420e-4
-1.055, 1.605e-4
-1.056, 1.759e-4
-1.057, 1.759e-4
-1.058, 1.574e-4
-1.059, 1.389e-4
-1.060, 1.358e-4
-1.061, 1.481e-4
-1.062, 1.697e-4
-1.063, 1.790e-4
-1.064, 1.728e-4
-1.065, 1.512e-4
-1.066, 1.358e-4
-1.067, 1.389e-4
-1.068, 1.574e-4
-1.069, 1.759e-4
-1.070, 1.821e-4
-1.071, 1.666e-4
-1.072, 1.451e-4
-1.073, 1.358e-4
-1.074, 1.451e-4
-1.075, 1.666e-4
-1.076, 1.821e-4
-1.077, 1.790e-4
-1.078, 1.636e-4
-1.079, 1.420e-4
-1.080, 1.389e-4
-1.081, 1.512e-4
-1.082, 1.759e-4
-1.083, 1.851e-4
-1.084, 1.759e-4
-1.085, 1.574e-4
-1.086, 1.389e-4
-1.087, 1.420e-4
-1.088, 1.605e-4
-1.089, 1.790e-4
-1.090, 1.851e-4
-1.091, 1.697e-4
-1.092, 1.512e-4
-1.093, 1.389e-4
-1.094, 1.481e-4
-1.095, 1.697e-4
-1.096, 1.851e-4
-1.097, 1.821e-4
-1.098, 1.666e-4
-1.099, 1.451e-4
-1.100, 1.420e-4
-1.101, 1.543e-4
-1.102, 1.759e-4
-1.103, 1.882e-4
-1.104, 1.790e-4
-1.105, 1.605e-4
-1.106, 1.451e-4
-1.107, 1.451e-4
-1.108, 1.636e-4
-1.109, 1.821e-4
-1.110, 1.882e-4
-1.111, 1.728e-4
-1.112, 1.512e-4
-1.113, 1.420e-4
-1.114, 1.512e-4
-1.115, 1.728e-4
-1.116, 1.882e-4
-1.117, 1.851e-4
-1.118, 1.697e-4
-1.119, 1.481e-4
-1.120, 1.451e-4
-1.121, 1.605e-4
-1.122, 1.790e-4
-1.123, 1.913e-4
-1.124, 1.821e-4
-1.125, 1.605e-4
-1.126, 1.481e-4
-1.127, 1.481e-4
-1.128, 1.666e-4
-1.129, 1.851e-4
-1.130, 1.913e-4
-1.131, 1.759e-4
-1.132, 1.574e-4
-1.133, 1.451e-4
-1.134, 1.543e-4
-1.135, 1.728e-4
-1.136, 1.882e-4
-1.137, 1.882e-4
-1.138, 1.728e-4
-1.139, 1.512e-4
-1.140, 1.481e-4
-1.141, 1.605e-4
-1.142, 1.821e-4
-1.143, 1.913e-4
-1.144, 1.821e-4
-1.145, 1.666e-4
-1.146, 1.481e-4
-1.147, 1.512e-4
-1.148, 1.697e-4
-1.149, 1.882e-4
-1.150, 1.944e-4
-1.151, 1.790e-4
-1.152, 1.574e-4
-1.153, 1.481e-4
-1.154, 1.574e-4
-1.155, 1.759e-4
-1.156, 1.944e-4
-1.157, 1.913e-4
-1.158, 1.759e-4
-1.159, 1.543e-4
-1.160, 1.481e-4
-1.161, 1.636e-4
-1.162, 1.851e-4
-1.163, 1.944e-4
-1.164, 1.882e-4
-1.165, 1.697e-4
-1.166, 1.512e-4
-1.167, 1.543e-4
-1.168, 1.728e-4
-1.169, 1.913e-4
-1.170, 1.975e-4
-1.171, 1.821e-4
-1.172, 1.636e-4
-1.173, 1.512e-4
-1.174, 1.605e-4
-1.175, 1.790e-4
-1.176, 1.975e-4
-1.177, 1.944e-4
-1.178, 1.790e-4
-1.179, 1.605e-4
-1.180, 1.543e-4
-1.181, 1.666e-4
-1.182, 1.882e-4
-1.183, 2.006e-4
-1.184, 1.913e-4
-1.185, 1.728e-4
-1.186, 1.574e-4
-1.187, 1.605e-4
-1.188, 1.759e-4
-1.189, 1.944e-4
-1.190, 2.006e-4
-1.191, 1.882e-4
-1.192, 1.666e-4
-1.193, 1.574e-4
-1.194, 1.666e-4
-1.195, 1.851e-4
-1.196, 2.006e-4
-1.197, 2.006e-4
-1.198, 1.851e-4
-1.199, 1.666e-4
-1.200, 1.605e-4
-1.201, 1.759e-4
-1.202, 1.944e-4
-1.203, 2.036e-4
-1.204, 1.975e-4
-1.205, 1.790e-4
-1.206, 1.636e-4
-1.207, 1.636e-4
-1.208, 1.821e-4
-1.209, 2.036e-4
-1.210, 2.067e-4
-1.211, 1.944e-4
-1.212, 1.759e-4
-1.213, 1.666e-4
-1.214, 1.728e-4
-1.215, 1.944e-4
-1.216, 2.098e-4
-1.217, 2.098e-4
-1.218, 1.913e-4
-1.219, 1.728e-4
-1.220, 1.666e-4
-1.221, 1.821e-4
-1.222, 2.036e-4
-1.223, 2.129e-4
-1.224, 2.067e-4
-1.225, 1.882e-4
-1.226, 1.728e-4
-1.227, 1.759e-4
-1.228, 1.913e-4
-1.229, 2.160e-4
-1.230, 2.191e-4
-1.231, 2.067e-4
-1.232, 1.851e-4
-1.233, 1.759e-4
-1.234, 1.851e-4
-1.235, 2.036e-4
-1.236, 2.221e-4
-1.237, 2.191e-4
-1.238, 2.067e-4
-1.239, 1.851e-4
-1.240, 1.821e-4
-1.241, 1.975e-4
-1.242, 2.191e-4
-1.243, 2.283e-4
-1.244, 2.221e-4
-1.245, 2.036e-4
-1.246, 1.882e-4
-1.247, 1.913e-4
-1.248, 2.098e-4
-1.249, 2.283e-4
-1.250, 2.376e-4
-1.251, 2.221e-4
-1.252, 2.036e-4
-1.253, 1.944e-4
-1.254, 2.036e-4
-1.255, 2.252e-4
-1.256, 2.406e-4
-1.257, 2.406e-4
-1.258, 2.252e-4
-1.259, 2.067e-4
-1.260, 2.036e-4
-1.261, 2.191e-4
-1.262, 2.406e-4
-1.263, 2.530e-4
-1.264, 2.468e-4
-1.265, 2.314e-4
-1.266, 2.129e-4
-1.267, 2.191e-4
-1.268, 2.376e-4
-1.269, 2.561e-4
-1.270, 2.622e-4
-1.271, 2.530e-4
-1.272, 2.345e-4
-1.273, 2.252e-4
-1.274, 2.345e-4
-1.275, 2.561e-4
-1.276, 2.746e-4
-1.277, 2.746e-4
-1.278, 2.622e-4
-1.279, 2.437e-4
-1.280, 2.406e-4
-1.281, 2.561e-4
-1.282, 2.776e-4
-1.283, 2.931e-4
-1.284, 2.869e-4
-1.285, 2.715e-4
-1.286, 2.561e-4
-1.287, 2.591e-4
-1.288, 2.776e-4
-1.289, 3.023e-4
-1.290, 3.115e-4
-1.291, 2.992e-4
-1.292, 2.838e-4
-1.293, 2.746e-4
-1.294, 2.838e-4
-1.295, 3.054e-4
-1.296, 3.270e-4
-1.297, 3.300e-4
-1.298, 3.177e-4
-1.299, 3.023e-4
-1.300, 2.992e-4
-1.301, 3.146e-4
-1.302, 3.393e-4
-1.303, 3.547e-4
-1.304, 3.516e-4
-1.305, 3.362e-4
-1.306, 3.239e-4
-1.307, 3.270e-4
-1.308, 3.516e-4
-1.309, 3.732e-4
-1.310, 3.855e-4
-1.311, 3.763e-4
-1.312, 3.609e-4
-1.313, 3.547e-4
-1.314, 3.670e-4
-1.315, 3.886e-4
-1.316, 4.102e-4
-1.317, 4.164e-4
-1.318, 4.040e-4
-1.319, 3.917e-4
-1.320, 3.886e-4
-1.321, 4.071e-4
-1.322, 4.318e-4
-1.323, 4.503e-4
-1.324, 4.503e-4
-1.325, 4.380e-4
-1.326, 4.287e-4
-1.327, 4.349e-4
-1.328, 4.565e-4
-1.329, 4.842e-4
-1.330, 4.965e-4
-1.331, 4.904e-4
-1.332, 4.780e-4
-1.333, 4.719e-4
-1.334, 4.873e-4
-1.335, 5.150e-4
-1.336, 5.366e-4
-1.337, 5.459e-4
-1.338, 5.366e-4
-1.339, 5.274e-4
-1.340, 5.274e-4
-1.341, 5.459e-4
-1.342, 5.767e-4
-1.343, 5.983e-4
-1.344, 5.983e-4
-1.345, 5.921e-4
-1.346, 5.829e-4
-1.347, 5.921e-4
-1.348, 6.168e-4
-1.349, 6.445e-4
-1.350, 6.630e-4
-1.351, 6.599e-4
-1.352, 6.507e-4
-1.353, 6.476e-4
-1.354, 6.661e-4
-1.355, 6.939e-4
-1.356, 7.216e-4
-1.357, 7.339e-4
-1.358, 7.309e-4
-1.359, 7.216e-4
-1.360, 7.278e-4
-1.361, 7.494e-4
-1.362, 7.802e-4
-1.363, 8.048e-4
-1.364, 8.141e-4
-1.365, 8.079e-4
-1.366, 8.048e-4
-1.367, 8.141e-4
-1.368, 8.449e-4
-1.369, 8.758e-4
-1.370, 8.973e-4
-1.371, 9.004e-4
-1.372, 8.943e-4
-1.373, 8.973e-4
-1.374, 9.158e-4
-1.375, 9.498e-4
-1.376, 9.806e-4
-1.377, 9.991e-4
-1.378, 9.991e-4
-1.379, 9.929e-4
-1.380, 1.002e-3
-1.381, 1.030e-3
-1.382, 1.064e-3
-1.383, 1.095e-3
-1.384, 1.107e-3
-1.385, 1.107e-3
-1.386, 1.107e-3
-1.387, 1.119e-3
-1.388, 1.150e-3
-1.389, 1.190e-3
-1.390, 1.215e-3
-1.391, 1.224e-3
-1.392, 1.221e-3
-1.393, 1.227e-3
-1.394, 1.249e-3
-1.395, 1.286e-3
-1.396, 1.323e-3
-1.397, 1.344e-3
-1.398, 1.354e-3
-1.399, 1.351e-3
-1.400, 1.363e-3
-1.401, 1.394e-3
-1.402, 1.434e-3
-1.403, 1.468e-3
-1.404, 1.483e-3
-1.405, 1.489e-3
-1.406, 1.492e-3
-1.407, 1.511e-3
-1.408, 1.545e-3
-1.409, 1.588e-3
-1.410, 1.619e-3
-1.411, 1.631e-3
-1.412, 1.637e-3
-1.413, 1.643e-3
-1.414, 1.671e-3
-1.415, 1.711e-3
-1.416, 1.751e-3
-1.417, 1.779e-3
-1.418, 1.791e-3
-1.419, 1.795e-3
-1.420, 1.807e-3
-1.421, 1.838e-3
-1.422, 1.881e-3
-1.423, 1.921e-3
-1.424, 1.943e-3
-1.425, 1.952e-3
-1.426, 1.958e-3
-1.427, 1.980e-3
-1.428, 2.017e-3
-1.429, 2.060e-3
-1.430, 2.097e-3
-1.431, 2.112e-3
-1.432, 2.118e-3
-1.433, 2.131e-3
-1.434, 2.161e-3
-1.435, 2.201e-3
-1.436, 2.245e-3
-1.437, 2.272e-3
-1.438, 2.288e-3
-1.439, 2.291e-3
-1.440, 2.309e-3
-1.441, 2.343e-3
-1.442, 2.390e-3
-1.443, 2.433e-3
-1.444, 2.457e-3
-1.445, 2.467e-3
-1.446, 2.476e-3
-1.447, 2.497e-3
-1.448, 2.534e-3
-1.449, 2.584e-3
-1.450, 2.621e-3
-1.451, 2.642e-3
-1.452, 2.652e-3
-1.453, 2.661e-3
-1.454, 2.689e-3
-1.455, 2.732e-3
-1.456, 2.775e-3
-1.457, 2.809e-3
-1.458, 2.824e-3
-1.459, 2.834e-3
-1.460, 2.852e-3
-1.461, 2.886e-3
-1.462, 2.932e-3
-1.463, 2.975e-3
-1.464, 3.003e-3
-1.465, 3.015e-3
-1.466, 3.025e-3
-1.467, 3.049e-3
-1.468, 3.089e-3
-1.469, 3.136e-3
-1.470, 3.173e-3
-1.471, 3.194e-3
-1.472, 3.204e-3
-1.473, 3.216e-3
-1.474, 3.247e-3
-1.475, 3.293e-3
-1.476, 3.339e-3
-1.477, 3.373e-3
-1.478, 3.392e-3
-1.479, 3.401e-3
-1.480, 3.416e-3
-1.481, 3.453e-3
-1.482, 3.499e-3
-1.483, 3.546e-3
-1.484, 3.577e-3
-1.485, 3.592e-3
-1.486, 3.598e-3
-1.487, 3.620e-3
-1.488, 3.657e-3
-1.489, 3.706e-3
-1.490, 3.749e-3
-1.491, 3.774e-3
-1.492, 3.786e-3
-1.493, 3.799e-3
-1.494, 3.826e-3
-1.495, 3.873e-3
-1.496, 3.922e-3
-1.497, 3.959e-3
-1.498, 3.977e-3
-1.499, 3.987e-3
-1.500, 4.008e-3
-1.501, 4.042e-3
-1.502, 4.091e-3
-1.503, 4.135e-3
-1.504, 4.162e-3
-1.505, 4.178e-3
-1.506, 4.190e-3
-1.507, 4.212e-3
-1.508, 4.255e-3
-1.509, 4.304e-3
-1.510, 4.347e-3
-1.511, 4.372e-3
-1.512, 4.384e-3
-1.513, 4.400e-3
-1.514, 4.428e-3
-1.515, 4.474e-3
-1.516, 4.523e-3
-1.517, 4.566e-3
-1.518, 4.588e-3
-1.519, 4.594e-3
-1.520, 4.612e-3
-1.521, 4.646e-3
-1.522, 4.693e-3
-1.523, 4.742e-3
-1.524, 4.776e-3
-1.525, 4.794e-3
-1.526, 4.807e-3
-1.527, 4.831e-3
-1.528, 4.871e-3
-1.529, 4.921e-3
-1.530, 4.970e-3
-1.531, 4.995e-3
-1.532, 5.010e-3
-1.533, 5.026e-3
-1.534, 5.060e-3
-1.535, 5.106e-3
-1.536, 5.155e-3
-1.537, 5.189e-3
-1.538, 5.211e-3
-1.539, 5.223e-3
-1.540, 5.245e-3
-1.541, 5.282e-3
-1.542, 5.334e-3
-1.543, 5.383e-3
-1.544, 5.417e-3
-1.545, 5.436e-3
-1.546, 5.451e-3
-1.547, 5.473e-3
-1.548, 5.516e-3
-1.549, 5.571e-3
-1.550, 5.621e-3
-1.551, 5.651e-3
-1.552, 5.667e-3
-1.553, 5.676e-3
-1.554, 5.704e-3
-1.555, 5.750e-3
-1.556, 5.803e-3
-1.557, 5.849e-3
-1.558, 5.877e-3
-1.559, 5.889e-3
-1.560, 5.907e-3
-1.561, 5.944e-3
-1.562, 5.997e-3
-1.563, 6.049e-3
-1.564, 6.086e-3
-1.565, 6.105e-3
-1.566, 6.123e-3
-1.567, 6.151e-3
-1.568, 6.194e-3
-1.569, 6.247e-3
-1.570, 6.290e-3
-1.571, 6.317e-3
-1.572, 6.336e-3
-1.573, 6.354e-3
-1.574, 6.388e-3
-1.575, 6.438e-3
-1.576, 6.493e-3
-1.577, 6.536e-3
-1.578, 6.564e-3
-1.579, 6.580e-3
-1.580, 6.601e-3
-1.581, 6.641e-3
-1.582, 6.694e-3
-1.583, 6.752e-3
-1.584, 6.795e-3
-1.585, 6.817e-3
-1.586, 6.826e-3
-1.587, 6.848e-3
-1.588, 6.891e-3
-1.589, 6.946e-3
-1.590, 7.002e-3
-1.591, 7.036e-3
-1.592, 7.054e-3
-1.593, 7.073e-3
-1.594, 7.107e-3
-1.595, 7.156e-3
-1.596, 7.215e-3
-1.597, 7.264e-3
-1.598, 7.292e-3
-1.599, 7.313e-3
-1.600, 7.338e-3
-1.601, 7.381e-3
-1.602, 7.434e-3
-1.603, 7.483e-3
-1.604, 7.520e-3
-1.605, 7.541e-3
-1.606, 7.563e-3
-1.607, 7.594e-3
-1.608, 7.640e-3
-1.609, 7.699e-3
-1.610, 7.754e-3
-1.611, 7.788e-3
-1.612, 7.813e-3
-1.613, 7.834e-3
-1.614, 7.868e-3
-1.615, 7.921e-3
-1.616, 7.985e-3
-1.617, 8.041e-3
-1.618, 8.072e-3
-1.619, 8.087e-3
-1.620, 8.106e-3
-1.621, 8.140e-3
-1.622, 8.198e-3
-1.623, 8.260e-3
-1.624, 8.306e-3
-1.625, 8.337e-3
-1.626, 8.358e-3
-1.627, 8.386e-3
-1.628, 8.436e-3
-1.629, 8.497e-3
-1.630, 8.556e-3
-1.631, 8.596e-3
-1.632, 8.624e-3
-1.633, 8.651e-3
-1.634, 8.688e-3
-1.635, 8.741e-3
-1.636, 8.799e-3
-1.637, 8.846e-3
-1.638, 8.880e-3
-1.639, 8.904e-3
-1.640, 8.932e-3
-1.641, 8.981e-3
-1.642, 9.043e-3
-1.643, 9.105e-3
-1.644, 9.148e-3
-1.645, 9.182e-3
-1.646, 9.209e-3
-1.647, 9.240e-3
-1.648, 9.293e-3
-1.649, 9.360e-3
-1.650, 9.422e-3
-1.651, 9.468e-3
-1.652, 9.493e-3
-1.653, 9.512e-3
-1.654, 9.542e-3
-1.655, 9.598e-3
-1.656, 9.666e-3
-1.657, 9.724e-3
-1.658, 9.764e-3
-1.659, 9.792e-3
-1.660, 9.820e-3
-1.661, 9.866e-3
-1.662, 9.931e-3
-1.663, 1.000e-2
-1.664, 1.005e-2
-1.665, 1.009e-2
-1.666, 1.013e-2
-1.667, 1.016e-2
-1.668, 1.021e-2
-1.669, 1.028e-2
-1.670, 1.033e-2
-1.671, 1.037e-2
-1.672, 1.041e-2
-1.673, 1.044e-2
-1.674, 1.049e-2
-1.675, 1.055e-2
-1.676, 1.062e-2
-1.677, 1.068e-2
-1.678, 1.072e-2
-1.679, 1.075e-2
-1.680, 1.078e-2
-1.681, 1.083e-2
-1.682, 1.091e-2
-1.683, 1.099e-2
-1.684, 1.105e-2
-1.685, 1.108e-2
-1.686, 1.110e-2
-1.687, 1.113e-2
-1.688, 1.118e-2
-1.689, 1.126e-2
-1.690, 1.133e-2
-1.691, 1.139e-2
-1.692, 1.143e-2
-1.693, 1.145e-2
-1.694, 1.150e-2
-1.695, 1.156e-2
-1.696, 1.164e-2
-1.697, 1.170e-2
-1.698, 1.175e-2
-1.699, 1.180e-2
-1.700, 1.177e-2
-1.699, 1.166e-2
-1.698, 1.159e-2
-1.697, 1.151e-2
-1.696, 1.142e-2
-1.695, 1.133e-2
-1.694, 1.123e-2
-1.693, 1.114e-2
-1.692, 1.106e-2
-1.691, 1.100e-2
-1.690, 1.096e-2
-1.689, 1.088e-2
-1.688, 1.079e-2
-1.687, 1.069e-2
-1.686, 1.061e-2
-1.685, 1.054e-2
-1.684, 1.049e-2
-1.683, 1.043e-2
-1.682, 1.034e-2
-1.681, 1.024e-2
-1.680, 1.014e-2
-1.679, 1.006e-2
-1.678, 1.001e-2
-1.677, 9.959e-3
-1.676, 9.894e-3
-1.675, 9.808e-3
-1.674, 9.718e-3
-1.673, 9.635e-3
-1.672, 9.570e-3
-1.671, 9.521e-3
-1.670, 9.468e-3
-1.669, 9.401e-3
-1.668, 9.320e-3
-1.667, 9.240e-3
-1.666, 9.166e-3
-1.665, 9.108e-3
-1.664, 9.055e-3
-1.663, 8.997e-3
-1.662, 8.926e-3
-1.661, 8.843e-3
-1.660, 8.762e-3
-1.659, 8.701e-3
-1.658, 8.651e-3
-1.657, 8.605e-3
-1.656, 8.547e-3
-1.655, 8.473e-3
-1.654, 8.392e-3
-1.653, 8.318e-3
-1.652, 8.263e-3
-1.651, 8.226e-3
-1.650, 8.180e-3
-1.649, 8.115e-3
-1.648, 8.032e-3
-1.647, 7.945e-3
-1.646, 7.881e-3
-1.645, 7.834e-3
-1.644, 7.800e-3
-1.643, 7.754e-3
-1.642, 7.689e-3
-1.641, 7.609e-3
-1.640, 7.538e-3
-1.639, 7.483e-3
-1.638, 7.446e-3
-1.637, 7.409e-3
-1.636, 7.360e-3
-1.635, 7.298e-3
-1.634, 7.224e-3
-1.633, 7.162e-3
-1.632, 7.110e-3
-1.631, 7.070e-3
-1.630, 7.027e-3
-1.629, 6.971e-3
-1.628, 6.903e-3
-1.627, 6.838e-3
-1.626, 6.783e-3
-1.625, 6.743e-3
-1.624, 6.709e-3
-1.623, 6.669e-3
-1.622, 6.610e-3
-1.621, 6.543e-3
-1.620, 6.478e-3
-1.619, 6.428e-3
-1.618, 6.401e-3
-1.617, 6.373e-3
-1.616, 6.324e-3
-1.615, 6.259e-3
-1.614, 6.185e-3
-1.613, 6.123e-3
-1.612, 6.089e-3
-1.611, 6.065e-3
-1.610, 6.031e-3
-1.609, 5.981e-3
-1.608, 5.920e-3
-1.607, 5.855e-3
-1.606, 5.809e-3
-1.605, 5.781e-3
-1.604, 5.753e-3
-1.603, 5.716e-3
-1.602, 5.664e-3
-1.601, 5.614e-3
-1.600, 5.553e-3
-1.599, 5.507e-3
-1.598, 5.479e-3
-1.597, 5.451e-3
-1.596, 5.408e-3
-1.595, 5.356e-3
-1.594, 5.300e-3
-1.593, 5.254e-3
-1.592, 5.223e-3
-1.591, 5.198e-3
-1.590, 5.167e-3
-1.589, 5.121e-3
-1.588, 5.063e-3
-1.587, 5.004e-3
-1.586, 4.961e-3
-1.585, 4.939e-3
-1.584, 4.921e-3
-1.583, 4.887e-3
-1.582, 4.838e-3
-1.581, 4.776e-3
-1.580, 4.720e-3
-1.579, 4.686e-3
-1.578, 4.668e-3
-1.577, 4.662e-3
-1.576, 4.622e-3
-1.575, 4.572e-3
-1.574, 4.514e-3
-1.573, 4.471e-3
-1.572, 4.446e-3
-1.571, 4.431e-3
-1.570, 4.409e-3
-1.569, 4.372e-3
-1.568, 4.320e-3
-1.567, 4.267e-3
-1.566, 4.227e-3
-1.565, 4.206e-3
-1.564, 4.187e-3
-1.563, 4.159e-3
-1.562, 4.119e-3
-1.561, 4.067e-3
-1.560, 4.027e-3
-1.559, 3.996e-3
-1.558, 3.977e-3
-1.557, 3.959e-3
-1.556, 3.931e-3
-1.555, 3.885e-3
-1.554, 3.832e-3
-1.553, 3.792e-3
-1.552, 3.774e-3
-1.551, 3.762e-3
-1.550, 3.743e-3
-1.549, 3.706e-3
-1.548, 3.651e-3
-1.547, 3.601e-3
-1.546, 3.573e-3
-1.545, 3.558e-3
-1.544, 3.561e-3
-1.543, 3.546e-3
-1.542, 3.506e-3
-1.541, 3.447e-3
-1.540, 3.404e-3
-1.539, 3.385e-3
-1.538, 3.370e-3
-1.537, 3.355e-3
-1.536, 3.330e-3
-1.535, 3.290e-3
-1.534, 3.241e-3
-1.533, 3.204e-3
-1.532, 3.182e-3
-1.531, 3.173e-3
-1.530, 3.154e-3
-1.529, 3.123e-3
-1.528, 3.083e-3
-1.527, 3.037e-3
-1.526, 3.009e-3
-1.525, 2.994e-3
-1.524, 2.985e-3
-1.523, 2.969e-3
-1.522, 2.929e-3
-1.521, 2.883e-3
-1.520, 2.846e-3
-1.519, 2.824e-3
-1.518, 2.818e-3
-1.517, 2.809e-3
-1.516, 2.781e-3
-1.515, 2.741e-3
-1.514, 2.695e-3
-1.513, 2.664e-3
-1.512, 2.652e-3
-1.511, 2.645e-3
-1.510, 2.633e-3
-1.509, 2.602e-3
-1.508, 2.559e-3
-1.507, 2.519e-3
-1.506, 2.494e-3
-1.505, 2.485e-3
-1.504, 2.479e-3
-1.503, 2.464e-3
-1.502, 2.430e-3
-1.501, 2.386e-3
-1.500, 2.349e-3
-1.499, 2.331e-3
-1.498, 2.322e-3
-1.497, 2.316e-3
-1.496, 2.294e-3
-1.495, 2.257e-3
-1.494, 2.217e-3
-1.493, 2.189e-3
-1.492, 2.177e-3
-1.491, 2.174e-3
-1.490, 2.164e-3
-1.489, 2.134e-3
-1.488, 2.094e-3
-1.487, 2.057e-3
-1.486, 2.035e-3
-1.485, 2.029e-3
-1.484, 2.029e-3
-1.483, 2.013e-3
-1.482, 1.976e-3
-1.481, 1.936e-3
-1.480, 1.906e-3
-1.479, 1.890e-3
-1.478, 1.887e-3
-1.477, 1.884e-3
-1.476, 1.862e-3
-1.475, 1.828e-3
-1.474, 1.791e-3
-1.473, 1.773e-3
-1.472, 1.761e-3
-1.471, 1.758e-3
-1.470, 1.748e-3
-1.469, 1.724e-3
-1.468, 1.684e-3
-1.467, 1.650e-3
-1.466, 1.628e-3
-1.465, 1.625e-3
-1.464, 1.622e-3
-1.463, 1.606e-3
-1.462, 1.576e-3
-1.461, 1.539e-3
-1.460, 1.508e-3
-1.459, 1.495e-3
-1.458, 1.495e-3
-1.457, 1.492e-3
-1.456, 1.474e-3
-1.455, 1.440e-3
-1.454, 1.403e-3
-1.453, 1.378e-3
-1.452, 1.372e-3
-1.451, 1.375e-3
-1.450, 1.369e-3
-1.449, 1.341e-3
-1.448, 1.307e-3
-1.447, 1.273e-3
-1.446, 1.255e-3
-1.445, 1.252e-3
-1.444, 1.255e-3
-1.443, 1.243e-3
-1.442, 1.215e-3
-1.441, 1.178e-3
-1.440, 1.150e-3
-1.439, 1.141e-3
-1.438, 1.141e-3
-1.437, 1.141e-3
-1.436, 1.125e-3
-1.435, 1.095e-3
-1.434, 1.058e-3
-1.433, 1.036e-3
-1.432, 1.033e-3
-1.431, 1.036e-3
-1.430, 1.030e-3
-1.429, 1.008e-3
-1.428, 9.744e-4
-1.427, 9.436e-4
-1.426, 9.282e-4
-1.425, 9.282e-4
-1.424, 9.313e-4
-1.423, 9.220e-4
-1.422, 8.943e-4
-1.421, 8.603e-4
-1.420, 8.326e-4
-1.419, 8.264e-4
-1.418, 8.326e-4
-1.417, 8.326e-4
-1.416, 8.172e-4
-1.415, 7.863e-4
-1.414, 7.524e-4
-1.413, 7.339e-4
-1.412, 7.309e-4
-1.411, 7.370e-4
-1.410, 7.339e-4
-1.409, 7.124e-4
-1.408, 6.815e-4
-1.407, 6.538e-4
-1.406, 6.414e-4
-1.405, 6.445e-4
-1.404, 6.476e-4
-1.403, 6.414e-4
-1.402, 6.168e-4
-1.401, 5.859e-4
-1.400, 5.613e-4
-1.399, 5.582e-4
-1.398, 5.613e-4
-1.397, 5.644e-4
-1.396, 5.520e-4
-1.395, 5.243e-4
-1.394, 4.935e-4
-1.393, 4.780e-4
-1.392, 4.780e-4
-1.391, 4.873e-4
-1.390, 4.873e-4
-1.389, 4.657e-4
-1.388, 4.380e-4
-1.387, 4.133e-4
-1.386, 4.010e-4
-1.385, 4.071e-4
-1.384, 4.164e-4
-1.383, 4.102e-4
-1.382, 3.855e-4
-1.381, 3.547e-4
-1.380, 3.331e-4
-1.379, 3.331e-4
-1.378, 3.424e-4
-1.377, 3.455e-4
-1.376, 3.362e-4
-1.375, 3.085e-4
-1.374, 2.807e-4
-1.373, 2.684e-4
-1.372, 2.715e-4
-1.371, 2.807e-4
-1.370, 2.807e-4
-1.369, 2.653e-4
-1.368, 2.376e-4
-1.367, 2.160e-4
-1.366, 2.098e-4
-1.365, 2.160e-4
-1.364, 2.252e-4
-1.363, 2.221e-4
-1.362, 2.006e-4
-1.361, 1.728e-4
-1.360, 1.543e-4
-1.359, 1.543e-4
-1.358, 1.666e-4
-1.357, 1.759e-4
-1.356, 1.636e-4
-1.355, 1.420e-4
-1.354, 1.142e-4
-1.353, 1.019e-4
-1.352, 1.081e-4
-1.351, 1.204e-4
-1.350, 1.266e-4
-1.349, 1.111e-4
-1.348, 8.340e-5
-1.347, 6.490e-5
-1.346, 5.873e-5
-1.345, 6.798e-5
-1.344, 8.032e-5
-1.343, 8.032e-5
-1.342, 5.873e-5
-1.341, 3.407e-5
-1.340, 1.557e-5
-1.339, 1.865e-5
-1.338, 3.407e-5
-1.337, 4.024e-5
-1.336, 3.407e-5
-1.335, 1.249e-5
-1.334, -1.218e-5
-1.333, -2.143e-5
-1.332, -1.218e-5
-1.331, 3.239e-6
-1.330, 6.322e-6
-1.329, -6.010e-6
-1.328, -3.068e-5
-1.327, -4.917e-5
-1.326, -5.226e-5
-1.325, -3.992e-5
-1.324, -2.759e-5
-1.323, -2.759e-5
-1.322, -4.301e-5
-1.321, -6.767e-5
-1.320, -8.309e-5
-1.319, -7.692e-5
-1.318, -6.151e-5
-1.317, -5.226e-5
-1.316, -5.842e-5
-1.315, -7.692e-5
-1.314, -1.016e-4
-1.313, -1.078e-4
-1.312, -9.850e-5
-1.311, -8.309e-5
-1.310, -7.692e-5
-1.309, -8.925e-5
-1.308, -1.108e-4
-1.307, -1.293e-4
-1.306, -1.293e-4
-1.305, -1.170e-4
-1.304, -1.016e-4
-1.303, -9.850e-5
-1.302, -1.170e-4
-1.301, -1.386e-4
-1.300, -1.509e-4
-1.299, -1.448e-4
-1.298, -1.293e-4
-1.297, -1.170e-4
-1.296, -1.201e-4
-1.295, -1.386e-4
-1.294, -1.632e-4
-1.293, -1.694e-4
-1.292, -1.571e-4
-1.291, -1.386e-4
-1.290, -1.324e-4
-1.289, -1.417e-4
-1.288, -1.632e-4
-1.287, -1.817e-4
-1.286, -1.817e-4
-1.285, -1.663e-4
-1.284, -1.509e-4
-1.283, -1.478e-4
-1.282, -1.632e-4
-1.281, -1.848e-4
-1.280, -1.972e-4
-1.279, -1.910e-4
-1.278, -1.725e-4
-1.277, -1.602e-4
-1.276, -1.632e-4
-1.275, -1.817e-4
-1.274, -2.033e-4
-1.273, -2.064e-4
-1.272, -1.972e-4
-1.271, -1.756e-4
-1.270, -1.694e-4
-1.269, -1.787e-4
-1.268, -2.002e-4
-1.267, -2.157e-4
-1.266, -2.157e-4
-1.265, -2.002e-4
-1.264, -1.817e-4
-1.263, -1.787e-4
-1.262, -1.941e-4
-1.261, -2.157e-4
-1.260, -2.249e-4
-1.259, -2.187e-4
-1.258, -2.002e-4
-1.257, -1.879e-4
-1.256, -1.879e-4
-1.255, -2.064e-4
-1.254, -2.280e-4
-1.253, -2.342e-4
-1.252, -2.218e-4
-1.251, -2.002e-4
-1.250, -1.910e-4
-1.249, -2.002e-4
-1.248, -2.218e-4
-1.247, -2.372e-4
-1.246, -2.372e-4
-1.245, -2.187e-4
-1.244, -2.033e-4
-1.243, -1.972e-4
-1.242, -2.126e-4
-1.241, -2.342e-4
-1.240, -2.434e-4
-1.239, -2.372e-4
-1.238, -2.157e-4
-1.237, -2.033e-4
-1.236, -2.064e-4
-1.235, -2.218e-4
-1.234, -2.434e-4
-1.233, -2.496e-4
-1.232, -2.342e-4
-1.231, -2.157e-4
-1.230, -2.033e-4
-1.229, -2.157e-4
-1.228, -2.342e-4
-1.227, -2.527e-4
-1.226, -2.496e-4
-1.225, -2.342e-4
-1.224, -2.157e-4
-1.223, -2.095e-4
-1.222, -2.249e-4
-1.221, -2.465e-4
-1.220, -2.588e-4
-1.219, -2.465e-4
-1.218, -2.311e-4
-1.217, -2.157e-4
-1.216, -2.157e-4
-1.215, -2.342e-4
-1.214, -2.527e-4
-1.213, -2.588e-4
-1.212, -2.465e-4
-1.211, -2.249e-4
-1.210, -2.157e-4
-1.209, -2.249e-4
-1.208, -2.434e-4
-1.207, -2.588e-4
-1.206, -2.588e-4
-1.205, -2.434e-4
-1.204, -2.249e-4
-1.203, -2.187e-4
-1.202, -2.342e-4
-1.201, -2.557e-4
-1.200, -2.650e-4
-1.199, -2.588e-4
-1.198, -2.372e-4
-1.197, -2.218e-4
-1.196, -2.249e-4
-1.195, -2.434e-4
-1.194, -2.619e-4
-1.193, -2.681e-4
-1.192, -2.557e-4
-1.191, -2.342e-4
-1.190, -2.249e-4
-1.189, -2.311e-4
-1.188, -2.527e-4
-1.187, -2.681e-4
-1.186, -2.681e-4
-1.185, -2.527e-4
-1.184, -2.311e-4
-1.183, -2.280e-4
-1.182, -2.403e-4
-1.181, -2.619e-4
-1.180, -2.712e-4
-1.179, -2.650e-4
-1.178, -2.465e-4
-1.177, -2.311e-4
-1.176, -2.311e-4
-1.175, -2.496e-4
-1.174, -2.681e-4
-1.173, -2.742e-4
-1.172, -2.619e-4
-1.171, -2.403e-4
-1.170, -2.311e-4
-1.169, -2.403e-4
-1.168, -2.588e-4
-1.167, -2.773e-4
-1.166, -2.742e-4
-1.165, -2.588e-4
-1.164, -2.403e-4
-1.163, -2.342e-4
-1.162, -2.465e-4
-1.161, -2.681e-4
-1.160, -2.804e-4
-1.159, -2.742e-4
-1.158, -2.557e-4
-1.157, -2.372e-4
-1.156, -2.403e-4
-1.155, -2.557e-4
-1.154, -2.773e-4
-1.153, -2.835e-4
-1.152, -2.712e-4
-1.151, -2.496e-4
-1.150, -2.403e-4
-1.149, -2.465e-4
-1.148, -2.681e-4
-1.147, -2.835e-4
-1.146, -2.835e-4
-1.145, -2.681e-4
-1.144, -2.465e-4
-1.143, -2.434e-4
-1.142, -2.557e-4
-1.141, -2.773e-4
-1.140, -2.897e-4
-1.139, -2.804e-4
-1.138, -2.619e-4
-1.137, -2.465e-4
-1.136, -2.465e-4
-1.135, -2.650e-4
-1.134, -2.866e-4
-1.133, -2.927e-4
-1.132, -2.804e-4
-1.131, -2.588e-4
-1.130, -2.496e-4
-1.129, -2.557e-4
-1.128, -2.742e-4
-1.127, -2.927e-4
-1.126, -2.927e-4
-1.125, -2.773e-4
-1.124, -2.557e-4
-1.123, -2.527e-4
-1.122, -2.650e-4
-1.121, -2.866e-4
-1.120, -2.989e-4
-1.119, -2.897e-4
-1.118, -2.712e-4
-1.117, -2.557e-4
-1.116, -2.588e-4
-1.115, -2.742e-4
-1.114, -2.958e-4
-1.113, -3.020e-4
-1.112, -2.897e-4
-1.111, -2.681e-4
-1.110, -2.588e-4
-1.109, -2.650e-4
-1.108, -2.866e-4
-1.107, -3.020e-4
-1.106, -3.020e-4
-1.105, -2.866e-4
-1.104, -2.681e-4
-1.103, -2.619e-4
-1.102, -2.742e-4
-1.101, -2.958e-4
-1.100, -3.082e-4
-1.099, -3.020e-4
-1.098, -2.804e-4
-1.097, -2.650e-4
-1.096, -2.650e-4
-1.095, -2.835e-4
-1.094, -3.051e-4
-1.093, -3.112e-4
-1.092, -2.989e-4
-1.091, -2.773e-4
-1.090, -2.681e-4
-1.089, -2.742e-4
-1.088, -2.927e-4
-1.087, -3.112e-4
-1.086, -3.112e-4
-1.085, -2.989e-4
-1.084, -2.804e-4
-1.083, -2.712e-4
-1.082, -2.835e-4
-1.081, -3.051e-4
-1.080, -3.174e-4
-1.079, -3.112e-4
-1.078, -2.927e-4
-1.077, -2.773e-4
-1.076, -2.773e-4
-1.075, -2.927e-4
-1.074, -3.143e-4
-1.073, -3.205e-4
-1.072, -3.082e-4
-1.071, -2.897e-4
-1.070, -2.773e-4
-1.069, -2.835e-4
-1.068, -3.051e-4
-1.067, -3.205e-4
-1.066, -3.236e-4
-1.065, -3.051e-4
-1.064, -2.866e-4
-1.063, -2.804e-4
-1.062, -2.927e-4
-1.061, -3.143e-4
-1.060, -3.267e-4
-1.059, -3.205e-4
-1.058, -3.020e-4
-1.057, -2.866e-4
-1.056, -2.866e-4
-1.055, -3.051e-4
-1.054, -3.236e-4
-1.053, -3.328e-4
-1.052, -3.205e-4
-1.051, -2.989e-4
-1.050, -2.866e-4
-1.049, -2.927e-4
-1.048, -3.112e-4
-1.047, -3.328e-4
-1.046, -3.328e-4
-1.045, -3.174e-4
-1.044, -2.958e-4
-1.043, -2.897e-4
-1.042, -3.020e-4
-1.041, -3.236e-4
-1.040, -3.359e-4
-1.039, -3.328e-4
-1.038, -3.143e-4
-1.037, -2.958e-4
-1.036, -2.958e-4
-1.035, -3.143e-4
-1.034, -3.328e-4
-1.033, -3.421e-4
-1.032, -3.267e-4
-1.031, -3.082e-4
-1.030, -2.958e-4
-1.029, -3.020e-4
-1.028, -3.205e-4
-1.027, -3.390e-4
-1.026, -3.421e-4
-1.025, -3.267e-4
-1.024, -3.051e-4
-1.023, -2.989e-4
-1.022, -3.112e-4
-1.021, -3.328e-4
-1.020, -3.482e-4
-1.019, -3.421e-4
-1.018, -3.236e-4
-1.017, -3.051e-4
-1.016, -3.051e-4
-1.015, -3.205e-4
-1.014, -3.421e-4
-1.013, -3.482e-4
-1.012, -3.390e-4
-1.011, -3.174e-4
-1.010, -3.051e-4
-1.009, -3.112e-4
-1.008, -3.328e-4
-1.007, -3.482e-4
-1.006, -3.513e-4
-1.005, -3.359e-4
-1.004, -3.143e-4
-1.003, -3.082e-4
-1.002, -3.205e-4
-1.001, -3.452e-4
