Potential V vs RHE, Current mA cm-2
0.013299999999999867,5.7111895175551535
0.012299999999999978,4.140859974704963
0.011299999999999866,2.745954633038036
0.010299999999999976,1.5675001202504606
0.009299999999999864,0.43403342679859325
0.008299999999999974,-0.6128529351015338
0.007299999999999862,-1.6594563547416883
0.006299999999999972,-2.7501987669376318
0.00529999999999986,-3.7532290785419424
0.0042999999999999705,-4.712403339850438
0.0032999999999998586,-5.497568111275533
0.0022999999999999687,-6.238876832404812
0.0012999999999998568,-7.024041603829907
0.00029999999999996696,-7.853062425550818
-0.000700000000000145,-8.68208324727173
-0.0017000000000000348,-9.467248018696827
-0.0027000000000001467,-10.164700689530287
-0.0037000000000000366,-10.775855971071984
-0.0047000000000001485,-11.385596541313816
-0.005700000000000038,-12.040607873151327
-0.00670000000000015,-12.73806054398479
-0.00770000000000004,-13.436927926118118
-0.008700000000000152,-14.046668496359947
-0.009700000000000042,-14.61396772760583
-0.010700000000000154,-15.094969569559943
-0.011700000000000044,-15.618412750510005
-0.012700000000000156,-16.184297270456018
-0.013700000000000045,-16.792623129397985
-0.014700000000000157,-17.40094898833995
-0.015700000000000047,-17.966833508285966
-0.01670000000000016,-18.44783535024008
-0.01770000000000005,-18.843954514202288
-0.01870000000000016,-19.28251501716045
-0.01970000000000005,-19.848399537106463
-0.020700000000000163,-20.414284057052477
-0.021700000000000053,-20.980168576998494
-0.022700000000000164,-21.418729079956652
-0.023700000000000054,-21.814848243918867
-0.024700000000000166,-22.15437895588647
-0.025700000000000056,-22.63538079784059
-0.026700000000000168,-23.2012653177866
-0.027700000000000058,-23.767149837732617
-0.02870000000000017,-24.34718147067728
-0.02970000000000006,-24.771594860636792
-0.03070000000000017,-25.12527268560305
-0.03170000000000006,-25.478950510569312
-0.03270000000000017,-25.91751101352747
-0.03370000000000006,-26.440954194477534
-0.034700000000000175,-26.907808923433
-0.035700000000000065,-27.38881076538711
-0.03670000000000018,-27.78492992934932
-0.03770000000000007,-28.09616641531963
-0.03870000000000018,-28.53472691827779
-0.03970000000000007,-28.959140308237306
-0.04070000000000018,-29.581613280177915
-0.04170000000000007,-30.04846800913338
-0.04270000000000018,-30.487028512091538
-0.04370000000000007,-30.88314767605375
-0.044700000000000184,-31.23682550102001
-0.045700000000000074,-31.661238890979522
-0.046700000000000186,-32.14224073293363
-0.047700000000000076,-32.70812525287965
-0.04870000000000019,-33.18912709483376
-0.04970000000000008,-33.627687597791926
-0.05070000000000019,-33.98136542275818
-0.05170000000000008,-34.377484586720385
-0.05270000000000019,-34.8018979766799
-0.05370000000000008,-35.38192960962457
-0.05470000000000019,-35.94781412957058
-0.05570000000000008,-36.4288159715247
-0.056700000000000195,-36.768346683492304
-0.057700000000000085,-37.122024508458566
-0.058700000000000196,-37.51814367242077
-0.059700000000000086,-37.99914551437489
-0.0607000000000002,-38.522588695324956
-0.06170000000000009,-38.98944342428042
-0.0627000000000002,-39.47044526623452
-0.06370000000000009,-39.82412309120078
-0.0647000000000002,-40.220242255162994
-0.06570000000000009,-40.65880275812115
-0.0667000000000002,-41.182245939071215
-0.0677000000000001,-41.79057179801318
-0.0687000000000002,-42.2715736399673
-0.0697000000000001,-42.71013414292546
-0.07070000000000021,-43.09210619388902
-0.0717000000000001,-43.53066669684718
-0.07270000000000021,-44.054109877797245
-0.0737000000000001,-44.619994397743255
-0.07470000000000021,-45.18587891768927
-0.0757000000000001,-45.70932209863933
-0.07670000000000021,-46.147882601597495
-0.0777000000000001,-46.544001765559706
-0.07870000000000021,-47.02500360751382
-0.0797000000000001,-47.590888127459834
-0.08070000000000022,-48.156772647405845
-0.0817000000000001,-48.72265716735186
-0.08270000000000022,-49.20365900930597
-0.08370000000000011,-49.59977817326819
-0.08470000000000022,-50.0807800152223
-0.08570000000000011,-50.547634744177756
-0.08670000000000022,-51.17010771611838
-0.08770000000000011,-51.73599223606439
-0.08870000000000022,-52.30187675601041
-0.08970000000000011,-52.78287859796452
-0.09070000000000022,-53.16485064892808
-0.09170000000000011,-53.603411151886235
-0.09270000000000023,-54.08441299384035
-0.09370000000000012,-54.65029751378637
-0.09470000000000023,-55.25862337272834
-0.09570000000000012,-55.7820665536784
-0.09670000000000023,-56.30550973462846
-0.09770000000000012,-56.70162889859067
-0.09870000000000023,-57.182630740544774
-0.09970000000000012,-57.70607392149485
-0.10070000000000023,-58.31439978043681
-0.10170000000000012,-58.880284300382826
-0.10270000000000024,-59.36128614233694
-0.10370000000000013,-59.7998466452951
-0.10470000000000024,-60.28084848724921
-0.10570000000000013,-60.761850329203334
-0.10670000000000024,-61.28529351015339
-0.10770000000000013,-61.851178030099405
-0.10870000000000024,-62.33217987205352
-0.10970000000000013,-62.77074037501168
-0.11070000000000024,-63.20930087796983
-0.11170000000000013,-63.77518539791585
-0.11270000000000002,-64.29862857886593
-0.11370000000000013,-64.90695443780788
-0.11470000000000002,-65.43039761875795
-0.11570000000000014,-65.95384079970802
-0.11670000000000003,-66.25093017267966
-0.11770000000000014,-66.47728398065809
-0.11870000000000003,-66.87340314462028
-0.11970000000000014,-67.52417034255821
-0.12070000000000003,-68.34470289647993
-0.12170000000000014,-69.0944998854084
-0.12270000000000003,-69.6603844053544
-0.12370000000000014,-70.05650356931662
-0.12470000000000003,-70.35359294228827
-0.12570000000000014,-70.74971210625048
-0.12670000000000003,-71.31559662619651
-0.12770000000000015,-71.96636382413442
-0.12870000000000004,-72.67371947406694
-0.12970000000000015,-73.2820453330089
-0.13070000000000004,-73.6781644969711
-0.13170000000000015,-74.0176952089387
-0.13270000000000004,-74.37137303390499
-0.13370000000000015,-74.89481621485504
-0.13470000000000004,-75.54558341279296
-0.13570000000000015,-76.11146793273898
-0.13670000000000004,-76.5924697746931
-0.13770000000000016,-77.03103027765125
-0.13870000000000005,-77.46959078060941
-0.13970000000000016,-77.99303396155948
-0.14070000000000005,-78.55891848150549
-0.14170000000000016,-79.16724434044745
-0.14270000000000005,-79.69068752139752
-0.14370000000000016,-80.17168936335163
-0.14470000000000005,-80.65269120530574
-0.14570000000000016,-81.09125170826391
-0.14670000000000005,-81.57225355021802
-0.14770000000000016,-82.13813807016405
-0.14870000000000005,-82.6615812511141
-0.14970000000000017,-83.14258309306821
-0.15070000000000006,-83.52455514403178
-0.15170000000000017,-83.96311564698992
-0.15270000000000006,-84.48655882793999
-0.15370000000000017,-85.09488468688197
-0.15470000000000006,-85.75979899781852
-0.15570000000000017,-86.22665372677399
-0.15670000000000006,-86.7076555687281
-0.15770000000000017,-87.14621607168625
-0.15870000000000006,-87.66965925263632
-0.15970000000000018,-88.23554377258235
-0.16070000000000007,-88.80142829252836
-0.16170000000000018,-89.32487147347842
-0.16270000000000007,-89.94734444541903
-0.16370000000000018,-90.41419917437449
-0.16470000000000007,-90.93764235532454
-0.16570000000000018,-91.51767398826922
-0.16670000000000007,-92.12599984721119
-0.16770000000000018,-92.73432570615316
-0.16870000000000007,-93.21532754810727
-0.16970000000000018,-93.65388805106544
-0.17070000000000007,-94.03586010202899
-0.17170000000000019,-94.47442060498715
-0.17270000000000008,-94.95542244694126
-0.1737000000000002,-95.56374830588322
-0.17470000000000008,-96.17207416482519
-0.1757000000000002,-96.69551734577524
-0.17670000000000008,-97.17651918772938
-0.1777000000000002,-97.57263835169158
-0.17870000000000008,-97.92631617665783
-0.1797000000000002,-98.40731801861195
-0.18070000000000008,-98.93076119956201
-0.1817000000000002,-99.45420438051207
-0.18270000000000008,-99.97764756146215
-0.1837000000000002,-100.40206095142165
-0.1847000000000001,-100.79818011538387
-0.1857000000000002,-101.3640646353299
-0.1867000000000001,-101.92994915527588
-0.1877000000000002,-102.59486346621246
-0.1887000000000001,-103.11830664716253
-0.1897000000000002,-103.54272003712204
-0.1907000000000001,-103.93883920108425
-0.1917000000000001,-104.3773997040424
-0.19269999999999998,-104.94328422398843
-0.1937000000000001,-105.5516100829304
-0.19469999999999998,-106.11749460287639
-0.1957000000000001,-106.59849644483052
-0.19669999999999999,-106.99461560879273
-0.1977000000000001,-107.4331761117509
-0.1987,-107.914177953705
-0.1997000000000001,-108.43762113465506
-0.2007,-109.04594699359701
-0.2017000000000001,-109.654272852539
-0.2027,-110.1352746944931
-0.2037000000000001,-110.57383519745127
-0.2047,-110.96995436141347
-0.2057000000000001,-111.49339754236355
-0.2067,-112.10172340130552
-0.2077000000000001,-112.71004926024747
-0.2087,-113.27593378019348
-0.2097000000000001,-113.79937696114357
-0.2107,-114.23793746410173
-0.2117000000000001,-114.71893930605583
-0.2127,-115.19994114800993
-0.2137000000000001,-115.68094298996405
-0.2147,-116.14779771891952
-0.2157000000000001,-116.62879956087362
-0.2167,-117.10980140282774
-0.21770000000000012,-117.54836190578591
-0.2187,-118.02936374774
-0.21970000000000012,-118.63768960668197
-0.2207,-119.20357412662798
-0.22170000000000012,-119.81189998556997
-0.2227,-120.39193161851462
-0.22370000000000012,-120.81634500847414
-0.2247,-121.29734685042824
-0.22570000000000012,-121.73590735338641
-0.2267,-122.25935053433648
-0.22770000000000012,-122.82523505428249
-0.22870000000000001,-123.39111957422851
-0.22970000000000013,-123.87212141618261
-0.23070000000000002,-124.31068191914078
-0.23170000000000013,-124.7916837610949
-0.23270000000000002,-125.31512694204494
-0.23370000000000013,-125.96589413998288
-0.23470000000000002,-126.5317786599289
-0.23570000000000013,-127.05522184087894
-0.23670000000000002,-127.4937823438371
-0.2376999999999999,-127.88990150779931
-0.23870000000000002,-128.32846201075745
-0.2396999999999999,-128.8094638527116
-0.24070000000000003,-129.3753483726576
-0.24169999999999991,-129.89879155360765
-0.24270000000000003,-130.37979339556176
-0.24369999999999992,-130.76176544652535
-0.24470000000000003,-131.07300193249566
-0.24569999999999992,-131.72376913043357
-0.24670000000000003,-132.55844879735392
-0.24769999999999992,-133.3365400122797
-0.24870000000000003,-133.69021783724597
-0.24969999999999992,-133.8599831932298
-0.25070000000000003,-134.04389566221224
-0.2516999999999999,-134.46830905217172
-0.25270000000000004,-134.94931089412586
-0.2536999999999999,-135.65666654405837
-0.25470000000000004,-136.3923164199882
-0.2556999999999999,-137.04308361792607
-0.25670000000000004,-137.48164412088425
-0.25769999999999993,-137.83532194585052
-0.25870000000000004,-138.27388244880868
-0.25969999999999993,-138.79732562975875
-0.26070000000000004,-139.4056514887007
-0.26169999999999993,-139.97153600864672
-0.26270000000000004,-140.41009651160488
-0.26369999999999993,-140.74962722357247
-0.26470000000000005,-141.06086370954282
-0.26569999999999994,-141.41454153450906
-0.26670000000000005,-141.89554337646317
-0.26769999999999994,-142.4614278964092
-0.26870000000000005,-142.8858412863687
-0.26969999999999994,-143.3102546763282
-0.27070000000000005,-143.73466806628772
-0.27169999999999994,-144.01761032626072
-0.27270000000000005,-144.44202371622026
-0.27369999999999994,-144.86643710617977
-0.27470000000000006,-145.57379275611228
-0.27569999999999995,-146.28114840604482
-0.27670000000000006,-146.8470329259908
-0.27769999999999995,-147.27144631595033
-0.27870000000000006,-147.83733083589632
-0.27969999999999995,-148.26174422585584
-0.28070000000000006,-148.68615761581535
-0.28169999999999995,-149.1105710057749
-0.28270000000000006,-149.53498439573437
-0.28369999999999995,-149.95939778569388
-0.28470000000000006,-150.38381117565342
-0.28569999999999995,-150.8082245656129
-0.28670000000000007,-151.37410908555893
-0.28769999999999996,-151.93999360550492
-0.28870000000000007,-152.36440699546444
-0.28969999999999996,-152.64734925543743
-0.29070000000000007,-152.93029151541046
-0.29169999999999996,-153.07176264539694
-0.29270000000000007,-153.35470490536997
-0.29369999999999996,-153.77911829532948
-0.2947000000000001,-154.0620605553025
-0.29569999999999996,-154.3450028152755
-0.2967000000000001,-154.6279450752485
-0.29769999999999996,-154.9108873352215
-0.2987000000000001,-155.19382959519453
-0.29969999999999997,-155.61824298515404
-0.3007000000000001,-156.04265637511355
-0.30169999999999997,-156.32559863508658
-0.3027000000000001,-156.60854089505958
-0.30369999999999997,-156.75001202504606
-0.3047000000000001,-157.03295428501906
-0.30569999999999997,-157.31589654499206
-0.3067000000000001,-157.59883880496508
-0.3077,-158.02325219492457
-0.3087000000000001,-158.3061944548976
-0.3097,-158.5891367148706
-0.3107000000000001,-158.87207897484362
-0.3117,-159.01355010483013
-0.3127000000000001,-159.15502123481662
-0.3137,-159.43796349478964
-0.3147000000000001,-159.72090575476264
-0.3157,-160.00384801473567
-0.3167000000000001,-160.14531914472215
-0.3177,-160.14531914472215
-0.3187000000000001,-160.28679027470866
-0.3197,-160.5697325346817
-0.3207000000000001,-160.8526747946547
-0.3217,-160.99414592464117
-0.3227000000000001,-161.2770881846142
-0.3237,-161.2770881846142
-0.3247000000000001,-161.41855931460069
-0.3257,-161.5600304445872
-0.3267000000000001,-161.70150157457368
-0.3277,-161.84297270456022
-0.3287000000000001,-161.84297270456022
-0.3297,-161.84297270456022
-0.3307000000000001,-161.70150157457368
-0.3317,-161.70150157457368
-0.3327000000000001,-161.84297270456022
-0.3337,-161.84297270456022
-0.3347000000000001,-161.9844438345467
-0.3357,-161.9844438345467
-0.3367000000000001,-161.9844438345467
-0.3377,-161.84297270456022
-0.3387000000000001,-161.70150157457368
-0.3397,-161.70150157457368
-0.3407000000000001,-161.70150157457368
-0.3417,-161.84297270456022
-0.3427000000000001,-161.70150157457368
-0.3437,-161.5600304445872
-0.3447000000000001,-161.41855931460069
-0.3457,-161.2770881846142
-0.3467000000000001,-160.99414592464117
-0.3477,-160.8526747946547
-0.3487000000000001,-160.5697325346817
-0.3497,-160.42826140469515
-0.3507000000000001,-160.14531914472215
-0.3517,-160.00384801473567
-0.3527000000000001,-159.57943462477613
-0.3537,-159.29649236480313
-0.3547000000000001,-159.01355010483013
-0.3557,-158.87207897484362
-0.35670000000000013,-158.5891367148706
-0.3577,-158.1647233249111
-0.35870000000000013,-157.7403099349516
-0.3597,-157.31589654499206
-0.36070000000000013,-156.89148315503257
-0.3617,-156.32559863508658
-0.3626999999999999,-155.75971411514055
-0.3637,-155.19382959519453
-0.3646999999999999,-154.6279450752485
-0.3657,-154.203531685289
-0.3666999999999999,-153.77911829532948
-0.3677,-153.49617603535648
-0.3686999999999999,-153.07176264539694
-0.36970000000000003,-152.36440699546444
-0.3706999999999999,-151.65705134553193
-0.37170000000000003,-150.94969569559944
-0.3726999999999999,-150.38381117565342
-0.37370000000000003,-149.95939778569388
-0.3746999999999999,-149.53498439573437
-0.37570000000000003,-149.1105710057749
-0.3766999999999999,-148.40321535584232
-0.37770000000000004,-147.6958597059098
-0.3786999999999999,-147.1299751859638
-0.37970000000000004,-146.5640906660178
-0.3806999999999999,-146.1396772760583
-0.38170000000000004,-145.57379275611228
-0.38269999999999993,-144.86643710617977
-0.38370000000000004,-144.15908145624724
-0.38469999999999993,-143.5931969363012
-0.38570000000000004,-142.8858412863687
-0.38669999999999993,-141.27307040452254
-0.38570000000000004,-137.56652679887617
-0.38469999999999993,-134.08633700120816
-0.38370000000000004,-130.59200009054155
-0.38269999999999993,-127.14010451887084
-0.38170000000000004,-123.78723873819072
-0.3806999999999999,-120.68902099148629
-0.37970000000000004,-117.71812726176971
-0.3786999999999999,-114.76138064505177
-0.37770000000000004,-111.83292825433115
-0.3766999999999999,-108.87618163761321
-0.37570000000000003,-105.99017058588855
-0.3746999999999999,-103.11830664716253
-0.37370000000000003,-100.31717827342976
-0.3726999999999999,-97.84143349866595
-0.37170000000000003,-95.43642428889537
-0.3706999999999999,-92.94653240113291
-0.36970000000000003,-90.37175783537855
-0.3686999999999999,-87.71210059163228
-0.3677,-85.27879715586442
-0.3666999999999999,-83.04355330207765
-0.3657,-80.7800152222936
-0.3646999999999999,-78.60135982050144
-0.3637,-76.42270441870929
-0.3626999999999999,-74.28649035591307
-0.3617,-72.19271763211282
-0.36070000000000013,-70.18382758630447
-0.3597,-68.25982021848802
-0.35870000000000013,-66.34995996367022
-0.3577,-64.46839393484973
-0.35670000000000013,-62.501945228037314
-0.3557,-60.63452631221547
-0.3547000000000001,-58.79540162239092
-0.3537,-57.14018940154883
-0.3527000000000001,-55.56985985869864
-0.3517,-54.0419716548444
-0.3507000000000001,-52.471642111994214
-0.3497,-50.81642989115212
-0.3487000000000001,-49.20365900930597
-0.3477,-47.633329466455784
-0.3467000000000001,-46.19032394059345
-0.3457,-44.84634820572166
-0.3447000000000001,-43.44578401885527
-0.3437,-42.00277849299294
-0.3427000000000001,-40.4748902891387
-0.3417,-39.08847321527096
-0.3407000000000001,-37.81523304539243
-0.3397,-36.55613998851254
-0.3387000000000001,-35.32534115762997
-0.3377,-34.06624810075008
-0.3367000000000001,-32.807155043870196
-0.3357,-31.49147353499572
-0.3347000000000001,-30.232380478115836
-0.3337,-29.100611438223805
-0.3327000000000001,-28.05372507632368
-0.3317,-26.9643973754276
-0.3307000000000001,-25.86092256153287
-0.3297,-24.686712182644893
-0.3287000000000001,-23.51250180375691
-0.3277,-22.42317410286083
-0.3267000000000001,-21.461170418952605
-0.3257,-20.541608074040333
-0.3247000000000001,-19.537163051136158
-0.3237,-18.53271802823198
-0.3227000000000001,-17.48583166633185
-0.3217,-16.495533756426326
-0.3207000000000001,-15.533530072518102
-0.3197,-14.69885040559773
-0.3187000000000001,-13.828802956180734
-0.3177,-12.99978213445982
-0.3167000000000001,-12.084463923447142
-0.3157,-11.1677310011346
-0.3147000000000001,-10.296268840417738
-0.3137,-9.423391968401008
-0.3127000000000001,-8.68208324727173
-0.3117,-7.940774526142452
-0.3107000000000001,-7.111753704421539
-0.3097,-6.282732882700628
-0.3087000000000001,-5.411270721983764
-0.3077,-4.626105950558669
-0.3067000000000001,-3.927238568425342
-0.30569999999999997,-3.273641947887695
-0.3047000000000001,-2.576189277054232
-0.30369999999999997,-1.8334658446250875
-0.3027000000000001,-1.0054353208140816
-0.30169999999999997,-0.2202705493889862
-0.3007000000000001,0.43403342679859325
-0.29969999999999997,1.0446228238203432
-0.2987000000000001,1.655212220842093
-0.29769999999999996,2.30880884137974
-0.2967000000000001,3.0076762235130676
-0.29569999999999996,3.748984944642347
-0.2947000000000001,4.44643761547581
-0.29369999999999996,5.01373684672169
-0.29270000000000007,5.537180027671754
-0.29169999999999996,6.1044792589176335
-0.29070000000000007,6.714219829159464
-0.28969999999999996,7.413087211292793
-0.28870000000000007,8.066683831830439
-0.28769999999999996,8.677839113372134
-0.28670000000000007,9.201282294322198
-0.28569999999999995,9.680869424976446
-0.28470000000000006,10.20431260592651
-0.28369999999999995,10.771611837172388
-0.28270000000000006,11.38135240741422
-0.28169999999999995,11.992507688955916
-0.28070000000000006,12.515950869905978
-0.27969999999999995,12.995538000560227
-0.27870000000000006,13.388827741922707
-0.27769999999999995,13.91227092287277
-0.27670000000000006,14.430055258623375
-0.27569999999999995,15.05252823056399
-0.27470000000000006,15.575971411514052
-0.27369999999999994,16.000384801473565
-0.27270000000000005,16.354062626439823
-0.27169999999999994,16.792623129397985
-0.27070000000000005,17.2736249713521
-0.26969999999999994,17.839509491298113
-0.26870000000000005,18.362952672248177
-0.26769999999999994,18.80151317520634
-0.26670000000000005,19.1834852261699
