Potential V vs RHE, Current mA cm-2
0.013299999999999867,5.449467927080121
0.012299999999999978,3.9668504848215624
0.011299999999999866,2.5280890928588207
0.010299999999999976,1.175483619057859
0.009299999999999864,-0.1330535977523067
0.008299999999999974,-1.2671569112891135
0.007299999999999862,-2.3569090255751513
0.006299999999999972,-3.361354048479327
0.00529999999999986,-4.3205283097878215
0.0042999999999999705,-5.323558621392133
0.0032999999999998586,-6.282732882700628
0.0022999999999999687,-7.243321855308987
0.0012999999999998568,-8.202496116617484
0.00029999999999996696,-9.031516938338395
-0.000700000000000145,-9.85912304875944
-0.0017000000000000348,-10.601846481188586
-0.0027000000000001467,-11.299299152022046
-0.0037000000000000366,-12.040607873151327
-0.0047000000000001485,-12.825772644576423
-0.005700000000000038,-13.567081365705702
-0.00670000000000015,-14.345172580631472
-0.00770000000000004,-15.05252823056399
-0.008700000000000152,-15.70329542850191
-0.009700000000000042,-16.311621287443874
-0.010700000000000154,-16.877505807389888
-0.011700000000000044,-17.4433903273359
-0.012700000000000156,-18.06586329927652
-0.013700000000000045,-18.716630497214435
-0.014700000000000157,-19.409839034148305
-0.015700000000000047,-19.97572355409432
-0.01670000000000016,-20.584049413036283
-0.01770000000000005,-21.065051254990397
-0.01870000000000016,-21.54605309694451
-0.01970000000000005,-22.069496277894572
-0.020700000000000163,-22.592939458844636
-0.021700000000000053,-23.15882397879065
-0.022700000000000164,-23.767149837732617
-0.023700000000000054,-24.34718147067728
-0.024700000000000166,-24.9130659906233
-0.025700000000000056,-25.39406783257741
-0.026700000000000168,-25.77603988354097
-0.027700000000000058,-26.21460038649913
-0.02870000000000017,-26.69560222845324
-0.02970000000000006,-27.261486748399253
-0.03070000000000017,-27.827371268345274
-0.03170000000000006,-28.393255788291288
-0.03270000000000017,-28.91669896924135
-0.03370000000000006,-29.35525947219951
-0.034700000000000175,-29.793819975157668
-0.035700000000000065,-30.189939139119886
-0.03670000000000018,-30.670940981073993
-0.03770000000000007,-31.19438416202406
-0.03870000000000018,-31.76026868197007
-0.03970000000000007,-32.283711862920136
-0.04070000000000018,-32.807155043870196
-0.04170000000000007,-33.231568433829715
-0.04270000000000018,-33.627687597791926
-0.04370000000000007,-34.06624810075008
-0.044700000000000184,-34.50480860370825
-0.045700000000000074,-34.98581044566235
-0.046700000000000186,-35.55169496560837
-0.047700000000000076,-36.11757948555439
-0.04870000000000019,-36.6834640055004
-0.04970000000000008,-37.164465847454515
-0.05070000000000019,-37.60302635041268
-0.05170000000000008,-38.04158685337084
-0.05270000000000019,-38.46600024333035
-0.05370000000000008,-38.94700208528445
-0.05470000000000019,-39.47044526623452
-0.05570000000000008,-39.99388844718459
-0.056700000000000195,-40.51733162813464
-0.057700000000000085,-40.99833347008877
-0.058700000000000196,-41.47933531204288
-0.059700000000000086,-41.96033715399699
-0.0607000000000002,-42.39889765695515
-0.06170000000000009,-42.87989949890926
-0.0627000000000002,-43.44578401885527
-0.06370000000000009,-44.011668538801295
-0.0647000000000002,-44.577553058747306
-0.06570000000000009,-45.10099623969737
-0.0667000000000002,-45.581998081651484
-0.0677000000000001,-46.062999923605595
-0.0687000000000002,-46.501560426563756
-0.0697000000000001,-46.982562268517874
-0.07070000000000021,-47.54844678846388
-0.0717000000000001,-48.156772647405845
-0.07270000000000021,-48.76509850634781
-0.0737000000000001,-49.33098302629383
-0.07470000000000021,-49.85442620724389
-0.0757000000000001,-50.29298671020206
-0.07670000000000021,-50.73154721316022
-0.0777000000000001,-51.17010771611838
-0.07870000000000021,-51.69355089706845
-0.0797000000000001,-52.25943541701445
-0.08070000000000022,-52.86776127595642
-0.0817000000000001,-53.476087134898386
-0.08270000000000022,-54.08441299384035
-0.08370000000000011,-54.60785617479041
-0.08470000000000022,-55.088858016744524
-0.08570000000000011,-55.527418519702685
-0.08670000000000022,-56.05086170065276
-0.08770000000000011,-56.61674622059877
-0.08870000000000022,-57.22507207954074
-0.08970000000000011,-57.87583927747865
-0.09070000000000022,-58.498312249419264
-0.09170000000000011,-59.06419676936528
-0.09270000000000023,-59.502757272323436
-0.09370000000000012,-59.92717066228296
-0.09470000000000023,-60.36573116524111
-0.09570000000000012,-60.889174346191176
-0.09670000000000023,-61.53994154412909
-0.09770000000000012,-62.20485585506566
-0.09870000000000023,-62.855623053003576
-0.09970000000000012,-63.46394891194555
-0.10070000000000023,-63.98739209289561
-0.10170000000000012,-64.46839393484973
-0.10270000000000024,-64.94939577680383
-0.10370000000000013,-65.4728389577539
-0.10470000000000024,-66.03872347769992
-0.10570000000000013,-66.64704933664189
-0.10670000000000024,-67.25537519558385
-0.10770000000000013,-67.86370105452582
-0.10870000000000024,-68.48617402646643
-0.10970000000000013,-69.0096172074165
-0.11070000000000024,-69.4906190493706
-0.11170000000000013,-70.05650356931662
-0.11270000000000002,-70.57994675026669
-0.11370000000000013,-71.1458312702127
-0.11470000000000002,-71.75415712915466
-0.11570000000000014,-72.32004164910067
-0.11670000000000003,-72.92836750804264
-0.11770000000000014,-73.45181068899271
-0.11870000000000003,-73.97525386994278
-0.11970000000000014,-74.49869705089283
-0.12070000000000003,-75.06458157083884
-0.12170000000000014,-75.6729074297808
-0.12270000000000003,-76.33782174071737
-0.12370000000000014,-76.98858893865528
-0.12470000000000003,-77.59691479759726
-0.12570000000000014,-78.16279931754329
-0.12670000000000003,-78.64380115949739
-0.12770000000000015,-79.1248030014515
-0.12870000000000004,-79.64824618240156
-0.12970000000000015,-80.25657204134353
-0.13070000000000004,-80.86489790028548
-0.13170000000000015,-81.57225355021802
-0.13270000000000004,-82.18057940915998
-0.13370000000000015,-82.70402259011003
-0.13470000000000004,-83.22746577106011
-0.13570000000000015,-83.70846761301424
-0.13670000000000004,-84.27435213296022
-0.13770000000000016,-84.8826779919022
-0.13870000000000005,-85.49100385084417
-0.13970000000000016,-86.14177104878208
-0.14070000000000005,-86.75009690772404
-0.14170000000000016,-87.27354008867411
-0.14270000000000005,-87.75454193062824
-0.14370000000000016,-88.27798511157829
-0.14470000000000005,-88.9004580835189
-0.14570000000000016,-89.50878394246087
-0.14670000000000005,-90.07466846240689
-0.14770000000000016,-90.6405529823529
-0.14870000000000005,-91.12155482430701
-0.14970000000000017,-91.56011532726518
-0.15070000000000006,-92.04111716921928
-0.15170000000000017,-92.56456035016936
-0.15270000000000006,-93.08800353111941
-0.15370000000000017,-93.69632939006138
-0.15470000000000006,-94.34709658799929
-0.15570000000000017,-95.04030512493317
-0.15670000000000006,-95.79010211386164
-0.15770000000000017,-96.44086931179956
-0.15870000000000006,-97.00675383174556
-0.15970000000000018,-97.53019701269562
-0.16070000000000007,-98.01119885464975
-0.16170000000000018,-98.5346420355998
-0.16270000000000007,-99.05808521654988
-0.16370000000000018,-99.62396973649588
-0.16470000000000007,-100.23229559543785
-0.16570000000000018,-100.84062145437981
-0.16670000000000007,-101.44894731332178
-0.16770000000000018,-102.02897894626645
-0.16870000000000007,-102.59486346621246
-0.16970000000000018,-103.16074798615847
-0.17070000000000007,-103.68419116710854
-0.17170000000000019,-104.2925170260505
-0.17270000000000008,-104.90084288499246
-0.1737000000000002,-105.5516100829304
-0.17470000000000008,-106.15993594187235
-0.1757000000000002,-106.73996757481702
-0.17670000000000008,-107.26341075576708
-0.1777000000000002,-107.78685393671715
-0.17870000000000008,-108.35273845666316
-0.1797000000000002,-108.91862297660917
-0.18070000000000008,-109.52694883555114
-0.1817000000000002,-110.17771603348905
-0.18270000000000008,-110.74360055343507
-0.1837000000000002,-111.26704373438514
-0.1847000000000001,-111.74804557633925
-0.1857000000000002,-112.27148875728932
-0.1867000000000001,-112.83737327723534
-0.1877000000000002,-113.44569913617728
-0.1887000000000001,-114.11061344711386
-0.1897000000000002,-114.76138064505177
-0.1907000000000001,-115.4121478429897
-0.1917000000000001,-115.93559102393975
-0.19269999999999998,-116.41659286589388
-0.1937000000000001,-116.89759470784797
-0.19469999999999998,-117.42103788879804
-0.1957000000000001,-117.98692240874406
-0.19669999999999999,-118.59524826768603
-0.1977000000000001,-119.20357412662798
-0.1987,-119.86848843756455
-0.1997000000000001,-120.43437295751058
-0.2007,-120.95781613846064
-0.2017000000000001,-121.43881798041474
-0.2027,-122.00470250036076
-0.2037000000000001,-122.48570434231489
-0.2047,-123.09403020125686
-0.2057000000000001,-123.70235606019881
-0.2067,-124.35312325813672
-0.2077000000000001,-124.9614491170787
-0.2087,-125.5273336370247
-0.2097000000000001,-126.05077681797478
-0.2107,-126.48933732093293
-0.2117000000000001,-126.97033916288706
-0.2127,-127.36645832684925
-0.2137000000000001,-127.93234284679528
-0.2147,-128.66799272272507
-0.2157000000000001,-129.41778971165354
-0.2167,-130.06855690959148
-0.21770000000000012,-130.50711741254963
-0.2187,-130.8042067855213
-0.21970000000000012,-131.1154432714916
-0.2207,-131.55400377444977
-0.22170000000000012,-132.11988829439576
-0.2227,-132.81309683132966
-0.22370000000000012,-133.52045248126214
-0.2247,-134.17121967920008
-0.22570000000000012,-134.82198687713802
-0.2267,-135.34543005808808
-0.22770000000000012,-135.82643190004217
-0.22870000000000001,-136.34987508099226
-0.22970000000000013,-136.8733182619423
-0.23070000000000002,-137.48164412088425
-0.23170000000000013,-138.04752864083028
-0.23270000000000002,-138.65585449977226
-0.23370000000000013,-139.27832747171286
-0.23470000000000002,-139.84421199165885
-0.23570000000000013,-140.41009651160488
-0.23670000000000002,-140.89109835355902
-0.2376999999999999,-141.456982873505
-0.23870000000000002,-142.03701450644968
-0.2396999999999999,-142.6028990263957
-0.24070000000000003,-143.3102546763282
-0.24169999999999991,-143.87613919627424
-0.24270000000000003,-144.30055258623375
-0.24369999999999992,-144.86643710617977
-0.24470000000000003,-145.29085049613926
-0.24569999999999992,-145.85673501608528
-0.24670000000000003,-146.4226195360313
-0.24769999999999992,-147.1299751859638
-0.24870000000000003,-147.6958597059098
-0.24969999999999992,-148.40321535584232
-0.25070000000000003,-148.82762874580186
-0.2516999999999999,-149.53498439573437
-0.25270000000000004,-150.1008689156804
-0.2536999999999999,-150.8082245656129
-0.25470000000000004,-151.37410908555893
-0.2556999999999999,-152.0814647354914
-0.25670000000000004,-152.64734925543743
-0.25769999999999993,-153.35470490536997
-0.25870000000000004,-153.77911829532948
-0.25969999999999993,-154.3450028152755
-0.26070000000000004,-154.76941620523502
-0.26169999999999993,-155.19382959519453
-0.26270000000000004,-155.61824298515404
-0.26369999999999993,-156.18412750510007
-0.26470000000000005,-156.89148315503257
-0.26569999999999994,-157.7403099349516
-0.26670000000000005,-158.3061944548976
-0.26769999999999994,-158.87207897484362
-0.26870000000000005,-159.29649236480313
-0.26969999999999994,-159.72090575476264
-0.27070000000000005,-160.28679027470866
-0.27169999999999994,-160.8526747946547
-0.27270000000000005,-161.41855931460069
-0.27369999999999994,-161.84297270456022
-0.27470000000000006,-162.40885722450622
-0.27569999999999995,-162.8332706144657
-0.27670000000000006,-163.25768400442522
-0.27769999999999995,-163.82356852437124
-0.27870000000000006,-164.38945304431726
-0.27969999999999995,-164.9553375642633
-0.28070000000000006,-165.5212220842093
-0.28169999999999995,-165.94563547416882
-0.28270000000000006,-166.51151999411482
-0.28369999999999995,-167.07740451406085
-0.28470000000000006,-167.50181790402033
-0.28569999999999995,-167.92623129397984
-0.28670000000000007,-168.35064468393938
-0.28769999999999996,-168.91652920388537
-0.28870000000000007,-169.3409425938449
-0.28969999999999996,-169.9068271137909
-0.29070000000000007,-170.47271163373694
-0.29169999999999996,-171.03859615368293
-0.29270000000000007,-171.60448067362896
-0.29369999999999996,-172.17036519357498
-0.2947000000000001,-172.73624971352098
-0.29569999999999996,-173.302134233467
-0.2967000000000001,-173.86801875341303
-0.29769999999999996,-174.43390327335902
-0.2987000000000001,-174.85831666331853
-0.29969999999999997,-175.28273005327804
-0.3007000000000001,-175.70714344323756
-0.30169999999999997,-175.99008570321055
-0.3027000000000001,-176.27302796318358
-0.30369999999999997,-176.6974413531431
-0.3047000000000001,-177.2633258730891
-0.30569999999999997,-177.9706815230216
-0.3067000000000001,-178.53656604296762
-0.3077,-179.10245056291362
-0.3087000000000001,-179.52686395287316
-0.3097,-179.95127734283267
-0.3107000000000001,-180.23421960280567
-0.3117,-180.5171618627787
-0.3127000000000001,-180.94157525273818
-0.3137,-181.36598864269772
-0.3147000000000001,-181.79040203265723
-0.3157,-182.35628655260325
-0.3167000000000001,-182.78069994256273
-0.3177,-183.06364220253573
-0.3187000000000001,-183.34658446250873
-0.3197,-183.62952672248176
-0.3207000000000001,-183.91246898245475
-0.3217,-184.33688237241427
-0.3227000000000001,-184.7612957623738
-0.3237,-185.3271802823198
-0.3247000000000001,-185.7515936722793
-0.3257,-186.17600706223882
-0.3267000000000001,-186.31747819222534
-0.3277,-186.60042045219836
-0.3287000000000001,-186.88336271217133
-0.3297,-187.16630497214436
-0.3307000000000001,-187.44924723211736
-0.3317,-187.73218949209036
-0.3327000000000001,-188.01513175206335
-0.3337,-188.4395451420229
-0.3347000000000001,-188.72248740199586
-0.3357,-188.8639585319824
-0.3367000000000001,-189.1469007919554
-0.3377,-189.42984305192843
-0.3387000000000001,-189.57131418191491
-0.3397,-189.8542564418879
-0.3407000000000001,-190.13719870186094
-0.3417,-190.27866983184742
-0.3427000000000001,-190.56161209182042
-0.3437,-190.70308322180696
-0.3447000000000001,-190.84455435179345
-0.3457,-190.98602548177996
-0.3467000000000001,-191.12749661176645
-0.3477,-191.268967741753
-0.3487000000000001,-191.41043887173947
-0.3497,-191.551910001726
-0.3507000000000001,-191.551910001726
-0.3517,-191.551910001726
-0.3527000000000001,-191.69338113171247
-0.3537,-191.69338113171247
-0.3547000000000001,-191.83485226169896
-0.3557,-191.9763233916855
-0.35670000000000013,-192.11779452167198
-0.3577,-192.11779452167198
-0.35870000000000013,-192.11779452167198
-0.3597,-191.9763233916855
-0.36070000000000013,-191.83485226169896
-0.3617,-191.69338113171247
-0.3626999999999999,-191.69338113171247
-0.3637,-191.69338113171247
-0.3646999999999999,-191.83485226169896
-0.3657,-191.83485226169896
-0.3666999999999999,-191.69338113171247
-0.3677,-191.41043887173947
-0.3686999999999999,-191.12749661176645
-0.36970000000000003,-190.84455435179345
-0.3706999999999999,-190.70308322180696
-0.37170000000000003,-190.70308322180696
-0.3726999999999999,-190.56161209182042
-0.37370000000000003,-190.42014096183394
-0.3746999999999999,-190.27866983184742
-0.37570000000000003,-189.99572757187443
-0.3766999999999999,-189.71278531190143
-0.37770000000000004,-189.42984305192843
-0.3786999999999999,-189.1469007919554
-0.37970000000000004,-188.72248740199586
-0.3806999999999999,-188.4395451420229
-0.38170000000000004,-188.15660288204987
-0.38269999999999993,-187.87366062207687
-0.38370000000000004,-187.44924723211736
-0.38469999999999993,-187.02483384215788
-0.38570000000000004,-186.60042045219836
-0.38669999999999993,-185.0442380223468
-0.38570000000000004,-181.5074597726842
-0.38469999999999993,-178.1121526530081
-0.38370000000000004,-174.71684553333202
-0.38269999999999993,-171.46300954364247
-0.38170000000000004,-168.06770242396635
-0.3806999999999999,-164.67239530429026
-0.37970000000000004,-161.2770881846142
-0.3786999999999999,-158.1647233249111
-0.37770000000000004,-154.9108873352215
-0.3766999999999999,-151.93999360550492
-0.37570000000000003,-148.96909987578834
-0.3746999999999999,-145.9982061460718
-0.37370000000000003,-143.0273124163552
-0.3726999999999999,-140.05641868663866
-0.37170000000000003,-137.04308361792607
-0.3706999999999999,-134.04389566221224
-0.36970000000000003,-131.1154432714916
-0.3686999999999999,-128.28602067176152
-0.3677,-125.56977497602065
-0.3666999999999999,-122.86767639327843
-0.3657,-120.25046048852812
-0.3646999999999999,-117.63324458377778
-0.3637,-114.97358734003153
-0.3626999999999999,-112.31393009628526
-0.3617,-109.69671419153494
-0.36070000000000013,-107.12193962578058
-0.3597,-104.73107752900866
-0.35870000000000013,-102.3260683192381
-0.3577,-99.97764756146215
-0.35670000000000013,-97.57263835169158
-0.3557,-95.12518780292505
-0.3547000000000001,-92.73432570615316
-0.3537,-90.41419917437449
-0.3527000000000001,-88.15066109459043
-0.3517,-85.97200569279828
-0.3507000000000001,-83.83579163000208
-0.3497,-81.74201890620182
-0.3487000000000001,-79.64824618240156
-0.3477,-77.51203211960537
-0.3467000000000001,-75.33337671781321
-0.3457,-73.2820453330089
-0.3447000000000001,-71.27315528720055
-0.3437,-69.30670658038814
-0.3427000000000001,-67.39684632557035
-0.3417,-65.5577216357458
-0.3407000000000001,-63.6761556069253
-0.3397,-61.7662953521075
-0.3387000000000001,-59.92717066228296
-0.3377,-58.10219308545706
-0.3367000000000001,-56.30550973462846
-0.3357,-54.60785617479041
-0.3347000000000001,-52.91020261495237
-0.3337,-51.25499039411028
-0.3327000000000001,-49.642219512264134
-0.3317,-47.93041883942744
-0.3307000000000001,-46.27520661858535
-0.3297,-44.66243573673921
-0.3287000000000001,-43.09210619388902
-0.3277,-41.606659329030734
-0.3267000000000001,-40.135359577171094
-0.3257,-38.734795390304704
-0.3247000000000001,-37.334231203438314
-0.3237,-35.94781412957058
-0.3227000000000001,-34.50480860370825
-0.3217,-33.06180307784591
-0.3207000000000001,-31.661238890979522
-0.3197,-30.317263156107735
-0.3187000000000001,-29.001581647233255
-0.3177,-27.78492992934932
-0.3167000000000001,-26.61071955046134
-0.3157,-25.39406783257741
-0.3147000000000001,-24.120827662698876
-0.3137,-22.819293266823045
-0.3127000000000001,-21.503611757948562
-0.3117,-20.286960040064624
-0.3107000000000001,-19.155191000172596
-0.3097,-18.06586329927652
-0.3087000000000001,-18.716630497214435
-0.3077,-17.797068152302163
-0.3067000000000001,-16.792623129397985
-0.30569999999999997,-15.70329542850191
-0.3047000000000001,-14.529085049613924
-0.30369999999999997,-13.349215825526485
-0.3027000000000001,-12.258473413330542
-0.30169999999999997,-11.255443101726232
-0.3007000000000001,-10.078403300238522
-0.29969999999999997,-8.769795347863363
-0.2987000000000001,-7.635196885371603
-0.29769999999999996,-6.500598422879844
-0.2967000000000001,-5.453712060979717
-0.29569999999999996,-4.364384360083638
-0.2947000000000001,-3.403795387475278
-0.29369999999999996,-2.4884771764625997
-0.29270000000000007,-1.6156003044458718
-0.29169999999999996,-0.7872868383748929
-0.29070000000000007,0.08502414912188871
-0.28969999999999996,0.9573351366186703
-0.28870000000000007,1.8730777610213083
-0.28769999999999996,2.7898106833338523
-0.28670000000000007,3.661272844050715
-0.28569999999999995,4.44643761547581
-0.28470000000000006,5.231602386900906
-0.28369999999999995,5.929055057734368
-0.28270000000000006,6.671778490163514
-0.28169999999999995,7.456943261588608
-0.28070000000000006,8.242108033013702
-0.27969999999999995,9.06971414343475
-0.27870000000000006,9.854878914859846
-0.27769999999999995,10.596187635989125
-0.27670000000000006,11.251198967826637
-0.27569999999999995,11.904795588364284
-0.27470000000000006,12.515950869905978
-0.27369999999999994,13.213403540739444
-0.27270000000000005,13.91227092287277
-0.27169999999999994,14.65640906660178
-0.27070000000000005,15.349617603535648
-0.26969999999999994,16.04282614046952
-0.26870000000000005,16.665299112410132
-0.26769999999999994,17.231183632356142
