Potential V vs RHE, Current mA cm-2
0.4132999999999999,-0.009761507969068751
0.4122999999999999,-0.011449258549807741
0.4112999999999999,-0.011875086651067117
0.4102999999999999,-0.012083049212147279
0.4092999999999999,-0.012242911589032027
0.4082999999999999,-0.01238721214161826
0.4072999999999999,-0.012531512694204494
0.4062999999999999,-0.012609321815697072
0.4052999999999999,-0.0127012780501883
0.4042999999999999,-0.012838505046275208
0.4032999999999999,-0.012912070033868189
0.4022999999999999,-0.013005440979659283
0.4012999999999999,-0.013079005967252264
0.4002999999999999,-0.013134179707946999
0.3992999999999999,-0.013228965365037957
0.3982999999999999,-0.013342142269027161
0.3972999999999999,-0.013401560143621493
0.3962999999999999,-0.013476539842514339
0.3952999999999999,-0.01351898118151029
0.3942999999999999,-0.013572740210905163
0.39329999999999987,-0.013671770001895714
0.39229999999999987,-0.01371562605219153
0.39129999999999987,-0.013772214504186133
0.39029999999999987,-0.013824558822281138
0.38929999999999987,-0.013879732562975875
0.38829999999999987,-0.013958956395768317
0.38729999999999987,-0.01401554484776292
0.38629999999999987,-0.01406930387715779
0.38529999999999986,-0.014127307040452258
0.38429999999999986,-0.014161260111649017
0.38329999999999986,-0.01424614278964092
0.38229999999999986,-0.014288584128636872
0.38129999999999986,-0.014331025467632824
0.38029999999999986,-0.014401761032626074
0.37929999999999986,-0.014430055258623373
0.37829999999999986,-0.014514937936615275
0.37729999999999986,-0.014585673501608528
0.37629999999999986,-0.01461396772760583
0.37529999999999986,-0.014670556179600431
0.37429999999999986,-0.014712997518596381
0.37329999999999985,-0.014783733083589632
0.37229999999999985,-0.014840321535584235
0.37129999999999985,-0.014854468648582884
0.37029999999999985,-0.014911057100577486
0.36929999999999985,-0.014953498439573438
0.36829999999999985,-0.015024234004566688
0.36729999999999985,-0.015080822456561293
0.36629999999999985,-0.015109116682558592
0.36529999999999985,-0.015165705134553195
0.36429999999999985,-0.015193999360550494
0.36329999999999985,-0.015236440699546445
0.36229999999999984,-0.015321323377538347
0.36129999999999984,-0.015335470490536997
0.36029999999999984,-0.015377911829532949
0.35929999999999984,-0.01543450028152755
0.35829999999999984,-0.015491088733522153
0.35729999999999984,-0.015533530072518101
0.35629999999999984,-0.015561824298515404
0.35529999999999984,-0.015590118524512706
0.35429999999999984,-0.015646706976507305
0.35329999999999984,-0.015703295428501907
0.35229999999999984,-0.015745736767497857
0.35129999999999983,-0.015774030993495156
0.35029999999999983,-0.01580232521949246
0.34929999999999983,-0.01583061944548976
0.34829999999999983,-0.015929649236480315
0.34729999999999983,-0.01597209057547626
0.34629999999999983,-0.016000384801473564
0.34529999999999983,-0.016028679027470863
0.34429999999999983,-0.016042826140469518
0.3432999999999998,-0.01611356170546277
0.3422999999999998,-0.01615600304445872
0.3412999999999998,-0.01619844438345467
0.3402999999999998,-0.01624088572245062
0.3392999999999998,-0.016283327061446574
0.3382999999999998,-0.016339915513441175
0.3372999999999998,-0.01638235685243712
0.3362999999999998,-0.016410651078434424
0.3352999999999998,-0.016438945304431726
0.3342999999999998,-0.01648138664342768
0.3332999999999998,-0.016537975095422278
0.3322999999999998,-0.01659456354741688
0.3312999999999998,-0.01659456354741688
0.3302999999999998,-0.016637004886412832
0.3292999999999998,-0.016679446225408782
0.3282999999999998,-0.016750181790402035
0.3272999999999998,-0.016778476016399334
0.3262999999999998,-0.016806770242396636
0.3252999999999999,-0.01683506446839394
0.3242999999999999,-0.01687750580738989
0.3232999999999999,-0.016948241372383138
0.3222999999999999,-0.01699068271137909
0.3212999999999999,-0.01703312405037504
0.3202999999999999,-0.01703312405037504
0.3192999999999999,-0.017103859615368294
0.3182999999999999,-0.017160448067362895
0.3172999999999999,-0.017188742293360197
0.3162999999999999,-0.017231183632356147
0.3152999999999999,-0.017259477858353446
0.3142999999999999,-0.01728777208435075
0.3132999999999999,-0.017358507649344
0.3122999999999999,-0.017372654762342652
0.3112999999999999,-0.0174150961013386
0.3102999999999999,-0.017443390327335904
0.3092999999999999,-0.01748583166633185
0.3082999999999999,-0.017542420118326456
0.3072999999999999,-0.017570714344323755
0.3062999999999999,-0.017627302796318356
0.3052999999999999,-0.017641449909317007
0.3042999999999999,-0.01768389124831296
0.3032999999999999,-0.017754626813306213
0.3022999999999999,-0.01776877392630486
0.3012999999999999,-0.017782921039303512
0.3002999999999999,-0.01785365660429676
0.2992999999999999,-0.017881950830294063
0.2982999999999999,-0.017938539282288665
0.2972999999999999,-0.017995127734283266
0.2962999999999999,-0.018023421960280565
0.2952999999999999,-0.018051716186277867
0.2942999999999999,-0.018065863299276518
0.2932999999999999,-0.018150745977268422
0.2922999999999999,-0.01817904020326572
0.2912999999999999,-0.01820733442926302
0.2902999999999999,-0.018221481542261674
0.2892999999999999,-0.018278069994256275
0.2882999999999999,-0.018320511333252226
0.2872999999999999,-0.018391246898245478
0.2862999999999999,-0.018405394011244126
0.2852999999999999,-0.018419541124242777
0.2842999999999999,-0.01847612957623738
0.2832999999999999,-0.018546865141230634
0.2822999999999999,-0.018546865141230634
0.2812999999999999,-0.018575159367227933
0.2802999999999999,-0.018603453593225232
0.2792999999999999,-0.018674189158218484
0.2782999999999999,-0.018716630497214438
0.2772999999999999,-0.018716630497214438
0.2762999999999999,-0.018787366062207687
0.2752999999999999,-0.018787366062207687
0.2742999999999999,-0.018843954514202284
0.2732999999999999,-0.01892883719219419
0.2722999999999999,-0.01892883719219419
0.2712999999999999,-0.01897127853119014
0.2702999999999999,-0.018999572757187444
0.2692999999999999,-0.019042014096183394
0.26829999999999987,-0.019112749661176646
0.26729999999999987,-0.019126896774175294
0.26629999999999987,-0.0191551910001726
0.26529999999999987,-0.019197632339168547
0.26429999999999987,-0.019240073678164497
0.26329999999999987,-0.01928251501716045
0.26229999999999987,-0.0193249563561564
0.26129999999999987,-0.01933910346915505
0.26029999999999986,-0.019353250582153703
0.25929999999999986,-0.019395691921149656
0.25829999999999986,-0.019466427486142905
0.25729999999999986,-0.01950886882513886
0.25629999999999986,-0.019523015938137503
0.25529999999999986,-0.019551310164134805
0.25429999999999986,-0.01959375150313076
0.25329999999999986,-0.01965033995512536
0.25229999999999986,-0.01967863418112266
0.25129999999999986,-0.01967863418112266
0.25029999999999986,-0.019721075520118612
0.24929999999999986,-0.019763516859114563
0.24829999999999985,-0.019820105311109164
0.24729999999999985,-0.019848399537106463
0.24629999999999985,-0.019876693763103765
0.24529999999999985,-0.019933282215098366
0.24429999999999985,-0.01997572355409432
0.24329999999999985,-0.020018164893090266
0.24229999999999985,-0.02004645911908757
0.24129999999999985,-0.02007475334508487
0.24029999999999985,-0.02008890045808352
0.23929999999999985,-0.02015963602307677
0.23829999999999985,-0.020187930249074077
0.23729999999999984,-0.020216224475071376
0.23629999999999984,-0.020258665814067326
0.23529999999999984,-0.020258665814067326
0.23429999999999984,-0.020315254266061927
0.23329999999999984,-0.02038598983105518
0.23229999999999984,-0.02041428405705248
0.23129999999999984,-0.02042843117005113
0.23029999999999984,-0.020470872509047083
0.22929999999999984,-0.020499166735044382
0.22829999999999984,-0.020584049413036282
0.22729999999999984,-0.020598196526034934
0.22629999999999983,-0.020626490752032236
0.22529999999999983,-0.020668932091028186
0.22429999999999983,-0.020697226317025485
0.22329999999999983,-0.020767961882018737
0.22229999999999983,-0.020767961882018737
0.22129999999999983,-0.02079625610801604
0.22029999999999983,-0.020838697447011986
0.21929999999999983,-0.02086699167300929
0.21829999999999983,-0.020923580125003893
0.21729999999999983,-0.020966021463999843
0.21629999999999983,-0.020980168576998495
0.21529999999999982,-0.021022609915994445
0.21429999999999982,-0.021050904141991744
0.21329999999999982,-0.021107492593986348
0.21229999999999982,-0.021135786819983647
0.21129999999999982,-0.021149933932982302
0.21029999999999982,-0.0212065223849769
0.20929999999999982,-0.0212631108369715
0.20829999999999982,-0.021291405062968803
0.20729999999999982,-0.021347993514963404
0.20629999999999982,-0.021362140627962056
0.20529999999999982,-0.021390434853959358
0.20429999999999982,-0.021461170418952607
0.20329999999999981,-0.02150361175794856
0.2022999999999998,-0.021546053096944507
0.2012999999999998,-0.021546053096944507
0.20029999999999992,-0.02158849443594046
0.19929999999999992,-0.02165923000093371
0.19829999999999992,-0.021701671339929663
0.19729999999999992,-0.021715818452928314
0.19629999999999992,-0.021758259791924264
0.19529999999999992,-0.021772406904922915
0.19429999999999992,-0.021913878034909417
0.19329999999999992,-0.02197046648690402
0.19229999999999992,-0.021928025147908068
0.19129999999999991,-0.02197046648690402
0.1902999999999999,-0.02197046648690402
0.1892999999999999,-0.02204120205189727
0.1882999999999999,-0.022097790503891875
0.1872999999999999,-0.022111937616890523
0.1862999999999999,-0.022154378955886473
0.1852999999999999,-0.02218267318188378
0.1842999999999999,-0.022253408746877028
0.1832999999999999,-0.022295850085872978
0.1822999999999999,-0.02230999719887163
0.1812999999999999,-0.022366585650866227
0.1802999999999999,-0.02239487987686353
0.1792999999999999,-0.02245146832885813
0.1782999999999999,-0.022508056780852735
0.1772999999999999,-0.022522203893851383
0.1762999999999999,-0.022536351006850038
0.1752999999999999,-0.022592939458844635
0.1742999999999999,-0.022635380797840585
0.1732999999999999,-0.022691969249835187
0.1722999999999999,-0.02274855770182979
0.1712999999999999,-0.02276270481482844
0.1702999999999999,-0.02277685192782709
0.1692999999999999,-0.022861734605818994
0.1682999999999999,-0.022904175944814944
0.1672999999999999,-0.022918323057813595
0.1662999999999999,-0.022946617283810897
0.1652999999999999,-0.022974911509808196
0.1642999999999999,-0.023045647074801445
0.1632999999999999,-0.0230880884137974
0.1622999999999999,-0.02313052975279335
0.1612999999999999,-0.023172971091789302
0.1602999999999999,-0.02318711820478795
0.1592999999999999,-0.02327200088277985
0.15829999999999989,-0.023286147995778505
0.15729999999999988,-0.023300295108777156
0.15629999999999988,-0.023356883560771757
0.15529999999999988,-0.023371030673770405
0.15429999999999988,-0.02345591335176231
0.15329999999999988,-0.023512501803756906
0.15229999999999988,-0.02352664891675556
0.15129999999999988,-0.02356909025575151
0.15029999999999988,-0.023583237368750162
0.14929999999999988,-0.02365397293374341
0.14829999999999988,-0.023696414272739365
0.14729999999999988,-0.023724708498736664
0.14629999999999987,-0.02378129695073127
0.14529999999999987,-0.023823738289727222
0.14429999999999987,-0.023866179628723165
0.14329999999999987,-0.02393691519371642
0.14229999999999987,-0.023965209419713723
0.14129999999999987,-0.023965209419713723
0.14029999999999987,-0.024035944984706972
0.13929999999999987,-0.024064239210704275
0.13829999999999987,-0.024120827662698876
0.13729999999999987,-0.024149121888696175
0.13629999999999987,-0.02417741611469348
0.13529999999999986,-0.024219857453689427
0.13429999999999986,-0.02426229879268538
0.13329999999999986,-0.024318887244679982
0.13229999999999986,-0.02436132858367593
0.13129999999999986,-0.024375475696674583
0.13029999999999986,-0.024417917035670533
0.12929999999999986,-0.024488652600663786
0.12829999999999986,-0.024516946826661085
0.12729999999999986,-0.02457353527865569
0.12629999999999986,-0.024601829504652988
0.12529999999999986,-0.02465841795664759
0.12429999999999986,-0.024729153521640842
0.12329999999999985,-0.024771594860636792
0.12229999999999985,-0.02479988908663409
0.12129999999999985,-0.024856477538628696
0.12029999999999985,-0.024870624651627343
0.11929999999999985,-0.024955507329619247
0.11829999999999985,-0.024983801555616546
0.11729999999999985,-0.0250262428946125
0.11629999999999985,-0.02506868423360845
0.11529999999999985,-0.02509697845960575
0.11429999999999985,-0.025181861137597652
0.11329999999999985,-0.025224302476593602
0.11229999999999984,-0.025224302476593602
0.11129999999999984,-0.025280890928588207
0.11029999999999984,-0.025323332267584157
0.10929999999999984,-0.02537992071957876
0.10829999999999984,-0.02543650917157336
0.10729999999999984,-0.02545065628457201
0.10629999999999984,-0.025493097623567964
0.10529999999999984,-0.02553553896256391
0.10429999999999984,-0.02562042164055581
0.10329999999999984,-0.025677010092550415
0.10229999999999984,-0.025691157205549067
0.10129999999999983,-0.025719451431546365
0.10029999999999983,-0.02577603988354097
0.09929999999999983,-0.025818481222536924
0.09829999999999983,-0.025889216787530173
0.09729999999999983,-0.02591751101352747
0.09629999999999983,-0.025931658126526123
0.09529999999999983,-0.026016540804518026
0.09429999999999983,-0.026073129256512624
0.09329999999999983,-0.026115570595508578
0.09229999999999983,-0.02614386482150588
0.09129999999999983,-0.02620045327350048
0.09029999999999982,-0.02622874749949778
0.08929999999999982,-0.026313630177489684
0.08829999999999982,-0.026356071516485634
0.08729999999999982,-0.026384365742482933
0.08629999999999982,-0.026412659968480235
0.08529999999999982,-0.026469248420474833
0.08429999999999982,-0.02652583687246944
0.08329999999999982,-0.02656827821146539
0.08229999999999982,-0.02661071955046134
0.08129999999999982,-0.026667308002455942
0.08029999999999982,-0.026723896454450544
0.07929999999999982,-0.026794632019443793
0.07829999999999981,-0.026837073358439746
0.07729999999999981,-0.026865367584437045
0.07629999999999981,-0.02692195603643165
0.07529999999999992,-0.02695025026242895
0.07429999999999992,-0.02703513294042085
0.07329999999999992,-0.02709172139241545
0.07229999999999992,-0.027120015618412752
0.07129999999999992,-0.027162456957408702
0.07029999999999992,-0.027219045409403307
0.06929999999999992,-0.027261486748399254
0.06829999999999992,-0.02731807520039386
0.06729999999999992,-0.02734636942639116
0.06629999999999991,-0.02740295787838576
0.06529999999999991,-0.027445399217381712
0.06429999999999991,-0.02750198766937631
0.06329999999999991,-0.027572723234369562
0.06229999999999991,-0.027586870347368214
0.06129999999999991,-0.027657605912361466
0.06029999999999991,-0.02772834147735472
0.05929999999999991,-0.027813224155346622
0.05829999999999991,-0.027841518381343924
0.05729999999999991,-0.02788395972033987
0.056299999999999906,-0.027912253946337173
0.055299999999999905,-0.02796884239833177
0.054299999999999904,-0.02802543085032638
0.0532999999999999,-0.028082019302320977
0.0522999999999999,-0.02813860775431558
0.0512999999999999,-0.028166901980312884
0.0502999999999999,-0.028237637545306133
0.0492999999999999,-0.028322520223298033
0.0482999999999999,-0.028336667336296688
0.0472999999999999,-0.028393255788291286
0.0462999999999999,-0.028435697127287232
0.045299999999999896,-0.02847813846628319
0.044299999999999895,-0.028563021144275093
0.043299999999999894,-0.02861960959626969
0.04229999999999989,-0.028633756709268345
0.04129999999999989,-0.028690345161262943
0.04029999999999989,-0.02880352206525215
0.03929999999999989,-0.028874257630245398
0.03829999999999989,-0.028916698969241348
0.03729999999999989,-0.02894499319523865
0.03629999999999989,-0.029015728760231903
0.03529999999999989,-0.029058170099227856
0.034299999999999886,-0.029143052777219756
0.033299999999999885,-0.02921378834221301
0.032299999999999884,-0.029256229681208955
0.031299999999999883,-0.029298671020204912
0.030299999999999883,-0.02935525947219951
0.02929999999999988,-0.02945428926319007
0.02829999999999988,-0.029510877715184666
0.02729999999999988,-0.029553319054180613
0.02629999999999988,-0.029609907506175218
0.025299999999999878,-0.02966649595816982
0.024299999999999877,-0.02972308441016442
0.023299999999999876,-0.029779672862159025
0.022299999999999875,-0.029836261314153626
0.021299999999999875,-0.029878702653149573
0.020299999999999874,-0.029963585331141473
0.019299999999999873,-0.030034320896134725
0.018299999999999872,-0.030090909348129333
0.01729999999999987,-0.030161644913122586
0.01629999999999987,-0.030175792026121234
0.01529999999999987,-0.030260674704113137
0.014299999999999868,-0.030345557382105034
0.013299999999999867,-0.030387998721100987
0.012299999999999978,-0.030430440060096934
0.011299999999999866,-0.030487028512091542
0.010299999999999976,-0.03055776407708479
0.009299999999999864,-0.030642646755076695
0.008299999999999974,-0.030685088094072648
0.007299999999999862,-0.0307275294330686
0.006299999999999972,-0.030784117885063196
0.00529999999999986,-0.0308690005630551
0.0042999999999999705,-0.030953883241047007
0.0032999999999998586,-0.030968030354045658
0.0022999999999999687,-0.031052913032037555
0.0012999999999998568,-0.03110950148403216
0.00029999999999996696,-0.031137795710029458
-0.000700000000000145,-0.03123682550102001
-0.0017000000000000348,-0.03129341395301461
-0.0027000000000001467,-0.03132170817901191
-0.0037000000000000366,-0.031420737970002464
-0.0047000000000001485,-0.03147732642199706
-0.005700000000000038,-0.031533914873991674
-0.00670000000000015,-0.03160465043898492
-0.00770000000000004,-0.03163294466498222
-0.008700000000000152,-0.03170368022997547
-0.009700000000000042,-0.03177441579496872
-0.010700000000000154,-0.03190173981195658
-0.011700000000000044,-0.03193003403795388
-0.012700000000000156,-0.03195832826395118
-0.013700000000000045,-0.032014916715945786
-0.014700000000000157,-0.03211394650693633
-0.015700000000000047,-0.03217053495893094
-0.01670000000000016,-0.03224127052392419
-0.01770000000000005,-0.03228371186292014
-0.01870000000000016,-0.032340300314914736
-0.01970000000000005,-0.032425182992906636
-0.020700000000000163,-0.03251006567089854
-0.021700000000000053,-0.03256665412289315
-0.022700000000000164,-0.032623242574887745
-0.023700000000000054,-0.032693978139880994
-0.024700000000000166,-0.0327788608178729
-0.025700000000000056,-0.03282130215686885
-0.026700000000000168,-0.0328637434958648
-0.027700000000000058,-0.03294862617385671
-0.02870000000000017,-0.032976920399854
-0.02970000000000006,-0.03304765596484726
-0.03070000000000017,-0.033174979981835113
-0.03170000000000006,-0.03320327420783241
-0.03270000000000017,-0.03325986265982701
-0.03370000000000006,-0.03331645111182161
-0.034700000000000175,-0.03341548090281216
-0.035700000000000065,-0.03351451069380272
-0.03670000000000018,-0.03357109914579732
-0.03770000000000007,-0.03364183471079057
-0.03870000000000018,-0.033698423162785165
-0.03970000000000007,-0.033740864501781126
-0.04070000000000018,-0.03383989429277168
-0.04170000000000007,-0.033896482744766275
-0.04270000000000018,-0.033967218309759524
-0.04370000000000007,-0.03402380676175413
-0.044700000000000184,-0.034094542326747385
-0.045700000000000074,-0.03420771923073659
-0.046700000000000186,-0.03423601345673389
-0.047700000000000076,-0.03429260190872849
-0.04870000000000019,-0.034349190360723085
-0.04970000000000008,-0.03441992592571634
-0.05070000000000019,-0.0344906614907096
-0.05170000000000008,-0.034561397055702846
-0.05270000000000019,-0.034617985507697444
-0.05370000000000008,-0.0346604268466934
-0.05470000000000019,-0.034731162411686646
-0.05570000000000008,-0.03480189797667991
-0.056700000000000195,-0.03485848642867451
-0.057700000000000085,-0.03490092776767045
-0.058700000000000196,-0.03494336910666641
-0.059700000000000086,-0.035028251784658314
-0.0607000000000002,-0.03509898734965156
-0.06170000000000009,-0.03516972291464481
-0.0627000000000002,-0.03522631136663941
-0.06370000000000009,-0.03524045847963807
-0.0647000000000002,-0.03533948827062862
-0.06570000000000009,-0.03542437094862052
