Dec. 10, 2024   05:26:23
Linear Sweep Voltammetry
File: c:/users/guazh/data/banditlqround7_x0exp59_r20/2024-12-09-exp614\post-regen1-2024-12-10t05_23_09-lsvinphos\post-regen1_lsv_50mvs_efin_-2300mv.bin
Data Source:  Experiment
Instrument Model:  CHI760E
Header: LSV ran at 50 mVs with Efin at -2300mV
Note: 

Init E (V) = -0.6
Final E (V) = -2.3
Scan Rate (V/s) = 0.05
Sample Interval (V) = 0.001
Quiet Time (sec) = 2
Sensitivity (A/V) = 1e-4
Comp R (ohm) = 7.7

Results:

Channel 1:
Ep = -2.098V
ip = 7.906e-4A
Ah = 1.161e-3C

Potential/V, Current/A

-0.600, 1.185e-6
-0.601, 1.236e-6
-0.602, 1.257e-6
-0.603, 1.273e-6
-0.604, 1.289e-6
-0.605, 1.302e-6
-0.606, 1.316e-6
-0.607, 1.330e-6
-0.608, 1.345e-6
-0.609, 1.359e-6
-0.610, 1.371e-6
-0.611, 1.385e-6
-0.612, 1.397e-6
-0.613, 1.412e-6
-0.614, 1.426e-6
-0.615, 1.439e-6
-0.616, 1.452e-6
-0.617, 1.466e-6
-0.618, 1.481e-6
-0.619, 1.495e-6
-0.620, 1.507e-6
-0.621, 1.521e-6
-0.622, 1.536e-6
-0.623, 1.551e-6
-0.624, 1.565e-6
-0.625, 1.579e-6
-0.626, 1.594e-6
-0.627, 1.608e-6
-0.628, 1.624e-6
-0.629, 1.637e-6
-0.630, 1.652e-6
-0.631, 1.666e-6
-0.632, 1.680e-6
-0.633, 1.696e-6
-0.634, 1.712e-6
-0.635, 1.726e-6
-0.636, 1.741e-6
-0.637, 1.757e-6
-0.638, 1.774e-6
-0.639, 1.789e-6
-0.640, 1.805e-6
-0.641, 1.820e-6
-0.642, 1.836e-6
-0.643, 1.854e-6
-0.644, 1.871e-6
-0.645, 1.886e-6
-0.646, 1.904e-6
-0.647, 1.918e-6
-0.648, 1.936e-6
-0.649, 1.954e-6
-0.650, 1.971e-6
-0.651, 1.988e-6
-0.652, 2.005e-6
-0.653, 2.025e-6
-0.654, 2.043e-6
-0.655, 2.060e-6
-0.656, 2.078e-6
-0.657, 2.096e-6
-0.658, 2.116e-6
-0.659, 2.134e-6
-0.660, 2.152e-6
-0.661, 2.169e-6
-0.662, 2.187e-6
-0.663, 2.207e-6
-0.664, 2.226e-6
-0.665, 2.244e-6
-0.666, 2.263e-6
-0.667, 2.282e-6
-0.668, 2.303e-6
-0.669, 2.324e-6
-0.670, 2.343e-6
-0.671, 2.362e-6
-0.672, 2.383e-6
-0.673, 2.405e-6
-0.674, 2.427e-6
-0.675, 2.446e-6
-0.676, 2.466e-6
-0.677, 2.486e-6
-0.678, 2.509e-6
-0.679, 2.531e-6
-0.680, 2.553e-6
-0.681, 2.575e-6
-0.682, 2.597e-6
-0.683, 2.622e-6
-0.684, 2.645e-6
-0.685, 2.665e-6
-0.686, 2.688e-6
-0.687, 2.710e-6
-0.688, 2.734e-6
-0.689, 2.758e-6
-0.690, 2.781e-6
-0.691, 2.805e-6
-0.692, 2.828e-6
-0.693, 2.854e-6
-0.694, 2.879e-6
-0.695, 2.902e-6
-0.696, 2.927e-6
-0.697, 2.951e-6
-0.698, 2.977e-6
-0.699, 3.004e-6
-0.700, 3.027e-6
-0.701, 3.052e-6
-0.702, 3.078e-6
-0.703, 3.105e-6
-0.704, 3.131e-6
-0.705, 3.158e-6
-0.706, 3.184e-6
-0.707, 3.209e-6
-0.708, 3.238e-6
-0.709, 3.264e-6
-0.710, 3.290e-6
-0.711, 3.318e-6
-0.712, 3.346e-6
-0.713, 3.376e-6
-0.714, 3.404e-6
-0.715, 3.430e-6
-0.716, 3.458e-6
-0.717, 3.487e-6
-0.718, 3.517e-6
-0.719, 3.545e-6
-0.720, 3.573e-6
-0.721, 3.603e-6
-0.722, 3.631e-6
-0.723, 3.661e-6
-0.724, 3.692e-6
-0.725, 3.720e-6
-0.726, 3.749e-6
-0.727, 3.778e-6
-0.728, 3.811e-6
-0.729, 3.841e-6
-0.730, 3.872e-6
-0.731, 3.903e-6
-0.732, 3.932e-6
-0.733, 3.964e-6
-0.734, 3.994e-6
-0.735, 4.026e-6
-0.736, 4.057e-6
-0.737, 4.086e-6
-0.738, 4.118e-6
-0.739, 4.152e-6
-0.740, 4.181e-6
-0.741, 4.210e-6
-0.742, 4.241e-6
-0.743, 4.274e-6
-0.744, 4.307e-6
-0.745, 4.338e-6
-0.746, 4.369e-6
-0.747, 4.401e-6
-0.748, 4.435e-6
-0.749, 4.469e-6
-0.750, 4.502e-6
-0.751, 4.536e-6
-0.752, 4.568e-6
-0.753, 4.602e-6
-0.754, 4.634e-6
-0.755, 4.667e-6
-0.756, 4.700e-6
-0.757, 4.733e-6
-0.758, 4.768e-6
-0.759, 4.800e-6
-0.760, 4.833e-6
-0.761, 4.867e-6
-0.762, 4.899e-6
-0.763, 4.933e-6
-0.764, 4.967e-6
-0.765, 5.000e-6
-0.766, 5.035e-6
-0.767, 5.067e-6
-0.768, 5.103e-6
-0.769, 5.138e-6
-0.770, 5.170e-6
-0.771, 5.204e-6
-0.772, 5.235e-6
-0.773, 5.271e-6
-0.774, 5.306e-6
-0.775, 5.339e-6
-0.776, 5.371e-6
-0.777, 5.404e-6
-0.778, 5.437e-6
-0.779, 5.471e-6
-0.780, 5.503e-6
-0.781, 5.538e-6
-0.782, 5.571e-6
-0.783, 5.605e-6
-0.784, 5.638e-6
-0.785, 5.670e-6
-0.786, 5.701e-6
-0.787, 5.736e-6
-0.788, 5.769e-6
-0.789, 5.803e-6
-0.790, 5.835e-6
-0.791, 5.866e-6
-0.792, 5.896e-6
-0.793, 5.927e-6
-0.794, 5.959e-6
-0.795, 5.990e-6
-0.796, 6.022e-6
-0.797, 6.052e-6
-0.798, 6.085e-6
-0.799, 6.117e-6
-0.800, 6.147e-6
-0.801, 6.175e-6
-0.802, 6.204e-6
-0.803, 6.233e-6
-0.804, 6.263e-6
-0.805, 6.291e-6
-0.806, 6.323e-6
-0.807, 6.352e-6
-0.808, 6.384e-6
-0.809, 6.413e-6
-0.810, 6.440e-6
-0.811, 6.468e-6
-0.812, 6.495e-6
-0.813, 6.525e-6
-0.814, 6.554e-6
-0.815, 6.581e-6
-0.816, 6.608e-6
-0.817, 6.634e-6
-0.818, 6.662e-6
-0.819, 6.692e-6
-0.820, 6.719e-6
-0.821, 6.744e-6
-0.822, 6.769e-6
-0.823, 6.795e-6
-0.824, 6.821e-6
-0.825, 6.845e-6
-0.826, 6.868e-6
-0.827, 6.891e-6
-0.828, 6.915e-6
-0.829, 6.940e-6
-0.830, 6.963e-6
-0.831, 6.983e-6
-0.832, 7.007e-6
-0.833, 7.030e-6
-0.834, 7.051e-6
-0.835, 7.072e-6
-0.836, 7.092e-6
-0.837, 7.113e-6
-0.838, 7.136e-6
-0.839, 7.155e-6
-0.840, 7.174e-6
-0.841, 7.193e-6
-0.842, 7.212e-6
-0.843, 7.232e-6
-0.844, 7.249e-6
-0.845, 7.268e-6
-0.846, 7.285e-6
-0.847, 7.300e-6
-0.848, 7.319e-6
-0.849, 7.336e-6
-0.850, 7.351e-6
-0.851, 7.366e-6
-0.852, 7.381e-6
-0.853, 7.397e-6
-0.854, 7.413e-6
-0.855, 7.426e-6
-0.856, 7.440e-6
-0.857, 7.454e-6
-0.858, 7.470e-6
-0.859, 7.483e-6
-0.860, 7.495e-6
-0.861, 7.507e-6
-0.862, 7.518e-6
-0.863, 7.531e-6
-0.864, 7.543e-6
-0.865, 7.553e-6
-0.866, 7.563e-6
-0.867, 7.573e-6
-0.868, 7.585e-6
-0.869, 7.594e-6
-0.870, 7.606e-6
-0.871, 7.614e-6
-0.872, 7.623e-6
-0.873, 7.633e-6
-0.874, 7.641e-6
-0.875, 7.648e-6
-0.876, 7.655e-6
-0.877, 7.662e-6
-0.878, 7.670e-6
-0.879, 7.677e-6
-0.880, 7.683e-6
-0.881, 7.689e-6
-0.882, 7.693e-6
-0.883, 7.702e-6
-0.884, 7.708e-6
-0.885, 7.712e-6
-0.886, 7.717e-6
-0.887, 7.721e-6
-0.888, 7.726e-6
-0.889, 7.731e-6
-0.890, 7.733e-6
-0.891, 7.737e-6
-0.892, 7.741e-6
-0.893, 7.744e-6
-0.894, 7.747e-6
-0.895, 7.749e-6
-0.896, 7.752e-6
-0.897, 7.754e-6
-0.898, 7.758e-6
-0.899, 7.761e-6
-0.900, 7.761e-6
-0.901, 7.762e-6
-0.902, 7.763e-6
-0.903, 7.765e-6
-0.904, 7.767e-6
-0.905, 7.767e-6
-0.906, 7.766e-6
-0.907, 7.766e-6
-0.908, 7.768e-6
-0.909, 7.769e-6
-0.910, 7.767e-6
-0.911, 7.768e-6
-0.912, 7.767e-6
-0.913, 7.767e-6
-0.914, 7.767e-6
-0.915, 7.767e-6
-0.916, 7.766e-6
-0.917, 7.763e-6
-0.918, 7.765e-6
-0.919, 7.763e-6
-0.920, 7.761e-6
-0.921, 7.759e-6
-0.922, 7.758e-6
-0.923, 7.758e-6
-0.924, 7.757e-6
-0.925, 7.753e-6
-0.926, 7.751e-6
-0.927, 7.749e-6
-0.928, 7.749e-6
-0.929, 7.748e-6
-0.930, 7.743e-6
-0.931, 7.740e-6
-0.932, 7.737e-6
-0.933, 7.737e-6
-0.934, 7.735e-6
-0.935, 7.731e-6
-0.936, 7.729e-6
-0.937, 7.726e-6
-0.938, 7.725e-6
-0.939, 7.724e-6
-0.940, 7.720e-6
-0.941, 7.716e-6
-0.942, 7.714e-6
-0.943, 7.711e-6
-0.944, 7.709e-6
-0.945, 7.706e-6
-0.946, 7.701e-6
-0.947, 7.699e-6
-0.948, 7.697e-6
-0.949, 7.694e-6
-0.950, 7.691e-6
-0.951, 7.687e-6
-0.952, 7.683e-6
-0.953, 7.682e-6
-0.954, 7.680e-6
-0.955, 7.677e-6
-0.956, 7.672e-6
-0.957, 7.668e-6
-0.958, 7.667e-6
-0.959, 7.664e-6
-0.960, 7.661e-6
-0.961, 7.658e-6
-0.962, 7.654e-6
-0.963, 7.653e-6
-0.964, 7.650e-6
-0.965, 7.646e-6
-0.966, 7.644e-6
-0.967, 7.640e-6
-0.968, 7.638e-6
-0.969, 7.636e-6
-0.970, 7.632e-6
-0.971, 7.630e-6
-0.972, 7.625e-6
-0.973, 7.626e-6
-0.974, 7.623e-6
-0.975, 7.619e-6
-0.976, 7.616e-6
-0.977, 7.613e-6
-0.978, 7.611e-6
-0.979, 7.609e-6
-0.980, 7.606e-6
-0.981, 7.603e-6
-0.982, 7.600e-6
-0.983, 7.598e-6
-0.984, 7.595e-6
-0.985, 7.593e-6
-0.986, 7.590e-6
-0.987, 7.588e-6
-0.988, 7.587e-6
-0.989, 7.584e-6
-0.990, 7.581e-6
-0.991, 7.578e-6
-0.992, 7.576e-6
-0.993, 7.575e-6
-0.994, 7.572e-6
-0.995, 7.570e-6
-0.996, 7.567e-6
-0.997, 7.564e-6
-0.998, 7.564e-6
-0.999, 7.566e-6
-1.000, 7.562e-6
-1.001, 7.560e-6
-1.002, 7.557e-6
-1.003, 7.557e-6
-1.004, 7.555e-6
-1.005, 7.552e-6
-1.006, 7.549e-6
-1.007, 7.548e-6
-1.008, 7.548e-6
-1.009, 7.546e-6
-1.010, 7.543e-6
-1.011, 7.541e-6
-1.012, 7.541e-6
-1.013, 7.539e-6
-1.014, 7.538e-6
-1.015, 7.535e-6
-1.016, 7.534e-6
-1.017, 7.532e-6
-1.018, 7.532e-6
-1.019, 7.532e-6
-1.020, 7.529e-6
-1.021, 7.527e-6
-1.022, 7.526e-6
-1.023, 7.526e-6
-1.024, 7.526e-6
-1.025, 7.525e-6
-1.026, 7.523e-6
-1.027, 7.522e-6
-1.028, 7.521e-6
-1.029, 7.520e-6
-1.030, 7.520e-6
-1.031, 7.518e-6
-1.032, 7.517e-6
-1.033, 7.516e-6
-1.034, 7.516e-6
-1.035, 7.515e-6
-1.036, 7.513e-6
-1.037, 7.513e-6
-1.038, 7.517e-6
-1.039, 7.519e-6
-1.040, 7.517e-6
-1.041, 7.517e-6
-1.042, 7.515e-6
-1.043, 7.515e-6
-1.044, 7.515e-6
-1.045, 7.514e-6
-1.046, 7.514e-6
-1.047, 7.512e-6
-1.048, 7.513e-6
-1.049, 7.514e-6
-1.050, 7.512e-6
-1.051, 7.511e-6
-1.052, 7.511e-6
-1.053, 7.512e-6
-1.054, 7.512e-6
-1.055, 7.510e-6
-1.056, 7.510e-6
-1.057, 7.511e-6
-1.058, 7.511e-6
-1.059, 7.511e-6
-1.060, 7.510e-6
-1.061, 7.510e-6
-1.062, 7.509e-6
-1.063, 7.512e-6
-1.064, 7.511e-6
-1.065, 7.510e-6
-1.066, 7.510e-6
-1.067, 7.509e-6
-1.068, 7.512e-6
-1.069, 7.512e-6
-1.070, 7.511e-6
-1.071, 7.510e-6
-1.072, 7.510e-6
-1.073, 7.513e-6
-1.074, 7.513e-6
-1.075, 7.513e-6
-1.076, 7.514e-6
-1.077, 7.513e-6
-1.078, 7.516e-6
-1.079, 7.516e-6
-1.080, 7.516e-6
-1.081, 7.516e-6
-1.082, 7.516e-6
-1.083, 7.518e-6
-1.084, 7.519e-6
-1.085, 7.518e-6
-1.086, 7.518e-6
-1.087, 7.518e-6
-1.088, 7.521e-6
-1.089, 7.522e-6
-1.090, 7.522e-6
-1.091, 7.522e-6
-1.092, 7.522e-6
-1.093, 7.524e-6
-1.094, 7.525e-6
-1.095, 7.525e-6
-1.096, 7.525e-6
-1.097, 7.526e-6
-1.098, 7.527e-6
-1.099, 7.529e-6
-1.100, 7.530e-6
-1.101, 7.531e-6
-1.102, 7.531e-6
-1.103, 7.534e-6
-1.104, 7.535e-6
-1.105, 7.534e-6
-1.106, 7.535e-6
-1.107, 7.537e-6
-1.108, 7.540e-6
-1.109, 7.540e-6
-1.110, 7.540e-6
-1.111, 7.541e-6
-1.112, 7.542e-6
-1.113, 7.546e-6
-1.114, 7.552e-6
-1.115, 7.553e-6
-1.116, 7.554e-6
-1.117, 7.555e-6
-1.118, 7.557e-6
-1.119, 7.559e-6
-1.120, 7.561e-6
-1.121, 7.563e-6
-1.122, 7.564e-6
-1.123, 7.566e-6
-1.124, 7.568e-6
-1.125, 7.567e-6
-1.126, 7.569e-6
-1.127, 7.571e-6
-1.128, 7.573e-6
-1.129, 7.575e-6
-1.130, 7.576e-6
-1.131, 7.576e-6
-1.132, 7.577e-6
-1.133, 7.581e-6
-1.134, 7.582e-6
-1.135, 7.582e-6
-1.136, 7.584e-6
-1.137, 7.584e-6
-1.138, 7.587e-6
-1.139, 7.589e-6
-1.140, 7.590e-6
-1.141, 7.590e-6
-1.142, 7.593e-6
-1.143, 7.595e-6
-1.144, 7.597e-6
-1.145, 7.598e-6
-1.146, 7.600e-6
-1.147, 7.601e-6
-1.148, 7.626e-6
-1.149, 7.634e-6
-1.150, 7.634e-6
-1.151, 7.636e-6
-1.152, 7.637e-6
-1.153, 7.642e-6
-1.154, 7.643e-6
-1.155, 7.644e-6
-1.156, 7.646e-6
-1.157, 7.647e-6
-1.158, 7.651e-6
-1.159, 7.652e-6
-1.160, 7.653e-6
-1.161, 7.656e-6
-1.162, 7.657e-6
-1.163, 7.659e-6
-1.164, 7.662e-6
-1.165, 7.663e-6
-1.166, 7.665e-6
-1.167, 7.668e-6
-1.168, 7.678e-6
-1.169, 7.682e-6
-1.170, 7.681e-6
-1.171, 7.685e-6
-1.172, 7.686e-6
-1.173, 7.689e-6
-1.174, 7.690e-6
-1.175, 7.691e-6
-1.176, 7.693e-6
-1.177, 7.694e-6
-1.178, 7.699e-6
-1.179, 7.701e-6
-1.180, 7.702e-6
-1.181, 7.703e-6
-1.182, 7.706e-6
-1.183, 7.710e-6
-1.184, 7.712e-6
-1.185, 7.713e-6
-1.186, 7.715e-6
-1.187, 7.716e-6
-1.188, 7.721e-6
-1.189, 7.723e-6
-1.190, 7.725e-6
-1.191, 7.727e-6
-1.192, 7.729e-6
-1.193, 7.732e-6
-1.194, 7.735e-6
-1.195, 7.735e-6
-1.196, 7.738e-6
-1.197, 7.740e-6
-1.198, 7.743e-6
-1.199, 7.746e-6
-1.200, 7.746e-6
-1.201, 7.749e-6
-1.202, 7.750e-6
-1.203, 7.754e-6
-1.204, 7.757e-6
-1.205, 7.756e-6
-1.206, 7.760e-6
-1.207, 7.760e-6
-1.208, 7.763e-6
-1.209, 7.767e-6
-1.210, 7.768e-6
-1.211, 7.769e-6
-1.212, 7.771e-6
-1.213, 7.775e-6
-1.214, 7.778e-6
-1.215, 7.778e-6
-1.216, 7.780e-6
-1.217, 7.782e-6
-1.218, 7.785e-6
-1.219, 7.788e-6
-1.220, 7.789e-6
-1.221, 7.791e-6
-1.222, 7.794e-6
-1.223, 7.796e-6
-1.224, 7.798e-6
-1.225, 7.800e-6
-1.226, 7.801e-6
-1.227, 7.804e-6
-1.228, 7.808e-6
-1.229, 7.813e-6
-1.230, 7.815e-6
-1.231, 7.816e-6
-1.232, 7.818e-6
-1.233, 7.823e-6
-1.234, 7.823e-6
-1.235, 7.825e-6
-1.236, 7.827e-6
-1.237, 7.830e-6
-1.238, 7.833e-6
-1.239, 7.835e-6
-1.240, 7.837e-6
-1.241, 7.840e-6
-1.242, 7.842e-6
-1.243, 7.844e-6
-1.244, 7.846e-6
-1.245, 7.848e-6
-1.246, 7.851e-6
-1.247, 7.852e-6
-1.248, 7.855e-6
-1.249, 7.858e-6
-1.250, 7.859e-6
-1.251, 7.861e-6
-1.252, 7.863e-6
-1.253, 7.865e-6
-1.254, 7.869e-6
-1.255, 7.871e-6
-1.256, 7.873e-6
-1.257, 7.875e-6
-1.258, 7.878e-6
-1.259, 7.882e-6
-1.260, 7.882e-6
-1.261, 7.884e-6
-1.262, 7.886e-6
-1.263, 7.889e-6
-1.264, 7.892e-6
-1.265, 7.894e-6
-1.266, 7.896e-6
-1.267, 7.898e-6
-1.268, 7.902e-6
-1.269, 7.905e-6
-1.270, 7.905e-6
-1.271, 7.907e-6
-1.272, 7.909e-6
-1.273, 7.913e-6
-1.274, 7.916e-6
-1.275, 7.917e-6
-1.276, 7.919e-6
-1.277, 7.920e-6
-1.278, 7.924e-6
-1.279, 7.926e-6
-1.280, 7.929e-6
-1.281, 7.933e-6
-1.282, 7.933e-6
-1.283, 7.935e-6
-1.284, 7.940e-6
-1.285, 7.940e-6
-1.286, 7.942e-6
-1.287, 7.944e-6
-1.288, 7.948e-6
-1.289, 7.950e-6
-1.290, 7.950e-6
-1.291, 7.953e-6
-1.292, 7.955e-6
-1.293, 7.960e-6
-1.294, 7.962e-6
-1.295, 7.964e-6
-1.296, 7.965e-6
-1.297, 7.967e-6
-1.298, 7.970e-6
-1.299, 7.973e-6
-1.300, 7.975e-6
-1.301, 7.976e-6
-1.302, 7.978e-6
-1.303, 7.981e-6
-1.304, 7.984e-6
-1.305, 7.985e-6
-1.306, 7.988e-6
-1.307, 7.989e-6
-1.308, 7.993e-6
-1.309, 7.995e-6
-1.310, 7.995e-6
-1.311, 7.998e-6
-1.312, 7.999e-6
-1.313, 8.002e-6
-1.314, 8.004e-6
-1.315, 8.006e-6
-1.316, 8.008e-6
-1.317, 8.009e-6
-1.318, 8.015e-6
-1.319, 8.021e-6
-1.320, 8.024e-6
-1.321, 8.026e-6
-1.322, 8.027e-6
-1.323, 8.031e-6
-1.324, 8.033e-6
-1.325, 8.034e-6
-1.326, 8.037e-6
-1.327, 8.039e-6
-1.328, 8.043e-6
-1.329, 8.044e-6
-1.330, 8.045e-6
-1.331, 8.048e-6
-1.332, 8.050e-6
-1.333, 8.053e-6
-1.334, 8.056e-6
-1.335, 8.057e-6
-1.336, 8.059e-6
-1.337, 8.061e-6
-1.338, 8.065e-6
-1.339, 8.068e-6
-1.340, 8.069e-6
-1.341, 8.071e-6
-1.342, 8.074e-6
-1.343, 8.076e-6
-1.344, 8.079e-6
-1.345, 8.081e-6
-1.346, 8.083e-6
-1.347, 8.084e-6
-1.348, 8.089e-6
-1.349, 8.091e-6
-1.350, 8.094e-6
-1.351, 8.096e-6
-1.352, 8.097e-6
-1.353, 8.101e-6
-1.354, 8.103e-6
-1.355, 8.105e-6
-1.356, 8.106e-6
-1.357, 8.110e-6
-1.358, 8.114e-6
-1.359, 8.116e-6
-1.360, 8.118e-6
-1.361, 8.120e-6
-1.362, 8.121e-6
-1.363, 8.126e-6
-1.364, 8.129e-6
-1.365, 8.129e-6
-1.366, 8.131e-6
-1.367, 8.134e-6
-1.368, 8.137e-6
-1.369, 8.141e-6
-1.370, 8.144e-6
-1.371, 8.145e-6
-1.372, 8.147e-6
-1.373, 8.152e-6
-1.374, 8.154e-6
-1.375, 8.156e-6
-1.376, 8.158e-6
-1.377, 8.163e-6
-1.378, 8.166e-6
-1.379, 8.169e-6
-1.380, 8.170e-6
-1.381, 8.172e-6
-1.382, 8.177e-6
-1.383, 8.182e-6
-1.384, 8.184e-6
-1.385, 8.186e-6
-1.386, 8.187e-6
-1.387, 8.191e-6
-1.388, 8.196e-6
-1.389, 8.198e-6
-1.390, 8.201e-6
-1.391, 8.203e-6
-1.392, 8.206e-6
-1.393, 8.211e-6
-1.394, 8.214e-6
-1.395, 8.216e-6
-1.396, 8.219e-6
-1.397, 8.222e-6
-1.398, 8.227e-6
-1.399, 8.229e-6
-1.400, 8.231e-6
-1.401, 8.234e-6
-1.402, 8.237e-6
-1.403, 8.242e-6
-1.404, 8.246e-6
-1.405, 8.247e-6
-1.406, 8.250e-6
-1.407, 8.253e-6
-1.408, 8.259e-6
-1.409, 8.263e-6
-1.410, 8.264e-6
-1.411, 8.268e-6
-1.412, 8.270e-6
-1.413, 8.276e-6
-1.414, 8.279e-6
-1.415, 8.281e-6
-1.416, 8.285e-6
-1.417, 8.287e-6
-1.418, 8.292e-6
-1.419, 8.296e-6
-1.420, 8.299e-6
-1.421, 8.301e-6
-1.422, 8.305e-6
-1.423, 8.310e-6
-1.424, 8.314e-6
-1.425, 8.317e-6
-1.426, 8.320e-6
-1.427, 8.323e-6
-1.428, 8.330e-6
-1.429, 8.333e-6
-1.430, 8.335e-6
-1.431, 8.338e-6
-1.432, 8.343e-6
-1.433, 8.347e-6
-1.434, 8.353e-6
-1.435, 8.356e-6
-1.436, 8.358e-6
-1.437, 8.362e-6
-1.438, 8.368e-6
-1.439, 8.371e-6
-1.440, 8.374e-6
-1.441, 8.378e-6
-1.442, 8.381e-6
-1.443, 8.387e-6
-1.444, 8.392e-6
-1.445, 8.395e-6
-1.446, 8.399e-6
-1.447, 8.403e-6
-1.448, 8.408e-6
-1.449, 8.414e-6
-1.450, 8.417e-6
-1.451, 8.420e-6
-1.452, 8.424e-6
-1.453, 8.431e-6
-1.454, 8.435e-6
-1.455, 8.439e-6
-1.456, 8.443e-6
-1.457, 8.448e-6
-1.458, 8.453e-6
-1.459, 8.459e-6
-1.460, 8.462e-6
-1.461, 8.466e-6
-1.462, 8.471e-6
-1.463, 8.478e-6
-1.464, 8.482e-6
-1.465, 8.486e-6
-1.466, 8.489e-6
-1.467, 8.495e-6
-1.468, 8.501e-6
-1.469, 8.506e-6
-1.470, 8.510e-6
-1.471, 8.514e-6
-1.472, 8.519e-6
-1.473, 8.525e-6
-1.474, 8.529e-6
-1.475, 8.533e-6
-1.476, 8.538e-6
-1.477, 8.541e-6
-1.478, 8.550e-6
-1.479, 8.553e-6
-1.480, 8.556e-6
-1.481, 8.561e-6
-1.482, 8.566e-6
-1.483, 8.574e-6
-1.484, 8.578e-6
-1.485, 8.582e-6
-1.486, 8.586e-6
-1.487, 8.590e-6
-1.488, 8.597e-6
-1.489, 8.601e-6
-1.490, 8.604e-6
-1.491, 8.608e-6
-1.492, 8.611e-6
-1.493, 8.619e-6
-1.494, 8.622e-6
-1.495, 8.625e-6
-1.496, 8.630e-6
-1.497, 8.636e-6
-1.498, 8.644e-6
-1.499, 8.649e-6
-1.500, 8.653e-6
-1.501, 8.657e-6
-1.502, 8.662e-6
-1.503, 8.669e-6
-1.504, 8.675e-6
-1.505, 8.679e-6
-1.506, 8.683e-6
-1.507, 8.688e-6
-1.508, 8.696e-6
-1.509, 8.701e-6
-1.510, 8.708e-6
-1.511, 8.712e-6
-1.512, 8.718e-6
-1.513, 8.727e-6
-1.514, 8.730e-6
-1.515, 8.736e-6
-1.516, 8.741e-6
-1.517, 8.746e-6
-1.518, 8.754e-6
-1.519, 8.760e-6
-1.520, 8.764e-6
-1.521, 8.770e-6
-1.522, 8.774e-6
-1.523, 8.783e-6
-1.524, 8.791e-6
-1.525, 8.794e-6
-1.526, 8.798e-6
-1.527, 8.805e-6
-1.528, 8.814e-6
-1.529, 8.819e-6
-1.530, 8.824e-6
-1.531, 8.829e-6
-1.532, 8.836e-6
-1.533, 8.843e-6
-1.534, 8.849e-6
-1.535, 8.855e-6
-1.536, 8.860e-6
-1.537, 8.866e-6
-1.538, 8.872e-6
-1.539, 8.879e-6
-1.540, 8.884e-6
-1.541, 8.890e-6
-1.542, 8.897e-6
-1.543, 8.907e-6
-1.544, 8.914e-6
-1.545, 8.920e-6
-1.546, 8.925e-6
-1.547, 8.932e-6
-1.548, 8.940e-6
-1.549, 8.948e-6
-1.550, 8.953e-6
-1.551, 8.959e-6
-1.552, 8.966e-6
-1.553, 8.976e-6
-1.554, 8.983e-6
-1.555, 8.990e-6
-1.556, 8.994e-6
-1.557, 9.003e-6
-1.558, 9.013e-6
-1.559, 9.019e-6
-1.560, 9.025e-6
-1.561, 9.032e-6
-1.562, 9.042e-6
-1.563, 9.053e-6
-1.564, 9.061e-6
-1.565, 9.066e-6
-1.566, 9.073e-6
-1.567, 9.081e-6
-1.568, 9.092e-6
-1.569, 9.100e-6
-1.570, 9.106e-6
-1.571, 9.113e-6
-1.572, 9.122e-6
-1.573, 9.131e-6
-1.574, 9.141e-6
-1.575, 9.147e-6
-1.576, 9.154e-6
-1.577, 9.164e-6
-1.578, 9.173e-6
-1.579, 9.181e-6
-1.580, 9.189e-6
-1.581, 9.197e-6
-1.582, 9.208e-6
-1.583, 9.218e-6
-1.584, 9.228e-6
-1.585, 9.235e-6
-1.586, 9.244e-6
-1.587, 9.256e-6
-1.588, 9.269e-6
-1.589, 9.278e-6
-1.590, 9.286e-6
-1.591, 9.295e-6
-1.592, 9.306e-6
-1.593, 9.318e-6
-1.594, 9.327e-6
-1.595, 9.337e-6
-1.596, 9.346e-6
-1.597, 9.355e-6
-1.598, 9.368e-6
-1.599, 9.378e-6
-1.600, 9.388e-6
-1.601, 9.397e-6
-1.602, 9.407e-6
-1.603, 9.422e-6
-1.604, 9.431e-6
-1.605, 9.442e-6
-1.606, 9.454e-6
-1.607, 9.466e-6
-1.608, 9.480e-6
-1.609, 9.492e-6
-1.610, 9.503e-6
-1.611, 9.514e-6
-1.612, 9.527e-6
-1.613, 9.543e-6
-1.614, 9.556e-6
-1.615, 9.567e-6
-1.616, 9.580e-6
-1.617, 9.594e-6
-1.618, 9.609e-6
-1.619, 9.624e-6
-1.620, 9.634e-6
-1.621, 9.646e-6
-1.622, 9.663e-6
-1.623, 9.680e-6
-1.624, 9.695e-6
-1.625, 9.708e-6
-1.626, 9.722e-6
-1.627, 9.738e-6
-1.628, 9.756e-6
-1.629, 9.772e-6
-1.630, 9.787e-6
-1.631, 9.801e-6
-1.632, 9.818e-6
-1.633, 9.838e-6
-1.634, 9.854e-6
-1.635, 9.869e-6
-1.636, 9.884e-6
-1.637, 9.902e-6
-1.638, 9.924e-6
-1.639, 9.947e-6
-1.640, 9.960e-6
-1.641, 9.976e-6
-1.642, 9.996e-6
-1.643, 1.002e-5
-1.644, 1.004e-5
-1.645, 1.005e-5
-1.646, 1.007e-5
-1.647, 1.009e-5
-1.648, 1.011e-5
-1.649, 1.013e-5
-1.650, 1.015e-5
-1.651, 1.017e-5
-1.652, 1.019e-5
-1.653, 1.021e-5
-1.654, 1.023e-5
-1.655, 1.025e-5
-1.656, 1.028e-5
-1.657, 1.030e-5
-1.658, 1.032e-5
-1.659, 1.035e-5
-1.660, 1.037e-5
-1.661, 1.039e-5
-1.662, 1.042e-5
-1.663, 1.044e-5
-1.664, 1.047e-5
-1.665, 1.049e-5
-1.666, 1.051e-5
-1.667, 1.054e-5
-1.668, 1.057e-5
-1.669, 1.059e-5
-1.670, 1.062e-5
-1.671, 1.065e-5
-1.672, 1.068e-5
-1.673, 1.071e-5
-1.674, 1.073e-5
-1.675, 1.076e-5
-1.676, 1.079e-5
-1.677, 1.082e-5
-1.678, 1.085e-5
-1.679, 1.088e-5
-1.680, 1.091e-5
-1.681, 1.094e-5
-1.682, 1.097e-5
-1.683, 1.101e-5
-1.684, 1.104e-5
-1.685, 1.107e-5
-1.686, 1.110e-5
-1.687, 1.114e-5
-1.688, 1.117e-5
-1.689, 1.121e-5
-1.690, 1.125e-5
-1.691, 1.128e-5
-1.692, 1.132e-5
-1.693, 1.136e-5
-1.694, 1.140e-5
-1.695, 1.143e-5
-1.696, 1.147e-5
-1.697, 1.151e-5
-1.698, 1.155e-5
-1.699, 1.159e-5
-1.700, 1.163e-5
-1.701, 1.167e-5
-1.702, 1.171e-5
-1.703, 1.176e-5
-1.704, 1.180e-5
-1.705, 1.185e-5
-1.706, 1.189e-5
-1.707, 1.193e-5
-1.708, 1.198e-5
-1.709, 1.203e-5
-1.710, 1.206e-5
-1.711, 1.210e-5
-1.712, 1.215e-5
-1.713, 1.220e-5
-1.714, 1.225e-5
-1.715, 1.231e-5
-1.716, 1.236e-5
-1.717, 1.241e-5
-1.718, 1.247e-5
-1.719, 1.252e-5
-1.720, 1.257e-5
-1.721, 1.263e-5
-1.722, 1.268e-5
-1.723, 1.275e-5
-1.724, 1.280e-5
-1.725, 1.286e-5
-1.726, 1.292e-5
-1.727, 1.298e-5
-1.728, 1.305e-5
-1.729, 1.311e-5
-1.730, 1.317e-5
-1.731, 1.324e-5
-1.732, 1.330e-5
-1.733, 1.337e-5
-1.734, 1.344e-5
-1.735, 1.351e-5
-1.736, 1.358e-5
-1.737, 1.365e-5
-1.738, 1.372e-5
-1.739, 1.380e-5
-1.740, 1.387e-5
-1.741, 1.395e-5
-1.742, 1.403e-5
-1.743, 1.411e-5
-1.744, 1.418e-5
-1.745, 1.426e-5
-1.746, 1.434e-5
-1.747, 1.443e-5
-1.748, 1.452e-5
-1.749, 1.460e-5
-1.750, 1.469e-5
-1.751, 1.477e-5
-1.752, 1.486e-5
-1.753, 1.496e-5
-1.754, 1.506e-5
-1.755, 1.515e-5
-1.756, 1.525e-5
-1.757, 1.535e-5
-1.758, 1.545e-5
-1.759, 1.555e-5
-1.760, 1.565e-5
-1.761, 1.576e-5
-1.762, 1.587e-5
-1.763, 1.598e-5
-1.764, 1.609e-5
-1.765, 1.621e-5
-1.766, 1.632e-5
-1.767, 1.644e-5
-1.768, 1.657e-5
-1.769, 1.669e-5
-1.770, 1.681e-5
-1.771, 1.693e-5
-1.772, 1.706e-5
-1.773, 1.719e-5
-1.774, 1.733e-5
-1.775, 1.746e-5
-1.776, 1.759e-5
-1.777, 1.774e-5
-1.778, 1.788e-5
-1.779, 1.802e-5
-1.780, 1.817e-5
-1.781, 1.831e-5
-1.782, 1.847e-5
-1.783, 1.863e-5
-1.784, 1.879e-5
-1.785, 1.895e-5
-1.786, 1.911e-5
-1.787, 1.928e-5
-1.788, 1.946e-5
-1.789, 1.963e-5
-1.790, 1.980e-5
-1.791, 1.995e-5
-1.792, 2.011e-5
-1.793, 2.029e-5
-1.794, 2.046e-5
-1.795, 2.064e-5
-1.796, 2.079e-5
-1.797, 2.097e-5
-1.798, 2.116e-5
-1.799, 2.135e-5
-1.800, 2.155e-5
-1.801, 2.175e-5
-1.802, 2.196e-5
-1.803, 2.218e-5
-1.804, 2.240e-5
-1.805, 2.263e-5
-1.806, 2.286e-5
-1.807, 2.309e-5
-1.808, 2.333e-5
-1.809, 2.358e-5
-1.810, 2.383e-5
-1.811, 2.409e-5
-1.812, 2.437e-5
-1.813, 2.463e-5
-1.814, 2.490e-5
-1.815, 2.517e-5
-1.816, 2.545e-5
-1.817, 2.574e-5
-1.818, 2.604e-5
-1.819, 2.635e-5
-1.820, 2.665e-5
-1.821, 2.696e-5
-1.822, 2.729e-5
-1.823, 2.761e-5
-1.824, 2.793e-5
-1.825, 2.827e-5
-1.826, 2.861e-5
-1.827, 2.897e-5
-1.828, 2.932e-5
-1.829, 2.968e-5
-1.830, 3.005e-5
-1.831, 3.043e-5
-1.832, 3.083e-5
-1.833, 3.123e-5
-1.834, 3.162e-5
-1.835, 3.203e-5
-1.836, 3.241e-5
-1.837, 3.278e-5
-1.838, 3.318e-5
-1.839, 3.360e-5
-1.840, 3.403e-5
-1.841, 3.446e-5
-1.842, 3.491e-5
-1.843, 3.538e-5
-1.844, 3.586e-5
-1.845, 3.630e-5
-1.846, 3.674e-5
-1.847, 3.724e-5
-1.848, 3.776e-5
-1.849, 3.828e-5
-1.850, 3.878e-5
-1.851, 3.931e-5
-1.852, 3.987e-5
-1.853, 4.044e-5
-1.854, 4.101e-5
-1.855, 4.160e-5
-1.856, 4.219e-5
-1.857, 4.280e-5
-1.858, 4.343e-5
-1.859, 4.405e-5
-1.860, 4.471e-5
-1.861, 4.536e-5
-1.862, 4.604e-5
-1.863, 4.672e-5
-1.864, 4.742e-5
-1.865, 4.813e-5
-1.866, 4.885e-5
-1.867, 4.960e-5
-1.868, 5.035e-5
-1.869, 5.110e-5
-1.870, 5.183e-5
-1.871, 5.258e-5
-1.872, 5.334e-5
-1.873, 5.414e-5
-1.874, 5.497e-5
-1.875, 5.580e-5
-1.876, 5.663e-5
-1.877, 5.749e-5
-1.878, 5.838e-5
-1.879, 5.931e-5
-1.880, 6.017e-5
-1.881, 6.103e-5
-1.882, 6.198e-5
-1.883, 6.295e-5
-1.884, 6.394e-5
-1.885, 6.497e-5
-1.886, 6.605e-5
-1.887, 6.712e-5
-1.888, 6.820e-5
-1.889, 6.932e-5
-1.890, 7.047e-5
-1.891, 7.163e-5
-1.892, 7.279e-5
-1.893, 7.399e-5
-1.894, 7.524e-5
-1.895, 7.651e-5
-1.896, 7.778e-5
-1.897, 7.910e-5
-1.898, 8.041e-5
-1.899, 8.166e-5
-1.900, 8.304e-5
-1.901, 8.441e-5
-1.902, 8.581e-5
-1.903, 8.724e-5
-1.904, 8.868e-5
-1.905, 9.017e-5
-1.906, 9.170e-5
-1.907, 9.327e-5
-1.908, 9.489e-5
-1.909, 9.651e-5
-1.910, 9.812e-5
-1.911, 9.978e-5
-1.912, 1.014e-4
-1.913, 1.030e-4
-1.914, 1.048e-4
-1.915, 1.066e-4
-1.916, 1.084e-4
-1.917, 1.102e-4
-1.918, 1.121e-4
-1.919, 1.140e-4
-1.920, 1.159e-4
-1.921, 1.178e-4
-1.922, 1.198e-4
-1.923, 1.218e-4
-1.924, 1.239e-4
-1.925, 1.260e-4
-1.926, 1.281e-4
-1.927, 1.302e-4
-1.928, 1.324e-4
-1.929, 1.346e-4
-1.930, 1.369e-4
-1.931, 1.392e-4
-1.932, 1.416e-4
-1.933, 1.439e-4
-1.934, 1.463e-4
-1.935, 1.487e-4
-1.936, 1.510e-4
-1.937, 1.533e-4
-1.938, 1.557e-4
-1.939, 1.582e-4
-1.940, 1.608e-4
-1.941, 1.634e-4
-1.942, 1.660e-4
-1.943, 1.687e-4
-1.944, 1.714e-4
-1.945, 1.742e-4
-1.946, 1.771e-4
-1.947, 1.799e-4
-1.948, 1.827e-4
-1.949, 1.856e-4
-1.950, 1.883e-4
-1.951, 1.912e-4
-1.952, 1.942e-4
-1.953, 1.970e-4
-1.954, 2.000e-4
-1.955, 2.032e-4
-1.956, 2.063e-4
-1.957, 2.095e-4
-1.958, 2.127e-4
-1.959, 2.160e-4
-1.960, 2.193e-4
-1.961, 2.226e-4
-1.962, 2.260e-4
-1.963, 2.293e-4
-1.964, 2.328e-4
-1.965, 2.363e-4
-1.966, 2.398e-4
-1.967, 2.434e-4
-1.968, 2.471e-4
-1.969, 2.508e-4
-1.970, 2.545e-4
-1.971, 2.583e-4
-1.972, 2.621e-4
-1.973, 2.658e-4
-1.974, 2.697e-4
-1.975, 2.736e-4
-1.976, 2.774e-4
-1.977, 2.813e-4
-1.978, 2.854e-4
-1.979, 2.897e-4
-1.980, 2.939e-4
-1.981, 2.980e-4
-1.982, 3.022e-4
-1.983, 3.063e-4
-1.984, 3.104e-4
-1.985, 3.145e-4
-1.986, 3.187e-4
-1.987, 3.232e-4
-1.988, 3.275e-4
-1.989, 3.318e-4
-1.990, 3.364e-4
-1.991, 3.409e-4
-1.992, 3.454e-4
-1.993, 3.501e-4
-1.994, 3.547e-4
-1.995, 3.594e-4
-1.996, 3.642e-4
-1.997, 3.689e-4
-1.998, 3.737e-4
-1.999, 3.786e-4
-2.000, 3.837e-4
-2.001, 3.887e-4
-2.002, 3.936e-4
-2.003, 3.985e-4
-2.004, 4.035e-4
-2.005, 4.085e-4
-2.006, 4.136e-4
-2.007, 4.188e-4
-2.008, 4.241e-4
-2.009, 4.292e-4
-2.010, 4.342e-4
-2.011, 4.395e-4
-2.012, 4.448e-4
-2.013, 4.502e-4
-2.014, 4.555e-4
-2.015, 4.609e-4
-2.016, 4.664e-4
-2.017, 4.719e-4
-2.018, 4.774e-4
-2.019, 4.830e-4
-2.020, 4.885e-4
-2.021, 4.941e-4
-2.022, 4.997e-4
-2.023, 5.053e-4
-2.024, 5.111e-4
-2.025, 5.169e-4
-2.026, 5.226e-4
-2.027, 5.285e-4
-2.028, 5.343e-4
-2.029, 5.401e-4
-2.030, 5.459e-4
-2.031, 5.518e-4
-2.032, 5.576e-4
-2.033, 5.636e-4
-2.034, 5.697e-4
-2.035, 5.758e-4
-2.036, 5.818e-4
-2.037, 5.883e-4
-2.038, 5.947e-4
-2.039, 6.010e-4
-2.040, 6.073e-4
-2.041, 6.136e-4
-2.042, 6.198e-4
-2.043, 6.261e-4
-2.044, 6.324e-4
-2.045, 6.390e-4
-2.046, 6.458e-4
-2.047, 6.522e-4
-2.048, 6.586e-4
-2.049, 6.651e-4
-2.050, 6.717e-4
-2.051, 6.783e-4
-2.052, 6.851e-4
-2.053, 6.919e-4
-2.054, 6.983e-4
-2.055, 7.049e-4
-2.056, 7.116e-4
-2.057, 7.184e-4
-2.058, 7.251e-4
-2.059, 7.319e-4
-2.060, 7.388e-4
-2.061, 7.458e-4
-2.062, 7.528e-4
-2.063, 7.598e-4
-2.064, 7.668e-4
-2.065, 7.737e-4
-2.066, 7.805e-4
-2.067, 7.874e-4
-2.068, 7.945e-4
-2.069, 8.020e-4
-2.070, 8.093e-4
-2.071, 8.167e-4
-2.072, 8.237e-4
-2.073, 8.309e-4
-2.074, 8.381e-4
-2.075, 8.453e-4
-2.076, 8.525e-4
-2.077, 8.598e-4
-2.078, 8.671e-4
-2.079, 8.746e-4
-2.080, 8.823e-4
-2.081, 8.898e-4
-2.082, 8.972e-4
-2.083, 9.048e-4
-2.084, 9.122e-4
-2.085, 9.193e-4
-2.086, 9.266e-4
-2.087, 9.341e-4
-2.088, 9.417e-4
-2.089, 9.492e-4
-2.090, 9.568e-4
-2.091, 9.645e-4
-2.092, 9.728e-4
-2.093, 9.810e-4
-2.094, 9.889e-4
-2.095, 9.967e-4
-2.096, 1.005e-3
-2.097, 1.011e-3
-2.098, 1.011e-3
-2.099, 1.011e-3
-2.100, 1.011e-3
-2.101, 1.011e-3
-2.102, 1.011e-3
-2.103, 1.011e-3
-2.104, 1.011e-3
-2.105, 1.011e-3
-2.106, 1.011e-3
-2.107, 1.011e-3
-2.108, 1.011e-3
-2.109, 1.011e-3
-2.110, 1.011e-3
-2.111, 1.011e-3
-2.112, 1.011e-3
-2.113, 1.011e-3
-2.114, 1.011e-3
-2.115, 1.011e-3
-2.116, 1.011e-3
-2.117, 1.011e-3
-2.118, 1.011e-3
-2.119, 1.011e-3
-2.120, 1.011e-3
-2.121, 1.011e-3
-2.122, 1.011e-3
-2.123, 1.011e-3
-2.124, 1.011e-3
-2.125, 1.011e-3
-2.126, 1.011e-3
-2.127, 1.011e-3
-2.128, 1.011e-3
-2.129, 1.011e-3
-2.130, 1.011e-3
-2.131, 1.011e-3
-2.132, 1.011e-3
-2.133, 1.011e-3
-2.134, 1.011e-3
-2.135, 1.011e-3
-2.136, 1.011e-3
-2.137, 1.011e-3
-2.138, 1.011e-3
-2.139, 1.011e-3
-2.140, 1.011e-3
-2.141, 1.011e-3
-2.142, 1.011e-3
-2.143, 1.011e-3
-2.144, 1.011e-3
-2.145, 1.011e-3
-2.146, 1.011e-3
-2.147, 1.011e-3
-2.148, 1.011e-3
-2.149, 1.011e-3
-2.150, 1.011e-3
-2.151, 1.011e-3
-2.152, 1.011e-3
-2.153, 1.011e-3
-2.154, 1.011e-3
-2.155, 1.011e-3
-2.156, 1.011e-3
-2.157, 1.011e-3
-2.158, 1.011e-3
-2.159, 1.011e-3
-2.160, 1.011e-3
-2.161, 1.011e-3
-2.162, 1.011e-3
-2.163, 1.011e-3
-2.164, 1.011e-3
-2.165, 1.011e-3
-2.166, 1.011e-3
-2.167, 1.011e-3
-2.168, 1.011e-3
-2.169, 1.011e-3
-2.170, 1.011e-3
-2.171, 1.011e-3
-2.172, 1.011e-3
-2.173, 1.011e-3
-2.174, 1.011e-3
-2.175, 1.011e-3
-2.176, 1.011e-3
-2.177, 1.011e-3
-2.178, 1.011e-3
-2.179, 1.011e-3
-2.180, 1.011e-3
-2.181, 1.011e-3
-2.182, 1.011e-3
-2.183, 1.011e-3
-2.184, 1.011e-3
-2.185, 1.011e-3
-2.186, 1.011e-3
-2.187, 1.011e-3
-2.188, 1.011e-3
-2.189, 1.011e-3
-2.190, 1.011e-3
-2.191, 1.011e-3
-2.192, 1.011e-3
-2.193, 1.011e-3
-2.194, 1.011e-3
-2.195, 1.011e-3
-2.196, 1.011e-3
-2.197, 1.011e-3
-2.198, 1.011e-3
-2.199, 1.011e-3
-2.200, 1.011e-3
-2.201, 1.011e-3
-2.202, 1.011e-3
-2.203, 1.011e-3
-2.204, 1.011e-3
-2.205, 1.011e-3
-2.206, 1.011e-3
-2.207, 1.011e-3
-2.208, 1.011e-3
-2.209, 1.011e-3
-2.210, 1.011e-3
-2.211, 1.011e-3
-2.212, 1.011e-3
-2.213, 1.011e-3
-2.214, 1.011e-3
-2.215, 1.011e-3
-2.216, 1.011e-3
-2.217, 1.011e-3
-2.218, 1.011e-3
-2.219, 1.011e-3
-2.220, 1.011e-3
-2.221, 1.011e-3
-2.222, 1.011e-3
-2.223, 1.011e-3
-2.224, 1.011e-3
-2.225, 1.011e-3
-2.226, 1.011e-3
-2.227, 1.011e-3
-2.228, 1.011e-3
-2.229, 1.011e-3
-2.230, 1.011e-3
-2.231, 1.011e-3
-2.232, 1.011e-3
-2.233, 1.011e-3
-2.234, 1.011e-3
-2.235, 1.011e-3
-2.236, 1.011e-3
-2.237, 1.011e-3
-2.238, 1.011e-3
-2.239, 1.011e-3
-2.240, 1.011e-3
-2.241, 1.011e-3
-2.242, 1.011e-3
-2.243, 1.011e-3
-2.244, 1.011e-3
-2.245, 1.011e-3
-2.246, 1.011e-3
-2.247, 1.011e-3
-2.248, 1.011e-3
-2.249, 1.011e-3
-2.250, 1.011e-3
-2.251, 1.011e-3
-2.252, 1.011e-3
-2.253, 1.011e-3
-2.254, 1.011e-3
-2.255, 1.011e-3
-2.256, 1.011e-3
-2.257, 1.011e-3
-2.258, 1.011e-3
-2.259, 1.011e-3
-2.260, 1.011e-3
-2.261, 1.011e-3
-2.262, 1.011e-3
-2.263, 1.011e-3
-2.264, 1.011e-3
-2.265, 1.011e-3
-2.266, 1.011e-3
-2.267, 1.011e-3
-2.268, 1.011e-3
-2.269, 1.011e-3
-2.270, 1.011e-3
-2.271, 1.011e-3
-2.272, 1.011e-3
-2.273, 1.011e-3
-2.274, 1.011e-3
-2.275, 1.011e-3
-2.276, 1.011e-3
-2.277, 1.011e-3
-2.278, 1.011e-3
-2.279, 1.011e-3
-2.280, 1.011e-3
-2.281, 1.011e-3
-2.282, 1.011e-3
-2.283, 1.011e-3
-2.284, 1.011e-3
-2.285, 1.011e-3
-2.286, 1.011e-3
-2.287, 1.011e-3
-2.288, 1.011e-3
-2.289, 1.011e-3
-2.290, 1.011e-3
-2.291, 1.011e-3
-2.292, 1.011e-3
-2.293, 1.011e-3
-2.294, 1.011e-3
-2.295, 1.011e-3
-2.296, 1.011e-3
-2.297, 1.011e-3
-2.298, 1.011e-3
-2.299, 1.011e-3
