Potential V vs RHE, Current mA cm-2
0.013299999999999867,-0.18235628655260325
0.012299999999999978,-1.9013719870186092
0.011299999999999866,-3.4221866343735234
0.010299999999999976,-4.718062185049897
0.009299999999999864,-5.60367145876541
0.008299999999999974,-6.417130456187806
0.007299999999999862,-7.291422039504399
0.006299999999999972,-7.860135982050143
0.00529999999999986,-8.28596408330952
0.0042999999999999705,-8.867410427554049
0.0032999999999998586,-9.315873909611268
0.0022999999999999687,-9.523836470691428
0.0012999999999998568,-9.912882078154311
0.00029999999999996696,-10.290609995218277
-0.000700000000000145,-10.413689878306533
-0.0017000000000000348,-10.61174946028764
-0.0027000000000001467,-10.961183151354303
-0.0037000000000000366,-11.074360055343508
-0.0047000000000001485,-11.143680909036894
-0.005700000000000038,-11.40398778821206
-0.00670000000000015,-11.587900257194516
-0.00770000000000004,-11.551117763398024
-0.008700000000000152,-11.730786098480884
-0.009700000000000042,-11.954310483859562
-0.010700000000000154,-11.944407504760505
-0.011700000000000044,-11.986848843756457
-0.012700000000000156,-12.206129095235537
-0.013700000000000045,-12.217446785634456
-0.014700000000000157,-12.183493714437697
-0.015700000000000047,-12.363162049520556
-0.01670000000000016,-12.463606551810972
-0.01770000000000005,-12.378723873819071
-0.01870000000000016,-12.49048606650841
-0.01970000000000005,-12.646104309493563
-0.020700000000000163,-12.56688047670112
-0.021700000000000053,-12.578198167100041
-0.022700000000000164,-12.78050188298074
-0.023700000000000054,-12.74937823438371
-0.024700000000000166,-12.688545648489512
-0.025700000000000056,-12.848408025374262
-0.026700000000000168,-12.917728879067651
-0.027700000000000058,-12.805966686378312
-0.02870000000000017,-12.89792292086954
-0.02970000000000006,-13.040808762155907
-0.03070000000000017,-12.961584929363466
-0.03170000000000006,-12.94885252766468
-0.03270000000000017,-13.127106151447675
-0.03370000000000006,-13.09173836895105
-0.034700000000000175,-13.006855690959148
-0.035700000000000065,-13.162473933944302
-0.03670000000000018,-13.227550653738092
-0.03770000000000007,-13.103056059349969
-0.03870000000000018,-13.196427005141063
-0.03970000000000007,-13.31950688822932
-0.04070000000000018,-13.230380076337823
-0.04170000000000007,-13.220477097238767
-0.04270000000000018,-13.380339474123517
-0.04370000000000007,-13.346386402926754
-0.044700000000000184,-13.269991992734044
-0.045700000000000074,-13.397316009721898
-0.046700000000000186,-13.472295708614745
-0.047700000000000076,-13.340727557727297
-0.04870000000000019,-13.428439658318927
-0.04970000000000008,-13.560007809206377
-0.05070000000000019,-13.4539044617165
-0.05170000000000008,-13.431269080918659
-0.05270000000000019,-13.592546169103274
-0.05370000000000008,-13.554348964006916
-0.05470000000000019,-13.472295708614745
-0.05570000000000008,-13.592546169103274
-0.056700000000000195,-13.657622888897064
-0.057700000000000085,-13.534543005808807
-0.058700000000000196,-13.608107993401788
-0.059700000000000086,-13.755237968587751
-0.0607000000000002,-13.660452311496796
-0.06170000000000009,-13.651964043697603
-0.0627000000000002,-13.830217667480598
-0.06370000000000009,-13.779288060685458
-0.0647000000000002,-13.70430836179261
-0.06570000000000009,-13.840120646579654
-0.0667000000000002,-13.90095323247385
-0.0677000000000001,-13.786361617184783
-0.0687000000000002,-13.85568247087817
-0.0697000000000001,-13.980177065266293
-0.07070000000000021,-13.882561985575606
-0.0717000000000001,-13.841535357879518
-0.07270000000000021,-14.016959559062784
-0.0737000000000001,-13.984421199165887
-0.07470000000000021,-13.89246496467466
-0.0757000000000001,-14.039594939860624
-0.07670000000000021,-14.118818772653066
-0.0777000000000001,-13.994324178264941
-0.07870000000000021,-14.07779214495698
-0.0797000000000001,-14.203701450644967
-0.08070000000000022,-14.113159927453605
-0.0817000000000001,-14.099012814454955
-0.08270000000000022,-14.26028990263957
-0.08370000000000011,-14.231995676642269
-0.08470000000000022,-14.161260111649016
-0.08570000000000011,-14.288584128636872
-0.08670000000000022,-14.373466806628771
-0.08770000000000011,-14.26028990263957
-0.08870000000000022,-14.345172580631472
-0.08970000000000011,-14.500790823616628
-0.09070000000000022,-14.415908145624723
-0.09170000000000011,-14.401761032626075
-0.09270000000000023,-14.585673501608527
-0.09370000000000012,-14.57152638860988
-0.09470000000000023,-14.514937936615278
-0.09570000000000012,-14.642261953603128
-0.09670000000000023,-14.727144631595033
-0.09770000000000012,-14.61396772760583
-0.09870000000000023,-14.71299751859638
-0.09970000000000012,-14.854468648582884
-0.10070000000000023,-14.797880196588284
-0.10170000000000012,-14.797880196588284
-0.10270000000000024,-14.995939778569388
-0.10370000000000013,-14.995939778569388
-0.10470000000000024,-14.925204213576137
-0.10570000000000013,-15.094969569559943
-0.10670000000000024,-15.193999360550496
-0.10770000000000013,-15.094969569559943
-0.10870000000000024,-15.193999360550496
-0.10970000000000013,-15.363764716534297
-0.11070000000000024,-15.307176264539699
-0.11170000000000013,-15.307176264539699
-0.11270000000000002,-15.519382959519453
-0.11370000000000013,-15.533530072518102
-0.11470000000000002,-15.4769416205235
-0.11570000000000014,-15.632559863508657
-0.11670000000000003,-15.74573676749786
-0.11770000000000014,-15.660854089505953
-0.11870000000000003,-15.77403099349516
-0.11970000000000014,-15.929649236480316
-0.12070000000000003,-15.88720789748436
-0.12170000000000014,-15.91550212348166
-0.12270000000000003,-16.11356170546277
-0.12370000000000014,-16.141855931460068
-0.12470000000000003,-16.099414592464115
-0.12570000000000014,-16.269179948447924
-0.12670000000000003,-16.396503965435777
-0.12770000000000015,-16.311621287443874
-0.12870000000000004,-16.438945304431726
-0.12970000000000015,-16.622857773414182
-0.13070000000000004,-16.580416434418233
-0.13170000000000015,-16.622857773414182
-0.13270000000000004,-16.849211581392588
-0.13370000000000015,-16.877505807389888
-0.13470000000000004,-16.863358694391238
-0.13570000000000015,-17.03312405037504
-0.13670000000000004,-17.160448067362896
-0.13770000000000016,-17.103859615368293
-0.13870000000000005,-17.231183632356142
-0.13970000000000016,-17.4433903273359
-0.14070000000000005,-17.429243214337255
-0.14170000000000016,-17.48583166633185
-0.14270000000000005,-17.72633258730891
-0.14370000000000016,-17.75462681330621
-0.14470000000000005,-17.74047970030756
-0.14570000000000016,-17.952686395287316
-0.14670000000000005,-18.10830463827247
-0.14770000000000016,-18.08001041227517
-0.14870000000000005,-18.221481542261674
-0.14970000000000017,-18.44783535024008
-0.15070000000000006,-18.461982463238726
-0.15170000000000017,-18.518570915233333
-0.15270000000000006,-18.78736606220769
-0.15370000000000017,-18.858101627200938
-0.15470000000000006,-18.858101627200938
-0.15570000000000017,-19.084455435179343
-0.15670000000000006,-19.25422079116315
-0.15770000000000017,-19.211779452167196
-0.15870000000000006,-19.381544808151002
-0.15970000000000018,-19.60789861612941
-0.16070000000000007,-19.622045729128057
-0.16170000000000018,-19.721075520118614
-0.16270000000000007,-19.98987066709297
-0.16370000000000018,-20.088900458083522
-0.16470000000000007,-20.10304757108217
-0.16570000000000018,-20.329401379060574
-0.16670000000000007,-20.499166735044383
-0.16770000000000018,-20.48501962204573
-0.16870000000000007,-20.668932091028186
-0.16970000000000018,-20.923580125003895
-0.17070000000000007,-20.95187435100119
-0.17170000000000019,-21.036757028993097
-0.17270000000000008,-21.30555217596745
-0.1737000000000002,-21.390434853959356
-0.17470000000000008,-21.418729079956652
-0.1757000000000002,-21.67337711393236
-0.17670000000000008,-21.871436695913467
-0.1777000000000002,-21.885583808912116
-0.17870000000000008,-22.083643390893226
-0.1797000000000002,-22.352438537867577
-0.18070000000000008,-22.42317410286083
-0.1817000000000002,-22.536351006850033
-0.18270000000000008,-22.84758749282034
-0.1837000000000002,-22.974911509808198
-0.1847000000000001,-23.045647074801447
-0.1857000000000002,-23.342736447773106
-0.1867000000000001,-23.56909025575151
-0.1877000000000002,-23.597384481748815
-0.1887000000000001,-23.809591176728567
-0.1897000000000002,-24.092533436701576
-0.1907000000000001,-24.17741611469348
-0.1917000000000001,-24.304740131681328
-0.19269999999999998,-24.64427084364894
-0.1937000000000001,-24.785741973635442
-0.19469999999999998,-24.884771764625995
-0.1957000000000001,-25.196008250596304
-0.19669999999999999,-25.43650917157336
-0.1977000000000001,-25.49309762356796
-0.1987,-25.73359854454502
-0.1997000000000001,-26.030687917516673
-0.2007,-26.129717708507226
-0.2017000000000001,-26.28533595149238
-0.2027,-26.65316088945729
-0.2037000000000001,-26.822926245441096
-0.2047,-26.921956036431645
-0.2057000000000001,-27.233192522401957
-0.2067,-27.501987669376312
-0.2077000000000001,-27.544429008372262
-0.2087,-27.813224155346617
-0.2097000000000001,-28.13860775431558
-0.2107,-28.251784658304786
-0.2117000000000001,-28.407402901289935
-0.2127,-28.775227839254843
-0.2137000000000001,-28.97328742123595
-0.2147,-29.100611438223805
-0.2157000000000001,-29.482583489187363
-0.2167,-29.751378636161718
-0.21770000000000012,-29.822114201154974
-0.2187,-30.07676223513068
-0.21970000000000012,-30.43044006009694
-0.2207,-30.55776407708479
-0.22170000000000012,-30.741676546067247
-0.2227,-31.12364859703081
-0.22370000000000012,-31.335855292010564
-0.2247,-31.47732642199707
-0.22570000000000012,-31.83100424696332
-0.2267,-32.12809361993498
-0.22770000000000012,-32.24127052392419
-0.22870000000000001,-32.52421278389719
-0.22970000000000013,-32.892037721862096
-0.23070000000000002,-33.06180307784591
-0.23170000000000013,-33.25986265982701
-0.23270000000000002,-33.670128936787876
-0.23370000000000013,-33.924776970763574
-0.23470000000000002,-34.08039521374873
-0.23570000000000013,-34.44822015171364
-0.23670000000000002,-34.75945663768395
-0.2376999999999999,-34.8867806546718
-0.23870000000000002,-35.21216425364076
-0.2396999999999999,-35.62243053060162
-0.24070000000000003,-35.82049011258273
-0.24169999999999991,-36.07513814655844
-0.24270000000000003,-36.48540442351929
-0.24369999999999992,-36.754199570493654
-0.24470000000000003,-36.92396492647745
-0.24569999999999992,-37.291789864442364
-0.24670000000000003,-37.631320576409976
-0.24769999999999992,-37.758644593397825
-0.24870000000000003,-38.09817530536544
-0.24969999999999992,-38.49429446932764
-0.25070000000000003,-38.664059825311455
-0.2516999999999999,-38.90456074628851
-0.25270000000000004,-39.328974136248014
-0.2536999999999999,-39.56947505722508
-0.25470000000000004,-39.76753463920618
-0.2556999999999999,-40.14950669016974
-0.25670000000000004,-40.503184515136
-0.25769999999999993,-40.65880275812115
-0.25870000000000004,-40.95589213109281
-0.25969999999999993,-41.39445263405098
-0.26070000000000004,-41.59251221603208
-0.26169999999999993,-41.81886602401048
-0.26270000000000004,-42.28572075296594
-0.26369999999999993,-42.51207456094435
-0.26470000000000005,-42.681839916928155
-0.26569999999999994,-43.06381196789171
-0.26670000000000005,-43.41748979285798
-0.26769999999999994,-43.57310803584313
-0.26870000000000005,-43.91263874781074
-0.26969999999999994,-44.36534636376755
-0.27070000000000005,-44.591700171745956
-0.27169999999999994,-44.84634820572166
-0.27270000000000005,-45.32735004767578
-0.27369999999999994,-45.63858653364609
-0.27470000000000006,-45.85079322862584
-0.27569999999999995,-46.3176479575813
-0.27670000000000006,-46.72791423454216
-0.27769999999999995,-46.92597381652327
-0.27870000000000006,-47.32209298048547
-0.27969999999999995,-47.80309482243959
-0.28070000000000006,-48.04359574341665
-0.28169999999999995,-48.3406851163883
-0.28270000000000006,-48.83583407134107
-0.28369999999999995,-49.16121767031002
-0.28470000000000006,-49.41586570428573
-0.28569999999999995,-49.89686754623985
-0.28670000000000007,-50.34957516219666
-0.28769999999999996,-50.59007608317371
-0.28870000000000007,-51.000342360134574
-0.28969999999999996,-51.52378554108463
-0.29070000000000007,-51.82087491405629
-0.29169999999999996,-52.14625851302525
-0.29270000000000007,-52.68384880697396
-0.29369999999999996,-53.051673744938874
-0.2947000000000001,-53.348763117910536
-0.29569999999999996,-53.84391207286329
-0.2967000000000001,-54.324913914817415
-0.29769999999999996,-54.60785617479041
-0.2987000000000001,-55.046416677748574
-0.29969999999999997,-55.612301197694585
-0.3007000000000001,-55.9235376836649
-0.30169999999999997,-56.26306839563251
-0.3027000000000001,-56.84310002857717
-0.30369999999999997,-57.23921919253939
-0.3047000000000001,-57.564602791508335
-0.30569999999999997,-58.116340198455696
-0.3067000000000001,-58.63978337940577
-0.3077,-58.97931409137338
-0.3087000000000001,-59.47446304632614
-0.3097,-60.08278890526811
-0.3107000000000001,-60.46476095623167
-0.3117,-60.86088012019388
-0.3127000000000001,-61.46920597913584
-0.3137,-61.95020782108996
-0.3147000000000001,-62.28973853305756
-0.3157,-62.91221150499819
-0.3167000000000001,-63.5063902509415
-0.3177,-63.902509414903705
-0.3187000000000001,-64.48254104784839
-0.3197,-65.14745535878494
-0.3207000000000001,-65.5860158617431
-0.3217,-66.05287059069857
-0.3227000000000001,-66.71778490163513
-0.3237,-67.2695223085825
-0.3247000000000001,-67.6656414725447
-0.3257,-68.34470289647993
-0.3267000000000001,-69.0096172074165
-0.3277,-69.47647193637195
-0.3287000000000001,-70.09894490831257
-0.3297,-70.8345947842424
-0.3307000000000001,-71.32974373919515
-0.3317,-71.86733403314386
-0.3327000000000001,-72.63127813507097
-0.3337,-73.2537511070116
-0.3347000000000001,-73.77719428796166
-0.3357,-74.54113838988879
-0.3367000000000001,-75.2767882658186
-0.3377,-75.78608433377002
-0.3387000000000001,-76.45099864470659
-0.3397,-77.22908985963235
-0.3407000000000001,-77.76668015358106
-0.3417,-78.36085889952437
-0.3427000000000001,-79.1530972274488
-0.3437,-79.83215865138402
-0.3447000000000001,-80.38389605833139
-0.3457,-81.16198727325715
-0.3467000000000001,-81.92593137518428
-0.3477,-82.46352166913299
-0.3487000000000001,-83.1708773190655
-0.3497,-84.01970409898453
-0.3507000000000001,-84.64217707092514
-0.3517,-85.30709138186171
-0.3527000000000001,-86.21250661377533
-0.3537,-86.91986226370786
-0.3547000000000001,-87.49989389665252
-0.3557,-88.36286778957019
-0.35670000000000013,-89.21169456948921
-0.3577,-89.87660888042578
-0.35870000000000013,-90.71128854734616
-0.3597,-91.67329223125436
-0.36070000000000013,-92.40894210718419
-0.3617,-93.17288620911131
-0.3626999999999999,-94.14903700601819
-0.3637,-94.98371667293856
-0.3646999999999999,-95.70521943586974
-0.3657,-96.66722311977794
-0.3666999999999999,-97.6575210296835
-0.3677,-98.40731801861195
-0.3686999999999999,-99.31273325052557
-0.36970000000000003,-100.34547249942706
-0.3706999999999999,-101.13771082735147
-0.37170000000000003,-101.94409626827454
-0.3726999999999999,-102.99098263017467
-0.37370000000000003,-103.86810363609099
-0.3746999999999999,-104.64619485101677
-0.37570000000000003,-105.66478698691958
-0.3766999999999999,-106.66923200982377
-0.37770000000000004,-107.4614703377482
-0.3786999999999999,-108.39517979565912
-0.37970000000000004,-109.44206615755924
-0.3806999999999999,-110.2484515984823
-0.38170000000000004,-111.22460239538917
-0.38269999999999993,-112.37051854827988
-0.38370000000000004,-113.27593378019348
-0.38469999999999993,-114.0681721081179
-0.38570000000000004,-115.08676424402073
-0.38669999999999993,-114.0398778821206
-0.38570000000000004,-110.88507168342157
-0.38469999999999993,-108.49420958664966
-0.38370000000000004,-106.55605510583456
-0.38269999999999993,-104.56131217302486
-0.38170000000000004,-102.66559903120572
-0.3806999999999999,-101.08112237535688
-0.37970000000000004,-99.39761592851748
-0.3786999999999999,-97.61507969068752
-0.37770000000000004,-96.10133859983195
-0.3766999999999999,-94.64418596097094
-0.37570000000000003,-93.04556219212347
-0.3746999999999999,-91.58840955326248
-0.37370000000000003,-90.31516938338393
-0.3726999999999999,-88.80142829252836
-0.37170000000000003,-87.33012854066871
-0.3706999999999999,-86.14177104878208
-0.36970000000000003,-84.78364820091166
-0.3686999999999999,-83.29820133605335
-0.3677,-82.08154961816942
-0.3666999999999999,-80.87904501328414
-0.3657,-79.47848082641775
-0.3646999999999999,-78.20524065653922
-0.3637,-77.08761872964584
-0.3626999999999999,-75.77193722077136
-0.3617,-74.45625571189689
-0.36070000000000013,-73.38107512399945
-0.3597,-72.16442340611552
-0.35870000000000013,-70.79215344524643
-0.3577,-69.6320901793571
-0.35670000000000013,-68.35885000947859
-0.3557,-67.07146272660138
-0.3547000000000001,-65.93969368670936
-0.3537,-64.97769000280114
-0.3527000000000001,-63.7044498329226
-0.3517,-62.53023945403463
-0.3507000000000001,-61.58238288312505
-0.3497,-60.39402539123842
-0.3487000000000001,-59.02175543036933
-0.3477,-58.031457520463796
-0.3467000000000001,-57.06945383655558
-0.3457,-55.8669492316703
-0.3447000000000001,-54.84835709576747
-0.3437,-53.985383202849796
-0.3427000000000001,-52.896055501953725
-0.3417,-51.83502202705494
-0.3407000000000001,-50.98619524713592
-0.3397,-49.98175022423175
-0.3387000000000001,-48.87827541033702
-0.3377,-48.001154404420696
-0.3367000000000001,-47.12403339850438
-0.3357,-46.048852810606945
-0.3347000000000001,-45.143437578693316
-0.3337,-44.33705213777025
-0.3327000000000001,-43.34675422786472
-0.3317,-42.34230920496055
-0.3307000000000001,-41.57836510303343
-0.3297,-40.6729498711198
-0.3287000000000001,-39.66850484821563
-0.3277,-38.90456074628851
-0.3267000000000001,-38.12646953136274
-0.3257,-37.15031873445586
-0.3247000000000001,-36.329786180534136
-0.3237,-35.636577643600276
-0.3227000000000001,-34.731162411686654
-0.3217,-33.839894292771675
-0.3207000000000001,-33.14668575583781
-0.3197,-32.354447427913385
-0.3187000000000001,-31.392443744005163
-0.3177,-30.685088094072643
-0.3167000000000001,-29.977732444140123
-0.3157,-29.058170099227848
-0.3147000000000001,-28.308373110299385
-0.3137,-27.671753025360115
-0.3127000000000001,-26.766337793446493
-0.3117,-25.959952352523427
-0.3107000000000001,-25.36577360658011
-0.3097,-24.64427084364894
-0.3087000000000001,-23.767149837732617
-0.3077,-23.13052975279335
-0.3067000000000001,-22.508056780852733
-0.30569999999999997,-21.67337711393236
-0.3047000000000001,-20.980168576998494
-0.30369999999999997,-20.456725396048434
-0.3027000000000001,-19.70692840711996
-0.30169999999999997,-18.94298430519284
-0.3007000000000001,-18.433688237241427
-0.29969999999999997,-17.76877392630486
-0.2987000000000001,-16.99068271137909
-0.29769999999999996,-16.453092417430376
-0.2967000000000001,-15.91550212348166
-0.29569999999999996,-15.165705134553193
-0.2947000000000001,-14.557379275611227
-0.29369999999999996,-14.124477617852525
-0.29270000000000007,-13.451075039116768
-0.29169999999999996,-12.772013615181551
-0.29070000000000007,-12.343356091322446
-0.28969999999999996,-11.756250901878454
-0.28870000000000007,-11.038992272846881
-0.28769999999999996,-10.582040522990475
-0.28670000000000007,-10.101038681036362
-0.28569999999999995,-9.419147834501414
-0.28470000000000006,-8.880142829252835
-0.28369999999999995,-8.489682510490084
-0.28270000000000006,-7.891259630647174
-0.28169999999999995,-7.275860215205883
-0.28070000000000006,-6.906620565941108
-0.27969999999999995,-6.414301033588076
-0.27870000000000006,-5.766363258249889
-0.27769999999999995,-5.371658805587544
-0.27670000000000006,-4.976954352925199
-0.27569999999999995,-4.357310803584314
-0.27470000000000006,-3.884797229429391
-0.27369999999999994,-3.562243053060162
-0.27270000000000005,-3.013335068712528
-0.27169999999999994,-2.4842330425630044
-0.27070000000000005,-2.1687524226931014
-0.26969999999999994,-1.7330213423346699
-0.26870000000000005,-1.152989709390005
-0.26769999999999994,-0.8124686995124906
