Potential V vs RHE, Current mA cm-2
0.013299999999999867,-0.26384365742482935
0.012299999999999978,-2.706342716641815
0.011299999999999866,-4.843971490737885
0.010299999999999976,-6.806176063650692
0.009299999999999864,-8.68208324727173
0.008299999999999974,-10.382566229709504
0.007299999999999862,-11.952895772559694
0.006299999999999972,-13.436927926118118
0.00529999999999986,-14.826174422585586
0.0042999999999999705,-16.184297270456018
0.0032999999999998586,-17.4433903273359
0.0022999999999999687,-18.716630497214435
0.0012999999999998568,-19.93328221509837
0.00029999999999996696,-21.065051254990397
-0.000700000000000145,-22.196820294882425
-0.0017000000000000348,-23.342736447773106
-0.0027000000000001467,-24.34718147067728
-0.0037000000000000366,-25.337479380582806
-0.0047000000000001485,-26.17215904750318
-0.005700000000000038,-27.049280053419505
-0.00670000000000015,-27.827371268345274
-0.00770000000000004,-28.577168257273744
-0.008700000000000152,-29.31281813320356
-0.009700000000000042,-30.00602667013743
-0.010700000000000154,-30.71338232006995
-0.011700000000000044,-31.449032195999767
-0.012700000000000156,-32.09979939393769
-0.013700000000000045,-32.764713704874254
-0.014700000000000157,-33.45792224180811
-0.015700000000000047,-34.02380676175414
-0.01670000000000016,-34.632132620696105
-0.01770000000000005,-35.15557580164616
-0.01870000000000016,-35.636577643600276
-0.01970000000000005,-36.11757948555439
-0.020700000000000163,-36.55613998851254
-0.021700000000000053,-36.95225915247476
-0.022700000000000164,-37.376672542434264
-0.023700000000000054,-37.73035036740053
-0.024700000000000166,-38.211352209354644
-0.025700000000000056,-38.6499127123128
-0.026700000000000168,-39.08847321527096
-0.027700000000000058,-39.47044526623452
-0.02870000000000017,-39.86656443019674
-0.02970000000000006,-40.220242255162994
-0.03070000000000017,-40.616361419125205
-0.03170000000000006,-40.87100945310091
-0.03270000000000017,-41.182245939071215
-0.03370000000000006,-41.43689397304693
-0.034700000000000175,-41.66324778102533
-0.035700000000000065,-41.91789581500104
-0.03670000000000018,-42.186690961975394
-0.03770000000000007,-42.39889765695515
-0.03870000000000018,-42.71013414292546
-0.03970000000000007,-42.96478217690117
-0.04070000000000018,-43.27601866287147
-0.04170000000000007,-43.57310803584313
-0.04270000000000018,-43.79946184382153
-0.04370000000000007,-44.054109877797245
-0.044700000000000184,-44.223875233781044
-0.045700000000000074,-44.36534636376755
-0.046700000000000186,-44.535111719751356
-0.047700000000000076,-44.66243573673921
-0.04870000000000019,-44.84634820572166
-0.04970000000000008,-45.01611356170547
-0.05070000000000019,-45.143437578693316
-0.05170000000000008,-45.32735004767578
-0.05270000000000019,-45.53955674265553
-0.05370000000000008,-45.75176343763528
-0.05470000000000019,-45.97811724561369
-0.05570000000000008,-46.10544126260155
-0.056700000000000195,-46.27520661858535
-0.057700000000000085,-46.41667774857186
-0.058700000000000196,-46.501560426563756
-0.059700000000000086,-46.628884443551605
-0.0607000000000002,-46.713767121543505
-0.06170000000000009,-46.79864979953541
-0.0627000000000002,-46.94012092952192
-0.06370000000000009,-46.982562268517874
-0.0647000000000002,-47.15232762450167
-0.06570000000000009,-47.27965164148953
-0.0667000000000002,-47.40697565847737
-0.0677000000000001,-47.590888127459834
-0.0687000000000002,-47.71821214444768
-0.0697000000000001,-47.84553616143554
-0.07070000000000021,-47.987007291422046
-0.0717000000000001,-48.029448630417996
-0.07270000000000021,-48.114331308409895
-0.0737000000000001,-48.156772647405845
-0.07470000000000021,-48.1992139864018
-0.0757000000000001,-48.2840966643937
-0.07670000000000021,-48.32653800338966
-0.0777000000000001,-48.41142068138156
-0.07870000000000021,-48.55289181136806
-0.0797000000000001,-48.63777448935996
-0.08070000000000022,-48.76509850634781
-0.0817000000000001,-48.93486386233162
-0.08270000000000022,-49.03389365332217
-0.08370000000000011,-49.16121767031002
-0.08470000000000022,-49.16121767031002
-0.08570000000000011,-49.20365900930597
-0.08670000000000022,-49.24610034830193
-0.08770000000000011,-49.28854168729788
-0.08870000000000022,-49.33098302629383
-0.08970000000000011,-49.373424365289786
-0.09070000000000022,-49.41586570428573
-0.09170000000000011,-49.50074838227763
-0.09270000000000023,-49.642219512264134
-0.09370000000000012,-49.72710219025603
-0.09470000000000023,-49.89686754623985
-0.09570000000000012,-49.98175022423175
-0.09670000000000023,-50.0807800152223
-0.09770000000000012,-50.0807800152223
-0.09870000000000023,-50.1656626932142
-0.09970000000000012,-50.1656626932142
-0.10070000000000023,-50.20810403221015
-0.10170000000000012,-50.20810403221015
-0.10270000000000024,-50.2505453712061
-0.10370000000000013,-50.29298671020206
-0.10470000000000024,-50.37786938819396
-0.10570000000000013,-50.46275206618586
-0.10670000000000024,-50.60422319617236
-0.10770000000000013,-50.73154721316022
-0.10870000000000024,-50.81642989115212
-0.10970000000000013,-50.90131256914402
-0.11070000000000024,-50.98619524713592
-0.11170000000000013,-51.028636586131874
-0.11270000000000002,-51.071077925127824
-0.11370000000000013,-51.071077925127824
-0.11470000000000002,-51.071077925127824
-0.11570000000000014,-51.127666377122424
-0.11670000000000003,-51.17010771611838
-0.11770000000000014,-51.25499039411028
-0.11870000000000003,-51.38231441109813
-0.11970000000000014,-51.46719708909004
-0.12070000000000003,-51.594521106077885
-0.12170000000000014,-51.73599223606439
-0.12270000000000003,-51.82087491405629
-0.12370000000000014,-51.90575759204819
-0.12470000000000003,-51.990640270040096
-0.12570000000000014,-52.033081609036046
-0.12670000000000003,-52.033081609036046
-0.12770000000000015,-52.075522948032
-0.12870000000000004,-52.11796428702795
-0.12970000000000015,-52.25943541701445
-0.13070000000000004,-52.25943541701445
-0.13170000000000015,-52.386759434002315
-0.13270000000000004,-52.471642111994214
-0.13370000000000015,-52.64140746797801
-0.13470000000000004,-52.78287859796452
-0.13570000000000015,-52.86776127595642
-0.13670000000000004,-52.995085292944275
-0.13770000000000016,-53.079967970936174
-0.13870000000000005,-53.12240930993213
-0.13970000000000016,-53.22143910092268
-0.14070000000000005,-53.26388043991864
-0.14170000000000016,-53.26388043991864
-0.14270000000000005,-53.348763117910536
-0.14370000000000016,-53.348763117910536
-0.14470000000000005,-53.518528473894335
-0.14570000000000016,-53.64585249088219
-0.14670000000000005,-53.74488228187274
-0.14770000000000016,-53.91464763785655
-0.14870000000000005,-54.0419716548444
-0.14970000000000017,-54.16929567183226
-0.15070000000000006,-54.31076680181876
-0.15170000000000017,-54.39564947981066
-0.15270000000000006,-54.480532157802564
-0.15370000000000017,-54.52297349679851
-0.15470000000000006,-54.56541483579447
-0.15570000000000017,-54.65029751378637
-0.15670000000000006,-54.73518019177827
-0.15770000000000017,-54.876651321764776
-0.15870000000000006,-55.003975338752625
-0.15970000000000018,-55.088858016744524
-0.16070000000000007,-55.31521182472294
-0.16170000000000018,-55.484977180706736
-0.16270000000000007,-55.612301197694585
-0.16370000000000018,-55.7820665536784
-0.16470000000000007,-55.9235376836649
-0.16570000000000018,-56.008420361656796
-0.16670000000000007,-56.093303039648696
-0.16770000000000018,-56.1781857176406
-0.16870000000000007,-56.22062705663656
-0.16970000000000018,-56.36209818662306
-0.17070000000000007,-56.44698086461496
-0.17170000000000019,-56.61674622059877
-0.17270000000000008,-56.74407023758662
-0.1737000000000002,-56.927982706569075
-0.17470000000000008,-57.14018940154883
-0.1757000000000002,-57.26751341853669
-0.17670000000000008,-57.408984548523186
-0.1777000000000002,-57.57874990450699
-0.17870000000000008,-57.66363258249889
-0.1797000000000002,-57.79095659948675
-0.18070000000000008,-57.87583927747865
-0.1817000000000002,-57.974869068469204
-0.18270000000000008,-58.10219308545706
-0.1837000000000002,-58.22951710244491
-0.1847000000000001,-58.39928245842871
-0.1857000000000002,-58.62563626640712
-0.1867000000000001,-58.83784296138688
-0.1877000000000002,-59.02175543036933
-0.1887000000000001,-59.23396212534908
-0.1897000000000002,-59.403727481332886
-0.1907000000000001,-59.6300812893113
-0.1917000000000001,-59.757405306299155
-0.19269999999999998,-59.92717066228296
-0.1937000000000001,-60.06864179226946
-0.19469999999999998,-60.15352447026136
-0.1957000000000001,-60.32328982624517
-0.19669999999999999,-60.49305518222897
-0.1977000000000001,-60.67696765121143
-0.1987,-60.889174346191176
-0.1997000000000001,-61.11552815416958
-0.2007,-61.327734849149344
-0.2017000000000001,-61.5965299961237
-0.2027,-61.80873669110345
-0.2037000000000001,-62.02094338608321
-0.2047,-62.16241451606972
-0.2057000000000001,-62.28973853305756
-0.2067,-62.501945228037314
-0.2077000000000001,-62.58682790602922
-0.2087,-62.77074037501168
-0.2097000000000001,-62.94050573099548
-0.2107,-63.15271242597524
-0.2117000000000001,-63.37906623395363
-0.2127,-63.59127292893339
-0.2137000000000001,-63.860068075907755
-0.2147,-64.11471610988345
-0.2157000000000001,-64.46839393484973
-0.2167,-64.68060062982947
-0.21770000000000012,-64.90695443780788
-0.2187,-65.03427845479574
-0.21970000000000012,-65.2464851497755
-0.2207,-65.43039761875795
-0.22170000000000012,-65.5577216357458
-0.2227,-65.82651678272015
-0.22370000000000012,-65.99628213870396
-0.2247,-66.29337151167562
-0.22570000000000012,-66.56216665864997
-0.2267,-66.81681469262568
-0.22770000000000012,-67.08560983960004
-0.22870000000000001,-67.39684632557035
-0.22970000000000013,-67.65149435954605
-0.23070000000000002,-67.9202895065204
-0.23170000000000013,-68.17493754049613
-0.23270000000000002,-68.38714423547587
-0.23370000000000013,-68.57105670445833
-0.23470000000000002,-68.74082206044213
-0.23570000000000013,-69.0096172074165
-0.23670000000000002,-69.26426524139221
-0.2376999999999999,-69.53306038836655
-0.23870000000000002,-69.8301497613382
-0.2396999999999999,-70.09894490831257
-0.24070000000000003,-70.43847562028017
-0.24169999999999991,-70.79215344524643
-0.24270000000000003,-71.06094859222078
-0.24369999999999992,-71.4004793041884
-0.24470000000000003,-71.66927445116276
-0.24569999999999992,-71.92392248513846
-0.24670000000000003,-72.19271763211282
-0.24769999999999992,-72.40492432709259
-0.24870000000000003,-72.71616081306288
-0.24969999999999992,-72.97080884703858
-0.25070000000000003,-73.23960399401295
-0.2516999999999999,-73.57913470598055
-0.25270000000000004,-73.89037119195086
-0.2536999999999999,-74.28649035591307
-0.25470000000000004,-74.66846240687663
-0.2556999999999999,-74.97969889284694
-0.25670000000000004,-75.33337671781321
-0.25769999999999993,-75.63046609078486
-0.25870000000000004,-75.94170257675518
-0.25969999999999993,-76.19635061073087
-0.26070000000000004,-76.55002843569714
-0.26169999999999993,-76.81882358267148
-0.26270000000000004,-77.11591295564315
-0.26369999999999993,-77.38470810261751
-0.26470000000000005,-77.76668015358106
-0.26569999999999994,-78.16279931754329
-0.26670000000000005,-78.60135982050144
-0.26769999999999994,-78.99747898446365
-0.26870000000000005,-79.37945103542721
-0.26969999999999994,-79.73312886039348
-0.27070000000000005,-80.12924802435568
-0.27169999999999994,-80.46877873632329
-0.27270000000000005,-80.7800152222936
-0.27369999999999994,-81.09125170826391
-0.27470000000000006,-81.38834108123557
-0.27569999999999995,-81.74201890620182
-0.27670000000000006,-82.09569673116808
-0.27769999999999995,-82.43522744313569
-0.27870000000000006,-82.87378794609386
-0.27969999999999995,-83.26990711005605
-0.28070000000000006,-83.70846761301424
-0.28169999999999995,-84.13288100297372
-0.28270000000000006,-84.52900016693594
-0.28369999999999995,-84.96756066989411
-0.28470000000000006,-85.32123849486035
-0.28569999999999995,-85.70321054582392
-0.28670000000000007,-86.09932970978613
-0.28769999999999996,-86.41056619575643
-0.28870000000000007,-86.80668535971866
-0.28969999999999996,-87.18865741068221
-0.29070000000000007,-87.58477657464444
-0.29169999999999996,-88.02333707760259
-0.29270000000000007,-88.5043389195567
-0.29369999999999996,-88.9853407615108
-0.2947000000000001,-89.46634260346492
-0.29569999999999996,-89.98978578441499
-0.2967000000000001,-90.41419917437449
-0.29769999999999996,-90.85275967733266
-0.2987000000000001,-91.24887884129487
-0.29969999999999997,-91.72988068324898
-0.3007000000000001,-92.12599984721119
-0.30169999999999997,-92.50797189817473
-0.3027000000000001,-92.98897374012887
-0.30369999999999997,-93.38509290409107
-0.3047000000000001,-93.90853608504113
-0.30569999999999997,-94.38953792699526
-0.3067000000000001,-94.91298110794531
-0.3077,-95.43642428889537
-0.3087000000000001,-95.95986746984543
-0.3097,-96.4833106507955
-0.3107000000000001,-97.00675383174556
-0.3117,-97.44531433470372
-0.3127000000000001,-97.92631617665783
-0.3137,-98.3082882276214
-0.3147000000000001,-98.7892900695755
-0.3157,-99.27029191152963
-0.3167000000000001,-99.70885241448778
-0.3177,-100.23229559543785
-0.3187000000000001,-100.84062145437981
-0.3197,-101.3640646353299
-0.3207000000000001,-101.97239049427183
-0.3217,-102.59486346621246
-0.3227000000000001,-103.11830664716253
-0.3237,-103.68419116710854
-0.3247000000000001,-104.2076343480586
-0.3257,-104.73107752900866
-0.3267000000000001,-105.29696204895468
-0.3277,-105.7779638909088
-0.3287000000000001,-106.30140707185885
-0.3297,-106.82485025280893
-0.3307000000000001,-107.34829343375898
-0.3317,-107.99906063169689
-0.3327000000000001,-108.60738649063886
-0.3337,-109.25815368857677
-0.3347000000000001,-109.92306799951335
-0.3357,-110.53139385845533
-0.3367000000000001,-111.18216105639323
-0.3377,-111.7904869153352
-0.3387000000000001,-112.3563714352812
-0.3397,-113.00713863321914
-0.3407000000000001,-113.58717026616378
-0.3417,-114.1530547861098
-0.3427000000000001,-114.76138064505177
-0.3437,-115.36970650399375
-0.3447000000000001,-116.06291504092759
-0.3457,-116.72782935186417
-0.3467000000000001,-117.42103788879804
-0.3477,-118.11424642573192
-0.3487000000000001,-118.82160207566443
-0.3497,-119.47236927360234
-0.3507000000000001,-120.20801914953216
-0.3517,-120.81634500847414
-0.3527000000000001,-121.48125931941068
-0.3537,-122.1320265173486
-0.3547000000000001,-122.74035237629057
-0.3557,-123.39111957422851
-0.35670000000000013,-124.09847522416102
-0.3577,-124.7916837610949
-0.35870000000000013,-125.56977497602065
-0.3597,-126.27713062595316
-0.36070000000000013,-127.09766317987489
-0.3617,-127.93234284679528
-0.3626999999999999,-128.71043406172103
-0.3637,-129.4602310506495
-0.3646999999999999,-130.19588092657932
-0.3657,-130.9456779155078
-0.3666999999999999,-131.68132779143764
-0.3677,-132.41697766736743
-0.3686999999999999,-133.1667746562959
-0.36970000000000003,-133.94486587122168
-0.3706999999999999,-134.73710419914607
-0.37170000000000003,-135.5576367530678
-0.3726999999999999,-136.3923164199882
-0.37370000000000003,-137.2694374259045
-0.3746999999999999,-138.13241131882216
-0.37570000000000003,-138.96709098574257
-0.3766999999999999,-139.84421199165885
-0.37770000000000004,-140.66474454558062
-0.3786999999999999,-141.456982873505
-0.37970000000000004,-142.31995676642268
-0.3806999999999999,-143.16878354634173
-0.38170000000000004,-143.87613919627424
-0.38269999999999993,-144.86643710617977
-0.38370000000000004,-145.57379275611228
-0.38469999999999993,-146.5640906660178
-0.38570000000000004,-147.4129174459368
-0.38669999999999993,-146.5640906660178
-0.38570000000000004,-142.7443701563822
-0.38469999999999993,-139.22173901971826
-0.38370000000000004,-136.03863859502192
-0.38269999999999993,-133.03945063930803
-0.38170000000000004,-130.1534395875834
-0.3806999999999999,-127.4088996658452
-0.37970000000000004,-124.70680108310299
-0.3786999999999999,-122.1320265173486
-0.37770000000000004,-119.68457596858211
-0.3766999999999999,-117.33615521080614
-0.37570000000000003,-115.05847001802343
-0.3746999999999999,-112.83737327723534
-0.37370000000000003,-110.74360055343507
-0.3726999999999999,-108.69226916863077
-0.37170000000000003,-106.73996757481702
-0.3706999999999999,-104.77351886800463
-0.36970000000000003,-102.80707016119221
-0.3686999999999999,-100.79818011538387
-0.3677,-98.83173140857146
-0.3666999999999999,-97.00675383174556
-0.3657,-95.08274646392913
-0.3646999999999999,-93.25776888710321
-0.3637,-91.46108553627462
-0.3626999999999999,-89.72099063744062
-0.3617,-87.98089573860662
-0.36070000000000013,-86.32568351776455
-0.3597,-84.6563241839238
-0.35870000000000013,-83.08599464107361
-0.3577,-81.51566509822342
-0.35670000000000013,-79.94533555537322
-0.3557,-78.33256467352709
-0.3547000000000001,-76.71979379168094
-0.3537,-75.14946424883075
-0.3527000000000001,-73.57913470598055
-0.3517,-72.00880516313036
-0.3507000000000001,-70.48091695927613
-0.3497,-68.96717586842054
-0.3487000000000001,-67.52417034255821
-0.3477,-66.08116481669586
-0.3467000000000001,-64.68060062982947
-0.3457,-63.29418355596174
-0.3447000000000001,-61.97850204708726
-0.3437,-60.59208497321952
-0.3427000000000001,-59.23396212534908
-0.3417,-57.8333979384827
-0.3407000000000001,-56.44698086461496
-0.3397,-55.046416677748574
-0.3387000000000001,-53.64585249088219
-0.3377,-52.30187675601041
-0.3367000000000001,-50.98619524713592
-0.3357,-49.68466085126009
-0.3347000000000001,-48.45386202037751
-0.3337,-47.23721030249357
-0.3327000000000001,-46.02055858460964
-0.3317,-44.84634820572166
-0.3307000000000001,-43.61554937483908
-0.3297,-42.4413389959511
-0.3287000000000001,-41.22468727806717
-0.3277,-39.99388844718459
-0.3267000000000001,-38.777236729300654
-0.3257,-37.60302635041268
-0.3247000000000001,-36.37222751953009
-0.3237,-35.198017140642115
-0.3227000000000001,-34.02380676175414
-0.3217,-32.93447906085806
-0.3207000000000001,-31.802710020966025
-0.3197,-30.7558236590659
-0.3187000000000001,-29.708937297165768
-0.3177,-28.662050935265643
-0.3167000000000001,-27.615164573365515
-0.3157,-26.525836872469437
-0.3147000000000001,-25.43650917157336
-0.3137,-24.34718147067728
-0.3127000000000001,-23.24370665678255
-0.3117,-22.15437895588647
-0.3107000000000001,-21.107492593986347
-0.3097,-20.01816489309027
-0.3087000000000001,-19.056161209182044
-0.3077,-18.15074597726842
-0.3067000000000001,-17.188742293360193
-0.30569999999999997,-16.269179948447924
-0.3047000000000001,-15.307176264539699
-0.30369999999999997,-14.401761032626075
-0.3027000000000001,-13.47936926511407
-0.30169999999999997,-12.520195003805576
-0.3007000000000001,-11.56102074249708
-0.29969999999999997,-10.557990430892769
-0.2987000000000001,-9.59740145828441
-0.29769999999999996,-8.638227196975913
-0.2967000000000001,-7.722908985963235
-0.29569999999999996,-6.850032113946507
-0.2947000000000001,-6.021011292225596
-0.29369999999999996,-5.149549131508733
-0.29270000000000007,-4.276672259492005
-0.29169999999999996,-3.5353635383627267
-0.29070000000000007,-2.706342716641815
-0.28969999999999996,-1.92117794521672
-0.28870000000000007,-1.0490084288499246
-0.28769999999999996,-0.1766974413531431
-0.28670000000000007,0.6956135461436386
-0.28569999999999995,1.5250587812545096
-0.28470000000000006,2.352664891675556
-0.28369999999999995,3.1816857133964676
-0.28270000000000006,3.9668504848215624
-0.28169999999999995,4.752015256246658
-0.28070000000000006,5.449467927080121
-0.27969999999999995,6.1907766482094
-0.27870000000000006,6.889644030342729
-0.27769999999999995,7.630952751472008
-0.27670000000000006,8.328405422305472
-0.27569999999999995,9.06971414343475
-0.27470000000000006,9.811022864564029
-0.27369999999999994,10.553746296993173
-0.27270000000000005,11.33891106841827
-0.27169999999999994,12.122661128543498
-0.27070000000000005,12.821528510676828
-0.26969999999999994,13.518981181510291
-0.26870000000000005,14.175407224647667
-0.26769999999999994,14.826174422585586
-0.26670000000000005,15.4769416205235
-0.26569999999999994,16.099414592464115
-0.26470000000000005,16.70774045140608
