Potential V vs RHE, Current mA cm-2
0.013299999999999867,-0.08943804837746762
0.012299999999999978,-2.3569090255751513
0.011299999999999866,-4.364384360083638
0.010299999999999976,-6.152579443113044
0.009299999999999864,-7.7653503249591855
0.008299999999999974,-9.205526428221793
0.007299999999999862,-10.470278330301136
0.006299999999999972,-11.647318131788847
0.00529999999999986,-12.781916594280606
0.0042999999999999705,-13.916515056772363
0.0032999999999998586,-14.967645552572087
0.0022999999999999687,-15.972090575476265
0.0012999999999998568,-16.835064468393938
0.00029999999999996696,-17.584861457322408
-0.000700000000000145,-18.320511333252224
-0.0017000000000000348,-18.92883719219419
-0.0027000000000001467,-19.537163051136158
-0.0037000000000000366,-20.244518701068674
-0.0047000000000001485,-20.85284456001064
-0.005700000000000038,-21.54605309694451
-0.00670000000000015,-22.069496277894572
-0.00770000000000004,-22.550498119848687
-0.008700000000000152,-22.989058622806844
-0.009700000000000042,-23.342736447773106
-0.010700000000000154,-23.724708498736668
-0.011700000000000044,-24.120827662698876
-0.012700000000000156,-24.559388165657033
-0.013700000000000045,-24.997948668615198
-0.014700000000000157,-25.39406783257741
-0.015700000000000047,-25.691157205549064
-0.01670000000000016,-25.959952352523427
-0.01770000000000005,-26.129717708507226
-0.01870000000000016,-26.38436574248293
-0.01970000000000005,-26.61071955046134
-0.020700000000000163,-26.907808923433
-0.021700000000000053,-27.219045409403304
-0.022700000000000164,-27.487840556377662
-0.023700000000000054,-27.742488590353368
-0.024700000000000166,-27.869812607341224
-0.025700000000000056,-28.011283737327723
-0.026700000000000168,-28.09616641531963
-0.027700000000000058,-28.265931771303435
-0.02870000000000017,-28.435697127287238
-0.02970000000000006,-28.662050935265643
-0.03070000000000017,-28.91669896924135
-0.03170000000000006,-29.100611438223805
-0.03270000000000017,-29.18549411621571
-0.03370000000000006,-29.31281813320356
-0.034700000000000175,-29.31281813320356
-0.035700000000000065,-29.39770081119546
-0.03670000000000018,-29.525024828183312
-0.03770000000000007,-29.708937297165768
-0.03870000000000018,-29.921143992145527
-0.03970000000000007,-30.00602667013743
-0.04070000000000018,-30.189939139119886
-0.04170000000000007,-30.232380478115836
-0.04270000000000018,-30.232380478115836
-0.04370000000000007,-30.274821817111786
-0.044700000000000184,-30.317263156107735
-0.045700000000000074,-30.444587173095588
-0.046700000000000186,-30.571911190083444
-0.047700000000000076,-30.71338232006995
-0.04870000000000019,-30.8407063370578
-0.04970000000000008,-30.88314767605375
-0.05070000000000019,-30.88314767605375
-0.05170000000000008,-30.88314767605375
-0.05270000000000019,-30.88314767605375
-0.05370000000000008,-31.010471693041605
-0.05470000000000019,-31.095354371033505
-0.05570000000000008,-31.27926684001596
-0.056700000000000195,-31.36414951800786
-0.057700000000000085,-31.36414951800786
-0.058700000000000196,-31.36414951800786
-0.059700000000000086,-31.36414951800786
-0.0607000000000002,-31.36414951800786
-0.06170000000000009,-31.449032195999767
-0.0627000000000002,-31.533914873991666
-0.06370000000000009,-31.661238890979522
-0.0647000000000002,-31.76026868197007
-0.06570000000000009,-31.84515135996197
-0.0667000000000002,-31.802710020966025
-0.0677000000000001,-31.802710020966025
-0.0687000000000002,-31.802710020966025
-0.0697000000000001,-31.802710020966025
-0.07070000000000021,-31.887592698957924
-0.0717000000000001,-32.01491671594578
-0.07270000000000021,-32.14224073293363
-0.0737000000000001,-32.184682071929586
-0.07470000000000021,-32.184682071929586
-0.0757000000000001,-32.14224073293363
-0.07670000000000021,-32.14224073293363
-0.0777000000000001,-32.14224073293363
-0.07870000000000021,-32.24127052392419
-0.0797000000000001,-32.32615320191609
-0.08070000000000022,-32.45347721890394
-0.0817000000000001,-32.53835989689585
-0.08270000000000022,-32.53835989689585
-0.08370000000000011,-32.53835989689585
-0.08470000000000022,-32.49591855789989
-0.08570000000000011,-32.49591855789989
-0.08670000000000022,-32.53835989689585
-0.08770000000000011,-32.62324257488775
-0.08870000000000022,-32.764713704874254
-0.08970000000000011,-32.84959638286615
-0.09070000000000022,-32.892037721862096
-0.09170000000000011,-32.892037721862096
-0.09270000000000023,-32.84959638286615
-0.09370000000000012,-32.84959638286615
-0.09470000000000023,-32.84959638286615
-0.09570000000000012,-32.93447906085806
-0.09670000000000023,-33.06180307784591
-0.09770000000000012,-33.18912709483376
-0.09870000000000023,-33.231568433829715
-0.09970000000000012,-33.288156885824314
-0.10070000000000023,-33.231568433829715
-0.10170000000000012,-33.231568433829715
-0.10270000000000024,-33.288156885824314
-0.10370000000000013,-33.330598224820264
-0.10470000000000024,-33.45792224180811
-0.10570000000000013,-33.58524625879597
-0.10670000000000024,-33.670128936787876
-0.10770000000000013,-33.712570275783825
-0.10870000000000024,-33.712570275783825
-0.10970000000000013,-33.670128936787876
-0.11070000000000024,-33.712570275783825
-0.11170000000000013,-33.755011614779775
-0.11270000000000002,-33.89648274476628
-0.11370000000000013,-34.02380676175414
-0.11470000000000002,-34.10868943974604
-0.11570000000000014,-34.193572117737936
-0.11670000000000003,-34.193572117737936
-0.11770000000000014,-34.193572117737936
-0.11870000000000003,-34.236013456733886
-0.11970000000000014,-34.236013456733886
-0.12070000000000003,-34.377484586720385
-0.12170000000000014,-34.50480860370825
-0.12270000000000003,-34.632132620696105
-0.12370000000000014,-34.717015298688004
-0.12470000000000003,-34.75945663768395
-0.12570000000000014,-34.75945663768395
-0.12670000000000003,-34.75945663768395
-0.12770000000000015,-34.8018979766799
-0.12870000000000004,-34.90092776767045
-0.12970000000000015,-35.02825178465831
-0.13070000000000004,-35.198017140642115
-0.13170000000000015,-35.32534115762997
-0.13270000000000004,-35.38192960962457
-0.13370000000000015,-35.42437094862052
-0.13470000000000004,-35.42437094862052
-0.13570000000000015,-35.46681228761647
-0.13670000000000004,-35.55169496560837
-0.13770000000000016,-35.679018982596226
-0.13870000000000005,-35.848784338580025
-0.13970000000000016,-35.99025546856653
-0.14070000000000005,-36.11757948555439
-0.14170000000000016,-36.11757948555439
-0.14270000000000005,-36.16002082455034
-0.14370000000000016,-36.20246216354629
-0.14470000000000005,-36.28734484153819
-0.14570000000000016,-36.4288159715247
-0.14670000000000005,-36.5985813275085
-0.14770000000000016,-36.768346683492304
-0.14870000000000005,-36.89567070048016
-0.14970000000000017,-36.95225915247476
-0.15070000000000006,-36.99470049147071
-0.15170000000000017,-37.037141830466666
-0.15270000000000006,-37.122024508458566
-0.15370000000000017,-37.249348525446415
-0.15470000000000006,-37.41911388143023
-0.15570000000000017,-37.60302635041268
-0.15670000000000006,-37.73035036740053
-0.15770000000000017,-37.81523304539243
-0.15870000000000006,-37.90011572338433
-0.15970000000000018,-37.90011572338433
-0.16070000000000007,-37.99914551437489
-0.16170000000000018,-38.12646953136274
-0.16270000000000007,-38.29623488734655
-0.16370000000000018,-38.522588695324956
-0.16470000000000007,-38.734795390304704
-0.16570000000000018,-38.86211940729255
-0.16670000000000007,-38.94700208528445
-0.16770000000000018,-38.98944342428042
-0.16870000000000007,-39.08847321527096
-0.16970000000000018,-39.173355893262865
-0.17070000000000007,-39.38556258824262
-0.17170000000000019,-39.56947505722508
-0.17270000000000008,-39.78168175220483
-0.1737000000000002,-39.95144710818864
-0.17470000000000008,-40.03632978618054
-0.1757000000000002,-40.092918238175145
-0.17670000000000008,-40.220242255162994
-0.1777000000000002,-40.30512493315489
-0.17870000000000008,-40.4748902891387
-0.1797000000000002,-40.701244097117105
-0.18070000000000008,-40.95589213109281
-0.1817000000000002,-41.139804600075266
-0.18270000000000008,-41.267128617063115
-0.1837000000000002,-41.352011295055014
-0.1847000000000001,-41.43689397304693
-0.1857000000000002,-41.56421799003478
-0.1867000000000001,-41.74813045901723
-0.1877000000000002,-42.00277849299294
-0.1887000000000001,-42.229132300971344
-0.1897000000000002,-42.4413389959511
-0.1907000000000001,-42.653545690930855
-0.1917000000000001,-42.752575481921404
-0.19269999999999998,-42.87989949890926
-0.1937000000000001,-43.007223515897124
-0.19469999999999998,-43.134547532884966
-0.1957000000000001,-43.40334267985933
-0.19669999999999999,-43.657990713835034
-0.1977000000000001,-43.88434452181344
-0.1987,-44.138992555789144
-0.1997000000000001,-44.28046368577565
-0.2007,-44.36534636376755
-0.2017000000000001,-44.4926703807554
-0.2027,-44.66243573673921
-0.2037000000000001,-44.88878954471762
-0.2047,-45.143437578693316
-0.2057000000000001,-45.45467406466363
-0.2067,-45.70932209863933
-0.2077000000000001,-45.89323456762179
-0.2087,-46.062999923605595
-0.2097000000000001,-46.19032394059345
-0.2107,-46.37423640957591
-0.2117000000000001,-46.586443104555656
-0.2127,-46.88353247752732
-0.2137000000000001,-47.15232762450167
-0.2147,-47.46356411047198
-0.2157000000000001,-47.71821214444768
-0.2167,-47.8879775004315
-0.21770000000000012,-48.029448630417996
-0.2187,-48.24165532539775
-0.21970000000000012,-48.41142068138156
-0.2207,-48.72265716735186
-0.22170000000000012,-48.97730520132757
-0.2227,-49.33098302629383
-0.22370000000000012,-49.642219512264134
-0.2247,-49.81198486824794
-0.22570000000000012,-50.024191563227696
-0.2267,-50.1656626932142
-0.22770000000000012,-50.42031072718991
-0.22870000000000001,-50.68910587416426
-0.22970000000000013,-51.028636586131874
-0.23070000000000002,-51.38231441109813
-0.23170000000000013,-51.65110955807249
-0.23270000000000002,-51.90575759204819
-0.23370000000000013,-52.11796428702795
-0.23470000000000002,-52.34431809500636
-0.23570000000000013,-52.55652478998611
-0.23670000000000002,-52.86776127595642
-0.2376999999999999,-53.16485064892808
-0.23870000000000002,-53.518528473894335
-0.2396999999999999,-53.872206298860604
-0.24070000000000003,-54.16929567183226
-0.24169999999999991,-54.39564947981066
-0.24270000000000003,-54.60785617479041
-0.24369999999999992,-54.876651321764776
-0.24470000000000003,-55.088858016744524
-0.24569999999999992,-55.484977180706736
-0.24670000000000003,-55.838655005673
-0.24769999999999992,-56.22062705663656
-0.24870000000000003,-56.57430488160282
-0.24969999999999992,-56.82895291557852
-0.25070000000000003,-57.05530672355693
-0.2516999999999999,-57.30995475753264
-0.25270000000000004,-57.62119124350295
-0.2536999999999999,-57.974869068469204
-0.25470000000000004,-58.35684111943277
-0.2556999999999999,-58.75296028339497
-0.25670000000000004,-59.14907944735718
-0.25769999999999993,-59.44616882032884
-0.25870000000000004,-59.7149639673032
-0.25969999999999993,-60.02620045327351
-0.26070000000000004,-60.32328982624517
-0.26169999999999993,-60.67696765121143
-0.26270000000000004,-61.07308681517363
-0.26369999999999993,-61.49750020513315
-0.26470000000000005,-61.89361936909536
-0.26569999999999994,-62.28973853305756
-0.26670000000000005,-62.58682790602922
-0.26769999999999994,-62.89806439199953
-0.26870000000000005,-63.20930087796983
-0.26969999999999994,-63.5063902509415
-0.27070000000000005,-63.944950753899654
-0.27169999999999994,-64.38351125685783
-0.27270000000000005,-64.82207175981598
-0.27369999999999994,-65.20404381077954
-0.27470000000000006,-65.5577216357458
-0.27569999999999995,-65.86895812171612
-0.27670000000000006,-66.20848883368372
-0.27769999999999995,-66.56216665864997
-0.27870000000000006,-66.9582858226122
-0.27969999999999995,-67.43928766456631
-0.28070000000000006,-67.9202895065204
-0.28169999999999995,-68.38714423547587
-0.28270000000000006,-68.74082206044213
-0.28369999999999995,-69.13694122440434
-0.28470000000000006,-69.39158925838004
-0.28569999999999995,-69.78770842234226
-0.28670000000000007,-70.18382758630447
-0.28769999999999996,-70.62238808926263
-0.28870000000000007,-71.1458312702127
-0.28969999999999996,-71.58439177317086
-0.29070000000000007,-72.00880516313036
-0.29169999999999996,-72.36248298809663
-0.29270000000000007,-72.75860215205884
-0.29369999999999996,-73.09813286402644
-0.2947000000000001,-73.53669336698461
-0.29569999999999996,-74.0176952089387
-0.2967000000000001,-74.54113838988879
-0.29769999999999996,-75.06458157083884
-0.2987000000000001,-75.54558341279296
-0.29969999999999997,-75.98414391575112
-0.3007000000000001,-76.33782174071737
-0.30169999999999997,-76.67735245268499
-0.3027000000000001,-77.1583542946391
-0.30369999999999997,-77.63935613659322
-0.3047000000000001,-78.16279931754329
-0.30569999999999997,-78.77112517648524
-0.3067000000000001,-79.25212701843935
-0.3077,-79.73312886039348
-0.3087000000000001,-80.17168936335163
-0.3097,-80.56780852731384
-0.3107000000000001,-80.99222191727335
-0.3117,-81.47322375922747
-0.3127000000000001,-81.99666694017753
-0.3137,-82.61913991211814
-0.3147000000000001,-83.14258309306821
-0.3157,-83.70846761301424
-0.3167000000000001,-84.13288100297372
-0.3177,-84.57144150593189
-0.3187000000000001,-85.052443347886
-0.3197,-85.53344518984011
-0.3207000000000001,-86.14177104878208
-0.3217,-86.75009690772404
-0.3227000000000001,-87.37256987966467
-0.3237,-87.93845439961068
-0.3247000000000001,-88.4194562415648
-0.3257,-88.9004580835189
-0.3267000000000001,-89.36731281247435
-0.3277,-89.89075599342443
-0.3287000000000001,-90.51322896536506
-0.3297,-91.16399616330297
-0.3307000000000001,-91.81476336124088
-0.3317,-92.42308922018285
-0.3327000000000001,-92.98897374012887
-0.3337,-93.61144671206948
-0.3347000000000001,-94.13488989301955
-0.3357,-94.70077441296557
-0.3367000000000001,-95.30910027190752
-0.3377,-96.00230880884139
-0.3387000000000001,-96.69551734577524
-0.3397,-97.44531433470372
-0.3407000000000001,-98.09608153264163
-0.3417,-98.66196605258766
-0.3427000000000001,-99.27029191152963
-0.3437,-99.87861777047159
-0.3447000000000001,-100.5010907424122
-0.3457,-101.23674061834203
-0.3467000000000001,-101.97239049427183
-0.3477,-102.76462882219626
-0.3487000000000001,-103.45783735913014
-0.3497,-104.12275167006669
-0.3507000000000001,-104.73107752900866
-0.3517,-105.29696204895468
-0.3527000000000001,-105.99017058588855
-0.3537,-106.68337912282242
-0.3547000000000001,-107.51805878974278
-0.3557,-108.35273845666316
-0.35670000000000013,-109.13082967158894
-0.3577,-109.8240382085228
-0.35870000000000013,-110.57383519745127
-0.3597,-111.18216105639323
-0.36070000000000013,-111.91781093232305
-0.3617,-112.71004926024747
-0.3626999999999999,-113.58717026616378
-0.3637,-114.45014415908147
-0.3646999999999999,-115.28482382600184
-0.3657,-116.10535637992358
-0.3666999999999999,-116.89759470784797
-0.3677,-117.63324458377778
-0.3686999999999999,-118.42548291170223
-0.36970000000000003,-119.20357412662798
-0.3706999999999999,-120.08069513254432
-0.37170000000000003,-121.00025747745659
-0.3726999999999999,-121.86323137037427
-0.37370000000000003,-122.74035237629057
-0.3746999999999999,-123.57503204321095
-0.37570000000000003,-124.35312325813672
-0.3766999999999999,-125.14536158606113
-0.37770000000000004,-125.96589413998288
-0.3786999999999999,-126.88545648489513
-0.37970000000000004,-127.88990150779931
-0.3806999999999999,-128.85190519170752
-0.38170000000000004,-129.79976176261712
-0.38269999999999993,-130.67688276853346
-0.38370000000000004,-131.55400377444977
-0.38469999999999993,-132.41697766736743
-0.38570000000000004,-133.29409867328377
-0.38669999999999993,-132.47356611936203
-0.38570000000000004,-128.89434653070347
-0.38469999999999993,-125.83857012299501
-0.38370000000000004,-123.00914752326493
-0.38269999999999993,-120.39193161851462
-0.38170000000000004,-117.85959839175621
-0.3806999999999999,-115.4121478429897
-0.37970000000000004,-113.10616842420968
-0.3786999999999999,-110.92751302241753
-0.37770000000000004,-108.87618163761321
-0.3766999999999999,-106.90973293080083
-0.37570000000000003,-105.02816690198033
-0.3746999999999999,-103.11830664716253
-0.37370000000000003,-101.19429927934607
-0.3726999999999999,-99.31273325052557
-0.37170000000000003,-97.44531433470372
-0.3706999999999999,-95.69107232287108
-0.36970000000000003,-94.03586010202899
-0.3686999999999999,-92.3806478811869
-0.3677,-90.85275967733266
-0.3666999999999999,-89.23998879548651
-0.3657,-87.62721791364037
-0.3646999999999999,-86.05688837079018
-0.3637,-84.40167614994809
-0.3626999999999999,-82.87378794609386
-0.3617,-81.3458997422396
-0.36070000000000013,-79.90289421637728
-0.3597,-78.51647714250953
-0.35870000000000013,-77.11591295564315
-0.3577,-75.71534876877676
-0.35670000000000013,-74.24404901691713
-0.3557,-72.80104349105478
-0.3547000000000001,-71.35803796519245
-0.3537,-69.91503243933012
-0.3527000000000001,-68.61349804345427
-0.3517,-67.2978165345798
-0.3507000000000001,-66.03872347769992
-0.3497,-64.77963042082003
-0.3487000000000001,-63.421507572949594
-0.3477,-62.06338472507916
-0.3467000000000001,-60.761850329203334
-0.3457,-59.502757272323436
-0.3447000000000001,-58.27195844144086
-0.3437,-57.097748062552874
-0.3427000000000001,-55.9235376836649
-0.3417,-54.73518019177827
-0.3407000000000001,-53.56096981289029
-0.3397,-52.30187675601041
-0.3387000000000001,-51.071077925127824
-0.3377,-49.85442620724389
-0.3367000000000001,-48.72265716735186
-0.3357,-47.633329466455784
-0.3347000000000001,-46.586443104555656
-0.3337,-45.497115403659585
-0.3327000000000001,-44.45022904175945
-0.3317,-43.27601866287147
-0.3307000000000001,-42.130102509980794
-0.3297,-40.99833347008877
-0.3287000000000001,-39.86656443019674
-0.3277,-38.86211940729255
-0.3267000000000001,-37.90011572338433
-0.3257,-36.95225915247476
-0.3247000000000001,-35.94781412957058
-0.3237,-34.90092776767045
-0.3227000000000001,-33.81160006677438
-0.3217,-32.764713704874254
-0.3207000000000001,-31.717827342974125
-0.3197,-30.79826499806185
-0.3187000000000001,-29.836261314153624
-0.3177,-28.959140308237306
-0.3167000000000001,-28.09616641531963
-0.3157,-27.134162731411404
-0.3147000000000001,-26.17215904750318
-0.3137,-25.167714024599
-0.3127000000000001,-24.20571034069078
-0.3117,-23.300295108777156
-0.3107000000000001,-22.42317410286083
-0.3097,-21.63093577493641
-0.3087000000000001,-20.810403221014692
-0.3077,-19.97572355409432
-0.3067000000000001,-19.112749661176647
-0.30569999999999997,-18.15074597726842
-0.3047000000000001,-17.231183632356142
-0.30369999999999997,-16.396503965435777
-0.3027000000000001,-15.618412750510005
-0.30169999999999997,-14.868615761581536
-0.3007000000000001,-14.090524546655764
-0.29969999999999997,-13.349215825526485
-0.2987000000000001,-12.520195003805576
-0.29769999999999996,-11.691174182084664
-0.2967000000000001,-10.819712021367803
-0.29569999999999996,-10.034547249942705
-0.2947000000000001,-9.293238528813426
-0.29369999999999996,-8.594371146680096
-0.29270000000000007,-7.940774526142452
-0.29169999999999996,-7.243321855308987
-0.29070000000000007,-6.54445447317566
-0.28969999999999996,-5.759289701750564
-0.28870000000000007,-4.9302688800296535
-0.28769999999999996,-4.1889601589003735
-0.28670000000000007,-3.4915074880669104
-0.28569999999999995,-2.8379108675292635
-0.28470000000000006,-2.2706116362833835
-0.28369999999999995,-1.6156003044458718
-0.28270000000000006,-1.0054353208140816
-0.28169999999999995,-0.26384365742482935
-0.28070000000000006,0.4776065348344364
-0.27969999999999995,1.175483619057859
-0.27870000000000006,1.8730777610213083
-0.27769999999999995,2.4403769922671885
-0.27670000000000006,3.0076762235130676
-0.27569999999999995,3.5749754547589476
-0.27470000000000006,4.140859974704963
-0.27369999999999994,4.752015256246658
-0.27270000000000005,5.3631705377883545
-0.27169999999999994,6.060623208621817
-0.27070000000000005,6.671778490163514
-0.26969999999999994,7.237663010109527
-0.26870000000000005,7.761106191059591
-0.26769999999999994,8.242108033013702
-0.26670000000000005,8.764136502663902
-0.26569999999999994,9.331435733909782
