Potential V vs RHE, Current mA cm-2
0.013299999999999867,-0.26384365742482935
0.012299999999999978,-2.532333226758415
0.011299999999999866,-4.450681749375406
0.010299999999999976,-6.282732882700628
0.009299999999999864,-7.940774526142452
0.008299999999999974,-9.511104068992642
0.007299999999999862,-11.037577561547016
0.006299999999999972,-12.476338953509758
0.00529999999999986,-13.741090855589102
0.0042999999999999705,-14.967645552572087
0.0032999999999998586,-16.056973253468165
0.0022999999999999687,-17.061418276372343
0.0012999999999998568,-17.966833508285966
0.00029999999999996696,-18.843954514202288
-0.000700000000000145,-19.721075520118614
-0.0017000000000000348,-20.584049413036283
-0.0027000000000001467,-21.418729079956652
-0.0037000000000000366,-22.253408746877028
-0.0047000000000001485,-22.989058622806844
-0.005700000000000038,-23.682267159740714
-0.00670000000000015,-24.290593018682678
-0.00770000000000004,-24.870624651627345
-0.008700000000000152,-25.337479380582806
-0.009700000000000042,-25.86092256153287
-0.010700000000000154,-26.38436574248293
-0.011700000000000044,-26.907808923433
-0.012700000000000156,-27.38881076538711
-0.013700000000000045,-27.954695285333123
-0.014700000000000157,-28.393255788291288
-0.015700000000000047,-28.831816291249446
-0.01670000000000016,-29.18549411621571
-0.01770000000000005,-29.525024828183312
-0.01870000000000016,-29.793819975157668
-0.01970000000000005,-30.10505646112798
-0.020700000000000163,-30.402145834099635
-0.021700000000000053,-30.7558236590659
-0.022700000000000164,-31.095354371033505
-0.023700000000000054,-31.40659085700382
-0.024700000000000166,-31.76026868197007
-0.025700000000000056,-32.01491671594578
-0.026700000000000168,-32.24127052392419
-0.027700000000000058,-32.45347721890394
-0.02870000000000017,-32.62324257488775
-0.02970000000000006,-32.807155043870196
-0.03070000000000017,-32.97692039985401
-0.03170000000000006,-33.18912709483376
-0.03270000000000017,-33.45792224180811
-0.03370000000000006,-33.712570275783825
-0.034700000000000175,-33.93892408376223
-0.035700000000000065,-34.15113077874198
-0.03670000000000018,-34.236013456733886
-0.03770000000000007,-34.377484586720385
-0.03870000000000018,-34.462367264712285
-0.03970000000000007,-34.5472499427042
-0.04070000000000018,-34.67457395969205
-0.04170000000000007,-34.8018979766799
-0.04270000000000018,-35.02825178465831
-0.04370000000000007,-35.198017140642115
-0.044700000000000184,-35.38192960962457
-0.045700000000000074,-35.50925362661242
-0.046700000000000186,-35.594136304604326
-0.047700000000000076,-35.679018982596226
-0.04870000000000019,-35.721460321592176
-0.04970000000000008,-35.806342999584075
-0.05070000000000019,-35.848784338580025
-0.05170000000000008,-35.99025546856653
-0.05270000000000019,-36.11757948555439
-0.05370000000000008,-36.28734484153819
-0.05470000000000019,-36.4288159715247
-0.05570000000000008,-36.55613998851254
-0.056700000000000195,-36.5985813275085
-0.057700000000000085,-36.64102266650445
-0.058700000000000196,-36.64102266650445
-0.059700000000000086,-36.6834640055004
-0.0607000000000002,-36.6834640055004
-0.06170000000000009,-36.8532293614842
-0.0627000000000002,-36.99470049147071
-0.06370000000000009,-37.07958316946261
-0.0647000000000002,-37.206907186450465
-0.06570000000000009,-37.334231203438314
-0.0667000000000002,-37.334231203438314
-0.0677000000000001,-37.334231203438314
-0.0687000000000002,-37.291789864442364
-0.0697000000000001,-37.334231203438314
-0.07070000000000021,-37.376672542434264
-0.0717000000000001,-37.51814367242077
-0.07270000000000021,-37.60302635041268
-0.0737000000000001,-37.73035036740053
-0.07470000000000021,-37.81523304539243
-0.0757000000000001,-37.90011572338433
-0.07670000000000021,-37.90011572338433
-0.0777000000000001,-37.94255706238028
-0.07870000000000021,-37.94255706238028
-0.0797000000000001,-37.94255706238028
-0.08070000000000022,-37.94255706238028
-0.0817000000000001,-38.08402819236679
-0.08270000000000022,-38.16891087035869
-0.08370000000000011,-38.29623488734655
-0.08470000000000022,-38.38111756533845
-0.08570000000000011,-38.46600024333035
-0.08670000000000022,-38.46600024333035
-0.08770000000000011,-38.522588695324956
-0.08870000000000022,-38.46600024333035
-0.08970000000000011,-38.46600024333035
-0.09070000000000022,-38.46600024333035
-0.09170000000000011,-38.5650300343209
-0.09270000000000023,-38.6499127123128
-0.09370000000000012,-38.777236729300654
-0.09470000000000023,-38.86211940729255
-0.09570000000000012,-38.94700208528445
-0.09670000000000023,-38.94700208528445
-0.09770000000000012,-38.98944342428042
-0.09870000000000023,-38.90456074628851
-0.09970000000000012,-38.94700208528445
-0.10070000000000023,-38.98944342428042
-0.10170000000000012,-39.046031876275016
-0.10270000000000024,-39.173355893262865
-0.10370000000000013,-39.258238571254765
-0.10470000000000024,-39.38556258824262
-0.10570000000000013,-39.47044526623452
-0.10670000000000024,-39.42800392723857
-0.10770000000000013,-39.47044526623452
-0.10870000000000024,-39.47044526623452
-0.10970000000000013,-39.47044526623452
-0.11070000000000024,-39.47044526623452
-0.11170000000000013,-39.56947505722508
-0.11270000000000002,-39.696799074212926
-0.11370000000000013,-39.82412309120078
-0.11470000000000002,-39.90900576919269
-0.11570000000000014,-40.03632978618054
-0.11670000000000003,-40.03632978618054
-0.11770000000000014,-40.092918238175145
-0.11870000000000003,-40.03632978618054
-0.11970000000000014,-40.03632978618054
-0.12070000000000003,-40.092918238175145
-0.12170000000000014,-40.220242255162994
-0.12270000000000003,-40.30512493315489
-0.12370000000000014,-40.43244895014274
-0.12470000000000003,-40.559772967130606
-0.12570000000000014,-40.65880275812115
-0.12670000000000003,-40.701244097117105
-0.12770000000000015,-40.701244097117105
-0.12870000000000004,-40.701244097117105
-0.12970000000000015,-40.743685436113054
-0.13070000000000004,-40.78612677510901
-0.13170000000000015,-40.91345079209687
-0.13270000000000004,-41.04077480908471
-0.13370000000000015,-41.182245939071215
-0.13470000000000004,-41.30956995605907
-0.13570000000000015,-41.43689397304693
-0.13670000000000004,-41.47933531204288
-0.13770000000000016,-41.52177665103883
-0.13870000000000005,-41.52177665103883
-0.13970000000000016,-41.56421799003478
-0.14070000000000005,-41.606659329030734
-0.14170000000000016,-41.79057179801318
-0.14270000000000005,-41.91789581500104
-0.14370000000000016,-42.087661170984845
-0.14470000000000005,-42.229132300971344
-0.14570000000000016,-42.3564563179592
-0.14670000000000005,-42.39889765695515
-0.14770000000000016,-42.4413389959511
-0.14870000000000005,-42.4413389959511
-0.14970000000000017,-42.526221673943
-0.15070000000000006,-42.6111043519349
-0.15170000000000017,-42.71013414292546
-0.15270000000000006,-42.87989949890926
-0.15370000000000017,-43.04966485489307
-0.15470000000000006,-43.17698887188092
-0.15570000000000017,-43.36090134086337
-0.15670000000000006,-43.40334267985933
-0.15770000000000017,-43.44578401885527
-0.15870000000000006,-43.53066669684718
-0.15970000000000018,-43.61554937483908
-0.16070000000000007,-43.657990713835034
-0.16170000000000018,-43.84190318281749
-0.16270000000000007,-44.011668538801295
-0.16370000000000018,-44.181433894785094
-0.16470000000000007,-44.4077877027635
-0.16570000000000018,-44.535111719751356
-0.16670000000000007,-44.66243573673921
-0.16770000000000018,-44.704877075735155
-0.16870000000000007,-44.80390686672572
-0.16970000000000018,-44.88878954471762
-0.17070000000000007,-44.97367222270952
-0.17170000000000019,-45.143437578693316
-0.17270000000000008,-45.32735004767578
-0.1737000000000002,-45.53955674265553
-0.17470000000000008,-45.70932209863933
-0.1757000000000002,-45.93567590661774
-0.17670000000000008,-46.02055858460964
-0.1777000000000002,-46.147882601597495
-0.17870000000000008,-46.19032394059345
-0.1797000000000002,-46.3176479575813
-0.18070000000000008,-46.41667774857186
-0.1817000000000002,-46.628884443551605
-0.18270000000000008,-46.79864979953541
-0.1837000000000002,-47.067444946509774
-0.1847000000000001,-47.32209298048547
-0.1857000000000002,-47.46356411047198
-0.1867000000000001,-47.633329466455784
-0.1877000000000002,-47.71821214444768
-0.1887000000000001,-47.80309482243959
-0.1897000000000002,-47.93041883942744
-0.1907000000000001,-48.071889969413945
-0.1917000000000001,-48.2840966643937
-0.19269999999999998,-48.55289181136806
-0.1937000000000001,-48.76509850634781
-0.19469999999999998,-48.97730520132757
-0.1957000000000001,-49.20365900930597
-0.19669999999999999,-49.33098302629383
-0.1977000000000001,-49.50074838227763
-0.1987,-49.642219512264134
-0.1997000000000001,-49.76954352925199
-0.2007,-49.939308885235796
-0.2017000000000001,-50.1656626932142
-0.2027,-50.42031072718991
-0.2037000000000001,-50.68910587416426
-0.2047,-50.90131256914402
-0.2057000000000001,-51.127666377122424
-0.2067,-51.29743173310623
-0.2077000000000001,-51.424755750094086
-0.2087,-51.594521106077885
-0.2097000000000001,-51.77843357506035
-0.2107,-51.90575759204819
-0.2117000000000001,-52.2169940780185
-0.2127,-52.42920077299826
-0.2137000000000001,-52.74043725896857
-0.2147,-52.995085292944275
-0.2157000000000001,-53.348763117910536
-0.2167,-53.518528473894335
-0.21770000000000012,-53.68829382987814
-0.2187,-53.872206298860604
-0.21970000000000012,-54.0419716548444
-0.2207,-54.26832546282281
-0.22170000000000012,-54.52297349679851
-0.2227,-54.791768643772876
-0.22370000000000012,-55.088858016744524
-0.2247,-55.400094502714836
-0.22570000000000012,-55.65474253669055
-0.2267,-55.881096344668954
-0.22770000000000012,-56.093303039648696
-0.22870000000000001,-56.26306839563251
-0.22970000000000013,-56.489422203610914
-0.23070000000000002,-56.70162889859067
-0.23170000000000013,-57.012865384560975
-0.23270000000000002,-57.30995475753264
-0.23370000000000013,-57.66363258249889
-0.23470000000000002,-57.974869068469204
-0.23570000000000013,-58.27195844144086
-0.23670000000000002,-58.498312249419264
-0.2376999999999999,-58.71051894439902
-0.23870000000000002,-58.97931409137338
-0.2396999999999999,-59.19152078635314
-0.24070000000000003,-59.403727481332886
-0.24169999999999991,-59.757405306299155
-0.24270000000000003,-60.06864179226946
-0.24369999999999992,-60.45061384323302
-0.24470000000000003,-60.761850329203334
-0.24569999999999992,-61.07308681517363
-0.24670000000000003,-61.37017618814529
-0.24769999999999992,-61.63897133511965
-0.24870000000000003,-61.851178030099405
-0.24969999999999992,-62.11997317707376
-0.25070000000000003,-62.37462121104946
-0.2516999999999999,-62.77074037501168
-0.25270000000000004,-63.06782974798333
-0.2536999999999999,-63.46394891194555
-0.25470000000000004,-63.81762673691181
-0.2556999999999999,-64.19959878787537
-0.25670000000000004,-64.46839393484973
-0.25769999999999993,-64.77963042082003
-0.25870000000000004,-64.99183711579978
-0.25969999999999993,-65.3030736017701
-0.26070000000000004,-65.60016297474175
-0.26169999999999993,-65.95384079970802
-0.26270000000000004,-66.34995996367022
-0.26369999999999993,-66.73193201463377
-0.26470000000000005,-67.17049251759194
-0.26569999999999994,-67.56661168155415
-0.26670000000000005,-67.9202895065204
-0.26769999999999994,-68.21737887949207
-0.26870000000000005,-68.48617402646643
-0.26969999999999994,-68.82570473843404
-0.27070000000000005,-69.1793825634003
-0.27169999999999994,-69.53306038836655
-0.27270000000000005,-69.95747377832606
-0.27369999999999994,-70.39603428128423
-0.27470000000000006,-70.79215344524643
-0.27569999999999995,-71.2307139482046
-0.27670000000000006,-71.58439177317086
-0.27769999999999995,-71.92392248513846
-0.27870000000000006,-72.23515897110877
-0.27969999999999995,-72.57468968307639
-0.28070000000000006,-72.92836750804264
-0.28169999999999995,-73.3669280110008
-0.28270000000000006,-73.76304717496302
-0.28369999999999995,-74.28649035591307
-0.28470000000000006,-74.76749219786718
-0.28569999999999995,-75.19190558782671
-0.28670000000000007,-75.5880247517889
-0.28769999999999996,-75.94170257675518
-0.28870000000000007,-76.29538040172143
-0.28969999999999996,-76.63491111368903
-0.29070000000000007,-77.03103027765125
-0.29169999999999996,-77.51203211960537
-0.29270000000000007,-77.99303396155948
-0.29369999999999996,-78.47403580351359
-0.2947000000000001,-78.9550376454677
-0.29569999999999996,-79.42189237442317
-0.2967000000000001,-79.81801153838538
-0.29769999999999996,-80.21413070234757
-0.2987000000000001,-80.61024986630979
-0.29969999999999997,-80.99222191727335
-0.3007000000000001,-81.43078242023151
-0.30169999999999997,-81.95422560118158
-0.3027000000000001,-82.43522744313569
-0.30369999999999997,-82.95867062408576
-0.3047000000000001,-83.48211380503581
-0.30569999999999997,-84.00555698598588
-0.3067000000000001,-84.40167614994809
-0.3077,-84.8826779919022
-0.3087000000000001,-85.32123849486035
-0.3097,-85.75979899781852
-0.3107000000000001,-86.18421238777805
-0.3117,-86.7076555687281
-0.3127000000000001,-87.27354008867411
-0.3137,-87.79698326962418
-0.3147000000000001,-88.37701490256885
-0.3157,-88.94289942251486
-0.3167000000000001,-89.42390126446898
-0.3177,-89.94734444541903
-0.3187000000000001,-90.41419917437449
-0.3197,-90.89520101632861
-0.3207000000000001,-91.37620285828272
-0.3217,-91.94208737822873
-0.3227000000000001,-92.50797189817473
-0.3237,-93.17288620911131
-0.3247000000000001,-93.82365340704924
-0.3257,-94.4319792659912
-0.3267000000000001,-94.95542244694126
-0.3277,-95.47886562789132
-0.3287000000000001,-95.95986746984543
-0.3297,-96.44086931179956
-0.3307000000000001,-97.00675383174556
-0.3317,-97.69996236867944
-0.3327000000000001,-98.3082882276214
-0.3337,-99.01564387755391
-0.3347000000000001,-99.62396973649588
-0.3357,-100.2747369344338
-0.3367000000000001,-100.84062145437981
-0.3377,-101.44894731332178
-0.3387000000000001,-102.02897894626645
-0.3397,-102.63730480520842
-0.3407000000000001,-103.24563066415038
-0.3417,-103.93883920108425
-0.3427000000000001,-104.58960639902216
-0.3437,-105.33940338795064
-0.3447000000000001,-106.07505326388046
-0.3457,-106.73996757481702
-0.3467000000000001,-107.39073477275493
-0.3477,-108.04150197069285
-0.3487000000000001,-108.64982782963483
-0.3497,-109.35718347956733
-0.3507000000000001,-110.00795067750525
-0.3517,-110.74360055343507
-0.3527000000000001,-111.49339754236355
-0.3537,-112.31393009628526
-0.3547000000000001,-113.10616842420968
-0.3557,-113.88425963913545
-0.35670000000000013,-114.57746817606933
-0.3577,-115.28482382600184
-0.35870000000000013,-116.02047370193165
-0.3597,-116.72782935186417
-0.36070000000000013,-117.46347922779398
-0.3617,-118.24157044271978
-0.3626999999999999,-119.07625010964013
-0.3637,-119.95337111555646
-0.3646999999999999,-120.77390366947817
-0.3657,-121.60858333639854
-0.3666999999999999,-122.38667455132433
-0.3677,-123.1364715402528
-0.3686999999999999,-123.87212141618261
-0.36970000000000003,-124.66435974410705
-0.3706999999999999,-125.44245095903281
-0.37170000000000003,-126.27713062595316
-0.3726999999999999,-127.14010451887084
-0.37370000000000003,-128.05966686378312
-0.3746999999999999,-128.89434653070347
-0.37570000000000003,-129.79976176261712
-0.3766999999999999,-130.63444142953747
-0.37770000000000004,-131.4266797574619
-0.3786999999999999,-132.20477097238768
-0.37970000000000004,-133.03945063930803
-0.3806999999999999,-133.81754185423384
-0.38170000000000004,-134.77954553814206
-0.38269999999999993,-135.65666654405837
-0.38370000000000004,-136.60452311496792
-0.38469999999999993,-137.56652679887617
-0.38570000000000004,-138.57097182178035
-0.38669999999999993,-137.6089681378721
-0.38570000000000004,-133.81754185423384
-0.38469999999999993,-130.42223473455772
-0.38370000000000004,-127.4088996658452
-0.38269999999999993,-124.57947706611512
-0.38170000000000004,-122.00470250036076
-0.3806999999999999,-119.5996932905902
-0.37970000000000004,-117.29371387181018
-0.3786999999999999,-115.01602867902749
-0.37770000000000004,-112.87981461623129
-0.3766999999999999,-110.70115921443913
-0.37570000000000003,-108.60738649063886
-0.3746999999999999,-106.51361376683862
-0.37370000000000003,-104.50472372103027
-0.3726999999999999,-102.59486346621246
-0.37170000000000003,-100.71329743739196
-0.3706999999999999,-98.93076119956201
-0.36970000000000003,-97.13407784873341
-0.3686999999999999,-95.39398294989942
-0.3677,-93.69632939006138
-0.3666999999999999,-91.94208737822873
-0.3657,-90.24443381839069
-0.3646999999999999,-88.5043389195567
-0.3637,-86.80668535971866
-0.3626999999999999,-85.13732602587791
-0.3617,-83.56699648302772
-0.36070000000000013,-82.03910827917348
-0.3597,-80.56780852731384
-0.35870000000000013,-79.08236166245555
-0.3577,-77.59691479759726
-0.35670000000000013,-76.06902659374302
-0.3557,-74.58357972888473
-0.3547000000000001,-73.0556915250305
-0.3537,-71.52780332117625
-0.3527000000000001,-70.09894490831257
-0.3517,-68.69838072144618
-0.3507000000000001,-67.34025787357575
-0.3497,-66.03872347769992
-0.3487000000000001,-64.72304196882543
-0.3477,-63.421507572949594
-0.3467000000000001,-62.06338472507916
-0.3457,-60.71940899020737
-0.3447000000000001,-59.27640346434504
-0.3437,-57.974869068469204
-0.3427000000000001,-56.61674622059877
-0.3417,-55.400094502714836
-0.3407000000000001,-54.16929567183226
-0.3397,-52.995085292944275
-0.3387000000000001,-51.82087491405629
-0.3377,-50.68910587416426
-0.3367000000000001,-49.458307043281685
-0.3357,-48.24165532539775
-0.3347000000000001,-46.982562268517874
-0.3337,-45.75176343763528
-0.3327000000000001,-44.535111719751356
-0.3317,-43.44578401885527
-0.3307000000000001,-42.3564563179592
-0.3297,-41.30956995605907
-0.3287000000000001,-40.220242255162994
-0.3277,-39.173355893262865
-0.3267000000000001,-38.04158685337084
-0.3257,-36.95225915247476
-0.3247000000000001,-35.806342999584075
-0.3237,-34.67457395969205
-0.3227000000000001,-33.627687597791926
-0.3217,-32.58080123589179
-0.3207000000000001,-31.57635621298762
-0.3197,-30.614352529079397
-0.3187000000000001,-29.66649595816982
-0.3177,-28.704492274261593
-0.3167000000000001,-27.700047251357418
-0.3157,-26.65316088945729
-0.3147000000000001,-25.648715866553115
-0.3137,-24.601829504652986
-0.3127000000000001,-23.597384481748815
-0.3117,-22.67782213683654
-0.3107000000000001,-21.772406904922917
-0.3097,-20.89528589900659
-0.3087000000000001,-20.01816489309027
-0.3077,-19.155191000172596
-0.3067000000000001,-18.23562865526032
-0.30569999999999997,-17.2736249713521
-0.3047000000000001,-16.354062626439823
-0.30369999999999997,-15.448647394526201
-0.3027000000000001,-14.529085049613924
-0.30169999999999997,-13.698649516593148
-0.3007000000000001,-12.913484745168056
-0.29969999999999997,-12.12831997374296
-0.2987000000000001,-11.343155202317865
-0.29769999999999996,-10.514134380596953
-0.2967000000000001,-9.685113558876042
-0.29569999999999996,-8.85609273715513
-0.2947000000000001,-7.984630576438266
-0.29369999999999996,-7.155609754717355
-0.29270000000000007,-6.326588932996443
-0.29169999999999996,-5.585280211867165
-0.29070000000000007,-4.887827541033701
-0.28969999999999996,-4.146518819904423
-0.28870000000000007,-3.447651437771094
-0.28769999999999996,-2.7501987669376318
-0.28670000000000007,-1.9650339955125358
-0.28569999999999995,-1.2234423321232837
-0.28470000000000006,-0.4384190318281749
-0.28369999999999995,0.3467457395969205
-0.28270000000000006,1.0881959318561862
-0.28169999999999995,1.7429243214337253
-0.28070000000000006,2.4403769922671885
-0.27969999999999995,3.0076762235130676
-0.27870000000000006,3.661272844050715
-0.27769999999999995,4.272428125592412
-0.27670000000000006,4.9698807964258735
-0.27569999999999995,5.624892128263387
-0.27470000000000006,6.322344799096849
-0.27369999999999994,7.063653520226129
-0.27270000000000005,7.7186648520636405
-0.27169999999999994,8.328405422305472
-0.27070000000000005,8.89570465355135
-0.26969999999999994,9.463003884797232
-0.26870000000000005,9.986447065747294
-0.26769999999999994,10.553746296993173
-0.26670000000000005,11.20734291753082
-0.26569999999999994,11.862354249368334
