Aug. 18, 2024   06:23:53
Cyclic Voltammetry
File: c:/users/guazh/data/20240813_batch_94_500/2024-08-15-exp120\exp120-2024-08-18t06_18_57-h2koh\exp120_cv_50mvs_efin_-1400mv.bin
Data Source:  Experiment
Instrument Model:  CHI760E
Header: CV ran at 50 mVs
Note: 

Init E (V) = -1
High E (V) = -1
Low E (V) = -1.4
Final E (V) = -1
Init P/N = N
Scan Rate (V/s) = 0.05
Segment = 7
Sample Interval (V) = 0.001
Quiet Time (sec) = 60
Sensitivity (A/V) = 0.001
Comp R (ohm) = 1.6

Results:

Channel 1:
Segment 1:

Segment 2:

Segment 3:

Segment 4:

Segment 5:

Segment 6:

Segment 7:

Potential/V, Current/A

-1.000, 7.167e-6
-1.001, 7.497e-6
-1.002, 7.687e-6
-1.003, 7.849e-6
-1.004, 7.983e-6
-1.005, 8.079e-6
-1.006, 8.184e-6
-1.007, 8.322e-6
-1.008, 8.458e-6
-1.009, 8.542e-6
-1.010, 8.650e-6
-1.011, 8.717e-6
-1.012, 8.829e-6
-1.013, 8.968e-6
-1.014, 9.050e-6
-1.015, 9.128e-6
-1.016, 9.225e-6
-1.017, 9.328e-6
-1.018, 9.448e-6
-1.019, 9.530e-6
-1.020, 9.634e-6
-1.021, 9.712e-6
-1.022, 9.828e-6
-1.023, 9.950e-6
-1.024, 1.003e-5
-1.025, 1.017e-5
-1.026, 1.025e-5
-1.027, 1.033e-5
-1.028, 1.047e-5
-1.029, 1.056e-5
-1.030, 1.066e-5
-1.031, 1.078e-5
-1.032, 1.089e-5
-1.033, 1.100e-5
-1.034, 1.110e-5
-1.035, 1.119e-5
-1.036, 1.134e-5
-1.037, 1.146e-5
-1.038, 1.157e-5
-1.039, 1.167e-5
-1.040, 1.178e-5
-1.041, 1.192e-5
-1.042, 1.203e-5
-1.043, 1.218e-5
-1.044, 1.229e-5
-1.045, 1.240e-5
-1.046, 1.252e-5
-1.047, 1.264e-5
-1.048, 1.276e-5
-1.049, 1.286e-5
-1.050, 1.301e-5
-1.051, 1.313e-5
-1.052, 1.326e-5
-1.053, 1.336e-5
-1.054, 1.351e-5
-1.055, 1.364e-5
-1.056, 1.375e-5
-1.057, 1.389e-5
-1.058, 1.401e-5
-1.059, 1.413e-5
-1.060, 1.429e-5
-1.061, 1.440e-5
-1.062, 1.452e-5
-1.063, 1.465e-5
-1.064, 1.478e-5
-1.065, 1.491e-5
-1.066, 1.502e-5
-1.067, 1.515e-5
-1.068, 1.526e-5
-1.069, 1.541e-5
-1.070, 1.554e-5
-1.071, 1.566e-5
-1.072, 1.578e-5
-1.073, 1.591e-5
-1.074, 1.600e-5
-1.075, 1.616e-5
-1.076, 1.627e-5
-1.077, 1.643e-5
-1.078, 1.654e-5
-1.079, 1.664e-5
-1.080, 1.676e-5
-1.081, 1.687e-5
-1.082, 1.702e-5
-1.083, 1.711e-5
-1.084, 1.725e-5
-1.085, 1.736e-5
-1.086, 1.746e-5
-1.087, 1.757e-5
-1.088, 1.770e-5
-1.089, 1.782e-5
-1.090, 1.793e-5
-1.091, 1.804e-5
-1.092, 1.815e-5
-1.093, 1.826e-5
-1.094, 1.838e-5
-1.095, 1.852e-5
-1.096, 1.862e-5
-1.097, 1.870e-5
-1.098, 1.883e-5
-1.099, 1.895e-5
-1.100, 1.903e-5
-1.101, 1.916e-5
-1.102, 1.926e-5
-1.103, 1.936e-5
-1.104, 1.945e-5
-1.105, 1.956e-5
-1.106, 1.965e-5
-1.107, 1.976e-5
-1.108, 1.988e-5
-1.109, 1.999e-5
-1.110, 2.007e-5
-1.111, 2.015e-5
-1.112, 2.028e-5
-1.113, 2.037e-5
-1.114, 2.052e-5
-1.115, 2.058e-5
-1.116, 2.067e-5
-1.117, 2.077e-5
-1.118, 2.083e-5
-1.119, 2.098e-5
-1.120, 2.108e-5
-1.121, 2.115e-5
-1.122, 2.125e-5
-1.123, 2.134e-5
-1.124, 2.143e-5
-1.125, 2.151e-5
-1.126, 2.162e-5
-1.127, 2.172e-5
-1.128, 2.180e-5
-1.129, 2.191e-5
-1.130, 2.199e-5
-1.131, 2.204e-5
-1.132, 2.213e-5
-1.133, 2.224e-5
-1.134, 2.231e-5
-1.135, 2.239e-5
-1.136, 2.248e-5
-1.137, 2.258e-5
-1.138, 2.266e-5
-1.139, 2.273e-5
-1.140, 2.281e-5
-1.141, 2.288e-5
-1.142, 2.297e-5
-1.143, 2.306e-5
-1.144, 2.312e-5
-1.145, 2.321e-5
-1.146, 2.328e-5
-1.147, 2.338e-5
-1.148, 2.344e-5
-1.149, 2.349e-5
-1.150, 2.361e-5
-1.151, 2.365e-5
-1.152, 2.373e-5
-1.153, 2.385e-5
-1.154, 2.392e-5
-1.155, 2.398e-5
-1.156, 2.403e-5
-1.157, 2.410e-5
-1.158, 2.423e-5
-1.159, 2.428e-5
-1.160, 2.434e-5
-1.161, 2.441e-5
-1.162, 2.447e-5
-1.163, 2.453e-5
-1.164, 2.461e-5
-1.165, 2.463e-5
-1.166, 2.466e-5
-1.167, 2.480e-5
-1.168, 2.487e-5
-1.169, 2.495e-5
-1.170, 2.502e-5
-1.171, 2.508e-5
-1.172, 2.519e-5
-1.173, 2.525e-5
-1.174, 2.529e-5
-1.175, 2.536e-5
-1.176, 2.542e-5
-1.177, 2.551e-5
-1.178, 2.559e-5
-1.179, 2.564e-5
-1.180, 2.570e-5
-1.181, 2.577e-5
-1.182, 2.582e-5
-1.183, 2.591e-5
-1.184, 2.597e-5
-1.185, 2.604e-5
-1.186, 2.612e-5
-1.187, 2.618e-5
-1.188, 2.622e-5
-1.189, 2.630e-5
-1.190, 2.636e-5
-1.191, 2.643e-5
-1.192, 2.649e-5
-1.193, 2.657e-5
-1.194, 2.666e-5
-1.195, 2.669e-5
-1.196, 2.675e-5
-1.197, 2.684e-5
-1.198, 2.689e-5
-1.199, 2.700e-5
-1.200, 2.707e-5
-1.201, 2.709e-5
-1.202, 2.717e-5
-1.203, 2.720e-5
-1.204, 2.730e-5
-1.205, 2.734e-5
-1.206, 2.741e-5
-1.207, 2.749e-5
-1.208, 2.755e-5
-1.209, 2.761e-5
-1.210, 2.763e-5
-1.211, 2.765e-5
-1.212, 2.776e-5
-1.213, 2.781e-5
-1.214, 2.788e-5
-1.215, 2.791e-5
-1.216, 2.797e-5
-1.217, 2.804e-5
-1.218, 2.807e-5
-1.219, 2.812e-5
-1.220, 2.819e-5
-1.221, 2.822e-5
-1.222, 2.829e-5
-1.223, 2.836e-5
-1.224, 2.844e-5
-1.225, 2.845e-5
-1.226, 2.852e-5
-1.227, 2.857e-5
-1.228, 2.865e-5
-1.229, 2.873e-5
-1.230, 2.878e-5
-1.231, 2.882e-5
-1.232, 2.886e-5
-1.233, 2.889e-5
-1.234, 2.897e-5
-1.235, 2.901e-5
-1.236, 2.908e-5
-1.237, 2.912e-5
-1.238, 2.922e-5
-1.239, 2.927e-5
-1.240, 2.928e-5
-1.241, 2.936e-5
-1.242, 2.942e-5
-1.243, 2.950e-5
-1.244, 2.960e-5
-1.245, 2.966e-5
-1.246, 2.970e-5
-1.247, 2.976e-5
-1.248, 2.981e-5
-1.249, 2.986e-5
-1.250, 2.995e-5
-1.251, 3.005e-5
-1.252, 3.011e-5
-1.253, 3.016e-5
-1.254, 3.026e-5
-1.255, 3.030e-5
-1.256, 3.034e-5
-1.257, 3.045e-5
-1.258, 3.052e-5
-1.259, 3.060e-5
-1.260, 3.065e-5
-1.261, 3.073e-5
-1.262, 3.079e-5
-1.263, 3.085e-5
-1.264, 3.089e-5
-1.265, 3.097e-5
-1.266, 3.104e-5
-1.267, 3.113e-5
-1.268, 3.118e-5
-1.269, 3.128e-5
-1.270, 3.133e-5
-1.271, 3.137e-5
-1.272, 3.146e-5
-1.273, 3.154e-5
-1.274, 3.163e-5
-1.275, 3.168e-5
-1.276, 3.176e-5
-1.277, 3.184e-5
-1.278, 3.190e-5
-1.279, 3.199e-5
-1.280, 3.207e-5
-1.281, 3.213e-5
-1.282, 3.224e-5
-1.283, 3.229e-5
-1.284, 3.239e-5
-1.285, 3.243e-5
-1.286, 3.249e-5
-1.287, 3.259e-5
-1.288, 3.269e-5
-1.289, 3.277e-5
-1.290, 3.283e-5
-1.291, 3.287e-5
-1.292, 3.297e-5
-1.293, 3.305e-5
-1.294, 3.306e-5
-1.295, 3.313e-5
-1.296, 3.322e-5
-1.297, 3.295e-5
-1.298, 3.323e-5
-1.299, 3.335e-5
-1.300, 3.344e-5
-1.301, 3.355e-5
-1.302, 3.366e-5
-1.303, 3.377e-5
-1.304, 3.389e-5
-1.305, 3.397e-5
-1.306, 3.404e-5
-1.307, 3.415e-5
-1.308, 3.423e-5
-1.309, 3.427e-5
-1.310, 3.439e-5
-1.311, 3.445e-5
-1.312, 3.450e-5
-1.313, 3.460e-5
-1.314, 3.471e-5
-1.315, 3.482e-5
-1.316, 3.492e-5
-1.317, 3.499e-5
-1.318, 3.511e-5
-1.319, 3.523e-5
-1.320, 3.531e-5
-1.321, 3.550e-5
-1.322, 3.558e-5
-1.323, 3.565e-5
-1.324, 3.578e-5
-1.325, 3.589e-5
-1.326, 3.604e-5
-1.327, 3.611e-5
-1.328, 3.623e-5
-1.329, 3.642e-5
-1.330, 3.648e-5
-1.331, 3.655e-5
-1.332, 3.668e-5
-1.333, 3.680e-5
-1.334, 3.691e-5
-1.335, 3.703e-5
-1.336, 3.718e-5
-1.337, 3.725e-5
-1.338, 3.740e-5
-1.339, 3.746e-5
-1.340, 3.753e-5
-1.341, 3.765e-5
-1.342, 3.777e-5
-1.343, 3.790e-5
-1.344, 3.802e-5
-1.345, 3.813e-5
-1.346, 3.826e-5
-1.347, 3.840e-5
-1.348, 3.859e-5
-1.349, 3.871e-5
-1.350, 3.884e-5
-1.351, 3.900e-5
-1.352, 3.913e-5
-1.353, 3.925e-5
-1.354, 3.937e-5
-1.355, 3.953e-5
-1.356, 3.965e-5
-1.357, 3.982e-5
-1.358, 4.000e-5
-1.359, 4.015e-5
-1.360, 4.023e-5
-1.361, 4.037e-5
-1.362, 4.054e-5
-1.363, 4.069e-5
-1.364, 4.083e-5
-1.365, 4.099e-5
-1.366, 4.112e-5
-1.367, 4.132e-5
-1.368, 4.150e-5
-1.369, 4.164e-5
-1.370, 4.179e-5
-1.371, 4.194e-5
-1.372, 4.214e-5
-1.373, 4.231e-5
-1.374, 4.244e-5
-1.375, 4.262e-5
-1.376, 4.282e-5
-1.377, 4.296e-5
-1.378, 4.314e-5
-1.379, 4.336e-5
-1.380, 4.355e-5
-1.381, 4.364e-5
-1.382, 4.388e-5
-1.383, 4.413e-5
-1.384, 4.429e-5
-1.385, 4.445e-5
-1.386, 4.474e-5
-1.387, 4.498e-5
-1.388, 4.516e-5
-1.389, 4.544e-5
-1.390, 4.572e-5
-1.391, 4.600e-5
-1.392, 4.624e-5
-1.393, 4.650e-5
-1.394, 4.679e-5
-1.395, 4.697e-5
-1.396, 4.721e-5
-1.397, 4.749e-5
-1.398, 4.776e-5
-1.399, 4.817e-5
-1.400, 4.688e-5
-1.399, 4.576e-5
-1.398, 4.507e-5
-1.397, 4.452e-5
-1.396, 4.399e-5
-1.395, 4.346e-5
-1.394, 4.308e-5
-1.393, 4.263e-5
-1.392, 4.227e-5
-1.391, 4.190e-5
-1.390, 4.153e-5
-1.389, 4.119e-5
-1.388, 4.091e-5
-1.387, 4.050e-5
-1.386, 4.017e-5
-1.385, 3.980e-5
-1.384, 3.946e-5
-1.383, 3.918e-5
-1.382, 3.880e-5
-1.381, 3.843e-5
-1.380, 3.812e-5
-1.379, 3.777e-5
-1.378, 3.747e-5
-1.377, 3.712e-5
-1.376, 3.681e-5
-1.375, 3.648e-5
-1.374, 3.615e-5
-1.373, 3.584e-5
-1.372, 3.553e-5
-1.371, 3.520e-5
-1.370, 3.489e-5
-1.369, 3.461e-5
-1.368, 3.438e-5
-1.367, 3.413e-5
-1.366, 3.387e-5
-1.365, 3.360e-5
-1.364, 3.332e-5
-1.363, 3.303e-5
-1.362, 3.280e-5
-1.361, 3.252e-5
-1.360, 3.235e-5
-1.359, 3.213e-5
-1.358, 3.185e-5
-1.357, 3.169e-5
-1.356, 3.142e-5
-1.355, 3.114e-5
-1.354, 3.093e-5
-1.353, 3.067e-5
-1.352, 3.047e-5
-1.351, 3.027e-5
-1.350, 3.005e-5
-1.349, 2.987e-5
-1.348, 2.968e-5
-1.347, 2.947e-5
-1.346, 2.926e-5
-1.345, 2.902e-5
-1.344, 2.884e-5
-1.343, 2.866e-5
-1.342, 2.844e-5
-1.341, 2.830e-5
-1.340, 2.808e-5
-1.339, 2.792e-5
-1.338, 2.774e-5
-1.337, 2.756e-5
-1.336, 2.736e-5
-1.335, 2.717e-5
-1.334, 2.699e-5
-1.333, 2.678e-5
-1.332, 2.664e-5
-1.331, 2.642e-5
-1.330, 2.623e-5
-1.329, 2.608e-5
-1.328, 2.592e-5
-1.327, 2.574e-5
-1.326, 2.557e-5
-1.325, 2.541e-5
-1.324, 2.524e-5
-1.323, 2.511e-5
-1.322, 2.494e-5
-1.321, 2.479e-5
-1.320, 2.466e-5
-1.319, 2.446e-5
-1.318, 2.435e-5
-1.317, 2.421e-5
-1.316, 2.407e-5
-1.315, 2.389e-5
-1.314, 2.378e-5
-1.313, 2.362e-5
-1.312, 2.352e-5
-1.311, 2.336e-5
-1.310, 2.324e-5
-1.309, 2.311e-5
-1.308, 2.294e-5
-1.307, 2.280e-5
-1.306, 2.268e-5
-1.305, 2.251e-5
-1.304, 2.237e-5
-1.303, 2.229e-5
-1.302, 2.211e-5
-1.301, 2.195e-5
-1.300, 2.181e-5
-1.299, 2.166e-5
-1.298, 2.161e-5
-1.297, 2.145e-5
-1.296, 2.132e-5
-1.295, 2.124e-5
-1.294, 2.106e-5
-1.293, 2.095e-5
-1.292, 2.083e-5
-1.291, 2.069e-5
-1.290, 2.058e-5
-1.289, 2.047e-5
-1.288, 2.035e-5
-1.287, 2.024e-5
-1.286, 2.009e-5
-1.285, 1.995e-5
-1.284, 1.986e-5
-1.283, 1.975e-5
-1.282, 1.965e-5
-1.281, 1.955e-5
-1.280, 1.939e-5
-1.279, 1.928e-5
-1.278, 1.917e-5
-1.277, 1.907e-5
-1.276, 1.895e-5
-1.275, 1.888e-5
-1.274, 1.877e-5
-1.273, 1.865e-5
-1.272, 1.854e-5
-1.271, 1.845e-5
-1.270, 1.832e-5
-1.269, 1.824e-5
-1.268, 1.810e-5
-1.267, 1.805e-5
-1.266, 1.791e-5
-1.265, 1.778e-5
-1.264, 1.770e-5
-1.263, 1.758e-5
-1.262, 1.747e-5
-1.261, 1.739e-5
-1.260, 1.730e-5
-1.259, 1.718e-5
-1.258, 1.708e-5
-1.257, 1.698e-5
-1.256, 1.687e-5
-1.255, 1.677e-5
-1.254, 1.668e-5
-1.253, 1.660e-5
-1.252, 1.652e-5
-1.251, 1.639e-5
-1.250, 1.634e-5
-1.249, 1.624e-5
-1.248, 1.615e-5
-1.247, 1.602e-5
-1.246, 1.591e-5
-1.245, 1.584e-5
-1.244, 1.577e-5
-1.243, 1.570e-5
-1.242, 1.561e-5
-1.241, 1.548e-5
-1.240, 1.542e-5
-1.239, 1.532e-5
-1.238, 1.524e-5
-1.237, 1.518e-5
-1.236, 1.509e-5
-1.235, 1.500e-5
-1.234, 1.495e-5
-1.233, 1.484e-5
-1.232, 1.475e-5
-1.231, 1.465e-5
-1.230, 1.455e-5
-1.229, 1.448e-5
-1.228, 1.443e-5
-1.227, 1.433e-5
-1.226, 1.422e-5
-1.225, 1.415e-5
-1.224, 1.406e-5
-1.223, 1.399e-5
-1.222, 1.392e-5
-1.221, 1.379e-5
-1.220, 1.372e-5
-1.219, 1.364e-5
-1.218, 1.355e-5
-1.217, 1.350e-5
-1.216, 1.340e-5
-1.215, 1.334e-5
-1.214, 1.328e-5
-1.213, 1.318e-5
-1.212, 1.312e-5
-1.211, 1.301e-5
-1.210, 1.294e-5
-1.209, 1.287e-5
-1.208, 1.279e-5
-1.207, 1.273e-5
-1.206, 1.265e-5
-1.205, 1.260e-5
-1.204, 1.250e-5
-1.203, 1.242e-5
-1.202, 1.233e-5
-1.201, 1.227e-5
-1.200, 1.219e-5
-1.199, 1.216e-5
-1.198, 1.204e-5
-1.197, 1.199e-5
-1.196, 1.192e-5
-1.195, 1.181e-5
-1.194, 1.176e-5
-1.193, 1.166e-5
-1.192, 1.160e-5
-1.191, 1.152e-5
-1.190, 1.144e-5
-1.189, 1.136e-5
-1.188, 1.129e-5
-1.187, 1.123e-5
-1.186, 1.120e-5
-1.185, 1.108e-5
-1.184, 1.102e-5
-1.183, 1.093e-5
-1.182, 1.088e-5
-1.181, 1.080e-5
-1.180, 1.069e-5
-1.179, 1.063e-5
-1.178, 1.056e-5
-1.177, 1.050e-5
-1.176, 1.044e-5
-1.175, 1.034e-5
-1.174, 1.027e-5
-1.173, 1.025e-5
-1.172, 1.014e-5
-1.171, 1.006e-5
-1.170, 9.997e-6
-1.169, 9.922e-6
-1.168, 9.873e-6
-1.167, 9.787e-6
-1.166, 9.740e-6
-1.165, 9.640e-6
-1.164, 9.552e-6
-1.163, 9.472e-6
-1.162, 9.409e-6
-1.161, 9.323e-6
-1.160, 9.266e-6
-1.159, 9.188e-6
-1.158, 9.107e-6
-1.157, 9.024e-6
-1.156, 8.941e-6
-1.155, 8.887e-6
-1.154, 8.800e-6
-1.153, 8.740e-6
-1.152, 8.668e-6
-1.151, 8.599e-6
-1.150, 8.518e-6
-1.149, 8.422e-6
-1.148, 8.357e-6
-1.147, 8.277e-6
-1.146, 8.203e-6
-1.145, 8.133e-6
-1.144, 8.063e-6
-1.143, 7.990e-6
-1.142, 7.914e-6
-1.141, 7.832e-6
-1.140, 7.732e-6
-1.139, 7.661e-6
-1.138, 7.621e-6
-1.137, 7.556e-6
-1.136, 7.446e-6
-1.135, 7.411e-6
-1.134, 7.301e-6
-1.133, 7.243e-6
-1.132, 7.185e-6
-1.131, 7.059e-6
-1.130, 6.989e-6
-1.129, 6.937e-6
-1.128, 6.880e-6
-1.127, 6.803e-6
-1.126, 6.723e-6
-1.125, 6.660e-6
-1.124, 6.551e-6
-1.123, 6.491e-6
-1.122, 6.429e-6
-1.121, 6.370e-6
-1.120, 6.261e-6
-1.119, 6.212e-6
-1.118, 6.140e-6
-1.117, 6.081e-6
-1.116, 5.980e-6
-1.115, 5.908e-6
-1.114, 5.868e-6
-1.113, 5.774e-6
-1.112, 5.683e-6
-1.111, 5.630e-6
-1.110, 5.529e-6
-1.109, 5.507e-6
-1.108, 5.392e-6
-1.107, 5.311e-6
-1.106, 5.235e-6
-1.105, 5.169e-6
-1.104, 5.089e-6
-1.103, 5.020e-6
-1.102, 4.936e-6
-1.101, 4.885e-6
-1.100, 4.787e-6
-1.099, 4.719e-6
-1.098, 4.643e-6
-1.097, 4.528e-6
-1.096, 4.449e-6
-1.095, 4.395e-6
-1.094, 4.307e-6
-1.093, 4.263e-6
-1.092, 4.159e-6
-1.091, 4.057e-6
-1.090, 4.009e-6
-1.089, 3.921e-6
-1.088, 3.871e-6
-1.087, 3.788e-6
-1.086, 3.702e-6
-1.085, 3.640e-6
-1.084, 3.563e-6
-1.083, 3.458e-6
-1.082, 3.409e-6
-1.081, 3.290e-6
-1.080, 3.242e-6
-1.079, 3.169e-6
-1.078, 3.079e-6
-1.077, 2.986e-6
-1.076, 2.899e-6
-1.075, 2.795e-6
-1.074, 2.762e-6
-1.073, 2.641e-6
-1.072, 2.589e-6
-1.071, 2.467e-6
-1.070, 2.408e-6
-1.069, 2.323e-6
-1.068, 2.209e-6
-1.067, 2.153e-6
-1.066, 2.081e-6
-1.065, 1.970e-6
-1.064, 1.903e-6
-1.063, 1.816e-6
-1.062, 1.740e-6
-1.061, 1.630e-6
-1.060, 1.560e-6
-1.059, 1.488e-6
-1.058, 1.390e-6
-1.057, 1.311e-6
-1.056, 1.221e-6
-1.055, 1.140e-6
-1.054, 1.039e-6
-1.053, 9.479e-7
-1.052, 8.868e-7
-1.051, 7.960e-7
-1.050, 6.904e-7
-1.049, 6.263e-7
-1.048, 5.464e-7
-1.047, 4.635e-7
-1.046, 3.540e-7
-1.045, 2.800e-7
-1.044, 2.188e-7
-1.043, 7.972e-8
-1.042, 8.682e-9
-1.041, -8.307e-8
-1.040, -1.581e-7
-1.039, -2.439e-7
-1.038, -3.376e-7
-1.037, -4.313e-7
-1.036, -5.083e-7
-1.035, -6.247e-7
-1.034, -7.046e-7
-1.033, -7.776e-7
-1.032, -8.812e-7
-1.031, -9.532e-7
-1.030, -1.057e-6
-1.029, -1.144e-6
-1.028, -1.229e-6
-1.027, -1.317e-6
-1.026, -1.381e-6
-1.025, -1.467e-6
-1.024, -1.559e-6
-1.023, -1.647e-6
-1.022, -1.740e-6
-1.021, -1.848e-6
-1.020, -1.903e-6
-1.019, -1.999e-6
-1.018, -2.062e-6
-1.017, -2.145e-6
-1.016, -2.223e-6
-1.015, -2.314e-6
-1.014, -2.405e-6
-1.013, -2.457e-6
-1.012, -2.533e-6
-1.011, -2.617e-6
-1.010, -2.665e-6
-1.009, -2.755e-6
-1.008, -2.817e-6
-1.007, -2.919e-6
-1.006, -2.980e-6
-1.005, -3.037e-6
-1.004, -3.114e-6
-1.003, -3.177e-6
-1.002, -3.230e-6
-1.001, -3.332e-6
-1.000, -2.137e-6
-1.001, -1.258e-6
-1.002, -7.540e-7
-1.003, -2.735e-7
-1.004, 1.192e-7
-1.005, 5.010e-7
-1.006, 8.157e-7
-1.007, 1.154e-6
-1.008, 1.438e-6
-1.009, 1.698e-6
-1.010, 1.991e-6
-1.011, 2.251e-6
-1.012, 2.470e-6
-1.013, 2.702e-6
-1.014, 2.914e-6
-1.015, 3.144e-6
-1.016, 3.340e-6
-1.017, 3.521e-6
-1.018, 3.735e-6
-1.019, 3.886e-6
-1.020, 4.039e-6
-1.021, 4.238e-6
-1.022, 4.406e-6
-1.023, 4.554e-6
-1.024, 4.720e-6
-1.025, 4.871e-6
-1.026, 4.992e-6
-1.027, 5.145e-6
-1.028, 5.276e-6
-1.029, 5.408e-6
-1.030, 5.536e-6
-1.031, 5.686e-6
-1.032, 5.819e-6
-1.033, 5.893e-6
-1.034, 6.014e-6
-1.035, 6.104e-6
-1.036, 6.259e-6
-1.037, 6.366e-6
-1.038, 6.491e-6
-1.039, 6.592e-6
-1.040, 6.668e-6
-1.041, 6.768e-6
-1.042, 6.865e-6
-1.043, 6.955e-6
-1.044, 7.071e-6
-1.045, 7.193e-6
-1.046, 7.270e-6
-1.047, 7.355e-6
-1.048, 7.404e-6
-1.049, 7.490e-6
-1.050, 7.612e-6
-1.051, 7.718e-6
-1.052, 7.809e-6
-1.053, 7.887e-6
-1.054, 7.938e-6
-1.055, 8.018e-6
-1.056, 8.096e-6
-1.057, 8.170e-6
-1.058, 8.266e-6
-1.059, 8.311e-6
-1.060, 8.437e-6
-1.061, 8.487e-6
-1.062, 8.551e-6
-1.063, 8.615e-6
-1.064, 8.692e-6
-1.065, 8.784e-6
-1.066, 8.851e-6
-1.067, 8.915e-6
-1.068, 8.984e-6
-1.069, 9.069e-6
-1.070, 9.149e-6
-1.071, 9.177e-6
-1.072, 9.246e-6
-1.073, 9.314e-6
-1.074, 9.381e-6
-1.075, 9.467e-6
-1.076, 9.517e-6
-1.077, 9.602e-6
-1.078, 9.652e-6
-1.079, 9.691e-6
-1.080, 9.783e-6
-1.081, 9.841e-6
-1.082, 9.899e-6
-1.083, 9.922e-6
-1.084, 1.002e-5
-1.085, 1.009e-5
-1.086, 1.014e-5
-1.087, 1.021e-5
-1.088, 1.023e-5
-1.089, 1.031e-5
-1.090, 1.037e-5
-1.091, 1.043e-5
-1.092, 1.049e-5
-1.093, 1.054e-5
-1.094, 1.062e-5
-1.095, 1.069e-5
-1.096, 1.072e-5
-1.097, 1.079e-5
-1.098, 1.082e-5
-1.099, 1.089e-5
-1.100, 1.094e-5
-1.101, 1.103e-5
-1.102, 1.108e-5
-1.103, 1.112e-5
-1.104, 1.117e-5
-1.105, 1.121e-5
-1.106, 1.125e-5
-1.107, 1.133e-5
-1.108, 1.136e-5
-1.109, 1.142e-5
-1.110, 1.147e-5
-1.111, 1.153e-5
-1.112, 1.157e-5
-1.113, 1.161e-5
-1.114, 1.166e-5
-1.115, 1.173e-5
-1.116, 1.175e-5
-1.117, 1.181e-5
-1.118, 1.184e-5
-1.119, 1.187e-5
-1.120, 1.191e-5
-1.121, 1.199e-5
-1.122, 1.203e-5
-1.123, 1.206e-5
-1.124, 1.209e-5
-1.125, 1.214e-5
-1.126, 1.218e-5
-1.127, 1.222e-5
-1.128, 1.226e-5
-1.129, 1.231e-5
-1.130, 1.236e-5
-1.131, 1.240e-5
-1.132, 1.245e-5
-1.133, 1.247e-5
-1.134, 1.250e-5
-1.135, 1.255e-5
-1.136, 1.259e-5
-1.137, 1.263e-5
-1.138, 1.269e-5
-1.139, 1.272e-5
-1.140, 1.274e-5
-1.141, 1.277e-5
-1.142, 1.282e-5
-1.143, 1.288e-5
-1.144, 1.288e-5
-1.145, 1.294e-5
-1.146, 1.299e-5
-1.147, 1.302e-5
-1.148, 1.305e-5
-1.149, 1.305e-5
-1.150, 1.309e-5
-1.151, 1.315e-5
-1.152, 1.317e-5
-1.153, 1.322e-5
-1.154, 1.325e-5
-1.155, 1.328e-5
-1.156, 1.330e-5
-1.157, 1.337e-5
-1.158, 1.336e-5
-1.159, 1.340e-5
-1.160, 1.345e-5
-1.161, 1.348e-5
-1.162, 1.352e-5
-1.163, 1.354e-5
-1.164, 1.355e-5
-1.165, 1.360e-5
-1.166, 1.365e-5
-1.167, 1.368e-5
-1.168, 1.370e-5
-1.169, 1.372e-5
-1.170, 1.375e-5
-1.171, 1.378e-5
-1.172, 1.380e-5
-1.173, 1.384e-5
-1.174, 1.386e-5
-1.175, 1.390e-5
-1.176, 1.393e-5
-1.177, 1.394e-5
-1.178, 1.401e-5
-1.179, 1.402e-5
-1.180, 1.406e-5
-1.181, 1.410e-5
-1.182, 1.413e-5
-1.183, 1.412e-5
-1.184, 1.419e-5
-1.185, 1.422e-5
-1.186, 1.426e-5
-1.187, 1.431e-5
-1.188, 1.429e-5
-1.189, 1.433e-5
-1.190, 1.435e-5
-1.191, 1.440e-5
-1.192, 1.443e-5
-1.193, 1.445e-5
-1.194, 1.450e-5
-1.195, 1.454e-5
-1.196, 1.453e-5
-1.197, 1.456e-5
-1.198, 1.461e-5
-1.199, 1.466e-5
-1.200, 1.468e-5
-1.201, 1.471e-5
-1.202, 1.474e-5
-1.203, 1.474e-5
-1.204, 1.479e-5
-1.205, 1.483e-5
-1.206, 1.486e-5
-1.207, 1.490e-5
-1.208, 1.492e-5
-1.209, 1.497e-5
-1.210, 1.498e-5
-1.211, 1.503e-5
-1.212, 1.508e-5
-1.213, 1.512e-5
-1.214, 1.514e-5
-1.215, 1.518e-5
-1.216, 1.524e-5
-1.217, 1.528e-5
-1.218, 1.534e-5
-1.219, 1.538e-5
-1.220, 1.542e-5
-1.221, 1.545e-5
-1.222, 1.546e-5
-1.223, 1.551e-5
-1.224, 1.557e-5
-1.225, 1.559e-5
-1.226, 1.566e-5
-1.227, 1.568e-5
-1.228, 1.571e-5
-1.229, 1.576e-5
-1.230, 1.579e-5
-1.231, 1.584e-5
-1.232, 1.588e-5
-1.233, 1.590e-5
-1.234, 1.596e-5
-1.235, 1.599e-5
-1.236, 1.604e-5
-1.237, 1.609e-5
-1.238, 1.612e-5
-1.239, 1.617e-5
-1.240, 1.621e-5
-1.241, 1.629e-5
-1.242, 1.632e-5
-1.243, 1.635e-5
-1.244, 1.640e-5
-1.245, 1.646e-5
-1.246, 1.648e-5
-1.247, 1.654e-5
-1.248, 1.656e-5
-1.249, 1.660e-5
-1.250, 1.667e-5
-1.251, 1.671e-5
-1.252, 1.675e-5
-1.253, 1.682e-5
-1.254, 1.685e-5
-1.255, 1.687e-5
-1.256, 1.696e-5
-1.257, 1.700e-5
-1.258, 1.702e-5
-1.259, 1.707e-5
-1.260, 1.712e-5
-1.261, 1.715e-5
-1.262, 1.720e-5
-1.263, 1.725e-5
-1.264, 1.730e-5
-1.265, 1.738e-5
-1.266, 1.741e-5
-1.267, 1.748e-5
-1.268, 1.748e-5
-1.269, 1.751e-5
-1.270, 1.760e-5
-1.271, 1.766e-5
-1.272, 1.770e-5
-1.273, 1.775e-5
-1.274, 1.775e-5
-1.275, 1.781e-5
-1.276, 1.788e-5
-1.277, 1.791e-5
-1.278, 1.795e-5
-1.279, 1.801e-5
-1.280, 1.808e-5
-1.281, 1.812e-5
-1.282, 1.817e-5
-1.283, 1.818e-5
-1.284, 1.824e-5
-1.285, 1.832e-5
-1.286, 1.833e-5
-1.287, 1.838e-5
-1.288, 1.843e-5
-1.289, 1.848e-5
-1.290, 1.854e-5
-1.291, 1.857e-5
-1.292, 1.865e-5
-1.293, 1.870e-5
-1.294, 1.872e-5
-1.295, 1.880e-5
-1.296, 1.886e-5
-1.297, 1.893e-5
-1.298, 1.895e-5
-1.299, 1.906e-5
-1.300, 1.908e-5
-1.301, 1.914e-5
-1.302, 1.918e-5
-1.303, 1.924e-5
-1.304, 1.932e-5
-1.305, 1.936e-5
-1.306, 1.942e-5
-1.307, 1.950e-5
-1.308, 1.955e-5
-1.309, 1.962e-5
-1.310, 1.964e-5
-1.311, 1.972e-5
-1.312, 1.979e-5
-1.313, 1.983e-5
-1.314, 1.993e-5
-1.315, 1.997e-5
-1.316, 2.006e-5
-1.317, 2.012e-5
-1.318, 2.019e-5
-1.319, 2.028e-5
-1.320, 2.031e-5
-1.321, 2.039e-5
-1.322, 2.045e-5
-1.323, 2.055e-5
-1.324, 2.060e-5
-1.325, 2.069e-5
-1.326, 2.079e-5
-1.327, 2.086e-5
-1.328, 2.089e-5
-1.329, 2.098e-5
-1.330, 2.103e-5
-1.331, 2.114e-5
-1.332, 2.119e-5
-1.333, 2.129e-5
-1.334, 2.136e-5
-1.335, 2.148e-5
-1.336, 2.153e-5
-1.337, 2.163e-5
-1.338, 2.171e-5
-1.339, 2.178e-5
-1.340, 2.189e-5
-1.341, 2.198e-5
-1.342, 2.206e-5
-1.343, 2.210e-5
-1.344, 2.225e-5
-1.345, 2.236e-5
-1.346, 2.244e-5
-1.347, 2.255e-5
-1.348, 2.266e-5
-1.349, 2.272e-5
-1.350, 2.281e-5
-1.351, 2.294e-5
-1.352, 2.304e-5
-1.353, 2.311e-5
-1.354, 2.324e-5
-1.355, 2.335e-5
-1.356, 2.343e-5
-1.357, 2.352e-5
-1.358, 2.362e-5
-1.359, 2.374e-5
-1.360, 2.386e-5
-1.361, 2.398e-5
-1.362, 2.410e-5
-1.363, 2.417e-5
-1.364, 2.431e-5
-1.365, 2.442e-5
-1.366, 2.452e-5
-1.367, 2.467e-5
-1.368, 2.475e-5
-1.369, 2.491e-5
-1.370, 2.502e-5
-1.371, 2.516e-5
-1.372, 2.529e-5
-1.373, 2.543e-5
-1.374, 2.554e-5
-1.375, 2.570e-5
-1.376, 2.583e-5
-1.377, 2.598e-5
-1.378, 2.615e-5
-1.379, 2.630e-5
-1.380, 2.645e-5
-1.381, 2.661e-5
-1.382, 2.678e-5
-1.383, 2.696e-5
-1.384, 2.710e-5
-1.385, 2.729e-5
-1.386, 2.750e-5
-1.387, 2.761e-5
-1.388, 2.781e-5
-1.389, 2.802e-5
-1.390, 2.816e-5
-1.391, 2.840e-5
-1.392, 2.859e-5
-1.393, 2.877e-5
-1.394, 2.899e-5
-1.395, 2.919e-5
-1.396, 2.941e-5
-1.397, 2.963e-5
-1.398, 2.984e-5
-1.399, 3.008e-5
-1.400, 2.881e-5
-1.399, 2.783e-5
-1.398, 2.723e-5
-1.397, 2.676e-5
-1.396, 2.634e-5
-1.395, 2.594e-5
-1.394, 2.557e-5
-1.393, 2.521e-5
-1.392, 2.489e-5
-1.391, 2.458e-5
-1.390, 2.425e-5
-1.389, 2.398e-5
-1.388, 2.369e-5
-1.387, 2.340e-5
-1.386, 2.317e-5
-1.385, 2.289e-5
-1.384, 2.263e-5
-1.383, 2.238e-5
-1.382, 2.210e-5
-1.381, 2.187e-5
-1.380, 2.167e-5
-1.379, 2.142e-5
-1.378, 2.118e-5
-1.377, 2.098e-5
-1.376, 2.075e-5
-1.375, 2.059e-5
-1.374, 2.036e-5
-1.373, 2.015e-5
-1.372, 1.994e-5
-1.371, 1.976e-5
-1.370, 1.954e-5
-1.369, 1.937e-5
-1.368, 1.919e-5
-1.367, 1.901e-5
-1.366, 1.883e-5
-1.365, 1.866e-5
-1.364, 1.851e-5
-1.363, 1.826e-5
-1.362, 1.813e-5
-1.361, 1.797e-5
-1.360, 1.782e-5
-1.359, 1.768e-5
-1.358, 1.748e-5
-1.357, 1.736e-5
-1.356, 1.720e-5
-1.355, 1.706e-5
-1.354, 1.691e-5
-1.353, 1.672e-5
-1.352, 1.662e-5
-1.351, 1.650e-5
-1.350, 1.629e-5
-1.349, 1.620e-5
-1.348, 1.607e-5
-1.347, 1.592e-5
-1.346, 1.583e-5
-1.345, 1.568e-5
-1.344, 1.554e-5
-1.343, 1.544e-5
-1.342, 1.525e-5
-1.341, 1.521e-5
-1.340, 1.508e-5
-1.339, 1.498e-5
-1.338, 1.487e-5
-1.337, 1.474e-5
-1.336, 1.463e-5
-1.335, 1.449e-5
-1.334, 1.443e-5
-1.333, 1.430e-5
-1.332, 1.419e-5
-1.331, 1.411e-5
-1.330, 1.399e-5
-1.329, 1.387e-5
-1.328, 1.377e-5
-1.327, 1.366e-5
-1.326, 1.358e-5
-1.325, 1.349e-5
-1.324, 1.343e-5
-1.323, 1.331e-5
-1.322, 1.320e-5
-1.321, 1.313e-5
-1.320, 1.305e-5
-1.319, 1.292e-5
-1.318, 1.283e-5
-1.317, 1.277e-5
-1.316, 1.269e-5
-1.315, 1.259e-5
-1.314, 1.251e-5
-1.313, 1.243e-5
-1.312, 1.232e-5
-1.311, 1.226e-5
-1.310, 1.216e-5
-1.309, 1.210e-5
-1.308, 1.201e-5
-1.307, 1.193e-5
-1.306, 1.183e-5
-1.305, 1.176e-5
-1.304, 1.166e-5
-1.303, 1.159e-5
-1.302, 1.151e-5
-1.301, 1.144e-5
-1.300, 1.136e-5
-1.299, 1.128e-5
-1.298, 1.118e-5
-1.297, 1.111e-5
-1.296, 1.104e-5
-1.295, 1.099e-5
-1.294, 1.092e-5
-1.293, 1.084e-5
-1.292, 1.078e-5
-1.291, 1.069e-5
-1.290, 1.060e-5
-1.289, 1.057e-5
-1.288, 1.048e-5
-1.287, 1.041e-5
-1.286, 1.033e-5
-1.285, 1.029e-5
-1.284, 1.022e-5
-1.283, 1.011e-5
-1.282, 1.007e-5
-1.281, 9.992e-6
-1.280, 9.941e-6
-1.279, 9.872e-6
-1.278, 9.787e-6
-1.277, 9.747e-6
-1.276, 9.667e-6
-1.275, 9.598e-6
-1.274, 9.569e-6
-1.273, 9.481e-6
-1.272, 9.385e-6
-1.271, 9.350e-6
-1.270, 9.287e-6
-1.269, 9.232e-6
-1.268, 9.153e-6
-1.267, 9.091e-6
-1.266, 9.058e-6
-1.265, 9.011e-6
-1.264, 8.928e-6
-1.263, 8.888e-6
-1.262, 8.820e-6
-1.261, 8.762e-6
-1.260, 8.724e-6
-1.259, 8.664e-6
-1.258, 8.622e-6
-1.257, 8.563e-6
-1.256, 8.471e-6
-1.255, 8.427e-6
-1.254, 8.363e-6
-1.253, 8.296e-6
-1.252, 8.233e-6
-1.251, 8.212e-6
-1.250, 8.167e-6
-1.249, 8.090e-6
-1.248, 8.052e-6
-1.247, 7.988e-6
-1.246, 7.909e-6
-1.245, 7.886e-6
-1.244, 7.808e-6
-1.243, 7.755e-6
-1.242, 7.723e-6
-1.241, 7.657e-6
-1.240, 7.640e-6
-1.239, 7.544e-6
-1.238, 7.504e-6
-1.237, 7.477e-6
-1.236, 7.440e-6
-1.235, 7.383e-6
-1.234, 7.365e-6
-1.233, 7.295e-6
-1.232, 7.250e-6
-1.231, 7.175e-6
-1.230, 7.140e-6
-1.229, 7.077e-6
-1.228, 6.998e-6
-1.227, 6.999e-6
-1.226, 6.952e-6
-1.225, 6.894e-6
-1.224, 6.873e-6
-1.223, 6.814e-6
-1.222, 6.750e-6
-1.221, 6.731e-6
-1.220, 6.676e-6
-1.219, 6.638e-6
-1.218, 6.597e-6
-1.217, 6.553e-6
-1.216, 6.507e-6
-1.215, 6.426e-6
-1.214, 6.394e-6
-1.213, 6.337e-6
-1.212, 6.306e-6
-1.211, 6.276e-6
-1.210, 6.216e-6
-1.209, 6.180e-6
-1.208, 6.121e-6
-1.207, 6.100e-6
-1.206, 6.049e-6
-1.205, 5.999e-6
-1.204, 5.972e-6
-1.203, 5.925e-6
-1.202, 5.864e-6
-1.201, 5.821e-6
-1.200, 5.779e-6
-1.199, 5.756e-6
-1.198, 5.725e-6
-1.197, 5.638e-6
-1.196, 5.629e-6
-1.195, 5.598e-6
-1.194, 5.571e-6
-1.193, 5.466e-6
-1.192, 5.466e-6
-1.191, 5.415e-6
-1.190, 5.369e-6
-1.189, 5.344e-6
-1.188, 5.285e-6
-1.187, 5.249e-6
-1.186, 5.199e-6
-1.185, 5.131e-6
-1.184, 5.089e-6
-1.183, 5.060e-6
-1.182, 5.005e-6
-1.181, 4.972e-6
-1.180, 4.924e-6
-1.179, 4.835e-6
-1.178, 4.806e-6
-1.177, 4.769e-6
-1.176, 4.754e-6
-1.175, 4.711e-6
-1.174, 4.647e-6
-1.173, 4.624e-6
-1.172, 4.571e-6
-1.171, 4.541e-6
-1.170, 4.498e-6
-1.169, 4.461e-6
-1.168, 4.413e-6
-1.167, 4.361e-6
-1.166, 4.292e-6
-1.165, 4.267e-6
-1.164, 4.246e-6
-1.163, 4.191e-6
-1.162, 4.138e-6
-1.161, 4.073e-6
-1.160, 4.058e-6
-1.159, 4.005e-6
-1.158, 3.960e-6
-1.157, 3.913e-6
-1.156, 3.868e-6
-1.155, 3.818e-6
-1.154, 3.788e-6
-1.153, 3.733e-6
-1.152, 3.666e-6
-1.151, 3.654e-6
-1.150, 3.603e-6
-1.149, 3.533e-6
-1.148, 3.486e-6
-1.147, 3.491e-6
-1.146, 3.417e-6
-1.145, 3.374e-6
-1.144, 3.312e-6
-1.143, 3.277e-6
-1.142, 3.207e-6
-1.141, 3.169e-6
-1.140, 3.165e-6
-1.139, 3.106e-6
-1.138, 3.049e-6
-1.137, 3.013e-6
-1.136, 2.952e-6
-1.135, 2.905e-6
-1.134, 2.868e-6
-1.133, 2.806e-6
-1.132, 2.762e-6
-1.131, 2.717e-6
-1.130, 2.680e-6
-1.129, 2.650e-6
-1.128, 2.581e-6
-1.127, 2.542e-6
-1.126, 2.520e-6
-1.125, 2.429e-6
-1.124, 2.389e-6
-1.123, 2.333e-6
-1.122, 2.325e-6
-1.121, 2.259e-6
-1.120, 2.235e-6
-1.119, 2.168e-6
-1.118, 2.094e-6
-1.117, 2.096e-6
-1.116, 2.046e-6
-1.115, 1.983e-6
-1.114, 1.937e-6
-1.113, 1.872e-6
-1.112, 1.839e-6
-1.111, 1.810e-6
-1.110, 1.769e-6
-1.109, 1.753e-6
-1.108, 1.679e-6
-1.107, 1.622e-6
-1.106, 1.581e-6
-1.105, 1.540e-6
-1.104, 1.476e-6
-1.103, 1.456e-6
-1.102, 1.370e-6
-1.101, 1.337e-6
-1.100, 1.279e-6
-1.099, 1.215e-6
-1.098, 1.180e-6
-1.097, 1.127e-6
-1.096, 1.071e-6
-1.095, 1.029e-6
-1.094, 9.854e-7
-1.093, 9.479e-7
-1.092, 8.897e-7
-1.091, 8.374e-7
-1.090, 7.772e-7
-1.089, 7.141e-7
-1.088, 6.667e-7
-1.087, 6.431e-7
-1.086, 5.760e-7
-1.085, 5.059e-7
-1.084, 4.783e-7
-1.083, 3.994e-7
-1.082, 3.826e-7
-1.081, 2.968e-7
-1.080, 2.267e-7
-1.079, 1.606e-7
-1.078, 1.281e-7
-1.077, 7.972e-8
-1.076, 2.348e-8
-1.075, -7.814e-8
-1.074, -1.077e-7
-1.073, -1.886e-7
-1.072, -2.498e-7
-1.071, -2.962e-7
-1.070, -3.790e-7
-1.069, -4.215e-7
-1.068, -5.132e-7
-1.067, -5.458e-7
-1.066, -5.981e-7
-1.065, -6.859e-7
-1.064, -7.352e-7
-1.063, -8.230e-7
-1.062, -8.931e-7
-1.061, -9.394e-7
-1.060, -1.003e-6
-1.059, -1.067e-6
-1.058, -1.130e-6
-1.057, -1.194e-6
-1.056, -1.256e-6
-1.055, -1.319e-6
-1.054, -1.380e-6
-1.053, -1.465e-6
-1.052, -1.531e-6
-1.051, -1.605e-6
-1.050, -1.640e-6
-1.049, -1.740e-6
-1.048, -1.788e-6
-1.047, -1.872e-6
-1.046, -1.952e-6
-1.045, -1.992e-6
-1.044, -2.084e-6
-1.043, -2.157e-6
-1.042, -2.215e-6
-1.041, -2.295e-6
-1.040, -2.316e-6
-1.039, -2.402e-6
-1.038, -2.466e-6
-1.037, -2.545e-6
-1.036, -2.626e-6
-1.035, -2.680e-6
-1.034, -2.769e-6
-1.033, -2.823e-6
-1.032, -2.884e-6
-1.031, -2.975e-6
-1.030, -3.016e-6
-1.029, -3.097e-6
-1.028, -3.140e-6
-1.027, -3.250e-6
-1.026, -3.339e-6
-1.025, -3.368e-6
-1.024, -3.457e-6
-1.023, -3.515e-6
-1.022, -3.570e-6
-1.021, -3.650e-6
-1.020, -3.698e-6
-1.019, -3.797e-6
-1.018, -3.818e-6
-1.017, -3.901e-6
-1.016, -3.982e-6
-1.015, -4.036e-6
-1.014, -4.097e-6
-1.013, -4.160e-6
-1.012, -4.235e-6
-1.011, -4.305e-6
-1.010, -4.347e-6
-1.009, -4.424e-6
-1.008, -4.488e-6
-1.007, -4.528e-6
-1.006, -4.633e-6
-1.005, -4.673e-6
-1.004, -4.757e-6
-1.003, -4.805e-6
-1.002, -4.859e-6
-1.001, -4.924e-6
-1.000, -3.745e-6
-1.001, -2.896e-6
-1.002, -2.406e-6
-1.003, -1.964e-6
-1.004, -1.606e-6
-1.005, -1.287e-6
-1.006, -9.483e-7
-1.007, -6.405e-7
-1.008, -3.721e-7
-1.009, -1.137e-7
-1.010, 1.202e-7
-1.011, 3.333e-7
-1.012, 5.493e-7
-1.013, 7.861e-7
-1.014, 9.657e-7
-1.015, 1.150e-6
-1.016, 1.317e-6
-1.017, 1.489e-6
-1.018, 1.676e-6
-1.019, 1.812e-6
-1.020, 1.989e-6
-1.021, 2.138e-6
-1.022, 2.299e-6
-1.023, 2.445e-6
-1.024, 2.602e-6
-1.025, 2.715e-6
-1.026, 2.843e-6
-1.027, 2.970e-6
-1.028, 3.105e-6
-1.029, 3.220e-6
-1.030, 3.341e-6
-1.031, 3.459e-6
-1.032, 3.563e-6
-1.033, 3.671e-6
-1.034, 3.793e-6
-1.035, 3.875e-6
-1.036, 3.982e-6
-1.037, 4.090e-6
-1.038, 4.198e-6
-1.039, 4.306e-6
-1.040, 4.391e-6
-1.041, 4.451e-6
-1.042, 4.550e-6
-1.043, 4.665e-6
-1.044, 4.732e-6
-1.045, 4.843e-6
-1.046, 4.917e-6
-1.047, 5.000e-6
-1.048, 5.074e-6
-1.049, 5.141e-6
-1.050, 5.247e-6
-1.051, 5.321e-6
-1.052, 5.366e-6
-1.053, 5.466e-6
-1.054, 5.524e-6
-1.055, 5.629e-6
-1.056, 5.703e-6
-1.057, 5.729e-6
-1.058, 5.817e-6
-1.059, 5.879e-6
-1.060, 5.956e-6
-1.061, 6.021e-6
-1.062, 6.080e-6
-1.063, 6.165e-6
-1.064, 6.231e-6
-1.065, 6.288e-6
-1.066, 6.335e-6
-1.067, 6.418e-6
-1.068, 6.455e-6
-1.069, 6.508e-6
-1.070, 6.570e-6
-1.071, 6.633e-6
-1.072, 6.708e-6
-1.073, 6.759e-6
-1.074, 6.805e-6
-1.075, 6.862e-6
-1.076, 6.909e-6
-1.077, 6.962e-6
-1.078, 7.016e-6
-1.079, 7.073e-6
-1.080, 7.110e-6
-1.081, 7.161e-6
-1.082, 7.221e-6
-1.083, 7.264e-6
-1.084, 7.328e-6
-1.085, 7.372e-6
-1.086, 7.394e-6
-1.087, 7.436e-6
-1.088, 7.492e-6
-1.089, 7.564e-6
-1.090, 7.600e-6
-1.091, 7.636e-6
-1.092, 7.696e-6
-1.093, 7.725e-6
-1.094, 7.785e-6
-1.095, 7.833e-6
-1.096, 7.855e-6
-1.097, 7.920e-6
-1.098, 7.946e-6
-1.099, 7.987e-6
-1.100, 8.023e-6
-1.101, 8.070e-6
-1.102, 8.112e-6
-1.103, 8.161e-6
-1.104, 8.219e-6
-1.105, 8.243e-6
-1.106, 8.258e-6
-1.107, 8.299e-6
-1.108, 8.370e-6
-1.109, 8.403e-6
-1.110, 8.420e-6
-1.111, 8.464e-6
-1.112, 8.499e-6
-1.113, 8.518e-6
-1.114, 8.614e-6
-1.115, 8.618e-6
-1.116, 8.629e-6
-1.117, 8.680e-6
-1.118, 8.706e-6
-1.119, 8.768e-6
-1.120, 8.785e-6
-1.121, 8.808e-6
-1.122, 8.855e-6
-1.123, 8.908e-6
-1.124, 8.966e-6
-1.125, 8.963e-6
-1.126, 8.973e-6
-1.127, 9.008e-6
-1.128, 9.028e-6
-1.129, 9.100e-6
-1.130, 9.111e-6
-1.131, 9.121e-6
-1.132, 9.197e-6
-1.133, 9.236e-6
-1.134, 9.252e-6
-1.135, 9.293e-6
-1.136, 9.281e-6
-1.137, 9.333e-6
-1.138, 9.375e-6
-1.139, 9.396e-6
-1.140, 9.441e-6
-1.141, 9.465e-6
-1.142, 9.489e-6
-1.143, 9.540e-6
-1.144, 9.549e-6
-1.145, 9.580e-6
-1.146, 9.593e-6
-1.147, 9.639e-6
-1.148, 9.671e-6
-1.149, 9.691e-6
-1.150, 9.727e-6
-1.151, 9.753e-6
-1.152, 9.789e-6
-1.153, 9.819e-6
-1.154, 9.857e-6
-1.155, 9.882e-6
-1.156, 9.907e-6
-1.157, 9.942e-6
-1.158, 9.958e-6
-1.159, 9.979e-6
-1.160, 1.001e-5
-1.161, 1.006e-5
-1.162, 1.004e-5
-1.163, 1.010e-5
-1.164, 1.011e-5
-1.165, 1.016e-5
-1.166, 1.019e-5
-1.167, 1.022e-5
-1.168, 1.021e-5
-1.169, 1.025e-5
-1.170, 1.029e-5
-1.171, 1.029e-5
-1.172, 1.032e-5
-1.173, 1.036e-5
-1.174, 1.039e-5
-1.175, 1.038e-5
-1.176, 1.041e-5
-1.177, 1.047e-5
-1.178, 1.048e-5
-1.179, 1.051e-5
-1.180, 1.054e-5
-1.181, 1.055e-5
-1.182, 1.059e-5
-1.183, 1.063e-5
-1.184, 1.065e-5
-1.185, 1.065e-5
-1.186, 1.070e-5
-1.187, 1.071e-5
-1.188, 1.075e-5
-1.189, 1.077e-5
-1.190, 1.077e-5
-1.191, 1.082e-5
-1.192, 1.083e-5
-1.193, 1.088e-5
-1.194, 1.089e-5
-1.195, 1.091e-5
-1.196, 1.095e-5
-1.197, 1.095e-5
-1.198, 1.099e-5
-1.199, 1.103e-5
-1.200, 1.104e-5
-1.201, 1.106e-5
-1.202, 1.107e-5
-1.203, 1.112e-5
-1.204, 1.112e-5
-1.205, 1.117e-5
-1.206, 1.120e-5
-1.207, 1.121e-5
-1.208, 1.121e-5
-1.209, 1.127e-5
-1.210, 1.130e-5
-1.211, 1.133e-5
-1.212, 1.135e-5
-1.213, 1.136e-5
-1.214, 1.139e-5
-1.215, 1.143e-5
-1.216, 1.148e-5
-1.217, 1.148e-5
-1.218, 1.153e-5
-1.219, 1.155e-5
-1.220, 1.161e-5
-1.221, 1.159e-5
-1.222, 1.163e-5
-1.223, 1.165e-5
-1.224, 1.170e-5
-1.225, 1.174e-5
-1.226, 1.173e-5
-1.227, 1.174e-5
-1.228, 1.181e-5
-1.229, 1.187e-5
-1.230, 1.189e-5
-1.231, 1.190e-5
-1.232, 1.196e-5
-1.233, 1.197e-5
-1.234, 1.199e-5
-1.235, 1.202e-5
-1.236, 1.206e-5
-1.237, 1.207e-5
-1.238, 1.209e-5
-1.239, 1.219e-5
-1.240, 1.219e-5
-1.241, 1.222e-5
-1.242, 1.225e-5
-1.243, 1.228e-5
-1.244, 1.231e-5
-1.245, 1.235e-5
-1.246, 1.239e-5
-1.247, 1.242e-5
-1.248, 1.247e-5
-1.249, 1.248e-5
-1.250, 1.253e-5
-1.251, 1.254e-5
-1.252, 1.260e-5
-1.253, 1.262e-5
-1.254, 1.265e-5
-1.255, 1.269e-5
-1.256, 1.274e-5
-1.257, 1.280e-5
-1.258, 1.281e-5
-1.259, 1.284e-5
-1.260, 1.288e-5
-1.261, 1.288e-5
-1.262, 1.295e-5
-1.263, 1.299e-5
-1.264, 1.304e-5
-1.265, 1.306e-5
-1.266, 1.313e-5
-1.267, 1.315e-5
-1.268, 1.322e-5
-1.269, 1.328e-5
-1.270, 1.329e-5
-1.271, 1.331e-5
-1.272, 1.337e-5
-1.273, 1.340e-5
-1.274, 1.345e-5
-1.275, 1.350e-5
-1.276, 1.354e-5
-1.277, 1.357e-5
-1.278, 1.362e-5
-1.279, 1.365e-5
-1.280, 1.368e-5
-1.281, 1.376e-5
-1.282, 1.382e-5
-1.283, 1.386e-5
-1.284, 1.388e-5
-1.285, 1.395e-5
-1.286, 1.398e-5
-1.287, 1.404e-5
-1.288, 1.408e-5
-1.289, 1.414e-5
-1.290, 1.416e-5
-1.291, 1.421e-5
-1.292, 1.430e-5
-1.293, 1.435e-5
-1.294, 1.435e-5
-1.295, 1.441e-5
-1.296, 1.444e-5
-1.297, 1.451e-5
-1.298, 1.459e-5
-1.299, 1.462e-5
-1.300, 1.467e-5
-1.301, 1.473e-5
-1.302, 1.478e-5
-1.303, 1.484e-5
-1.304, 1.488e-5
-1.305, 1.494e-5
-1.306, 1.498e-5
-1.307, 1.505e-5
-1.308, 1.510e-5
-1.309, 1.515e-5
-1.310, 1.522e-5
-1.311, 1.525e-5
-1.312, 1.531e-5
-1.313, 1.540e-5
-1.314, 1.544e-5
-1.315, 1.550e-5
-1.316, 1.552e-5
-1.317, 1.558e-5
-1.318, 1.566e-5
-1.319, 1.573e-5
-1.320, 1.578e-5
-1.321, 1.586e-5
-1.322, 1.590e-5
-1.323, 1.596e-5
-1.324, 1.606e-5
-1.325, 1.611e-5
-1.326, 1.615e-5
-1.327, 1.621e-5
-1.328, 1.630e-5
-1.329, 1.637e-5
-1.330, 1.642e-5
-1.331, 1.650e-5
-1.332, 1.655e-5
-1.333, 1.662e-5
-1.334, 1.670e-5
-1.335, 1.674e-5
-1.336, 1.681e-5
-1.337, 1.687e-5
-1.338, 1.698e-5
-1.339, 1.706e-5
-1.340, 1.711e-5
-1.341, 1.716e-5
-1.342, 1.726e-5
-1.343, 1.730e-5
-1.344, 1.740e-5
-1.345, 1.746e-5
-1.346, 1.755e-5
-1.347, 1.762e-5
-1.348, 1.770e-5
-1.349, 1.780e-5
-1.350, 1.783e-5
-1.351, 1.794e-5
-1.352, 1.802e-5
-1.353, 1.810e-5
-1.354, 1.824e-5
-1.355, 1.830e-5
-1.356, 1.834e-5
-1.357, 1.843e-5
-1.358, 1.849e-5
-1.359, 1.862e-5
-1.360, 1.865e-5
-1.361, 1.880e-5
-1.362, 1.889e-5
-1.363, 1.896e-5
-1.364, 1.909e-5
-1.365, 1.917e-5
-1.366, 1.923e-5
-1.367, 1.934e-5
-1.368, 1.942e-5
-1.369, 1.959e-5
-1.370, 1.967e-5
-1.371, 1.977e-5
-1.372, 1.989e-5
-1.373, 1.998e-5
-1.374, 2.010e-5
-1.375, 2.025e-5
-1.376, 2.034e-5
-1.377, 2.048e-5
-1.378, 2.057e-5
-1.379, 2.071e-5
-1.380, 2.085e-5
-1.381, 2.099e-5
-1.382, 2.115e-5
-1.383, 2.130e-5
-1.384, 2.142e-5
-1.385, 2.154e-5
-1.386, 2.168e-5
-1.387, 2.179e-5
-1.388, 2.194e-5
-1.389, 2.212e-5
-1.390, 2.227e-5
-1.391, 2.245e-5
-1.392, 2.259e-5
-1.393, 2.271e-5
-1.394, 2.293e-5
-1.395, 2.309e-5
-1.396, 2.324e-5
-1.397, 2.339e-5
-1.398, 2.358e-5
-1.399, 2.375e-5
-1.400, 2.250e-5
-1.399, 2.158e-5
-1.398, 2.107e-5
-1.397, 2.060e-5
-1.396, 2.023e-5
-1.395, 1.990e-5
-1.394, 1.955e-5
-1.393, 1.925e-5
-1.392, 1.895e-5
-1.391, 1.871e-5
-1.390, 1.841e-5
-1.389, 1.819e-5
-1.388, 1.794e-5
-1.387, 1.770e-5
-1.386, 1.749e-5
-1.385, 1.726e-5
-1.384, 1.704e-5
-1.383, 1.682e-5
-1.382, 1.662e-5
-1.381, 1.646e-5
-1.380, 1.625e-5
-1.379, 1.605e-5
-1.378, 1.586e-5
-1.377, 1.565e-5
-1.376, 1.549e-5
-1.375, 1.533e-5
-1.374, 1.510e-5
-1.373, 1.500e-5
-1.372, 1.484e-5
-1.371, 1.467e-5
-1.370, 1.452e-5
-1.369, 1.433e-5
-1.368, 1.421e-5
-1.367, 1.407e-5
-1.366, 1.389e-5
-1.365, 1.379e-5
-1.364, 1.362e-5
-1.363, 1.349e-5
-1.362, 1.337e-5
-1.361, 1.327e-5
-1.360, 1.312e-5
-1.359, 1.301e-5
-1.358, 1.291e-5
-1.357, 1.276e-5
-1.356, 1.264e-5
-1.355, 1.250e-5
-1.354, 1.239e-5
-1.353, 1.228e-5
-1.352, 1.218e-5
-1.351, 1.207e-5
-1.350, 1.195e-5
-1.349, 1.185e-5
-1.348, 1.169e-5
-1.347, 1.161e-5
-1.346, 1.153e-5
-1.345, 1.142e-5
-1.344, 1.134e-5
-1.343, 1.122e-5
-1.342, 1.113e-5
-1.341, 1.104e-5
-1.340, 1.093e-5
-1.339, 1.081e-5
-1.338, 1.071e-5
-1.337, 1.061e-5
-1.336, 1.057e-5
-1.335, 1.048e-5
-1.334, 1.035e-5
-1.333, 1.029e-5
-1.332, 1.020e-5
-1.331, 1.010e-5
-1.330, 1.002e-5
-1.329, 9.967e-6
-1.328, 9.905e-6
-1.327, 9.819e-6
-1.326, 9.748e-6
-1.325, 9.653e-6
-1.324, 9.574e-6
-1.323, 9.488e-6
-1.322, 9.442e-6
-1.321, 9.345e-6
-1.320, 9.268e-6
-1.319, 9.225e-6
-1.318, 9.130e-6
-1.317, 9.060e-6
-1.316, 8.983e-6
-1.315, 8.921e-6
-1.314, 8.897e-6
-1.313, 8.830e-6
-1.312, 8.792e-6
-1.311, 8.676e-6
-1.310, 8.597e-6
-1.309, 8.554e-6
-1.308, 8.489e-6
-1.307, 8.435e-6
-1.306, 8.332e-6
-1.305, 8.275e-6
-1.304, 8.226e-6
-1.303, 8.185e-6
-1.302, 8.101e-6
-1.301, 8.054e-6
-1.300, 7.986e-6
-1.299, 7.905e-6
-1.298, 7.859e-6
-1.297, 7.811e-6
-1.296, 7.777e-6
-1.295, 7.688e-6
-1.294, 7.630e-6
-1.293, 7.564e-6
-1.292, 7.512e-6
-1.291, 7.464e-6
-1.290, 7.418e-6
-1.289, 7.348e-6
-1.288, 7.324e-6
-1.287, 7.290e-6
-1.286, 7.197e-6
-1.285, 7.162e-6
-1.284, 7.130e-6
-1.283, 7.069e-6
-1.282, 7.011e-6
-1.281, 6.963e-6
-1.280, 6.891e-6
-1.279, 6.868e-6
-1.278, 6.830e-6
-1.277, 6.783e-6
-1.276, 6.727e-6
-1.275, 6.669e-6
-1.274, 6.624e-6
-1.273, 6.593e-6
-1.272, 6.538e-6
-1.271, 6.475e-6
-1.270, 6.426e-6
-1.269, 6.386e-6
-1.268, 6.370e-6
-1.267, 6.307e-6
-1.266, 6.221e-6
-1.265, 6.166e-6
-1.264, 6.133e-6
-1.263, 6.106e-6
-1.262, 6.060e-6
-1.261, 6.016e-6
-1.260, 5.987e-6
-1.259, 5.958e-6
-1.258, 5.937e-6
-1.257, 5.859e-6
-1.256, 5.814e-6
-1.255, 5.771e-6
-1.254, 5.688e-6
-1.253, 5.693e-6
-1.252, 5.642e-6
-1.251, 5.598e-6
-1.250, 5.581e-6
-1.249, 5.547e-6
-1.248, 5.489e-6
-1.247, 5.456e-6
-1.246, 5.430e-6
-1.245, 5.401e-6
-1.244, 5.336e-6
-1.243, 5.320e-6
-1.242, 5.260e-6
-1.241, 5.265e-6
-1.240, 5.208e-6
-1.239, 5.171e-6
-1.238, 5.129e-6
-1.237, 5.097e-6
-1.236, 5.085e-6
-1.235, 5.043e-6
-1.234, 5.028e-6
-1.233, 4.992e-6
-1.232, 4.958e-6
-1.231, 4.925e-6
-1.230, 4.851e-6
-1.229, 4.791e-6
-1.228, 4.795e-6
-1.227, 4.776e-6
-1.226, 4.738e-6
-1.225, 4.702e-6
-1.224, 4.666e-6
-1.223, 4.612e-6
-1.222, 4.570e-6
-1.221, 4.561e-6
-1.220, 4.518e-6
-1.219, 4.493e-6
-1.218, 4.456e-6
-1.217, 4.446e-6
-1.216, 4.378e-6
-1.215, 4.313e-6
-1.214, 4.311e-6
-1.213, 4.283e-6
-1.212, 4.262e-6
-1.211, 4.257e-6
-1.210, 4.204e-6
-1.209, 4.174e-6
-1.208, 4.163e-6
-1.207, 4.115e-6
-1.206, 4.092e-6
-1.205, 4.035e-6
-1.204, 4.005e-6
-1.203, 3.956e-6
-1.202, 3.943e-6
-1.201, 3.905e-6
-1.200, 3.877e-6
-1.199, 3.849e-6
-1.198, 3.802e-6
-1.197, 3.772e-6
-1.196, 3.700e-6
-1.195, 3.673e-6
-1.194, 3.670e-6
-1.193, 3.621e-6
-1.192, 3.564e-6
-1.191, 3.542e-6
-1.190, 3.499e-6
-1.189, 3.472e-6
-1.188, 3.447e-6
-1.187, 3.416e-6
-1.186, 3.394e-6
-1.185, 3.371e-6
-1.184, 3.336e-6
-1.183, 3.315e-6
-1.182, 3.316e-6
-1.181, 3.257e-6
-1.180, 3.228e-6
-1.179, 3.155e-6
-1.178, 3.144e-6
-1.177, 3.112e-6
-1.176, 3.068e-6
-1.175, 3.021e-6
-1.174, 2.976e-6
-1.173, 2.937e-6
-1.172, 2.963e-6
-1.171, 2.898e-6
-1.170, 2.867e-6
-1.169, 2.832e-6
-1.168, 2.785e-6
-1.167, 2.791e-6
-1.166, 2.733e-6
-1.165, 2.699e-6
-1.164, 2.659e-6
-1.163, 2.605e-6
-1.162, 2.612e-6
-1.161, 2.559e-6
-1.160, 2.509e-6
-1.159, 2.499e-6
-1.158, 2.458e-6
-1.157, 2.434e-6
-1.156, 2.388e-6
-1.155, 2.336e-6
-1.154, 2.332e-6
-1.153, 2.311e-6
-1.152, 2.238e-6
-1.151, 2.201e-6
-1.150, 2.144e-6
-1.149, 2.163e-6
-1.148, 2.096e-6
-1.147, 2.084e-6
-1.146, 2.024e-6
-1.145, 1.944e-6
-1.144, 1.932e-6
-1.143, 1.913e-6
-1.142, 1.890e-6
-1.141, 1.875e-6
-1.140, 1.816e-6
-1.139, 1.758e-6
-1.138, 1.713e-6
-1.137, 1.658e-6
-1.136, 1.647e-6
-1.135, 1.599e-6
-1.134, 1.565e-6
-1.133, 1.521e-6
-1.132, 1.479e-6
-1.131, 1.464e-6
-1.130, 1.416e-6
-1.129, 1.391e-6
-1.128, 1.362e-6
-1.127, 1.299e-6
-1.126, 1.256e-6
-1.125, 1.236e-6
-1.124, 1.207e-6
-1.123, 1.172e-6
-1.122, 1.114e-6
-1.121, 1.074e-6
-1.120, 1.011e-6
-1.119, 9.913e-7
-1.118, 9.607e-7
-1.117, 9.450e-7
-1.116, 9.252e-7
-1.115, 8.572e-7
-1.114, 8.226e-7
-1.113, 7.753e-7
-1.112, 7.555e-7
-1.111, 7.309e-7
-1.110, 6.411e-7
-1.109, 6.223e-7
-1.108, 5.997e-7
-1.107, 5.483e-7
-1.106, 5.118e-7
-1.105, 4.704e-7
-1.104, 4.122e-7
-1.103, 3.964e-7
-1.102, 3.589e-7
-1.101, 2.958e-7
-1.100, 2.415e-7
-1.099, 1.961e-7
-1.098, 1.754e-7
-1.097, 1.261e-7
-1.096, 9.156e-8
-1.095, 4.321e-8
-1.094, -2.171e-9
-1.093, -5.347e-8
-1.092, -7.419e-8
-1.091, -9.294e-8
-1.090, -1.689e-7
-1.089, -2.251e-7
-1.088, -2.518e-7
-1.087, -2.942e-7
-1.086, -3.396e-7
-1.085, -3.731e-7
-1.084, -4.195e-7
-1.083, -4.935e-7
-1.082, -5.024e-7
-1.081, -5.507e-7
-1.080, -6.218e-7
-1.079, -6.326e-7
-1.078, -6.928e-7
-1.077, -7.392e-7
-1.076, -7.984e-7
-1.075, -8.871e-7
-1.074, -9.069e-7
-1.073, -9.503e-7
-1.072, -1.004e-6
-1.071, -1.045e-6
-1.070, -1.118e-6
-1.069, -1.170e-6
-1.068, -1.216e-6
-1.067, -1.254e-6
-1.066, -1.292e-6
-1.065, -1.389e-6
-1.064, -1.420e-6
-1.063, -1.501e-6
-1.062, -1.558e-6
-1.061, -1.590e-6
-1.060, -1.677e-6
-1.059, -1.726e-6
-1.058, -1.763e-6
-1.057, -1.798e-6
-1.056, -1.870e-6
-1.055, -1.957e-6
-1.054, -1.993e-6
-1.053, -2.065e-6
-1.052, -2.086e-6
-1.051, -2.149e-6
-1.050, -2.222e-6
-1.049, -2.285e-6
-1.048, -2.348e-6
-1.047, -2.379e-6
-1.046, -2.441e-6
-1.045, -2.526e-6
-1.044, -2.571e-6
-1.043, -2.628e-6
-1.042, -2.698e-6
-1.041, -2.755e-6
-1.040, -2.782e-6
-1.039, -2.834e-6
-1.038, -2.894e-6
-1.037, -2.946e-6
-1.036, -3.031e-6
-1.035, -3.104e-6
-1.034, -3.136e-6
-1.033, -3.188e-6
-1.032, -3.263e-6
-1.031, -3.340e-6
-1.030, -3.395e-6
-1.029, -3.423e-6
-1.028, -3.480e-6
-1.027, -3.550e-6
-1.026, -3.612e-6
-1.025, -3.681e-6
-1.024, -3.770e-6
-1.023, -3.795e-6
-1.022, -3.843e-6
-1.021, -3.921e-6
-1.020, -3.967e-6
-1.019, -4.032e-6
-1.018, -4.097e-6
-1.017, -4.146e-6
-1.016, -4.206e-6
-1.015, -4.263e-6
-1.014, -4.340e-6
-1.013, -4.386e-6
-1.012, -4.418e-6
-1.011, -4.508e-6
-1.010, -4.561e-6
-1.009, -4.626e-6
-1.008, -4.691e-6
-1.007, -4.716e-6
-1.006, -4.813e-6
-1.005, -4.820e-6
-1.004, -4.888e-6
-1.003, -4.953e-6
-1.002, -5.006e-6
-1.001, -5.067e-6
