Aug. 18, 2024   06:31:58
Cyclic Voltammetry
File: c:/users/guazh/data/20240813_batch_94_500/2024-08-15-exp120\exp120-2024-08-18t06_18_57-h2koh\exp120_cv_50mvs_efin_-1800mv.bin
Data Source:  Experiment
Instrument Model:  CHI760E
Header: CV ran at 50 mVs
Note: 

Init E (V) = -1
High E (V) = -1
Low E (V) = -1.8
Final E (V) = -1
Init P/N = N
Scan Rate (V/s) = 0.05
Segment = 7
Sample Interval (V) = 0.001
Quiet Time (sec) = 60
Sensitivity (A/V) = 0.001
Comp R (ohm) = 1.6

Results:

Channel 1:
Segment 1:

Segment 2:

Segment 3:

Segment 4:

Segment 5:

Segment 6:

Segment 7:

Potential/V, Current/A

-1.000, 1.573e-6
-1.001, 1.714e-6
-1.002, 1.784e-6
-1.003, 1.848e-6
-1.004, 1.914e-6
-1.005, 1.974e-6
-1.006, 1.976e-6
-1.007, 2.004e-6
-1.008, 2.033e-6
-1.009, 2.110e-6
-1.010, 2.118e-6
-1.011, 2.179e-6
-1.012, 2.196e-6
-1.013, 2.209e-6
-1.014, 2.244e-6
-1.015, 2.268e-6
-1.016, 2.306e-6
-1.017, 2.317e-6
-1.018, 2.336e-6
-1.019, 2.377e-6
-1.020, 2.385e-6
-1.021, 2.421e-6
-1.022, 2.441e-6
-1.023, 2.450e-6
-1.024, 2.476e-6
-1.025, 2.512e-6
-1.026, 2.523e-6
-1.027, 2.545e-6
-1.028, 2.544e-6
-1.029, 2.588e-6
-1.030, 2.607e-6
-1.031, 2.642e-6
-1.032, 2.641e-6
-1.033, 2.661e-6
-1.034, 2.662e-6
-1.035, 2.670e-6
-1.036, 2.697e-6
-1.037, 2.735e-6
-1.038, 2.731e-6
-1.039, 2.763e-6
-1.040, 2.791e-6
-1.041, 2.797e-6
-1.042, 2.818e-6
-1.043, 2.836e-6
-1.044, 2.857e-6
-1.045, 2.864e-6
-1.046, 2.890e-6
-1.047, 2.907e-6
-1.048, 2.931e-6
-1.049, 2.930e-6
-1.050, 2.956e-6
-1.051, 3.010e-6
-1.052, 2.996e-6
-1.053, 2.997e-6
-1.054, 3.040e-6
-1.055, 3.057e-6
-1.056, 3.077e-6
-1.057, 3.087e-6
-1.058, 3.101e-6
-1.059, 3.113e-6
-1.060, 3.107e-6
-1.061, 3.176e-6
-1.062, 3.165e-6
-1.063, 3.204e-6
-1.064, 3.207e-6
-1.065, 3.224e-6
-1.066, 3.242e-6
-1.067, 3.249e-6
-1.068, 3.282e-6
-1.069, 3.286e-6
-1.070, 3.292e-6
-1.071, 3.326e-6
-1.072, 3.332e-6
-1.073, 3.361e-6
-1.074, 3.403e-6
-1.075, 3.381e-6
-1.076, 3.406e-6
-1.077, 3.448e-6
-1.078, 3.467e-6
-1.079, 3.473e-6
-1.080, 3.482e-6
-1.081, 3.492e-6
-1.082, 3.506e-6
-1.083, 3.532e-6
-1.084, 3.551e-6
-1.085, 3.564e-6
-1.086, 3.586e-6
-1.087, 3.579e-6
-1.088, 3.596e-6
-1.089, 3.625e-6
-1.090, 3.639e-6
-1.091, 3.651e-6
-1.092, 3.656e-6
-1.093, 3.693e-6
-1.094, 3.696e-6
-1.095, 3.728e-6
-1.096, 3.754e-6
-1.097, 3.756e-6
-1.098, 3.767e-6
-1.099, 3.770e-6
-1.100, 3.781e-6
-1.101, 3.821e-6
-1.102, 3.830e-6
-1.103, 3.858e-6
-1.104, 3.868e-6
-1.105, 3.878e-6
-1.106, 3.909e-6
-1.107, 3.919e-6
-1.108, 3.942e-6
-1.109, 3.940e-6
-1.110, 3.969e-6
-1.111, 3.966e-6
-1.112, 4.001e-6
-1.113, 4.022e-6
-1.114, 4.043e-6
-1.115, 4.056e-6
-1.116, 4.050e-6
-1.117, 4.065e-6
-1.118, 4.083e-6
-1.119, 4.104e-6
-1.120, 4.118e-6
-1.121, 4.157e-6
-1.122, 4.150e-6
-1.123, 4.154e-6
-1.124, 4.155e-6
-1.125, 4.202e-6
-1.126, 4.216e-6
-1.127, 4.225e-6
-1.128, 4.227e-6
-1.129, 4.265e-6
-1.130, 4.279e-6
-1.131, 4.294e-6
-1.132, 4.307e-6
-1.133, 4.323e-6
-1.134, 4.317e-6
-1.135, 4.345e-6
-1.136, 4.346e-6
-1.137, 4.356e-6
-1.138, 4.376e-6
-1.139, 4.398e-6
-1.140, 4.404e-6
-1.141, 4.430e-6
-1.142, 4.440e-6
-1.143, 4.467e-6
-1.144, 4.478e-6
-1.145, 4.473e-6
-1.146, 4.481e-6
-1.147, 4.499e-6
-1.148, 4.546e-6
-1.149, 4.536e-6
-1.150, 4.558e-6
-1.151, 4.546e-6
-1.152, 4.574e-6
-1.153, 4.599e-6
-1.154, 4.602e-6
-1.155, 4.622e-6
-1.156, 4.637e-6
-1.157, 4.628e-6
-1.158, 4.661e-6
-1.159, 4.674e-6
-1.160, 4.696e-6
-1.161, 4.711e-6
-1.162, 4.667e-6
-1.163, 4.711e-6
-1.164, 4.722e-6
-1.165, 4.747e-6
-1.166, 4.763e-6
-1.167, 4.782e-6
-1.168, 4.774e-6
-1.169, 4.782e-6
-1.170, 4.833e-6
-1.171, 4.805e-6
-1.172, 4.844e-6
-1.173, 4.846e-6
-1.174, 4.880e-6
-1.175, 4.877e-6
-1.176, 4.877e-6
-1.177, 4.901e-6
-1.178, 4.934e-6
-1.179, 4.946e-6
-1.180, 4.926e-6
-1.181, 4.966e-6
-1.182, 4.981e-6
-1.183, 4.987e-6
-1.184, 4.991e-6
-1.185, 5.002e-6
-1.186, 5.034e-6
-1.187, 5.030e-6
-1.188, 5.026e-6
-1.189, 5.063e-6
-1.190, 5.096e-6
-1.191, 5.083e-6
-1.192, 5.125e-6
-1.193, 5.136e-6
-1.194, 5.113e-6
-1.195, 5.153e-6
-1.196, 5.134e-6
-1.197, 5.178e-6
-1.198, 5.191e-6
-1.199, 5.194e-6
-1.200, 5.223e-6
-1.201, 5.186e-6
-1.202, 5.219e-6
-1.203, 5.223e-6
-1.204, 5.244e-6
-1.205, 5.290e-6
-1.206, 5.302e-6
-1.207, 5.316e-6
-1.208, 5.311e-6
-1.209, 5.309e-6
-1.210, 5.358e-6
-1.211, 5.357e-6
-1.212, 5.335e-6
-1.213, 5.352e-6
-1.214, 5.371e-6
-1.215, 5.395e-6
-1.216, 5.396e-6
-1.217, 5.423e-6
-1.218, 5.435e-6
-1.219, 5.444e-6
-1.220, 5.453e-6
-1.221, 5.452e-6
-1.222, 5.477e-6
-1.223, 5.500e-6
-1.224, 5.521e-6
-1.225, 5.514e-6
-1.226, 5.511e-6
-1.227, 5.533e-6
-1.228, 5.568e-6
-1.229, 5.578e-6
-1.230, 5.595e-6
-1.231, 5.622e-6
-1.232, 5.615e-6
-1.233, 5.619e-6
-1.234, 5.627e-6
-1.235, 5.644e-6
-1.236, 5.675e-6
-1.237, 5.677e-6
-1.238, 5.672e-6
-1.239, 5.687e-6
-1.240, 5.715e-6
-1.241, 5.734e-6
-1.242, 5.731e-6
-1.243, 5.731e-6
-1.244, 5.739e-6
-1.245, 5.747e-6
-1.246, 5.767e-6
-1.247, 5.784e-6
-1.248, 5.817e-6
-1.249, 5.823e-6
-1.250, 5.832e-6
-1.251, 5.849e-6
-1.252, 5.857e-6
-1.253, 5.845e-6
-1.254, 5.884e-6
-1.255, 5.906e-6
-1.256, 5.912e-6
-1.257, 5.927e-6
-1.258, 5.947e-6
-1.259, 5.924e-6
-1.260, 5.976e-6
-1.261, 5.974e-6
-1.262, 5.989e-6
-1.263, 5.985e-6
-1.264, 6.015e-6
-1.265, 6.045e-6
-1.266, 6.048e-6
-1.267, 6.041e-6
-1.268, 6.064e-6
-1.269, 6.075e-6
-1.270, 6.072e-6
-1.271, 6.085e-6
-1.272, 6.100e-6
-1.273, 6.117e-6
-1.274, 6.128e-6
-1.275, 6.176e-6
-1.276, 6.171e-6
-1.277, 6.195e-6
-1.278, 6.200e-6
-1.279, 6.200e-6
-1.280, 6.253e-6
-1.281, 6.235e-6
-1.282, 6.256e-6
-1.283, 6.276e-6
-1.284, 6.287e-6
-1.285, 6.308e-6
-1.286, 6.270e-6
-1.287, 6.308e-6
-1.288, 6.327e-6
-1.289, 6.331e-6
-1.290, 6.357e-6
-1.291, 6.366e-6
-1.292, 6.365e-6
-1.293, 6.406e-6
-1.294, 6.421e-6
-1.295, 6.445e-6
-1.296, 6.429e-6
-1.297, 6.453e-6
-1.298, 6.471e-6
-1.299, 6.496e-6
-1.300, 6.536e-6
-1.301, 6.545e-6
-1.302, 6.545e-6
-1.303, 6.567e-6
-1.304, 6.611e-6
-1.305, 6.625e-6
-1.306, 6.627e-6
-1.307, 6.685e-6
-1.308, 6.697e-6
-1.309, 6.724e-6
-1.310, 6.714e-6
-1.311, 6.734e-6
-1.312, 6.770e-6
-1.313, 6.779e-6
-1.314, 6.810e-6
-1.315, 6.847e-6
-1.316, 6.857e-6
-1.317, 6.870e-6
-1.318, 6.921e-6
-1.319, 6.966e-6
-1.320, 6.952e-6
-1.321, 6.997e-6
-1.322, 6.984e-6
-1.323, 6.997e-6
-1.324, 7.066e-6
-1.325, 7.088e-6
-1.326, 7.120e-6
-1.327, 7.123e-6
-1.328, 7.140e-6
-1.329, 7.162e-6
-1.330, 7.188e-6
-1.331, 7.233e-6
-1.332, 7.270e-6
-1.333, 7.281e-6
-1.334, 7.315e-6
-1.335, 7.336e-6
-1.336, 7.360e-6
-1.337, 7.404e-6
-1.338, 7.441e-6
-1.339, 7.446e-6
-1.340, 7.469e-6
-1.341, 7.502e-6
-1.342, 7.540e-6
-1.343, 7.562e-6
-1.344, 7.636e-6
-1.345, 7.622e-6
-1.346, 7.670e-6
-1.347, 7.684e-6
-1.348, 7.729e-6
-1.349, 7.764e-6
-1.350, 7.811e-6
-1.351, 7.846e-6
-1.352, 7.872e-6
-1.353, 7.891e-6
-1.354, 7.935e-6
-1.355, 7.978e-6
-1.356, 7.991e-6
-1.357, 8.028e-6
-1.358, 8.054e-6
-1.359, 8.109e-6
-1.360, 8.158e-6
-1.361, 8.179e-6
-1.362, 8.219e-6
-1.363, 8.268e-6
-1.364, 8.301e-6
-1.365, 8.335e-6
-1.366, 8.352e-6
-1.367, 8.439e-6
-1.368, 8.475e-6
-1.369, 8.515e-6
-1.370, 8.549e-6
-1.371, 8.564e-6
-1.372, 8.605e-6
-1.373, 8.646e-6
-1.374, 8.676e-6
-1.375, 8.752e-6
-1.376, 8.774e-6
-1.377, 8.809e-6
-1.378, 8.833e-6
-1.379, 8.879e-6
-1.380, 8.946e-6
-1.381, 8.970e-6
-1.382, 9.036e-6
-1.383, 9.074e-6
-1.384, 9.113e-6
-1.385, 9.170e-6
-1.386, 9.184e-6
-1.387, 9.251e-6
-1.388, 9.284e-6
-1.389, 9.328e-6
-1.390, 9.369e-6
-1.391, 9.406e-6
-1.392, 9.454e-6
-1.393, 9.513e-6
-1.394, 9.552e-6
-1.395, 9.595e-6
-1.396, 9.633e-6
-1.397, 9.650e-6
-1.398, 9.722e-6
-1.399, 9.793e-6
-1.400, 9.821e-6
-1.401, 9.852e-6
-1.402, 9.917e-6
-1.403, 9.970e-6
-1.404, 9.984e-6
-1.405, 1.001e-5
-1.406, 1.007e-5
-1.407, 1.013e-5
-1.408, 1.016e-5
-1.409, 1.022e-5
-1.410, 1.026e-5
-1.411, 1.030e-5
-1.412, 1.033e-5
-1.413, 1.039e-5
-1.414, 1.044e-5
-1.415, 1.049e-5
-1.416, 1.052e-5
-1.417, 1.058e-5
-1.418, 1.060e-5
-1.419, 1.062e-5
-1.420, 1.067e-5
-1.421, 1.072e-5
-1.422, 1.078e-5
-1.423, 1.082e-5
-1.424, 1.086e-5
-1.425, 1.091e-5
-1.426, 1.093e-5
-1.427, 1.097e-5
-1.428, 1.101e-5
-1.429, 1.110e-5
-1.430, 1.112e-5
-1.431, 1.116e-5
-1.432, 1.119e-5
-1.433, 1.125e-5
-1.434, 1.130e-5
-1.435, 1.132e-5
-1.436, 1.139e-5
-1.437, 1.143e-5
-1.438, 1.148e-5
-1.439, 1.151e-5
-1.440, 1.156e-5
-1.441, 1.158e-5
-1.442, 1.165e-5
-1.443, 1.170e-5
-1.444, 1.175e-5
-1.445, 1.178e-5
-1.446, 1.183e-5
-1.447, 1.191e-5
-1.448, 1.192e-5
-1.449, 1.195e-5
-1.450, 1.201e-5
-1.451, 1.208e-5
-1.452, 1.215e-5
-1.453, 1.218e-5
-1.454, 1.222e-5
-1.455, 1.226e-5
-1.456, 1.230e-5
-1.457, 1.237e-5
-1.458, 1.240e-5
-1.459, 1.245e-5
-1.460, 1.248e-5
-1.461, 1.253e-5
-1.462, 1.257e-5
-1.463, 1.264e-5
-1.464, 1.266e-5
-1.465, 1.272e-5
-1.466, 1.279e-5
-1.467, 1.282e-5
-1.468, 1.285e-5
-1.469, 1.292e-5
-1.470, 1.295e-5
-1.471, 1.300e-5
-1.472, 1.304e-5
-1.473, 1.309e-5
-1.474, 1.316e-5
-1.475, 1.320e-5
-1.476, 1.324e-5
-1.477, 1.333e-5
-1.478, 1.336e-5
-1.479, 1.343e-5
-1.480, 1.349e-5
-1.481, 1.352e-5
-1.482, 1.357e-5
-1.483, 1.364e-5
-1.484, 1.368e-5
-1.485, 1.373e-5
-1.486, 1.380e-5
-1.487, 1.388e-5
-1.488, 1.391e-5
-1.489, 1.396e-5
-1.490, 1.400e-5
-1.491, 1.405e-5
-1.492, 1.412e-5
-1.493, 1.415e-5
-1.494, 1.423e-5
-1.495, 1.430e-5
-1.496, 1.438e-5
-1.497, 1.443e-5
-1.498, 1.447e-5
-1.499, 1.454e-5
-1.500, 1.457e-5
-1.501, 1.464e-5
-1.502, 1.472e-5
-1.503, 1.477e-5
-1.504, 1.487e-5
-1.505, 1.488e-5
-1.506, 1.495e-5
-1.507, 1.504e-5
-1.508, 1.505e-5
-1.509, 1.512e-5
-1.510, 1.517e-5
-1.511, 1.522e-5
-1.512, 1.528e-5
-1.513, 1.535e-5
-1.514, 1.543e-5
-1.515, 1.547e-5
-1.516, 1.552e-5
-1.517, 1.560e-5
-1.518, 1.569e-5
-1.519, 1.576e-5
-1.520, 1.580e-5
-1.521, 1.588e-5
-1.522, 1.598e-5
-1.523, 1.605e-5
-1.524, 1.612e-5
-1.525, 1.620e-5
-1.526, 1.624e-5
-1.527, 1.632e-5
-1.528, 1.640e-5
-1.529, 1.647e-5
-1.530, 1.653e-5
-1.531, 1.662e-5
-1.532, 1.669e-5
-1.533, 1.678e-5
-1.534, 1.685e-5
-1.535, 1.691e-5
-1.536, 1.702e-5
-1.537, 1.713e-5
-1.538, 1.718e-5
-1.539, 1.727e-5
-1.540, 1.735e-5
-1.541, 1.741e-5
-1.542, 1.750e-5
-1.543, 1.761e-5
-1.544, 1.772e-5
-1.545, 1.781e-5
-1.546, 1.790e-5
-1.547, 1.796e-5
-1.548, 1.808e-5
-1.549, 1.816e-5
-1.550, 1.826e-5
-1.551, 1.837e-5
-1.552, 1.843e-5
-1.553, 1.857e-5
-1.554, 1.868e-5
-1.555, 1.875e-5
-1.556, 1.888e-5
-1.557, 1.897e-5
-1.558, 1.908e-5
-1.559, 1.922e-5
-1.560, 1.935e-5
-1.561, 1.945e-5
-1.562, 1.955e-5
-1.563, 1.964e-5
-1.564, 1.976e-5
-1.565, 1.988e-5
-1.566, 1.999e-5
-1.567, 2.013e-5
-1.568, 2.023e-5
-1.569, 2.039e-5
-1.570, 2.049e-5
-1.571, 2.061e-5
-1.572, 2.075e-5
-1.573, 2.086e-5
-1.574, 2.100e-5
-1.575, 2.116e-5
-1.576, 2.125e-5
-1.577, 2.138e-5
-1.578, 2.148e-5
-1.579, 2.163e-5
-1.580, 2.177e-5
-1.581, 2.191e-5
-1.582, 2.209e-5
-1.583, 2.223e-5
-1.584, 2.239e-5
-1.585, 2.253e-5
-1.586, 2.268e-5
-1.587, 2.285e-5
-1.588, 2.302e-5
-1.589, 2.318e-5
-1.590, 2.334e-5
-1.591, 2.350e-5
-1.592, 2.368e-5
-1.593, 2.382e-5
-1.594, 2.400e-5
-1.595, 2.420e-5
-1.596, 2.434e-5
-1.597, 2.455e-5
-1.598, 2.472e-5
-1.599, 2.492e-5
-1.600, 2.509e-5
-1.601, 2.528e-5
-1.602, 2.549e-5
-1.603, 2.569e-5
-1.604, 2.592e-5
-1.605, 2.608e-5
-1.606, 2.629e-5
-1.607, 2.651e-5
-1.608, 2.672e-5
-1.609, 2.692e-5
-1.610, 2.715e-5
-1.611, 2.734e-5
-1.612, 2.757e-5
-1.613, 2.783e-5
-1.614, 2.803e-5
-1.615, 2.826e-5
-1.616, 2.847e-5
-1.617, 2.872e-5
-1.618, 2.899e-5
-1.619, 2.923e-5
-1.620, 2.950e-5
-1.621, 2.974e-5
-1.622, 2.999e-5
-1.623, 3.026e-5
-1.624, 3.049e-5
-1.625, 3.078e-5
-1.626, 3.108e-5
-1.627, 3.135e-5
-1.628, 3.166e-5
-1.629, 3.193e-5
-1.630, 3.221e-5
-1.631, 3.253e-5
-1.632, 3.282e-5
-1.633, 3.315e-5
-1.634, 3.347e-5
-1.635, 3.377e-5
-1.636, 3.411e-5
-1.637, 3.443e-5
-1.638, 3.483e-5
-1.639, 3.519e-5
-1.640, 3.549e-5
-1.641, 3.589e-5
-1.642, 3.626e-5
-1.643, 3.661e-5
-1.644, 3.702e-5
-1.645, 3.741e-5
-1.646, 3.780e-5
-1.647, 3.820e-5
-1.648, 3.863e-5
-1.649, 3.909e-5
-1.650, 3.949e-5
-1.651, 3.993e-5
-1.652, 4.038e-5
-1.653, 4.086e-5
-1.654, 4.134e-5
-1.655, 4.175e-5
-1.656, 4.228e-5
-1.657, 4.278e-5
-1.658, 4.326e-5
-1.659, 4.379e-5
-1.660, 4.425e-5
-1.661, 4.480e-5
-1.662, 4.535e-5
-1.663, 4.594e-5
-1.664, 4.646e-5
-1.665, 4.705e-5
-1.666, 4.763e-5
-1.667, 4.822e-5
-1.668, 4.883e-5
-1.669, 4.943e-5
-1.670, 5.010e-5
-1.671, 5.072e-5
-1.672, 5.137e-5
-1.673, 5.205e-5
-1.674, 5.273e-5
-1.675, 5.338e-5
-1.676, 5.412e-5
-1.677, 5.487e-5
-1.678, 5.558e-5
-1.679, 5.633e-5
-1.680, 5.713e-5
-1.681, 5.787e-5
-1.682, 5.866e-5
-1.683, 5.949e-5
-1.684, 6.030e-5
-1.685, 6.112e-5
-1.686, 6.194e-5
-1.687, 6.284e-5
-1.688, 6.374e-5
-1.689, 6.462e-5
-1.690, 6.557e-5
-1.691, 6.650e-5
-1.692, 6.747e-5
-1.693, 6.845e-5
-1.694, 6.940e-5
-1.695, 7.040e-5
-1.696, 7.139e-5
-1.697, 7.242e-5
-1.698, 7.351e-5
-1.699, 7.454e-5
-1.700, 7.563e-5
-1.701, 7.673e-5
-1.702, 7.785e-5
-1.703, 7.901e-5
-1.704, 8.014e-5
-1.705, 8.131e-5
-1.706, 8.247e-5
-1.707, 8.367e-5
-1.708, 8.487e-5
-1.709, 8.611e-5
-1.710, 8.737e-5
-1.711, 8.865e-5
-1.712, 8.996e-5
-1.713, 9.128e-5
-1.714, 9.261e-5
-1.715, 9.401e-5
-1.716, 9.544e-5
-1.717, 9.684e-5
-1.718, 9.826e-5
-1.719, 9.974e-5
-1.720, 1.012e-4
-1.721, 1.027e-4
-1.722, 1.042e-4
-1.723, 1.057e-4
-1.724, 1.072e-4
-1.725, 1.088e-4
-1.726, 1.104e-4
-1.727, 1.121e-4
-1.728, 1.137e-4
-1.729, 1.154e-4
-1.730, 1.171e-4
-1.731, 1.188e-4
-1.732, 1.205e-4
-1.733, 1.223e-4
-1.734, 1.241e-4
-1.735, 1.259e-4
-1.736, 1.278e-4
-1.737, 1.297e-4
-1.738, 1.316e-4
-1.739, 1.336e-4
-1.740, 1.356e-4
-1.741, 1.376e-4
-1.742, 1.397e-4
-1.743, 1.417e-4
-1.744, 1.438e-4
-1.745, 1.460e-4
-1.746, 1.481e-4
-1.747, 1.504e-4
-1.748, 1.525e-4
-1.749, 1.549e-4
-1.750, 1.572e-4
-1.751, 1.596e-4
-1.752, 1.620e-4
-1.753, 1.645e-4
-1.754, 1.670e-4
-1.755, 1.696e-4
-1.756, 1.722e-4
-1.757, 1.748e-4
-1.758, 1.776e-4
-1.759, 1.804e-4
-1.760, 1.832e-4
-1.761, 1.862e-4
-1.762, 1.892e-4
-1.763, 1.920e-4
-1.764, 1.949e-4
-1.765, 1.979e-4
-1.766, 2.011e-4
-1.767, 2.045e-4
-1.768, 2.079e-4
-1.769, 2.110e-4
-1.770, 2.143e-4
-1.771, 2.178e-4
-1.772, 2.216e-4
-1.773, 2.255e-4
-1.774, 2.295e-4
-1.775, 2.337e-4
-1.776, 2.380e-4
-1.777, 2.426e-4
-1.778, 2.471e-4
-1.779, 2.515e-4
-1.780, 2.565e-4
-1.781, 2.616e-4
-1.782, 2.666e-4
-1.783, 2.720e-4
-1.784, 2.777e-4
-1.785, 2.835e-4
-1.786, 2.897e-4
-1.787, 2.959e-4
-1.788, 3.022e-4
-1.789, 3.089e-4
-1.790, 3.160e-4
-1.791, 3.234e-4
-1.792, 3.311e-4
-1.793, 3.385e-4
-1.794, 3.467e-4
-1.795, 3.554e-4
-1.796, 3.642e-4
-1.797, 3.735e-4
-1.798, 3.831e-4
-1.799, 3.932e-4
-1.800, 3.973e-4
-1.799, 3.944e-4
-1.798, 3.907e-4
-1.797, 3.866e-4
-1.796, 3.821e-4
-1.795, 3.771e-4
-1.794, 3.722e-4
-1.793, 3.669e-4
-1.792, 3.616e-4
-1.791, 3.561e-4
-1.790, 3.505e-4
-1.789, 3.454e-4
-1.788, 3.405e-4
-1.787, 3.350e-4
-1.786, 3.296e-4
-1.785, 3.240e-4
-1.784, 3.186e-4
-1.783, 3.132e-4
-1.782, 3.077e-4
-1.781, 3.024e-4
-1.780, 2.972e-4
-1.779, 2.919e-4
-1.778, 2.867e-4
-1.777, 2.816e-4
-1.776, 2.765e-4
-1.775, 2.715e-4
-1.774, 2.666e-4
-1.773, 2.616e-4
-1.772, 2.569e-4
-1.771, 2.522e-4
-1.770, 2.474e-4
-1.769, 2.429e-4
-1.768, 2.384e-4
-1.767, 2.339e-4
-1.766, 2.295e-4
-1.765, 2.251e-4
-1.764, 2.209e-4
-1.763, 2.167e-4
-1.762, 2.125e-4
-1.761, 2.079e-4
-1.760, 2.040e-4
-1.759, 2.001e-4
-1.758, 1.964e-4
-1.757, 1.927e-4
-1.756, 1.891e-4
-1.755, 1.855e-4
-1.754, 1.820e-4
-1.753, 1.786e-4
-1.752, 1.753e-4
-1.751, 1.720e-4
-1.750, 1.688e-4
-1.749, 1.656e-4
-1.748, 1.625e-4
-1.747, 1.596e-4
-1.746, 1.566e-4
-1.745, 1.537e-4
-1.744, 1.508e-4
-1.743, 1.480e-4
-1.742, 1.453e-4
-1.741, 1.427e-4
-1.740, 1.400e-4
-1.739, 1.375e-4
-1.738, 1.349e-4
-1.737, 1.324e-4
-1.736, 1.300e-4
-1.735, 1.276e-4
-1.734, 1.252e-4
-1.733, 1.230e-4
-1.732, 1.208e-4
-1.731, 1.186e-4
-1.730, 1.165e-4
-1.729, 1.145e-4
-1.728, 1.124e-4
-1.727, 1.104e-4
-1.726, 1.084e-4
-1.725, 1.066e-4
-1.724, 1.048e-4
-1.723, 1.029e-4
-1.722, 1.012e-4
-1.721, 9.943e-5
-1.720, 9.776e-5
-1.719, 9.608e-5
-1.718, 9.444e-5
-1.717, 9.287e-5
-1.716, 9.132e-5
-1.715, 8.974e-5
-1.714, 8.827e-5
-1.713, 8.684e-5
-1.712, 8.542e-5
-1.711, 8.397e-5
-1.710, 8.261e-5
-1.709, 8.122e-5
-1.708, 7.990e-5
-1.707, 7.862e-5
-1.706, 7.735e-5
-1.705, 7.611e-5
-1.704, 7.488e-5
-1.703, 7.366e-5
-1.702, 7.249e-5
-1.701, 7.137e-5
-1.700, 7.022e-5
-1.699, 6.910e-5
-1.698, 6.806e-5
-1.697, 6.688e-5
-1.696, 6.579e-5
-1.695, 6.476e-5
-1.694, 6.376e-5
-1.693, 6.280e-5
-1.692, 6.185e-5
-1.691, 6.087e-5
-1.690, 5.993e-5
-1.689, 5.905e-5
-1.688, 5.815e-5
-1.687, 5.726e-5
-1.686, 5.639e-5
-1.685, 5.558e-5
-1.684, 5.476e-5
-1.683, 5.391e-5
-1.682, 5.313e-5
-1.681, 5.234e-5
-1.680, 5.160e-5
-1.679, 5.084e-5
-1.678, 5.009e-5
-1.677, 4.936e-5
-1.676, 4.863e-5
-1.675, 4.792e-5
-1.674, 4.722e-5
-1.673, 4.654e-5
-1.672, 4.592e-5
-1.671, 4.522e-5
-1.670, 4.461e-5
-1.669, 4.399e-5
-1.668, 4.340e-5
-1.667, 4.275e-5
-1.666, 4.217e-5
-1.665, 4.156e-5
-1.664, 4.099e-5
-1.663, 4.044e-5
-1.662, 3.989e-5
-1.661, 3.935e-5
-1.660, 3.877e-5
-1.659, 3.828e-5
-1.658, 3.773e-5
-1.657, 3.722e-5
-1.656, 3.670e-5
-1.655, 3.619e-5
-1.654, 3.573e-5
-1.653, 3.525e-5
-1.652, 3.478e-5
-1.651, 3.430e-5
-1.650, 3.380e-5
-1.649, 3.336e-5
-1.648, 3.292e-5
-1.647, 3.251e-5
-1.646, 3.209e-5
-1.645, 3.165e-5
-1.644, 3.122e-5
-1.643, 3.077e-5
-1.642, 3.041e-5
-1.641, 2.999e-5
-1.640, 2.963e-5
-1.639, 2.924e-5
-1.638, 2.885e-5
-1.637, 2.847e-5
-1.636, 2.810e-5
-1.635, 2.769e-5
-1.634, 2.736e-5
-1.633, 2.702e-5
-1.632, 2.668e-5
-1.631, 2.631e-5
-1.630, 2.600e-5
-1.629, 2.564e-5
-1.628, 2.535e-5
-1.627, 2.503e-5
-1.626, 2.472e-5
-1.625, 2.440e-5
-1.624, 2.409e-5
-1.623, 2.379e-5
-1.622, 2.350e-5
-1.621, 2.322e-5
-1.620, 2.294e-5
-1.619, 2.266e-5
-1.618, 2.235e-5
-1.617, 2.209e-5
-1.616, 2.182e-5
-1.615, 2.159e-5
-1.614, 2.129e-5
-1.613, 2.106e-5
-1.612, 2.081e-5
-1.611, 2.055e-5
-1.610, 2.032e-5
-1.609, 2.008e-5
-1.608, 1.988e-5
-1.607, 1.961e-5
-1.606, 1.937e-5
-1.605, 1.917e-5
-1.604, 1.894e-5
-1.603, 1.871e-5
-1.602, 1.854e-5
-1.601, 1.828e-5
-1.600, 1.808e-5
-1.599, 1.787e-5
-1.598, 1.767e-5
-1.597, 1.749e-5
-1.596, 1.731e-5
-1.595, 1.710e-5
-1.594, 1.693e-5
-1.593, 1.671e-5
-1.592, 1.652e-5
-1.591, 1.633e-5
-1.590, 1.617e-5
-1.589, 1.597e-5
-1.588, 1.578e-5
-1.587, 1.559e-5
-1.586, 1.543e-5
-1.585, 1.526e-5
-1.584, 1.511e-5
-1.583, 1.492e-5
-1.582, 1.478e-5
-1.581, 1.462e-5
-1.580, 1.448e-5
-1.579, 1.435e-5
-1.578, 1.416e-5
-1.577, 1.403e-5
-1.576, 1.389e-5
-1.575, 1.369e-5
-1.574, 1.358e-5
-1.573, 1.345e-5
-1.572, 1.331e-5
-1.571, 1.312e-5
-1.570, 1.300e-5
-1.569, 1.289e-5
-1.568, 1.276e-5
-1.567, 1.265e-5
-1.566, 1.249e-5
-1.565, 1.238e-5
-1.564, 1.226e-5
-1.563, 1.214e-5
-1.562, 1.198e-5
-1.561, 1.189e-5
-1.560, 1.177e-5
-1.559, 1.167e-5
-1.558, 1.152e-5
-1.557, 1.140e-5
-1.556, 1.131e-5
-1.555, 1.121e-5
-1.554, 1.111e-5
-1.553, 1.099e-5
-1.552, 1.089e-5
-1.551, 1.077e-5
-1.550, 1.066e-5
-1.549, 1.056e-5
-1.548, 1.046e-5
-1.547, 1.036e-5
-1.546, 1.025e-5
-1.545, 1.018e-5
-1.544, 1.003e-5
-1.543, 9.990e-6
-1.542, 9.915e-6
-1.541, 9.804e-6
-1.540, 9.715e-6
-1.539, 9.619e-6
-1.538, 9.549e-6
-1.537, 9.430e-6
-1.536, 9.360e-6
-1.535, 9.251e-6
-1.534, 9.154e-6
-1.533, 9.074e-6
-1.532, 8.992e-6
-1.531, 8.932e-6
-1.530, 8.854e-6
-1.529, 8.744e-6
-1.528, 8.691e-6
-1.527, 8.617e-6
-1.526, 8.543e-6
-1.525, 8.460e-6
-1.524, 8.402e-6
-1.523, 8.297e-6
-1.522, 8.237e-6
-1.521, 8.145e-6
-1.520, 8.085e-6
-1.519, 8.002e-6
-1.518, 7.950e-6
-1.517, 7.873e-6
-1.516, 7.776e-6
-1.515, 7.733e-6
-1.514, 7.655e-6
-1.513, 7.603e-6
-1.512, 7.543e-6
-1.511, 7.460e-6
-1.510, 7.404e-6
-1.509, 7.325e-6
-1.508, 7.256e-6
-1.507, 7.197e-6
-1.506, 7.161e-6
-1.505, 7.086e-6
-1.504, 7.007e-6
-1.503, 6.957e-6
-1.502, 6.894e-6
-1.501, 6.839e-6
-1.500, 6.788e-6
-1.499, 6.718e-6
-1.498, 6.670e-6
-1.497, 6.609e-6
-1.496, 6.547e-6
-1.495, 6.509e-6
-1.494, 6.442e-6
-1.493, 6.392e-6
-1.492, 6.347e-6
-1.491, 6.270e-6
-1.490, 6.223e-6
-1.489, 6.177e-6
-1.488, 6.132e-6
-1.487, 6.083e-6
-1.486, 6.014e-6
-1.485, 5.957e-6
-1.484, 5.914e-6
-1.483, 5.874e-6
-1.482, 5.835e-6
-1.481, 5.765e-6
-1.480, 5.745e-6
-1.479, 5.707e-6
-1.478, 5.656e-6
-1.477, 5.596e-6
-1.476, 5.577e-6
-1.475, 5.493e-6
-1.474, 5.465e-6
-1.473, 5.415e-6
-1.472, 5.374e-6
-1.471, 5.325e-6
-1.470, 5.286e-6
-1.469, 5.239e-6
-1.468, 5.191e-6
-1.467, 5.144e-6
-1.466, 5.088e-6
-1.465, 5.074e-6
-1.464, 5.037e-6
-1.463, 5.003e-6
-1.462, 4.944e-6
-1.461, 4.905e-6
-1.460, 4.886e-6
-1.459, 4.836e-6
-1.458, 4.813e-6
-1.457, 4.752e-6
-1.456, 4.710e-6
-1.455, 4.655e-6
-1.454, 4.623e-6
-1.453, 4.615e-6
-1.452, 4.557e-6
-1.451, 4.495e-6
-1.450, 4.496e-6
-1.449, 4.446e-6
-1.448, 4.436e-6
-1.447, 4.386e-6
-1.446, 4.347e-6
-1.445, 4.301e-6
-1.444, 4.255e-6
-1.443, 4.261e-6
-1.442, 4.194e-6
-1.441, 4.171e-6
-1.440, 4.150e-6
-1.439, 4.111e-6
-1.438, 4.084e-6
-1.437, 4.062e-6
-1.436, 3.997e-6
-1.435, 3.958e-6
-1.434, 3.936e-6
-1.433, 3.891e-6
-1.432, 3.862e-6
-1.431, 3.807e-6
-1.430, 3.801e-6
-1.429, 3.789e-6
-1.428, 3.754e-6
-1.427, 3.732e-6
-1.426, 3.706e-6
-1.425, 3.650e-6
-1.424, 3.644e-6
-1.423, 3.591e-6
-1.422, 3.553e-6
-1.421, 3.531e-6
-1.420, 3.516e-6
-1.419, 3.488e-6
-1.418, 3.462e-6
-1.417, 3.427e-6
-1.416, 3.392e-6
-1.415, 3.350e-6
-1.414, 3.329e-6
-1.413, 3.330e-6
-1.412, 3.298e-6
-1.411, 3.239e-6
-1.410, 3.247e-6
-1.409, 3.230e-6
-1.408, 3.189e-6
-1.407, 3.150e-6
-1.406, 3.133e-6
-1.405, 3.117e-6
-1.404, 3.076e-6
-1.403, 3.047e-6
-1.402, 3.013e-6
-1.401, 3.004e-6
-1.400, 2.991e-6
-1.399, 2.979e-6
-1.398, 2.953e-6
-1.397, 2.905e-6
-1.396, 2.887e-6
-1.395, 2.861e-6
-1.394, 2.850e-6
-1.393, 2.807e-6
-1.392, 2.759e-6
-1.391, 2.763e-6
-1.390, 2.739e-6
-1.389, 2.751e-6
-1.388, 2.727e-6
-1.387, 2.671e-6
-1.386, 2.681e-6
-1.385, 2.641e-6
-1.384, 2.618e-6
-1.383, 2.578e-6
-1.382, 2.547e-6
-1.381, 2.542e-6
-1.380, 2.511e-6
-1.379, 2.483e-6
-1.378, 2.479e-6
-1.377, 2.442e-6
-1.376, 2.435e-6
-1.375, 2.408e-6
-1.374, 2.397e-6
-1.373, 2.399e-6
-1.372, 2.349e-6
-1.371, 2.304e-6
-1.370, 2.307e-6
-1.369, 2.281e-6
-1.368, 2.283e-6
-1.367, 2.247e-6
-1.366, 2.201e-6
-1.365, 2.229e-6
-1.364, 2.190e-6
-1.363, 2.165e-6
-1.362, 2.133e-6
-1.361, 2.113e-6
-1.360, 2.111e-6
-1.359, 2.083e-6
-1.358, 2.061e-6
-1.357, 2.023e-6
-1.356, 2.019e-6
-1.355, 2.012e-6
-1.354, 2.001e-6
-1.353, 1.965e-6
-1.352, 1.939e-6
-1.351, 1.925e-6
-1.350, 1.917e-6
-1.349, 1.906e-6
-1.348, 1.863e-6
-1.347, 1.836e-6
-1.346, 1.823e-6
-1.345, 1.814e-6
-1.344, 1.787e-6
-1.343, 1.782e-6
-1.342, 1.760e-6
-1.341, 1.746e-6
-1.340, 1.703e-6
-1.339, 1.722e-6
-1.338, 1.686e-6
-1.337, 1.652e-6
-1.336, 1.648e-6
-1.335, 1.626e-6
-1.334, 1.574e-6
-1.333, 1.570e-6
-1.332, 1.585e-6
-1.331, 1.558e-6
-1.330, 1.550e-6
-1.329, 1.542e-6
-1.328, 1.506e-6
-1.327, 1.482e-6
-1.326, 1.452e-6
-1.325, 1.435e-6
-1.324, 1.448e-6
-1.323, 1.416e-6
-1.322, 1.390e-6
-1.321, 1.368e-6
-1.320, 1.361e-6
-1.319, 1.342e-6
-1.318, 1.329e-6
-1.317, 1.299e-6
-1.316, 1.286e-6
-1.315, 1.272e-6
-1.314, 1.252e-6
-1.313, 1.237e-6
-1.312, 1.203e-6
-1.311, 1.214e-6
-1.310, 1.174e-6
-1.309, 1.163e-6
-1.308, 1.157e-6
-1.307, 1.130e-6
-1.306, 1.119e-6
-1.305, 1.082e-6
-1.304, 1.090e-6
-1.303, 1.074e-6
-1.302, 1.030e-6
-1.301, 1.045e-6
-1.300, 1.002e-6
-1.299, 9.913e-7
-1.298, 9.627e-7
-1.297, 9.815e-7
-1.296, 9.292e-7
-1.295, 9.489e-7
-1.294, 8.946e-7
-1.293, 9.144e-7
-1.292, 8.660e-7
-1.291, 8.443e-7
-1.290, 8.404e-7
-1.289, 8.029e-7
-1.288, 8.009e-7
-1.287, 7.812e-7
-1.286, 7.881e-7
-1.285, 7.506e-7
-1.284, 7.585e-7
-1.283, 7.319e-7
-1.282, 7.190e-7
-1.281, 6.658e-7
-1.280, 6.440e-7
-1.279, 6.549e-7
-1.278, 6.431e-7
-1.277, 6.115e-7
-1.276, 5.987e-7
-1.275, 5.997e-7
-1.274, 5.878e-7
-1.273, 5.503e-7
-1.272, 5.602e-7
-1.271, 5.138e-7
-1.270, 4.951e-7
-1.269, 4.852e-7
-1.268, 4.753e-7
-1.267, 4.497e-7
-1.266, 4.300e-7
-1.265, 4.319e-7
-1.264, 4.359e-7
-1.263, 3.974e-7
-1.262, 3.974e-7
-1.261, 3.422e-7
-1.260, 3.530e-7
-1.259, 3.589e-7
-1.258, 3.520e-7
-1.257, 3.126e-7
-1.256, 3.056e-7
-1.255, 2.879e-7
-1.254, 2.849e-7
-1.253, 2.366e-7
-1.252, 2.386e-7
-1.251, 2.395e-7
-1.250, 1.912e-7
-1.249, 1.863e-7
-1.248, 1.991e-7
-1.247, 1.734e-7
-1.246, 1.547e-7
-1.245, 1.369e-7
-1.244, 1.389e-7
-1.243, 9.254e-8
-1.242, 7.182e-8
-1.241, 4.815e-8
-1.240, 5.703e-8
-1.239, 2.940e-8
-1.238, 4.716e-8
-1.237, -4.144e-9
-1.236, -1.105e-8
-1.235, -2.486e-8
-1.234, -4.854e-8
-1.233, -8.899e-8
-1.232, -8.702e-8
-1.231, -7.518e-8
-1.230, -9.688e-8
-1.229, -1.551e-7
-1.228, -1.334e-7
-1.227, -1.679e-7
-1.226, -1.807e-7
-1.225, -1.926e-7
-1.224, -2.074e-7
-1.223, -2.399e-7
-1.222, -2.715e-7
-1.221, -2.784e-7
-1.220, -2.755e-7
-1.219, -3.001e-7
-1.218, -2.824e-7
-1.217, -3.080e-7
-1.216, -3.238e-7
-1.215, -3.633e-7
-1.214, -3.998e-7
-1.213, -3.968e-7
-1.212, -4.057e-7
-1.211, -4.264e-7
-1.210, -4.284e-7
-1.209, -4.747e-7
-1.208, -4.767e-7
-1.207, -4.826e-7
-1.206, -5.122e-7
-1.205, -5.320e-7
-1.204, -5.399e-7
-1.203, -5.714e-7
-1.202, -5.586e-7
-1.201, -6.070e-7
-1.200, -5.892e-7
-1.199, -6.425e-7
-1.198, -6.267e-7
-1.197, -6.533e-7
-1.196, -6.711e-7
-1.195, -6.908e-7
-1.194, -7.214e-7
-1.193, -7.096e-7
-1.192, -7.362e-7
-1.191, -7.549e-7
-1.190, -7.974e-7
-1.189, -8.053e-7
-1.188, -8.230e-7
-1.187, -8.329e-7
-1.186, -8.418e-7
-1.185, -8.526e-7
-1.184, -8.526e-7
-1.183, -8.980e-7
-1.182, -9.207e-7
-1.181, -9.306e-7
-1.180, -9.582e-7
-1.179, -9.631e-7
-1.178, -1.008e-6
-1.177, -1.043e-6
-1.176, -1.042e-6
-1.175, -1.054e-6
-1.174, -1.077e-6
-1.173, -1.069e-6
-1.172, -1.112e-6
-1.171, -1.113e-6
-1.170, -1.153e-6
-1.169, -1.164e-6
-1.168, -1.197e-6
-1.167, -1.208e-6
-1.166, -1.191e-6
-1.165, -1.250e-6
-1.164, -1.259e-6
-1.163, -1.293e-6
-1.162, -1.308e-6
-1.161, -1.303e-6
-1.160, -1.342e-6
-1.159, -1.351e-6
-1.158, -1.379e-6
-1.157, -1.410e-6
-1.156, -1.435e-6
-1.155, -1.455e-6
-1.154, -1.459e-6
-1.153, -1.495e-6
-1.152, -1.529e-6
-1.151, -1.538e-6
-1.150, -1.543e-6
-1.149, -1.570e-6
-1.148, -1.580e-6
-1.147, -1.620e-6
-1.146, -1.628e-6
-1.145, -1.663e-6
-1.144, -1.686e-6
-1.143, -1.703e-6
-1.142, -1.718e-6
-1.141, -1.725e-6
-1.140, -1.763e-6
-1.139, -1.795e-6
-1.138, -1.808e-6
-1.137, -1.838e-6
-1.136, -1.862e-6
-1.135, -1.887e-6
-1.134, -1.899e-6
-1.133, -1.928e-6
-1.132, -1.952e-6
-1.131, -1.966e-6
-1.130, -2.000e-6
-1.129, -1.990e-6
-1.128, -2.023e-6
-1.127, -2.049e-6
-1.126, -2.084e-6
-1.125, -2.102e-6
-1.124, -2.165e-6
-1.123, -2.171e-6
-1.122, -2.186e-6
-1.121, -2.201e-6
-1.120, -2.226e-6
-1.119, -2.265e-6
-1.118, -2.284e-6
-1.117, -2.336e-6
-1.116, -2.359e-6
-1.115, -2.351e-6
-1.114, -2.400e-6
-1.113, -2.436e-6
-1.112, -2.444e-6
-1.111, -2.468e-6
-1.110, -2.480e-6
-1.109, -2.513e-6
-1.108, -2.538e-6
-1.107, -2.576e-6
-1.106, -2.591e-6
-1.105, -2.615e-6
-1.104, -2.627e-6
-1.103, -2.669e-6
-1.102, -2.705e-6
-1.101, -2.733e-6
-1.100, -2.741e-6
-1.099, -2.771e-6
-1.098, -2.794e-6
-1.097, -2.855e-6
-1.096, -2.848e-6
-1.095, -2.856e-6
-1.094, -2.893e-6
-1.093, -2.934e-6
-1.092, -2.958e-6
-1.091, -2.990e-6
-1.090, -3.028e-6
-1.089, -3.067e-6
-1.088, -3.085e-6
-1.087, -3.108e-6
-1.086, -3.117e-6
-1.085, -3.156e-6
-1.084, -3.175e-6
-1.083, -3.209e-6
-1.082, -3.258e-6
-1.081, -3.290e-6
-1.080, -3.299e-6
-1.079, -3.322e-6
-1.078, -3.344e-6
-1.077, -3.372e-6
-1.076, -3.406e-6
-1.075, -3.425e-6
-1.074, -3.470e-6
-1.073, -3.508e-6
-1.072, -3.528e-6
-1.071, -3.553e-6
-1.070, -3.579e-6
-1.069, -3.616e-6
-1.068, -3.646e-6
-1.067, -3.671e-6
-1.066, -3.684e-6
-1.065, -3.709e-6
-1.064, -3.758e-6
-1.063, -3.776e-6
-1.062, -3.822e-6
-1.061, -3.834e-6
-1.060, -3.872e-6
-1.059, -3.878e-6
-1.058, -3.916e-6
-1.057, -3.947e-6
-1.056, -3.990e-6
-1.055, -4.017e-6
-1.054, -4.038e-6
-1.053, -4.074e-6
-1.052, -4.085e-6
-1.051, -4.126e-6
-1.050, -4.157e-6
-1.049, -4.165e-6
-1.048, -4.208e-6
-1.047, -4.273e-6
-1.046, -4.266e-6
-1.045, -4.287e-6
-1.044, -4.333e-6
-1.043, -4.366e-6
-1.042, -4.369e-6
-1.041, -4.432e-6
-1.040, -4.483e-6
-1.039, -4.495e-6
-1.038, -4.534e-6
-1.037, -4.544e-6
-1.036, -4.579e-6
-1.035, -4.622e-6
-1.034, -4.644e-6
-1.033, -4.715e-6
-1.032, -4.719e-6
-1.031, -4.752e-6
-1.030, -4.779e-6
-1.029, -4.832e-6
-1.028, -4.876e-6
-1.027, -4.906e-6
-1.026, -4.944e-6
-1.025, -4.977e-6
-1.024, -5.032e-6
-1.023, -5.077e-6
-1.022, -5.131e-6
-1.021, -5.155e-6
-1.020, -5.209e-6
-1.019, -5.251e-6
-1.018, -5.319e-6
-1.017, -5.342e-6
-1.016, -5.376e-6
-1.015, -5.435e-6
-1.014, -5.477e-6
-1.013, -5.550e-6
-1.012, -5.568e-6
-1.011, -5.639e-6
-1.010, -5.701e-6
-1.009, -5.723e-6
-1.008, -5.808e-6
-1.007, -5.859e-6
-1.006, -5.920e-6
-1.005, -5.988e-6
-1.004, -6.038e-6
-1.003, -6.118e-6
-1.002, -6.185e-6
-1.001, -6.237e-6
-1.000, -5.908e-6
-1.001, -5.498e-6
-1.002, -5.205e-6
-1.003, -4.923e-6
-1.004, -4.688e-6
-1.005, -4.455e-6
-1.006, -4.211e-6
-1.007, -3.999e-6
-1.008, -3.789e-6
-1.009, -3.600e-6
-1.010, -3.427e-6
-1.011, -3.243e-6
-1.012, -3.110e-6
-1.013, -2.967e-6
-1.014, -2.797e-6
-1.015, -2.634e-6
-1.016, -2.505e-6
-1.017, -2.360e-6
-1.018, -2.236e-6
-1.019, -2.132e-6
-1.020, -2.045e-6
-1.021, -1.911e-6
-1.022, -1.818e-6
-1.023, -1.714e-6
-1.024, -1.596e-6
-1.025, -1.497e-6
-1.026, -1.412e-6
-1.027, -1.321e-6
-1.028, -1.231e-6
-1.029, -1.159e-6
-1.030, -1.071e-6
-1.031, -9.819e-7
-1.032, -8.950e-7
-1.033, -8.289e-7
-1.034, -7.796e-7
-1.035, -7.194e-7
-1.036, -6.563e-7
-1.037, -5.724e-7
-1.038, -5.053e-7
-1.039, -4.491e-7
-1.040, -3.790e-7
-1.041, -3.435e-7
-1.042, -2.922e-7
-1.043, -2.182e-7
-1.044, -1.709e-7
-1.045, -1.107e-7
-1.046, -5.545e-8
-1.047, -3.571e-8
-1.048, 1.657e-8
-1.049, 6.689e-8
-1.050, 1.152e-7
-1.051, 1.942e-7
-1.052, 2.050e-7
-1.053, 2.435e-7
-1.054, 2.751e-7
-1.055, 3.283e-7
-1.056, 3.678e-7
-1.057, 4.023e-7
-1.058, 4.487e-7
-1.059, 4.862e-7
-1.060, 4.980e-7
-1.061, 5.513e-7
-1.062, 5.681e-7
-1.063, 6.253e-7
-1.064, 6.608e-7
-1.065, 6.924e-7
-1.066, 7.279e-7
-1.067, 7.467e-7
-1.068, 7.585e-7
-1.069, 7.999e-7
-1.070, 8.345e-7
-1.071, 8.779e-7
-1.072, 8.858e-7
-1.073, 9.134e-7
-1.074, 9.272e-7
-1.075, 9.588e-7
-1.076, 1.023e-6
-1.077, 1.030e-6
-1.078, 1.045e-6
-1.079, 1.063e-6
-1.080, 1.121e-6
-1.081, 1.117e-6
-1.082, 1.142e-6
-1.083, 1.166e-6
-1.084, 1.210e-6
-1.085, 1.218e-6
-1.086, 1.247e-6
-1.087, 1.257e-6
-1.088, 1.269e-6
-1.089, 1.302e-6
-1.090, 1.331e-6
-1.091, 1.361e-6
-1.092, 1.374e-6
-1.093, 1.392e-6
-1.094, 1.402e-6
-1.095, 1.429e-6
-1.096, 1.446e-6
-1.097, 1.459e-6
-1.098, 1.497e-6
-1.099, 1.505e-6
-1.100, 1.514e-6
-1.101, 1.543e-6
-1.102, 1.568e-6
-1.103, 1.592e-6
-1.104, 1.608e-6
-1.105, 1.638e-6
-1.106, 1.641e-6
-1.107, 1.659e-6
-1.108, 1.688e-6
-1.109, 1.676e-6
-1.110, 1.689e-6
-1.111, 1.727e-6
-1.112, 1.747e-6
-1.113, 1.757e-6
-1.114, 1.789e-6
-1.115, 1.781e-6
-1.116, 1.803e-6
-1.117, 1.801e-6
-1.118, 1.843e-6
-1.119, 1.854e-6
-1.120, 1.862e-6
-1.121, 1.896e-6
-1.122, 1.912e-6
-1.123, 1.913e-6
-1.124, 1.941e-6
-1.125, 1.963e-6
-1.126, 1.970e-6
-1.127, 1.972e-6
-1.128, 1.992e-6
-1.129, 2.002e-6
-1.130, 2.033e-6
-1.131, 2.017e-6
-1.132, 2.056e-6
-1.133, 2.085e-6
-1.134, 2.066e-6
-1.135, 2.085e-6
-1.136, 2.116e-6
-1.137, 2.130e-6
-1.138, 2.110e-6
-1.139, 2.137e-6
-1.140, 2.151e-6
-1.141, 2.175e-6
-1.142, 2.183e-6
-1.143, 2.195e-6
-1.144, 2.221e-6
-1.145, 2.235e-6
-1.146, 2.240e-6
-1.147, 2.258e-6
-1.148, 2.249e-6
-1.149, 2.280e-6
-1.150, 2.290e-6
-1.151, 2.295e-6
-1.152, 2.303e-6
-1.153, 2.327e-6
-1.154, 2.340e-6
-1.155, 2.353e-6
-1.156, 2.365e-6
-1.157, 2.369e-6
-1.158, 2.395e-6
-1.159, 2.412e-6
-1.160, 2.413e-6
-1.161, 2.430e-6
-1.162, 2.449e-6
-1.163, 2.450e-6
-1.164, 2.480e-6
-1.165, 2.483e-6
-1.166, 2.485e-6
-1.167, 2.505e-6
-1.168, 2.539e-6
-1.169, 2.535e-6
-1.170, 2.541e-6
-1.171, 2.550e-6
-1.172, 2.571e-6
-1.173, 2.577e-6
-1.174, 2.585e-6
-1.175, 2.606e-6
-1.176, 2.616e-6
-1.177, 2.625e-6
-1.178, 2.661e-6
-1.179, 2.645e-6
-1.180, 2.675e-6
-1.181, 2.684e-6
-1.182, 2.690e-6
-1.183, 2.702e-6
-1.184, 2.739e-6
-1.185, 2.728e-6
-1.186, 2.764e-6
-1.187, 2.742e-6
-1.188, 2.778e-6
-1.189, 2.776e-6
-1.190, 2.783e-6
-1.191, 2.796e-6
-1.192, 2.803e-6
-1.193, 2.814e-6
-1.194, 2.845e-6
-1.195, 2.844e-6
-1.196, 2.871e-6
-1.197, 2.879e-6
-1.198, 2.899e-6
-1.199, 2.907e-6
-1.200, 2.903e-6
-1.201, 2.916e-6
-1.202, 2.933e-6
-1.203, 2.966e-6
-1.204, 2.989e-6
-1.205, 2.988e-6
-1.206, 3.017e-6
-1.207, 3.030e-6
-1.208, 3.000e-6
-1.209, 3.028e-6
-1.210, 3.047e-6
-1.211, 3.046e-6
-1.212, 3.042e-6
-1.213, 3.077e-6
-1.214, 3.100e-6
-1.215, 3.091e-6
-1.216, 3.149e-6
-1.217, 3.140e-6
-1.218, 3.148e-6
-1.219, 3.157e-6
-1.220, 3.170e-6
-1.221, 3.172e-6
-1.222, 3.205e-6
-1.223, 3.238e-6
-1.224, 3.241e-6
-1.225, 3.219e-6
-1.226, 3.253e-6
-1.227, 3.247e-6
-1.228, 3.278e-6
-1.229, 3.306e-6
-1.230, 3.336e-6
-1.231, 3.329e-6
-1.232, 3.341e-6
-1.233, 3.359e-6
-1.234, 3.358e-6
-1.235, 3.376e-6
-1.236, 3.364e-6
-1.237, 3.419e-6
-1.238, 3.418e-6
-1.239, 3.420e-6
-1.240, 3.460e-6
-1.241, 3.456e-6
-1.242, 3.471e-6
-1.243, 3.472e-6
-1.244, 3.498e-6
-1.245, 3.529e-6
-1.246, 3.545e-6
-1.247, 3.540e-6
-1.248, 3.559e-6
-1.249, 3.546e-6
-1.250, 3.569e-6
-1.251, 3.576e-6
-1.252, 3.607e-6
-1.253, 3.630e-6
-1.254, 3.645e-6
-1.255, 3.679e-6
-1.256, 3.663e-6
-1.257, 3.657e-6
-1.258, 3.690e-6
-1.259, 3.695e-6
-1.260, 3.730e-6
-1.261, 3.750e-6
-1.262, 3.768e-6
-1.263, 3.791e-6
-1.264, 3.768e-6
-1.265, 3.806e-6
-1.266, 3.793e-6
-1.267, 3.831e-6
-1.268, 3.849e-6
-1.269, 3.856e-6
-1.270, 3.901e-6
-1.271, 3.891e-6
-1.272, 3.896e-6
-1.273, 3.906e-6
-1.274, 3.944e-6
-1.275, 3.963e-6
-1.276, 3.992e-6
-1.277, 3.978e-6
-1.278, 3.999e-6
-1.279, 3.998e-6
-1.280, 4.026e-6
-1.281, 4.048e-6
-1.282, 4.043e-6
-1.283, 4.078e-6
-1.284, 4.089e-6
-1.285, 4.103e-6
-1.286, 4.138e-6
-1.287, 4.151e-6
-1.288, 4.125e-6
-1.289, 4.168e-6
-1.290, 4.178e-6
-1.291, 4.198e-6
-1.292, 4.216e-6
-1.293, 4.255e-6
-1.294, 4.259e-6
-1.295, 4.237e-6
-1.296, 4.260e-6
-1.297, 4.297e-6
-1.298, 4.315e-6
-1.299, 4.322e-6
-1.300, 4.371e-6
-1.301, 4.365e-6
-1.302, 4.379e-6
-1.303, 4.390e-6
-1.304, 4.418e-6
-1.305, 4.426e-6
-1.306, 4.450e-6
-1.307, 4.474e-6
-1.308, 4.466e-6
-1.309, 4.517e-6
-1.310, 4.521e-6
-1.311, 4.531e-6
-1.312, 4.550e-6
-1.313, 4.563e-6
-1.314, 4.584e-6
-1.315, 4.618e-6
-1.316, 4.637e-6
-1.317, 4.641e-6
-1.318, 4.652e-6
-1.319, 4.648e-6
-1.320, 4.705e-6
-1.321, 4.732e-6
-1.322, 4.719e-6
-1.323, 4.722e-6
-1.324, 4.768e-6
-1.325, 4.782e-6
-1.326, 4.789e-6
-1.327, 4.810e-6
-1.328, 4.841e-6
-1.329, 4.838e-6
-1.330, 4.879e-6
-1.331, 4.883e-6
-1.332, 4.893e-6
-1.333, 4.916e-6
-1.334, 4.932e-6
-1.335, 4.960e-6
-1.336, 4.963e-6
-1.337, 4.977e-6
-1.338, 5.012e-6
-1.339, 5.038e-6
-1.340, 5.033e-6
-1.341, 5.047e-6
-1.342, 5.071e-6
-1.343, 5.076e-6
-1.344, 5.123e-6
-1.345, 5.137e-6
-1.346, 5.155e-6
-1.347, 5.146e-6
-1.348, 5.191e-6
-1.349, 5.205e-6
-1.350, 5.219e-6
-1.351, 5.249e-6
-1.352, 5.249e-6
-1.353, 5.288e-6
-1.354, 5.306e-6
-1.355, 5.321e-6
-1.356, 5.335e-6
-1.357, 5.348e-6
-1.358, 5.378e-6
-1.359, 5.378e-6
-1.360, 5.402e-6
-1.361, 5.443e-6
-1.362, 5.451e-6
-1.363, 5.454e-6
-1.364, 5.504e-6
-1.365, 5.520e-6
-1.366, 5.542e-6
-1.367, 5.534e-6
-1.368, 5.576e-6
-1.369, 5.593e-6
-1.370, 5.602e-6
-1.371, 5.606e-6
-1.372, 5.642e-6
-1.373, 5.647e-6
-1.374, 5.669e-6
-1.375, 5.702e-6
-1.376, 5.705e-6
-1.377, 5.727e-6
-1.378, 5.751e-6
-1.379, 5.771e-6
-1.380, 5.782e-6
-1.381, 5.779e-6
-1.382, 5.818e-6
-1.383, 5.864e-6
-1.384, 5.863e-6
-1.385, 5.892e-6
-1.386, 5.910e-6
-1.387, 5.933e-6
-1.388, 5.955e-6
-1.389, 5.944e-6
-1.390, 5.984e-6
-1.391, 6.001e-6
-1.392, 6.027e-6
-1.393, 6.053e-6
-1.394, 6.055e-6
-1.395, 6.101e-6
-1.396, 6.096e-6
-1.397, 6.121e-6
-1.398, 6.173e-6
-1.399, 6.188e-6
-1.400, 6.188e-6
-1.401, 6.188e-6
-1.402, 6.203e-6
-1.403, 6.239e-6
-1.404, 6.269e-6
-1.405, 6.311e-6
-1.406, 6.313e-6
-1.407, 6.317e-6
-1.408, 6.370e-6
-1.409, 6.389e-6
-1.410, 6.394e-6
-1.411, 6.425e-6
-1.412, 6.439e-6
-1.413, 6.480e-6
-1.414, 6.481e-6
-1.415, 6.507e-6
-1.416, 6.534e-6
-1.417, 6.532e-6
-1.418, 6.608e-6
-1.419, 6.609e-6
-1.420, 6.627e-6
-1.421, 6.621e-6
-1.422, 6.670e-6
-1.423, 6.687e-6
-1.424, 6.708e-6
-1.425, 6.741e-6
-1.426, 6.745e-6
-1.427, 6.793e-6
-1.428, 6.827e-6
-1.429, 6.860e-6
-1.430, 6.857e-6
-1.431, 6.885e-6
-1.432, 6.922e-6
-1.433, 6.927e-6
-1.434, 6.954e-6
-1.435, 6.994e-6
-1.436, 6.998e-6
-1.437, 7.032e-6
-1.438, 7.090e-6
-1.439, 7.090e-6
-1.440, 7.145e-6
-1.441, 7.145e-6
-1.442, 7.166e-6
-1.443, 7.186e-6
-1.444, 7.201e-6
-1.445, 7.239e-6
-1.446, 7.258e-6
-1.447, 7.330e-6
-1.448, 7.331e-6
-1.449, 7.339e-6
-1.450, 7.389e-6
-1.451, 7.372e-6
-1.452, 7.439e-6
-1.453, 7.454e-6
-1.454, 7.499e-6
-1.455, 7.520e-6
-1.456, 7.554e-6
-1.457, 7.593e-6
-1.458, 7.621e-6
-1.459, 7.650e-6
-1.460, 7.688e-6
-1.461, 7.691e-6
-1.462, 7.739e-6
-1.463, 7.748e-6
-1.464, 7.778e-6
-1.465, 7.846e-6
-1.466, 7.870e-6
-1.467, 7.879e-6
-1.468, 7.914e-6
-1.469, 7.931e-6
-1.470, 7.998e-6
-1.471, 8.009e-6
-1.472, 8.055e-6
-1.473, 8.089e-6
-1.474, 8.113e-6
-1.475, 8.142e-6
-1.476, 8.178e-6
-1.477, 8.220e-6
-1.478, 8.263e-6
-1.479, 8.303e-6
-1.480, 8.350e-6
-1.481, 8.385e-6
-1.482, 8.379e-6
-1.483, 8.415e-6
-1.484, 8.448e-6
-1.485, 8.519e-6
-1.486, 8.532e-6
-1.487, 8.597e-6
-1.488, 8.624e-6
-1.489, 8.666e-6
-1.490, 8.675e-6
-1.491, 8.725e-6
-1.492, 8.757e-6
-1.493, 8.809e-6
-1.494, 8.860e-6
-1.495, 8.875e-6
-1.496, 8.911e-6
-1.497, 8.931e-6
-1.498, 8.998e-6
-1.499, 9.037e-6
-1.500, 9.095e-6
-1.501, 9.093e-6
-1.502, 9.154e-6
-1.503, 9.232e-6
-1.504, 9.252e-6
-1.505, 9.300e-6
-1.506, 9.324e-6
-1.507, 9.368e-6
-1.508, 9.414e-6
-1.509, 9.449e-6
-1.510, 9.523e-6
-1.511, 9.554e-6
-1.512, 9.579e-6
-1.513, 9.651e-6
-1.514, 9.717e-6
-1.515, 9.749e-6
-1.516, 9.763e-6
-1.517, 9.824e-6
-1.518, 9.880e-6
-1.519, 9.936e-6
-1.520, 9.994e-6
-1.521, 1.004e-5
-1.522, 1.009e-5
-1.523, 1.011e-5
-1.524, 1.016e-5
-1.525, 1.022e-5
-1.526, 1.031e-5
-1.527, 1.035e-5
-1.528, 1.039e-5
-1.529, 1.044e-5
-1.530, 1.050e-5
-1.531, 1.053e-5
-1.532, 1.061e-5
-1.533, 1.067e-5
-1.534, 1.071e-5
-1.535, 1.078e-5
-1.536, 1.081e-5
-1.537, 1.089e-5
-1.538, 1.095e-5
-1.539, 1.101e-5
-1.540, 1.107e-5
-1.541, 1.115e-5
-1.542, 1.115e-5
-1.543, 1.124e-5
-1.544, 1.130e-5
-1.545, 1.139e-5
-1.546, 1.142e-5
-1.547, 1.150e-5
-1.548, 1.158e-5
-1.549, 1.163e-5
-1.550, 1.167e-5
-1.551, 1.175e-5
-1.552, 1.179e-5
-1.553, 1.189e-5
-1.554, 1.196e-5
-1.555, 1.201e-5
-1.556, 1.208e-5
-1.557, 1.216e-5
-1.558, 1.226e-5
-1.559, 1.232e-5
-1.560, 1.237e-5
-1.561, 1.244e-5
-1.562, 1.252e-5
-1.563, 1.262e-5
-1.564, 1.267e-5
-1.565, 1.277e-5
-1.566, 1.285e-5
-1.567, 1.289e-5
-1.568, 1.300e-5
-1.569, 1.307e-5
-1.570, 1.316e-5
-1.571, 1.325e-5
-1.572, 1.334e-5
-1.573, 1.342e-5
-1.574, 1.349e-5
-1.575, 1.360e-5
-1.576, 1.369e-5
-1.577, 1.376e-5
-1.578, 1.386e-5
-1.579, 1.396e-5
-1.580, 1.404e-5
-1.581, 1.412e-5
-1.582, 1.420e-5
-1.583, 1.435e-5
-1.584, 1.443e-5
-1.585, 1.451e-5
-1.586, 1.463e-5
-1.587, 1.472e-5
-1.588, 1.482e-5
-1.589, 1.493e-5
-1.590, 1.506e-5
-1.591, 1.516e-5
-1.592, 1.523e-5
-1.593, 1.533e-5
-1.594, 1.547e-5
-1.595, 1.558e-5
-1.596, 1.570e-5
-1.597, 1.583e-5
-1.598, 1.591e-5
-1.599, 1.603e-5
-1.600, 1.618e-5
-1.601, 1.630e-5
-1.602, 1.642e-5
-1.603, 1.656e-5
-1.604, 1.670e-5
-1.605, 1.679e-5
-1.606, 1.692e-5
-1.607, 1.706e-5
-1.608, 1.716e-5
-1.609, 1.733e-5
-1.610, 1.747e-5
-1.611, 1.760e-5
-1.612, 1.776e-5
-1.613, 1.788e-5
-1.614, 1.802e-5
-1.615, 1.817e-5
-1.616, 1.832e-5
-1.617, 1.849e-5
-1.618, 1.863e-5
-1.619, 1.879e-5
-1.620, 1.894e-5
-1.621, 1.909e-5
-1.622, 1.925e-5
-1.623, 1.942e-5
-1.624, 1.958e-5
-1.625, 1.978e-5
-1.626, 1.995e-5
-1.627, 2.009e-5
-1.628, 2.028e-5
-1.629, 2.046e-5
-1.630, 2.067e-5
-1.631, 2.081e-5
-1.632, 2.100e-5
-1.633, 2.122e-5
-1.634, 2.140e-5
-1.635, 2.159e-5
-1.636, 2.179e-5
-1.637, 2.198e-5
-1.638, 2.222e-5
-1.639, 2.243e-5
-1.640, 2.263e-5
-1.641, 2.285e-5
-1.642, 2.306e-5
-1.643, 2.327e-5
-1.644, 2.349e-5
-1.645, 2.374e-5
-1.646, 2.396e-5
-1.647, 2.419e-5
-1.648, 2.442e-5
-1.649, 2.468e-5
-1.650, 2.494e-5
-1.651, 2.515e-5
-1.652, 2.544e-5
-1.653, 2.569e-5
-1.654, 2.595e-5
-1.655, 2.624e-5
-1.656, 2.650e-5
-1.657, 2.678e-5
-1.658, 2.704e-5
-1.659, 2.733e-5
-1.660, 2.764e-5
-1.661, 2.791e-5
-1.662, 2.821e-5
-1.663, 2.852e-5
-1.664, 2.883e-5
-1.665, 2.916e-5
-1.666, 2.947e-5
-1.667, 2.981e-5
-1.668, 3.013e-5
-1.669, 3.049e-5
-1.670, 3.082e-5
-1.671, 3.117e-5
-1.672, 3.154e-5
-1.673, 3.190e-5
-1.674, 3.224e-5
-1.675, 3.261e-5
-1.676, 3.302e-5
-1.677, 3.341e-5
-1.678, 3.380e-5
-1.679, 3.425e-5
-1.680, 3.465e-5
-1.681, 3.506e-5
-1.682, 3.547e-5
-1.683, 3.591e-5
-1.684, 3.639e-5
-1.685, 3.683e-5
-1.686, 3.730e-5
-1.687, 3.778e-5
-1.688, 3.827e-5
-1.689, 3.880e-5
-1.690, 3.932e-5
-1.691, 3.984e-5
-1.692, 4.037e-5
-1.693, 4.092e-5
-1.694, 4.150e-5
-1.695, 4.206e-5
-1.696, 4.265e-5
-1.697, 4.326e-5
-1.698, 4.387e-5
-1.699, 4.451e-5
-1.700, 4.516e-5
-1.701, 4.582e-5
-1.702, 4.650e-5
-1.703, 4.716e-5
-1.704, 4.788e-5
-1.705, 4.862e-5
-1.706, 4.936e-5
-1.707, 5.011e-5
-1.708, 5.091e-5
-1.709, 5.174e-5
-1.710, 5.256e-5
-1.711, 5.340e-5
-1.712, 5.423e-5
-1.713, 5.517e-5
-1.714, 5.606e-5
-1.715, 5.705e-5
-1.716, 5.801e-5
-1.717, 5.899e-5
-1.718, 6.003e-5
-1.719, 6.109e-5
-1.720, 6.213e-5
-1.721, 6.326e-5
-1.722, 6.443e-5
-1.723, 6.563e-5
-1.724, 6.684e-5
-1.725, 6.808e-5
-1.726, 6.938e-5
-1.727, 7.072e-5
-1.728, 7.208e-5
-1.729, 7.354e-5
-1.730, 7.500e-5
-1.731, 7.651e-5
-1.732, 7.807e-5
-1.733, 7.968e-5
-1.734, 8.136e-5
-1.735, 8.306e-5
-1.736, 8.483e-5
-1.737, 8.674e-5
-1.738, 8.862e-5
-1.739, 9.057e-5
-1.740, 9.260e-5
-1.741, 9.472e-5
-1.742, 9.687e-5
-1.743, 9.915e-5
-1.744, 1.015e-4
-1.745, 1.039e-4
-1.746, 1.064e-4
-1.747, 1.090e-4
-1.748, 1.118e-4
-1.749, 1.145e-4
-1.750, 1.173e-4
-1.751, 1.202e-4
-1.752, 1.232e-4
-1.753, 1.263e-4
-1.754, 1.295e-4
-1.755, 1.329e-4
-1.756, 1.366e-4
-1.757, 1.403e-4
-1.758, 1.443e-4
-1.759, 1.483e-4
-1.760, 1.526e-4
-1.761, 1.570e-4
-1.762, 1.616e-4
-1.763, 1.664e-4
-1.764, 1.713e-4
-1.765, 1.765e-4
-1.766, 1.818e-4
-1.767, 1.875e-4
-1.768, 1.933e-4
-1.769, 1.994e-4
-1.770, 2.057e-4
-1.771, 2.123e-4
-1.772, 2.191e-4
-1.773, 2.263e-4
-1.774, 2.337e-4
-1.775, 2.415e-4
-1.776, 2.495e-4
-1.777, 2.579e-4
-1.778, 2.667e-4
-1.779, 2.757e-4
-1.780, 2.853e-4
-1.781, 2.951e-4
-1.782, 3.054e-4
-1.783, 3.161e-4
-1.784, 3.272e-4
-1.785, 3.389e-4
-1.786, 3.510e-4
-1.787, 3.634e-4
-1.788, 3.765e-4
-1.789, 3.902e-4
-1.790, 4.041e-4
-1.791, 4.189e-4
-1.792, 4.339e-4
-1.793, 4.495e-4
-1.794, 4.659e-4
-1.795, 4.830e-4
-1.796, 5.006e-4
-1.797, 5.190e-4
-1.798, 5.379e-4
-1.799, 5.575e-4
-1.800, 5.682e-4
-1.799, 5.659e-4
-1.798, 5.627e-4
-1.797, 5.583e-4
-1.796, 5.530e-4
-1.795, 5.475e-4
-1.794, 5.412e-4
-1.793, 5.342e-4
-1.792, 5.270e-4
-1.791, 5.199e-4
-1.790, 5.120e-4
-1.789, 5.045e-4
-1.788, 4.964e-4
-1.787, 4.884e-4
-1.786, 4.804e-4
-1.785, 4.723e-4
-1.784, 4.640e-4
-1.783, 4.559e-4
-1.782, 4.476e-4
-1.781, 4.394e-4
-1.780, 4.313e-4
-1.779, 4.229e-4
-1.778, 4.149e-4
-1.777, 4.068e-4
-1.776, 3.988e-4
-1.775, 3.909e-4
-1.774, 3.831e-4
-1.773, 3.752e-4
-1.772, 3.675e-4
-1.771, 3.599e-4
-1.770, 3.523e-4
-1.769, 3.450e-4
-1.768, 3.377e-4
-1.767, 3.305e-4
-1.766, 3.235e-4
-1.765, 3.165e-4
-1.764, 3.097e-4
-1.763, 3.030e-4
-1.762, 2.964e-4
-1.761, 2.900e-4
-1.760, 2.837e-4
-1.759, 2.774e-4
-1.758, 2.714e-4
-1.757, 2.654e-4
-1.756, 2.596e-4
-1.755, 2.538e-4
-1.754, 2.482e-4
-1.753, 2.427e-4
-1.752, 2.374e-4
-1.751, 2.320e-4
-1.750, 2.269e-4
-1.749, 2.218e-4
-1.748, 2.168e-4
-1.747, 2.120e-4
-1.746, 2.074e-4
-1.745, 2.027e-4
-1.744, 1.982e-4
-1.743, 1.938e-4
-1.742, 1.895e-4
-1.741, 1.854e-4
-1.740, 1.812e-4
-1.739, 1.772e-4
-1.738, 1.733e-4
-1.737, 1.694e-4
-1.736, 1.658e-4
-1.735, 1.621e-4
-1.734, 1.585e-4
-1.733, 1.551e-4
-1.732, 1.517e-4
-1.731, 1.484e-4
-1.730, 1.452e-4
-1.729, 1.420e-4
-1.728, 1.390e-4
-1.727, 1.360e-4
-1.726, 1.330e-4
-1.725, 1.302e-4
-1.724, 1.274e-4
-1.723, 1.247e-4
-1.722, 1.221e-4
-1.721, 1.195e-4
-1.720, 1.170e-4
-1.719, 1.145e-4
-1.718, 1.121e-4
-1.717, 1.098e-4
-1.716, 1.075e-4
-1.715, 1.053e-4
-1.714, 1.031e-4
-1.713, 1.010e-4
-1.712, 9.893e-5
-1.711, 9.693e-5
-1.710, 9.496e-5
-1.709, 9.305e-5
-1.708, 9.118e-5
-1.707, 8.932e-5
-1.706, 8.758e-5
-1.705, 8.580e-5
-1.704, 8.407e-5
-1.703, 8.244e-5
-1.702, 8.081e-5
-1.701, 7.921e-5
-1.700, 7.767e-5
-1.699, 7.615e-5
-1.698, 7.465e-5
-1.697, 7.317e-5
-1.696, 7.182e-5
-1.695, 7.046e-5
-1.694, 6.907e-5
-1.693, 6.778e-5
-1.692, 6.649e-5
-1.691, 6.522e-5
-1.690, 6.399e-5
-1.689, 6.276e-5
-1.688, 6.161e-5
-1.687, 6.048e-5
-1.686, 5.935e-5
-1.685, 5.828e-5
-1.684, 5.718e-5
-1.683, 5.615e-5
-1.682, 5.514e-5
-1.681, 5.416e-5
-1.680, 5.316e-5
-1.679, 5.219e-5
-1.678, 5.124e-5
-1.677, 5.037e-5
-1.676, 4.947e-5
-1.675, 4.859e-5
-1.674, 4.773e-5
-1.673, 4.687e-5
-1.672, 4.607e-5
-1.671, 4.525e-5
-1.670, 4.448e-5
-1.669, 4.373e-5
-1.668, 4.298e-5
-1.667, 4.226e-5
-1.666, 4.153e-5
-1.665, 4.083e-5
-1.664, 4.010e-5
-1.663, 3.945e-5
-1.662, 3.880e-5
-1.661, 3.817e-5
-1.660, 3.752e-5
-1.659, 3.690e-5
-1.658, 3.630e-5
-1.657, 3.567e-5
-1.656, 3.510e-5
-1.655, 3.455e-5
-1.654, 3.398e-5
-1.653, 3.346e-5
-1.652, 3.291e-5
-1.651, 3.238e-5
-1.650, 3.182e-5
-1.649, 3.132e-5
-1.648, 3.086e-5
-1.647, 3.036e-5
-1.646, 2.990e-5
-1.645, 2.944e-5
-1.644, 2.895e-5
-1.643, 2.851e-5
-1.642, 2.808e-5
-1.641, 2.766e-5
-1.640, 2.724e-5
-1.639, 2.680e-5
-1.638, 2.639e-5
-1.637, 2.598e-5
-1.636, 2.561e-5
-1.635, 2.522e-5
-1.634, 2.481e-5
-1.633, 2.448e-5
-1.632, 2.412e-5
-1.631, 2.377e-5
-1.630, 2.338e-5
-1.629, 2.305e-5
-1.628, 2.272e-5
-1.627, 2.242e-5
-1.626, 2.209e-5
-1.625, 2.175e-5
-1.624, 2.145e-5
-1.623, 2.114e-5
-1.622, 2.083e-5
-1.621, 2.057e-5
-1.620, 2.025e-5
-1.619, 1.998e-5
-1.618, 1.973e-5
-1.617, 1.941e-5
-1.616, 1.920e-5
-1.615, 1.890e-5
-1.614, 1.863e-5
-1.613, 1.840e-5
-1.612, 1.817e-5
-1.611, 1.792e-5
-1.610, 1.766e-5
-1.609, 1.742e-5
-1.608, 1.723e-5
-1.607, 1.700e-5
-1.606, 1.678e-5
-1.605, 1.657e-5
-1.604, 1.634e-5
-1.603, 1.612e-5
-1.602, 1.593e-5
-1.601, 1.573e-5
-1.600, 1.551e-5
-1.599, 1.533e-5
-1.598, 1.515e-5
-1.597, 1.496e-5
-1.596, 1.481e-5
-1.595, 1.458e-5
-1.594, 1.442e-5
-1.593, 1.423e-5
-1.592, 1.409e-5
-1.591, 1.392e-5
-1.590, 1.375e-5
-1.589, 1.358e-5
-1.588, 1.339e-5
-1.587, 1.324e-5
-1.586, 1.310e-5
-1.585, 1.293e-5
-1.584, 1.282e-5
-1.583, 1.263e-5
-1.582, 1.253e-5
-1.581, 1.239e-5
-1.580, 1.224e-5
-1.579, 1.211e-5
-1.578, 1.194e-5
-1.577, 1.183e-5
-1.576, 1.171e-5
-1.575, 1.157e-5
-1.574, 1.145e-5
-1.573, 1.134e-5
-1.572, 1.120e-5
-1.571, 1.109e-5
-1.570, 1.093e-5
-1.569, 1.084e-5
-1.568, 1.072e-5
-1.567, 1.064e-5
-1.566, 1.052e-5
-1.565, 1.036e-5
-1.564, 1.030e-5
-1.563, 1.020e-5
-1.562, 1.010e-5
-1.561, 9.963e-6
-1.560, 9.851e-6
-1.559, 9.773e-6
-1.558, 9.660e-6
-1.557, 9.577e-6
-1.556, 9.496e-6
-1.555, 9.388e-6
-1.554, 9.299e-6
-1.553, 9.214e-6
-1.552, 9.114e-6
-1.551, 9.008e-6
-1.550, 8.910e-6
-1.549, 8.830e-6
-1.548, 8.756e-6
-1.547, 8.676e-6
-1.546, 8.596e-6
-1.545, 8.525e-6
-1.544, 8.436e-6
-1.543, 8.347e-6
-1.542, 8.263e-6
-1.541, 8.217e-6
-1.540, 8.118e-6
-1.539, 8.035e-6
-1.538, 7.963e-6
-1.537, 7.888e-6
-1.536, 7.812e-6
-1.535, 7.763e-6
-1.534, 7.690e-6
-1.533, 7.625e-6
-1.532, 7.521e-6
-1.531, 7.455e-6
-1.530, 7.420e-6
-1.529, 7.321e-6
-1.528, 7.287e-6
-1.527, 7.212e-6
-1.526, 7.138e-6
-1.525, 7.097e-6
-1.524, 7.050e-6
-1.523, 6.959e-6
-1.522, 6.906e-6
-1.521, 6.837e-6
-1.520, 6.796e-6
-1.519, 6.704e-6
-1.518, 6.652e-6
-1.517, 6.611e-6
-1.516, 6.539e-6
-1.515, 6.501e-6
-1.514, 6.425e-6
-1.513, 6.373e-6
-1.512, 6.307e-6
-1.511, 6.266e-6
-1.510, 6.228e-6
-1.509, 6.151e-6
-1.508, 6.125e-6
-1.507, 6.076e-6
-1.506, 6.003e-6
-1.505, 5.967e-6
-1.504, 5.894e-6
-1.503, 5.877e-6
-1.502, 5.818e-6
-1.501, 5.745e-6
-1.500, 5.697e-6
-1.499, 5.667e-6
-1.498, 5.633e-6
-1.497, 5.591e-6
-1.496, 5.523e-6
-1.495, 5.474e-6
-1.494, 5.415e-6
-1.493, 5.399e-6
-1.492, 5.340e-6
-1.491, 5.310e-6
-1.490, 5.258e-6
-1.489, 5.210e-6
-1.488, 5.184e-6
-1.487, 5.147e-6
-1.486, 5.106e-6
-1.485, 5.038e-6
-1.484, 5.007e-6
-1.483, 4.939e-6
-1.482, 4.931e-6
-1.481, 4.887e-6
-1.480, 4.850e-6
-1.479, 4.801e-6
-1.478, 4.753e-6
-1.477, 4.736e-6
-1.476, 4.694e-6
-1.475, 4.642e-6
-1.474, 4.601e-6
-1.473, 4.577e-6
-1.472, 4.532e-6
-1.471, 4.509e-6
-1.470, 4.470e-6
-1.469, 4.413e-6
-1.468, 4.376e-6
-1.467, 4.334e-6
-1.466, 4.343e-6
-1.465, 4.285e-6
-1.464, 4.254e-6
-1.463, 4.193e-6
-1.462, 4.195e-6
-1.461, 4.172e-6
-1.460, 4.121e-6
-1.459, 4.077e-6
-1.458, 4.054e-6
-1.457, 4.044e-6
-1.456, 3.995e-6
-1.455, 3.975e-6
-1.454, 3.937e-6
-1.453, 3.919e-6
-1.452, 3.882e-6
-1.451, 3.890e-6
-1.450, 3.803e-6
-1.449, 3.770e-6
-1.448, 3.766e-6
-1.447, 3.746e-6
-1.446, 3.713e-6
-1.445, 3.661e-6
-1.444, 3.657e-6
-1.443, 3.623e-6
-1.442, 3.592e-6
-1.441, 3.562e-6
-1.440, 3.555e-6
-1.439, 3.524e-6
-1.438, 3.469e-6
-1.437, 3.463e-6
-1.436, 3.475e-6
-1.435, 3.421e-6
-1.434, 3.394e-6
-1.433, 3.365e-6
-1.432, 3.309e-6
-1.431, 3.285e-6
-1.430, 3.262e-6
-1.429, 3.276e-6
-1.428, 3.238e-6
-1.427, 3.223e-6
-1.426, 3.198e-6
-1.425, 3.161e-6
-1.424, 3.129e-6
-1.423, 3.125e-6
-1.422, 3.098e-6
-1.421, 3.045e-6
-1.420, 3.048e-6
-1.419, 3.029e-6
-1.418, 2.981e-6
-1.417, 2.965e-6
-1.416, 2.969e-6
-1.415, 2.949e-6
-1.414, 2.887e-6
-1.413, 2.876e-6
-1.412, 2.880e-6
-1.411, 2.864e-6
-1.410, 2.819e-6
-1.409, 2.823e-6
-1.408, 2.764e-6
-1.407, 2.746e-6
-1.406, 2.745e-6
-1.405, 2.708e-6
-1.404, 2.701e-6
-1.403, 2.684e-6
-1.402, 2.643e-6
-1.401, 2.626e-6
-1.400, 2.585e-6
-1.399, 2.582e-6
-1.398, 2.572e-6
-1.397, 2.546e-6
-1.396, 2.547e-6
-1.395, 2.506e-6
-1.394, 2.485e-6
-1.393, 2.470e-6
-1.392, 2.429e-6
-1.391, 2.429e-6
-1.390, 2.398e-6
-1.389, 2.398e-6
-1.388, 2.396e-6
-1.387, 2.364e-6
-1.386, 2.328e-6
-1.385, 2.307e-6
-1.384, 2.282e-6
-1.383, 2.279e-6
-1.382, 2.249e-6
-1.381, 2.238e-6
-1.380, 2.241e-6
-1.379, 2.211e-6
-1.378, 2.186e-6
-1.377, 2.156e-6
-1.376, 2.145e-6
-1.375, 2.130e-6
-1.374, 2.111e-6
-1.373, 2.109e-6
-1.372, 2.059e-6
-1.371, 2.043e-6
-1.370, 2.053e-6
-1.369, 2.008e-6
-1.368, 2.023e-6
-1.367, 1.992e-6
-1.366, 1.984e-6
-1.365, 1.973e-6
-1.364, 1.920e-6
-1.363, 1.917e-6
-1.362, 1.912e-6
-1.361, 1.888e-6
-1.360, 1.893e-6
-1.359, 1.862e-6
-1.358, 1.832e-6
-1.357, 1.813e-6
-1.356, 1.818e-6
-1.355, 1.786e-6
-1.354, 1.779e-6
-1.353, 1.773e-6
-1.352, 1.760e-6
-1.351, 1.751e-6
-1.350, 1.739e-6
-1.349, 1.717e-6
-1.348, 1.690e-6
-1.347, 1.682e-6
-1.346, 1.683e-6
-1.345, 1.645e-6
-1.344, 1.609e-6
-1.343, 1.606e-6
-1.342, 1.603e-6
-1.341, 1.588e-6
-1.340, 1.549e-6
-1.339, 1.551e-6
-1.338, 1.543e-6
-1.337, 1.509e-6
-1.336, 1.505e-6
-1.335, 1.493e-6
-1.334, 1.508e-6
-1.333, 1.455e-6
-1.332, 1.434e-6
-1.331, 1.429e-6
-1.330, 1.375e-6
-1.329, 1.402e-6
-1.328, 1.370e-6
-1.327, 1.382e-6
-1.326, 1.345e-6
-1.325, 1.339e-6
-1.324, 1.318e-6
-1.323, 1.295e-6
-1.322, 1.289e-6
-1.321, 1.271e-6
-1.320, 1.258e-6
-1.319, 1.266e-6
-1.318, 1.222e-6
-1.317, 1.246e-6
-1.316, 1.210e-6
-1.315, 1.169e-6
-1.314, 1.184e-6
-1.313, 1.170e-6
-1.312, 1.158e-6
-1.311, 1.137e-6
-1.310, 1.122e-6
-1.309, 1.106e-6
-1.308, 1.083e-6
-1.307, 1.068e-6
-1.306, 1.071e-6
-1.305, 1.052e-6
-1.304, 1.038e-6
-1.303, 1.012e-6
-1.302, 1.026e-6
-1.301, 9.953e-7
-1.300, 9.923e-7
-1.299, 9.884e-7
-1.298, 9.677e-7
-1.297, 9.321e-7
-1.296, 9.410e-7
-1.295, 9.085e-7
-1.294, 9.055e-7
-1.293, 8.798e-7
-1.292, 8.769e-7
-1.291, 8.601e-7
-1.290, 8.443e-7
-1.289, 8.295e-7
-1.288, 8.325e-7
-1.287, 8.059e-7
-1.286, 7.989e-7
-1.285, 7.901e-7
-1.284, 7.911e-7
-1.283, 7.536e-7
-1.282, 7.467e-7
-1.281, 7.250e-7
-1.280, 7.032e-7
-1.279, 7.052e-7
-1.278, 6.835e-7
-1.277, 6.756e-7
-1.276, 6.569e-7
-1.275, 6.283e-7
-1.274, 6.273e-7
-1.273, 6.154e-7
-1.272, 6.352e-7
-1.271, 5.898e-7
-1.270, 5.927e-7
-1.269, 5.572e-7
-1.268, 5.622e-7
-1.267, 5.661e-7
-1.266, 5.483e-7
-1.265, 5.148e-7
-1.264, 5.336e-7
-1.263, 4.951e-7
-1.262, 4.980e-7
-1.261, 4.842e-7
-1.260, 4.862e-7
-1.259, 4.724e-7
-1.258, 4.418e-7
-1.257, 4.221e-7
-1.256, 4.388e-7
-1.255, 4.122e-7
-1.254, 4.063e-7
-1.253, 3.974e-7
-1.252, 4.013e-7
-1.251, 3.717e-7
-1.250, 3.757e-7
-1.249, 3.589e-7
-1.248, 3.530e-7
-1.247, 3.352e-7
-1.246, 3.303e-7
-1.245, 3.106e-7
-1.244, 3.234e-7
-1.243, 3.096e-7
-1.242, 2.632e-7
-1.241, 2.810e-7
-1.240, 2.484e-7
-1.239, 2.287e-7
-1.238, 2.366e-7
-1.237, 2.257e-7
-1.236, 2.415e-7
-1.235, 2.060e-7
-1.234, 1.991e-7
-1.233, 1.863e-7
-1.232, 1.458e-7
-1.231, 1.508e-7
-1.230, 1.567e-7
-1.229, 1.399e-7
-1.228, 1.133e-7
-1.227, 1.142e-7
-1.226, 9.846e-8
-1.225, 7.380e-8
-1.224, 6.985e-8
-1.223, 7.380e-8
-1.222, 6.294e-8
-1.221, 4.124e-8
-1.220, 3.729e-8
-1.219, 2.447e-8
-1.218, 2.052e-8
-1.217, -8.090e-9
-1.216, -1.184e-9
-1.215, -1.894e-8
-1.214, -4.065e-8
-1.213, -5.150e-8
-1.212, -1.401e-8
-1.211, -6.926e-8
-1.210, -9.195e-8
-1.209, -6.630e-8
-1.208, -7.814e-8
-1.207, -9.195e-8
-1.206, -1.196e-7
-1.205, -1.225e-7
-1.204, -1.452e-7
-1.203, -1.541e-7
-1.202, -1.561e-7
-1.201, -1.679e-7
-1.200, -1.719e-7
-1.199, -1.946e-7
-1.198, -1.906e-7
-1.197, -2.064e-7
-1.196, -2.370e-7
-1.195, -2.488e-7
-1.194, -2.399e-7
-1.193, -2.804e-7
-1.192, -2.478e-7
-1.191, -2.824e-7
-1.190, -2.764e-7
-1.189, -2.893e-7
-1.188, -3.327e-7
-1.187, -3.406e-7
-1.186, -3.643e-7
-1.185, -3.623e-7
-1.184, -3.435e-7
-1.183, -3.731e-7
-1.182, -3.741e-7
-1.181, -3.929e-7
-1.180, -4.284e-7
-1.179, -4.205e-7
-1.178, -4.461e-7
-1.177, -4.323e-7
-1.176, -4.669e-7
-1.175, -4.639e-7
-1.174, -4.767e-7
-1.173, -5.024e-7
-1.172, -4.905e-7
-1.171, -5.172e-7
-1.170, -5.211e-7
-1.169, -5.517e-7
-1.168, -5.635e-7
-1.167, -5.606e-7
-1.166, -5.714e-7
-1.165, -5.951e-7
-1.164, -5.774e-7
-1.163, -5.931e-7
-1.162, -6.237e-7
-1.161, -6.267e-7
-1.160, -6.661e-7
-1.159, -6.681e-7
-1.158, -6.809e-7
-1.157, -6.780e-7
-1.156, -6.888e-7
-1.155, -7.017e-7
-1.154, -7.115e-7
-1.153, -7.293e-7
-1.152, -7.530e-7
-1.151, -7.697e-7
-1.150, -7.589e-7
-1.149, -7.826e-7
-1.148, -8.122e-7
-1.147, -8.033e-7
-1.146, -8.329e-7
-1.145, -8.309e-7
-1.144, -8.556e-7
-1.143, -8.635e-7
-1.142, -8.763e-7
-1.141, -9.019e-7
-1.140, -9.276e-7
-1.139, -9.483e-7
-1.138, -9.187e-7
-1.137, -9.394e-7
-1.136, -9.572e-7
-1.135, -9.730e-7
-1.134, -9.947e-7
-1.133, -1.002e-6
-1.132, -1.033e-6
-1.131, -1.043e-6
-1.130, -1.061e-6
-1.129, -1.071e-6
-1.128, -1.069e-6
-1.127, -1.086e-6
-1.126, -1.118e-6
-1.125, -1.124e-6
-1.124, -1.146e-6
-1.123, -1.173e-6
-1.122, -1.165e-6
-1.121, -1.204e-6
-1.120, -1.225e-6
-1.119, -1.223e-6
-1.118, -1.232e-6
-1.117, -1.257e-6
-1.116, -1.274e-6
-1.115, -1.276e-6
-1.114, -1.315e-6
-1.113, -1.339e-6
-1.112, -1.361e-6
-1.111, -1.376e-6
-1.110, -1.393e-6
-1.109, -1.396e-6
-1.108, -1.413e-6
-1.107, -1.436e-6
-1.106, -1.450e-6
-1.105, -1.460e-6
-1.104, -1.481e-6
-1.103, -1.493e-6
-1.102, -1.536e-6
-1.101, -1.576e-6
-1.100, -1.592e-6
-1.099, -1.586e-6
-1.098, -1.629e-6
-1.097, -1.626e-6
-1.096, -1.620e-6
-1.095, -1.651e-6
-1.094, -1.662e-6
-1.093, -1.687e-6
-1.092, -1.722e-6
-1.091, -1.725e-6
-1.090, -1.754e-6
-1.089, -1.760e-6
-1.088, -1.818e-6
-1.087, -1.833e-6
-1.086, -1.856e-6
-1.085, -1.878e-6
-1.084, -1.901e-6
-1.083, -1.914e-6
-1.082, -1.949e-6
-1.081, -1.992e-6
-1.080, -2.000e-6
-1.079, -2.019e-6
-1.078, -2.032e-6
-1.077, -2.054e-6
-1.076, -2.089e-6
-1.075, -2.105e-6
-1.074, -2.140e-6
-1.073, -2.183e-6
-1.072, -2.203e-6
-1.071, -2.214e-6
-1.070, -2.250e-6
-1.069, -2.265e-6
-1.068, -2.307e-6
-1.067, -2.331e-6
-1.066, -2.366e-6
-1.065, -2.405e-6
-1.064, -2.410e-6
-1.063, -2.458e-6
-1.062, -2.499e-6
-1.061, -2.507e-6
-1.060, -2.550e-6
-1.059, -2.596e-6
-1.058, -2.608e-6
-1.057, -2.650e-6
-1.056, -2.676e-6
-1.055, -2.713e-6
-1.054, -2.752e-6
-1.053, -2.787e-6
-1.052, -2.824e-6
-1.051, -2.858e-6
-1.050, -2.908e-6
-1.049, -2.941e-6
-1.048, -2.989e-6
-1.047, -3.043e-6
-1.046, -3.092e-6
-1.045, -3.109e-6
-1.044, -3.153e-6
-1.043, -3.207e-6
-1.042, -3.236e-6
-1.041, -3.296e-6
-1.040, -3.347e-6
-1.039, -3.401e-6
-1.038, -3.443e-6
-1.037, -3.485e-6
-1.036, -3.547e-6
-1.035, -3.589e-6
-1.034, -3.659e-6
-1.033, -3.705e-6
-1.032, -3.763e-6
-1.031, -3.829e-6
-1.030, -3.877e-6
-1.029, -3.932e-6
-1.028, -4.004e-6
-1.027, -4.048e-6
-1.026, -4.125e-6
-1.025, -4.210e-6
-1.024, -4.296e-6
-1.023, -4.329e-6
-1.022, -4.394e-6
-1.021, -4.479e-6
-1.020, -4.565e-6
-1.019, -4.632e-6
-1.018, -4.723e-6
-1.017, -4.799e-6
-1.016, -4.895e-6
-1.015, -4.965e-6
-1.014, -5.025e-6
-1.013, -5.123e-6
-1.012, -5.202e-6
-1.011, -5.313e-6
-1.010, -5.421e-6
-1.009, -5.498e-6
-1.008, -5.593e-6
-1.007, -5.667e-6
-1.006, -5.761e-6
-1.005, -5.874e-6
-1.004, -5.982e-6
-1.003, -6.087e-6
-1.002, -6.198e-6
-1.001, -6.294e-6
-1.000, -6.039e-6
-1.001, -5.618e-6
-1.002, -5.313e-6
-1.003, -5.000e-6
-1.004, -4.765e-6
-1.005, -4.519e-6
-1.006, -4.276e-6
-1.007, -4.050e-6
-1.008, -3.823e-6
-1.009, -3.641e-6
-1.010, -3.446e-6
-1.011, -3.231e-6
-1.012, -3.047e-6
-1.013, -2.920e-6
-1.014, -2.754e-6
-1.015, -2.616e-6
-1.016, -2.465e-6
-1.017, -2.325e-6
-1.018, -2.178e-6
-1.019, -2.068e-6
-1.020, -1.941e-6
-1.021, -1.843e-6
-1.022, -1.697e-6
-1.023, -1.604e-6
-1.024, -1.515e-6
-1.025, -1.399e-6
-1.026, -1.297e-6
-1.027, -1.202e-6
-1.028, -1.110e-6
-1.029, -1.032e-6
-1.030, -9.572e-7
-1.031, -8.763e-7
-1.032, -8.072e-7
-1.033, -7.352e-7
-1.034, -6.602e-7
-1.035, -5.951e-7
-1.036, -5.270e-7
-1.037, -4.422e-7
-1.038, -3.869e-7
-1.039, -3.396e-7
-1.040, -2.745e-7
-1.041, -2.034e-7
-1.042, -1.669e-7
-1.043, -1.156e-7
-1.044, -6.827e-8
-1.045, 2.447e-8
-1.046, 3.433e-8
-1.047, 8.564e-8
-1.048, 1.409e-7
-1.049, 1.656e-7
-1.050, 2.238e-7
-1.051, 2.583e-7
-1.052, 2.987e-7
-1.053, 3.520e-7
-1.054, 3.974e-7
-1.055, 4.428e-7
-1.056, 4.753e-7
-1.057, 5.059e-7
-1.058, 5.553e-7
-1.059, 5.651e-7
-1.060, 6.204e-7
-1.061, 6.658e-7
-1.062, 6.776e-7
-1.063, 7.151e-7
-1.064, 7.368e-7
-1.065, 7.634e-7
-1.066, 7.989e-7
-1.067, 8.137e-7
-1.068, 8.700e-7
-1.069, 8.729e-7
-1.070, 9.114e-7
-1.071, 9.598e-7
-1.072, 9.558e-7
-1.073, 9.667e-7
-1.074, 1.017e-6
-1.075, 1.055e-6
-1.076, 1.088e-6
-1.077, 1.092e-6
-1.078, 1.119e-6
-1.079, 1.138e-6
-1.080, 1.145e-6
-1.081, 1.178e-6
-1.082, 1.210e-6
-1.083, 1.240e-6
-1.084, 1.258e-6
-1.085, 1.273e-6
-1.086, 1.299e-6
-1.087, 1.280e-6
-1.088, 1.297e-6
-1.089, 1.362e-6
-1.090, 1.391e-6
-1.091, 1.376e-6
-1.092, 1.422e-6
-1.093, 1.414e-6
-1.094, 1.439e-6
-1.095, 1.451e-6
-1.096, 1.463e-6
-1.097, 1.500e-6
-1.098, 1.526e-6
-1.099, 1.553e-6
-1.100, 1.543e-6
-1.101, 1.555e-6
-1.102, 1.573e-6
-1.103, 1.579e-6
-1.104, 1.595e-6
-1.105, 1.616e-6
-1.106, 1.639e-6
-1.107, 1.664e-6
-1.108, 1.665e-6
-1.109, 1.680e-6
-1.110, 1.697e-6
-1.111, 1.697e-6
-1.112, 1.699e-6
-1.113, 1.738e-6
-1.114, 1.747e-6
-1.115, 1.776e-6
-1.116, 1.792e-6
-1.117, 1.819e-6
-1.118, 1.813e-6
-1.119, 1.819e-6
-1.120, 1.840e-6
-1.121, 1.835e-6
-1.122, 1.847e-6
-1.123, 1.868e-6
-1.124, 1.888e-6
-1.125, 1.915e-6
-1.126, 1.914e-6
-1.127, 1.943e-6
-1.128, 1.960e-6
-1.129, 1.948e-6
-1.130, 1.975e-6
-1.131, 1.986e-6
-1.132, 1.986e-6
-1.133, 1.995e-6
-1.134, 2.016e-6
-1.135, 2.039e-6
-1.136, 2.048e-6
-1.137, 2.049e-6
-1.138, 2.049e-6
-1.139, 2.075e-6
-1.140, 2.081e-6
-1.141, 2.094e-6
-1.142, 2.099e-6
-1.143, 2.124e-6
-1.144, 2.110e-6
-1.145, 2.143e-6
-1.146, 2.152e-6
-1.147, 2.168e-6
-1.148, 2.175e-6
-1.149, 2.150e-6
-1.150, 2.186e-6
-1.151, 2.200e-6
-1.152, 2.221e-6
-1.153, 2.240e-6
-1.154, 2.245e-6
-1.155, 2.248e-6
-1.156, 2.265e-6
-1.157, 2.263e-6
-1.158, 2.290e-6
-1.159, 2.300e-6
-1.160, 2.313e-6
-1.161, 2.326e-6
-1.162, 2.330e-6
-1.163, 2.353e-6
-1.164, 2.330e-6
-1.165, 2.356e-6
-1.166, 2.382e-6
-1.167, 2.389e-6
-1.168, 2.388e-6
-1.169, 2.392e-6
-1.170, 2.431e-6
-1.171, 2.436e-6
-1.172, 2.445e-6
-1.173, 2.444e-6
-1.174, 2.456e-6
-1.175, 2.459e-6
-1.176, 2.468e-6
-1.177, 2.511e-6
-1.178, 2.507e-6
-1.179, 2.503e-6
-1.180, 2.539e-6
-1.181, 2.545e-6
-1.182, 2.553e-6
-1.183, 2.557e-6
-1.184, 2.562e-6
-1.185, 2.584e-6
-1.186, 2.608e-6
-1.187, 2.614e-6
-1.188, 2.612e-6
-1.189, 2.635e-6
-1.190, 2.647e-6
-1.191, 2.646e-6
-1.192, 2.662e-6
-1.193, 2.651e-6
-1.194, 2.681e-6
-1.195, 2.713e-6
-1.196, 2.724e-6
-1.197, 2.724e-6
-1.198, 2.713e-6
-1.199, 2.723e-6
-1.200, 2.750e-6
-1.201, 2.754e-6
-1.202, 2.779e-6
-1.203, 2.792e-6
-1.204, 2.804e-6
-1.205, 2.812e-6
-1.206, 2.793e-6
-1.207, 2.819e-6
-1.208, 2.828e-6
-1.209, 2.856e-6
-1.210, 2.865e-6
-1.211, 2.878e-6
-1.212, 2.896e-6
-1.213, 2.892e-6
-1.214, 2.869e-6
-1.215, 2.915e-6
-1.216, 2.918e-6
-1.217, 2.940e-6
-1.218, 2.937e-6
-1.219, 2.966e-6
-1.220, 2.969e-6
-1.221, 2.982e-6
-1.222, 2.990e-6
-1.223, 3.000e-6
-1.224, 3.002e-6
-1.225, 3.021e-6
-1.226, 3.044e-6
-1.227, 3.047e-6
-1.228, 3.065e-6
-1.229, 3.088e-6
-1.230, 3.127e-6
-1.231, 3.123e-6
-1.232, 3.123e-6
-1.233, 3.115e-6
-1.234, 3.116e-6
-1.235, 3.146e-6
-1.236, 3.167e-6
-1.237, 3.176e-6
-1.238, 3.205e-6
-1.239, 3.204e-6
-1.240, 3.204e-6
-1.241, 3.229e-6
-1.242, 3.258e-6
-1.243, 3.261e-6
-1.244, 3.262e-6
-1.245, 3.285e-6
-1.246, 3.308e-6
-1.247, 3.313e-6
-1.248, 3.334e-6
-1.249, 3.339e-6
-1.250, 3.321e-6
-1.251, 3.351e-6
-1.252, 3.384e-6
-1.253, 3.387e-6
-1.254, 3.399e-6
-1.255, 3.422e-6
-1.256, 3.435e-6
-1.257, 3.451e-6
-1.258, 3.481e-6
-1.259, 3.478e-6
-1.260, 3.489e-6
-1.261, 3.485e-6
-1.262, 3.513e-6
-1.263, 3.508e-6
-1.264, 3.542e-6
-1.265, 3.572e-6
-1.266, 3.573e-6
-1.267, 3.588e-6
-1.268, 3.613e-6
-1.269, 3.602e-6
-1.270, 3.612e-6
-1.271, 3.623e-6
-1.272, 3.653e-6
-1.273, 3.650e-6
-1.274, 3.662e-6
-1.275, 3.687e-6
-1.276, 3.713e-6
-1.277, 3.722e-6
-1.278, 3.728e-6
-1.279, 3.746e-6
-1.280, 3.771e-6
-1.281, 3.763e-6
-1.282, 3.800e-6
-1.283, 3.794e-6
-1.284, 3.816e-6
-1.285, 3.849e-6
-1.286, 3.850e-6
-1.287, 3.875e-6
-1.288, 3.876e-6
-1.289, 3.898e-6
-1.290, 3.917e-6
-1.291, 3.931e-6
-1.292, 3.962e-6
-1.293, 3.957e-6
-1.294, 3.971e-6
-1.295, 3.981e-6
-1.296, 4.022e-6
-1.297, 4.028e-6
-1.298, 4.051e-6
-1.299, 4.042e-6
-1.300, 4.070e-6
-1.301, 4.097e-6
-1.302, 4.119e-6
-1.303, 4.128e-6
-1.304, 4.132e-6
-1.305, 4.151e-6
-1.306, 4.155e-6
-1.307, 4.184e-6
-1.308, 4.200e-6
-1.309, 4.225e-6
-1.310, 4.241e-6
-1.311, 4.267e-6
-1.312, 4.282e-6
-1.313, 4.303e-6
-1.314, 4.304e-6
-1.315, 4.326e-6
-1.316, 4.351e-6
-1.317, 4.360e-6
-1.318, 4.378e-6
-1.319, 4.384e-6
-1.320, 4.406e-6
-1.321, 4.438e-6
-1.322, 4.447e-6
-1.323, 4.468e-6
-1.324, 4.473e-6
-1.325, 4.475e-6
-1.326, 4.498e-6
-1.327, 4.537e-6
-1.328, 4.555e-6
-1.329, 4.542e-6
-1.330, 4.571e-6
-1.331, 4.599e-6
-1.332, 4.605e-6
-1.333, 4.627e-6
-1.334, 4.659e-6
-1.335, 4.677e-6
-1.336, 4.691e-6
-1.337, 4.702e-6
-1.338, 4.714e-6
-1.339, 4.733e-6
-1.340, 4.741e-6
-1.341, 4.757e-6
-1.342, 4.805e-6
-1.343, 4.779e-6
-1.344, 4.824e-6
-1.345, 4.854e-6
-1.346, 4.876e-6
-1.347, 4.878e-6
-1.348, 4.880e-6
-1.349, 4.899e-6
-1.350, 4.906e-6
-1.351, 4.909e-6
-1.352, 4.965e-6
-1.353, 4.965e-6
-1.354, 4.991e-6
-1.355, 5.015e-6
-1.356, 5.027e-6
-1.357, 5.039e-6
-1.358, 5.079e-6
-1.359, 5.071e-6
-1.360, 5.110e-6
-1.361, 5.098e-6
-1.362, 5.135e-6
-1.363, 5.137e-6
-1.364, 5.159e-6
-1.365, 5.186e-6
-1.366, 5.202e-6
-1.367, 5.220e-6
-1.368, 5.237e-6
-1.369, 5.274e-6
-1.370, 5.262e-6
-1.371, 5.279e-6
-1.372, 5.305e-6
-1.373, 5.335e-6
-1.374, 5.336e-6
-1.375, 5.363e-6
-1.376, 5.386e-6
-1.377, 5.395e-6
-1.378, 5.389e-6
-1.379, 5.432e-6
-1.380, 5.464e-6
-1.381, 5.477e-6
-1.382, 5.494e-6
-1.383, 5.531e-6
-1.384, 5.542e-6
-1.385, 5.578e-6
-1.386, 5.584e-6
-1.387, 5.574e-6
-1.388, 5.625e-6
-1.389, 5.607e-6
-1.390, 5.636e-6
-1.391, 5.650e-6
-1.392, 5.665e-6
-1.393, 5.668e-6
-1.394, 5.726e-6
-1.395, 5.720e-6
-1.396, 5.763e-6
-1.397, 5.768e-6
-1.398, 5.801e-6
-1.399, 5.813e-6
-1.400, 5.806e-6
-1.401, 5.857e-6
-1.402, 5.854e-6
-1.403, 5.871e-6
-1.404, 5.910e-6
-1.405, 5.950e-6
-1.406, 5.955e-6
-1.407, 5.962e-6
-1.408, 6.004e-6
-1.409, 6.030e-6
-1.410, 6.025e-6
-1.411, 6.045e-6
-1.412, 6.061e-6
-1.413, 6.086e-6
-1.414, 6.116e-6
-1.415, 6.133e-6
-1.416, 6.159e-6
-1.417, 6.178e-6
-1.418, 6.208e-6
-1.419, 6.246e-6
-1.420, 6.257e-6
-1.421, 6.293e-6
-1.422, 6.278e-6
-1.423, 6.281e-6
-1.424, 6.314e-6
-1.425, 6.350e-6
-1.426, 6.405e-6
-1.427, 6.427e-6
-1.428, 6.450e-6
-1.429, 6.477e-6
-1.430, 6.477e-6
-1.431, 6.491e-6
-1.432, 6.522e-6
-1.433, 6.574e-6
-1.434, 6.601e-6
-1.435, 6.637e-6
-1.436, 6.646e-6
-1.437, 6.686e-6
-1.438, 6.689e-6
-1.439, 6.719e-6
-1.440, 6.760e-6
-1.441, 6.783e-6
-1.442, 6.808e-6
-1.443, 6.838e-6
-1.444, 6.868e-6
-1.445, 6.890e-6
-1.446, 6.932e-6
-1.447, 6.984e-6
-1.448, 6.980e-6
-1.449, 7.015e-6
-1.450, 7.018e-6
-1.451, 7.041e-6
-1.452, 7.102e-6
-1.453, 7.117e-6
-1.454, 7.132e-6
-1.455, 7.177e-6
-1.456, 7.193e-6
-1.457, 7.251e-6
-1.458, 7.257e-6
-1.459, 7.298e-6
-1.460, 7.349e-6
-1.461, 7.371e-6
-1.462, 7.373e-6
-1.463, 7.382e-6
-1.464, 7.444e-6
-1.465, 7.462e-6
-1.466, 7.503e-6
-1.467, 7.550e-6
-1.468, 7.587e-6
-1.469, 7.604e-6
-1.470, 7.645e-6
-1.471, 7.671e-6
-1.472, 7.684e-6
-1.473, 7.733e-6
-1.474, 7.793e-6
-1.475, 7.809e-6
-1.476, 7.849e-6
-1.477, 7.876e-6
-1.478, 7.914e-6
-1.479, 7.958e-6
-1.480, 7.990e-6
-1.481, 8.018e-6
-1.482, 8.071e-6
-1.483, 8.076e-6
-1.484, 8.126e-6
-1.485, 8.175e-6
-1.486, 8.237e-6
-1.487, 8.249e-6
-1.488, 8.286e-6
-1.489, 8.310e-6
-1.490, 8.363e-6
-1.491, 8.379e-6
-1.492, 8.425e-6
-1.493, 8.471e-6
-1.494, 8.520e-6
-1.495, 8.575e-6
-1.496, 8.626e-6
-1.497, 8.620e-6
-1.498, 8.674e-6
-1.499, 8.708e-6
-1.500, 8.784e-6
-1.501, 8.817e-6
-1.502, 8.854e-6
-1.503, 8.899e-6
-1.504, 8.926e-6
-1.505, 8.975e-6
-1.506, 9.018e-6
-1.507, 9.051e-6
-1.508, 9.089e-6
-1.509, 9.175e-6
-1.510, 9.222e-6
-1.511, 9.250e-6
-1.512, 9.289e-6
-1.513, 9.339e-6
-1.514, 9.388e-6
-1.515, 9.424e-6
-1.516, 9.493e-6
-1.517, 9.494e-6
-1.518, 9.542e-6
-1.519, 9.624e-6
-1.520, 9.690e-6
-1.521, 9.708e-6
-1.522, 9.746e-6
-1.523, 9.817e-6
-1.524, 9.869e-6
-1.525, 9.916e-6
-1.526, 9.957e-6
-1.527, 1.002e-5
-1.528, 1.006e-5
-1.529, 1.011e-5
-1.530, 1.017e-5
-1.531, 1.024e-5
-1.532, 1.028e-5
-1.533, 1.032e-5
-1.534, 1.040e-5
-1.535, 1.044e-5
-1.536, 1.051e-5
-1.537, 1.057e-5
-1.538, 1.063e-5
-1.539, 1.068e-5
-1.540, 1.072e-5
-1.541, 1.078e-5
-1.542, 1.084e-5
-1.543, 1.093e-5
-1.544, 1.100e-5
-1.545, 1.103e-5
-1.546, 1.110e-5
-1.547, 1.115e-5
-1.548, 1.122e-5
-1.549, 1.125e-5
-1.550, 1.134e-5
-1.551, 1.141e-5
-1.552, 1.147e-5
-1.553, 1.152e-5
-1.554, 1.161e-5
-1.555, 1.166e-5
-1.556, 1.175e-5
-1.557, 1.180e-5
-1.558, 1.188e-5
-1.559, 1.198e-5
-1.560, 1.201e-5
-1.561, 1.207e-5
-1.562, 1.218e-5
-1.563, 1.223e-5
-1.564, 1.232e-5
-1.565, 1.239e-5
-1.566, 1.248e-5
-1.567, 1.256e-5
-1.568, 1.261e-5
-1.569, 1.271e-5
-1.570, 1.279e-5
-1.571, 1.288e-5
-1.572, 1.296e-5
-1.573, 1.304e-5
-1.574, 1.310e-5
-1.575, 1.321e-5
-1.576, 1.329e-5
-1.577, 1.335e-5
-1.578, 1.345e-5
-1.579, 1.356e-5
-1.580, 1.366e-5
-1.581, 1.374e-5
-1.582, 1.382e-5
-1.583, 1.391e-5
-1.584, 1.402e-5
-1.585, 1.413e-5
-1.586, 1.420e-5
-1.587, 1.430e-5
-1.588, 1.440e-5
-1.589, 1.450e-5
-1.590, 1.462e-5
-1.591, 1.474e-5
-1.592, 1.482e-5
-1.593, 1.494e-5
-1.594, 1.505e-5
-1.595, 1.511e-5
-1.596, 1.524e-5
-1.597, 1.535e-5
-1.598, 1.548e-5
-1.599, 1.557e-5
-1.600, 1.572e-5
-1.601, 1.585e-5
-1.602, 1.593e-5
-1.603, 1.607e-5
-1.604, 1.621e-5
-1.605, 1.632e-5
-1.606, 1.642e-5
-1.607, 1.655e-5
-1.608, 1.670e-5
-1.609, 1.682e-5
-1.610, 1.697e-5
-1.611, 1.709e-5
-1.612, 1.723e-5
-1.613, 1.737e-5
-1.614, 1.750e-5
-1.615, 1.768e-5
-1.616, 1.780e-5
-1.617, 1.794e-5
-1.618, 1.812e-5
-1.619, 1.824e-5
-1.620, 1.839e-5
-1.621, 1.855e-5
-1.622, 1.868e-5
-1.623, 1.885e-5
-1.624, 1.903e-5
-1.625, 1.920e-5
-1.626, 1.937e-5
-1.627, 1.953e-5
-1.628, 1.972e-5
-1.629, 1.989e-5
-1.630, 2.006e-5
-1.631, 2.025e-5
-1.632, 2.041e-5
-1.633, 2.062e-5
-1.634, 2.077e-5
-1.635, 2.099e-5
-1.636, 2.116e-5
-1.637, 2.137e-5
-1.638, 2.161e-5
-1.639, 2.179e-5
-1.640, 2.203e-5
-1.641, 2.221e-5
-1.642, 2.245e-5
-1.643, 2.265e-5
-1.644, 2.285e-5
-1.645, 2.307e-5
-1.646, 2.328e-5
-1.647, 2.354e-5
-1.648, 2.376e-5
-1.649, 2.400e-5
-1.650, 2.425e-5
-1.651, 2.450e-5
-1.652, 2.475e-5
-1.653, 2.496e-5
-1.654, 2.523e-5
-1.655, 2.551e-5
-1.656, 2.575e-5
-1.657, 2.601e-5
-1.658, 2.630e-5
-1.659, 2.659e-5
-1.660, 2.687e-5
-1.661, 2.720e-5
-1.662, 2.747e-5
-1.663, 2.776e-5
-1.664, 2.807e-5
-1.665, 2.837e-5
-1.666, 2.870e-5
-1.667, 2.900e-5
-1.668, 2.934e-5
-1.669, 2.969e-5
-1.670, 3.002e-5
-1.671, 3.036e-5
-1.672, 3.073e-5
-1.673, 3.110e-5
-1.674, 3.149e-5
-1.675, 3.186e-5
-1.676, 3.224e-5
-1.677, 3.262e-5
-1.678, 3.304e-5
-1.679, 3.348e-5
-1.680, 3.388e-5
-1.681, 3.433e-5
-1.682, 3.477e-5
-1.683, 3.521e-5
-1.684, 3.569e-5
-1.685, 3.615e-5
-1.686, 3.661e-5
-1.687, 3.715e-5
-1.688, 3.763e-5
-1.689, 3.818e-5
-1.690, 3.870e-5
-1.691, 3.924e-5
-1.692, 3.983e-5
-1.693, 4.040e-5
-1.694, 4.098e-5
-1.695, 4.162e-5
-1.696, 4.223e-5
-1.697, 4.287e-5
-1.698, 4.350e-5
-1.699, 4.421e-5
-1.700, 4.488e-5
-1.701, 4.557e-5
-1.702, 4.629e-5
-1.703, 4.707e-5
-1.704, 4.781e-5
-1.705, 4.863e-5
-1.706, 4.943e-5
-1.707, 5.027e-5
-1.708, 5.113e-5
-1.709, 5.203e-5
-1.710, 5.296e-5
-1.711, 5.387e-5
-1.712, 5.487e-5
-1.713, 5.588e-5
-1.714, 5.690e-5
-1.715, 5.797e-5
-1.716, 5.909e-5
-1.717, 6.022e-5
-1.718, 6.139e-5
-1.719, 6.260e-5
-1.720, 6.388e-5
-1.721, 6.514e-5
-1.722, 6.649e-5
-1.723, 6.786e-5
-1.724, 6.928e-5
-1.725, 7.076e-5
-1.726, 7.229e-5
-1.727, 7.388e-5
-1.728, 7.552e-5
-1.729, 7.724e-5
-1.730, 7.899e-5
-1.731, 8.082e-5
-1.732, 8.269e-5
-1.733, 8.467e-5
-1.734, 8.670e-5
-1.735, 8.880e-5
-1.736, 9.098e-5
-1.737, 9.322e-5
-1.738, 9.557e-5
-1.739, 9.799e-5
-1.740, 1.006e-4
-1.741, 1.032e-4
-1.742, 1.059e-4
-1.743, 1.088e-4
-1.744, 1.117e-4
-1.745, 1.148e-4
-1.746, 1.180e-4
-1.747, 1.213e-4
-1.748, 1.248e-4
-1.749, 1.284e-4
-1.750, 1.321e-4
-1.751, 1.360e-4
-1.752, 1.400e-4
-1.753, 1.442e-4
-1.754, 1.486e-4
-1.755, 1.532e-4
-1.756, 1.579e-4
-1.757, 1.629e-4
-1.758, 1.680e-4
-1.759, 1.734e-4
-1.760, 1.790e-4
-1.761, 1.848e-4
-1.762, 1.909e-4
-1.763, 1.972e-4
-1.764, 2.038e-4
-1.765, 2.107e-4
-1.766, 2.179e-4
-1.767, 2.253e-4
-1.768, 2.330e-4
-1.769, 2.412e-4
-1.770, 2.495e-4
-1.771, 2.583e-4
-1.772, 2.675e-4
-1.773, 2.769e-4
-1.774, 2.868e-4
-1.775, 2.971e-4
-1.776, 3.078e-4
-1.777, 3.190e-4
-1.778, 3.306e-4
-1.779, 3.427e-4
-1.780, 3.554e-4
-1.781, 3.683e-4
-1.782, 3.820e-4
-1.783, 3.960e-4
-1.784, 4.106e-4
-1.785, 4.260e-4
-1.786, 4.417e-4
-1.787, 4.582e-4
-1.788, 4.752e-4
-1.789, 4.928e-4
-1.790, 5.113e-4
-1.791, 5.303e-4
-1.792, 5.500e-4
-1.793, 5.707e-4
-1.794, 5.916e-4
-1.795, 6.134e-4
-1.796, 6.362e-4
-1.797, 6.592e-4
-1.798, 6.835e-4
-1.799, 7.086e-4
-1.800, 7.218e-4
-1.799, 7.199e-4
-1.798, 7.159e-4
-1.797, 7.102e-4
-1.796, 7.043e-4
-1.795, 6.968e-4
-1.794, 6.891e-4
-1.793, 6.809e-4
-1.792, 6.719e-4
-1.791, 6.630e-4
-1.790, 6.535e-4
-1.789, 6.436e-4
-1.788, 6.340e-4
-1.787, 6.240e-4
-1.786, 6.136e-4
-1.785, 6.037e-4
-1.784, 5.933e-4
-1.783, 5.829e-4
-1.782, 5.727e-4
-1.781, 5.622e-4
-1.780, 5.520e-4
-1.779, 5.418e-4
-1.778, 5.314e-4
-1.777, 5.214e-4
-1.776, 5.114e-4
-1.775, 5.011e-4
-1.774, 4.914e-4
-1.773, 4.815e-4
-1.772, 4.717e-4
-1.771, 4.622e-4
-1.770, 4.528e-4
-1.769, 4.434e-4
-1.768, 4.343e-4
-1.767, 4.251e-4
-1.766, 4.162e-4
-1.765, 4.075e-4
-1.764, 3.986e-4
-1.763, 3.902e-4
-1.762, 3.817e-4
-1.761, 3.733e-4
-1.760, 3.653e-4
-1.759, 3.573e-4
-1.758, 3.495e-4
-1.757, 3.419e-4
-1.756, 3.342e-4
-1.755, 3.269e-4
-1.754, 3.196e-4
-1.753, 3.125e-4
-1.752, 3.056e-4
-1.751, 2.987e-4
-1.750, 2.921e-4
-1.749, 2.856e-4
-1.748, 2.792e-4
-1.747, 2.730e-4
-1.746, 2.670e-4
-1.745, 2.609e-4
-1.744, 2.550e-4
-1.743, 2.493e-4
-1.742, 2.437e-4
-1.741, 2.383e-4
-1.740, 2.329e-4
-1.739, 2.277e-4
-1.738, 2.226e-4
-1.737, 2.176e-4
-1.736, 2.128e-4
-1.735, 2.080e-4
-1.734, 2.033e-4
-1.733, 1.988e-4
-1.732, 1.944e-4
-1.731, 1.900e-4
-1.730, 1.858e-4
-1.729, 1.817e-4
-1.728, 1.777e-4
-1.727, 1.738e-4
-1.726, 1.699e-4
-1.725, 1.662e-4
-1.724, 1.625e-4
-1.723, 1.590e-4
-1.722, 1.555e-4
-1.721, 1.521e-4
-1.720, 1.488e-4
-1.719, 1.456e-4
-1.718, 1.424e-4
-1.717, 1.394e-4
-1.716, 1.364e-4
-1.715, 1.335e-4
-1.714, 1.306e-4
-1.713, 1.278e-4
-1.712, 1.251e-4
-1.711, 1.224e-4
-1.710, 1.198e-4
-1.709, 1.174e-4
-1.708, 1.149e-4
-1.707, 1.125e-4
-1.706, 1.101e-4
-1.705, 1.078e-4
-1.704, 1.056e-4
-1.703, 1.034e-4
-1.702, 1.013e-4
-1.701, 9.921e-5
-1.700, 9.713e-5
-1.699, 9.518e-5
-1.698, 9.324e-5
-1.697, 9.132e-5
-1.696, 8.952e-5
-1.695, 8.769e-5
-1.694, 8.592e-5
-1.693, 8.422e-5
-1.692, 8.252e-5
-1.691, 8.090e-5
-1.690, 7.926e-5
-1.689, 7.767e-5
-1.688, 7.617e-5
-1.687, 7.467e-5
-1.686, 7.322e-5
-1.685, 7.177e-5
-1.684, 7.036e-5
-1.683, 6.902e-5
-1.682, 6.769e-5
-1.681, 6.635e-5
-1.680, 6.510e-5
-1.679, 6.388e-5
-1.678, 6.262e-5
-1.677, 6.144e-5
-1.676, 6.028e-5
-1.675, 5.915e-5
-1.674, 5.803e-5
-1.673, 5.695e-5
-1.672, 5.590e-5
-1.671, 5.487e-5
-1.670, 5.384e-5
-1.669, 5.285e-5
-1.668, 5.184e-5
-1.667, 5.088e-5
-1.666, 5.001e-5
-1.665, 4.910e-5
-1.664, 4.818e-5
-1.663, 4.731e-5
-1.662, 4.645e-5
-1.661, 4.561e-5
-1.660, 4.480e-5
-1.659, 4.400e-5
-1.658, 4.325e-5
-1.657, 4.248e-5
-1.656, 4.172e-5
-1.655, 4.098e-5
-1.654, 4.025e-5
-1.653, 3.957e-5
-1.652, 3.888e-5
-1.651, 3.823e-5
-1.650, 3.755e-5
-1.649, 3.692e-5
-1.648, 3.628e-5
-1.647, 3.567e-5
-1.646, 3.506e-5
-1.645, 3.446e-5
-1.644, 3.388e-5
-1.643, 3.331e-5
-1.642, 3.274e-5
-1.641, 3.219e-5
-1.640, 3.168e-5
-1.639, 3.113e-5
-1.638, 3.059e-5
-1.637, 3.011e-5
-1.636, 2.962e-5
-1.635, 2.913e-5
-1.634, 2.866e-5
-1.633, 2.819e-5
-1.632, 2.782e-5
-1.631, 2.733e-5
-1.630, 2.691e-5
-1.629, 2.648e-5
-1.628, 2.603e-5
-1.627, 2.565e-5
-1.626, 2.525e-5
-1.625, 2.483e-5
-1.624, 2.445e-5
-1.623, 2.411e-5
-1.622, 2.373e-5
-1.621, 2.337e-5
-1.620, 2.301e-5
-1.619, 2.264e-5
-1.618, 2.228e-5
-1.617, 2.197e-5
-1.616, 2.166e-5
-1.615, 2.131e-5
-1.614, 2.099e-5
-1.613, 2.067e-5
-1.612, 2.041e-5
-1.611, 2.009e-5
-1.610, 1.979e-5
-1.609, 1.950e-5
-1.608, 1.924e-5
-1.607, 1.897e-5
-1.606, 1.867e-5
-1.605, 1.841e-5
-1.604, 1.816e-5
-1.603, 1.792e-5
-1.602, 1.770e-5
-1.601, 1.744e-5
-1.600, 1.720e-5
-1.599, 1.694e-5
-1.598, 1.670e-5
-1.597, 1.650e-5
-1.596, 1.628e-5
-1.595, 1.605e-5
-1.594, 1.586e-5
-1.593, 1.562e-5
-1.592, 1.547e-5
-1.591, 1.525e-5
-1.590, 1.506e-5
-1.589, 1.486e-5
-1.588, 1.467e-5
-1.587, 1.445e-5
-1.586, 1.429e-5
-1.585, 1.411e-5
-1.584, 1.394e-5
-1.583, 1.378e-5
-1.582, 1.362e-5
-1.581, 1.346e-5
-1.580, 1.327e-5
-1.579, 1.312e-5
-1.578, 1.297e-5
-1.577, 1.281e-5
-1.576, 1.266e-5
-1.575, 1.250e-5
-1.574, 1.234e-5
-1.573, 1.222e-5
-1.572, 1.206e-5
-1.571, 1.194e-5
-1.570, 1.179e-5
-1.569, 1.166e-5
-1.568, 1.154e-5
-1.567, 1.069e-5
-1.566, 1.103e-5
-1.565, 1.095e-5
-1.564, 1.086e-5
-1.563, 1.081e-5
-1.562, 1.073e-5
-1.561, 1.065e-5
-1.560, 1.058e-5
-1.559, 1.044e-5
-1.558, 1.033e-5
-1.557, 1.023e-5
-1.556, 1.009e-5
-1.555, 9.992e-6
-1.554, 9.860e-6
-1.553, 9.754e-6
-1.552, 9.657e-6
-1.551, 9.571e-6
-1.550, 9.470e-6
-1.549, 9.369e-6
-1.548, 9.276e-6
-1.547, 9.176e-6
-1.546, 9.090e-6
-1.545, 8.986e-6
-1.544, 8.904e-6
-1.543, 8.812e-6
-1.542, 8.744e-6
-1.541, 8.663e-6
-1.540, 8.555e-6
-1.539, 8.479e-6
-1.538, 8.413e-6
-1.537, 8.296e-6
-1.536, 8.223e-6
-1.535, 8.116e-6
-1.534, 8.060e-6
-1.533, 7.982e-6
-1.532, 7.929e-6
-1.531, 7.827e-6
-1.530, 7.752e-6
-1.529, 7.686e-6
-1.528, 7.609e-6
-1.527, 7.543e-6
-1.526, 7.480e-6
-1.525, 7.429e-6
-1.524, 7.332e-6
-1.523, 7.277e-6
-1.522, 7.190e-6
-1.521, 7.159e-6
-1.520, 7.084e-6
-1.519, 7.004e-6
-1.518, 6.957e-6
-1.517, 6.867e-6
-1.516, 6.836e-6
-1.515, 6.766e-6
-1.514, 6.711e-6
-1.513, 6.650e-6
-1.512, 6.584e-6
-1.511, 6.528e-6
-1.510, 6.465e-6
-1.509, 6.409e-6
-1.508, 6.379e-6
-1.507, 6.300e-6
-1.506, 6.235e-6
-1.505, 6.173e-6
-1.504, 6.135e-6
-1.503, 6.078e-6
-1.502, 6.019e-6
-1.501, 5.981e-6
-1.500, 5.921e-6
-1.499, 5.871e-6
-1.498, 5.858e-6
-1.497, 5.813e-6
-1.496, 5.745e-6
-1.495, 5.685e-6
-1.494, 5.623e-6
-1.493, 5.602e-6
-1.492, 5.581e-6
-1.491, 5.518e-6
-1.490, 5.467e-6
-1.489, 5.400e-6
-1.488, 5.371e-6
-1.487, 5.314e-6
-1.486, 5.302e-6
-1.485, 5.213e-6
-1.484, 5.202e-6
-1.483, 5.214e-6
-1.482, 5.139e-6
-1.481, 5.103e-6
-1.480, 5.061e-6
-1.479, 5.030e-6
-1.478, 4.981e-6
-1.477, 4.934e-6
-1.476, 4.906e-6
-1.475, 4.835e-6
-1.474, 4.798e-6
-1.473, 4.786e-6
-1.472, 4.748e-6
-1.471, 4.723e-6
-1.470, 4.681e-6
-1.469, 4.613e-6
-1.468, 4.600e-6
-1.467, 4.552e-6
-1.466, 4.542e-6
-1.465, 4.460e-6
-1.464, 4.400e-6
-1.463, 4.389e-6
-1.462, 4.373e-6
-1.461, 4.330e-6
-1.460, 4.286e-6
-1.459, 4.230e-6
-1.458, 4.176e-6
-1.457, 4.159e-6
-1.456, 4.124e-6
-1.455, 4.083e-6
-1.454, 4.072e-6
-1.453, 3.997e-6
-1.452, 3.983e-6
-1.451, 3.949e-6
-1.450, 3.906e-6
-1.449, 3.899e-6
-1.448, 3.868e-6
-1.447, 3.831e-6
-1.446, 3.809e-6
-1.445, 3.770e-6
-1.444, 3.745e-6
-1.443, 3.740e-6
-1.442, 3.708e-6
-1.441, 3.677e-6
-1.440, 3.620e-6
-1.439, 3.594e-6
-1.438, 3.570e-6
-1.437, 3.549e-6
-1.436, 3.519e-6
-1.435, 3.466e-6
-1.434, 3.477e-6
-1.433, 3.411e-6
-1.432, 3.407e-6
-1.431, 3.385e-6
-1.430, 3.337e-6
-1.429, 3.329e-6
-1.428, 3.291e-6
-1.427, 3.261e-6
-1.426, 3.214e-6
-1.425, 3.196e-6
-1.424, 3.175e-6
-1.423, 3.168e-6
-1.422, 3.136e-6
-1.421, 3.133e-6
-1.420, 3.077e-6
-1.419, 3.077e-6
-1.418, 3.042e-6
-1.417, 3.014e-6
-1.416, 2.997e-6
-1.415, 2.968e-6
-1.414, 2.925e-6
-1.413, 2.896e-6
-1.412, 2.904e-6
-1.411, 2.876e-6
-1.410, 2.873e-6
-1.409, 2.844e-6
-1.408, 2.831e-6
-1.407, 2.756e-6
-1.406, 2.750e-6
-1.405, 2.716e-6
-1.404, 2.728e-6
-1.403, 2.710e-6
-1.402, 2.637e-6
-1.401, 2.640e-6
-1.400, 2.611e-6
-1.399, 2.600e-6
-1.398, 2.620e-6
-1.397, 2.572e-6
-1.396, 2.548e-6
-1.395, 2.508e-6
-1.394, 2.511e-6
-1.393, 2.475e-6
-1.392, 2.444e-6
-1.391, 2.487e-6
-1.390, 2.422e-6
-1.389, 2.403e-6
-1.388, 2.414e-6
-1.387, 2.353e-6
-1.386, 2.345e-6
-1.385, 2.324e-6
-1.384, 2.313e-6
-1.383, 2.305e-6
-1.382, 2.233e-6
-1.381, 2.254e-6
-1.380, 2.237e-6
-1.379, 2.207e-6
-1.378, 2.212e-6
-1.377, 2.196e-6
-1.376, 2.173e-6
-1.375, 2.144e-6
-1.374, 2.117e-6
-1.373, 2.108e-6
-1.372, 2.105e-6
-1.371, 2.118e-6
-1.370, 2.083e-6
-1.369, 2.042e-6
-1.368, 2.015e-6
-1.367, 2.014e-6
-1.366, 1.990e-6
-1.365, 1.980e-6
-1.364, 1.971e-6
-1.363, 1.951e-6
-1.362, 1.956e-6
-1.361, 1.914e-6
-1.360, 1.893e-6
-1.359, 1.893e-6
-1.358, 1.856e-6
-1.357, 1.858e-6
-1.356, 1.823e-6
-1.355, 1.797e-6
-1.354, 1.784e-6
-1.353, 1.793e-6
-1.352, 1.774e-6
-1.351, 1.751e-6
-1.350, 1.726e-6
-1.349, 1.733e-6
-1.348, 1.700e-6
-1.347, 1.667e-6
-1.346, 1.679e-6
-1.345, 1.641e-6
-1.344, 1.634e-6
-1.343, 1.627e-6
-1.342, 1.609e-6
-1.341, 1.579e-6
-1.340, 1.567e-6
-1.339, 1.558e-6
-1.338, 1.519e-6
-1.337, 1.539e-6
-1.336, 1.514e-6
-1.335, 1.505e-6
-1.334, 1.494e-6
-1.333, 1.460e-6
-1.332, 1.473e-6
-1.331, 1.417e-6
-1.330, 1.416e-6
-1.329, 1.398e-6
-1.328, 1.401e-6
-1.327, 1.370e-6
-1.326, 1.376e-6
-1.325, 1.354e-6
-1.324, 1.323e-6
-1.323, 1.314e-6
-1.322, 1.313e-6
-1.321, 1.293e-6
-1.320, 1.253e-6
-1.319, 1.241e-6
-1.318, 1.267e-6
-1.317, 1.247e-6
-1.316, 1.242e-6
-1.315, 1.214e-6
-1.314, 1.192e-6
-1.313, 1.191e-6
-1.312, 1.174e-6
-1.311, 1.151e-6
-1.310, 1.147e-6
-1.309, 1.125e-6
-1.308, 1.122e-6
-1.307, 1.091e-6
-1.306, 1.089e-6
-1.305, 1.056e-6
-1.304, 1.050e-6
-1.303, 1.058e-6
-1.302, 1.021e-6
-1.301, 1.023e-6
-1.300, 1.017e-6
-1.299, 9.805e-7
-1.298, 1.003e-6
-1.297, 9.815e-7
-1.296, 9.677e-7
-1.295, 9.302e-7
-1.294, 9.085e-7
-1.293, 9.331e-7
-1.292, 9.134e-7
-1.291, 8.937e-7
-1.290, 8.759e-7
-1.289, 8.897e-7
-1.288, 8.424e-7
-1.287, 8.601e-7
-1.286, 8.631e-7
-1.285, 8.226e-7
-1.284, 8.157e-7
-1.283, 8.098e-7
-1.282, 7.822e-7
-1.281, 7.693e-7
-1.280, 7.565e-7
-1.279, 7.664e-7
-1.278, 7.319e-7
-1.277, 6.855e-7
-1.276, 6.914e-7
-1.275, 6.786e-7
-1.274, 6.875e-7
-1.273, 6.648e-7
-1.272, 6.648e-7
-1.271, 6.401e-7
-1.270, 6.362e-7
-1.269, 6.312e-7
-1.268, 6.411e-7
-1.267, 6.105e-7
-1.266, 5.927e-7
-1.265, 5.977e-7
-1.264, 5.789e-7
-1.263, 5.641e-7
-1.262, 5.582e-7
-1.261, 5.612e-7
-1.260, 5.089e-7
-1.259, 4.921e-7
-1.258, 4.921e-7
-1.257, 4.882e-7
-1.256, 5.128e-7
-1.255, 4.892e-7
-1.254, 4.704e-7
-1.253, 4.665e-7
-1.252, 4.418e-7
-1.251, 4.635e-7
-1.250, 4.142e-7
-1.249, 4.270e-7
-1.248, 3.935e-7
-1.247, 4.023e-7
-1.246, 3.757e-7
-1.245, 3.787e-7
-1.244, 3.777e-7
-1.243, 3.579e-7
-1.242, 3.540e-7
-1.241, 3.372e-7
-1.240, 3.126e-7
-1.239, 3.372e-7
-1.238, 3.204e-7
-1.237, 3.066e-7
-1.236, 2.938e-7
-1.235, 2.701e-7
-1.234, 2.691e-7
-1.233, 2.553e-7
-1.232, 2.662e-7
-1.231, 2.425e-7
-1.230, 2.425e-7
-1.229, 2.001e-7
-1.228, 1.971e-7
-1.227, 1.991e-7
-1.226, 2.070e-7
-1.225, 1.537e-7
-1.224, 1.586e-7
-1.223, 1.606e-7
-1.222, 1.596e-7
-1.221, 1.468e-7
-1.220, 1.458e-7
-1.219, 1.281e-7
-1.218, 1.152e-7
-1.217, 1.044e-7
-1.216, 8.958e-8
-1.215, 8.860e-8
-1.214, 5.407e-8
-1.213, 5.407e-8
-1.212, 4.913e-8
-1.211, 3.729e-8
-1.210, 1.460e-8
-1.209, 6.709e-9
-1.208, 7.695e-9
-1.207, 8.682e-9
-1.206, -1.302e-8
-1.205, -3.078e-8
-1.204, -2.782e-8
-1.203, -3.177e-8
-1.202, -3.571e-8
-1.201, -6.729e-8
-1.200, -8.702e-8
-1.199, -7.025e-8
-1.198, -9.984e-8
-1.197, -1.176e-7
-1.196, -1.206e-7
-1.195, -1.482e-7
-1.194, -1.344e-7
-1.193, -1.393e-7
-1.192, -1.383e-7
-1.191, -1.590e-7
-1.190, -1.955e-7
-1.189, -1.916e-7
-1.188, -1.817e-7
-1.187, -1.886e-7
-1.186, -2.074e-7
-1.185, -2.212e-7
-1.184, -2.172e-7
-1.183, -2.577e-7
-1.182, -2.547e-7
-1.181, -2.804e-7
-1.180, -2.725e-7
-1.179, -2.873e-7
-1.178, -3.090e-7
-1.177, -3.356e-7
-1.176, -3.475e-7
-1.175, -3.386e-7
-1.174, -3.396e-7
-1.173, -3.347e-7
-1.172, -3.643e-7
-1.171, -3.682e-7
-1.170, -4.027e-7
-1.169, -3.938e-7
-1.168, -4.195e-7
-1.167, -4.086e-7
-1.166, -4.264e-7
-1.165, -4.678e-7
-1.164, -4.570e-7
-1.163, -4.580e-7
-1.162, -4.836e-7
-1.161, -4.738e-7
-1.160, -5.024e-7
-1.159, -4.984e-7
-1.158, -5.369e-7
-1.157, -5.468e-7
-1.156, -5.566e-7
-1.155, -5.547e-7
-1.154, -5.744e-7
-1.153, -5.912e-7
-1.152, -6.139e-7
-1.151, -6.129e-7
-1.150, -6.208e-7
-1.149, -6.139e-7
-1.148, -6.395e-7
-1.147, -6.553e-7
-1.146, -6.859e-7
-1.145, -7.017e-7
-1.144, -6.987e-7
-1.143, -7.007e-7
-1.142, -7.362e-7
-1.141, -7.401e-7
-1.140, -7.470e-7
-1.139, -7.618e-7
-1.138, -7.688e-7
-1.137, -8.062e-7
-1.136, -8.309e-7
-1.135, -8.289e-7
-1.134, -8.122e-7
-1.133, -8.743e-7
-1.132, -8.566e-7
-1.131, -8.812e-7
-1.130, -8.921e-7
-1.129, -9.246e-7
-1.128, -9.266e-7
-1.127, -9.375e-7
-1.126, -9.750e-7
-1.125, -9.947e-7
-1.124, -9.937e-7
-1.123, -1.007e-6
-1.122, -1.020e-6
-1.121, -1.033e-6
-1.120, -1.056e-6
-1.119, -1.066e-6
-1.118, -1.107e-6
-1.117, -1.115e-6
-1.116, -1.155e-6
-1.115, -1.156e-6
-1.114, -1.140e-6
-1.113, -1.179e-6
-1.112, -1.178e-6
-1.111, -1.203e-6
-1.110, -1.201e-6
-1.109, -1.237e-6
-1.108, -1.274e-6
-1.107, -1.247e-6
-1.106, -1.315e-6
-1.105, -1.364e-6
-1.104, -1.342e-6
-1.103, -1.353e-6
-1.102, -1.342e-6
-1.101, -1.404e-6
-1.100, -1.404e-6
-1.099, -1.434e-6
-1.098, -1.457e-6
-1.097, -1.489e-6
-1.096, -1.508e-6
-1.095, -1.520e-6
-1.094, -1.529e-6
-1.093, -1.548e-6
-1.092, -1.554e-6
-1.091, -1.603e-6
-1.090, -1.623e-6
-1.089, -1.632e-6
-1.088, -1.681e-6
-1.087, -1.700e-6
-1.086, -1.727e-6
-1.085, -1.744e-6
-1.084, -1.743e-6
-1.083, -1.787e-6
-1.082, -1.805e-6
-1.081, -1.838e-6
-1.080, -1.857e-6
-1.079, -1.893e-6
-1.078, -1.928e-6
-1.077, -1.962e-6
-1.076, -1.973e-6
-1.075, -1.986e-6
-1.074, -2.013e-6
-1.073, -2.052e-6
-1.072, -2.072e-6
-1.071, -2.132e-6
-1.070, -2.164e-6
-1.069, -2.195e-6
-1.068, -2.223e-6
-1.067, -2.237e-6
-1.066, -2.275e-6
-1.065, -2.342e-6
-1.064, -2.360e-6
-1.063, -2.373e-6
-1.062, -2.398e-6
-1.061, -2.448e-6
-1.060, -2.502e-6
-1.059, -2.527e-6
-1.058, -2.577e-6
-1.057, -2.619e-6
-1.056, -2.671e-6
-1.055, -2.690e-6
-1.054, -2.729e-6
-1.053, -2.775e-6
-1.052, -2.812e-6
-1.051, -2.848e-6
-1.050, -2.922e-6
-1.049, -2.982e-6
-1.048, -2.981e-6
-1.047, -3.024e-6
-1.046, -3.123e-6
-1.045, -3.160e-6
-1.044, -3.217e-6
-1.043, -3.255e-6
-1.042, -3.309e-6
-1.041, -3.370e-6
-1.040, -3.416e-6
-1.039, -3.478e-6
-1.038, -3.538e-6
-1.037, -3.574e-6
-1.036, -3.667e-6
-1.035, -3.730e-6
-1.034, -3.795e-6
-1.033, -3.867e-6
-1.032, -3.910e-6
-1.031, -3.994e-6
-1.030, -4.080e-6
-1.029, -4.150e-6
-1.028, -4.238e-6
-1.027, -4.302e-6
-1.026, -4.370e-6
-1.025, -4.458e-6
-1.024, -4.537e-6
-1.023, -4.616e-6
-1.022, -4.689e-6
-1.021, -4.795e-6
-1.020, -4.867e-6
-1.019, -4.968e-6
-1.018, -5.054e-6
-1.017, -5.148e-6
-1.016, -5.266e-6
-1.015, -5.372e-6
-1.014, -5.453e-6
-1.013, -5.529e-6
-1.012, -5.619e-6
-1.011, -5.750e-6
-1.010, -5.861e-6
-1.009, -5.939e-6
-1.008, -6.068e-6
-1.007, -6.160e-6
-1.006, -6.293e-6
-1.005, -6.405e-6
-1.004, -6.510e-6
-1.003, -6.640e-6
-1.002, -6.752e-6
-1.001, -6.869e-6
