Potential V vs RHE, Current mA cm-2
0.013299999999999867,-0.04582249900262853
0.012299999999999978,-0.30755823659065895
0.011299999999999866,-0.5255652478998613
0.010299999999999976,-0.6564260431373771
0.009299999999999864,-0.7872868383748929
0.008299999999999974,-0.9181476336124089
0.007299999999999862,-1.0490084288499246
0.006299999999999972,-1.1362961160515976
0.00529999999999986,-1.1798692240874404
0.0042999999999999705,-1.2671569112891135
0.0032999999999998586,-1.3543031273607997
0.0022999999999999687,-1.3980177065266295
0.0012999999999998568,-1.4415908145624723
0.00029999999999996696,-1.4854468648582886
-0.000700000000000145,-1.5293029151541047
-0.0017000000000000348,-1.5717442541500557
-0.0027000000000001467,-1.6156003044458718
-0.0037000000000000366,-1.6156003044458718
-0.0047000000000001485,-1.6594563547416883
-0.005700000000000038,-1.7033124050375041
-0.00670000000000015,-1.7471684553333202
-0.00770000000000004,-1.7910245056291363
-0.008700000000000152,-1.8334658446250875
-0.009700000000000042,-1.8773218949209036
-0.010700000000000154,-1.8773218949209036
-0.011700000000000044,-1.8334658446250875
-0.012700000000000156,-1.7471684553333202
-0.013700000000000045,-1.7033124050375041
-0.014700000000000157,-1.7910245056291363
-0.015700000000000047,-1.8773218949209036
-0.01670000000000016,-1.9650339955125358
-0.01770000000000005,-2.008890045808352
-0.01870000000000016,-1.9650339955125358
-0.01970000000000005,-1.92117794521672
-0.020700000000000163,-1.8773218949209036
-0.021700000000000053,-1.8334658446250875
-0.022700000000000164,-1.8334658446250875
-0.023700000000000054,-1.8773218949209036
-0.024700000000000166,-1.92117794521672
-0.025700000000000056,-1.9650339955125358
-0.026700000000000168,-1.9650339955125358
-0.027700000000000058,-1.9650339955125358
-0.02870000000000017,-1.92117794521672
-0.02970000000000006,-1.8773218949209036
-0.03070000000000017,-1.8773218949209036
-0.03170000000000006,-1.92117794521672
-0.03270000000000017,-1.92117794521672
-0.03370000000000006,-1.92117794521672
-0.034700000000000175,-1.92117794521672
-0.035700000000000065,-1.92117794521672
-0.03670000000000018,-1.92117794521672
-0.03770000000000007,-1.92117794521672
-0.03870000000000018,-1.92117794521672
-0.03970000000000007,-1.8773218949209036
-0.04070000000000018,-1.92117794521672
-0.04170000000000007,-1.92117794521672
-0.04270000000000018,-1.92117794521672
-0.04370000000000007,-1.9650339955125358
-0.044700000000000184,-1.9650339955125358
-0.045700000000000074,-1.9650339955125358
-0.046700000000000186,-1.92117794521672
-0.047700000000000076,-1.92117794521672
-0.04870000000000019,-1.92117794521672
-0.04970000000000008,-1.92117794521672
-0.05070000000000019,-1.92117794521672
-0.05170000000000008,-1.9650339955125358
-0.05270000000000019,-1.9650339955125358
-0.05370000000000008,-1.9650339955125358
-0.05470000000000019,-1.92117794521672
-0.05570000000000008,-1.92117794521672
-0.056700000000000195,-1.92117794521672
-0.057700000000000085,-1.92117794521672
-0.058700000000000196,-1.92117794521672
-0.059700000000000086,-1.92117794521672
-0.0607000000000002,-1.92117794521672
-0.06170000000000009,-1.92117794521672
-0.0627000000000002,-1.92117794521672
-0.06370000000000009,-1.92117794521672
-0.0647000000000002,-1.92117794521672
-0.06570000000000009,-1.92117794521672
-0.0667000000000002,-1.92117794521672
-0.0677000000000001,-1.92117794521672
-0.0687000000000002,-1.92117794521672
-0.0697000000000001,-1.92117794521672
-0.07070000000000021,-1.92117794521672
-0.0717000000000001,-1.92117794521672
-0.07270000000000021,-1.92117794521672
-0.0737000000000001,-1.92117794521672
-0.07470000000000021,-1.92117794521672
-0.0757000000000001,-1.92117794521672
-0.07670000000000021,-1.92117794521672
-0.0777000000000001,-1.92117794521672
-0.07870000000000021,-1.92117794521672
-0.0797000000000001,-1.8773218949209036
-0.08070000000000022,-1.8773218949209036
-0.0817000000000001,-1.92117794521672
-0.08270000000000022,-1.92117794521672
-0.08370000000000011,-1.92117794521672
-0.08470000000000022,-1.92117794521672
-0.08570000000000011,-1.8773218949209036
-0.08670000000000022,-1.92117794521672
-0.08770000000000011,-1.92117794521672
-0.08870000000000022,-1.92117794521672
-0.08970000000000011,-1.92117794521672
-0.09070000000000022,-1.92117794521672
-0.09170000000000011,-1.92117794521672
-0.09270000000000023,-1.92117794521672
-0.09370000000000012,-1.92117794521672
-0.09470000000000023,-1.92117794521672
-0.09570000000000012,-1.92117794521672
-0.09670000000000023,-1.92117794521672
-0.09770000000000012,-1.92117794521672
-0.09870000000000023,-1.92117794521672
-0.09970000000000012,-1.92117794521672
-0.10070000000000023,-1.92117794521672
-0.10170000000000012,-1.92117794521672
-0.10270000000000024,-1.92117794521672
-0.10370000000000013,-1.92117794521672
-0.10470000000000024,-1.92117794521672
-0.10570000000000013,-1.92117794521672
-0.10670000000000024,-1.92117794521672
-0.10770000000000013,-1.92117794521672
-0.10870000000000024,-1.92117794521672
-0.10970000000000013,-1.92117794521672
-0.11070000000000024,-1.92117794521672
-0.11170000000000013,-1.92117794521672
-0.11270000000000002,-1.92117794521672
-0.11370000000000013,-1.92117794521672
-0.11470000000000002,-1.92117794521672
-0.11570000000000014,-1.92117794521672
-0.11670000000000003,-1.92117794521672
-0.11770000000000014,-1.9650339955125358
-0.11870000000000003,-1.92117794521672
-0.11970000000000014,-1.9650339955125358
-0.12070000000000003,-1.92117794521672
-0.12170000000000014,-1.9650339955125358
-0.12270000000000003,-1.9650339955125358
-0.12370000000000014,-1.9650339955125358
-0.12470000000000003,-1.9650339955125358
-0.12570000000000014,-1.9650339955125358
-0.12670000000000003,-1.9650339955125358
-0.12770000000000015,-1.9650339955125358
-0.12870000000000004,-1.9650339955125358
-0.12970000000000015,-1.9650339955125358
-0.13070000000000004,-1.9650339955125358
-0.13170000000000015,-1.9650339955125358
-0.13270000000000004,-1.9650339955125358
-0.13370000000000015,-1.9650339955125358
-0.13470000000000004,-2.008890045808352
-0.13570000000000015,-2.008890045808352
-0.13670000000000004,-2.008890045808352
-0.13770000000000016,-1.9650339955125358
-0.13870000000000005,-2.008890045808352
-0.13970000000000016,-2.008890045808352
-0.14070000000000005,-2.008890045808352
-0.14170000000000016,-2.008890045808352
-0.14270000000000005,-2.008890045808352
-0.14370000000000016,-2.008890045808352
-0.14470000000000005,-2.008890045808352
-0.14570000000000016,-2.008890045808352
-0.14670000000000005,-2.008890045808352
-0.14770000000000016,-2.008890045808352
-0.14870000000000005,-2.008890045808352
-0.14970000000000017,-2.052746096104168
-0.15070000000000006,-2.052746096104168
-0.15170000000000017,-2.052746096104168
-0.15270000000000006,-2.052746096104168
-0.15370000000000017,-2.052746096104168
-0.15470000000000006,-2.052746096104168
-0.15570000000000017,-2.052746096104168
-0.15670000000000006,-2.052746096104168
-0.15770000000000017,-2.052746096104168
-0.15870000000000006,-2.052746096104168
-0.15970000000000018,-2.052746096104168
-0.16070000000000007,-2.052746096104168
-0.16170000000000018,-2.095187435100119
-0.16270000000000007,-2.095187435100119
-0.16370000000000018,-2.052746096104168
-0.16470000000000007,-2.095187435100119
-0.16570000000000018,-2.095187435100119
-0.16670000000000007,-2.095187435100119
-0.16770000000000018,-2.095187435100119
-0.16870000000000007,-2.095187435100119
-0.16970000000000018,-2.095187435100119
-0.17070000000000007,-2.1390434853959355
-0.17170000000000019,-2.1390434853959355
-0.17270000000000008,-2.1390434853959355
-0.1737000000000002,-2.1390434853959355
-0.17470000000000008,-2.1390434853959355
-0.1757000000000002,-2.1390434853959355
-0.17670000000000008,-2.1390434853959355
-0.1777000000000002,-2.1828995356917518
-0.17870000000000008,-2.1828995356917518
-0.1797000000000002,-2.1828995356917518
-0.18070000000000008,-2.1390434853959355
-0.1817000000000002,-2.1390434853959355
-0.18270000000000008,-2.1390434853959355
-0.1837000000000002,-2.1828995356917518
-0.1847000000000001,-2.226755585987568
-0.1857000000000002,-2.226755585987568
-0.1867000000000001,-2.226755585987568
-0.1877000000000002,-2.226755585987568
-0.1887000000000001,-2.1828995356917518
-0.1897000000000002,-2.1828995356917518
-0.1907000000000001,-2.1828995356917518
-0.1917000000000001,-2.226755585987568
-0.19269999999999998,-2.226755585987568
-0.1937000000000001,-2.2706116362833835
-0.19469999999999998,-2.2706116362833835
-0.1957000000000001,-2.2706116362833835
-0.19669999999999999,-2.2706116362833835
-0.1977000000000001,-2.2706116362833835
-0.1987,-2.2706116362833835
-0.1997000000000001,-2.226755585987568
-0.2007,-2.226755585987568
-0.2017000000000001,-2.2706116362833835
-0.2027,-2.2706116362833835
-0.2037000000000001,-2.3144676865791998
-0.2047,-2.3144676865791998
-0.2057000000000001,-2.3144676865791998
-0.2067,-2.3569090255751513
-0.2077000000000001,-2.3144676865791998
-0.2087,-2.3144676865791998
-0.2097000000000001,-2.2706116362833835
-0.2107,-2.3144676865791998
-0.2117000000000001,-2.3144676865791998
-0.2127,-2.3569090255751513
-0.2137000000000001,-2.3569090255751513
-0.2147,-2.3569090255751513
-0.2157000000000001,-2.3569090255751513
-0.2167,-2.3144676865791998
-0.21770000000000012,-2.3144676865791998
-0.2187,-2.3144676865791998
-0.21970000000000012,-2.3144676865791998
-0.2207,-2.3569090255751513
-0.22170000000000012,-2.3569090255751513
-0.2227,-2.3569090255751513
-0.22370000000000012,-2.3569090255751513
-0.2247,-2.3569090255751513
-0.22570000000000012,-2.3569090255751513
-0.2267,-2.3569090255751513
-0.22770000000000012,-2.4007650758709675
-0.22870000000000001,-2.4007650758709675
-0.22970000000000013,-2.4007650758709675
-0.23070000000000002,-2.4007650758709675
-0.23170000000000013,-2.4007650758709675
-0.23270000000000002,-2.4007650758709675
-0.23370000000000013,-2.4007650758709675
-0.23470000000000002,-2.4007650758709675
-0.23570000000000013,-2.4007650758709675
-0.23670000000000002,-2.4007650758709675
-0.2376999999999999,-2.4007650758709675
-0.23870000000000002,-2.4007650758709675
-0.2396999999999999,-2.4007650758709675
-0.24070000000000003,-2.4007650758709675
-0.24169999999999991,-2.4446211261667834
-0.24270000000000003,-2.4446211261667834
-0.24369999999999992,-2.4446211261667834
-0.24470000000000003,-2.4446211261667834
-0.24569999999999992,-2.4007650758709675
-0.24670000000000003,-2.4446211261667834
-0.24769999999999992,-2.4446211261667834
-0.24870000000000003,-2.4446211261667834
-0.24969999999999992,-2.4446211261667834
-0.25070000000000003,-2.4884771764625997
-0.2516999999999999,-2.4884771764625997
-0.25270000000000004,-2.4884771764625997
-0.2536999999999999,-2.532333226758415
-0.25470000000000004,-2.4884771764625997
-0.2556999999999999,-2.4884771764625997
-0.25670000000000004,-2.4884771764625997
-0.25769999999999993,-2.4884771764625997
-0.25870000000000004,-2.4884771764625997
-0.25969999999999993,-2.532333226758415
-0.26070000000000004,-2.532333226758415
-0.26169999999999993,-2.532333226758415
-0.26270000000000004,-2.532333226758415
-0.26369999999999993,-2.4884771764625997
-0.26470000000000005,-2.4884771764625997
-0.26569999999999994,-2.532333226758415
-0.26670000000000005,-2.532333226758415
-0.26769999999999994,-2.576189277054232
-0.26870000000000005,-2.576189277054232
-0.26969999999999994,-2.576189277054232
-0.27070000000000005,-2.576189277054232
-0.27169999999999994,-2.576189277054232
-0.27270000000000005,-2.576189277054232
-0.27369999999999994,-2.576189277054232
-0.27470000000000006,-2.618630616050183
-0.27569999999999995,-2.618630616050183
-0.27670000000000006,-2.618630616050183
-0.27769999999999995,-2.618630616050183
-0.27870000000000006,-2.618630616050183
-0.27969999999999995,-2.618630616050183
-0.28070000000000006,-2.618630616050183
-0.28169999999999995,-2.662486666345999
-0.28270000000000006,-2.662486666345999
-0.28369999999999995,-2.662486666345999
-0.28470000000000006,-2.662486666345999
-0.28569999999999995,-2.662486666345999
-0.28670000000000007,-2.706342716641815
-0.28769999999999996,-2.706342716641815
-0.28870000000000007,-2.7501987669376318
-0.28969999999999996,-2.7501987669376318
-0.29070000000000007,-2.7501987669376318
-0.29169999999999996,-2.7501987669376318
-0.29270000000000007,-2.794054817233447
-0.29369999999999996,-2.794054817233447
-0.2947000000000001,-2.794054817233447
-0.29569999999999996,-2.8379108675292635
-0.2967000000000001,-2.8803522065252145
-0.29769999999999996,-2.8803522065252145
-0.2987000000000001,-2.924208256821031
-0.29969999999999997,-2.924208256821031
-0.3007000000000001,-2.924208256821031
-0.30169999999999997,-2.924208256821031
-0.3027000000000001,-2.924208256821031
-0.30369999999999997,-2.968064307116847
-0.3047000000000001,-3.0119203574126634
-0.30569999999999997,-3.0119203574126634
-0.3067000000000001,-3.055776407708479
-0.3077,-3.055776407708479
-0.3087000000000001,-3.0996324580042955
-0.3097,-3.1420737970002466
-0.3107000000000001,-3.1420737970002466
-0.3117,-3.1859298472960624
-0.3127000000000001,-3.1859298472960624
-0.3137,-3.2297858975918787
-0.3147000000000001,-3.273641947887695
-0.3157,-3.317497998183511
-0.3167000000000001,-3.361354048479327
-0.3177,-3.361354048479327
-0.3187000000000001,-3.403795387475278
-0.3197,-3.447651437771094
-0.3207000000000001,-3.4915074880669104
-0.3217,-3.5353635383627267
-0.3227000000000001,-3.579219588658543
-0.3237,-3.6655169779503103
-0.3247000000000001,-3.7093730282461257
-0.3257,-3.7532290785419424
-0.3267000000000001,-3.7970851288377587
-0.3277,-3.840941179133574
-0.3287000000000001,-3.927238568425342
-0.3297,-3.971094618721158
-0.3307000000000001,-4.014950669016974
-0.3317,-4.102662769608606
-0.3327000000000001,-4.146518819904423
-0.3337,-4.23281620919619
-0.3347000000000001,-4.364384360083638
-0.3357,-4.450681749375406
-0.3367000000000001,-4.494537799671222
-0.3377,-4.582249900262854
-0.3387000000000001,-4.668547289554621
-0.3397,-4.800115440442069
-0.3407000000000001,-4.887827541033701
-0.3417,-5.0618370309171015
-0.3427000000000001,-5.149549131508733
-0.3437,-5.279702571096316
-0.3447000000000001,-5.411270721983764
-0.3457,-5.5414241615713475
-0.3467000000000001,-5.715433651454749
-0.3477,-5.847001802342197
-0.3487000000000001,-6.064867342521412
-0.3497,-6.238876832404812
-0.3507000000000001,-6.458157083883892
-0.3517,-6.6760226240631075
-0.3527000000000001,-6.893888164242324
-0.3537,-7.155609754717355
-0.3547000000000001,-7.37347529489657
-0.3557,-7.635196885371603
-0.35670000000000013,-7.940774526142452
-0.3577,-8.246352166913299
-0.35870000000000013,-8.55051509638428
-0.3597,-8.85609273715513
-0.36070000000000013,-9.205526428221793
-0.3617,-9.55496011928846
-0.3626999999999999,-9.902979099055257
-0.3637,-10.296268840417738
-0.3646999999999999,-10.688143870480351
-0.3657,-11.037577561547016
-0.3666999999999999,-11.473308641905447
-0.3677,-11.909039722263879
-0.3686999999999999,-12.390041564217992
-0.36970000000000003,-12.913484745168056
-0.3706999999999999,-13.436927926118118
-0.37170000000000003,-13.960371107068182
-0.3726999999999999,-14.444202371622024
-0.37370000000000003,-14.925204213576137
-0.3746999999999999,-15.3920589425316
-0.37570000000000003,-15.972090575476265
-0.3766999999999999,-16.580416434418233
-0.37770000000000004,-17.231183632356142
-0.3786999999999999,-17.839509491298113
-0.37970000000000004,-18.44783535024008
-0.3806999999999999,-19.112749661176647
-0.38170000000000004,-19.721075520118614
-0.38269999999999993,-20.329401379060574
-0.38370000000000004,-20.980168576998494
-0.38469999999999993,-21.67337711393236
-0.38570000000000004,-22.33829142486893
-0.38669999999999993,-23.031499961802798
-0.38770000000000004,-23.639825820744765
-0.38869999999999993,-24.24815167968673
-0.38970000000000005,-24.771594860636792
-0.39069999999999994,-25.337479380582806
-0.39170000000000005,-25.959952352523427
-0.39269999999999994,-26.525836872469437
-0.39370000000000005,-27.176604070407354
-0.39469999999999994,-27.827371268345274
-0.39570000000000005,-28.435697127287238
-0.39669999999999994,-29.058170099227848
-0.39770000000000005,-29.62405461917387
-0.39869999999999994,-30.147497800123933
-0.39970000000000006,-30.529469851087494
-0.40069999999999995,-30.88314767605375
-0.40170000000000006,-31.321708179011907
-0.40269999999999995,-31.76026868197007
-0.40370000000000006,-32.24127052392419
-0.40469999999999995,-32.807155043870196
-0.40570000000000006,-33.41548090281216
-0.40669999999999995,-34.10868943974604
-0.40770000000000006,-34.94336910666641
-0.40869999999999995,-35.07069312365426
-0.40970000000000006,-34.67457395969205
-0.41069999999999995,-34.632132620696105
-0.41170000000000007,-35.11313446265021
-0.41269999999999996,-36.03269680756248
-0.41370000000000007,-37.51814367242077
-0.41469999999999996,-38.734795390304704
-0.41570000000000007,-39.173355893262865
-0.41669999999999996,-38.98944342428042
-0.41770000000000007,-38.38111756533845
-0.41869999999999996,-37.94255706238028
-0.4197000000000001,-38.16891087035869
-0.42069999999999996,-39.08847321527096
-0.4217000000000001,-40.220242255162994
-0.42269999999999996,-41.04077480908471
-0.4237000000000001,-41.606659329030734
-0.42469999999999997,-41.83301313700913
-0.4257000000000001,-41.91789581500104
-0.42669999999999997,-41.96033715399699
-0.4277000000000001,-41.96033715399699
-0.42869999999999997,-42.130102509980794
-0.4297000000000001,-42.526221673943
-0.43069999999999997,-43.04966485489307
-0.4317000000000001,-43.75702050482558
-0.4327,-44.3229050247716
-0.4337000000000001,-44.577553058747306
-0.4347,-44.704877075735155
-0.4357000000000001,-44.84634820572166
-0.4367,-45.18587891768927
-0.4377000000000001,-45.624439420647434
-0.4387,-46.27520661858535
-0.4397000000000001,-46.88353247752732
-0.4407,-47.23721030249357
-0.4417000000000001,-47.506005449467935
-0.4427,-47.67577080545174
-0.4437000000000001,-47.987007291422046
-0.4447,-48.36897934238561
-0.4457000000000001,-48.80753984534376
-0.4467,-49.076334992318124
-0.4477000000000001,-49.41586570428573
-0.4487,-49.68466085126009
-0.4497000000000001,-49.98175022423175
-0.4507,-50.2505453712061
-0.4517000000000001,-50.60422319617236
-0.4527,-50.77398855215617
-0.4537000000000001,-51.127666377122424
-0.4547,-51.46719708909004
-0.4557000000000001,-51.77843357506035
-0.4567,-52.075522948032
-0.4577000000000001,-52.386759434002315
-0.4587,-52.64140746797801
-0.4597000000000001,-52.78287859796452
-0.4607,-52.86776127595642
-0.4617000000000001,-52.91020261495237
-0.4627,-53.16485064892808
-0.4637000000000001,-53.518528473894335
-0.4647,-53.91464763785655
-0.4657000000000001,-54.1268543328363
-0.4667,-54.16929567183226
-0.4677000000000001,-54.2117370108282
-0.4687,-54.480532157802564
-0.4697000000000001,-54.791768643772876
-0.4707,-55.25862337272834
-0.4717000000000001,-55.612301197694585
-0.4727,-55.73962521468245
-0.4737000000000001,-55.881096344668954
-0.4747,-55.9235376836649
-0.4757000000000001,-56.22062705663656
-0.4767,-56.65918755959472
-0.4777000000000001,-57.05530672355693
-0.4787,-57.26751341853669
-0.4797000000000001,-57.57874990450699
-0.4807,-57.66363258249889
-0.48170000000000013,-57.57874990450699
-0.4827,-57.53630856551105
-0.48370000000000013,-57.79095659948675
-0.4847,-58.017310407465146
-0.48570000000000013,-58.583194927411164
-0.4867,-58.97931409137338
-0.4876999999999999,-59.502757272323436
-0.4887,-60.32328982624517
-0.4896999999999999,-60.63452631221547
-0.4907,-60.45061384323302
-0.4916999999999999,-60.06864179226946
-0.4927,-59.6300812893113
-0.4936999999999999,-59.884729323287
-0.49470000000000003,-60.63452631221547
-0.4956999999999999,-61.53994154412909
-0.49670000000000003,-62.81318171400764
-0.4976999999999999,-63.29418355596174
-0.49870000000000003,-63.59127292893339
-0.4996999999999999,-63.251742216965795
-0.5007,-62.68585769701977
-0.5016999999999999,-62.855623053003576
-0.5027,-63.5063902509415
-0.5036999999999999,-64.38351125685783
-0.5047,-65.11916113278764
-0.5056999999999999,-65.38795627976201
-0.5067,-65.38795627976201
-0.5076999999999999,-65.34551494076604
-0.5087,-65.3030736017701
-0.5096999999999999,-65.5577216357458
-0.5107,-66.43484264166212
