Potential V vs RHE, Current mA cm-2
0.013299999999999867,-0.04379946184382154
0.012299999999999978,-0.18914690079195542
0.011299999999999866,-0.28506432692280487
0.010299999999999976,-0.3391062985776493
0.009299999999999864,-0.38310382000345194
0.008299999999999974,-0.4111151037407797
0.007299999999999862,-0.43516519583848523
0.006299999999999972,-0.4585079322862584
0.00529999999999986,-0.46812796912534066
0.0042999999999999705,-0.48015301517419345
0.0032999999999998586,-0.4896315808832892
0.0022999999999999687,-0.4958563106026953
0.0012999999999998568,-0.5051934051818046
0.00029999999999996696,-0.505617818571764
-0.000700000000000145,-0.5121254905511432
-0.0017000000000000348,-0.520472287220347
-0.0027000000000001467,-0.519906402700401
-0.0037000000000000366,-0.5291020261495237
-0.0047000000000001485,-0.5261311324198072
-0.005700000000000038,-0.5302337951894158
-0.00670000000000015,-0.5341949868290379
-0.00770000000000004,-0.5317899776192673
-0.008700000000000152,-0.5360341115188624
-0.009700000000000042,-0.5350438136089569
-0.010700000000000154,-0.5371658805587545
-0.011700000000000044,-0.5416929567183226
-0.012700000000000156,-0.5409856010683901
-0.013700000000000045,-0.5421173701082821
-0.014700000000000157,-0.5407026588084171
-0.015700000000000047,-0.5416929567183226
-0.01670000000000016,-0.5460785617479043
-0.01770000000000005,-0.5425417834982416
-0.01870000000000016,-0.5465029751378637
-0.01970000000000005,-0.539287947508552
-0.020700000000000163,-0.5473518019177827
-0.021700000000000053,-0.5448053215780257
-0.022700000000000164,-0.5460785617479043
-0.023700000000000054,-0.5460785617479043
-0.024700000000000166,-0.5422588412382686
-0.025700000000000056,-0.5456541483579447
-0.026700000000000168,-0.5445223793180526
-0.027700000000000058,-0.5440979659280931
-0.02870000000000017,-0.5431076680181876
-0.02970000000000006,-0.5428247257582146
-0.03070000000000017,-0.5479176864377286
-0.03170000000000006,-0.5432491391481741
-0.03270000000000017,-0.5415514855883361
-0.03370000000000006,-0.5483420998276882
-0.034700000000000175,-0.5428247257582146
-0.035700000000000065,-0.5435320814081471
-0.03670000000000018,-0.5450882638379987
-0.03770000000000007,-0.5407026588084171
-0.03870000000000018,-0.5446638504480392
-0.03970000000000007,-0.539287947508552
-0.04070000000000018,-0.5425417834982416
-0.04170000000000007,-0.5439564947981066
-0.04270000000000018,-0.5416929567183226
-0.04370000000000007,-0.5445223793180526
-0.044700000000000184,-0.5409856010683901
-0.045700000000000074,-0.5388635341185926
-0.046700000000000186,-0.5415514855883361
-0.047700000000000076,-0.5418344278483092
-0.04870000000000019,-0.5315070353592943
-0.04970000000000008,-0.5470688596578097
-0.05070000000000019,-0.5353267558689299
-0.05170000000000008,-0.5374488228187275
-0.05270000000000019,-0.5361755826488489
-0.05370000000000008,-0.5414100144583496
-0.05470000000000019,-0.5371658805587545
-0.05570000000000008,-0.540136774288471
-0.056700000000000195,-0.5380147073386735
-0.057700000000000085,-0.5370244094287681
-0.058700000000000196,-0.5445223793180526
-0.059700000000000086,-0.5303752663194023
-0.0607000000000002,-0.5457956194879312
-0.06170000000000009,-0.5356096981289029
-0.0627000000000002,-0.537307351688741
-0.06370000000000009,-0.5402782454184575
-0.0647000000000002,-0.5350438136089569
-0.06570000000000009,-0.5370244094287681
-0.0667000000000002,-0.5388635341185926
-0.0677000000000001,-0.537307351688741
-0.0687000000000002,-0.5418344278483092
-0.0697000000000001,-0.5365999960388084
-0.07070000000000021,-0.5408441299384036
-0.0717000000000001,-0.5442394370580796
-0.07270000000000021,-0.537307351688741
-0.0737000000000001,-0.5450882638379987
-0.07470000000000021,-0.5394294186385385
-0.0757000000000001,-0.5422588412382686
-0.07670000000000021,-0.5432491391481741
-0.0777000000000001,-0.5402782454184575
-0.07870000000000021,-0.5456541483579447
-0.0797000000000001,-0.5391464763785655
-0.08070000000000022,-0.5425417834982416
-0.0817000000000001,-0.5446638504480392
-0.08270000000000022,-0.5405611876784305
-0.08370000000000011,-0.5472103307877962
-0.08470000000000022,-0.5411270721983766
-0.08570000000000011,-0.5445223793180526
-0.08670000000000022,-0.5442394370580796
-0.08770000000000011,-0.5448053215780257
-0.08870000000000022,-0.5498982822575398
-0.08970000000000011,-0.5457956194879312
-0.09070000000000022,-0.553293589377216
-0.09170000000000011,-0.5511715224274183
-0.09270000000000023,-0.5513129935574048
-0.09370000000000012,-0.5548497718070674
-0.09470000000000023,-0.5514544646873913
-0.09570000000000012,-0.5542838872871214
-0.09670000000000023,-0.5548497718070674
-0.09770000000000012,-0.5523032914673103
-0.09870000000000023,-0.5613574437864466
-0.09970000000000012,-0.5559815408469594
-0.10070000000000023,-0.5590939057066625
-0.10170000000000012,-0.557820665536784
-0.10270000000000024,-0.558669492316703
-0.10370000000000013,-0.5644698086461497
-0.10470000000000024,-0.562347741696352
-0.10570000000000013,-0.5678651157658258
-0.10670000000000024,-0.5651771642960822
-0.10770000000000013,-0.5657430488160282
-0.10870000000000024,-0.5695627693256637
-0.10970000000000013,-0.5678651157658258
-0.11070000000000024,-0.5706945383655557
-0.11170000000000013,-0.5709774806255288
-0.11270000000000002,-0.5708360094955423
-0.11370000000000013,-0.5784754505148135
-0.11470000000000002,-0.5733824898352994
-0.11570000000000014,-0.5821536998944625
-0.11670000000000003,-0.5796072195547056
-0.11770000000000014,-0.5787583927747865
-0.11870000000000003,-0.5848416513642062
-0.11970000000000014,-0.5815878153745165
-0.12070000000000003,-0.5851245936241791
-0.12170000000000014,-0.5844172379742467
-0.12270000000000003,-0.5820122287644761
-0.12370000000000014,-0.5902175543036933
-0.12470000000000003,-0.5858319492741116
-0.12570000000000014,-0.5940372748133289
-0.12670000000000003,-0.5975740530629915
-0.12770000000000015,-0.5927640346434504
-0.12870000000000004,-0.5992717066228296
-0.12970000000000015,-0.598281408712924
-0.13070000000000004,-0.6053549652122492
-0.13170000000000015,-0.6015352447026135
-0.13270000000000004,-0.6004034756627216
-0.13370000000000015,-0.6056379074722221
-0.13470000000000004,-0.6062037919921682
-0.13570000000000015,-0.6084673300719523
-0.13670000000000004,-0.6090332145918983
-0.13770000000000016,-0.6111552815416958
-0.13870000000000005,-0.620209433860832
-0.13970000000000016,-0.6152579443113044
-0.14070000000000005,-0.6243120966304406
-0.14170000000000016,-0.618794722560967
-0.14270000000000005,-0.6211997317707375
-0.14370000000000016,-0.6254438656703327
-0.14470000000000005,-0.6219070874206701
-0.14570000000000016,-0.6277074037501167
-0.14670000000000005,-0.6291221150499817
-0.14770000000000016,-0.6267171058402112
-0.14870000000000005,-0.6380347962391315
-0.14970000000000017,-0.6339321334695229
-0.15070000000000006,-0.6427033435286861
-0.15170000000000017,-0.6390250941490371
-0.15270000000000006,-0.640439805448902
-0.15370000000000017,-0.6412886322288212
-0.15470000000000006,-0.6371859694592126
-0.15570000000000017,-0.6410056899688481
-0.15670000000000006,-0.6446839393484972
-0.15770000000000017,-0.6475133619482272
-0.15870000000000006,-0.6531722071476874
-0.15970000000000018,-0.6509086690679033
-0.16070000000000007,-0.6562845720073905
-0.16170000000000018,-0.658123696697215
-0.16270000000000007,-0.6545869184475525
-0.16370000000000018,-0.6610945904269316
-0.16470000000000007,-0.6619434172068507
-0.16570000000000018,-0.6681681469262569
-0.16670000000000007,-0.6670363778863648
-0.16770000000000018,-0.6678852046662839
-0.16870000000000007,-0.6690169737061759
-0.16970000000000018,-0.6704316850060409
-0.17070000000000007,-0.6734025787357575
-0.17170000000000019,-0.6751002322955955
-0.17270000000000008,-0.6751002322955955
-0.1737000000000002,-0.6787784816752446
-0.17470000000000008,-0.6792028950652041
-0.1757000000000002,-0.6816079042749748
-0.17670000000000008,-0.6806176063650692
-0.1777000000000002,-0.6868423360844753
-0.17870000000000008,-0.6868423360844753
-0.1797000000000002,-0.6835885000947858
-0.18070000000000008,-0.692359710153949
-0.1817000000000002,-0.6876911628643944
-0.18270000000000008,-0.695472075013652
-0.1837000000000002,-0.693491479193841
-0.1847000000000001,-0.695472075013652
-0.1857000000000002,-0.7005650356931662
-0.1867000000000001,-0.6992917955232877
-0.1877000000000002,-0.7009894490831257
-0.1887000000000001,-0.7038188716828558
-0.1897000000000002,-0.7072141788025319
-0.1907000000000001,-0.7065068231525994
-0.1917000000000001,-0.7101850725322485
-0.19269999999999998,-0.7069312365425588
-0.1937000000000001,-0.7161268599916816
-0.19469999999999998,-0.7074971210625048
-0.1957000000000001,-0.7281519060405344
-0.19669999999999999,-0.7004235645631797
-0.1977000000000001,-0.7239077721409393
-0.1987,-0.7154195043417491
-0.1997000000000001,-0.7200880516313036
-0.2007,-0.7224930608410742
-0.2017000000000001,-0.7250395411808312
-0.2027,-0.7239077721409393
-0.2037000000000001,-0.7340936934999676
-0.2047,-0.7287177905604804
-0.2057000000000001,-0.7352254625398595
-0.2067,-0.7343766357599406
-0.2077000000000001,-0.7342351646299541
-0.2087,-0.7397525386994277
-0.2097000000000001,-0.7411672499992927
-0.2107,-0.7449869705089284
-0.2117000000000001,-0.7451284416389149
-0.2127,-0.749089633278537
-0.2137000000000001,-0.7478163931086583
-0.2147,-0.7531922960481455
-0.2157000000000001,-0.7616805638473357
-0.2167,-0.7598414391575111
-0.21770000000000012,-0.7577193722077137
-0.2187,-0.7645099864470658
-0.21970000000000012,-0.7616805638473357
-0.2207,-0.7714420718164045
-0.22170000000000012,-0.7693200048666069
-0.2227,-0.7727153119862831
-0.22370000000000012,-0.7758276768459861
-0.2247,-0.7761106191059591
-0.22570000000000012,-0.7851647714250953
-0.2267,-0.7831841756052842
-0.22770000000000012,-0.7836085889952439
-0.22870000000000001,-0.7943603948742181
-0.22970000000000013,-0.794077452614245
-0.23070000000000002,-0.8048292584932193
-0.23170000000000013,-0.8010095379835837
-0.23270000000000002,-0.8036974894533273
-0.23370000000000013,-0.8120442861225311
-0.23470000000000002,-0.8107710459526526
-0.23570000000000013,-0.8202496116617483
-0.23670000000000002,-0.8188349003618833
-0.2376999999999999,-0.8230790342614784
-0.23870000000000002,-0.8370846761301421
-0.2396999999999999,-0.8343967246603987
-0.24070000000000003,-0.8321331865806146
-0.24169999999999991,-0.8475535397491435
-0.24270000000000003,-0.849675606698941
-0.24369999999999992,-0.8571735765882258
-0.24470000000000003,-0.8614177104878209
-0.24569999999999992,-0.8716036318468491
-0.24670000000000003,-0.8708962761969166
-0.24769999999999992,-0.8754233523564846
-0.24870000000000003,-0.8891460519651755
-0.24969999999999992,-0.8882972251852566
-0.25070000000000003,-0.9037175783537855
-0.2516999999999999,-0.9065470009535155
-0.25270000000000004,-0.9178646913524358
-0.2536999999999999,-0.924089421071842
-0.25470000000000004,-0.9255041323717068
-0.2556999999999999,-0.9363974093806677
-0.25670000000000004,-0.9522421759391562
-0.25769999999999993,-0.961154857128306
-0.25870000000000004,-0.9734628454371318
-0.25969999999999993,-0.9714822496173208
-0.26070000000000004,-0.9894490831256065
-0.26169999999999993,-0.9951079283250667
-0.26270000000000004,-1.004445022904176
-0.26369999999999993,-1.0208556739826105
-0.26470000000000005,-1.024675394492246
-0.26569999999999994,-1.0439154681704106
-0.26670000000000005,-1.0526866782295738
-0.26769999999999994,-1.0685314447880623
-0.26870000000000005,-1.0845176824765372
-0.26969999999999994,-1.0942791904456057
-0.27070000000000005,-1.115358388813595
-0.27169999999999994,-1.1251198967826637
-0.27270000000000005,-1.1443599704608283
-0.27369999999999994,-1.1677027069086015
-0.27470000000000006,-1.175200676797886
-0.27569999999999995,-1.2020801914953216
-0.27670000000000006,-1.2186323137037425
-0.27769999999999995,-1.2394285698117586
-0.27870000000000006,-1.2630542485195047
-0.27969999999999995,-1.2828602067176154
-0.28070000000000006,-1.3144082687046057
-0.28169999999999995,-1.332516573342878
-0.28270000000000006,-1.3557178386606645
-0.28369999999999995,-1.3882561985575603
-0.28470000000000006,-1.421784856364362
-0.28569999999999995,-1.4571526388609877
-0.28670000000000007,-1.4812027309586933
-0.28769999999999996,-1.5208146473549145
-0.28870000000000007,-1.5745736767497858
-0.28969999999999996,-1.5816472332491107
-0.29070000000000007,-1.656626932141958
-0.29169999999999996,-1.6693593338407433
-0.29270000000000007,-1.7372654762342652
-0.29369999999999996,-1.779706815230216
-0.2947000000000001,-1.849027668923603
-0.29569999999999996,-1.9098602548177994
-0.2967000000000001,-1.9749369746115912
-0.29769999999999996,-2.054160807404033
-0.2987000000000001,-2.122066949797555
-0.29969999999999997,-2.2097790503891876
-0.3007000000000001,-2.3130529752793345
-0.30169999999999997,-2.4092533436701573
-0.3027000000000001,-2.5238449589592253
-0.30369999999999997,-2.662486666345999
-0.3047000000000001,-2.785566549434257
-0.30569999999999997,-2.9624054619173865
-0.3067000000000001,-3.1052913032037557
-0.3077,-3.2934479060858055
-0.3087000000000001,-3.473116241168665
-0.3097,-3.707958316946261
-0.3107000000000001,-3.918750300626152
-0.3117,-4.186130736300643
-0.3127000000000001,-4.443608192876081
-0.3137,-4.770406503144904
-0.3147000000000001,-5.039201650119261
-0.3157,-5.39287947508552
-0.3167000000000001,-5.736654320952724
-0.3177,-6.074770321620467
-0.3187000000000001,-6.497769000280114
-0.3197,-6.892473452942459
-0.3207000000000001,-7.309813286402645
-0.3217,-7.769594458858782
-0.3227000000000001,-8.212399095716538
-0.3237,-8.714621607168628
-0.3247000000000001,-9.211185273421254
-0.3257,-9.764337391668482
-0.3267000000000001,-10.272218748320032
-0.3277,-10.7914177953705
-0.3287000000000001,-11.35022875881719
-0.3297,-11.825571755571842
-0.3307000000000001,-12.395700409417453
-0.3317,-12.862555138372914
-0.3327000000000001,-13.451075039116768
-0.3337,-13.879732562975875
-0.3347000000000001,-14.444202371622024
-0.3357,-14.911057100577487
-0.3367000000000001,-15.448647394526201
-0.3377,-15.844766558488407
-0.3387000000000001,-16.29747417444522
-0.3397,-16.764328903400685
-0.3407000000000001,-17.07556538937099
-0.3417,-17.499978779330505
-0.3427000000000001,-17.881950830294063
-0.3437,-18.334658446250877
-0.3447000000000001,-18.78736606220769
-0.3457,-19.056161209182044
-0.3467000000000001,-19.409839034148305
-0.3477,-19.73522263311726
-0.3487000000000001,-20.03231200608892
-0.3497,-20.400136944053827
-0.3507000000000001,-20.683079204026836
-0.3517,-20.93772723800254
-0.3527000000000001,-21.277257949970153
-0.3537,-21.67337711393236
-0.3547000000000001,-21.899730921910766
-0.3557,-22.140231842887825
-0.35670000000000013,-22.39487987686353
-0.3577,-23.059794187800097
-0.35870000000000013,-23.45591335176231
-0.3597,-23.031499961802798
-0.36070000000000013,-23.852032515724517
-0.3617,-23.58323736875016
-0.3626999999999999,-23.951062306715073
-0.3637,-23.92276808071777
-0.3646999999999999,-24.064239210704276
-0.3657,-24.120827662698876
-0.3666999999999999,-24.27644590568403
-0.3677,-24.57353527865569
-0.3686999999999999,-24.531093939659737
-0.36970000000000003,-24.814036199632742
-0.3706999999999999,-24.856477538628695
-0.37170000000000003,-24.997948668615198
-0.3726999999999999,-25.1394197986017
-0.37370000000000003,-25.224302476593607
-0.3746999999999999,-25.549686075562565
-0.37570000000000003,-25.691157205549064
-0.3766999999999999,-26.073129256512626
-0.37770000000000004,-26.18630616050183
-0.3786999999999999,-26.426807081478888
-0.37970000000000004,-26.28533595149238
-0.3806999999999999,-26.59657243746269
-0.38170000000000004,-26.38436574248293
-0.38269999999999993,-26.62486666345999
-0.38370000000000004,-26.808779132442442
-0.38469999999999993,-26.879514697435695
-0.38570000000000004,-27.162456957408708
-0.38669999999999993,-27.261486748399253
-0.38770000000000004,-27.14830984441005
-0.38869999999999993,-27.813224155346617
-0.38970000000000005,-27.601017460366865
-0.39069999999999994,-28.56302114427509
-0.39170000000000005,-27.926401059335824
-0.39269999999999994,-28.280078884302082
-0.39370000000000005,-28.463991353284538
-0.39469999999999994,-28.633756709268344
-0.39570000000000005,-28.647903822266994
-0.39669999999999994,-28.761080726256196
-0.39770000000000005,-29.157199890218404
-0.39869999999999994,-29.779672862159025
-0.39970000000000006,-29.977732444140123
-0.40069999999999995,-30.02017378313608
-0.40170000000000006,-30.345557382105042
-0.40269999999999995,-30.51532273808884
-0.40370000000000006,-30.656793868075347
-0.40469999999999995,-30.7558236590659
-0.40570000000000006,-30.925589015049702
-0.40669999999999995,-31.20853127502271
-0.40770000000000006,-31.420737970002463
-0.40869999999999995,-31.689533116976815
-0.40970000000000006,-32.41103587990799
-0.41069999999999995,-32.439330105905285
-0.41170000000000007,-33.11839152984051
-0.41269999999999996,-33.07595019084456
-0.41370000000000007,-33.25986265982701
-0.41469999999999996,-33.344745337818914
-0.41570000000000007,-33.40133378981351
-0.41669999999999996,-33.316451111821614
-0.41770000000000007,-33.45792224180811
-0.41869999999999996,-33.245715546828364
-0.4197000000000001,-33.55695203279867
-0.42069999999999996,-34.6604268466934
-0.4217000000000001,-35.268752705635364
-0.42269999999999996,-36.244903502542236
-0.4237000000000001,-36.7117582314977
-0.42469999999999997,-36.78249379649095
-0.4257000000000001,-36.6834640055004
-0.42669999999999997,-37.334231203438314
-0.4277000000000001,-37.85767438438838
-0.42869999999999997,-38.140616644361394
-0.4297000000000001,-38.253793548350586
-0.43069999999999997,-38.35282333934114
-0.4317000000000001,-38.86211940729255
-0.4327,-38.57917714731955
-0.4337000000000001,-38.89041363328986
-0.4347,-38.706501164307404
-0.4357000000000001,-38.805530955297954
-0.4367,-38.607471373316855
-0.4377000000000001,-38.89041363328986
-0.4387,-39.640210622218326
-0.4397000000000001,-39.41385681423992
-0.4407,-39.44215104023723
-0.4417000000000001,-39.58362217022373
-0.4427,-39.68265196121428
-0.4437000000000001,-39.89485865619403
-0.4447,-40.27683070715759
-0.4457000000000001,-40.88515656609956
-0.4467,-41.23883439106582
-0.4477000000000001,-41.33786418205637
-0.4487,-41.30956995605907
-0.4497000000000001,-41.76227757201589
-0.4507,-41.81886602401048
-0.4517000000000001,-41.46518819904423
-0.4527,-42.04521983198889
-0.4537000000000001,-42.667692803929505
-0.4547,-43.120400419886316
-0.4557000000000001,-43.30431288886877
-0.4567,-44.223875233781044
-0.4577000000000001,-43.53066669684718
-0.4587,-43.57310803584313
-0.4597000000000001,-43.629696487837734
-0.4607,-44.3511992507689
-0.4617000000000001,-44.4926703807554
-0.4627,-44.4643761547581
-0.4637000000000001,-45.624439420647434
-0.4647,-45.27076159568118
-0.4657000000000001,-46.544001765559706
-0.4667,-47.39282854547873
-0.4677000000000001,-48.04359574341665
-0.4687,-48.1426255344072
-0.4697000000000001,-48.73680428035051
-0.4707,-49.34513013929248
-0.4717000000000001,-49.13292344431272
-0.4727,-49.61392528626684
-0.4737000000000001,-50.052485789224995
-0.4747,-50.109074241219595
-0.4757000000000001,-50.3637222751953
-0.4767,-50.547634744177756
-0.4777000000000001,-51.31157884610488
-0.4787,-51.55207976708194
-0.4797000000000001,-51.26913750710893
-0.4807,-51.679403784069784
-0.48170000000000013,-52.44334788599691
-0.4827,-52.14625851302525
-0.48370000000000013,-52.485789224992864
-0.4847,-53.079967970936174
-0.48570000000000013,-53.39120445690648
-0.4867,-53.64585249088219
-0.4876999999999999,-53.985383202849796
-0.4887,-54.1551485588336
-0.4896999999999999,-54.466385044803914
-0.4907,-54.63615040078772
-0.4916999999999999,-55.56985985869864
-0.4927,-55.68303676268785
-0.4936999999999999,-56.093303039648696
-0.49470000000000003,-55.9235376836649
-0.4956999999999999,-56.36209818662306
-0.49670000000000003,-56.57430488160282
-0.4976999999999999,-57.16848362754614
-0.49870000000000003,-57.6353383565016
-0.4996999999999999,-58.18707576344896
-0.5007,-58.83784296138688
-0.5016999999999999,-59.12078522135989
-0.5027,-59.72911108030185
