Aug. 8, 2024   05:10:15
Cyclic Voltammetry
File: c:/users/guazh/data/20240802_batch_500/2024-08-02-exp51\exp51-2024-08-08t04_47_08-arkoh\exp51_cv_sr_50mvs_efin_-2000mv.bin
Data Source:  Experiment
Instrument Model:  CHI760E
Header: CV ran at 50 mVs
Note: 

Init E (V) = -1
High E (V) = -1
Low E (V) = -2
Final E (V) = -1
Init P/N = N
Scan Rate (V/s) = 0.05
Segment = 3
Sample Interval (V) = 0.001
Quiet Time (sec) = 2
Sensitivity (A/V) = 0.01
Comp R (ohm) = 2.0

Results:

Channel 1:
Segment 1:

Segment 2:

Segment 3:

Potential/V, Current/A

-1.000, -9.688e-7
-1.001, -8.011e-7
-1.002, -8.110e-7
-1.003, -7.321e-7
-1.004, -8.208e-7
-1.005, -7.814e-7
-1.006, -7.321e-7
-1.007, -8.208e-7
-1.008, -6.038e-7
-1.009, -5.742e-7
-1.010, -6.235e-7
-1.011, -5.249e-7
-1.012, -5.150e-7
-1.013, -5.841e-7
-1.014, -4.361e-7
-1.015, -5.939e-7
-1.016, -3.769e-7
-1.017, -5.446e-7
-1.018, -3.670e-7
-1.019, -4.361e-7
-1.020, -4.065e-7
-1.021, -3.670e-7
-1.022, -4.262e-7
-1.023, -3.473e-7
-1.024, -2.486e-7
-1.025, -3.867e-7
-1.026, -2.980e-7
-1.027, -2.486e-7
-1.028, -2.486e-7
-1.029, -2.486e-7
-1.030, -2.190e-7
-1.031, -1.796e-7
-1.032, -2.486e-7
-1.033, -2.289e-7
-1.034, -2.388e-7
-1.035, -2.486e-7
-1.036, -1.006e-7
-1.037, -1.500e-7
-1.038, -1.598e-7
-1.039, -5.130e-8
-1.040, -1.006e-7
-1.041, -1.894e-7
-1.042, -1.105e-7
-1.043, -1.302e-7
-1.044, -1.105e-7
-1.045, -1.105e-7
-1.046, -3.157e-8
-1.047, -1.006e-7
-1.048, -1.796e-7
-1.049, -7.103e-8
-1.050, -1.006e-7
-1.051, -4.144e-8
-1.052, -1.973e-9
-1.053, -1.184e-8
-1.054, -1.973e-9
-1.055, -5.130e-8
-1.056, -2.171e-8
-1.057, 4.736e-8
-1.058, -2.171e-8
-1.059, -1.184e-8
-1.060, -1.973e-9
-1.061, -4.144e-8
-1.062, -5.130e-8
-1.063, 6.709e-8
-1.064, 6.709e-8
-1.065, 7.893e-9
-1.066, 6.709e-8
-1.067, -1.184e-8
-1.068, 2.762e-8
-1.069, 8.682e-8
-1.070, 9.669e-8
-1.071, 1.164e-7
-1.072, 1.559e-7
-1.073, 8.682e-8
-1.074, 1.776e-8
-1.075, 5.722e-8
-1.076, 9.669e-8
-1.077, 1.164e-7
-1.078, 1.855e-7
-1.079, 1.362e-7
-1.080, 1.657e-7
-1.081, 1.756e-7
-1.082, 2.545e-7
-1.083, 2.249e-7
-1.084, 2.348e-7
-1.085, 6.709e-8
-1.086, 1.263e-7
-1.087, 2.052e-7
-1.088, 2.052e-7
-1.089, 1.263e-7
-1.090, 1.559e-7
-1.091, 1.657e-7
-1.092, 9.669e-8
-1.093, 1.460e-7
-1.094, 2.249e-7
-1.095, 1.855e-7
-1.096, 1.559e-7
-1.097, 1.460e-7
-1.098, 2.841e-7
-1.099, 1.559e-7
-1.100, 1.559e-7
-1.101, 2.841e-7
-1.102, 2.052e-7
-1.103, 2.447e-7
-1.104, 2.743e-7
-1.105, 1.953e-7
-1.106, 3.236e-7
-1.107, 2.644e-7
-1.108, 2.644e-7
-1.109, 2.348e-7
-1.110, 2.644e-7
-1.111, 3.236e-7
-1.112, 2.743e-7
-1.113, 2.249e-7
-1.114, 3.631e-7
-1.115, 2.052e-7
-1.116, 3.039e-7
-1.117, 3.039e-7
-1.118, 3.927e-7
-1.119, 3.532e-7
-1.120, 2.940e-7
-1.121, 2.447e-7
-1.122, 3.236e-7
-1.123, 3.828e-7
-1.124, 3.137e-7
-1.125, 3.039e-7
-1.126, 3.236e-7
-1.127, 3.532e-7
-1.128, 4.025e-7
-1.129, 4.617e-7
-1.130, 4.025e-7
-1.131, 4.025e-7
-1.132, 2.841e-7
-1.133, 4.223e-7
-1.134, 3.828e-7
-1.135, 2.940e-7
-1.136, 3.927e-7
-1.137, 2.940e-7
-1.138, 3.433e-7
-1.139, 4.716e-7
-1.140, 4.815e-7
-1.141, 4.321e-7
-1.142, 4.025e-7
-1.143, 4.223e-7
-1.144, 4.124e-7
-1.145, 4.025e-7
-1.146, 4.519e-7
-1.147, 4.617e-7
-1.148, 4.617e-7
-1.149, 4.223e-7
-1.150, 4.025e-7
-1.151, 4.025e-7
-1.152, 4.420e-7
-1.153, 4.913e-7
-1.154, 4.716e-7
-1.155, 4.519e-7
-1.156, 5.111e-7
-1.157, 4.223e-7
-1.158, 4.519e-7
-1.159, 4.223e-7
-1.160, 4.321e-7
-1.161, 4.519e-7
-1.162, 4.420e-7
-1.163, 4.913e-7
-1.164, 3.828e-7
-1.165, 5.111e-7
-1.166, 5.012e-7
-1.167, 4.321e-7
-1.168, 5.407e-7
-1.169, 5.012e-7
-1.170, 4.617e-7
-1.171, 5.111e-7
-1.172, 4.913e-7
-1.173, 4.815e-7
-1.174, 5.209e-7
-1.175, 4.913e-7
-1.176, 5.407e-7
-1.177, 5.209e-7
-1.178, 5.505e-7
-1.179, 6.689e-7
-1.180, 5.209e-7
-1.181, 5.308e-7
-1.182, 5.801e-7
-1.183, 5.801e-7
-1.184, 5.998e-7
-1.185, 6.689e-7
-1.186, 5.604e-7
-1.187, 6.097e-7
-1.188, 5.308e-7
-1.189, 6.294e-7
-1.190, 5.505e-7
-1.191, 6.393e-7
-1.192, 5.012e-7
-1.193, 5.998e-7
-1.194, 6.097e-7
-1.195, 6.097e-7
-1.196, 5.505e-7
-1.197, 5.604e-7
-1.198, 6.393e-7
-1.199, 5.703e-7
-1.200, 5.801e-7
-1.201, 5.801e-7
-1.202, 6.097e-7
-1.203, 6.689e-7
-1.204, 6.886e-7
-1.205, 6.196e-7
-1.206, 6.886e-7
-1.207, 6.492e-7
-1.208, 6.294e-7
-1.209, 6.492e-7
-1.210, 6.590e-7
-1.211, 7.478e-7
-1.212, 5.801e-7
-1.213, 5.900e-7
-1.214, 6.689e-7
-1.215, 5.801e-7
-1.216, 7.478e-7
-1.217, 7.676e-7
-1.218, 6.492e-7
-1.219, 6.294e-7
-1.220, 6.196e-7
-1.221, 7.182e-7
-1.222, 6.689e-7
-1.223, 7.478e-7
-1.224, 6.689e-7
-1.225, 6.689e-7
-1.226, 7.972e-7
-1.227, 6.788e-7
-1.228, 7.380e-7
-1.229, 7.380e-7
-1.230, 8.564e-7
-1.231, 8.662e-7
-1.232, 7.577e-7
-1.233, 8.465e-7
-1.234, 7.084e-7
-1.235, 7.774e-7
-1.236, 9.057e-7
-1.237, 7.281e-7
-1.238, 7.873e-7
-1.239, 8.268e-7
-1.240, 8.366e-7
-1.241, 8.662e-7
-1.242, 8.662e-7
-1.243, 8.761e-7
-1.244, 8.366e-7
-1.245, 8.169e-7
-1.246, 8.860e-7
-1.247, 8.662e-7
-1.248, 9.254e-7
-1.249, 9.254e-7
-1.250, 8.070e-7
-1.251, 8.860e-7
-1.252, 8.662e-7
-1.253, 8.860e-7
-1.254, 9.254e-7
-1.255, 9.353e-7
-1.256, 9.057e-7
-1.257, 9.353e-7
-1.258, 8.070e-7
-1.259, 8.860e-7
-1.260, 8.465e-7
-1.261, 9.353e-7
-1.262, 9.353e-7
-1.263, 9.550e-7
-1.264, 9.254e-7
-1.265, 9.452e-7
-1.266, 8.169e-7
-1.267, 9.254e-7
-1.268, 9.550e-7
-1.269, 9.748e-7
-1.270, 9.353e-7
-1.271, 9.846e-7
-1.272, 8.465e-7
-1.273, 9.945e-7
-1.274, 1.004e-6
-1.275, 9.550e-7
-1.276, 1.044e-6
-1.277, 9.649e-7
-1.278, 1.004e-6
-1.279, 8.860e-7
-1.280, 1.014e-6
-1.281, 1.083e-6
-1.282, 1.034e-6
-1.283, 1.103e-6
-1.284, 9.846e-7
-1.285, 9.156e-7
-1.286, 1.034e-6
-1.287, 1.004e-6
-1.288, 1.004e-6
-1.289, 1.073e-6
-1.290, 1.064e-6
-1.291, 1.014e-6
-1.292, 9.945e-7
-1.293, 1.152e-6
-1.294, 9.846e-7
-1.295, 9.748e-7
-1.296, 1.113e-6
-1.297, 1.064e-6
-1.298, 1.054e-6
-1.299, 1.093e-6
-1.300, 1.004e-6
-1.301, 1.073e-6
-1.302, 1.024e-6
-1.303, 1.221e-6
-1.304, 1.113e-6
-1.305, 1.044e-6
-1.306, 1.221e-6
-1.307, 1.103e-6
-1.308, 1.152e-6
-1.309, 1.054e-6
-1.310, 1.142e-6
-1.311, 1.162e-6
-1.312, 1.123e-6
-1.313, 1.172e-6
-1.314, 1.093e-6
-1.315, 1.073e-6
-1.316, 1.064e-6
-1.317, 1.133e-6
-1.318, 1.221e-6
-1.319, 1.162e-6
-1.320, 1.172e-6
-1.321, 1.192e-6
-1.322, 1.044e-6
-1.323, 1.202e-6
-1.324, 1.113e-6
-1.325, 1.281e-6
-1.326, 1.152e-6
-1.327, 1.142e-6
-1.328, 1.251e-6
-1.329, 1.202e-6
-1.330, 1.182e-6
-1.331, 1.340e-6
-1.332, 1.221e-6
-1.333, 1.409e-6
-1.334, 1.231e-6
-1.335, 1.360e-6
-1.336, 1.241e-6
-1.337, 1.290e-6
-1.338, 1.320e-6
-1.339, 1.281e-6
-1.340, 1.300e-6
-1.341, 1.251e-6
-1.342, 1.251e-6
-1.343, 1.290e-6
-1.344, 1.369e-6
-1.345, 1.360e-6
-1.346, 1.290e-6
-1.347, 1.320e-6
-1.348, 1.429e-6
-1.349, 1.389e-6
-1.350, 1.251e-6
-1.351, 1.419e-6
-1.352, 1.360e-6
-1.353, 1.360e-6
-1.354, 1.409e-6
-1.355, 1.419e-6
-1.356, 1.409e-6
-1.357, 1.468e-6
-1.358, 1.369e-6
-1.359, 1.438e-6
-1.360, 1.488e-6
-1.361, 1.438e-6
-1.362, 1.350e-6
-1.363, 1.527e-6
-1.364, 1.399e-6
-1.365, 1.458e-6
-1.366, 1.488e-6
-1.367, 1.409e-6
-1.368, 1.438e-6
-1.369, 1.527e-6
-1.370, 1.517e-6
-1.371, 1.527e-6
-1.372, 1.527e-6
-1.373, 1.517e-6
-1.374, 1.537e-6
-1.375, 1.557e-6
-1.376, 1.567e-6
-1.377, 1.508e-6
-1.378, 1.586e-6
-1.379, 1.596e-6
-1.380, 1.567e-6
-1.381, 1.547e-6
-1.382, 1.537e-6
-1.383, 1.665e-6
-1.384, 1.596e-6
-1.385, 1.626e-6
-1.386, 1.596e-6
-1.387, 1.685e-6
-1.388, 1.616e-6
-1.389, 1.695e-6
-1.390, 1.626e-6
-1.391, 1.675e-6
-1.392, 1.586e-6
-1.393, 1.675e-6
-1.394, 1.675e-6
-1.395, 1.656e-6
-1.396, 1.665e-6
-1.397, 1.725e-6
-1.398, 1.774e-6
-1.399, 1.705e-6
-1.400, 1.685e-6
-1.401, 1.715e-6
-1.402, 1.774e-6
-1.403, 1.744e-6
-1.404, 1.695e-6
-1.405, 1.803e-6
-1.406, 1.725e-6
-1.407, 1.665e-6
-1.408, 1.853e-6
-1.409, 1.853e-6
-1.410, 1.744e-6
-1.411, 1.744e-6
-1.412, 1.774e-6
-1.413, 1.794e-6
-1.414, 1.764e-6
-1.415, 1.794e-6
-1.416, 1.833e-6
-1.417, 1.774e-6
-1.418, 1.833e-6
-1.419, 1.784e-6
-1.420, 1.744e-6
-1.421, 1.863e-6
-1.422, 1.833e-6
-1.423, 1.873e-6
-1.424, 1.892e-6
-1.425, 1.863e-6
-1.426, 1.823e-6
-1.427, 1.892e-6
-1.428, 1.932e-6
-1.429, 1.951e-6
-1.430, 1.823e-6
-1.431, 1.912e-6
-1.432, 1.803e-6
-1.433, 1.942e-6
-1.434, 2.030e-6
-1.435, 1.971e-6
-1.436, 2.099e-6
-1.437, 2.080e-6
-1.438, 2.119e-6
-1.439, 2.011e-6
-1.440, 2.109e-6
-1.441, 2.090e-6
-1.442, 1.942e-6
-1.443, 2.060e-6
-1.444, 2.021e-6
-1.445, 2.011e-6
-1.446, 2.099e-6
-1.447, 2.109e-6
-1.448, 2.070e-6
-1.449, 2.090e-6
-1.450, 2.011e-6
-1.451, 2.159e-6
-1.452, 2.139e-6
-1.453, 2.159e-6
-1.454, 2.090e-6
-1.455, 2.050e-6
-1.456, 2.149e-6
-1.457, 2.109e-6
-1.458, 2.119e-6
-1.459, 2.119e-6
-1.460, 2.159e-6
-1.461, 2.198e-6
-1.462, 2.228e-6
-1.463, 2.228e-6
-1.464, 2.198e-6
-1.465, 2.169e-6
-1.466, 2.198e-6
-1.467, 2.188e-6
-1.468, 2.188e-6
-1.469, 2.159e-6
-1.470, 2.129e-6
-1.471, 2.247e-6
-1.472, 2.257e-6
-1.473, 2.376e-6
-1.474, 2.228e-6
-1.475, 2.178e-6
-1.476, 2.169e-6
-1.477, 2.257e-6
-1.478, 2.386e-6
-1.479, 2.277e-6
-1.480, 2.257e-6
-1.481, 2.336e-6
-1.482, 2.277e-6
-1.483, 2.317e-6
-1.484, 2.277e-6
-1.485, 2.336e-6
-1.486, 2.307e-6
-1.487, 2.395e-6
-1.488, 2.445e-6
-1.489, 2.425e-6
-1.490, 2.405e-6
-1.491, 2.425e-6
-1.492, 2.435e-6
-1.493, 2.415e-6
-1.494, 2.386e-6
-1.495, 2.415e-6
-1.496, 2.425e-6
-1.497, 2.435e-6
-1.498, 2.573e-6
-1.499, 2.415e-6
-1.500, 2.405e-6
-1.501, 2.524e-6
-1.502, 2.445e-6
-1.503, 2.613e-6
-1.504, 2.583e-6
-1.505, 2.504e-6
-1.506, 2.543e-6
-1.507, 2.553e-6
-1.508, 2.603e-6
-1.509, 2.613e-6
-1.510, 2.543e-6
-1.511, 2.672e-6
-1.512, 2.691e-6
-1.513, 2.701e-6
-1.514, 2.662e-6
-1.515, 2.652e-6
-1.516, 2.721e-6
-1.517, 2.613e-6
-1.518, 2.800e-6
-1.519, 2.721e-6
-1.520, 2.741e-6
-1.521, 2.810e-6
-1.522, 2.662e-6
-1.523, 2.849e-6
-1.524, 2.820e-6
-1.525, 2.839e-6
-1.526, 2.899e-6
-1.527, 2.879e-6
-1.528, 2.889e-6
-1.529, 2.780e-6
-1.530, 2.839e-6
-1.531, 2.958e-6
-1.532, 2.899e-6
-1.533, 2.968e-6
-1.534, 2.948e-6
-1.535, 2.908e-6
-1.536, 3.096e-6
-1.537, 3.037e-6
-1.538, 3.096e-6
-1.539, 3.126e-6
-1.540, 3.076e-6
-1.541, 3.185e-6
-1.542, 3.106e-6
-1.543, 3.234e-6
-1.544, 3.175e-6
-1.545, 3.086e-6
-1.546, 3.244e-6
-1.547, 3.264e-6
-1.548, 3.303e-6
-1.549, 3.313e-6
-1.550, 3.372e-6
-1.551, 3.352e-6
-1.552, 3.303e-6
-1.553, 3.422e-6
-1.554, 3.352e-6
-1.555, 3.402e-6
-1.556, 3.451e-6
-1.557, 3.530e-6
-1.558, 3.422e-6
-1.559, 3.570e-6
-1.560, 3.530e-6
-1.561, 3.579e-6
-1.562, 3.648e-6
-1.563, 3.668e-6
-1.564, 3.668e-6
-1.565, 3.737e-6
-1.566, 3.796e-6
-1.567, 3.658e-6
-1.568, 3.865e-6
-1.569, 3.865e-6
-1.570, 3.846e-6
-1.571, 3.944e-6
-1.572, 3.865e-6
-1.573, 3.865e-6
-1.574, 4.033e-6
-1.575, 4.053e-6
-1.576, 4.191e-6
-1.577, 4.023e-6
-1.578, 4.132e-6
-1.579, 4.211e-6
-1.580, 4.152e-6
-1.581, 4.250e-6
-1.582, 4.329e-6
-1.583, 4.300e-6
-1.584, 4.300e-6
-1.585, 4.349e-6
-1.586, 4.379e-6
-1.587, 4.526e-6
-1.588, 4.655e-6
-1.589, 4.674e-6
-1.590, 4.615e-6
-1.591, 4.655e-6
-1.592, 4.645e-6
-1.593, 4.763e-6
-1.594, 4.852e-6
-1.595, 4.832e-6
-1.596, 5.000e-6
-1.597, 4.882e-6
-1.598, 5.049e-6
-1.599, 5.040e-6
-1.600, 5.197e-6
-1.601, 5.148e-6
-1.602, 5.099e-6
-1.603, 5.266e-6
-1.604, 5.395e-6
-1.605, 5.365e-6
-1.606, 5.572e-6
-1.607, 5.553e-6
-1.608, 5.612e-6
-1.609, 5.572e-6
-1.610, 5.720e-6
-1.611, 5.789e-6
-1.612, 5.839e-6
-1.613, 5.957e-6
-1.614, 5.927e-6
-1.615, 6.036e-6
-1.616, 6.154e-6
-1.617, 6.214e-6
-1.618, 6.312e-6
-1.619, 6.352e-6
-1.620, 6.470e-6
-1.621, 6.480e-6
-1.622, 6.549e-6
-1.623, 6.707e-6
-1.624, 6.746e-6
-1.625, 6.786e-6
-1.626, 6.944e-6
-1.627, 7.042e-6
-1.628, 7.102e-6
-1.629, 7.161e-6
-1.630, 7.338e-6
-1.631, 7.378e-6
-1.632, 7.447e-6
-1.633, 7.575e-6
-1.634, 7.782e-6
-1.635, 7.841e-6
-1.636, 7.881e-6
-1.637, 7.920e-6
-1.638, 8.246e-6
-1.639, 8.315e-6
-1.640, 8.404e-6
-1.641, 8.572e-6
-1.642, 8.690e-6
-1.643, 8.897e-6
-1.644, 8.986e-6
-1.645, 9.104e-6
-1.646, 9.292e-6
-1.647, 9.252e-6
-1.648, 9.469e-6
-1.649, 9.568e-6
-1.650, 9.617e-6
-1.651, 9.973e-6
-1.652, 1.007e-5
-1.653, 1.029e-5
-1.654, 1.035e-5
-1.655, 1.055e-5
-1.656, 1.079e-5
-1.657, 1.079e-5
-1.658, 1.122e-5
-1.659, 1.127e-5
-1.660, 1.136e-5
-1.661, 1.163e-5
-1.662, 1.171e-5
-1.663, 1.192e-5
-1.664, 1.222e-5
-1.665, 1.240e-5
-1.666, 1.262e-5
-1.667, 1.275e-5
-1.668, 1.309e-5
-1.669, 1.325e-5
-1.670, 1.344e-5
-1.671, 1.370e-5
-1.672, 1.392e-5
-1.673, 1.425e-5
-1.674, 1.443e-5
-1.675, 1.469e-5
-1.676, 1.496e-5
-1.677, 1.516e-5
-1.678, 1.559e-5
-1.679, 1.571e-5
-1.680, 1.608e-5
-1.681, 1.639e-5
-1.682, 1.666e-5
-1.683, 1.710e-5
-1.684, 1.729e-5
-1.685, 1.764e-5
-1.686, 1.803e-5
-1.687, 1.832e-5
-1.688, 1.867e-5
-1.689, 1.905e-5
-1.690, 1.945e-5
-1.691, 1.990e-5
-1.692, 2.018e-5
-1.693, 2.066e-5
-1.694, 2.094e-5
-1.695, 2.132e-5
-1.696, 2.180e-5
-1.697, 2.236e-5
-1.698, 2.274e-5
-1.699, 2.314e-5
-1.700, 2.371e-5
-1.701, 2.414e-5
-1.702, 2.471e-5
-1.703, 2.527e-5
-1.704, 2.585e-5
-1.705, 2.635e-5
-1.706, 2.679e-5
-1.707, 2.738e-5
-1.708, 2.798e-5
-1.709, 2.872e-5
-1.710, 2.934e-5
-1.711, 2.986e-5
-1.712, 3.054e-5
-1.713, 3.128e-5
-1.714, 3.194e-5
-1.715, 3.273e-5
-1.716, 3.346e-5
-1.717, 3.414e-5
-1.718, 3.500e-5
-1.719, 3.579e-5
-1.720, 3.652e-5
-1.721, 3.737e-5
-1.722, 3.831e-5
-1.723, 3.919e-5
-1.724, 4.007e-5
-1.725, 4.085e-5
-1.726, 4.186e-5
-1.727, 4.287e-5
-1.728, 4.404e-5
-1.729, 4.507e-5
-1.730, 4.606e-5
-1.731, 4.724e-5
-1.732, 4.826e-5
-1.733, 4.953e-5
-1.734, 5.073e-5
-1.735, 5.187e-5
-1.736, 5.322e-5
-1.737, 5.447e-5
-1.738, 5.593e-5
-1.739, 5.726e-5
-1.740, 5.858e-5
-1.741, 6.011e-5
-1.742, 6.161e-5
-1.743, 6.328e-5
-1.744, 6.481e-5
-1.745, 6.648e-5
-1.746, 6.818e-5
-1.747, 6.981e-5
-1.748, 7.170e-5
-1.749, 7.348e-5
-1.750, 7.536e-5
-1.751, 7.739e-5
-1.752, 7.929e-5
-1.753, 8.158e-5
-1.754, 8.371e-5
-1.755, 8.591e-5
-1.756, 8.820e-5
-1.757, 9.058e-5
-1.758, 9.310e-5
-1.759, 9.551e-5
-1.760, 9.805e-5
-1.761, 1.008e-4
-1.762, 1.034e-4
-1.763, 1.064e-4
-1.764, 1.092e-4
-1.765, 1.120e-4
-1.766, 1.153e-4
-1.767, 1.184e-4
-1.768, 1.218e-4
-1.769, 1.251e-4
-1.770, 1.286e-4
-1.771, 1.322e-4
-1.772, 1.359e-4
-1.773, 1.399e-4
-1.774, 1.438e-4
-1.775, 1.478e-4
-1.776, 1.522e-4
-1.777, 1.564e-4
-1.778, 1.610e-4
-1.779, 1.657e-4
-1.780, 1.705e-4
-1.781, 1.752e-4
-1.782, 1.802e-4
-1.783, 1.855e-4
-1.784, 1.908e-4
-1.785, 1.964e-4
-1.786, 2.021e-4
-1.787, 2.079e-4
-1.788, 2.140e-4
-1.789, 2.201e-4
-1.790, 2.264e-4
-1.791, 2.328e-4
-1.792, 2.397e-4
-1.793, 2.469e-4
-1.794, 2.541e-4
-1.795, 2.615e-4
-1.796, 2.691e-4
-1.797, 2.769e-4
-1.798, 2.852e-4
-1.799, 2.935e-4
-1.800, 3.021e-4
-1.801, 3.108e-4
-1.802, 3.200e-4
-1.803, 3.297e-4
-1.804, 3.394e-4
-1.805, 3.494e-4
-1.806, 3.596e-4
-1.807, 3.701e-4
-1.808, 3.812e-4
-1.809, 3.924e-4
-1.810, 4.039e-4
-1.811, 4.156e-4
-1.812, 4.274e-4
-1.813, 4.399e-4
-1.814, 4.530e-4
-1.815, 4.662e-4
-1.816, 4.797e-4
-1.817, 4.934e-4
-1.818, 5.080e-4
-1.819, 5.229e-4
-1.820, 5.380e-4
-1.821, 5.534e-4
-1.822, 5.693e-4
-1.823, 5.858e-4
-1.824, 6.025e-4
-1.825, 6.196e-4
-1.826, 6.369e-4
-1.827, 6.549e-4
-1.828, 6.738e-4
-1.829, 6.930e-4
-1.830, 7.126e-4
-1.831, 7.323e-4
-1.832, 7.526e-4
-1.833, 7.741e-4
-1.834, 7.960e-4
-1.835, 8.182e-4
-1.836, 8.412e-4
-1.837, 8.639e-4
-1.838, 8.878e-4
-1.839, 9.125e-4
-1.840, 9.374e-4
-1.841, 9.627e-4
-1.842, 9.884e-4
-1.843, 1.015e-3
-1.844, 1.042e-3
-1.845, 1.070e-3
-1.846, 1.098e-3
-1.847, 1.127e-3
-1.848, 1.157e-3
-1.849, 1.187e-3
-1.850, 1.217e-3
-1.851, 1.248e-3
-1.852, 1.280e-3
-1.853, 1.313e-3
-1.854, 1.346e-3
-1.855, 1.381e-3
-1.856, 1.415e-3
-1.857, 1.450e-3
-1.858, 1.486e-3
-1.859, 1.523e-3
-1.860, 1.561e-3
-1.861, 1.600e-3
-1.862, 1.639e-3
-1.863, 1.678e-3
-1.864, 1.718e-3
-1.865, 1.760e-3
-1.866, 1.801e-3
-1.867, 1.843e-3
-1.868, 1.886e-3
-1.869, 1.930e-3
-1.870, 1.976e-3
-1.871, 2.021e-3
-1.872, 2.066e-3
-1.873, 2.111e-3
-1.874, 2.158e-3
-1.875, 2.207e-3
-1.876, 2.257e-3
-1.877, 2.306e-3
-1.878, 2.356e-3
-1.879, 2.408e-3
-1.880, 2.460e-3
-1.881, 2.512e-3
-1.882, 2.566e-3
-1.883, 2.620e-3
-1.884, 2.675e-3
-1.885, 2.727e-3
-1.886, 2.777e-3
-1.887, 2.835e-3
-1.888, 2.895e-3
-1.889, 2.957e-3
-1.890, 3.016e-3
-1.891, 3.075e-3
-1.892, 3.134e-3
-1.893, 3.195e-3
-1.894, 3.256e-3
-1.895, 3.322e-3
-1.896, 3.388e-3
-1.897, 3.454e-3
-1.898, 3.519e-3
-1.899, 3.582e-3
-1.900, 3.643e-3
-1.901, 3.707e-3
-1.902, 3.777e-3
-1.903, 3.847e-3
-1.904, 3.914e-3
-1.905, 3.983e-3
-1.906, 4.047e-3
-1.907, 4.120e-3
-1.908, 4.195e-3
-1.909, 4.265e-3
-1.910, 4.332e-3
-1.911, 4.399e-3
-1.912, 4.470e-3
-1.913, 4.544e-3
-1.914, 4.621e-3
-1.915, 4.697e-3
-1.916, 4.770e-3
-1.917, 4.844e-3
-1.918, 4.919e-3
-1.919, 4.994e-3
-1.920, 5.073e-3
-1.921, 5.148e-3
-1.922, 5.225e-3
-1.923, 5.304e-3
-1.924, 5.386e-3
-1.925, 5.466e-3
-1.926, 5.546e-3
-1.927, 5.626e-3
-1.928, 5.711e-3
-1.929, 5.793e-3
-1.930, 5.873e-3
-1.931, 5.956e-3
-1.932, 6.042e-3
-1.933, 6.124e-3
-1.934, 6.211e-3
-1.935, 6.298e-3
-1.936, 6.383e-3
-1.937, 6.468e-3
-1.938, 6.552e-3
-1.939, 6.639e-3
-1.940, 6.733e-3
-1.941, 6.824e-3
-1.942, 6.909e-3
-1.943, 7.009e-3
-1.944, 7.097e-3
-1.945, 7.183e-3
-1.946, 7.267e-3
-1.947, 7.334e-3
-1.948, 7.415e-3
-1.949, 7.510e-3
-1.950, 7.612e-3
-1.951, 7.700e-3
-1.952, 7.776e-3
-1.953, 7.848e-3
-1.954, 7.921e-3
-1.955, 7.986e-3
-1.956, 8.073e-3
-1.957, 8.161e-3
-1.958, 8.244e-3
-1.959, 8.304e-3
-1.960, 8.380e-3
-1.961, 8.471e-3
-1.962, 8.558e-3
-1.963, 8.636e-3
-1.964, 8.703e-3
-1.965, 8.766e-3
-1.966, 8.837e-3
-1.967, 8.912e-3
-1.968, 8.988e-3
-1.969, 9.068e-3
-1.970, 9.130e-3
-1.971, 9.201e-3
-1.972, 9.280e-3
-1.973, 9.369e-3
-1.974, 9.462e-3
-1.975, 9.546e-3
-1.976, 9.627e-3
-1.977, 9.716e-3
-1.978, 9.807e-3
-1.979, 9.880e-3
-1.980, 9.948e-3
-1.981, 1.003e-2
-1.982, 1.011e-2
-1.983, 1.019e-2
-1.984, 1.026e-2
-1.985, 1.032e-2
-1.986, 1.038e-2
-1.987, 1.044e-2
-1.988, 1.051e-2
-1.989, 1.059e-2
-1.990, 1.065e-2
-1.991, 1.072e-2
-1.992, 1.081e-2
-1.993, 1.089e-2
-1.994, 1.094e-2
-1.995, 1.103e-2
-1.996, 1.112e-2
-1.997, 1.119e-2
-1.998, 1.126e-2
-1.999, 1.131e-2
-2.000, 1.135e-2
-1.999, 1.132e-2
-1.998, 1.127e-2
-1.997, 1.119e-2
-1.996, 1.113e-2
-1.995, 1.106e-2
-1.994, 1.097e-2
-1.993, 1.088e-2
-1.992, 1.083e-2
-1.991, 1.081e-2
-1.990, 1.076e-2
-1.989, 1.069e-2
-1.988, 1.061e-2
-1.987, 1.055e-2
-1.986, 1.047e-2
-1.985, 1.041e-2
-1.984, 1.034e-2
-1.983, 1.027e-2
-1.982, 1.018e-2
-1.981, 1.010e-2
-1.980, 1.004e-2
-1.979, 9.964e-3
-1.978, 9.869e-3
-1.977, 9.789e-3
-1.976, 9.735e-3
-1.975, 9.687e-3
-1.974, 9.705e-3
-1.973, 9.701e-3
-1.972, 9.614e-3
-1.971, 9.498e-3
-1.970, 9.404e-3
-1.969, 9.339e-3
-1.968, 9.287e-3
-1.967, 9.227e-3
-1.966, 9.164e-3
-1.965, 9.101e-3
-1.964, 9.035e-3
-1.963, 8.957e-3
-1.962, 8.903e-3
-1.961, 8.825e-3
-1.960, 8.750e-3
-1.959, 8.687e-3
-1.958, 8.616e-3
-1.957, 8.534e-3
-1.956, 8.455e-3
-1.955, 8.380e-3
-1.954, 8.309e-3
-1.953, 8.246e-3
-1.952, 8.189e-3
-1.951, 8.133e-3
-1.950, 8.077e-3
-1.949, 8.031e-3
-1.948, 7.983e-3
-1.947, 7.938e-3
-1.946, 7.896e-3
-1.945, 7.862e-3
-1.944, 7.812e-3
-1.943, 7.748e-3
-1.942, 7.686e-3
-1.941, 7.617e-3
-1.940, 7.551e-3
-1.939, 7.495e-3
-1.938, 7.426e-3
-1.937, 7.359e-3
-1.936, 7.299e-3
-1.935, 7.226e-3
-1.934, 7.170e-3
-1.933, 7.122e-3
-1.932, 7.065e-3
-1.931, 6.999e-3
-1.930, 6.930e-3
-1.929, 6.866e-3
-1.928, 6.808e-3
-1.927, 6.749e-3
-1.926, 6.692e-3
-1.925, 6.611e-3
-1.924, 6.545e-3
-1.923, 6.490e-3
-1.922, 6.412e-3
-1.921, 6.344e-3
-1.920, 6.283e-3
-1.919, 6.225e-3
-1.918, 6.170e-3
-1.917, 6.112e-3
-1.916, 6.051e-3
-1.915, 5.993e-3
-1.914, 5.934e-3
-1.913, 5.872e-3
-1.912, 5.806e-3
-1.911, 5.747e-3
-1.910, 5.696e-3
-1.909, 5.634e-3
-1.908, 5.576e-3
-1.907, 5.514e-3
-1.906, 5.456e-3
-1.905, 5.399e-3
-1.904, 5.343e-3
-1.903, 5.279e-3
-1.902, 5.226e-3
-1.901, 5.172e-3
-1.900, 5.111e-3
-1.899, 5.048e-3
-1.898, 4.992e-3
-1.897, 4.949e-3
-1.896, 4.896e-3
-1.895, 4.838e-3
-1.894, 4.780e-3
-1.893, 4.725e-3
-1.892, 4.670e-3
-1.891, 4.620e-3
-1.890, 4.567e-3
-1.889, 4.513e-3
-1.888, 4.457e-3
-1.887, 4.404e-3
-1.886, 4.354e-3
-1.885, 4.304e-3
-1.884, 4.253e-3
-1.883, 4.200e-3
-1.882, 4.149e-3
-1.881, 4.091e-3
-1.880, 4.051e-3
-1.879, 4.009e-3
-1.878, 3.962e-3
-1.877, 3.915e-3
-1.876, 3.864e-3
-1.875, 3.812e-3
-1.874, 3.765e-3
-1.873, 3.715e-3
-1.872, 3.661e-3
-1.871, 3.609e-3
-1.870, 3.563e-3
-1.869, 3.522e-3
-1.868, 3.473e-3
-1.867, 3.423e-3
-1.866, 3.377e-3
-1.865, 3.334e-3
-1.864, 3.291e-3
-1.863, 3.247e-3
-1.862, 3.199e-3
-1.861, 3.155e-3
-1.860, 3.115e-3
-1.859, 3.070e-3
-1.858, 3.027e-3
-1.857, 2.985e-3
-1.856, 2.943e-3
-1.855, 2.901e-3
-1.854, 2.861e-3
-1.853, 2.820e-3
-1.852, 2.777e-3
-1.851, 2.740e-3
-1.850, 2.702e-3
-1.849, 2.666e-3
-1.848, 2.628e-3
-1.847, 2.589e-3
-1.846, 2.551e-3
-1.845, 2.514e-3
-1.844, 2.476e-3
-1.843, 2.439e-3
-1.842, 2.403e-3
-1.841, 2.366e-3
-1.840, 2.331e-3
-1.839, 2.294e-3
-1.838, 2.258e-3
-1.837, 2.223e-3
-1.836, 2.190e-3
-1.835, 2.156e-3
-1.834, 2.121e-3
-1.833, 2.087e-3
-1.832, 2.054e-3
-1.831, 2.022e-3
-1.830, 1.990e-3
-1.829, 1.957e-3
-1.828, 1.926e-3
-1.827, 1.895e-3
-1.826, 1.864e-3
-1.825, 1.834e-3
-1.824, 1.804e-3
-1.823, 1.774e-3
-1.822, 1.746e-3
-1.821, 1.717e-3
-1.820, 1.689e-3
-1.819, 1.661e-3
-1.818, 1.634e-3
-1.817, 1.607e-3
-1.816, 1.580e-3
-1.815, 1.554e-3
-1.814, 1.528e-3
-1.813, 1.502e-3
-1.812, 1.476e-3
-1.811, 1.452e-3
-1.810, 1.428e-3
-1.809, 1.403e-3
-1.808, 1.378e-3
-1.807, 1.355e-3
-1.806, 1.332e-3
-1.805, 1.309e-3
-1.804, 1.286e-3
-1.803, 1.264e-3
-1.802, 1.242e-3
-1.801, 1.221e-3
-1.800, 1.201e-3
-1.799, 1.181e-3
-1.798, 1.160e-3
-1.797, 1.139e-3
-1.796, 1.119e-3
-1.795, 1.100e-3
-1.794, 1.080e-3
-1.793, 1.058e-3
-1.792, 1.036e-3
-1.791, 1.015e-3
-1.790, 9.961e-4
-1.789, 9.774e-4
-1.788, 9.589e-4
-1.787, 9.413e-4
-1.786, 9.244e-4
-1.785, 9.072e-4
-1.784, 8.900e-4
-1.783, 8.727e-4
-1.782, 8.555e-4
-1.781, 8.394e-4
-1.780, 8.234e-4
-1.779, 8.077e-4
-1.778, 7.926e-4
-1.777, 7.779e-4
-1.776, 7.640e-4
-1.775, 7.497e-4
-1.774, 7.356e-4
-1.773, 7.219e-4
-1.772, 7.084e-4
-1.771, 6.955e-4
-1.770, 6.827e-4
-1.769, 6.700e-4
-1.768, 6.574e-4
-1.767, 6.451e-4
-1.766, 6.332e-4
-1.765, 6.216e-4
-1.764, 6.101e-4
-1.763, 5.986e-4
-1.762, 5.878e-4
-1.761, 5.770e-4
-1.760, 5.663e-4
-1.759, 5.556e-4
-1.758, 5.452e-4
-1.757, 5.352e-4
-1.756, 5.253e-4
-1.755, 5.156e-4
-1.754, 5.058e-4
-1.753, 4.961e-4
-1.752, 4.870e-4
-1.751, 4.781e-4
-1.750, 4.692e-4
-1.749, 4.604e-4
-1.748, 4.516e-4
-1.747, 4.432e-4
-1.746, 4.351e-4
-1.745, 4.270e-4
-1.744, 4.191e-4
-1.743, 4.111e-4
-1.742, 4.035e-4
-1.741, 3.958e-4
-1.740, 3.883e-4
-1.739, 3.809e-4
-1.738, 3.734e-4
-1.737, 3.664e-4
-1.736, 3.596e-4
-1.735, 3.527e-4
-1.734, 3.459e-4
-1.733, 3.392e-4
-1.732, 3.328e-4
-1.731, 3.264e-4
-1.730, 3.203e-4
-1.729, 3.141e-4
-1.728, 3.079e-4
-1.727, 3.021e-4
-1.726, 2.963e-4
-1.725, 2.907e-4
-1.724, 2.850e-4
-1.723, 2.795e-4
-1.722, 2.740e-4
-1.721, 2.688e-4
-1.720, 2.637e-4
-1.719, 2.585e-4
-1.718, 2.534e-4
-1.717, 2.486e-4
-1.716, 2.439e-4
-1.715, 2.391e-4
-1.714, 2.346e-4
-1.713, 2.300e-4
-1.712, 2.257e-4
-1.711, 2.215e-4
-1.710, 2.173e-4
-1.709, 2.131e-4
-1.708, 2.089e-4
-1.707, 2.050e-4
-1.706, 2.011e-4
-1.705, 1.972e-4
-1.704, 1.933e-4
-1.703, 1.896e-4
-1.702, 1.859e-4
-1.701, 1.824e-4
-1.700, 1.788e-4
-1.699, 1.753e-4
-1.698, 1.718e-4
-1.697, 1.685e-4
-1.696, 1.653e-4
-1.695, 1.621e-4
-1.694, 1.589e-4
-1.693, 1.557e-4
-1.692, 1.527e-4
-1.691, 1.499e-4
-1.690, 1.470e-4
-1.689, 1.440e-4
-1.688, 1.412e-4
-1.687, 1.385e-4
-1.686, 1.358e-4
-1.685, 1.332e-4
-1.684, 1.306e-4
-1.683, 1.280e-4
-1.682, 1.255e-4
-1.681, 1.231e-4
-1.680, 1.208e-4
-1.679, 1.185e-4
-1.678, 1.161e-4
-1.677, 1.140e-4
-1.676, 1.118e-4
-1.675, 1.097e-4
-1.674, 1.076e-4
-1.673, 1.055e-4
-1.672, 1.035e-4
-1.671, 1.016e-4
-1.670, 9.956e-5
-1.669, 9.767e-5
-1.668, 9.572e-5
-1.667, 9.385e-5
-1.666, 9.220e-5
-1.665, 9.041e-5
-1.664, 8.861e-5
-1.663, 8.687e-5
-1.662, 8.522e-5
-1.661, 8.367e-5
-1.660, 8.202e-5
-1.659, 8.039e-5
-1.658, 7.886e-5
-1.657, 7.735e-5
-1.656, 7.592e-5
-1.655, 7.453e-5
-1.654, 7.305e-5
-1.653, 7.169e-5
-1.652, 7.035e-5
-1.651, 6.902e-5
-1.650, 6.765e-5
-1.649, 6.640e-5
-1.648, 6.513e-5
-1.647, 6.398e-5
-1.646, 6.276e-5
-1.645, 6.155e-5
-1.644, 6.035e-5
-1.643, 5.922e-5
-1.642, 5.809e-5
-1.641, 5.701e-5
-1.640, 5.602e-5
-1.639, 5.487e-5
-1.638, 5.370e-5
-1.637, 5.272e-5
-1.636, 5.162e-5
-1.635, 5.060e-5
-1.634, 4.974e-5
-1.633, 4.870e-5
-1.632, 4.790e-5
-1.631, 4.699e-5
-1.630, 4.604e-5
-1.629, 4.521e-5
-1.628, 4.436e-5
-1.627, 4.362e-5
-1.626, 4.271e-5
-1.625, 4.191e-5
-1.624, 4.096e-5
-1.623, 4.030e-5
-1.622, 3.951e-5
-1.621, 3.888e-5
-1.620, 3.802e-5
-1.619, 3.732e-5
-1.618, 3.653e-5
-1.617, 3.595e-5
-1.616, 3.529e-5
-1.615, 3.452e-5
-1.614, 3.392e-5
-1.613, 3.320e-5
-1.612, 3.261e-5
-1.611, 3.192e-5
-1.610, 3.127e-5
-1.609, 3.078e-5
-1.608, 3.020e-5
-1.607, 2.957e-5
-1.606, 2.896e-5
-1.605, 2.841e-5
-1.604, 2.791e-5
-1.603, 2.728e-5
-1.602, 2.688e-5
-1.601, 2.637e-5
-1.600, 2.575e-5
-1.599, 2.519e-5
-1.598, 2.472e-5
-1.597, 2.440e-5
-1.596, 2.390e-5
-1.595, 2.329e-5
-1.594, 2.289e-5
-1.593, 2.243e-5
-1.592, 2.209e-5
-1.591, 2.167e-5
-1.590, 2.125e-5
-1.589, 2.082e-5
-1.588, 2.043e-5
-1.587, 1.998e-5
-1.586, 1.951e-5
-1.585, 1.927e-5
-1.584, 1.887e-5
-1.583, 1.842e-5
-1.582, 1.820e-5
-1.581, 1.782e-5
-1.580, 1.746e-5
-1.579, 1.714e-5
-1.578, 1.670e-5
-1.577, 1.642e-5
-1.576, 1.614e-5
-1.575, 1.582e-5
-1.574, 1.546e-5
-1.573, 1.521e-5
-1.572, 1.489e-5
-1.571, 1.454e-5
-1.570, 1.434e-5
-1.569, 1.412e-5
-1.568, 1.374e-5
-1.567, 1.350e-5
-1.566, 1.333e-5
-1.565, 1.297e-5
-1.564, 1.278e-5
-1.563, 1.252e-5
-1.562, 1.221e-5
-1.561, 1.198e-5
-1.560, 1.178e-5
-1.559, 1.167e-5
-1.558, 1.124e-5
-1.557, 1.108e-5
-1.556, 1.096e-5
-1.555, 1.058e-5
-1.554, 1.043e-5
-1.553, 1.020e-5
-1.552, 1.007e-5
-1.551, 9.894e-6
-1.550, 9.578e-6
-1.549, 9.420e-6
-1.548, 9.233e-6
-1.547, 9.114e-6
-1.546, 8.996e-6
-1.545, 8.700e-6
-1.544, 8.542e-6
-1.543, 8.364e-6
-1.542, 8.236e-6
-1.541, 8.078e-6
-1.540, 7.891e-6
-1.539, 7.782e-6
-1.538, 7.565e-6
-1.537, 7.437e-6
-1.536, 7.250e-6
-1.535, 7.141e-6
-1.534, 6.983e-6
-1.533, 6.756e-6
-1.532, 6.717e-6
-1.531, 6.519e-6
-1.530, 6.450e-6
-1.529, 6.293e-6
-1.528, 6.184e-6
-1.527, 6.085e-6
-1.526, 5.927e-6
-1.525, 5.809e-6
-1.524, 5.671e-6
-1.523, 5.592e-6
-1.522, 5.483e-6
-1.521, 5.306e-6
-1.520, 5.257e-6
-1.519, 5.109e-6
-1.518, 4.980e-6
-1.517, 4.951e-6
-1.516, 4.813e-6
-1.515, 4.724e-6
-1.514, 4.684e-6
-1.513, 4.517e-6
-1.512, 4.428e-6
-1.511, 4.329e-6
-1.510, 4.201e-6
-1.509, 4.102e-6
-1.508, 3.954e-6
-1.507, 3.925e-6
-1.506, 3.865e-6
-1.505, 3.935e-6
-1.504, 3.717e-6
-1.503, 3.609e-6
-1.502, 3.619e-6
-1.501, 3.500e-6
-1.500, 3.471e-6
-1.499, 3.382e-6
-1.498, 3.244e-6
-1.497, 3.106e-6
-1.496, 3.185e-6
-1.495, 2.978e-6
-1.494, 2.997e-6
-1.493, 2.879e-6
-1.492, 2.869e-6
-1.491, 2.760e-6
-1.490, 2.672e-6
-1.489, 2.691e-6
-1.488, 2.543e-6
-1.487, 2.514e-6
-1.486, 2.504e-6
-1.485, 2.317e-6
-1.484, 2.277e-6
-1.483, 2.198e-6
-1.482, 2.149e-6
-1.481, 2.218e-6
-1.480, 2.099e-6
-1.479, 2.080e-6
-1.478, 1.951e-6
-1.477, 1.932e-6
-1.476, 1.843e-6
-1.475, 1.873e-6
-1.474, 1.794e-6
-1.473, 1.823e-6
-1.472, 1.636e-6
-1.471, 1.656e-6
-1.470, 1.616e-6
-1.469, 1.616e-6
-1.468, 1.448e-6
-1.467, 1.458e-6
-1.466, 1.409e-6
-1.465, 1.458e-6
-1.464, 1.350e-6
-1.463, 1.320e-6
-1.462, 1.350e-6
-1.461, 1.261e-6
-1.460, 1.221e-6
-1.459, 1.113e-6
-1.458, 1.123e-6
-1.457, 1.024e-6
-1.456, 1.093e-6
-1.455, 1.083e-6
-1.454, 1.064e-6
-1.453, 9.353e-7
-1.452, 8.465e-7
-1.451, 8.761e-7
-1.450, 8.465e-7
-1.449, 8.564e-7
-1.448, 8.169e-7
-1.447, 7.873e-7
-1.446, 7.182e-7
-1.445, 6.590e-7
-1.444, 6.097e-7
-1.443, 6.196e-7
-1.442, 6.196e-7
-1.441, 5.703e-7
-1.440, 5.801e-7
-1.439, 5.209e-7
-1.438, 5.209e-7
-1.437, 4.815e-7
-1.436, 5.209e-7
-1.435, 4.815e-7
-1.434, 3.236e-7
-1.433, 2.841e-7
-1.432, 3.335e-7
-1.431, 2.940e-7
-1.430, 1.559e-7
-1.429, 1.855e-7
-1.428, 1.066e-7
-1.427, 1.460e-7
-1.426, 1.362e-7
-1.425, 1.066e-7
-1.424, 9.669e-8
-1.423, 9.669e-8
-1.422, 1.460e-7
-1.421, 3.749e-8
-1.420, -8.090e-8
-1.419, -4.144e-8
-1.418, -7.103e-8
-1.417, -3.157e-8
-1.416, 1.776e-8
-1.415, -3.157e-8
-1.414, -1.204e-7
-1.413, -1.105e-7
-1.412, -1.697e-7
-1.411, -1.006e-7
-1.410, -1.894e-7
-1.409, -1.598e-7
-1.408, -3.078e-7
-1.407, -2.486e-7
-1.406, -2.684e-7
-1.405, -2.782e-7
-1.404, -2.684e-7
-1.403, -3.374e-7
-1.402, -2.289e-7
-1.401, -2.782e-7
-1.400, -3.374e-7
-1.399, -3.078e-7
-1.398, -4.065e-7
-1.397, -3.374e-7
-1.396, -3.867e-7
-1.395, -5.150e-7
-1.394, -4.262e-7
-1.393, -4.755e-7
-1.392, -4.065e-7
-1.391, -4.065e-7
-1.390, -5.150e-7
-1.389, -4.755e-7
-1.388, -5.150e-7
-1.387, -3.769e-7
-1.386, -4.262e-7
-1.385, -5.347e-7
-1.384, -4.854e-7
-1.383, -5.150e-7
-1.382, -5.545e-7
-1.381, -6.137e-7
-1.380, -6.235e-7
-1.379, -5.841e-7
-1.378, -6.531e-7
-1.377, -6.531e-7
-1.376, -6.334e-7
-1.375, -6.926e-7
-1.374, -6.531e-7
-1.373, -6.827e-7
-1.372, -7.123e-7
-1.371, -6.827e-7
-1.370, -7.321e-7
-1.369, -6.926e-7
-1.368, -7.518e-7
-1.367, -6.630e-7
-1.366, -7.123e-7
-1.365, -7.222e-7
-1.364, -8.110e-7
-1.363, -7.814e-7
-1.362, -7.222e-7
-1.361, -7.814e-7
-1.360, -7.912e-7
-1.359, -7.025e-7
-1.358, -8.800e-7
-1.357, -7.617e-7
-1.356, -7.912e-7
-1.355, -9.688e-7
-1.354, -8.899e-7
-1.353, -8.998e-7
-1.352, -9.096e-7
-1.351, -8.307e-7
-1.350, -9.096e-7
-1.349, -9.096e-7
-1.348, -8.702e-7
-1.347, -8.800e-7
-1.346, -7.912e-7
-1.345, -8.603e-7
-1.344, -1.008e-6
-1.343, -9.195e-7
-1.342, -8.406e-7
-1.341, -9.195e-7
-1.340, -9.886e-7
-1.339, -8.998e-7
-1.338, -9.491e-7
-1.337, -1.028e-6
-1.336, -9.392e-7
-1.335, -9.491e-7
-1.334, -8.702e-7
-1.333, -9.787e-7
-1.332, -1.018e-6
-1.331, -9.491e-7
-1.330, -9.984e-7
-1.329, -9.590e-7
-1.328, -1.077e-6
-1.327, -1.028e-6
-1.326, -1.067e-6
-1.325, -1.077e-6
-1.324, -1.097e-6
-1.323, -1.067e-6
-1.322, -1.058e-6
-1.321, -1.038e-6
-1.320, -1.058e-6
-1.319, -1.107e-6
-1.318, -1.077e-6
-1.317, -1.038e-6
-1.316, -1.097e-6
-1.315, -1.008e-6
-1.314, -1.156e-6
-1.313, -1.048e-6
-1.312, -1.117e-6
-1.311, -1.067e-6
-1.310, -1.127e-6
-1.309, -1.146e-6
-1.308, -1.097e-6
-1.307, -1.156e-6
-1.306, -1.127e-6
-1.305, -1.087e-6
-1.304, -1.127e-6
-1.303, -1.245e-6
-1.302, -1.166e-6
-1.301, -1.087e-6
-1.300, -1.156e-6
-1.299, -1.176e-6
-1.298, -1.275e-6
-1.297, -1.137e-6
-1.296, -1.176e-6
-1.295, -1.097e-6
-1.294, -1.117e-6
-1.293, -1.137e-6
-1.292, -1.156e-6
-1.291, -1.186e-6
-1.290, -1.265e-6
-1.289, -1.156e-6
-1.288, -1.127e-6
-1.287, -1.166e-6
-1.286, -1.196e-6
-1.285, -1.235e-6
-1.284, -1.215e-6
-1.283, -1.196e-6
-1.282, -1.196e-6
-1.281, -1.087e-6
-1.280, -1.275e-6
-1.279, -1.196e-6
-1.278, -1.245e-6
-1.277, -1.245e-6
-1.276, -1.245e-6
-1.275, -1.255e-6
-1.274, -1.215e-6
-1.273, -1.206e-6
-1.272, -1.206e-6
-1.271, -1.186e-6
-1.270, -1.294e-6
-1.269, -1.255e-6
-1.268, -1.304e-6
-1.267, -1.294e-6
-1.266, -1.166e-6
-1.265, -1.235e-6
-1.264, -1.304e-6
-1.263, -1.245e-6
-1.262, -1.225e-6
-1.261, -1.285e-6
-1.260, -1.314e-6
-1.259, -1.156e-6
-1.258, -1.265e-6
-1.257, -1.245e-6
-1.256, -1.225e-6
-1.255, -1.285e-6
-1.254, -1.334e-6
-1.253, -1.413e-6
-1.252, -1.324e-6
-1.251, -1.363e-6
-1.250, -1.403e-6
-1.249, -1.324e-6
-1.248, -1.314e-6
-1.247, -1.324e-6
-1.246, -1.245e-6
-1.245, -1.334e-6
-1.244, -1.324e-6
-1.243, -1.373e-6
-1.242, -1.472e-6
-1.241, -1.373e-6
-1.240, -1.462e-6
-1.239, -1.344e-6
-1.238, -1.383e-6
-1.237, -1.373e-6
-1.236, -1.324e-6
-1.235, -1.482e-6
-1.234, -1.354e-6
-1.233, -1.462e-6
-1.232, -1.354e-6
-1.231, -1.373e-6
-1.230, -1.344e-6
-1.229, -1.472e-6
-1.228, -1.502e-6
-1.227, -1.472e-6
-1.226, -1.492e-6
-1.225, -1.561e-6
-1.224, -1.442e-6
-1.223, -1.581e-6
-1.222, -1.521e-6
-1.221, -1.571e-6
-1.220, -1.462e-6
-1.219, -1.600e-6
-1.218, -1.511e-6
-1.217, -1.531e-6
-1.216, -1.630e-6
-1.215, -1.679e-6
-1.214, -1.571e-6
-1.213, -1.541e-6
-1.212, -1.600e-6
-1.211, -1.561e-6
-1.210, -1.590e-6
-1.209, -1.669e-6
-1.208, -1.600e-6
-1.207, -1.600e-6
-1.206, -1.610e-6
-1.205, -1.541e-6
-1.204, -1.679e-6
-1.203, -1.709e-6
-1.202, -1.738e-6
-1.201, -1.699e-6
-1.200, -1.729e-6
-1.199, -1.709e-6
-1.198, -1.788e-6
-1.197, -1.778e-6
-1.196, -1.788e-6
-1.195, -1.738e-6
-1.194, -1.798e-6
-1.193, -1.847e-6
-1.192, -1.817e-6
-1.191, -1.729e-6
-1.190, -1.847e-6
-1.189, -1.906e-6
-1.188, -1.916e-6
-1.187, -1.936e-6
-1.186, -1.877e-6
-1.185, -1.916e-6
-1.184, -1.975e-6
-1.183, -2.024e-6
-1.182, -1.847e-6
-1.181, -1.936e-6
-1.180, -2.024e-6
-1.179, -2.024e-6
-1.178, -2.094e-6
-1.177, -2.143e-6
-1.176, -2.074e-6
-1.175, -2.163e-6
-1.174, -2.182e-6
-1.173, -2.103e-6
-1.172, -2.143e-6
-1.171, -2.123e-6
-1.170, -2.232e-6
-1.169, -2.192e-6
-1.168, -2.281e-6
-1.167, -2.311e-6
-1.166, -2.192e-6
-1.165, -2.350e-6
-1.164, -2.380e-6
-1.163, -2.390e-6
-1.162, -2.390e-6
-1.161, -2.370e-6
-1.160, -2.498e-6
-1.159, -2.340e-6
-1.158, -2.478e-6
-1.157, -2.459e-6
-1.156, -2.518e-6
-1.155, -2.557e-6
-1.154, -2.508e-6
-1.153, -2.478e-6
-1.152, -2.636e-6
-1.151, -2.567e-6
-1.150, -2.567e-6
-1.149, -2.646e-6
-1.148, -2.646e-6
-1.147, -2.587e-6
-1.146, -2.626e-6
-1.145, -2.745e-6
-1.144, -2.725e-6
-1.143, -2.597e-6
-1.142, -2.755e-6
-1.141, -2.656e-6
-1.140, -2.745e-6
-1.139, -2.804e-6
-1.138, -2.824e-6
-1.137, -2.764e-6
-1.136, -2.774e-6
-1.135, -2.873e-6
-1.134, -2.755e-6
-1.133, -2.883e-6
-1.132, -2.804e-6
-1.131, -2.764e-6
-1.130, -2.903e-6
-1.129, -2.893e-6
-1.128, -2.883e-6
-1.127, -2.922e-6
-1.126, -2.843e-6
-1.125, -2.903e-6
-1.124, -2.942e-6
-1.123, -2.991e-6
-1.122, -3.011e-6
-1.121, -2.932e-6
-1.120, -2.942e-6
-1.119, -2.962e-6
-1.118, -3.021e-6
-1.117, -3.051e-6
-1.116, -2.981e-6
-1.115, -2.991e-6
-1.114, -2.991e-6
-1.113, -3.199e-6
-1.112, -3.090e-6
-1.111, -3.041e-6
-1.110, -3.189e-6
-1.109, -3.179e-6
-1.108, -3.090e-6
-1.107, -3.199e-6
-1.106, -3.129e-6
-1.105, -3.159e-6
-1.104, -3.179e-6
-1.103, -3.139e-6
-1.102, -3.129e-6
-1.101, -3.218e-6
-1.100, -3.199e-6
-1.099, -3.238e-6
-1.098, -3.199e-6
-1.097, -3.199e-6
-1.096, -3.189e-6
-1.095, -3.218e-6
-1.094, -3.189e-6
-1.093, -3.258e-6
-1.092, -3.208e-6
-1.091, -3.199e-6
-1.090, -3.238e-6
-1.089, -3.258e-6
-1.088, -3.327e-6
-1.087, -3.366e-6
-1.086, -3.218e-6
-1.085, -3.268e-6
-1.084, -3.327e-6
-1.083, -3.347e-6
-1.082, -3.337e-6
-1.081, -3.396e-6
-1.080, -3.337e-6
-1.079, -3.317e-6
-1.078, -3.406e-6
-1.077, -3.396e-6
-1.076, -3.297e-6
-1.075, -3.435e-6
-1.074, -3.455e-6
-1.073, -3.376e-6
-1.072, -3.485e-6
-1.071, -3.327e-6
-1.070, -3.504e-6
-1.069, -3.416e-6
-1.068, -3.416e-6
-1.067, -3.425e-6
-1.066, -3.465e-6
-1.065, -3.376e-6
-1.064, -3.366e-6
-1.063, -3.475e-6
-1.062, -3.475e-6
-1.061, -3.465e-6
-1.060, -3.534e-6
-1.059, -3.465e-6
-1.058, -3.445e-6
-1.057, -3.425e-6
-1.056, -3.445e-6
-1.055, -3.475e-6
-1.054, -3.455e-6
-1.053, -3.495e-6
-1.052, -3.504e-6
-1.051, -3.485e-6
-1.050, -3.554e-6
-1.049, -3.455e-6
-1.048, -3.504e-6
-1.047, -3.514e-6
-1.046, -3.406e-6
-1.045, -3.534e-6
-1.044, -3.475e-6
-1.043, -3.573e-6
-1.042, -3.544e-6
-1.041, -3.485e-6
-1.040, -3.583e-6
-1.039, -3.495e-6
-1.038, -3.465e-6
-1.037, -3.495e-6
-1.036, -3.593e-6
-1.035, -3.573e-6
-1.034, -3.554e-6
-1.033, -3.495e-6
-1.032, -3.544e-6
-1.031, -3.564e-6
-1.030, -3.564e-6
-1.029, -3.534e-6
-1.028, -3.455e-6
-1.027, -3.504e-6
-1.026, -3.455e-6
-1.025, -3.465e-6
-1.024, -3.593e-6
-1.023, -3.534e-6
-1.022, -3.554e-6
-1.021, -3.583e-6
-1.020, -3.564e-6
-1.019, -3.554e-6
-1.018, -3.465e-6
-1.017, -3.564e-6
-1.016, -3.435e-6
-1.015, -3.593e-6
-1.014, -3.524e-6
-1.013, -3.514e-6
-1.012, -3.534e-6
-1.011, -3.406e-6
-1.010, -3.524e-6
-1.009, -3.573e-6
-1.008, -3.564e-6
-1.007, -3.573e-6
-1.006, -3.504e-6
-1.005, -3.475e-6
-1.004, -3.534e-6
-1.003, -3.495e-6
-1.002, -3.564e-6
-1.001, -3.465e-6
