July 13, 2024   19:16:07
Linear Sweep Voltammetry
File: c:/users/guazh/data/20240709_batch67/2024-07-10-exp34\post-regen1-2024-07-13t19_12_55-lsvinphos\post-regen1_lsv_50mvs_efin_-2300mv.bin
Data Source:  Experiment
Instrument Model:  CHI760E
Header: LSV ran at 50 mVs with Efin at -2300mV
Note: 

Init E (V) = -0.6
Final E (V) = -2.3
Scan Rate (V/s) = 0.05
Sample Interval (V) = 0.001
Quiet Time (sec) = 2
Sensitivity (A/V) = 1e-4
Comp R (ohm) = 8.5

Results:

Channel 1:
Ep = -2.084V
ip = 7.745e-4A
Ah = 1.119e-3C

Potential/V, Current/A

-0.600, 1.748e-6
-0.601, 1.808e-6
-0.602, 1.841e-6
-0.603, 1.866e-6
-0.604, 1.890e-6
-0.605, 1.914e-6
-0.606, 1.938e-6
-0.607, 1.959e-6
-0.608, 1.979e-6
-0.609, 2.002e-6
-0.610, 2.024e-6
-0.611, 2.048e-6
-0.612, 2.069e-6
-0.613, 2.089e-6
-0.614, 2.111e-6
-0.615, 2.134e-6
-0.616, 2.157e-6
-0.617, 2.177e-6
-0.618, 2.197e-6
-0.619, 2.217e-6
-0.620, 2.239e-6
-0.621, 2.262e-6
-0.622, 2.283e-6
-0.623, 2.304e-6
-0.624, 2.326e-6
-0.625, 2.348e-6
-0.626, 2.374e-6
-0.627, 2.397e-6
-0.628, 2.419e-6
-0.629, 2.441e-6
-0.630, 2.464e-6
-0.631, 2.488e-6
-0.632, 2.510e-6
-0.633, 2.534e-6
-0.634, 2.557e-6
-0.635, 2.582e-6
-0.636, 2.608e-6
-0.637, 2.632e-6
-0.638, 2.656e-6
-0.639, 2.681e-6
-0.640, 2.706e-6
-0.641, 2.732e-6
-0.642, 2.756e-6
-0.643, 2.782e-6
-0.644, 2.807e-6
-0.645, 2.832e-6
-0.646, 2.860e-6
-0.647, 2.885e-6
-0.648, 2.912e-6
-0.649, 2.937e-6
-0.650, 2.963e-6
-0.651, 2.992e-6
-0.652, 3.020e-6
-0.653, 3.046e-6
-0.654, 3.072e-6
-0.655, 3.101e-6
-0.656, 3.130e-6
-0.657, 3.158e-6
-0.658, 3.185e-6
-0.659, 3.212e-6
-0.660, 3.241e-6
-0.661, 3.270e-6
-0.662, 3.299e-6
-0.663, 3.326e-6
-0.664, 3.355e-6
-0.665, 3.387e-6
-0.666, 3.420e-6
-0.667, 3.449e-6
-0.668, 3.477e-6
-0.669, 3.506e-6
-0.670, 3.537e-6
-0.671, 3.569e-6
-0.672, 3.599e-6
-0.673, 3.630e-6
-0.674, 3.659e-6
-0.675, 3.691e-6
-0.676, 3.724e-6
-0.677, 3.754e-6
-0.678, 3.786e-6
-0.679, 3.817e-6
-0.680, 3.851e-6
-0.681, 3.885e-6
-0.682, 3.917e-6
-0.683, 3.946e-6
-0.684, 3.978e-6
-0.685, 4.013e-6
-0.686, 4.047e-6
-0.687, 4.079e-6
-0.688, 4.110e-6
-0.689, 4.143e-6
-0.690, 4.176e-6
-0.691, 4.211e-6
-0.692, 4.242e-6
-0.693, 4.274e-6
-0.694, 4.309e-6
-0.695, 4.344e-6
-0.696, 4.380e-6
-0.697, 4.414e-6
-0.698, 4.447e-6
-0.699, 4.480e-6
-0.700, 4.517e-6
-0.701, 4.555e-6
-0.702, 4.590e-6
-0.703, 4.624e-6
-0.704, 4.659e-6
-0.705, 4.695e-6
-0.706, 4.732e-6
-0.707, 4.767e-6
-0.708, 4.802e-6
-0.709, 4.835e-6
-0.710, 4.873e-6
-0.711, 4.909e-6
-0.712, 4.944e-6
-0.713, 4.980e-6
-0.714, 5.016e-6
-0.715, 5.053e-6
-0.716, 5.092e-6
-0.717, 5.127e-6
-0.718, 5.163e-6
-0.719, 5.197e-6
-0.720, 5.236e-6
-0.721, 5.275e-6
-0.722, 5.309e-6
-0.723, 5.346e-6
-0.724, 5.381e-6
-0.725, 5.418e-6
-0.726, 5.455e-6
-0.727, 5.492e-6
-0.728, 5.527e-6
-0.729, 5.564e-6
-0.730, 5.602e-6
-0.731, 5.640e-6
-0.732, 5.675e-6
-0.733, 5.710e-6
-0.734, 5.746e-6
-0.735, 5.784e-6
-0.736, 5.824e-6
-0.737, 5.858e-6
-0.738, 5.892e-6
-0.739, 5.924e-6
-0.740, 5.960e-6
-0.741, 5.998e-6
-0.742, 6.034e-6
-0.743, 6.070e-6
-0.744, 6.105e-6
-0.745, 6.141e-6
-0.746, 6.176e-6
-0.747, 6.209e-6
-0.748, 6.242e-6
-0.749, 6.276e-6
-0.750, 6.312e-6
-0.751, 6.349e-6
-0.752, 6.383e-6
-0.753, 6.416e-6
-0.754, 6.449e-6
-0.755, 6.485e-6
-0.756, 6.521e-6
-0.757, 6.553e-6
-0.758, 6.587e-6
-0.759, 6.619e-6
-0.760, 6.654e-6
-0.761, 6.689e-6
-0.762, 6.720e-6
-0.763, 6.751e-6
-0.764, 6.782e-6
-0.765, 6.817e-6
-0.766, 6.851e-6
-0.767, 6.880e-6
-0.768, 6.911e-6
-0.769, 6.942e-6
-0.770, 6.973e-6
-0.771, 7.007e-6
-0.772, 7.035e-6
-0.773, 7.065e-6
-0.774, 7.094e-6
-0.775, 7.125e-6
-0.776, 7.155e-6
-0.777, 7.184e-6
-0.778, 7.211e-6
-0.779, 7.239e-6
-0.780, 7.267e-6
-0.781, 7.297e-6
-0.782, 7.323e-6
-0.783, 7.349e-6
-0.784, 7.375e-6
-0.785, 7.402e-6
-0.786, 7.430e-6
-0.787, 7.455e-6
-0.788, 7.482e-6
-0.789, 7.505e-6
-0.790, 7.531e-6
-0.791, 7.558e-6
-0.792, 7.581e-6
-0.793, 7.605e-6
-0.794, 7.628e-6
-0.795, 7.655e-6
-0.796, 7.678e-6
-0.797, 7.701e-6
-0.798, 7.723e-6
-0.799, 7.743e-6
-0.800, 7.769e-6
-0.801, 7.791e-6
-0.802, 7.811e-6
-0.803, 7.831e-6
-0.804, 7.851e-6
-0.805, 7.873e-6
-0.806, 7.896e-6
-0.807, 7.914e-6
-0.808, 7.933e-6
-0.809, 7.951e-6
-0.810, 7.971e-6
-0.811, 7.992e-6
-0.812, 8.009e-6
-0.813, 8.025e-6
-0.814, 8.041e-6
-0.815, 8.059e-6
-0.816, 8.079e-6
-0.817, 8.094e-6
-0.818, 8.109e-6
-0.819, 8.127e-6
-0.820, 8.147e-6
-0.821, 8.163e-6
-0.822, 8.177e-6
-0.823, 8.192e-6
-0.824, 8.207e-6
-0.825, 8.223e-6
-0.826, 8.239e-6
-0.827, 8.253e-6
-0.828, 8.265e-6
-0.829, 8.277e-6
-0.830, 8.292e-6
-0.831, 8.305e-6
-0.832, 8.316e-6
-0.833, 8.328e-6
-0.834, 8.339e-6
-0.835, 8.352e-6
-0.836, 8.365e-6
-0.837, 8.374e-6
-0.838, 8.385e-6
-0.839, 8.394e-6
-0.840, 8.405e-6
-0.841, 8.418e-6
-0.842, 8.426e-6
-0.843, 8.436e-6
-0.844, 8.444e-6
-0.845, 8.456e-6
-0.846, 8.467e-6
-0.847, 8.475e-6
-0.848, 8.483e-6
-0.849, 8.490e-6
-0.850, 8.500e-6
-0.851, 8.510e-6
-0.852, 8.517e-6
-0.853, 8.523e-6
-0.854, 8.531e-6
-0.855, 8.541e-6
-0.856, 8.550e-6
-0.857, 8.555e-6
-0.858, 8.562e-6
-0.859, 8.568e-6
-0.860, 8.576e-6
-0.861, 8.584e-6
-0.862, 8.588e-6
-0.863, 8.594e-6
-0.864, 8.598e-6
-0.865, 8.605e-6
-0.866, 8.612e-6
-0.867, 8.616e-6
-0.868, 8.621e-6
-0.869, 8.625e-6
-0.870, 8.633e-6
-0.871, 8.641e-6
-0.872, 8.646e-6
-0.873, 8.649e-6
-0.874, 8.654e-6
-0.875, 8.660e-6
-0.876, 8.666e-6
-0.877, 8.670e-6
-0.878, 8.674e-6
-0.879, 8.678e-6
-0.880, 8.685e-6
-0.881, 8.691e-6
-0.882, 8.694e-6
-0.883, 8.698e-6
-0.884, 8.702e-6
-0.885, 8.707e-6
-0.886, 8.714e-6
-0.887, 8.716e-6
-0.888, 8.720e-6
-0.889, 8.723e-6
-0.890, 8.730e-6
-0.891, 8.735e-6
-0.892, 8.737e-6
-0.893, 8.740e-6
-0.894, 8.745e-6
-0.895, 8.750e-6
-0.896, 8.756e-6
-0.897, 8.758e-6
-0.898, 8.760e-6
-0.899, 8.764e-6
-0.900, 8.770e-6
-0.901, 8.775e-6
-0.902, 8.778e-6
-0.903, 8.781e-6
-0.904, 8.784e-6
-0.905, 8.790e-6
-0.906, 8.795e-6
-0.907, 8.797e-6
-0.908, 8.800e-6
-0.909, 8.803e-6
-0.910, 8.810e-6
-0.911, 8.814e-6
-0.912, 8.817e-6
-0.913, 8.819e-6
-0.914, 8.821e-6
-0.915, 8.827e-6
-0.916, 8.832e-6
-0.917, 8.834e-6
-0.918, 8.837e-6
-0.919, 8.839e-6
-0.920, 8.844e-6
-0.921, 8.850e-6
-0.922, 8.852e-6
-0.923, 8.856e-6
-0.924, 8.859e-6
-0.925, 8.863e-6
-0.926, 8.868e-6
-0.927, 8.868e-6
-0.928, 8.873e-6
-0.929, 8.875e-6
-0.930, 8.880e-6
-0.931, 8.885e-6
-0.932, 8.888e-6
-0.933, 8.891e-6
-0.934, 8.894e-6
-0.935, 8.899e-6
-0.936, 8.904e-6
-0.937, 8.909e-6
-0.938, 8.911e-6
-0.939, 8.914e-6
-0.940, 8.919e-6
-0.941, 8.924e-6
-0.942, 8.927e-6
-0.943, 8.930e-6
-0.944, 8.934e-6
-0.945, 8.939e-6
-0.946, 8.944e-6
-0.947, 8.947e-6
-0.948, 8.951e-6
-0.949, 8.957e-6
-0.950, 8.963e-6
-0.951, 8.967e-6
-0.952, 8.971e-6
-0.953, 8.973e-6
-0.954, 8.977e-6
-0.955, 8.984e-6
-0.956, 8.989e-6
-0.957, 8.992e-6
-0.958, 8.997e-6
-0.959, 9.000e-6
-0.960, 9.008e-6
-0.961, 9.013e-6
-0.962, 9.016e-6
-0.963, 9.020e-6
-0.964, 9.025e-6
-0.965, 9.032e-6
-0.966, 9.038e-6
-0.967, 9.040e-6
-0.968, 9.045e-6
-0.969, 9.050e-6
-0.970, 9.056e-6
-0.971, 9.062e-6
-0.972, 9.066e-6
-0.973, 9.071e-6
-0.974, 9.077e-6
-0.975, 9.083e-6
-0.976, 9.090e-6
-0.977, 9.098e-6
-0.978, 9.102e-6
-0.979, 9.107e-6
-0.980, 9.114e-6
-0.981, 9.120e-6
-0.982, 9.124e-6
-0.983, 9.128e-6
-0.984, 9.134e-6
-0.985, 9.143e-6
-0.986, 9.150e-6
-0.987, 9.156e-6
-0.988, 9.161e-6
-0.989, 9.167e-6
-0.990, 9.175e-6
-0.991, 9.182e-6
-0.992, 9.187e-6
-0.993, 9.193e-6
-0.994, 9.199e-6
-0.995, 9.208e-6
-0.996, 9.216e-6
-0.997, 9.221e-6
-0.998, 9.227e-6
-0.999, 9.233e-6
-1.000, 9.243e-6
-1.001, 9.249e-6
-1.002, 9.254e-6
-1.003, 9.260e-6
-1.004, 9.267e-6
-1.005, 9.276e-6
-1.006, 9.284e-6
-1.007, 9.288e-6
-1.008, 9.295e-6
-1.009, 9.301e-6
-1.010, 9.310e-6
-1.011, 9.318e-6
-1.012, 9.324e-6
-1.013, 9.330e-6
-1.014, 9.336e-6
-1.015, 9.348e-6
-1.016, 9.366e-6
-1.017, 9.373e-6
-1.018, 9.381e-6
-1.019, 9.389e-6
-1.020, 9.400e-6
-1.021, 9.407e-6
-1.022, 9.415e-6
-1.023, 9.421e-6
-1.024, 9.430e-6
-1.025, 9.440e-6
-1.026, 9.452e-6
-1.027, 9.462e-6
-1.028, 9.467e-6
-1.029, 9.474e-6
-1.030, 9.486e-6
-1.031, 9.495e-6
-1.032, 9.500e-6
-1.033, 9.508e-6
-1.034, 9.516e-6
-1.035, 9.526e-6
-1.036, 9.535e-6
-1.037, 9.541e-6
-1.038, 9.550e-6
-1.039, 9.558e-6
-1.040, 9.569e-6
-1.041, 9.578e-6
-1.042, 9.585e-6
-1.043, 9.595e-6
-1.044, 9.603e-6
-1.045, 9.613e-6
-1.046, 9.622e-6
-1.047, 9.629e-6
-1.048, 9.637e-6
-1.049, 9.646e-6
-1.050, 9.657e-6
-1.051, 9.666e-6
-1.052, 9.674e-6
-1.053, 9.680e-6
-1.054, 9.689e-6
-1.055, 9.702e-6
-1.056, 9.712e-6
-1.057, 9.721e-6
-1.058, 9.728e-6
-1.059, 9.738e-6
-1.060, 9.749e-6
-1.061, 9.759e-6
-1.062, 9.766e-6
-1.063, 9.776e-6
-1.064, 9.786e-6
-1.065, 9.799e-6
-1.066, 9.808e-6
-1.067, 9.817e-6
-1.068, 9.826e-6
-1.069, 9.836e-6
-1.070, 9.849e-6
-1.071, 9.861e-6
-1.072, 9.869e-6
-1.073, 9.877e-6
-1.074, 9.886e-6
-1.075, 9.898e-6
-1.076, 9.908e-6
-1.077, 9.914e-6
-1.078, 9.923e-6
-1.079, 9.934e-6
-1.080, 9.946e-6
-1.081, 9.960e-6
-1.082, 9.967e-6
-1.083, 9.979e-6
-1.084, 9.990e-6
-1.085, 1.001e-5
-1.086, 1.002e-5
-1.087, 1.003e-5
-1.088, 1.004e-5
-1.089, 1.005e-5
-1.090, 1.006e-5
-1.091, 1.007e-5
-1.092, 1.008e-5
-1.093, 1.010e-5
-1.094, 1.011e-5
-1.095, 1.012e-5
-1.096, 1.013e-5
-1.097, 1.014e-5
-1.098, 1.015e-5
-1.099, 1.016e-5
-1.100, 1.018e-5
-1.101, 1.021e-5
-1.102, 1.023e-5
-1.103, 1.024e-5
-1.104, 1.026e-5
-1.105, 1.027e-5
-1.106, 1.028e-5
-1.107, 1.029e-5
-1.108, 1.030e-5
-1.109, 1.031e-5
-1.110, 1.033e-5
-1.111, 1.034e-5
-1.112, 1.036e-5
-1.113, 1.037e-5
-1.114, 1.038e-5
-1.115, 1.040e-5
-1.116, 1.042e-5
-1.117, 1.043e-5
-1.118, 1.044e-5
-1.119, 1.045e-5
-1.120, 1.049e-5
-1.121, 1.051e-5
-1.122, 1.052e-5
-1.123, 1.053e-5
-1.124, 1.055e-5
-1.125, 1.056e-5
-1.126, 1.057e-5
-1.127, 1.059e-5
-1.128, 1.061e-5
-1.129, 1.063e-5
-1.130, 1.066e-5
-1.131, 1.068e-5
-1.132, 1.069e-5
-1.133, 1.071e-5
-1.134, 1.074e-5
-1.135, 1.075e-5
-1.136, 1.076e-5
-1.137, 1.077e-5
-1.138, 1.078e-5
-1.139, 1.079e-5
-1.140, 1.080e-5
-1.141, 1.082e-5
-1.142, 1.084e-5
-1.143, 1.085e-5
-1.144, 1.086e-5
-1.145, 1.088e-5
-1.146, 1.089e-5
-1.147, 1.089e-5
-1.148, 1.090e-5
-1.149, 1.092e-5
-1.150, 1.093e-5
-1.151, 1.094e-5
-1.152, 1.095e-5
-1.153, 1.096e-5
-1.154, 1.098e-5
-1.155, 1.099e-5
-1.156, 1.100e-5
-1.157, 1.101e-5
-1.158, 1.103e-5
-1.159, 1.104e-5
-1.160, 1.105e-5
-1.161, 1.106e-5
-1.162, 1.107e-5
-1.163, 1.109e-5
-1.164, 1.110e-5
-1.165, 1.112e-5
-1.166, 1.113e-5
-1.167, 1.114e-5
-1.168, 1.115e-5
-1.169, 1.117e-5
-1.170, 1.118e-5
-1.171, 1.120e-5
-1.172, 1.121e-5
-1.173, 1.122e-5
-1.174, 1.125e-5
-1.175, 1.129e-5
-1.176, 1.130e-5
-1.177, 1.132e-5
-1.178, 1.133e-5
-1.179, 1.135e-5
-1.180, 1.136e-5
-1.181, 1.138e-5
-1.182, 1.146e-5
-1.183, 1.151e-5
-1.184, 1.154e-5
-1.185, 1.156e-5
-1.186, 1.157e-5
-1.187, 1.158e-5
-1.188, 1.159e-5
-1.189, 1.160e-5
-1.190, 1.162e-5
-1.191, 1.164e-5
-1.192, 1.165e-5
-1.193, 1.167e-5
-1.194, 1.168e-5
-1.195, 1.170e-5
-1.196, 1.172e-5
-1.197, 1.176e-5
-1.198, 1.178e-5
-1.199, 1.180e-5
-1.200, 1.181e-5
-1.201, 1.183e-5
-1.202, 1.184e-5
-1.203, 1.187e-5
-1.204, 1.190e-5
-1.205, 1.193e-5
-1.206, 1.195e-5
-1.207, 1.195e-5
-1.208, 1.196e-5
-1.209, 1.198e-5
-1.210, 1.199e-5
-1.211, 1.201e-5
-1.212, 1.202e-5
-1.213, 1.203e-5
-1.214, 1.204e-5
-1.215, 1.206e-5
-1.216, 1.207e-5
-1.217, 1.208e-5
-1.218, 1.210e-5
-1.219, 1.212e-5
-1.220, 1.214e-5
-1.221, 1.215e-5
-1.222, 1.217e-5
-1.223, 1.218e-5
-1.224, 1.220e-5
-1.225, 1.222e-5
-1.226, 1.224e-5
-1.227, 1.225e-5
-1.228, 1.227e-5
-1.229, 1.229e-5
-1.230, 1.231e-5
-1.231, 1.233e-5
-1.232, 1.234e-5
-1.233, 1.236e-5
-1.234, 1.237e-5
-1.235, 1.239e-5
-1.236, 1.241e-5
-1.237, 1.242e-5
-1.238, 1.244e-5
-1.239, 1.246e-5
-1.240, 1.249e-5
-1.241, 1.250e-5
-1.242, 1.252e-5
-1.243, 1.254e-5
-1.244, 1.256e-5
-1.245, 1.257e-5
-1.246, 1.259e-5
-1.247, 1.261e-5
-1.248, 1.262e-5
-1.249, 1.264e-5
-1.250, 1.266e-5
-1.251, 1.268e-5
-1.252, 1.269e-5
-1.253, 1.271e-5
-1.254, 1.273e-5
-1.255, 1.275e-5
-1.256, 1.277e-5
-1.257, 1.279e-5
-1.258, 1.281e-5
-1.259, 1.283e-5
-1.260, 1.285e-5
-1.261, 1.287e-5
-1.262, 1.289e-5
-1.263, 1.290e-5
-1.264, 1.291e-5
-1.265, 1.293e-5
-1.266, 1.295e-5
-1.267, 1.296e-5
-1.268, 1.298e-5
-1.269, 1.300e-5
-1.270, 1.303e-5
-1.271, 1.304e-5
-1.272, 1.306e-5
-1.273, 1.308e-5
-1.274, 1.310e-5
-1.275, 1.313e-5
-1.276, 1.315e-5
-1.277, 1.317e-5
-1.278, 1.319e-5
-1.279, 1.321e-5
-1.280, 1.324e-5
-1.281, 1.326e-5
-1.282, 1.328e-5
-1.283, 1.330e-5
-1.284, 1.332e-5
-1.285, 1.335e-5
-1.286, 1.337e-5
-1.287, 1.339e-5
-1.288, 1.341e-5
-1.289, 1.343e-5
-1.290, 1.345e-5
-1.291, 1.348e-5
-1.292, 1.350e-5
-1.293, 1.352e-5
-1.294, 1.354e-5
-1.295, 1.357e-5
-1.296, 1.359e-5
-1.297, 1.361e-5
-1.298, 1.363e-5
-1.299, 1.366e-5
-1.300, 1.368e-5
-1.301, 1.371e-5
-1.302, 1.373e-5
-1.303, 1.376e-5
-1.304, 1.378e-5
-1.305, 1.381e-5
-1.306, 1.384e-5
-1.307, 1.387e-5
-1.308, 1.390e-5
-1.309, 1.393e-5
-1.310, 1.395e-5
-1.311, 1.398e-5
-1.312, 1.400e-5
-1.313, 1.403e-5
-1.314, 1.406e-5
-1.315, 1.409e-5
-1.316, 1.411e-5
-1.317, 1.412e-5
-1.318, 1.415e-5
-1.319, 1.417e-5
-1.320, 1.420e-5
-1.321, 1.423e-5
-1.322, 1.426e-5
-1.323, 1.429e-5
-1.324, 1.432e-5
-1.325, 1.435e-5
-1.326, 1.438e-5
-1.327, 1.441e-5
-1.328, 1.444e-5
-1.329, 1.447e-5
-1.330, 1.450e-5
-1.331, 1.453e-5
-1.332, 1.456e-5
-1.333, 1.459e-5
-1.334, 1.463e-5
-1.335, 1.466e-5
-1.336, 1.470e-5
-1.337, 1.473e-5
-1.338, 1.476e-5
-1.339, 1.479e-5
-1.340, 1.483e-5
-1.341, 1.486e-5
-1.342, 1.489e-5
-1.343, 1.493e-5
-1.344, 1.496e-5
-1.345, 1.499e-5
-1.346, 1.503e-5
-1.347, 1.506e-5
-1.348, 1.509e-5
-1.349, 1.513e-5
-1.350, 1.517e-5
-1.351, 1.521e-5
-1.352, 1.524e-5
-1.353, 1.527e-5
-1.354, 1.531e-5
-1.355, 1.535e-5
-1.356, 1.539e-5
-1.357, 1.542e-5
-1.358, 1.546e-5
-1.359, 1.550e-5
-1.360, 1.554e-5
-1.361, 1.558e-5
-1.362, 1.561e-5
-1.363, 1.565e-5
-1.364, 1.569e-5
-1.365, 1.574e-5
-1.366, 1.577e-5
-1.367, 1.581e-5
-1.368, 1.585e-5
-1.369, 1.589e-5
-1.370, 1.594e-5
-1.371, 1.598e-5
-1.372, 1.602e-5
-1.373, 1.606e-5
-1.374, 1.611e-5
-1.375, 1.615e-5
-1.376, 1.619e-5
-1.377, 1.623e-5
-1.378, 1.627e-5
-1.379, 1.631e-5
-1.380, 1.636e-5
-1.381, 1.639e-5
-1.382, 1.643e-5
-1.383, 1.648e-5
-1.384, 1.653e-5
-1.385, 1.658e-5
-1.386, 1.662e-5
-1.387, 1.667e-5
-1.388, 1.672e-5
-1.389, 1.676e-5
-1.390, 1.681e-5
-1.391, 1.686e-5
-1.392, 1.690e-5
-1.393, 1.695e-5
-1.394, 1.700e-5
-1.395, 1.705e-5
-1.396, 1.710e-5
-1.397, 1.714e-5
-1.398, 1.719e-5
-1.399, 1.724e-5
-1.400, 1.729e-5
-1.401, 1.733e-5
-1.402, 1.738e-5
-1.403, 1.743e-5
-1.404, 1.747e-5
-1.405, 1.752e-5
-1.406, 1.757e-5
-1.407, 1.762e-5
-1.408, 1.767e-5
-1.409, 1.772e-5
-1.410, 1.777e-5
-1.411, 1.782e-5
-1.412, 1.786e-5
-1.413, 1.791e-5
-1.414, 1.796e-5
-1.415, 1.801e-5
-1.416, 1.805e-5
-1.417, 1.810e-5
-1.418, 1.815e-5
-1.419, 1.819e-5
-1.420, 1.824e-5
-1.421, 1.828e-5
-1.422, 1.833e-5
-1.423, 1.837e-5
-1.424, 1.842e-5
-1.425, 1.847e-5
-1.426, 1.852e-5
-1.427, 1.857e-5
-1.428, 1.861e-5
-1.429, 1.867e-5
-1.430, 1.872e-5
-1.431, 1.876e-5
-1.432, 1.881e-5
-1.433, 1.885e-5
-1.434, 1.890e-5
-1.435, 1.895e-5
-1.436, 1.899e-5
-1.437, 1.904e-5
-1.438, 1.908e-5
-1.439, 1.913e-5
-1.440, 1.918e-5
-1.441, 1.923e-5
-1.442, 1.927e-5
-1.443, 1.931e-5
-1.444, 1.936e-5
-1.445, 1.945e-5
-1.446, 1.948e-5
-1.447, 1.954e-5
-1.448, 1.959e-5
-1.449, 1.964e-5
-1.450, 1.969e-5
-1.451, 1.973e-5
-1.452, 1.977e-5
-1.453, 1.981e-5
-1.454, 1.986e-5
-1.455, 1.991e-5
-1.456, 1.995e-5
-1.457, 1.999e-5
-1.458, 2.003e-5
-1.459, 2.007e-5
-1.460, 2.009e-5
-1.461, 2.013e-5
-1.462, 2.017e-5
-1.463, 2.020e-5
-1.464, 2.024e-5
-1.465, 2.029e-5
-1.466, 2.033e-5
-1.467, 2.037e-5
-1.468, 2.041e-5
-1.469, 2.045e-5
-1.470, 2.050e-5
-1.471, 2.054e-5
-1.472, 2.058e-5
-1.473, 2.063e-5
-1.474, 2.067e-5
-1.475, 2.072e-5
-1.476, 2.076e-5
-1.477, 2.080e-5
-1.478, 2.085e-5
-1.479, 2.089e-5
-1.480, 2.094e-5
-1.481, 2.099e-5
-1.482, 2.103e-5
-1.483, 2.108e-5
-1.484, 2.113e-5
-1.485, 2.118e-5
-1.486, 2.122e-5
-1.487, 2.126e-5
-1.488, 2.130e-5
-1.489, 2.135e-5
-1.490, 2.139e-5
-1.491, 2.143e-5
-1.492, 2.147e-5
-1.493, 2.151e-5
-1.494, 2.156e-5
-1.495, 2.161e-5
-1.496, 2.166e-5
-1.497, 2.170e-5
-1.498, 2.174e-5
-1.499, 2.179e-5
-1.500, 2.184e-5
-1.501, 2.189e-5
-1.502, 2.194e-5
-1.503, 2.198e-5
-1.504, 2.203e-5
-1.505, 2.208e-5
-1.506, 2.212e-5
-1.507, 2.217e-5
-1.508, 2.222e-5
-1.509, 2.227e-5
-1.510, 2.232e-5
-1.511, 2.237e-5
-1.512, 2.242e-5
-1.513, 2.247e-5
-1.514, 2.252e-5
-1.515, 2.258e-5
-1.516, 2.263e-5
-1.517, 2.268e-5
-1.518, 2.273e-5
-1.519, 2.279e-5
-1.520, 2.285e-5
-1.521, 2.290e-5
-1.522, 2.297e-5
-1.523, 2.302e-5
-1.524, 2.307e-5
-1.525, 2.312e-5
-1.526, 2.317e-5
-1.527, 2.322e-5
-1.528, 2.328e-5
-1.529, 2.334e-5
-1.530, 2.340e-5
-1.531, 2.346e-5
-1.532, 2.351e-5
-1.533, 2.357e-5
-1.534, 2.363e-5
-1.535, 2.370e-5
-1.536, 2.376e-5
-1.537, 2.382e-5
-1.538, 2.388e-5
-1.539, 2.394e-5
-1.540, 2.401e-5
-1.541, 2.407e-5
-1.542, 2.413e-5
-1.543, 2.419e-5
-1.544, 2.426e-5
-1.545, 2.433e-5
-1.546, 2.439e-5
-1.547, 2.445e-5
-1.548, 2.451e-5
-1.549, 2.458e-5
-1.550, 2.465e-5
-1.551, 2.472e-5
-1.552, 2.479e-5
-1.553, 2.485e-5
-1.554, 2.493e-5
-1.555, 2.502e-5
-1.556, 2.510e-5
-1.557, 2.517e-5
-1.558, 2.524e-5
-1.559, 2.531e-5
-1.560, 2.538e-5
-1.561, 2.545e-5
-1.562, 2.552e-5
-1.563, 2.559e-5
-1.564, 2.566e-5
-1.565, 2.573e-5
-1.566, 2.580e-5
-1.567, 2.587e-5
-1.568, 2.594e-5
-1.569, 2.602e-5
-1.570, 2.609e-5
-1.571, 2.616e-5
-1.572, 2.623e-5
-1.573, 2.630e-5
-1.574, 2.638e-5
-1.575, 2.646e-5
-1.576, 2.653e-5
-1.577, 2.660e-5
-1.578, 2.667e-5
-1.579, 2.675e-5
-1.580, 2.683e-5
-1.581, 2.691e-5
-1.582, 2.698e-5
-1.583, 2.705e-5
-1.584, 2.713e-5
-1.585, 2.720e-5
-1.586, 2.728e-5
-1.587, 2.735e-5
-1.588, 2.743e-5
-1.589, 2.751e-5
-1.590, 2.758e-5
-1.591, 2.766e-5
-1.592, 2.773e-5
-1.593, 2.779e-5
-1.594, 2.786e-5
-1.595, 2.794e-5
-1.596, 2.801e-5
-1.597, 2.808e-5
-1.598, 2.815e-5
-1.599, 2.823e-5
-1.600, 2.831e-5
-1.601, 2.837e-5
-1.602, 2.844e-5
-1.603, 2.852e-5
-1.604, 2.859e-5
-1.605, 2.866e-5
-1.606, 2.873e-5
-1.607, 2.880e-5
-1.608, 2.887e-5
-1.609, 2.894e-5
-1.610, 2.901e-5
-1.611, 2.908e-5
-1.612, 2.915e-5
-1.613, 2.921e-5
-1.614, 2.928e-5
-1.615, 2.935e-5
-1.616, 2.942e-5
-1.617, 2.948e-5
-1.618, 2.955e-5
-1.619, 2.962e-5
-1.620, 2.968e-5
-1.621, 2.975e-5
-1.622, 2.981e-5
-1.623, 2.987e-5
-1.624, 2.993e-5
-1.625, 3.000e-5
-1.626, 3.006e-5
-1.627, 3.011e-5
-1.628, 3.017e-5
-1.629, 3.024e-5
-1.630, 3.030e-5
-1.631, 3.035e-5
-1.632, 3.040e-5
-1.633, 3.046e-5
-1.634, 3.052e-5
-1.635, 3.058e-5
-1.636, 3.063e-5
-1.637, 3.068e-5
-1.638, 3.073e-5
-1.639, 3.079e-5
-1.640, 3.085e-5
-1.641, 3.089e-5
-1.642, 3.093e-5
-1.643, 3.098e-5
-1.644, 3.103e-5
-1.645, 3.108e-5
-1.646, 3.113e-5
-1.647, 3.117e-5
-1.648, 3.121e-5
-1.649, 3.126e-5
-1.650, 3.130e-5
-1.651, 3.134e-5
-1.652, 3.138e-5
-1.653, 3.142e-5
-1.654, 3.146e-5
-1.655, 3.150e-5
-1.656, 3.154e-5
-1.657, 3.157e-5
-1.658, 3.160e-5
-1.659, 3.164e-5
-1.660, 3.167e-5
-1.661, 3.171e-5
-1.662, 3.174e-5
-1.663, 3.176e-5
-1.664, 3.180e-5
-1.665, 3.183e-5
-1.666, 3.185e-5
-1.667, 3.188e-5
-1.668, 3.190e-5
-1.669, 3.193e-5
-1.670, 3.197e-5
-1.671, 3.199e-5
-1.672, 3.201e-5
-1.673, 3.203e-5
-1.674, 3.206e-5
-1.675, 3.209e-5
-1.676, 3.211e-5
-1.677, 3.213e-5
-1.678, 3.215e-5
-1.679, 3.217e-5
-1.680, 3.220e-5
-1.681, 3.222e-5
-1.682, 3.224e-5
-1.683, 3.227e-5
-1.684, 3.229e-5
-1.685, 3.232e-5
-1.686, 3.234e-5
-1.687, 3.236e-5
-1.688, 3.238e-5
-1.689, 3.240e-5
-1.690, 3.243e-5
-1.691, 3.245e-5
-1.692, 3.247e-5
-1.693, 3.249e-5
-1.694, 3.252e-5
-1.695, 3.255e-5
-1.696, 3.258e-5
-1.697, 3.259e-5
-1.698, 3.262e-5
-1.699, 3.265e-5
-1.700, 3.268e-5
-1.701, 3.271e-5
-1.702, 3.274e-5
-1.703, 3.276e-5
-1.704, 3.280e-5
-1.705, 3.283e-5
-1.706, 3.286e-5
-1.707, 3.289e-5
-1.708, 3.292e-5
-1.709, 3.296e-5
-1.710, 3.301e-5
-1.711, 3.305e-5
-1.712, 3.309e-5
-1.713, 3.313e-5
-1.714, 3.316e-5
-1.715, 3.320e-5
-1.716, 3.323e-5
-1.717, 3.326e-5
-1.718, 3.330e-5
-1.719, 3.334e-5
-1.720, 3.339e-5
-1.721, 3.344e-5
-1.722, 3.350e-5
-1.723, 3.355e-5
-1.724, 3.360e-5
-1.725, 3.365e-5
-1.726, 3.370e-5
-1.727, 3.374e-5
-1.728, 3.380e-5
-1.729, 3.385e-5
-1.730, 3.391e-5
-1.731, 3.397e-5
-1.732, 3.402e-5
-1.733, 3.408e-5
-1.734, 3.415e-5
-1.735, 3.422e-5
-1.736, 3.428e-5
-1.737, 3.435e-5
-1.738, 3.443e-5
-1.739, 3.452e-5
-1.740, 3.460e-5
-1.741, 3.468e-5
-1.742, 3.475e-5
-1.743, 3.483e-5
-1.744, 3.492e-5
-1.745, 3.501e-5
-1.746, 3.509e-5
-1.747, 3.518e-5
-1.748, 3.526e-5
-1.749, 3.536e-5
-1.750, 3.546e-5
-1.751, 3.555e-5
-1.752, 3.564e-5
-1.753, 3.574e-5
-1.754, 3.585e-5
-1.755, 3.596e-5
-1.756, 3.607e-5
-1.757, 3.617e-5
-1.758, 3.628e-5
-1.759, 3.640e-5
-1.760, 3.653e-5
-1.761, 3.665e-5
-1.762, 3.676e-5
-1.763, 3.688e-5
-1.764, 3.702e-5
-1.765, 3.716e-5
-1.766, 3.729e-5
-1.767, 3.741e-5
-1.768, 3.755e-5
-1.769, 3.769e-5
-1.770, 3.783e-5
-1.771, 3.797e-5
-1.772, 3.811e-5
-1.773, 3.826e-5
-1.774, 3.843e-5
-1.775, 3.858e-5
-1.776, 3.874e-5
-1.777, 3.889e-5
-1.778, 3.905e-5
-1.779, 3.923e-5
-1.780, 3.941e-5
-1.781, 3.958e-5
-1.782, 3.977e-5
-1.783, 3.995e-5
-1.784, 4.015e-5
-1.785, 4.034e-5
-1.786, 4.052e-5
-1.787, 4.072e-5
-1.788, 4.092e-5
-1.789, 4.114e-5
-1.790, 4.136e-5
-1.791, 4.155e-5
-1.792, 4.175e-5
-1.793, 4.196e-5
-1.794, 4.219e-5
-1.795, 4.243e-5
-1.796, 4.265e-5
-1.797, 4.289e-5
-1.798, 4.315e-5
-1.799, 4.344e-5
-1.800, 4.370e-5
-1.801, 4.394e-5
-1.802, 4.419e-5
-1.803, 4.447e-5
-1.804, 4.476e-5
-1.805, 4.505e-5
-1.806, 4.534e-5
-1.807, 4.562e-5
-1.808, 4.592e-5
-1.809, 4.624e-5
-1.810, 4.655e-5
-1.811, 4.687e-5
-1.812, 4.717e-5
-1.813, 4.743e-5
-1.814, 4.772e-5
-1.815, 4.805e-5
-1.816, 4.835e-5
-1.817, 4.868e-5
-1.818, 4.903e-5
-1.819, 4.940e-5
-1.820, 4.978e-5
-1.821, 5.015e-5
-1.822, 5.053e-5
-1.823, 5.093e-5
-1.824, 5.136e-5
-1.825, 5.177e-5
-1.826, 5.220e-5
-1.827, 5.257e-5
-1.828, 5.291e-5
-1.829, 5.333e-5
-1.830, 5.379e-5
-1.831, 5.433e-5
-1.832, 5.482e-5
-1.833, 5.532e-5
-1.834, 5.585e-5
-1.835, 5.639e-5
-1.836, 5.691e-5
-1.837, 5.744e-5
-1.838, 5.768e-5
-1.839, 5.784e-5
-1.840, 5.837e-5
-1.841, 5.896e-5
-1.842, 5.952e-5
-1.843, 6.012e-5
-1.844, 6.076e-5
-1.845, 6.141e-5
-1.846, 6.204e-5
-1.847, 6.265e-5
-1.848, 6.333e-5
-1.849, 6.401e-5
-1.850, 6.466e-5
-1.851, 6.528e-5
-1.852, 6.588e-5
-1.853, 6.657e-5
-1.854, 6.728e-5
-1.855, 6.803e-5
-1.856, 6.881e-5
-1.857, 6.961e-5
-1.858, 7.048e-5
-1.859, 7.144e-5
-1.860, 7.234e-5
-1.861, 7.319e-5
-1.862, 7.404e-5
-1.863, 7.492e-5
-1.864, 7.584e-5
-1.865, 7.677e-5
-1.866, 7.773e-5
-1.867, 7.870e-5
-1.868, 7.970e-5
-1.869, 8.070e-5
-1.870, 8.172e-5
-1.871, 8.275e-5
-1.872, 8.380e-5
-1.873, 8.487e-5
-1.874, 8.595e-5
-1.875, 8.702e-5
-1.876, 8.814e-5
-1.877, 8.926e-5
-1.878, 9.042e-5
-1.879, 9.170e-5
-1.880, 9.301e-5
-1.881, 9.430e-5
-1.882, 9.561e-5
-1.883, 9.697e-5
-1.884, 9.831e-5
-1.885, 9.965e-5
-1.886, 1.010e-4
-1.887, 1.024e-4
-1.888, 1.038e-4
-1.889, 1.053e-4
-1.890, 1.068e-4
-1.891, 1.082e-4
-1.892, 1.096e-4
-1.893, 1.112e-4
-1.894, 1.129e-4
-1.895, 1.145e-4
-1.896, 1.162e-4
-1.897, 1.178e-4
-1.898, 1.195e-4
-1.899, 1.213e-4
-1.900, 1.230e-4
-1.901, 1.248e-4
-1.902, 1.266e-4
-1.903, 1.283e-4
-1.904, 1.301e-4
-1.905, 1.320e-4
-1.906, 1.339e-4
-1.907, 1.359e-4
-1.908, 1.378e-4
-1.909, 1.399e-4
-1.910, 1.419e-4
-1.911, 1.437e-4
-1.912, 1.458e-4
-1.913, 1.480e-4
-1.914, 1.501e-4
-1.915, 1.523e-4
-1.916, 1.545e-4
-1.917, 1.567e-4
-1.918, 1.589e-4
-1.919, 1.611e-4
-1.920, 1.634e-4
-1.921, 1.656e-4
-1.922, 1.679e-4
-1.923, 1.704e-4
-1.924, 1.730e-4
-1.925, 1.755e-4
-1.926, 1.780e-4
-1.927, 1.805e-4
-1.928, 1.830e-4
-1.929, 1.856e-4
-1.930, 1.883e-4
-1.931, 1.910e-4
-1.932, 1.938e-4
-1.933, 1.967e-4
-1.934, 1.996e-4
-1.935, 2.024e-4
-1.936, 2.052e-4
-1.937, 2.081e-4
-1.938, 2.110e-4
-1.939, 2.141e-4
-1.940, 2.171e-4
-1.941, 2.201e-4
-1.942, 2.232e-4
-1.943, 2.263e-4
-1.944, 2.293e-4
-1.945, 2.325e-4
-1.946, 2.358e-4
-1.947, 2.391e-4
-1.948, 2.424e-4
-1.949, 2.457e-4
-1.950, 2.490e-4
-1.951, 2.523e-4
-1.952, 2.556e-4
-1.953, 2.591e-4
-1.954, 2.625e-4
-1.955, 2.659e-4
-1.956, 2.694e-4
-1.957, 2.729e-4
-1.958, 2.765e-4
-1.959, 2.802e-4
-1.960, 2.839e-4
-1.961, 2.873e-4
-1.962, 2.906e-4
-1.963, 2.943e-4
-1.964, 2.981e-4
-1.965, 3.019e-4
-1.966, 3.056e-4
-1.967, 3.093e-4
-1.968, 3.131e-4
-1.969, 3.170e-4
-1.970, 3.210e-4
-1.971, 3.248e-4
-1.972, 3.285e-4
-1.973, 3.324e-4
-1.974, 3.364e-4
-1.975, 3.404e-4
-1.976, 3.444e-4
-1.977, 3.480e-4
-1.978, 3.519e-4
-1.979, 3.561e-4
-1.980, 3.603e-4
-1.981, 3.645e-4
-1.982, 3.687e-4
-1.983, 3.730e-4
-1.984, 3.774e-4
-1.985, 3.818e-4
-1.986, 3.864e-4
-1.987, 3.909e-4
-1.988, 3.955e-4
-1.989, 4.001e-4
-1.990, 4.048e-4
-1.991, 4.095e-4
-1.992, 4.143e-4
-1.993, 4.191e-4
-1.994, 4.240e-4
-1.995, 4.291e-4
-1.996, 4.341e-4
-1.997, 4.391e-4
-1.998, 4.443e-4
-1.999, 4.494e-4
-2.000, 4.546e-4
-2.001, 4.598e-4
-2.002, 4.650e-4
-2.003, 4.703e-4
-2.004, 4.757e-4
-2.005, 4.812e-4
-2.006, 4.865e-4
-2.007, 4.918e-4
-2.008, 4.972e-4
-2.009, 5.028e-4
-2.010, 5.084e-4
-2.011, 5.140e-4
-2.012, 5.197e-4
-2.013, 5.254e-4
-2.014, 5.312e-4
-2.015, 5.368e-4
-2.016, 5.424e-4
-2.017, 5.483e-4
-2.018, 5.536e-4
-2.019, 5.592e-4
-2.020, 5.654e-4
-2.021, 5.715e-4
-2.022, 5.776e-4
-2.023, 5.839e-4
-2.024, 5.899e-4
-2.025, 5.959e-4
-2.026, 6.019e-4
-2.027, 6.081e-4
-2.028, 6.141e-4
-2.029, 6.203e-4
-2.030, 6.268e-4
-2.031, 6.331e-4
-2.032, 6.394e-4
-2.033, 6.460e-4
-2.034, 6.525e-4
-2.035, 6.592e-4
-2.036, 6.658e-4
-2.037, 6.723e-4
-2.038, 6.789e-4
-2.039, 6.857e-4
-2.040, 6.926e-4
-2.041, 6.993e-4
-2.042, 7.060e-4
-2.043, 7.127e-4
-2.044, 7.196e-4
-2.045, 7.266e-4
-2.046, 7.334e-4
-2.047, 7.401e-4
-2.048, 7.469e-4
-2.049, 7.540e-4
-2.050, 7.612e-4
-2.051, 7.684e-4
-2.052, 7.756e-4
-2.053, 7.826e-4
-2.054, 7.895e-4
-2.055, 7.970e-4
-2.056, 8.042e-4
-2.057, 8.112e-4
-2.058, 8.184e-4
-2.059, 8.256e-4
-2.060, 8.330e-4
-2.061, 8.403e-4
-2.062, 8.478e-4
-2.063, 8.553e-4
-2.064, 8.629e-4
-2.065, 8.703e-4
-2.066, 8.776e-4
-2.067, 8.852e-4
-2.068, 8.927e-4
-2.069, 9.005e-4
-2.070, 9.085e-4
-2.071, 9.159e-4
-2.072, 9.233e-4
-2.073, 9.309e-4
-2.074, 9.387e-4
-2.075, 9.469e-4
-2.076, 9.549e-4
-2.077, 9.627e-4
-2.078, 9.709e-4
-2.079, 9.789e-4
-2.080, 9.868e-4
-2.081, 9.944e-4
-2.082, 1.002e-3
-2.083, 1.010e-3
-2.084, 1.011e-3
-2.085, 1.011e-3
-2.086, 1.011e-3
-2.087, 1.011e-3
-2.088, 1.011e-3
-2.089, 1.011e-3
-2.090, 1.011e-3
-2.091, 1.011e-3
-2.092, 1.011e-3
-2.093, 1.011e-3
-2.094, 1.011e-3
-2.095, 1.011e-3
-2.096, 1.011e-3
-2.097, 1.011e-3
-2.098, 1.011e-3
-2.099, 1.011e-3
-2.100, 1.011e-3
-2.101, 1.011e-3
-2.102, 1.011e-3
-2.103, 1.011e-3
-2.104, 1.011e-3
-2.105, 1.011e-3
-2.106, 1.011e-3
-2.107, 1.011e-3
-2.108, 1.011e-3
-2.109, 1.011e-3
-2.110, 1.011e-3
-2.111, 1.011e-3
-2.112, 1.011e-3
-2.113, 1.011e-3
-2.114, 1.011e-3
-2.115, 1.011e-3
-2.116, 1.011e-3
-2.117, 1.011e-3
-2.118, 1.011e-3
-2.119, 1.011e-3
-2.120, 1.011e-3
-2.121, 1.011e-3
-2.122, 1.011e-3
-2.123, 1.011e-3
-2.124, 1.011e-3
-2.125, 1.011e-3
-2.126, 1.011e-3
-2.127, 1.011e-3
-2.128, 1.011e-3
-2.129, 1.011e-3
-2.130, 1.011e-3
-2.131, 1.011e-3
-2.132, 1.011e-3
-2.133, 1.011e-3
-2.134, 1.011e-3
-2.135, 1.011e-3
-2.136, 1.011e-3
-2.137, 1.011e-3
-2.138, 1.011e-3
-2.139, 1.011e-3
-2.140, 1.011e-3
-2.141, 1.011e-3
-2.142, 1.011e-3
-2.143, 1.011e-3
-2.144, 1.011e-3
-2.145, 1.011e-3
-2.146, 1.011e-3
-2.147, 1.011e-3
-2.148, 1.011e-3
-2.149, 1.011e-3
-2.150, 1.011e-3
-2.151, 1.011e-3
-2.152, 1.011e-3
-2.153, 1.011e-3
-2.154, 1.011e-3
-2.155, 1.011e-3
-2.156, 1.011e-3
-2.157, 1.011e-3
-2.158, 1.011e-3
-2.159, 1.011e-3
-2.160, 1.011e-3
-2.161, 1.011e-3
-2.162, 1.011e-3
-2.163, 1.011e-3
-2.164, 1.011e-3
-2.165, 1.011e-3
-2.166, 1.011e-3
-2.167, 1.011e-3
-2.168, 1.011e-3
-2.169, 1.011e-3
-2.170, 1.011e-3
-2.171, 1.011e-3
-2.172, 1.011e-3
-2.173, 1.011e-3
-2.174, 1.011e-3
-2.175, 1.011e-3
-2.176, 1.011e-3
-2.177, 1.011e-3
-2.178, 1.011e-3
-2.179, 1.011e-3
-2.180, 1.011e-3
-2.181, 1.011e-3
-2.182, 1.011e-3
-2.183, 1.011e-3
-2.184, 1.011e-3
-2.185, 1.011e-3
-2.186, 1.011e-3
-2.187, 1.011e-3
-2.188, 1.011e-3
-2.189, 1.011e-3
-2.190, 1.011e-3
-2.191, 1.011e-3
-2.192, 1.011e-3
-2.193, 1.011e-3
-2.194, 1.011e-3
-2.195, 1.011e-3
-2.196, 1.011e-3
-2.197, 1.011e-3
-2.198, 1.011e-3
-2.199, 1.011e-3
-2.200, 1.011e-3
-2.201, 1.011e-3
-2.202, 1.011e-3
-2.203, 1.011e-3
-2.204, 1.011e-3
-2.205, 1.011e-3
-2.206, 1.011e-3
-2.207, 1.011e-3
-2.208, 1.011e-3
-2.209, 1.011e-3
-2.210, 1.011e-3
-2.211, 1.011e-3
-2.212, 1.011e-3
-2.213, 1.011e-3
-2.214, 1.011e-3
-2.215, 1.011e-3
-2.216, 1.011e-3
-2.217, 1.011e-3
-2.218, 1.011e-3
-2.219, 1.011e-3
-2.220, 1.011e-3
-2.221, 1.011e-3
-2.222, 1.011e-3
-2.223, 1.011e-3
-2.224, 1.011e-3
-2.225, 1.011e-3
-2.226, 1.011e-3
-2.227, 1.011e-3
-2.228, 1.011e-3
-2.229, 1.011e-3
-2.230, 1.011e-3
-2.231, 1.011e-3
-2.232, 1.011e-3
-2.233, 1.011e-3
-2.234, 1.011e-3
-2.235, 1.011e-3
-2.236, 1.011e-3
-2.237, 1.011e-3
-2.238, 1.011e-3
-2.239, 1.011e-3
-2.240, 1.011e-3
-2.241, 1.011e-3
-2.242, 1.011e-3
-2.243, 1.011e-3
-2.244, 1.011e-3
-2.245, 1.011e-3
-2.246, 1.011e-3
-2.247, 1.011e-3
-2.248, 1.011e-3
-2.249, 1.011e-3
-2.250, 1.011e-3
-2.251, 1.011e-3
-2.252, 1.011e-3
-2.253, 1.011e-3
-2.254, 1.011e-3
-2.255, 1.011e-3
-2.256, 1.011e-3
-2.257, 1.011e-3
-2.258, 1.011e-3
-2.259, 1.011e-3
-2.260, 1.011e-3
-2.261, 1.011e-3
-2.262, 1.011e-3
-2.263, 1.011e-3
-2.264, 1.011e-3
-2.265, 1.011e-3
-2.266, 1.011e-3
-2.267, 1.011e-3
-2.268, 1.011e-3
-2.269, 1.011e-3
-2.270, 1.011e-3
-2.271, 1.011e-3
-2.272, 1.011e-3
-2.273, 1.011e-3
-2.274, 1.011e-3
-2.275, 1.011e-3
-2.276, 1.011e-3
-2.277, 1.011e-3
-2.278, 1.011e-3
-2.279, 1.011e-3
-2.280, 1.011e-3
-2.281, 1.011e-3
-2.282, 1.011e-3
-2.283, 1.011e-3
-2.284, 1.011e-3
-2.285, 1.011e-3
-2.286, 1.011e-3
-2.287, 1.011e-3
-2.288, 1.011e-3
-2.289, 1.011e-3
-2.290, 1.011e-3
-2.291, 1.011e-3
-2.292, 1.011e-3
-2.293, 1.011e-3
-2.294, 1.011e-3
-2.295, 1.011e-3
-2.296, 1.011e-3
-2.297, 1.011e-3
-2.298, 1.011e-3
-2.299, 1.011e-3
