Potential V vs RHE, Current mA cm-2
0.013299999999999867,-0.48199213986401795
0.012299999999999978,-1.92117794521672
0.011299999999999866,-3.0119203574126634
0.010299999999999976,-3.7970851288377587
0.009299999999999864,-4.406825699079589
0.008299999999999974,-4.887827541033701
0.007299999999999862,-5.323558621392133
0.006299999999999972,-5.629136262162981
0.00529999999999986,-5.847001802342197
0.0042999999999999705,-5.977155241929781
0.0032999999999998586,-6.108723392817228
0.0022999999999999687,-6.152579443113044
0.0012999999999998568,-6.196435493408861
0.00029999999999996696,-6.196435493408861
-0.000700000000000145,-6.196435493408861
-0.0017000000000000348,-6.196435493408861
-0.0027000000000001467,-6.238876832404812
-0.0037000000000000366,-6.326588932996443
-0.0047000000000001485,-6.37044498329226
-0.005700000000000038,-6.458157083883892
-0.00670000000000015,-6.54445447317566
-0.00770000000000004,-6.588310523471475
-0.008700000000000152,-6.588310523471475
-0.009700000000000042,-6.632166573767292
-0.010700000000000154,-6.588310523471475
-0.011700000000000044,-6.588310523471475
-0.012700000000000156,-6.54445447317566
-0.013700000000000045,-6.500598422879844
-0.014700000000000157,-6.500598422879844
-0.015700000000000047,-6.458157083883892
-0.01670000000000016,-6.54445447317566
-0.01770000000000005,-6.588310523471475
-0.01870000000000016,-6.632166573767292
-0.01970000000000005,-6.6760226240631075
-0.020700000000000163,-6.719878674358924
-0.021700000000000053,-6.719878674358924
-0.022700000000000164,-6.719878674358924
-0.023700000000000054,-6.719878674358924
-0.024700000000000166,-6.6760226240631075
-0.025700000000000056,-6.632166573767292
-0.026700000000000168,-6.588310523471475
-0.027700000000000058,-6.588310523471475
-0.02870000000000017,-6.54445447317566
-0.02970000000000006,-6.588310523471475
-0.03070000000000017,-6.588310523471475
-0.03170000000000006,-6.632166573767292
-0.03270000000000017,-6.719878674358924
-0.03370000000000006,-6.762320013354876
-0.034700000000000175,-6.762320013354876
-0.035700000000000065,-6.806176063650692
-0.03670000000000018,-6.762320013354876
-0.03770000000000007,-6.719878674358924
-0.03870000000000018,-6.6760226240631075
-0.03970000000000007,-6.632166573767292
-0.04070000000000018,-6.588310523471475
-0.04170000000000007,-6.588310523471475
-0.04270000000000018,-6.588310523471475
-0.04370000000000007,-6.632166573767292
-0.044700000000000184,-6.6760226240631075
-0.045700000000000074,-6.719878674358924
-0.046700000000000186,-6.806176063650692
-0.047700000000000076,-6.806176063650692
-0.04870000000000019,-6.850032113946507
-0.04970000000000008,-6.850032113946507
-0.05070000000000019,-6.806176063650692
-0.05170000000000008,-6.762320013354876
-0.05270000000000019,-6.719878674358924
-0.05370000000000008,-6.632166573767292
-0.05470000000000019,-6.6760226240631075
-0.05570000000000008,-6.632166573767292
-0.056700000000000195,-6.6760226240631075
-0.057700000000000085,-6.6760226240631075
-0.058700000000000196,-6.762320013354876
-0.059700000000000086,-6.806176063650692
-0.0607000000000002,-6.893888164242324
-0.06170000000000009,-6.893888164242324
-0.0627000000000002,-6.893888164242324
-0.06370000000000009,-6.806176063650692
-0.0647000000000002,-6.806176063650692
-0.06570000000000009,-6.762320013354876
-0.0667000000000002,-6.719878674358924
-0.0677000000000001,-6.6760226240631075
-0.0687000000000002,-6.6760226240631075
-0.0697000000000001,-6.6760226240631075
-0.07070000000000021,-6.719878674358924
-0.0717000000000001,-6.762320013354876
-0.07270000000000021,-6.806176063650692
-0.0737000000000001,-6.893888164242324
-0.07470000000000021,-6.893888164242324
-0.0757000000000001,-6.893888164242324
-0.07670000000000021,-6.893888164242324
-0.0777000000000001,-6.850032113946507
-0.07870000000000021,-6.806176063650692
-0.0797000000000001,-6.762320013354876
-0.08070000000000022,-6.719878674358924
-0.0817000000000001,-6.6760226240631075
-0.08270000000000022,-6.6760226240631075
-0.08370000000000011,-6.719878674358924
-0.08470000000000022,-6.762320013354876
-0.08570000000000011,-6.806176063650692
-0.08670000000000022,-6.850032113946507
-0.08770000000000011,-6.893888164242324
-0.08870000000000022,-6.893888164242324
-0.08970000000000011,-6.893888164242324
-0.09070000000000022,-6.850032113946507
-0.09170000000000011,-6.806176063650692
-0.09270000000000023,-6.762320013354876
-0.09370000000000012,-6.6760226240631075
-0.09470000000000023,-6.719878674358924
-0.09570000000000012,-6.6760226240631075
-0.09670000000000023,-6.719878674358924
-0.09770000000000012,-6.762320013354876
-0.09870000000000023,-6.806176063650692
-0.09970000000000012,-6.893888164242324
-0.10070000000000023,-6.93774421453814
-0.10170000000000012,-6.93774421453814
-0.10270000000000024,-6.93774421453814
-0.10370000000000013,-6.893888164242324
-0.10470000000000024,-6.893888164242324
-0.10570000000000013,-6.850032113946507
-0.10670000000000024,-6.762320013354876
-0.10770000000000013,-6.762320013354876
-0.10870000000000024,-6.719878674358924
-0.10970000000000013,-6.762320013354876
-0.11070000000000024,-6.762320013354876
-0.11170000000000013,-6.850032113946507
-0.11270000000000002,-6.893888164242324
-0.11370000000000013,-6.93774421453814
-0.11470000000000002,-6.93774421453814
-0.11570000000000014,-6.93774421453814
-0.11670000000000003,-6.893888164242324
-0.11770000000000014,-6.850032113946507
-0.11870000000000003,-6.806176063650692
-0.11970000000000014,-6.762320013354876
-0.12070000000000003,-6.719878674358924
-0.12170000000000014,-6.719878674358924
-0.12270000000000003,-6.6760226240631075
-0.12370000000000014,-6.762320013354876
-0.12470000000000003,-6.806176063650692
-0.12570000000000014,-6.850032113946507
-0.12670000000000003,-6.893888164242324
-0.12770000000000015,-6.93774421453814
-0.12870000000000004,-6.93774421453814
-0.12970000000000015,-6.93774421453814
-0.13070000000000004,-6.893888164242324
-0.13170000000000015,-6.893888164242324
-0.13270000000000004,-6.850032113946507
-0.13370000000000015,-6.762320013354876
-0.13470000000000004,-6.762320013354876
-0.13570000000000015,-6.762320013354876
-0.13670000000000004,-6.806176063650692
-0.13770000000000016,-6.806176063650692
-0.13870000000000005,-6.893888164242324
-0.13970000000000016,-6.93774421453814
-0.14070000000000005,-6.981600264833956
-0.14170000000000016,-6.981600264833956
-0.14270000000000005,-6.981600264833956
-0.14370000000000016,-6.93774421453814
-0.14470000000000005,-6.893888164242324
-0.14570000000000016,-6.893888164242324
-0.14670000000000005,-6.806176063650692
-0.14770000000000016,-6.806176063650692
-0.14870000000000005,-6.762320013354876
-0.14970000000000017,-6.762320013354876
-0.15070000000000006,-6.806176063650692
-0.15170000000000017,-6.893888164242324
-0.15270000000000006,-6.93774421453814
-0.15370000000000017,-6.981600264833956
-0.15470000000000006,-7.024041603829907
-0.15570000000000017,-7.024041603829907
-0.15670000000000006,-7.024041603829907
-0.15770000000000017,-6.981600264833956
-0.15870000000000006,-6.93774421453814
-0.15970000000000018,-6.893888164242324
-0.16070000000000007,-6.850032113946507
-0.16170000000000018,-6.850032113946507
-0.16270000000000007,-6.806176063650692
-0.16370000000000018,-6.893888164242324
-0.16470000000000007,-6.93774421453814
-0.16570000000000018,-6.981600264833956
-0.16670000000000007,-7.024041603829907
-0.16770000000000018,-7.024041603829907
-0.16870000000000007,-7.067897654125724
-0.16970000000000018,-7.024041603829907
-0.17070000000000007,-7.024041603829907
-0.17170000000000019,-6.981600264833956
-0.17270000000000008,-6.93774421453814
-0.1737000000000002,-6.850032113946507
-0.17470000000000008,-6.850032113946507
-0.1757000000000002,-6.850032113946507
-0.17670000000000008,-6.893888164242324
-0.1777000000000002,-6.93774421453814
-0.17870000000000008,-6.981600264833956
-0.1797000000000002,-7.024041603829907
-0.18070000000000008,-7.111753704421539
-0.1817000000000002,-7.111753704421539
-0.18270000000000008,-7.111753704421539
-0.1837000000000002,-7.067897654125724
-0.1847000000000001,-7.024041603829907
-0.1857000000000002,-7.024041603829907
-0.1867000000000001,-6.93774421453814
-0.1877000000000002,-6.893888164242324
-0.1887000000000001,-6.893888164242324
-0.1897000000000002,-6.93774421453814
-0.1907000000000001,-6.981600264833956
-0.1917000000000001,-6.981600264833956
-0.19269999999999998,-7.067897654125724
-0.1937000000000001,-7.155609754717355
-0.19469999999999998,-7.155609754717355
-0.1957000000000001,-7.155609754717355
-0.19669999999999999,-7.111753704421539
-0.1977000000000001,-7.111753704421539
-0.1987,-7.067897654125724
-0.1997000000000001,-7.024041603829907
-0.2007,-6.981600264833956
-0.2017000000000001,-6.981600264833956
-0.2027,-6.981600264833956
-0.2037000000000001,-7.024041603829907
-0.2047,-7.067897654125724
-0.2057000000000001,-7.111753704421539
-0.2067,-7.199465805013171
-0.2077000000000001,-7.243321855308987
-0.2087,-7.243321855308987
-0.2097000000000001,-7.243321855308987
-0.2107,-7.199465805013171
-0.2117000000000001,-7.199465805013171
-0.2127,-7.111753704421539
-0.2137000000000001,-7.111753704421539
-0.2147,-7.067897654125724
-0.2157000000000001,-7.111753704421539
-0.2167,-7.155609754717355
-0.21770000000000012,-7.155609754717355
-0.2187,-7.199465805013171
-0.21970000000000012,-7.28576319430494
-0.2207,-7.329619244600755
-0.22170000000000012,-7.329619244600755
-0.2227,-7.37347529489657
-0.22370000000000012,-7.329619244600755
-0.2247,-7.28576319430494
-0.22570000000000012,-7.243321855308987
-0.2267,-7.199465805013171
-0.22770000000000012,-7.155609754717355
-0.22870000000000001,-7.155609754717355
-0.22970000000000013,-7.199465805013171
-0.23070000000000002,-7.199465805013171
-0.23170000000000013,-7.28576319430494
-0.23270000000000002,-7.37347529489657
-0.23370000000000013,-7.4173313451923875
-0.23470000000000002,-7.461187395488204
-0.23570000000000013,-7.461187395488204
-0.23670000000000002,-7.461187395488204
-0.2376999999999999,-7.4173313451923875
-0.23870000000000002,-7.37347529489657
-0.2396999999999999,-7.329619244600755
-0.24070000000000003,-7.28576319430494
-0.24169999999999991,-7.28576319430494
-0.24270000000000003,-7.329619244600755
-0.24369999999999992,-7.37347529489657
-0.24470000000000003,-7.4173313451923875
-0.24569999999999992,-7.50504344578402
-0.24670000000000003,-7.5474847847799715
-0.24769999999999992,-7.591340835075788
-0.24870000000000003,-7.591340835075788
-0.24969999999999992,-7.591340835075788
-0.25070000000000003,-7.5474847847799715
-0.2516999999999999,-7.5474847847799715
-0.25270000000000004,-7.50504344578402
-0.2536999999999999,-7.461187395488204
-0.25470000000000004,-7.461187395488204
-0.2556999999999999,-7.461187395488204
-0.25670000000000004,-7.50504344578402
-0.25769999999999993,-7.591340835075788
-0.25870000000000004,-7.635196885371603
-0.25969999999999993,-7.679052935667419
-0.26070000000000004,-7.7653503249591855
-0.26169999999999993,-7.809206375255003
-0.26270000000000004,-7.809206375255003
-0.26369999999999993,-7.7653503249591855
-0.26470000000000005,-7.722908985963235
-0.26569999999999994,-7.722908985963235
-0.26670000000000005,-7.722908985963235
-0.26769999999999994,-7.722908985963235
-0.26870000000000005,-7.679052935667419
-0.26969999999999994,-7.722908985963235
-0.27070000000000005,-7.7653503249591855
-0.27169999999999994,-7.853062425550818
-0.27270000000000005,-7.896918475846635
-0.27369999999999994,-7.984630576438266
-0.27470000000000006,-8.027071915434218
-0.27569999999999995,-8.027071915434218
-0.27670000000000006,-8.027071915434218
-0.27769999999999995,-7.984630576438266
-0.27870000000000006,-7.984630576438266
-0.27969999999999995,-7.984630576438266
-0.28070000000000006,-7.940774526142452
-0.28169999999999995,-7.940774526142452
-0.28270000000000006,-7.984630576438266
-0.28369999999999995,-8.070927965730034
-0.28470000000000006,-8.11478401602585
-0.28569999999999995,-8.202496116617484
-0.28670000000000007,-8.246352166913299
-0.28769999999999996,-8.332649556205066
-0.28870000000000007,-8.376505606500881
-0.28969999999999996,-8.376505606500881
-0.29070000000000007,-8.376505606500881
-0.29169999999999996,-8.376505606500881
-0.29270000000000007,-8.332649556205066
-0.29369999999999996,-8.332649556205066
-0.2947000000000001,-8.332649556205066
-0.29569999999999996,-8.376505606500881
-0.2967000000000001,-8.4203616567967
-0.29769999999999996,-8.508073757388331
-0.2987000000000001,-8.55051509638428
-0.29969999999999997,-8.68208324727173
-0.3007000000000001,-8.769795347863363
-0.30169999999999997,-8.812236686859313
-0.3027000000000001,-8.812236686859313
-0.30369999999999997,-8.812236686859313
-0.3047000000000001,-8.812236686859313
-0.30569999999999997,-8.85609273715513
-0.3067000000000001,-8.812236686859313
-0.3077,-8.85609273715513
-0.3087000000000001,-8.85609273715513
-0.3097,-8.899948787450944
-0.3107000000000001,-8.987660888042578
-0.3117,-9.073958277334345
-0.3127000000000001,-9.161670377925978
-0.3137,-9.293238528813426
-0.3147000000000001,-9.335679867809377
-0.3157,-9.379535918105192
-0.3167000000000001,-9.423391968401008
-0.3177,-9.423391968401008
-0.3187000000000001,-9.467248018696827
-0.3197,-9.467248018696827
-0.3207000000000001,-9.467248018696827
-0.3217,-9.511104068992642
-0.3227000000000001,-9.55496011928846
-0.3237,-9.641257508580225
-0.3247000000000001,-9.772825659467674
-0.3257,-9.902979099055257
-0.3267000000000001,-10.034547249942705
-0.3277,-10.078403300238522
-0.3287000000000001,-10.164700689530287
-0.3297,-10.25241279012192
-0.3307000000000001,-10.25241279012192
-0.3317,-10.296268840417738
-0.3327000000000001,-10.296268840417738
-0.3337,-10.296268840417738
-0.3347000000000001,-10.382566229709504
-0.3357,-10.42642228000532
-0.3367000000000001,-10.557990430892769
-0.3377,-10.644287820184536
-0.3387000000000001,-10.819712021367803
-0.3397,-10.949865460955383
-0.3407000000000001,-11.037577561547016
-0.3417,-11.123874950838783
-0.3427000000000001,-11.211587051430415
-0.3437,-11.299299152022046
-0.3447000000000001,-11.343155202317865
-0.3457,-11.343155202317865
-0.3467000000000001,-11.385596541313816
-0.3477,-11.473308641905447
-0.3487000000000001,-11.517164692201263
-0.3497,-11.647318131788847
-0.3507000000000001,-11.778886282676295
-0.3517,-11.952895772559694
-0.3527000000000001,-12.084463923447142
-0.3537,-12.214617363034726
-0.3547000000000001,-12.346185513922174
-0.3557,-12.432482903213943
-0.35670000000000013,-12.56405105410139
-0.3577,-12.607907104397206
-0.35870000000000013,-12.694204493688973
-0.3597,-12.73806054398479
-0.36070000000000013,-12.825772644576423
-0.3617,-12.913484745168056
-0.3626999999999999,-13.043638184755638
-0.3637,-13.217647674639037
-0.3646999999999999,-13.349215825526485
-0.3657,-13.523225315409885
-0.3666999999999999,-13.698649516593148
-0.3677,-13.828802956180734
-0.3686999999999999,-14.002812446064135
-0.36970000000000003,-14.13438059695158
-0.3706999999999999,-14.175407224647667
-0.37170000000000003,-14.26028990263957
-0.3726999999999999,-14.345172580631472
-0.37370000000000003,-14.444202371622024
-0.3746999999999999,-14.57152638860988
-0.37570000000000003,-14.65640906660178
-0.3766999999999999,-14.868615761581536
-0.37770000000000004,-15.01008689156804
-0.3786999999999999,-15.222293586547794
-0.37970000000000004,-15.3920589425316
-0.3806999999999999,-15.618412750510005
-0.38170000000000004,-15.74573676749786
-0.38269999999999993,-15.91550212348166
-0.38370000000000004,-16.014531914472215
-0.38469999999999993,-16.099414592464115
-0.38570000000000004,-16.22673860945197
-0.38669999999999993,-16.354062626439823
-0.38770000000000004,-16.495533756426326
-0.38869999999999993,-16.622857773414182
-0.38970000000000005,-16.835064468393938
-0.39069999999999994,-17.018976937376394
-0.39170000000000005,-17.188742293360193
-0.39269999999999994,-17.40094898833995
-0.39370000000000005,-17.669744135314307
-0.39469999999999994,-17.797068152302163
-0.39570000000000005,-18.06586329927652
-0.39669999999999994,-18.19318731626437
-0.39770000000000005,-18.362952672248177
-0.39869999999999994,-18.49027668923603
-0.39970000000000006,-18.674189158218486
-0.40069999999999995,-18.759071836210385
-0.40170000000000006,-18.97127853119014
-0.40269999999999995,-19.155191000172596
-0.40370000000000006,-19.367397695152352
-0.40469999999999995,-19.579604390132108
-0.40570000000000006,-19.848399537106463
-0.40669999999999995,-20.10304757108217
-0.40770000000000006,-20.329401379060574
-0.40869999999999995,-20.541608074040333
-0.40970000000000006,-20.72552054302279
-0.41069999999999995,-20.89528589900659
-0.41170000000000007,-21.065051254990397
-0.41269999999999996,-21.248963723972853
-0.41370000000000007,-21.418729079956652
-0.41469999999999996,-21.63093577493641
-0.41570000000000007,-21.814848243918867
-0.41669999999999996,-22.111937616890522
-0.41770000000000007,-22.38073276386488
-0.41869999999999996,-22.63538079784059
-0.4197000000000001,-22.946617283810895
-0.42069999999999996,-23.24370665678255
-0.4217000000000001,-23.51250180375691
-0.42269999999999996,-23.767149837732617
-0.4237000000000001,-23.993503645711023
-0.42469999999999997,-24.20571034069078
-0.4257000000000001,-24.432064148669184
-0.42669999999999997,-24.601829504652986
-0.4277000000000001,-24.814036199632742
-0.42869999999999997,-25.12527268560305
-0.4297000000000001,-25.39406783257741
-0.43069999999999997,-25.648715866553115
-0.4317000000000001,-26.002393691519377
-0.4327,-26.29948306449103
-0.4337000000000001,-26.65316088945729
-0.4347,-26.9643973754276
-0.4357000000000001,-27.303928087395207
-0.4367,-27.572723234369565
-0.4377000000000001,-27.869812607341224
-0.4387,-28.18104909331153
-0.4397000000000001,-28.435697127287238
-0.4407,-28.746933613257543
-0.4417000000000001,-29.058170099227848
-0.4427,-29.35525947219951
-0.4437000000000001,-29.751378636161718
-0.4447,-30.10505646112798
-0.4457000000000001,-30.487028512091538
-0.4467,-30.8407063370578
-0.4477000000000001,-31.23682550102001
-0.4487,-31.57635621298762
-0.4497000000000001,-31.930034037953877
-0.4507,-32.283711862920136
-0.4517000000000001,-32.58080123589179
-0.4527,-32.892037721862096
-0.4537000000000001,-33.231568433829715
-0.4547,-33.58524625879597
-0.4557000000000001,-33.93892408376223
-0.4567,-34.33504324772444
-0.4577000000000001,-34.75945663768395
-0.4587,-35.198017140642115
-0.4597000000000001,-35.679018982596226
-0.4607,-36.11757948555439
-0.4617000000000001,-36.5985813275085
-0.4627,-37.037141830466666
-0.4637000000000001,-37.47570233342482
-0.4647,-37.85767438438838
-0.4657000000000001,-38.29623488734655
-0.4667,-38.692354051308754
-0.4677000000000001,-39.130914554266916
-0.4687,-39.51288660523048
-0.4697000000000001,-39.99388844718459
-0.4707,-40.51733162813464
-0.4717000000000001,-41.04077480908471
-0.4727,-41.606659329030734
-0.4737000000000001,-42.186690961975394
-0.4747,-42.653545690930855
-0.4757000000000001,-43.17698887188092
-0.4767,-43.657990713835034
-0.4777000000000001,-44.138992555789144
-0.4787,-44.577553058747306
-0.4797000000000001,-45.05855490070142
-0.4807,-45.53955674265553
-0.48170000000000013,-46.062999923605595
-0.4827,-46.586443104555656
-0.48370000000000013,-47.19476896349763
-0.4847,-47.80309482243959
-0.48570000000000013,-48.41142068138156
-0.4867,-48.97730520132757
-0.4876999999999999,-49.557336834272235
-0.4887,-50.12322135421825
-0.4896999999999999,-50.68910587416426
-0.4907,-51.21254905511432
-0.4916999999999999,-51.77843357506035
-0.4927,-52.386759434002315
-0.4936999999999999,-52.95264395394832
-0.49470000000000003,-53.64585249088219
-0.4956999999999999,-54.31076680181876
-0.49670000000000003,-55.003975338752625
-0.4976999999999999,-55.73962521468245
-0.49870000000000003,-56.44698086461496
-0.4996999999999999,-57.14018940154883
-0.5007,-57.93242772947325
-0.5016999999999999,-58.62563626640712
-0.5027,-59.36128614233694
-0.5036999999999999,-60.06864179226946
-0.5047,-60.761850329203334
-0.5056999999999999,-61.49750020513315
-0.5067,-62.20485585506566
-0.5076999999999999,-62.94050573099548
-0.5087,-63.633714267929356
-0.5096999999999999,-64.34106991786187
-0.5107,-65.11916113278764
-0.5116999999999999,-65.86895812171612
