Apr. 6, 2025   04:53:50
Cyclic Voltammetry
File: c:/users/guazh/data/banditlqround7_x0exp994_r5/2025-03-28-exp996\exp996-2025-04-06t04_40_19-arkoh\exp996_cv_sr_50mvs_efin_-1700mv.bin
Data Source:  Experiment
Instrument Model:  CHI760E
Header: CV ran at 50 mVs
Note: 

Init E (V) = -1
High E (V) = -1
Low E (V) = -1.7
Final E (V) = -1
Init P/N = N
Scan Rate (V/s) = 0.05
Segment = 3
Sample Interval (V) = 0.001
Quiet Time (sec) = 2
Sensitivity (A/V) = 0.01
Comp R (ohm) = 2.0

Results:

Channel 1:
Segment 1:

Segment 2:

Segment 3:

Potential/V, Current/A

-1.000, -3.337e-6
-1.001, -2.143e-6
-1.002, -1.442e-6
-1.003, -7.814e-7
-1.004, -2.092e-7
-1.005, 1.460e-7
-1.006, 6.097e-7
-1.007, 1.083e-6
-1.008, 1.448e-6
-1.009, 1.794e-6
-1.010, 2.080e-6
-1.011, 2.287e-6
-1.012, 2.721e-6
-1.013, 2.958e-6
-1.014, 3.283e-6
-1.015, 3.471e-6
-1.016, 3.629e-6
-1.017, 3.895e-6
-1.018, 4.181e-6
-1.019, 4.408e-6
-1.020, 4.576e-6
-1.021, 4.704e-6
-1.022, 4.872e-6
-1.023, 5.128e-6
-1.024, 5.424e-6
-1.025, 5.523e-6
-1.026, 5.681e-6
-1.027, 5.789e-6
-1.028, 5.987e-6
-1.029, 6.233e-6
-1.030, 6.371e-6
-1.031, 6.431e-6
-1.032, 6.608e-6
-1.033, 6.687e-6
-1.034, 6.983e-6
-1.035, 6.894e-6
-1.036, 7.092e-6
-1.037, 7.200e-6
-1.038, 7.447e-6
-1.039, 7.634e-6
-1.040, 7.713e-6
-1.041, 7.782e-6
-1.042, 7.930e-6
-1.043, 8.039e-6
-1.044, 8.266e-6
-1.045, 8.266e-6
-1.046, 8.315e-6
-1.047, 8.404e-6
-1.048, 8.611e-6
-1.049, 8.700e-6
-1.050, 9.016e-6
-1.051, 8.946e-6
-1.052, 9.035e-6
-1.053, 9.223e-6
-1.054, 9.489e-6
-1.055, 9.479e-6
-1.056, 9.390e-6
-1.057, 9.677e-6
-1.058, 9.746e-6
-1.059, 9.933e-6
-1.060, 9.982e-6
-1.061, 1.003e-5
-1.062, 1.016e-5
-1.063, 1.039e-5
-1.064, 1.052e-5
-1.065, 1.054e-5
-1.066, 1.076e-5
-1.067, 1.075e-5
-1.068, 1.095e-5
-1.069, 1.109e-5
-1.070, 1.115e-5
-1.071, 1.124e-5
-1.072, 1.129e-5
-1.073, 1.148e-5
-1.074, 1.172e-5
-1.075, 1.182e-5
-1.076, 1.187e-5
-1.077, 1.192e-5
-1.078, 1.211e-5
-1.079, 1.235e-5
-1.080, 1.232e-5
-1.081, 1.243e-5
-1.082, 1.256e-5
-1.083, 1.269e-5
-1.084, 1.302e-5
-1.085, 1.301e-5
-1.086, 1.313e-5
-1.087, 1.309e-5
-1.088, 1.330e-5
-1.089, 1.351e-5
-1.090, 1.360e-5
-1.091, 1.364e-5
-1.092, 1.380e-5
-1.093, 1.391e-5
-1.094, 1.421e-5
-1.095, 1.419e-5
-1.096, 1.424e-5
-1.097, 1.431e-5
-1.098, 1.474e-5
-1.099, 1.472e-5
-1.100, 1.484e-5
-1.101, 1.493e-5
-1.102, 1.501e-5
-1.103, 1.512e-5
-1.104, 1.527e-5
-1.105, 1.544e-5
-1.106, 1.540e-5
-1.107, 1.547e-5
-1.108, 1.574e-5
-1.109, 1.582e-5
-1.110, 1.582e-5
-1.111, 1.605e-5
-1.112, 1.601e-5
-1.113, 1.616e-5
-1.114, 1.643e-5
-1.115, 1.633e-5
-1.116, 1.639e-5
-1.117, 1.652e-5
-1.118, 1.661e-5
-1.119, 1.674e-5
-1.120, 1.677e-5
-1.121, 1.673e-5
-1.122, 1.670e-5
-1.123, 1.691e-5
-1.124, 1.715e-5
-1.125, 1.706e-5
-1.126, 1.701e-5
-1.127, 1.707e-5
-1.128, 1.717e-5
-1.129, 1.724e-5
-1.130, 1.723e-5
-1.131, 1.723e-5
-1.132, 1.718e-5
-1.133, 1.731e-5
-1.134, 1.747e-5
-1.135, 1.739e-5
-1.136, 1.728e-5
-1.137, 1.729e-5
-1.138, 1.722e-5
-1.139, 1.742e-5
-1.140, 1.731e-5
-1.141, 1.729e-5
-1.142, 1.726e-5
-1.143, 1.723e-5
-1.144, 1.733e-5
-1.145, 1.723e-5
-1.146, 1.721e-5
-1.147, 1.713e-5
-1.148, 1.707e-5
-1.149, 1.717e-5
-1.150, 1.710e-5
-1.151, 1.703e-5
-1.152, 1.695e-5
-1.153, 1.713e-5
-1.154, 1.703e-5
-1.155, 1.689e-5
-1.156, 1.683e-5
-1.157, 1.673e-5
-1.158, 1.683e-5
-1.159, 1.679e-5
-1.160, 1.665e-5
-1.161, 1.655e-5
-1.162, 1.641e-5
-1.163, 1.644e-5
-1.164, 1.650e-5
-1.165, 1.642e-5
-1.166, 1.625e-5
-1.167, 1.623e-5
-1.168, 1.609e-5
-1.169, 1.623e-5
-1.170, 1.613e-5
-1.171, 1.597e-5
-1.172, 1.585e-5
-1.173, 1.581e-5
-1.174, 1.593e-5
-1.175, 1.578e-5
-1.176, 1.551e-5
-1.177, 1.553e-5
-1.178, 1.555e-5
-1.179, 1.563e-5
-1.180, 1.547e-5
-1.181, 1.538e-5
-1.182, 1.519e-5
-1.183, 1.522e-5
-1.184, 1.514e-5
-1.185, 1.506e-5
-1.186, 1.492e-5
-1.187, 1.484e-5
-1.188, 1.485e-5
-1.189, 1.483e-5
-1.190, 1.470e-5
-1.191, 1.466e-5
-1.192, 1.449e-5
-1.193, 1.446e-5
-1.194, 1.445e-5
-1.195, 1.441e-5
-1.196, 1.423e-5
-1.197, 1.422e-5
-1.198, 1.408e-5
-1.199, 1.409e-5
-1.200, 1.399e-5
-1.201, 1.387e-5
-1.202, 1.384e-5
-1.203, 1.376e-5
-1.204, 1.387e-5
-1.205, 1.375e-5
-1.206, 1.360e-5
-1.207, 1.353e-5
-1.208, 1.344e-5
-1.209, 1.353e-5
-1.210, 1.342e-5
-1.211, 1.327e-5
-1.212, 1.315e-5
-1.213, 1.320e-5
-1.214, 1.321e-5
-1.215, 1.312e-5
-1.216, 1.303e-5
-1.217, 1.296e-5
-1.218, 1.286e-5
-1.219, 1.301e-5
-1.220, 1.284e-5
-1.221, 1.276e-5
-1.222, 1.263e-5
-1.223, 1.268e-5
-1.224, 1.267e-5
-1.225, 1.256e-5
-1.226, 1.238e-5
-1.227, 1.230e-5
-1.228, 1.242e-5
-1.229, 1.256e-5
-1.230, 1.238e-5
-1.231, 1.228e-5
-1.232, 1.226e-5
-1.233, 1.216e-5
-1.234, 1.228e-5
-1.235, 1.207e-5
-1.236, 1.204e-5
-1.237, 1.198e-5
-1.238, 1.203e-5
-1.239, 1.201e-5
-1.240, 1.186e-5
-1.241, 1.178e-5
-1.242, 1.186e-5
-1.243, 1.177e-5
-1.244, 1.190e-5
-1.245, 1.174e-5
-1.246, 1.170e-5
-1.247, 1.169e-5
-1.248, 1.164e-5
-1.249, 1.167e-5
-1.250, 1.159e-5
-1.251, 1.149e-5
-1.252, 1.139e-5
-1.253, 1.138e-5
-1.254, 1.150e-5
-1.255, 1.148e-5
-1.256, 1.144e-5
-1.257, 1.136e-5
-1.258, 1.144e-5
-1.259, 1.141e-5
-1.260, 1.131e-5
-1.261, 1.121e-5
-1.262, 1.123e-5
-1.263, 1.114e-5
-1.264, 1.127e-5
-1.265, 1.121e-5
-1.266, 1.114e-5
-1.267, 1.122e-5
-1.268, 1.109e-5
-1.269, 1.119e-5
-1.270, 1.118e-5
-1.271, 1.112e-5
-1.272, 1.106e-5
-1.273, 1.102e-5
-1.274, 1.116e-5
-1.275, 1.112e-5
-1.276, 1.114e-5
-1.277, 1.102e-5
-1.278, 1.097e-5
-1.279, 1.112e-5
-1.280, 1.111e-5
-1.281, 1.107e-5
-1.282, 1.109e-5
-1.283, 1.111e-5
-1.284, 1.118e-5
-1.285, 1.115e-5
-1.286, 1.110e-5
-1.287, 1.110e-5
-1.288, 1.111e-5
-1.289, 1.113e-5
-1.290, 1.112e-5
-1.291, 1.100e-5
-1.292, 1.106e-5
-1.293, 1.111e-5
-1.294, 1.128e-5
-1.295, 1.126e-5
-1.296, 1.119e-5
-1.297, 1.115e-5
-1.298, 1.119e-5
-1.299, 1.122e-5
-1.300, 1.123e-5
-1.301, 1.126e-5
-1.302, 1.121e-5
-1.303, 1.121e-5
-1.304, 1.131e-5
-1.305, 1.127e-5
-1.306, 1.137e-5
-1.307, 1.140e-5
-1.308, 1.128e-5
-1.309, 1.142e-5
-1.310, 1.149e-5
-1.311, 1.136e-5
-1.312, 1.149e-5
-1.313, 1.153e-5
-1.314, 1.156e-5
-1.315, 1.168e-5
-1.316, 1.157e-5
-1.317, 1.156e-5
-1.318, 1.157e-5
-1.319, 1.184e-5
-1.320, 1.178e-5
-1.321, 1.177e-5
-1.322, 1.182e-5
-1.323, 1.173e-5
-1.324, 1.192e-5
-1.325, 1.196e-5
-1.326, 1.209e-5
-1.327, 1.194e-5
-1.328, 1.199e-5
-1.329, 1.212e-5
-1.330, 1.215e-5
-1.331, 1.221e-5
-1.332, 1.219e-5
-1.333, 1.220e-5
-1.334, 1.236e-5
-1.335, 1.247e-5
-1.336, 1.243e-5
-1.337, 1.248e-5
-1.338, 1.261e-5
-1.339, 1.268e-5
-1.340, 1.276e-5
-1.341, 1.278e-5
-1.342, 1.287e-5
-1.343, 1.282e-5
-1.344, 1.301e-5
-1.345, 1.305e-5
-1.346, 1.312e-5
-1.347, 1.318e-5
-1.348, 1.325e-5
-1.349, 1.339e-5
-1.350, 1.357e-5
-1.351, 1.356e-5
-1.352, 1.362e-5
-1.353, 1.364e-5
-1.354, 1.381e-5
-1.355, 1.386e-5
-1.356, 1.390e-5
-1.357, 1.411e-5
-1.358, 1.420e-5
-1.359, 1.435e-5
-1.360, 1.445e-5
-1.361, 1.442e-5
-1.362, 1.461e-5
-1.363, 1.475e-5
-1.364, 1.481e-5
-1.365, 1.498e-5
-1.366, 1.508e-5
-1.367, 1.514e-5
-1.368, 1.526e-5
-1.369, 1.549e-5
-1.370, 1.570e-5
-1.371, 1.573e-5
-1.372, 1.590e-5
-1.373, 1.609e-5
-1.374, 1.620e-5
-1.375, 1.650e-5
-1.376, 1.659e-5
-1.377, 1.674e-5
-1.378, 1.696e-5
-1.379, 1.704e-5
-1.380, 1.729e-5
-1.381, 1.744e-5
-1.382, 1.763e-5
-1.383, 1.795e-5
-1.384, 1.816e-5
-1.385, 1.842e-5
-1.386, 1.862e-5
-1.387, 1.874e-5
-1.388, 1.908e-5
-1.389, 1.933e-5
-1.390, 1.974e-5
-1.391, 1.982e-5
-1.392, 2.013e-5
-1.393, 2.029e-5
-1.394, 2.063e-5
-1.395, 2.097e-5
-1.396, 2.122e-5
-1.397, 2.149e-5
-1.398, 2.184e-5
-1.399, 2.225e-5
-1.400, 2.268e-5
-1.401, 2.293e-5
-1.402, 2.334e-5
-1.403, 2.361e-5
-1.404, 2.418e-5
-1.405, 2.455e-5
-1.406, 2.496e-5
-1.407, 2.532e-5
-1.408, 2.586e-5
-1.409, 2.631e-5
-1.410, 2.688e-5
-1.411, 2.736e-5
-1.412, 2.783e-5
-1.413, 2.836e-5
-1.414, 2.894e-5
-1.415, 2.955e-5
-1.416, 3.010e-5
-1.417, 3.060e-5
-1.418, 3.123e-5
-1.419, 3.195e-5
-1.420, 3.262e-5
-1.421, 3.334e-5
-1.422, 3.402e-5
-1.423, 3.470e-5
-1.424, 3.540e-5
-1.425, 3.631e-5
-1.426, 3.712e-5
-1.427, 3.792e-5
-1.428, 3.872e-5
-1.429, 3.980e-5
-1.430, 4.071e-5
-1.431, 4.155e-5
-1.432, 4.251e-5
-1.433, 4.362e-5
-1.434, 4.488e-5
-1.435, 4.601e-5
-1.436, 4.705e-5
-1.437, 4.820e-5
-1.438, 4.944e-5
-1.439, 5.083e-5
-1.440, 5.208e-5
-1.441, 5.350e-5
-1.442, 5.501e-5
-1.443, 5.644e-5
-1.444, 5.805e-5
-1.445, 5.963e-5
-1.446, 6.122e-5
-1.447, 6.307e-5
-1.448, 6.480e-5
-1.449, 6.661e-5
-1.450, 6.870e-5
-1.451, 7.060e-5
-1.452, 7.272e-5
-1.453, 7.485e-5
-1.454, 7.707e-5
-1.455, 7.957e-5
-1.456, 8.195e-5
-1.457, 8.456e-5
-1.458, 8.722e-5
-1.459, 8.995e-5
-1.460, 9.297e-5
-1.461, 9.590e-5
-1.462, 9.898e-5
-1.463, 1.022e-4
-1.464, 1.057e-4
-1.465, 1.091e-4
-1.466, 1.127e-4
-1.467, 1.164e-4
-1.468, 1.202e-4
-1.469, 1.242e-4
-1.470, 1.285e-4
-1.471, 1.330e-4
-1.472, 1.375e-4
-1.473, 1.423e-4
-1.474, 1.471e-4
-1.475, 1.523e-4
-1.476, 1.577e-4
-1.477, 1.632e-4
-1.478, 1.688e-4
-1.479, 1.747e-4
-1.480, 1.810e-4
-1.481, 1.873e-4
-1.482, 1.938e-4
-1.483, 2.007e-4
-1.484, 2.078e-4
-1.485, 2.154e-4
-1.486, 2.229e-4
-1.487, 2.307e-4
-1.488, 2.387e-4
-1.489, 2.471e-4
-1.490, 2.560e-4
-1.491, 2.652e-4
-1.492, 2.747e-4
-1.493, 2.843e-4
-1.494, 2.944e-4
-1.495, 3.050e-4
-1.496, 3.157e-4
-1.497, 3.269e-4
-1.498, 3.385e-4
-1.499, 3.503e-4
-1.500, 3.628e-4
-1.501, 3.756e-4
-1.502, 3.890e-4
-1.503, 4.023e-4
-1.504, 4.161e-4
-1.505, 4.305e-4
-1.506, 4.454e-4
-1.507, 4.609e-4
-1.508, 4.768e-4
-1.509, 4.931e-4
-1.510, 5.102e-4
-1.511, 5.278e-4
-1.512, 5.453e-4
-1.513, 5.638e-4
-1.514, 5.829e-4
-1.515, 6.020e-4
-1.516, 6.217e-4
-1.517, 6.423e-4
-1.518, 6.634e-4
-1.519, 6.856e-4
-1.520, 7.085e-4
-1.521, 7.315e-4
-1.522, 7.548e-4
-1.523, 7.787e-4
-1.524, 8.037e-4
-1.525, 8.295e-4
-1.526, 8.556e-4
-1.527, 8.825e-4
-1.528, 9.097e-4
-1.529, 9.384e-4
-1.530, 9.678e-4
-1.531, 9.976e-4
-1.532, 1.027e-3
-1.533, 1.057e-3
-1.534, 1.089e-3
-1.535, 1.121e-3
-1.536, 1.154e-3
-1.537, 1.188e-3
-1.538, 1.221e-3
-1.539, 1.257e-3
-1.540, 1.294e-3
-1.541, 1.330e-3
-1.542, 1.367e-3
-1.543, 1.406e-3
-1.544, 1.445e-3
-1.545, 1.483e-3
-1.546, 1.525e-3
-1.547, 1.567e-3
-1.548, 1.609e-3
-1.549, 1.652e-3
-1.550, 1.699e-3
-1.551, 1.744e-3
-1.552, 1.789e-3
-1.553, 1.834e-3
-1.554, 1.880e-3
-1.555, 1.926e-3
-1.556, 1.973e-3
-1.557, 2.020e-3
-1.558, 2.069e-3
-1.559, 2.121e-3
-1.560, 2.171e-3
-1.561, 2.224e-3
-1.562, 2.277e-3
-1.563, 2.328e-3
-1.564, 2.383e-3
-1.565, 2.439e-3
-1.566, 2.497e-3
-1.567, 2.553e-3
-1.568, 2.607e-3
-1.569, 2.663e-3
-1.570, 2.716e-3
-1.571, 2.777e-3
-1.572, 2.835e-3
-1.573, 2.893e-3
-1.574, 2.952e-3
-1.575, 3.013e-3
-1.576, 3.074e-3
-1.577, 3.138e-3
-1.578, 3.203e-3
-1.579, 3.268e-3
-1.580, 3.331e-3
-1.581, 3.395e-3
-1.582, 3.462e-3
-1.583, 3.528e-3
-1.584, 3.595e-3
-1.585, 3.661e-3
-1.586, 3.728e-3
-1.587, 3.797e-3
-1.588, 3.863e-3
-1.589, 3.931e-3
-1.590, 3.999e-3
-1.591, 4.067e-3
-1.592, 4.136e-3
-1.593, 4.203e-3
-1.594, 4.272e-3
-1.595, 4.346e-3
-1.596, 4.423e-3
-1.597, 4.496e-3
-1.598, 4.568e-3
-1.599, 4.645e-3
-1.600, 4.719e-3
-1.601, 4.794e-3
-1.602, 4.867e-3
-1.603, 4.942e-3
-1.604, 5.014e-3
-1.605, 5.090e-3
-1.606, 5.162e-3
-1.607, 5.229e-3
-1.608, 5.300e-3
-1.609, 5.378e-3
-1.610, 5.454e-3
-1.611, 5.536e-3
-1.612, 5.623e-3
-1.613, 5.720e-3
-1.614, 5.802e-3
-1.615, 5.876e-3
-1.616, 5.944e-3
-1.617, 6.019e-3
-1.618, 6.096e-3
-1.619, 6.178e-3
-1.620, 6.265e-3
-1.621, 6.348e-3
-1.622, 6.441e-3
-1.623, 6.526e-3
-1.624, 6.612e-3
-1.625, 6.688e-3
-1.626, 6.762e-3
-1.627, 6.837e-3
-1.628, 6.913e-3
-1.629, 6.997e-3
-1.630, 7.071e-3
-1.631, 7.150e-3
-1.632, 7.242e-3
-1.633, 7.333e-3
-1.634, 7.417e-3
-1.635, 7.494e-3
-1.636, 7.582e-3
-1.637, 7.653e-3
-1.638, 7.710e-3
-1.639, 7.768e-3
-1.640, 7.852e-3
-1.641, 7.932e-3
-1.642, 7.993e-3
-1.643, 8.064e-3
-1.644, 8.149e-3
-1.645, 8.231e-3
-1.646, 8.314e-3
-1.647, 8.382e-3
-1.648, 8.451e-3
-1.649, 8.520e-3
-1.650, 8.595e-3
-1.651, 8.676e-3
-1.652, 8.750e-3
-1.653, 8.821e-3
-1.654, 8.892e-3
-1.655, 8.968e-3
-1.656, 9.052e-3
-1.657, 9.125e-3
-1.658, 9.201e-3
-1.659, 9.265e-3
-1.660, 9.350e-3
-1.661, 9.428e-3
-1.662, 9.540e-3
-1.663, 9.624e-3
-1.664, 9.691e-3
-1.665, 9.797e-3
-1.666, 9.894e-3
-1.667, 9.984e-3
-1.668, 1.006e-2
-1.669, 1.011e-2
-1.670, 1.017e-2
-1.671, 1.024e-2
-1.672, 1.030e-2
-1.673, 1.035e-2
-1.674, 1.045e-2
-1.675, 1.052e-2
-1.676, 1.057e-2
-1.677, 1.064e-2
-1.678, 1.068e-2
-1.679, 1.072e-2
-1.680, 1.077e-2
-1.681, 1.083e-2
-1.682, 1.090e-2
-1.683, 1.097e-2
-1.684, 1.103e-2
-1.685, 1.109e-2
-1.686, 1.114e-2
-1.687, 1.120e-2
-1.688, 1.125e-2
-1.689, 1.133e-2
-1.690, 1.139e-2
-1.691, 1.146e-2
-1.692, 1.152e-2
-1.693, 1.160e-2
-1.694, 1.167e-2
-1.695, 1.175e-2
-1.696, 1.181e-2
-1.697, 1.187e-2
-1.698, 1.201e-2
-1.699, 1.212e-2
-1.700, 1.224e-2
-1.699, 1.214e-2
-1.698, 1.205e-2
-1.697, 1.184e-2
-1.696, 1.171e-2
-1.695, 1.160e-2
-1.694, 1.156e-2
-1.693, 1.150e-2
-1.692, 1.146e-2
-1.691, 1.137e-2
-1.690, 1.127e-2
-1.689, 1.119e-2
-1.688, 1.111e-2
-1.687, 1.101e-2
-1.686, 1.091e-2
-1.685, 1.084e-2
-1.684, 1.078e-2
-1.683, 1.072e-2
-1.682, 1.070e-2
-1.681, 1.068e-2
-1.680, 1.066e-2
-1.679, 1.062e-2
-1.678, 1.054e-2
-1.677, 1.046e-2
-1.676, 1.039e-2
-1.675, 1.034e-2
-1.674, 1.026e-2
-1.673, 1.017e-2
-1.672, 1.009e-2
-1.671, 9.998e-3
-1.670, 9.897e-3
-1.669, 9.790e-3
-1.668, 9.686e-3
-1.667, 9.606e-3
-1.666, 9.516e-3
-1.665, 9.416e-3
-1.664, 9.325e-3
-1.663, 9.244e-3
-1.662, 9.135e-3
-1.661, 9.027e-3
-1.660, 8.923e-3
-1.659, 8.827e-3
-1.658, 8.718e-3
-1.657, 8.606e-3
-1.656, 8.504e-3
-1.655, 8.409e-3
-1.654, 8.313e-3
-1.653, 8.227e-3
-1.652, 8.212e-3
-1.651, 8.121e-3
-1.650, 8.052e-3
-1.649, 7.945e-3
-1.648, 7.853e-3
-1.647, 7.771e-3
-1.646, 7.682e-3
-1.645, 7.598e-3
-1.644, 7.504e-3
-1.643, 7.424e-3
-1.642, 7.354e-3
-1.641, 7.278e-3
-1.640, 7.191e-3
-1.639, 7.102e-3
-1.638, 7.029e-3
-1.637, 6.953e-3
-1.636, 6.879e-3
-1.635, 6.792e-3
-1.634, 6.701e-3
-1.633, 6.611e-3
-1.632, 6.516e-3
-1.631, 6.440e-3
-1.630, 6.374e-3
-1.629, 6.300e-3
-1.628, 6.247e-3
-1.627, 6.181e-3
-1.626, 6.113e-3
-1.625, 6.039e-3
-1.624, 5.971e-3
-1.623, 5.901e-3
-1.622, 5.818e-3
-1.621, 5.760e-3
-1.620, 5.666e-3
-1.619, 5.582e-3
-1.618, 5.502e-3
-1.617, 5.421e-3
-1.616, 5.355e-3
-1.615, 5.295e-3
-1.614, 5.238e-3
-1.613, 5.165e-3
-1.612, 5.102e-3
-1.611, 5.041e-3
-1.610, 4.973e-3
-1.609, 4.894e-3
-1.608, 4.823e-3
-1.607, 4.761e-3
-1.606, 4.693e-3
-1.605, 4.624e-3
-1.604, 4.563e-3
-1.603, 4.509e-3
-1.602, 4.454e-3
-1.601, 4.401e-3
-1.600, 4.351e-3
-1.599, 4.286e-3
-1.598, 4.218e-3
-1.597, 4.154e-3
-1.596, 4.089e-3
-1.595, 4.026e-3
-1.594, 3.966e-3
-1.593, 3.906e-3
-1.592, 3.845e-3
-1.591, 3.783e-3
-1.590, 3.725e-3
-1.589, 3.668e-3
-1.588, 3.607e-3
-1.587, 3.555e-3
-1.586, 3.500e-3
-1.585, 3.442e-3
-1.584, 3.380e-3
-1.583, 3.320e-3
-1.582, 3.263e-3
-1.581, 3.204e-3
-1.580, 3.147e-3
-1.579, 3.092e-3
-1.578, 3.039e-3
-1.577, 2.984e-3
-1.576, 2.928e-3
-1.575, 2.874e-3
-1.574, 2.821e-3
-1.573, 2.769e-3
-1.572, 2.716e-3
-1.571, 2.665e-3
-1.570, 2.617e-3
-1.569, 2.564e-3
-1.568, 2.517e-3
-1.567, 2.466e-3
-1.566, 2.419e-3
-1.565, 2.371e-3
-1.564, 2.324e-3
-1.563, 2.276e-3
-1.562, 2.230e-3
-1.561, 2.183e-3
-1.560, 2.137e-3
-1.559, 2.094e-3
-1.558, 2.051e-3
-1.557, 2.005e-3
-1.556, 1.963e-3
-1.555, 1.925e-3
-1.554, 1.883e-3
-1.553, 1.843e-3
-1.552, 1.807e-3
-1.551, 1.771e-3
-1.550, 1.735e-3
-1.549, 1.699e-3
-1.548, 1.665e-3
-1.547, 1.631e-3
-1.546, 1.598e-3
-1.545, 1.563e-3
-1.544, 1.529e-3
-1.543, 1.495e-3
-1.542, 1.461e-3
-1.541, 1.430e-3
-1.540, 1.398e-3
-1.539, 1.366e-3
-1.538, 1.336e-3
-1.537, 1.306e-3
-1.536, 1.274e-3
-1.535, 1.243e-3
-1.534, 1.215e-3
-1.533, 1.189e-3
-1.532, 1.158e-3
-1.531, 1.130e-3
-1.530, 1.102e-3
-1.529, 1.076e-3
-1.528, 1.049e-3
-1.527, 1.024e-3
-1.526, 9.977e-4
-1.525, 9.734e-4
-1.524, 9.490e-4
-1.523, 9.259e-4
-1.522, 9.024e-4
-1.521, 8.792e-4
-1.520, 8.571e-4
-1.519, 8.351e-4
-1.518, 8.129e-4
-1.517, 7.906e-4
-1.516, 7.696e-4
-1.515, 7.488e-4
-1.514, 7.292e-4
-1.513, 7.093e-4
-1.512, 6.903e-4
-1.511, 6.711e-4
-1.510, 6.525e-4
-1.509, 6.343e-4
-1.508, 6.166e-4
-1.507, 5.995e-4
-1.506, 5.829e-4
-1.505, 5.663e-4
-1.504, 5.503e-4
-1.503, 5.350e-4
-1.502, 5.201e-4
-1.501, 5.054e-4
-1.500, 4.918e-4
-1.499, 4.783e-4
-1.498, 4.642e-4
-1.497, 4.498e-4
-1.496, 4.365e-4
-1.495, 4.241e-4
-1.494, 4.121e-4
-1.493, 4.005e-4
-1.492, 3.889e-4
-1.491, 3.775e-4
-1.490, 3.665e-4
-1.489, 3.557e-4
-1.488, 3.452e-4
-1.487, 3.347e-4
-1.486, 3.243e-4
-1.485, 3.142e-4
-1.484, 3.048e-4
-1.483, 2.955e-4
-1.482, 2.866e-4
-1.481, 2.776e-4
-1.480, 2.694e-4
-1.479, 2.614e-4
-1.478, 2.532e-4
-1.477, 2.450e-4
-1.476, 2.369e-4
-1.475, 2.295e-4
-1.474, 2.230e-4
-1.473, 2.163e-4
-1.472, 2.098e-4
-1.471, 2.032e-4
-1.470, 1.969e-4
-1.469, 1.909e-4
-1.468, 1.848e-4
-1.467, 1.789e-4
-1.466, 1.733e-4
-1.465, 1.678e-4
-1.464, 1.629e-4
-1.463, 1.577e-4
-1.462, 1.527e-4
-1.461, 1.481e-4
-1.460, 1.435e-4
-1.459, 1.391e-4
-1.458, 1.348e-4
-1.457, 1.306e-4
-1.456, 1.266e-4
-1.455, 1.227e-4
-1.454, 1.191e-4
-1.453, 1.154e-4
-1.452, 1.118e-4
-1.451, 1.084e-4
-1.450, 1.051e-4
-1.449, 1.019e-4
-1.448, 9.869e-5
-1.447, 9.560e-5
-1.446, 9.263e-5
-1.445, 8.986e-5
-1.444, 8.714e-5
-1.443, 8.447e-5
-1.442, 8.182e-5
-1.441, 7.931e-5
-1.440, 7.692e-5
-1.439, 7.463e-5
-1.438, 7.236e-5
-1.437, 7.015e-5
-1.436, 6.805e-5
-1.435, 6.607e-5
-1.434, 6.417e-5
-1.433, 6.208e-5
-1.432, 6.025e-5
-1.431, 5.851e-5
-1.430, 5.682e-5
-1.429, 5.535e-5
-1.428, 5.364e-5
-1.427, 5.200e-5
-1.426, 5.045e-5
-1.425, 4.896e-5
-1.424, 4.767e-5
-1.423, 4.626e-5
-1.422, 4.487e-5
-1.421, 4.326e-5
-1.420, 4.197e-5
-1.419, 4.092e-5
-1.418, 3.974e-5
-1.417, 3.855e-5
-1.416, 3.752e-5
-1.415, 3.641e-5
-1.414, 3.546e-5
-1.413, 3.440e-5
-1.412, 3.342e-5
-1.411, 3.244e-5
-1.410, 3.162e-5
-1.409, 3.081e-5
-1.408, 2.970e-5
-1.407, 2.892e-5
-1.406, 2.808e-5
-1.405, 2.738e-5
-1.404, 2.673e-5
-1.403, 2.581e-5
-1.402, 2.514e-5
-1.401, 2.422e-5
-1.400, 2.372e-5
-1.399, 2.309e-5
-1.398, 2.230e-5
-1.397, 2.172e-5
-1.396, 2.116e-5
-1.395, 2.041e-5
-1.394, 1.999e-5
-1.393, 1.940e-5
-1.392, 1.892e-5
-1.391, 1.834e-5
-1.390, 1.795e-5
-1.389, 1.762e-5
-1.388, 1.699e-5
-1.387, 1.664e-5
-1.386, 1.614e-5
-1.385, 1.575e-5
-1.384, 1.541e-5
-1.383, 1.498e-5
-1.382, 1.442e-5
-1.381, 1.416e-5
-1.380, 1.388e-5
-1.379, 1.347e-5
-1.378, 1.306e-5
-1.377, 1.276e-5
-1.376, 1.248e-5
-1.375, 1.218e-5
-1.374, 1.189e-5
-1.373, 1.159e-5
-1.372, 1.127e-5
-1.371, 1.098e-5
-1.370, 1.077e-5
-1.369, 1.054e-5
-1.368, 1.018e-5
-1.367, 9.884e-6
-1.366, 9.686e-6
-1.365, 9.578e-6
-1.364, 9.321e-6
-1.363, 9.025e-6
-1.362, 8.907e-6
-1.361, 8.631e-6
-1.360, 8.295e-6
-1.359, 8.345e-6
-1.358, 8.059e-6
-1.357, 7.832e-6
-1.356, 7.605e-6
-1.355, 7.496e-6
-1.354, 7.368e-6
-1.353, 7.210e-6
-1.352, 6.924e-6
-1.351, 6.815e-6
-1.350, 6.628e-6
-1.349, 6.588e-6
-1.348, 6.391e-6
-1.347, 6.233e-6
-1.346, 6.085e-6
-1.345, 5.947e-6
-1.344, 5.927e-6
-1.343, 5.631e-6
-1.342, 5.395e-6
-1.341, 5.247e-6
-1.340, 5.306e-6
-1.339, 5.148e-6
-1.338, 4.921e-6
-1.337, 4.822e-6
-1.336, 4.734e-6
-1.335, 4.714e-6
-1.334, 4.625e-6
-1.333, 4.477e-6
-1.332, 4.349e-6
-1.331, 4.132e-6
-1.330, 4.083e-6
-1.329, 4.122e-6
-1.328, 3.885e-6
-1.327, 3.796e-6
-1.326, 3.688e-6
-1.325, 3.609e-6
-1.324, 3.560e-6
-1.323, 3.333e-6
-1.322, 3.214e-6
-1.321, 3.135e-6
-1.320, 3.086e-6
-1.319, 2.997e-6
-1.318, 2.918e-6
-1.317, 2.770e-6
-1.316, 2.701e-6
-1.315, 2.603e-6
-1.314, 2.760e-6
-1.313, 2.563e-6
-1.312, 2.445e-6
-1.311, 2.317e-6
-1.310, 2.218e-6
-1.309, 2.366e-6
-1.308, 2.099e-6
-1.307, 2.050e-6
-1.306, 1.932e-6
-1.305, 1.863e-6
-1.304, 1.843e-6
-1.303, 1.784e-6
-1.302, 1.567e-6
-1.301, 1.557e-6
-1.300, 1.527e-6
-1.299, 1.488e-6
-1.298, 1.300e-6
-1.297, 1.251e-6
-1.296, 1.182e-6
-1.295, 1.172e-6
-1.294, 1.202e-6
-1.293, 1.004e-6
-1.292, 9.057e-7
-1.291, 8.662e-7
-1.290, 8.958e-7
-1.289, 8.465e-7
-1.288, 7.676e-7
-1.287, 6.393e-7
-1.286, 5.703e-7
-1.285, 5.505e-7
-1.284, 5.407e-7
-1.283, 4.716e-7
-1.282, 3.828e-7
-1.281, 3.137e-7
-1.280, 2.447e-7
-1.279, 2.249e-7
-1.278, 9.669e-8
-1.277, 2.762e-8
-1.276, -2.171e-8
-1.275, -3.157e-8
-1.274, 1.776e-8
-1.273, -2.092e-7
-1.272, -1.697e-7
-1.271, -3.078e-7
-1.270, -3.275e-7
-1.269, -3.275e-7
-1.268, -3.670e-7
-1.267, -5.545e-7
-1.266, -5.347e-7
-1.265, -6.137e-7
-1.264, -5.249e-7
-1.263, -7.123e-7
-1.262, -8.110e-7
-1.261, -7.912e-7
-1.260, -8.307e-7
-1.259, -8.208e-7
-1.258, -8.702e-7
-1.257, -1.058e-6
-1.256, -1.018e-6
-1.255, -1.146e-6
-1.254, -1.107e-6
-1.253, -1.225e-6
-1.252, -1.314e-6
-1.251, -1.265e-6
-1.250, -1.334e-6
-1.249, -1.215e-6
-1.248, -1.403e-6
-1.247, -1.492e-6
-1.246, -1.511e-6
-1.245, -1.600e-6
-1.244, -1.581e-6
-1.243, -1.581e-6
-1.242, -1.758e-6
-1.241, -1.807e-6
-1.240, -1.837e-6
-1.239, -1.778e-6
-1.238, -1.926e-6
-1.237, -1.896e-6
-1.236, -2.005e-6
-1.235, -2.143e-6
-1.234, -2.015e-6
-1.233, -2.094e-6
-1.232, -2.202e-6
-1.231, -2.212e-6
-1.230, -2.301e-6
-1.229, -2.251e-6
-1.228, -2.380e-6
-1.227, -2.360e-6
-1.226, -2.557e-6
-1.225, -2.478e-6
-1.224, -2.478e-6
-1.223, -2.607e-6
-1.222, -2.656e-6
-1.221, -2.646e-6
-1.220, -2.873e-6
-1.219, -2.676e-6
-1.218, -2.705e-6
-1.217, -2.804e-6
-1.216, -2.883e-6
-1.215, -2.873e-6
-1.214, -2.883e-6
-1.213, -2.962e-6
-1.212, -3.001e-6
-1.211, -3.031e-6
-1.210, -3.100e-6
-1.209, -3.041e-6
-1.208, -3.228e-6
-1.207, -3.179e-6
-1.206, -3.297e-6
-1.205, -3.208e-6
-1.204, -3.208e-6
-1.203, -3.396e-6
-1.202, -3.495e-6
-1.201, -3.504e-6
-1.200, -3.534e-6
-1.199, -3.406e-6
-1.198, -3.425e-6
-1.197, -3.603e-6
-1.196, -3.741e-6
-1.195, -3.692e-6
-1.194, -3.652e-6
-1.193, -3.741e-6
-1.192, -3.721e-6
-1.191, -3.830e-6
-1.190, -3.938e-6
-1.189, -3.820e-6
-1.188, -3.840e-6
-1.187, -3.988e-6
-1.186, -4.067e-6
-1.185, -4.175e-6
-1.184, -4.067e-6
-1.183, -4.185e-6
-1.182, -4.234e-6
-1.181, -4.254e-6
-1.180, -4.254e-6
-1.179, -4.205e-6
-1.178, -4.363e-6
-1.177, -4.530e-6
-1.176, -4.530e-6
-1.175, -4.550e-6
-1.174, -4.511e-6
-1.173, -4.491e-6
-1.172, -4.708e-6
-1.171, -4.777e-6
-1.170, -4.708e-6
-1.169, -4.728e-6
-1.168, -4.787e-6
-1.167, -4.895e-6
-1.166, -4.945e-6
-1.165, -4.965e-6
-1.164, -4.876e-6
-1.163, -5.093e-6
-1.162, -5.034e-6
-1.161, -5.310e-6
-1.160, -5.310e-6
-1.159, -5.024e-6
-1.158, -5.280e-6
-1.157, -5.389e-6
-1.156, -5.399e-6
-1.155, -5.478e-6
-1.154, -5.339e-6
-1.153, -5.497e-6
-1.152, -5.675e-6
-1.151, -5.714e-6
-1.150, -5.754e-6
-1.149, -5.744e-6
-1.148, -5.823e-6
-1.147, -5.941e-6
-1.146, -6.020e-6
-1.145, -6.139e-6
-1.144, -5.971e-6
-1.143, -6.040e-6
-1.142, -6.277e-6
-1.141, -6.277e-6
-1.140, -6.366e-6
-1.139, -6.464e-6
-1.138, -6.425e-6
-1.137, -6.652e-6
-1.136, -6.750e-6
-1.135, -6.809e-6
-1.134, -6.780e-6
-1.133, -6.898e-6
-1.132, -6.977e-6
-1.131, -7.076e-6
-1.130, -7.096e-6
-1.129, -7.125e-6
-1.128, -7.244e-6
-1.127, -7.382e-6
-1.126, -7.648e-6
-1.125, -7.658e-6
-1.124, -7.678e-6
-1.123, -7.766e-6
-1.122, -7.993e-6
-1.121, -8.043e-6
-1.120, -8.092e-6
-1.119, -8.132e-6
-1.118, -8.270e-6
-1.117, -8.358e-6
-1.116, -8.516e-6
-1.115, -8.585e-6
-1.114, -8.674e-6
-1.113, -8.931e-6
-1.112, -8.960e-6
-1.111, -9.167e-6
-1.110, -9.197e-6
-1.109, -9.197e-6
-1.108, -9.345e-6
-1.107, -9.503e-6
-1.106, -9.700e-6
-1.105, -9.789e-6
-1.104, -9.789e-6
-1.103, -9.937e-6
-1.102, -1.011e-5
-1.101, -1.028e-5
-1.100, -1.045e-5
-1.099, -1.046e-5
-1.098, -1.057e-5
-1.097, -1.086e-5
-1.096, -1.092e-5
-1.095, -1.111e-5
-1.094, -1.116e-5
-1.093, -1.125e-5
-1.092, -1.146e-5
-1.091, -1.161e-5
-1.090, -1.172e-5
-1.089, -1.182e-5
-1.088, -1.193e-5
-1.087, -1.224e-5
-1.086, -1.240e-5
-1.085, -1.252e-5
-1.084, -1.265e-5
-1.083, -1.278e-5
-1.082, -1.304e-5
-1.081, -1.333e-5
-1.080, -1.327e-5
-1.079, -1.339e-5
-1.078, -1.359e-5
-1.077, -1.386e-5
-1.076, -1.411e-5
-1.075, -1.437e-5
-1.074, -1.440e-5
-1.073, -1.458e-5
-1.072, -1.486e-5
-1.071, -1.508e-5
-1.070, -1.520e-5
-1.069, -1.538e-5
-1.068, -1.556e-5
-1.067, -1.589e-5
-1.066, -1.602e-5
-1.065, -1.628e-5
-1.064, -1.638e-5
-1.063, -1.661e-5
-1.062, -1.696e-5
-1.061, -1.730e-5
-1.060, -1.749e-5
-1.059, -1.761e-5
-1.058, -1.777e-5
-1.057, -1.808e-5
-1.056, -1.846e-5
-1.055, -1.880e-5
-1.054, -1.890e-5
-1.053, -1.907e-5
-1.052, -1.947e-5
-1.051, -1.986e-5
-1.050, -2.008e-5
-1.049, -2.035e-5
-1.048, -2.053e-5
-1.047, -2.099e-5
-1.046, -2.142e-5
-1.045, -2.158e-5
-1.044, -2.178e-5
-1.043, -2.213e-5
-1.042, -2.249e-5
-1.041, -2.296e-5
-1.040, -2.323e-5
-1.039, -2.340e-5
-1.038, -2.376e-5
-1.037, -2.412e-5
-1.036, -2.453e-5
-1.035, -2.503e-5
-1.034, -2.521e-5
-1.033, -2.553e-5
-1.032, -2.592e-5
-1.031, -2.634e-5
-1.030, -2.682e-5
-1.029, -2.694e-5
-1.028, -2.728e-5
-1.027, -2.788e-5
-1.026, -2.815e-5
-1.025, -2.870e-5
-1.024, -2.902e-5
-1.023, -2.938e-5
-1.022, -2.971e-5
-1.021, -3.026e-5
-1.020, -3.074e-5
-1.019, -3.096e-5
-1.018, -3.127e-5
-1.017, -3.192e-5
-1.016, -3.226e-5
-1.015, -3.284e-5
-1.014, -3.309e-5
-1.013, -3.355e-5
-1.012, -3.403e-5
-1.011, -3.461e-5
-1.010, -3.512e-5
-1.009, -3.552e-5
-1.008, -3.590e-5
-1.007, -3.644e-5
-1.006, -3.702e-5
-1.005, -3.751e-5
-1.004, -3.794e-5
-1.003, -3.843e-5
-1.002, -3.900e-5
-1.001, -3.964e-5
