Potential V vs RHE, Current mA cm-2
0.013299999999999867,0.04720891607649628
0.012299999999999978,0.030317263156107735
0.011299999999999866,0.020400136944053827
0.010299999999999976,0.011054554097145397
0.009299999999999864,0.002959576039317657
0.008299999999999974,-0.0020654784978029537
0.007299999999999862,-0.008625494795277128
0.006299999999999972,-0.015321323377538347
0.00529999999999986,-0.02048501962204573
0.0042999999999999705,-0.02537992071957876
0.0032999999999998586,-0.029425995037192763
0.0022999999999999687,-0.03235444742791339
0.0012999999999998568,-0.038494294469327645
0.00029999999999996696,-0.04184716025000779
-0.000700000000000145,-0.046444971974569156
-0.0017000000000000348,-0.04910462921831542
-0.0027000000000001467,-0.05133987307210218
-0.0037000000000000366,-0.05510300512974318
-0.0047000000000001485,-0.059149079447357186
-0.005700000000000038,-0.062360474098050823
-0.00670000000000015,-0.06473718908182408
-0.00770000000000004,-0.06654801954565133
-0.008700000000000152,-0.06892473452942459
-0.009700000000000042,-0.07254639545707908
-0.010700000000000154,-0.0767339409046796
-0.011700000000000044,-0.07813450509154597
-0.012700000000000156,-0.08036974894533275
-0.013700000000000045,-0.08189763714918698
-0.014700000000000157,-0.08469876552291973
-0.015700000000000047,-0.08817895532058774
-0.01670000000000016,-0.09013125691440148
-0.01770000000000005,-0.09098008369432051
-0.01870000000000016,-0.09348412269508162
-0.01970000000000005,-0.094601744621975
-0.020700000000000163,-0.09878929006957551
-0.021700000000000053,-0.09753019701269564
-0.022700000000000164,-0.1003313253864284
-0.023700000000000054,-0.10185921359028265
-0.024700000000000166,-0.10535355050094929
-0.025700000000000056,-0.1079990606316969
-0.026700000000000168,-0.10911668255859029
-0.027700000000000058,-0.11009283335549715
-0.02870000000000017,-0.11218660607929741
-0.02970000000000006,-0.11372864139615031
-0.03070000000000017,-0.11694003604684394
-0.03170000000000006,-0.11694003604684394
-0.03270000000000017,-0.11763324458377779
-0.03370000000000006,-0.11889233764065768
-0.034700000000000175,-0.1218207900313783
-0.035700000000000065,-0.12307988308825818
-0.03670000000000018,-0.1275503707958317
-0.03770000000000007,-0.1265600728859262
-0.03870000000000018,-0.12781916594280607
-0.03970000000000007,-0.13047882318655232
-0.04070000000000018,-0.13424195524419333
-0.04170000000000007,-0.13410048411420683
-0.04270000000000018,-0.13284139105732695
-0.04370000000000007,-0.1369016124879396
-0.044700000000000184,-0.13787776328484647
-0.045700000000000074,-0.14052327341559406
-0.046700000000000186,-0.14121648195252795
-0.047700000000000076,-0.14189554337646318
-0.04870000000000019,-0.1437346680662877
-0.04970000000000008,-0.14698850405597733
-0.05070000000000019,-0.14882762874580185
-0.05170000000000008,-0.14911057100577488
-0.05270000000000019,-0.15222293586547794
-0.05370000000000008,-0.15208146473549145
-0.05470000000000019,-0.15491088733522151
-0.05570000000000008,-0.15689148315503257
-0.056700000000000195,-0.15774030993495158
-0.057700000000000085,-0.15901355010483012
-0.058700000000000196,-0.15972090575476264
-0.059700000000000086,-0.1624088572245062
-0.0607000000000002,-0.1658041643441823
-0.06170000000000009,-0.16721887564404736
-0.0627000000000002,-0.16792623129397988
-0.06370000000000009,-0.16863358694391237
-0.0647000000000002,-0.17132153841365594
-0.06570000000000009,-0.17471684553333205
-0.0667000000000002,-0.17429243214337253
-0.0677000000000001,-0.17584861457322407
-0.0687000000000002,-0.17768773926304862
-0.0697000000000001,-0.17952686395287318
-0.07070000000000021,-0.18419541124242778
-0.0717000000000001,-0.18405394011244128
-0.07270000000000021,-0.1857515936722793
-0.0737000000000001,-0.1851857091523333
-0.07470000000000021,-0.18815660288204988
-0.0757000000000001,-0.19112749661176645
-0.07670000000000021,-0.192400736781645
-0.0777000000000001,-0.192966621301591
-0.07870000000000021,-0.19523015938137506
-0.0797000000000001,-0.19678634181122662
-0.08070000000000022,-0.2010304757108217
-0.0817000000000001,-0.2007475334508487
-0.08270000000000022,-0.20145488910078121
-0.08370000000000011,-0.20244518701068673
-0.08470000000000022,-0.20852844560010642
-0.08570000000000011,-0.2082455033401334
-0.08670000000000022,-0.20994315689997145
-0.08770000000000011,-0.21121639706985
-0.08870000000000022,-0.21234816610974203
-0.08970000000000011,-0.21390434853959353
-0.09070000000000022,-0.2160264154893911
-0.09170000000000011,-0.21843142469916169
-0.09270000000000023,-0.21786554017921567
-0.09370000000000012,-0.21885583808912115
-0.09470000000000023,-0.22267555859875673
-0.09570000000000012,-0.22380732763864883
-0.09670000000000023,-0.22380732763864883
-0.09770000000000012,-0.2270611636283384
-0.09870000000000023,-0.22649527910839237
-0.09970000000000012,-0.22861734605818995
-0.10070000000000023,-0.23243706656782553
-0.10170000000000012,-0.2310223552679605
-0.10270000000000024,-0.23187118204787951
-0.10370000000000013,-0.23371030673770407
-0.10470000000000024,-0.23498354690758255
-0.10570000000000013,-0.2368226715974071
-0.10670000000000024,-0.23724708498736666
-0.10770000000000013,-0.23668120046742064
-0.10870000000000024,-0.23625678707746112
-0.10970000000000013,-0.2392276808071777
-0.11070000000000024,-0.2426229879268538
-0.11170000000000013,-0.24134974775697526
-0.11270000000000002,-0.24064239210704275
-0.11370000000000013,-0.24149121888696176
-0.11470000000000002,-0.2429059301868268
-0.11570000000000014,-0.24389622809673234
-0.11670000000000003,-0.2437547569667458
-0.11770000000000014,-0.2437547569667458
-0.11870000000000003,-0.24304740131681332
-0.11970000000000014,-0.24488652600663782
-0.12070000000000003,-0.2471500640864219
-0.12170000000000014,-0.2460182950465299
-0.12270000000000003,-0.24446211261667833
-0.12370000000000014,-0.2446035837466648
-0.12470000000000003,-0.24361328583675934
-0.12570000000000014,-0.24644270843648935
-0.12670000000000003,-0.24488652600663782
-0.12770000000000015,-0.2446035837466648
-0.12870000000000004,-0.24417917035670533
-0.12970000000000015,-0.2437547569667458
-0.13070000000000004,-0.24516946826661082
-0.13170000000000015,-0.2437547569667458
-0.13270000000000004,-0.24347181470677282
-0.13370000000000015,-0.2423400456668808
-0.13470000000000004,-0.24149121888696176
-0.13570000000000015,-0.2429059301868268
-0.13670000000000004,-0.24191563227692126
-0.13770000000000016,-0.24092533436701574
-0.13870000000000005,-0.2397935653271237
-0.13970000000000016,-0.2423400456668808
-0.14070000000000005,-0.24092533436701574
-0.14170000000000016,-0.2389447385472047
-0.14270000000000005,-0.23809591176728565
-0.14370000000000016,-0.23668120046742064
-0.14470000000000005,-0.23809591176728565
-0.14570000000000016,-0.23753002724733965
-0.14670000000000005,-0.23554943142752863
-0.14770000000000016,-0.23413472012766354
-0.14870000000000005,-0.2321541243078525
-0.14970000000000017,-0.232578537697812
-0.15070000000000006,-0.23342736447773108
-0.15170000000000017,-0.23229559543783898
-0.15270000000000006,-0.22989058622806843
-0.15370000000000017,-0.22960764396809544
-0.15470000000000006,-0.2276270481482844
-0.15570000000000017,-0.22960764396809544
-0.15670000000000006,-0.2281929326682304
-0.15770000000000017,-0.22592939458844638
-0.15870000000000006,-0.2242317410286083
-0.15970000000000018,-0.22366585650866228
-0.16070000000000007,-0.22536351006850036
-0.16170000000000018,-0.2232414431187028
-0.16270000000000007,-0.21942172260906717
-0.16370000000000018,-0.21970466486904017
-0.16470000000000007,-0.2199876071290132
-0.16570000000000018,-0.22111937616890526
-0.16670000000000007,-0.21885583808912115
-0.16770000000000018,-0.21758259791924262
-0.16870000000000007,-0.21489464644949907
-0.16970000000000018,-0.2153190598394586
-0.17070000000000007,-0.21418729079956658
-0.17170000000000019,-0.21305552175967452
-0.17270000000000008,-0.21107492593986346
-0.1737000000000002,-0.20994315689997145
-0.17470000000000008,-0.21008462802995795
-0.1757000000000002,-0.20980168576998495
-0.17670000000000008,-0.2079625610801604
-0.1777000000000002,-0.2073966765602144
-0.17870000000000008,-0.20499166735044383
-0.1797000000000002,-0.20456725396048434
-0.18070000000000008,-0.2044257828304978
-0.1817000000000002,-0.2038598983105518
-0.18270000000000008,-0.20131341797079472
-0.1837000000000002,-0.2011719468408082
-0.1847000000000001,-0.19919135102099716
-0.1857000000000002,-0.19933282215098366
-0.1867000000000001,-0.19791811085111863
-0.1877000000000002,-0.19622045729128057
-0.1887000000000001,-0.19579604390132105
-0.1897000000000002,-0.19466427486142904
-0.1907000000000001,-0.19622045729128057
-0.1917000000000001,-0.19452280373144254
-0.19269999999999998,-0.192400736781645
-0.1937000000000001,-0.19141043887173945
-0.19469999999999998,-0.19013719870186094
-0.1957000000000001,-0.19141043887173945
-0.19669999999999999,-0.18985425644188791
-0.1977000000000001,-0.18773218949209036
-0.1987,-0.1860345359322523
-0.1997000000000001,-0.18674189158218485
-0.2007,-0.18688336271217135
-0.2017000000000001,-0.1856101225422928
-0.2027,-0.1843368823724143
-0.2037000000000001,-0.18334658446250876
-0.2047,-0.18193187316264373
-0.2057000000000001,-0.18405394011244128
-0.2067,-0.18164893090267073
-0.2077000000000001,-0.1805171618627787
-0.2087,-0.17867803717295414
-0.2097000000000001,-0.17938539282288665
-0.2107,-0.17924392169290015
-0.2117000000000001,-0.17768773926304862
-0.2127,-0.17514125892329155
-0.2137000000000001,-0.17400948988339954
-0.2147,-0.17570714344323757
-0.2157000000000001,-0.17768773926304862
-0.2167,-0.17514125892329155
-0.21770000000000012,-0.1737265476234265
-0.2187,-0.1734436053634535
-0.21970000000000012,-0.17202889406358848
-0.2207,-0.1737265476234265
-0.22170000000000012,-0.17075565389370992
-0.2227,-0.17033124050375043
-0.22370000000000012,-0.1694824137238314
-0.2247,-0.17018976937376393
-0.22570000000000012,-0.16990682711379093
-0.2267,-0.16778476016399335
-0.22770000000000012,-0.1666529911241013
-0.22870000000000001,-0.16778476016399335
-0.22970000000000013,-0.16651151999411481
-0.23070000000000002,-0.16835064468393937
-0.23170000000000013,-0.16608710660415532
-0.23270000000000002,-0.1655212220842093
-0.23370000000000013,-0.16537975095422278
-0.23470000000000002,-0.16467239530429026
-0.23570000000000013,-0.16509680869424978
-0.23670000000000002,-0.16396503965435774
-0.2376999999999999,-0.1625503283544927
-0.23870000000000002,-0.16113561705462764
-0.2396999999999999,-0.16099414592464115
-0.24070000000000003,-0.1626917994844792
-0.24169999999999991,-0.1624088572245062
-0.24270000000000003,-0.1618429727045602
-0.24369999999999992,-0.16071120366466815
-0.24470000000000003,-0.1618429727045602
-0.24569999999999992,-0.16141855931460067
-0.24670000000000003,-0.16000384801473563
-0.24769999999999992,-0.1585891367148706
-0.24870000000000003,-0.1588720789748436
-0.24969999999999992,-0.15759883880496509
-0.25070000000000003,-0.15943796349478964
-0.2516999999999999,-0.1585891367148706
-0.25270000000000004,-0.15759883880496509
-0.2536999999999999,-0.1587306078448571
-0.25470000000000004,-0.15689148315503257
-0.2556999999999999,-0.1583061944548976
-0.25670000000000004,-0.15816472332491108
-0.25769999999999993,-0.15731589654499206
-0.25870000000000004,-0.15646706976507307
-0.25969999999999993,-0.15590118524512703
-0.26070000000000004,-0.15788178106493808
-0.26169999999999993,-0.15731589654499206
-0.26270000000000004,-0.15759883880496509
-0.26369999999999993,-0.15590118524512703
-0.26470000000000005,-0.1551938295951945
-0.26569999999999994,-0.15731589654499206
-0.26670000000000005,-0.15717442541500556
-0.26769999999999994,-0.15660854089505957
-0.26870000000000005,-0.15689148315503257
-0.26969999999999994,-0.15717442541500556
-0.27070000000000005,-0.15816472332491108
-0.27169999999999994,-0.15774030993495158
-0.27270000000000005,-0.15703295428501907
-0.27369999999999994,-0.15703295428501907
-0.27470000000000006,-0.15717442541500556
-0.27569999999999995,-0.1574573676749786
-0.27670000000000006,-0.15731589654499206
-0.27769999999999995,-0.15561824298515403
-0.27870000000000006,-0.15646706976507307
-0.27969999999999995,-0.15717442541500556
-0.28070000000000006,-0.15957943462477614
-0.28169999999999995,-0.15929649236480314
-0.28270000000000006,-0.1583061944548976
-0.28369999999999995,-0.15774030993495158
-0.28470000000000006,-0.1583061944548976
-0.28569999999999995,-0.1587306078448571
-0.28670000000000007,-0.1588720789748436
-0.28769999999999996,-0.15929649236480314
-0.28870000000000007,-0.1585891367148706
-0.28969999999999996,-0.1585891367148706
-0.29070000000000007,-0.16000384801473563
-0.29169999999999996,-0.15943796349478964
-0.29270000000000007,-0.16085267479465465
-0.29369999999999996,-0.16127708818461417
-0.2947000000000001,-0.15957943462477614
-0.29569999999999996,-0.1615600304445872
-0.2967000000000001,-0.1625503283544927
-0.29769999999999996,-0.16071120366466815
-0.2987000000000001,-0.1625503283544927
-0.29969999999999997,-0.16311621287443873
-0.3007000000000001,-0.16354062626439822
-0.30169999999999997,-0.16523827982423628
-0.3027000000000001,-0.16368209739438472
-0.30369999999999997,-0.16354062626439822
-0.3047000000000001,-0.16368209739438472
-0.30569999999999997,-0.16750181790402036
-0.3067000000000001,-0.1666529911241013
-0.3077,-0.16651151999411481
-0.3087000000000001,-0.16721887564404736
-0.3097,-0.1659456354741688
-0.3107000000000001,-0.16863358694391237
-0.3117,-0.16919947146385841
-0.3127000000000001,-0.17103859615368294
-0.3137,-0.1689165292038854
-0.3147000000000001,-0.1696238848538179
-0.3157,-0.17146300954364244
-0.3167000000000001,-0.17188742293360199
-0.3177,-0.172736249713521
-0.3187000000000001,-0.17245330745354798
-0.3197,-0.17259477858353447
-0.3207000000000001,-0.17485831666331855
-0.3217,-0.17641449909317006
-0.3227000000000001,-0.17584861457322407
-0.3237,-0.17655597022315658
-0.3247000000000001,-0.1783950949129811
-0.3257,-0.17938539282288665
-0.3267000000000001,-0.1805171618627787
-0.3277,-0.1808001041227517
-0.3287000000000001,-0.18207334429263022
-0.3297,-0.18136598864269768
-0.3307000000000001,-0.18405394011244128
-0.3317,-0.1846198246323873
-0.3327000000000001,-0.1856101225422928
-0.3337,-0.18645894932221183
-0.3347000000000001,-0.18744924723211737
-0.3357,-0.18942984305192842
-0.3367000000000001,-0.1919763233916855
-0.3377,-0.19183485226169897
-0.3387000000000001,-0.19268367904161798
-0.3397,-0.192966621301591
-0.3407000000000001,-0.19537163051136155
-0.3417,-0.19607898616129407
-0.3427000000000001,-0.1966448706812401
-0.3437,-0.19961576441095666
-0.3447000000000001,-0.2008890045808352
-0.3457,-0.20301107153063278
-0.3467000000000001,-0.2044257828304978
-0.3477,-0.2040013694405383
-0.3487000000000001,-0.2066893209102819
-0.3497,-0.2086699167300929
-0.3507000000000001,-0.20951874351001196
-0.3517,-0.2119237527197825
-0.3527000000000001,-0.21333846401964754
-0.3537,-0.21418729079956658
-0.3547000000000001,-0.21588494435940458
-0.3557,-0.21913878034909418
-0.35670000000000013,-0.22210967407881074
-0.3577,-0.22253408746877026
-0.35870000000000013,-0.22493909667854084
-0.3597,-0.2276270481482844
-0.36070000000000013,-0.22918323057813594
-0.3617,-0.23342736447773108
-0.3626999999999999,-0.23470060464760956
-0.3637,-0.2368226715974071
-0.3646999999999999,-0.2399350364571102
-0.3657,-0.24106680549700227
-0.3666999999999999,-0.2446035837466648
-0.3677,-0.24672565069646235
-0.3686999999999999,-0.24941360216620592
-0.36970000000000003,-0.25394067832577405
-0.3706999999999999,-0.25691157205549064
-0.37170000000000003,-0.26058982143513976
-0.3726999999999999,-0.2634192440348699
-0.37370000000000003,-0.2651168975947079
-0.3746999999999999,-0.269926916014249
-0.37570000000000003,-0.2734636942639116
-0.3766999999999999,-0.27926401059335826
-0.37770000000000004,-0.2803957796332503
-0.3786999999999999,-0.28478138466283187
-0.37970000000000004,-0.28704492274261595
-0.3806999999999999,-0.2918549411621571
-0.38170000000000004,-0.2966649595816982
-0.38269999999999993,-0.3002017378313608
-0.38370000000000004,-0.30402145834099636
-0.38469999999999993,-0.30897294789052404
-0.38570000000000004,-0.31477326421997065
-0.38669999999999993,-0.3208565228093903
-0.38770000000000004,-0.3243933010590529
-0.38869999999999993,-0.33019361738849956
-0.38970000000000005,-0.3340133378981352
-0.39069999999999994,-0.3420771923073659
-0.39170000000000005,-0.3473116241168665
-0.39269999999999994,-0.35311194044631317
-0.39370000000000005,-0.3582049011258273
-0.39469999999999994,-0.3658443421450985
-0.39570000000000005,-0.37221054299449113
-0.39669999999999994,-0.3802743974037219
-0.39770000000000005,-0.387065011643074
-0.39869999999999994,-0.3937141547524397
-0.39970000000000006,-0.40121212464172434
-0.40069999999999995,-0.40941745018094167
-0.40170000000000006,-0.41804718911011834
-0.40269999999999995,-0.42582810125937604
-0.40370000000000006,-0.4329016577587012
-0.40469999999999995,-0.44181433894785094
-0.40570000000000006,-0.4520002603068792
-0.40669999999999995,-0.461478826015975
-0.40770000000000006,-0.47166474737500325
-0.40869999999999995,-0.4812847842140855
-0.40970000000000006,-0.49090482105316774
-0.41069999999999995,-0.5008078001522229
-0.41170000000000007,-0.5136816729809948
-0.41269999999999996,-0.5251408345099016
-0.41370000000000007,-0.536458524908822
-0.41469999999999996,-0.5477762153077422
-0.41570000000000007,-0.5630550973462846
-0.41669999999999996,-0.5759289701750565
-0.41770000000000007,-0.5878125450939228
-0.41869999999999996,-0.601393773572627
-0.4197000000000001,-0.6170970690011289
-0.42069999999999996,-0.6349224313794284
-0.4217000000000001,-0.6509086690679033
-0.42269999999999996,-0.6656216665864998
-0.4237000000000001,-0.6818908465349477
-0.42469999999999997,-0.6994332666532742
-0.4257000000000001,-0.7190977537213982
-0.42669999999999997,-0.7367816449697111
-0.4277000000000001,-0.7568705454277946
-0.42869999999999997,-0.7782326860557566
-0.4297000000000001,-0.7984630576438266
-0.43069999999999997,-0.8212399095716538
-0.4317000000000001,-0.8435923481095214
-0.4327,-0.8660862577773755
-0.4337000000000001,-0.8922584168248787
-0.4347,-0.9167329223125438
-0.4357000000000001,-0.9423391968401009
-0.4367,-0.9719066630072802
-0.4377000000000001,-0.9987861777047158
-0.4387,-1.0287780572618548
-0.4397000000000001,-1.05891140794898
-0.4407,-1.090317998805984
-0.4417000000000001,-1.1256857813026095
-0.4427,-1.1593559102393975
-0.4437000000000001,-1.196279875165875
-0.4447,-1.2339111957422848
-0.4457000000000001,-1.2725328142286005
-0.4467,-1.3152570954845246
-0.4477000000000001,-1.3567081365705702
-0.4487,-1.4002812446064135
-0.4497000000000001,-1.4458349484620676
-0.4507,-1.4953498439573436
-0.4517000000000001,-1.543450028152755
-0.4527,-1.5943796349478963
-0.4537000000000001,-1.6467239530429028
-0.4547,-1.700482982437774
-0.4557000000000001,-1.7570714344323757
-0.4567,-1.8179040203265722
-0.4577000000000001,-1.8815660288204987
-0.4587,-1.9452280373144257
-0.4597000000000001,-2.013134179707947
-0.4607,-2.081040322101469
-0.4617000000000001,-2.1546053096944506
-0.4627,-2.230999719887163
-0.4637000000000001,-2.30880884137974
-0.4647,-2.388032674172182
-0.4657000000000001,-2.4715006408642193
-0.4667,-2.5606274527557162
-0.4677000000000001,-2.6497542646472136
-0.4687,-2.741710499138441
-0.4697000000000001,-2.8393255788291283
-0.4707,-2.9397700811195464
-0.4717000000000001,-3.047288139909289
-0.4727,-3.153391487399167
-0.4737000000000001,-3.2637389687886396
-0.4747,-3.3769158727778423
-0.4757000000000001,-3.4957516219665052
-0.4767,-3.6216609276544935
-0.4777000000000001,-3.751814367242077
-0.4787,-3.8862119407292557
-0.4797000000000001,-4.0220242255163
-0.4807,-4.164910066802668
-0.48170000000000013,-4.314869464588361
-0.4827,-4.466243573673921
-0.48370000000000013,-4.624691239258805
-0.4847,-4.788797750043149
-0.48570000000000013,-4.955733683427223
-0.4867,-5.132572595910353
-0.4876999999999999,-5.313655642293078
-0.4887,-5.503226956474993
-0.4896999999999999,-5.6913835593570425
-0.4907,-5.886613718738418
-0.4916999999999999,-6.090332145918983
