Apr. 6, 2025   04:55:07
Cyclic Voltammetry
File: c:/users/guazh/data/banditlqround7_x0exp994_r5/2025-03-28-exp996\exp996-2025-04-06t04_40_19-arkoh\exp996_cv_sr_300mvs_efin_-1700mv.bin
Data Source:  Experiment
Instrument Model:  CHI760E
Header: CV ran at 300 mVs
Note: 

Init E (V) = -1
High E (V) = -1
Low E (V) = -1.7
Final E (V) = -1
Init P/N = N
Scan Rate (V/s) = 0.3
Segment = 3
Sample Interval (V) = 0.001
Quiet Time (sec) = 2
Sensitivity (A/V) = 0.01
Comp R (ohm) = 2.0

Results:

Channel 1:
Segment 1:

Segment 2:

Segment 3:

Potential/V, Current/A

-1.000, 3.239e-6
-1.001, 6.322e-6
-1.002, 9.405e-6
-1.003, 9.405e-6
-1.004, 1.249e-5
-1.005, 1.249e-5
-1.006, 1.249e-5
-1.007, 1.557e-5
-1.008, 1.557e-5
-1.009, 1.557e-5
-1.010, 1.557e-5
-1.011, 1.865e-5
-1.012, 1.865e-5
-1.013, 1.865e-5
-1.014, 2.174e-5
-1.015, 2.174e-5
-1.016, 1.865e-5
-1.017, 2.174e-5
-1.018, 2.174e-5
-1.019, 2.174e-5
-1.020, 2.174e-5
-1.021, 2.482e-5
-1.022, 2.482e-5
-1.023, 2.174e-5
-1.024, 2.482e-5
-1.025, 2.482e-5
-1.026, 2.482e-5
-1.027, 2.482e-5
-1.028, 2.790e-5
-1.029, 2.790e-5
-1.030, 2.790e-5
-1.031, 2.790e-5
-1.032, 2.790e-5
-1.033, 2.790e-5
-1.034, 3.099e-5
-1.035, 3.099e-5
-1.036, 3.099e-5
-1.037, 3.099e-5
-1.038, 3.099e-5
-1.039, 3.407e-5
-1.040, 3.407e-5
-1.041, 3.407e-5
-1.042, 3.407e-5
-1.043, 3.407e-5
-1.044, 3.715e-5
-1.045, 3.715e-5
-1.046, 3.407e-5
-1.047, 3.715e-5
-1.048, 3.715e-5
-1.049, 3.715e-5
-1.050, 4.024e-5
-1.051, 3.715e-5
-1.052, 3.715e-5
-1.053, 4.024e-5
-1.054, 4.024e-5
-1.055, 4.024e-5
-1.056, 4.024e-5
-1.057, 4.024e-5
-1.058, 4.024e-5
-1.059, 4.332e-5
-1.060, 4.332e-5
-1.061, 4.332e-5
-1.062, 4.332e-5
-1.063, 4.332e-5
-1.064, 4.332e-5
-1.065, 4.332e-5
-1.066, 4.640e-5
-1.067, 4.332e-5
-1.068, 4.640e-5
-1.069, 4.640e-5
-1.070, 4.640e-5
-1.071, 4.640e-5
-1.072, 4.640e-5
-1.073, 4.640e-5
-1.074, 4.949e-5
-1.075, 4.949e-5
-1.076, 4.949e-5
-1.077, 4.949e-5
-1.078, 4.949e-5
-1.079, 4.949e-5
-1.080, 5.257e-5
-1.081, 5.257e-5
-1.082, 4.949e-5
-1.083, 4.949e-5
-1.084, 5.257e-5
-1.085, 5.257e-5
-1.086, 5.257e-5
-1.087, 5.257e-5
-1.088, 5.257e-5
-1.089, 5.565e-5
-1.090, 5.565e-5
-1.091, 5.257e-5
-1.092, 5.565e-5
-1.093, 5.565e-5
-1.094, 5.565e-5
-1.095, 5.565e-5
-1.096, 5.565e-5
-1.097, 5.873e-5
-1.098, 5.565e-5
-1.099, 5.873e-5
-1.100, 5.873e-5
-1.101, 5.873e-5
-1.102, 5.873e-5
-1.103, 5.873e-5
-1.104, 5.873e-5
-1.105, 5.873e-5
-1.106, 5.873e-5
-1.107, 5.873e-5
-1.108, 6.182e-5
-1.109, 6.182e-5
-1.110, 6.182e-5
-1.111, 6.182e-5
-1.112, 6.182e-5
-1.113, 6.182e-5
-1.114, 6.182e-5
-1.115, 6.182e-5
-1.116, 6.182e-5
-1.117, 6.182e-5
-1.118, 6.182e-5
-1.119, 6.490e-5
-1.120, 6.490e-5
-1.121, 6.490e-5
-1.122, 6.490e-5
-1.123, 6.490e-5
-1.124, 6.490e-5
-1.125, 6.490e-5
-1.126, 6.798e-5
-1.127, 6.490e-5
-1.128, 6.490e-5
-1.129, 6.798e-5
-1.130, 6.798e-5
-1.131, 6.798e-5
-1.132, 6.798e-5
-1.133, 6.798e-5
-1.134, 7.107e-5
-1.135, 6.798e-5
-1.136, 6.798e-5
-1.137, 6.798e-5
-1.138, 6.798e-5
-1.139, 7.107e-5
-1.140, 7.107e-5
-1.141, 7.107e-5
-1.142, 6.798e-5
-1.143, 7.107e-5
-1.144, 7.107e-5
-1.145, 7.107e-5
-1.146, 7.107e-5
-1.147, 7.107e-5
-1.148, 7.107e-5
-1.149, 7.107e-5
-1.150, 7.107e-5
-1.151, 7.107e-5
-1.152, 7.107e-5
-1.153, 7.107e-5
-1.154, 7.107e-5
-1.155, 7.107e-5
-1.156, 7.107e-5
-1.157, 7.107e-5
-1.158, 7.107e-5
-1.159, 7.107e-5
-1.160, 7.107e-5
-1.161, 7.107e-5
-1.162, 7.107e-5
-1.163, 7.107e-5
-1.164, 7.107e-5
-1.165, 7.107e-5
-1.166, 7.107e-5
-1.167, 7.107e-5
-1.168, 7.107e-5
-1.169, 7.415e-5
-1.170, 7.107e-5
-1.171, 7.107e-5
-1.172, 7.107e-5
-1.173, 7.107e-5
-1.174, 7.107e-5
-1.175, 7.107e-5
-1.176, 7.107e-5
-1.177, 7.107e-5
-1.178, 7.107e-5
-1.179, 7.107e-5
-1.180, 7.107e-5
-1.181, 7.107e-5
-1.182, 6.798e-5
-1.183, 7.107e-5
-1.184, 6.798e-5
-1.185, 7.107e-5
-1.186, 6.798e-5
-1.187, 6.798e-5
-1.188, 6.798e-5
-1.189, 6.798e-5
-1.190, 7.107e-5
-1.191, 6.798e-5
-1.192, 6.798e-5
-1.193, 6.798e-5
-1.194, 6.798e-5
-1.195, 6.798e-5
-1.196, 6.798e-5
-1.197, 6.490e-5
-1.198, 6.490e-5
-1.199, 6.490e-5
-1.200, 6.798e-5
-1.201, 6.490e-5
-1.202, 6.490e-5
-1.203, 6.490e-5
-1.204, 6.490e-5
-1.205, 6.490e-5
-1.206, 6.490e-5
-1.207, 6.490e-5
-1.208, 6.182e-5
-1.209, 6.490e-5
-1.210, 6.182e-5
-1.211, 6.182e-5
-1.212, 6.182e-5
-1.213, 6.182e-5
-1.214, 6.182e-5
-1.215, 6.182e-5
-1.216, 6.182e-5
-1.217, 6.182e-5
-1.218, 6.182e-5
-1.219, 6.182e-5
-1.220, 6.182e-5
-1.221, 5.873e-5
-1.222, 5.873e-5
-1.223, 5.873e-5
-1.224, 5.873e-5
-1.225, 5.873e-5
-1.226, 5.873e-5
-1.227, 5.873e-5
-1.228, 5.873e-5
-1.229, 5.873e-5
-1.230, 5.873e-5
-1.231, 5.565e-5
-1.232, 5.565e-5
-1.233, 5.565e-5
-1.234, 5.565e-5
-1.235, 5.565e-5
-1.236, 5.565e-5
-1.237, 5.257e-5
-1.238, 5.565e-5
-1.239, 5.565e-5
-1.240, 5.565e-5
-1.241, 5.565e-5
-1.242, 5.257e-5
-1.243, 5.257e-5
-1.244, 5.257e-5
-1.245, 5.257e-5
-1.246, 5.257e-5
-1.247, 5.257e-5
-1.248, 5.257e-5
-1.249, 5.257e-5
-1.250, 5.257e-5
-1.251, 5.257e-5
-1.252, 4.949e-5
-1.253, 4.949e-5
-1.254, 4.949e-5
-1.255, 4.949e-5
-1.256, 4.949e-5
-1.257, 4.949e-5
-1.258, 4.949e-5
-1.259, 4.949e-5
-1.260, 4.949e-5
-1.261, 4.949e-5
-1.262, 4.949e-5
-1.263, 4.949e-5
-1.264, 4.949e-5
-1.265, 4.949e-5
-1.266, 4.949e-5
-1.267, 4.949e-5
-1.268, 4.640e-5
-1.269, 4.640e-5
-1.270, 4.949e-5
-1.271, 4.640e-5
-1.272, 4.640e-5
-1.273, 4.640e-5
-1.274, 4.640e-5
-1.275, 4.640e-5
-1.276, 4.640e-5
-1.277, 4.640e-5
-1.278, 4.640e-5
-1.279, 4.640e-5
-1.280, 4.640e-5
-1.281, 4.640e-5
-1.282, 4.640e-5
-1.283, 4.640e-5
-1.284, 4.640e-5
-1.285, 4.332e-5
-1.286, 4.640e-5
-1.287, 4.640e-5
-1.288, 4.640e-5
-1.289, 4.640e-5
-1.290, 4.332e-5
-1.291, 4.332e-5
-1.292, 4.332e-5
-1.293, 4.332e-5
-1.294, 4.332e-5
-1.295, 4.332e-5
-1.296, 4.332e-5
-1.297, 4.332e-5
-1.298, 4.332e-5
-1.299, 4.332e-5
-1.300, 4.332e-5
-1.301, 4.332e-5
-1.302, 4.332e-5
-1.303, 4.332e-5
-1.304, 4.332e-5
-1.305, 4.332e-5
-1.306, 4.332e-5
-1.307, 4.332e-5
-1.308, 4.332e-5
-1.309, 4.332e-5
-1.310, 4.332e-5
-1.311, 4.332e-5
-1.312, 4.332e-5
-1.313, 4.332e-5
-1.314, 4.332e-5
-1.315, 4.332e-5
-1.316, 4.332e-5
-1.317, 4.332e-5
-1.318, 4.332e-5
-1.319, 4.332e-5
-1.320, 4.332e-5
-1.321, 4.332e-5
-1.322, 4.332e-5
-1.323, 4.332e-5
-1.324, 4.332e-5
-1.325, 4.332e-5
-1.326, 4.332e-5
-1.327, 4.332e-5
-1.328, 4.332e-5
-1.329, 4.332e-5
-1.330, 4.332e-5
-1.331, 4.332e-5
-1.332, 4.332e-5
-1.333, 4.332e-5
-1.334, 4.332e-5
-1.335, 4.332e-5
-1.336, 4.332e-5
-1.337, 4.332e-5
-1.338, 4.332e-5
-1.339, 4.332e-5
-1.340, 4.332e-5
-1.341, 4.332e-5
-1.342, 4.332e-5
-1.343, 4.332e-5
-1.344, 4.332e-5
-1.345, 4.332e-5
-1.346, 4.332e-5
-1.347, 4.332e-5
-1.348, 4.332e-5
-1.349, 4.332e-5
-1.350, 4.332e-5
-1.351, 4.332e-5
-1.352, 4.332e-5
-1.353, 4.332e-5
-1.354, 4.332e-5
-1.355, 4.332e-5
-1.356, 4.332e-5
-1.357, 4.332e-5
-1.358, 4.332e-5
-1.359, 4.332e-5
-1.360, 4.332e-5
-1.361, 4.332e-5
-1.362, 4.332e-5
-1.363, 4.332e-5
-1.364, 4.332e-5
-1.365, 4.332e-5
-1.366, 4.332e-5
-1.367, 4.332e-5
-1.368, 4.332e-5
-1.369, 4.640e-5
-1.370, 4.640e-5
-1.371, 4.332e-5
-1.372, 4.640e-5
-1.373, 4.640e-5
-1.374, 4.640e-5
-1.375, 4.640e-5
-1.376, 4.640e-5
-1.377, 4.640e-5
-1.378, 4.640e-5
-1.379, 4.640e-5
-1.380, 4.640e-5
-1.381, 4.640e-5
-1.382, 4.640e-5
-1.383, 4.640e-5
-1.384, 4.640e-5
-1.385, 4.640e-5
-1.386, 4.640e-5
-1.387, 4.640e-5
-1.388, 4.949e-5
-1.389, 4.949e-5
-1.390, 4.949e-5
-1.391, 4.949e-5
-1.392, 4.949e-5
-1.393, 4.949e-5
-1.394, 4.949e-5
-1.395, 4.949e-5
-1.396, 4.949e-5
-1.397, 4.949e-5
-1.398, 4.949e-5
-1.399, 5.257e-5
-1.400, 4.949e-5
-1.401, 4.949e-5
-1.402, 5.257e-5
-1.403, 5.257e-5
-1.404, 5.257e-5
-1.405, 5.257e-5
-1.406, 5.257e-5
-1.407, 5.257e-5
-1.408, 5.565e-5
-1.409, 5.565e-5
-1.410, 5.565e-5
-1.411, 5.565e-5
-1.412, 5.565e-5
-1.413, 5.565e-5
-1.414, 5.873e-5
-1.415, 5.565e-5
-1.416, 5.565e-5
-1.417, 5.873e-5
-1.418, 5.873e-5
-1.419, 5.873e-5
-1.420, 5.873e-5
-1.421, 6.182e-5
-1.422, 5.873e-5
-1.423, 6.182e-5
-1.424, 6.182e-5
-1.425, 6.490e-5
-1.426, 6.490e-5
-1.427, 6.490e-5
-1.428, 6.490e-5
-1.429, 6.490e-5
-1.430, 6.798e-5
-1.431, 6.798e-5
-1.432, 6.798e-5
-1.433, 6.798e-5
-1.434, 7.107e-5
-1.435, 7.107e-5
-1.436, 7.107e-5
-1.437, 7.107e-5
-1.438, 7.415e-5
-1.439, 7.415e-5
-1.440, 7.415e-5
-1.441, 7.723e-5
-1.442, 7.723e-5
-1.443, 8.032e-5
-1.444, 8.032e-5
-1.445, 8.340e-5
-1.446, 8.340e-5
-1.447, 8.648e-5
-1.448, 8.648e-5
-1.449, 8.957e-5
-1.450, 8.957e-5
-1.451, 9.265e-5
-1.452, 9.265e-5
-1.453, 9.573e-5
-1.454, 9.882e-5
-1.455, 9.882e-5
-1.456, 1.019e-4
-1.457, 1.050e-4
-1.458, 1.050e-4
-1.459, 1.081e-4
-1.460, 1.111e-4
-1.461, 1.142e-4
-1.462, 1.173e-4
-1.463, 1.204e-4
-1.464, 1.235e-4
-1.465, 1.266e-4
-1.466, 1.296e-4
-1.467, 1.327e-4
-1.468, 1.389e-4
-1.469, 1.420e-4
-1.470, 1.451e-4
-1.471, 1.512e-4
-1.472, 1.543e-4
-1.473, 1.574e-4
-1.474, 1.636e-4
-1.475, 1.697e-4
-1.476, 1.728e-4
-1.477, 1.790e-4
-1.478, 1.851e-4
-1.479, 1.913e-4
-1.480, 2.006e-4
-1.481, 2.067e-4
-1.482, 2.129e-4
-1.483, 2.191e-4
-1.484, 2.252e-4
-1.485, 2.345e-4
-1.486, 2.437e-4
-1.487, 2.499e-4
-1.488, 2.591e-4
-1.489, 2.684e-4
-1.490, 2.776e-4
-1.491, 2.900e-4
-1.492, 2.992e-4
-1.493, 3.085e-4
-1.494, 3.208e-4
-1.495, 3.331e-4
-1.496, 3.455e-4
-1.497, 3.578e-4
-1.498, 3.701e-4
-1.499, 3.825e-4
-1.500, 3.979e-4
-1.501, 4.102e-4
-1.502, 4.256e-4
-1.503, 4.380e-4
-1.504, 4.565e-4
-1.505, 4.719e-4
-1.506, 4.873e-4
-1.507, 5.058e-4
-1.508, 5.243e-4
-1.509, 5.397e-4
-1.510, 5.582e-4
-1.511, 5.798e-4
-1.512, 5.983e-4
-1.513, 6.168e-4
-1.514, 6.384e-4
-1.515, 6.599e-4
-1.516, 6.815e-4
-1.517, 7.062e-4
-1.518, 7.278e-4
-1.519, 7.524e-4
-1.520, 7.771e-4
-1.521, 8.018e-4
-1.522, 8.264e-4
-1.523, 8.542e-4
-1.524, 8.788e-4
-1.525, 9.097e-4
-1.526, 9.374e-4
-1.527, 9.652e-4
-1.528, 9.929e-4
-1.529, 1.024e-3
-1.530, 1.055e-3
-1.531, 1.085e-3
-1.532, 1.119e-3
-1.533, 1.150e-3
-1.534, 1.184e-3
-1.535, 1.218e-3
-1.536, 1.255e-3
-1.537, 1.289e-3
-1.538, 1.320e-3
-1.539, 1.360e-3
-1.540, 1.400e-3
-1.541, 1.437e-3
-1.542, 1.474e-3
-1.543, 1.514e-3
-1.544, 1.557e-3
-1.545, 1.597e-3
-1.546, 1.643e-3
-1.547, 1.684e-3
-1.548, 1.727e-3
-1.549, 1.770e-3
-1.550, 1.816e-3
-1.551, 1.865e-3
-1.552, 1.909e-3
-1.553, 1.958e-3
-1.554, 2.004e-3
-1.555, 2.054e-3
-1.556, 2.106e-3
-1.557, 2.155e-3
-1.558, 2.205e-3
-1.559, 2.257e-3
-1.560, 2.312e-3
-1.561, 2.368e-3
-1.562, 2.420e-3
-1.563, 2.476e-3
-1.564, 2.531e-3
-1.565, 2.590e-3
-1.566, 2.645e-3
-1.567, 2.704e-3
-1.568, 2.760e-3
-1.569, 2.818e-3
-1.570, 2.877e-3
-1.571, 2.935e-3
-1.572, 2.997e-3
-1.573, 3.056e-3
-1.574, 3.120e-3
-1.575, 3.188e-3
-1.576, 3.253e-3
-1.577, 3.314e-3
-1.578, 3.373e-3
-1.579, 3.438e-3
-1.580, 3.509e-3
-1.581, 3.583e-3
-1.582, 3.651e-3
-1.583, 3.718e-3
-1.584, 3.789e-3
-1.585, 3.860e-3
-1.586, 3.925e-3
-1.587, 3.990e-3
-1.588, 4.054e-3
-1.589, 4.125e-3
-1.590, 4.199e-3
-1.591, 4.273e-3
-1.592, 4.344e-3
-1.593, 4.418e-3
-1.594, 4.492e-3
-1.595, 4.572e-3
-1.596, 4.646e-3
-1.597, 4.717e-3
-1.598, 4.791e-3
-1.599, 4.871e-3
-1.600, 4.952e-3
-1.601, 5.032e-3
-1.602, 5.106e-3
-1.603, 5.183e-3
-1.604, 5.263e-3
-1.605, 5.346e-3
-1.606, 5.426e-3
-1.607, 5.507e-3
-1.608, 5.584e-3
-1.609, 5.667e-3
-1.610, 5.753e-3
-1.611, 5.840e-3
-1.612, 5.923e-3
-1.613, 6.003e-3
-1.614, 6.092e-3
-1.615, 6.179e-3
-1.616, 6.265e-3
-1.617, 6.345e-3
-1.618, 6.428e-3
-1.619, 6.518e-3
-1.620, 6.610e-3
-1.621, 6.703e-3
-1.622, 6.789e-3
-1.623, 6.875e-3
-1.624, 6.965e-3
-1.625, 7.057e-3
-1.626, 7.144e-3
-1.627, 7.230e-3
-1.628, 7.316e-3
-1.629, 7.409e-3
-1.630, 7.504e-3
-1.631, 7.597e-3
-1.632, 7.686e-3
-1.633, 7.776e-3
-1.634, 7.871e-3
-1.635, 7.964e-3
-1.636, 8.053e-3
-1.637, 8.140e-3
-1.638, 8.226e-3
-1.639, 8.325e-3
-1.640, 8.420e-3
-1.641, 8.516e-3
-1.642, 8.599e-3
-1.643, 8.685e-3
-1.644, 8.781e-3
-1.645, 8.876e-3
-1.646, 8.972e-3
-1.647, 9.064e-3
-1.648, 9.157e-3
-1.649, 9.253e-3
-1.650, 9.348e-3
-1.651, 9.450e-3
-1.652, 9.542e-3
-1.653, 9.638e-3
-1.654, 9.740e-3
-1.655, 9.848e-3
-1.656, 9.943e-3
-1.657, 1.002e-2
-1.658, 1.013e-2
-1.659, 1.023e-2
-1.660, 1.033e-2
-1.661, 1.043e-2
-1.662, 1.051e-2
-1.663, 1.061e-2
-1.664, 1.071e-2
-1.665, 1.082e-2
-1.666, 1.093e-2
-1.667, 1.103e-2
-1.668, 1.112e-2
-1.669, 1.123e-2
-1.670, 1.132e-2
-1.671, 1.143e-2
-1.672, 1.153e-2
-1.673, 1.165e-2
-1.674, 1.177e-2
-1.675, 1.188e-2
-1.676, 1.199e-2
-1.677, 1.209e-2
-1.678, 1.219e-2
-1.679, 1.231e-2
-1.680, 1.242e-2
-1.681, 1.251e-2
-1.682, 1.260e-2
-1.683, 1.270e-2
-1.684, 1.280e-2
-1.685, 1.292e-2
-1.686, 1.303e-2
-1.687, 1.315e-2
-1.688, 1.326e-2
-1.689, 1.336e-2
-1.690, 1.347e-2
-1.691, 1.356e-2
-1.692, 1.365e-2
-1.693, 1.373e-2
-1.694, 1.382e-2
-1.695, 1.390e-2
-1.696, 1.399e-2
-1.697, 1.409e-2
-1.698, 1.419e-2
-1.699, 1.429e-2
-1.700, 1.432e-2
-1.699, 1.420e-2
-1.698, 1.407e-2
-1.697, 1.396e-2
-1.696, 1.384e-2
-1.695, 1.374e-2
-1.694, 1.363e-2
-1.693, 1.350e-2
-1.692, 1.338e-2
-1.691, 1.325e-2
-1.690, 1.312e-2
-1.689, 1.300e-2
-1.688, 1.288e-2
-1.687, 1.277e-2
-1.686, 1.267e-2
-1.685, 1.258e-2
-1.684, 1.247e-2
-1.683, 1.235e-2
-1.682, 1.224e-2
-1.681, 1.212e-2
-1.680, 1.200e-2
-1.679, 1.189e-2
-1.678, 1.178e-2
-1.677, 1.167e-2
-1.676, 1.157e-2
-1.675, 1.147e-2
-1.674, 1.137e-2
-1.673, 1.125e-2
-1.672, 1.114e-2
-1.671, 1.103e-2
-1.670, 1.093e-2
-1.669, 1.083e-2
-1.668, 1.072e-2
-1.667, 1.059e-2
-1.666, 1.047e-2
-1.665, 1.038e-2
-1.664, 1.031e-2
-1.663, 1.021e-2
-1.662, 1.013e-2
-1.661, 1.004e-2
-1.660, 9.956e-3
-1.659, 9.854e-3
-1.658, 9.737e-3
-1.657, 9.623e-3
-1.656, 9.512e-3
-1.655, 9.410e-3
-1.654, 9.314e-3
-1.653, 9.212e-3
-1.652, 9.101e-3
-1.651, 8.994e-3
-1.650, 8.880e-3
-1.649, 8.769e-3
-1.648, 8.658e-3
-1.647, 8.553e-3
-1.646, 8.454e-3
-1.645, 8.362e-3
-1.644, 8.272e-3
-1.643, 8.173e-3
-1.642, 8.075e-3
-1.641, 7.979e-3
-1.640, 7.881e-3
-1.639, 7.782e-3
-1.638, 7.683e-3
-1.637, 7.591e-3
-1.636, 7.508e-3
-1.635, 7.430e-3
-1.634, 7.350e-3
-1.633, 7.264e-3
-1.632, 7.165e-3
-1.631, 7.070e-3
-1.630, 6.974e-3
-1.629, 6.885e-3
-1.628, 6.798e-3
-1.627, 6.718e-3
-1.626, 6.635e-3
-1.625, 6.555e-3
-1.624, 6.472e-3
-1.623, 6.385e-3
-1.622, 6.296e-3
-1.621, 6.213e-3
-1.620, 6.132e-3
-1.619, 6.049e-3
-1.618, 5.966e-3
-1.617, 5.886e-3
-1.616, 5.806e-3
-1.615, 5.729e-3
-1.614, 5.651e-3
-1.613, 5.574e-3
-1.612, 5.494e-3
-1.611, 5.420e-3
-1.610, 5.349e-3
-1.609, 5.278e-3
-1.608, 5.204e-3
-1.607, 5.127e-3
-1.606, 5.050e-3
-1.605, 4.976e-3
-1.604, 4.902e-3
-1.603, 4.828e-3
-1.602, 4.754e-3
-1.601, 4.686e-3
-1.600, 4.622e-3
-1.599, 4.551e-3
-1.598, 4.474e-3
-1.597, 4.400e-3
-1.596, 4.329e-3
-1.595, 4.258e-3
-1.594, 4.190e-3
-1.593, 4.122e-3
-1.592, 4.051e-3
-1.591, 3.984e-3
-1.590, 3.919e-3
-1.589, 3.857e-3
-1.588, 3.795e-3
-1.587, 3.731e-3
-1.586, 3.669e-3
-1.585, 3.610e-3
-1.584, 3.549e-3
-1.583, 3.484e-3
-1.582, 3.419e-3
-1.581, 3.361e-3
-1.580, 3.302e-3
-1.579, 3.244e-3
-1.578, 3.188e-3
-1.577, 3.130e-3
-1.576, 3.074e-3
-1.575, 3.019e-3
-1.574, 2.963e-3
-1.573, 2.908e-3
-1.572, 2.852e-3
-1.571, 2.800e-3
-1.570, 2.750e-3
-1.569, 2.698e-3
-1.568, 2.645e-3
-1.567, 2.596e-3
-1.566, 2.547e-3
-1.565, 2.497e-3
-1.564, 2.448e-3
-1.563, 2.399e-3
-1.562, 2.349e-3
-1.561, 2.300e-3
-1.560, 2.257e-3
-1.559, 2.211e-3
-1.558, 2.168e-3
-1.557, 2.121e-3
-1.556, 2.078e-3
-1.555, 2.035e-3
-1.554, 1.992e-3
-1.553, 1.949e-3
-1.552, 1.906e-3
-1.551, 1.865e-3
-1.550, 1.828e-3
-1.549, 1.791e-3
-1.548, 1.754e-3
-1.547, 1.714e-3
-1.546, 1.677e-3
-1.545, 1.643e-3
-1.544, 1.603e-3
-1.543, 1.566e-3
-1.542, 1.529e-3
-1.541, 1.495e-3
-1.540, 1.468e-3
-1.539, 1.434e-3
-1.538, 1.403e-3
-1.537, 1.369e-3
-1.536, 1.335e-3
-1.535, 1.307e-3
-1.534, 1.277e-3
-1.533, 1.243e-3
-1.532, 1.215e-3
-1.531, 1.187e-3
-1.530, 1.159e-3
-1.529, 1.135e-3
-1.528, 1.104e-3
-1.527, 1.079e-3
-1.526, 1.051e-3
-1.525, 1.027e-3
-1.524, 1.002e-3
-1.523, 9.744e-4
-1.522, 9.528e-4
-1.521, 9.282e-4
-1.520, 9.066e-4
-1.519, 8.850e-4
-1.518, 8.603e-4
-1.517, 8.388e-4
-1.516, 8.172e-4
-1.515, 7.956e-4
-1.514, 7.740e-4
-1.513, 7.555e-4
-1.512, 7.339e-4
-1.511, 7.154e-4
-1.510, 6.969e-4
-1.509, 6.784e-4
-1.508, 6.630e-4
-1.507, 6.445e-4
-1.506, 6.260e-4
-1.505, 6.106e-4
-1.504, 5.952e-4
-1.503, 5.798e-4
-1.502, 5.613e-4
-1.501, 5.489e-4
-1.500, 5.335e-4
-1.499, 5.181e-4
-1.498, 5.027e-4
-1.497, 4.904e-4
-1.496, 4.780e-4
-1.495, 4.626e-4
-1.494, 4.503e-4
-1.493, 4.380e-4
-1.492, 4.256e-4
-1.491, 4.133e-4
-1.490, 4.040e-4
-1.489, 3.917e-4
-1.488, 3.794e-4
-1.487, 3.701e-4
-1.486, 3.609e-4
-1.485, 3.485e-4
-1.484, 3.393e-4
-1.483, 3.300e-4
-1.482, 3.208e-4
-1.481, 3.115e-4
-1.480, 3.023e-4
-1.479, 2.961e-4
-1.478, 2.869e-4
-1.477, 2.776e-4
-1.476, 2.684e-4
-1.475, 2.622e-4
-1.474, 2.530e-4
-1.473, 2.468e-4
-1.472, 2.406e-4
-1.471, 2.314e-4
-1.470, 2.252e-4
-1.469, 2.191e-4
-1.468, 2.129e-4
-1.467, 2.067e-4
-1.466, 2.006e-4
-1.465, 1.975e-4
-1.464, 1.882e-4
-1.463, 1.851e-4
-1.462, 1.790e-4
-1.461, 1.728e-4
-1.460, 1.666e-4
-1.459, 1.636e-4
-1.458, 1.574e-4
-1.457, 1.543e-4
-1.456, 1.481e-4
-1.455, 1.451e-4
-1.454, 1.389e-4
-1.453, 1.358e-4
-1.452, 1.327e-4
-1.451, 1.296e-4
-1.450, 1.266e-4
-1.449, 1.204e-4
-1.448, 1.173e-4
-1.447, 1.142e-4
-1.446, 1.111e-4
-1.445, 1.081e-4
-1.444, 1.019e-4
-1.443, 1.019e-4
-1.442, 9.882e-5
-1.441, 9.573e-5
-1.440, 9.265e-5
-1.439, 8.957e-5
-1.438, 8.648e-5
-1.437, 8.340e-5
-1.436, 8.032e-5
-1.435, 8.032e-5
-1.434, 7.723e-5
-1.433, 7.415e-5
-1.432, 7.107e-5
-1.431, 7.107e-5
-1.430, 6.798e-5
-1.429, 6.490e-5
-1.428, 6.490e-5
-1.427, 6.182e-5
-1.426, 5.873e-5
-1.425, 5.873e-5
-1.424, 5.565e-5
-1.423, 5.565e-5
-1.422, 5.257e-5
-1.421, 5.257e-5
-1.420, 4.949e-5
-1.419, 4.949e-5
-1.418, 4.640e-5
-1.417, 4.332e-5
-1.416, 4.332e-5
-1.415, 4.332e-5
-1.414, 4.332e-5
-1.413, 4.024e-5
-1.412, 3.715e-5
-1.411, 4.024e-5
-1.410, 3.715e-5
-1.409, 3.407e-5
-1.408, 3.407e-5
-1.407, 3.407e-5
-1.406, 3.099e-5
-1.405, 3.099e-5
-1.404, 3.099e-5
-1.403, 2.790e-5
-1.402, 2.790e-5
-1.401, 2.790e-5
-1.400, 2.482e-5
-1.399, 2.482e-5
-1.398, 2.482e-5
-1.397, 2.482e-5
-1.396, 2.174e-5
-1.395, 2.482e-5
-1.394, 2.174e-5
-1.393, 2.174e-5
-1.392, 1.865e-5
-1.391, 1.865e-5
-1.390, 1.865e-5
-1.389, 1.865e-5
-1.388, 1.557e-5
-1.387, 1.557e-5
-1.386, 1.557e-5
-1.385, 1.557e-5
-1.384, 1.557e-5
-1.383, 1.557e-5
-1.382, 1.249e-5
-1.381, 1.249e-5
-1.380, 1.249e-5
-1.379, 1.249e-5
-1.378, 1.249e-5
-1.377, 1.249e-5
-1.376, 9.405e-6
-1.375, 1.249e-5
-1.374, 9.405e-6
-1.373, 9.405e-6
-1.372, 9.405e-6
-1.371, 9.405e-6
-1.370, 9.405e-6
-1.369, 9.405e-6
-1.368, 9.405e-6
-1.367, 6.322e-6
-1.366, 6.322e-6
-1.365, 6.322e-6
-1.364, 6.322e-6
-1.363, 6.322e-6
-1.362, 6.322e-6
-1.361, 6.322e-6
-1.360, 6.322e-6
-1.359, 6.322e-6
-1.358, 3.239e-6
-1.357, 3.239e-6
-1.356, 3.239e-6
-1.355, 3.239e-6
-1.354, 3.239e-6
-1.353, 3.239e-6
-1.352, 3.239e-6
-1.351, 3.239e-6
-1.350, 3.239e-6
-1.349, 3.239e-6
-1.348, 3.239e-6
-1.347, 1.559e-7
-1.346, 3.239e-6
-1.345, 3.239e-6
-1.344, 1.559e-7
-1.343, 1.559e-7
-1.342, 1.559e-7
-1.341, 1.559e-7
-1.340, 1.559e-7
-1.339, 1.559e-7
-1.338, 1.559e-7
-1.337, 1.559e-7
-1.336, 1.559e-7
-1.335, 1.559e-7
-1.334, 1.559e-7
-1.333, 1.559e-7
-1.332, 1.559e-7
-1.331, 1.559e-7
-1.330, 1.559e-7
-1.329, 1.559e-7
-1.328, -2.927e-6
-1.327, -2.927e-6
-1.326, 1.559e-7
-1.325, 1.559e-7
-1.324, -2.927e-6
-1.323, -2.927e-6
-1.322, -2.927e-6
-1.321, -2.927e-6
-1.320, -2.927e-6
-1.319, -2.927e-6
-1.318, -2.927e-6
-1.317, -2.927e-6
-1.316, -2.927e-6
-1.315, -2.927e-6
-1.314, -2.927e-6
-1.313, -2.927e-6
-1.312, -2.927e-6
-1.311, -6.010e-6
-1.310, -2.927e-6
-1.309, -6.010e-6
-1.308, -6.010e-6
-1.307, -6.010e-6
-1.306, -2.927e-6
-1.305, -6.010e-6
-1.304, -6.010e-6
-1.303, -6.010e-6
-1.302, -6.010e-6
-1.301, -6.010e-6
-1.300, -6.010e-6
-1.299, -6.010e-6
-1.298, -6.010e-6
-1.297, -6.010e-6
-1.296, -6.010e-6
-1.295, -6.010e-6
-1.294, -6.010e-6
-1.293, -6.010e-6
-1.292, -6.010e-6
-1.291, -6.010e-6
-1.290, -6.010e-6
-1.289, -6.010e-6
-1.288, -6.010e-6
-1.287, -6.010e-6
-1.286, -6.010e-6
-1.285, -6.010e-6
-1.284, -9.093e-6
-1.283, -9.093e-6
-1.282, -9.093e-6
-1.281, -6.010e-6
-1.280, -6.010e-6
-1.279, -9.093e-6
-1.278, -9.093e-6
-1.277, -9.093e-6
-1.276, -9.093e-6
-1.275, -9.093e-6
-1.274, -9.093e-6
-1.273, -9.093e-6
-1.272, -9.093e-6
-1.271, -9.093e-6
-1.270, -9.093e-6
-1.269, -9.093e-6
-1.268, -9.093e-6
-1.267, -9.093e-6
-1.266, -9.093e-6
-1.265, -9.093e-6
-1.264, -9.093e-6
-1.263, -9.093e-6
-1.262, -9.093e-6
-1.261, -9.093e-6
-1.260, -9.093e-6
-1.259, -1.218e-5
-1.258, -1.218e-5
-1.257, -9.093e-6
-1.256, -1.218e-5
-1.255, -1.218e-5
-1.254, -1.218e-5
-1.253, -1.218e-5
-1.252, -1.218e-5
-1.251, -1.218e-5
-1.250, -1.218e-5
-1.249, -1.218e-5
-1.248, -1.218e-5
-1.247, -1.218e-5
-1.246, -1.218e-5
-1.245, -1.218e-5
-1.244, -1.526e-5
-1.243, -1.218e-5
-1.242, -1.218e-5
-1.241, -1.218e-5
-1.240, -1.218e-5
-1.239, -1.218e-5
-1.238, -1.526e-5
-1.237, -1.526e-5
-1.236, -1.218e-5
-1.235, -1.526e-5
-1.234, -1.526e-5
-1.233, -1.526e-5
-1.232, -1.526e-5
-1.231, -1.218e-5
-1.230, -1.526e-5
-1.229, -1.526e-5
-1.228, -1.526e-5
-1.227, -1.526e-5
-1.226, -1.526e-5
-1.225, -1.526e-5
-1.224, -1.526e-5
-1.223, -1.526e-5
-1.222, -1.526e-5
-1.221, -1.526e-5
-1.220, -1.834e-5
-1.219, -1.834e-5
-1.218, -1.834e-5
-1.217, -1.834e-5
-1.216, -1.834e-5
-1.215, -1.834e-5
-1.214, -1.834e-5
-1.213, -1.526e-5
-1.212, -1.834e-5
-1.211, -1.834e-5
-1.210, -1.834e-5
-1.209, -1.834e-5
-1.208, -1.834e-5
-1.207, -1.834e-5
-1.206, -1.834e-5
-1.205, -1.834e-5
-1.204, -1.834e-5
-1.203, -1.834e-5
-1.202, -2.143e-5
-1.201, -1.834e-5
-1.200, -1.834e-5
-1.199, -1.834e-5
-1.198, -2.143e-5
-1.197, -2.143e-5
-1.196, -2.143e-5
-1.195, -2.143e-5
-1.194, -2.143e-5
-1.193, -2.143e-5
-1.192, -2.143e-5
-1.191, -2.143e-5
-1.190, -2.143e-5
-1.189, -2.143e-5
-1.188, -2.143e-5
-1.187, -2.143e-5
-1.186, -2.143e-5
-1.185, -2.451e-5
-1.184, -2.143e-5
-1.183, -2.143e-5
-1.182, -2.451e-5
-1.181, -2.143e-5
-1.180, -2.451e-5
-1.179, -2.451e-5
-1.178, -2.451e-5
-1.177, -2.451e-5
-1.176, -2.451e-5
-1.175, -2.451e-5
-1.174, -2.451e-5
-1.173, -2.451e-5
-1.172, -2.451e-5
-1.171, -2.451e-5
-1.170, -2.451e-5
-1.169, -2.451e-5
-1.168, -2.451e-5
-1.167, -2.759e-5
-1.166, -2.759e-5
-1.165, -2.451e-5
-1.164, -2.759e-5
-1.163, -2.759e-5
-1.162, -2.759e-5
-1.161, -2.759e-5
-1.160, -2.759e-5
-1.159, -2.759e-5
-1.158, -2.759e-5
-1.157, -2.759e-5
-1.156, -2.759e-5
-1.155, -2.759e-5
-1.154, -2.759e-5
-1.153, -2.759e-5
-1.152, -3.068e-5
-1.151, -2.759e-5
-1.150, -3.068e-5
-1.149, -3.068e-5
-1.148, -3.068e-5
-1.147, -3.068e-5
-1.146, -3.068e-5
-1.145, -3.068e-5
-1.144, -3.068e-5
-1.143, -3.376e-5
-1.142, -3.376e-5
-1.141, -3.068e-5
-1.140, -3.068e-5
-1.139, -3.376e-5
-1.138, -3.376e-5
-1.137, -3.376e-5
-1.136, -3.376e-5
-1.135, -3.376e-5
-1.134, -3.376e-5
-1.133, -3.684e-5
-1.132, -3.376e-5
-1.131, -3.684e-5
-1.130, -3.684e-5
-1.129, -3.684e-5
-1.128, -3.684e-5
-1.127, -3.684e-5
-1.126, -3.684e-5
-1.125, -3.684e-5
-1.124, -3.684e-5
-1.123, -3.684e-5
-1.122, -3.992e-5
-1.121, -3.992e-5
-1.120, -3.684e-5
-1.119, -3.992e-5
-1.118, -3.992e-5
-1.117, -3.992e-5
-1.116, -3.992e-5
-1.115, -4.301e-5
-1.114, -4.301e-5
-1.113, -4.301e-5
-1.112, -4.301e-5
-1.111, -4.301e-5
-1.110, -4.301e-5
-1.109, -4.301e-5
-1.108, -4.609e-5
-1.107, -4.609e-5
-1.106, -4.609e-5
-1.105, -4.609e-5
-1.104, -4.609e-5
-1.103, -4.609e-5
-1.102, -4.917e-5
-1.101, -4.609e-5
-1.100, -4.917e-5
-1.099, -4.917e-5
-1.098, -4.917e-5
-1.097, -4.917e-5
-1.096, -5.226e-5
-1.095, -4.917e-5
-1.094, -5.226e-5
-1.093, -5.226e-5
-1.092, -5.534e-5
-1.091, -5.226e-5
-1.090, -5.226e-5
-1.089, -5.534e-5
-1.088, -5.534e-5
-1.087, -5.534e-5
-1.086, -5.534e-5
-1.085, -5.842e-5
-1.084, -5.842e-5
-1.083, -5.842e-5
-1.082, -5.842e-5
-1.081, -6.151e-5
-1.080, -5.842e-5
-1.079, -6.151e-5
-1.078, -6.151e-5
-1.077, -6.151e-5
-1.076, -6.459e-5
-1.075, -6.151e-5
-1.074, -6.459e-5
-1.073, -6.459e-5
-1.072, -6.767e-5
-1.071, -6.459e-5
-1.070, -6.767e-5
-1.069, -6.767e-5
-1.068, -6.767e-5
-1.067, -7.076e-5
-1.066, -7.076e-5
-1.065, -7.076e-5
-1.064, -7.076e-5
-1.063, -7.384e-5
-1.062, -7.384e-5
-1.061, -7.384e-5
-1.060, -7.384e-5
-1.059, -7.692e-5
-1.058, -7.692e-5
-1.057, -7.692e-5
-1.056, -7.692e-5
-1.055, -7.692e-5
-1.054, -8.000e-5
-1.053, -8.000e-5
-1.052, -8.000e-5
-1.051, -8.000e-5
-1.050, -8.000e-5
-1.049, -8.309e-5
-1.048, -8.309e-5
-1.047, -8.617e-5
-1.046, -8.617e-5
-1.045, -8.617e-5
-1.044, -8.925e-5
-1.043, -8.925e-5
-1.042, -8.925e-5
-1.041, -8.925e-5
-1.040, -9.234e-5
-1.039, -9.234e-5
-1.038, -9.234e-5
-1.037, -9.542e-5
-1.036, -9.542e-5
-1.035, -9.542e-5
-1.034, -9.850e-5
-1.033, -9.850e-5
-1.032, -1.016e-4
-1.031, -1.016e-4
-1.030, -1.016e-4
-1.029, -1.016e-4
-1.028, -1.047e-4
-1.027, -1.047e-4
-1.026, -1.047e-4
-1.025, -1.078e-4
-1.024, -1.078e-4
-1.023, -1.078e-4
-1.022, -1.108e-4
-1.021, -1.108e-4
-1.020, -1.108e-4
-1.019, -1.139e-4
-1.018, -1.170e-4
-1.017, -1.170e-4
-1.016, -1.170e-4
-1.015, -1.170e-4
-1.014, -1.201e-4
-1.013, -1.201e-4
-1.012, -1.232e-4
-1.011, -1.232e-4
-1.010, -1.232e-4
-1.009, -1.263e-4
-1.008, -1.263e-4
-1.007, -1.293e-4
-1.006, -1.293e-4
-1.005, -1.293e-4
-1.004, -1.324e-4
-1.003, -1.355e-4
-1.002, -1.355e-4
-1.001, -1.355e-4
