Potential V vs RHE, Current mA cm-2
0.013299999999999867,-0.002662486666345999
0.012299999999999978,-0.0099213703459535
0.011299999999999866,-0.013438342637417984
0.010299999999999976,-0.01659456354741688
0.009299999999999864,-0.019027866983184743
0.008299999999999974,-0.022196820294882423
0.007299999999999862,-0.025040390007611147
0.006299999999999972,-0.027261486748399254
0.00529999999999986,-0.028662050935265648
0.0042999999999999705,-0.03007676223513068
0.0032999999999998586,-0.032524212783897194
0.0022999999999999687,-0.034717015298688
0.0012999999999998568,-0.03631563906753549
0.00029999999999996696,-0.03719276007345181
-0.000700000000000145,-0.03889041363328985
-0.0017000000000000348,-0.040644655645122506
-0.0027000000000001467,-0.04242719188295245
-0.0037000000000000366,-0.043912638747810734
-0.0047000000000001485,-0.044690729962736514
-0.005700000000000038,-0.045256614482682526
-0.00670000000000015,-0.04750600544946793
-0.00770000000000004,-0.049189511896307325
-0.008700000000000152,-0.05012322135421825
-0.009700000000000042,-0.05085887123014807
-0.010700000000000154,-0.052231141191017155
-0.011700000000000044,-0.053504381360895685
-0.012700000000000156,-0.05528691759872562
-0.013700000000000045,-0.05640453952561902
-0.014700000000000157,-0.056828952915578525
-0.015700000000000047,-0.05781925082548405
-0.01670000000000016,-0.059106638108361226
-0.01770000000000005,-0.060931615685187124
-0.01870000000000016,-0.06153994154412909
-0.01970000000000005,-0.06207753183807782
-0.020700000000000163,-0.06302538840898737
-0.021700000000000053,-0.06466645351683083
-0.022700000000000164,-0.06603872347769991
-0.023700000000000054,-0.06736855209957304
-0.024700000000000166,-0.06739684632557033
-0.025700000000000056,-0.06830226155748398
-0.026700000000000168,-0.07039603428128423
-0.027700000000000058,-0.07147121486918166
-0.02870000000000017,-0.07273030792606154
-0.02970000000000006,-0.07295666173403995
-0.03070000000000017,-0.07400354809594006
-0.03170000000000006,-0.0752767882658186
-0.03270000000000017,-0.07722908985963235
-0.03370000000000006,-0.07851647714250953
-0.034700000000000175,-0.0789267434194704
-0.035700000000000065,-0.07977557019938941
-0.03670000000000018,-0.08150151798522477
-0.03770000000000007,-0.0830011119630817
-0.03870000000000018,-0.08383579163000207
-0.03970000000000007,-0.0848543837659049
-0.04070000000000018,-0.08512317891287925
-0.04170000000000007,-0.08731598142767007
-0.04270000000000018,-0.08905607632650406
-0.04370000000000007,-0.09014540402740015
-0.044700000000000184,-0.09122058461529756
-0.045700000000000074,-0.09147523264927326
-0.046700000000000186,-0.09281920838414506
-0.047700000000000076,-0.09506859935093047
-0.04870000000000019,-0.09666722311977795
-0.04970000000000008,-0.09726140186572127
-0.05070000000000019,-0.09864781893958902
-0.05170000000000008,-0.09982202931847699
-0.05270000000000019,-0.10123674061834202
-0.05370000000000008,-0.10303342396917063
-0.05470000000000019,-0.10337295468113822
-0.05570000000000008,-0.10470278330301136
-0.056700000000000195,-0.10580625811690608
-0.057700000000000085,-0.10812638464868475
-0.058700000000000196,-0.10971086130453359
-0.059700000000000086,-0.10980989109552414
-0.0607000000000002,-0.11091336590941887
-0.06170000000000009,-0.11268175503425018
-0.0627000000000002,-0.11471893930605583
-0.06370000000000009,-0.11616194483191816
-0.0647000000000002,-0.11686930048185068
-0.06570000000000009,-0.11785959839175622
-0.0667000000000002,-0.11967042885558345
-0.0677000000000001,-0.12169346601439045
-0.0687000000000002,-0.1232779426702393
-0.0697000000000001,-0.12395700409417452
-0.07070000000000021,-0.12465021263110838
-0.0717000000000001,-0.1262629835129545
-0.07270000000000021,-0.12813040242877638
-0.0737000000000001,-0.1297714675366198
-0.07470000000000021,-0.1299978213445982
-0.0757000000000001,-0.13161059222644436
-0.07670000000000021,-0.13267162570134314
-0.0777000000000001,-0.1346805157471515
-0.07870000000000021,-0.13636402219399088
-0.0797000000000001,-0.13646305198498146
-0.08070000000000022,-0.13770799792886268
-0.0817000000000001,-0.13892464964674658
-0.08270000000000022,-0.14082036278856577
-0.08370000000000011,-0.14189554337646318
-0.08470000000000022,-0.1428858412863687
-0.08570000000000011,-0.1433102546763282
-0.08670000000000022,-0.14529085049613927
-0.08770000000000011,-0.14642261953603128
-0.08870000000000022,-0.14783733083589634
-0.08970000000000011,-0.14812027309586934
-0.09070000000000022,-0.14868615761581536
-0.09170000000000011,-0.1501008689156804
-0.09270000000000023,-0.15193999360550495
-0.09370000000000012,-0.15250587812545094
-0.09470000000000023,-0.15349617603535648
-0.09570000000000012,-0.154203531685289
-0.09670000000000023,-0.15491088733522151
-0.09770000000000012,-0.15675001202504607
-0.09870000000000023,-0.15816472332491108
-0.09970000000000012,-0.15774030993495158
-0.10070000000000023,-0.1583061944548976
-0.10170000000000012,-0.15915502123481662
-0.10270000000000024,-0.16113561705462764
-0.10370000000000013,-0.1615600304445872
-0.10470000000000024,-0.1615600304445872
-0.10570000000000013,-0.1618429727045602
-0.10670000000000024,-0.1628332706144657
-0.10770000000000013,-0.16495533756426325
-0.10870000000000024,-0.16481386643427676
-0.10970000000000013,-0.16481386643427676
-0.11070000000000024,-0.16523827982423628
-0.11170000000000013,-0.16608710660415532
-0.11270000000000002,-0.1669359333840743
-0.11370000000000013,-0.16707740451406086
-0.11470000000000002,-0.16637004886412832
-0.11570000000000014,-0.16778476016399335
-0.11670000000000003,-0.16778476016399335
-0.11770000000000014,-0.1694824137238314
-0.11870000000000003,-0.16905800033387192
-0.11970000000000014,-0.16849211581392587
-0.12070000000000003,-0.16849211581392587
-0.12170000000000014,-0.1693409425938449
-0.12270000000000003,-0.16990682711379093
-0.12370000000000014,-0.17033124050375043
-0.12470000000000003,-0.1694824137238314
-0.12570000000000014,-0.1693409425938449
-0.12670000000000003,-0.1694824137238314
-0.12770000000000015,-0.16990682711379093
-0.12870000000000004,-0.17033124050375043
-0.12970000000000015,-0.17004829824377743
-0.13070000000000004,-0.1693409425938449
-0.13170000000000015,-0.1693409425938449
-0.13270000000000004,-0.17004829824377743
-0.13370000000000015,-0.17018976937376393
-0.13470000000000004,-0.16919947146385841
-0.13570000000000015,-0.1689165292038854
-0.13670000000000004,-0.1693409425938449
-0.13770000000000016,-0.17004829824377743
-0.13870000000000005,-0.16919947146385841
-0.13970000000000016,-0.16863358694391237
-0.14070000000000005,-0.16835064468393937
-0.14170000000000016,-0.16792623129397988
-0.14270000000000005,-0.16835064468393937
-0.14370000000000016,-0.16820917355395287
-0.14470000000000005,-0.16736034677403386
-0.14570000000000016,-0.1666529911241013
-0.14670000000000005,-0.16637004886412832
-0.14770000000000016,-0.16651151999411481
-0.14870000000000005,-0.16651151999411481
-0.14970000000000017,-0.16509680869424978
-0.15070000000000006,-0.16438945304431726
-0.15170000000000017,-0.16467239530429026
-0.15270000000000006,-0.16495533756426325
-0.15370000000000017,-0.16396503965435774
-0.15470000000000006,-0.16339915513441172
-0.15570000000000017,-0.1629747417444522
-0.15670000000000006,-0.1626917994844792
-0.15770000000000017,-0.1625503283544927
-0.15870000000000006,-0.1619844438345467
-0.15970000000000018,-0.16085267479465465
-0.16070000000000007,-0.16014531914472213
-0.16170000000000018,-0.16028679027470866
-0.16270000000000007,-0.16014531914472213
-0.16370000000000018,-0.16000384801473563
-0.16470000000000007,-0.15929649236480314
-0.16570000000000018,-0.1585891367148706
-0.16670000000000007,-0.1584476655848841
-0.16770000000000018,-0.15788178106493808
-0.16870000000000007,-0.15788178106493808
-0.16970000000000018,-0.15689148315503257
-0.17070000000000007,-0.15618412750510002
-0.17170000000000019,-0.15590118524512703
-0.17270000000000008,-0.15590118524512703
-0.1737000000000002,-0.155052358465208
-0.17470000000000008,-0.1543450028152755
-0.1757000000000002,-0.15392058942531597
-0.17670000000000008,-0.1540620605553025
-0.1777000000000002,-0.15392058942531597
-0.17870000000000008,-0.15335470490536995
-0.1797000000000002,-0.15236440699546444
-0.18070000000000008,-0.15193999360550495
-0.1817000000000002,-0.15193999360550495
-0.18270000000000008,-0.15179852247551845
-0.1837000000000002,-0.15179852247551845
-0.1847000000000001,-0.1502423400456669
-0.1857000000000002,-0.1498179266557074
-0.1867000000000001,-0.1499593977856939
-0.1877000000000002,-0.1496764555257209
-0.1887000000000001,-0.1499593977856939
-0.1897000000000002,-0.14826174422585583
-0.1907000000000001,-0.14826174422585583
-0.1917000000000001,-0.14826174422585583
-0.19269999999999998,-0.14826174422585583
-0.1937000000000001,-0.14797880196588284
-0.19469999999999998,-0.1467055617960043
-0.1957000000000001,-0.14698850405597733
-0.19669999999999999,-0.14628114840604478
-0.1977000000000001,-0.14642261953603128
-0.1987,-0.14642261953603128
-0.1997000000000001,-0.14529085049613927
-0.2007,-0.14472496597619325
-0.2017000000000001,-0.14500790823616627
-0.2027,-0.14472496597619325
-0.2037000000000001,-0.14486643710617977
-0.2047,-0.14401761032626076
-0.2057000000000001,-0.14316878354634172
-0.2067,-0.1433102546763282
-0.2077000000000001,-0.1437346680662877
-0.2087,-0.1433102546763282
-0.2097000000000001,-0.1424614278964092
-0.2107,-0.1426028990263957
-0.2117000000000001,-0.14175407224647668
-0.2127,-0.1424614278964092
-0.2137000000000001,-0.1421784856364362
-0.2147,-0.14115989350053335
-0.2157000000000001,-0.14127307040452258
-0.2167,-0.14147112998650369
-0.21770000000000012,-0.14161260111649018
-0.2187,-0.14131551174351853
-0.21970000000000012,-0.1405515676415914
-0.2207,-0.14029691960761567
-0.22170000000000012,-0.14062230320658464
-0.2227,-0.14096183391855227
-0.22370000000000012,-0.14060815609358598
-0.2247,-0.1399008004436535
-0.22570000000000012,-0.13963200529667913
-0.2267,-0.1400847129126359
-0.22770000000000012,-0.1404666849635995
-0.22870000000000001,-0.13980177065266292
-0.22970000000000013,-0.13929247458471153
-0.23070000000000002,-0.1386982958387682
-0.23170000000000013,-0.1392641803587142
-0.23270000000000002,-0.1390944150027304
-0.23370000000000013,-0.13913685634172637
-0.23470000000000002,-0.13806167575382894
-0.23570000000000013,-0.13801923441483296
-0.23670000000000002,-0.1384012064657965
-0.2376999999999999,-0.13899538521173985
-0.23870000000000002,-0.13916515056772363
-0.2396999999999999,-0.13816070554481946
-0.24070000000000003,-0.13807582286682757
-0.24169999999999991,-0.1386982958387682
-0.24270000000000003,-0.13885391408175335
-0.24369999999999992,-0.1388397669687547
-0.24470000000000003,-0.13825973533581
-0.24569999999999992,-0.13786361617184784
-0.24670000000000003,-0.13838705935279788
-0.24769999999999992,-0.13871244295176685
-0.24870000000000003,-0.1389529438727439
-0.24969999999999992,-0.13857097182178035
-0.25070000000000003,-0.13825973533581
-0.2516999999999999,-0.13862756027377496
-0.25270000000000004,-0.13929247458471153
-0.2536999999999999,-0.13949053416669263
-0.25470000000000004,-0.13879732562975874
-0.2556999999999999,-0.1389529438727439
-0.25670000000000004,-0.13913685634172637
-0.25769999999999993,-0.1404949791895968
-0.25870000000000004,-0.13954712261868724
-0.25969999999999993,-0.13930662169771016
-0.26070000000000004,-0.14005641868663865
-0.26169999999999993,-0.13980177065266292
-0.26270000000000004,-0.1404949791895968
-0.26369999999999993,-0.14101842237054685
-0.26470000000000005,-0.14062230320658464
-0.26569999999999994,-0.1404666849635995
-0.26670000000000005,-0.14113159927453606
-0.26769999999999994,-0.14138624730851176
-0.26870000000000005,-0.1428858412863687
-0.26969999999999994,-0.14161260111649018
-0.27070000000000005,-0.1421784856364362
-0.27169999999999994,-0.1424614278964092
-0.27270000000000005,-0.1433102546763282
-0.27369999999999994,-0.14387613919627423
-0.27470000000000006,-0.14316878354634172
-0.27569999999999995,-0.1433102546763282
-0.27670000000000006,-0.14458349484620675
-0.27769999999999995,-0.14500790823616627
-0.27870000000000006,-0.14529085049613927
-0.27969999999999995,-0.14529085049613927
-0.28070000000000006,-0.1458567350160853
-0.28169999999999995,-0.1458567350160853
-0.28270000000000006,-0.14712997518596382
-0.28369999999999995,-0.14826174422585583
-0.28470000000000006,-0.14769585970590982
-0.28569999999999995,-0.14812027309586934
-0.28670000000000007,-0.14911057100577488
-0.28769999999999996,-0.1499593977856939
-0.28870000000000007,-0.1509496956955994
-0.28969999999999996,-0.1512326379555724
-0.29070000000000007,-0.15052528230563988
-0.29169999999999996,-0.15222293586547794
-0.29270000000000007,-0.15335470490536995
-0.29369999999999996,-0.15363764716534298
-0.2947000000000001,-0.1540620605553025
-0.29569999999999996,-0.15476941620523502
-0.2967000000000001,-0.15604265637511353
-0.29769999999999996,-0.1574573676749786
-0.2987000000000001,-0.1583061944548976
-0.29969999999999997,-0.1585891367148706
-0.3007000000000001,-0.15915502123481662
-0.30169999999999997,-0.16042826140469515
-0.3027000000000001,-0.16127708818461417
-0.30369999999999997,-0.1628332706144657
-0.3047000000000001,-0.16325768400442522
-0.30569999999999997,-0.16467239530429026
-0.3067000000000001,-0.1656626932141958
-0.3077,-0.16721887564404736
-0.3087000000000001,-0.16863358694391237
-0.3097,-0.16863358694391237
-0.3107000000000001,-0.17061418276372342
-0.3117,-0.17202889406358848
-0.3127000000000001,-0.1737265476234265
-0.3137,-0.17542420118326454
-0.3147000000000001,-0.17514125892329155
-0.3157,-0.1769803836131161
-0.3167000000000001,-0.1783950949129811
-0.3177,-0.18023421960280567
-0.3187000000000001,-0.18235628655260325
-0.3197,-0.18306364220253574
-0.3207000000000001,-0.1850442380223468
-0.3217,-0.18631747819222533
-0.3227000000000001,-0.18829807401203638
-0.3237,-0.19056161209182043
-0.3247000000000001,-0.19169338113171247
-0.3257,-0.193249563561564
-0.3267000000000001,-0.19607898616129407
-0.3277,-0.19834252424107812
-0.3287000000000001,-0.19961576441095666
-0.3297,-0.20216224475071373
-0.3307000000000001,-0.20343548492059227
-0.3317,-0.20584049413036284
-0.3327000000000001,-0.2089528589900659
-0.3337,-0.21121639706985
-0.3347000000000001,-0.21234816610974203
-0.3357,-0.2153190598394586
-0.3367000000000001,-0.21786554017921567
-0.3377,-0.22055349164895924
-0.3387000000000001,-0.22366585650866228
-0.3397,-0.22550498119848683
-0.3407000000000001,-0.22861734605818995
-0.3417,-0.23144676865792
-0.3427000000000001,-0.23441766238763656
-0.3437,-0.2382373828972722
-0.3447000000000001,-0.2399350364571102
-0.3457,-0.24333034357678635
-0.3467000000000001,-0.24658417956647588
-0.3477,-0.25040390007611146
-0.3487000000000001,-0.25436509171573357
-0.3497,-0.25691157205549064
-0.3507000000000001,-0.26002393691519377
-0.3517,-0.2639851285548159
-0.3527000000000001,-0.268229262454411
-0.3537,-0.2726148674839926
-0.3547000000000001,-0.2754442900837227
-0.3557,-0.27926401059335826
-0.35670000000000013,-0.28336667336296684
-0.3577,-0.28775227839254847
-0.35870000000000013,-0.29256229681208956
-0.3597,-0.2963820173217252
-0.36070000000000013,-0.3006261512213203
-0.3617,-0.3055776407708479
-0.3626999999999999,-0.310387659190389
-0.3637,-0.31533914873991664
-0.3646999999999999,-0.31986622489948474
-0.3657,-0.3252421278389719
-0.3666999999999999,-0.33019361738849956
-0.3677,-0.33585246258795975
-0.3686999999999999,-0.34122836552744684
-0.36970000000000003,-0.346604268466934
-0.3706999999999999,-0.35212164253640765
-0.37170000000000003,-0.3582049011258273
-0.3726999999999999,-0.3642881597152469
-0.37370000000000003,-0.37065436056463963
-0.3746999999999999,-0.37588879237414025
-0.37570000000000003,-0.3828208777434789
-0.3766999999999999,-0.3887626652029121
-0.37770000000000004,-0.39668504848215624
-0.3786999999999999,-0.4031927204615355
-0.37970000000000004,-0.40955892131092814
-0.3806999999999999,-0.41677394894023984
-0.38170000000000004,-0.424130447699538
-0.38269999999999993,-0.4320528309787822
-0.38370000000000004,-0.43940932973808033
-0.38469999999999993,-0.44662435736739203
-0.38570000000000004,-0.45454674064663625
-0.38669999999999993,-0.4627520661858534
-0.38770000000000004,-0.4715232762450167
-0.38869999999999993,-0.48029448630418
-0.38970000000000005,-0.4886412829733836
-0.39069999999999994,-0.4969880796425873
-0.39170000000000005,-0.5063251742216967
-0.39269999999999994,-0.5160866821907654
-0.39370000000000005,-0.5262726035497938
-0.39469999999999994,-0.5343364579590244
-0.39570000000000005,-0.5440979659280931
-0.39669999999999994,-0.5544253584171079
-0.39770000000000005,-0.5647527509061226
-0.39869999999999994,-0.5752216145251239
-0.39970000000000006,-0.5859734204040982
-0.40069999999999995,-0.596866697413059
-0.40170000000000006,-0.6079014455520062
-0.40269999999999995,-0.6192191359509266
-0.40370000000000006,-0.6315271242597523
-0.40469999999999995,-0.6428448146586726
-0.40570000000000006,-0.6547283895775389
-0.40669999999999995,-0.6667534356263918
-0.40770000000000006,-0.6797687795851503
-0.40869999999999995,-0.692642652413922
-0.40970000000000006,-0.7059409386326533
-0.41069999999999995,-0.7182489269414791
-0.41170000000000007,-0.7321130976801564
-0.41269999999999996,-0.7465431529387798
-0.41370000000000007,-0.7613976215873628
-0.41469999999999996,-0.7748373789360805
-0.41570000000000007,-0.789550376454677
-0.41669999999999996,-0.8046877873632328
-0.41770000000000007,-0.8208154961816942
-0.41869999999999996,-0.8359529070902502
-0.4197000000000001,-0.8517976736487386
-0.42069999999999996,-0.8682083247271731
-0.4217000000000001,-0.8850433891955669
-0.42269999999999996,-0.9015955114039879
-0.4237000000000001,-0.9191379315223143
-0.42469999999999997,-0.9368218227706272
-0.4257000000000001,-0.9542227717589672
-0.42669999999999997,-0.9721896052672533
-0.4277000000000001,-0.9918540923353774
-0.42869999999999997,-1.0110941660135417
-0.4297000000000001,-1.0292024706518144
-0.43069999999999997,-1.0495743133698707
-0.4317000000000001,-1.0690973293080082
-0.4327,-1.0908838833259298
-0.4337000000000001,-1.1113971971739727
-0.4347,-1.1319105110220158
-0.4357000000000001,-1.153272651649978
-0.4367,-1.1750592056678995
-0.4377000000000001,-1.1985434132456592
-0.4387,-1.2211787940434997
-0.4397000000000001,-1.2442385882312998
-0.4407,-1.2672983824191
-0.4417000000000001,-1.2916314167767784
-0.4427,-1.3166718067843897
-0.4437000000000001,-1.3411463122720548
-0.4447,-1.3659037600196928
-0.4457000000000001,-1.3912270922872771
-0.4467,-1.4175407224647667
-0.4477000000000001,-1.4444202371622026
-0.4487,-1.471299751859638
-0.4497000000000001,-1.498179266557074
-0.4507,-1.5264734925543744
-0.4517000000000001,-1.5547677185516753
-0.4527,-1.583061944548976
-0.4537000000000001,-1.612770881846142
-0.4547,-1.6424798191433077
-0.4557000000000001,-1.6721887564404734
-0.4567,-1.7033124050375041
-0.4577000000000001,-1.734436053634535
-0.4587,-1.7655597022315657
-0.4597000000000001,-1.7980980621284617
-0.4607,-1.8292217107254924
-0.4617000000000001,-1.8631747819222533
-0.4627,-1.897127853119014
-0.4637000000000001,-1.9324956356156402
-0.4647,-1.9664487068124006
-0.4657000000000001,-2.001816489309027
-0.4667,-2.0371842718056525
-0.4677000000000001,-2.073966765602144
-0.4687,-2.1121639706984996
-0.4697000000000001,-2.148946464494991
-0.4707,-2.1871436695913467
-0.4717000000000001,-2.225340874687703
-0.4727,-2.2663675023837886
-0.4737000000000001,-2.307394130079875
-0.4747,-2.347006046476096
-0.4757000000000001,-2.388032674172182
-0.4767,-2.430474013168133
-0.4777000000000001,-2.472915352164084
-0.4787,-2.515356691160035
-0.4797000000000001,-2.5592127414558514
-0.4807,-2.6030687917516673
-0.48170000000000013,-2.648339553347349
-0.4827,-2.6950250262428948
-0.48370000000000013,-2.741710499138441
-0.4847,-2.788395972033987
-0.48570000000000013,-2.836496156229398
-0.4867,-2.8845963404248094
-0.4876999999999999,-2.9341112359200863
-0.4887,-2.9850408427152275
-0.4896999999999999,-3.034555738210504
-0.4907,-3.08690005630551
-0.4916999999999999,-3.1378296631006513
-0.4927,-3.193003403795388
