Potential V vs RHE, Current mA cm-2
0.013299999999999867,16.099414592464115
0.012299999999999978,14.345172580631472
0.011299999999999866,12.77767246038101
0.010299999999999976,11.20734291753082
0.009299999999999864,9.724725475272262
0.008299999999999974,8.328405422305472
0.007299999999999862,6.889644030342729
0.006299999999999972,5.581036077967569
0.00529999999999986,4.316284175888227
0.0042999999999999705,3.0515322738088844
0.0032999999999998586,1.8292217107254924
0.0022999999999999687,0.6956135461436386
0.0012999999999998568,-0.48199213986401795
0.00029999999999996696,-1.6156003044458718
-0.000700000000000145,-2.7501987669376318
-0.0017000000000000348,-3.884797229429391
-0.0027000000000001467,-4.974124930325469
-0.0037000000000000366,-6.108723392817228
-0.0047000000000001485,-7.155609754717355
-0.005700000000000038,-8.202496116617484
-0.00670000000000015,-9.205526428221793
-0.00770000000000004,-10.164700689530287
-0.008700000000000152,-11.123874950838783
-0.009700000000000042,-12.12831997374296
-0.010700000000000154,-13.13135028534727
-0.011700000000000044,-14.13438059695158
-0.012700000000000156,-15.094969569559943
-0.013700000000000045,-16.056973253468165
-0.014700000000000157,-16.962388485381787
-0.015700000000000047,-17.881950830294063
-0.01670000000000016,-18.759071836210385
-0.01770000000000005,-19.636192842126707
-0.01870000000000016,-20.499166735044383
-0.01970000000000005,-21.376287740960702
-0.020700000000000163,-22.253408746877028
-0.021700000000000053,-23.15882397879065
-0.022700000000000164,-24.078386323702922
-0.023700000000000054,-24.95550732961925
-0.024700000000000166,-25.81848122253692
-0.025700000000000056,-26.69560222845324
-0.026700000000000168,-27.530281895373616
-0.027700000000000058,-28.308373110299385
-0.02870000000000017,-29.14305277721976
-0.02970000000000006,-30.00602667013743
-0.03070000000000017,-30.8407063370578
-0.03170000000000006,-31.717827342974125
-0.03270000000000017,-32.58080123589179
-0.03370000000000006,-33.41548090281216
-0.034700000000000175,-34.278454795729836
-0.035700000000000065,-35.11313446265021
-0.03670000000000018,-35.848784338580025
-0.03770000000000007,-36.5985813275085
-0.03870000000000018,-37.334231203438314
-0.03970000000000007,-38.08402819236679
-0.04070000000000018,-38.86211940729255
-0.04170000000000007,-39.654357735216976
-0.04270000000000018,-40.43244895014274
-0.04370000000000007,-41.267128617063115
-0.044700000000000184,-42.087661170984845
-0.045700000000000074,-42.87989949890926
-0.046700000000000186,-43.657990713835034
-0.047700000000000076,-44.36534636376755
-0.04870000000000019,-45.10099623969737
-0.04970000000000008,-45.85079322862584
-0.05070000000000019,-46.586443104555656
-0.05170000000000008,-47.36453431948143
-0.05270000000000019,-48.156772647405845
-0.05370000000000008,-48.97730520132757
-0.05470000000000019,-49.72710219025603
-0.05570000000000008,-50.42031072718991
-0.056700000000000195,-51.17010771611838
-0.057700000000000085,-51.90575759204819
-0.058700000000000196,-52.69799591997262
-0.059700000000000086,-53.476087134898386
-0.0607000000000002,-54.26832546282281
-0.06170000000000009,-55.088858016744524
-0.0627000000000002,-55.9235376836649
-0.06370000000000009,-56.74407023758662
-0.0647000000000002,-57.53630856551105
-0.06570000000000009,-58.22951710244491
-0.0667000000000002,-58.97931409137338
-0.0677000000000001,-59.67252262830725
-0.0687000000000002,-60.40817250423707
-0.0697000000000001,-61.15796949316553
-0.07070000000000021,-61.936060708091304
-0.0717000000000001,-62.72829903601572
-0.07270000000000021,-63.5063902509415
-0.0737000000000001,-64.29862857886593
-0.07470000000000021,-65.03427845479574
-0.0757000000000001,-65.76992833072556
-0.07670000000000021,-66.47728398065809
-0.0777000000000001,-67.17049251759194
-0.07870000000000021,-67.96273084551636
-0.0797000000000001,-68.78326339943808
-0.08070000000000022,-69.61794306635846
-0.0817000000000001,-70.48091695927613
-0.08270000000000022,-71.35803796519245
-0.08370000000000011,-72.19271763211282
-0.08470000000000022,-72.97080884703858
-0.08570000000000011,-73.6781644969711
-0.08670000000000022,-74.45625571189689
-0.08770000000000011,-75.19190558782671
-0.08870000000000022,-75.8992612377592
-0.08970000000000011,-76.63491111368903
-0.09070000000000022,-77.38470810261751
-0.09170000000000011,-78.16279931754329
-0.09270000000000023,-78.99747898446365
-0.09370000000000012,-79.81801153838538
-0.09470000000000023,-80.61024986630979
-0.09570000000000012,-81.38834108123557
-0.09670000000000023,-82.18057940915998
-0.09770000000000012,-82.9162292850898
-0.09870000000000023,-83.66602627401826
-0.09970000000000012,-84.44411748894404
-0.10070000000000023,-85.23635581686847
-0.10170000000000012,-86.05688837079018
-0.10270000000000024,-86.93400937670651
-0.10370000000000013,-87.75454193062824
-0.10470000000000024,-88.5892215975486
-0.10570000000000013,-89.42390126446898
-0.10670000000000024,-90.15955114039879
-0.10770000000000013,-90.89520101632861
-0.10870000000000024,-91.60255666626112
-0.10970000000000013,-92.29576520319499
-0.11070000000000024,-93.03141507912481
-0.11170000000000013,-93.73877072905732
-0.11270000000000002,-94.47442060498715
-0.11370000000000013,-95.26665893291157
-0.11470000000000002,-96.00230880884139
-0.11570000000000014,-96.79454713676581
-0.11670000000000003,-97.57263835169158
-0.11770000000000014,-98.3082882276214
-0.11870000000000003,-99.10052655554581
-0.11970000000000014,-99.87861777047159
-0.12070000000000003,-100.75573877638791
-0.12170000000000014,-101.6753011213002
-0.12270000000000003,-102.5524221272165
-0.12370000000000014,-103.37295468113824
-0.12470000000000003,-104.2076343480586
-0.12570000000000014,-104.94328422398843
-0.12670000000000003,-105.69308121291688
-0.12770000000000015,-106.4287310888467
-0.12870000000000004,-107.20682230377247
-0.12970000000000015,-107.99906063169689
-0.13070000000000004,-108.73471050762672
-0.13170000000000015,-109.52694883555114
-0.13270000000000004,-110.22015737248502
-0.13370000000000015,-110.96995436141347
-0.13470000000000004,-111.7056042373433
-0.13570000000000015,-112.44125411327312
-0.13670000000000004,-113.19105110220158
-0.13770000000000016,-113.96914231712736
-0.13870000000000005,-114.76138064505177
-0.13970000000000016,-115.62435453796945
-0.14070000000000005,-116.54391688288172
-0.14170000000000016,-117.42103788879804
-0.14270000000000005,-118.3406002337103
-0.14370000000000016,-119.16113278763203
-0.14470000000000005,-119.99581245455242
-0.14570000000000016,-120.81634500847414
-0.14670000000000005,-121.60858333639854
-0.14770000000000016,-122.38667455132433
-0.14870000000000005,-123.17891287924873
-0.14970000000000017,-123.91456275517855
-0.15070000000000006,-124.70680108310299
-0.15170000000000017,-125.44245095903281
-0.15270000000000006,-126.09321815697072
-0.15370000000000017,-126.75813246790726
-0.15470000000000006,-127.4088996658452
-0.15570000000000017,-128.05966686378312
-0.15670000000000006,-128.752875400717
-0.15770000000000017,-129.50267238964545
-0.15870000000000006,-130.37979339556176
-0.15970000000000018,-131.24276728847948
-0.16070000000000007,-132.16232963339172
-0.16170000000000018,-133.08189197830401
-0.16270000000000007,-133.9873072102176
-0.16370000000000018,-134.82198687713802
-0.16470000000000007,-135.6991078830543
-0.16570000000000018,-136.47719909798008
-0.16670000000000007,-137.31187876490046
-0.16770000000000018,-138.04752864083028
-0.16870000000000007,-138.88220830775063
-0.16970000000000018,-139.6602995226764
-0.17070000000000007,-140.4949791895968
-0.17170000000000019,-141.27307040452254
-0.17270000000000008,-142.03701450644968
-0.1737000000000002,-142.7443701563822
-0.17470000000000008,-143.3102546763282
-0.1757000000000002,-143.73466806628772
-0.17670000000000008,-144.44202371622026
-0.1777000000000002,-145.14937936615277
-0.17870000000000008,-145.9982061460718
-0.1797000000000002,-146.7055617960043
-0.18070000000000008,-147.55438857592333
-0.1817000000000002,-148.54468648582886
-0.18270000000000008,-149.39351326574788
-0.1837000000000002,-150.24234004566688
-0.1847000000000001,-151.09116682558593
-0.1857000000000002,-151.65705134553193
-0.1867000000000001,-152.22293586547795
-0.1877000000000002,-152.78882038542397
-0.1887000000000001,-153.49617603535648
-0.1897000000000002,-154.0620605553025
-0.1907000000000001,-154.9108873352215
-0.1917000000000001,-155.61824298515404
-0.19269999999999998,-156.46706976507306
-0.1937000000000001,-157.17442541500557
-0.19469999999999998,-157.88178106493808
-0.1957000000000001,-158.5891367148706
-0.19669999999999999,-159.29649236480313
-0.1977000000000001,-160.00384801473567
-0.1987,-160.71120366466818
-0.1997000000000001,-161.41855931460069
-0.2007,-162.12591496453322
-0.2017000000000001,-162.97474174445222
-0.2027,-163.82356852437124
-0.2037000000000001,-164.67239530429026
-0.2047,-165.5212220842093
-0.2057000000000001,-166.3700488641283
-0.2067,-167.07740451406085
-0.2077000000000001,-167.78476016399335
-0.2087,-168.63358694391238
-0.2097000000000001,-169.3409425938449
-0.2107,-170.0482982437774
-0.2117000000000001,-170.75565389370993
-0.2127,-171.46300954364247
-0.2137000000000001,-172.0288940635885
-0.2147,-172.73624971352098
-0.2157000000000001,-173.44360536345349
-0.2167,-174.0094898833995
-0.21770000000000012,-174.71684553333202
-0.2187,-175.42420118326456
-0.21970000000000012,-176.13155683319707
-0.2207,-176.6974413531431
-0.22170000000000012,-177.4047970030756
-0.2227,-178.1121526530081
-0.22370000000000012,-178.67803717295413
-0.2247,-179.38539282288664
-0.22570000000000012,-180.23421960280567
-0.2267,-180.94157525273818
-0.22770000000000012,-181.64893090267074
-0.22870000000000001,-182.21481542261674
-0.22970000000000013,-182.92217107254925
-0.23070000000000002,-183.77099785246824
-0.23170000000000013,-184.47835350240078
-0.23270000000000002,-185.1857091523333
-0.23370000000000013,-186.03453593225234
-0.23470000000000002,-186.74189158218485
-0.23570000000000013,-187.30777610213087
-0.23670000000000002,-187.87366062207687
-0.2376999999999999,-188.4395451420229
-0.23870000000000002,-189.1469007919554
-0.2396999999999999,-189.71278531190143
-0.24070000000000003,-190.27866983184742
-0.24169999999999991,-190.98602548177996
-0.24270000000000003,-191.69338113171247
-0.24369999999999992,-192.40073678164498
-0.24470000000000003,-192.966621301591
-0.24569999999999992,-193.6739769515235
-0.24670000000000003,-194.38133260145605
-0.24769999999999992,-194.94721712140205
-0.24870000000000003,-195.65457277133459
-0.24969999999999992,-196.2204572912806
-0.25070000000000003,-196.92781294121312
-0.2516999999999999,-197.49369746115914
-0.25270000000000004,-198.05958198110514
-0.2536999999999999,-198.62546650105114
-0.25470000000000004,-199.19135102099716
-0.2556999999999999,-199.75723554094319
-0.25670000000000004,-200.3231200608892
-0.25769999999999993,-200.7475334508487
-0.25870000000000004,-201.31341797079472
-0.25969999999999993,-202.02077362072723
-0.26070000000000004,-202.7281292706598
-0.26169999999999993,-203.57695605057876
-0.26270000000000004,-204.2843117005113
-0.26369999999999993,-205.13313848043032
-0.26470000000000005,-205.84049413036286
-0.26569999999999994,-206.40637865030885
-0.26670000000000005,-207.1137343002414
-0.26769999999999994,-207.5381476902009
-0.26870000000000005,-208.1040322101469
-0.26969999999999994,-208.6699167300929
-0.27070000000000005,-209.23580125003892
-0.27169999999999994,-209.8016857699849
-0.27270000000000005,-210.22609915994445
-0.27369999999999994,-210.65051254990397
-0.27470000000000006,-211.07492593986345
-0.27569999999999995,-211.499339329823
-0.27670000000000006,-211.782281589796
-0.27769999999999995,-212.2066949797555
-0.27870000000000006,-212.631108369715
-0.27969999999999995,-213.05552175967455
-0.28070000000000006,-213.47993514963403
-0.28169999999999995,-214.04581966958003
-0.28270000000000006,-214.61170418952605
-0.28369999999999995,-215.17758870947208
-0.28470000000000006,-215.7434732294181
-0.28569999999999995,-216.3093577493641
-0.28670000000000007,-216.87524226931012
-0.28769999999999996,-217.44112678925615
-0.28870000000000007,-217.86554017921566
-0.28969999999999996,-218.43142469916165
-0.29070000000000007,-218.85583808912116
-0.29169999999999996,-219.42172260906716
-0.29270000000000007,-219.8461359990267
-0.29369999999999996,-220.5534916489592
-0.2947000000000001,-221.11937616890526
-0.29569999999999996,-221.68526068885126
-0.2967000000000001,-222.10967407881074
-0.29769999999999996,-222.53408746877028
-0.2987000000000001,-222.81702972874328
-0.29969999999999997,-223.2414431187028
-0.3007000000000001,-223.6658565086623
-0.30169999999999997,-223.9487987686353
-0.3027000000000001,-224.5146832885813
-0.30369999999999997,-225.08056780852735
-0.3047000000000001,-225.64645232847332
-0.30569999999999997,-226.35380797840588
-0.3067000000000001,-226.91969249835188
-0.3077,-227.34410588831142
-0.3087000000000001,-227.7685192782709
-0.3097,-228.1929326682304
-0.3107000000000001,-228.75881718817644
-0.3117,-229.18323057813595
-0.3127000000000001,-229.89058622806846
-0.3137,-230.45647074801445
-0.3147000000000001,-231.0223552679605
-0.3157,-231.44676865792
-0.3167000000000001,-232.01265317786604
-0.3177,-232.43706656782552
-0.3187000000000001,-233.00295108777152
-0.3197,-233.28589334774458
-0.3207000000000001,-233.71030673770406
-0.3217,-234.13472012766357
-0.3227000000000001,-234.7006046476096
-0.3237,-235.12501803756908
-0.3247000000000001,-235.54943142752862
-0.3257,-235.83237368750162
-0.3267000000000001,-236.25678707746113
-0.3277,-236.3982582074476
-0.3287000000000001,-236.6812004674206
-0.3297,-236.96414272739366
-0.3307000000000001,-237.10561385738015
-0.3317,-237.38855611735315
-0.3327000000000001,-237.67149837732615
-0.3337,-237.9544406372992
-0.3347000000000001,-238.2373828972722
-0.3357,-238.37885402725868
-0.3367000000000001,-238.5203251572452
-0.3377,-238.66179628723168
-0.3387000000000001,-238.94473854720468
-0.3397,-239.0862096771912
-0.3407000000000001,-239.36915193716422
-0.3417,-239.65209419713722
-0.3427000000000001,-240.21797871708318
-0.3437,-240.64239210704275
-0.3447000000000001,-240.92533436701575
-0.3457,-241.34974775697523
-0.3467000000000001,-241.77416114693477
-0.3477,-242.05710340690777
-0.3487000000000001,-242.48151679686728
-0.3497,-242.62298792685377
-0.3507000000000001,-242.90593018682682
-0.3517,-243.18887244679982
-0.3527000000000001,-243.3303435767863
-0.3537,-243.6132858367593
-0.3547000000000001,-243.75475696674582
-0.3557,-243.8962280967323
-0.35670000000000013,-244.17917035670533
-0.3577,-244.32064148669184
-0.35870000000000013,-244.60358374666484
-0.3597,-244.8865260066378
-0.36070000000000013,-245.31093939659738
-0.3617,-245.87682391654337
-0.3626999999999999,-246.30123730650286
-0.3637,-246.7256506964624
-0.3646999999999999,-247.0085929564354
-0.3657,-247.2915352164084
-0.3666999999999999,-247.4330063463949
-0.3677,-247.4330063463949
-0.3686999999999999,-247.57447747638145
-0.36970000000000003,-247.57447747638145
-0.3706999999999999,-247.4330063463949
-0.37170000000000003,-247.57447747638145
-0.3726999999999999,-247.71594860636796
-0.37370000000000003,-247.99889086634093
-0.3746999999999999,-248.14036199632744
-0.37570000000000003,-248.42330425630044
-0.3766999999999999,-248.70624651627344
-0.37770000000000004,-249.13065990623298
-0.3786999999999999,-249.5550732961925
-0.37970000000000004,-249.83801555616546
-0.3806999999999999,-250.262428946125
-0.38170000000000004,-250.6868423360845
-0.38269999999999993,-250.9697845960575
-0.38370000000000004,-251.111255726044
-0.38469999999999993,-251.39419798601702
-0.38570000000000004,-251.39419798601702
-0.38669999999999993,-251.39419798601702
-0.38770000000000004,-251.39419798601702
-0.38869999999999993,-251.25272685603056
-0.38970000000000005,-250.9697845960575
-0.39069999999999994,-250.828313466071
-0.39170000000000005,-250.6868423360845
-0.39269999999999994,-250.6868423360845
-0.39370000000000005,-250.6868423360845
-0.39469999999999994,-250.828313466071
-0.39570000000000005,-250.9697845960575
-0.39669999999999994,-250.9697845960575
-0.39770000000000005,-250.828313466071
-0.39869999999999994,-250.6868423360845
-0.39970000000000006,-250.6868423360845
-0.40069999999999995,-250.9697845960575
-0.40170000000000006,-251.111255726044
-0.40269999999999995,-251.111255726044
-0.40370000000000006,-251.111255726044
-0.40469999999999995,-251.111255726044
-0.40570000000000006,-251.111255726044
-0.40669999999999995,-251.111255726044
-0.40770000000000006,-251.111255726044
-0.40869999999999995,-251.25272685603056
-0.40970000000000006,-251.39419798601702
-0.41069999999999995,-251.39419798601702
-0.41170000000000007,-251.53566911600356
-0.41269999999999996,-251.67714024599002
-0.41370000000000007,-251.67714024599002
-0.41469999999999996,-251.81861137597656
-0.41570000000000007,-251.81861137597656
-0.41669999999999996,-251.81861137597656
-0.41770000000000007,-251.81861137597656
-0.41869999999999996,-251.81861137597656
-0.4197000000000001,-251.96008250596302
-0.42069999999999996,-252.10155363594956
-0.4217000000000001,-252.243024765936
-0.42269999999999996,-252.38449589592256
-0.4237000000000001,-252.52596702590907
-0.42469999999999997,-252.52596702590907
-0.4257000000000001,-252.80890928588207
-0.42669999999999997,-253.09185154585506
-0.4277000000000001,-253.23332267584152
-0.42869999999999997,-253.23332267584152
-0.4297000000000001,-253.37479380582806
-0.43069999999999997,-253.23332267584152
-0.4317000000000001,-253.09185154585506
-0.4327,-253.09185154585506
-0.4337000000000001,-253.09185154585506
-0.4347,-252.95038041586852
-0.4357000000000001,-252.80890928588207
-0.4367,-252.66743815589555
-0.4377000000000001,-252.52596702590907
-0.4387,-252.52596702590907
-0.4397000000000001,-252.38449589592256
-0.4407,-252.38449589592256
-0.4417000000000001,-252.38449589592256
-0.4427,-252.52596702590907
-0.4437000000000001,-252.66743815589555
-0.4447,-252.95038041586852
-0.4457000000000001,-253.09185154585506
-0.4467,-253.23332267584152
-0.4477000000000001,-253.37479380582806
-0.4487,-253.51626493581452
-0.4497000000000001,-253.51626493581452
-0.4507,-253.65773606580112
-0.4517000000000001,-253.65773606580112
-0.4527,-253.51626493581452
-0.4537000000000001,-253.51626493581452
-0.4547,-253.37479380582806
-0.4557000000000001,-253.37479380582806
-0.4567,-253.37479380582806
-0.4577000000000001,-253.37479380582806
-0.4587,-253.51626493581452
-0.4597000000000001,-253.51626493581452
-0.4607,-253.51626493581452
-0.4617000000000001,-253.37479380582806
-0.4627,-253.37479380582806
-0.4637000000000001,-253.37479380582806
-0.4647,-253.37479380582806
-0.4657000000000001,-253.37479380582806
-0.4667,-253.51626493581452
-0.4677000000000001,-253.65773606580112
-0.4687,-253.65773606580112
-0.4697000000000001,-253.79920719578757
-0.4707,-254.08214945576057
-0.4717000000000001,-254.08214945576057
-0.4727,-253.94067832577412
-0.4737000000000001,-253.94067832577412
-0.4747,-254.08214945576057
-0.4757000000000001,-254.2236205857471
-0.4767,-254.2236205857471
-0.4777000000000001,-254.36509171573357
-0.4787,-254.36509171573357
-0.4797000000000001,-254.36509171573357
-0.4807,-254.64803397570657
-0.48170000000000013,-254.64803397570657
-0.4827,-254.78950510569314
-0.48370000000000013,-255.21391849565262
-0.4847,-255.49686075562562
-0.48570000000000013,-255.92127414558513
-0.4867,-254.64803397570657
-0.48570000000000013,-251.111255726044
-0.4847,-247.57447747638145
-0.48370000000000013,-244.17917035670533
-0.4827,-240.92533436701575
-0.48170000000000013,-237.81296950731266
-0.4807,-234.7006046476096
-0.4797000000000001,-231.5882397879065
-0.4787,-228.61734605818995
-0.4777000000000001,-225.50498119848683
-0.4767,-222.53408746877028
-0.4757000000000001,-219.5631937390537
-0.4747,-216.59230000933712
-0.4737000000000001,-213.62140627962054
-0.4727,-210.93345480987696
-0.4717000000000001,-208.3869744701199
-0.4707,-205.84049413036286
-0.4697000000000001,-203.15254266061928
-0.4687,-200.7475334508487
-0.4677000000000001,-198.20105311109162
-0.4667,-195.93751503130758
