Potential V vs RHE, Current mA cm-2
0.013299999999999867,0.0716268331121668
0.012299999999999978,-1.5335470490536998
0.011299999999999866,-2.662486666345999
0.010299999999999976,-3.412283655274469
0.009299999999999864,-4.040415472414544
0.008299999999999974,-4.607714703660425
0.007299999999999862,-5.012322135421825
0.006299999999999972,-5.337705734390783
0.00529999999999986,-5.681480580257988
0.0042999999999999705,-5.967252262830725
0.0032999999999998586,-6.131358773615069
0.0022999999999999687,-6.3647861380928
0.0012999999999998568,-6.612360615569181
0.00029999999999996696,-6.72695223085825
-0.000700000000000145,-6.869838072144618
-0.0017000000000000348,-7.091947746223429
-0.0027000000000001467,-7.2022952276129
-0.0037000000000000366,-7.275860215205883
-0.0047000000000001485,-7.458357972888473
-0.005700000000000038,-7.584267278576461
-0.00670000000000015,-7.629538040172143
-0.00770000000000004,-7.746959078060941
-0.008700000000000152,-7.88135665154812
-0.009700000000000042,-7.94360394874218
-0.010700000000000154,-8.04121902843287
-0.011700000000000044,-8.194007848818291
-0.012700000000000156,-8.246352166913299
-0.013700000000000045,-8.263328702511679
-0.014700000000000157,-8.383579163000208
-0.015700000000000047,-8.45148530539373
-0.01670000000000016,-8.459973573192919
-0.01770000000000005,-8.556173941583742
-0.01870000000000016,-8.66793613427308
-0.01970000000000005,-8.666521422973215
-0.020700000000000163,-8.689156803771056
-0.021700000000000053,-8.781113038262282
-0.022700000000000164,-8.833457356357288
-0.023700000000000054,-8.841945624156478
-0.024700000000000166,-8.936731281247436
-0.025700000000000056,-9.007466846240689
-0.026700000000000168,-8.987660888042578
-0.027700000000000058,-9.076787699934075
-0.02870000000000017,-9.171573357025034
-0.02970000000000006,-9.15459682142665
-0.03070000000000017,-9.184305758723816
-0.03170000000000006,-9.284750261014237
-0.03270000000000017,-9.3144591983114
-0.03370000000000006,-9.308800353111941
-0.034700000000000175,-9.382365340704922
-0.035700000000000065,-9.44602734919885
-0.03670000000000018,-9.40075658760317
-0.03770000000000007,-9.444612637898985
-0.03870000000000018,-9.523836470691428
-0.03970000000000007,-9.489883399494666
-0.04070000000000018,-9.49695695599399
-0.04170000000000007,-9.58042492268603
-0.04270000000000018,-9.573351366186703
-0.04370000000000007,-9.545057140189403
-0.044700000000000184,-9.61720741648252
-0.045700000000000074,-9.641257508580225
-0.046700000000000186,-9.590327901785084
-0.047700000000000076,-9.6341839520809
-0.04870000000000019,-9.69643124927496
-0.04970000000000008,-9.663892889378065
-0.05070000000000019,-9.65681933287874
-0.05170000000000008,-9.741702010870643
-0.05270000000000019,-9.738872588270914
-0.05370000000000008,-9.697845960574826
-0.05470000000000019,-9.765752102968348
-0.05570000000000008,-9.758678546469023
-0.056700000000000195,-9.70774893967388
-0.057700000000000085,-9.744531433470373
-0.058700000000000196,-9.791216906365918
-0.059700000000000086,-9.754434412569427
-0.0607000000000002,-9.733213743071452
-0.06170000000000009,-9.801119885464974
-0.0627000000000002,-9.769996236867943
-0.06370000000000009,-9.713407784873342
-0.0647000000000002,-9.782728638566729
-0.06570000000000009,-9.799705174165108
-0.0667000000000002,-9.700675383174557
-0.0677000000000001,-9.711993073573478
-0.0687000000000002,-9.764337391668482
-0.0697000000000001,-9.706334228374017
-0.07070000000000021,-9.680869424976446
-0.0717000000000001,-9.734628454371316
-0.07270000000000021,-9.716237207473073
-0.0737000000000001,-9.672381157177256
-0.07470000000000021,-9.720481341372667
-0.0757000000000001,-9.741702010870643
-0.07670000000000021,-9.673795868477121
-0.0777000000000001,-9.661063466778335
-0.07870000000000021,-9.689357692775637
-0.0797000000000001,-9.658234044178606
-0.08070000000000022,-9.652575198979145
-0.0817000000000001,-9.673795868477121
-0.08270000000000022,-9.601645592184004
-0.08370000000000011,-9.528080604591022
-0.08470000000000022,-9.570521943586973
-0.08570000000000011,-9.577595500086298
-0.08670000000000022,-9.502615801193452
-0.08770000000000011,-9.516762914192102
-0.08870000000000022,-9.546471851489269
-0.08970000000000011,-9.47998042039561
-0.09070000000000022,-9.43753908139966
-0.09170000000000011,-9.498371667293856
-0.09270000000000023,-9.464418596097095
-0.09370000000000012,-9.375291784205599
-0.09470000000000023,-9.40924485540236
-0.09570000000000012,-9.390853608504113
-0.09670000000000023,-9.310215064411805
-0.09770000000000012,-9.324362177410457
-0.09870000000000023,-9.356900537307352
-0.09970000000000012,-9.284750261014237
-0.10070000000000023,-9.219673541220443
-0.10170000000000012,-9.242308922018283
-0.10270000000000024,-9.199867583022334
-0.10370000000000013,-9.127717306729215
-0.10470000000000024,-9.148937976227192
-0.10570000000000013,-9.165914511825573
-0.10670000000000024,-9.110740771130837
-0.10770000000000013,-9.150352687527057
-0.10870000000000024,-9.153182110126787
-0.10970000000000013,-9.076787699934075
-0.11070000000000024,-9.04141991743745
-0.11170000000000013,-9.090934812932726
-0.11270000000000002,-9.037175783537855
-0.11370000000000013,-8.966440218544603
-0.11470000000000002,-8.969269641144333
-0.11570000000000014,-8.959366662045278
-0.11670000000000003,-8.85892215975486
-0.11770000000000014,-8.84760446935594
-0.11870000000000003,-8.89287523095162
-0.11970000000000014,-8.815066109459044
-0.12070000000000003,-8.771210059163227
-0.12170000000000014,-8.80799255295972
-0.12270000000000003,-8.758477657464443
-0.12370000000000014,-8.704718628069573
-0.12470000000000003,-8.727354008867412
-0.12570000000000014,-8.730183431467141
-0.12670000000000003,-8.643886042175374
-0.12770000000000015,-8.638227196975913
-0.12870000000000004,-8.662277289073618
-0.12970000000000015,-8.592956435380232
-0.13070000000000004,-8.55051509638428
-0.13170000000000015,-8.601444703179425
-0.13270000000000004,-8.567491631982662
-0.13370000000000015,-8.49392664438968
-0.13470000000000004,-8.526465004286575
-0.13570000000000015,-8.51090317998806
-0.13670000000000004,-8.433094058495483
-0.13770000000000016,-8.444411748894403
-0.13870000000000005,-8.464217707092514
-0.13970000000000016,-8.393482142099263
-0.14070000000000005,-8.358114359602638
-0.14170000000000016,-8.406214543798049
-0.14270000000000005,-8.377920317800747
-0.14370000000000016,-8.305770041507632
-0.14470000000000005,-8.335478978804796
-0.14570000000000016,-8.336893690104661
-0.14670000000000005,-8.25484043471249
-0.14770000000000016,-8.28030523811006
-0.14870000000000005,-8.315673020606686
-0.14970000000000017,-8.23786389911411
-0.15070000000000006,-8.198251982717888
-0.15170000000000017,-8.24918158951303
-0.15270000000000006,-8.212399095716538
-0.15370000000000017,-8.145907664622882
-0.15470000000000006,-8.162884200221262
-0.15570000000000017,-8.179860735819641
-0.15670000000000006,-8.096392769127604
-0.15770000000000017,-8.12327228382504
-0.15870000000000006,-8.167128334120857
-0.15970000000000018,-8.085075078728684
-0.16070000000000007,-8.049707296232057
-0.16170000000000018,-8.107710459526524
-0.16270000000000007,-8.061024986630978
-0.16370000000000018,-8.005851245936244
-0.16470000000000007,-8.063854409230709
-0.16570000000000018,-8.069513254430168
-0.16670000000000007,-7.991704132937592
-0.16770000000000018,-7.980386442538672
-0.16870000000000007,-8.02141307023476
-0.16970000000000018,-7.961995195640427
-0.17070000000000007,-7.92096856794434
-0.17170000000000019,-7.953506927841237
-0.17270000000000008,-7.922383279244204
-0.1737000000000002,-7.88135665154812
-0.17470000000000008,-7.950677505241506
-0.1757000000000002,-7.945018660042045
-0.17670000000000008,-7.8771125176485235
-0.1777000000000002,-7.9082361662455565
-0.17870000000000008,-7.942189237442316
-0.1797000000000002,-7.885600785447715
-0.18070000000000008,-7.868624249849334
-0.1817000000000002,-7.936530392242855
-0.18270000000000008,-7.903992032345959
-0.1837000000000002,-7.8431594464517636
-0.1847000000000001,-7.88701549674758
-0.1857000000000002,-7.916724434044746
-0.1867000000000001,-7.857306559450413
-0.1877000000000002,-7.88701549674758
-0.1887000000000001,-7.92096856794434
-0.1897000000000002,-7.853062425550818
-0.1907000000000001,-7.823353488253653
-0.1917000000000001,-7.875697806348659
-0.19269999999999998,-7.860135982050143
-0.1937000000000001,-7.820524065653922
-0.19469999999999998,-7.871453672449064
-0.1957000000000001,-7.909650877545419
-0.19669999999999999,-7.86155069335001
-0.1977000000000001,-7.894089053246905
-0.1987,-7.953506927841237
-0.1997000000000001,-7.894089053246905
-0.2007,-7.896918475846635
-0.2017000000000001,-7.960580484340561
-0.2027,-7.930871547043396
-0.2037000000000001,-7.88135665154812
-0.2047,-7.92379799054407
-0.2057000000000001,-7.926627413143801
-0.2067,-7.885600785447715
-0.2077000000000001,-7.935115680942991
-0.2087,-8.018583647635028
-0.2097000000000001,-7.9888747103378615
-0.2107,-7.984630576438266
-0.2117000000000001,-8.048292584932193
-0.2127,-8.055366141431518
-0.2137000000000001,-8.029901338033948
-0.2147,-8.117613438625579
-0.2157000000000001,-8.194007848818291
-0.2167,-8.11195459342612
-0.21770000000000012,-8.141663530723285
-0.2187,-8.192593137518429
-0.21970000000000012,-8.155810643721937
-0.2207,-8.155810643721937
-0.22170000000000012,-8.226546208715188
-0.2227,-8.227960920015054
-0.22370000000000012,-8.206740250517077
-0.2247,-8.28313466070979
-0.22570000000000012,-8.322746577106011
-0.2267,-8.26898754771114
-0.22770000000000012,-8.324161288405875
-0.22870000000000001,-8.390652719499533
-0.22970000000000013,-8.35669964830277
-0.23070000000000002,-8.370846761301422
-0.23170000000000013,-8.45431472799346
-0.23270000000000002,-8.472705974891705
-0.23370000000000013,-8.461388284492784
-0.23470000000000002,-8.547685673784551
-0.23570000000000013,-8.615591816178071
-0.23670000000000002,-8.583053456281176
-0.2376999999999999,-8.628324217876859
-0.23870000000000002,-8.711792184568896
-0.2396999999999999,-8.700474494169976
-0.24070000000000003,-8.740086410566196
-0.24169999999999991,-8.854678025855264
-0.24270000000000003,-8.882972251852566
-0.24369999999999992,-8.875898695353241
-0.24470000000000003,-8.980587331543253
-0.24569999999999992,-9.0555670304361
-0.24670000000000003,-9.059811164335693
-0.24769999999999992,-9.119229038930026
-0.24870000000000003,-9.21259998472112
-0.24969999999999992,-9.22391767512004
-0.25070000000000003,-9.267773725415855
-0.2516999999999999,-9.40924485540236
-0.25270000000000004,-9.467248018696827
-0.2536999999999999,-9.487053976894938
-0.25470000000000004,-9.615792705182653
-0.2556999999999999,-9.683698847576176
-0.25670000000000004,-9.690772404075501
-0.25769999999999993,-9.795461040265515
-0.25870000000000004,-9.921370345953502
-0.25969999999999993,-9.944005726751344
-0.26070000000000004,-10.000594178745946
-0.26169999999999993,-10.136406463532989
-0.26270000000000004,-10.208556739826104
-0.26369999999999993,-10.225533275424485
-0.26470000000000005,-10.351442581112472
-0.26569999999999994,-10.456131217302488
-0.26670000000000005,-10.511304957997222
-0.26769999999999994,-10.62872599588602
-0.26870000000000005,-10.771611837172388
-0.26969999999999994,-10.82820028916699
-0.27070000000000005,-10.93430363665687
-0.27169999999999994,-11.098410147441212
-0.27270000000000005,-11.186122248032843
-0.27369999999999994,-11.239881277427717
-0.27470000000000006,-11.399743654312466
-0.27569999999999995,-11.539800072999105
-0.27670000000000006,-11.599217947593436
-0.27769999999999995,-11.722297830681693
-0.27870000000000006,-11.916113278763204
-0.27969999999999995,-12.008069513254432
-0.28070000000000006,-12.141052375441745
-0.28169999999999995,-12.337697246122985
-0.28270000000000006,-12.446630016212593
-0.28369999999999995,-12.555562786302202
-0.28470000000000006,-12.759281213482765
-0.28569999999999995,-12.95168195026441
-0.28670000000000007,-13.070517699453074
-0.28769999999999996,-13.236038921537283
-0.28870000000000007,-13.439757348717848
-0.28969999999999996,-13.569910788305432
-0.29070000000000007,-13.708552495692206
-0.29169999999999996,-13.923588613271692
-0.29270000000000007,-14.07779214495698
-0.29369999999999996,-14.274437015638219
-0.2947000000000001,-14.557379275611227
-0.29569999999999996,-14.727144631595033
-0.2967000000000001,-14.854468648582884
-0.29769999999999996,-15.06667534356264
-0.2987000000000001,-15.335470490536997
-0.29969999999999997,-15.533530072518102
-0.3007000000000001,-15.731589654499205
-0.30169999999999997,-16.014531914472215
-0.3027000000000001,-16.22673860945197
-0.30369999999999997,-16.396503965435777
-0.3047000000000001,-16.665299112410132
-0.30569999999999997,-16.90580003338719
-0.3067000000000001,-17.07556538937099
-0.3077,-17.301919197349395
-0.3087000000000001,-17.599008570321057
-0.3097,-17.81121526530081
-0.3107000000000001,-18.06586329927652
-0.3117,-18.391246898245473
-0.3127000000000001,-18.660042045219836
-0.3137,-18.900542966196888
-0.3147000000000001,-19.197632339168546
-0.3157,-19.523015938137508
-0.3167000000000001,-19.834252424107817
-0.3177,-20.187930249074075
-0.3187000000000001,-20.52746096104168
-0.3197,-20.75381476902009
-0.3207000000000001,-21.036757028993097
-0.3217,-21.447023305953955
-0.3227000000000001,-21.786554017921564
-0.3237,-22.069496277894572
-0.3247000000000001,-22.451468328858134
-0.3257,-22.861734605818995
-0.3267000000000001,-23.229559543783903
-0.3277,-23.653972933743415
-0.3287000000000001,-24.092533436701576
-0.3297,-24.37547569667458
-0.3307000000000001,-24.71500640864219
-0.3317,-25.18186113759765
-0.3327000000000001,-25.60627452755716
-0.3337,-25.959952352523427
-0.3347000000000001,-26.412659968480234
-0.3357,-26.879514697435695
-0.3367000000000001,-27.31807520039386
-0.3377,-27.78492992934932
-0.3387000000000001,-28.280078884302082
-0.3397,-28.718639387260247
-0.3407000000000001,-29.157199890218404
-0.3417,-29.63820173217252
-0.3427000000000001,-30.10505646112798
-0.3437,-30.50117562509019
-0.3447000000000001,-30.99632458004295
-0.3457,-31.57635621298762
-0.3467000000000001,-32.15638784593229
-0.3477,-32.67983102688235
-0.3487000000000001,-33.160832868836465
-0.3497,-33.61354048479327
-0.3507000000000001,-34.179425004739294
-0.3517,-34.787750863681254
-0.3527000000000001,-35.311194044631314
-0.3537,-35.763901660588125
-0.3547000000000001,-36.35808040653144
-0.3557,-36.96640626547341
-0.35670000000000013,-37.50399655942213
-0.3577,-38.09817530536544
-0.35870000000000013,-38.763089616302004
-0.3597,-39.328974136248014
-0.36070000000000013,-39.93729999518999
-0.3617,-40.65880275812115
-0.3626999999999999,-41.281275730061765
-0.3637,-41.88960158900374
-0.3646999999999999,-42.554515899940306
-0.3657,-43.24772443687417
-0.3666999999999999,-43.89849163481209
-0.3677,-44.577553058747306
-0.3686999999999999,-45.32735004767578
-0.36970000000000003,-45.97811724561369
-0.3706999999999999,-46.67132578254756
-0.37170000000000003,-47.449416997473335
-0.3726999999999999,-48.086037082412595
-0.37370000000000003,-48.76509850634781
-0.3746999999999999,-49.656366625262784
-0.37570000000000003,-50.43445784018856
-0.3766999999999999,-51.127666377122424
-0.37770000000000004,-51.82087491405629
-0.3786999999999999,-52.485789224992864
-0.37970000000000004,-53.16485064892808
-0.3806999999999999,-54.08441299384035
-0.38170000000000004,-55.046416677748574
-0.38269999999999993,-55.8669492316703
-0.38370000000000004,-56.60259910760012
-0.38469999999999993,-57.45142588751914
-0.38570000000000004,-58.37098823243142
-0.38669999999999993,-59.14907944735718
-0.38770000000000004,-60.08278890526811
-0.38869999999999993,-60.95990991118443
-0.38970000000000005,-61.709706900112906
-0.39069999999999994,-62.51609234103597
-0.39170000000000005,-63.40736045995095
-0.39269999999999994,-64.24204012687132
-0.39370000000000005,-65.02013134179708
-0.39469999999999994,-65.96798791270665
-0.39570000000000005,-66.87340314462028
-0.39669999999999994,-67.63734724654739
-0.39770000000000005,-68.47202691346777
-0.39869999999999994,-69.46232482337331
-0.39970000000000006,-70.38188716828559
-0.40069999999999995,-71.17412549621
-0.40170000000000006,-72.07954072812362
-0.40269999999999995,-72.97080884703858
-0.40370000000000006,-73.90451830494952
-0.40469999999999995,-74.97969889284694
-0.40570000000000006,-75.95584968975382
-0.40669999999999995,-76.79052935667418
-0.40770000000000006,-77.65350324959186
-0.40869999999999995,-78.58721270750279
-0.40970000000000006,-79.59165773040696
-0.41069999999999995,-80.58195564031249
-0.41170000000000007,-81.58640066321666
-0.41269999999999996,-82.54840434712489
-0.41370000000000007,-83.55284937002907
-0.41469999999999996,-84.6563241839238
-0.41570000000000007,-85.81638744981312
-0.41669999999999996,-86.9057151507092
-0.41770000000000007,-87.85357172161878
-0.41869999999999996,-88.57507448454994
-0.4197000000000001,-89.29657724748111
-0.42069999999999996,-90.08881557540555
-0.4217000000000001,-91.09326059830971
-0.42269999999999996,-92.73432570615316
-0.4237000000000001,-94.03586010202899
-0.42469999999999997,-95.09689357692776
-0.4257000000000001,-95.91742613084948
-0.42669999999999997,-96.80869424976446
-0.4277000000000001,-98.06778730664433
-0.42869999999999997,-99.01564387755391
-0.4297000000000001,-99.90691199646888
-0.43069999999999997,-101.15185794035013
-0.4317000000000001,-102.3826567712327
-0.4327,-103.51442581112472
-0.4337000000000001,-104.57545928602352
-0.4347,-105.70722832591555
-0.4357000000000001,-106.75411468781566
-0.4367,-107.65952991972928
-0.4377000000000001,-108.81959318561863
-0.4387,-110.26259871148096
-0.4397000000000001,-111.63486867235005
-0.4407,-112.73834348624479
-0.4417000000000001,-113.78522984814491
-0.4427,-114.88870466203963
-0.4437000000000001,-116.04876792792896
-0.4447,-117.10980140282774
-0.4457000000000001,-118.28401178171573
-0.4467,-119.4016337086091
-0.4477000000000001,-120.60413831349437
-0.4487,-121.79249580538101
-0.4497000000000001,-122.98085329726763
-0.4507,-124.36727037113538
-0.4517000000000001,-125.72539321900584
-0.4527,-126.85716225889782
-0.4537000000000001,-127.93234284679528
-0.4547,-129.1207003386819
-0.4557000000000001,-130.29491071756988
-0.4567,-131.52570954845248
-0.4577000000000001,-132.86968528332423
-0.4587,-134.01560143621495
-0.4597000000000001,-135.03419357211774
-0.4607,-136.20840395100572
-0.4617000000000001,-137.1845547479126
-0.4627,-138.1889997708168
-0.4637000000000001,-139.53297550568857
-0.4647,-140.73548011057386
-0.4657000000000001,-141.89554337646317
-0.4667,-143.0273124163552
-0.4677000000000001,-144.44202371622026
-0.4687,-145.57379275611228
-0.4697000000000001,-146.8470329259908
-0.4707,-148.26174422585584
-0.4717000000000001,-149.53498439573437
-0.4727,-150.8082245656129
-0.4737000000000001,-151.93999360550492
-0.4747,-153.07176264539694
-0.4757000000000001,-154.203531685289
-0.4767,-155.33530072518104
-0.4777000000000001,-156.75001202504606
-0.4787,-158.1647233249111
-0.4797000000000001,-159.29649236480313
-0.4807,-160.5697325346817
-0.48170000000000013,-161.9844438345467
-0.4827,-163.54062626439824
-0.48370000000000013,-164.81386643427678
-0.4847,-166.0871066041553
-0.48570000000000013,-167.6432890340068
-0.4867,-167.07740451406085
-0.48570000000000013,-164.9553375642633
-0.4847,-163.25768400442522
-0.48370000000000013,-161.5600304445872
-0.4827,-160.28679027470866
-0.48170000000000013,-158.87207897484362
-0.4807,-157.03295428501906
-0.4797000000000001,-155.33530072518104
-0.4787,-153.63764716534297
-0.4777000000000001,-152.64734925543743
-0.4767,-151.7985224755184
-0.4757000000000001,-150.38381117565342
-0.4747,-148.68615761581535
-0.4737000000000001,-147.1299751859638
-0.4727,-145.9982061460718
-0.4717000000000001,-144.72496597619326
-0.4707,-143.3102546763282
-0.4697000000000001,-141.44283576050637
-0.4687,-139.83006487866024
-0.4677000000000001,-138.10411709282488
-0.4667,-136.4489048719828
-0.4657000000000001,-134.9351637811272
-0.4647,-133.8741303062284
-0.4637000000000001,-132.58674302335123
-0.4627,-130.98811925450374
-0.4617000000000001,-129.6299964066333
-0.4607,-128.34260912375615
