Mar. 15, 2025   06:55:33
Cyclic Voltammetry
File: c:/users/guazh/data/banditlqround7_x0exp891_r5/2025-03-03-exp900\exp900-2025-03-15t06_47_02-arkoh\exp900_cv_50mvs_efin_-1500mv.bin
Data Source:  Experiment
Instrument Model:  CHI760E
Header: CV ran at 50 mVs
Note: 

Init E (V) = -1
High E (V) = -1
Low E (V) = -1.5
Final E (V) = -1
Init P/N = N
Scan Rate (V/s) = 0.05
Segment = 7
Sample Interval (V) = 0.001
Quiet Time (sec) = 60
Sensitivity (A/V) = 0.001
Comp R (ohm) = 3.4

Results:

Channel 1:
Segment 1:

Segment 2:

Segment 3:

Segment 4:

Segment 5:

Segment 6:

Segment 7:

Potential/V, Current/A

-1.000, 6.051e-6
-1.001, 7.108e-6
-1.002, 7.085e-6
-1.003, 6.999e-6
-1.004, 7.306e-6
-1.005, 7.596e-6
-1.006, 7.513e-6
-1.007, 7.475e-6
-1.008, 7.298e-6
-1.009, 7.486e-6
-1.010, 7.864e-6
-1.011, 7.693e-6
-1.012, 7.529e-6
-1.013, 7.612e-6
-1.014, 7.737e-6
-1.015, 7.980e-6
-1.016, 7.881e-6
-1.017, 7.685e-6
-1.018, 7.661e-6
-1.019, 7.756e-6
-1.020, 8.091e-6
-1.021, 8.076e-6
-1.022, 7.864e-6
-1.023, 7.820e-6
-1.024, 7.976e-6
-1.025, 8.180e-6
-1.026, 8.253e-6
-1.027, 8.036e-6
-1.028, 7.959e-6
-1.029, 8.108e-6
-1.030, 8.344e-6
-1.031, 8.349e-6
-1.032, 8.215e-6
-1.033, 8.127e-6
-1.034, 8.291e-6
-1.035, 8.540e-6
-1.036, 8.438e-6
-1.037, 8.383e-6
-1.038, 8.294e-6
-1.039, 8.444e-6
-1.040, 8.616e-6
-1.041, 8.697e-6
-1.042, 8.556e-6
-1.043, 8.445e-6
-1.044, 8.561e-6
-1.045, 8.912e-6
-1.046, 8.841e-6
-1.047, 8.773e-6
-1.048, 8.635e-6
-1.049, 8.787e-6
-1.050, 9.138e-6
-1.051, 9.174e-6
-1.052, 8.860e-6
-1.053, 8.880e-6
-1.054, 9.033e-6
-1.055, 9.349e-6
-1.056, 9.281e-6
-1.057, 9.165e-6
-1.058, 9.150e-6
-1.059, 9.237e-6
-1.060, 9.590e-6
-1.061, 9.551e-6
-1.062, 9.331e-6
-1.063, 9.368e-6
-1.064, 9.540e-6
-1.065, 9.775e-6
-1.066, 9.824e-6
-1.067, 9.604e-6
-1.068, 9.554e-6
-1.069, 9.814e-6
-1.070, 1.004e-5
-1.071, 1.010e-5
-1.072, 9.897e-6
-1.073, 9.810e-6
-1.074, 1.012e-5
-1.075, 1.031e-5
-1.076, 1.035e-5
-1.077, 1.013e-5
-1.078, 1.010e-5
-1.079, 1.033e-5
-1.080, 1.062e-5
-1.081, 1.055e-5
-1.082, 1.055e-5
-1.083, 1.039e-5
-1.084, 1.061e-5
-1.085, 1.085e-5
-1.086, 1.091e-5
-1.087, 1.073e-5
-1.088, 1.070e-5
-1.089, 1.081e-5
-1.090, 1.112e-5
-1.091, 1.115e-5
-1.092, 1.104e-5
-1.093, 1.107e-5
-1.094, 1.108e-5
-1.095, 1.143e-5
-1.096, 1.144e-5
-1.097, 1.131e-5
-1.098, 1.129e-5
-1.099, 1.136e-5
-1.100, 1.166e-5
-1.101, 1.183e-5
-1.102, 1.158e-5
-1.103, 1.161e-5
-1.104, 1.169e-5
-1.105, 1.196e-5
-1.106, 1.207e-5
-1.107, 1.186e-5
-1.108, 1.183e-5
-1.109, 1.197e-5
-1.110, 1.223e-5
-1.111, 1.244e-5
-1.112, 1.210e-5
-1.113, 1.203e-5
-1.114, 1.233e-5
-1.115, 1.253e-5
-1.116, 1.265e-5
-1.117, 1.239e-5
-1.118, 1.242e-5
-1.119, 1.254e-5
-1.120, 1.277e-5
-1.121, 1.291e-5
-1.122, 1.271e-5
-1.123, 1.264e-5
-1.124, 1.285e-5
-1.125, 1.313e-5
-1.126, 1.320e-5
-1.127, 1.303e-5
-1.128, 1.289e-5
-1.129, 1.306e-5
-1.130, 1.345e-5
-1.131, 1.354e-5
-1.132, 1.325e-5
-1.133, 1.328e-5
-1.134, 1.336e-5
-1.135, 1.375e-5
-1.136, 1.378e-5
-1.137, 1.356e-5
-1.138, 1.355e-5
-1.139, 1.369e-5
-1.140, 1.391e-5
-1.141, 1.404e-5
-1.142, 1.385e-5
-1.143, 1.375e-5
-1.144, 1.400e-5
-1.145, 1.419e-5
-1.146, 1.439e-5
-1.147, 1.405e-5
-1.148, 1.407e-5
-1.149, 1.426e-5
-1.150, 1.443e-5
-1.151, 1.466e-5
-1.152, 1.435e-5
-1.153, 1.429e-5
-1.154, 1.458e-5
-1.155, 1.474e-5
-1.156, 1.491e-5
-1.157, 1.475e-5
-1.158, 1.466e-5
-1.159, 1.478e-5
-1.160, 1.510e-5
-1.161, 1.515e-5
-1.162, 1.505e-5
-1.163, 1.489e-5
-1.164, 1.505e-5
-1.165, 1.532e-5
-1.166, 1.547e-5
-1.167, 1.539e-5
-1.168, 1.523e-5
-1.169, 1.533e-5
-1.170, 1.560e-5
-1.171, 1.581e-5
-1.172, 1.553e-5
-1.173, 1.543e-5
-1.174, 1.564e-5
-1.175, 1.593e-5
-1.176, 1.604e-5
-1.177, 1.585e-5
-1.178, 1.578e-5
-1.179, 1.589e-5
-1.180, 1.615e-5
-1.181, 1.634e-5
-1.182, 1.610e-5
-1.183, 1.604e-5
-1.184, 1.620e-5
-1.185, 1.643e-5
-1.186, 1.657e-5
-1.187, 1.638e-5
-1.188, 1.629e-5
-1.189, 1.654e-5
-1.190, 1.663e-5
-1.191, 1.688e-5
-1.192, 1.665e-5
-1.193, 1.655e-5
-1.194, 1.680e-5
-1.195, 1.697e-5
-1.196, 1.712e-5
-1.197, 1.694e-5
-1.198, 1.683e-5
-1.199, 1.706e-5
-1.200, 1.723e-5
-1.201, 1.741e-5
-1.202, 1.727e-5
-1.203, 1.717e-5
-1.204, 1.730e-5
-1.205, 1.760e-5
-1.206, 1.771e-5
-1.207, 1.752e-5
-1.208, 1.747e-5
-1.209, 1.754e-5
-1.210, 1.793e-5
-1.211, 1.804e-5
-1.212, 1.778e-5
-1.213, 1.778e-5
-1.214, 1.794e-5
-1.215, 1.814e-5
-1.216, 1.824e-5
-1.217, 1.816e-5
-1.218, 1.799e-5
-1.219, 1.809e-5
-1.220, 1.841e-5
-1.221, 1.865e-5
-1.222, 1.836e-5
-1.223, 1.834e-5
-1.224, 1.847e-5
-1.225, 1.863e-5
-1.226, 1.893e-5
-1.227, 1.865e-5
-1.228, 1.871e-5
-1.229, 1.885e-5
-1.230, 1.902e-5
-1.231, 1.931e-5
-1.232, 1.898e-5
-1.233, 1.896e-5
-1.234, 1.912e-5
-1.235, 1.934e-5
-1.236, 1.960e-5
-1.237, 1.941e-5
-1.238, 1.930e-5
-1.239, 1.947e-5
-1.240, 1.979e-5
-1.241, 1.993e-5
-1.242, 1.976e-5
-1.243, 1.970e-5
-1.244, 1.987e-5
-1.245, 2.019e-5
-1.246, 2.037e-5
-1.247, 2.023e-5
-1.248, 2.013e-5
-1.249, 2.029e-5
-1.250, 2.059e-5
-1.251, 2.076e-5
-1.252, 2.065e-5
-1.253, 2.060e-5
-1.254, 2.074e-5
-1.255, 2.118e-5
-1.256, 2.123e-5
-1.257, 2.112e-5
-1.258, 2.115e-5
-1.259, 2.129e-5
-1.260, 2.158e-5
-1.261, 2.180e-5
-1.262, 2.170e-5
-1.263, 2.171e-5
-1.264, 2.191e-5
-1.265, 2.221e-5
-1.266, 2.249e-5
-1.267, 2.235e-5
-1.268, 2.238e-5
-1.269, 2.262e-5
-1.270, 2.283e-5
-1.271, 2.313e-5
-1.272, 2.301e-5
-1.273, 2.309e-5
-1.274, 2.335e-5
-1.275, 2.367e-5
-1.276, 2.386e-5
-1.277, 2.390e-5
-1.278, 2.405e-5
-1.279, 2.420e-5
-1.280, 2.454e-5
-1.281, 2.479e-5
-1.282, 2.484e-5
-1.283, 2.485e-5
-1.284, 2.519e-5
-1.285, 2.561e-5
-1.286, 2.584e-5
-1.287, 2.600e-5
-1.288, 2.598e-5
-1.289, 2.633e-5
-1.290, 2.679e-5
-1.291, 2.703e-5
-1.292, 2.724e-5
-1.293, 2.741e-5
-1.294, 2.772e-5
-1.295, 2.821e-5
-1.296, 2.859e-5
-1.297, 2.883e-5
-1.298, 2.897e-5
-1.299, 2.945e-5
-1.300, 2.993e-5
-1.301, 3.047e-5
-1.302, 3.074e-5
-1.303, 3.110e-5
-1.304, 3.157e-5
-1.305, 3.216e-5
-1.306, 3.288e-5
-1.307, 3.330e-5
-1.308, 3.379e-5
-1.309, 3.445e-5
-1.310, 3.523e-5
-1.311, 3.619e-5
-1.312, 3.680e-5
-1.313, 3.756e-5
-1.314, 3.865e-5
-1.315, 3.978e-5
-1.316, 4.122e-5
-1.317, 4.242e-5
-1.318, 4.385e-5
-1.319, 4.581e-5
-1.320, 4.796e-5
-1.321, 5.051e-5
-1.322, 5.311e-5
-1.323, 5.599e-5
-1.324, 5.951e-5
-1.325, 6.348e-5
-1.326, 6.783e-5
-1.327, 7.241e-5
-1.328, 7.767e-5
-1.329, 8.427e-5
-1.330, 9.195e-5
-1.331, 1.003e-4
-1.332, 1.095e-4
-1.333, 1.195e-4
-1.334, 1.305e-4
-1.335, 1.419e-4
-1.336, 1.540e-4
-1.337, 1.665e-4
-1.338, 1.794e-4
-1.339, 1.929e-4
-1.340, 2.070e-4
-1.341, 2.220e-4
-1.342, 2.374e-4
-1.343, 2.537e-4
-1.344, 2.705e-4
-1.345, 2.887e-4
-1.346, 3.081e-4
-1.347, 3.286e-4
-1.348, 3.505e-4
-1.349, 3.739e-4
-1.350, 3.992e-4
-1.351, 4.259e-4
-1.352, 4.539e-4
-1.353, 4.835e-4
-1.354, 5.150e-4
-1.355, 5.480e-4
-1.356, 5.826e-4
-1.357, 6.185e-4
-1.358, 6.562e-4
-1.359, 6.956e-4
-1.360, 7.361e-4
-1.361, 7.784e-4
-1.362, 8.206e-4
-1.363, 8.633e-4
-1.364, 9.079e-4
-1.365, 9.533e-4
-1.366, 9.992e-4
-1.367, 1.045e-3
-1.368, 1.091e-3
-1.369, 1.138e-3
-1.370, 1.184e-3
-1.371, 1.232e-3
-1.372, 1.279e-3
-1.373, 1.324e-3
-1.374, 1.369e-3
-1.375, 1.414e-3
-1.376, 1.460e-3
-1.377, 1.505e-3
-1.378, 1.551e-3
-1.379, 1.599e-3
-1.380, 1.646e-3
-1.381, 1.690e-3
-1.382, 1.736e-3
-1.383, 1.783e-3
-1.384, 1.830e-3
-1.385, 1.879e-3
-1.386, 1.930e-3
-1.387, 1.982e-3
-1.388, 2.031e-3
-1.389, 2.080e-3
-1.390, 2.130e-3
-1.391, 2.180e-3
-1.392, 2.226e-3
-1.393, 2.282e-3
-1.394, 2.335e-3
-1.395, 2.390e-3
-1.396, 2.449e-3
-1.397, 2.505e-3
-1.398, 2.562e-3
-1.399, 2.618e-3
-1.400, 2.675e-3
-1.401, 2.736e-3
-1.402, 2.794e-3
-1.403, 2.851e-3
-1.404, 2.908e-3
-1.405, 2.967e-3
-1.406, 3.037e-3
-1.407, 3.097e-3
-1.408, 3.158e-3
-1.409, 3.223e-3
-1.410, 3.288e-3
-1.411, 3.342e-3
-1.412, 3.407e-3
-1.413, 3.469e-3
-1.414, 3.529e-3
-1.415, 3.588e-3
-1.416, 3.652e-3
-1.417, 3.713e-3
-1.418, 3.786e-3
-1.419, 3.858e-3
-1.420, 3.921e-3
-1.421, 3.990e-3
-1.422, 4.059e-3
-1.423, 4.138e-3
-1.424, 4.207e-3
-1.425, 4.278e-3
-1.426, 4.344e-3
-1.427, 4.413e-3
-1.428, 4.483e-3
-1.429, 4.557e-3
-1.430, 4.625e-3
-1.431, 4.688e-3
-1.432, 4.755e-3
-1.433, 4.824e-3
-1.434, 4.892e-3
-1.435, 4.965e-3
-1.436, 5.035e-3
-1.437, 5.119e-3
-1.438, 5.192e-3
-1.439, 5.271e-3
-1.440, 5.347e-3
-1.441, 5.423e-3
-1.442, 5.490e-3
-1.443, 5.568e-3
-1.444, 5.666e-3
-1.445, 5.756e-3
-1.446, 5.832e-3
-1.447, 5.928e-3
-1.448, 6.005e-3
-1.449, 6.074e-3
-1.450, 6.151e-3
-1.451, 6.220e-3
-1.452, 6.293e-3
-1.453, 6.368e-3
-1.454, 6.455e-3
-1.455, 6.534e-3
-1.456, 6.617e-3
-1.457, 6.710e-3
-1.458, 6.800e-3
-1.459, 6.896e-3
-1.460, 6.981e-3
-1.461, 7.055e-3
-1.462, 7.138e-3
-1.463, 7.213e-3
-1.464, 7.286e-3
-1.465, 7.392e-3
-1.466, 7.483e-3
-1.467, 7.559e-3
-1.468, 7.646e-3
-1.469, 7.777e-3
-1.470, 7.886e-3
-1.471, 7.942e-3
-1.472, 8.024e-3
-1.473, 8.087e-3
-1.474, 8.139e-3
-1.475, 8.186e-3
-1.476, 8.279e-3
-1.477, 8.364e-3
-1.478, 8.460e-3
-1.479, 8.554e-3
-1.480, 8.619e-3
-1.481, 8.668e-3
-1.482, 8.736e-3
-1.483, 8.848e-3
-1.484, 8.952e-3
-1.485, 9.038e-3
-1.486, 9.118e-3
-1.487, 9.192e-3
-1.488, 9.254e-3
-1.489, 9.293e-3
-1.490, 9.358e-3
-1.491, 9.487e-3
-1.492, 9.566e-3
-1.493, 9.705e-3
-1.494, 9.782e-3
-1.495, 9.868e-3
-1.496, 9.969e-3
-1.497, 1.006e-2
-1.498, 1.010e-2
-1.499, 1.011e-2
-1.500, 1.011e-2
-1.499, 1.006e-2
-1.498, 9.869e-3
-1.497, 9.741e-3
-1.496, 9.628e-3
-1.495, 9.530e-3
-1.494, 9.417e-3
-1.493, 9.276e-3
-1.492, 9.166e-3
-1.491, 9.034e-3
-1.490, 8.919e-3
-1.489, 8.826e-3
-1.488, 8.707e-3
-1.487, 8.625e-3
-1.486, 8.490e-3
-1.485, 8.374e-3
-1.484, 8.286e-3
-1.483, 8.152e-3
-1.482, 8.059e-3
-1.481, 7.930e-3
-1.480, 7.774e-3
-1.479, 7.659e-3
-1.478, 7.564e-3
-1.477, 7.441e-3
-1.476, 7.313e-3
-1.475, 7.195e-3
-1.474, 7.081e-3
-1.473, 6.994e-3
-1.472, 6.904e-3
-1.471, 6.796e-3
-1.470, 6.656e-3
-1.469, 6.529e-3
-1.468, 6.435e-3
-1.467, 6.345e-3
-1.466, 6.228e-3
-1.465, 6.106e-3
-1.464, 6.009e-3
-1.463, 5.904e-3
-1.462, 5.821e-3
-1.461, 5.699e-3
-1.460, 5.625e-3
-1.459, 5.596e-3
-1.458, 5.515e-3
-1.457, 5.434e-3
-1.456, 5.362e-3
-1.455, 5.290e-3
-1.454, 5.217e-3
-1.453, 5.126e-3
-1.452, 5.029e-3
-1.451, 4.975e-3
-1.450, 4.883e-3
-1.449, 4.792e-3
-1.448, 4.715e-3
-1.447, 4.632e-3
-1.446, 4.557e-3
-1.445, 4.467e-3
-1.444, 4.385e-3
-1.443, 4.293e-3
-1.442, 4.200e-3
-1.441, 4.134e-3
-1.440, 4.064e-3
-1.439, 3.986e-3
-1.438, 3.900e-3
-1.437, 3.824e-3
-1.436, 3.743e-3
-1.435, 3.678e-3
-1.434, 3.605e-3
-1.433, 3.528e-3
-1.432, 3.462e-3
-1.431, 3.390e-3
-1.430, 3.319e-3
-1.429, 3.251e-3
-1.428, 3.185e-3
-1.427, 3.124e-3
-1.426, 3.051e-3
-1.425, 2.977e-3
-1.424, 2.910e-3
-1.423, 2.837e-3
-1.422, 2.768e-3
-1.421, 2.702e-3
-1.420, 2.635e-3
-1.419, 2.568e-3
-1.418, 2.499e-3
-1.417, 2.434e-3
-1.416, 2.369e-3
-1.415, 2.306e-3
-1.414, 2.247e-3
-1.413, 2.187e-3
-1.412, 2.124e-3
-1.411, 2.067e-3
-1.410, 2.008e-3
-1.409, 1.955e-3
-1.408, 1.905e-3
-1.407, 1.850e-3
-1.406, 1.796e-3
-1.405, 1.743e-3
-1.404, 1.694e-3
-1.403, 1.645e-3
-1.402, 1.594e-3
-1.401, 1.544e-3
-1.400, 1.497e-3
-1.399, 1.452e-3
-1.398, 1.409e-3
-1.397, 1.366e-3
-1.396, 1.325e-3
-1.395, 1.285e-3
-1.394, 1.245e-3
-1.393, 1.206e-3
-1.392, 1.168e-3
-1.391, 1.130e-3
-1.390, 1.094e-3
-1.389, 1.059e-3
-1.388, 1.024e-3
-1.387, 9.916e-4
-1.386, 9.598e-4
-1.385, 9.282e-4
-1.384, 8.975e-4
-1.383, 8.669e-4
-1.382, 8.397e-4
-1.381, 8.132e-4
-1.380, 7.868e-4
-1.379, 7.613e-4
-1.378, 7.366e-4
-1.377, 7.113e-4
-1.376, 6.875e-4
-1.375, 6.650e-4
-1.374, 6.430e-4
-1.373, 6.216e-4
-1.372, 6.005e-4
-1.371, 5.803e-4
-1.370, 5.610e-4
-1.369, 5.416e-4
-1.368, 5.233e-4
-1.367, 5.053e-4
-1.366, 4.877e-4
-1.365, 4.709e-4
-1.364, 4.554e-4
-1.363, 4.395e-4
-1.362, 4.241e-4
-1.361, 4.087e-4
-1.360, 3.945e-4
-1.359, 3.806e-4
-1.358, 3.670e-4
-1.357, 3.541e-4
-1.356, 3.415e-4
-1.355, 3.298e-4
-1.354, 3.182e-4
-1.353, 3.068e-4
-1.352, 2.961e-4
-1.351, 2.855e-4
-1.350, 2.753e-4
-1.349, 2.657e-4
-1.348, 2.563e-4
-1.347, 2.471e-4
-1.346, 2.382e-4
-1.345, 2.299e-4
-1.344, 2.219e-4
-1.343, 2.139e-4
-1.342, 2.061e-4
-1.341, 1.989e-4
-1.340, 1.919e-4
-1.339, 1.853e-4
-1.338, 1.787e-4
-1.337, 1.724e-4
-1.336, 1.662e-4
-1.335, 1.602e-4
-1.334, 1.545e-4
-1.333, 1.491e-4
-1.332, 1.436e-4
-1.331, 1.384e-4
-1.330, 1.336e-4
-1.329, 1.289e-4
-1.328, 1.241e-4
-1.327, 1.195e-4
-1.326, 1.152e-4
-1.325, 1.112e-4
-1.324, 1.073e-4
-1.323, 1.035e-4
-1.322, 9.968e-5
-1.321, 9.598e-5
-1.320, 9.266e-5
-1.319, 8.943e-5
-1.318, 8.607e-5
-1.317, 8.288e-5
-1.316, 7.983e-5
-1.315, 7.703e-5
-1.314, 7.431e-5
-1.313, 7.149e-5
-1.312, 6.893e-5
-1.311, 6.635e-5
-1.310, 6.387e-5
-1.309, 6.182e-5
-1.308, 5.947e-5
-1.307, 5.719e-5
-1.306, 5.501e-5
-1.305, 5.302e-5
-1.304, 5.121e-5
-1.303, 4.927e-5
-1.302, 4.740e-5
-1.301, 4.564e-5
-1.300, 4.399e-5
-1.299, 4.245e-5
-1.298, 4.082e-5
-1.297, 3.926e-5
-1.296, 3.770e-5
-1.295, 3.636e-5
-1.294, 3.509e-5
-1.293, 3.381e-5
-1.292, 3.239e-5
-1.291, 3.114e-5
-1.290, 3.007e-5
-1.289, 2.900e-5
-1.288, 2.787e-5
-1.287, 2.675e-5
-1.286, 2.566e-5
-1.285, 2.483e-5
-1.284, 2.397e-5
-1.283, 2.300e-5
-1.282, 2.204e-5
-1.281, 2.105e-5
-1.280, 2.030e-5
-1.279, 1.968e-5
-1.278, 1.880e-5
-1.277, 1.800e-5
-1.276, 1.719e-5
-1.275, 1.660e-5
-1.274, 1.606e-5
-1.273, 1.535e-5
-1.272, 1.463e-5
-1.271, 1.398e-5
-1.270, 1.346e-5
-1.269, 1.307e-5
-1.268, 1.246e-5
-1.267, 1.168e-5
-1.266, 1.117e-5
-1.265, 1.077e-5
-1.264, 1.044e-5
-1.263, 9.917e-6
-1.262, 9.332e-6
-1.261, 8.905e-6
-1.260, 8.558e-6
-1.259, 8.222e-6
-1.258, 7.827e-6
-1.257, 7.263e-6
-1.256, 6.846e-6
-1.255, 6.631e-6
-1.254, 6.388e-6
-1.253, 6.019e-6
-1.252, 5.576e-6
-1.251, 5.107e-6
-1.250, 4.971e-6
-1.249, 4.800e-6
-1.248, 4.415e-6
-1.247, 4.051e-6
-1.246, 3.628e-6
-1.245, 3.534e-6
-1.244, 3.380e-6
-1.243, 3.091e-6
-1.242, 2.754e-6
-1.241, 2.389e-6
-1.240, 2.313e-6
-1.239, 2.202e-6
-1.238, 1.931e-6
-1.237, 1.663e-6
-1.236, 1.355e-6
-1.235, 1.187e-6
-1.234, 1.195e-6
-1.233, 9.815e-7
-1.232, 6.608e-7
-1.231, 4.181e-7
-1.230, 3.027e-7
-1.229, 2.386e-7
-1.228, 1.300e-7
-1.227, -2.449e-7
-1.226, -4.955e-7
-1.225, -5.231e-7
-1.224, -4.373e-7
-1.223, -6.573e-7
-1.222, -9.937e-7
-1.221, -1.135e-6
-1.220, -1.200e-6
-1.219, -1.205e-6
-1.218, -1.318e-6
-1.217, -1.638e-6
-1.216, -1.789e-6
-1.215, -1.834e-6
-1.214, -1.821e-6
-1.213, -1.916e-6
-1.212, -2.143e-6
-1.211, -2.465e-6
-1.210, -2.304e-6
-1.209, -2.371e-6
-1.208, -2.480e-6
-1.207, -2.698e-6
-1.206, -2.913e-6
-1.205, -2.874e-6
-1.204, -2.762e-6
-1.203, -2.984e-6
-1.202, -3.171e-6
-1.201, -3.348e-6
-1.200, -3.364e-6
-1.199, -3.284e-6
-1.198, -3.338e-6
-1.197, -3.647e-6
-1.196, -3.813e-6
-1.195, -3.810e-6
-1.194, -3.642e-6
-1.193, -3.793e-6
-1.192, -4.086e-6
-1.191, -4.200e-6
-1.190, -4.220e-6
-1.189, -4.039e-6
-1.188, -4.135e-6
-1.187, -4.407e-6
-1.186, -4.530e-6
-1.185, -4.573e-6
-1.184, -4.368e-6
-1.183, -4.429e-6
-1.182, -4.769e-6
-1.181, -4.823e-6
-1.180, -4.849e-6
-1.179, -4.805e-6
-1.178, -4.760e-6
-1.177, -5.124e-6
-1.176, -5.176e-6
-1.175, -5.210e-6
-1.174, -5.109e-6
-1.173, -5.079e-6
-1.172, -5.327e-6
-1.171, -5.530e-6
-1.170, -5.462e-6
-1.169, -5.342e-6
-1.168, -5.371e-6
-1.167, -5.586e-6
-1.166, -5.866e-6
-1.165, -5.726e-6
-1.164, -5.625e-6
-1.163, -5.667e-6
-1.162, -5.871e-6
-1.161, -6.092e-6
-1.160, -5.963e-6
-1.159, -5.886e-6
-1.158, -5.925e-6
-1.157, -6.176e-6
-1.156, -6.304e-6
-1.155, -6.309e-6
-1.154, -6.110e-6
-1.153, -6.181e-6
-1.152, -6.478e-6
-1.151, -6.528e-6
-1.150, -6.605e-6
-1.149, -6.385e-6
-1.148, -6.327e-6
-1.147, -6.752e-6
-1.146, -6.801e-6
-1.145, -6.802e-6
-1.144, -6.656e-6
-1.143, -6.565e-6
-1.142, -6.992e-6
-1.141, -7.061e-6
-1.140, -6.942e-6
-1.139, -6.947e-6
-1.138, -6.909e-6
-1.137, -7.139e-6
-1.136, -7.297e-6
-1.135, -7.242e-6
-1.134, -7.179e-6
-1.133, -7.036e-6
-1.132, -7.286e-6
-1.131, -7.643e-6
-1.130, -7.499e-6
-1.129, -7.369e-6
-1.128, -7.296e-6
-1.127, -7.548e-6
-1.126, -7.860e-6
-1.125, -7.750e-6
-1.124, -7.575e-6
-1.123, -7.574e-6
-1.122, -7.901e-6
-1.121, -8.112e-6
-1.120, -7.985e-6
-1.119, -7.885e-6
-1.118, -7.829e-6
-1.117, -8.115e-6
-1.116, -8.254e-6
-1.115, -8.306e-6
-1.114, -8.074e-6
-1.113, -8.089e-6
-1.112, -8.374e-6
-1.111, -8.573e-6
-1.110, -8.470e-6
-1.109, -8.328e-6
-1.108, -8.322e-6
-1.107, -8.640e-6
-1.106, -8.794e-6
-1.105, -8.804e-6
-1.104, -8.605e-6
-1.103, -8.555e-6
-1.102, -8.886e-6
-1.101, -9.074e-6
-1.100, -9.042e-6
-1.099, -8.976e-6
-1.098, -8.834e-6
-1.097, -9.166e-6
-1.096, -9.349e-6
-1.095, -9.315e-6
-1.094, -9.266e-6
-1.093, -9.082e-6
-1.092, -9.373e-6
-1.091, -9.635e-6
-1.090, -9.626e-6
-1.089, -9.480e-6
-1.088, -9.375e-6
-1.087, -9.642e-6
-1.086, -9.999e-6
-1.085, -9.855e-6
-1.084, -9.746e-6
-1.083, -9.727e-6
-1.082, -9.978e-6
-1.081, -1.032e-5
-1.080, -1.020e-5
-1.079, -1.001e-5
-1.078, -9.981e-6
-1.077, -1.025e-5
-1.076, -1.054e-5
-1.075, -1.053e-5
-1.074, -1.036e-5
-1.073, -1.036e-5
-1.072, -1.060e-5
-1.071, -1.081e-5
-1.070, -1.091e-5
-1.069, -1.065e-5
-1.068, -1.059e-5
-1.067, -1.097e-5
-1.066, -1.113e-5
-1.065, -1.118e-5
-1.064, -1.094e-5
-1.063, -1.092e-5
-1.062, -1.127e-5
-1.061, -1.143e-5
-1.060, -1.145e-5
-1.059, -1.132e-5
-1.058, -1.122e-5
-1.057, -1.156e-5
-1.056, -1.180e-5
-1.055, -1.174e-5
-1.054, -1.168e-5
-1.053, -1.156e-5
-1.052, -1.179e-5
-1.051, -1.216e-5
-1.050, -1.213e-5
-1.049, -1.203e-5
-1.048, -1.181e-5
-1.047, -1.221e-5
-1.046, -1.253e-5
-1.045, -1.245e-5
-1.044, -1.219e-5
-1.043, -1.230e-5
-1.042, -1.253e-5
-1.041, -1.286e-5
-1.040, -1.274e-5
-1.039, -1.262e-5
-1.038, -1.266e-5
-1.037, -1.288e-5
-1.036, -1.309e-5
-1.035, -1.318e-5
-1.034, -1.293e-5
-1.033, -1.297e-5
-1.032, -1.328e-5
-1.031, -1.344e-5
-1.030, -1.354e-5
-1.029, -1.334e-5
-1.028, -1.327e-5
-1.027, -1.361e-5
-1.026, -1.385e-5
-1.025, -1.392e-5
-1.024, -1.373e-5
-1.023, -1.359e-5
-1.022, -1.400e-5
-1.021, -1.424e-5
-1.020, -1.426e-5
-1.019, -1.415e-5
-1.018, -1.405e-5
-1.017, -1.429e-5
-1.016, -1.461e-5
-1.015, -1.450e-5
-1.014, -1.464e-5
-1.013, -1.429e-5
-1.012, -1.468e-5
-1.011, -1.508e-5
-1.010, -1.501e-5
-1.009, -1.489e-5
-1.008, -1.474e-5
-1.007, -1.514e-5
-1.006, -1.549e-5
-1.005, -1.538e-5
-1.004, -1.521e-5
-1.003, -1.523e-5
-1.002, -1.545e-5
-1.001, -1.588e-5
-1.000, -3.069e-6
-1.001, 1.281e-7
-1.002, 1.269e-6
-1.003, 1.595e-6
-1.004, 1.903e-6
-1.005, 2.447e-6
-1.006, 3.040e-6
-1.007, 3.582e-6
-1.008, 3.609e-6
-1.009, 3.675e-6
-1.010, 4.118e-6
-1.011, 4.421e-6
-1.012, 4.782e-6
-1.013, 4.794e-6
-1.014, 4.715e-6
-1.015, 5.083e-6
-1.016, 5.341e-6
-1.017, 5.582e-6
-1.018, 5.663e-6
-1.019, 5.503e-6
-1.020, 5.639e-6
-1.021, 6.051e-6
-1.022, 6.237e-6
-1.023, 6.169e-6
-1.024, 6.076e-6
-1.025, 6.155e-6
-1.026, 6.530e-6
-1.027, 6.683e-6
-1.028, 6.611e-6
-1.029, 6.466e-6
-1.030, 6.527e-6
-1.031, 6.889e-6
-1.032, 7.052e-6
-1.033, 6.954e-6
-1.034, 6.840e-6
-1.035, 6.932e-6
-1.036, 7.134e-6
-1.037, 7.376e-6
-1.038, 7.259e-6
-1.039, 7.069e-6
-1.040, 7.167e-6
-1.041, 7.361e-6
-1.042, 7.699e-6
-1.043, 7.428e-6
-1.044, 7.249e-6
-1.045, 7.418e-6
-1.046, 7.617e-6
-1.047, 7.829e-6
-1.048, 7.688e-6
-1.049, 7.442e-6
-1.050, 7.664e-6
-1.051, 7.789e-6
-1.052, 7.947e-6
-1.053, 7.859e-6
-1.054, 7.664e-6
-1.055, 7.718e-6
-1.056, 7.910e-6
-1.057, 8.150e-6
-1.058, 8.045e-6
-1.059, 7.710e-6
-1.060, 7.918e-6
-1.061, 8.115e-6
-1.062, 8.215e-6
-1.063, 8.188e-6
-1.064, 7.915e-6
-1.065, 8.062e-6
-1.066, 8.265e-6
-1.067, 8.333e-6
-1.068, 8.279e-6
-1.069, 8.022e-6
-1.070, 8.177e-6
-1.071, 8.331e-6
-1.072, 8.483e-6
-1.073, 8.346e-6
-1.074, 8.245e-6
-1.075, 8.281e-6
-1.076, 8.459e-6
-1.077, 8.631e-6
-1.078, 8.467e-6
-1.079, 8.274e-6
-1.080, 8.287e-6
-1.081, 8.554e-6
-1.082, 8.697e-6
-1.083, 8.501e-6
-1.084, 8.393e-6
-1.085, 8.459e-6
-1.086, 8.578e-6
-1.087, 8.782e-6
-1.088, 8.633e-6
-1.089, 8.383e-6
-1.090, 8.526e-6
-1.091, 8.663e-6
-1.092, 8.799e-6
-1.093, 8.746e-6
-1.094, 8.439e-6
-1.095, 8.574e-6
-1.096, 8.732e-6
-1.097, 8.849e-6
-1.098, 8.782e-6
-1.099, 8.571e-6
-1.100, 8.606e-6
-1.101, 8.805e-6
-1.102, 8.945e-6
-1.103, 8.926e-6
-1.104, 8.532e-6
-1.105, 8.633e-6
-1.106, 8.878e-6
-1.107, 9.032e-6
-1.108, 8.858e-6
-1.109, 8.669e-6
-1.110, 8.687e-6
-1.111, 8.998e-6
-1.112, 9.052e-6
-1.113, 8.919e-6
-1.114, 8.762e-6
-1.115, 8.750e-6
-1.116, 9.017e-6
-1.117, 9.161e-6
-1.118, 8.959e-6
-1.119, 8.881e-6
-1.120, 8.790e-6
-1.121, 9.049e-6
-1.122, 9.227e-6
-1.123, 9.058e-6
-1.124, 8.867e-6
-1.125, 8.931e-6
-1.126, 9.111e-6
-1.127, 9.249e-6
-1.128, 9.118e-6
-1.129, 8.896e-6
-1.130, 8.971e-6
-1.131, 9.211e-6
-1.132, 9.274e-6
-1.133, 9.225e-6
-1.134, 8.928e-6
-1.135, 9.074e-6
-1.136, 9.215e-6
-1.137, 9.345e-6
-1.138, 9.270e-6
-1.139, 9.066e-6
-1.140, 9.085e-6
-1.141, 9.355e-6
-1.142, 9.357e-6
-1.143, 9.352e-6
-1.144, 9.108e-6
-1.145, 9.165e-6
-1.146, 9.412e-6
-1.147, 9.517e-6
-1.148, 9.369e-6
-1.149, 9.237e-6
-1.150, 9.233e-6
-1.151, 9.488e-6
-1.152, 9.551e-6
-1.153, 9.403e-6
-1.154, 9.360e-6
-1.155, 9.347e-6
-1.156, 9.575e-6
-1.157, 9.639e-6
-1.158, 9.541e-6
-1.159, 9.448e-6
-1.160, 9.389e-6
-1.161, 9.603e-6
-1.162, 9.789e-6
-1.163, 9.670e-6
-1.164, 9.480e-6
-1.165, 9.537e-6
-1.166, 9.658e-6
-1.167, 9.858e-6
-1.168, 9.810e-6
-1.169, 9.568e-6
-1.170, 9.622e-6
-1.171, 9.786e-6
-1.172, 9.967e-6
-1.173, 9.989e-6
-1.174, 9.760e-6
-1.175, 9.796e-6
-1.176, 9.940e-6
-1.177, 1.021e-5
-1.178, 1.011e-5
-1.179, 9.848e-6
-1.180, 9.850e-6
-1.181, 1.017e-5
-1.182, 1.022e-5
-1.183, 1.014e-5
-1.184, 1.003e-5
-1.185, 1.003e-5
-1.186, 1.028e-5
-1.187, 1.032e-5
-1.188, 1.030e-5
-1.189, 1.019e-5
-1.190, 1.012e-5
-1.191, 1.049e-5
-1.192, 1.052e-5
-1.193, 1.043e-5
-1.194, 1.032e-5
-1.195, 1.041e-5
-1.196, 1.050e-5
-1.197, 1.075e-5
-1.198, 1.070e-5
-1.199, 1.057e-5
-1.200, 1.053e-5
-1.201, 1.077e-5
-1.202, 1.095e-5
-1.203, 1.093e-5
-1.204, 1.073e-5
-1.205, 1.079e-5
-1.206, 1.098e-5
-1.207, 1.125e-5
-1.208, 1.119e-5
-1.209, 1.100e-5
-1.210, 1.113e-5
-1.211, 1.125e-5
-1.212, 1.152e-5
-1.213, 1.155e-5
-1.214, 1.127e-5
-1.215, 1.144e-5
-1.216, 1.173e-5
-1.217, 1.181e-5
-1.218, 1.193e-5
-1.219, 1.174e-5
-1.220, 1.182e-5
-1.221, 1.215e-5
-1.222, 1.228e-5
-1.223, 1.236e-5
-1.224, 1.222e-5
-1.225, 1.221e-5
-1.226, 1.267e-5
-1.227, 1.275e-5
-1.228, 1.288e-5
-1.229, 1.279e-5
-1.230, 1.287e-5
-1.231, 1.328e-5
-1.232, 1.336e-5
-1.233, 1.343e-5
-1.234, 1.341e-5
-1.235, 1.357e-5
-1.236, 1.384e-5
-1.237, 1.414e-5
-1.238, 1.427e-5
-1.239, 1.428e-5
-1.240, 1.435e-5
-1.241, 1.468e-5
-1.242, 1.509e-5
-1.243, 1.506e-5
-1.244, 1.516e-5
-1.245, 1.543e-5
-1.246, 1.568e-5
-1.247, 1.610e-5
-1.248, 1.625e-5
-1.249, 1.636e-5
-1.250, 1.656e-5
-1.251, 1.696e-5
-1.252, 1.735e-5
-1.253, 1.765e-5
-1.254, 1.769e-5
-1.255, 1.806e-5
-1.256, 1.854e-5
-1.257, 1.890e-5
-1.258, 1.925e-5
-1.259, 1.941e-5
-1.260, 1.982e-5
-1.261, 2.037e-5
-1.262, 2.092e-5
-1.263, 2.132e-5
-1.264, 2.152e-5
-1.265, 2.195e-5
-1.266, 2.266e-5
-1.267, 2.328e-5
-1.268, 2.370e-5
-1.269, 2.416e-5
-1.270, 2.468e-5
-1.271, 2.550e-5
-1.272, 2.618e-5
-1.273, 2.675e-5
-1.274, 2.740e-5
-1.275, 2.801e-5
-1.276, 2.890e-5
-1.277, 2.977e-5
-1.278, 3.055e-5
-1.279, 3.127e-5
-1.280, 3.222e-5
-1.281, 3.320e-5
-1.282, 3.434e-5
-1.283, 3.524e-5
-1.284, 3.617e-5
-1.285, 3.727e-5
-1.286, 3.856e-5
-1.287, 3.989e-5
-1.288, 4.106e-5
-1.289, 4.233e-5
-1.290, 4.365e-5
-1.291, 4.519e-5
-1.292, 4.684e-5
-1.293, 4.837e-5
-1.294, 4.987e-5
-1.295, 5.164e-5
-1.296, 5.354e-5
-1.297, 5.554e-5
-1.298, 5.757e-5
-1.299, 5.946e-5
-1.300, 6.167e-5
-1.301, 6.406e-5
-1.302, 6.664e-5
-1.303, 6.915e-5
-1.304, 7.162e-5
-1.305, 7.434e-5
-1.306, 7.744e-5
-1.307, 8.056e-5
-1.308, 8.378e-5
-1.309, 8.703e-5
-1.310, 9.051e-5
-1.311, 9.427e-5
-1.312, 9.835e-5
-1.313, 1.023e-4
-1.314, 1.065e-4
-1.315, 1.109e-4
-1.316, 1.156e-4
-1.317, 1.206e-4
-1.318, 1.258e-4
-1.319, 1.311e-4
-1.320, 1.367e-4
-1.321, 1.427e-4
-1.322, 1.491e-4
-1.323, 1.556e-4
-1.324, 1.623e-4
-1.325, 1.693e-4
-1.326, 1.764e-4
-1.327, 1.841e-4
-1.328, 1.920e-4
-1.329, 2.002e-4
-1.330, 2.090e-4
-1.331, 2.182e-4
-1.332, 2.280e-4
-1.333, 2.380e-4
-1.334, 2.484e-4
-1.335, 2.592e-4
-1.336, 2.707e-4
-1.337, 2.828e-4
-1.338, 2.952e-4
-1.339, 3.078e-4
-1.340, 3.210e-4
-1.341, 3.349e-4
-1.342, 3.498e-4
-1.343, 3.652e-4
-1.344, 3.806e-4
-1.345, 3.968e-4
-1.346, 4.137e-4
-1.347, 4.314e-4
-1.348, 4.499e-4
-1.349, 4.690e-4
-1.350, 4.891e-4
-1.351, 5.098e-4
-1.352, 5.315e-4
-1.353, 5.538e-4
-1.354, 5.763e-4
-1.355, 5.992e-4
-1.356, 6.237e-4
-1.357, 6.489e-4
-1.358, 6.748e-4
-1.359, 7.002e-4
-1.360, 7.274e-4
-1.361, 7.558e-4
-1.362, 7.849e-4
-1.363, 8.151e-4
-1.364, 8.442e-4
-1.365, 8.737e-4
-1.366, 9.048e-4
-1.367, 9.379e-4
-1.368, 9.714e-4
-1.369, 1.007e-3
-1.370, 1.042e-3
-1.371, 1.079e-3
-1.372, 1.117e-3
-1.373, 1.154e-3
-1.374, 1.192e-3
-1.375, 1.232e-3
-1.376, 1.271e-3
-1.377, 1.312e-3
-1.378, 1.355e-3
-1.379, 1.396e-3
-1.380, 1.440e-3
-1.381, 1.483e-3
-1.382, 1.528e-3
-1.383, 1.575e-3
-1.384, 1.622e-3
-1.385, 1.668e-3
-1.386, 1.716e-3
-1.387, 1.766e-3
-1.388, 1.813e-3
-1.389, 1.864e-3
-1.390, 1.914e-3
-1.391, 1.967e-3
-1.392, 2.020e-3
-1.393, 2.073e-3
-1.394, 2.128e-3
-1.395, 2.185e-3
-1.396, 2.243e-3
-1.397, 2.299e-3
-1.398, 2.357e-3
-1.399, 2.420e-3
-1.400, 2.482e-3
-1.401, 2.541e-3
-1.402, 2.601e-3
-1.403, 2.663e-3
-1.404, 2.728e-3
-1.405, 2.787e-3
-1.406, 2.857e-3
-1.407, 2.919e-3
-1.408, 2.983e-3
-1.409, 3.047e-3
-1.410, 3.113e-3
-1.411, 3.181e-3
-1.412, 3.253e-3
-1.413, 3.319e-3
-1.414, 3.387e-3
-1.415, 3.456e-3
-1.416, 3.523e-3
-1.417, 3.592e-3
-1.418, 3.658e-3
-1.419, 3.727e-3
-1.420, 3.797e-3
-1.421, 3.874e-3
-1.422, 3.947e-3
-1.423, 4.020e-3
-1.424, 4.095e-3
-1.425, 4.169e-3
-1.426, 4.249e-3
-1.427, 4.343e-3
-1.428, 4.417e-3
-1.429, 4.478e-3
-1.430, 4.553e-3
-1.431, 4.622e-3
-1.432, 4.700e-3
-1.433, 4.765e-3
-1.434, 4.843e-3
-1.435, 4.933e-3
-1.436, 5.020e-3
-1.437, 5.091e-3
-1.438, 5.171e-3
-1.439, 5.264e-3
-1.440, 5.338e-3
-1.441, 5.418e-3
-1.442, 5.471e-3
-1.443, 5.556e-3
-1.444, 5.664e-3
-1.445, 5.735e-3
-1.446, 5.793e-3
-1.447, 5.898e-3
-1.448, 5.989e-3
-1.449, 6.083e-3
-1.450, 6.196e-3
-1.451, 6.284e-3
-1.452, 6.371e-3
-1.453, 6.444e-3
-1.454, 6.527e-3
-1.455, 6.594e-3
-1.456, 6.650e-3
-1.457, 6.736e-3
-1.458, 6.827e-3
-1.459, 6.919e-3
-1.460, 7.016e-3
-1.461, 7.127e-3
-1.462, 7.228e-3
-1.463, 7.301e-3
-1.464, 7.355e-3
-1.465, 7.412e-3
-1.466, 7.482e-3
-1.467, 7.542e-3
-1.468, 7.618e-3
-1.469, 7.719e-3
-1.470, 7.800e-3
-1.471, 7.876e-3
-1.472, 7.935e-3
-1.473, 8.027e-3
-1.474, 8.100e-3
-1.475, 8.179e-3
-1.476, 8.266e-3
-1.477, 8.341e-3
-1.478, 8.417e-3
-1.479, 8.472e-3
-1.480, 8.526e-3
-1.481, 8.606e-3
-1.482, 8.703e-3
-1.483, 8.795e-3
-1.484, 8.885e-3
-1.485, 8.973e-3
-1.486, 9.056e-3
-1.487, 9.160e-3
-1.488, 9.320e-3
-1.489, 9.398e-3
-1.490, 9.483e-3
-1.491, 9.594e-3
-1.492, 9.651e-3
-1.493, 9.706e-3
-1.494, 9.799e-3
-1.495, 9.899e-3
-1.496, 9.954e-3
-1.497, 1.003e-2
-1.498, 1.008e-2
-1.499, 1.011e-2
-1.500, 1.011e-2
-1.499, 9.986e-3
-1.498, 9.843e-3
-1.497, 9.709e-3
-1.496, 9.553e-3
-1.495, 9.426e-3
-1.494, 9.303e-3
-1.493, 9.202e-3
-1.492, 9.058e-3
-1.491, 8.927e-3
-1.490, 8.806e-3
-1.489, 8.674e-3
-1.488, 8.526e-3
-1.487, 8.472e-3
-1.486, 8.333e-3
-1.485, 8.232e-3
-1.484, 8.134e-3
-1.483, 8.055e-3
-1.482, 7.908e-3
-1.481, 7.782e-3
-1.480, 7.679e-3
-1.479, 7.594e-3
-1.478, 7.574e-3
-1.477, 7.490e-3
-1.476, 7.452e-3
-1.475, 7.375e-3
-1.474, 7.293e-3
-1.473, 7.215e-3
-1.472, 7.113e-3
-1.471, 7.036e-3
-1.470, 6.942e-3
-1.469, 6.831e-3
-1.468, 6.744e-3
-1.467, 6.662e-3
-1.466, 6.588e-3
-1.465, 6.543e-3
-1.464, 6.460e-3
-1.463, 6.366e-3
-1.462, 6.252e-3
-1.461, 6.159e-3
-1.460, 6.072e-3
-1.459, 6.006e-3
-1.458, 5.922e-3
-1.457, 5.831e-3
-1.456, 5.740e-3
-1.455, 5.620e-3
-1.454, 5.544e-3
-1.453, 5.429e-3
-1.452, 5.345e-3
-1.451, 5.257e-3
-1.450, 5.186e-3
-1.449, 5.083e-3
-1.448, 4.996e-3
-1.447, 4.918e-3
-1.446, 4.818e-3
-1.445, 4.719e-3
-1.444, 4.638e-3
-1.443, 4.547e-3
-1.442, 4.449e-3
-1.441, 4.378e-3
-1.440, 4.301e-3
-1.439, 4.218e-3
-1.438, 4.144e-3
-1.437, 4.066e-3
-1.436, 3.978e-3
-1.435, 3.903e-3
-1.434, 3.840e-3
-1.433, 3.769e-3
-1.432, 3.694e-3
-1.431, 3.606e-3
-1.430, 3.524e-3
-1.429, 3.451e-3
-1.428, 3.380e-3
-1.427, 3.319e-3
-1.426, 3.244e-3
-1.425, 3.177e-3
-1.424, 3.127e-3
-1.423, 3.052e-3
-1.422, 2.982e-3
-1.421, 2.916e-3
-1.420, 2.842e-3
-1.419, 2.767e-3
-1.418, 2.697e-3
-1.417, 2.628e-3
-1.416, 2.564e-3
-1.415, 2.500e-3
-1.414, 2.433e-3
-1.413, 2.367e-3
-1.412, 2.304e-3
-1.411, 2.245e-3
-1.410, 2.181e-3
-1.409, 2.121e-3
-1.408, 2.064e-3
-1.407, 2.009e-3
-1.406, 1.954e-3
-1.405, 1.898e-3
-1.404, 1.843e-3
-1.403, 1.784e-3
-1.402, 1.734e-3
-1.401, 1.683e-3
-1.400, 1.637e-3
-1.399, 1.588e-3
-1.398, 1.543e-3
-1.397, 1.498e-3
-1.396, 1.453e-3
-1.395, 1.413e-3
-1.394, 1.370e-3
-1.393, 1.328e-3
-1.392, 1.289e-3
-1.391, 1.249e-3
-1.390, 1.209e-3
-1.389, 1.173e-3
-1.388, 1.137e-3
-1.387, 1.100e-3
-1.386, 1.065e-3
-1.385, 1.030e-3
-1.384, 9.980e-4
-1.383, 9.648e-4
-1.382, 9.332e-4
-1.381, 9.038e-4
-1.380, 8.746e-4
-1.379, 8.458e-4
-1.378, 8.182e-4
-1.377, 7.912e-4
-1.376, 7.659e-4
-1.375, 7.399e-4
-1.374, 7.152e-4
-1.373, 6.918e-4
-1.372, 6.684e-4
-1.371, 6.462e-4
-1.370, 6.234e-4
-1.369, 6.010e-4
-1.368, 5.803e-4
-1.367, 5.605e-4
-1.366, 5.410e-4
-1.365, 5.220e-4
-1.364, 5.043e-4
-1.363, 4.872e-4
-1.362, 4.709e-4
-1.361, 4.540e-4
-1.360, 4.378e-4
-1.359, 4.221e-4
-1.358, 4.069e-4
-1.357, 3.922e-4
-1.356, 3.778e-4
-1.355, 3.642e-4
-1.354, 3.516e-4
-1.353, 3.395e-4
-1.352, 3.278e-4
-1.351, 3.161e-4
-1.350, 3.043e-4
-1.349, 2.936e-4
-1.348, 2.830e-4
-1.347, 2.729e-4
-1.346, 2.633e-4
-1.345, 2.539e-4
-1.344, 2.450e-4
-1.343, 2.362e-4
-1.342, 2.277e-4
-1.341, 2.191e-4
-1.340, 2.109e-4
-1.339, 2.032e-4
-1.338, 1.958e-4
-1.337, 1.887e-4
-1.336, 1.818e-4
-1.335, 1.749e-4
-1.334, 1.685e-4
-1.333, 1.623e-4
-1.332, 1.564e-4
-1.331, 1.506e-4
-1.330, 1.448e-4
-1.329, 1.394e-4
-1.328, 1.344e-4
-1.327, 1.295e-4
-1.326, 1.247e-4
-1.325, 1.200e-4
-1.324, 1.156e-4
-1.323, 1.114e-4
-1.322, 1.074e-4
-1.321, 1.033e-4
-1.320, 9.930e-5
-1.319, 9.567e-5
-1.318, 9.208e-5
-1.317, 8.878e-5
-1.316, 8.533e-5
-1.315, 8.190e-5
-1.314, 7.885e-5
-1.313, 7.585e-5
-1.312, 7.311e-5
-1.311, 7.028e-5
-1.310, 6.751e-5
-1.309, 6.505e-5
-1.308, 6.268e-5
-1.307, 6.040e-5
-1.306, 5.802e-5
-1.305, 5.573e-5
-1.304, 5.369e-5
-1.303, 5.179e-5
-1.302, 4.983e-5
-1.301, 4.792e-5
-1.300, 4.599e-5
-1.299, 4.422e-5
-1.298, 4.268e-5
-1.297, 4.107e-5
-1.296, 3.945e-5
-1.295, 3.783e-5
-1.294, 3.642e-5
-1.293, 3.512e-5
-1.292, 3.387e-5
-1.291, 3.243e-5
-1.290, 3.113e-5
-1.289, 2.989e-5
-1.288, 2.891e-5
-1.287, 2.782e-5
-1.286, 2.664e-5
-1.285, 2.546e-5
-1.284, 2.453e-5
-1.283, 2.371e-5
-1.282, 2.288e-5
-1.281, 2.179e-5
-1.280, 2.083e-5
-1.279, 1.997e-5
-1.278, 1.938e-5
-1.277, 1.861e-5
-1.276, 1.776e-5
-1.275, 1.691e-5
-1.274, 1.621e-5
-1.273, 1.571e-5
-1.272, 1.512e-5
-1.271, 1.444e-5
-1.270, 1.368e-5
-1.269, 1.308e-5
-1.268, 1.267e-5
-1.267, 1.216e-5
-1.266, 1.156e-5
-1.265, 1.093e-5
-1.264, 1.040e-5
-1.263, 1.011e-5
-1.262, 9.680e-6
-1.261, 9.161e-6
-1.260, 8.607e-6
-1.259, 8.115e-6
-1.258, 7.939e-6
-1.257, 7.602e-6
-1.256, 7.133e-6
-1.255, 6.604e-6
-1.254, 6.180e-6
-1.253, 6.073e-6
-1.252, 5.786e-6
-1.251, 5.317e-6
-1.250, 4.987e-6
-1.249, 4.554e-6
-1.248, 4.485e-6
-1.247, 4.276e-6
-1.246, 3.873e-6
-1.245, 3.470e-6
-1.244, 3.170e-6
-1.243, 3.090e-6
-1.242, 2.896e-6
-1.241, 2.578e-6
-1.240, 2.252e-6
-1.239, 2.030e-6
-1.238, 1.916e-6
-1.237, 1.838e-6
-1.236, 1.520e-6
-1.235, 1.153e-6
-1.234, 9.617e-7
-1.233, 9.124e-7
-1.232, 8.522e-7
-1.231, 5.750e-7
-1.230, 2.465e-7
-1.229, 5.722e-9
-1.228, 7.380e-8
-1.227, -2.684e-8
-1.226, -2.251e-7
-1.225, -5.951e-7
-1.224, -6.948e-7
-1.223, -6.809e-7
-1.222, -8.023e-7
-1.221, -9.809e-7
-1.220, -1.217e-6
-1.219, -1.384e-6
-1.218, -1.377e-6
-1.217, -1.389e-6
-1.216, -1.586e-6
-1.215, -1.825e-6
-1.214, -1.994e-6
-1.213, -1.926e-6
-1.212, -1.900e-6
-1.211, -2.143e-6
-1.210, -2.368e-6
-1.209, -2.519e-6
-1.208, -2.465e-6
-1.207, -2.420e-6
-1.206, -2.651e-6
-1.205, -2.865e-6
-1.204, -2.992e-6
-1.203, -2.942e-6
-1.202, -2.898e-6
-1.201, -3.039e-6
-1.200, -3.252e-6
-1.199, -3.395e-6
-1.198, -3.297e-6
-1.197, -3.261e-6
-1.196, -3.438e-6
-1.195, -3.716e-6
-1.194, -3.780e-6
-1.193, -3.736e-6
-1.192, -3.643e-6
-1.191, -3.811e-6
-1.190, -4.047e-6
-1.189, -4.129e-6
-1.188, -3.980e-6
-1.187, -4.015e-6
-1.186, -4.084e-6
-1.185, -4.320e-6
-1.184, -4.466e-6
-1.183, -4.346e-6
-1.182, -4.293e-6
-1.181, -4.339e-6
-1.180, -4.630e-6
-1.179, -4.781e-6
-1.178, -4.649e-6
-1.177, -4.603e-6
-1.176, -4.661e-6
-1.175, -4.947e-6
-1.174, -5.008e-6
-1.173, -4.841e-6
-1.172, -4.877e-6
-1.171, -4.952e-6
-1.170, -5.201e-6
-1.169, -5.265e-6
-1.168, -5.195e-6
-1.167, -5.112e-6
-1.166, -5.266e-6
-1.165, -5.418e-6
-1.164, -5.498e-6
-1.163, -5.533e-6
-1.162, -5.350e-6
-1.161, -5.437e-6
-1.160, -5.743e-6
-1.159, -5.736e-6
-1.158, -5.699e-6
-1.157, -5.579e-6
-1.156, -5.661e-6
-1.155, -6.003e-6
-1.154, -6.007e-6
-1.153, -5.971e-6
-1.152, -5.775e-6
-1.151, -5.911e-6
-1.150, -6.192e-6
-1.149, -6.267e-6
-1.148, -6.174e-6
-1.147, -6.063e-6
-1.146, -6.118e-6
-1.145, -6.388e-6
-1.144, -6.496e-6
-1.143, -6.340e-6
-1.142, -6.220e-6
-1.141, -6.373e-6
-1.140, -6.548e-6
-1.139, -6.735e-6
-1.138, -6.607e-6
-1.137, -6.485e-6
-1.136, -6.546e-6
-1.135, -6.797e-6
-1.134, -6.952e-6
-1.133, -6.789e-6
-1.132, -6.620e-6
-1.131, -6.793e-6
-1.130, -7.060e-6
-1.129, -7.174e-6
-1.128, -7.053e-6
-1.127, -6.873e-6
-1.126, -7.038e-6
-1.125, -7.259e-6
-1.124, -7.340e-6
-1.123, -7.340e-6
-1.122, -7.110e-6
-1.121, -7.336e-6
-1.120, -7.496e-6
-1.119, -7.525e-6
-1.118, -7.501e-6
-1.117, -7.392e-6
-1.116, -7.433e-6
-1.115, -7.716e-6
-1.114, -7.825e-6
-1.113, -7.805e-6
-1.112, -7.570e-6
-1.111, -7.637e-6
-1.110, -7.951e-6
-1.109, -8.100e-6
-1.108, -7.946e-6
-1.107, -7.853e-6
-1.106, -7.909e-6
-1.105, -8.233e-6
-1.104, -8.292e-6
-1.103, -8.181e-6
-1.102, -8.080e-6
-1.101, -8.162e-6
-1.100, -8.408e-6
-1.099, -8.631e-6
-1.098, -8.427e-6
-1.097, -8.364e-6
-1.096, -8.434e-6
-1.095, -8.653e-6
-1.094, -8.880e-6
-1.093, -8.715e-6
-1.092, -8.519e-6
-1.091, -8.767e-6
-1.090, -8.884e-6
-1.089, -9.117e-6
-1.088, -8.962e-6
-1.087, -8.815e-6
-1.086, -9.003e-6
-1.085, -9.166e-6
-1.084, -9.341e-6
-1.083, -9.300e-6
-1.082, -9.117e-6
-1.081, -9.265e-6
-1.080, -9.419e-6
-1.079, -9.583e-6
-1.078, -9.589e-6
-1.077, -9.399e-6
-1.076, -9.513e-6
-1.075, -9.813e-6
-1.074, -9.954e-6
-1.073, -9.860e-6
-1.072, -9.670e-6
-1.071, -9.771e-6
-1.070, -1.003e-5
-1.069, -1.015e-5
-1.068, -1.005e-5
-1.067, -9.996e-6
-1.066, -1.002e-5
-1.065, -1.033e-5
-1.064, -1.047e-5
-1.063, -1.041e-5
-1.062, -1.028e-5
-1.061, -1.032e-5
-1.060, -1.056e-5
-1.059, -1.080e-5
-1.058, -1.069e-5
-1.057, -1.053e-5
-1.056, -1.068e-5
-1.055, -1.083e-5
-1.054, -1.115e-5
-1.053, -1.099e-5
-1.052, -1.083e-5
-1.051, -1.095e-5
-1.050, -1.118e-5
-1.049, -1.147e-5
-1.048, -1.135e-5
-1.047, -1.111e-5
-1.046, -1.129e-5
-1.045, -1.157e-5
-1.044, -1.171e-5
-1.043, -1.172e-5
-1.042, -1.155e-5
-1.041, -1.164e-5
-1.040, -1.186e-5
-1.039, -1.205e-5
-1.038, -1.210e-5
-1.037, -1.175e-5
-1.036, -1.195e-5
-1.035, -1.230e-5
-1.034, -1.244e-5
-1.033, -1.239e-5
-1.032, -1.217e-5
-1.031, -1.227e-5
-1.030, -1.267e-5
-1.029, -1.277e-5
-1.028, -1.275e-5
-1.027, -1.261e-5
-1.026, -1.263e-5
-1.025, -1.305e-5
-1.024, -1.322e-5
-1.023, -1.316e-5
-1.022, -1.304e-5
-1.021, -1.302e-5
-1.020, -1.339e-5
-1.019, -1.366e-5
-1.018, -1.353e-5
-1.017, -1.343e-5
-1.016, -1.350e-5
-1.015, -1.375e-5
-1.014, -1.408e-5
-1.013, -1.394e-5
-1.012, -1.379e-5
-1.011, -1.394e-5
-1.010, -1.422e-5
-1.009, -1.446e-5
-1.008, -1.438e-5
-1.007, -1.426e-5
-1.006, -1.438e-5
-1.005, -1.465e-5
-1.004, -1.490e-5
-1.003, -1.492e-5
-1.002, -1.477e-5
-1.001, -1.486e-5
-1.000, -2.397e-6
-1.001, 2.405e-7
-1.002, 1.384e-6
-1.003, 2.089e-6
-1.004, 2.728e-6
-1.005, 2.831e-6
-1.006, 2.995e-6
-1.007, 3.517e-6
-1.008, 3.968e-6
-1.009, 4.278e-6
-1.010, 4.322e-6
-1.011, 4.265e-6
-1.012, 4.645e-6
-1.013, 5.095e-6
-1.014, 5.319e-6
-1.015, 5.211e-6
-1.016, 5.112e-6
-1.017, 5.403e-6
-1.018, 5.837e-6
-1.019, 5.972e-6
-1.020, 5.762e-6
-1.021, 5.719e-6
-1.022, 5.936e-6
-1.023, 6.340e-6
-1.024, 6.455e-6
-1.025, 6.228e-6
-1.026, 6.254e-6
-1.027, 6.383e-6
-1.028, 6.673e-6
-1.029, 6.814e-6
-1.030, 6.667e-6
-1.031, 6.601e-6
-1.032, 6.694e-6
-1.033, 6.942e-6
-1.034, 7.174e-6
-1.035, 6.844e-6
-1.036, 6.804e-6
-1.037, 7.037e-6
-1.038, 7.218e-6
-1.039, 7.374e-6
-1.040, 7.111e-6
-1.041, 7.052e-6
-1.042, 7.262e-6
-1.043, 7.369e-6
-1.044, 7.561e-6
-1.045, 7.364e-6
-1.046, 7.236e-6
-1.047, 7.462e-6
-1.048, 7.575e-6
-1.049, 7.742e-6
-1.050, 7.490e-6
-1.051, 7.416e-6
-1.052, 7.517e-6
-1.053, 7.802e-6
-1.054, 7.834e-6
-1.055, 7.753e-6
-1.056, 7.521e-6
-1.057, 7.637e-6
-1.058, 7.941e-6
-1.059, 8.073e-6
-1.060, 7.780e-6
-1.061, 7.692e-6
-1.062, 7.766e-6
-1.063, 8.072e-6
-1.064, 8.105e-6
-1.065, 7.830e-6
-1.066, 7.858e-6
-1.067, 7.923e-6
-1.068, 8.113e-6
-1.069, 8.270e-6
-1.070, 8.045e-6
-1.071, 7.904e-6
-1.072, 7.975e-6
-1.073, 8.141e-6
-1.074, 8.411e-6
-1.075, 8.109e-6
-1.076, 7.993e-6
-1.077, 8.074e-6
-1.078, 8.265e-6
-1.079, 8.455e-6
-1.080, 8.099e-6
-1.081, 8.055e-6
-1.082, 8.222e-6
-1.083, 8.391e-6
-1.084, 8.468e-6
-1.085, 8.248e-6
-1.086, 8.085e-6
-1.087, 8.305e-6
-1.088, 8.367e-6
-1.089, 8.490e-6
-1.090, 8.362e-6
-1.091, 8.075e-6
-1.092, 8.269e-6
-1.093, 8.530e-6
-1.094, 8.558e-6
-1.095, 8.393e-6
-1.096, 8.181e-6
-1.097, 8.321e-6
-1.098, 8.623e-6
-1.099, 8.611e-6
-1.100, 8.393e-6
-1.101, 8.285e-6
-1.102, 8.431e-6
-1.103, 8.602e-6
-1.104, 8.625e-6
-1.105, 8.448e-6
-1.106, 8.383e-6
-1.107, 8.428e-6
-1.108, 8.604e-6
-1.109, 8.751e-6
-1.110, 8.435e-6
-1.111, 8.449e-6
-1.112, 8.435e-6
-1.113, 8.586e-6
-1.114, 8.803e-6
-1.115, 8.536e-6
-1.116, 8.416e-6
-1.117, 8.527e-6
-1.118, 8.704e-6
-1.119, 8.798e-6
-1.120, 8.548e-6
-1.121, 8.493e-6
-1.122, 8.608e-6
-1.123, 8.689e-6
-1.124, 8.860e-6
-1.125, 8.642e-6
-1.126, 8.543e-6
-1.127, 8.609e-6
-1.128, 8.716e-6
-1.129, 8.896e-6
-1.130, 8.718e-6
-1.131, 8.536e-6
-1.132, 8.625e-6
-1.133, 8.866e-6
-1.134, 8.951e-6
-1.135, 8.742e-6
-1.136, 8.553e-6
-1.137, 8.694e-6
-1.138, 8.951e-6
-1.139, 8.944e-6
-1.140, 8.761e-6
-1.141, 8.706e-6
-1.142, 8.750e-6
-1.143, 9.011e-6
-1.144, 9.009e-6
-1.145, 8.871e-6
-1.146, 8.738e-6
-1.147, 8.817e-6
-1.148, 8.993e-6
-1.149, 9.136e-6
-1.150, 8.864e-6
-1.151, 8.879e-6
-1.152, 8.907e-6
-1.153, 8.996e-6
-1.154, 9.208e-6
-1.155, 8.977e-6
-1.156, 8.889e-6
-1.157, 9.000e-6
-1.158, 9.164e-6
-1.159, 9.239e-6
-1.160, 9.155e-6
-1.161, 8.902e-6
-1.162, 9.028e-6
-1.163, 9.268e-6
-1.164, 9.259e-6
-1.165, 9.218e-6
-1.166, 9.051e-6
-1.167, 9.127e-6
-1.168, 9.319e-6
-1.169, 9.438e-6
-1.170, 9.320e-6
-1.171, 9.116e-6
-1.172, 9.260e-6
-1.173, 9.419e-6
-1.174, 9.567e-6
-1.175, 9.420e-6
-1.176, 9.260e-6
-1.177, 9.385e-6
-1.178, 9.579e-6
-1.179, 9.628e-6
-1.180, 9.501e-6
-1.181, 9.365e-6
-1.182, 9.433e-6
-1.183, 9.662e-6
-1.184, 9.792e-6
-1.185, 9.633e-6
-1.186, 9.495e-6
-1.187, 9.591e-6
-1.188, 9.758e-6
-1.189, 9.939e-6
-1.190, 9.797e-6
-1.191, 9.663e-6
-1.192, 9.759e-6
-1.193, 9.829e-6
-1.194, 1.014e-5
-1.195, 9.946e-6
-1.196, 9.772e-6
-1.197, 9.979e-6
-1.198, 1.008e-5
-1.199, 1.026e-5
-1.200, 1.010e-5
-1.201, 1.001e-5
-1.202, 1.020e-5
-1.203, 1.027e-5
-1.204, 1.041e-5
-1.205, 1.038e-5
-1.206, 1.025e-5
-1.207, 1.036e-5
-1.208, 1.050e-5
-1.209, 1.069e-5
-1.210, 1.063e-5
-1.211, 1.047e-5
-1.212, 1.062e-5
-1.213, 1.086e-5
-1.214, 1.093e-5
-1.215, 1.093e-5
-1.216, 1.077e-5
-1.217, 1.096e-5
-1.218, 1.117e-5
-1.219, 1.126e-5
-1.220, 1.123e-5
-1.221, 1.117e-5
-1.222, 1.129e-5
-1.223, 1.160e-5
-1.224, 1.167e-5
-1.225, 1.160e-5
-1.226, 1.159e-5
-1.227, 1.174e-5
-1.228, 1.212e-5
-1.229, 1.228e-5
-1.230, 1.219e-5
-1.231, 1.218e-5
-1.232, 1.230e-5
-1.233, 1.260e-5
-1.234, 1.285e-5
-1.235, 1.276e-5
-1.236, 1.274e-5
-1.237, 1.299e-5
-1.238, 1.325e-5
-1.239, 1.349e-5
-1.240, 1.353e-5
-1.241, 1.349e-5
-1.242, 1.383e-5
-1.243, 1.405e-5
-1.244, 1.434e-5
-1.245, 1.447e-5
-1.246, 1.444e-5
-1.247, 1.479e-5
-1.248, 1.507e-5
-1.249, 1.540e-5
-1.250, 1.552e-5
-1.251, 1.562e-5
-1.252, 1.585e-5
-1.253, 1.628e-5
-1.254, 1.663e-5
-1.255, 1.689e-5
-1.256, 1.694e-5
-1.257, 1.732e-5
-1.258, 1.782e-5
-1.259, 1.824e-5
-1.260, 1.845e-5
-1.261, 1.862e-5
-1.262, 1.909e-5
-1.263, 1.964e-5
-1.264, 2.004e-5
-1.265, 2.037e-5
-1.266, 2.075e-5
-1.267, 2.117e-5
-1.268, 2.178e-5
-1.269, 2.238e-5
-1.270, 2.276e-5
-1.271, 2.325e-5
-1.272, 2.380e-5
-1.273, 2.453e-5
-1.274, 2.525e-5
-1.275, 2.576e-5
-1.276, 2.628e-5
-1.277, 2.706e-5
-1.278, 2.788e-5
-1.279, 2.874e-5
-1.280, 2.950e-5
-1.281, 3.012e-5
-1.282, 3.110e-5
-1.283, 3.203e-5
-1.284, 3.315e-5
-1.285, 3.405e-5
-1.286, 3.490e-5
-1.287, 3.606e-5
-1.288, 3.728e-5
-1.289, 3.858e-5
-1.290, 3.973e-5
-1.291, 4.076e-5
-1.292, 4.221e-5
-1.293, 4.384e-5
-1.294, 4.535e-5
-1.295, 4.686e-5
-1.296, 4.831e-5
-1.297, 4.997e-5
-1.298, 5.196e-5
-1.299, 5.385e-5
-1.300, 5.570e-5
-1.301, 5.770e-5
-1.302, 5.984e-5
-1.303, 6.222e-5
-1.304, 6.456e-5
-1.305, 6.700e-5
-1.306, 6.948e-5
-1.307, 7.206e-5
-1.308, 7.507e-5
-1.309, 7.821e-5
-1.310, 8.124e-5
-1.311, 8.443e-5
-1.312, 8.782e-5
-1.313, 9.158e-5
-1.314, 9.544e-5
-1.315, 9.937e-5
-1.316, 1.033e-4
-1.317, 1.076e-4
-1.318, 1.124e-4
-1.319, 1.173e-4
-1.320, 1.223e-4
-1.321, 1.273e-4
-1.322, 1.329e-4
-1.323, 1.388e-4
-1.324, 1.449e-4
-1.325, 1.508e-4
-1.326, 1.574e-4
-1.327, 1.644e-4
-1.328, 1.719e-4
-1.329, 1.797e-4
-1.330, 1.878e-4
-1.331, 1.960e-4
-1.332, 2.049e-4
-1.333, 2.140e-4
-1.334, 2.237e-4
-1.335, 2.339e-4
-1.336, 2.442e-4
-1.337, 2.551e-4
-1.338, 2.667e-4
-1.339, 2.788e-4
-1.340, 2.915e-4
-1.341, 3.044e-4
-1.342, 3.180e-4
-1.343, 3.327e-4
-1.344, 3.476e-4
-1.345, 3.631e-4
-1.346, 3.791e-4
-1.347, 3.955e-4
-1.348, 4.135e-4
-1.349, 4.319e-4
-1.350, 4.507e-4
-1.351, 4.701e-4
-1.352, 4.902e-4
-1.353, 5.113e-4
-1.354, 5.329e-4
-1.355, 5.558e-4
-1.356, 5.789e-4
-1.357, 6.029e-4
-1.358, 6.281e-4
-1.359, 6.544e-4
-1.360, 6.803e-4
-1.361, 7.077e-4
-1.362, 7.363e-4
-1.363, 7.643e-4
-1.364, 7.942e-4
-1.365, 8.241e-4
-1.366, 8.550e-4
-1.367, 8.873e-4
-1.368, 9.201e-4
-1.369, 9.537e-4
-1.370, 9.901e-4
-1.371, 1.026e-3
-1.372, 1.063e-3
-1.373, 1.101e-3
-1.374, 1.139e-3
-1.375, 1.179e-3
-1.376, 1.220e-3
-1.377, 1.262e-3
-1.378, 1.305e-3
-1.379, 1.348e-3
-1.380, 1.393e-3
-1.381, 1.438e-3
-1.382, 1.482e-3
-1.383, 1.528e-3
-1.384, 1.574e-3
-1.385, 1.622e-3
-1.386, 1.670e-3
-1.387, 1.719e-3
-1.388, 1.771e-3
-1.389, 1.823e-3
-1.390, 1.878e-3
-1.391, 1.932e-3
-1.392, 1.988e-3
-1.393, 2.044e-3
-1.394, 2.100e-3
-1.395, 2.157e-3
-1.396, 2.212e-3
-1.397, 2.268e-3
-1.398, 2.331e-3
-1.399, 2.391e-3
-1.400, 2.454e-3
-1.401, 2.521e-3
-1.402, 2.585e-3
-1.403, 2.644e-3
-1.404, 2.705e-3
-1.405, 2.767e-3
-1.406, 2.830e-3
-1.407, 2.897e-3
-1.408, 2.962e-3
-1.409, 3.031e-3
-1.410, 3.103e-3
-1.411, 3.176e-3
-1.412, 3.249e-3
-1.413, 3.322e-3
-1.414, 3.395e-3
-1.415, 3.464e-3
-1.416, 3.536e-3
-1.417, 3.604e-3
-1.418, 3.684e-3
-1.419, 3.758e-3
-1.420, 3.832e-3
-1.421, 3.903e-3
-1.422, 3.967e-3
-1.423, 4.038e-3
-1.424, 4.114e-3
-1.425, 4.196e-3
-1.426, 4.273e-3
-1.427, 4.355e-3
-1.428, 4.433e-3
-1.429, 4.514e-3
-1.430, 4.590e-3
-1.431, 4.660e-3
-1.432, 4.739e-3
-1.433, 4.828e-3
-1.434, 4.906e-3
-1.435, 4.976e-3
-1.436, 5.058e-3
-1.437, 5.138e-3
-1.438, 5.215e-3
-1.439, 5.293e-3
-1.440, 5.369e-3
-1.441, 5.448e-3
-1.442, 5.522e-3
-1.443, 5.600e-3
-1.444, 5.689e-3
-1.445, 5.786e-3
-1.446, 5.871e-3
-1.447, 5.958e-3
-1.448, 6.054e-3
-1.449, 6.145e-3
-1.450, 6.236e-3
-1.451, 6.318e-3
-1.452, 6.406e-3
-1.453, 6.487e-3
-1.454, 6.586e-3
-1.455, 6.680e-3
-1.456, 6.796e-3
-1.457, 6.910e-3
-1.458, 7.012e-3
-1.459, 7.093e-3
-1.460, 7.161e-3
-1.461, 7.209e-3
-1.462, 7.247e-3
-1.463, 7.322e-3
-1.464, 7.422e-3
-1.465, 7.504e-3
-1.466, 7.593e-3
-1.467, 7.691e-3
-1.468, 7.802e-3
-1.469, 7.886e-3
-1.470, 7.947e-3
-1.471, 8.004e-3
-1.472, 8.079e-3
-1.473, 8.176e-3
-1.474, 8.262e-3
-1.475, 8.355e-3
-1.476, 8.427e-3
-1.477, 8.511e-3
-1.478, 8.604e-3
-1.479, 8.692e-3
-1.480, 8.777e-3
-1.481, 8.858e-3
-1.482, 8.932e-3
-1.483, 9.015e-3
-1.484, 9.110e-3
-1.485, 9.226e-3
-1.486, 9.330e-3
-1.487, 9.441e-3
-1.488, 9.562e-3
-1.489, 9.624e-3
-1.490, 9.656e-3
-1.491, 9.708e-3
-1.492, 9.734e-3
-1.493, 9.909e-3
-1.494, 9.957e-3
-1.495, 1.007e-2
-1.496, 1.011e-2
-1.497, 1.011e-2
-1.498, 1.011e-2
-1.499, 1.011e-2
-1.500, 1.011e-2
-1.499, 1.011e-2
-1.498, 1.011e-2
-1.497, 1.004e-2
-1.496, 9.887e-3
-1.495, 9.926e-3
-1.494, 9.839e-3
-1.493, 9.679e-3
-1.492, 9.509e-3
-1.491, 9.437e-3
-1.490, 9.358e-3
-1.489, 9.240e-3
-1.488, 9.111e-3
-1.487, 8.994e-3
-1.486, 8.842e-3
-1.485, 8.739e-3
-1.484, 8.604e-3
-1.483, 8.482e-3
-1.482, 8.373e-3
-1.481, 8.245e-3
-1.480, 8.085e-3
-1.479, 7.964e-3
-1.478, 7.862e-3
-1.477, 7.718e-3
-1.476, 7.605e-3
-1.475, 7.501e-3
-1.474, 7.385e-3
-1.473, 7.274e-3
-1.472, 7.136e-3
-1.471, 7.015e-3
-1.470, 6.942e-3
-1.469, 6.861e-3
-1.468, 6.748e-3
-1.467, 6.625e-3
-1.466, 6.536e-3
-1.465, 6.423e-3
-1.464, 6.319e-3
-1.463, 6.196e-3
-1.462, 6.092e-3
-1.461, 5.995e-3
-1.460, 5.915e-3
-1.459, 5.830e-3
-1.458, 5.775e-3
-1.457, 5.732e-3
-1.456, 5.659e-3
-1.455, 5.593e-3
-1.454, 5.520e-3
-1.453, 5.444e-3
-1.452, 5.332e-3
-1.451, 5.276e-3
-1.450, 5.183e-3
-1.449, 5.093e-3
-1.448, 5.008e-3
-1.447, 4.918e-3
-1.446, 4.830e-3
-1.445, 4.747e-3
-1.444, 4.650e-3
-1.443, 4.550e-3
-1.442, 4.474e-3
-1.441, 4.372e-3
-1.440, 4.298e-3
-1.439, 4.219e-3
-1.438, 4.139e-3
-1.437, 4.046e-3
-1.436, 3.958e-3
-1.435, 3.891e-3
-1.434, 3.823e-3
-1.433, 3.742e-3
-1.432, 3.681e-3
-1.431, 3.614e-3
-1.430, 3.545e-3
-1.429, 3.492e-3
-1.428, 3.424e-3
-1.427, 3.355e-3
-1.426, 3.286e-3
-1.425, 3.221e-3
-1.424, 3.164e-3
-1.423, 3.102e-3
-1.422, 3.034e-3
-1.421, 2.967e-3
-1.420, 2.900e-3
-1.419, 2.835e-3
-1.418, 2.769e-3
-1.417, 2.701e-3
-1.416, 2.635e-3
-1.415, 2.565e-3
-1.414, 2.492e-3
-1.413, 2.425e-3
-1.412, 2.351e-3
-1.411, 2.285e-3
-1.410, 2.230e-3
-1.409, 2.177e-3
-1.408, 2.120e-3
-1.407, 2.063e-3
-1.406, 2.012e-3
-1.405, 1.954e-3
-1.404, 1.900e-3
-1.403, 1.848e-3
-1.402, 1.794e-3
-1.401, 1.742e-3
-1.400, 1.693e-3
-1.399, 1.645e-3
-1.398, 1.595e-3
-1.397, 1.547e-3
-1.396, 1.500e-3
-1.395, 1.455e-3
-1.394, 1.411e-3
-1.393, 1.369e-3
-1.392, 1.328e-3
-1.391, 1.290e-3
-1.390, 1.251e-3
-1.389, 1.210e-3
-1.388, 1.170e-3
-1.387, 1.133e-3
-1.386, 1.098e-3
-1.385, 1.064e-3
-1.384, 1.030e-3
-1.383, 9.957e-4
-1.382, 9.626e-4
-1.381, 9.324e-4
-1.380, 9.018e-4
-1.379, 8.724e-4
-1.378, 8.428e-4
-1.377, 8.147e-4
-1.376, 7.881e-4
-1.375, 7.619e-4
-1.374, 7.361e-4
-1.373, 7.112e-4
-1.372, 6.876e-4
-1.371, 6.646e-4
-1.370, 6.415e-4
-1.369, 6.192e-4
-1.368, 5.973e-4
-1.367, 5.765e-4
-1.366, 5.564e-4
-1.365, 5.375e-4
-1.364, 5.182e-4
-1.363, 4.997e-4
-1.362, 4.823e-4
-1.361, 4.650e-4
-1.360, 4.487e-4
-1.359, 4.327e-4
-1.358, 4.169e-4
-1.357, 4.020e-4
-1.356, 3.874e-4
-1.355, 3.732e-4
-1.354, 3.594e-4
-1.353, 3.462e-4
-1.352, 3.339e-4
-1.351, 3.221e-4
-1.350, 3.104e-4
-1.349, 2.989e-4
-1.348, 2.878e-4
-1.347, 2.775e-4
-1.346, 2.675e-4
-1.345, 2.577e-4
-1.344, 2.483e-4
-1.343, 2.390e-4
-1.342, 2.302e-4
-1.341, 2.218e-4
-1.340, 2.137e-4
-1.339, 2.056e-4
-1.338, 1.979e-4
-1.337, 1.904e-4
-1.336, 1.835e-4
-1.335, 1.768e-4
-1.334, 1.699e-4
-1.333, 1.636e-4
-1.332, 1.576e-4
-1.331, 1.519e-4
-1.330, 1.461e-4
-1.329, 1.405e-4
-1.328, 1.352e-4
-1.327, 1.301e-4
-1.326, 1.252e-4
-1.325, 1.206e-4
-1.324, 1.160e-4
-1.323, 1.115e-4
-1.322, 1.074e-4
-1.321, 1.036e-4
-1.320, 9.975e-5
-1.319, 9.583e-5
-1.318, 9.205e-5
-1.317, 8.873e-5
-1.316, 8.544e-5
-1.315, 8.217e-5
-1.314, 7.890e-5
-1.313, 7.583e-5
-1.312, 7.300e-5
-1.311, 7.030e-5
-1.310, 6.761e-5
-1.309, 6.496e-5
-1.308, 6.238e-5
-1.307, 6.006e-5
-1.306, 5.776e-5
-1.305, 5.552e-5
-1.304, 5.327e-5
-1.303, 5.114e-5
-1.302, 4.925e-5
-1.301, 4.751e-5
-1.300, 4.578e-5
-1.299, 4.384e-5
-1.298, 4.222e-5
-1.297, 4.062e-5
-1.296, 3.916e-5
-1.295, 3.780e-5
-1.294, 3.618e-5
-1.293, 3.480e-5
-1.292, 3.349e-5
-1.291, 3.230e-5
-1.290, 3.108e-5
-1.289, 2.976e-5
-1.288, 2.854e-5
-1.287, 2.753e-5
-1.286, 2.644e-5
-1.285, 2.554e-5
-1.284, 2.434e-5
-1.283, 2.332e-5
-1.282, 2.251e-5
-1.281, 2.166e-5
-1.280, 2.088e-5
-1.279, 1.988e-5
-1.278, 1.899e-5
-1.277, 1.830e-5
-1.276, 1.760e-5
-1.275, 1.697e-5
-1.274, 1.609e-5
-1.273, 1.530e-5
-1.272, 1.477e-5
-1.271, 1.432e-5
-1.270, 1.365e-5
-1.269, 1.285e-5
-1.268, 1.234e-5
-1.267, 1.185e-5
-1.266, 1.143e-5
-1.265, 1.090e-5
-1.264, 1.031e-5
-1.263, 9.748e-6
-1.262, 9.346e-6
-1.261, 9.051e-6
-1.260, 8.644e-6
-1.259, 8.010e-6
-1.258, 7.587e-6
-1.257, 7.298e-6
-1.256, 7.043e-6
-1.255, 6.697e-6
-1.254, 6.192e-6
-1.253, 5.799e-6
-1.252, 5.503e-6
-1.251, 5.288e-6
-1.250, 5.051e-6
-1.249, 4.570e-6
-1.248, 4.222e-6
-1.247, 4.060e-6
-1.246, 3.857e-6
-1.245, 3.712e-6
-1.244, 3.225e-6
-1.243, 2.861e-6
-1.242, 2.756e-6
-1.241, 2.645e-6
-1.240, 2.545e-6
-1.239, 2.087e-6
-1.238, 1.703e-6
-1.237, 1.731e-6
-1.236, 1.704e-6
-1.235, 1.438e-6
-1.234, 1.102e-6
-1.233, 7.980e-7
-1.232, 7.920e-7
-1.231, 7.042e-7
-1.230, 5.829e-7
-1.229, 1.488e-7
-1.228, 2.052e-8
-1.227, -8.702e-8
-1.226, -7.715e-8
-1.225, -2.103e-7
-1.224, -4.797e-7
-1.223, -6.839e-7
-1.222, -8.408e-7
-1.221, -7.283e-7
-1.220, -8.575e-7
-1.219, -1.117e-6
-1.218, -1.330e-6
-1.217, -1.406e-6
-1.216, -1.350e-6
-1.215, -1.413e-6
-1.214, -1.732e-6
-1.213, -1.876e-6
-1.212, -1.855e-6
-1.211, -1.922e-6
-1.210, -1.834e-6
-1.209, -2.193e-6
-1.208, -2.358e-6
-1.207, -2.363e-6
-1.206, -2.435e-6
-1.205, -2.294e-6
-1.204, -2.614e-6
-1.203, -2.814e-6
-1.202, -2.865e-6
-1.201, -2.729e-6
-1.200, -2.754e-6
-1.199, -3.085e-6
-1.198, -3.216e-6
-1.197, -3.184e-6
-1.196, -3.115e-6
-1.195, -3.126e-6
-1.194, -3.448e-6
-1.193, -3.511e-6
-1.192, -3.563e-6
-1.191, -3.497e-6
-1.190, -3.437e-6
-1.189, -3.740e-6
-1.188, -3.913e-6
-1.187, -3.864e-6
-1.186, -3.727e-6
-1.185, -3.761e-6
-1.184, -3.979e-6
-1.183, -4.204e-6
-1.182, -4.172e-6
-1.181, -4.006e-6
-1.180, -4.007e-6
-1.179, -4.270e-6
-1.178, -4.477e-6
-1.177, -4.444e-6
-1.176, -4.301e-6
-1.175, -4.272e-6
-1.174, -4.510e-6
-1.173, -4.653e-6
-1.172, -4.640e-6
-1.171, -4.586e-6
-1.170, -4.472e-6
-1.169, -4.849e-6
-1.168, -4.888e-6
-1.167, -4.887e-6
-1.166, -4.781e-6
-1.165, -4.780e-6
-1.164, -4.974e-6
-1.163, -5.166e-6
-1.162, -5.171e-6
-1.161, -5.018e-6
-1.160, -4.987e-6
-1.159, -5.122e-6
-1.158, -5.423e-6
-1.157, -5.332e-6
-1.156, -5.149e-6
-1.155, -5.226e-6
-1.154, -5.410e-6
-1.153, -5.614e-6
-1.152, -5.613e-6
-1.151, -5.436e-6
-1.150, -5.470e-6
-1.149, -5.615e-6
-1.148, -5.761e-6
-1.147, -5.881e-6
-1.146, -5.710e-6
-1.145, -5.569e-6
-1.144, -5.904e-6
-1.143, -6.038e-6
-1.142, -6.073e-6
-1.141, -5.847e-6
-1.140, -5.799e-6
-1.139, -6.107e-6
-1.138, -6.238e-6
-1.137, -6.233e-6
-1.136, -6.013e-6
-1.135, -6.019e-6
-1.134, -6.279e-6
-1.133, -6.396e-6
-1.132, -6.413e-6
-1.131, -6.343e-6
-1.130, -6.198e-6
-1.129, -6.496e-6
-1.128, -6.718e-6
-1.127, -6.613e-6
-1.126, -6.554e-6
-1.125, -6.450e-6
-1.124, -6.642e-6
-1.123, -6.896e-6
-1.122, -6.813e-6
-1.121, -6.733e-6
-1.120, -6.661e-6
-1.119, -6.916e-6
-1.118, -7.117e-6
-1.117, -7.015e-6
-1.116, -6.991e-6
-1.115, -6.893e-6
-1.114, -6.986e-6
-1.113, -7.356e-6
-1.112, -7.277e-6
-1.111, -7.101e-6
-1.110, -7.110e-6
-1.109, -7.231e-6
-1.108, -7.502e-6
-1.107, -7.527e-6
-1.106, -7.352e-6
-1.105, -7.326e-6
-1.104, -7.517e-6
-1.103, -7.718e-6
-1.102, -7.765e-6
-1.101, -7.586e-6
-1.100, -7.537e-6
-1.099, -7.759e-6
-1.098, -8.015e-6
-1.097, -7.961e-6
-1.096, -7.841e-6
-1.095, -7.696e-6
-1.094, -8.028e-6
-1.093, -8.228e-6
-1.092, -8.190e-6
-1.091, -8.113e-6
-1.090, -8.000e-6
-1.089, -8.255e-6
-1.088, -8.447e-6
-1.087, -8.394e-6
-1.086, -8.376e-6
-1.085, -8.182e-6
-1.084, -8.498e-6
-1.083, -8.750e-6
-1.082, -8.626e-6
-1.081, -8.623e-6
-1.080, -8.429e-6
-1.079, -8.666e-6
-1.078, -8.996e-6
-1.077, -8.952e-6
-1.076, -8.910e-6
-1.075, -8.851e-6
-1.074, -8.976e-6
-1.073, -9.312e-6
-1.072, -9.214e-6
-1.071, -9.171e-6
-1.070, -9.054e-6
-1.069, -9.200e-6
-1.068, -9.482e-6
-1.067, -9.569e-6
-1.066, -9.399e-6
-1.065, -9.388e-6
-1.064, -9.513e-6
-1.063, -9.855e-6
-1.062, -9.845e-6
-1.061, -9.665e-6
-1.060, -9.555e-6
-1.059, -9.918e-6
-1.058, -1.015e-5
-1.057, -1.015e-5
-1.056, -1.004e-5
-1.055, -9.949e-6
-1.054, -1.016e-5
-1.053, -1.040e-5
-1.052, -1.039e-5
-1.051, -1.035e-5
-1.050, -1.026e-5
-1.049, -1.052e-5
-1.048, -1.073e-5
-1.047, -1.070e-5
-1.046, -1.075e-5
-1.045, -1.050e-5
-1.044, -1.076e-5
-1.043, -1.120e-5
-1.042, -1.103e-5
-1.041, -1.099e-5
-1.040, -1.083e-5
-1.039, -1.114e-5
-1.038, -1.153e-5
-1.037, -1.140e-5
-1.036, -1.133e-5
-1.035, -1.123e-5
-1.034, -1.143e-5
-1.033, -1.186e-5
-1.032, -1.175e-5
-1.031, -1.166e-5
-1.030, -1.162e-5
-1.029, -1.183e-5
-1.028, -1.216e-5
-1.027, -1.215e-5
-1.026, -1.208e-5
-1.025, -1.199e-5
-1.024, -1.225e-5
-1.023, -1.258e-5
-1.022, -1.267e-5
-1.021, -1.243e-5
-1.020, -1.228e-5
-1.019, -1.270e-5
-1.018, -1.294e-5
-1.017, -1.299e-5
-1.016, -1.283e-5
-1.015, -1.277e-5
-1.014, -1.311e-5
-1.013, -1.342e-5
-1.012, -1.335e-5
-1.011, -1.344e-5
-1.010, -1.316e-5
-1.009, -1.354e-5
-1.008, -1.381e-5
-1.007, -1.390e-5
-1.006, -1.382e-5
-1.005, -1.373e-5
-1.004, -1.393e-5
-1.003, -1.438e-5
-1.002, -1.444e-5
-1.001, -1.434e-5
