Potential V vs RHE, Current mA cm-2
0.013299999999999867,0.3799914551437488
0.012299999999999978,-0.3313253864283916
0.011299999999999866,-0.7145706775618301
0.010299999999999976,-0.9521007048091696
0.009299999999999864,-1.1596388524993706
0.008299999999999974,-1.2726742853585868
0.007299999999999862,-1.4039594939860625
0.006299999999999972,-1.501008689156804
0.00529999999999986,-1.5689148315503256
0.0042999999999999705,-1.6622857773414181
0.0032999999999998586,-1.7103859615368293
0.0022999999999999687,-1.7867803717295414
0.0012999999999998568,-1.8447835350240078
0.00029999999999996696,-1.8801513175206337
-0.000700000000000145,-1.9508868825138854
-0.0017000000000000348,-1.9791811085111866
-0.0027000000000001467,-2.0329401379060577
-0.0037000000000000366,-2.076796188201874
-0.0047000000000001485,-2.1093345480987695
-0.005700000000000038,-2.1687524226931014
-0.00670000000000015,-2.1871436695913467
-0.00770000000000004,-2.2338291424868926
-0.008700000000000152,-2.2649527910839233
-0.009700000000000042,-2.296076439680954
-0.010700000000000154,-2.349835469075826
-0.011700000000000044,-2.3639825820744766
-0.012700000000000156,-2.4064239210704272
-0.013700000000000045,-2.4347181470677284
-0.014700000000000157,-2.457353527865569
-0.015700000000000047,-2.49979486686152
-0.01670000000000016,-2.5111125572604402
-0.01770000000000005,-2.5606274527557162
-0.01870000000000016,-2.581848122253692
-0.01970000000000005,-2.5959952352523423
-0.020700000000000163,-2.6426807081478887
-0.021700000000000053,-2.6455101307476188
-0.022700000000000164,-2.69361031494303
-0.023700000000000054,-2.712001561841275
-0.024700000000000166,-2.7219045409403306
-0.025700000000000056,-2.7742488590353367
-0.026700000000000168,-2.7770782816350668
-0.027700000000000058,-2.8082019302320975
-0.02870000000000017,-2.8294225997300737
-0.02970000000000006,-2.840740290128994
-0.03070000000000017,-2.89025518562427
-0.03170000000000006,-2.88742576302454
-0.03270000000000017,-2.922793545521166
-0.03370000000000006,-2.941184792419411
-0.034700000000000175,-2.9482583489187366
-0.035700000000000065,-2.9921143992145525
-0.03670000000000018,-2.9878702653149576
-0.03770000000000007,-3.0189939139119883
-0.03870000000000018,-3.0402145834099636
-0.03970000000000007,-3.043044006009694
-0.04070000000000018,-3.076997077206455
-0.04170000000000007,-3.07841178850632
-0.04270000000000018,-3.1024618806040256
-0.04370000000000007,-3.1180237049025408
-0.044700000000000184,-3.125097261401866
-0.045700000000000074,-3.156220909998897
-0.046700000000000186,-3.1576356212987617
-0.047700000000000076,-3.178856290796737
-0.04870000000000019,-3.1887592698957925
-0.04970000000000008,-3.202906382894443
-0.05070000000000019,-3.2312006088917435
-0.05170000000000008,-3.2269564749921487
-0.05270000000000019,-3.2510065670898545
-0.05370000000000008,-3.2580801235891794
-0.05470000000000019,-3.265153680088505
-0.05570000000000008,-3.2948626173856703
-0.056700000000000195,-3.2892037721862106
-0.057700000000000085,-3.314668575583781
-0.058700000000000196,-3.3203274207832414
-0.059700000000000086,-3.3245715546828363
-0.0607000000000002,-3.358524625879597
-0.06170000000000009,-3.3542804919800018
-0.0627000000000002,-3.3854041405770325
-0.06370000000000009,-3.3854041405770325
-0.0647000000000002,-3.3839894292771677
-0.06570000000000009,-3.4179425004739286
-0.0667000000000002,-3.400965964875548
-0.0677000000000001,-3.4335043247724437
-0.0687000000000002,-3.4419925925716344
-0.0697000000000001,-3.440577881271769
-0.07070000000000021,-3.473116241168665
-0.0717000000000001,-3.4575544168701495
-0.07270000000000021,-3.4858486428674507
-0.0737000000000001,-3.5014104671659654
-0.07470000000000021,-3.4971663332663705
-0.0757000000000001,-3.5268752705635364
-0.07670000000000021,-3.519801714064211
-0.0777000000000001,-3.543851806161917
-0.07870000000000021,-3.559413630460432
-0.0797000000000001,-3.5608283417602973
-0.08070000000000022,-3.590537279057463
-0.0817000000000001,-3.583463722558138
-0.08270000000000022,-3.6032696807562488
-0.08370000000000011,-3.6174167937548987
-0.08470000000000022,-3.6216609276544935
-0.08570000000000011,-3.6541992875513896
-0.08670000000000022,-3.647125731052064
-0.08770000000000011,-3.67683466834923
-0.08870000000000022,-3.690981781347881
-0.08970000000000011,-3.695225915247476
-0.09070000000000022,-3.7221054299449117
-0.09170000000000011,-3.7178612960453163
-0.09270000000000023,-3.751814367242077
-0.09370000000000012,-3.7617173463411326
-0.09470000000000023,-3.768790902840458
-0.09570000000000012,-3.798499840137624
-0.09670000000000023,-3.7928409949381634
-0.09770000000000012,-3.8282087774347895
-0.09870000000000023,-3.832452911334385
-0.09970000000000012,-3.84235589043344
-0.10070000000000023,-3.8791383842299307
-0.10170000000000012,-3.8734795390304706
-0.10270000000000024,-3.910262032826961
-0.10370000000000013,-3.9173355893262864
-0.10470000000000024,-3.922994434525747
-0.10570000000000013,-3.9640210622218324
-0.10670000000000024,-3.961191639622102
-0.10770000000000013,-3.986656443019674
-0.10870000000000024,-4.003632978618054
-0.10970000000000013,-4.0050476899179195
-0.11070000000000024,-4.050318451513601
-0.11170000000000013,-4.048903740213735
-0.11270000000000002,-4.081442100110631
-0.11370000000000013,-4.094174501809416
-0.11470000000000002,-4.095589213109282
-0.11570000000000014,-4.138030552105232
-0.11670000000000003,-4.130956995605907
-0.11770000000000014,-4.159251221603208
-0.11870000000000003,-4.184716025000778
-0.11970000000000014,-4.187545447600509
-0.12070000000000003,-4.224327941396999
-0.12170000000000014,-4.222913230097134
-0.12270000000000003,-4.251207456094435
-0.12370000000000014,-4.26393985779322
-0.12470000000000003,-4.27525754819214
-0.12570000000000014,-4.313454753288497
-0.12670000000000003,-4.310625330688767
-0.12770000000000015,-4.3403342679859325
-0.12870000000000004,-4.355896092284448
-0.12970000000000015,-4.367213782683368
-0.13070000000000004,-4.398337431280399
-0.13170000000000015,-4.402581565179994
-0.13270000000000004,-4.433705213777024
-0.13370000000000015,-4.4393640589764845
-0.13470000000000004,-4.450681749375406
-0.13570000000000015,-4.486049531872031
-0.13670000000000004,-4.4846348205721664
-0.13770000000000016,-4.521417314368658
-0.13870000000000005,-4.5369791386671725
-0.13970000000000016,-4.545467406466363
-0.14070000000000005,-4.582249900262854
-0.14170000000000016,-4.570932209863933
-0.14270000000000005,-4.604885281060694
-0.14370000000000016,-4.6218618166590755
-0.14470000000000005,-4.627520661858535
-0.14570000000000016,-4.671376712154351
-0.14670000000000005,-4.6614737330552956
-0.14770000000000016,-4.696841515551922
-0.14870000000000005,-4.705329783351112
-0.14970000000000017,-4.7138180511503025
-0.15070000000000006,-4.759088812745984
-0.15170000000000017,-4.750600544946793
-0.15270000000000006,-4.783138904843689
-0.15370000000000017,-4.80577428564153
-0.15470000000000006,-4.80860370824126
-0.15570000000000017,-4.84821562463748
-0.15670000000000006,-4.846800913337615
-0.15770000000000017,-4.879339273234511
-0.15870000000000006,-4.8977305201327574
-0.15970000000000018,-4.904804076632082
-0.16070000000000007,-4.941586570428573
-0.16170000000000018,-4.945830704328168
-0.16270000000000007,-4.974124930325469
-0.16370000000000018,-4.992516177223715
-0.16470000000000007,-5.002419156322769
-0.16570000000000018,-5.039201650119261
-0.16670000000000007,-5.043445784018855
-0.16770000000000018,-5.073154721316022
-0.16870000000000007,-5.084472411714942
-0.16970000000000018,-5.091545968214268
-0.17070000000000007,-5.128328462010757
-0.17170000000000019,-5.135402018510083
-0.17270000000000008,-5.172184512306574
-0.1737000000000002,-5.183502202705494
-0.17470000000000008,-5.196234604404279
-0.1757000000000002,-5.23018767560104
-0.17670000000000008,-5.2386759434002315
-0.1777000000000002,-5.279702571096316
-0.17870000000000008,-5.282531993696048
-0.1797000000000002,-5.289605550195372
-0.18070000000000008,-5.337705734390783
-0.1817000000000002,-5.336291023090919
-0.18270000000000008,-5.3702440942876795
-0.1837000000000002,-5.3815617846866
-0.1847000000000001,-5.39570889768525
-0.1857000000000002,-5.443809081880661
-0.1867000000000001,-5.436735525381336
-0.1877000000000002,-5.474932730477692
-0.1887000000000001,-5.493323977375938
-0.1897000000000002,-5.504641667774858
-0.1907000000000001,-5.548497718070673
-0.1917000000000001,-5.540009450271484
-0.19269999999999998,-5.579621366667705
-0.1937000000000001,-5.59801261356595
-0.19469999999999998,-5.612159726564601
-0.1957000000000001,-5.651771642960822
-0.19669999999999999,-5.648942220361092
-0.1977000000000001,-5.682895291557853
-0.1987,-5.705530672355693
-0.1997000000000001,-5.716848362754614
-0.2007,-5.763533835650159
-0.2017000000000001,-5.75504556785097
-0.2027,-5.793242772947325
-0.2037000000000001,-5.811634019845571
-0.2047,-5.8229517102444905
-0.2057000000000001,-5.858319492741117
-0.2067,-5.863978337940577
-0.2077000000000001,-5.897931409137338
-0.2087,-5.916322656035583
-0.2097000000000001,-5.9347139029338285
-0.2107,-5.97149639673032
-0.2117000000000001,-5.96583755153086
-0.2127,-6.001205334027486
-0.2137000000000001,-6.026670137425056
-0.2147,-6.047890806923031
-0.2157000000000001,-6.098820413718173
-0.2167,-6.090332145918983
-0.21770000000000012,-6.128529351015339
-0.2187,-6.144091175313854
-0.21970000000000012,-6.15682357701264
-0.2207,-6.187947225609671
-0.22170000000000012,-6.18511780300994
-0.2227,-6.226144430706027
-0.22370000000000012,-6.245950388904137
-0.2247,-6.254438656703328
-0.22570000000000012,-6.296879995699278
-0.2267,-6.301124129598874
-0.22770000000000012,-6.336491912095499
-0.22870000000000001,-6.352053736394015
-0.22970000000000013,-6.363371426792935
-0.23070000000000002,-6.411471610988346
-0.23170000000000013,-6.408642188388616
-0.23270000000000002,-6.444009970885243
-0.23370000000000013,-6.468060062982947
-0.23470000000000002,-6.4793777533818675
-0.23570000000000013,-6.514745535878494
-0.23670000000000002,-6.513330824578629
-0.2376999999999999,-6.554357452274714
-0.23870000000000002,-6.575578121772692
-0.2396999999999999,-6.581236966972151
-0.24070000000000003,-6.629337151167562
-0.24169999999999991,-6.625093017267967
-0.24270000000000003,-6.660460799764593
-0.24369999999999992,-6.687340314462029
-0.24470000000000003,-6.700072716160815
-0.24569999999999992,-6.73261107605771
-0.24670000000000003,-6.7410993438569
-0.24769999999999992,-6.776467126353525
-0.24870000000000003,-6.799102507151367
-0.24969999999999992,-6.813249620150017
-0.25070000000000003,-6.848617402646643
-0.2516999999999999,-6.854276247846103
-0.25270000000000004,-6.895302875542188
-0.2536999999999999,-6.915108833740299
-0.25470000000000004,-6.9250118128393545
-0.2556999999999999,-6.960379595335981
-0.25670000000000004,-6.977356130934361
-0.25769999999999993,-7.018382758630446
-0.25870000000000004,-7.033944582928963
-0.25969999999999993,-7.049506407227478
-0.26070000000000004,-7.097606591422889
-0.26169999999999993,-7.107509570521944
-0.26270000000000004,-7.147121486918166
-0.26369999999999993,-7.172586290315736
-0.26470000000000005,-7.188148114614252
-0.26569999999999994,-7.241907144009123
-0.26670000000000005,-7.263127813507099
-0.26769999999999994,-7.2999103073035885
-0.26870000000000005,-7.323960399401294
-0.26969999999999994,-7.343766357599406
-0.27070000000000005,-7.407428366093333
-0.27169999999999994,-7.4244049016917115
-0.27270000000000005,-7.464016818087933
-0.27369999999999994,-7.4937257553851
-0.27470000000000006,-7.51919055878267
-0.27569999999999995,-7.578608433377001
-0.27670000000000006,-7.602658525474708
-0.27769999999999995,-7.655002843569713
-0.27870000000000006,-7.697444182565665
-0.27969999999999995,-7.724323697263101
-0.28070000000000006,-7.796473973556218
-0.28169999999999995,-7.833256467352707
-0.28270000000000006,-7.879941940248254
-0.28369999999999995,-7.926627413143801
-0.28470000000000006,-7.977557019938943
-0.28569999999999995,-8.056780852731386
-0.28670000000000007,-8.092148635228009
-0.28769999999999996,-8.157225355021803
-0.28870000000000007,-8.210984384416673
-0.28969999999999996,-8.274646392910599
-0.29070000000000007,-8.366602627401825
-0.29169999999999996,-8.413288100297372
-0.29270000000000007,-8.48826779919022
-0.29369999999999996,-8.559003364183472
-0.2947000000000001,-8.638227196975913
-0.29569999999999996,-8.738671699266332
-0.2967000000000001,-8.805163130359988
-0.29769999999999996,-8.909851766550002
-0.2987000000000001,-8.996149155841769
-0.29969999999999997,-9.093764235532456
-0.3007000000000001,-9.216844118620713
-0.30169999999999997,-9.307385641812077
-0.3027000000000001,-9.44319792659912
-0.30369999999999997,-9.566277809687378
-0.3047000000000001,-9.689357692775637
-0.30569999999999997,-9.846390647060655
-0.3067000000000001,-9.968055818849047
-0.3077,-10.134991752233123
-0.3087000000000001,-10.293439417818007
-0.3097,-10.458960639902216
-0.3107000000000001,-10.666923200982376
-0.3117,-10.842347402165641
-0.3127000000000001,-11.058798231044992
-0.3137,-11.282322616423668
-0.3147000000000001,-11.500188156602883
-0.3157,-11.78030099397616
-0.3167000000000001,-12.029290182752407
-0.3177,-12.320720710524604
-0.3187000000000001,-12.619224794796127
-0.3197,-12.931875992066301
-0.3207000000000001,-13.298286218731345
-0.3217,-13.644890487198278
-0.3227000000000001,-14.042424362460354
-0.3237,-14.458349484620674
-0.3247000000000001,-14.896909987578834
-0.3257,-15.3920589425316
-0.3267000000000001,-15.88720789748436
-0.3277,-16.424798191433077
-0.3287000000000001,-16.99068271137909
-0.3297,-17.584861457322408
-0.3307000000000001,-18.23562865526032
-0.3317,-18.88639585319824
-0.3327000000000001,-19.60789861612941
-0.3337,-20.371842718056527
-0.3347000000000001,-21.149933932982297
-0.3357,-21.95631937390537
-0.3367000000000001,-22.790999040825742
-0.3377,-23.66812004674206
-0.3387000000000001,-24.57353527865569
-0.3397,-25.478950510569312
-0.3407000000000001,-26.398512855481584
-0.3417,-27.31807520039386
-0.3427000000000001,-28.294225997300735
-0.3437,-29.27037679420761
-0.3447000000000001,-30.232380478115836
-0.3457,-31.20853127502271
-0.3467000000000001,-32.170534958930936
-0.3477,-33.17497998183511
-0.3487000000000001,-34.193572117737936
-0.3497,-35.14142868864751
-0.3507000000000001,-36.11757948555439
-0.3517,-37.07958316946261
-0.3527000000000001,-38.09817530536544
-0.3537,-39.10262032826961
-0.3547000000000001,-40.05047689917919
-0.3557,-41.04077480908471
-0.35670000000000013,-42.03107271899024
-0.3577,-43.02137062889577
-0.35870000000000013,-44.011668538801295
-0.3597,-44.98781933570817
-0.36070000000000013,-46.006411471610996
-0.3617,-46.982562268517874
-0.3626999999999999,-47.987007291422046
-0.3637,-48.94901097533027
-0.3646999999999999,-49.925161772237146
-0.3657,-50.915459682142675
-0.3666999999999999,-51.89161047904954
-0.3677,-52.853614162957776
-0.3686999999999999,-53.815617846866
-0.36970000000000003,-54.80591575677152
-0.3706999999999999,-55.82450789267435
-0.37170000000000003,-56.800658689581226
-0.3726999999999999,-57.76266237348945
-0.37370000000000003,-58.71051894439902
-0.3746999999999999,-59.67252262830725
-0.37570000000000003,-60.62037919921682
-0.3766999999999999,-61.5965299961237
-0.37770000000000004,-62.61512213202652
-0.3786999999999999,-63.5346844769388
-0.37970000000000004,-64.48254104784839
-0.3806999999999999,-65.54357452274715
-0.38170000000000004,-66.44898975466076
-0.38269999999999993,-67.3826992125717
-0.38370000000000004,-68.33055578348127
-0.38469999999999993,-69.3491479193841
-0.38570000000000004,-70.32529871629096
-0.38669999999999993,-70.25456315129772
-0.38570000000000004,-69.26426524139221
-0.38469999999999993,-68.40129134847452
-0.38370000000000004,-67.48172900356225
-0.38269999999999993,-66.57631377164863
-0.38170000000000004,-65.68504565273366
-0.3806999999999999,-64.82207175981598
-0.37970000000000004,-63.930803640901004
-0.3786999999999999,-63.05368263498469
-0.37770000000000004,-62.233150081062966
-0.3766999999999999,-61.29944062315204
-0.37570000000000003,-60.40817250423707
-0.3746999999999999,-59.53105149832074
-0.37370000000000003,-58.66807760540307
-0.3726999999999999,-57.904133503475954
-0.37170000000000003,-57.012865384560975
-0.3706999999999999,-56.12159726564601
-0.36970000000000003,-55.25862337272834
-0.3686999999999999,-54.494679270801214
-0.3677,-53.67414671687949
-0.3666999999999999,-52.78287859796452
-0.3657,-51.948198931044146
-0.3646999999999999,-51.19840194211567
-0.3637,-50.40616361419126
-0.3626999999999999,-49.628072399265484
-0.3617,-48.76509850634781
-0.36070000000000013,-48.001154404420696
-0.3597,-47.23721030249357
-0.35870000000000013,-46.41667774857186
-0.3577,-45.624439420647434
-0.35670000000000013,-44.78975975372706
-0.3557,-44.054109877797245
-0.3547000000000001,-43.31846000186743
-0.3537,-42.582810125937606
-0.3527000000000001,-41.83301313700913
-0.3517,-41.06906903508202
-0.3507000000000001,-40.36171338514949
-0.3497,-39.66850484821563
-0.3487000000000001,-39.074326102272316
-0.3477,-38.38111756533845
-0.3467000000000001,-37.673761915405926
-0.3457,-37.037141830466666
-0.3447000000000001,-36.37222751953009
-0.3437,-35.679018982596226
-0.3427000000000001,-34.98581044566235
-0.3417,-34.377484586720385
-0.3407000000000001,-33.655981823789226
-0.3397,-32.93447906085806
-0.3387000000000001,-32.297858975918786
-0.3377,-31.689533116976815
-0.3367000000000001,-31.08120725803486
-0.3357,-30.487028512091538
-0.3347000000000001,-29.836261314153624
-0.3337,-29.199641229214354
-0.3327000000000001,-28.619609596269694
-0.3317,-28.02543085032638
-0.3307000000000001,-27.459546330380363
-0.3297,-26.879514697435695
-0.3287000000000001,-26.28533595149238
-0.3277,-25.747745657543668
-0.3267000000000001,-25.196008250596304
-0.3257,-24.64427084364894
-0.3247000000000001,-24.092533436701576
-0.3237,-23.55494314275286
-0.3227000000000001,-23.059794187800097
-0.3217,-22.522203893851387
-0.3207000000000001,-21.98461359990267
-0.3197,-21.47531753195126
-0.3187000000000001,-20.966021463999844
-0.3177,-20.48501962204573
-0.3167000000000001,-19.98987066709297
-0.3157,-19.508868825138855
-0.3147000000000001,-19.027866983184744
-0.3137,-18.546865141230633
-0.3127000000000001,-18.10830463827247
-0.3117,-17.641449909317007
-0.3107000000000001,-17.217036519357496
-0.3097,-16.806770242396635
-0.3087000000000001,-16.368209739438473
-0.3077,-15.972090575476265
-0.3067000000000001,-15.533530072518102
-0.30569999999999997,-15.151558021554543
-0.3047000000000001,-14.755438857592333
-0.30369999999999997,-14.359319693630123
-0.3027000000000001,-13.988665333065482
-0.30169999999999997,-13.588302035203677
-0.3007000000000001,-13.244527189336473
-0.29969999999999997,-12.879531673971293
-0.2987000000000001,-12.524439137705171
-0.29769999999999996,-12.18490842573756
-0.2967000000000001,-11.814254065172921
-0.29569999999999996,-11.483211621004504
-0.2947000000000001,-11.15075446553622
-0.29369999999999996,-10.822541443967529
-0.29270000000000007,-10.525452070995872
-0.29169999999999996,-10.19865376072705
-0.29070000000000007,-9.908637944254718
-0.28969999999999996,-9.62003683908225
-0.28870000000000007,-9.32577688871032
-0.28769999999999996,-9.06405529823529
-0.28670000000000007,-8.761307080064174
-0.28569999999999995,-8.50241491218887
-0.28470000000000006,-8.24352274431357
-0.28369999999999995,-7.973312886039348
-0.28270000000000006,-7.742714944161346
-0.28169999999999995,-7.473919797186989
-0.28070000000000006,-7.241907144009123
-0.27969999999999995,-7.009894490831256
-0.27870000000000006,-6.7693935698542
-0.27769999999999995,-6.55011331837512
-0.27670000000000006,-6.31385653129766
-0.27569999999999995,-6.103064547617769
-0.27470000000000006,-5.905004965636663
-0.27369999999999994,-5.687139425457448
-0.27270000000000005,-5.496153399975667
-0.27169999999999994,-5.288190838895507
-0.27070000000000005,-5.102863658613187
-0.26969999999999994,-4.920365900930598
-0.26870000000000005,-4.723721030249357
-0.26769999999999994,-4.539808561266903
-0.26670000000000005,-4.341748979285797
-0.26569999999999994,-4.186130736300643
