Potential V vs RHE, Current mA cm-2
0.013299999999999867,-0.45100996239697366
0.012299999999999978,-0.9591742613084948
0.011299999999999866,-1.1691174182084663
0.010299999999999976,-1.280879610897804
0.009299999999999864,-1.3544445984907862
0.008299999999999974,-1.3944809282769666
0.007299999999999862,-1.427443701563822
0.006299999999999972,-1.4571526388609877
0.00529999999999986,-1.4797880196588282
0.0042999999999999705,-1.5080822456561291
0.0032999999999998586,-1.5307176264539697
0.0022999999999999687,-1.540620605553025
0.0012999999999998568,-1.5646706976507305
0.00029999999999996696,-1.5816472332491107
-0.000700000000000145,-1.6071120366466816
-0.0017000000000000348,-1.6283327061446573
-0.0027000000000001467,-1.6396503965435776
-0.0037000000000000366,-1.6594563547416883
-0.0047000000000001485,-1.6820917355395286
-0.005700000000000038,-1.7047271163373692
-0.00670000000000015,-1.7245330745354797
-0.00770000000000004,-1.7400948988339953
-0.008700000000000152,-1.7627302796318356
-0.009700000000000042,-1.7867803717295414
-0.010700000000000154,-1.815074597726842
-0.011700000000000044,-1.8391246898245475
-0.012700000000000156,-1.8532718028231983
-0.013700000000000045,-1.8716630497214433
-0.014700000000000157,-1.9056161209182045
-0.015700000000000047,-1.9310809243157752
-0.01670000000000016,-1.9579604390132106
-0.01770000000000005,-1.9820105311109162
-0.01870000000000016,-2.004645911908757
-0.01970000000000005,-2.0329401379060577
-0.020700000000000163,-2.0697226317025486
-0.021700000000000053,-2.0937727238002544
-0.022700000000000164,-2.122066949797555
-0.023700000000000054,-2.1531905983945863
-0.024700000000000166,-2.184314246991617
-0.025700000000000056,-2.226755585987568
-0.026700000000000168,-2.253635100685003
-0.027700000000000058,-2.2875881718817643
-0.02870000000000017,-2.3158823978790646
-0.02970000000000006,-2.355494314275286
-0.03070000000000017,-2.3993503645711023
-0.03170000000000006,-2.4318887244679983
-0.03270000000000017,-2.4700859295643536
-0.03370000000000006,-2.50262428946125
-0.034700000000000175,-2.5408214945576058
-0.035700000000000065,-2.586092256153287
-0.03670000000000018,-2.629948306449103
-0.03770000000000007,-2.663901377645864
-0.03870000000000018,-2.706342716641815
-0.03970000000000007,-2.7473693443379013
-0.04070000000000018,-2.7968842398331777
-0.04170000000000007,-2.840740290128994
-0.04270000000000018,-2.877522783925485
-0.04370000000000007,-2.9213788342213007
-0.044700000000000184,-2.9694790184167124
-0.045700000000000074,-3.0147497800123935
-0.046700000000000186,-3.069923520707129
-0.047700000000000076,-3.1081207258034858
-0.04870000000000019,-3.153391487399167
-0.04970000000000008,-3.207150516794038
-0.05070000000000019,-3.2510065670898545
-0.05170000000000008,-3.3061803077845906
-0.05270000000000019,-3.351451069380272
-0.05370000000000008,-3.3981365422758185
-0.05470000000000019,-3.45472499427042
-0.05570000000000008,-3.505654601065561
-0.056700000000000195,-3.5608283417602973
-0.057700000000000085,-3.606099103355979
-0.058700000000000196,-3.6541992875513896
-0.059700000000000086,-3.7122024508458558
-0.0607000000000002,-3.7617173463411326
-0.06170000000000009,-3.8267940661349247
-0.0627000000000002,-3.86782069383101
-0.06370000000000009,-3.9215797232258818
-0.0647000000000002,-3.9725093300210226
-0.06570000000000009,-4.034756627215084
-0.0667000000000002,-4.080027388810766
-0.0677000000000001,-4.133786418205637
-0.0687000000000002,-4.187545447600509
-0.0697000000000001,-4.24413389959511
-0.07070000000000021,-4.303551774189442
-0.0717000000000001,-4.353066669684718
-0.07270000000000021,-4.405410987779724
-0.0737000000000001,-4.457755305874731
-0.07470000000000021,-4.515758469169198
-0.0757000000000001,-4.5765910550633935
-0.07670000000000021,-4.633179507057995
-0.0777000000000001,-4.682694402553271
-0.07870000000000021,-4.739282854547873
-0.0797000000000001,-4.793041883942744
-0.08070000000000022,-4.8581186037365365
-0.0817000000000001,-4.913292344431272
-0.08270000000000022,-4.968466085126009
-0.08370000000000011,-5.017980980621284
-0.08470000000000022,-5.080228277815347
-0.08570000000000011,-5.143890286309273
-0.08670000000000022,-5.201893449603739
-0.08770000000000011,-5.252823056398881
-0.08870000000000022,-5.305167374493887
-0.08970000000000011,-5.374488228187275
-0.09070000000000022,-5.425417834982416
-0.09170000000000011,-5.491909266076072
-0.09270000000000023,-5.551327140670404
-0.09370000000000012,-5.607915592665005
-0.09470000000000023,-5.670162889859067
-0.09570000000000012,-5.7309954757532635
-0.09670000000000023,-5.801731040746516
-0.09770000000000012,-5.859734204040981
-0.09870000000000023,-5.919152078635313
-0.09970000000000012,-5.984228798429105
-0.10070000000000023,-6.057793786022088
-0.10170000000000012,-6.117211660616419
-0.10270000000000024,-6.189361936909536
-0.10370000000000013,-6.2431209663044065
-0.10470000000000024,-6.311027108697928
-0.10570000000000013,-6.398739209289561
-0.10670000000000024,-6.465230640383218
-0.10770000000000013,-6.528892648877145
-0.10870000000000024,-6.5840663895718805
-0.10970000000000013,-6.661875511064458
-0.11070000000000024,-6.7410993438569
-0.11170000000000013,-6.811834908850152
-0.11270000000000002,-6.893888164242324
-0.11370000000000013,-6.963209017935711
-0.11470000000000002,-7.050921118527342
-0.11570000000000014,-7.127315528720055
-0.11670000000000003,-7.213612918011822
-0.11770000000000014,-7.290007328204534
-0.11870000000000003,-7.379134140096031
-0.11970000000000014,-7.458357972888473
-0.12070000000000003,-7.555973052579161
-0.12170000000000014,-7.662076400069039
-0.12270000000000003,-7.7328119650622895
-0.12370000000000014,-7.831841756052842
-0.12470000000000003,-7.9153097227448805
-0.12570000000000014,-8.017168936335162
-0.12670000000000003,-8.110539882126256
-0.12770000000000015,-8.278890526810194
-0.12870000000000004,-8.346796669203718
-0.12970000000000015,-8.428849924595887
-0.13070000000000004,-8.526465004286575
-0.13170000000000015,-8.607103548378884
-0.13270000000000004,-8.697645071570244
-0.13370000000000015,-8.765551213963766
-0.13470000000000004,-8.854678025855264
-0.13570000000000015,-8.932487147347842
-0.13670000000000004,-9.01878453663961
-0.13770000000000016,-9.102252503331647
-0.13870000000000005,-9.165914511825573
-0.13970000000000016,-9.247967767217744
-0.14070000000000005,-9.313044487011537
-0.14170000000000016,-9.376706495505463
-0.14270000000000005,-9.427636102300605
-0.14370000000000016,-9.46583330739696
-0.14470000000000005,-9.515348202892236
-0.14570000000000016,-9.571936654886837
-0.14670000000000005,-9.625695684281709
-0.14770000000000016,-9.6624781780782
-0.14870000000000005,-9.680869424976446
-0.14970000000000017,-9.714822496173207
-0.15070000000000006,-9.7516049899697
-0.15170000000000017,-9.779899215967
-0.15270000000000006,-9.788387483766188
-0.15370000000000017,-9.815266998463624
-0.15470000000000006,-9.823755266262815
-0.15570000000000017,-9.839317090561332
-0.15670000000000006,-9.837902379261465
-0.15770000000000017,-9.832243534062004
-0.15870000000000006,-9.8364876679616
-0.15970000000000018,-9.82516997756268
-0.16070000000000007,-9.829414111462276
-0.16170000000000018,-9.83365824536187
-0.16270000000000007,-9.815266998463624
-0.16370000000000018,-9.8081934419643
-0.16470000000000007,-9.803949308064706
-0.16570000000000018,-9.785558061166459
-0.16670000000000007,-9.764337391668482
-0.16770000000000018,-9.744531433470373
-0.16870000000000007,-9.716237207473073
-0.16970000000000018,-9.7190666300728
-0.17070000000000007,-9.672381157177256
-0.17170000000000019,-9.652575198979145
-0.17270000000000008,-9.62003683908225
-0.1737000000000002,-9.59174261308495
-0.17470000000000008,-9.570521943586973
-0.1757000000000002,-9.55496011928846
-0.17670000000000008,-9.532324738490617
-0.1777000000000002,-9.489883399494666
-0.17870000000000008,-9.470077441296555
-0.1797000000000002,-9.447442060498714
-0.18070000000000008,-9.42622139100074
-0.1817000000000002,-9.405000721502764
-0.18270000000000008,-9.376706495505463
-0.1837000000000002,-9.351241692107893
-0.1847000000000001,-9.321532754810727
-0.1857000000000002,-9.310215064411805
-0.1867000000000001,-9.281920838414505
-0.1877000000000002,-9.27767670451491
-0.1887000000000001,-9.243723633318151
-0.1897000000000002,-9.205526428221793
-0.1907000000000001,-9.194208737822873
-0.1917000000000001,-9.153182110126787
-0.19269999999999998,-9.216844118620713
-0.1937000000000001,-9.216844118620713
-0.19469999999999998,-9.144693842327596
-0.1957000000000001,-9.119229038930026
-0.19669999999999999,-9.086690679033131
-0.1977000000000001,-9.06688472083502
-0.1987,-9.042834628737316
-0.1997000000000001,-9.014540402740012
-0.2007,-8.996149155841769
-0.2017000000000001,-8.983416754142983
-0.2027,-8.952293105545952
-0.2037000000000001,-8.925413590848516
-0.2047,-8.901363498750811
-0.2057000000000001,-8.875898695353241
-0.2067,-8.867410427554049
-0.2077000000000001,-8.833457356357288
-0.2087,-8.813651398159179
-0.2097000000000001,-8.812236686859313
-0.2107,-8.779698326962418
-0.2117000000000001,-8.781113038262282
-0.2127,-8.755648234864712
-0.2137000000000001,-8.730183431467141
-0.2147,-8.725939297567548
-0.2157000000000001,-8.734427565366737
-0.2167,-8.701889205469842
-0.21770000000000012,-8.686327381171324
-0.2187,-8.666521422973215
-0.21970000000000012,-8.653789021274429
-0.2207,-8.64813017607497
-0.22170000000000012,-8.629738929176723
-0.2227,-8.61134768227848
-0.22370000000000012,-8.601444703179425
-0.2247,-8.578809322381582
-0.22570000000000012,-8.578809322381582
-0.2267,-8.566076920682798
-0.22770000000000012,-8.556173941583742
-0.22870000000000001,-8.540612117285226
-0.22970000000000013,-8.530709138186172
-0.23070000000000002,-8.529294426886306
-0.23170000000000013,-8.512317891287925
-0.23270000000000002,-8.506659046088465
-0.23370000000000013,-8.491097221789948
-0.23470000000000002,-8.47977953139103
-0.23570000000000013,-8.47977953139103
-0.23670000000000002,-8.47412068619157
-0.2376999999999999,-8.455729439293325
-0.23870000000000002,-8.455729439293325
-0.2396999999999999,-8.44016761499481
-0.24070000000000003,-8.438752903694944
-0.24169999999999991,-8.44016761499481
-0.24270000000000003,-8.423191079396428
-0.24369999999999992,-8.417532234196969
-0.24470000000000003,-8.41470281159724
-0.24569999999999992,-8.416117522897103
-0.24670000000000003,-8.417532234196969
-0.24769999999999992,-8.404799832498183
-0.24870000000000003,-8.410458677697642
-0.24969999999999992,-8.404799832498183
-0.25070000000000003,-8.403385121198317
-0.2516999999999999,-8.413288100297372
-0.25270000000000004,-8.406214543798049
-0.2536999999999999,-8.41470281159724
-0.25470000000000004,-8.413288100297372
-0.2556999999999999,-8.421776368096562
-0.25670000000000004,-8.423191079396428
-0.25769999999999993,-8.437338192395078
-0.25870000000000004,-8.44016761499481
-0.25969999999999993,-8.448655882793998
-0.26070000000000004,-8.469876552291973
-0.26169999999999993,-8.47977953139103
-0.26270000000000004,-8.496756066989409
-0.26369999999999993,-8.508073757388331
-0.26470000000000005,-8.529294426886306
-0.26569999999999994,-8.559003364183472
-0.26670000000000005,-8.595785857979964
-0.26769999999999994,-8.615591816178071
-0.26870000000000005,-8.63681248567605
-0.26969999999999994,-8.669350845572946
-0.27070000000000005,-8.716036318468491
-0.27169999999999994,-8.752818812264982
-0.27270000000000005,-8.796674862560797
-0.27369999999999994,-8.841945624156478
-0.27470000000000006,-8.897119364851218
-0.27569999999999995,-8.959366662045278
-0.27670000000000006,-9.025858093138934
-0.27769999999999995,-9.086690679033131
-0.27870000000000006,-9.158840955326248
-0.27969999999999995,-9.24089421071842
-0.28070000000000006,-9.327191600010188
-0.28169999999999995,-9.434709658799928
-0.28270000000000006,-9.516762914192102
-0.28369999999999995,-9.635598663380765
-0.28470000000000006,-9.754434412569427
-0.28569999999999995,-9.884587852157011
-0.28670000000000007,-10.02747369344338
-0.28769999999999996,-10.171774246029615
-0.28870000000000007,-10.331636622914363
-0.28969999999999996,-10.502816690198033
-0.29070000000000007,-10.689558581780219
-0.29169999999999996,-10.906009410659568
-0.29270000000000007,-11.106898415240401
-0.29369999999999996,-11.331837511918945
-0.2947000000000001,-11.58082670069519
-0.29569999999999996,-11.843963002470087
-0.2967000000000001,-12.132564107642555
-0.29769999999999996,-12.429653480614212
-0.2987000000000001,-12.74088996658452
-0.29969999999999997,-13.079005967252264
-0.3007000000000001,-13.441172060017713
-0.30169999999999997,-13.82172939968141
-0.3027000000000001,-14.217848563643619
-0.30369999999999997,-14.62811484060448
-0.3047000000000001,-15.080822456561293
-0.30569999999999997,-15.533530072518102
-0.3067000000000001,-16.02867902747086
-0.3077,-16.53797509542228
-0.3087000000000001,-17.047271163373694
-0.3097,-17.613155683319707
-0.3107000000000001,-18.17904020326572
-0.3117,-18.77321894920904
-0.3127000000000001,-19.381544808151002
-0.3137,-20.01816489309027
-0.3147000000000001,-20.668932091028186
-0.3157,-21.333846401964752
-0.3167000000000001,-22.027054938898623
-0.3177,-22.706116362833843
-0.3187000000000001,-23.44176623876366
-0.3197,-24.16326900169483
-0.3207000000000001,-24.927213103621945
-0.3217,-25.705304318547718
-0.3227000000000001,-26.483395533473487
-0.3237,-27.275633861397907
-0.3247000000000001,-28.06787218932233
-0.3257,-28.91669896924135
-0.3267000000000001,-29.73723152316307
-0.3277,-30.600205416080744
-0.3287000000000001,-31.434885083001117
-0.3297,-32.31200608891744
-0.3307000000000001,-33.203274207832415
-0.3317,-34.09454232674739
-0.3327000000000001,-35.014104671659666
-0.3337,-35.91951990357328
-0.3347000000000001,-36.8532293614842
-0.3357,-37.77279170639648
-0.3367000000000001,-38.734795390304704
-0.3377,-39.68265196121428
-0.3387000000000001,-40.616361419125205
-0.3397,-41.55007087703613
-0.3407000000000001,-42.4696332219484
-0.3417,-43.41748979285798
-0.3427000000000001,-44.3794934767662
-0.3437,-45.32735004767578
-0.3447000000000001,-46.27520661858535
-0.3457,-47.23721030249357
-0.3467000000000001,-48.1992139864018
-0.3477,-49.118776331314066
-0.3487000000000001,-50.109074241219595
-0.3497,-51.042783699130524
-0.3507000000000001,-51.934051818045496
-0.3517,-52.91020261495237
-0.3527000000000001,-53.77317650787004
-0.3537,-54.73518019177827
-0.3547000000000001,-55.626448310693235
-0.3557,-56.61674622059877
-0.35670000000000013,-57.52216145251239
-0.3577,-58.39928245842871
-0.35870000000000013,-59.20566789935179
-0.3597,-60.13937735726271
-0.36070000000000013,-61.10138104117093
-0.3617,-62.04923761208051
-0.3626999999999999,-62.95465284399414
-0.3637,-63.860068075907755
-0.3646999999999999,-64.82207175981598
-0.3657,-65.7557812177269
-0.3666999999999999,-66.67534356263918
-0.3677,-67.63734724654739
-0.3686999999999999,-68.55690959145967
-0.36970000000000003,-69.44817771037465
-0.3706999999999999,-70.45262273327883
-0.37170000000000003,-71.45706775618301
-0.3726999999999999,-72.47565989208583
-0.37370000000000003,-73.3952222369981
-0.3746999999999999,-74.44210859889823
-0.37570000000000003,-75.33337671781321
-0.3766999999999999,-76.25293906272547
-0.37770000000000004,-77.14420718164045
-0.3786999999999999,-78.07791663955136
-0.37970000000000004,-78.96918475846634
-0.3806999999999999,-79.97362978137053
-0.38170000000000004,-81.04881036926795
-0.38269999999999993,-82.15228518316268
-0.38370000000000004,-83.1708773190655
-0.38469999999999993,-83.89238008199668
-0.38570000000000004,-84.7977953139103
-0.38669999999999993,-84.38752903694943
-0.38570000000000004,-83.26990711005605
-0.38469999999999993,-82.57669857312219
-0.38370000000000004,-81.06295748226661
-0.38269999999999993,-80.31316049333813
-0.38170000000000004,-79.33700969643127
-0.3806999999999999,-78.45988869051493
-0.37970000000000004,-77.52617923260401
-0.3786999999999999,-76.49343998370253
-0.37770000000000004,-75.55973052579161
-0.3766999999999999,-74.59772684188339
-0.37570000000000003,-73.63572315797516
-0.3746999999999999,-72.63127813507097
-0.37370000000000003,-71.7117157901587
-0.3726999999999999,-70.72141788025318
-0.37170000000000003,-69.70282574435035
-0.3706999999999999,-68.86814607742998
-0.36970000000000003,-67.79296548953256
-0.3686999999999999,-66.81681469262568
-0.3677,-65.74163410472826
-0.3666999999999999,-64.73718908182407
-0.3657,-63.77518539791585
-0.3646999999999999,-62.572680793030564
-0.3637,-61.4267646401399
-0.3626999999999999,-60.49305518222897
-0.3617,-59.5734928373167
-0.36070000000000013,-58.583194927411164
-0.3597,-57.66363258249889
-0.35870000000000013,-56.67333467259337
-0.3577,-55.7537723276811
-0.35670000000000013,-54.890798434763425
-0.3557,-53.9287947508552
-0.3547000000000001,-53.22143910092268
-0.3537,-52.23114119101716
-0.3527000000000001,-51.52378554108463
-0.3517,-50.73154721316022
-0.3507000000000001,-49.925161772237146
-0.3497,-49.20365900930597
-0.3487000000000001,-48.35483222938696
-0.3477,-47.421122771476035
-0.3467000000000001,-46.529854652561056
-0.3457,-45.70932209863933
-0.3447000000000001,-44.81805397972436
-0.3437,-44.068256990795895
-0.3427000000000001,-43.27601866287147
-0.3417,-42.45548610894975
-0.3407000000000001,-41.59251221603208
-0.3397,-40.814421001106304
-0.3387000000000001,-40.07877112517649
-0.3377,-39.314827023249364
-0.3367000000000001,-38.6216184863155
-0.3357,-37.88596861038568
-0.3347000000000001,-37.192760073451815
-0.3337,-36.44296308452335
-0.3327000000000001,-35.735607434590825
-0.3317,-34.98581044566235
-0.3307000000000001,-34.26430768273119
-0.3297,-33.57109914579732
-0.3287000000000001,-32.8637434958648
-0.3277,-32.184682071929586
-0.3267000000000001,-31.505620647994366
-0.3257,-30.854853450056453
-0.3247000000000001,-30.204086252118536
-0.3237,-29.59576039317657
-0.3227000000000001,-28.987434534234602
-0.3217,-28.393255788291288
-0.3207000000000001,-27.827371268345274
-0.3197,-27.176604070407354
-0.3187000000000001,-26.58242532446404
-0.3177,-25.988246578520723
-0.3167000000000001,-25.39406783257741
-0.3157,-24.828183312631392
-0.3147000000000001,-24.262298792685378
-0.3137,-23.696414272739364
-0.3127000000000001,-23.073941300798747
-0.3117,-22.550498119848687
-0.3107000000000001,-22.04120205189727
-0.3097,-21.489464644949905
-0.3087000000000001,-20.980168576998494
-0.3077,-20.456725396048434
-0.3067000000000001,-19.97572355409432
-0.30569999999999997,-19.466427486142905
-0.3047000000000001,-18.985425644188794
-0.30369999999999997,-18.518570915233333
-0.3027000000000001,-18.06586329927652
-0.30169999999999997,-17.613155683319707
-0.3007000000000001,-17.160448067362896
-0.29969999999999997,-16.70774045140608
-0.2987000000000001,-16.269179948447924
-0.29769999999999996,-15.802325219492458
-0.2967000000000001,-15.3920589425316
-0.29569999999999996,-14.98179266557074
-0.2947000000000001,-14.57152638860988
-0.29369999999999996,-14.175407224647667
-0.29270000000000007,-13.789191039784512
-0.29169999999999996,-13.412877834020414
-0.29070000000000007,-13.040808762155907
-0.28969999999999996,-12.671569112891135
-0.28870000000000007,-12.312232442725414
-0.28769999999999996,-11.958554617759154
-0.28670000000000007,-11.60912092669249
-0.28569999999999995,-11.268175503425017
-0.28470000000000006,-10.937133059256597
-0.28369999999999995,-10.613164171587506
-0.28270000000000006,-10.306171819516793
-0.28169999999999995,-9.992105910946753
-0.28070000000000006,-9.68794298147577
-0.27969999999999995,-9.392268319803978
-0.27870000000000006,-9.09800836943205
-0.27769999999999995,-8.820724954658504
-0.27670000000000006,-8.554759230283878
-0.27569999999999995,-8.278890526810194
-0.27470000000000006,-8.02141307023476
-0.27369999999999994,-7.7512032119605365
-0.27270000000000005,-7.500799311884425
-0.27169999999999994,-7.2730307926061535
-0.27070000000000005,-7.038188716828557
-0.26969999999999994,-6.811834908850152
-0.26870000000000005,-6.592554657371071
-0.26769999999999994,-6.386006807590776
-0.26670000000000005,-6.1709706900112895
-0.26569999999999994,-5.957349283731669
-0.26470000000000005,-5.74938672265151
-0.26369999999999993,-5.552741851970269
