Potential V vs RHE, Current mA cm-2
0.013299999999999867,0.3031726315610774
0.012299999999999978,-0.9181476336124089
0.011299999999999866,-1.7033124050375041
0.010299999999999976,-2.3569090255751513
0.009299999999999864,-2.8803522065252145
0.008299999999999974,-3.317497998183511
0.007299999999999862,-3.6655169779503103
0.006299999999999972,-3.927238568425342
0.00529999999999986,-4.146518819904423
0.0042999999999999705,-4.406825699079589
0.0032999999999998586,-4.626105950558669
0.0022999999999999687,-4.800115440442069
0.0012999999999998568,-4.974124930325469
0.00029999999999996696,-5.0618370309171015
-0.000700000000000145,-5.191990470504685
-0.0017000000000000348,-5.323558621392133
-0.0027000000000001467,-5.453712060979717
-0.0037000000000000366,-5.5414241615713475
-0.0047000000000001485,-5.629136262162981
-0.005700000000000038,-5.715433651454749
-0.00670000000000015,-5.847001802342197
-0.00770000000000004,-5.9347139029338285
-0.008700000000000152,-6.021011292225596
-0.009700000000000042,-6.021011292225596
-0.010700000000000154,-6.152579443113044
-0.011700000000000044,-6.238876832404812
-0.012700000000000156,-6.326588932996443
-0.013700000000000045,-6.37044498329226
-0.014700000000000157,-6.414301033588076
-0.015700000000000047,-6.500598422879844
-0.01670000000000016,-6.588310523471475
-0.01770000000000005,-6.6760226240631075
-0.01870000000000016,-6.719878674358924
-0.01970000000000005,-6.762320013354876
-0.020700000000000163,-6.806176063650692
-0.021700000000000053,-6.893888164242324
-0.022700000000000164,-6.981600264833956
-0.023700000000000054,-7.024041603829907
-0.024700000000000166,-7.067897654125724
-0.025700000000000056,-7.155609754717355
-0.026700000000000168,-7.243321855308987
-0.027700000000000058,-7.28576319430494
-0.02870000000000017,-7.329619244600755
-0.02970000000000006,-7.37347529489657
-0.03070000000000017,-7.461187395488204
-0.03170000000000006,-7.5474847847799715
-0.03270000000000017,-7.591340835075788
-0.03370000000000006,-7.635196885371603
-0.034700000000000175,-7.679052935667419
-0.035700000000000065,-7.722908985963235
-0.03670000000000018,-7.809206375255003
-0.03770000000000007,-7.853062425550818
-0.03870000000000018,-7.896918475846635
-0.03970000000000007,-7.940774526142452
-0.04070000000000018,-7.984630576438266
-0.04170000000000007,-8.070927965730034
-0.04270000000000018,-8.11478401602585
-0.04370000000000007,-8.11478401602585
-0.044700000000000184,-8.158640066321666
-0.045700000000000074,-8.202496116617484
-0.046700000000000186,-8.288793505909249
-0.047700000000000076,-8.332649556205066
-0.04870000000000019,-8.376505606500881
-0.04970000000000008,-8.376505606500881
-0.05070000000000019,-8.4203616567967
-0.05170000000000008,-8.508073757388331
-0.05270000000000019,-8.55051509638428
-0.05370000000000008,-8.55051509638428
-0.05470000000000019,-8.594371146680096
-0.05570000000000008,-8.594371146680096
-0.056700000000000195,-8.68208324727173
-0.057700000000000085,-8.725939297567548
-0.058700000000000196,-8.725939297567548
-0.059700000000000086,-8.725939297567548
-0.0607000000000002,-8.769795347863363
-0.06170000000000009,-8.85609273715513
-0.0627000000000002,-8.899948787450944
-0.06370000000000009,-8.85609273715513
-0.0647000000000002,-8.899948787450944
-0.06570000000000009,-8.943804837746763
-0.0667000000000002,-8.987660888042578
-0.0677000000000001,-9.031516938338395
-0.0687000000000002,-9.031516938338395
-0.0697000000000001,-8.987660888042578
-0.07070000000000021,-9.031516938338395
-0.0717000000000001,-9.073958277334345
-0.07270000000000021,-9.11781432763016
-0.0737000000000001,-9.11781432763016
-0.07470000000000021,-9.11781432763016
-0.0757000000000001,-9.161670377925978
-0.07670000000000021,-9.205526428221793
-0.0777000000000001,-9.24938247851761
-0.07870000000000021,-9.24938247851761
-0.0797000000000001,-9.24938247851761
-0.08070000000000022,-9.24938247851761
-0.0817000000000001,-9.293238528813426
-0.08270000000000022,-9.293238528813426
-0.08370000000000011,-9.293238528813426
-0.08470000000000022,-9.293238528813426
-0.08570000000000011,-9.335679867809377
-0.08670000000000022,-9.379535918105192
-0.08770000000000011,-9.379535918105192
-0.08870000000000022,-9.379535918105192
-0.08970000000000011,-9.379535918105192
-0.09070000000000022,-9.423391968401008
-0.09170000000000011,-9.467248018696827
-0.09270000000000023,-9.467248018696827
-0.09370000000000012,-9.467248018696827
-0.09470000000000023,-9.467248018696827
-0.09570000000000012,-9.467248018696827
-0.09670000000000023,-9.511104068992642
-0.09770000000000012,-9.55496011928846
-0.09870000000000023,-9.55496011928846
-0.09970000000000012,-9.55496011928846
-0.10070000000000023,-9.55496011928846
-0.10170000000000012,-9.59740145828441
-0.10270000000000024,-9.641257508580225
-0.10370000000000013,-9.59740145828441
-0.10470000000000024,-9.641257508580225
-0.10570000000000013,-9.641257508580225
-0.10670000000000024,-9.685113558876042
-0.10770000000000013,-9.728969609171857
-0.10870000000000024,-9.728969609171857
-0.10970000000000013,-9.728969609171857
-0.11070000000000024,-9.728969609171857
-0.11170000000000013,-9.772825659467674
-0.11270000000000002,-9.81668170976349
-0.11370000000000013,-9.81668170976349
-0.11470000000000002,-9.81668170976349
-0.11570000000000014,-9.81668170976349
-0.11670000000000003,-9.85912304875944
-0.11770000000000014,-9.902979099055257
-0.11870000000000003,-9.902979099055257
-0.11970000000000014,-9.902979099055257
-0.12070000000000003,-9.946835149351072
-0.12170000000000014,-9.99069119964689
-0.12270000000000003,-10.034547249942705
-0.12370000000000014,-9.99069119964689
-0.12470000000000003,-9.99069119964689
-0.12570000000000014,-10.034547249942705
-0.12670000000000003,-10.120844639234473
-0.12770000000000015,-10.120844639234473
-0.12870000000000004,-10.120844639234473
-0.12970000000000015,-10.120844639234473
-0.13070000000000004,-10.164700689530287
-0.13170000000000015,-10.208556739826104
-0.13270000000000004,-10.25241279012192
-0.13370000000000015,-10.25241279012192
-0.13470000000000004,-10.25241279012192
-0.13570000000000015,-10.296268840417738
-0.13670000000000004,-10.340124890713554
-0.13770000000000016,-10.382566229709504
-0.13870000000000005,-10.340124890713554
-0.13970000000000016,-10.340124890713554
-0.14070000000000005,-10.382566229709504
-0.14170000000000016,-10.42642228000532
-0.14270000000000005,-10.470278330301136
-0.14370000000000016,-10.470278330301136
-0.14470000000000005,-10.514134380596953
-0.14570000000000016,-10.514134380596953
-0.14670000000000005,-10.557990430892769
-0.14770000000000016,-10.601846481188586
-0.14870000000000005,-10.601846481188586
-0.14970000000000017,-10.601846481188586
-0.15070000000000006,-10.644287820184536
-0.15170000000000017,-10.688143870480351
-0.15270000000000006,-10.731999920776168
-0.15370000000000017,-10.731999920776168
-0.15470000000000006,-10.731999920776168
-0.15570000000000017,-10.775855971071984
-0.15670000000000006,-10.819712021367803
-0.15770000000000017,-10.819712021367803
-0.15870000000000006,-10.819712021367803
-0.15970000000000018,-10.819712021367803
-0.16070000000000007,-10.906009410659568
-0.16170000000000018,-10.949865460955383
-0.16270000000000007,-10.993721511251199
-0.16370000000000018,-10.993721511251199
-0.16470000000000007,-10.993721511251199
-0.16570000000000018,-11.037577561547016
-0.16670000000000007,-11.081433611842833
-0.16770000000000018,-11.081433611842833
-0.16870000000000007,-11.123874950838783
-0.16970000000000018,-11.123874950838783
-0.17070000000000007,-11.1677310011346
-0.17170000000000019,-11.211587051430415
-0.17270000000000008,-11.255443101726232
-0.1737000000000002,-11.255443101726232
-0.17470000000000008,-11.255443101726232
-0.1757000000000002,-11.255443101726232
-0.17670000000000008,-11.299299152022046
-0.1777000000000002,-11.343155202317865
-0.17870000000000008,-11.343155202317865
-0.1797000000000002,-11.343155202317865
-0.18070000000000008,-11.385596541313816
-0.1817000000000002,-11.473308641905447
-0.18270000000000008,-11.517164692201263
-0.1837000000000002,-11.517164692201263
-0.1847000000000001,-11.517164692201263
-0.1857000000000002,-11.56102074249708
-0.1867000000000001,-11.604876792792895
-0.1877000000000002,-11.604876792792895
-0.1887000000000001,-11.604876792792895
-0.1897000000000002,-11.647318131788847
-0.1907000000000001,-11.691174182084664
-0.1917000000000001,-11.73503023238048
-0.19269999999999998,-11.778886282676295
-0.1937000000000001,-11.778886282676295
-0.19469999999999998,-11.778886282676295
-0.1957000000000001,-11.82274233297211
-0.19669999999999999,-11.86659838326793
-0.1977000000000001,-11.909039722263879
-0.1987,-11.909039722263879
-0.1997000000000001,-11.909039722263879
-0.2007,-11.952895772559694
-0.2017000000000001,-12.040607873151327
-0.2027,-12.040607873151327
-0.2037000000000001,-12.084463923447142
-0.2047,-12.084463923447142
-0.2057000000000001,-12.12831997374296
-0.2067,-12.214617363034726
-0.2077000000000001,-12.258473413330542
-0.2087,-12.258473413330542
-0.2097000000000001,-12.258473413330542
-0.2107,-12.302329463626359
-0.2117000000000001,-12.346185513922174
-0.2127,-12.390041564217992
-0.2137000000000001,-12.390041564217992
-0.2147,-12.390041564217992
-0.2157000000000001,-12.476338953509758
-0.2167,-12.520195003805576
-0.21770000000000012,-12.56405105410139
-0.2187,-12.56405105410139
-0.21970000000000012,-12.56405105410139
-0.2207,-12.651763154693022
-0.22170000000000012,-12.694204493688973
-0.2227,-12.73806054398479
-0.22370000000000012,-12.73806054398479
-0.2247,-12.73806054398479
-0.22570000000000012,-12.781916594280606
-0.2267,-12.869628694872238
-0.22770000000000012,-12.913484745168056
-0.22870000000000001,-12.913484745168056
-0.22970000000000013,-12.913484745168056
-0.23070000000000002,-12.955926084164007
-0.23170000000000013,-13.043638184755638
-0.23270000000000002,-13.087494235051453
-0.23370000000000013,-13.087494235051453
-0.23470000000000002,-13.13135028534727
-0.23570000000000013,-13.175206335643086
-0.23670000000000002,-13.261503724934855
-0.2376999999999999,-13.261503724934855
-0.23870000000000002,-13.261503724934855
-0.2396999999999999,-13.30535977523067
-0.24070000000000003,-13.349215825526485
-0.24169999999999991,-13.436927926118118
-0.24270000000000003,-13.436927926118118
-0.24369999999999992,-13.47936926511407
-0.24470000000000003,-13.47936926511407
-0.24569999999999992,-13.523225315409885
-0.24670000000000003,-13.610937416001518
-0.24769999999999992,-13.654793466297335
-0.24870000000000003,-13.698649516593148
-0.24969999999999992,-13.698649516593148
-0.25070000000000003,-13.741090855589102
-0.2516999999999999,-13.828802956180734
-0.25270000000000004,-13.872659006476551
-0.2536999999999999,-13.872659006476551
-0.25470000000000004,-13.916515056772363
-0.2556999999999999,-13.960371107068182
-0.25670000000000004,-14.046668496359947
-0.25769999999999993,-14.090524546655764
-0.25870000000000004,-14.13438059695158
-0.25969999999999993,-14.13438059695158
-0.26070000000000004,-14.175407224647667
-0.26169999999999993,-14.26028990263957
-0.26270000000000004,-14.30273124163552
-0.26369999999999993,-14.345172580631472
-0.26470000000000005,-14.345172580631472
-0.26569999999999994,-14.444202371622024
-0.26670000000000005,-14.486643710617974
-0.26769999999999994,-14.529085049613924
-0.26870000000000005,-14.57152638860988
-0.26969999999999994,-14.57152638860988
-0.27070000000000005,-14.61396772760583
-0.27169999999999994,-14.69885040559773
-0.27270000000000005,-14.741291744593681
-0.27369999999999994,-14.783733083589633
-0.27470000000000006,-14.826174422585586
-0.27569999999999995,-14.925204213576137
-0.27670000000000006,-14.967645552572087
-0.27769999999999995,-15.01008689156804
-0.27870000000000006,-15.05252823056399
-0.27969999999999995,-15.094969569559943
-0.28070000000000006,-15.137410908555893
-0.28169999999999995,-15.222293586547794
-0.28270000000000006,-15.307176264539699
-0.28369999999999995,-15.349617603535648
-0.28470000000000006,-15.3920589425316
-0.28569999999999995,-15.491088733522153
-0.28670000000000007,-15.575971411514052
-0.28769999999999996,-15.618412750510005
-0.28870000000000007,-15.660854089505953
-0.28969999999999996,-15.70329542850191
-0.29070000000000007,-15.74573676749786
-0.29169999999999996,-15.830619445489761
-0.29270000000000007,-15.91550212348166
-0.29369999999999996,-15.972090575476265
-0.2947000000000001,-16.014531914472215
-0.29569999999999996,-16.056973253468165
-0.2967000000000001,-16.184297270456018
-0.29769999999999996,-16.269179948447924
-0.2987000000000001,-16.311621287443874
-0.29969999999999997,-16.354062626439823
-0.3007000000000001,-16.438945304431726
-0.30169999999999997,-16.53797509542228
-0.3027000000000001,-16.622857773414182
-0.30369999999999997,-16.70774045140608
-0.3047000000000001,-16.750181790402035
-0.30569999999999997,-16.835064468393938
-0.3067000000000001,-16.919947146385837
-0.3077,-17.018976937376394
-0.3087000000000001,-17.061418276372343
-0.3097,-17.103859615368293
-0.3107000000000001,-17.188742293360193
-0.3117,-17.316066310348052
-0.3127000000000001,-17.40094898833995
-0.3137,-17.48583166633185
-0.3147000000000001,-17.584861457322408
-0.3157,-17.71218547431026
-0.3167000000000001,-17.839509491298113
-0.3177,-17.881950830294063
-0.3187000000000001,-18.009274847281915
-0.3197,-18.06586329927652
-0.3207000000000001,-18.19318731626437
-0.3217,-18.320511333252224
-0.3227000000000001,-18.44783535024008
-0.3237,-18.49027668923603
-0.3247000000000001,-18.631747819222536
-0.3257,-18.759071836210385
-0.3267000000000001,-18.88639585319824
-0.3277,-19.01371987018609
-0.3287000000000001,-19.155191000172596
-0.3297,-19.2400736781645
-0.3307000000000001,-19.367397695152352
-0.3317,-19.537163051136158
-0.3327000000000001,-19.678634181122664
-0.3337,-19.805958198110513
-0.3347000000000001,-19.93328221509837
-0.3357,-20.06060623208622
-0.3367000000000001,-20.244518701068674
-0.3377,-20.414284057052477
-0.3387000000000001,-20.541608074040333
-0.3397,-20.683079204026836
-0.3407000000000001,-20.89528589900659
-0.3417,-21.065051254990397
-0.3427000000000001,-21.291405062968803
-0.3437,-21.461170418952605
-0.3447000000000001,-21.63093577493641
-0.3457,-21.857289582914817
-0.3467000000000001,-22.069496277894572
-0.3477,-22.295850085872978
-0.3487000000000001,-22.508056780852733
-0.3497,-22.72026347583249
-0.3507000000000001,-22.989058622806844
-0.3517,-23.24370665678255
-0.3527000000000001,-23.51250180375691
-0.3537,-23.767149837732617
-0.3547000000000001,-24.035944984706973
-0.3557,-24.34718147067728
-0.35670000000000013,-24.686712182644893
-0.3577,-24.997948668615198
-0.35870000000000013,-25.337479380582806
-0.3597,-25.648715866553115
-0.36070000000000013,-26.044835030515326
-0.3617,-26.483395533473487
-0.3626999999999999,-26.86536758443705
-0.3637,-27.303928087395207
-0.3646999999999999,-27.742488590353368
-0.3657,-28.18104909331153
-0.3666999999999999,-28.746933613257543
-0.3677,-29.27037679420761
-0.3686999999999999,-29.836261314153624
-0.36970000000000003,-30.402145834099635
-0.3706999999999999,-31.010471693041605
-0.37170000000000003,-31.717827342974125
-0.3726999999999999,-32.41103587990799
-0.37370000000000003,-33.14668575583781
-0.3746999999999999,-33.89648274476628
-0.37570000000000003,-34.717015298688004
-0.3766999999999999,-35.636577643600276
-0.37770000000000004,-36.5985813275085
-0.3786999999999999,-37.56058501141672
-0.37970000000000004,-38.5650300343209
-0.3806999999999999,-39.696799074212926
-0.38170000000000004,-40.87100945310091
-0.38269999999999993,-42.087661170984845
-0.38370000000000004,-43.36090134086337
-0.38469999999999993,-44.66243573673921
-0.38570000000000004,-46.062999923605595
-0.38669999999999993,-46.544001765559706
-0.38570000000000004,-45.93567590661774
-0.38469999999999993,-45.75176343763528
-0.38370000000000004,-45.666880759643384
-0.38269999999999993,-45.624439420647434
-0.38170000000000004,-45.624439420647434
-0.3806999999999999,-45.53955674265553
-0.37970000000000004,-45.412232725667685
-0.3786999999999999,-45.27076159568118
-0.37770000000000004,-45.10099623969737
-0.3766999999999999,-44.88878954471762
-0.37570000000000003,-44.66243573673921
-0.3746999999999999,-44.4077877027635
-0.37370000000000003,-44.096551216793195
-0.3726999999999999,-43.79946184382153
-0.37170000000000003,-43.48822535785123
-0.3706999999999999,-43.134547532884966
-0.36970000000000003,-42.752575481921404
-0.3686999999999999,-42.3564563179592
-0.3677,-41.91789581500104
-0.3666999999999999,-41.52177665103883
-0.3657,-41.04077480908471
-0.3646999999999999,-40.559772967130606
-0.3637,-40.03632978618054
-0.3626999999999999,-39.51288660523048
-0.3617,-39.08847321527096
-0.36070000000000013,-38.5650300343209
-0.3597,-38.04158685337084
-0.35870000000000013,-37.47570233342482
-0.3577,-36.99470049147071
-0.35670000000000013,-36.47125731052064
-0.3557,-35.90537279057463
-0.3547000000000001,-35.32534115762997
-0.3537,-34.75945663768395
-0.3527000000000001,-34.236013456733886
-0.3517,-33.670128936787876
-0.3507000000000001,-33.14668575583781
-0.3497,-32.53835989689585
-0.3487000000000001,-31.972475376949827
-0.3477,-31.40659085700382
-0.3467000000000001,-30.88314767605375
-0.3457,-30.359704495103685
-0.3447000000000001,-29.751378636161718
-0.3437,-29.22793545521166
-0.3427000000000001,-28.662050935265643
-0.3417,-28.18104909331153
-0.3407000000000001,-27.615164573365515
-0.3397,-27.049280053419505
-0.3387000000000001,-26.483395533473487
-0.3377,-25.959952352523427
-0.3367000000000001,-25.43650917157336
-0.3357,-24.95550732961925
-0.3347000000000001,-24.389622809673234
-0.3337,-23.86617962872317
-0.3327000000000001,-23.342736447773106
-0.3317,-22.819293266823045
-0.3307000000000001,-22.33829142486893
-0.3297,-21.814848243918867
-0.3287000000000001,-21.291405062968803
-0.3277,-20.85284456001064
-0.3267000000000001,-20.371842718056527
-0.3257,-19.890840876102416
-0.3247000000000001,-19.409839034148305
-0.3237,-18.92883719219419
-0.3227000000000001,-18.49027668923603
-0.3217,-18.06586329927652
-0.3207000000000001,-17.584861457322408
-0.3197,-17.146300954364243
-0.3187000000000001,-16.665299112410132
-0.3177,-16.269179948447924
-0.3167000000000001,-15.87306078448571
-0.3157,-15.448647394526201
-0.3147000000000001,-15.01008689156804
-0.3137,-14.57152638860988
-0.3127000000000001,-14.175407224647667
-0.3117,-13.828802956180734
-0.3107000000000001,-13.436927926118118
-0.3097,-13.043638184755638
-0.3087000000000001,-12.651763154693022
-0.3077,-12.258473413330542
-0.3067000000000001,-11.952895772559694
-0.30569999999999997,-11.604876792792895
-0.3047000000000001,-11.211587051430415
-0.30369999999999997,-10.863568071663616
-0.3027000000000001,-10.514134380596953
-0.30169999999999997,-10.208556739826104
-0.3007000000000001,-9.85912304875944
-0.29969999999999997,-9.55496011928846
-0.2987000000000001,-9.205526428221793
-0.29769999999999996,-8.899948787450944
-0.2967000000000001,-8.594371146680096
-0.29569999999999996,-8.332649556205066
-0.2947000000000001,-8.027071915434218
-0.29369999999999996,-7.722908985963235
-0.29270000000000007,-7.461187395488204
-0.29169999999999996,-7.199465805013171
-0.29070000000000007,-6.893888164242324
-0.28969999999999996,-6.632166573767292
-0.28870000000000007,-6.326588932996443
-0.28769999999999996,-6.108723392817228
-0.28670000000000007,-5.890857852638012
-0.28569999999999995,-5.629136262162981
-0.28470000000000006,-5.411270721983764
-0.28369999999999995,-5.149549131508733
-0.28270000000000006,-4.9302688800296535
-0.28169999999999995,-4.712403339850438
-0.28070000000000006,-4.494537799671222
-0.27969999999999995,-4.276672259492005
-0.27870000000000006,-4.014950669016974
-0.27769999999999995,-3.7970851288377587
-0.27670000000000006,-3.6655169779503103
-0.27569999999999995,-3.447651437771094
-0.27470000000000006,-3.2297858975918787
-0.27369999999999994,-3.055776407708479
-0.27270000000000005,-2.8379108675292635
-0.27169999999999994,-2.706342716641815
-0.27070000000000005,-2.532333226758415
-0.26969999999999994,-2.3569090255751513
-0.26870000000000005,-2.1390434853959355
-0.26769999999999994,-2.008890045808352
