Aug. 11, 2024   06:09:04
Cyclic Voltammetry
File: c:/users/guazh/data/20240802_batch_500/2024-08-02-exp80\exp80-2024-08-11t05_43_38-h2koh\exp80_cv_sr_500mvs_efin_-2000mv.bin
Data Source:  Experiment
Instrument Model:  CHI760E
Header: CV ran at 500 mVs
Note: 

Init E (V) = -1
High E (V) = -1
Low E (V) = -2
Final E (V) = -1
Init P/N = N
Scan Rate (V/s) = 0.5
Segment = 3
Sample Interval (V) = 0.001
Quiet Time (sec) = 2
Sensitivity (A/V) = 0.01
Comp R (ohm) = 1.9

Results:

Channel 1:
Segment 1:

Segment 2:

Segment 3:

Potential/V, Current/A

-1.000, 3.239e-6
-1.001, 3.239e-6
-1.002, 3.239e-6
-1.003, 3.239e-6
-1.004, 3.239e-6
-1.005, 3.239e-6
-1.006, 6.322e-6
-1.007, 6.322e-6
-1.008, 6.322e-6
-1.009, 6.322e-6
-1.010, 6.322e-6
-1.011, 6.322e-6
-1.012, 6.322e-6
-1.013, 6.322e-6
-1.014, 6.322e-6
-1.015, 9.405e-6
-1.016, 6.322e-6
-1.017, 9.405e-6
-1.018, 9.405e-6
-1.019, 9.405e-6
-1.020, 9.405e-6
-1.021, 9.405e-6
-1.022, 9.405e-6
-1.023, 9.405e-6
-1.024, 9.405e-6
-1.025, 9.405e-6
-1.026, 9.405e-6
-1.027, 9.405e-6
-1.028, 9.405e-6
-1.029, 9.405e-6
-1.030, 1.249e-5
-1.031, 1.249e-5
-1.032, 1.249e-5
-1.033, 1.249e-5
-1.034, 1.249e-5
-1.035, 1.249e-5
-1.036, 1.249e-5
-1.037, 1.249e-5
-1.038, 1.249e-5
-1.039, 1.249e-5
-1.040, 1.249e-5
-1.041, 1.557e-5
-1.042, 1.249e-5
-1.043, 1.557e-5
-1.044, 1.557e-5
-1.045, 1.249e-5
-1.046, 1.557e-5
-1.047, 1.249e-5
-1.048, 1.557e-5
-1.049, 1.557e-5
-1.050, 1.557e-5
-1.051, 1.557e-5
-1.052, 1.557e-5
-1.053, 1.557e-5
-1.054, 1.557e-5
-1.055, 1.557e-5
-1.056, 1.557e-5
-1.057, 1.557e-5
-1.058, 1.865e-5
-1.059, 1.557e-5
-1.060, 1.557e-5
-1.061, 1.557e-5
-1.062, 1.557e-5
-1.063, 1.865e-5
-1.064, 1.865e-5
-1.065, 1.865e-5
-1.066, 1.865e-5
-1.067, 1.865e-5
-1.068, 1.865e-5
-1.069, 1.865e-5
-1.070, 1.865e-5
-1.071, 1.865e-5
-1.072, 1.865e-5
-1.073, 1.865e-5
-1.074, 1.865e-5
-1.075, 1.865e-5
-1.076, 1.865e-5
-1.077, 2.174e-5
-1.078, 2.174e-5
-1.079, 1.865e-5
-1.080, 1.865e-5
-1.081, 2.174e-5
-1.082, 2.174e-5
-1.083, 2.174e-5
-1.084, 1.865e-5
-1.085, 2.174e-5
-1.086, 2.174e-5
-1.087, 2.174e-5
-1.088, 2.174e-5
-1.089, 2.174e-5
-1.090, 2.174e-5
-1.091, 2.174e-5
-1.092, 2.174e-5
-1.093, 2.174e-5
-1.094, 2.174e-5
-1.095, 2.482e-5
-1.096, 2.174e-5
-1.097, 2.174e-5
-1.098, 2.174e-5
-1.099, 2.482e-5
-1.100, 2.174e-5
-1.101, 2.482e-5
-1.102, 2.174e-5
-1.103, 2.174e-5
-1.104, 2.482e-5
-1.105, 2.482e-5
-1.106, 2.482e-5
-1.107, 2.482e-5
-1.108, 2.482e-5
-1.109, 2.482e-5
-1.110, 2.482e-5
-1.111, 2.482e-5
-1.112, 2.482e-5
-1.113, 2.482e-5
-1.114, 2.482e-5
-1.115, 2.482e-5
-1.116, 2.482e-5
-1.117, 2.482e-5
-1.118, 2.482e-5
-1.119, 2.482e-5
-1.120, 2.482e-5
-1.121, 2.482e-5
-1.122, 2.482e-5
-1.123, 2.482e-5
-1.124, 2.482e-5
-1.125, 2.482e-5
-1.126, 2.482e-5
-1.127, 2.790e-5
-1.128, 2.482e-5
-1.129, 2.790e-5
-1.130, 2.482e-5
-1.131, 2.790e-5
-1.132, 2.790e-5
-1.133, 2.790e-5
-1.134, 2.790e-5
-1.135, 2.790e-5
-1.136, 2.790e-5
-1.137, 2.790e-5
-1.138, 2.790e-5
-1.139, 2.790e-5
-1.140, 2.790e-5
-1.141, 2.790e-5
-1.142, 2.790e-5
-1.143, 2.790e-5
-1.144, 2.790e-5
-1.145, 2.790e-5
-1.146, 2.790e-5
-1.147, 2.790e-5
-1.148, 2.790e-5
-1.149, 2.790e-5
-1.150, 2.790e-5
-1.151, 2.790e-5
-1.152, 2.790e-5
-1.153, 3.099e-5
-1.154, 2.790e-5
-1.155, 2.790e-5
-1.156, 2.790e-5
-1.157, 3.099e-5
-1.158, 3.099e-5
-1.159, 2.790e-5
-1.160, 3.099e-5
-1.161, 2.790e-5
-1.162, 2.790e-5
-1.163, 3.099e-5
-1.164, 3.099e-5
-1.165, 3.099e-5
-1.166, 3.099e-5
-1.167, 3.099e-5
-1.168, 3.099e-5
-1.169, 3.099e-5
-1.170, 3.099e-5
-1.171, 3.099e-5
-1.172, 3.099e-5
-1.173, 3.099e-5
-1.174, 3.099e-5
-1.175, 3.099e-5
-1.176, 3.099e-5
-1.177, 3.099e-5
-1.178, 3.099e-5
-1.179, 3.099e-5
-1.180, 3.099e-5
-1.181, 3.099e-5
-1.182, 3.407e-5
-1.183, 3.099e-5
-1.184, 3.099e-5
-1.185, 3.099e-5
-1.186, 3.099e-5
-1.187, 3.099e-5
-1.188, 3.099e-5
-1.189, 3.099e-5
-1.190, 3.407e-5
-1.191, 3.407e-5
-1.192, 3.099e-5
-1.193, 3.099e-5
-1.194, 3.099e-5
-1.195, 3.407e-5
-1.196, 3.099e-5
-1.197, 3.099e-5
-1.198, 3.407e-5
-1.199, 3.407e-5
-1.200, 3.407e-5
-1.201, 3.407e-5
-1.202, 3.099e-5
-1.203, 3.407e-5
-1.204, 3.099e-5
-1.205, 3.407e-5
-1.206, 3.407e-5
-1.207, 3.407e-5
-1.208, 3.407e-5
-1.209, 3.407e-5
-1.210, 3.407e-5
-1.211, 3.407e-5
-1.212, 3.407e-5
-1.213, 3.407e-5
-1.214, 3.407e-5
-1.215, 3.407e-5
-1.216, 3.407e-5
-1.217, 3.407e-5
-1.218, 3.407e-5
-1.219, 3.407e-5
-1.220, 3.407e-5
-1.221, 3.407e-5
-1.222, 3.407e-5
-1.223, 3.407e-5
-1.224, 3.407e-5
-1.225, 3.407e-5
-1.226, 3.407e-5
-1.227, 3.407e-5
-1.228, 3.407e-5
-1.229, 3.407e-5
-1.230, 3.407e-5
-1.231, 3.407e-5
-1.232, 3.407e-5
-1.233, 3.407e-5
-1.234, 3.407e-5
-1.235, 3.407e-5
-1.236, 3.407e-5
-1.237, 3.407e-5
-1.238, 3.407e-5
-1.239, 3.407e-5
-1.240, 3.407e-5
-1.241, 3.715e-5
-1.242, 3.407e-5
-1.243, 3.715e-5
-1.244, 3.715e-5
-1.245, 3.407e-5
-1.246, 3.715e-5
-1.247, 3.407e-5
-1.248, 3.407e-5
-1.249, 3.715e-5
-1.250, 3.715e-5
-1.251, 3.407e-5
-1.252, 3.407e-5
-1.253, 3.407e-5
-1.254, 3.715e-5
-1.255, 3.715e-5
-1.256, 3.715e-5
-1.257, 3.715e-5
-1.258, 3.715e-5
-1.259, 3.715e-5
-1.260, 3.715e-5
-1.261, 3.715e-5
-1.262, 3.715e-5
-1.263, 3.715e-5
-1.264, 3.715e-5
-1.265, 3.715e-5
-1.266, 3.407e-5
-1.267, 3.715e-5
-1.268, 3.715e-5
-1.269, 3.715e-5
-1.270, 3.715e-5
-1.271, 3.715e-5
-1.272, 3.715e-5
-1.273, 3.715e-5
-1.274, 3.715e-5
-1.275, 3.715e-5
-1.276, 3.715e-5
-1.277, 3.715e-5
-1.278, 3.715e-5
-1.279, 3.715e-5
-1.280, 3.715e-5
-1.281, 3.715e-5
-1.282, 3.715e-5
-1.283, 3.715e-5
-1.284, 3.715e-5
-1.285, 3.715e-5
-1.286, 3.715e-5
-1.287, 3.715e-5
-1.288, 3.715e-5
-1.289, 3.715e-5
-1.290, 3.715e-5
-1.291, 3.715e-5
-1.292, 3.715e-5
-1.293, 3.715e-5
-1.294, 3.715e-5
-1.295, 3.715e-5
-1.296, 3.715e-5
-1.297, 3.715e-5
-1.298, 3.715e-5
-1.299, 3.715e-5
-1.300, 3.715e-5
-1.301, 3.715e-5
-1.302, 3.715e-5
-1.303, 3.715e-5
-1.304, 3.715e-5
-1.305, 3.715e-5
-1.306, 3.715e-5
-1.307, 3.715e-5
-1.308, 3.715e-5
-1.309, 3.715e-5
-1.310, 3.715e-5
-1.311, 3.715e-5
-1.312, 3.715e-5
-1.313, 3.715e-5
-1.314, 3.715e-5
-1.315, 4.024e-5
-1.316, 3.715e-5
-1.317, 3.715e-5
-1.318, 4.024e-5
-1.319, 3.715e-5
-1.320, 3.715e-5
-1.321, 3.715e-5
-1.322, 3.715e-5
-1.323, 3.715e-5
-1.324, 3.715e-5
-1.325, 3.715e-5
-1.326, 3.715e-5
-1.327, 3.715e-5
-1.328, 4.024e-5
-1.329, 3.715e-5
-1.330, 3.715e-5
-1.331, 3.715e-5
-1.332, 4.024e-5
-1.333, 4.024e-5
-1.334, 3.715e-5
-1.335, 3.715e-5
-1.336, 3.715e-5
-1.337, 3.715e-5
-1.338, 3.715e-5
-1.339, 3.715e-5
-1.340, 4.024e-5
-1.341, 4.024e-5
-1.342, 3.715e-5
-1.343, 4.024e-5
-1.344, 4.024e-5
-1.345, 3.715e-5
-1.346, 4.024e-5
-1.347, 3.715e-5
-1.348, 3.715e-5
-1.349, 4.024e-5
-1.350, 3.715e-5
-1.351, 4.024e-5
-1.352, 3.715e-5
-1.353, 3.715e-5
-1.354, 4.024e-5
-1.355, 4.024e-5
-1.356, 4.024e-5
-1.357, 4.024e-5
-1.358, 3.715e-5
-1.359, 4.024e-5
-1.360, 3.715e-5
-1.361, 3.715e-5
-1.362, 4.024e-5
-1.363, 4.024e-5
-1.364, 3.715e-5
-1.365, 4.024e-5
-1.366, 3.715e-5
-1.367, 3.715e-5
-1.368, 3.715e-5
-1.369, 4.024e-5
-1.370, 4.024e-5
-1.371, 4.024e-5
-1.372, 4.024e-5
-1.373, 4.024e-5
-1.374, 4.024e-5
-1.375, 3.715e-5
-1.376, 4.024e-5
-1.377, 4.024e-5
-1.378, 4.024e-5
-1.379, 4.024e-5
-1.380, 3.715e-5
-1.381, 4.024e-5
-1.382, 4.024e-5
-1.383, 4.024e-5
-1.384, 4.024e-5
-1.385, 4.024e-5
-1.386, 4.024e-5
-1.387, 4.024e-5
-1.388, 4.024e-5
-1.389, 4.024e-5
-1.390, 4.024e-5
-1.391, 4.024e-5
-1.392, 4.024e-5
-1.393, 4.024e-5
-1.394, 4.024e-5
-1.395, 4.024e-5
-1.396, 4.024e-5
-1.397, 4.024e-5
-1.398, 4.024e-5
-1.399, 4.024e-5
-1.400, 4.024e-5
-1.401, 4.024e-5
-1.402, 4.024e-5
-1.403, 4.024e-5
-1.404, 4.024e-5
-1.405, 4.024e-5
-1.406, 4.024e-5
-1.407, 4.024e-5
-1.408, 4.024e-5
-1.409, 4.024e-5
-1.410, 4.024e-5
-1.411, 4.024e-5
-1.412, 4.024e-5
-1.413, 4.024e-5
-1.414, 4.024e-5
-1.415, 4.024e-5
-1.416, 4.024e-5
-1.417, 4.024e-5
-1.418, 4.024e-5
-1.419, 4.024e-5
-1.420, 4.024e-5
-1.421, 4.024e-5
-1.422, 4.024e-5
-1.423, 4.024e-5
-1.424, 4.024e-5
-1.425, 4.024e-5
-1.426, 4.024e-5
-1.427, 4.024e-5
-1.428, 4.024e-5
-1.429, 4.024e-5
-1.430, 4.024e-5
-1.431, 4.024e-5
-1.432, 4.024e-5
-1.433, 4.024e-5
-1.434, 4.024e-5
-1.435, 4.332e-5
-1.436, 4.024e-5
-1.437, 4.024e-5
-1.438, 4.024e-5
-1.439, 4.332e-5
-1.440, 4.024e-5
-1.441, 4.024e-5
-1.442, 4.024e-5
-1.443, 4.024e-5
-1.444, 4.024e-5
-1.445, 4.024e-5
-1.446, 4.024e-5
-1.447, 4.024e-5
-1.448, 4.332e-5
-1.449, 4.024e-5
-1.450, 4.332e-5
-1.451, 4.024e-5
-1.452, 4.024e-5
-1.453, 4.024e-5
-1.454, 4.024e-5
-1.455, 4.024e-5
-1.456, 4.024e-5
-1.457, 4.332e-5
-1.458, 4.024e-5
-1.459, 4.332e-5
-1.460, 4.024e-5
-1.461, 4.024e-5
-1.462, 4.024e-5
-1.463, 4.332e-5
-1.464, 4.332e-5
-1.465, 4.332e-5
-1.466, 4.332e-5
-1.467, 4.332e-5
-1.468, 4.332e-5
-1.469, 4.332e-5
-1.470, 4.024e-5
-1.471, 4.024e-5
-1.472, 4.332e-5
-1.473, 4.332e-5
-1.474, 4.024e-5
-1.475, 4.332e-5
-1.476, 4.332e-5
-1.477, 4.332e-5
-1.478, 4.332e-5
-1.479, 4.332e-5
-1.480, 4.332e-5
-1.481, 4.332e-5
-1.482, 4.332e-5
-1.483, 4.332e-5
-1.484, 4.332e-5
-1.485, 4.332e-5
-1.486, 4.332e-5
-1.487, 4.024e-5
-1.488, 4.332e-5
-1.489, 4.332e-5
-1.490, 4.332e-5
-1.491, 4.332e-5
-1.492, 4.332e-5
-1.493, 4.332e-5
-1.494, 4.332e-5
-1.495, 4.332e-5
-1.496, 4.332e-5
-1.497, 4.332e-5
-1.498, 4.332e-5
-1.499, 4.332e-5
-1.500, 4.332e-5
-1.501, 4.332e-5
-1.502, 4.332e-5
-1.503, 4.332e-5
-1.504, 4.332e-5
-1.505, 4.332e-5
-1.506, 4.332e-5
-1.507, 4.332e-5
-1.508, 4.640e-5
-1.509, 4.332e-5
-1.510, 4.332e-5
-1.511, 4.640e-5
-1.512, 4.332e-5
-1.513, 4.332e-5
-1.514, 4.332e-5
-1.515, 4.640e-5
-1.516, 4.332e-5
-1.517, 4.332e-5
-1.518, 4.332e-5
-1.519, 4.640e-5
-1.520, 4.332e-5
-1.521, 4.640e-5
-1.522, 4.332e-5
-1.523, 4.640e-5
-1.524, 4.640e-5
-1.525, 4.640e-5
-1.526, 4.640e-5
-1.527, 4.640e-5
-1.528, 4.640e-5
-1.529, 4.640e-5
-1.530, 4.640e-5
-1.531, 4.640e-5
-1.532, 4.640e-5
-1.533, 4.640e-5
-1.534, 4.640e-5
-1.535, 4.640e-5
-1.536, 4.640e-5
-1.537, 4.332e-5
-1.538, 4.640e-5
-1.539, 4.640e-5
-1.540, 4.640e-5
-1.541, 4.640e-5
-1.542, 4.640e-5
-1.543, 4.640e-5
-1.544, 4.640e-5
-1.545, 4.640e-5
-1.546, 4.640e-5
-1.547, 4.640e-5
-1.548, 4.640e-5
-1.549, 4.640e-5
-1.550, 4.640e-5
-1.551, 4.640e-5
-1.552, 4.640e-5
-1.553, 4.640e-5
-1.554, 4.640e-5
-1.555, 4.640e-5
-1.556, 4.640e-5
-1.557, 4.949e-5
-1.558, 4.640e-5
-1.559, 4.640e-5
-1.560, 4.640e-5
-1.561, 4.949e-5
-1.562, 4.949e-5
-1.563, 4.640e-5
-1.564, 4.949e-5
-1.565, 4.949e-5
-1.566, 4.949e-5
-1.567, 4.949e-5
-1.568, 4.949e-5
-1.569, 4.949e-5
-1.570, 4.949e-5
-1.571, 4.949e-5
-1.572, 4.949e-5
-1.573, 4.949e-5
-1.574, 4.949e-5
-1.575, 4.949e-5
-1.576, 4.949e-5
-1.577, 4.949e-5
-1.578, 4.949e-5
-1.579, 4.949e-5
-1.580, 4.949e-5
-1.581, 4.949e-5
-1.582, 4.949e-5
-1.583, 4.949e-5
-1.584, 4.949e-5
-1.585, 4.949e-5
-1.586, 4.949e-5
-1.587, 5.257e-5
-1.588, 4.949e-5
-1.589, 5.257e-5
-1.590, 5.257e-5
-1.591, 4.949e-5
-1.592, 5.257e-5
-1.593, 5.257e-5
-1.594, 5.257e-5
-1.595, 4.949e-5
-1.596, 5.257e-5
-1.597, 5.257e-5
-1.598, 5.257e-5
-1.599, 5.257e-5
-1.600, 5.257e-5
-1.601, 5.257e-5
-1.602, 5.257e-5
-1.603, 5.257e-5
-1.604, 5.257e-5
-1.605, 5.257e-5
-1.606, 5.257e-5
-1.607, 5.565e-5
-1.608, 5.257e-5
-1.609, 5.257e-5
-1.610, 5.565e-5
-1.611, 5.257e-5
-1.612, 5.565e-5
-1.613, 5.257e-5
-1.614, 5.565e-5
-1.615, 5.565e-5
-1.616, 5.565e-5
-1.617, 5.565e-5
-1.618, 5.565e-5
-1.619, 5.565e-5
-1.620, 5.565e-5
-1.621, 5.565e-5
-1.622, 5.565e-5
-1.623, 5.873e-5
-1.624, 5.873e-5
-1.625, 5.565e-5
-1.626, 5.565e-5
-1.627, 5.565e-5
-1.628, 5.873e-5
-1.629, 5.873e-5
-1.630, 5.873e-5
-1.631, 5.873e-5
-1.632, 5.873e-5
-1.633, 5.873e-5
-1.634, 5.873e-5
-1.635, 5.873e-5
-1.636, 5.873e-5
-1.637, 5.873e-5
-1.638, 6.182e-5
-1.639, 5.873e-5
-1.640, 6.182e-5
-1.641, 6.182e-5
-1.642, 6.182e-5
-1.643, 6.182e-5
-1.644, 6.182e-5
-1.645, 6.182e-5
-1.646, 6.182e-5
-1.647, 6.182e-5
-1.648, 6.182e-5
-1.649, 6.182e-5
-1.650, 6.490e-5
-1.651, 6.490e-5
-1.652, 6.490e-5
-1.653, 6.490e-5
-1.654, 6.490e-5
-1.655, 6.490e-5
-1.656, 6.490e-5
-1.657, 6.798e-5
-1.658, 6.490e-5
-1.659, 6.798e-5
-1.660, 6.798e-5
-1.661, 6.798e-5
-1.662, 6.798e-5
-1.663, 6.798e-5
-1.664, 6.798e-5
-1.665, 7.107e-5
-1.666, 7.107e-5
-1.667, 7.107e-5
-1.668, 7.107e-5
-1.669, 7.107e-5
-1.670, 7.107e-5
-1.671, 7.107e-5
-1.672, 7.415e-5
-1.673, 7.415e-5
-1.674, 7.415e-5
-1.675, 7.415e-5
-1.676, 7.415e-5
-1.677, 7.415e-5
-1.678, 7.723e-5
-1.679, 7.723e-5
-1.680, 7.723e-5
-1.681, 7.723e-5
-1.682, 8.032e-5
-1.683, 8.032e-5
-1.684, 8.032e-5
-1.685, 8.032e-5
-1.686, 8.032e-5
-1.687, 8.032e-5
-1.688, 8.340e-5
-1.689, 8.340e-5
-1.690, 8.340e-5
-1.691, 8.648e-5
-1.692, 8.648e-5
-1.693, 8.648e-5
-1.694, 8.648e-5
-1.695, 8.957e-5
-1.696, 8.957e-5
-1.697, 8.957e-5
-1.698, 9.265e-5
-1.699, 9.265e-5
-1.700, 9.265e-5
-1.701, 9.265e-5
-1.702, 9.573e-5
-1.703, 9.573e-5
-1.704, 9.573e-5
-1.705, 9.882e-5
-1.706, 9.882e-5
-1.707, 1.019e-4
-1.708, 1.019e-4
-1.709, 1.019e-4
-1.710, 1.050e-4
-1.711, 1.050e-4
-1.712, 1.050e-4
-1.713, 1.081e-4
-1.714, 1.081e-4
-1.715, 1.111e-4
-1.716, 1.111e-4
-1.717, 1.142e-4
-1.718, 1.142e-4
-1.719, 1.173e-4
-1.720, 1.173e-4
-1.721, 1.204e-4
-1.722, 1.204e-4
-1.723, 1.235e-4
-1.724, 1.266e-4
-1.725, 1.266e-4
-1.726, 1.296e-4
-1.727, 1.296e-4
-1.728, 1.327e-4
-1.729, 1.327e-4
-1.730, 1.358e-4
-1.731, 1.389e-4
-1.732, 1.420e-4
-1.733, 1.420e-4
-1.734, 1.451e-4
-1.735, 1.481e-4
-1.736, 1.481e-4
-1.737, 1.512e-4
-1.738, 1.543e-4
-1.739, 1.574e-4
-1.740, 1.605e-4
-1.741, 1.605e-4
-1.742, 1.636e-4
-1.743, 1.666e-4
-1.744, 1.728e-4
-1.745, 1.728e-4
-1.746, 1.759e-4
-1.747, 1.790e-4
-1.748, 1.821e-4
-1.749, 1.882e-4
-1.750, 1.913e-4
-1.751, 1.944e-4
-1.752, 1.975e-4
-1.753, 2.006e-4
-1.754, 2.036e-4
-1.755, 2.067e-4
-1.756, 2.129e-4
-1.757, 2.160e-4
-1.758, 2.221e-4
-1.759, 2.252e-4
-1.760, 2.314e-4
-1.761, 2.345e-4
-1.762, 2.376e-4
-1.763, 2.437e-4
-1.764, 2.468e-4
-1.765, 2.530e-4
-1.766, 2.591e-4
-1.767, 2.653e-4
-1.768, 2.684e-4
-1.769, 2.746e-4
-1.770, 2.807e-4
-1.771, 2.869e-4
-1.772, 2.931e-4
-1.773, 2.992e-4
-1.774, 3.054e-4
-1.775, 3.115e-4
-1.776, 3.208e-4
-1.777, 3.270e-4
-1.778, 3.331e-4
-1.779, 3.393e-4
-1.780, 3.485e-4
-1.781, 3.547e-4
-1.782, 3.640e-4
-1.783, 3.732e-4
-1.784, 3.825e-4
-1.785, 3.886e-4
-1.786, 3.979e-4
-1.787, 4.071e-4
-1.788, 4.164e-4
-1.789, 4.256e-4
-1.790, 4.349e-4
-1.791, 4.472e-4
-1.792, 4.565e-4
-1.793, 4.688e-4
-1.794, 4.780e-4
-1.795, 4.904e-4
-1.796, 4.996e-4
-1.797, 5.120e-4
-1.798, 5.274e-4
-1.799, 5.397e-4
-1.800, 5.520e-4
-1.801, 5.644e-4
-1.802, 5.798e-4
-1.803, 5.921e-4
-1.804, 6.044e-4
-1.805, 6.199e-4
-1.806, 6.353e-4
-1.807, 6.507e-4
-1.808, 6.661e-4
-1.809, 6.846e-4
-1.810, 7.000e-4
-1.811, 7.154e-4
-1.812, 7.309e-4
-1.813, 7.494e-4
-1.814, 7.679e-4
-1.815, 7.894e-4
-1.816, 8.079e-4
-1.817, 8.264e-4
-1.818, 8.480e-4
-1.819, 8.665e-4
-1.820, 8.881e-4
-1.821, 9.066e-4
-1.822, 9.282e-4
-1.823, 9.528e-4
-1.824, 9.775e-4
-1.825, 1.002e-3
-1.826, 1.024e-3
-1.827, 1.048e-3
-1.828, 1.073e-3
-1.829, 1.098e-3
-1.830, 1.122e-3
-1.831, 1.150e-3
-1.832, 1.181e-3
-1.833, 1.209e-3
-1.834, 1.236e-3
-1.835, 1.264e-3
-1.836, 1.292e-3
-1.837, 1.323e-3
-1.838, 1.354e-3
-1.839, 1.384e-3
-1.840, 1.418e-3
-1.841, 1.452e-3
-1.842, 1.486e-3
-1.843, 1.520e-3
-1.844, 1.554e-3
-1.845, 1.591e-3
-1.846, 1.625e-3
-1.847, 1.662e-3
-1.848, 1.699e-3
-1.849, 1.742e-3
-1.850, 1.779e-3
-1.851, 1.819e-3
-1.852, 1.859e-3
-1.853, 1.896e-3
-1.854, 1.939e-3
-1.855, 1.980e-3
-1.856, 2.023e-3
-1.857, 2.069e-3
-1.858, 2.115e-3
-1.859, 2.158e-3
-1.860, 2.205e-3
-1.861, 2.248e-3
-1.862, 2.294e-3
-1.863, 2.340e-3
-1.864, 2.390e-3
-1.865, 2.442e-3
-1.866, 2.494e-3
-1.867, 2.547e-3
-1.868, 2.596e-3
-1.869, 2.649e-3
-1.870, 2.698e-3
-1.871, 2.750e-3
-1.872, 2.806e-3
-1.873, 2.861e-3
-1.874, 2.920e-3
-1.875, 2.978e-3
-1.876, 3.037e-3
-1.877, 3.093e-3
-1.878, 3.151e-3
-1.879, 3.210e-3
-1.880, 3.268e-3
-1.881, 3.330e-3
-1.882, 3.395e-3
-1.883, 3.459e-3
-1.884, 3.521e-3
-1.885, 3.583e-3
-1.886, 3.644e-3
-1.887, 3.706e-3
-1.888, 3.771e-3
-1.889, 3.836e-3
-1.890, 3.906e-3
-1.891, 3.974e-3
-1.892, 4.045e-3
-1.893, 4.110e-3
-1.894, 4.178e-3
-1.895, 4.246e-3
-1.896, 4.313e-3
-1.897, 4.381e-3
-1.898, 4.455e-3
-1.899, 4.532e-3
-1.900, 4.606e-3
-1.901, 4.677e-3
-1.902, 4.751e-3
-1.903, 4.825e-3
-1.904, 4.899e-3
-1.905, 4.976e-3
-1.906, 5.060e-3
-1.907, 5.140e-3
-1.908, 5.223e-3
-1.909, 5.303e-3
-1.910, 5.380e-3
-1.911, 5.457e-3
-1.912, 5.537e-3
-1.913, 5.618e-3
-1.914, 5.701e-3
-1.915, 5.787e-3
-1.916, 5.873e-3
-1.917, 5.957e-3
-1.918, 6.037e-3
-1.919, 6.120e-3
-1.920, 6.197e-3
-1.921, 6.280e-3
-1.922, 6.364e-3
-1.923, 6.450e-3
-1.924, 6.539e-3
-1.925, 6.623e-3
-1.926, 6.709e-3
-1.927, 6.789e-3
-1.928, 6.872e-3
-1.929, 6.956e-3
-1.930, 7.039e-3
-1.931, 7.125e-3
-1.932, 7.215e-3
-1.933, 7.304e-3
-1.934, 7.390e-3
-1.935, 7.477e-3
-1.936, 7.557e-3
-1.937, 7.643e-3
-1.938, 7.733e-3
-1.939, 7.825e-3
-1.940, 7.921e-3
-1.941, 8.010e-3
-1.942, 8.106e-3
-1.943, 8.192e-3
-1.944, 8.281e-3
-1.945, 8.368e-3
-1.946, 8.460e-3
-1.947, 8.556e-3
-1.948, 8.654e-3
-1.949, 8.756e-3
-1.950, 8.858e-3
-1.951, 8.954e-3
-1.952, 9.049e-3
-1.953, 9.142e-3
-1.954, 9.240e-3
-1.955, 9.342e-3
-1.956, 9.447e-3
-1.957, 9.555e-3
-1.958, 9.660e-3
-1.959, 9.764e-3
-1.960, 9.863e-3
-1.961, 9.959e-3
-1.962, 1.005e-2
-1.963, 1.015e-2
-1.964, 1.025e-2
-1.965, 1.035e-2
-1.966, 1.045e-2
-1.967, 1.055e-2
-1.968, 1.065e-2
-1.969, 1.074e-2
-1.970, 1.083e-2
-1.971, 1.093e-2
-1.972, 1.103e-2
-1.973, 1.113e-2
-1.974, 1.123e-2
-1.975, 1.132e-2
-1.976, 1.141e-2
-1.977, 1.151e-2
-1.978, 1.160e-2
-1.979, 1.169e-2
-1.980, 1.179e-2
-1.981, 1.190e-2
-1.982, 1.201e-2
-1.983, 1.211e-2
-1.984, 1.221e-2
-1.985, 1.231e-2
-1.986, 1.241e-2
-1.987, 1.251e-2
-1.988, 1.261e-2
-1.989, 1.272e-2
-1.990, 1.283e-2
-1.991, 1.294e-2
-1.992, 1.305e-2
-1.993, 1.316e-2
-1.994, 1.325e-2
-1.995, 1.335e-2
-1.996, 1.345e-2
-1.997, 1.356e-2
-1.998, 1.367e-2
-1.999, 1.377e-2
-2.000, 1.382e-2
-1.999, 1.375e-2
-1.998, 1.367e-2
-1.997, 1.359e-2
-1.996, 1.351e-2
-1.995, 1.343e-2
-1.994, 1.335e-2
-1.993, 1.327e-2
-1.992, 1.319e-2
-1.991, 1.310e-2
-1.990, 1.301e-2
-1.989, 1.292e-2
-1.988, 1.283e-2
-1.987, 1.274e-2
-1.986, 1.265e-2
-1.985, 1.257e-2
-1.984, 1.248e-2
-1.983, 1.240e-2
-1.982, 1.231e-2
-1.981, 1.222e-2
-1.980, 1.212e-2
-1.979, 1.203e-2
-1.978, 1.195e-2
-1.977, 1.187e-2
-1.976, 1.179e-2
-1.975, 1.171e-2
-1.974, 1.162e-2
-1.973, 1.154e-2
-1.972, 1.145e-2
-1.971, 1.137e-2
-1.970, 1.130e-2
-1.969, 1.122e-2
-1.968, 1.115e-2
-1.967, 1.108e-2
-1.966, 1.100e-2
-1.965, 1.092e-2
-1.964, 1.084e-2
-1.963, 1.076e-2
-1.962, 1.068e-2
-1.961, 1.060e-2
-1.960, 1.053e-2
-1.959, 1.045e-2
-1.958, 1.037e-2
-1.957, 1.029e-2
-1.956, 1.021e-2
-1.955, 1.013e-2
-1.954, 1.004e-2
-1.953, 9.965e-3
-1.952, 9.891e-3
-1.951, 9.814e-3
-1.950, 9.740e-3
-1.949, 9.660e-3
-1.948, 9.576e-3
-1.947, 9.493e-3
-1.946, 9.413e-3
-1.945, 9.333e-3
-1.944, 9.256e-3
-1.943, 9.182e-3
-1.942, 9.108e-3
-1.941, 9.028e-3
-1.940, 8.947e-3
-1.939, 8.864e-3
-1.938, 8.784e-3
-1.937, 8.701e-3
-1.936, 8.624e-3
-1.935, 8.550e-3
-1.934, 8.473e-3
-1.933, 8.399e-3
-1.932, 8.315e-3
-1.931, 8.235e-3
-1.930, 8.155e-3
-1.929, 8.078e-3
-1.928, 8.004e-3
-1.927, 7.933e-3
-1.926, 7.862e-3
-1.925, 7.791e-3
-1.924, 7.720e-3
-1.923, 7.646e-3
-1.922, 7.572e-3
-1.921, 7.501e-3
-1.920, 7.430e-3
-1.919, 7.366e-3
-1.918, 7.295e-3
-1.917, 7.227e-3
-1.916, 7.156e-3
-1.915, 7.082e-3
-1.914, 7.008e-3
-1.913, 6.934e-3
-1.912, 6.863e-3
-1.911, 6.792e-3
-1.910, 6.728e-3
-1.909, 6.657e-3
-1.908, 6.589e-3
-1.907, 6.518e-3
-1.906, 6.447e-3
-1.905, 6.373e-3
-1.904, 6.302e-3
-1.903, 6.234e-3
-1.902, 6.169e-3
-1.901, 6.105e-3
-1.900, 6.040e-3
-1.899, 5.975e-3
-1.898, 5.907e-3
-1.897, 5.836e-3
-1.896, 5.772e-3
-1.895, 5.707e-3
-1.894, 5.648e-3
-1.893, 5.590e-3
-1.892, 5.528e-3
-1.891, 5.467e-3
-1.890, 5.402e-3
-1.889, 5.334e-3
-1.888, 5.269e-3
-1.887, 5.208e-3
-1.886, 5.149e-3
-1.885, 5.093e-3
-1.884, 5.032e-3
-1.883, 4.976e-3
-1.882, 4.918e-3
-1.881, 4.856e-3
-1.880, 4.794e-3
-1.879, 4.733e-3
-1.878, 4.674e-3
-1.877, 4.619e-3
-1.876, 4.563e-3
-1.875, 4.505e-3
-1.874, 4.449e-3
-1.873, 4.391e-3
-1.872, 4.332e-3
-1.871, 4.273e-3
-1.870, 4.221e-3
-1.869, 4.169e-3
-1.868, 4.116e-3
-1.867, 4.064e-3
-1.866, 4.011e-3
-1.865, 3.956e-3
-1.864, 3.900e-3
-1.863, 3.845e-3
-1.862, 3.792e-3
-1.861, 3.743e-3
-1.860, 3.694e-3
-1.859, 3.647e-3
-1.858, 3.598e-3
-1.857, 3.546e-3
-1.856, 3.496e-3
-1.855, 3.444e-3
-1.854, 3.395e-3
-1.853, 3.348e-3
-1.852, 3.305e-3
-1.851, 3.259e-3
-1.850, 3.216e-3
-1.849, 3.167e-3
-1.848, 3.120e-3
-1.847, 3.071e-3
-1.846, 3.025e-3
-1.845, 2.982e-3
-1.844, 2.941e-3
-1.843, 2.898e-3
-1.842, 2.855e-3
-1.841, 2.815e-3
-1.840, 2.772e-3
-1.839, 2.729e-3
-1.838, 2.686e-3
-1.837, 2.642e-3
-1.836, 2.605e-3
-1.835, 2.565e-3
-1.834, 2.528e-3
-1.833, 2.488e-3
-1.832, 2.451e-3
-1.831, 2.411e-3
-1.830, 2.368e-3
-1.829, 2.331e-3
-1.828, 2.294e-3
-1.827, 2.260e-3
-1.826, 2.223e-3
-1.825, 2.189e-3
-1.824, 2.155e-3
-1.823, 2.118e-3
-1.822, 2.078e-3
-1.821, 2.044e-3
-1.820, 2.010e-3
-1.819, 1.980e-3
-1.818, 1.946e-3
-1.817, 1.915e-3
-1.816, 1.884e-3
-1.815, 1.850e-3
-1.814, 1.816e-3
-1.813, 1.785e-3
-1.812, 1.754e-3
-1.811, 1.727e-3
-1.810, 1.699e-3
-1.809, 1.671e-3
-1.808, 1.640e-3
-1.807, 1.613e-3
-1.806, 1.582e-3
-1.805, 1.554e-3
-1.804, 1.523e-3
-1.803, 1.499e-3
-1.802, 1.474e-3
-1.801, 1.449e-3
-1.800, 1.425e-3
-1.799, 1.397e-3
-1.798, 1.372e-3
-1.797, 1.344e-3
-1.796, 1.320e-3
-1.795, 1.295e-3
-1.794, 1.273e-3
-1.793, 1.252e-3
-1.792, 1.230e-3
-1.791, 1.209e-3
-1.790, 1.184e-3
-1.789, 1.162e-3
-1.788, 1.141e-3
-1.787, 1.119e-3
-1.786, 1.098e-3
-1.785, 1.079e-3
-1.784, 1.061e-3
-1.783, 1.039e-3
-1.782, 1.021e-3
-1.781, 9.991e-4
-1.780, 9.806e-4
-1.779, 9.590e-4
-1.778, 9.436e-4
-1.777, 9.251e-4
-1.776, 9.097e-4
-1.775, 8.912e-4
-1.774, 8.727e-4
-1.773, 8.573e-4
-1.772, 8.388e-4
-1.771, 8.233e-4
-1.770, 8.079e-4
-1.769, 7.925e-4
-1.768, 7.771e-4
-1.767, 7.617e-4
-1.766, 7.463e-4
-1.765, 7.339e-4
-1.764, 7.185e-4
-1.763, 7.031e-4
-1.762, 6.908e-4
-1.761, 6.784e-4
-1.760, 6.661e-4
-1.759, 6.507e-4
-1.758, 6.384e-4
-1.757, 6.260e-4
-1.756, 6.137e-4
-1.755, 6.014e-4
-1.754, 5.890e-4
-1.753, 5.767e-4
-1.752, 5.674e-4
-1.751, 5.551e-4
-1.750, 5.459e-4
-1.749, 5.335e-4
-1.748, 5.212e-4
-1.747, 5.120e-4
-1.746, 4.996e-4
-1.745, 4.904e-4
-1.744, 4.842e-4
-1.743, 4.719e-4
-1.742, 4.657e-4
-1.741, 4.534e-4
-1.740, 4.441e-4
-1.739, 4.349e-4
-1.738, 4.256e-4
-1.737, 4.164e-4
-1.736, 4.102e-4
-1.735, 4.010e-4
-1.734, 3.948e-4
-1.733, 3.855e-4
-1.732, 3.763e-4
-1.731, 3.701e-4
-1.730, 3.640e-4
-1.729, 3.547e-4
-1.728, 3.485e-4
-1.727, 3.424e-4
-1.726, 3.362e-4
-1.725, 3.300e-4
-1.724, 3.208e-4
-1.723, 3.146e-4
-1.722, 3.085e-4
-1.721, 3.023e-4
-1.720, 2.961e-4
-1.719, 2.900e-4
-1.718, 2.838e-4
-1.717, 2.776e-4
-1.716, 2.746e-4
-1.715, 2.684e-4
-1.714, 2.622e-4
-1.713, 2.561e-4
-1.712, 2.499e-4
-1.711, 2.468e-4
-1.710, 2.437e-4
-1.709, 2.376e-4
-1.708, 2.314e-4
-1.707, 2.283e-4
-1.706, 2.221e-4
-1.705, 2.191e-4
-1.704, 2.129e-4
-1.703, 2.098e-4
-1.702, 2.067e-4
-1.701, 2.006e-4
-1.700, 1.975e-4
-1.699, 1.944e-4
-1.698, 1.913e-4
-1.697, 1.851e-4
-1.696, 1.821e-4
-1.695, 1.790e-4
-1.694, 1.759e-4
-1.693, 1.728e-4
-1.692, 1.697e-4
-1.691, 1.636e-4
-1.690, 1.605e-4
-1.689, 1.574e-4
-1.688, 1.543e-4
-1.687, 1.512e-4
-1.686, 1.481e-4
-1.685, 1.451e-4
-1.684, 1.451e-4
-1.683, 1.389e-4
-1.682, 1.389e-4
-1.681, 1.327e-4
-1.680, 1.327e-4
-1.679, 1.296e-4
-1.678, 1.266e-4
-1.677, 1.235e-4
-1.676, 1.235e-4
-1.675, 1.204e-4
-1.674, 1.173e-4
-1.673, 1.142e-4
-1.672, 1.111e-4
-1.671, 1.111e-4
-1.670, 1.081e-4
-1.669, 1.050e-4
-1.668, 1.050e-4
-1.667, 1.019e-4
-1.666, 1.019e-4
-1.665, 9.882e-5
-1.664, 9.573e-5
-1.663, 9.265e-5
-1.662, 9.265e-5
-1.661, 9.265e-5
-1.660, 8.957e-5
-1.659, 8.648e-5
-1.658, 8.648e-5
-1.657, 8.340e-5
-1.656, 8.340e-5
-1.655, 8.032e-5
-1.654, 8.032e-5
-1.653, 7.723e-5
-1.652, 7.723e-5
-1.651, 7.415e-5
-1.650, 7.415e-5
-1.649, 7.107e-5
-1.648, 7.107e-5
-1.647, 6.798e-5
-1.646, 6.798e-5
-1.645, 6.798e-5
-1.644, 6.490e-5
-1.643, 6.490e-5
-1.642, 6.182e-5
-1.641, 6.182e-5
-1.640, 6.182e-5
-1.639, 5.873e-5
-1.638, 5.873e-5
-1.637, 5.565e-5
-1.636, 5.565e-5
-1.635, 5.565e-5
-1.634, 5.565e-5
-1.633, 5.257e-5
-1.632, 5.257e-5
-1.631, 5.257e-5
-1.630, 4.949e-5
-1.629, 4.949e-5
-1.628, 4.949e-5
-1.627, 4.949e-5
-1.626, 4.640e-5
-1.625, 4.640e-5
-1.624, 4.332e-5
-1.623, 4.332e-5
-1.622, 4.332e-5
-1.621, 4.332e-5
-1.620, 4.332e-5
-1.619, 4.024e-5
-1.618, 4.024e-5
-1.617, 4.024e-5
-1.616, 4.024e-5
-1.615, 4.024e-5
-1.614, 3.715e-5
-1.613, 3.715e-5
-1.612, 3.715e-5
-1.611, 3.715e-5
-1.610, 3.407e-5
-1.609, 3.407e-5
-1.608, 3.407e-5
-1.607, 3.407e-5
-1.606, 3.407e-5
-1.605, 3.099e-5
-1.604, 3.099e-5
-1.603, 3.099e-5
-1.602, 3.099e-5
-1.601, 3.099e-5
-1.600, 2.790e-5
-1.599, 2.790e-5
-1.598, 2.790e-5
-1.597, 2.790e-5
-1.596, 2.790e-5
-1.595, 2.482e-5
-1.594, 2.790e-5
-1.593, 2.482e-5
-1.592, 2.482e-5
-1.591, 2.482e-5
-1.590, 2.482e-5
-1.589, 2.482e-5
-1.588, 2.482e-5
-1.587, 2.174e-5
-1.586, 2.174e-5
-1.585, 2.174e-5
-1.584, 2.174e-5
-1.583, 2.174e-5
-1.582, 1.865e-5
-1.581, 2.174e-5
-1.580, 2.174e-5
-1.579, 1.865e-5
-1.578, 2.174e-5
-1.577, 1.865e-5
-1.576, 1.865e-5
-1.575, 1.865e-5
-1.574, 1.865e-5
-1.573, 1.865e-5
-1.572, 1.865e-5
-1.571, 1.557e-5
-1.570, 1.865e-5
-1.569, 1.865e-5
-1.568, 1.557e-5
-1.567, 1.557e-5
-1.566, 1.557e-5
-1.565, 1.557e-5
-1.564, 1.557e-5
-1.563, 1.557e-5
-1.562, 1.557e-5
-1.561, 1.557e-5
-1.560, 1.557e-5
-1.559, 1.249e-5
-1.558, 1.249e-5
-1.557, 1.249e-5
-1.556, 1.249e-5
-1.555, 1.249e-5
-1.554, 1.249e-5
-1.553, 1.249e-5
-1.552, 1.249e-5
-1.551, 1.249e-5
-1.550, 1.249e-5
-1.549, 1.249e-5
-1.548, 1.249e-5
-1.547, 1.249e-5
-1.546, 1.249e-5
-1.545, 9.405e-6
-1.544, 9.405e-6
-1.543, 9.405e-6
-1.542, 9.405e-6
-1.541, 9.405e-6
-1.540, 9.405e-6
-1.539, 9.405e-6
-1.538, 9.405e-6
-1.537, 9.405e-6
-1.536, 9.405e-6
-1.535, 9.405e-6
-1.534, 9.405e-6
-1.533, 9.405e-6
-1.532, 9.405e-6
-1.531, 6.322e-6
-1.530, 9.405e-6
-1.529, 9.405e-6
-1.528, 9.405e-6
-1.527, 9.405e-6
-1.526, 9.405e-6
-1.525, 6.322e-6
-1.524, 6.322e-6
-1.523, 6.322e-6
-1.522, 6.322e-6
-1.521, 6.322e-6
-1.520, 6.322e-6
-1.519, 6.322e-6
-1.518, 6.322e-6
-1.517, 6.322e-6
-1.516, 6.322e-6
-1.515, 6.322e-6
-1.514, 6.322e-6
-1.513, 6.322e-6
-1.512, 6.322e-6
-1.511, 6.322e-6
-1.510, 6.322e-6
-1.509, 6.322e-6
-1.508, 6.322e-6
-1.507, 6.322e-6
-1.506, 6.322e-6
-1.505, 6.322e-6
-1.504, 6.322e-6
-1.503, 6.322e-6
-1.502, 6.322e-6
-1.501, 6.322e-6
-1.500, 6.322e-6
-1.499, 3.239e-6
-1.498, 6.322e-6
-1.497, 3.239e-6
-1.496, 3.239e-6
-1.495, 3.239e-6
-1.494, 6.322e-6
-1.493, 6.322e-6
-1.492, 3.239e-6
-1.491, 3.239e-6
-1.490, 3.239e-6
-1.489, 3.239e-6
-1.488, 3.239e-6
-1.487, 3.239e-6
-1.486, 3.239e-6
-1.485, 3.239e-6
-1.484, 3.239e-6
-1.483, 3.239e-6
-1.482, 3.239e-6
-1.481, 3.239e-6
-1.480, 3.239e-6
-1.479, 3.239e-6
-1.478, 3.239e-6
-1.477, 3.239e-6
-1.476, 3.239e-6
-1.475, 3.239e-6
-1.474, 3.239e-6
-1.473, 3.239e-6
-1.472, 3.239e-6
-1.471, 3.239e-6
-1.470, 3.239e-6
-1.469, 3.239e-6
-1.468, 3.239e-6
-1.467, 3.239e-6
-1.466, 3.239e-6
-1.465, 3.239e-6
-1.464, 1.559e-7
-1.463, 3.239e-6
-1.462, 3.239e-6
-1.461, 3.239e-6
-1.460, 3.239e-6
-1.459, 1.559e-7
-1.458, 3.239e-6
-1.457, 3.239e-6
-1.456, 3.239e-6
-1.455, 1.559e-7
-1.454, 3.239e-6
-1.453, 3.239e-6
-1.452, 3.239e-6
-1.451, 1.559e-7
-1.450, 1.559e-7
-1.449, 3.239e-6
-1.448, 3.239e-6
-1.447, 3.239e-6
-1.446, 1.559e-7
-1.445, 1.559e-7
-1.444, 3.239e-6
-1.443, 1.559e-7
-1.442, 1.559e-7
-1.441, 1.559e-7
-1.440, 3.239e-6
-1.439, 1.559e-7
-1.438, 1.559e-7
-1.437, 1.559e-7
-1.436, 1.559e-7
-1.435, 3.239e-6
-1.434, 1.559e-7
-1.433, 1.559e-7
-1.432, 1.559e-7
-1.431, 1.559e-7
-1.430, 1.559e-7
-1.429, 1.559e-7
-1.428, 1.559e-7
-1.427, 1.559e-7
-1.426, 1.559e-7
-1.425, 1.559e-7
-1.424, 1.559e-7
-1.423, 1.559e-7
-1.422, 1.559e-7
-1.421, 1.559e-7
-1.420, 1.559e-7
-1.419, 1.559e-7
-1.418, 1.559e-7
-1.417, 1.559e-7
-1.416, 1.559e-7
-1.415, 1.559e-7
-1.414, 1.559e-7
-1.413, 1.559e-7
-1.412, 1.559e-7
-1.411, 1.559e-7
-1.410, 1.559e-7
-1.409, 1.559e-7
-1.408, 1.559e-7
-1.407, 1.559e-7
-1.406, 1.559e-7
-1.405, 1.559e-7
-1.404, 1.559e-7
-1.403, 1.559e-7
-1.402, 1.559e-7
-1.401, 1.559e-7
-1.400, 1.559e-7
-1.399, 1.559e-7
-1.398, 1.559e-7
-1.397, 1.559e-7
-1.396, 1.559e-7
-1.395, 1.559e-7
-1.394, 1.559e-7
-1.393, 1.559e-7
-1.392, 1.559e-7
-1.391, 1.559e-7
-1.390, 1.559e-7
-1.389, 1.559e-7
-1.388, 1.559e-7
-1.387, 1.559e-7
-1.386, 1.559e-7
-1.385, 1.559e-7
-1.384, 1.559e-7
-1.383, 1.559e-7
-1.382, 1.559e-7
-1.381, 1.559e-7
-1.380, 1.559e-7
-1.379, -2.927e-6
-1.378, 1.559e-7
-1.377, 1.559e-7
-1.376, 1.559e-7
-1.375, 1.559e-7
-1.374, -2.927e-6
-1.373, 1.559e-7
-1.372, -2.927e-6
-1.371, 1.559e-7
-1.370, 1.559e-7
-1.369, 1.559e-7
-1.368, 1.559e-7
-1.367, 1.559e-7
-1.366, 1.559e-7
-1.365, -2.927e-6
-1.364, 1.559e-7
-1.363, 1.559e-7
-1.362, 1.559e-7
-1.361, 1.559e-7
-1.360, -2.927e-6
-1.359, 1.559e-7
-1.358, 1.559e-7
-1.357, 1.559e-7
-1.356, 1.559e-7
-1.355, 1.559e-7
-1.354, 1.559e-7
-1.353, 1.559e-7
-1.352, 1.559e-7
-1.351, -2.927e-6
-1.350, 1.559e-7
-1.349, -2.927e-6
-1.348, -2.927e-6
-1.347, -2.927e-6
-1.346, -2.927e-6
-1.345, -2.927e-6
-1.344, 1.559e-7
-1.343, -2.927e-6
-1.342, -2.927e-6
-1.341, 1.559e-7
-1.340, 1.559e-7
-1.339, 1.559e-7
-1.338, -2.927e-6
-1.337, -2.927e-6
-1.336, -2.927e-6
-1.335, -2.927e-6
-1.334, -2.927e-6
-1.333, -2.927e-6
-1.332, -2.927e-6
-1.331, -2.927e-6
-1.330, -2.927e-6
-1.329, -2.927e-6
-1.328, -2.927e-6
-1.327, -2.927e-6
-1.326, -2.927e-6
-1.325, -2.927e-6
-1.324, -2.927e-6
-1.323, -2.927e-6
-1.322, -2.927e-6
-1.321, -2.927e-6
-1.320, -2.927e-6
-1.319, -2.927e-6
-1.318, -2.927e-6
-1.317, -2.927e-6
-1.316, -2.927e-6
-1.315, -2.927e-6
-1.314, -2.927e-6
-1.313, -2.927e-6
-1.312, -2.927e-6
-1.311, -2.927e-6
-1.310, -2.927e-6
-1.309, -2.927e-6
-1.308, -2.927e-6
-1.307, -2.927e-6
-1.306, -2.927e-6
-1.305, -2.927e-6
-1.304, -2.927e-6
-1.303, -2.927e-6
-1.302, -2.927e-6
-1.301, -2.927e-6
-1.300, -2.927e-6
-1.299, -2.927e-6
-1.298, -2.927e-6
-1.297, -2.927e-6
-1.296, -2.927e-6
-1.295, -2.927e-6
-1.294, -2.927e-6
-1.293, -2.927e-6
-1.292, -2.927e-6
-1.291, -2.927e-6
-1.290, -2.927e-6
-1.289, -2.927e-6
-1.288, -2.927e-6
-1.287, -2.927e-6
-1.286, -2.927e-6
-1.285, -2.927e-6
-1.284, -6.010e-6
-1.283, -6.010e-6
-1.282, -2.927e-6
-1.281, -2.927e-6
-1.280, -6.010e-6
-1.279, -6.010e-6
-1.278, -2.927e-6
-1.277, -2.927e-6
-1.276, -2.927e-6
-1.275, -6.010e-6
-1.274, -6.010e-6
-1.273, -2.927e-6
-1.272, -6.010e-6
-1.271, -6.010e-6
-1.270, -6.010e-6
-1.269, -2.927e-6
-1.268, -6.010e-6
-1.267, -2.927e-6
-1.266, -6.010e-6
-1.265, -6.010e-6
-1.264, -6.010e-6
-1.263, -6.010e-6
-1.262, -6.010e-6
-1.261, -6.010e-6
-1.260, -6.010e-6
-1.259, -6.010e-6
-1.258, -6.010e-6
-1.257, -6.010e-6
-1.256, -6.010e-6
-1.255, -6.010e-6
-1.254, -6.010e-6
-1.253, -6.010e-6
-1.252, -6.010e-6
-1.251, -6.010e-6
-1.250, -6.010e-6
-1.249, -6.010e-6
-1.248, -6.010e-6
-1.247, -6.010e-6
-1.246, -6.010e-6
-1.245, -6.010e-6
-1.244, -6.010e-6
-1.243, -6.010e-6
-1.242, -6.010e-6
-1.241, -6.010e-6
-1.240, -6.010e-6
-1.239, -9.093e-6
-1.238, -6.010e-6
-1.237, -9.093e-6
-1.236, -6.010e-6
-1.235, -6.010e-6
-1.234, -6.010e-6
-1.233, -6.010e-6
-1.232, -6.010e-6
-1.231, -9.093e-6
-1.230, -9.093e-6
-1.229, -9.093e-6
-1.228, -6.010e-6
-1.227, -9.093e-6
-1.226, -9.093e-6
-1.225, -9.093e-6
-1.224, -9.093e-6
-1.223, -9.093e-6
-1.222, -9.093e-6
-1.221, -9.093e-6
-1.220, -9.093e-6
-1.219, -9.093e-6
-1.218, -9.093e-6
-1.217, -9.093e-6
-1.216, -9.093e-6
-1.215, -9.093e-6
-1.214, -9.093e-6
-1.213, -9.093e-6
-1.212, -9.093e-6
-1.211, -9.093e-6
-1.210, -9.093e-6
-1.209, -9.093e-6
-1.208, -9.093e-6
-1.207, -9.093e-6
-1.206, -9.093e-6
-1.205, -9.093e-6
-1.204, -9.093e-6
-1.203, -9.093e-6
-1.202, -9.093e-6
-1.201, -9.093e-6
-1.200, -9.093e-6
-1.199, -9.093e-6
-1.198, -9.093e-6
-1.197, -9.093e-6
-1.196, -9.093e-6
-1.195, -9.093e-6
-1.194, -9.093e-6
-1.193, -1.218e-5
-1.192, -1.218e-5
-1.191, -1.218e-5
-1.190, -1.218e-5
-1.189, -1.218e-5
-1.188, -9.093e-6
-1.187, -1.218e-5
-1.186, -9.093e-6
-1.185, -1.218e-5
-1.184, -1.218e-5
-1.183, -1.218e-5
-1.182, -1.218e-5
-1.181, -1.218e-5
-1.180, -1.218e-5
-1.179, -1.218e-5
-1.178, -1.218e-5
-1.177, -1.218e-5
-1.176, -1.218e-5
-1.175, -1.218e-5
-1.174, -1.218e-5
-1.173, -1.218e-5
-1.172, -1.218e-5
-1.171, -1.526e-5
-1.170, -1.218e-5
-1.169, -1.218e-5
-1.168, -1.218e-5
-1.167, -1.218e-5
-1.166, -1.526e-5
-1.165, -1.218e-5
-1.164, -1.218e-5
-1.163, -1.218e-5
-1.162, -1.526e-5
-1.161, -1.218e-5
-1.160, -1.218e-5
-1.159, -1.218e-5
-1.158, -1.526e-5
-1.157, -1.526e-5
-1.156, -1.526e-5
-1.155, -1.526e-5
-1.154, -1.526e-5
-1.153, -1.526e-5
-1.152, -1.218e-5
-1.151, -1.526e-5
-1.150, -1.526e-5
-1.149, -1.526e-5
-1.148, -1.526e-5
-1.147, -1.526e-5
-1.146, -1.526e-5
-1.145, -1.526e-5
-1.144, -1.526e-5
-1.143, -1.526e-5
-1.142, -1.526e-5
-1.141, -1.526e-5
-1.140, -1.526e-5
-1.139, -1.526e-5
-1.138, -1.526e-5
-1.137, -1.526e-5
-1.136, -1.526e-5
-1.135, -1.526e-5
-1.134, -1.834e-5
-1.133, -1.526e-5
-1.132, -1.526e-5
-1.131, -1.834e-5
-1.130, -1.834e-5
-1.129, -1.834e-5
-1.128, -1.834e-5
-1.127, -1.834e-5
-1.126, -1.834e-5
-1.125, -1.834e-5
-1.124, -1.834e-5
-1.123, -1.834e-5
-1.122, -1.834e-5
-1.121, -1.834e-5
-1.120, -1.834e-5
-1.119, -1.834e-5
-1.118, -1.834e-5
-1.117, -1.834e-5
-1.116, -2.143e-5
-1.115, -1.834e-5
-1.114, -1.834e-5
-1.113, -1.834e-5
-1.112, -2.143e-5
-1.111, -1.834e-5
-1.110, -1.834e-5
-1.109, -2.143e-5
-1.108, -2.143e-5
-1.107, -2.143e-5
-1.106, -1.834e-5
-1.105, -2.143e-5
-1.104, -2.143e-5
-1.103, -2.143e-5
-1.102, -2.143e-5
-1.101, -2.143e-5
-1.100, -2.143e-5
-1.099, -2.143e-5
-1.098, -2.143e-5
-1.097, -2.143e-5
-1.096, -2.143e-5
-1.095, -2.143e-5
-1.094, -2.143e-5
-1.093, -2.143e-5
-1.092, -2.143e-5
-1.091, -2.451e-5
-1.090, -2.143e-5
-1.089, -2.143e-5
-1.088, -2.451e-5
-1.087, -2.451e-5
-1.086, -2.451e-5
-1.085, -2.451e-5
-1.084, -2.451e-5
-1.083, -2.451e-5
-1.082, -2.451e-5
-1.081, -2.451e-5
-1.080, -2.451e-5
-1.079, -2.451e-5
-1.078, -2.451e-5
-1.077, -2.451e-5
-1.076, -2.451e-5
-1.075, -2.451e-5
-1.074, -2.451e-5
-1.073, -2.451e-5
-1.072, -2.759e-5
-1.071, -2.759e-5
-1.070, -2.759e-5
-1.069, -2.451e-5
-1.068, -2.759e-5
-1.067, -2.759e-5
-1.066, -2.759e-5
-1.065, -2.759e-5
-1.064, -2.759e-5
-1.063, -2.759e-5
-1.062, -2.759e-5
-1.061, -2.759e-5
-1.060, -2.759e-5
-1.059, -2.759e-5
-1.058, -2.759e-5
-1.057, -2.759e-5
-1.056, -2.759e-5
-1.055, -2.759e-5
-1.054, -3.068e-5
-1.053, -3.068e-5
-1.052, -3.068e-5
-1.051, -3.068e-5
-1.050, -3.068e-5
-1.049, -3.068e-5
-1.048, -3.068e-5
-1.047, -3.068e-5
-1.046, -3.068e-5
-1.045, -3.068e-5
-1.044, -3.068e-5
-1.043, -3.068e-5
-1.042, -3.068e-5
-1.041, -3.068e-5
-1.040, -3.068e-5
-1.039, -3.376e-5
-1.038, -3.376e-5
-1.037, -3.376e-5
-1.036, -3.376e-5
-1.035, -3.376e-5
-1.034, -3.376e-5
-1.033, -3.376e-5
-1.032, -3.376e-5
-1.031, -3.376e-5
-1.030, -3.376e-5
-1.029, -3.376e-5
-1.028, -3.376e-5
-1.027, -3.376e-5
-1.026, -3.376e-5
-1.025, -3.376e-5
-1.024, -3.376e-5
-1.023, -3.684e-5
-1.022, -3.684e-5
-1.021, -3.684e-5
-1.020, -3.684e-5
-1.019, -3.684e-5
-1.018, -3.684e-5
-1.017, -3.684e-5
-1.016, -3.684e-5
-1.015, -3.684e-5
-1.014, -3.684e-5
-1.013, -3.684e-5
-1.012, -3.684e-5
-1.011, -3.684e-5
-1.010, -3.992e-5
-1.009, -3.992e-5
-1.008, -3.684e-5
-1.007, -3.684e-5
-1.006, -3.992e-5
-1.005, -3.992e-5
-1.004, -3.992e-5
-1.003, -3.992e-5
-1.002, -3.992e-5
-1.001, -3.992e-5
