Potential V vs RHE, Current mA cm-2
0.013299999999999867,-0.024516946826661085
0.012299999999999978,-0.029341112359200863
0.011299999999999866,-0.0326090954618891
0.010299999999999976,-0.03570731320859352
0.009299999999999864,-0.03872064827730605
0.008299999999999974,-0.041988631379994285
0.007299999999999862,-0.04428046368577565
0.006299999999999972,-0.04650156042656376
0.00529999999999986,-0.04855289181136806
0.0042999999999999705,-0.05064666453516831
0.0032999999999998586,-0.05316485064892808
0.0022999999999999687,-0.054890798434763424
0.0012999999999998568,-0.05661674622059877
0.00029999999999996696,-0.05842757668442602
-0.000700000000000145,-0.06016767158326001
-0.0017000000000000348,-0.06221900296806432
-0.0027000000000001467,-0.06363371426792935
-0.0037000000000000366,-0.06527477937577279
-0.0047000000000001485,-0.06660460799764592
-0.005700000000000038,-0.06801931929751097
-0.00670000000000015,-0.07016968047330582
-0.00770000000000004,-0.07141462641718704
-0.008700000000000152,-0.07250395411808314
-0.009700000000000042,-0.07376304717496303
-0.010700000000000154,-0.0754182593958051
-0.011700000000000044,-0.07696029471265799
-0.012700000000000156,-0.07816279931754326
-0.013700000000000045,-0.07953506927841236
-0.014700000000000157,-0.08019998358934893
-0.015700000000000047,-0.08154395932422072
-0.01670000000000016,-0.08351040803103311
-0.01770000000000005,-0.08413288100297373
-0.01870000000000016,-0.08523635581686846
-0.01970000000000005,-0.08642471330875509
-0.020700000000000163,-0.08737256987966466
-0.021700000000000053,-0.08905607632650406
-0.022700000000000164,-0.09000393289741364
-0.023700000000000054,-0.09088105390332996
-0.024700000000000166,-0.09182891047423952
-0.025700000000000056,-0.09298897374012885
-0.026700000000000168,-0.09444612637898986
-0.027700000000000058,-0.09545057140189403
-0.02870000000000017,-0.0962569568428171
-0.02970000000000006,-0.09716237207473072
-0.03070000000000017,-0.09835072956661735
-0.03170000000000006,-0.09949664571950805
-0.03270000000000017,-0.10082647434138116
-0.03370000000000006,-0.10147724153931909
-0.034700000000000175,-0.10217045007625294
-0.035700000000000065,-0.10355686715012069
-0.03670000000000018,-0.10507060824097628
-0.03770000000000007,-0.10604675903788315
-0.03870000000000018,-0.10673996757481702
-0.03970000000000007,-0.10746147033774818
-0.04070000000000018,-0.10877715184662266
-0.04170000000000007,-0.10983818532152145
-0.04270000000000018,-0.11096995436141348
-0.04370000000000007,-0.1118187811413325
-0.044700000000000184,-0.11248369545226906
-0.045700000000000074,-0.11354472892716785
-0.046700000000000186,-0.11519994114800992
-0.047700000000000076,-0.11593559102393976
-0.04870000000000019,-0.11660050533487633
-0.04970000000000008,-0.11739274366280074
-0.05070000000000019,-0.11845377713769951
-0.05170000000000008,-0.12008069513254432
-0.05270000000000019,-0.1210285517034539
-0.05370000000000008,-0.12173590735338641
-0.05470000000000019,-0.12255643990730813
-0.05570000000000008,-0.12377309162519207
-0.056700000000000195,-0.12511706736006384
-0.057700000000000085,-0.12630542485195048
-0.058700000000000196,-0.12682886803290053
-0.059700000000000086,-0.12747963523083847
-0.0607000000000002,-0.12876702251371563
-0.06170000000000009,-0.1304646760735537
-0.0627000000000002,-0.13135594419246865
-0.06370000000000009,-0.13247356611936204
-0.0647000000000002,-0.13356289382025813
-0.06570000000000009,-0.13449660327816904
-0.0667000000000002,-0.13598205014302733
-0.0677000000000001,-0.1370147893919288
-0.0687000000000002,-0.13803338152783162
-0.0697000000000001,-0.138542677595783
-0.07070000000000021,-0.13984421199165886
-0.0717000000000001,-0.14111745216153743
-0.07270000000000021,-0.1420370145064497
-0.0737000000000001,-0.1428858412863687
-0.07470000000000021,-0.14415908145624726
-0.0757000000000001,-0.14529085049613927
-0.07670000000000021,-0.1467055617960043
-0.0777000000000001,-0.14769585970590982
-0.07870000000000021,-0.14868615761581536
-0.0797000000000001,-0.1496764555257209
-0.08070000000000022,-0.1508082245656129
-0.0817000000000001,-0.15250587812545094
-0.08270000000000022,-0.15377911829532948
-0.08370000000000011,-0.1543450028152755
-0.08470000000000022,-0.15561824298515403
-0.08570000000000011,-0.15618412750510002
-0.08670000000000022,-0.1583061944548976
-0.08770000000000011,-0.15957943462477614
-0.08870000000000022,-0.16056973253468165
-0.08970000000000011,-0.1615600304445872
-0.09070000000000022,-0.1628332706144657
-0.09170000000000011,-0.16438945304431726
-0.09270000000000023,-0.1658041643441823
-0.09370000000000012,-0.16651151999411481
-0.09470000000000023,-0.16764328903400685
-0.09570000000000012,-0.1693409425938449
-0.09670000000000023,-0.17061418276372342
-0.09770000000000012,-0.17174595180361546
-0.09870000000000023,-0.173019191973494
-0.09970000000000012,-0.1737265476234265
-0.10070000000000023,-0.17542420118326454
-0.10170000000000012,-0.1772633258730891
-0.10270000000000024,-0.1782536237829946
-0.10370000000000013,-0.17966833508285968
-0.10470000000000024,-0.1806586329927652
-0.10570000000000013,-0.18207334429263022
-0.10670000000000024,-0.18362952672248176
-0.10770000000000013,-0.1851857091523333
-0.10870000000000024,-0.18660042045219835
-0.10970000000000013,-0.18773218949209036
-0.11070000000000024,-0.18928837192194192
-0.11170000000000013,-0.19112749661176645
-0.11270000000000002,-0.19268367904161798
-0.11370000000000013,-0.1936739769515235
-0.11470000000000002,-0.19480574599141554
-0.11570000000000014,-0.1965033995512536
-0.11670000000000003,-0.19805958198110513
-0.11770000000000014,-0.19933282215098366
-0.11870000000000003,-0.2007475334508487
-0.11970000000000014,-0.20187930249074074
-0.12070000000000003,-0.20315254266061927
-0.12170000000000014,-0.20513313848043033
-0.12270000000000003,-0.20697226317025488
-0.12370000000000014,-0.2078210899501739
-0.12470000000000003,-0.20909433012005244
-0.12570000000000014,-0.21050904141991747
-0.12670000000000003,-0.21277257949970152
-0.12770000000000015,-0.21404581966958006
-0.12870000000000004,-0.2151775887094721
-0.12970000000000015,-0.21687524226931013
-0.13070000000000004,-0.21772406904922914
-0.13170000000000015,-0.2199876071290132
-0.13270000000000004,-0.22168526068885125
-0.13370000000000015,-0.22267555859875673
-0.13470000000000004,-0.22366585650866228
-0.13570000000000015,-0.2250805678085273
-0.13670000000000004,-0.22720263475832486
-0.13770000000000016,-0.22861734605818995
-0.13870000000000005,-0.23017352848804143
-0.13970000000000016,-0.23158823978790652
-0.14070000000000005,-0.23314442221775805
-0.14170000000000016,-0.23427619125765006
-0.14270000000000005,-0.23611531594747462
-0.14370000000000016,-0.23738855611735316
-0.14470000000000005,-0.2385203251572452
-0.14570000000000016,-0.24007650758709673
-0.14670000000000005,-0.24177416114693479
-0.14770000000000016,-0.24361328583675934
-0.14870000000000005,-0.24474505487665132
-0.14970000000000017,-0.24615976617651636
-0.15070000000000006,-0.2477159486063679
-0.15170000000000017,-0.24955507329619245
-0.15270000000000006,-0.2512527268560305
-0.15370000000000017,-0.252243024765936
-0.15470000000000006,-0.25337479380582806
-0.15570000000000017,-0.25493097623567956
-0.15670000000000006,-0.2567701009255041
-0.15770000000000017,-0.2580433410953827
-0.15870000000000006,-0.2591751101352747
-0.15970000000000018,-0.26058982143513976
-0.16070000000000007,-0.2618630616050183
-0.16170000000000018,-0.26426807081478887
-0.16270000000000007,-0.2653998398546809
-0.16370000000000018,-0.26709749341451894
-0.16470000000000007,-0.26808779132442445
-0.16570000000000018,-0.26907808923433
-0.16670000000000007,-0.27120015618412757
-0.16770000000000018,-0.27303928087395213
-0.16870000000000007,-0.2738881076538711
-0.16970000000000018,-0.2754442900837227
-0.17070000000000007,-0.2762931168636417
-0.17170000000000019,-0.27841518381343927
-0.17270000000000008,-0.2796884239833177
-0.1737000000000002,-0.2805372507632368
-0.17470000000000008,-0.2812446064131693
-0.1757000000000002,-0.2826593177130343
-0.17670000000000008,-0.2843569712728724
-0.1777000000000002,-0.2857716825727374
-0.17870000000000008,-0.28676198048264295
-0.1797000000000002,-0.28761080726256194
-0.18070000000000008,-0.289025518562427
-0.1817000000000002,-0.290157287602319
-0.18270000000000008,-0.29199641229214357
-0.1837000000000002,-0.2927037679420761
-0.1847000000000001,-0.2934111235920086
-0.1857000000000002,-0.29510877715184664
-0.1867000000000001,-0.2960990750617522
-0.1877000000000002,-0.2973723152316307
-0.1887000000000001,-0.29793819975157676
-0.1897000000000002,-0.2986455554015092
-0.1907000000000001,-0.3002017378313608
-0.1917000000000001,-0.3016164491312258
-0.19269999999999998,-0.30260674704113133
-0.1937000000000001,-0.3034555738210504
-0.19469999999999998,-0.3041629294709829
-0.1957000000000001,-0.3051532273808884
-0.19669999999999999,-0.3064264675507669
-0.1977000000000001,-0.30755823659065895
-0.1987,-0.308407063370578
-0.1997000000000001,-0.3091144190205105
-0.2007,-0.30953883241047003
-0.2017000000000001,-0.31123648597030806
-0.2027,-0.31236825501020005
-0.2037000000000001,-0.3127926684001596
-0.2047,-0.3136414951800786
-0.2057000000000001,-0.31434885083001113
-0.2067,-0.3156220909998897
-0.2077000000000001,-0.31675386003978173
-0.2087,-0.3170368022997547
-0.2097000000000001,-0.3178856290796737
-0.2107,-0.31873445585959276
-0.2117000000000001,-0.32014916715945774
-0.2127,-0.32071505167940384
-0.2137000000000001,-0.3208565228093903
-0.2147,-0.3214224073293363
-0.2157000000000001,-0.32269564749921487
-0.2167,-0.32354447427913385
-0.21770000000000012,-0.3243933010590529
-0.2187,-0.3246762433190259
-0.21970000000000012,-0.3248177144490124
-0.2207,-0.32552507009894494
-0.22170000000000012,-0.32651536800885045
-0.2227,-0.32722272365878297
-0.22370000000000012,-0.32722272365878297
-0.2247,-0.32764713704874243
-0.22570000000000012,-0.32807155043870195
-0.2267,-0.329203319478594
-0.22770000000000012,-0.33019361738849956
-0.22870000000000001,-0.33075950190844555
-0.22970000000000013,-0.33075950190844555
-0.23070000000000002,-0.3313253864283916
-0.23170000000000013,-0.3320327420783241
-0.23270000000000002,-0.33217421320831064
-0.23370000000000013,-0.33217421320831064
-0.23470000000000002,-0.33217421320831064
-0.23570000000000013,-0.3320327420783241
-0.23670000000000002,-0.33259862659827016
-0.2376999999999999,-0.3333059822482026
-0.23870000000000002,-0.3335889245081756
-0.2396999999999999,-0.3333059822482026
-0.24070000000000003,-0.33316451111821616
-0.24169999999999991,-0.3340133378981352
-0.24270000000000003,-0.3340133378981352
-0.24369999999999992,-0.3338718667681486
-0.24470000000000003,-0.3338718667681486
-0.24569999999999992,-0.3335889245081756
-0.24670000000000003,-0.3341548090281217
-0.24769999999999992,-0.3348621646780542
-0.24870000000000003,-0.3342962801581082
-0.24969999999999992,-0.3342962801581082
-0.25070000000000003,-0.3340133378981352
-0.2516999999999999,-0.3344377512880947
-0.25270000000000004,-0.3347206935480677
-0.2536999999999999,-0.3341548090281217
-0.25470000000000004,-0.3341548090281217
-0.2556999999999999,-0.3340133378981352
-0.25670000000000004,-0.3342962801581082
-0.25769999999999993,-0.3342962801581082
-0.25870000000000004,-0.33373039563816215
-0.25969999999999993,-0.33344745337818915
-0.26070000000000004,-0.33316451111821616
-0.26169999999999993,-0.33373039563816215
-0.26270000000000004,-0.3338718667681486
-0.26369999999999993,-0.3333059822482026
-0.26470000000000005,-0.33288156885824316
-0.26569999999999994,-0.33288156885824316
-0.26670000000000005,-0.33316451111821616
-0.26769999999999994,-0.33288156885824316
-0.26870000000000005,-0.33259862659827016
-0.26969999999999994,-0.3320327420783241
-0.27070000000000005,-0.3316083286883646
-0.27169999999999994,-0.3318912709483376
-0.27270000000000005,-0.33174979981835107
-0.27369999999999994,-0.3316083286883646
-0.27470000000000006,-0.3309009730384321
-0.27569999999999995,-0.33047655964847256
-0.27670000000000006,-0.3306180307784591
-0.27769999999999995,-0.3303350885184861
-0.27870000000000006,-0.3299106751285265
-0.27969999999999995,-0.32948626173856704
-0.28070000000000006,-0.3290618483486075
-0.28169999999999995,-0.3290618483486075
-0.28270000000000006,-0.3290618483486075
-0.28369999999999995,-0.32821302156868853
-0.28470000000000006,-0.32764713704874243
-0.28569999999999995,-0.32736419478876944
-0.28670000000000007,-0.32750566591875596
-0.28769999999999996,-0.32708125252879644
-0.28870000000000007,-0.32623242574887745
-0.28969999999999996,-0.32623242574887745
-0.29070000000000007,-0.3256665412289314
-0.29169999999999996,-0.32580801235891793
-0.29270000000000007,-0.32580801235891793
-0.29369999999999996,-0.3245347721890394
-0.2947000000000001,-0.3243933010590529
-0.29569999999999996,-0.3239688876690934
-0.2967000000000001,-0.32425182992906637
-0.29769999999999996,-0.32411035879907985
-0.2987000000000001,-0.32326153201916086
-0.29969999999999997,-0.32241270523924187
-0.3007000000000001,-0.32241270523924187
-0.30169999999999997,-0.3217053495893093
-0.3027000000000001,-0.3217053495893093
-0.30369999999999997,-0.3208565228093903
-0.3047000000000001,-0.32014916715945774
-0.30569999999999997,-0.31986622489948474
-0.3067000000000001,-0.31972475376949827
-0.3077,-0.3191588692495523
-0.3087000000000001,-0.3185929847296063
-0.3097,-0.3174612156897142
-0.3107000000000001,-0.3176026868197007
-0.3117,-0.3174612156897142
-0.3127000000000001,-0.3168953311697682
-0.3137,-0.3166123889097952
-0.3147000000000001,-0.31576356212987616
-0.3157,-0.31519767760993017
-0.3167000000000001,-0.31548061986990317
-0.3177,-0.31533914873991664
-0.3187000000000001,-0.3149147353499572
-0.3197,-0.31434885083001113
-0.3207000000000001,-0.3136414951800786
-0.3217,-0.3133585529201056
-0.3227000000000001,-0.31321708179011915
-0.3237,-0.31236825501020005
-0.3247000000000001,-0.31180237049025405
-0.3257,-0.3113779571002946
-0.3267000000000001,-0.31151942823028106
-0.3277,-0.3113779571002946
-0.3287000000000001,-0.3102461880604025
-0.3297,-0.3096803035404565
-0.3307000000000001,-0.30953883241047003
-0.3317,-0.30925589015049704
-0.3327000000000001,-0.30953883241047003
-0.3337,-0.308690005630551
-0.3347000000000001,-0.3079826499806185
-0.3357,-0.3076997077206455
-0.3367000000000001,-0.30784117885063195
-0.3377,-0.3079826499806185
-0.3387000000000001,-0.3071338232006995
-0.3397,-0.30656793868075344
-0.3407000000000001,-0.3061435252907939
-0.3417,-0.3067094098107399
-0.3427000000000001,-0.3067094098107399
-0.3437,-0.3067094098107399
-0.3447000000000001,-0.3061435252907939
-0.3457,-0.3058605830308209
-0.3467000000000001,-0.30600205416080745
-0.3477,-0.30571911190083445
-0.3487000000000001,-0.30487028512091535
-0.3497,-0.30458734286094236
-0.3507000000000001,-0.30402145834099636
-0.3517,-0.30430440060096936
-0.3527000000000001,-0.3044458717309559
-0.3537,-0.3038799872110099
-0.3547000000000001,-0.3034555738210504
-0.3557,-0.3031726315610774
-0.35670000000000013,-0.3031726315610774
-0.3577,-0.3034555738210504
-0.35870000000000013,-0.30260674704113133
-0.3597,-0.30204086252118534
-0.36070000000000013,-0.3021823336511718
-0.3617,-0.3021823336511718
-0.3626999999999999,-0.3024652759111448
-0.3637,-0.30204086252118534
-0.3646999999999999,-0.3013335068712528
-0.3657,-0.3011920357412663
-0.3666999999999999,-0.3016164491312258
-0.3677,-0.3016164491312258
-0.3686999999999999,-0.3013335068712528
-0.36970000000000003,-0.30105056461127977
-0.3706999999999999,-0.3011920357412663
-0.37170000000000003,-0.30175792026121234
-0.3726999999999999,-0.3018993913911988
-0.37370000000000003,-0.30204086252118534
-0.3746999999999999,-0.3013335068712528
-0.37570000000000003,-0.3016164491312258
-0.3766999999999999,-0.3021823336511718
-0.37770000000000004,-0.30232380478115833
-0.3786999999999999,-0.3024652759111448
-0.37970000000000004,-0.3021823336511718
-0.3806999999999999,-0.3021823336511718
-0.38170000000000004,-0.30303116043109085
-0.38269999999999993,-0.3034555738210504
-0.38370000000000004,-0.3027482181711178
-0.38469999999999993,-0.30232380478115833
-0.38570000000000004,-0.3021823336511718
-0.38669999999999993,-0.30260674704113133
-0.38770000000000004,-0.3028896893011043
-0.38869999999999993,-0.30303116043109085
-0.38970000000000005,-0.3028896893011043
-0.39069999999999994,-0.3027482181711178
-0.39170000000000005,-0.3031726315610774
-0.39269999999999994,-0.3033141026910639
-0.39370000000000005,-0.3034555738210504
-0.39469999999999994,-0.3028896893011043
-0.39570000000000005,-0.30260674704113133
-0.39669999999999994,-0.30303116043109085
-0.39770000000000005,-0.3035970449510369
-0.39869999999999994,-0.3033141026910639
-0.39970000000000006,-0.3027482181711178
-0.40069999999999995,-0.3033141026910639
-0.40170000000000006,-0.30373851608102337
-0.40269999999999995,-0.30373851608102337
-0.40370000000000006,-0.30373851608102337
-0.40469999999999995,-0.3033141026910639
-0.40570000000000006,-0.3033141026910639
-0.40669999999999995,-0.30373851608102337
-0.40770000000000006,-0.30430440060096936
-0.40869999999999995,-0.3034555738210504
-0.40970000000000006,-0.3035970449510369
-0.41069999999999995,-0.3031726315610774
-0.41170000000000007,-0.3038799872110099
-0.41269999999999996,-0.30430440060096936
-0.41370000000000007,-0.30402145834099636
-0.41469999999999996,-0.3038799872110099
-0.41570000000000007,-0.3035970449510369
-0.41669999999999996,-0.30373851608102337
-0.41770000000000007,-0.3041629294709829
-0.41869999999999996,-0.3044458717309559
-0.4197000000000001,-0.30402145834099636
-0.42069999999999996,-0.3041629294709829
-0.4217000000000001,-0.3044458717309559
-0.42269999999999996,-0.30458734286094236
-0.4237000000000001,-0.3047288139909289
-0.42469999999999997,-0.3035970449510369
-0.4257000000000001,-0.3033141026910639
-0.42669999999999997,-0.30373851608102337
-0.4277000000000001,-0.3038799872110099
-0.42869999999999997,-0.3035970449510369
-0.4297000000000001,-0.3031726315610774
-0.43069999999999997,-0.3024652759111448
-0.4317000000000001,-0.3033141026910639
-0.4327,-0.3033141026910639
-0.4337000000000001,-0.3027482181711178
-0.4347,-0.3021823336511718
-0.4357000000000001,-0.30204086252118534
-0.4367,-0.30232380478115833
-0.4377000000000001,-0.30232380478115833
-0.4387,-0.3024652759111448
-0.4397000000000001,-0.30260674704113133
-0.4407,-0.3021823336511718
-0.4417000000000001,-0.30260674704113133
-0.4427,-0.3021823336511718
-0.4437000000000001,-0.30175792026121234
-0.4447,-0.30105056461127977
-0.4457000000000001,-0.30105056461127977
-0.4467,-0.30105056461127977
-0.4477000000000001,-0.3011920357412663
-0.4487,-0.30034320896134725
-0.4497000000000001,-0.30034320896134725
-0.4507,-0.2996358533114148
-0.4517000000000001,-0.30034320896134725
-0.4527,-0.2999187955713878
-0.4537000000000001,-0.29906996879146874
-0.4547,-0.29878702653149575
-0.4557000000000001,-0.29822114201154976
-0.4567,-0.2989284976614822
-0.4577000000000001,-0.2992114399214552
-0.4587,-0.2983626131415362
-0.4597000000000001,-0.29793819975157676
-0.4607,-0.2973723152316307
-0.4617000000000001,-0.29779672862159023
-0.4627,-0.29779672862159023
-0.4637000000000001,-0.29751378636161724
-0.4647,-0.29652348845171167
-0.4657000000000001,-0.29680643071168467
-0.4667,-0.2969479018416712
-0.4677000000000001,-0.2969479018416712
-0.4687,-0.2966649595816982
-0.4697000000000001,-0.2955331905418062
-0.4707,-0.2958161328017792
-0.4717000000000001,-0.2962405461917387
-0.4727,-0.2959576039317657
-0.4737000000000001,-0.2958161328017792
-0.4747,-0.29510877715184664
-0.4757000000000001,-0.2946843637618871
-0.4767,-0.29510877715184664
-0.4777000000000001,-0.2952502482818331
-0.4787,-0.2946843637618871
-0.4797000000000001,-0.29425995037192765
-0.4807,-0.29397700811195465
-0.48170000000000013,-0.2941184792419411
-0.4827,-0.2941184792419411
-0.48370000000000013,-0.29369406585198166
-0.4847,-0.2934111235920086
-0.48570000000000013,-0.2931281813320356
-0.4867,-0.2934111235920086
-0.4876999999999999,-0.29369406585198166
-0.4887,-0.2929867102020491
-0.4896999999999999,-0.29227935455211657
-0.4907,-0.2921378834221301
-0.4916999999999999,-0.2929867102020491
