Sept. 15, 2024   19:02:18
Cyclic Voltammetry
File: c:/users/guazh/data/20240903_batch_252_500/2024-09-03-exp363\exp363-2024-09-15t18_50_03-h2koh\exp363_cv_sr_800mvs_efin_-1500mv.bin
Data Source:  Experiment
Instrument Model:  CHI760E
Header: CV ran at 800 mVs
Note: 

Init E (V) = -1
High E (V) = -1
Low E (V) = -1.5
Final E (V) = -1
Init P/N = N
Scan Rate (V/s) = 0.8
Segment = 3
Sample Interval (V) = 0.001
Quiet Time (sec) = 2
Sensitivity (A/V) = 0.01
Comp R (ohm) = 3.0

Results:

Channel 1:
Segment 1:

Segment 2:

Segment 3:

Potential/V, Current/A

-1.000, 2.174e-5
-1.001, 8.340e-5
-1.002, 1.204e-4
-1.003, 1.451e-4
-1.004, 1.605e-4
-1.005, 1.697e-4
-1.006, 1.759e-4
-1.007, 1.821e-4
-1.008, 1.821e-4
-1.009, 1.851e-4
-1.010, 1.882e-4
-1.011, 1.913e-4
-1.012, 1.913e-4
-1.013, 1.913e-4
-1.014, 1.913e-4
-1.015, 1.975e-4
-1.016, 1.975e-4
-1.017, 1.975e-4
-1.018, 2.006e-4
-1.019, 2.006e-4
-1.020, 2.036e-4
-1.021, 2.036e-4
-1.022, 2.036e-4
-1.023, 2.036e-4
-1.024, 2.036e-4
-1.025, 2.036e-4
-1.026, 2.036e-4
-1.027, 2.067e-4
-1.028, 2.067e-4
-1.029, 2.067e-4
-1.030, 2.067e-4
-1.031, 2.098e-4
-1.032, 2.098e-4
-1.033, 2.098e-4
-1.034, 2.129e-4
-1.035, 2.067e-4
-1.036, 2.098e-4
-1.037, 2.098e-4
-1.038, 2.098e-4
-1.039, 2.129e-4
-1.040, 2.129e-4
-1.041, 2.129e-4
-1.042, 2.129e-4
-1.043, 2.129e-4
-1.044, 2.160e-4
-1.045, 2.160e-4
-1.046, 2.160e-4
-1.047, 2.160e-4
-1.048, 2.160e-4
-1.049, 2.160e-4
-1.050, 2.160e-4
-1.051, 2.160e-4
-1.052, 2.160e-4
-1.053, 2.160e-4
-1.054, 2.160e-4
-1.055, 2.191e-4
-1.056, 2.191e-4
-1.057, 2.191e-4
-1.058, 2.191e-4
-1.059, 2.191e-4
-1.060, 2.191e-4
-1.061, 2.191e-4
-1.062, 2.221e-4
-1.063, 2.221e-4
-1.064, 2.221e-4
-1.065, 2.191e-4
-1.066, 2.191e-4
-1.067, 2.221e-4
-1.068, 2.221e-4
-1.069, 2.221e-4
-1.070, 2.221e-4
-1.071, 2.252e-4
-1.072, 2.252e-4
-1.073, 2.252e-4
-1.074, 2.252e-4
-1.075, 2.252e-4
-1.076, 2.252e-4
-1.077, 2.252e-4
-1.078, 2.221e-4
-1.079, 2.252e-4
-1.080, 2.252e-4
-1.081, 2.252e-4
-1.082, 2.252e-4
-1.083, 2.252e-4
-1.084, 2.283e-4
-1.085, 2.283e-4
-1.086, 2.283e-4
-1.087, 2.283e-4
-1.088, 2.283e-4
-1.089, 2.283e-4
-1.090, 2.283e-4
-1.091, 2.283e-4
-1.092, 2.283e-4
-1.093, 2.283e-4
-1.094, 2.283e-4
-1.095, 2.314e-4
-1.096, 2.283e-4
-1.097, 2.314e-4
-1.098, 2.314e-4
-1.099, 2.283e-4
-1.100, 2.314e-4
-1.101, 2.314e-4
-1.102, 2.345e-4
-1.103, 2.314e-4
-1.104, 2.314e-4
-1.105, 2.314e-4
-1.106, 2.314e-4
-1.107, 2.314e-4
-1.108, 2.314e-4
-1.109, 2.314e-4
-1.110, 2.314e-4
-1.111, 2.345e-4
-1.112, 2.345e-4
-1.113, 2.345e-4
-1.114, 2.376e-4
-1.115, 2.345e-4
-1.116, 2.345e-4
-1.117, 2.345e-4
-1.118, 2.314e-4
-1.119, 2.345e-4
-1.120, 2.345e-4
-1.121, 2.345e-4
-1.122, 2.345e-4
-1.123, 2.345e-4
-1.124, 2.376e-4
-1.125, 2.376e-4
-1.126, 2.345e-4
-1.127, 2.376e-4
-1.128, 2.376e-4
-1.129, 2.376e-4
-1.130, 2.345e-4
-1.131, 2.376e-4
-1.132, 2.376e-4
-1.133, 2.376e-4
-1.134, 2.376e-4
-1.135, 2.376e-4
-1.136, 2.376e-4
-1.137, 2.406e-4
-1.138, 2.406e-4
-1.139, 2.376e-4
-1.140, 2.406e-4
-1.141, 2.406e-4
-1.142, 2.376e-4
-1.143, 2.406e-4
-1.144, 2.376e-4
-1.145, 2.406e-4
-1.146, 2.376e-4
-1.147, 2.376e-4
-1.148, 2.406e-4
-1.149, 2.406e-4
-1.150, 2.406e-4
-1.151, 2.437e-4
-1.152, 2.406e-4
-1.153, 2.437e-4
-1.154, 2.437e-4
-1.155, 2.406e-4
-1.156, 2.406e-4
-1.157, 2.406e-4
-1.158, 2.406e-4
-1.159, 2.406e-4
-1.160, 2.406e-4
-1.161, 2.437e-4
-1.162, 2.437e-4
-1.163, 2.437e-4
-1.164, 2.468e-4
-1.165, 2.437e-4
-1.166, 2.437e-4
-1.167, 2.437e-4
-1.168, 2.437e-4
-1.169, 2.437e-4
-1.170, 2.437e-4
-1.171, 2.437e-4
-1.172, 2.437e-4
-1.173, 2.437e-4
-1.174, 2.437e-4
-1.175, 2.468e-4
-1.176, 2.468e-4
-1.177, 2.468e-4
-1.178, 2.468e-4
-1.179, 2.499e-4
-1.180, 2.499e-4
-1.181, 2.499e-4
-1.182, 2.468e-4
-1.183, 2.499e-4
-1.184, 2.468e-4
-1.185, 2.468e-4
-1.186, 2.468e-4
-1.187, 2.499e-4
-1.188, 2.468e-4
-1.189, 2.499e-4
-1.190, 2.499e-4
-1.191, 2.499e-4
-1.192, 2.530e-4
-1.193, 2.530e-4
-1.194, 2.530e-4
-1.195, 2.499e-4
-1.196, 2.499e-4
-1.197, 2.499e-4
-1.198, 2.499e-4
-1.199, 2.530e-4
-1.200, 2.499e-4
-1.201, 2.530e-4
-1.202, 2.530e-4
-1.203, 2.561e-4
-1.204, 2.561e-4
-1.205, 2.561e-4
-1.206, 2.591e-4
-1.207, 2.561e-4
-1.208, 2.561e-4
-1.209, 2.561e-4
-1.210, 2.591e-4
-1.211, 2.561e-4
-1.212, 2.561e-4
-1.213, 2.591e-4
-1.214, 2.561e-4
-1.215, 2.591e-4
-1.216, 2.591e-4
-1.217, 2.591e-4
-1.218, 2.591e-4
-1.219, 2.622e-4
-1.220, 2.622e-4
-1.221, 2.622e-4
-1.222, 2.622e-4
-1.223, 2.653e-4
-1.224, 2.622e-4
-1.225, 2.622e-4
-1.226, 2.622e-4
-1.227, 2.653e-4
-1.228, 2.653e-4
-1.229, 2.684e-4
-1.230, 2.684e-4
-1.231, 2.715e-4
-1.232, 2.684e-4
-1.233, 2.715e-4
-1.234, 2.715e-4
-1.235, 2.715e-4
-1.236, 2.715e-4
-1.237, 2.715e-4
-1.238, 2.715e-4
-1.239, 2.746e-4
-1.240, 2.746e-4
-1.241, 2.746e-4
-1.242, 2.776e-4
-1.243, 2.776e-4
-1.244, 2.807e-4
-1.245, 2.807e-4
-1.246, 2.807e-4
-1.247, 2.807e-4
-1.248, 2.838e-4
-1.249, 2.838e-4
-1.250, 2.869e-4
-1.251, 2.869e-4
-1.252, 2.869e-4
-1.253, 2.869e-4
-1.254, 2.869e-4
-1.255, 2.900e-4
-1.256, 2.900e-4
-1.257, 2.931e-4
-1.258, 2.961e-4
-1.259, 2.961e-4
-1.260, 2.992e-4
-1.261, 2.992e-4
-1.262, 3.023e-4
-1.263, 3.023e-4
-1.264, 3.023e-4
-1.265, 3.023e-4
-1.266, 3.054e-4
-1.267, 3.085e-4
-1.268, 3.085e-4
-1.269, 3.115e-4
-1.270, 3.146e-4
-1.271, 3.146e-4
-1.272, 3.177e-4
-1.273, 3.177e-4
-1.274, 3.208e-4
-1.275, 3.208e-4
-1.276, 3.239e-4
-1.277, 3.270e-4
-1.278, 3.270e-4
-1.279, 3.300e-4
-1.280, 3.331e-4
-1.281, 3.331e-4
-1.282, 3.362e-4
-1.283, 3.393e-4
-1.284, 3.455e-4
-1.285, 3.455e-4
-1.286, 3.485e-4
-1.287, 3.485e-4
-1.288, 3.547e-4
-1.289, 3.578e-4
-1.290, 3.578e-4
-1.291, 3.609e-4
-1.292, 3.640e-4
-1.293, 3.670e-4
-1.294, 3.701e-4
-1.295, 3.732e-4
-1.296, 3.763e-4
-1.297, 3.825e-4
-1.298, 3.855e-4
-1.299, 3.886e-4
-1.300, 3.917e-4
-1.301, 3.948e-4
-1.302, 3.979e-4
-1.303, 4.010e-4
-1.304, 4.040e-4
-1.305, 4.071e-4
-1.306, 4.133e-4
-1.307, 4.164e-4
-1.308, 4.195e-4
-1.309, 4.256e-4
-1.310, 4.318e-4
-1.311, 4.380e-4
-1.312, 4.380e-4
-1.313, 4.441e-4
-1.314, 4.472e-4
-1.315, 4.503e-4
-1.316, 4.565e-4
-1.317, 4.595e-4
-1.318, 4.657e-4
-1.319, 4.750e-4
-1.320, 4.780e-4
-1.321, 4.811e-4
-1.322, 4.873e-4
-1.323, 4.935e-4
-1.324, 4.996e-4
-1.325, 5.058e-4
-1.326, 5.120e-4
-1.327, 5.181e-4
-1.328, 5.243e-4
-1.329, 5.305e-4
-1.330, 5.366e-4
-1.331, 5.428e-4
-1.332, 5.489e-4
-1.333, 5.551e-4
-1.334, 5.613e-4
-1.335, 5.705e-4
-1.336, 5.767e-4
-1.337, 5.859e-4
-1.338, 5.952e-4
-1.339, 6.014e-4
-1.340, 6.106e-4
-1.341, 6.168e-4
-1.342, 6.229e-4
-1.343, 6.291e-4
-1.344, 6.353e-4
-1.345, 6.445e-4
-1.346, 6.538e-4
-1.347, 6.630e-4
-1.348, 6.723e-4
-1.349, 6.815e-4
-1.350, 6.908e-4
-1.351, 6.969e-4
-1.352, 7.062e-4
-1.353, 7.154e-4
-1.354, 7.278e-4
-1.355, 7.339e-4
-1.356, 7.432e-4
-1.357, 7.555e-4
-1.358, 7.679e-4
-1.359, 7.771e-4
-1.360, 7.863e-4
-1.361, 7.956e-4
-1.362, 8.079e-4
-1.363, 8.172e-4
-1.364, 8.295e-4
-1.365, 8.418e-4
-1.366, 8.542e-4
-1.367, 8.634e-4
-1.368, 8.788e-4
-1.369, 8.881e-4
-1.370, 9.004e-4
-1.371, 9.097e-4
-1.372, 9.189e-4
-1.373, 9.282e-4
-1.374, 9.436e-4
-1.375, 9.590e-4
-1.376, 9.713e-4
-1.377, 9.868e-4
-1.378, 9.991e-4
-1.379, 1.011e-3
-1.380, 1.024e-3
-1.381, 1.036e-3
-1.382, 1.048e-3
-1.383, 1.061e-3
-1.384, 1.076e-3
-1.385, 1.092e-3
-1.386, 1.104e-3
-1.387, 1.122e-3
-1.388, 1.138e-3
-1.389, 1.150e-3
-1.390, 1.166e-3
-1.391, 1.181e-3
-1.392, 1.193e-3
-1.393, 1.209e-3
-1.394, 1.224e-3
-1.395, 1.240e-3
-1.396, 1.258e-3
-1.397, 1.273e-3
-1.398, 1.289e-3
-1.399, 1.307e-3
-1.400, 1.323e-3
-1.401, 1.338e-3
-1.402, 1.354e-3
-1.403, 1.369e-3
-1.404, 1.388e-3
-1.405, 1.406e-3
-1.406, 1.425e-3
-1.407, 1.443e-3
-1.408, 1.462e-3
-1.409, 1.483e-3
-1.410, 1.499e-3
-1.411, 1.514e-3
-1.412, 1.532e-3
-1.413, 1.548e-3
-1.414, 1.566e-3
-1.415, 1.585e-3
-1.416, 1.606e-3
-1.417, 1.628e-3
-1.418, 1.650e-3
-1.419, 1.668e-3
-1.420, 1.690e-3
-1.421, 1.708e-3
-1.422, 1.730e-3
-1.423, 1.748e-3
-1.424, 1.764e-3
-1.425, 1.782e-3
-1.426, 1.807e-3
-1.427, 1.828e-3
-1.428, 1.850e-3
-1.429, 1.872e-3
-1.430, 1.893e-3
-1.431, 1.918e-3
-1.432, 1.939e-3
-1.433, 1.958e-3
-1.434, 1.980e-3
-1.435, 1.998e-3
-1.436, 2.020e-3
-1.437, 2.044e-3
-1.438, 2.069e-3
-1.439, 2.097e-3
-1.440, 2.121e-3
-1.441, 2.146e-3
-1.442, 2.164e-3
-1.443, 2.186e-3
-1.444, 2.208e-3
-1.445, 2.232e-3
-1.446, 2.254e-3
-1.447, 2.279e-3
-1.448, 2.306e-3
-1.449, 2.334e-3
-1.450, 2.359e-3
-1.451, 2.383e-3
-1.452, 2.405e-3
-1.453, 2.430e-3
-1.454, 2.451e-3
-1.455, 2.476e-3
-1.456, 2.504e-3
-1.457, 2.531e-3
-1.458, 2.559e-3
-1.459, 2.587e-3
-1.460, 2.618e-3
-1.461, 2.645e-3
-1.462, 2.670e-3
-1.463, 2.698e-3
-1.464, 2.723e-3
-1.465, 2.747e-3
-1.466, 2.775e-3
-1.467, 2.800e-3
-1.468, 2.830e-3
-1.469, 2.861e-3
-1.470, 2.895e-3
-1.471, 2.926e-3
-1.472, 2.957e-3
-1.473, 2.982e-3
-1.474, 3.009e-3
-1.475, 3.034e-3
-1.476, 3.062e-3
-1.477, 3.089e-3
-1.478, 3.123e-3
-1.479, 3.157e-3
-1.480, 3.191e-3
-1.481, 3.225e-3
-1.482, 3.256e-3
-1.483, 3.287e-3
-1.484, 3.314e-3
-1.485, 3.342e-3
-1.486, 3.373e-3
-1.487, 3.404e-3
-1.488, 3.435e-3
-1.489, 3.472e-3
-1.490, 3.509e-3
-1.491, 3.543e-3
-1.492, 3.577e-3
-1.493, 3.607e-3
-1.494, 3.638e-3
-1.495, 3.669e-3
-1.496, 3.700e-3
-1.497, 3.734e-3
-1.498, 3.768e-3
-1.499, 3.805e-3
-1.500, 3.783e-3
-1.499, 3.688e-3
-1.498, 3.617e-3
-1.497, 3.555e-3
-1.496, 3.496e-3
-1.495, 3.441e-3
-1.494, 3.385e-3
-1.493, 3.333e-3
-1.492, 3.284e-3
-1.491, 3.241e-3
-1.490, 3.200e-3
-1.489, 3.157e-3
-1.488, 3.117e-3
-1.487, 3.074e-3
-1.486, 3.028e-3
-1.485, 2.975e-3
-1.484, 2.929e-3
-1.483, 2.883e-3
-1.482, 2.846e-3
-1.481, 2.806e-3
-1.480, 2.772e-3
-1.479, 2.738e-3
-1.478, 2.698e-3
-1.477, 2.655e-3
-1.476, 2.612e-3
-1.475, 2.568e-3
-1.474, 2.531e-3
-1.473, 2.497e-3
-1.472, 2.464e-3
-1.471, 2.430e-3
-1.470, 2.396e-3
-1.469, 2.359e-3
-1.468, 2.322e-3
-1.467, 2.282e-3
-1.466, 2.245e-3
-1.465, 2.211e-3
-1.464, 2.180e-3
-1.463, 2.146e-3
-1.462, 2.118e-3
-1.461, 2.087e-3
-1.460, 2.057e-3
-1.459, 2.023e-3
-1.458, 1.989e-3
-1.457, 1.958e-3
-1.456, 1.927e-3
-1.455, 1.893e-3
-1.454, 1.862e-3
-1.453, 1.838e-3
-1.452, 1.810e-3
-1.451, 1.782e-3
-1.450, 1.751e-3
-1.449, 1.724e-3
-1.448, 1.696e-3
-1.447, 1.665e-3
-1.446, 1.637e-3
-1.445, 1.610e-3
-1.444, 1.585e-3
-1.443, 1.560e-3
-1.442, 1.536e-3
-1.441, 1.511e-3
-1.440, 1.486e-3
-1.439, 1.462e-3
-1.438, 1.434e-3
-1.437, 1.409e-3
-1.436, 1.384e-3
-1.435, 1.363e-3
-1.434, 1.338e-3
-1.433, 1.317e-3
-1.432, 1.295e-3
-1.431, 1.273e-3
-1.430, 1.252e-3
-1.429, 1.227e-3
-1.428, 1.206e-3
-1.427, 1.181e-3
-1.426, 1.162e-3
-1.425, 1.141e-3
-1.424, 1.122e-3
-1.423, 1.104e-3
-1.422, 1.085e-3
-1.421, 1.064e-3
-1.420, 1.045e-3
-1.419, 1.024e-3
-1.418, 1.002e-3
-1.417, 9.837e-4
-1.416, 9.621e-4
-1.415, 9.436e-4
-1.414, 9.282e-4
-1.413, 9.097e-4
-1.412, 8.943e-4
-1.411, 8.758e-4
-1.410, 8.573e-4
-1.409, 8.418e-4
-1.408, 8.233e-4
-1.407, 8.048e-4
-1.406, 7.925e-4
-1.405, 7.740e-4
-1.404, 7.586e-4
-1.403, 7.432e-4
-1.402, 7.278e-4
-1.401, 7.124e-4
-1.400, 6.969e-4
-1.399, 6.815e-4
-1.398, 6.661e-4
-1.397, 6.507e-4
-1.396, 6.384e-4
-1.395, 6.260e-4
-1.394, 6.106e-4
-1.393, 5.952e-4
-1.392, 5.829e-4
-1.391, 5.705e-4
-1.390, 5.551e-4
-1.389, 5.428e-4
-1.388, 5.274e-4
-1.387, 5.150e-4
-1.386, 5.027e-4
-1.385, 4.904e-4
-1.384, 4.811e-4
-1.383, 4.688e-4
-1.382, 4.565e-4
-1.381, 4.441e-4
-1.380, 4.318e-4
-1.379, 4.225e-4
-1.378, 4.133e-4
-1.377, 3.979e-4
-1.376, 3.886e-4
-1.375, 3.763e-4
-1.374, 3.670e-4
-1.373, 3.578e-4
-1.372, 3.455e-4
-1.371, 3.362e-4
-1.370, 3.270e-4
-1.369, 3.177e-4
-1.368, 3.085e-4
-1.367, 2.992e-4
-1.366, 2.900e-4
-1.365, 2.807e-4
-1.364, 2.684e-4
-1.363, 2.591e-4
-1.362, 2.499e-4
-1.361, 2.437e-4
-1.360, 2.345e-4
-1.359, 2.252e-4
-1.358, 2.191e-4
-1.357, 2.098e-4
-1.356, 2.036e-4
-1.355, 1.944e-4
-1.354, 1.882e-4
-1.353, 1.790e-4
-1.352, 1.728e-4
-1.351, 1.636e-4
-1.350, 1.574e-4
-1.349, 1.481e-4
-1.348, 1.420e-4
-1.347, 1.358e-4
-1.346, 1.266e-4
-1.345, 1.204e-4
-1.344, 1.142e-4
-1.343, 1.081e-4
-1.342, 1.019e-4
-1.341, 9.573e-5
-1.340, 8.957e-5
-1.339, 8.340e-5
-1.338, 7.723e-5
-1.337, 7.107e-5
-1.336, 6.490e-5
-1.335, 5.565e-5
-1.334, 5.257e-5
-1.333, 4.640e-5
-1.332, 4.024e-5
-1.331, 3.715e-5
-1.330, 3.099e-5
-1.329, 2.790e-5
-1.328, 1.865e-5
-1.327, 1.557e-5
-1.326, 1.249e-5
-1.325, 3.239e-6
-1.324, 1.559e-7
-1.323, -2.927e-6
-1.322, -9.093e-6
-1.321, -1.218e-5
-1.320, -1.834e-5
-1.319, -2.451e-5
-1.318, -2.759e-5
-1.317, -3.068e-5
-1.316, -3.376e-5
-1.315, -3.992e-5
-1.314, -4.301e-5
-1.313, -4.609e-5
-1.312, -4.917e-5
-1.311, -5.534e-5
-1.310, -5.842e-5
-1.309, -6.459e-5
-1.308, -6.767e-5
-1.307, -7.076e-5
-1.306, -7.384e-5
-1.305, -7.692e-5
-1.304, -8.000e-5
-1.303, -8.309e-5
-1.302, -8.617e-5
-1.301, -8.925e-5
-1.300, -9.234e-5
-1.299, -9.542e-5
-1.298, -9.850e-5
-1.297, -1.016e-4
-1.296, -1.047e-4
-1.295, -1.108e-4
-1.294, -1.139e-4
-1.293, -1.139e-4
-1.292, -1.170e-4
-1.291, -1.201e-4
-1.290, -1.232e-4
-1.289, -1.263e-4
-1.288, -1.263e-4
-1.287, -1.293e-4
-1.286, -1.293e-4
-1.285, -1.355e-4
-1.284, -1.386e-4
-1.283, -1.386e-4
-1.282, -1.417e-4
-1.281, -1.448e-4
-1.280, -1.478e-4
-1.279, -1.509e-4
-1.278, -1.509e-4
-1.277, -1.540e-4
-1.276, -1.540e-4
-1.275, -1.540e-4
-1.274, -1.571e-4
-1.273, -1.602e-4
-1.272, -1.602e-4
-1.271, -1.632e-4
-1.270, -1.632e-4
-1.269, -1.663e-4
-1.268, -1.694e-4
-1.267, -1.694e-4
-1.266, -1.725e-4
-1.265, -1.725e-4
-1.264, -1.756e-4
-1.263, -1.756e-4
-1.262, -1.787e-4
-1.261, -1.787e-4
-1.260, -1.787e-4
-1.259, -1.817e-4
-1.258, -1.817e-4
-1.257, -1.848e-4
-1.256, -1.848e-4
-1.255, -1.879e-4
-1.254, -1.910e-4
-1.253, -1.910e-4
-1.252, -1.941e-4
-1.251, -1.910e-4
-1.250, -1.941e-4
-1.249, -1.910e-4
-1.248, -1.941e-4
-1.247, -1.941e-4
-1.246, -1.972e-4
-1.245, -2.002e-4
-1.244, -2.002e-4
-1.243, -2.002e-4
-1.242, -2.033e-4
-1.241, -2.033e-4
-1.240, -2.033e-4
-1.239, -2.033e-4
-1.238, -2.064e-4
-1.237, -2.064e-4
-1.236, -2.064e-4
-1.235, -2.064e-4
-1.234, -2.095e-4
-1.233, -2.095e-4
-1.232, -2.095e-4
-1.231, -2.095e-4
-1.230, -2.095e-4
-1.229, -2.126e-4
-1.228, -2.157e-4
-1.227, -2.157e-4
-1.226, -2.157e-4
-1.225, -2.187e-4
-1.224, -2.157e-4
-1.223, -2.187e-4
-1.222, -2.187e-4
-1.221, -2.187e-4
-1.220, -2.187e-4
-1.219, -2.187e-4
-1.218, -2.187e-4
-1.217, -2.187e-4
-1.216, -2.218e-4
-1.215, -2.249e-4
-1.214, -2.249e-4
-1.213, -2.249e-4
-1.212, -2.249e-4
-1.211, -2.249e-4
-1.210, -2.249e-4
-1.209, -2.249e-4
-1.208, -2.249e-4
-1.207, -2.249e-4
-1.206, -2.249e-4
-1.205, -2.280e-4
-1.204, -2.280e-4
-1.203, -2.311e-4
-1.202, -2.311e-4
-1.201, -2.311e-4
-1.200, -2.311e-4
-1.199, -2.311e-4
-1.198, -2.311e-4
-1.197, -2.311e-4
-1.196, -2.311e-4
-1.195, -2.311e-4
-1.194, -2.342e-4
-1.193, -2.311e-4
-1.192, -2.311e-4
-1.191, -2.342e-4
-1.190, -2.342e-4
-1.189, -2.372e-4
-1.188, -2.372e-4
-1.187, -2.342e-4
-1.186, -2.372e-4
-1.185, -2.342e-4
-1.184, -2.342e-4
-1.183, -2.342e-4
-1.182, -2.372e-4
-1.181, -2.372e-4
-1.180, -2.372e-4
-1.179, -2.372e-4
-1.178, -2.403e-4
-1.177, -2.403e-4
-1.176, -2.403e-4
-1.175, -2.403e-4
-1.174, -2.403e-4
-1.173, -2.403e-4
-1.172, -2.434e-4
-1.171, -2.403e-4
-1.170, -2.403e-4
-1.169, -2.403e-4
-1.168, -2.403e-4
-1.167, -2.434e-4
-1.166, -2.403e-4
-1.165, -2.434e-4
-1.164, -2.434e-4
-1.163, -2.434e-4
-1.162, -2.434e-4
-1.161, -2.434e-4
-1.160, -2.434e-4
-1.159, -2.465e-4
-1.158, -2.434e-4
-1.157, -2.434e-4
-1.156, -2.434e-4
-1.155, -2.434e-4
-1.154, -2.465e-4
-1.153, -2.465e-4
-1.152, -2.465e-4
-1.151, -2.465e-4
-1.150, -2.496e-4
-1.149, -2.496e-4
-1.148, -2.496e-4
-1.147, -2.496e-4
-1.146, -2.496e-4
-1.145, -2.496e-4
-1.144, -2.465e-4
-1.143, -2.465e-4
-1.142, -2.496e-4
-1.141, -2.496e-4
-1.140, -2.496e-4
-1.139, -2.527e-4
-1.138, -2.527e-4
-1.137, -2.527e-4
-1.136, -2.527e-4
-1.135, -2.527e-4
-1.134, -2.527e-4
-1.133, -2.557e-4
-1.132, -2.557e-4
-1.131, -2.527e-4
-1.130, -2.557e-4
-1.129, -2.557e-4
-1.128, -2.557e-4
-1.127, -2.527e-4
-1.126, -2.527e-4
-1.125, -2.557e-4
-1.124, -2.557e-4
-1.123, -2.557e-4
-1.122, -2.588e-4
-1.121, -2.588e-4
-1.120, -2.588e-4
-1.119, -2.588e-4
-1.118, -2.557e-4
-1.117, -2.588e-4
-1.116, -2.588e-4
-1.115, -2.588e-4
-1.114, -2.588e-4
-1.113, -2.588e-4
-1.112, -2.588e-4
-1.111, -2.619e-4
-1.110, -2.619e-4
-1.109, -2.619e-4
-1.108, -2.650e-4
-1.107, -2.650e-4
-1.106, -2.650e-4
-1.105, -2.619e-4
-1.104, -2.619e-4
-1.103, -2.650e-4
-1.102, -2.650e-4
-1.101, -2.650e-4
-1.100, -2.650e-4
-1.099, -2.650e-4
-1.098, -2.681e-4
-1.097, -2.650e-4
-1.096, -2.650e-4
-1.095, -2.681e-4
-1.094, -2.681e-4
-1.093, -2.681e-4
-1.092, -2.712e-4
-1.091, -2.712e-4
-1.090, -2.712e-4
-1.089, -2.712e-4
-1.088, -2.712e-4
-1.087, -2.712e-4
-1.086, -2.712e-4
-1.085, -2.712e-4
-1.084, -2.712e-4
-1.083, -2.742e-4
-1.082, -2.742e-4
-1.081, -2.742e-4
-1.080, -2.742e-4
-1.079, -2.773e-4
-1.078, -2.773e-4
-1.077, -2.773e-4
-1.076, -2.773e-4
-1.075, -2.773e-4
-1.074, -2.773e-4
-1.073, -2.773e-4
-1.072, -2.773e-4
-1.071, -2.773e-4
-1.070, -2.804e-4
-1.069, -2.804e-4
-1.068, -2.835e-4
-1.067, -2.835e-4
-1.066, -2.835e-4
-1.065, -2.835e-4
-1.064, -2.835e-4
-1.063, -2.835e-4
-1.062, -2.835e-4
-1.061, -2.835e-4
-1.060, -2.866e-4
-1.059, -2.866e-4
-1.058, -2.866e-4
-1.057, -2.897e-4
-1.056, -2.897e-4
-1.055, -2.897e-4
-1.054, -2.897e-4
-1.053, -2.897e-4
-1.052, -2.927e-4
-1.051, -2.927e-4
-1.050, -2.927e-4
-1.049, -2.927e-4
-1.048, -2.927e-4
-1.047, -2.927e-4
-1.046, -2.958e-4
-1.045, -2.958e-4
-1.044, -2.958e-4
-1.043, -2.989e-4
-1.042, -2.989e-4
-1.041, -2.989e-4
-1.040, -3.020e-4
-1.039, -3.020e-4
-1.038, -3.051e-4
-1.037, -3.020e-4
-1.036, -3.020e-4
-1.035, -3.051e-4
-1.034, -3.051e-4
-1.033, -3.082e-4
-1.032, -3.082e-4
-1.031, -3.082e-4
-1.030, -3.082e-4
-1.029, -3.112e-4
-1.028, -3.143e-4
-1.027, -3.143e-4
-1.026, -3.143e-4
-1.025, -3.174e-4
-1.024, -3.174e-4
-1.023, -3.174e-4
-1.022, -3.205e-4
-1.021, -3.205e-4
-1.020, -3.236e-4
-1.019, -3.236e-4
-1.018, -3.267e-4
-1.017, -3.297e-4
-1.016, -3.297e-4
-1.015, -3.328e-4
-1.014, -3.328e-4
-1.013, -3.359e-4
-1.012, -3.390e-4
-1.011, -3.390e-4
-1.010, -3.390e-4
-1.009, -3.421e-4
-1.008, -3.421e-4
-1.007, -3.452e-4
-1.006, -3.482e-4
-1.005, -3.513e-4
-1.004, -3.544e-4
-1.003, -3.575e-4
-1.002, -3.575e-4
-1.001, -3.606e-4
