Potential V vs RHE, Current mA cm-2
0.013299999999999867,-0.44662435736739203
0.012299999999999978,-1.6919947146385839
0.011299999999999866,-2.536577360658011
0.010299999999999976,-3.27505665918756
0.009299999999999864,-3.8664059825311448
0.008299999999999974,-4.290819372490656
0.007299999999999862,-4.671376712154351
0.006299999999999972,-5.0292986710202054
0.00529999999999986,-5.249993633799152
0.0042999999999999705,-5.483420998276882
0.0032999999999998586,-5.776266237348945
0.0022999999999999687,-5.961593417631265
0.0012999999999998568,-6.0719408990207375
0.00029999999999996696,-6.2233150081062965
-0.000700000000000145,-6.329418355596174
-0.0017000000000000348,-6.357712581593474
-0.0027000000000001467,-6.4793777533818675
-0.0037000000000000366,-6.651972531965402
-0.0047000000000001485,-6.684510891862298
-0.005700000000000038,-6.6958285822612185
-0.00670000000000015,-6.807590774950556
-0.00770000000000004,-6.799102507151367
-0.008700000000000152,-6.756661168155415
-0.009700000000000042,-6.854276247846103
-0.010700000000000154,-6.967453151835306
-0.011700000000000044,-6.936329503238276
-0.012700000000000156,-6.941988348437734
-0.013700000000000045,-6.9915032439330105
-0.014700000000000157,-6.939158925838006
-0.015700000000000047,-6.888229319042864
-0.01670000000000016,-6.992917955232877
-0.01770000000000005,-7.022626892530043
-0.01870000000000016,-6.961794306635846
-0.01970000000000005,-6.968867863135171
-0.020700000000000163,-6.947647193637194
-0.021700000000000053,-6.882570473843404
-0.022700000000000164,-6.923597101539489
-0.023700000000000054,-7.012723913430986
-0.024700000000000166,-6.963209017935711
-0.025700000000000056,-6.895302875542188
-0.026700000000000168,-6.934914791938409
-0.027700000000000058,-6.886814607742999
-0.02870000000000017,-6.7877848167524455
-0.02970000000000006,-6.821737887949207
-0.03070000000000017,-6.900961720741648
-0.03170000000000006,-6.834470289647991
-0.03270000000000017,-6.794858373251771
-0.03370000000000006,-6.845787980046913
-0.034700000000000175,-6.75524645685555
-0.035700000000000065,-6.6632902223643224
-0.03670000000000018,-6.717049251759194
-0.03770000000000007,-6.75807587945528
-0.03870000000000018,-6.6958285822612185
-0.03970000000000007,-6.683096180562433
-0.04070000000000018,-6.701487427460679
-0.04170000000000007,-6.592554657371071
-0.04270000000000018,-6.526063226277413
-0.04370000000000007,-6.6109459042693155
-0.044700000000000184,-6.602457636470127
-0.045700000000000074,-6.53030736017701
-0.046700000000000186,-6.5670898539735
-0.047700000000000076,-6.510501401978899
-0.04870000000000019,-6.407227477088751
-0.04970000000000008,-6.445424682185107
-0.05070000000000019,-6.507671979379168
-0.05170000000000008,-6.458157083883892
-0.05270000000000019,-6.381762673691181
-0.05370000000000008,-6.428448146586726
-0.05470000000000019,-6.37044498329226
-0.05570000000000008,-6.264341635802381
-0.056700000000000195,-6.296879995699278
-0.057700000000000085,-6.343565468594824
-0.058700000000000196,-6.292635861799683
-0.059700000000000086,-6.278488748801033
-0.0607000000000002,-6.292635861799683
-0.06170000000000009,-6.240291543704677
-0.0627000000000002,-6.186532514309805
-0.06370000000000009,-6.197850204708726
-0.0647000000000002,-6.187947225609671
-0.06570000000000009,-6.1709706900112895
-0.0667000000000002,-6.20209433860832
-0.0677000000000001,-6.1624824222121
-0.0687000000000002,-6.062037919921682
-0.0697000000000001,-6.086088012019388
-0.07070000000000021,-6.1511647318131795
-0.0717000000000001,-6.108723392817228
-0.07270000000000021,-6.081843878119792
-0.0737000000000001,-6.073355610320603
-0.07470000000000021,-5.99130235492843
-0.0757000000000001,-5.967252262830725
-0.07670000000000021,-6.060623208621817
-0.0777000000000001,-6.066282053821277
-0.07870000000000021,-5.984228798429105
-0.0797000000000001,-5.968666974130589
-0.08070000000000022,-5.964422840230995
-0.0817000000000001,-5.9078343882363935
-0.08270000000000022,-5.930469769034234
-0.08370000000000011,-6.016767158326001
-0.08470000000000022,-5.97432581933005
-0.08570000000000011,-5.933299191633965
-0.08670000000000022,-5.94320217073302
-0.08770000000000011,-5.888028430038283
-0.08870000000000022,-5.844172379742466
-0.08970000000000011,-5.924810923834773
-0.09070000000000022,-5.97149639673032
-0.09170000000000011,-5.892272563937878
-0.09270000000000023,-5.866807760540307
-0.09370000000000012,-5.923396212534908
-0.09470000000000023,-5.856904781441251
-0.09570000000000012,-5.77485152604908
-0.09670000000000023,-5.844172379742466
-0.09770000000000012,-5.913493233435854
-0.09870000000000023,-5.855490070141387
-0.09970000000000012,-5.844172379742466
-0.10070000000000023,-5.905004965636663
-0.10170000000000012,-5.845587091042332
-0.10270000000000024,-5.7833397938482705
-0.10370000000000013,-5.818707576344896
-0.10470000000000024,-5.838513534543006
-0.10570000000000013,-5.832854689343546
-0.10670000000000024,-5.8682224718401725
-0.10770000000000013,-5.856904781441251
-0.10870000000000024,-5.766363258249889
-0.10970000000000013,-5.786169216448
-0.11070000000000024,-5.866807760540307
-0.11170000000000013,-5.838513534543006
-0.11270000000000002,-5.817292865045031
-0.11370000000000013,-5.848416513642062
-0.11470000000000002,-5.781925082548405
-0.11570000000000014,-5.7437278774520495
-0.11670000000000003,-5.820122287644761
-0.11770000000000014,-5.863978337940577
-0.11870000000000003,-5.824366421544356
-0.11970000000000014,-5.818707576344896
-0.12070000000000003,-5.813048731145436
-0.12170000000000014,-5.757874990450699
-0.12270000000000003,-5.772022103449349
-0.12370000000000014,-5.866807760540307
-0.12470000000000003,-5.838513534543006
-0.12570000000000014,-5.787583927747865
-0.12670000000000003,-5.821536998944626
-0.12770000000000015,-5.793242772947325
-0.12870000000000004,-5.747972011351644
-0.12970000000000015,-5.821536998944626
-0.13070000000000004,-5.872466605739767
-0.13170000000000015,-5.821536998944626
-0.13270000000000004,-5.790413350347595
-0.13370000000000015,-5.801731040746516
-0.13470000000000004,-5.773436814749215
-0.13570000000000015,-5.769192680849619
-0.13670000000000004,-5.856904781441251
-0.13770000000000016,-5.8625636266407115
-0.13870000000000005,-5.80314575204638
-0.13970000000000016,-5.791828061647459
-0.14070000000000005,-5.781925082548405
-0.14170000000000016,-5.760704413050429
-0.14270000000000005,-5.80031632944665
-0.14370000000000016,-5.871051894439902
-0.14470000000000005,-5.821536998944626
-0.14570000000000016,-5.779095659948675
-0.14670000000000005,-5.820122287644761
-0.14770000000000016,-5.793242772947325
-0.14870000000000005,-5.716848362754614
-0.14970000000000017,-5.773436814749215
-0.15070000000000006,-5.854075358841522
-0.15170000000000017,-5.79465748424719
-0.15270000000000006,-5.776266237348945
-0.15370000000000017,-5.82578113284422
-0.15470000000000006,-5.74938672265151
-0.15570000000000017,-5.6913835593570425
-0.15670000000000006,-5.773436814749215
-0.15770000000000017,-5.815878153745166
-0.15870000000000006,-5.752216145251239
-0.15970000000000018,-5.753630856551104
-0.16070000000000007,-5.7960721955470555
-0.16170000000000018,-5.709774806255288
-0.16270000000000007,-5.658845199460147
-0.16370000000000018,-5.750801433951374
-0.16470000000000007,-5.7706073921494845
-0.16570000000000018,-5.716848362754614
-0.16670000000000007,-5.75504556785097
-0.16770000000000018,-5.7437278774520495
-0.16870000000000007,-5.644698086461496
-0.16970000000000018,-5.646112797761361
-0.17070000000000007,-5.719677785354343
-0.17170000000000019,-5.704115961055828
-0.17270000000000008,-5.656015776860417
-0.1737000000000002,-5.6984571158563675
-0.17470000000000008,-5.682895291557853
-0.1757000000000002,-5.5866949231670295
-0.17670000000000008,-5.612159726564601
-0.1777000000000002,-5.658845199460147
-0.17870000000000008,-5.634795107362441
-0.1797000000000002,-5.641868663861766
-0.18070000000000008,-5.680065868958122
-0.1817000000000002,-5.5838655005673
-0.18270000000000008,-5.524447625972968
-0.1837000000000002,-5.585280211867165
-0.1847000000000001,-5.622062705663656
-0.1857000000000002,-5.6065008813651405
-0.1867000000000001,-5.6192332830639256
-0.1877000000000002,-5.6263068395632505
-0.1887000000000001,-5.571133098868514
-0.1897000000000002,-5.547083006770809
-0.1907000000000001,-5.565474253669055
-0.1917000000000001,-5.5272770485726985
-0.19269999999999998,-5.531521182472294
-0.1937000000000001,-5.59235376836649
-0.19469999999999998,-5.5739625214682444
-0.1957000000000001,-5.532935893772159
-0.19669999999999999,-5.545668295470944
-0.1977000000000001,-5.556985985869864
-0.1987,-5.534350605072024
-0.1997000000000001,-5.558400697169729
-0.2007,-5.610745015264735
-0.2017000000000001,-5.524447625972968
-0.2027,-5.465029751378637
-0.2037000000000001,-5.5541565632701335
-0.2047,-5.59518319096622
-0.2057000000000001,-5.556985985869864
-0.2067,-5.571133098868514
-0.2077000000000001,-5.5739625214682444
-0.2087,-5.496153399975667
-0.2097000000000001,-5.491909266076072
-0.2107,-5.5598154084695945
-0.2117000000000001,-5.558400697169729
-0.2127,-5.544253584171079
-0.2137000000000001,-5.59235376836649
-0.2147,-5.588109634466894
-0.2157000000000001,-5.532935893772159
-0.2167,-5.5414241615713475
-0.21770000000000012,-5.59801261356595
-0.2187,-5.582450789267434
-0.21970000000000012,-5.59235376836649
-0.2207,-5.59235376836649
-0.22170000000000012,-5.585280211867165
-0.2227,-5.5598154084695945
-0.22370000000000012,-5.562644831069325
-0.2247,-5.544253584171079
-0.22570000000000012,-5.549912429370539
-0.2267,-5.607915592665005
-0.22770000000000012,-5.630550973462847
-0.22870000000000001,-5.585280211867165
-0.22970000000000013,-5.556985985869864
-0.23070000000000002,-5.590939057066626
-0.23170000000000013,-5.59235376836649
-0.23270000000000002,-5.630550973462847
-0.23370000000000013,-5.6715776011589325
-0.23470000000000002,-5.653186354260687
-0.23570000000000013,-5.610745015264735
-0.23670000000000002,-5.614989149164331
-0.2376999999999999,-5.622062705663656
-0.23870000000000002,-5.62064799436379
-0.2396999999999999,-5.664504044659607
-0.24070000000000003,-5.705530672355693
-0.24169999999999991,-5.664504044659607
-0.24270000000000003,-5.663089333359742
-0.24369999999999992,-5.688554136757313
-0.24470000000000003,-5.656015776860417
-0.24569999999999992,-5.637624529962172
-0.24670000000000003,-5.733824898352994
-0.24769999999999992,-5.762119124350295
-0.24870000000000003,-5.721092496654209
-0.24969999999999992,-5.712604228855018
-0.25070000000000003,-5.732410187053128
-0.2516999999999999,-5.719677785354343
-0.25270000000000004,-5.747972011351644
-0.2536999999999999,-5.813048731145436
-0.25470000000000004,-5.808804597245841
-0.2556999999999999,-5.7437278774520495
-0.25670000000000004,-5.766363258249889
-0.25769999999999993,-5.817292865045031
-0.25870000000000004,-5.805975174646111
-0.25969999999999993,-5.847001802342197
-0.26070000000000004,-5.902175543036933
-0.26169999999999993,-5.839928245842872
-0.26270000000000004,-5.791828061647459
-0.26369999999999993,-5.876710739639362
-0.26470000000000005,-5.929055057734368
-0.26569999999999994,-5.917737367335448
-0.26670000000000005,-5.975740530629915
-0.26769999999999994,-5.961593417631265
-0.26870000000000005,-5.886613718738418
-0.26969999999999994,-5.929055057734368
-0.27070000000000005,-6.053549652122491
-0.27169999999999994,-6.042231961723571
-0.27270000000000005,-6.021011292225596
-0.27369999999999994,-6.081843878119792
-0.27470000000000006,-6.023840714825327
-0.27569999999999995,-5.987058221028835
-0.27670000000000006,-6.097405702418309
-0.27769999999999995,-6.180873669110345
-0.27870000000000006,-6.145505886613719
-0.27969999999999995,-6.14833530921345
-0.28070000000000006,-6.207753183807781
-0.28169999999999995,-6.155408865712774
-0.28270000000000006,-6.139847041414258
-0.28369999999999995,-6.260097501902788
-0.28470000000000006,-6.3081976860981985
-0.28569999999999995,-6.282732882700628
-0.28670000000000007,-6.34498017989469
-0.28769999999999996,-6.339321334695229
-0.28870000000000007,-6.285562305300359
-0.28969999999999996,-6.35629787029361
-0.29070000000000007,-6.469474774282813
-0.29169999999999996,-6.462401217783487
-0.29270000000000007,-6.429862857886591
-0.29369999999999996,-6.527477937577279
-0.2947000000000001,-6.565675142673635
-0.29569999999999996,-6.496354288980249
-0.2967000000000001,-6.54162505057593
-0.29769999999999996,-6.644898975466076
-0.2987000000000001,-6.653387243265268
-0.29969999999999997,-6.678852046662837
-0.3007000000000001,-6.777881837653391
-0.30169999999999997,-6.73261107605771
-0.3027000000000001,-6.707146272660138
-0.30369999999999997,-6.797687795851501
-0.3047000000000001,-6.889644030342729
-0.30569999999999997,-6.908035277240974
-0.3067000000000001,-6.9575501727362505
-0.3077,-7.0367740055286925
-0.3087000000000001,-6.998576800432337
-0.3097,-6.987259110033416
-0.3107000000000001,-7.080630055824508
-0.3117,-7.137218507819109
-0.3127000000000001,-7.203709938912767
-0.3137,-7.2659572361068285
-0.3147000000000001,-7.2999103073035885
-0.3157,-7.2999103073035885
-0.3167000000000001,-7.33386337850035
-0.3177,-7.376304717496302
-0.3187000000000001,-7.431478458191038
-0.3197,-7.5347523830811864
-0.3207000000000001,-7.609732081974033
-0.3217,-7.632367462771874
-0.3227000000000001,-7.669149956568364
-0.3237,-7.728567831162695
-0.3247000000000001,-7.73564138766202
-0.3257,-7.799303396155947
-0.3267000000000001,-7.949262793941642
-0.3277,-8.003021823336512
-0.3287000000000001,-8.015754225035298
-0.3297,-8.069513254430168
-0.3307000000000001,-8.11478401602585
-0.3317,-8.140248819423421
-0.3327000000000001,-8.240693321713838
-0.3337,-8.413288100297372
-0.3347000000000001,-8.448655882793998
-0.3357,-8.428849924595887
-0.3367000000000001,-8.595785857979964
-0.3377,-8.693400937670651
-0.3387000000000001,-8.628324217876859
-0.3397,-8.663692000373485
-0.3407000000000001,-8.851848603255535
-0.3417,-8.955122528145683
-0.3427000000000001,-9.05839645303583
-0.3437,-9.127717306729215
-0.3447000000000001,-9.122058461529756
-0.3457,-9.180061624824223
-0.3467000000000001,-9.373877072905733
-0.3477,-9.543642428889537
-0.3487000000000001,-9.571936654886837
-0.3497,-9.60306030348387
-0.3507000000000001,-9.750190278669832
-0.3517,-9.893076119956202
-0.3527000000000001,-9.901564387755393
-0.3537,-9.942591015451477
-0.3547000000000001,-10.052938496840952
-0.3557,-10.228362698024217
-0.35670000000000013,-10.419348723505994
-0.3577,-10.570722832591555
-0.35870000000000013,-10.59477292468926
-0.3597,-10.62023772808683
-0.36070000000000013,-10.778685393671715
-0.3617,-10.961183151354303
-0.3626999999999999,-11.116801394339458
-0.3637,-11.262516658225557
-0.3646999999999999,-11.38984067521341
-0.3657,-11.442184993308418
-0.3666999999999999,-11.551117763398024
-0.3677,-11.725127253281423
-0.3686999999999999,-11.911869144863608
-0.36970000000000003,-12.105684592945119
-0.3706999999999999,-12.244326300331892
-0.37170000000000003,-12.378723873819071
-0.3726999999999999,-12.450874150112186
-0.37370000000000003,-12.592345280098693
-0.3746999999999999,-12.78050188298074
-0.37570000000000003,-13.001196845759688
-0.3766999999999999,-13.274236126633639
-0.37770000000000004,-13.419951390519737
-0.3786999999999999,-13.575569633504891
-0.37970000000000004,-13.82172939968141
-0.3806999999999999,-13.964615240967778
-0.38170000000000004,-14.039594939860624
-0.38269999999999993,-14.288584128636872
-0.38370000000000004,-14.62811484060448
-0.38469999999999993,-14.812027309586934
-0.38570000000000004,-14.98179266557074
-0.38669999999999993,-15.165705134553193
-0.38770000000000004,-15.37791182953295
-0.38869999999999993,-15.618412750510005
-0.38970000000000005,-15.957943462477614
-0.39069999999999994,-16.29747417444522
-0.39170000000000005,-16.53797509542228
-0.39269999999999994,-16.693593338407435
-0.39370000000000005,-16.919947146385837
-0.39469999999999994,-17.259477858353446
-0.39570000000000005,-17.669744135314307
-0.39669999999999994,-18.009274847281915
-0.39770000000000005,-18.263922881257624
-0.39869999999999994,-18.589306480226583
-0.39970000000000006,-18.843954514202288
-0.40069999999999995,-19.155191000172596
-0.40170000000000006,-19.551310164134804
-0.40269999999999995,-20.046459119087572
-0.40370000000000006,-20.48501962204573
-0.40469999999999995,-20.881138786007945
-0.40570000000000006,-21.2065223849769
-0.40669999999999995,-21.531905983945855
-0.40770000000000006,-21.98461359990267
-0.40869999999999995,-22.578792345845983
-0.40970000000000006,-23.215412430785253
-0.41069999999999995,-23.710561385738018
-0.41170000000000007,-24.106680549700226
-0.41269999999999996,-24.757447747638142
-0.41370000000000007,-25.295038041586857
-0.41469999999999996,-25.705304318547718
-0.41570000000000007,-26.313630177489685
-0.41669999999999996,-27.120015618412754
-0.41770000000000007,-27.841518381343924
-0.41869999999999996,-28.506432692280487
-0.4197000000000001,-29.114758551222454
-0.42069999999999996,-29.751378636161718
-0.4217000000000001,-30.50117562509019
-0.42269999999999996,-31.49147353499572
-0.4237000000000001,-32.41103587990799
-0.42469999999999997,-33.18912709483376
-0.4257000000000001,-33.95307119676088
-0.42669999999999997,-34.64627973369475
-0.4277000000000001,-35.57998919160567
-0.42869999999999997,-36.7117582314977
-0.4297000000000001,-37.85767438438838
-0.43069999999999997,-38.94700208528445
-0.4317000000000001,-39.739240413208876
-0.4327,-40.8993036790982
-0.4337000000000001,-42.229132300971344
-0.4347,-43.09210619388902
-0.4357000000000001,-43.94093297380804
-0.4367,-45.34149716067443
-0.4377000000000001,-46.92597381652327
-0.4387,-48.26994955139505
-0.4397000000000001,-49.34513013929248
-0.4407,-50.88716545614537
-0.4417000000000001,-52.37261232100366
-0.4427,-53.419498682903786
-0.4437000000000001,-54.59370906179176
-0.4447,-56.27721550863116
-0.4457000000000001,-58.13048731145436
-0.4467,-59.67252262830725
-0.4477000000000001,-61.27114639715474
-0.4487,-62.88391727900089
-0.4497000000000001,-64.15715744887942
-0.4507,-65.5577216357458
-0.4517000000000001,-67.52417034255821
-0.4527,-69.64623729235576
-0.4537000000000001,-71.32974373919515
-0.4547,-72.80104349105478
-0.4557000000000001,-74.95140466684964
-0.4567,-76.77638224367554
-0.4577000000000001,-78.12035797854733
-0.4587,-79.73312886039348
-0.4597000000000001,-82.02496116617483
-0.4607,-84.17532234196969
-0.4617000000000001,-86.11347682278479
-0.4627,-87.69795347863361
-0.4637000000000001,-89.21169456948921
-0.4647,-91.10740771130837
-0.4657000000000001,-93.45582846908432
-0.4667,-95.57789541888187
-0.4677000000000001,-97.37457876971048
-0.4687,-99.17126212053905
-0.4697000000000001,-100.670856098396
-0.4707,-102.42509811022865
-0.4717000000000001,-104.64619485101677
-0.4727,-106.85314447880621
-0.4737000000000001,-108.74885762062537
-0.4747,-110.12112758149446
-0.4757000000000001,-112.3563714352812
-0.4767,-114.37940859408822
-0.4777000000000001,-115.70923721596135
-0.4787,-117.15224274182368
-0.4797000000000001,-119.44407504760505
-0.4807,-121.72176024038777
-0.48170000000000013,-123.24964844424198
-0.4827,-125.23024426405304
-0.48370000000000013,-126.8713093718965
-0.4847,-128.17284376777232
-0.48570000000000013,-129.70073197162657
-0.4867,-130.5778529775429
-0.48570000000000013,-130.02611557059552
-0.4847,-128.79531673971292
-0.48370000000000013,-128.20113799376963
-0.4827,-127.73428326481418
-0.48170000000000013,-126.41860175593966
-0.4807,-125.14536158606113
-0.4797000000000001,-124.69265397010435
-0.4787,-124.25409346714616
-0.4777000000000001,-123.29208978323796
-0.4767,-122.57058702030677
-0.4757000000000001,-121.26905262443094
-0.4747,-119.9392240025578
-0.4737000000000001,-119.24601546562396
-0.4727,-118.86404341466037
-0.4717000000000001,-117.93033395674945
-0.4707,-116.40244575289522
-0.4697000000000001,-115.73753144195865
-0.4687,-115.08676424402073
-0.4677000000000001,-113.62961160515974
-0.4667,-112.25734164429065
-0.4657000000000001,-111.76219268933791
-0.4647,-111.06898415240403
-0.4637000000000001,-110.26259871148096
-0.4627,-109.21571234958083
-0.4617000000000001,-107.68782414572658
-0.4607,-106.58434933183186
