Potential V vs RHE, Current mA cm-2
0.013299999999999867,-0.5255652478998613
0.012299999999999978,-2.1828995356917518
0.011299999999999866,-3.447651437771094
0.010299999999999976,-4.494537799671222
0.009299999999999864,-5.453712060979717
0.008299999999999974,-6.152579443113044
0.007299999999999862,-6.850032113946507
0.006299999999999972,-7.37347529489657
0.00529999999999986,-7.853062425550818
0.0042999999999999705,-8.246352166913299
0.0032999999999998586,-8.55051509638428
0.0022999999999999687,-8.812236686859313
0.0012999999999998568,-9.073958277334345
0.00029999999999996696,-9.24938247851761
-0.000700000000000145,-9.511104068992642
-0.0017000000000000348,-9.685113558876042
-0.0027000000000001467,-9.902979099055257
-0.0037000000000000366,-10.078403300238522
-0.0047000000000001485,-10.25241279012192
-0.005700000000000038,-10.42642228000532
-0.00670000000000015,-10.557990430892769
-0.00770000000000004,-10.688143870480351
-0.008700000000000152,-10.731999920776168
-0.009700000000000042,-10.819712021367803
-0.010700000000000154,-10.863568071663616
-0.011700000000000044,-10.906009410659568
-0.012700000000000156,-10.949865460955383
-0.013700000000000045,-10.993721511251199
-0.014700000000000157,-11.037577561547016
-0.015700000000000047,-11.081433611842833
-0.01670000000000016,-11.1677310011346
-0.01770000000000005,-11.255443101726232
-0.01870000000000016,-11.385596541313816
-0.01970000000000005,-11.42945259160963
-0.020700000000000163,-11.473308641905447
-0.021700000000000053,-11.517164692201263
-0.022700000000000164,-11.517164692201263
-0.023700000000000054,-11.517164692201263
-0.024700000000000166,-11.517164692201263
-0.025700000000000056,-11.473308641905447
-0.026700000000000168,-11.517164692201263
-0.027700000000000058,-11.517164692201263
-0.02870000000000017,-11.56102074249708
-0.02970000000000006,-11.647318131788847
-0.03070000000000017,-11.691174182084664
-0.03170000000000006,-11.73503023238048
-0.03270000000000017,-11.82274233297211
-0.03370000000000006,-11.82274233297211
-0.034700000000000175,-11.86659838326793
-0.035700000000000065,-11.86659838326793
-0.03670000000000018,-11.82274233297211
-0.03770000000000007,-11.82274233297211
-0.03870000000000018,-11.778886282676295
-0.03970000000000007,-11.778886282676295
-0.04070000000000018,-11.778886282676295
-0.04170000000000007,-11.778886282676295
-0.04270000000000018,-11.86659838326793
-0.04370000000000007,-11.86659838326793
-0.044700000000000184,-11.909039722263879
-0.045700000000000074,-11.952895772559694
-0.046700000000000186,-11.996751822855511
-0.047700000000000076,-12.040607873151327
-0.04870000000000019,-11.996751822855511
-0.04970000000000008,-11.996751822855511
-0.05070000000000019,-11.952895772559694
-0.05170000000000008,-11.952895772559694
-0.05270000000000019,-11.909039722263879
-0.05370000000000008,-11.86659838326793
-0.05470000000000019,-11.909039722263879
-0.05570000000000008,-11.909039722263879
-0.056700000000000195,-11.996751822855511
-0.057700000000000085,-11.996751822855511
-0.058700000000000196,-12.040607873151327
-0.059700000000000086,-12.084463923447142
-0.0607000000000002,-12.084463923447142
-0.06170000000000009,-12.084463923447142
-0.0627000000000002,-12.084463923447142
-0.06370000000000009,-12.040607873151327
-0.0647000000000002,-11.996751822855511
-0.06570000000000009,-11.952895772559694
-0.0667000000000002,-11.909039722263879
-0.0677000000000001,-11.952895772559694
-0.0687000000000002,-11.952895772559694
-0.0697000000000001,-11.996751822855511
-0.07070000000000021,-12.040607873151327
-0.0717000000000001,-12.040607873151327
-0.07270000000000021,-12.12831997374296
-0.0737000000000001,-12.12831997374296
-0.07470000000000021,-12.084463923447142
-0.0757000000000001,-12.084463923447142
-0.07670000000000021,-12.040607873151327
-0.0777000000000001,-11.996751822855511
-0.07870000000000021,-11.996751822855511
-0.0797000000000001,-11.952895772559694
-0.08070000000000022,-11.952895772559694
-0.0817000000000001,-11.952895772559694
-0.08270000000000022,-11.996751822855511
-0.08370000000000011,-11.996751822855511
-0.08470000000000022,-12.040607873151327
-0.08570000000000011,-12.084463923447142
-0.08670000000000022,-12.084463923447142
-0.08770000000000011,-12.12831997374296
-0.08870000000000022,-12.084463923447142
-0.08970000000000011,-12.040607873151327
-0.09070000000000022,-11.996751822855511
-0.09170000000000011,-11.952895772559694
-0.09270000000000023,-11.909039722263879
-0.09370000000000012,-11.952895772559694
-0.09470000000000023,-11.952895772559694
-0.09570000000000012,-11.952895772559694
-0.09670000000000023,-11.996751822855511
-0.09770000000000012,-12.040607873151327
-0.09870000000000023,-12.084463923447142
-0.09970000000000012,-12.12831997374296
-0.10070000000000023,-12.12831997374296
-0.10170000000000012,-12.084463923447142
-0.10270000000000024,-12.084463923447142
-0.10370000000000013,-12.084463923447142
-0.10470000000000024,-12.040607873151327
-0.10570000000000013,-11.996751822855511
-0.10670000000000024,-11.996751822855511
-0.10770000000000013,-11.996751822855511
-0.10870000000000024,-12.040607873151327
-0.10970000000000013,-12.084463923447142
-0.11070000000000024,-12.12831997374296
-0.11170000000000013,-12.170761312738911
-0.11270000000000002,-12.214617363034726
-0.11370000000000013,-12.214617363034726
-0.11470000000000002,-12.214617363034726
-0.11570000000000014,-12.214617363034726
-0.11670000000000003,-12.170761312738911
-0.11770000000000014,-12.170761312738911
-0.11870000000000003,-12.170761312738911
-0.11970000000000014,-12.12831997374296
-0.12070000000000003,-12.12831997374296
-0.12170000000000014,-12.170761312738911
-0.12270000000000003,-12.214617363034726
-0.12370000000000014,-12.258473413330542
-0.12470000000000003,-12.302329463626359
-0.12570000000000014,-12.390041564217992
-0.12670000000000003,-12.390041564217992
-0.12770000000000015,-12.432482903213943
-0.12870000000000004,-12.432482903213943
-0.12970000000000015,-12.432482903213943
-0.13070000000000004,-12.390041564217992
-0.13170000000000015,-12.390041564217992
-0.13270000000000004,-12.390041564217992
-0.13370000000000015,-12.432482903213943
-0.13470000000000004,-12.390041564217992
-0.13570000000000015,-12.432482903213943
-0.13670000000000004,-12.520195003805576
-0.13770000000000016,-12.607907104397206
-0.13870000000000005,-12.651763154693022
-0.13970000000000016,-12.694204493688973
-0.14070000000000005,-12.73806054398479
-0.14170000000000016,-12.781916594280606
-0.14270000000000005,-12.73806054398479
-0.14370000000000016,-12.73806054398479
-0.14470000000000005,-12.73806054398479
-0.14570000000000016,-12.73806054398479
-0.14670000000000005,-12.73806054398479
-0.14770000000000016,-12.781916594280606
-0.14870000000000005,-12.825772644576423
-0.14970000000000017,-12.913484745168056
-0.15070000000000006,-12.955926084164007
-0.15170000000000017,-12.99978213445982
-0.15270000000000006,-13.087494235051453
-0.15370000000000017,-13.13135028534727
-0.15470000000000006,-13.175206335643086
-0.15570000000000017,-13.217647674639037
-0.15670000000000006,-13.217647674639037
-0.15770000000000017,-13.217647674639037
-0.15870000000000006,-13.175206335643086
-0.15970000000000018,-13.217647674639037
-0.16070000000000007,-13.217647674639037
-0.16170000000000018,-13.30535977523067
-0.16270000000000007,-13.349215825526485
-0.16370000000000018,-13.436927926118118
-0.16470000000000007,-13.523225315409885
-0.16570000000000018,-13.610937416001518
-0.16670000000000007,-13.654793466297335
-0.16770000000000018,-13.698649516593148
-0.16870000000000007,-13.698649516593148
-0.16970000000000018,-13.698649516593148
-0.17070000000000007,-13.698649516593148
-0.17170000000000019,-13.741090855589102
-0.17270000000000008,-13.741090855589102
-0.1737000000000002,-13.784946905884919
-0.17470000000000008,-13.828802956180734
-0.1757000000000002,-13.872659006476551
-0.17670000000000008,-13.960371107068182
-0.1777000000000002,-14.046668496359947
-0.17870000000000008,-14.13438059695158
-0.1797000000000002,-14.217848563643619
-0.18070000000000008,-14.26028990263957
-0.1817000000000002,-14.30273124163552
-0.18270000000000008,-14.30273124163552
-0.1837000000000002,-14.345172580631472
-0.1847000000000001,-14.345172580631472
-0.1857000000000002,-14.345172580631472
-0.1867000000000001,-14.401761032626075
-0.1877000000000002,-14.444202371622024
-0.1887000000000001,-14.529085049613924
-0.1897000000000002,-14.61396772760583
-0.1907000000000001,-14.69885040559773
-0.1917000000000001,-14.783733083589633
-0.19269999999999998,-14.868615761581536
-0.1937000000000001,-14.925204213576137
-0.19469999999999998,-15.01008689156804
-0.1957000000000001,-15.05252823056399
-0.19669999999999999,-15.05252823056399
-0.1977000000000001,-15.094969569559943
-0.1987,-15.094969569559943
-0.1997000000000001,-15.137410908555893
-0.2007,-15.179852247551842
-0.2017000000000001,-15.222293586547794
-0.2027,-15.307176264539699
-0.2037000000000001,-15.3920589425316
-0.2047,-15.533530072518102
-0.2057000000000001,-15.618412750510005
-0.2067,-15.70329542850191
-0.2077000000000001,-15.74573676749786
-0.2087,-15.78817810649381
-0.2097000000000001,-15.78817810649381
-0.2107,-15.830619445489761
-0.2117000000000001,-15.87306078448571
-0.2127,-15.87306078448571
-0.2137000000000001,-15.972090575476265
-0.2147,-16.014531914472215
-0.2157000000000001,-16.141855931460068
-0.2167,-16.22673860945197
-0.21770000000000012,-16.311621287443874
-0.2187,-16.396503965435777
-0.21970000000000012,-16.495533756426326
-0.2207,-16.580416434418233
-0.22170000000000012,-16.622857773414182
-0.2227,-16.622857773414182
-0.22370000000000012,-16.665299112410132
-0.2247,-16.70774045140608
-0.22570000000000012,-16.70774045140608
-0.2267,-16.750181790402035
-0.22770000000000012,-16.835064468393938
-0.22870000000000001,-16.919947146385837
-0.22970000000000013,-17.018976937376394
-0.23070000000000002,-17.103859615368293
-0.23170000000000013,-17.188742293360193
-0.23270000000000002,-17.2736249713521
-0.23370000000000013,-17.358507649344002
-0.23470000000000002,-17.40094898833995
-0.23570000000000013,-17.4433903273359
-0.23670000000000002,-17.48583166633185
-0.2376999999999999,-17.48583166633185
-0.23870000000000002,-17.542420118326454
-0.2396999999999999,-17.584861457322408
-0.24070000000000003,-17.627302796318357
-0.24169999999999991,-17.71218547431026
-0.24270000000000003,-17.797068152302163
-0.24369999999999992,-17.881950830294063
-0.24470000000000003,-17.966833508285966
-0.24569999999999992,-18.10830463827247
-0.24670000000000003,-18.19318731626437
-0.24769999999999992,-18.27806999425627
-0.24870000000000003,-18.320511333252224
-0.24969999999999992,-18.362952672248177
-0.25070000000000003,-18.362952672248177
-0.2516999999999999,-18.40539401124413
-0.25270000000000004,-18.44783535024008
-0.2536999999999999,-18.49027668923603
-0.25470000000000004,-18.589306480226583
-0.2556999999999999,-18.674189158218486
-0.25670000000000004,-18.759071836210385
-0.25769999999999993,-18.88639585319824
-0.25870000000000004,-18.97127853119014
-0.25969999999999993,-19.056161209182044
-0.26070000000000004,-19.155191000172596
-0.26169999999999993,-19.155191000172596
-0.26270000000000004,-19.197632339168546
-0.26369999999999993,-19.2400736781645
-0.26470000000000005,-19.28251501716045
-0.26569999999999994,-19.28251501716045
-0.26670000000000005,-19.409839034148305
-0.26769999999999994,-19.452280373144255
-0.26870000000000005,-19.537163051136158
-0.26969999999999994,-19.636192842126707
-0.27070000000000005,-19.763516859114564
-0.27169999999999994,-19.848399537106463
-0.27270000000000005,-19.93328221509837
-0.27369999999999994,-20.01816489309027
-0.27470000000000006,-20.10304757108217
-0.27569999999999995,-20.159636023076775
-0.27670000000000006,-20.159636023076775
-0.27769999999999995,-20.202077362072725
-0.27870000000000006,-20.244518701068674
-0.27969999999999995,-20.286960040064624
-0.28070000000000006,-20.329401379060574
-0.28169999999999995,-20.414284057052477
-0.28270000000000006,-20.499166735044383
-0.28369999999999995,-20.584049413036283
-0.28470000000000006,-20.72552054302279
-0.28569999999999995,-20.85284456001064
-0.28670000000000007,-20.89528589900659
-0.28769999999999996,-20.93772723800254
-0.28870000000000007,-20.980168576998494
-0.28969999999999996,-21.065051254990397
-0.29070000000000007,-21.065051254990397
-0.29169999999999996,-21.107492593986347
-0.29270000000000007,-21.149933932982297
-0.29369999999999996,-21.2065223849769
-0.2947000000000001,-21.291405062968803
-0.29569999999999996,-21.376287740960702
-0.2967000000000001,-21.461170418952605
-0.29769999999999996,-21.58849443594046
-0.2987000000000001,-21.67337711393236
-0.29969999999999997,-21.772406904922917
-0.3007000000000001,-21.857289582914817
-0.30169999999999997,-21.899730921910766
-0.3027000000000001,-21.94217226090672
-0.30369999999999997,-21.98461359990267
-0.3047000000000001,-22.027054938898623
-0.30569999999999997,-22.069496277894572
-0.3067000000000001,-22.111937616890522
-0.3077,-22.196820294882425
-0.3087000000000001,-22.295850085872978
-0.3097,-22.42317410286083
-0.3107000000000001,-22.508056780852733
-0.3117,-22.592939458844636
-0.3127000000000001,-22.776851927827092
-0.3137,-22.861734605818995
-0.3147000000000001,-22.946617283810895
-0.3157,-22.989058622806844
-0.3167000000000001,-23.031499961802798
-0.3177,-23.073941300798747
-0.3187000000000001,-23.1163826397947
-0.3197,-23.2012653177866
-0.3207000000000001,-23.300295108777156
-0.3217,-23.342736447773106
-0.3227000000000001,-23.47006046476096
-0.3237,-23.597384481748815
-0.3247000000000001,-23.724708498736668
-0.3257,-23.86617962872317
-0.3267000000000001,-23.993503645711023
-0.3277,-24.078386323702922
-0.3287000000000001,-24.16326900169483
-0.3297,-24.24815167968673
-0.3307000000000001,-24.290593018682678
-0.3317,-24.389622809673234
-0.3327000000000001,-24.474505487665134
-0.3337,-24.559388165657033
-0.3347000000000001,-24.64427084364894
-0.3357,-24.814036199632742
-0.3367000000000001,-24.95550732961925
-0.3377,-25.12527268560305
-0.3387000000000001,-25.252596702590903
-0.3397,-25.43650917157336
-0.3407000000000001,-25.521391849565262
-0.3417,-25.648715866553115
-0.3427000000000001,-25.73359854454502
-0.3437,-25.81848122253692
-0.3447000000000001,-25.959952352523427
-0.3457,-26.002393691519377
-0.3467000000000001,-26.129717708507226
-0.3477,-26.257041725495082
-0.3487000000000001,-26.38436574248293
-0.3497,-26.61071955046134
-0.3507000000000001,-26.738043567449193
-0.3517,-26.9643973754276
-0.3527000000000001,-27.134162731411404
-0.3537,-27.261486748399253
-0.3547000000000001,-27.43125210438306
-0.3557,-27.572723234369565
-0.35670000000000013,-27.65760591236147
-0.3577,-27.827371268345274
-0.35870000000000013,-27.912253946337174
-0.3597,-28.05372507632368
-0.36070000000000013,-28.22349043230748
-0.3617,-28.393255788291288
-0.3626999999999999,-28.577168257273744
-0.3637,-28.789374952253496
-0.3646999999999999,-29.001581647233255
-0.3657,-29.22793545521166
-0.3666999999999999,-29.39770081119546
-0.3677,-29.581613280177915
-0.3686999999999999,-29.751378636161718
-0.36970000000000003,-29.921143992145527
-0.3706999999999999,-30.10505646112798
-0.37170000000000003,-30.232380478115836
-0.3726999999999999,-30.359704495103685
-0.37370000000000003,-30.571911190083444
-0.3746999999999999,-30.7558236590659
-0.37570000000000003,-30.968030354045652
-0.3766999999999999,-31.23682550102001
-0.37770000000000004,-31.449032195999767
-0.3786999999999999,-31.717827342974125
-0.37970000000000004,-31.930034037953877
-0.3806999999999999,-32.14224073293363
-0.38170000000000004,-32.368594540912035
-0.38269999999999993,-32.53835989689585
-0.38370000000000004,-32.70812525287965
-0.38469999999999993,-32.892037721862096
-0.38570000000000004,-33.06180307784591
-0.38669999999999993,-33.330598224820264
-0.38770000000000004,-33.50036358080407
-0.38869999999999993,-33.755011614779775
-0.38970000000000005,-34.02380676175414
-0.39069999999999994,-34.33504324772444
-0.39170000000000005,-34.5472499427042
-0.39269999999999994,-34.85848642867451
-0.39370000000000005,-35.11313446265021
-0.39469999999999994,-35.38192960962457
-0.39570000000000005,-35.594136304604326
-0.39669999999999994,-35.806342999584075
-0.39770000000000005,-36.03269680756248
-0.39869999999999994,-36.20246216354629
-0.39970000000000006,-36.47125731052064
-0.40069999999999995,-36.725905344496354
-0.40170000000000006,-36.99470049147071
-0.40269999999999995,-37.291789864442364
-0.40370000000000006,-37.60302635041268
-0.40469999999999995,-37.85767438438838
-0.40570000000000006,-38.211352209354644
-0.40669999999999995,-38.46600024333035
-0.40770000000000006,-38.777236729300654
-0.40869999999999995,-39.046031876275016
-0.40970000000000006,-39.258238571254765
-0.41069999999999995,-39.47044526623452
-0.41170000000000007,-39.739240413208876
-0.41269999999999996,-39.99388844718459
-0.41370000000000007,-40.26268359415894
-0.41469999999999996,-40.51733162813464
-0.41570000000000007,-40.828568114104954
-0.41669999999999996,-41.182245939071215
-0.41770000000000007,-41.52177665103883
-0.41869999999999996,-41.87545447600508
-0.4197000000000001,-42.186690961975394
-0.42069999999999996,-42.526221673943
-0.4217000000000001,-42.79501682091736
-0.42269999999999996,-43.04966485489307
-0.4237000000000001,-43.31846000186743
-0.42469999999999997,-43.61554937483908
-0.4257000000000001,-43.88434452181344
-0.42669999999999997,-44.181433894785094
-0.4277000000000001,-44.4926703807554
-0.42869999999999997,-44.84634820572166
-0.4297000000000001,-45.18587891768927
-0.43069999999999997,-45.53955674265553
-0.4317000000000001,-45.89323456762179
-0.4327,-46.27520661858535
-0.4337000000000001,-46.628884443551605
-0.4347,-46.94012092952192
-0.4357000000000001,-47.27965164148953
-0.4367,-47.590888127459834
-0.4377000000000001,-47.84553616143554
-0.4387,-48.156772647405845
-0.4397000000000001,-48.51045047237211
-0.4407,-48.80753984534376
-0.4417000000000001,-49.16121767031002
-0.4427,-49.557336834272235
-0.4437000000000001,-49.89686754623985
-0.4447,-50.29298671020206
-0.4457000000000001,-50.68910587416426
-0.4467,-51.071077925127824
-0.4477000000000001,-51.424755750094086
-0.4487,-51.77843357506035
-0.4497000000000001,-52.075522948032
-0.4507,-52.42920077299826
-0.4517000000000001,-52.78287859796452
-0.4527,-53.079967970936174
-0.4537000000000001,-53.476087134898386
-0.4547,-53.82976495986464
-0.4557000000000001,-54.2117370108282
-0.4567,-54.60785617479041
-0.4577000000000001,-55.046416677748574
-0.4587,-55.442535841710786
-0.4597000000000001,-55.838655005673
-0.4607,-56.1781857176406
-0.4617000000000001,-56.61674622059877
-0.4627,-56.97042404556503
-0.4637000000000001,-57.352396096528594
-0.4647,-57.70607392149485
-0.4657000000000001,-58.05975174646111
-0.4667,-58.45587091042332
-0.4677000000000001,-58.79540162239092
-0.4687,-59.19152078635314
-0.4697000000000001,-59.67252262830725
-0.4707,-60.11108313126541
-0.4717000000000001,-60.54964363422357
-0.4727,-60.974057024183075
-0.4737000000000001,-61.412617527141244
-0.4747,-61.80873669110345
-0.4757000000000001,-62.20485585506566
-0.4767,-62.544386567033264
-0.4777000000000001,-62.98294706999144
-0.4787,-63.3366248949577
-0.4797000000000001,-63.732744058919906
-0.4807,-64.15715744887942
-0.48170000000000013,-64.55327661284163
-0.4827,-64.99183711579978
-0.48370000000000013,-65.43039761875795
-0.4847,-65.91139946071206
-0.48570000000000013,-66.39240130266617
-0.4867,-66.81681469262568
-0.4876999999999999,-67.25537519558385
-0.4887,-67.693935698542
-0.4896999999999999,-68.0900548625042
-0.4907,-68.48617402646643
-0.4916999999999999,-68.86814607742998
-0.4927,-69.30670658038814
-0.4936999999999999,-69.74526708334632
-0.49470000000000003,-70.18382758630447
-0.4956999999999999,-70.62238808926263
-0.49670000000000003,-71.10338993121674
-0.4976999999999999,-71.58439177317086
-0.49870000000000003,-72.10783495412092
-0.4996999999999999,-72.63127813507097
-0.5007,-73.0556915250305
-0.5016999999999999,-73.49425202798865
-0.5027,-73.97525386994278
-0.5036999999999999,-74.41381437290093
-0.5047,-74.80993353686314
-0.5056999999999999,-75.2484940398213
