Sept. 2, 2024   06:39:14
Cyclic Voltammetry
File: c:/users/guazh/data/20240829_batch_215_500/2024-08-29-exp245\exp245-2024-09-02t06_24_06-h2koh\exp245_cv_sr_400mvs_efin_-1600mv.bin
Data Source:  Experiment
Instrument Model:  CHI760E
Header: CV ran at 400 mVs
Note: 

Init E (V) = -1
High E (V) = -1
Low E (V) = -1.6
Final E (V) = -1
Init P/N = N
Scan Rate (V/s) = 0.4
Segment = 3
Sample Interval (V) = 0.001
Quiet Time (sec) = 2
Sensitivity (A/V) = 0.01
Comp R (ohm) = 1.7

Results:

Channel 1:
Segment 1:

Segment 2:

Segment 3:

Potential/V, Current/A

-1.000, 2.174e-5
-1.001, 4.024e-5
-1.002, 4.332e-5
-1.003, 4.640e-5
-1.004, 4.640e-5
-1.005, 4.640e-5
-1.006, 4.640e-5
-1.007, 4.640e-5
-1.008, 4.640e-5
-1.009, 4.949e-5
-1.010, 4.949e-5
-1.011, 4.949e-5
-1.012, 4.949e-5
-1.013, 4.949e-5
-1.014, 4.949e-5
-1.015, 5.257e-5
-1.016, 5.257e-5
-1.017, 5.257e-5
-1.018, 5.257e-5
-1.019, 5.257e-5
-1.020, 5.257e-5
-1.021, 4.949e-5
-1.022, 5.257e-5
-1.023, 5.257e-5
-1.024, 5.257e-5
-1.025, 5.257e-5
-1.026, 5.257e-5
-1.027, 5.257e-5
-1.028, 5.257e-5
-1.029, 5.257e-5
-1.030, 5.257e-5
-1.031, 5.565e-5
-1.032, 5.257e-5
-1.033, 5.565e-5
-1.034, 5.565e-5
-1.035, 5.565e-5
-1.036, 5.257e-5
-1.037, 5.565e-5
-1.038, 5.565e-5
-1.039, 5.565e-5
-1.040, 5.565e-5
-1.041, 5.565e-5
-1.042, 5.565e-5
-1.043, 5.565e-5
-1.044, 5.565e-5
-1.045, 5.565e-5
-1.046, 5.565e-5
-1.047, 5.565e-5
-1.048, 5.565e-5
-1.049, 5.565e-5
-1.050, 5.565e-5
-1.051, 5.565e-5
-1.052, 5.565e-5
-1.053, 5.565e-5
-1.054, 5.565e-5
-1.055, 5.565e-5
-1.056, 5.565e-5
-1.057, 5.565e-5
-1.058, 5.565e-5
-1.059, 5.565e-5
-1.060, 5.565e-5
-1.061, 5.565e-5
-1.062, 5.565e-5
-1.063, 5.873e-5
-1.064, 5.565e-5
-1.065, 5.565e-5
-1.066, 5.565e-5
-1.067, 5.565e-5
-1.068, 5.565e-5
-1.069, 5.565e-5
-1.070, 5.565e-5
-1.071, 5.565e-5
-1.072, 5.565e-5
-1.073, 5.565e-5
-1.074, 5.565e-5
-1.075, 5.873e-5
-1.076, 5.873e-5
-1.077, 5.873e-5
-1.078, 5.565e-5
-1.079, 5.565e-5
-1.080, 5.565e-5
-1.081, 5.565e-5
-1.082, 5.873e-5
-1.083, 5.565e-5
-1.084, 5.873e-5
-1.085, 5.565e-5
-1.086, 5.565e-5
-1.087, 5.873e-5
-1.088, 5.873e-5
-1.089, 5.873e-5
-1.090, 5.565e-5
-1.091, 5.565e-5
-1.092, 5.873e-5
-1.093, 5.565e-5
-1.094, 5.873e-5
-1.095, 5.873e-5
-1.096, 5.873e-5
-1.097, 5.873e-5
-1.098, 5.873e-5
-1.099, 5.873e-5
-1.100, 5.873e-5
-1.101, 5.873e-5
-1.102, 5.873e-5
-1.103, 5.873e-5
-1.104, 5.873e-5
-1.105, 5.873e-5
-1.106, 5.873e-5
-1.107, 5.873e-5
-1.108, 5.873e-5
-1.109, 5.873e-5
-1.110, 5.873e-5
-1.111, 5.873e-5
-1.112, 5.873e-5
-1.113, 5.873e-5
-1.114, 5.873e-5
-1.115, 5.873e-5
-1.116, 5.873e-5
-1.117, 5.873e-5
-1.118, 5.873e-5
-1.119, 5.873e-5
-1.120, 5.873e-5
-1.121, 5.873e-5
-1.122, 5.873e-5
-1.123, 5.873e-5
-1.124, 6.182e-5
-1.125, 6.182e-5
-1.126, 5.873e-5
-1.127, 6.182e-5
-1.128, 5.873e-5
-1.129, 6.182e-5
-1.130, 6.182e-5
-1.131, 6.182e-5
-1.132, 6.182e-5
-1.133, 6.182e-5
-1.134, 6.182e-5
-1.135, 6.182e-5
-1.136, 6.182e-5
-1.137, 6.182e-5
-1.138, 6.182e-5
-1.139, 6.182e-5
-1.140, 6.182e-5
-1.141, 6.182e-5
-1.142, 6.182e-5
-1.143, 6.182e-5
-1.144, 6.182e-5
-1.145, 6.182e-5
-1.146, 6.182e-5
-1.147, 6.182e-5
-1.148, 6.490e-5
-1.149, 6.490e-5
-1.150, 6.490e-5
-1.151, 6.490e-5
-1.152, 6.490e-5
-1.153, 6.490e-5
-1.154, 6.490e-5
-1.155, 6.490e-5
-1.156, 6.490e-5
-1.157, 6.490e-5
-1.158, 6.490e-5
-1.159, 6.490e-5
-1.160, 6.490e-5
-1.161, 6.798e-5
-1.162, 6.490e-5
-1.163, 6.798e-5
-1.164, 6.798e-5
-1.165, 6.490e-5
-1.166, 6.798e-5
-1.167, 6.798e-5
-1.168, 6.798e-5
-1.169, 6.798e-5
-1.170, 6.798e-5
-1.171, 6.798e-5
-1.172, 6.798e-5
-1.173, 6.798e-5
-1.174, 6.798e-5
-1.175, 7.107e-5
-1.176, 7.107e-5
-1.177, 7.107e-5
-1.178, 7.107e-5
-1.179, 6.798e-5
-1.180, 7.107e-5
-1.181, 7.107e-5
-1.182, 7.107e-5
-1.183, 7.107e-5
-1.184, 7.107e-5
-1.185, 7.107e-5
-1.186, 7.415e-5
-1.187, 7.107e-5
-1.188, 7.415e-5
-1.189, 7.415e-5
-1.190, 7.415e-5
-1.191, 7.415e-5
-1.192, 7.415e-5
-1.193, 7.415e-5
-1.194, 7.723e-5
-1.195, 7.415e-5
-1.196, 7.723e-5
-1.197, 7.723e-5
-1.198, 7.723e-5
-1.199, 7.723e-5
-1.200, 7.723e-5
-1.201, 7.723e-5
-1.202, 7.723e-5
-1.203, 8.032e-5
-1.204, 8.032e-5
-1.205, 8.032e-5
-1.206, 8.032e-5
-1.207, 8.032e-5
-1.208, 8.032e-5
-1.209, 8.340e-5
-1.210, 8.340e-5
-1.211, 8.340e-5
-1.212, 8.340e-5
-1.213, 8.340e-5
-1.214, 8.340e-5
-1.215, 8.340e-5
-1.216, 8.648e-5
-1.217, 8.648e-5
-1.218, 8.648e-5
-1.219, 8.648e-5
-1.220, 8.957e-5
-1.221, 8.957e-5
-1.222, 8.957e-5
-1.223, 8.957e-5
-1.224, 8.957e-5
-1.225, 9.265e-5
-1.226, 9.265e-5
-1.227, 9.265e-5
-1.228, 9.573e-5
-1.229, 9.573e-5
-1.230, 9.573e-5
-1.231, 9.573e-5
-1.232, 9.573e-5
-1.233, 9.882e-5
-1.234, 9.882e-5
-1.235, 9.882e-5
-1.236, 9.882e-5
-1.237, 1.019e-4
-1.238, 1.019e-4
-1.239, 1.019e-4
-1.240, 1.050e-4
-1.241, 1.050e-4
-1.242, 1.050e-4
-1.243, 1.081e-4
-1.244, 1.081e-4
-1.245, 1.081e-4
-1.246, 1.111e-4
-1.247, 1.111e-4
-1.248, 1.111e-4
-1.249, 1.142e-4
-1.250, 1.142e-4
-1.251, 1.173e-4
-1.252, 1.173e-4
-1.253, 1.173e-4
-1.254, 1.204e-4
-1.255, 1.204e-4
-1.256, 1.235e-4
-1.257, 1.266e-4
-1.258, 1.266e-4
-1.259, 1.266e-4
-1.260, 1.266e-4
-1.261, 1.296e-4
-1.262, 1.296e-4
-1.263, 1.327e-4
-1.264, 1.327e-4
-1.265, 1.358e-4
-1.266, 1.358e-4
-1.267, 1.389e-4
-1.268, 1.420e-4
-1.269, 1.420e-4
-1.270, 1.451e-4
-1.271, 1.451e-4
-1.272, 1.451e-4
-1.273, 1.512e-4
-1.274, 1.512e-4
-1.275, 1.543e-4
-1.276, 1.543e-4
-1.277, 1.574e-4
-1.278, 1.605e-4
-1.279, 1.605e-4
-1.280, 1.636e-4
-1.281, 1.636e-4
-1.282, 1.666e-4
-1.283, 1.697e-4
-1.284, 1.728e-4
-1.285, 1.728e-4
-1.286, 1.759e-4
-1.287, 1.790e-4
-1.288, 1.821e-4
-1.289, 1.851e-4
-1.290, 1.851e-4
-1.291, 1.882e-4
-1.292, 1.913e-4
-1.293, 1.913e-4
-1.294, 1.975e-4
-1.295, 2.006e-4
-1.296, 2.006e-4
-1.297, 2.067e-4
-1.298, 2.098e-4
-1.299, 2.129e-4
-1.300, 2.129e-4
-1.301, 2.160e-4
-1.302, 2.191e-4
-1.303, 2.221e-4
-1.304, 2.252e-4
-1.305, 2.283e-4
-1.306, 2.314e-4
-1.307, 2.345e-4
-1.308, 2.406e-4
-1.309, 2.406e-4
-1.310, 2.468e-4
-1.311, 2.499e-4
-1.312, 2.530e-4
-1.313, 2.561e-4
-1.314, 2.591e-4
-1.315, 2.622e-4
-1.316, 2.653e-4
-1.317, 2.684e-4
-1.318, 2.715e-4
-1.319, 2.746e-4
-1.320, 2.776e-4
-1.321, 2.838e-4
-1.322, 2.900e-4
-1.323, 2.931e-4
-1.324, 2.961e-4
-1.325, 2.992e-4
-1.326, 3.054e-4
-1.327, 3.115e-4
-1.328, 3.146e-4
-1.329, 3.208e-4
-1.330, 3.239e-4
-1.331, 3.300e-4
-1.332, 3.362e-4
-1.333, 3.393e-4
-1.334, 3.455e-4
-1.335, 3.485e-4
-1.336, 3.547e-4
-1.337, 3.609e-4
-1.338, 3.640e-4
-1.339, 3.670e-4
-1.340, 3.763e-4
-1.341, 3.825e-4
-1.342, 3.886e-4
-1.343, 3.917e-4
-1.344, 3.979e-4
-1.345, 4.010e-4
-1.346, 4.071e-4
-1.347, 4.133e-4
-1.348, 4.195e-4
-1.349, 4.256e-4
-1.350, 4.318e-4
-1.351, 4.380e-4
-1.352, 4.410e-4
-1.353, 4.472e-4
-1.354, 4.534e-4
-1.355, 4.595e-4
-1.356, 4.688e-4
-1.357, 4.719e-4
-1.358, 4.780e-4
-1.359, 4.842e-4
-1.360, 4.935e-4
-1.361, 4.996e-4
-1.362, 5.058e-4
-1.363, 5.120e-4
-1.364, 5.212e-4
-1.365, 5.274e-4
-1.366, 5.335e-4
-1.367, 5.397e-4
-1.368, 5.489e-4
-1.369, 5.551e-4
-1.370, 5.613e-4
-1.371, 5.674e-4
-1.372, 5.767e-4
-1.373, 5.859e-4
-1.374, 5.921e-4
-1.375, 6.014e-4
-1.376, 6.075e-4
-1.377, 6.168e-4
-1.378, 6.229e-4
-1.379, 6.322e-4
-1.380, 6.414e-4
-1.381, 6.476e-4
-1.382, 6.569e-4
-1.383, 6.661e-4
-1.384, 6.723e-4
-1.385, 6.815e-4
-1.386, 6.908e-4
-1.387, 7.000e-4
-1.388, 7.093e-4
-1.389, 7.154e-4
-1.390, 7.216e-4
-1.391, 7.309e-4
-1.392, 7.401e-4
-1.393, 7.463e-4
-1.394, 7.555e-4
-1.395, 7.648e-4
-1.396, 7.709e-4
-1.397, 7.802e-4
-1.398, 7.894e-4
-1.399, 7.987e-4
-1.400, 8.079e-4
-1.401, 8.141e-4
-1.402, 8.264e-4
-1.403, 8.326e-4
-1.404, 8.418e-4
-1.405, 8.511e-4
-1.406, 8.603e-4
-1.407, 8.727e-4
-1.408, 8.788e-4
-1.409, 8.912e-4
-1.410, 9.004e-4
-1.411, 9.066e-4
-1.412, 9.158e-4
-1.413, 9.251e-4
-1.414, 9.343e-4
-1.415, 9.436e-4
-1.416, 9.528e-4
-1.417, 9.621e-4
-1.418, 9.744e-4
-1.419, 9.837e-4
-1.420, 9.929e-4
-1.421, 1.005e-3
-1.422, 1.018e-3
-1.423, 1.027e-3
-1.424, 1.039e-3
-1.425, 1.051e-3
-1.426, 1.061e-3
-1.427, 1.073e-3
-1.428, 1.085e-3
-1.429, 1.095e-3
-1.430, 1.107e-3
-1.431, 1.119e-3
-1.432, 1.132e-3
-1.433, 1.144e-3
-1.434, 1.153e-3
-1.435, 1.166e-3
-1.436, 1.175e-3
-1.437, 1.187e-3
-1.438, 1.199e-3
-1.439, 1.209e-3
-1.440, 1.221e-3
-1.441, 1.230e-3
-1.442, 1.243e-3
-1.443, 1.255e-3
-1.444, 1.267e-3
-1.445, 1.280e-3
-1.446, 1.292e-3
-1.447, 1.304e-3
-1.448, 1.314e-3
-1.449, 1.329e-3
-1.450, 1.338e-3
-1.451, 1.351e-3
-1.452, 1.363e-3
-1.453, 1.375e-3
-1.454, 1.388e-3
-1.455, 1.400e-3
-1.456, 1.412e-3
-1.457, 1.421e-3
-1.458, 1.434e-3
-1.459, 1.449e-3
-1.460, 1.465e-3
-1.461, 1.477e-3
-1.462, 1.492e-3
-1.463, 1.505e-3
-1.464, 1.517e-3
-1.465, 1.532e-3
-1.466, 1.548e-3
-1.467, 1.560e-3
-1.468, 1.573e-3
-1.469, 1.588e-3
-1.470, 1.603e-3
-1.471, 1.619e-3
-1.472, 1.631e-3
-1.473, 1.647e-3
-1.474, 1.662e-3
-1.475, 1.677e-3
-1.476, 1.693e-3
-1.477, 1.708e-3
-1.478, 1.724e-3
-1.479, 1.736e-3
-1.480, 1.751e-3
-1.481, 1.767e-3
-1.482, 1.785e-3
-1.483, 1.801e-3
-1.484, 1.816e-3
-1.485, 1.828e-3
-1.486, 1.844e-3
-1.487, 1.859e-3
-1.488, 1.872e-3
-1.489, 1.881e-3
-1.490, 1.896e-3
-1.491, 1.909e-3
-1.492, 1.924e-3
-1.493, 1.939e-3
-1.494, 1.952e-3
-1.495, 1.967e-3
-1.496, 1.976e-3
-1.497, 1.995e-3
-1.498, 2.007e-3
-1.499, 2.023e-3
-1.500, 2.035e-3
-1.501, 2.050e-3
-1.502, 2.063e-3
-1.503, 2.075e-3
-1.504, 2.094e-3
-1.505, 2.109e-3
-1.506, 2.124e-3
-1.507, 2.137e-3
-1.508, 2.152e-3
-1.509, 2.168e-3
-1.510, 2.183e-3
-1.511, 2.198e-3
-1.512, 2.214e-3
-1.513, 2.229e-3
-1.514, 2.248e-3
-1.515, 2.263e-3
-1.516, 2.285e-3
-1.517, 2.306e-3
-1.518, 2.328e-3
-1.519, 2.346e-3
-1.520, 2.368e-3
-1.521, 2.390e-3
-1.522, 2.411e-3
-1.523, 2.430e-3
-1.524, 2.451e-3
-1.525, 2.470e-3
-1.526, 2.491e-3
-1.527, 2.516e-3
-1.528, 2.541e-3
-1.529, 2.562e-3
-1.530, 2.587e-3
-1.531, 2.608e-3
-1.532, 2.630e-3
-1.533, 2.649e-3
-1.534, 2.670e-3
-1.535, 2.692e-3
-1.536, 2.710e-3
-1.537, 2.735e-3
-1.538, 2.753e-3
-1.539, 2.772e-3
-1.540, 2.793e-3
-1.541, 2.815e-3
-1.542, 2.837e-3
-1.543, 2.858e-3
-1.544, 2.880e-3
-1.545, 2.904e-3
-1.546, 2.926e-3
-1.547, 2.951e-3
-1.548, 2.972e-3
-1.549, 2.994e-3
-1.550, 3.015e-3
-1.551, 3.037e-3
-1.552, 3.059e-3
-1.553, 3.077e-3
-1.554, 3.099e-3
-1.555, 3.114e-3
-1.556, 3.133e-3
-1.557, 3.151e-3
-1.558, 3.176e-3
-1.559, 3.207e-3
-1.560, 3.234e-3
-1.561, 3.265e-3
-1.562, 3.284e-3
-1.563, 3.305e-3
-1.564, 3.330e-3
-1.565, 3.361e-3
-1.566, 3.388e-3
-1.567, 3.413e-3
-1.568, 3.441e-3
-1.569, 3.475e-3
-1.570, 3.509e-3
-1.571, 3.536e-3
-1.572, 3.567e-3
-1.573, 3.601e-3
-1.574, 3.632e-3
-1.575, 3.663e-3
-1.576, 3.697e-3
-1.577, 3.731e-3
-1.578, 3.762e-3
-1.579, 3.786e-3
-1.580, 3.814e-3
-1.581, 3.845e-3
-1.582, 3.879e-3
-1.583, 3.916e-3
-1.584, 3.943e-3
-1.585, 3.980e-3
-1.586, 4.014e-3
-1.587, 4.048e-3
-1.588, 4.079e-3
-1.589, 4.110e-3
-1.590, 4.144e-3
-1.591, 4.172e-3
-1.592, 4.196e-3
-1.593, 4.221e-3
-1.594, 4.243e-3
-1.595, 4.267e-3
-1.596, 4.292e-3
-1.597, 4.313e-3
-1.598, 4.338e-3
-1.599, 4.363e-3
-1.600, 4.335e-3
-1.599, 4.258e-3
-1.598, 4.190e-3
-1.597, 4.128e-3
-1.596, 4.073e-3
-1.595, 4.021e-3
-1.594, 3.971e-3
-1.593, 3.925e-3
-1.592, 3.894e-3
-1.591, 3.848e-3
-1.590, 3.795e-3
-1.589, 3.746e-3
-1.588, 3.691e-3
-1.587, 3.635e-3
-1.586, 3.580e-3
-1.585, 3.521e-3
-1.584, 3.453e-3
-1.583, 3.398e-3
-1.582, 3.348e-3
-1.581, 3.299e-3
-1.580, 3.256e-3
-1.579, 3.216e-3
-1.578, 3.170e-3
-1.577, 3.117e-3
-1.576, 3.068e-3
-1.575, 3.015e-3
-1.574, 2.966e-3
-1.573, 2.917e-3
-1.572, 2.871e-3
-1.571, 2.824e-3
-1.570, 2.781e-3
-1.569, 2.741e-3
-1.568, 2.704e-3
-1.567, 2.664e-3
-1.566, 2.627e-3
-1.565, 2.593e-3
-1.564, 2.556e-3
-1.563, 2.525e-3
-1.562, 2.497e-3
-1.561, 2.467e-3
-1.560, 2.439e-3
-1.559, 2.405e-3
-1.558, 2.371e-3
-1.557, 2.340e-3
-1.556, 2.309e-3
-1.555, 2.279e-3
-1.554, 2.251e-3
-1.553, 2.223e-3
-1.552, 2.195e-3
-1.551, 2.168e-3
-1.550, 2.143e-3
-1.549, 2.112e-3
-1.548, 2.087e-3
-1.547, 2.060e-3
-1.546, 2.035e-3
-1.545, 2.007e-3
-1.544, 1.980e-3
-1.543, 1.955e-3
-1.542, 1.927e-3
-1.541, 1.906e-3
-1.540, 1.881e-3
-1.539, 1.856e-3
-1.538, 1.832e-3
-1.537, 1.807e-3
-1.536, 1.785e-3
-1.535, 1.761e-3
-1.534, 1.742e-3
-1.533, 1.717e-3
-1.532, 1.690e-3
-1.531, 1.665e-3
-1.530, 1.643e-3
-1.529, 1.625e-3
-1.528, 1.603e-3
-1.527, 1.582e-3
-1.526, 1.560e-3
-1.525, 1.536e-3
-1.524, 1.514e-3
-1.523, 1.492e-3
-1.522, 1.477e-3
-1.521, 1.462e-3
-1.520, 1.443e-3
-1.519, 1.421e-3
-1.518, 1.400e-3
-1.517, 1.381e-3
-1.516, 1.366e-3
-1.515, 1.351e-3
-1.514, 1.335e-3
-1.513, 1.317e-3
-1.512, 1.301e-3
-1.511, 1.283e-3
-1.510, 1.264e-3
-1.509, 1.249e-3
-1.508, 1.233e-3
-1.507, 1.221e-3
-1.506, 1.206e-3
-1.505, 1.190e-3
-1.504, 1.175e-3
-1.503, 1.159e-3
-1.502, 1.147e-3
-1.501, 1.132e-3
-1.500, 1.119e-3
-1.499, 1.107e-3
-1.498, 1.095e-3
-1.497, 1.082e-3
-1.496, 1.070e-3
-1.495, 1.055e-3
-1.494, 1.042e-3
-1.493, 1.030e-3
-1.492, 1.018e-3
-1.491, 1.005e-3
-1.490, 9.929e-4
-1.489, 9.806e-4
-1.488, 9.683e-4
-1.487, 9.559e-4
-1.486, 9.436e-4
-1.485, 9.343e-4
-1.484, 9.220e-4
-1.483, 9.128e-4
-1.482, 9.004e-4
-1.481, 8.881e-4
-1.480, 8.788e-4
-1.479, 8.696e-4
-1.478, 8.573e-4
-1.477, 8.480e-4
-1.476, 8.357e-4
-1.475, 8.264e-4
-1.474, 8.172e-4
-1.473, 8.048e-4
-1.472, 7.956e-4
-1.471, 7.863e-4
-1.470, 7.740e-4
-1.469, 7.679e-4
-1.468, 7.586e-4
-1.467, 7.524e-4
-1.466, 7.401e-4
-1.465, 7.339e-4
-1.464, 7.247e-4
-1.463, 7.185e-4
-1.462, 7.062e-4
-1.461, 7.000e-4
-1.460, 6.908e-4
-1.459, 6.846e-4
-1.458, 6.754e-4
-1.457, 6.661e-4
-1.456, 6.599e-4
-1.455, 6.507e-4
-1.454, 6.445e-4
-1.453, 6.353e-4
-1.452, 6.291e-4
-1.451, 6.199e-4
-1.450, 6.137e-4
-1.449, 6.075e-4
-1.448, 5.983e-4
-1.447, 5.921e-4
-1.446, 5.859e-4
-1.445, 5.767e-4
-1.444, 5.705e-4
-1.443, 5.644e-4
-1.442, 5.582e-4
-1.441, 5.489e-4
-1.440, 5.459e-4
-1.439, 5.366e-4
-1.438, 5.305e-4
-1.437, 5.243e-4
-1.436, 5.150e-4
-1.435, 5.089e-4
-1.434, 5.027e-4
-1.433, 4.965e-4
-1.432, 4.904e-4
-1.431, 4.842e-4
-1.430, 4.780e-4
-1.429, 4.719e-4
-1.428, 4.657e-4
-1.427, 4.595e-4
-1.426, 4.534e-4
-1.425, 4.472e-4
-1.424, 4.441e-4
-1.423, 4.349e-4
-1.422, 4.318e-4
-1.421, 4.256e-4
-1.420, 4.195e-4
-1.419, 4.133e-4
-1.418, 4.102e-4
-1.417, 4.040e-4
-1.416, 3.979e-4
-1.415, 3.948e-4
-1.414, 3.886e-4
-1.413, 3.825e-4
-1.412, 3.794e-4
-1.411, 3.732e-4
-1.410, 3.701e-4
-1.409, 3.640e-4
-1.408, 3.609e-4
-1.407, 3.547e-4
-1.406, 3.485e-4
-1.405, 3.455e-4
-1.404, 3.424e-4
-1.403, 3.362e-4
-1.402, 3.331e-4
-1.401, 3.270e-4
-1.400, 3.239e-4
-1.399, 3.177e-4
-1.398, 3.146e-4
-1.397, 3.085e-4
-1.396, 3.054e-4
-1.395, 2.992e-4
-1.394, 2.961e-4
-1.393, 2.900e-4
-1.392, 2.869e-4
-1.391, 2.838e-4
-1.390, 2.807e-4
-1.389, 2.746e-4
-1.388, 2.715e-4
-1.387, 2.653e-4
-1.386, 2.622e-4
-1.385, 2.591e-4
-1.384, 2.561e-4
-1.383, 2.499e-4
-1.382, 2.437e-4
-1.381, 2.437e-4
-1.380, 2.376e-4
-1.379, 2.345e-4
-1.378, 2.314e-4
-1.377, 2.252e-4
-1.376, 2.252e-4
-1.375, 2.191e-4
-1.374, 2.160e-4
-1.373, 2.129e-4
-1.372, 2.067e-4
-1.371, 2.067e-4
-1.370, 2.006e-4
-1.369, 1.975e-4
-1.368, 1.944e-4
-1.367, 1.913e-4
-1.366, 1.882e-4
-1.365, 1.851e-4
-1.364, 1.790e-4
-1.363, 1.759e-4
-1.362, 1.728e-4
-1.361, 1.697e-4
-1.360, 1.666e-4
-1.359, 1.636e-4
-1.358, 1.605e-4
-1.357, 1.574e-4
-1.356, 1.543e-4
-1.355, 1.512e-4
-1.354, 1.481e-4
-1.353, 1.451e-4
-1.352, 1.420e-4
-1.351, 1.389e-4
-1.350, 1.358e-4
-1.349, 1.327e-4
-1.348, 1.296e-4
-1.347, 1.266e-4
-1.346, 1.235e-4
-1.345, 1.204e-4
-1.344, 1.173e-4
-1.343, 1.142e-4
-1.342, 1.111e-4
-1.341, 1.081e-4
-1.340, 1.050e-4
-1.339, 1.019e-4
-1.338, 9.882e-5
-1.337, 9.573e-5
-1.336, 9.573e-5
-1.335, 9.265e-5
-1.334, 8.957e-5
-1.333, 8.648e-5
-1.332, 8.340e-5
-1.331, 8.340e-5
-1.330, 8.032e-5
-1.329, 7.723e-5
-1.328, 7.415e-5
-1.327, 7.107e-5
-1.326, 6.798e-5
-1.325, 6.798e-5
-1.324, 6.490e-5
-1.323, 6.182e-5
-1.322, 5.873e-5
-1.321, 5.565e-5
-1.320, 5.565e-5
-1.319, 5.257e-5
-1.318, 4.949e-5
-1.317, 4.949e-5
-1.316, 4.640e-5
-1.315, 4.332e-5
-1.314, 4.024e-5
-1.313, 3.715e-5
-1.312, 3.715e-5
-1.311, 3.407e-5
-1.310, 3.099e-5
-1.309, 3.099e-5
-1.308, 2.790e-5
-1.307, 2.482e-5
-1.306, 2.482e-5
-1.305, 2.174e-5
-1.304, 1.865e-5
-1.303, 1.865e-5
-1.302, 1.557e-5
-1.301, 1.557e-5
-1.300, 1.249e-5
-1.299, 9.405e-6
-1.298, 9.405e-6
-1.297, 6.322e-6
-1.296, 6.322e-6
-1.295, 3.239e-6
-1.294, 1.559e-7
-1.293, 1.559e-7
-1.292, -2.927e-6
-1.291, -2.927e-6
-1.290, -6.010e-6
-1.289, -6.010e-6
-1.288, -9.093e-6
-1.287, -9.093e-6
-1.286, -1.218e-5
-1.285, -1.218e-5
-1.284, -1.526e-5
-1.283, -1.526e-5
-1.282, -1.834e-5
-1.281, -1.834e-5
-1.280, -2.143e-5
-1.279, -2.143e-5
-1.278, -2.143e-5
-1.277, -2.451e-5
-1.276, -2.759e-5
-1.275, -2.759e-5
-1.274, -2.759e-5
-1.273, -3.068e-5
-1.272, -3.068e-5
-1.271, -3.376e-5
-1.270, -3.376e-5
-1.269, -3.376e-5
-1.268, -3.684e-5
-1.267, -3.684e-5
-1.266, -3.684e-5
-1.265, -3.992e-5
-1.264, -3.992e-5
-1.263, -4.301e-5
-1.262, -4.301e-5
-1.261, -4.301e-5
-1.260, -4.609e-5
-1.259, -4.609e-5
-1.258, -4.609e-5
-1.257, -4.917e-5
-1.256, -4.917e-5
-1.255, -4.917e-5
-1.254, -5.226e-5
-1.253, -5.226e-5
-1.252, -5.226e-5
-1.251, -5.226e-5
-1.250, -5.226e-5
-1.249, -5.534e-5
-1.248, -5.842e-5
-1.247, -5.842e-5
-1.246, -5.842e-5
-1.245, -5.842e-5
-1.244, -6.151e-5
-1.243, -5.842e-5
-1.242, -6.151e-5
-1.241, -6.459e-5
-1.240, -6.151e-5
-1.239, -6.459e-5
-1.238, -6.459e-5
-1.237, -6.459e-5
-1.236, -6.459e-5
-1.235, -6.767e-5
-1.234, -6.767e-5
-1.233, -6.767e-5
-1.232, -6.767e-5
-1.231, -6.767e-5
-1.230, -6.767e-5
-1.229, -7.076e-5
-1.228, -7.076e-5
-1.227, -7.076e-5
-1.226, -7.076e-5
-1.225, -7.384e-5
-1.224, -7.076e-5
-1.223, -7.384e-5
-1.222, -7.384e-5
-1.221, -7.384e-5
-1.220, -7.384e-5
-1.219, -7.384e-5
-1.218, -7.384e-5
-1.217, -7.692e-5
-1.216, -7.692e-5
-1.215, -7.692e-5
-1.214, -8.000e-5
-1.213, -7.692e-5
-1.212, -7.692e-5
-1.211, -8.000e-5
-1.210, -8.000e-5
-1.209, -8.000e-5
-1.208, -8.000e-5
-1.207, -8.000e-5
-1.206, -8.000e-5
-1.205, -8.000e-5
-1.204, -8.000e-5
-1.203, -8.000e-5
-1.202, -8.000e-5
-1.201, -8.000e-5
-1.200, -8.309e-5
-1.199, -8.309e-5
-1.198, -8.309e-5
-1.197, -8.309e-5
-1.196, -8.617e-5
-1.195, -8.309e-5
-1.194, -8.309e-5
-1.193, -8.309e-5
-1.192, -8.309e-5
-1.191, -8.309e-5
-1.190, -8.309e-5
-1.189, -8.617e-5
-1.188, -8.617e-5
-1.187, -8.617e-5
-1.186, -8.617e-5
-1.185, -8.617e-5
-1.184, -8.617e-5
-1.183, -8.617e-5
-1.182, -8.617e-5
-1.181, -8.617e-5
-1.180, -8.617e-5
-1.179, -8.617e-5
-1.178, -8.617e-5
-1.177, -8.617e-5
-1.176, -8.617e-5
-1.175, -8.617e-5
-1.174, -8.925e-5
-1.173, -8.617e-5
-1.172, -8.925e-5
-1.171, -8.617e-5
-1.170, -8.925e-5
-1.169, -8.925e-5
-1.168, -8.925e-5
-1.167, -8.925e-5
-1.166, -8.925e-5
-1.165, -8.925e-5
-1.164, -8.925e-5
-1.163, -8.925e-5
-1.162, -8.925e-5
-1.161, -8.925e-5
-1.160, -8.925e-5
-1.159, -8.925e-5
-1.158, -8.925e-5
-1.157, -8.925e-5
-1.156, -8.925e-5
-1.155, -8.925e-5
-1.154, -8.925e-5
-1.153, -9.234e-5
-1.152, -8.925e-5
-1.151, -8.925e-5
-1.150, -8.925e-5
-1.149, -8.925e-5
-1.148, -8.925e-5
-1.147, -8.925e-5
-1.146, -8.925e-5
-1.145, -9.234e-5
-1.144, -8.925e-5
-1.143, -8.925e-5
-1.142, -8.925e-5
-1.141, -9.234e-5
-1.140, -9.234e-5
-1.139, -9.234e-5
-1.138, -9.234e-5
-1.137, -9.234e-5
-1.136, -9.234e-5
-1.135, -9.234e-5
-1.134, -9.234e-5
-1.133, -9.234e-5
-1.132, -9.234e-5
-1.131, -9.234e-5
-1.130, -9.234e-5
-1.129, -9.234e-5
-1.128, -9.234e-5
-1.127, -9.234e-5
-1.126, -9.234e-5
-1.125, -9.234e-5
-1.124, -9.234e-5
-1.123, -9.234e-5
-1.122, -9.234e-5
-1.121, -9.234e-5
-1.120, -9.234e-5
-1.119, -9.234e-5
-1.118, -9.234e-5
-1.117, -9.234e-5
-1.116, -9.234e-5
-1.115, -9.234e-5
-1.114, -9.234e-5
-1.113, -9.234e-5
-1.112, -9.234e-5
-1.111, -9.234e-5
-1.110, -9.542e-5
-1.109, -9.234e-5
-1.108, -9.542e-5
-1.107, -9.234e-5
-1.106, -9.542e-5
-1.105, -9.542e-5
-1.104, -9.234e-5
-1.103, -9.234e-5
-1.102, -9.542e-5
-1.101, -9.542e-5
-1.100, -9.542e-5
-1.099, -9.542e-5
-1.098, -9.542e-5
-1.097, -9.542e-5
-1.096, -9.542e-5
-1.095, -9.542e-5
-1.094, -9.850e-5
-1.093, -9.542e-5
-1.092, -9.850e-5
-1.091, -9.542e-5
-1.090, -9.542e-5
-1.089, -9.850e-5
-1.088, -9.850e-5
-1.087, -9.850e-5
-1.086, -9.850e-5
-1.085, -9.542e-5
-1.084, -9.850e-5
-1.083, -9.542e-5
-1.082, -9.850e-5
-1.081, -9.850e-5
-1.080, -9.850e-5
-1.079, -9.850e-5
-1.078, -9.850e-5
-1.077, -9.850e-5
-1.076, -9.850e-5
-1.075, -9.850e-5
-1.074, -9.850e-5
-1.073, -9.850e-5
-1.072, -9.850e-5
-1.071, -9.850e-5
-1.070, -9.850e-5
-1.069, -9.850e-5
-1.068, -1.016e-4
-1.067, -1.016e-4
-1.066, -9.850e-5
-1.065, -9.850e-5
-1.064, -9.850e-5
-1.063, -9.850e-5
-1.062, -1.016e-4
-1.061, -1.016e-4
-1.060, -1.016e-4
-1.059, -9.850e-5
-1.058, -1.016e-4
-1.057, -1.016e-4
-1.056, -1.016e-4
-1.055, -1.016e-4
-1.054, -1.016e-4
-1.053, -1.016e-4
-1.052, -1.016e-4
-1.051, -1.016e-4
-1.050, -1.016e-4
-1.049, -1.047e-4
-1.048, -1.047e-4
-1.047, -1.016e-4
-1.046, -1.016e-4
-1.045, -1.016e-4
-1.044, -1.047e-4
-1.043, -1.016e-4
-1.042, -1.047e-4
-1.041, -1.047e-4
-1.040, -1.047e-4
-1.039, -1.047e-4
-1.038, -1.047e-4
-1.037, -1.047e-4
-1.036, -1.047e-4
-1.035, -1.047e-4
-1.034, -1.047e-4
-1.033, -1.047e-4
-1.032, -1.047e-4
-1.031, -1.047e-4
-1.030, -1.078e-4
-1.029, -1.078e-4
-1.028, -1.078e-4
-1.027, -1.078e-4
-1.026, -1.078e-4
-1.025, -1.078e-4
-1.024, -1.078e-4
-1.023, -1.078e-4
-1.022, -1.108e-4
-1.021, -1.078e-4
-1.020, -1.078e-4
-1.019, -1.078e-4
-1.018, -1.078e-4
-1.017, -1.108e-4
-1.016, -1.108e-4
-1.015, -1.108e-4
-1.014, -1.108e-4
-1.013, -1.108e-4
-1.012, -1.108e-4
-1.011, -1.139e-4
-1.010, -1.139e-4
-1.009, -1.139e-4
-1.008, -1.139e-4
-1.007, -1.139e-4
-1.006, -1.139e-4
-1.005, -1.139e-4
-1.004, -1.170e-4
-1.003, -1.170e-4
-1.002, -1.170e-4
-1.001, -1.170e-4
