Potential V vs RHE, Current mA cm-2
0.013299999999999867,-0.4384190318281749
0.012299999999999978,-1.4415908145624723
0.011299999999999866,-2.095187435100119
0.010299999999999976,-2.532333226758415
0.009299999999999864,-2.8803522065252145
0.008299999999999974,-3.1420737970002466
0.007299999999999862,-3.317497998183511
0.006299999999999972,-3.447651437771094
0.00529999999999986,-3.5353635383627267
0.0042999999999999705,-3.623075638954359
0.0032999999999998586,-3.7093730282461257
0.0022999999999999687,-3.840941179133574
0.0012999999999998568,-3.927238568425342
0.00029999999999996696,-3.971094618721158
-0.000700000000000145,-4.014950669016974
-0.0017000000000000348,-4.0588067193127895
-0.0027000000000001467,-4.0588067193127895
-0.0037000000000000366,-4.102662769608606
-0.0047000000000001485,-4.1889601589003735
-0.005700000000000038,-4.23281620919619
-0.00670000000000015,-4.276672259492005
-0.00770000000000004,-4.276672259492005
-0.008700000000000152,-4.276672259492005
-0.009700000000000042,-4.3205283097878215
-0.010700000000000154,-4.364384360083638
-0.011700000000000044,-4.406825699079589
-0.012700000000000156,-4.450681749375406
-0.013700000000000045,-4.450681749375406
-0.014700000000000157,-4.450681749375406
-0.015700000000000047,-4.450681749375406
-0.01670000000000016,-4.450681749375406
-0.01770000000000005,-4.494537799671222
-0.01870000000000016,-4.538393849967037
-0.01970000000000005,-4.582249900262854
-0.020700000000000163,-4.582249900262854
-0.021700000000000053,-4.538393849967037
-0.022700000000000164,-4.538393849967037
-0.023700000000000054,-4.582249900262854
-0.024700000000000166,-4.626105950558669
-0.025700000000000056,-4.668547289554621
-0.026700000000000168,-4.668547289554621
-0.027700000000000058,-4.626105950558669
-0.02870000000000017,-4.626105950558669
-0.02970000000000006,-4.668547289554621
-0.03070000000000017,-4.668547289554621
-0.03170000000000006,-4.712403339850438
-0.03270000000000017,-4.756259390146253
-0.03370000000000006,-4.756259390146253
-0.034700000000000175,-4.756259390146253
-0.035700000000000065,-4.756259390146253
-0.03670000000000018,-4.756259390146253
-0.03770000000000007,-4.800115440442069
-0.03870000000000018,-4.800115440442069
-0.03970000000000007,-4.843971490737885
-0.04070000000000018,-4.843971490737885
-0.04170000000000007,-4.800115440442069
-0.04270000000000018,-4.800115440442069
-0.04370000000000007,-4.843971490737885
-0.044700000000000184,-4.887827541033701
-0.045700000000000074,-4.9302688800296535
-0.046700000000000186,-4.9302688800296535
-0.047700000000000076,-4.9302688800296535
-0.04870000000000019,-4.887827541033701
-0.04970000000000008,-4.887827541033701
-0.05070000000000019,-4.9302688800296535
-0.05170000000000008,-4.974124930325469
-0.05270000000000019,-5.017980980621284
-0.05370000000000008,-5.017980980621284
-0.05470000000000019,-4.974124930325469
-0.05570000000000008,-4.974124930325469
-0.056700000000000195,-4.974124930325469
-0.057700000000000085,-5.017980980621284
-0.058700000000000196,-5.0618370309171015
-0.059700000000000086,-5.105693081212917
-0.0607000000000002,-5.0618370309171015
-0.06170000000000009,-5.0618370309171015
-0.0627000000000002,-5.0618370309171015
-0.06370000000000009,-5.105693081212917
-0.0647000000000002,-5.105693081212917
-0.06570000000000009,-5.149549131508733
-0.0667000000000002,-5.149549131508733
-0.0677000000000001,-5.149549131508733
-0.0687000000000002,-5.105693081212917
-0.0697000000000001,-5.105693081212917
-0.07070000000000021,-5.149549131508733
-0.0717000000000001,-5.235846520800501
-0.07270000000000021,-5.235846520800501
-0.0737000000000001,-5.235846520800501
-0.07470000000000021,-5.235846520800501
-0.0757000000000001,-5.191990470504685
-0.07670000000000021,-5.191990470504685
-0.0777000000000001,-5.235846520800501
-0.07870000000000021,-5.279702571096316
-0.0797000000000001,-5.323558621392133
-0.08070000000000022,-5.323558621392133
-0.0817000000000001,-5.279702571096316
-0.08270000000000022,-5.279702571096316
-0.08370000000000011,-5.323558621392133
-0.08470000000000022,-5.367414671687949
-0.08570000000000011,-5.367414671687949
-0.08670000000000022,-5.411270721983764
-0.08770000000000011,-5.367414671687949
-0.08870000000000022,-5.367414671687949
-0.08970000000000011,-5.367414671687949
-0.09070000000000022,-5.411270721983764
-0.09170000000000011,-5.453712060979717
-0.09270000000000023,-5.497568111275533
-0.09370000000000012,-5.453712060979717
-0.09470000000000023,-5.497568111275533
-0.09570000000000012,-5.453712060979717
-0.09670000000000023,-5.497568111275533
-0.09770000000000012,-5.497568111275533
-0.09870000000000023,-5.5414241615713475
-0.09970000000000012,-5.585280211867165
-0.10070000000000023,-5.585280211867165
-0.10170000000000012,-5.5414241615713475
-0.10270000000000024,-5.5414241615713475
-0.10370000000000013,-5.585280211867165
-0.10470000000000024,-5.629136262162981
-0.10570000000000013,-5.672992312458796
-0.10670000000000024,-5.672992312458796
-0.10770000000000013,-5.672992312458796
-0.10870000000000024,-5.629136262162981
-0.10970000000000013,-5.672992312458796
-0.11070000000000024,-5.715433651454749
-0.11170000000000013,-5.759289701750564
-0.11270000000000002,-5.759289701750564
-0.11370000000000013,-5.759289701750564
-0.11470000000000002,-5.759289701750564
-0.11570000000000014,-5.759289701750564
-0.11670000000000003,-5.759289701750564
-0.11770000000000014,-5.80314575204638
-0.11870000000000003,-5.847001802342197
-0.11970000000000014,-5.847001802342197
-0.12070000000000003,-5.847001802342197
-0.12170000000000014,-5.847001802342197
-0.12270000000000003,-5.847001802342197
-0.12370000000000014,-5.890857852638012
-0.12470000000000003,-5.9347139029338285
-0.12570000000000014,-5.977155241929781
-0.12670000000000003,-5.977155241929781
-0.12770000000000015,-5.977155241929781
-0.12870000000000004,-5.977155241929781
-0.12970000000000015,-5.977155241929781
-0.13070000000000004,-6.021011292225596
-0.13170000000000015,-6.064867342521412
-0.13270000000000004,-6.064867342521412
-0.13370000000000015,-6.064867342521412
-0.13470000000000004,-6.064867342521412
-0.13570000000000015,-6.064867342521412
-0.13670000000000004,-6.064867342521412
-0.13770000000000016,-6.108723392817228
-0.13870000000000005,-6.152579443113044
-0.13970000000000016,-6.196435493408861
-0.14070000000000005,-6.196435493408861
-0.14170000000000016,-6.196435493408861
-0.14270000000000005,-6.196435493408861
-0.14370000000000016,-6.238876832404812
-0.14470000000000005,-6.238876832404812
-0.14570000000000016,-6.326588932996443
-0.14670000000000005,-6.326588932996443
-0.14770000000000016,-6.326588932996443
-0.14870000000000005,-6.282732882700628
-0.14970000000000017,-6.282732882700628
-0.15070000000000006,-6.37044498329226
-0.15170000000000017,-6.414301033588076
-0.15270000000000006,-6.414301033588076
-0.15370000000000017,-6.458157083883892
-0.15470000000000006,-6.458157083883892
-0.15570000000000017,-6.414301033588076
-0.15670000000000006,-6.458157083883892
-0.15770000000000017,-6.500598422879844
-0.15870000000000006,-6.54445447317566
-0.15970000000000018,-6.54445447317566
-0.16070000000000007,-6.54445447317566
-0.16170000000000018,-6.54445447317566
-0.16270000000000007,-6.588310523471475
-0.16370000000000018,-6.632166573767292
-0.16470000000000007,-6.6760226240631075
-0.16570000000000018,-6.6760226240631075
-0.16670000000000007,-6.719878674358924
-0.16770000000000018,-6.719878674358924
-0.16870000000000007,-6.6760226240631075
-0.16970000000000018,-6.719878674358924
-0.17070000000000007,-6.762320013354876
-0.17170000000000019,-6.806176063650692
-0.17270000000000008,-6.850032113946507
-0.1737000000000002,-6.806176063650692
-0.17470000000000008,-6.806176063650692
-0.1757000000000002,-6.806176063650692
-0.17670000000000008,-6.850032113946507
-0.1777000000000002,-6.893888164242324
-0.17870000000000008,-6.93774421453814
-0.1797000000000002,-6.981600264833956
-0.18070000000000008,-6.981600264833956
-0.1817000000000002,-6.93774421453814
-0.18270000000000008,-6.981600264833956
-0.1837000000000002,-7.024041603829907
-0.1847000000000001,-7.067897654125724
-0.1857000000000002,-7.111753704421539
-0.1867000000000001,-7.111753704421539
-0.1877000000000002,-7.111753704421539
-0.1887000000000001,-7.111753704421539
-0.1897000000000002,-7.111753704421539
-0.1907000000000001,-7.155609754717355
-0.1917000000000001,-7.199465805013171
-0.19269999999999998,-7.243321855308987
-0.1937000000000001,-7.28576319430494
-0.19469999999999998,-7.243321855308987
-0.1957000000000001,-7.243321855308987
-0.19669999999999999,-7.28576319430494
-0.1977000000000001,-7.329619244600755
-0.1987,-7.37347529489657
-0.1997000000000001,-7.4173313451923875
-0.2007,-7.4173313451923875
-0.2017000000000001,-7.4173313451923875
-0.2027,-7.4173313451923875
-0.2037000000000001,-7.461187395488204
-0.2047,-7.50504344578402
-0.2057000000000001,-7.5474847847799715
-0.2067,-7.591340835075788
-0.2077000000000001,-7.5474847847799715
-0.2087,-7.591340835075788
-0.2097000000000001,-7.591340835075788
-0.2107,-7.635196885371603
-0.2117000000000001,-7.722908985963235
-0.2127,-7.7653503249591855
-0.2137000000000001,-7.7653503249591855
-0.2147,-7.7653503249591855
-0.2157000000000001,-7.809206375255003
-0.2167,-7.809206375255003
-0.21770000000000012,-7.853062425550818
-0.2187,-7.896918475846635
-0.21970000000000012,-7.940774526142452
-0.2207,-7.940774526142452
-0.22170000000000012,-7.940774526142452
-0.2227,-7.940774526142452
-0.22370000000000012,-7.984630576438266
-0.2247,-8.070927965730034
-0.22570000000000012,-8.11478401602585
-0.2267,-8.11478401602585
-0.22770000000000012,-8.158640066321666
-0.22870000000000001,-8.158640066321666
-0.22970000000000013,-8.158640066321666
-0.23070000000000002,-8.246352166913299
-0.23170000000000013,-8.246352166913299
-0.23270000000000002,-8.288793505909249
-0.23370000000000013,-8.376505606500881
-0.23470000000000002,-8.376505606500881
-0.23570000000000013,-8.376505606500881
-0.23670000000000002,-8.4203616567967
-0.2376999999999999,-8.464217707092514
-0.23870000000000002,-8.55051509638428
-0.2396999999999999,-8.55051509638428
-0.24070000000000003,-8.594371146680096
-0.24169999999999991,-8.594371146680096
-0.24270000000000003,-8.638227196975913
-0.24369999999999992,-8.725939297567548
-0.24470000000000003,-8.769795347863363
-0.24569999999999992,-8.85609273715513
-0.24670000000000003,-8.899948787450944
-0.24769999999999992,-8.899948787450944
-0.24870000000000003,-8.899948787450944
-0.24969999999999992,-8.943804837746763
-0.25070000000000003,-9.031516938338395
-0.2516999999999999,-9.11781432763016
-0.25270000000000004,-9.205526428221793
-0.2536999999999999,-9.205526428221793
-0.25470000000000004,-9.24938247851761
-0.2556999999999999,-9.293238528813426
-0.25670000000000004,-9.335679867809377
-0.25769999999999993,-9.423391968401008
-0.25870000000000004,-9.511104068992642
-0.25969999999999993,-9.59740145828441
-0.26070000000000004,-9.641257508580225
-0.26169999999999993,-9.641257508580225
-0.26270000000000004,-9.728969609171857
-0.26369999999999993,-9.81668170976349
-0.26470000000000005,-9.946835149351072
-0.26569999999999994,-10.034547249942705
-0.26670000000000005,-10.120844639234473
-0.26769999999999994,-10.164700689530287
-0.26870000000000005,-10.25241279012192
-0.26969999999999994,-10.296268840417738
-0.27070000000000005,-10.42642228000532
-0.27169999999999994,-10.557990430892769
-0.27270000000000005,-10.644287820184536
-0.27369999999999994,-10.731999920776168
-0.27470000000000006,-10.819712021367803
-0.27569999999999995,-10.906009410659568
-0.27670000000000006,-11.037577561547016
-0.27769999999999995,-11.1677310011346
-0.27870000000000006,-11.343155202317865
-0.27969999999999995,-11.473308641905447
-0.28070000000000006,-11.56102074249708
-0.28169999999999995,-11.647318131788847
-0.28270000000000006,-11.778886282676295
-0.28369999999999995,-11.952895772559694
-0.28470000000000006,-12.12831997374296
-0.28569999999999995,-12.302329463626359
-0.28670000000000007,-12.476338953509758
-0.28769999999999996,-12.607907104397206
-0.28870000000000007,-12.73806054398479
-0.28969999999999996,-12.913484745168056
-0.29070000000000007,-13.13135028534727
-0.29169999999999996,-13.349215825526485
-0.29270000000000007,-13.567081365705702
-0.29369999999999996,-13.784946905884919
-0.2947000000000001,-14.002812446064135
-0.29569999999999996,-14.175407224647667
-0.2967000000000001,-14.401761032626075
-0.29769999999999996,-14.65640906660178
-0.2987000000000001,-14.967645552572087
-0.29969999999999997,-15.264734925543747
-0.3007000000000001,-15.533530072518102
-0.30169999999999997,-15.78817810649381
-0.3027000000000001,-16.056973253468165
-0.30369999999999997,-16.354062626439823
-0.3047000000000001,-16.665299112410132
-0.30569999999999997,-17.061418276372343
-0.3067000000000001,-17.4433903273359
-0.3077,-17.839509491298113
-0.3087000000000001,-18.19318731626437
-0.3097,-18.589306480226583
-0.3107000000000001,-19.01371987018609
-0.3117,-19.49472171214021
-0.3127000000000001,-20.01816489309027
-0.3137,-20.541608074040333
-0.3147000000000001,-21.065051254990397
-0.3157,-21.63093577493641
-0.3167000000000001,-22.196820294882425
-0.3177,-22.861734605818995
-0.3187000000000001,-23.55494314275286
-0.3197,-24.20571034069078
-0.3207000000000001,-24.95550732961925
-0.3217,-25.691157205549064
-0.3227000000000001,-26.483395533473487
-0.3237,-27.34636942639116
-0.3247000000000001,-28.265931771303435
-0.3257,-29.22793545521166
-0.3267000000000001,-30.189939139119886
-0.3277,-31.19438416202406
-0.3287000000000001,-32.283711862920136
-0.3297,-33.373039563816214
-0.3307000000000001,-34.5472499427042
-0.3317,-35.763901660588125
-0.3327000000000001,-36.99470049147071
-0.3337,-38.29623488734655
-0.3347000000000001,-39.61191639622103
-0.3357,-40.95589213109281
-0.3367000000000001,-42.3564563179592
-0.3377,-43.79946184382153
-0.3387000000000001,-45.27076159568118
-0.3397,-46.84109113853137
-0.3407000000000001,-48.36897934238561
-0.3417,-49.98175022423175
-0.3427000000000001,-51.55207976708194
-0.3437,-53.16485064892808
-0.3447000000000001,-54.834209982768826
-0.3457,-56.53186354260687
-0.3467000000000001,-58.18707576344896
-0.3477,-59.842287984291055
-0.3487000000000001,-61.455058866137186
-0.3497,-63.06782974798333
-0.3507000000000001,-64.68060062982947
-0.3517,-66.34995996367022
-0.3527000000000001,-68.0900548625042
-0.3537,-69.70282574435035
-0.3547000000000001,-71.18827260920865
-0.3557,-72.67371947406694
-0.35670000000000013,-74.06013654793468
-0.3577,-75.5880247517889
-0.35870000000000013,-77.1583542946391
-0.3597,-78.68624249849334
-0.36070000000000013,-80.25657204134353
-0.3617,-81.74201890620182
-0.3626999999999999,-83.14258309306821
-0.3637,-84.52900016693594
-0.3646999999999999,-86.09932970978613
-0.3657,-87.93845439961068
-0.3666999999999999,-89.80587331543254
-0.3677,-91.46108553627462
-0.3686999999999999,-92.98897374012887
-0.36970000000000003,-94.55930328297906
-0.3706999999999999,-96.12963282582925
-0.37170000000000003,-97.88387483766188
-0.3726999999999999,-99.93520622246619
-0.37370000000000003,-101.84506647728399
-0.3746999999999999,-103.54272003712204
-0.37570000000000003,-105.25452070995874
-0.3766999999999999,-106.90973293080083
-0.37770000000000004,-108.60738649063886
-0.3786999999999999,-110.4465111804634
-0.37970000000000004,-112.31393009628526
-0.3806999999999999,-114.1530547861098
-0.38170000000000004,-115.8931496849438
-0.38269999999999993,-117.46347922779398
-0.38370000000000004,-119.03380877064419
-0.38469999999999993,-120.73146233048222
-0.38570000000000004,-122.34423321232836
-0.38669999999999993,-122.86767639327843
-0.38570000000000004,-121.86323137037427
-0.38469999999999993,-120.81634500847414
-0.38370000000000004,-119.72701730757805
-0.38269999999999993,-118.72257228467387
-0.38170000000000004,-117.81715705276027
-0.3806999999999999,-116.94003604684394
-0.37970000000000004,-115.8931496849438
-0.3786999999999999,-114.67649796705987
-0.37770000000000004,-113.53058181416918
-0.3766999999999999,-112.44125411327312
-0.37570000000000003,-111.22460239538917
-0.3746999999999999,-110.09283335549715
-0.37370000000000003,-109.08838833259297
-0.3726999999999999,-107.914177953705
-0.37170000000000003,-106.68337912282242
-0.3706999999999999,-105.46672740493848
-0.36970000000000003,-104.33495836504645
-0.3686999999999999,-103.24563066415038
-0.3677,-102.1563029632543
-0.3666999999999999,-100.88306279337576
-0.3657,-99.62396973649588
-0.3646999999999999,-98.2234055496295
-0.3637,-96.92187115375367
-0.3626999999999999,-95.69107232287108
-0.3617,-94.55930328297906
-0.36070000000000013,-93.51241692107894
-0.3597,-92.33820654219093
-0.35870000000000013,-91.16399616330297
-0.3577,-89.80587331543254
-0.35670000000000013,-88.63166293654454
-0.3557,-87.33012854066871
-0.3547000000000001,-86.28324217876859
-0.3537,-85.32123849486035
-0.3527000000000001,-84.23191079396429
-0.3517,-82.95867062408576
-0.3507000000000001,-82.13813807016405
-0.3497,-81.13369304725985
-0.3487000000000001,-80.12924802435568
-0.3477,-79.1248030014515
-0.3467000000000001,-78.16279931754329
-0.3457,-77.0734716166472
-0.3447000000000001,-75.98414391575112
-0.3437,-74.93725755385098
-0.3427000000000001,-73.89037119195086
-0.3417,-72.8859261690467
-0.3407000000000001,-71.83903980714656
-0.3397,-70.8345947842424
-0.3387000000000001,-69.8301497613382
-0.3377,-68.74082206044213
-0.3367000000000001,-67.693935698542
-0.3357,-66.73193201463377
-0.3347000000000001,-65.7274869917296
-0.3337,-64.77963042082003
-0.3327000000000001,-63.77518539791585
-0.3317,-62.72829903601572
-0.3307000000000001,-61.72385401311155
-0.3297,-60.761850329203334
-0.3287000000000001,-59.7998466452951
-0.3277,-58.83784296138688
-0.3267000000000001,-57.93242772947325
-0.3257,-56.97042404556503
-0.3247000000000001,-56.008420361656796
-0.3237,-55.088858016744524
-0.3227000000000001,-54.1268543328363
-0.3217,-53.30632177891458
-0.3207000000000001,-52.34431809500636
-0.3197,-51.55207976708194
-0.3187000000000001,-50.64666453516831
-0.3177,-49.72710219025603
-0.3167000000000001,-48.80753984534376
-0.3157,-47.93041883942744
-0.3147000000000001,-47.19476896349763
-0.3137,-46.41667774857186
-0.3127000000000001,-45.53955674265553
-0.3117,-44.704877075735155
-0.3107000000000001,-43.84190318281749
-0.3097,-43.007223515897124
-0.3087000000000001,-42.229132300971344
-0.3077,-41.39445263405098
-0.3067000000000001,-40.616361419125205
-0.30569999999999997,-39.82412309120078
-0.3047000000000001,-39.046031876275016
-0.30369999999999997,-38.33867622634249
-0.3027000000000001,-37.60302635041268
-0.30169999999999997,-36.89567070048016
-0.3007000000000001,-36.11757948555439
-0.29969999999999997,-35.32534115762997
-0.2987000000000001,-34.58969128170015
-0.29769999999999996,-33.85404140577033
-0.2967000000000001,-33.14668575583781
-0.29569999999999996,-32.45347721890394
-0.2947000000000001,-31.802710020966025
-0.29369999999999996,-31.095354371033505
-0.29270000000000007,-30.402145834099635
-0.29169999999999996,-29.751378636161718
-0.29070000000000007,-29.100611438223805
-0.28969999999999996,-28.393255788291288
-0.28870000000000007,-27.78492992934932
-0.28769999999999996,-27.176604070407354
-0.28670000000000007,-26.483395533473487
-0.28569999999999995,-25.81848122253692
-0.28470000000000006,-25.210155363594954
-0.28369999999999995,-24.601829504652986
-0.28270000000000006,-24.035944984706973
-0.28169999999999995,-23.47006046476096
-0.28070000000000006,-22.861734605818995
-0.27969999999999995,-22.253408746877028
-0.27870000000000006,-21.67337711393236
-0.27769999999999995,-21.065051254990397
-0.27670000000000006,-20.541608074040333
-0.27569999999999995,-20.01816489309027
-0.27470000000000006,-19.49472171214021
-0.27369999999999994,-18.97127853119014
-0.27270000000000005,-18.362952672248177
-0.27169999999999994,-17.839509491298113
-0.27070000000000005,-17.316066310348052
-0.26969999999999994,-16.919947146385837
-0.26870000000000005,-16.438945304431726
-0.26769999999999994,-16.014531914472215
-0.26670000000000005,-15.491088733522153
-0.26569999999999994,-15.01008689156804
-0.26470000000000005,-14.529085049613924
