Potential V vs RHE, Current mA cm-2
0.013299999999999867,-0.7437137303390498
0.012299999999999978,-2.4884771764625997
0.011299999999999866,-3.840941179133574
0.010299999999999976,-5.105693081212917
0.009299999999999864,-6.152579443113044
0.008299999999999974,-7.155609754717355
0.007299999999999862,-8.027071915434218
0.006299999999999972,-8.85609273715513
0.00529999999999986,-9.55496011928846
0.0042999999999999705,-10.120844639234473
0.0032999999999998586,-10.601846481188586
0.0022999999999999687,-10.906009410659568
0.0012999999999998568,-11.1677310011346
0.00029999999999996696,-11.343155202317865
-0.000700000000000145,-11.473308641905447
-0.0017000000000000348,-11.647318131788847
-0.0027000000000001467,-11.86659838326793
-0.0037000000000000366,-12.084463923447142
-0.0047000000000001485,-12.346185513922174
-0.005700000000000038,-12.56405105410139
-0.00670000000000015,-12.825772644576423
-0.00770000000000004,-12.955926084164007
-0.008700000000000152,-13.043638184755638
-0.009700000000000042,-13.087494235051453
-0.010700000000000154,-13.043638184755638
-0.011700000000000044,-12.99978213445982
-0.012700000000000156,-12.955926084164007
-0.013700000000000045,-12.99978213445982
-0.014700000000000157,-13.087494235051453
-0.015700000000000047,-13.175206335643086
-0.01670000000000016,-13.349215825526485
-0.01770000000000005,-13.47936926511407
-0.01870000000000016,-13.567081365705702
-0.01970000000000005,-13.654793466297335
-0.020700000000000163,-13.610937416001518
-0.021700000000000053,-13.47936926511407
-0.022700000000000164,-13.436927926118118
-0.023700000000000054,-13.261503724934855
-0.024700000000000166,-13.217647674639037
-0.025700000000000056,-13.217647674639037
-0.026700000000000168,-13.261503724934855
-0.027700000000000058,-13.3930718758223
-0.02870000000000017,-13.523225315409885
-0.02970000000000006,-13.654793466297335
-0.03070000000000017,-13.698649516593148
-0.03170000000000006,-13.741090855589102
-0.03270000000000017,-13.698649516593148
-0.03370000000000006,-13.567081365705702
-0.034700000000000175,-13.523225315409885
-0.035700000000000065,-13.3930718758223
-0.03670000000000018,-13.349215825526485
-0.03770000000000007,-13.349215825526485
-0.03870000000000018,-13.436927926118118
-0.03970000000000007,-13.523225315409885
-0.04070000000000018,-13.654793466297335
-0.04170000000000007,-13.784946905884919
-0.04270000000000018,-13.784946905884919
-0.04370000000000007,-13.784946905884919
-0.044700000000000184,-13.698649516593148
-0.045700000000000074,-13.610937416001518
-0.046700000000000186,-13.523225315409885
-0.047700000000000076,-13.436927926118118
-0.04870000000000019,-13.3930718758223
-0.04970000000000008,-13.436927926118118
-0.05070000000000019,-13.567081365705702
-0.05170000000000008,-13.654793466297335
-0.05270000000000019,-13.784946905884919
-0.05370000000000008,-13.872659006476551
-0.05470000000000019,-13.916515056772363
-0.05570000000000008,-13.828802956180734
-0.056700000000000195,-13.741090855589102
-0.057700000000000085,-13.654793466297335
-0.058700000000000196,-13.523225315409885
-0.059700000000000086,-13.47936926511407
-0.0607000000000002,-13.3930718758223
-0.06170000000000009,-13.47936926511407
-0.0627000000000002,-13.567081365705702
-0.06370000000000009,-13.654793466297335
-0.0647000000000002,-13.828802956180734
-0.06570000000000009,-13.872659006476551
-0.0667000000000002,-13.872659006476551
-0.0677000000000001,-13.828802956180734
-0.0687000000000002,-13.741090855589102
-0.0697000000000001,-13.610937416001518
-0.07070000000000021,-13.47936926511407
-0.0717000000000001,-13.47936926511407
-0.07270000000000021,-13.436927926118118
-0.0737000000000001,-13.523225315409885
-0.07470000000000021,-13.610937416001518
-0.0757000000000001,-13.741090855589102
-0.07670000000000021,-13.872659006476551
-0.0777000000000001,-13.916515056772363
-0.07870000000000021,-13.916515056772363
-0.0797000000000001,-13.784946905884919
-0.08070000000000022,-13.741090855589102
-0.0817000000000001,-13.610937416001518
-0.08270000000000022,-13.523225315409885
-0.08370000000000011,-13.47936926511407
-0.08470000000000022,-13.523225315409885
-0.08570000000000011,-13.610937416001518
-0.08670000000000022,-13.741090855589102
-0.08770000000000011,-13.872659006476551
-0.08870000000000022,-13.960371107068182
-0.08970000000000011,-14.002812446064135
-0.09070000000000022,-13.960371107068182
-0.09170000000000011,-13.916515056772363
-0.09270000000000023,-13.784946905884919
-0.09370000000000012,-13.654793466297335
-0.09470000000000023,-13.654793466297335
-0.09570000000000012,-13.610937416001518
-0.09670000000000023,-13.698649516593148
-0.09770000000000012,-13.784946905884919
-0.09870000000000023,-13.916515056772363
-0.09970000000000012,-14.090524546655764
-0.10070000000000023,-14.090524546655764
-0.10170000000000012,-14.13438059695158
-0.10270000000000024,-14.090524546655764
-0.10370000000000013,-13.960371107068182
-0.10470000000000024,-13.872659006476551
-0.10570000000000013,-13.698649516593148
-0.10670000000000024,-13.698649516593148
-0.10770000000000013,-13.698649516593148
-0.10870000000000024,-13.741090855589102
-0.10970000000000013,-13.828802956180734
-0.11070000000000024,-13.960371107068182
-0.11170000000000013,-14.090524546655764
-0.11270000000000002,-14.13438059695158
-0.11370000000000013,-14.13438059695158
-0.11470000000000002,-14.046668496359947
-0.11570000000000014,-14.002812446064135
-0.11670000000000003,-13.872659006476551
-0.11770000000000014,-13.828802956180734
-0.11870000000000003,-13.741090855589102
-0.11970000000000014,-13.784946905884919
-0.12070000000000003,-13.916515056772363
-0.12170000000000014,-14.002812446064135
-0.12270000000000003,-14.175407224647667
-0.12370000000000014,-14.217848563643619
-0.12470000000000003,-14.26028990263957
-0.12570000000000014,-14.26028990263957
-0.12670000000000003,-14.175407224647667
-0.12770000000000015,-14.13438059695158
-0.12870000000000004,-14.002812446064135
-0.12970000000000015,-13.960371107068182
-0.13070000000000004,-13.916515056772363
-0.13170000000000015,-14.002812446064135
-0.13270000000000004,-14.13438059695158
-0.13370000000000015,-14.26028990263957
-0.13470000000000004,-14.444202371622024
-0.13570000000000015,-14.486643710617974
-0.13670000000000004,-14.57152638860988
-0.13770000000000016,-14.486643710617974
-0.13870000000000005,-14.444202371622024
-0.13970000000000016,-14.345172580631472
-0.14070000000000005,-14.175407224647667
-0.14170000000000016,-14.175407224647667
-0.14270000000000005,-14.175407224647667
-0.14370000000000016,-14.26028990263957
-0.14470000000000005,-14.345172580631472
-0.14570000000000016,-14.444202371622024
-0.14670000000000005,-14.61396772760583
-0.14770000000000016,-14.65640906660178
-0.14870000000000005,-14.65640906660178
-0.14970000000000017,-14.61396772760583
-0.15070000000000006,-14.57152638860988
-0.15170000000000017,-14.444202371622024
-0.15270000000000006,-14.401761032626075
-0.15370000000000017,-14.345172580631472
-0.15470000000000006,-14.401761032626075
-0.15570000000000017,-14.529085049613924
-0.15670000000000006,-14.65640906660178
-0.15770000000000017,-14.826174422585586
-0.15870000000000006,-14.925204213576137
-0.15970000000000018,-14.967645552572087
-0.16070000000000007,-14.967645552572087
-0.16170000000000018,-14.868615761581536
-0.16270000000000007,-14.826174422585586
-0.16370000000000018,-14.69885040559773
-0.16470000000000007,-14.69885040559773
-0.16570000000000018,-14.69885040559773
-0.16670000000000007,-14.826174422585586
-0.16770000000000018,-14.967645552572087
-0.16870000000000007,-15.094969569559943
-0.16970000000000018,-15.307176264539699
-0.17070000000000007,-15.349617603535648
-0.17170000000000019,-15.448647394526201
-0.17270000000000008,-15.448647394526201
-0.1737000000000002,-15.349617603535648
-0.17470000000000008,-15.264734925543747
-0.1757000000000002,-15.179852247551842
-0.17670000000000008,-15.179852247551842
-0.1777000000000002,-15.179852247551842
-0.17870000000000008,-15.307176264539699
-0.1797000000000002,-15.448647394526201
-0.18070000000000008,-15.575971411514052
-0.1817000000000002,-15.70329542850191
-0.18270000000000008,-15.78817810649381
-0.1837000000000002,-15.830619445489761
-0.1847000000000001,-15.78817810649381
-0.1857000000000002,-15.74573676749786
-0.1867000000000001,-15.660854089505953
-0.1877000000000002,-15.660854089505953
-0.1887000000000001,-15.660854089505953
-0.1897000000000002,-15.70329542850191
-0.1907000000000001,-15.830619445489761
-0.1917000000000001,-16.014531914472215
-0.19269999999999998,-16.184297270456018
-0.1937000000000001,-16.311621287443874
-0.19469999999999998,-16.438945304431726
-0.1957000000000001,-16.438945304431726
-0.19669999999999999,-16.396503965435777
-0.1977000000000001,-16.354062626439823
-0.1987,-16.311621287443874
-0.1997000000000001,-16.311621287443874
-0.2007,-16.354062626439823
-0.2017000000000001,-16.495533756426326
-0.2027,-16.622857773414182
-0.2037000000000001,-16.835064468393938
-0.2047,-17.018976937376394
-0.2057000000000001,-17.146300954364243
-0.2067,-17.316066310348052
-0.2077000000000001,-17.316066310348052
-0.2087,-17.2736249713521
-0.2097000000000001,-17.316066310348052
-0.2107,-17.231183632356142
-0.2117000000000001,-17.316066310348052
-0.2127,-17.40094898833995
-0.2137000000000001,-17.542420118326454
-0.2147,-17.75462681330621
-0.2157000000000001,-18.009274847281915
-0.2167,-18.27806999425627
-0.21770000000000012,-18.362952672248177
-0.2187,-18.44783535024008
-0.21970000000000012,-18.49027668923603
-0.2207,-18.49027668923603
-0.22170000000000012,-18.44783535024008
-0.2227,-18.44783535024008
-0.22370000000000012,-18.49027668923603
-0.2247,-18.631747819222536
-0.22570000000000012,-18.80151317520634
-0.2267,-18.97127853119014
-0.22770000000000012,-19.28251501716045
-0.22870000000000001,-19.452280373144255
-0.22970000000000013,-19.636192842126707
-0.23070000000000002,-19.721075520118614
-0.23170000000000013,-19.763516859114564
-0.23270000000000002,-19.805958198110513
-0.23370000000000013,-19.805958198110513
-0.23470000000000002,-19.890840876102416
-0.23570000000000013,-19.97572355409432
-0.23670000000000002,-20.202077362072725
-0.2376999999999999,-20.414284057052477
-0.23870000000000002,-20.683079204026836
-0.2396999999999999,-21.022609915994444
-0.24070000000000003,-21.248963723972853
-0.24169999999999991,-21.461170418952605
-0.24270000000000003,-21.54605309694451
-0.24369999999999992,-21.63093577493641
-0.24470000000000003,-21.729965565926964
-0.24569999999999992,-21.729965565926964
-0.24670000000000003,-21.94217226090672
-0.24769999999999992,-22.069496277894572
-0.24870000000000003,-22.38073276386488
-0.24969999999999992,-22.63538079784059
-0.25070000000000003,-22.989058622806844
-0.2516999999999999,-23.342736447773106
-0.25270000000000004,-23.597384481748815
-0.2536999999999999,-23.823738289727217
-0.25470000000000004,-23.993503645711023
-0.2556999999999999,-24.120827662698876
-0.25670000000000004,-24.24815167968673
-0.25769999999999993,-24.34718147067728
-0.25870000000000004,-24.516946826661083
-0.25969999999999993,-24.771594860636792
-0.26070000000000004,-25.12527268560305
-0.26169999999999993,-25.43650917157336
-0.26270000000000004,-25.81848122253692
-0.26369999999999993,-26.129717708507226
-0.26470000000000005,-26.440954194477534
-0.26569999999999994,-26.65316088945729
-0.26670000000000005,-26.822926245441096
-0.26769999999999994,-27.00683871442355
-0.26870000000000005,-27.134162731411404
-0.26969999999999994,-27.34636942639116
-0.27070000000000005,-27.572723234369565
-0.27169999999999994,-27.912253946337174
-0.27270000000000005,-28.308373110299385
-0.27369999999999994,-28.704492274261593
-0.27470000000000006,-29.14305277721976
-0.27569999999999995,-29.482583489187363
-0.27670000000000006,-29.836261314153624
-0.27769999999999995,-30.10505646112798
-0.27870000000000006,-30.317263156107735
-0.27969999999999995,-30.529469851087494
-0.28070000000000006,-30.71338232006995
-0.28169999999999995,-31.052913032037555
-0.28270000000000006,-31.36414951800786
-0.28369999999999995,-31.802710020966025
-0.28470000000000006,-32.24127052392419
-0.28569999999999995,-32.70812525287965
-0.28670000000000007,-33.231568433829715
-0.28769999999999996,-33.627687597791926
-0.28870000000000007,-34.02380676175414
-0.28969999999999996,-34.377484586720385
-0.29070000000000007,-34.67457395969205
-0.29169999999999996,-34.98581044566235
-0.29270000000000007,-35.282899818634014
-0.29369999999999996,-35.636577643600276
-0.2947000000000001,-36.11757948555439
-0.29569999999999996,-36.5985813275085
-0.2967000000000001,-37.122024508458566
-0.29769999999999996,-37.645467689408626
-0.2987000000000001,-38.16891087035869
-0.29969999999999997,-38.692354051308754
-0.3007000000000001,-39.130914554266916
-0.30169999999999997,-39.51288660523048
-0.3027000000000001,-39.95144710818864
-0.30369999999999997,-40.26268359415894
-0.3047000000000001,-40.743685436113054
-0.30569999999999997,-41.22468727806717
-0.3067000000000001,-41.79057179801318
-0.3077,-42.483780334947056
-0.3087000000000001,-43.134547532884966
-0.3097,-43.84190318281749
-0.3107000000000001,-44.4926703807554
-0.3117,-45.10099623969737
-0.3127000000000001,-45.581998081651484
-0.3137,-46.062999923605595
-0.3147000000000001,-46.501560426563756
-0.3157,-46.88353247752732
-0.3167000000000001,-47.40697565847737
-0.3177,-47.8879775004315
-0.3187000000000001,-48.51045047237211
-0.3197,-49.16121767031002
-0.3207000000000001,-49.85442620724389
-0.3217,-50.60422319617236
-0.3227000000000001,-51.21254905511432
-0.3237,-51.86331625305225
-0.3247000000000001,-52.471642111994214
-0.3257,-52.995085292944275
-0.3267000000000001,-53.56096981289029
-0.3277,-54.08441299384035
-0.3287000000000001,-54.69273885278232
-0.3297,-55.357653163718886
-0.3307000000000001,-56.093303039648696
-0.3317,-56.82895291557852
-0.3327000000000001,-57.62119124350295
-0.3337,-58.35684111943277
-0.3347000000000001,-59.10663810836124
-0.3357,-59.757405306299155
-0.3367000000000001,-60.36573116524111
-0.3377,-60.974057024183075
-0.3387000000000001,-61.53994154412909
-0.3397,-62.20485585506566
-0.3407000000000001,-62.855623053003576
-0.3417,-63.633714267929356
-0.3427000000000001,-64.46839393484973
-0.3437,-65.3030736017701
-0.3447000000000001,-66.16604749468777
-0.3457,-67.00072716160814
-0.3467000000000001,-67.82125971552985
-0.3477,-68.57105670445833
-0.3487000000000001,-69.26426524139221
-0.3497,-69.95747377832606
-0.3507000000000001,-70.62238808926263
-0.3517,-71.35803796519245
-0.3527000000000001,-72.15027629311687
-0.3537,-72.97080884703858
-0.3547000000000001,-73.89037119195086
-0.3557,-74.8523748758591
-0.35670000000000013,-75.81437855976732
-0.3577,-76.67735245268499
-0.35870000000000013,-77.59691479759726
-0.3597,-78.38915312552167
-0.36070000000000013,-79.16724434044745
-0.3617,-80.00192400736783
-0.3626999999999999,-80.73757388329766
-0.3637,-81.65713622820991
-0.3646999999999999,-82.52011012112759
-0.3657,-83.52455514403178
-0.3666999999999999,-84.52900016693594
-0.3677,-85.57588652883607
-0.3686999999999999,-86.58033155174023
-0.36970000000000003,-87.62721791364037
-0.3706999999999999,-88.54678025855264
-0.37170000000000003,-89.46634260346492
-0.3726999999999999,-90.37175783537855
-0.37370000000000003,-91.29132018029082
-0.3746999999999999,-92.29576520319499
-0.37570000000000003,-93.34265156509512
-0.3766999999999999,-94.47442060498715
-0.37770000000000004,-95.64863098387512
-0.3786999999999999,-96.79454713676581
-0.37970000000000004,-97.96875751565379
-0.3806999999999999,-99.05808521654988
-0.38170000000000004,-100.14741291744595
-0.38269999999999993,-101.10941660135417
-0.38370000000000004,-102.07142028526239
-0.38469999999999993,-102.97683551717601
-0.38570000000000004,-103.85395652309235
-0.38669999999999993,-103.33051334214227
-0.38570000000000004,-100.45864940341626
-0.38469999999999993,-98.18096421063355
-0.38370000000000004,-96.21451550382113
-0.38269999999999993,-94.47442060498715
-0.38170000000000004,-92.98897374012887
-0.3806999999999999,-91.46108553627462
-0.37970000000000004,-90.07466846240689
-0.3786999999999999,-88.63166293654454
-0.37770000000000004,-87.18865741068221
-0.3766999999999999,-85.84468167581042
-0.37570000000000003,-84.48655882793999
-0.3746999999999999,-83.26990711005605
-0.37370000000000003,-82.09569673116808
-0.3726999999999999,-80.99222191727335
-0.37170000000000003,-79.94533555537322
-0.3706999999999999,-78.91259630647174
-0.36970000000000003,-77.86570994457162
-0.3686999999999999,-76.7622351306769
-0.3677,-75.63046609078486
-0.3666999999999999,-74.49869705089283
-0.3657,-73.32448667200485
-0.3646999999999999,-72.15027629311687
-0.3637,-71.06094859222078
-0.3626999999999999,-70.01406223032066
-0.3617,-69.0096172074165
-0.36070000000000013,-68.13249620150016
-0.3597,-67.21293385658788
-0.35870000000000013,-66.34995996367022
-0.3577,-65.43039761875795
-0.35670000000000013,-64.42595259585376
-0.3557,-63.37906623395363
-0.3547000000000001,-62.28973853305756
-0.3537,-61.15796949316553
-0.3527000000000001,-60.02620045327351
-0.3517,-59.02175543036933
-0.3507000000000001,-57.93242772947325
-0.3497,-57.012865384560975
-0.3487000000000001,-56.093303039648696
-0.3477,-55.21618203373238
-0.3467000000000001,-54.43809081880661
-0.3457,-53.476087134898386
-0.3447000000000001,-52.55652478998611
-0.3437,-51.55207976708194
-0.3427000000000001,-50.547634744177756
-0.3417,-49.557336834272235
-0.3407000000000001,-48.55289181136806
-0.3397,-47.633329466455784
-0.3387000000000001,-46.713767121543505
-0.3377,-45.93567590661774
-0.3367000000000001,-45.143437578693316
-0.3357,-44.4077877027635
-0.3347000000000001,-43.61554937483908
-0.3337,-42.837458159913304
-0.3327000000000001,-41.96033715399699
-0.3317,-41.083216148080666
-0.3307000000000001,-40.177800916167044
-0.3297,-39.258238571254765
-0.3287000000000001,-38.33867622634249
-0.3277,-37.51814367242077
-0.3267000000000001,-36.725905344496354
-0.3257,-36.07513814655844
-0.3247000000000001,-35.42437094862052
-0.3237,-34.75945663768395
-0.3227000000000001,-34.06624810075008
-0.3217,-33.373039563816214
-0.3207000000000001,-32.58080123589179
-0.3197,-31.76026868197007
-0.3187000000000001,-30.925589015049702
-0.3177,-30.10505646112798
-0.3167000000000001,-29.35525947219951
-0.3157,-28.577168257273744
-0.3147000000000001,-28.011283737327723
-0.3137,-27.38881076538711
-0.3127000000000001,-26.780484906445146
-0.3117,-26.257041725495082
-0.3107000000000001,-25.648715866553115
-0.3097,-24.997948668615198
-0.3087000000000001,-24.24815167968673
-0.3077,-23.51250180375691
-0.3067000000000001,-22.776851927827092
-0.30569999999999997,-21.94217226090672
-0.3047000000000001,-21.248963723972853
-0.30369999999999997,-20.584049413036283
-0.3027000000000001,-20.01816489309027
-0.30169999999999997,-19.49472171214021
-0.3007000000000001,-19.01371987018609
-0.29969999999999997,-18.44783535024008
-0.2987000000000001,-17.924392169290012
-0.29769999999999996,-17.316066310348052
-0.2967000000000001,-16.665299112410132
-0.29569999999999996,-16.014531914472215
-0.2947000000000001,-15.307176264539699
-0.29369999999999996,-14.69885040559773
-0.29270000000000007,-14.090524546655764
-0.29169999999999996,-13.610937416001518
-0.29070000000000007,-13.13135028534727
-0.28969999999999996,-12.694204493688973
-0.28870000000000007,-12.346185513922174
-0.28769999999999996,-11.86659838326793
-0.28670000000000007,-11.385596541313816
-0.28569999999999995,-10.819712021367803
-0.28470000000000006,-10.25241279012192
-0.28369999999999995,-9.641257508580225
-0.28270000000000006,-9.031516938338395
-0.28169999999999995,-8.508073757388331
-0.28070000000000006,-7.984630576438266
-0.27969999999999995,-7.591340835075788
-0.27870000000000006,-7.199465805013171
-0.27769999999999995,-6.893888164242324
-0.27670000000000006,-6.588310523471475
-0.27569999999999995,-6.152579443113044
-0.27470000000000006,-5.759289701750564
-0.27369999999999994,-5.235846520800501
-0.27270000000000005,-4.756259390146253
-0.27169999999999994,-4.23281620919619
-0.27070000000000005,-3.6655169779503103
-0.26969999999999994,-3.2297858975918787
-0.26870000000000005,-2.794054817233447
