July 10, 2024   20:29:18
Cyclic Voltammetry
File: c:/users/guazh/data/20240709_batch67/2024-07-10-exp4\exp4-2024-07-10t20_08_30-h2koh\exp4_cv_sr_700mvs_efin_-1800mv.bin
Data Source:  Experiment
Instrument Model:  CHI760E
Header: CV ran at 700 mVs
Note: 

Init E (V) = -1
High E (V) = -1
Low E (V) = -1.8
Final E (V) = -1
Init P/N = N
Scan Rate (V/s) = 0.7
Segment = 3
Sample Interval (V) = 0.001
Quiet Time (sec) = 2
Sensitivity (A/V) = 0.01
Comp R (ohm) = 1.6

Results:

Channel 1:
Segment 1:

Segment 2:

Segment 3:

Potential/V, Current/A

-1.000, 1.249e-5
-1.001, 2.174e-5
-1.002, 2.482e-5
-1.003, 2.790e-5
-1.004, 2.790e-5
-1.005, 3.099e-5
-1.006, 3.407e-5
-1.007, 3.407e-5
-1.008, 3.407e-5
-1.009, 3.407e-5
-1.010, 3.715e-5
-1.011, 3.407e-5
-1.012, 3.099e-5
-1.013, 3.099e-5
-1.014, 3.099e-5
-1.015, 3.407e-5
-1.016, 3.407e-5
-1.017, 3.407e-5
-1.018, 3.715e-5
-1.019, 4.024e-5
-1.020, 4.024e-5
-1.021, 4.024e-5
-1.022, 4.024e-5
-1.023, 3.715e-5
-1.024, 3.407e-5
-1.025, 3.407e-5
-1.026, 3.407e-5
-1.027, 3.715e-5
-1.028, 3.715e-5
-1.029, 4.024e-5
-1.030, 4.024e-5
-1.031, 4.024e-5
-1.032, 4.332e-5
-1.033, 4.024e-5
-1.034, 4.024e-5
-1.035, 3.715e-5
-1.036, 3.715e-5
-1.037, 3.715e-5
-1.038, 4.024e-5
-1.039, 4.024e-5
-1.040, 4.332e-5
-1.041, 4.332e-5
-1.042, 4.332e-5
-1.043, 4.640e-5
-1.044, 4.332e-5
-1.045, 4.640e-5
-1.046, 4.332e-5
-1.047, 4.024e-5
-1.048, 4.024e-5
-1.049, 3.715e-5
-1.050, 4.332e-5
-1.051, 4.024e-5
-1.052, 4.332e-5
-1.053, 4.640e-5
-1.054, 4.640e-5
-1.055, 4.949e-5
-1.056, 4.640e-5
-1.057, 4.640e-5
-1.058, 4.332e-5
-1.059, 4.332e-5
-1.060, 4.024e-5
-1.061, 4.332e-5
-1.062, 4.332e-5
-1.063, 4.640e-5
-1.064, 4.640e-5
-1.065, 4.640e-5
-1.066, 4.949e-5
-1.067, 4.949e-5
-1.068, 4.949e-5
-1.069, 4.640e-5
-1.070, 4.640e-5
-1.071, 4.332e-5
-1.072, 4.332e-5
-1.073, 4.640e-5
-1.074, 4.640e-5
-1.075, 4.949e-5
-1.076, 4.949e-5
-1.077, 5.257e-5
-1.078, 5.257e-5
-1.079, 5.257e-5
-1.080, 5.257e-5
-1.081, 4.949e-5
-1.082, 4.640e-5
-1.083, 4.640e-5
-1.084, 4.640e-5
-1.085, 4.640e-5
-1.086, 4.640e-5
-1.087, 4.949e-5
-1.088, 5.257e-5
-1.089, 5.257e-5
-1.090, 5.565e-5
-1.091, 5.257e-5
-1.092, 5.257e-5
-1.093, 5.257e-5
-1.094, 4.949e-5
-1.095, 4.640e-5
-1.096, 4.640e-5
-1.097, 4.949e-5
-1.098, 5.257e-5
-1.099, 5.257e-5
-1.100, 5.257e-5
-1.101, 5.565e-5
-1.102, 5.565e-5
-1.103, 5.565e-5
-1.104, 5.257e-5
-1.105, 4.949e-5
-1.106, 4.949e-5
-1.107, 4.949e-5
-1.108, 5.257e-5
-1.109, 4.949e-5
-1.110, 5.565e-5
-1.111, 5.565e-5
-1.112, 5.565e-5
-1.113, 5.873e-5
-1.114, 5.565e-5
-1.115, 5.873e-5
-1.116, 5.257e-5
-1.117, 5.257e-5
-1.118, 5.257e-5
-1.119, 4.949e-5
-1.120, 5.257e-5
-1.121, 5.257e-5
-1.122, 5.565e-5
-1.123, 5.565e-5
-1.124, 5.873e-5
-1.125, 6.182e-5
-1.126, 5.873e-5
-1.127, 5.873e-5
-1.128, 5.565e-5
-1.129, 5.565e-5
-1.130, 5.257e-5
-1.131, 5.257e-5
-1.132, 5.565e-5
-1.133, 5.565e-5
-1.134, 5.873e-5
-1.135, 5.873e-5
-1.136, 5.873e-5
-1.137, 6.182e-5
-1.138, 6.182e-5
-1.139, 5.873e-5
-1.140, 5.565e-5
-1.141, 5.565e-5
-1.142, 5.565e-5
-1.143, 5.565e-5
-1.144, 5.565e-5
-1.145, 6.182e-5
-1.146, 6.182e-5
-1.147, 6.182e-5
-1.148, 6.490e-5
-1.149, 6.182e-5
-1.150, 6.182e-5
-1.151, 6.182e-5
-1.152, 5.873e-5
-1.153, 5.565e-5
-1.154, 5.565e-5
-1.155, 5.873e-5
-1.156, 5.873e-5
-1.157, 6.182e-5
-1.158, 6.182e-5
-1.159, 6.490e-5
-1.160, 6.798e-5
-1.161, 6.490e-5
-1.162, 6.490e-5
-1.163, 6.182e-5
-1.164, 6.182e-5
-1.165, 5.873e-5
-1.166, 5.873e-5
-1.167, 6.182e-5
-1.168, 6.182e-5
-1.169, 6.490e-5
-1.170, 6.182e-5
-1.171, 6.490e-5
-1.172, 6.798e-5
-1.173, 6.798e-5
-1.174, 6.182e-5
-1.175, 6.182e-5
-1.176, 6.182e-5
-1.177, 6.182e-5
-1.178, 6.182e-5
-1.179, 6.182e-5
-1.180, 6.490e-5
-1.181, 6.798e-5
-1.182, 6.798e-5
-1.183, 7.107e-5
-1.184, 6.798e-5
-1.185, 6.798e-5
-1.186, 6.490e-5
-1.187, 6.182e-5
-1.188, 6.182e-5
-1.189, 6.182e-5
-1.190, 6.182e-5
-1.191, 6.182e-5
-1.192, 6.490e-5
-1.193, 6.798e-5
-1.194, 6.798e-5
-1.195, 7.107e-5
-1.196, 7.107e-5
-1.197, 6.798e-5
-1.198, 6.490e-5
-1.199, 6.490e-5
-1.200, 6.490e-5
-1.201, 6.182e-5
-1.202, 6.490e-5
-1.203, 6.490e-5
-1.204, 6.798e-5
-1.205, 6.798e-5
-1.206, 7.107e-5
-1.207, 7.107e-5
-1.208, 7.107e-5
-1.209, 6.798e-5
-1.210, 6.490e-5
-1.211, 6.490e-5
-1.212, 6.490e-5
-1.213, 6.490e-5
-1.214, 6.490e-5
-1.215, 6.798e-5
-1.216, 7.107e-5
-1.217, 7.107e-5
-1.218, 7.723e-5
-1.219, 7.107e-5
-1.220, 7.415e-5
-1.221, 6.798e-5
-1.222, 6.798e-5
-1.223, 6.798e-5
-1.224, 6.490e-5
-1.225, 6.798e-5
-1.226, 6.798e-5
-1.227, 6.798e-5
-1.228, 7.107e-5
-1.229, 7.415e-5
-1.230, 7.723e-5
-1.231, 7.415e-5
-1.232, 7.415e-5
-1.233, 7.107e-5
-1.234, 6.798e-5
-1.235, 6.798e-5
-1.236, 6.798e-5
-1.237, 7.107e-5
-1.238, 7.107e-5
-1.239, 7.415e-5
-1.240, 7.107e-5
-1.241, 7.415e-5
-1.242, 7.723e-5
-1.243, 7.415e-5
-1.244, 7.107e-5
-1.245, 7.107e-5
-1.246, 6.798e-5
-1.247, 6.798e-5
-1.248, 7.107e-5
-1.249, 7.107e-5
-1.250, 7.415e-5
-1.251, 7.415e-5
-1.252, 7.723e-5
-1.253, 8.032e-5
-1.254, 7.723e-5
-1.255, 7.723e-5
-1.256, 7.107e-5
-1.257, 7.107e-5
-1.258, 7.107e-5
-1.259, 6.798e-5
-1.260, 7.107e-5
-1.261, 7.107e-5
-1.262, 7.415e-5
-1.263, 7.415e-5
-1.264, 7.723e-5
-1.265, 8.032e-5
-1.266, 7.723e-5
-1.267, 7.723e-5
-1.268, 7.415e-5
-1.269, 7.415e-5
-1.270, 7.107e-5
-1.271, 7.107e-5
-1.272, 7.415e-5
-1.273, 7.415e-5
-1.274, 7.723e-5
-1.275, 7.723e-5
-1.276, 7.723e-5
-1.277, 8.032e-5
-1.278, 7.723e-5
-1.279, 7.415e-5
-1.280, 7.415e-5
-1.281, 7.415e-5
-1.282, 7.107e-5
-1.283, 7.415e-5
-1.284, 7.415e-5
-1.285, 7.415e-5
-1.286, 7.723e-5
-1.287, 7.723e-5
-1.288, 8.032e-5
-1.289, 8.032e-5
-1.290, 8.032e-5
-1.291, 7.723e-5
-1.292, 7.415e-5
-1.293, 7.415e-5
-1.294, 7.107e-5
-1.295, 7.415e-5
-1.296, 7.415e-5
-1.297, 7.415e-5
-1.298, 7.723e-5
-1.299, 8.032e-5
-1.300, 8.340e-5
-1.301, 8.032e-5
-1.302, 8.032e-5
-1.303, 7.723e-5
-1.304, 7.415e-5
-1.305, 7.415e-5
-1.306, 7.107e-5
-1.307, 7.723e-5
-1.308, 7.415e-5
-1.309, 8.032e-5
-1.310, 7.723e-5
-1.311, 8.032e-5
-1.312, 8.032e-5
-1.313, 8.032e-5
-1.314, 7.723e-5
-1.315, 7.415e-5
-1.316, 7.415e-5
-1.317, 7.415e-5
-1.318, 7.723e-5
-1.319, 7.723e-5
-1.320, 8.032e-5
-1.321, 8.032e-5
-1.322, 8.032e-5
-1.323, 8.340e-5
-1.324, 8.032e-5
-1.325, 8.032e-5
-1.326, 7.723e-5
-1.327, 7.415e-5
-1.328, 7.723e-5
-1.329, 7.415e-5
-1.330, 7.723e-5
-1.331, 7.415e-5
-1.332, 7.723e-5
-1.333, 8.032e-5
-1.334, 8.340e-5
-1.335, 8.648e-5
-1.336, 8.340e-5
-1.337, 8.340e-5
-1.338, 8.032e-5
-1.339, 7.723e-5
-1.340, 7.723e-5
-1.341, 7.415e-5
-1.342, 8.032e-5
-1.343, 7.723e-5
-1.344, 8.032e-5
-1.345, 8.340e-5
-1.346, 8.340e-5
-1.347, 8.340e-5
-1.348, 8.340e-5
-1.349, 8.032e-5
-1.350, 7.723e-5
-1.351, 7.723e-5
-1.352, 7.723e-5
-1.353, 8.032e-5
-1.354, 7.723e-5
-1.355, 8.032e-5
-1.356, 8.340e-5
-1.357, 8.340e-5
-1.358, 8.648e-5
-1.359, 8.340e-5
-1.360, 8.340e-5
-1.361, 8.032e-5
-1.362, 8.032e-5
-1.363, 7.723e-5
-1.364, 7.723e-5
-1.365, 8.032e-5
-1.366, 7.723e-5
-1.367, 8.032e-5
-1.368, 8.340e-5
-1.369, 8.648e-5
-1.370, 8.648e-5
-1.371, 8.648e-5
-1.372, 8.340e-5
-1.373, 8.032e-5
-1.374, 8.032e-5
-1.375, 8.032e-5
-1.376, 7.723e-5
-1.377, 8.032e-5
-1.378, 8.032e-5
-1.379, 8.340e-5
-1.380, 8.648e-5
-1.381, 8.648e-5
-1.382, 8.648e-5
-1.383, 8.648e-5
-1.384, 8.340e-5
-1.385, 8.032e-5
-1.386, 8.032e-5
-1.387, 8.032e-5
-1.388, 8.340e-5
-1.389, 8.032e-5
-1.390, 8.340e-5
-1.391, 8.648e-5
-1.392, 8.648e-5
-1.393, 8.957e-5
-1.394, 8.648e-5
-1.395, 8.648e-5
-1.396, 8.340e-5
-1.397, 8.032e-5
-1.398, 8.032e-5
-1.399, 8.032e-5
-1.400, 8.340e-5
-1.401, 8.032e-5
-1.402, 8.340e-5
-1.403, 8.648e-5
-1.404, 8.957e-5
-1.405, 8.957e-5
-1.406, 8.648e-5
-1.407, 8.957e-5
-1.408, 8.340e-5
-1.409, 8.340e-5
-1.410, 8.340e-5
-1.411, 8.340e-5
-1.412, 8.340e-5
-1.413, 8.340e-5
-1.414, 8.648e-5
-1.415, 8.648e-5
-1.416, 8.957e-5
-1.417, 8.957e-5
-1.418, 8.648e-5
-1.419, 8.340e-5
-1.420, 8.340e-5
-1.421, 8.032e-5
-1.422, 8.340e-5
-1.423, 8.648e-5
-1.424, 8.340e-5
-1.425, 8.648e-5
-1.426, 8.957e-5
-1.427, 8.957e-5
-1.428, 9.265e-5
-1.429, 8.957e-5
-1.430, 8.957e-5
-1.431, 8.648e-5
-1.432, 8.340e-5
-1.433, 8.648e-5
-1.434, 8.340e-5
-1.435, 8.648e-5
-1.436, 8.340e-5
-1.437, 8.648e-5
-1.438, 8.957e-5
-1.439, 9.265e-5
-1.440, 9.265e-5
-1.441, 9.265e-5
-1.442, 9.265e-5
-1.443, 8.648e-5
-1.444, 8.648e-5
-1.445, 8.648e-5
-1.446, 8.648e-5
-1.447, 8.648e-5
-1.448, 8.648e-5
-1.449, 9.265e-5
-1.450, 9.265e-5
-1.451, 9.265e-5
-1.452, 9.265e-5
-1.453, 9.265e-5
-1.454, 9.265e-5
-1.455, 8.957e-5
-1.456, 8.957e-5
-1.457, 8.648e-5
-1.458, 9.265e-5
-1.459, 8.957e-5
-1.460, 9.265e-5
-1.461, 9.265e-5
-1.462, 9.573e-5
-1.463, 9.882e-5
-1.464, 9.882e-5
-1.465, 9.573e-5
-1.466, 9.573e-5
-1.467, 9.265e-5
-1.468, 9.265e-5
-1.469, 9.265e-5
-1.470, 9.265e-5
-1.471, 9.265e-5
-1.472, 9.573e-5
-1.473, 9.882e-5
-1.474, 1.019e-4
-1.475, 1.050e-4
-1.476, 1.019e-4
-1.477, 1.050e-4
-1.478, 1.019e-4
-1.479, 9.882e-5
-1.480, 1.019e-4
-1.481, 9.882e-5
-1.482, 1.019e-4
-1.483, 1.019e-4
-1.484, 1.081e-4
-1.485, 1.081e-4
-1.486, 1.111e-4
-1.487, 1.111e-4
-1.488, 1.111e-4
-1.489, 1.111e-4
-1.490, 1.081e-4
-1.491, 1.081e-4
-1.492, 1.111e-4
-1.493, 1.142e-4
-1.494, 1.111e-4
-1.495, 1.173e-4
-1.496, 1.204e-4
-1.497, 1.235e-4
-1.498, 1.266e-4
-1.499, 1.266e-4
-1.500, 1.296e-4
-1.501, 1.266e-4
-1.502, 1.266e-4
-1.503, 1.266e-4
-1.504, 1.266e-4
-1.505, 1.296e-4
-1.506, 1.296e-4
-1.507, 1.358e-4
-1.508, 1.389e-4
-1.509, 1.451e-4
-1.510, 1.481e-4
-1.511, 1.481e-4
-1.512, 1.512e-4
-1.513, 1.512e-4
-1.514, 1.512e-4
-1.515, 1.543e-4
-1.516, 1.543e-4
-1.517, 1.574e-4
-1.518, 1.636e-4
-1.519, 1.666e-4
-1.520, 1.697e-4
-1.521, 1.759e-4
-1.522, 1.790e-4
-1.523, 1.790e-4
-1.524, 1.790e-4
-1.525, 1.821e-4
-1.526, 1.821e-4
-1.527, 1.882e-4
-1.528, 1.913e-4
-1.529, 1.944e-4
-1.530, 2.006e-4
-1.531, 2.036e-4
-1.532, 2.129e-4
-1.533, 2.191e-4
-1.534, 2.191e-4
-1.535, 2.221e-4
-1.536, 2.221e-4
-1.537, 2.252e-4
-1.538, 2.283e-4
-1.539, 2.314e-4
-1.540, 2.376e-4
-1.541, 2.406e-4
-1.542, 2.468e-4
-1.543, 2.561e-4
-1.544, 2.622e-4
-1.545, 2.684e-4
-1.546, 2.715e-4
-1.547, 2.776e-4
-1.548, 2.776e-4
-1.549, 2.838e-4
-1.550, 2.869e-4
-1.551, 2.900e-4
-1.552, 2.961e-4
-1.553, 3.023e-4
-1.554, 3.115e-4
-1.555, 3.177e-4
-1.556, 3.239e-4
-1.557, 3.300e-4
-1.558, 3.362e-4
-1.559, 3.393e-4
-1.560, 3.455e-4
-1.561, 3.485e-4
-1.562, 3.547e-4
-1.563, 3.609e-4
-1.564, 3.670e-4
-1.565, 3.763e-4
-1.566, 3.855e-4
-1.567, 3.948e-4
-1.568, 4.040e-4
-1.569, 4.102e-4
-1.570, 4.164e-4
-1.571, 4.195e-4
-1.572, 4.256e-4
-1.573, 4.318e-4
-1.574, 4.380e-4
-1.575, 4.472e-4
-1.576, 4.503e-4
-1.577, 4.626e-4
-1.578, 4.750e-4
-1.579, 4.842e-4
-1.580, 4.965e-4
-1.581, 5.027e-4
-1.582, 5.120e-4
-1.583, 5.181e-4
-1.584, 5.243e-4
-1.585, 5.335e-4
-1.586, 5.397e-4
-1.587, 5.489e-4
-1.588, 5.582e-4
-1.589, 5.705e-4
-1.590, 5.829e-4
-1.591, 5.952e-4
-1.592, 6.075e-4
-1.593, 6.168e-4
-1.594, 6.229e-4
-1.595, 6.322e-4
-1.596, 6.445e-4
-1.597, 6.507e-4
-1.598, 6.630e-4
-1.599, 6.692e-4
-1.600, 6.846e-4
-1.601, 7.000e-4
-1.602, 7.124e-4
-1.603, 7.278e-4
-1.604, 7.401e-4
-1.605, 7.494e-4
-1.606, 7.586e-4
-1.607, 7.679e-4
-1.608, 7.802e-4
-1.609, 7.894e-4
-1.610, 8.018e-4
-1.611, 8.110e-4
-1.612, 8.295e-4
-1.613, 8.449e-4
-1.614, 8.603e-4
-1.615, 8.788e-4
-1.616, 8.881e-4
-1.617, 9.035e-4
-1.618, 9.158e-4
-1.619, 9.282e-4
-1.620, 9.374e-4
-1.621, 9.498e-4
-1.622, 9.621e-4
-1.623, 9.775e-4
-1.624, 9.960e-4
-1.625, 1.011e-3
-1.626, 1.027e-3
-1.627, 1.045e-3
-1.628, 1.058e-3
-1.629, 1.070e-3
-1.630, 1.085e-3
-1.631, 1.098e-3
-1.632, 1.110e-3
-1.633, 1.125e-3
-1.634, 1.135e-3
-1.635, 1.156e-3
-1.636, 1.172e-3
-1.637, 1.190e-3
-1.638, 1.212e-3
-1.639, 1.227e-3
-1.640, 1.243e-3
-1.641, 1.255e-3
-1.642, 1.270e-3
-1.643, 1.283e-3
-1.644, 1.295e-3
-1.645, 1.310e-3
-1.646, 1.326e-3
-1.647, 1.344e-3
-1.648, 1.366e-3
-1.649, 1.384e-3
-1.650, 1.406e-3
-1.651, 1.421e-3
-1.652, 1.437e-3
-1.653, 1.449e-3
-1.654, 1.465e-3
-1.655, 1.477e-3
-1.656, 1.489e-3
-1.657, 1.508e-3
-1.658, 1.523e-3
-1.659, 1.545e-3
-1.660, 1.563e-3
-1.661, 1.582e-3
-1.662, 1.600e-3
-1.663, 1.619e-3
-1.664, 1.634e-3
-1.665, 1.650e-3
-1.666, 1.662e-3
-1.667, 1.677e-3
-1.668, 1.693e-3
-1.669, 1.708e-3
-1.670, 1.727e-3
-1.671, 1.745e-3
-1.672, 1.767e-3
-1.673, 1.788e-3
-1.674, 1.804e-3
-1.675, 1.822e-3
-1.676, 1.838e-3
-1.677, 1.850e-3
-1.678, 1.865e-3
-1.679, 1.878e-3
-1.680, 1.893e-3
-1.681, 1.909e-3
-1.682, 1.930e-3
-1.683, 1.949e-3
-1.684, 1.970e-3
-1.685, 1.995e-3
-1.686, 2.007e-3
-1.687, 2.026e-3
-1.688, 2.041e-3
-1.689, 2.057e-3
-1.690, 2.072e-3
-1.691, 2.081e-3
-1.692, 2.100e-3
-1.693, 2.118e-3
-1.694, 2.140e-3
-1.695, 2.158e-3
-1.696, 2.180e-3
-1.697, 2.198e-3
-1.698, 2.217e-3
-1.699, 2.232e-3
-1.700, 2.251e-3
-1.701, 2.263e-3
-1.702, 2.279e-3
-1.703, 2.297e-3
-1.704, 2.312e-3
-1.705, 2.334e-3
-1.706, 2.356e-3
-1.707, 2.377e-3
-1.708, 2.402e-3
-1.709, 2.420e-3
-1.710, 2.442e-3
-1.711, 2.457e-3
-1.712, 2.476e-3
-1.713, 2.491e-3
-1.714, 2.507e-3
-1.715, 2.525e-3
-1.716, 2.544e-3
-1.717, 2.568e-3
-1.718, 2.593e-3
-1.719, 2.615e-3
-1.720, 2.639e-3
-1.721, 2.661e-3
-1.722, 2.682e-3
-1.723, 2.701e-3
-1.724, 2.719e-3
-1.725, 2.735e-3
-1.726, 2.750e-3
-1.727, 2.775e-3
-1.728, 2.793e-3
-1.729, 2.818e-3
-1.730, 2.843e-3
-1.731, 2.867e-3
-1.732, 2.892e-3
-1.733, 2.917e-3
-1.734, 2.938e-3
-1.735, 2.960e-3
-1.736, 2.978e-3
-1.737, 3.000e-3
-1.738, 3.022e-3
-1.739, 3.040e-3
-1.740, 3.068e-3
-1.741, 3.096e-3
-1.742, 3.123e-3
-1.743, 3.151e-3
-1.744, 3.176e-3
-1.745, 3.204e-3
-1.746, 3.228e-3
-1.747, 3.250e-3
-1.748, 3.271e-3
-1.749, 3.293e-3
-1.750, 3.321e-3
-1.751, 3.345e-3
-1.752, 3.376e-3
-1.753, 3.407e-3
-1.754, 3.438e-3
-1.755, 3.469e-3
-1.756, 3.499e-3
-1.757, 3.527e-3
-1.758, 3.555e-3
-1.759, 3.586e-3
-1.760, 3.610e-3
-1.761, 3.635e-3
-1.762, 3.666e-3
-1.763, 3.697e-3
-1.764, 3.731e-3
-1.765, 3.768e-3
-1.766, 3.802e-3
-1.767, 3.839e-3
-1.768, 3.873e-3
-1.769, 3.903e-3
-1.770, 3.934e-3
-1.771, 3.965e-3
-1.772, 3.996e-3
-1.773, 4.027e-3
-1.774, 4.058e-3
-1.775, 4.098e-3
-1.776, 4.135e-3
-1.777, 4.175e-3
-1.778, 4.218e-3
-1.779, 4.255e-3
-1.780, 4.295e-3
-1.781, 4.329e-3
-1.782, 4.363e-3
-1.783, 4.397e-3
-1.784, 4.428e-3
-1.785, 4.468e-3
-1.786, 4.505e-3
-1.787, 4.548e-3
-1.788, 4.591e-3
-1.789, 4.634e-3
-1.790, 4.683e-3
-1.791, 4.723e-3
-1.792, 4.770e-3
-1.793, 4.810e-3
-1.794, 4.850e-3
-1.795, 4.887e-3
-1.796, 4.924e-3
-1.797, 4.970e-3
-1.798, 5.013e-3
-1.799, 5.060e-3
-1.800, 5.050e-3
-1.799, 4.995e-3
-1.798, 4.955e-3
-1.797, 4.918e-3
-1.796, 4.871e-3
-1.795, 4.825e-3
-1.794, 4.779e-3
-1.793, 4.723e-3
-1.792, 4.674e-3
-1.791, 4.622e-3
-1.790, 4.579e-3
-1.789, 4.532e-3
-1.788, 4.486e-3
-1.787, 4.440e-3
-1.786, 4.394e-3
-1.785, 4.347e-3
-1.784, 4.295e-3
-1.783, 4.243e-3
-1.782, 4.193e-3
-1.781, 4.138e-3
-1.780, 4.088e-3
-1.779, 4.039e-3
-1.778, 3.996e-3
-1.777, 3.953e-3
-1.776, 3.906e-3
-1.775, 3.866e-3
-1.774, 3.820e-3
-1.773, 3.777e-3
-1.772, 3.731e-3
-1.771, 3.681e-3
-1.770, 3.635e-3
-1.769, 3.586e-3
-1.768, 3.546e-3
-1.767, 3.503e-3
-1.766, 3.466e-3
-1.765, 3.425e-3
-1.764, 3.388e-3
-1.763, 3.351e-3
-1.762, 3.311e-3
-1.761, 3.271e-3
-1.760, 3.228e-3
-1.759, 3.188e-3
-1.758, 3.148e-3
-1.757, 3.108e-3
-1.756, 3.071e-3
-1.755, 3.037e-3
-1.754, 3.003e-3
-1.753, 2.972e-3
-1.752, 2.941e-3
-1.751, 2.904e-3
-1.750, 2.874e-3
-1.749, 2.837e-3
-1.748, 2.800e-3
-1.747, 2.766e-3
-1.746, 2.729e-3
-1.745, 2.695e-3
-1.744, 2.664e-3
-1.743, 2.636e-3
-1.742, 2.605e-3
-1.741, 2.581e-3
-1.740, 2.553e-3
-1.739, 2.522e-3
-1.738, 2.494e-3
-1.737, 2.460e-3
-1.736, 2.430e-3
-1.735, 2.396e-3
-1.734, 2.362e-3
-1.733, 2.334e-3
-1.732, 2.306e-3
-1.731, 2.285e-3
-1.730, 2.257e-3
-1.729, 2.232e-3
-1.728, 2.208e-3
-1.727, 2.183e-3
-1.726, 2.155e-3
-1.725, 2.124e-3
-1.724, 2.097e-3
-1.723, 2.069e-3
-1.722, 2.044e-3
-1.721, 2.017e-3
-1.720, 1.995e-3
-1.719, 1.973e-3
-1.718, 1.952e-3
-1.717, 1.933e-3
-1.716, 1.909e-3
-1.715, 1.887e-3
-1.714, 1.862e-3
-1.713, 1.835e-3
-1.712, 1.810e-3
-1.711, 1.782e-3
-1.710, 1.761e-3
-1.709, 1.739e-3
-1.708, 1.721e-3
-1.707, 1.702e-3
-1.706, 1.687e-3
-1.705, 1.668e-3
-1.704, 1.647e-3
-1.703, 1.628e-3
-1.702, 1.603e-3
-1.701, 1.582e-3
-1.700, 1.557e-3
-1.699, 1.532e-3
-1.698, 1.517e-3
-1.697, 1.499e-3
-1.696, 1.483e-3
-1.695, 1.465e-3
-1.694, 1.449e-3
-1.693, 1.431e-3
-1.692, 1.415e-3
-1.691, 1.397e-3
-1.690, 1.375e-3
-1.689, 1.354e-3
-1.688, 1.335e-3
-1.687, 1.317e-3
-1.686, 1.298e-3
-1.685, 1.286e-3
-1.684, 1.270e-3
-1.683, 1.258e-3
-1.682, 1.246e-3
-1.681, 1.227e-3
-1.680, 1.215e-3
-1.679, 1.196e-3
-1.678, 1.178e-3
-1.677, 1.159e-3
-1.676, 1.141e-3
-1.675, 1.125e-3
-1.674, 1.113e-3
-1.673, 1.098e-3
-1.672, 1.085e-3
-1.671, 1.076e-3
-1.670, 1.064e-3
-1.669, 1.048e-3
-1.668, 1.036e-3
-1.667, 1.018e-3
-1.666, 1.002e-3
-1.665, 9.868e-4
-1.664, 9.713e-4
-1.663, 9.590e-4
-1.662, 9.467e-4
-1.661, 9.374e-4
-1.660, 9.220e-4
-1.659, 9.128e-4
-1.658, 9.035e-4
-1.657, 8.912e-4
-1.656, 8.758e-4
-1.655, 8.603e-4
-1.654, 8.449e-4
-1.653, 8.295e-4
-1.652, 8.172e-4
-1.651, 8.048e-4
-1.650, 7.987e-4
-1.649, 7.863e-4
-1.648, 7.771e-4
-1.647, 7.709e-4
-1.646, 7.586e-4
-1.645, 7.494e-4
-1.644, 7.339e-4
-1.643, 7.185e-4
-1.642, 7.031e-4
-1.641, 6.908e-4
-1.640, 6.815e-4
-1.639, 6.692e-4
-1.638, 6.630e-4
-1.637, 6.538e-4
-1.636, 6.476e-4
-1.635, 6.384e-4
-1.634, 6.291e-4
-1.633, 6.199e-4
-1.632, 6.044e-4
-1.631, 5.921e-4
-1.630, 5.829e-4
-1.629, 5.674e-4
-1.628, 5.613e-4
-1.627, 5.520e-4
-1.626, 5.459e-4
-1.625, 5.366e-4
-1.624, 5.305e-4
-1.623, 5.212e-4
-1.622, 5.150e-4
-1.621, 5.027e-4
-1.620, 4.904e-4
-1.619, 4.780e-4
-1.618, 4.657e-4
-1.617, 4.595e-4
-1.616, 4.503e-4
-1.615, 4.441e-4
-1.614, 4.349e-4
-1.613, 4.318e-4
-1.612, 4.256e-4
-1.611, 4.164e-4
-1.610, 4.102e-4
-1.609, 3.979e-4
-1.608, 3.855e-4
-1.607, 3.763e-4
-1.606, 3.640e-4
-1.605, 3.578e-4
-1.604, 3.485e-4
-1.603, 3.455e-4
-1.602, 3.393e-4
-1.601, 3.362e-4
-1.600, 3.300e-4
-1.599, 3.208e-4
-1.598, 3.146e-4
-1.597, 3.054e-4
-1.596, 2.931e-4
-1.595, 2.838e-4
-1.594, 2.746e-4
-1.593, 2.684e-4
-1.592, 2.653e-4
-1.591, 2.591e-4
-1.590, 2.530e-4
-1.589, 2.499e-4
-1.588, 2.437e-4
-1.587, 2.376e-4
-1.586, 2.283e-4
-1.585, 2.191e-4
-1.584, 2.129e-4
-1.583, 2.006e-4
-1.582, 1.975e-4
-1.581, 1.913e-4
-1.580, 1.851e-4
-1.579, 1.821e-4
-1.578, 1.790e-4
-1.577, 1.759e-4
-1.576, 1.697e-4
-1.575, 1.636e-4
-1.574, 1.574e-4
-1.573, 1.451e-4
-1.572, 1.389e-4
-1.571, 1.296e-4
-1.570, 1.266e-4
-1.569, 1.204e-4
-1.568, 1.173e-4
-1.567, 1.142e-4
-1.566, 1.142e-4
-1.565, 1.111e-4
-1.564, 1.050e-4
-1.563, 9.882e-5
-1.562, 9.265e-5
-1.561, 8.648e-5
-1.560, 7.723e-5
-1.559, 7.107e-5
-1.558, 6.798e-5
-1.557, 6.490e-5
-1.556, 6.182e-5
-1.555, 6.182e-5
-1.554, 5.873e-5
-1.553, 5.565e-5
-1.552, 4.949e-5
-1.551, 4.332e-5
-1.550, 3.715e-5
-1.549, 3.099e-5
-1.548, 2.482e-5
-1.547, 2.174e-5
-1.546, 1.865e-5
-1.545, 1.557e-5
-1.544, 1.557e-5
-1.543, 1.557e-5
-1.542, 1.557e-5
-1.541, 9.405e-6
-1.540, 6.322e-6
-1.539, 1.559e-7
-1.538, -6.010e-6
-1.537, -9.093e-6
-1.536, -1.834e-5
-1.535, -1.526e-5
-1.534, -2.143e-5
-1.533, -2.143e-5
-1.532, -2.143e-5
-1.531, -2.143e-5
-1.530, -2.143e-5
-1.529, -2.759e-5
-1.528, -2.759e-5
-1.527, -3.376e-5
-1.526, -3.992e-5
-1.525, -4.301e-5
-1.524, -4.609e-5
-1.523, -4.609e-5
-1.522, -4.609e-5
-1.521, -4.917e-5
-1.520, -4.609e-5
-1.519, -4.609e-5
-1.518, -4.917e-5
-1.517, -4.917e-5
-1.516, -5.842e-5
-1.515, -6.151e-5
-1.514, -6.459e-5
-1.513, -6.767e-5
-1.512, -6.767e-5
-1.511, -7.076e-5
-1.510, -6.767e-5
-1.509, -6.767e-5
-1.508, -6.767e-5
-1.507, -6.767e-5
-1.506, -7.076e-5
-1.505, -7.076e-5
-1.504, -7.384e-5
-1.503, -8.000e-5
-1.502, -8.000e-5
-1.501, -8.309e-5
-1.500, -8.309e-5
-1.499, -8.617e-5
-1.498, -8.309e-5
-1.497, -8.309e-5
-1.496, -8.309e-5
-1.495, -8.000e-5
-1.494, -8.309e-5
-1.493, -8.617e-5
-1.492, -8.925e-5
-1.491, -8.925e-5
-1.490, -9.234e-5
-1.489, -9.234e-5
-1.488, -9.234e-5
-1.487, -9.234e-5
-1.486, -9.234e-5
-1.485, -8.925e-5
-1.484, -8.925e-5
-1.483, -9.234e-5
-1.482, -9.234e-5
-1.481, -9.542e-5
-1.480, -9.850e-5
-1.479, -9.542e-5
-1.478, -1.016e-4
-1.477, -9.850e-5
-1.476, -1.016e-4
-1.475, -9.850e-5
-1.474, -9.542e-5
-1.473, -9.542e-5
-1.472, -9.234e-5
-1.471, -9.542e-5
-1.470, -9.542e-5
-1.469, -9.850e-5
-1.468, -1.016e-4
-1.467, -1.016e-4
-1.466, -1.047e-4
-1.465, -1.047e-4
-1.464, -1.047e-4
-1.463, -1.016e-4
-1.462, -1.016e-4
-1.461, -9.850e-5
-1.460, -9.542e-5
-1.459, -9.850e-5
-1.458, -1.016e-4
-1.457, -1.047e-4
-1.456, -1.047e-4
-1.455, -1.047e-4
-1.454, -1.047e-4
-1.453, -1.047e-4
-1.452, -1.016e-4
-1.451, -1.016e-4
-1.450, -9.850e-5
-1.449, -9.850e-5
-1.448, -9.850e-5
-1.447, -9.850e-5
-1.446, -1.016e-4
-1.445, -1.047e-4
-1.444, -1.047e-4
-1.443, -1.078e-4
-1.442, -1.016e-4
-1.441, -1.047e-4
-1.440, -1.016e-4
-1.439, -1.016e-4
-1.438, -9.850e-5
-1.437, -9.542e-5
-1.436, -9.850e-5
-1.435, -9.850e-5
-1.434, -1.016e-4
-1.433, -1.047e-4
-1.432, -1.016e-4
-1.431, -1.047e-4
-1.430, -1.047e-4
-1.429, -1.047e-4
-1.428, -1.016e-4
-1.427, -9.850e-5
-1.426, -9.542e-5
-1.425, -9.542e-5
-1.424, -9.850e-5
-1.423, -9.850e-5
-1.422, -1.016e-4
-1.421, -1.016e-4
-1.420, -1.016e-4
-1.419, -1.016e-4
-1.418, -1.016e-4
-1.417, -9.850e-5
-1.416, -9.542e-5
-1.415, -9.542e-5
-1.414, -9.542e-5
-1.413, -9.542e-5
-1.412, -9.542e-5
-1.411, -9.850e-5
-1.410, -1.016e-4
-1.409, -1.016e-4
-1.408, -1.016e-4
-1.407, -9.850e-5
-1.406, -1.016e-4
-1.405, -9.850e-5
-1.404, -9.542e-5
-1.403, -9.234e-5
-1.402, -8.925e-5
-1.401, -9.542e-5
-1.400, -9.542e-5
-1.399, -9.542e-5
-1.398, -9.850e-5
-1.397, -9.542e-5
-1.396, -1.016e-4
-1.395, -9.850e-5
-1.394, -9.850e-5
-1.393, -9.542e-5
-1.392, -9.234e-5
-1.391, -9.234e-5
-1.390, -9.234e-5
-1.389, -9.234e-5
-1.388, -9.234e-5
-1.387, -9.850e-5
-1.386, -9.542e-5
-1.385, -9.542e-5
-1.384, -9.850e-5
-1.383, -9.850e-5
-1.382, -9.542e-5
-1.381, -9.234e-5
-1.380, -8.925e-5
-1.379, -8.925e-5
-1.378, -9.234e-5
-1.377, -9.234e-5
-1.376, -9.542e-5
-1.375, -9.542e-5
-1.374, -9.542e-5
-1.373, -9.850e-5
-1.372, -9.542e-5
-1.371, -9.542e-5
-1.370, -9.234e-5
-1.369, -8.925e-5
-1.368, -8.925e-5
-1.367, -8.617e-5
-1.366, -8.925e-5
-1.365, -8.925e-5
-1.364, -9.234e-5
-1.363, -9.542e-5
-1.362, -9.234e-5
-1.361, -9.542e-5
-1.360, -9.234e-5
-1.359, -9.542e-5
-1.358, -9.234e-5
-1.357, -8.925e-5
-1.356, -8.925e-5
-1.355, -8.617e-5
-1.354, -8.925e-5
-1.353, -9.234e-5
-1.352, -9.234e-5
-1.351, -9.234e-5
-1.350, -9.234e-5
-1.349, -9.234e-5
-1.348, -9.234e-5
-1.347, -8.925e-5
-1.346, -8.925e-5
-1.345, -8.617e-5
-1.344, -8.617e-5
-1.343, -8.925e-5
-1.342, -8.925e-5
-1.341, -9.234e-5
-1.340, -9.234e-5
-1.339, -9.234e-5
-1.338, -9.542e-5
-1.337, -9.234e-5
-1.336, -9.234e-5
-1.335, -8.925e-5
-1.334, -8.617e-5
-1.333, -8.617e-5
-1.332, -8.309e-5
-1.331, -8.925e-5
-1.330, -8.617e-5
-1.329, -8.925e-5
-1.328, -9.234e-5
-1.327, -9.234e-5
-1.326, -9.234e-5
-1.325, -9.234e-5
-1.324, -9.234e-5
-1.323, -8.925e-5
-1.322, -8.617e-5
-1.321, -8.617e-5
-1.320, -8.309e-5
-1.319, -8.617e-5
-1.318, -8.925e-5
-1.317, -8.925e-5
-1.316, -8.925e-5
-1.315, -8.925e-5
-1.314, -9.234e-5
-1.313, -9.234e-5
-1.312, -8.617e-5
-1.311, -8.617e-5
-1.310, -8.617e-5
-1.309, -8.309e-5
-1.308, -8.617e-5
-1.307, -8.617e-5
-1.306, -8.925e-5
-1.305, -8.925e-5
-1.304, -8.925e-5
-1.303, -9.234e-5
-1.302, -9.234e-5
-1.301, -8.925e-5
-1.300, -8.925e-5
-1.299, -8.617e-5
-1.298, -8.309e-5
-1.297, -8.309e-5
-1.296, -8.617e-5
-1.295, -8.617e-5
-1.294, -8.925e-5
-1.293, -8.925e-5
-1.292, -8.925e-5
-1.291, -9.234e-5
-1.290, -8.925e-5
-1.289, -9.234e-5
-1.288, -8.617e-5
-1.287, -8.617e-5
-1.286, -8.617e-5
-1.285, -8.309e-5
-1.284, -8.617e-5
-1.283, -8.617e-5
-1.282, -8.925e-5
-1.281, -8.925e-5
-1.280, -8.925e-5
-1.279, -9.234e-5
-1.278, -9.234e-5
-1.277, -8.617e-5
-1.276, -8.617e-5
-1.275, -8.309e-5
-1.274, -8.309e-5
-1.273, -8.617e-5
-1.272, -8.617e-5
-1.271, -8.925e-5
-1.270, -8.925e-5
-1.269, -8.925e-5
-1.268, -9.234e-5
-1.267, -9.234e-5
-1.266, -9.234e-5
-1.265, -8.925e-5
-1.264, -8.617e-5
-1.263, -8.617e-5
-1.262, -8.309e-5
-1.261, -8.617e-5
-1.260, -8.617e-5
-1.259, -8.925e-5
-1.258, -8.925e-5
-1.257, -9.234e-5
-1.256, -9.234e-5
-1.255, -9.234e-5
-1.254, -8.925e-5
-1.253, -8.925e-5
-1.252, -8.617e-5
-1.251, -8.617e-5
-1.250, -8.617e-5
-1.249, -8.617e-5
-1.248, -8.617e-5
-1.247, -8.925e-5
-1.246, -8.925e-5
-1.245, -8.925e-5
-1.244, -9.234e-5
-1.243, -9.234e-5
-1.242, -8.925e-5
-1.241, -8.617e-5
-1.240, -8.617e-5
-1.239, -8.309e-5
-1.238, -8.617e-5
-1.237, -8.617e-5
-1.236, -8.925e-5
-1.235, -8.925e-5
-1.234, -8.925e-5
-1.233, -9.542e-5
-1.232, -8.925e-5
-1.231, -9.234e-5
-1.230, -8.925e-5
-1.229, -8.617e-5
-1.228, -8.617e-5
-1.227, -8.617e-5
-1.226, -8.617e-5
-1.225, -8.617e-5
-1.224, -8.617e-5
-1.223, -8.925e-5
-1.222, -9.234e-5
-1.221, -9.542e-5
-1.220, -9.234e-5
-1.219, -9.234e-5
-1.218, -8.617e-5
-1.217, -8.925e-5
-1.216, -8.617e-5
-1.215, -8.617e-5
-1.214, -8.617e-5
-1.213, -8.925e-5
-1.212, -8.925e-5
-1.211, -9.234e-5
-1.210, -9.234e-5
-1.209, -9.234e-5
-1.208, -9.234e-5
-1.207, -8.925e-5
-1.206, -8.617e-5
-1.205, -8.617e-5
-1.204, -8.617e-5
-1.203, -8.925e-5
-1.202, -8.617e-5
-1.201, -8.925e-5
-1.200, -9.234e-5
-1.199, -9.234e-5
-1.198, -9.542e-5
-1.197, -9.234e-5
-1.196, -9.234e-5
-1.195, -8.925e-5
-1.194, -8.617e-5
-1.193, -8.617e-5
-1.192, -8.617e-5
-1.191, -8.617e-5
-1.190, -8.617e-5
-1.189, -8.925e-5
-1.188, -9.234e-5
-1.187, -9.234e-5
-1.186, -9.234e-5
-1.185, -9.234e-5
-1.184, -9.234e-5
-1.183, -8.617e-5
-1.182, -8.925e-5
-1.181, -8.617e-5
-1.180, -8.617e-5
-1.179, -8.617e-5
-1.178, -8.925e-5
-1.177, -9.234e-5
-1.176, -9.234e-5
-1.175, -9.234e-5
-1.174, -9.234e-5
-1.173, -8.925e-5
-1.172, -8.617e-5
-1.171, -8.617e-5
-1.170, -8.617e-5
-1.169, -8.617e-5
-1.168, -8.925e-5
-1.167, -8.617e-5
-1.166, -8.925e-5
-1.165, -9.234e-5
-1.164, -9.234e-5
-1.163, -9.542e-5
-1.162, -8.925e-5
-1.161, -9.234e-5
-1.160, -8.925e-5
-1.159, -8.617e-5
-1.158, -8.617e-5
-1.157, -8.309e-5
-1.156, -8.617e-5
-1.155, -8.617e-5
-1.154, -8.925e-5
-1.153, -9.234e-5
-1.152, -9.234e-5
-1.151, -9.234e-5
-1.150, -8.925e-5
-1.149, -8.925e-5
-1.148, -8.925e-5
-1.147, -8.925e-5
-1.146, -8.617e-5
-1.145, -8.617e-5
-1.144, -8.617e-5
-1.143, -8.617e-5
-1.142, -9.234e-5
-1.141, -8.925e-5
-1.140, -9.234e-5
-1.139, -9.234e-5
-1.138, -8.925e-5
-1.137, -8.925e-5
-1.136, -8.617e-5
-1.135, -8.617e-5
-1.134, -8.309e-5
-1.133, -8.617e-5
-1.132, -8.617e-5
-1.131, -8.925e-5
-1.130, -8.925e-5
-1.129, -8.925e-5
-1.128, -9.234e-5
-1.127, -8.925e-5
-1.126, -8.925e-5
-1.125, -8.617e-5
-1.124, -8.617e-5
-1.123, -8.617e-5
-1.122, -8.309e-5
-1.121, -8.617e-5
-1.120, -8.617e-5
-1.119, -8.617e-5
-1.118, -8.925e-5
-1.117, -8.925e-5
-1.116, -9.234e-5
-1.115, -8.925e-5
-1.114, -8.925e-5
-1.113, -8.617e-5
-1.112, -8.617e-5
-1.111, -8.617e-5
-1.110, -8.309e-5
-1.109, -8.617e-5
-1.108, -8.925e-5
-1.107, -8.925e-5
-1.106, -8.925e-5
-1.105, -9.234e-5
-1.104, -8.925e-5
-1.103, -8.925e-5
-1.102, -8.617e-5
-1.101, -8.617e-5
-1.100, -8.617e-5
-1.099, -8.309e-5
-1.098, -8.617e-5
-1.097, -8.617e-5
-1.096, -8.617e-5
-1.095, -8.925e-5
-1.094, -8.925e-5
-1.093, -9.234e-5
-1.092, -8.925e-5
-1.091, -9.234e-5
-1.090, -8.617e-5
-1.089, -8.617e-5
-1.088, -8.617e-5
-1.087, -8.309e-5
-1.086, -8.617e-5
-1.085, -8.617e-5
-1.084, -8.925e-5
-1.083, -8.925e-5
-1.082, -8.925e-5
-1.081, -9.234e-5
-1.080, -8.925e-5
-1.079, -8.925e-5
-1.078, -8.925e-5
-1.077, -8.617e-5
-1.076, -8.617e-5
-1.075, -8.617e-5
-1.074, -8.617e-5
-1.073, -8.925e-5
-1.072, -8.925e-5
-1.071, -9.234e-5
-1.070, -8.925e-5
-1.069, -8.925e-5
-1.068, -8.925e-5
-1.067, -8.617e-5
-1.066, -8.617e-5
-1.065, -8.617e-5
-1.064, -8.309e-5
-1.063, -8.617e-5
-1.062, -8.617e-5
-1.061, -8.617e-5
-1.060, -9.234e-5
-1.059, -9.234e-5
-1.058, -9.234e-5
-1.057, -8.925e-5
-1.056, -8.925e-5
-1.055, -8.925e-5
-1.054, -8.617e-5
-1.053, -8.617e-5
-1.052, -8.309e-5
-1.051, -8.617e-5
-1.050, -8.617e-5
-1.049, -8.925e-5
-1.048, -8.925e-5
-1.047, -8.925e-5
-1.046, -9.234e-5
-1.045, -8.925e-5
-1.044, -9.234e-5
-1.043, -8.617e-5
-1.042, -8.925e-5
-1.041, -8.617e-5
-1.040, -8.309e-5
-1.039, -8.617e-5
-1.038, -8.925e-5
-1.037, -9.234e-5
-1.036, -9.234e-5
-1.035, -9.234e-5
-1.034, -8.925e-5
-1.033, -9.234e-5
-1.032, -8.925e-5
-1.031, -8.925e-5
-1.030, -8.617e-5
-1.029, -8.309e-5
-1.028, -8.617e-5
-1.027, -8.617e-5
-1.026, -8.925e-5
-1.025, -9.234e-5
-1.024, -9.234e-5
-1.023, -9.542e-5
-1.022, -9.234e-5
-1.021, -9.234e-5
-1.020, -9.234e-5
-1.019, -8.925e-5
-1.018, -8.925e-5
-1.017, -8.617e-5
-1.016, -8.925e-5
-1.015, -8.925e-5
-1.014, -9.234e-5
-1.013, -9.234e-5
-1.012, -9.542e-5
-1.011, -9.542e-5
-1.010, -9.542e-5
-1.009, -9.542e-5
-1.008, -9.234e-5
-1.007, -9.234e-5
-1.006, -8.925e-5
-1.005, -8.617e-5
-1.004, -9.234e-5
-1.003, -9.234e-5
-1.002, -9.542e-5
-1.001, -9.542e-5
