Potential V vs RHE, Current mA cm-2
0.013299999999999867,-0.30755823659065895
0.012299999999999978,-1.1362961160515976
0.011299999999999866,-1.7033124050375041
0.010299999999999976,-2.052746096104168
0.009299999999999864,-2.2706116362833835
0.008299999999999974,-2.4446211261667834
0.007299999999999862,-2.576189277054232
0.006299999999999972,-2.662486666345999
0.00529999999999986,-2.7501987669376318
0.0042999999999999705,-2.794054817233447
0.0032999999999998586,-2.8379108675292635
0.0022999999999999687,-2.8803522065252145
0.0012999999999998568,-2.924208256821031
0.00029999999999996696,-2.924208256821031
-0.000700000000000145,-2.924208256821031
-0.0017000000000000348,-2.924208256821031
-0.0027000000000001467,-2.968064307116847
-0.0037000000000000366,-2.968064307116847
-0.0047000000000001485,-3.0119203574126634
-0.005700000000000038,-3.0119203574126634
-0.00670000000000015,-3.0119203574126634
-0.00770000000000004,-3.0119203574126634
-0.008700000000000152,-3.0119203574126634
-0.009700000000000042,-3.055776407708479
-0.010700000000000154,-3.055776407708479
-0.011700000000000044,-3.055776407708479
-0.012700000000000156,-3.0996324580042955
-0.013700000000000045,-3.0996324580042955
-0.014700000000000157,-3.0996324580042955
-0.015700000000000047,-3.0996324580042955
-0.01670000000000016,-3.0996324580042955
-0.01770000000000005,-3.0996324580042955
-0.01870000000000016,-3.0996324580042955
-0.01970000000000005,-3.0996324580042955
-0.020700000000000163,-3.1420737970002466
-0.021700000000000053,-3.1420737970002466
-0.022700000000000164,-3.1420737970002466
-0.023700000000000054,-3.1420737970002466
-0.024700000000000166,-3.1420737970002466
-0.025700000000000056,-3.1420737970002466
-0.026700000000000168,-3.1420737970002466
-0.027700000000000058,-3.1420737970002466
-0.02870000000000017,-3.1420737970002466
-0.02970000000000006,-3.1859298472960624
-0.03070000000000017,-3.1859298472960624
-0.03170000000000006,-3.1859298472960624
-0.03270000000000017,-3.1859298472960624
-0.03370000000000006,-3.1859298472960624
-0.034700000000000175,-3.1859298472960624
-0.035700000000000065,-3.1859298472960624
-0.03670000000000018,-3.1859298472960624
-0.03770000000000007,-3.1859298472960624
-0.03870000000000018,-3.2297858975918787
-0.03970000000000007,-3.2297858975918787
-0.04070000000000018,-3.2297858975918787
-0.04170000000000007,-3.1859298472960624
-0.04270000000000018,-3.1859298472960624
-0.04370000000000007,-3.1859298472960624
-0.044700000000000184,-3.2297858975918787
-0.045700000000000074,-3.2297858975918787
-0.046700000000000186,-3.2297858975918787
-0.047700000000000076,-3.2297858975918787
-0.04870000000000019,-3.2297858975918787
-0.04970000000000008,-3.2297858975918787
-0.05070000000000019,-3.2297858975918787
-0.05170000000000008,-3.2297858975918787
-0.05270000000000019,-3.2297858975918787
-0.05370000000000008,-3.2297858975918787
-0.05470000000000019,-3.273641947887695
-0.05570000000000008,-3.273641947887695
-0.056700000000000195,-3.273641947887695
-0.057700000000000085,-3.273641947887695
-0.058700000000000196,-3.273641947887695
-0.059700000000000086,-3.273641947887695
-0.0607000000000002,-3.273641947887695
-0.06170000000000009,-3.273641947887695
-0.0627000000000002,-3.273641947887695
-0.06370000000000009,-3.273641947887695
-0.0647000000000002,-3.273641947887695
-0.06570000000000009,-3.273641947887695
-0.0667000000000002,-3.317497998183511
-0.0677000000000001,-3.317497998183511
-0.0687000000000002,-3.273641947887695
-0.0697000000000001,-3.273641947887695
-0.07070000000000021,-3.273641947887695
-0.0717000000000001,-3.273641947887695
-0.07270000000000021,-3.317497998183511
-0.0737000000000001,-3.317497998183511
-0.07470000000000021,-3.317497998183511
-0.0757000000000001,-3.317497998183511
-0.07670000000000021,-3.317497998183511
-0.0777000000000001,-3.317497998183511
-0.07870000000000021,-3.317497998183511
-0.0797000000000001,-3.317497998183511
-0.08070000000000022,-3.317497998183511
-0.0817000000000001,-3.317497998183511
-0.08270000000000022,-3.317497998183511
-0.08370000000000011,-3.317497998183511
-0.08470000000000022,-3.317497998183511
-0.08570000000000011,-3.317497998183511
-0.08670000000000022,-3.361354048479327
-0.08770000000000011,-3.361354048479327
-0.08870000000000022,-3.361354048479327
-0.08970000000000011,-3.361354048479327
-0.09070000000000022,-3.361354048479327
-0.09170000000000011,-3.361354048479327
-0.09270000000000023,-3.317497998183511
-0.09370000000000012,-3.317497998183511
-0.09470000000000023,-3.361354048479327
-0.09570000000000012,-3.361354048479327
-0.09670000000000023,-3.361354048479327
-0.09770000000000012,-3.361354048479327
-0.09870000000000023,-3.361354048479327
-0.09970000000000012,-3.361354048479327
-0.10070000000000023,-3.361354048479327
-0.10170000000000012,-3.361354048479327
-0.10270000000000024,-3.361354048479327
-0.10370000000000013,-3.403795387475278
-0.10470000000000024,-3.403795387475278
-0.10570000000000013,-3.403795387475278
-0.10670000000000024,-3.361354048479327
-0.10770000000000013,-3.361354048479327
-0.10870000000000024,-3.403795387475278
-0.10970000000000013,-3.403795387475278
-0.11070000000000024,-3.403795387475278
-0.11170000000000013,-3.403795387475278
-0.11270000000000002,-3.403795387475278
-0.11370000000000013,-3.403795387475278
-0.11470000000000002,-3.403795387475278
-0.11570000000000014,-3.403795387475278
-0.11670000000000003,-3.447651437771094
-0.11770000000000014,-3.447651437771094
-0.11870000000000003,-3.447651437771094
-0.11970000000000014,-3.447651437771094
-0.12070000000000003,-3.447651437771094
-0.12170000000000014,-3.447651437771094
-0.12270000000000003,-3.447651437771094
-0.12370000000000014,-3.447651437771094
-0.12470000000000003,-3.447651437771094
-0.12570000000000014,-3.447651437771094
-0.12670000000000003,-3.447651437771094
-0.12770000000000015,-3.447651437771094
-0.12870000000000004,-3.447651437771094
-0.12970000000000015,-3.4915074880669104
-0.13070000000000004,-3.4915074880669104
-0.13170000000000015,-3.4915074880669104
-0.13270000000000004,-3.4915074880669104
-0.13370000000000015,-3.4915074880669104
-0.13470000000000004,-3.4915074880669104
-0.13570000000000015,-3.4915074880669104
-0.13670000000000004,-3.4915074880669104
-0.13770000000000016,-3.5353635383627267
-0.13870000000000005,-3.4915074880669104
-0.13970000000000016,-3.5353635383627267
-0.14070000000000005,-3.5353635383627267
-0.14170000000000016,-3.5353635383627267
-0.14270000000000005,-3.5353635383627267
-0.14370000000000016,-3.5353635383627267
-0.14470000000000005,-3.579219588658543
-0.14570000000000016,-3.579219588658543
-0.14670000000000005,-3.579219588658543
-0.14770000000000016,-3.579219588658543
-0.14870000000000005,-3.579219588658543
-0.14970000000000017,-3.579219588658543
-0.15070000000000006,-3.579219588658543
-0.15170000000000017,-3.579219588658543
-0.15270000000000006,-3.623075638954359
-0.15370000000000017,-3.623075638954359
-0.15470000000000006,-3.623075638954359
-0.15570000000000017,-3.6655169779503103
-0.15670000000000006,-3.6655169779503103
-0.15770000000000017,-3.6655169779503103
-0.15870000000000006,-3.6655169779503103
-0.15970000000000018,-3.623075638954359
-0.16070000000000007,-3.6655169779503103
-0.16170000000000018,-3.6655169779503103
-0.16270000000000007,-3.7093730282461257
-0.16370000000000018,-3.7093730282461257
-0.16470000000000007,-3.7093730282461257
-0.16570000000000018,-3.7093730282461257
-0.16670000000000007,-3.7532290785419424
-0.16770000000000018,-3.7532290785419424
-0.16870000000000007,-3.7532290785419424
-0.16970000000000018,-3.7532290785419424
-0.17070000000000007,-3.7532290785419424
-0.17170000000000019,-3.7970851288377587
-0.17270000000000008,-3.7970851288377587
-0.1737000000000002,-3.7970851288377587
-0.17470000000000008,-3.7970851288377587
-0.1757000000000002,-3.7970851288377587
-0.17670000000000008,-3.840941179133574
-0.1777000000000002,-3.884797229429391
-0.17870000000000008,-3.840941179133574
-0.1797000000000002,-3.884797229429391
-0.18070000000000008,-3.927238568425342
-0.1817000000000002,-3.927238568425342
-0.18270000000000008,-3.927238568425342
-0.1837000000000002,-3.927238568425342
-0.1847000000000001,-3.971094618721158
-0.1857000000000002,-3.971094618721158
-0.1867000000000001,-3.971094618721158
-0.1877000000000002,-4.014950669016974
-0.1887000000000001,-4.0588067193127895
-0.1897000000000002,-4.0588067193127895
-0.1907000000000001,-4.0588067193127895
-0.1917000000000001,-4.0588067193127895
-0.19269999999999998,-4.102662769608606
-0.1937000000000001,-4.102662769608606
-0.19469999999999998,-4.146518819904423
-0.1957000000000001,-4.1889601589003735
-0.19669999999999999,-4.1889601589003735
-0.1977000000000001,-4.1889601589003735
-0.1987,-4.23281620919619
-0.1997000000000001,-4.23281620919619
-0.2007,-4.276672259492005
-0.2017000000000001,-4.276672259492005
-0.2027,-4.3205283097878215
-0.2037000000000001,-4.364384360083638
-0.2047,-4.364384360083638
-0.2057000000000001,-4.406825699079589
-0.2067,-4.450681749375406
-0.2077000000000001,-4.450681749375406
-0.2087,-4.450681749375406
-0.2097000000000001,-4.494537799671222
-0.2107,-4.538393849967037
-0.2117000000000001,-4.582249900262854
-0.2127,-4.626105950558669
-0.2137000000000001,-4.668547289554621
-0.2147,-4.668547289554621
-0.2157000000000001,-4.712403339850438
-0.2167,-4.756259390146253
-0.21770000000000012,-4.756259390146253
-0.2187,-4.800115440442069
-0.21970000000000012,-4.843971490737885
-0.2207,-4.887827541033701
-0.22170000000000012,-4.9302688800296535
-0.2227,-4.974124930325469
-0.22370000000000012,-5.017980980621284
-0.2247,-5.0618370309171015
-0.22570000000000012,-5.105693081212917
-0.2267,-5.105693081212917
-0.22770000000000012,-5.149549131508733
-0.22870000000000001,-5.235846520800501
-0.22970000000000013,-5.279702571096316
-0.23070000000000002,-5.323558621392133
-0.23170000000000013,-5.367414671687949
-0.23270000000000002,-5.411270721983764
-0.23370000000000013,-5.453712060979717
-0.23470000000000002,-5.497568111275533
-0.23570000000000013,-5.5414241615713475
-0.23670000000000002,-5.585280211867165
-0.2376999999999999,-5.672992312458796
-0.23870000000000002,-5.715433651454749
-0.2396999999999999,-5.759289701750564
-0.24070000000000003,-5.847001802342197
-0.24169999999999991,-5.890857852638012
-0.24270000000000003,-5.9347139029338285
-0.24369999999999992,-5.977155241929781
-0.24470000000000003,-6.064867342521412
-0.24569999999999992,-6.108723392817228
-0.24670000000000003,-6.196435493408861
-0.24769999999999992,-6.238876832404812
-0.24870000000000003,-6.326588932996443
-0.24969999999999992,-6.37044498329226
-0.25070000000000003,-6.458157083883892
-0.2516999999999999,-6.500598422879844
-0.25270000000000004,-6.54445447317566
-0.2536999999999999,-6.632166573767292
-0.25470000000000004,-6.719878674358924
-0.2556999999999999,-6.806176063650692
-0.25670000000000004,-6.893888164242324
-0.25769999999999993,-6.93774421453814
-0.25870000000000004,-7.024041603829907
-0.25969999999999993,-7.111753704421539
-0.26070000000000004,-7.155609754717355
-0.26169999999999993,-7.243321855308987
-0.26270000000000004,-7.37347529489657
-0.26369999999999993,-7.461187395488204
-0.26470000000000005,-7.5474847847799715
-0.26569999999999994,-7.635196885371603
-0.26670000000000005,-7.722908985963235
-0.26769999999999994,-7.809206375255003
-0.26870000000000005,-7.896918475846635
-0.26969999999999994,-7.984630576438266
-0.27070000000000005,-8.11478401602585
-0.27169999999999994,-8.202496116617484
-0.27270000000000005,-8.332649556205066
-0.27369999999999994,-8.4203616567967
-0.27470000000000006,-8.464217707092514
-0.27569999999999995,-8.594371146680096
-0.27670000000000006,-8.725939297567548
-0.27769999999999995,-8.812236686859313
-0.27870000000000006,-8.899948787450944
-0.27969999999999995,-9.031516938338395
-0.28070000000000006,-9.205526428221793
-0.28169999999999995,-9.293238528813426
-0.28270000000000006,-9.379535918105192
-0.28369999999999995,-9.511104068992642
-0.28470000000000006,-9.641257508580225
-0.28569999999999995,-9.772825659467674
-0.28670000000000007,-9.902979099055257
-0.28769999999999996,-10.034547249942705
-0.28870000000000007,-10.164700689530287
-0.28969999999999996,-10.296268840417738
-0.29070000000000007,-10.42642228000532
-0.29169999999999996,-10.557990430892769
-0.29270000000000007,-10.688143870480351
-0.29369999999999996,-10.819712021367803
-0.2947000000000001,-10.993721511251199
-0.29569999999999996,-11.123874950838783
-0.2967000000000001,-11.299299152022046
-0.29769999999999996,-11.42945259160963
-0.2987000000000001,-11.604876792792895
-0.29969999999999997,-11.778886282676295
-0.3007000000000001,-11.86659838326793
-0.30169999999999997,-12.040607873151327
-0.3027000000000001,-12.258473413330542
-0.30369999999999997,-12.390041564217992
-0.3047000000000001,-12.56405105410139
-0.30569999999999997,-12.73806054398479
-0.3067000000000001,-12.869628694872238
-0.3077,-13.087494235051453
-0.3087000000000001,-13.217647674639037
-0.3097,-13.3930718758223
-0.3107000000000001,-13.567081365705702
-0.3117,-13.784946905884919
-0.3127000000000001,-13.960371107068182
-0.3137,-14.13438059695158
-0.3147000000000001,-14.30273124163552
-0.3157,-14.529085049613924
-0.3167000000000001,-14.69885040559773
-0.3177,-14.868615761581536
-0.3187000000000001,-15.05252823056399
-0.3197,-15.222293586547794
-0.3207000000000001,-15.448647394526201
-0.3217,-15.70329542850191
-0.3227000000000001,-15.91550212348166
-0.3237,-16.099414592464115
-0.3247000000000001,-16.269179948447924
-0.3257,-16.438945304431726
-0.3267000000000001,-16.70774045140608
-0.3277,-16.919947146385837
-0.3287000000000001,-17.146300954364243
-0.3297,-17.358507649344002
-0.3307000000000001,-17.542420118326454
-0.3317,-17.75462681330621
-0.3327000000000001,-18.009274847281915
-0.3337,-18.23562865526032
-0.3347000000000001,-18.49027668923603
-0.3357,-18.674189158218486
-0.3367000000000001,-18.92883719219419
-0.3377,-19.155191000172596
-0.3387000000000001,-19.409839034148305
-0.3397,-19.678634181122664
-0.3407000000000001,-19.93328221509837
-0.3417,-20.159636023076775
-0.3427000000000001,-20.371842718056527
-0.3437,-20.626490752032236
-0.3447000000000001,-20.85284456001064
-0.3457,-21.149933932982297
-0.3467000000000001,-21.376287740960702
-0.3477,-21.67337711393236
-0.3487000000000001,-21.899730921910766
-0.3497,-22.15437895588647
-0.3507000000000001,-22.42317410286083
-0.3517,-22.67782213683654
-0.3527000000000001,-23.031499961802798
-0.3537,-23.24370665678255
-0.3547000000000001,-23.55494314275286
-0.3557,-23.823738289727217
-0.35670000000000013,-24.078386323702922
-0.3577,-24.389622809673234
-0.35870000000000013,-24.64427084364894
-0.3597,-24.9130659906233
-0.36070000000000013,-25.210155363594954
-0.3617,-25.521391849565262
-0.3626999999999999,-25.81848122253692
-0.3637,-26.087276369511276
-0.3646999999999999,-26.38436574248293
-0.3657,-26.69560222845324
-0.3666999999999999,-26.9643973754276
-0.3677,-27.219045409403304
-0.3686999999999999,-27.572723234369565
-0.36970000000000003,-27.912253946337174
-0.3706999999999999,-28.22349043230748
-0.37170000000000003,-28.478138466283188
-0.3726999999999999,-28.789374952253496
-0.37370000000000003,-29.14305277721976
-0.3746999999999999,-29.440142150191413
-0.37570000000000003,-29.751378636161718
-0.3766999999999999,-30.00602667013743
-0.37770000000000004,-30.359704495103685
-0.3786999999999999,-30.71338232006995
-0.37970000000000004,-31.052913032037555
-0.3806999999999999,-31.36414951800786
-0.38170000000000004,-31.661238890979522
-0.38269999999999993,-32.01491671594578
-0.38370000000000004,-32.368594540912035
-0.38469999999999993,-32.66568391388369
-0.38570000000000004,-32.97692039985401
-0.38669999999999993,-33.330598224820264
-0.38770000000000004,-33.712570275783825
-0.38869999999999993,-34.06624810075008
-0.38970000000000005,-34.377484586720385
-0.39069999999999994,-34.67457395969205
-0.39170000000000005,-35.02825178465831
-0.39269999999999994,-35.42437094862052
-0.39370000000000005,-35.679018982596226
-0.39469999999999994,-36.03269680756248
-0.39570000000000005,-36.4288159715247
-0.39669999999999994,-36.768346683492304
-0.39770000000000005,-37.122024508458566
-0.39869999999999994,-37.41911388143023
-0.39970000000000006,-37.77279170639648
-0.40069999999999995,-38.16891087035869
-0.40170000000000006,-38.5650300343209
-0.40269999999999995,-38.86211940729255
-0.40370000000000006,-39.258238571254765
-0.40469999999999995,-39.61191639622103
-0.40570000000000006,-39.99388844718459
-0.40669999999999995,-40.34756627215084
-0.40770000000000006,-40.743685436113054
-0.40869999999999995,-41.139804600075266
-0.40970000000000006,-41.47933531204288
-0.41069999999999995,-41.87545447600508
-0.41170000000000007,-42.2715736399673
-0.41269999999999996,-42.653545690930855
-0.41370000000000007,-43.04966485489307
-0.41469999999999996,-43.44578401885527
-0.41570000000000007,-43.84190318281749
-0.41669999999999996,-44.223875233781044
-0.41770000000000007,-44.619994397743255
-0.41869999999999996,-44.97367222270952
-0.4197000000000001,-45.412232725667685
-0.42069999999999996,-45.89323456762179
-0.4217000000000001,-46.27520661858535
-0.42269999999999996,-46.67132578254756
-0.4237000000000001,-47.02500360751382
-0.42469999999999997,-47.46356411047198
-0.4257000000000001,-47.8879775004315
-0.42669999999999997,-48.2840966643937
-0.4277000000000001,-48.68021582835591
-0.42869999999999997,-49.076334992318124
-0.4297000000000001,-49.557336834272235
-0.43069999999999997,-49.98175022423175
-0.4317000000000001,-50.37786938819396
-0.4327,-50.77398855215617
-0.4337000000000001,-51.21254905511432
-0.4347,-51.65110955807249
-0.4357000000000001,-52.033081609036046
-0.4367,-52.471642111994214
-0.4377000000000001,-52.86776127595642
-0.4387,-53.348763117910536
-0.4397000000000001,-53.7873236208687
-0.4407,-54.1268543328363
-0.4417000000000001,-54.56541483579447
-0.4427,-55.003975338752625
-0.4437000000000001,-55.484977180706736
-0.4447,-55.96597902266086
-0.4457000000000001,-56.30550973462846
-0.4467,-56.70162889859067
-0.4477000000000001,-57.182630740544774
-0.4487,-57.70607392149485
-0.4497000000000001,-58.18707576344896
-0.4507,-58.583194927411164
-0.4517000000000001,-58.92272563937878
-0.4527,-59.31884480334099
-0.4537000000000001,-59.842287984291055
-0.4547,-60.36573116524111
-0.4557000000000001,-60.84673300719523
-0.4567,-61.242852171157445
-0.4577000000000001,-61.63897133511965
-0.4587,-62.02094338608321
-0.4597000000000001,-62.501945228037314
-0.4607,-62.98294706999144
-0.4617000000000001,-63.421507572949594
-0.4627,-63.860068075907755
-0.4637000000000001,-64.34106991786187
-0.4647,-64.77963042082003
-0.4657000000000001,-65.2464851497755
-0.4667,-65.68504565273366
-0.4677000000000001,-66.20848883368372
-0.4687,-66.68949067563783
-0.4697000000000001,-67.17049251759194
-0.4707,-67.56661168155415
-0.4717000000000001,-68.0900548625042
-0.4727,-68.61349804345427
-0.4737000000000001,-69.1793825634003
-0.4747,-69.61794306635846
-0.4757000000000001,-70.01406223032066
-0.4767,-70.53750541127073
-0.4777000000000001,-71.06094859222078
-0.4787,-71.58439177317086
-0.4797000000000001,-72.05124650212633
-0.4807,-72.53224834408043
-0.48170000000000013,-73.0556915250305
-0.4827,-73.53669336698461
-0.48370000000000013,-74.0176952089387
-0.4847,-74.54113838988879
-0.48570000000000013,-75.06458157083884
-0.4867,-74.76749219786718
-0.48570000000000013,-73.40936934999675
-0.4847,-72.36248298809663
-0.48370000000000013,-71.52780332117625
-0.4827,-70.70727076725453
-0.48170000000000013,-69.87259110033416
-0.4807,-69.0096172074165
-0.4797000000000001,-68.21737887949207
-0.4787,-67.52417034255821
-0.4777000000000001,-66.77437335362974
-0.4767,-65.95384079970802
-0.4757000000000001,-65.16160247178358
-0.4747,-64.46839393484973
-0.4737000000000001,-63.81762673691181
-0.4727,-63.02538840898739
-0.4717000000000001,-62.16241451606972
-0.4707,-61.455058866137186
-0.4697000000000001,-60.80429166819927
-0.4687,-60.15352447026136
-0.4677000000000001,-59.403727481332886
-0.4667,-58.66807760540307
-0.4657000000000001,-58.017310407465146
-0.4647,-57.408984548523186
-0.4637000000000001,-56.70162889859067
