Potential V vs RHE, Current mA cm-2
0.4132999999999999,0.003429260190872849
0.4122999999999999,0.0016382356852437125
0.4112999999999999,0.0011852451270269277
0.4102999999999999,0.0009172988068324898
0.4092999999999999,0.0006311027108697929
0.4082999999999999,0.00042045219831988886
0.4072999999999999,0.0002863375670926834
0.4062999999999999,0.00016637004886412831
0.4052999999999999,1.1445014415908146e-05
0.4042999999999999,-0.00019240073678164496
0.4032999999999999,-0.00034731162411686653
0.4022999999999999,-0.0004323357732387552
0.4012999999999999,-0.0005245749499899556
0.4002999999999999,-0.0006319515376497118
0.3992999999999999,-0.0008358114359602637
0.3982999999999999,-0.0009809608153264165
0.3972999999999999,-0.0010283536438718951
0.3962999999999999,-0.001135871702661638
0.3952999999999999,-0.0012015143069753756
0.3942999999999999,-0.0013633572796799358
0.39329999999999987,-0.0014826174422585584
0.39229999999999987,-0.0015547677185516753
0.39129999999999987,-0.0016141855931460067
0.39029999999999987,-0.0017089712502369643
0.38929999999999987,-0.001853271802823198
0.38829999999999987,-0.0019890840876102414
0.38729999999999987,-0.0020060606232086223
0.38629999999999987,-0.002076796188201874
0.38529999999999986,-0.0021786554017921567
0.38429999999999986,-0.0023102235526796053
0.38329999999999986,-0.002440376992267188
0.38229999999999986,-0.0024658417956647588
0.38129999999999986,-0.00252525967025909
0.38029999999999986,-0.0026058982143513975
0.37929999999999986,-0.0027388810765387114
0.37829999999999986,-0.0028534726918277792
0.37729999999999986,-0.0028888404743244046
0.37629999999999986,-0.0029114758551222458
0.37529999999999986,-0.003002017378313608
0.37429999999999986,-0.0031392443744005165
0.37329999999999985,-0.0032368594540912042
0.37229999999999985,-0.003287789060886345
0.37129999999999985,-0.003307595019084456
0.37029999999999985,-0.003367012893678787
0.36929999999999985,-0.003525460559263671
0.36829999999999985,-0.003618831505054764
0.36729999999999985,-0.0036541992875513893
0.36629999999999985,-0.0036570287101511194
0.36529999999999985,-0.0037192760073451814
0.36429999999999985,-0.0038791383842299307
0.36329999999999985,-0.003982412309120079
0.36229999999999984,-0.003996559422118728
0.36129999999999984,-0.004030512493315489
0.36029999999999984,-0.004091345079209686
0.35929999999999984,-0.004228572075296594
0.35829999999999984,-0.004327601866287147
0.35729999999999984,-0.004345993113185393
0.35629999999999984,-0.004368628493983233
0.35529999999999984,-0.004405410987779724
0.35429999999999984,-0.004544052695166497
0.35329999999999984,-0.0046487413313565104
0.35229999999999984,-0.00464308248615705
0.35129999999999983,-0.0046883532477527325
0.35029999999999983,-0.004744941699747333
0.34929999999999983,-0.004856703892436672
0.34829999999999983,-0.004979783775524929
0.34729999999999983,-0.0049911014659238485
0.34629999999999983,-0.005001004445022905
0.34529999999999983,-0.005051934051818046
0.34429999999999983,-0.005169355089706844
0.3432999999999998,-0.005268384880697396
0.3422999999999998,-0.0052697995919972615
0.3412999999999998,-0.005293849684094967
0.3402999999999998,-0.0053476087134898395
0.3392999999999998,-0.005448053215780256
0.3382999999999998,-0.005551327140670404
0.3372999999999998,-0.0055782066553678395
0.3362999999999998,-0.005571133098868514
0.3352999999999998,-0.005641868663861766
0.3342999999999998,-0.005739483743552453
0.3332999999999998,-0.0058229517102444915
0.3322999999999998,-0.005851245936241792
0.3312999999999998,-0.005855490070141387
0.3302999999999998,-0.005903590254336798
0.3292999999999998,-0.006025255426125192
0.3282999999999998,-0.006103064547617769
0.3272999999999998,-0.0061313587736150695
0.3262999999999998,-0.006120041083216148
0.3252999999999999,-0.0061653118448118304
0.3242999999999999,-0.006318100665197253
0.3232999999999999,-0.006383177384991045
0.3222999999999999,-0.006425618723986996
0.3212999999999999,-0.006442595259585377
0.3202999999999999,-0.006459571795183757
0.3192999999999999,-0.006586895812171611
0.3182999999999999,-0.006651972531965403
0.3172999999999999,-0.006681681469262569
0.3162999999999999,-0.0067000727161608134
0.3152999999999999,-0.006728366942158114
0.3142999999999999,-0.006841543846147317
0.3132999999999999,-0.006922182390239625
0.3122999999999999,-0.006913694122440434
0.3112999999999999,-0.006947647193637195
0.3102999999999999,-0.00696886786313517
0.3092999999999999,-0.007107509570521945
0.3082999999999999,-0.007196636382413441
0.3072999999999999,-0.007181074558114927
0.3062999999999999,-0.007188148114614251
0.3052999999999999,-0.007229174742310337
0.3042999999999999,-0.0073197162655017
0.3032999999999999,-0.007430063746891173
0.3022999999999999,-0.007431478458191037
0.3012999999999999,-0.007437137303390498
0.3002999999999999,-0.007486652198885773
0.2992999999999999,-0.007588511412476056
0.2982999999999999,-0.007673394090467959
0.2972999999999999,-0.007700273605165396
0.2962999999999999,-0.00770451773906499
0.2952999999999999,-0.007758276768459861
0.2942999999999999,-0.007831841756052843
0.2932999999999999,-0.007928042124443665
0.2922999999999999,-0.007953506927841237
0.2912999999999999,-0.007933700969643126
0.2902999999999999,-0.007980386442538673
0.2892999999999999,-0.008089319212628279
0.2882999999999999,-0.008155810643721936
0.2872999999999999,-0.008171372468020452
0.2862999999999999,-0.008168543045420721
0.2852999999999999,-0.008222302074815594
0.2842999999999999,-0.008324161288405874
0.2832999999999999,-0.008404799832498182
0.2822999999999999,-0.008404799832498182
0.2812999999999999,-0.008424605790696291
0.2802999999999999,-0.008450070594093865
0.2792999999999999,-0.008573150477182122
0.2782999999999999,-0.008638227196975915
0.2772999999999999,-0.00863964190827578
0.2762999999999999,-0.008663692000373483
0.2752999999999999,-0.008679253824672
0.2742999999999999,-0.008792430728661203
0.2732999999999999,-0.008891460519651756
0.2722999999999999,-0.008885801674452295
0.2712999999999999,-0.008902778210050675
0.2702999999999999,-0.008935316569947572
0.2692999999999999,-0.00901878453663961
0.26829999999999987,-0.009107911348531107
0.26729999999999987,-0.009096593658132188
0.26629999999999987,-0.00912347317282962
0.26529999999999987,-0.009150352687527057
0.26429999999999987,-0.009247967767217743
0.26329999999999987,-0.009341338713008837
0.26229999999999987,-0.009330021022609917
0.26129999999999987,-0.009346997558208298
0.26029999999999986,-0.009388024185904384
0.25929999999999986,-0.0094601744621975
0.25829999999999986,-0.009553545407988593
0.25729999999999986,-0.009586083767885488
0.25629999999999986,-0.009588913190485219
0.25529999999999986,-0.009624280972981845
0.25429999999999986,-0.009710578362273611
0.25329999999999986,-0.00979687575156538
0.25229999999999986,-0.009829414111462275
0.25129999999999986,-0.009818096421063354
0.25029999999999986,-0.00985063478096025
0.24929999999999986,-0.009959567551049858
0.24829999999999985,-0.010020400136944056
0.24729999999999985,-0.01002747369344338
0.24629999999999985,-0.010034547249942707
0.24529999999999985,-0.01010103868103636
0.24429999999999985,-0.010191580204227724
0.24329999999999985,-0.01024392452232273
0.24229999999999985,-0.010255242212721652
0.24129999999999985,-0.010270804037020168
0.24029999999999985,-0.01027221874832003
0.23929999999999985,-0.010376907384510045
0.23829999999999985,-0.010471693041601003
0.23729999999999984,-0.010466034196401542
0.23629999999999984,-0.010480181309400191
0.23529999999999984,-0.010499987267598302
0.23429999999999984,-0.010601846481188585
0.23329999999999984,-0.010693802715679813
0.23229999999999984,-0.010709364539978328
0.23129999999999984,-0.010706535117378598
0.23029999999999984,-0.010743317611175088
0.22929999999999984,-0.010831029711766721
0.22829999999999984,-0.010942791904456059
0.22729999999999984,-0.010927230080157543
0.22629999999999983,-0.010938547770556462
0.22529999999999983,-0.010969671419153495
0.22429999999999983,-0.011055968808445261
0.22329999999999983,-0.011147925042936489
0.22229999999999983,-0.01116207215593514
0.22129999999999983,-0.011149339754236355
0.22029999999999983,-0.011200269361031495
0.21929999999999983,-0.011287981461623128
0.21829999999999983,-0.01138984067521341
0.21729999999999983,-0.01139549952041287
0.21629999999999983,-0.011377108273514625
0.21529999999999982,-0.01143511143680909
0.21429999999999982,-0.011519994114800992
0.21329999999999982,-0.011604876792792897
0.21229999999999982,-0.011624682750991006
0.21129999999999982,-0.01160912092669249
0.21029999999999982,-0.011664294667387227
0.20929999999999982,-0.01173503023238048
0.20829999999999982,-0.011824157044271977
0.20729999999999982,-0.01185245127026928
0.20629999999999982,-0.011839718868570492
0.20529999999999982,-0.011884989630166173
0.20429999999999982,-0.011992507688955914
0.20329999999999981,-0.012066072676548897
0.2022999999999998,-0.012070316810448494
0.2012999999999998,-0.012098611036445793
0.20029999999999992,-0.01211134343814458
0.19929999999999992,-0.012228764476033377
0.19829999999999992,-0.012305158886226089
0.19729999999999992,-0.012322135421824471
0.19629999999999992,-0.012317891287924874
0.19529999999999992,-0.01233345311222339
0.19429999999999992,-0.012514536158606114
0.19329999999999992,-0.012590930568798826
0.19229999999999992,-0.012551318652402605
0.19129999999999991,-0.012588101146199097
0.1902999999999999,-0.01259234528009869
0.1892999999999999,-0.0127012780501883
0.1882999999999999,-0.01278050188298074
0.1872999999999999,-0.012790404862079796
0.1862999999999999,-0.012787575439480068
0.1852999999999999,-0.012835675623675479
0.1842999999999999,-0.0129318759920663
0.1832999999999999,-0.013023832226557529
0.1822999999999999,-0.013025246937857393
0.1812999999999999,-0.013035149916956448
0.1802999999999999,-0.013074761833352669
0.1792999999999999,-0.013156815088744842
0.1782999999999999,-0.01326008901363499
0.1772999999999999,-0.013286968528332426
0.1762999999999999,-0.013268577281434178
0.1752999999999999,-0.013327995156028512
0.1742999999999999,-0.013427024947019063
0.1732999999999999,-0.013500589934612043
0.1722999999999999,-0.013520395892810155
0.1712999999999999,-0.013502004645911909
0.1702999999999999,-0.01355010483010732
0.1692999999999999,-0.01367318471319558
0.1682999999999999,-0.013750993834688155
0.1672999999999999,-0.01378353219458505
0.1662999999999999,-0.013769385081586403
0.1652999999999999,-0.013803338152783165
0.1642999999999999,-0.013910856211572904
0.1632999999999999,-0.013983006487866021
0.1622999999999999,-0.01400988600256346
0.1612999999999999,-0.014019788981662512
0.1602999999999999,-0.014031106672061432
0.1592999999999999,-0.014142868864750772
0.15829999999999989,-0.014231995676642267
0.15729999999999988,-0.01424614278964092
0.15629999999999988,-0.01426028990263957
0.15529999999999988,-0.01430273124163552
0.15429999999999988,-0.014387613919627423
0.15329999999999988,-0.014472496597619325
0.15229999999999988,-0.014472496597619325
0.15129999999999988,-0.014486643710617976
0.15029999999999988,-0.014514937936615275
0.14929999999999988,-0.01461396772760583
0.14829999999999988,-0.014712997518596381
0.14729999999999988,-0.014712997518596381
0.14629999999999987,-0.014741291744593682
0.14529999999999987,-0.014769585970590984
0.14429999999999987,-0.014868615761581536
0.14329999999999987,-0.01501008689156804
0.14229999999999987,-0.01501008689156804
0.14129999999999987,-0.014995939778569388
0.14029999999999987,-0.015024234004566688
0.13929999999999987,-0.015123263795557243
0.13829999999999987,-0.015222293586547794
0.13729999999999987,-0.015236440699546445
0.13629999999999987,-0.015250587812545097
0.13529999999999986,-0.015293029151541045
0.13429999999999986,-0.015420353168528897
0.13329999999999986,-0.015476941620523503
0.13229999999999986,-0.015505235846520802
0.13129999999999986,-0.015491088733522153
0.13029999999999986,-0.015533530072518101
0.12929999999999986,-0.015660854089505957
0.12829999999999986,-0.015717442541500558
0.12729999999999986,-0.015745736767497857
0.12629999999999986,-0.01573158965449921
0.12529999999999986,-0.01578817810649381
0.12429999999999986,-0.015901355010483013
0.12329999999999985,-0.015986237688474913
0.12229999999999985,-0.015986237688474913
0.12129999999999985,-0.016000384801473564
0.12029999999999985,-0.016014531914472215
0.11929999999999985,-0.01614185593146007
0.11829999999999985,-0.016212591496453318
0.11729999999999985,-0.016226738609451972
0.11629999999999985,-0.01624088572245062
0.11529999999999985,-0.016269179948447923
0.11429999999999985,-0.01638235685243712
0.11329999999999985,-0.016495533756426328
0.11229999999999984,-0.01650968086942498
0.11129999999999984,-0.01652382798242363
0.11029999999999984,-0.016537975095422278
0.10929999999999984,-0.01665115199941148
0.10829999999999984,-0.016750181790402035
0.10729999999999984,-0.016750181790402035
0.10629999999999984,-0.016764328903400686
0.10529999999999984,-0.016806770242396636
0.10429999999999984,-0.016891652920388536
0.10329999999999984,-0.01699068271137909
0.10229999999999984,-0.01703312405037504
0.10129999999999983,-0.01703312405037504
0.10029999999999983,-0.017075565389370995
0.09929999999999983,-0.017174595180361543
0.09829999999999983,-0.01728777208435075
0.09729999999999983,-0.0173019191973494
0.09629999999999983,-0.0173019191973494
0.09529999999999983,-0.017372654762342652
0.09429999999999983,-0.017457537440334552
0.09329999999999983,-0.017556567231325104
0.09229999999999983,-0.017584861457322406
0.09129999999999983,-0.017556567231325104
0.09029999999999982,-0.017613155683319705
0.08929999999999982,-0.01772633258730891
0.08829999999999982,-0.017797068152302163
0.08729999999999982,-0.017839509491298113
0.08629999999999982,-0.017839509491298113
0.08529999999999982,-0.017867803717295416
0.08429999999999982,-0.018009274847281917
0.08329999999999982,-0.018094157525273817
0.08229999999999982,-0.018108304638272472
0.08129999999999982,-0.01812245175127112
0.08029999999999982,-0.018150745977268422
0.07929999999999982,-0.018292217107254923
0.07829999999999981,-0.018377099785246823
0.07729999999999981,-0.018405394011244126
0.07629999999999981,-0.018433688237241428
0.07529999999999992,-0.018447835350240076
0.07429999999999992,-0.018575159367227933
0.07329999999999992,-0.018688336271217135
0.07229999999999992,-0.018688336271217135
0.07129999999999992,-0.018730777610213082
0.07029999999999992,-0.018759071836210388
0.06929999999999992,-0.018843954514202284
0.06829999999999992,-0.01897127853119014
0.06729999999999992,-0.018999572757187444
0.06629999999999991,-0.019027866983184743
0.06529999999999991,-0.019070308322180696
0.06429999999999991,-0.0191551910001726
0.06329999999999991,-0.01928251501716045
0.06229999999999991,-0.0192966621301591
0.06129999999999991,-0.0193249563561564
0.06029999999999991,-0.019381544808151
0.05929999999999991,-0.019480574599141553
0.05829999999999991,-0.019579604390132108
0.05729999999999991,-0.019622045729128058
0.056299999999999906,-0.019607898616129407
0.055299999999999905,-0.019664487068124008
0.054299999999999904,-0.019763516859114563
0.0532999999999999,-0.019876693763103765
0.0522999999999999,-0.019933282215098366
0.0512999999999999,-0.019947429328097017
0.0502999999999999,-0.019989870667092968
0.0492999999999999,-0.020103047571082173
0.0482999999999999,-0.02020207736207272
0.0472999999999999,-0.020244518701068675
0.0462999999999999,-0.020272812927065977
0.045299999999999896,-0.020301107153063276
0.044299999999999895,-0.02042843117005113
0.043299999999999894,-0.02052746096104168
0.04229999999999989,-0.020569902300037635
0.04129999999999989,-0.020598196526034934
0.04029999999999989,-0.020683079204026837
0.03929999999999989,-0.020810403221014687
0.03829999999999989,-0.02086699167300929
0.03729999999999989,-0.020923580125003893
0.03629999999999989,-0.020951874351001196
0.03529999999999989,-0.020980168576998495
0.034299999999999886,-0.021121639706984996
0.033299999999999885,-0.02122066949797555
0.032299999999999884,-0.0212631108369715
0.031299999999999883,-0.021305552175967454
0.030299999999999883,-0.021347993514963404
0.02929999999999988,-0.021475317531951258
0.02829999999999988,-0.021602641548939108
0.02729999999999988,-0.02163093577493641
0.02629999999999988,-0.02167337711393236
0.025299999999999878,-0.021729965565926962
0.024299999999999877,-0.021814848243918866
0.023299999999999876,-0.02197046648690402
0.022299999999999875,-0.02197046648690402
0.021299999999999875,-0.022012907825899968
0.020299999999999874,-0.02208364339089322
0.019299999999999873,-0.02218267318188378
0.018299999999999872,-0.02232414431187028
0.01729999999999987,-0.022366585650866227
0.01629999999999987,-0.02238073276386488
0.01529999999999987,-0.022479762554855433
0.014299999999999868,-0.022578792345845984
0.013299999999999867,-0.02267782213683654
0.012299999999999978,-0.02274855770182979
0.011299999999999866,-0.02274855770182979
0.010299999999999976,-0.022819293266823044
0.009299999999999864,-0.022932470170812246
0.008299999999999974,-0.023045647074801445
0.007299999999999862,-0.02310223552679605
0.006299999999999972,-0.02313052975279335
0.00529999999999986,-0.0232012653177866
0.0042999999999999705,-0.023314442221775804
0.0032999999999998586,-0.02341347201276636
0.0022999999999999687,-0.023484207577759608
0.0012999999999998568,-0.023512501803756906
0.00029999999999996696,-0.02355494314275286
-0.000700000000000145,-0.023696414272739365
-0.0017000000000000348,-0.023809591176728567
-0.0027000000000001467,-0.023823738289727222
-0.0037000000000000366,-0.02388032674172182
-0.0047000000000001485,-0.02393691519371642
-0.005700000000000038,-0.024078386323702922
-0.00670000000000015,-0.024191563227692125
-0.00770000000000004,-0.024219857453689427
-0.008700000000000152,-0.02426229879268538
-0.009700000000000042,-0.024318887244679982
-0.010700000000000154,-0.02447450548766513
-0.011700000000000044,-0.02461597661765164
-0.012700000000000156,-0.024601829504652988
-0.013700000000000045,-0.024644270843648942
-0.014700000000000157,-0.024700859295643543
-0.015700000000000047,-0.024842330425630044
-0.01670000000000016,-0.024983801555616546
-0.01770000000000005,-0.0249979486686152
-0.01870000000000016,-0.0250262428946125
-0.01970000000000005,-0.0251111255726044
-0.020700000000000163,-0.025210155363594954
-0.021700000000000053,-0.02535162649358146
-0.022700000000000164,-0.02540821494557606
-0.023700000000000054,-0.02543650917157336
-0.024700000000000166,-0.025507244736566608
-0.025700000000000056,-0.025634568753554465
-0.026700000000000168,-0.025747745657543668
-0.027700000000000058,-0.025790186996539618
-0.02870000000000017,-0.02580433410953827
-0.02970000000000006,-0.025889216787530173
-0.03070000000000017,-0.026030687917516674
-0.03170000000000006,-0.02614386482150588
-0.03270000000000017,-0.026186306160501827
-0.03370000000000006,-0.02620045327350048
-0.034700000000000175,-0.02627118883849373
-0.035700000000000065,-0.026412659968480235
-0.03670000000000018,-0.026539983985468085
-0.03770000000000007,-0.02658242532446404
-0.03870000000000018,-0.02659657243746269
-0.03970000000000007,-0.026667308002455942
-0.04070000000000018,-0.026808779132442447
-0.04170000000000007,-0.026907808923433
-0.04270000000000018,-0.0269643973754276
-0.04370000000000007,-0.026992691601424906
-0.044700000000000184,-0.027049280053419503
-0.045700000000000074,-0.027190751183406005
-0.046700000000000186,-0.027289780974396556
-0.047700000000000076,-0.02734636942639116
-0.04870000000000019,-0.02738881076538711
-0.04970000000000008,-0.027459546330380363
-0.05070000000000019,-0.027572723234369562
-0.05170000000000008,-0.02770004725135742
-0.05270000000000019,-0.02772834147735472
-0.05370000000000008,-0.02775663570335202
-0.05470000000000019,-0.027841518381343924
-0.05570000000000008,-0.02796884239833177
-0.056700000000000195,-0.02809616641531963
-0.057700000000000085,-0.02811031352831828
-0.058700000000000196,-0.02813860775431558
-0.059700000000000086,-0.028237637545306133
-0.0607000000000002,-0.028350814449295336
-0.06170000000000009,-0.02850643269228049
-0.0627000000000002,-0.028563021144275093
