Potential V vs RHE, Current mA cm-2
0.013299999999999867,0.7829012333453113
0.012299999999999978,-0.04582249900262853
0.011299999999999866,-0.9617207416482519
0.010299999999999976,-2.095187435100119
0.009299999999999864,-3.273641947887695
0.008299999999999974,-4.276672259492005
0.007299999999999862,-4.9302688800296535
0.006299999999999972,-5.235846520800501
0.00529999999999986,-5.367414671687949
0.0042999999999999705,-5.715433651454749
0.0032999999999998586,-6.37044498329226
0.0022999999999999687,-7.243321855308987
0.0012999999999998568,-7.7653503249591855
0.00029999999999996696,-7.984630576438266
-0.000700000000000145,-7.940774526142452
-0.0017000000000000348,-8.027071915434218
-0.0027000000000001467,-8.376505606500881
-0.0037000000000000366,-8.987660888042578
-0.0047000000000001485,-9.59740145828441
-0.005700000000000038,-9.99069119964689
-0.00670000000000015,-10.034547249942705
-0.00770000000000004,-9.85912304875944
-0.008700000000000152,-9.902979099055257
-0.009700000000000042,-10.25241279012192
-0.010700000000000154,-10.819712021367803
-0.011700000000000044,-11.299299152022046
-0.012700000000000156,-11.42945259160963
-0.013700000000000045,-11.299299152022046
-0.014700000000000157,-11.1677310011346
-0.015700000000000047,-11.211587051430415
-0.01670000000000016,-11.691174182084664
-0.01770000000000005,-12.258473413330542
-0.01870000000000016,-12.694204493688973
-0.01970000000000005,-12.781916594280606
-0.020700000000000163,-12.651763154693022
-0.021700000000000053,-12.56405105410139
-0.022700000000000164,-12.825772644576423
-0.023700000000000054,-13.3930718758223
-0.024700000000000166,-13.916515056772363
-0.025700000000000056,-14.26028990263957
-0.026700000000000168,-14.217848563643619
-0.027700000000000058,-14.090524546655764
-0.02870000000000017,-14.090524546655764
-0.02970000000000006,-14.486643710617974
-0.03070000000000017,-15.01008689156804
-0.03170000000000006,-15.491088733522153
-0.03270000000000017,-15.618412750510005
-0.03370000000000006,-15.533530072518102
-0.034700000000000175,-15.307176264539699
-0.035700000000000065,-15.349617603535648
-0.03670000000000018,-15.78817810649381
-0.03770000000000007,-16.311621287443874
-0.03870000000000018,-16.665299112410132
-0.03970000000000007,-16.70774045140608
-0.04070000000000018,-16.580416434418233
-0.04170000000000007,-16.438945304431726
-0.04270000000000018,-16.750181790402035
-0.04370000000000007,-17.231183632356142
-0.044700000000000184,-17.839509491298113
-0.045700000000000074,-18.19318731626437
-0.046700000000000186,-18.23562865526032
-0.047700000000000076,-18.009274847281915
-0.04870000000000019,-18.15074597726842
-0.04970000000000008,-18.53271802823198
-0.05070000000000019,-19.155191000172596
-0.05170000000000008,-19.721075520118614
-0.05270000000000019,-19.890840876102416
-0.05370000000000008,-19.848399537106463
-0.05470000000000019,-19.678634181122664
-0.05570000000000008,-19.805958198110513
-0.056700000000000195,-20.286960040064624
-0.057700000000000085,-20.89528589900659
-0.058700000000000196,-21.291405062968803
-0.059700000000000086,-21.418729079956652
-0.0607000000000002,-21.2065223849769
-0.06170000000000009,-21.2065223849769
-0.0627000000000002,-21.418729079956652
-0.06370000000000009,-21.94217226090672
-0.0647000000000002,-22.508056780852733
-0.06570000000000009,-22.904175944814945
-0.0667000000000002,-22.904175944814945
-0.0677000000000001,-22.776851927827092
-0.0687000000000002,-22.861734605818995
-0.0697000000000001,-23.24370665678255
-0.07070000000000021,-23.951062306715073
-0.0717000000000001,-24.474505487665134
-0.07270000000000021,-24.729153521640843
-0.0737000000000001,-24.64427084364894
-0.07470000000000021,-24.559388165657033
-0.0757000000000001,-24.601829504652986
-0.07670000000000021,-25.04039000761115
-0.0777000000000001,-25.521391849565262
-0.07870000000000021,-25.91751101352747
-0.0797000000000001,-25.91751101352747
-0.08070000000000022,-25.691157205549064
-0.0817000000000001,-25.521391849565262
-0.08270000000000022,-25.648715866553115
-0.08370000000000011,-26.087276369511276
-0.08470000000000022,-26.525836872469437
-0.08570000000000011,-26.822926245441096
-0.08670000000000022,-26.822926245441096
-0.08770000000000011,-26.69560222845324
-0.08870000000000022,-26.738043567449193
-0.08970000000000011,-27.176604070407354
-0.09070000000000022,-27.827371268345274
-0.09170000000000011,-28.577168257273744
-0.09270000000000023,-28.91669896924135
-0.09370000000000012,-28.959140308237306
-0.09470000000000023,-28.789374952253496
-0.09570000000000012,-28.789374952253496
-0.09670000000000023,-29.058170099227848
-0.09770000000000012,-29.39770081119546
-0.09870000000000023,-29.581613280177915
-0.09970000000000012,-29.39770081119546
-0.10070000000000023,-29.001581647233255
-0.10170000000000012,-28.746933613257543
-0.10270000000000024,-29.001581647233255
-0.10370000000000013,-29.62405461917387
-0.10470000000000024,-30.487028512091538
-0.10570000000000013,-31.010471693041605
-0.10670000000000024,-31.27926684001596
-0.10770000000000013,-31.36414951800786
-0.10870000000000024,-31.717827342974125
-0.10970000000000013,-32.41103587990799
-0.11070000000000024,-33.231568433829715
-0.11170000000000013,-33.85404140577033
-0.11270000000000002,-34.193572117737936
-0.11370000000000013,-34.278454795729836
-0.11470000000000002,-34.236013456733886
-0.11570000000000014,-34.50480860370825
-0.11670000000000003,-35.02825178465831
-0.11770000000000014,-35.763901660588125
-0.11870000000000003,-36.20246216354629
-0.11970000000000014,-36.37222751953009
-0.12070000000000003,-36.28734484153819
-0.12170000000000014,-36.28734484153819
-0.12270000000000003,-36.5985813275085
-0.12370000000000014,-37.07958316946261
-0.12470000000000003,-37.60302635041268
-0.12570000000000014,-37.81523304539243
-0.12670000000000003,-37.645467689408626
-0.12770000000000015,-37.206907186450465
-0.12870000000000004,-36.99470049147071
-0.12970000000000015,-37.07958316946261
-0.13070000000000004,-37.47570233342482
-0.13170000000000015,-37.687909028404576
-0.13270000000000004,-37.77279170639648
-0.13370000000000015,-37.47570233342482
-0.13470000000000004,-37.249348525446415
-0.13570000000000015,-37.164465847454515
-0.13670000000000004,-37.51814367242077
-0.13770000000000016,-38.08402819236679
-0.13870000000000005,-38.5650300343209
-0.13970000000000016,-38.777236729300654
-0.14070000000000005,-38.734795390304704
-0.14170000000000016,-38.777236729300654
-0.14270000000000005,-39.21579723225882
-0.14370000000000016,-39.86656443019674
-0.14470000000000005,-40.616361419125205
-0.14570000000000016,-41.083216148080666
-0.14670000000000005,-41.083216148080666
-0.14770000000000016,-41.04077480908471
-0.14870000000000005,-41.083216148080666
-0.14970000000000017,-41.47933531204288
-0.15070000000000006,-42.00277849299294
-0.15170000000000017,-42.4413389959511
-0.15270000000000006,-42.526221673943
-0.15370000000000017,-42.3564563179592
-0.15470000000000006,-42.04521983198889
-0.15570000000000017,-42.087661170984845
-0.15670000000000006,-42.483780334947056
-0.15770000000000017,-42.96478217690117
-0.15870000000000006,-43.31846000186743
-0.15970000000000018,-43.36090134086337
-0.16070000000000007,-43.31846000186743
-0.16170000000000018,-43.36090134086337
-0.16270000000000007,-43.75702050482558
-0.16370000000000018,-44.36534636376755
-0.16470000000000007,-45.01611356170547
-0.16570000000000018,-45.412232725667685
-0.16670000000000007,-45.497115403659585
-0.16770000000000018,-45.497115403659585
-0.16870000000000007,-45.666880759643384
-0.16970000000000018,-46.27520661858535
-0.17070000000000007,-46.94012092952192
-0.17170000000000019,-47.54844678846388
-0.17270000000000008,-47.76065348344364
-0.1737000000000002,-47.76065348344364
-0.17470000000000008,-47.633329466455784
-0.1757000000000002,-47.67577080545174
-0.17670000000000008,-47.93041883942744
-0.1777000000000002,-48.41142068138156
-0.17870000000000008,-48.63777448935996
-0.1797000000000002,-48.68021582835591
-0.18070000000000008,-48.45386202037751
-0.1817000000000002,-48.41142068138156
-0.18270000000000008,-48.72265716735186
-0.1837000000000002,-49.24610034830193
-0.1847000000000001,-49.98175022423175
-0.1857000000000002,-50.547634744177756
-0.1867000000000001,-50.77398855215617
-0.1877000000000002,-50.77398855215617
-0.1887000000000001,-50.943753908139975
-0.1897000000000002,-51.46719708909004
-0.1907000000000001,-52.25943541701445
-0.1917000000000001,-52.86776127595642
-0.19269999999999998,-53.26388043991864
-0.1937000000000001,-53.16485064892808
-0.19469999999999998,-53.079967970936174
-0.1957000000000001,-53.30632177891458
-0.19669999999999999,-53.91464763785655
-0.1977000000000001,-54.69273885278232
-0.1987,-55.21618203373238
-0.1997000000000001,-55.31521182472294
-0.2007,-55.13129935574048
-0.2017000000000001,-55.088858016744524
-0.2027,-55.400094502714836
-0.2037000000000001,-55.96597902266086
-0.2047,-56.36209818662306
-0.2057000000000001,-56.489422203610914
-0.2067,-56.22062705663656
-0.2077000000000001,-56.05086170065276
-0.2087,-56.1781857176406
-0.2097000000000001,-56.786511576582576
-0.2107,-57.493867226515086
-0.2117000000000001,-58.10219308545706
-0.2127,-58.54075358841522
-0.2137000000000001,-58.75296028339497
-0.2147,-59.02175543036933
-0.2157000000000001,-59.502757272323436
-0.2167,-60.19596580925731
-0.21770000000000012,-60.93161568518713
-0.2187,-61.49750020513315
-0.21970000000000012,-61.6814126741156
-0.2207,-61.7662953521075
-0.22170000000000012,-61.80873669110345
-0.2227,-62.16241451606972
-0.22370000000000012,-62.68585769701977
-0.2247,-63.3366248949577
-0.22570000000000012,-63.77518539791585
-0.2267,-63.77518539791585
-0.22770000000000012,-63.46394891194555
-0.22870000000000001,-63.3366248949577
-0.22970000000000013,-63.6761556069253
-0.23070000000000002,-64.15715744887942
-0.23170000000000013,-64.72304196882543
-0.23270000000000002,-64.90695443780788
-0.23370000000000013,-64.86451309881193
-0.23470000000000002,-64.94939577680383
-0.23570000000000013,-65.5577216357458
-0.23670000000000002,-66.43484264166212
-0.2376999999999999,-67.56661168155415
-0.23870000000000002,-68.44373268747047
-0.2396999999999999,-68.78326339943808
-0.24070000000000003,-68.69838072144618
-0.24169999999999991,-68.44373268747047
-0.24270000000000003,-68.30226155748396
-0.24369999999999992,-68.30226155748396
-0.24470000000000003,-68.21737887949207
-0.24569999999999992,-68.0051721845123
-0.24670000000000003,-67.6090530205501
-0.24769999999999992,-67.21293385658788
-0.24870000000000003,-67.2978165345798
-0.24969999999999992,-67.9202895065204
-0.25070000000000003,-69.13694122440434
-0.2516999999999999,-70.66482942825859
-0.25270000000000004,-72.19271763211282
-0.2536999999999999,-73.40936934999675
-0.25470000000000004,-74.58357972888473
-0.2556999999999999,-75.77193722077136
-0.25670000000000004,-77.11591295564315
-0.25769999999999993,-78.33256467352709
-0.25870000000000004,-79.08236166245555
-0.25969999999999993,-79.16724434044745
-0.26070000000000004,-78.8135665154812
-0.26169999999999993,-78.29012333453113
-0.26270000000000004,-77.99303396155948
-0.26369999999999993,-78.03547530055542
-0.26470000000000005,-78.03547530055542
-0.26569999999999994,-77.80912149257702
-0.26670000000000005,-77.243236972631
-0.26769999999999994,-76.67735245268499
-0.26870000000000005,-76.46514575770523
-0.26969999999999994,-76.71979379168094
-0.27070000000000005,-77.11591295564315
-0.27169999999999994,-77.28567831162695
-0.27270000000000005,-77.0734716166472
-0.27369999999999994,-76.71979379168094
-0.27470000000000006,-76.55002843569714
-0.27569999999999995,-76.67735245268499
-0.27670000000000006,-77.1583542946391
-0.27769999999999995,-77.80912149257702
-0.27870000000000006,-78.43159446451764
-0.27969999999999995,-78.77112517648524
-0.28070000000000006,-79.16724434044745
-0.28169999999999995,-79.56336350440966
-0.28270000000000006,-80.17168936335163
-0.28369999999999995,-80.7800152222936
-0.28470000000000006,-81.38834108123557
-0.28569999999999995,-81.82690158419373
-0.28670000000000007,-81.82690158419373
-0.28769999999999996,-81.47322375922747
-0.28870000000000007,-81.21857572525175
-0.28969999999999996,-81.26101706424771
-0.29070000000000007,-81.61469488921396
-0.29169999999999996,-82.09569673116808
-0.29270000000000007,-82.26546208715187
-0.29369999999999996,-82.26546208715187
-0.2947000000000001,-82.18057940915998
-0.29569999999999996,-82.43522744313569
-0.2967000000000001,-82.8313466070979
-0.29769999999999996,-83.43967246603985
-0.2987000000000001,-83.70846761301424
-0.29969999999999997,-83.43967246603985
-0.3007000000000001,-82.8313466070979
-0.30169999999999997,-82.35034476514379
-0.3027000000000001,-82.39278610413973
-0.30369999999999997,-82.8313466070979
-0.3047000000000001,-83.52455514403178
-0.30569999999999997,-83.92067430799398
-0.3067000000000001,-83.96311564698992
-0.3077,-83.79335029100612
-0.3087000000000001,-83.92067430799398
-0.3097,-84.27435213296022
-0.3107000000000001,-84.92511933089816
-0.3117,-85.44856251184822
-0.3127000000000001,-85.49100385084417
-0.3137,-85.052443347886
-0.3147000000000001,-84.52900016693594
-0.3157,-84.31679347195619
-0.3167000000000001,-84.23191079396429
-0.3177,-84.31679347195619
-0.3187000000000001,-84.04799832498183
-0.3197,-83.43967246603985
-0.3207000000000001,-82.746463929106
-0.3217,-82.39278610413973
-0.3227000000000001,-82.43522744313569
-0.3237,-82.9162292850898
-0.3247000000000001,-83.31234844905201
-0.3257,-83.56699648302772
-0.3267000000000001,-83.60943782202366
-0.3277,-83.56699648302772
-0.3287000000000001,-83.70846761301424
-0.3297,-84.04799832498183
-0.3307000000000001,-84.48655882793999
-0.3317,-84.84023665290624
-0.3327000000000001,-84.7977953139103
-0.3337,-84.48655882793999
-0.3347000000000001,-84.09043966397778
-0.3357,-83.83579163000208
-0.3367000000000001,-83.87823296899803
-0.3377,-84.13288100297372
-0.3387000000000001,-84.31679347195619
-0.3397,-84.13288100297372
-0.3407000000000001,-83.60943782202366
-0.3417,-83.04355330207765
-0.3427000000000001,-82.746463929106
-0.3437,-82.746463929106
-0.3447000000000001,-82.87378794609386
-0.3457,-82.78890526810196
-0.3467000000000001,-82.30790342614785
-0.3477,-81.61469488921396
-0.3487000000000001,-81.09125170826391
-0.3497,-80.99222191727335
-0.3507000000000001,-81.09125170826391
-0.3517,-81.21857572525175
-0.3527000000000001,-80.82245656128954
-0.3537,-80.29901338033947
-0.3547000000000001,-79.69068752139752
-0.3557,-79.37945103542721
-0.35670000000000013,-79.37945103542721
-0.3577,-79.60580484340561
-0.35870000000000013,-79.56336350440966
-0.3597,-79.08236166245555
-0.36070000000000013,-78.47403580351359
-0.3617,-77.90815128356756
-0.3626999999999999,-77.7242388145851
-0.3637,-77.86570994457162
-0.3646999999999999,-77.95059262256353
-0.3657,-77.76668015358106
-0.3666999999999999,-77.28567831162695
-0.3677,-76.50758709670117
-0.3686999999999999,-75.94170257675518
-0.36970000000000003,-75.63046609078486
-0.3706999999999999,-75.71534876877676
-0.37170000000000003,-75.8992612377592
-0.3726999999999999,-75.81437855976732
-0.37370000000000003,-75.50314207379701
-0.3746999999999999,-75.06458157083884
-0.37570000000000003,-74.80993353686314
-0.3766999999999999,-74.8523748758591
-0.37770000000000004,-75.14946424883075
-0.3786999999999999,-75.2484940398213
-0.37970000000000004,-75.06458157083884
-0.3806999999999999,-74.54113838988879
-0.38170000000000004,-74.0176952089387
-0.38269999999999993,-73.76304717496302
-0.38370000000000004,-74.0176952089387
-0.38469999999999993,-74.45625571189689
-0.38570000000000004,-74.76749219786718
-0.38669999999999993,-74.62602106788069
-0.38770000000000004,-74.28649035591307
-0.38869999999999993,-74.14501922592657
-0.38970000000000005,-74.45625571189689
-0.39069999999999994,-75.1070229098348
-0.39170000000000005,-75.5880247517889
-0.39269999999999994,-75.77193722077136
-0.39370000000000005,-75.46070073480107
-0.39469999999999994,-75.14946424883075
-0.39570000000000005,-75.06458157083884
-0.39669999999999994,-75.46070073480107
-0.39770000000000005,-76.02658525474708
-0.39869999999999994,-76.29538040172143
-0.39970000000000006,-76.06902659374302
-0.40069999999999995,-75.81437855976732
-0.40170000000000006,-75.6729074297808
-0.40269999999999995,-75.98414391575112
-0.40370000000000006,-76.55002843569714
-0.40469999999999995,-77.0734716166472
-0.40570000000000006,-77.28567831162695
-0.40669999999999995,-77.20079563363505
-0.40770000000000006,-77.0734716166472
-0.40869999999999995,-77.11591295564315
-0.40970000000000006,-77.51203211960537
-0.41069999999999995,-77.90815128356756
-0.41170000000000007,-78.33256467352709
-0.41269999999999996,-78.51647714250953
-0.41370000000000007,-78.55891848150549
-0.41469999999999996,-78.64380115949739
-0.41570000000000007,-78.9550376454677
-0.41669999999999996,-79.52092216541372
-0.41770000000000007,-80.29901338033947
-0.41869999999999996,-80.86489790028548
-0.4197000000000001,-81.04881036926795
-0.42069999999999996,-81.1761343862558
-0.4217000000000001,-81.43078242023151
-0.42269999999999996,-82.13813807016405
-0.4237000000000001,-83.04355330207765
-0.42469999999999997,-84.00555698598588
-0.4257000000000001,-84.52900016693594
-0.42669999999999997,-84.6563241839238
-0.4277000000000001,-84.52900016693594
-0.42869999999999997,-84.57144150593189
-0.4297000000000001,-84.92511933089816
-0.43069999999999997,-85.44856251184822
-0.4317000000000001,-85.80224033681448
-0.4327,-85.80224033681448
-0.4337000000000001,-85.61832786783202
-0.4347,-85.44856251184822
-0.4357000000000001,-85.66076920682796
-0.4367,-86.18421238777805
-0.4377000000000001,-87.01889205469841
-0.4387,-87.62721791364037
-0.4397000000000001,-88.06577841659853
-0.4407,-88.4194562415648
-0.4417000000000001,-88.8438696315243
-0.4427,-89.50878394246087
-0.4437000000000001,-90.37175783537855
-0.4447,-91.12155482430701
-0.4457000000000001,-91.64499800525708
-0.4467,-91.98452871722468
-0.4477000000000001,-92.08355850821525
-0.4487,-92.29576520319499
-0.4497000000000001,-92.73432570615316
-0.4507,-93.38509290409107
-0.4517000000000001,-94.07830144102493
-0.4527,-94.601744621975
-0.4537000000000001,-94.78565709095746
-0.4547,-94.99786378593721
-0.4557000000000001,-95.22421759391563
-0.4567,-95.87498479185354
-0.4577000000000001,-96.79454713676581
-0.4587,-97.4877556736997
-0.4597000000000001,-97.84143349866595
-0.4607,-97.92631617665783
-0.4617000000000001,-98.01119885464975
-0.4627,-98.49220069660386
-0.4637000000000001,-99.27029191152963
-0.4647,-100.14741291744595
-0.4657000000000001,-100.670856098396
-0.4667,-100.79818011538387
-0.4677000000000001,-100.98209258436633
-0.4687,-101.32162329633393
-0.4697000000000001,-102.24118564124619
-0.4707,-103.20318932515443
-0.4717000000000001,-104.12275167006669
-0.4727,-104.73107752900866
-0.4737000000000001,-105.11304957997223
-0.4747,-105.5516100829304
-0.4757000000000001,-106.30140707185885
-0.4767,-107.39073477275493
-0.4777000000000001,-108.69226916863077
-0.4787,-109.78159686952685
-0.4797000000000001,-110.48895251945936
-0.4807,-111.18216105639323
-0.48170000000000013,-112.01684072331359
-0.4827,-113.27593378019348
-0.48370000000000013,-114.71893930605583
-0.4847,-116.20438617091412
-0.48570000000000013,-117.42103788879804
-0.4867,-117.33615521080614
-0.48570000000000013,-115.5819131989735
-0.4847,-114.23793746410173
-0.48370000000000013,-113.40325779718134
-0.4827,-112.75249059924342
-0.48170000000000013,-112.10172340130552
-0.4807,-111.09727837840134
-0.4797000000000001,-109.92306799951335
-0.4787,-108.73471050762672
-0.4777000000000001,-107.78685393671715
-0.4767,-107.07949828678463
-0.4757000000000001,-106.68337912282242
-0.4747,-106.07505326388046
-0.4737000000000001,-105.25452070995874
-0.4727,-104.2925170260505
-0.4717000000000001,-103.50027869812607
-0.4707,-103.07586530816658
-0.4697000000000001,-102.93439417818009
-0.4687,-102.84951150018817
-0.4677000000000001,-102.45339233622596
-0.4667,-101.76018379929208
-0.4657000000000001,-100.62841475940007
-0.4647,-99.62396973649588
-0.4637000000000001,-98.88831986056607
-0.4627,-98.40731801861195
-0.4617000000000001,-97.74240370767538
-0.4607,-96.87942981475771
