Potential V vs RHE, Current mA cm-2
0.013299999999999867,0.5647527509061226
0.012299999999999978,-0.8308599464107361
0.011299999999999866,-1.9650339955125358
0.010299999999999976,-2.968064307116847
0.009299999999999864,-3.884797229429391
0.008299999999999974,-4.582249900262854
0.007299999999999862,-5.411270721983764
0.006299999999999972,-6.064867342521412
0.00529999999999986,-6.981600264833956
0.0042999999999999705,-7.809206375255003
0.0032999999999998586,-8.638227196975913
0.0022999999999999687,-9.467248018696827
0.0012999999999998568,-10.340124890713554
0.00029999999999996696,-11.037577561547016
-0.000700000000000145,-11.73503023238048
-0.0017000000000000348,-12.170761312738911
-0.0027000000000001467,-12.56405105410139
-0.0037000000000000366,-12.913484745168056
-0.0047000000000001485,-13.13135028534727
-0.005700000000000038,-13.3930718758223
-0.00670000000000015,-13.784946905884919
-0.00770000000000004,-14.175407224647667
-0.008700000000000152,-14.65640906660178
-0.009700000000000042,-15.179852247551842
-0.010700000000000154,-15.70329542850191
-0.011700000000000044,-16.354062626439823
-0.012700000000000156,-16.835064468393938
-0.013700000000000045,-17.231183632356142
-0.014700000000000157,-17.4433903273359
-0.015700000000000047,-17.669744135314307
-0.01670000000000016,-17.881950830294063
-0.01770000000000005,-18.06586329927652
-0.01870000000000016,-18.06586329927652
-0.01970000000000005,-18.27806999425627
-0.020700000000000163,-18.49027668923603
-0.021700000000000053,-18.843954514202288
-0.022700000000000164,-19.28251501716045
-0.023700000000000054,-19.763516859114564
-0.024700000000000166,-20.286960040064624
-0.025700000000000056,-20.72552054302279
-0.026700000000000168,-21.107492593986347
-0.027700000000000058,-21.376287740960702
-0.02870000000000017,-21.63093577493641
-0.02970000000000006,-21.772406904922917
-0.03070000000000017,-21.899730921910766
-0.03170000000000006,-21.899730921910766
-0.03270000000000017,-22.15437895588647
-0.03370000000000006,-22.33829142486893
-0.034700000000000175,-22.72026347583249
-0.035700000000000065,-23.15882397879065
-0.03670000000000018,-23.597384481748815
-0.03770000000000007,-24.120827662698876
-0.03870000000000018,-24.64427084364894
-0.03970000000000007,-25.04039000761115
-0.04070000000000018,-25.43650917157336
-0.04170000000000007,-25.77603988354097
-0.04270000000000018,-25.91751101352747
-0.04370000000000007,-26.129717708507226
-0.044700000000000184,-26.17215904750318
-0.045700000000000074,-26.38436574248293
-0.046700000000000186,-26.65316088945729
-0.047700000000000076,-26.9643973754276
-0.04870000000000019,-27.303928087395207
-0.04970000000000008,-27.742488590353368
-0.05070000000000019,-28.22349043230748
-0.05170000000000008,-28.831816291249446
-0.05270000000000019,-29.18549411621571
-0.05370000000000008,-29.581613280177915
-0.05470000000000019,-29.878702653149578
-0.05570000000000008,-30.04846800913338
-0.056700000000000195,-30.232380478115836
-0.057700000000000085,-30.359704495103685
-0.058700000000000196,-30.487028512091538
-0.059700000000000086,-30.7558236590659
-0.0607000000000002,-31.010471693041605
-0.06170000000000009,-31.40659085700382
-0.0627000000000002,-31.972475376949827
-0.06370000000000009,-32.45347721890394
-0.0647000000000002,-33.06180307784591
-0.06570000000000009,-33.50036358080407
-0.0667000000000002,-34.02380676175414
-0.0677000000000001,-34.41992592571634
-0.0687000000000002,-34.717015298688004
-0.0697000000000001,-34.94336910666641
-0.07070000000000021,-35.07069312365426
-0.0717000000000001,-35.15557580164616
-0.07270000000000021,-35.46681228761647
-0.0737000000000001,-35.679018982596226
-0.07470000000000021,-36.07513814655844
-0.0757000000000001,-36.5985813275085
-0.07670000000000021,-37.122024508458566
-0.0777000000000001,-37.687909028404576
-0.07870000000000021,-38.253793548350586
-0.0797000000000001,-38.692354051308754
-0.08070000000000022,-39.173355893262865
-0.0817000000000001,-39.42800392723857
-0.08270000000000022,-39.61191639622103
-0.08370000000000011,-39.86656443019674
-0.08470000000000022,-39.95144710818864
-0.08570000000000011,-40.135359577171094
-0.08670000000000022,-40.3900076111468
-0.08770000000000011,-40.65880275812115
-0.08870000000000022,-41.182245939071215
-0.08970000000000011,-41.56421799003478
-0.09070000000000022,-42.04521983198889
-0.09170000000000011,-42.653545690930855
-0.09270000000000023,-43.09210619388902
-0.09370000000000012,-43.53066669684718
-0.09470000000000023,-43.79946184382153
-0.09570000000000012,-43.96922719980534
-0.09670000000000023,-44.138992555789144
-0.09770000000000012,-44.3229050247716
-0.09870000000000023,-44.4077877027635
-0.09970000000000012,-44.577553058747306
-0.10070000000000023,-44.84634820572166
-0.10170000000000012,-45.22832025668522
-0.10270000000000024,-45.666880759643384
-0.10370000000000013,-46.19032394059345
-0.10470000000000024,-46.67132578254756
-0.10570000000000013,-47.15232762450167
-0.10670000000000024,-47.633329466455784
-0.10770000000000013,-47.987007291422046
-0.10870000000000024,-48.24165532539775
-0.10970000000000013,-48.59533315036401
-0.11070000000000024,-48.80753984534376
-0.11170000000000013,-48.97730520132757
-0.11270000000000002,-49.33098302629383
-0.11370000000000013,-49.59977817326819
-0.11470000000000002,-50.12322135421825
-0.11570000000000014,-50.64666453516831
-0.11670000000000003,-51.17010771611838
-0.11770000000000014,-51.77843357506035
-0.11870000000000003,-52.471642111994214
-0.11970000000000014,-52.995085292944275
-0.12070000000000003,-53.56096981289029
-0.12170000000000014,-53.872206298860604
-0.12270000000000003,-54.2117370108282
-0.12370000000000014,-54.480532157802564
-0.12470000000000003,-54.65029751378637
-0.12570000000000014,-54.834209982768826
-0.12670000000000003,-55.088858016744524
-0.12770000000000015,-55.400094502714836
-0.12870000000000004,-55.7820665536784
-0.12970000000000015,-56.22062705663656
-0.13070000000000004,-56.65918755959472
-0.13170000000000015,-57.30995475753264
-0.13270000000000004,-57.7485152604908
-0.13370000000000015,-58.22951710244491
-0.13470000000000004,-58.498312249419264
-0.13570000000000015,-58.71051894439902
-0.13670000000000004,-58.880284300382826
-0.13770000000000016,-59.06419676936528
-0.13870000000000005,-59.06419676936528
-0.13970000000000016,-59.27640346434504
-0.14070000000000005,-59.44616882032884
-0.14170000000000016,-59.842287984291055
-0.14270000000000005,-60.28084848724921
-0.14370000000000016,-60.84673300719523
-0.14470000000000005,-61.49750020513315
-0.14570000000000016,-62.02094338608321
-0.14670000000000005,-62.501945228037314
-0.14770000000000016,-62.89806439199953
-0.14870000000000005,-63.3366248949577
-0.14970000000000017,-63.633714267929356
-0.15070000000000006,-63.81762673691181
-0.15170000000000017,-63.944950753899654
-0.15270000000000006,-64.34106991786187
-0.15370000000000017,-64.63815929083353
-0.15470000000000006,-65.20404381077954
-0.15570000000000017,-65.76992833072556
-0.15670000000000006,-66.43484264166212
-0.15770000000000017,-67.17049251759194
-0.15870000000000006,-67.86370105452582
-0.15970000000000018,-68.48617402646643
-0.16070000000000007,-69.05205854641244
-0.16170000000000018,-69.53306038836655
-0.16270000000000007,-69.8301497613382
-0.16370000000000018,-70.14138624730852
-0.16470000000000007,-70.31115160329232
-0.16570000000000018,-70.62238808926263
-0.16670000000000007,-70.87703612323833
-0.16770000000000018,-71.18827260920865
-0.16870000000000007,-71.6268331121668
-0.16970000000000018,-72.05124650212633
-0.17070000000000007,-72.53224834408043
-0.17170000000000019,-73.15472131602105
-0.17270000000000008,-73.45181068899271
-0.1737000000000002,-73.8479298529549
-0.17470000000000008,-74.10257788693062
-0.1757000000000002,-74.24404901691713
-0.17670000000000008,-74.32893169490903
-0.1777000000000002,-74.45625571189689
-0.17870000000000008,-74.54113838988879
-0.1797000000000002,-74.76749219786718
-0.18070000000000008,-74.97969889284694
-0.1817000000000002,-75.2484940398213
-0.18270000000000008,-75.6729074297808
-0.1837000000000002,-76.11146793273898
-0.1847000000000001,-76.63491111368903
-0.1857000000000002,-76.98858893865528
-0.1867000000000001,-77.46959078060941
-0.1877000000000002,-77.80912149257702
-0.1887000000000001,-78.03547530055542
-0.1897000000000002,-78.29012333453113
-0.1907000000000001,-78.43159446451764
-0.1917000000000001,-78.51647714250953
-0.19269999999999998,-78.72868383748929
-0.1937000000000001,-78.85600785447714
-0.19469999999999998,-79.20968567944341
-0.1957000000000001,-79.69068752139752
-0.19669999999999999,-80.17168936335163
-0.1977000000000001,-80.7800152222936
-0.1987,-81.30345840324367
-0.1997000000000001,-81.86934292318966
-0.2007,-82.39278610413973
-0.2017000000000001,-82.746463929106
-0.2027,-82.9162292850898
-0.2037000000000001,-83.18502443206415
-0.2047,-83.31234844905201
-0.2057000000000001,-83.52455514403178
-0.2067,-83.75090895201016
-0.2077000000000001,-84.09043966397778
-0.2087,-84.61388284492786
-0.2097000000000001,-85.23635581686847
-0.2107,-85.80224033681448
-0.2117000000000001,-86.5378902127443
-0.2127,-87.10377473269031
-0.2137000000000001,-87.62721791364037
-0.2147,-88.06577841659853
-0.2157000000000001,-88.27798511157829
-0.2167,-88.5892215975486
-0.21770000000000012,-88.80142829252836
-0.2187,-88.9853407615108
-0.21970000000000012,-89.19754745649055
-0.2207,-89.46634260346492
-0.22170000000000012,-89.94734444541903
-0.2227,-90.41419917437449
-0.22370000000000012,-90.99423080731917
-0.2247,-91.56011532726518
-0.22570000000000012,-92.08355850821525
-0.2267,-92.50797189817473
-0.22770000000000012,-92.81920838414506
-0.22870000000000001,-93.08800353111941
-0.22970000000000013,-93.34265156509512
-0.23070000000000002,-93.51241692107894
-0.23170000000000013,-93.61144671206948
-0.23270000000000002,-93.86609474604518
-0.23370000000000013,-94.07830144102493
-0.23470000000000002,-94.47442060498715
-0.23570000000000013,-94.95542244694126
-0.23670000000000002,-95.39398294989942
-0.2376999999999999,-96.00230880884139
-0.23870000000000002,-96.61063466778336
-0.2396999999999999,-97.09163650973747
-0.24070000000000003,-97.61507969068752
-0.24169999999999991,-97.88387483766188
-0.24270000000000003,-98.18096421063355
-0.24369999999999992,-98.364876679616
-0.24470000000000003,-98.4497593576079
-0.24569999999999992,-98.6195247135917
-0.24670000000000003,-98.88831986056607
-0.24769999999999992,-99.18540923353773
-0.24870000000000003,-99.62396973649588
-0.24969999999999992,-100.06253023945405
-0.25070000000000003,-100.58597342040412
-0.2516999999999999,-101.27918195733798
-0.25270000000000004,-101.71774246029614
-0.2536999999999999,-102.1563029632543
-0.25470000000000004,-102.41095099723
-0.2556999999999999,-102.5524221272165
-0.25670000000000004,-102.63730480520842
-0.25769999999999993,-102.72218748320032
-0.25870000000000004,-102.72218748320032
-0.25969999999999993,-102.93439417818009
-0.26070000000000004,-103.28807200314633
-0.26169999999999993,-103.76907384510045
-0.26270000000000004,-104.3773997040424
-0.26369999999999993,-105.07060824097626
-0.26470000000000005,-105.94772924689259
-0.26569999999999994,-106.59849644483052
-0.26670000000000005,-107.26341075576708
-0.26769999999999994,-107.78685393671715
-0.26870000000000005,-108.2537086656726
-0.26969999999999994,-108.64982782963483
-0.27070000000000005,-108.96106431560513
-0.27169999999999994,-109.21571234958083
-0.27270000000000005,-109.73915553053091
-0.27369999999999994,-110.17771603348905
-0.27470000000000006,-110.82848323142699
-0.27569999999999995,-111.49339754236355
-0.27670000000000006,-112.18660607929739
-0.27769999999999995,-112.92225595522721
-0.27870000000000006,-113.58717026616378
-0.27969999999999995,-114.1530547861098
-0.28070000000000006,-114.67649796705987
-0.28169999999999995,-115.05847001802343
-0.28270000000000006,-115.28482382600184
-0.28369999999999995,-115.4121478429897
-0.28470000000000006,-115.4121478429897
-0.28569999999999995,-115.5819131989735
-0.28670000000000007,-115.68094298996405
-0.28769999999999996,-115.80826700695191
-0.28870000000000007,-116.06291504092759
-0.28969999999999996,-116.41659286589388
-0.29070000000000007,-116.77027069086012
-0.29169999999999996,-117.29371387181018
-0.29270000000000007,-117.54836190578591
-0.29369999999999996,-117.98692240874406
-0.2947000000000001,-118.1991291037238
-0.29569999999999996,-118.42548291170223
-0.2967000000000001,-118.59524826768603
-0.29769999999999996,-118.86404341466037
-0.2987000000000001,-119.16113278763203
-0.29969999999999997,-119.55725195159425
-0.3007000000000001,-120.03825379354835
-0.30169999999999997,-120.64657965249035
-0.3027000000000001,-121.52370065840667
-0.30369999999999997,-122.42911589032028
-0.3047000000000001,-123.43356091322445
-0.30569999999999997,-124.26824058014482
-0.3067000000000001,-125.14536158606113
-0.3077,-125.83857012299501
-0.3087000000000001,-126.40445464294103
-0.3097,-126.97033916288706
-0.3107000000000001,-127.4088996658452
-0.3117,-127.76257749081147
-0.3127000000000001,-128.28602067176152
-0.3137,-128.62555138372915
-0.3147000000000001,-129.10655322568326
-0.3157,-129.58755506763737
-0.3167000000000001,-129.9412328926036
-0.3177,-130.37979339556176
-0.3187000000000001,-130.59200009054155
-0.3197,-130.76176544652535
-0.3207000000000001,-130.8042067855213
-0.3217,-130.59200009054155
-0.3227000000000001,-130.28076360457123
-0.3237,-130.02611557059552
-0.3247000000000001,-129.7148790846252
-0.3257,-129.58755506763737
-0.3267000000000001,-129.50267238964545
-0.3277,-129.5451137286414
-0.3287000000000001,-129.7148790846252
-0.3297,-129.9412328926036
-0.3307000000000001,-130.06855690959148
-0.3317,-130.32320494356716
-0.3327000000000001,-130.50711741254963
-0.3337,-130.7193241075294
-0.3347000000000001,-130.8042067855213
-0.3357,-130.8042067855213
-0.3367000000000001,-131.03056059349967
-0.3377,-131.2003259494835
-0.3387000000000001,-131.32764996647134
-0.3397,-131.5964451134457
-0.3407000000000001,-131.89353448641737
-0.3417,-132.2896536503796
-0.3427000000000001,-132.72821415333775
-0.3437,-133.1667746562959
-0.3447000000000001,-133.64777649825
-0.3457,-134.08633700120816
-0.3467000000000001,-134.46830905217172
-0.3477,-134.77954553814206
-0.3487000000000001,-135.03419357211774
-0.3497,-135.34543005808808
-0.3507000000000001,-135.6142252050624
-0.3517,-135.78399056104624
-0.3527000000000001,-136.03863859502192
-0.3537,-136.26499240300032
-0.3547000000000001,-136.60452311496792
-0.3557,-136.95820093993422
-0.35670000000000013,-137.22699608690854
-0.3577,-137.56652679887617
-0.35870000000000013,-137.92020462384244
-0.3597,-138.13241131882216
-0.36070000000000013,-138.3587651268006
-0.3617,-138.3587651268006
-0.3626999999999999,-138.40120646579655
-0.3637,-138.3587651268006
-0.3646999999999999,-138.17485265781812
-0.3657,-138.08996997982624
-0.3666999999999999,-138.00508730183432
-0.3677,-138.00508730183432
-0.3686999999999999,-138.13241131882216
-0.36970000000000003,-138.23144110981272
-0.3706999999999999,-138.40120646579655
-0.37170000000000003,-138.65585449977226
-0.3726999999999999,-138.6982958387682
-0.37370000000000003,-138.65585449977226
-0.3746999999999999,-138.44364780479248
-0.37570000000000003,-138.08996997982624
-0.3766999999999999,-137.65140947686808
-0.37770000000000004,-137.2694374259045
-0.3786999999999999,-136.91575960093826
-0.37970000000000004,-136.83087692294635
-0.3806999999999999,-136.8733182619423
-0.38170000000000004,-137.08552495692206
-0.38269999999999993,-137.52408545988024
-0.38370000000000004,-138.00508730183432
-0.38469999999999993,-138.57097182178035
-0.38570000000000004,-138.92464964674662
-0.38669999999999993,-139.13685634172634
-0.38770000000000004,-139.05197366373446
-0.38869999999999993,-138.6982958387682
-0.38970000000000005,-138.23144110981272
-0.39069999999999994,-137.52408545988024
-0.39170000000000005,-136.7884355839504
-0.39269999999999994,-136.2225510640044
-0.39370000000000005,-135.65666654405837
-0.39469999999999994,-135.3029887190921
-0.39570000000000005,-135.03419357211774
-0.39669999999999994,-134.82198687713802
-0.39770000000000005,-134.6097801821582
-0.39869999999999994,-134.38342637417986
-0.39970000000000006,-133.9873072102176
-0.40069999999999995,-133.60533515925405
-0.40170000000000006,-133.08189197830401
-0.40269999999999995,-132.47356611936203
-0.40370000000000006,-131.95012293841197
-0.40469999999999995,-131.5115624354538
-0.40570000000000006,-131.37009130546733
-0.40669999999999995,-131.28520862747538
-0.40770000000000006,-131.4266797574619
-0.40869999999999995,-131.68132779143764
-0.40970000000000006,-131.99256427740792
-0.41069999999999995,-132.2896536503796
-0.41170000000000007,-132.72821415333775
-0.41269999999999996,-132.81309683132966
-0.41370000000000007,-133.03945063930803
-0.41469999999999996,-133.03945063930803
-0.41570000000000007,-133.03945063930803
-0.41669999999999996,-133.03945063930803
-0.41770000000000007,-132.99700930031207
-0.41869999999999996,-133.03945063930803
-0.4197000000000001,-133.1667746562959
-0.42069999999999996,-133.2516573342878
-0.4217000000000001,-133.4214226902716
-0.42269999999999996,-133.64777649825
-0.4237000000000001,-133.8599831932298
-0.42469999999999997,-134.17121967920008
-0.4257000000000001,-134.34098503518388
-0.42669999999999997,-134.6522215211542
-0.4277000000000001,-134.73710419914607
-0.42869999999999997,-134.77954553814206
-0.4297000000000001,-134.69466286015015
-0.43069999999999997,-134.6522215211542
-0.4317000000000001,-134.5107503911677
-0.4327,-134.56733884316228
-0.4337000000000001,-134.46830905217172
-0.4347,-134.6097801821582
-0.4357000000000001,-134.77954553814206
-0.4367,-134.94931089412586
-0.4377000000000001,-135.1332233631083
-0.4387,-135.17566470210423
-0.4397000000000001,-135.3029887190921
-0.4407,-135.3029887190921
-0.4417000000000001,-135.17566470210423
-0.4427,-134.94931089412586
-0.4437000000000001,-134.82198687713802
-0.4447,-134.5107503911677
-0.4457000000000001,-134.46830905217172
-0.4467,-134.256102357192
-0.4477000000000001,-134.21366101819604
-0.4487,-134.29854369618792
-0.4497000000000001,-134.38342637417986
-0.4507,-134.5107503911677
-0.4517000000000001,-134.77954553814206
-0.4527,-134.86442821613394
-0.4537000000000001,-134.94931089412586
-0.4547,-134.86442821613394
-0.4557000000000001,-134.56733884316228
-0.4567,-134.42586771317576
-0.4577000000000001,-134.17121967920008
-0.4587,-133.94486587122168
-0.4597000000000001,-133.77510051523788
-0.4607,-133.77510051523788
-0.4617000000000001,-133.90242453222572
-0.4627,-134.08633700120816
-0.4637000000000001,-134.256102357192
-0.4647,-134.5107503911677
-0.4657000000000001,-134.77954553814206
-0.4667,-134.94931089412586
-0.4677000000000001,-135.09078202411234
-0.4687,-135.17566470210423
-0.4697000000000001,-135.26054738009617
-0.4707,-135.34543005808808
-0.4717000000000001,-135.47275407507593
-0.4727,-135.6142252050624
-0.4737000000000001,-135.82643190004217
-0.4747,-136.26499240300032
-0.4757000000000001,-136.83087692294635
-0.4767,-137.43920278188833
-0.4777000000000001,-138.23144110981272
-0.4787,-138.92464964674662
-0.4797000000000001,-139.61785818368048
-0.4807,-140.2686253816184
-0.48170000000000013,-140.66474454558062
-0.4827,-141.01842237054686
-0.48370000000000013,-141.2306290655266
-0.4847,-141.3155117435185
-0.48570000000000013,-141.47112998650366
-0.4867,-140.74962722357247
-0.48570000000000013,-138.27388244880868
-0.4847,-136.03863859502192
-0.48370000000000013,-133.9873072102176
-0.4827,-132.11988829439576
-0.48170000000000013,-130.46467607355368
-0.4807,-128.62555138372915
-0.4797000000000001,-126.84301514589919
-0.4787,-124.9614491170787
-0.4777000000000001,-122.95255907127036
-0.4767,-121.00025747745659
-0.4757000000000001,-119.07625010964013
-0.4747,-117.10980140282774
-0.4737000000000001,-115.4121478429897
-0.4727,-113.79937696114357
-0.4717000000000001,-112.3563714352812
-0.4707,-111.01239570040943
-0.4697000000000001,-109.78159686952685
-0.4687,-108.60738649063886
-0.4677000000000001,-107.30585209476303
-0.4667,-105.90528790789664
-0.4657000000000001,-104.33495836504645
-0.4647,-102.72218748320032
