Potential V vs RHE, Current mA cm-2
0.013299999999999867,-1.0054353208140816
0.012299999999999978,-2.794054817233447
0.011299999999999866,-3.623075638954359
0.010299999999999976,-4.102662769608606
0.009299999999999864,-4.450681749375406
0.008299999999999974,-4.626105950558669
0.007299999999999862,-4.756259390146253
0.006299999999999972,-4.800115440442069
0.00529999999999986,-4.843971490737885
0.0042999999999999705,-4.887827541033701
0.0032999999999998586,-4.9302688800296535
0.0022999999999999687,-5.017980980621284
0.0012999999999998568,-5.0618370309171015
0.00029999999999996696,-5.149549131508733
-0.000700000000000145,-5.235846520800501
-0.0017000000000000348,-5.323558621392133
-0.0027000000000001467,-5.367414671687949
-0.0037000000000000366,-5.411270721983764
-0.0047000000000001485,-5.367414671687949
-0.005700000000000038,-5.367414671687949
-0.00670000000000015,-5.367414671687949
-0.00770000000000004,-5.367414671687949
-0.008700000000000152,-5.367414671687949
-0.009700000000000042,-5.367414671687949
-0.010700000000000154,-5.453712060979717
-0.011700000000000044,-5.5414241615713475
-0.012700000000000156,-5.585280211867165
-0.013700000000000045,-5.629136262162981
-0.014700000000000157,-5.629136262162981
-0.015700000000000047,-5.629136262162981
-0.01670000000000016,-5.629136262162981
-0.01770000000000005,-5.585280211867165
-0.01870000000000016,-5.5414241615713475
-0.01970000000000005,-5.5414241615713475
-0.020700000000000163,-5.5414241615713475
-0.021700000000000053,-5.585280211867165
-0.022700000000000164,-5.629136262162981
-0.023700000000000054,-5.672992312458796
-0.024700000000000166,-5.715433651454749
-0.025700000000000056,-5.759289701750564
-0.026700000000000168,-5.759289701750564
-0.027700000000000058,-5.759289701750564
-0.02870000000000017,-5.715433651454749
-0.02970000000000006,-5.672992312458796
-0.03070000000000017,-5.672992312458796
-0.03170000000000006,-5.585280211867165
-0.03270000000000017,-5.629136262162981
-0.03370000000000006,-5.629136262162981
-0.034700000000000175,-5.715433651454749
-0.035700000000000065,-5.759289701750564
-0.03670000000000018,-5.759289701750564
-0.03770000000000007,-5.847001802342197
-0.03870000000000018,-5.847001802342197
-0.03970000000000007,-5.759289701750564
-0.04070000000000018,-5.759289701750564
-0.04170000000000007,-5.715433651454749
-0.04270000000000018,-5.715433651454749
-0.04370000000000007,-5.715433651454749
-0.044700000000000184,-5.672992312458796
-0.045700000000000074,-5.715433651454749
-0.046700000000000186,-5.80314575204638
-0.047700000000000076,-5.847001802342197
-0.04870000000000019,-5.890857852638012
-0.04970000000000008,-5.9347139029338285
-0.05070000000000019,-5.847001802342197
-0.05170000000000008,-5.847001802342197
-0.05270000000000019,-5.80314575204638
-0.05370000000000008,-5.80314575204638
-0.05470000000000019,-5.759289701750564
-0.05570000000000008,-5.759289701750564
-0.056700000000000195,-5.759289701750564
-0.057700000000000085,-5.847001802342197
-0.058700000000000196,-5.847001802342197
-0.059700000000000086,-5.9347139029338285
-0.0607000000000002,-5.977155241929781
-0.06170000000000009,-5.977155241929781
-0.0627000000000002,-5.977155241929781
-0.06370000000000009,-5.890857852638012
-0.0647000000000002,-5.890857852638012
-0.06570000000000009,-5.847001802342197
-0.0667000000000002,-5.759289701750564
-0.0677000000000001,-5.847001802342197
-0.0687000000000002,-5.847001802342197
-0.0697000000000001,-5.890857852638012
-0.07070000000000021,-5.9347139029338285
-0.0717000000000001,-5.977155241929781
-0.07270000000000021,-6.064867342521412
-0.0737000000000001,-6.021011292225596
-0.07470000000000021,-5.977155241929781
-0.0757000000000001,-5.977155241929781
-0.07670000000000021,-5.9347139029338285
-0.0777000000000001,-5.890857852638012
-0.07870000000000021,-5.890857852638012
-0.0797000000000001,-5.890857852638012
-0.08070000000000022,-5.9347139029338285
-0.0817000000000001,-5.977155241929781
-0.08270000000000022,-6.021011292225596
-0.08370000000000011,-6.064867342521412
-0.08470000000000022,-6.064867342521412
-0.08570000000000011,-6.064867342521412
-0.08670000000000022,-6.064867342521412
-0.08770000000000011,-6.021011292225596
-0.08870000000000022,-5.977155241929781
-0.08970000000000011,-5.9347139029338285
-0.09070000000000022,-5.977155241929781
-0.09170000000000011,-5.977155241929781
-0.09270000000000023,-6.021011292225596
-0.09370000000000012,-6.108723392817228
-0.09470000000000023,-6.108723392817228
-0.09570000000000012,-6.196435493408861
-0.09670000000000023,-6.196435493408861
-0.09770000000000012,-6.196435493408861
-0.09870000000000023,-6.152579443113044
-0.09970000000000012,-6.108723392817228
-0.10070000000000023,-6.064867342521412
-0.10170000000000012,-6.021011292225596
-0.10270000000000024,-6.108723392817228
-0.10370000000000013,-6.064867342521412
-0.10470000000000024,-6.152579443113044
-0.10570000000000013,-6.196435493408861
-0.10670000000000024,-6.238876832404812
-0.10770000000000013,-6.282732882700628
-0.10870000000000024,-6.238876832404812
-0.10970000000000013,-6.238876832404812
-0.11070000000000024,-6.238876832404812
-0.11170000000000013,-6.196435493408861
-0.11270000000000002,-6.196435493408861
-0.11370000000000013,-6.196435493408861
-0.11470000000000002,-6.196435493408861
-0.11570000000000014,-6.238876832404812
-0.11670000000000003,-6.282732882700628
-0.11770000000000014,-6.326588932996443
-0.11870000000000003,-6.414301033588076
-0.11970000000000014,-6.414301033588076
-0.12070000000000003,-6.414301033588076
-0.12170000000000014,-6.37044498329226
-0.12270000000000003,-6.326588932996443
-0.12370000000000014,-6.37044498329226
-0.12470000000000003,-6.282732882700628
-0.12570000000000014,-6.326588932996443
-0.12670000000000003,-6.326588932996443
-0.12770000000000015,-6.414301033588076
-0.12870000000000004,-6.500598422879844
-0.12970000000000015,-6.500598422879844
-0.13070000000000004,-6.54445447317566
-0.13170000000000015,-6.588310523471475
-0.13270000000000004,-6.54445447317566
-0.13370000000000015,-6.500598422879844
-0.13470000000000004,-6.500598422879844
-0.13570000000000015,-6.500598422879844
-0.13670000000000004,-6.458157083883892
-0.13770000000000016,-6.500598422879844
-0.13870000000000005,-6.500598422879844
-0.13970000000000016,-6.588310523471475
-0.14070000000000005,-6.632166573767292
-0.14170000000000016,-6.6760226240631075
-0.14270000000000005,-6.762320013354876
-0.14370000000000016,-6.719878674358924
-0.14470000000000005,-6.719878674358924
-0.14570000000000016,-6.719878674358924
-0.14670000000000005,-6.6760226240631075
-0.14770000000000016,-6.6760226240631075
-0.14870000000000005,-6.632166573767292
-0.14970000000000017,-6.6760226240631075
-0.15070000000000006,-6.762320013354876
-0.15170000000000017,-6.806176063650692
-0.15270000000000006,-6.893888164242324
-0.15370000000000017,-6.893888164242324
-0.15470000000000006,-6.893888164242324
-0.15570000000000017,-6.93774421453814
-0.15670000000000006,-6.93774421453814
-0.15770000000000017,-6.893888164242324
-0.15870000000000006,-6.850032113946507
-0.15970000000000018,-6.850032113946507
-0.16070000000000007,-6.893888164242324
-0.16170000000000018,-6.893888164242324
-0.16270000000000007,-6.93774421453814
-0.16370000000000018,-7.067897654125724
-0.16470000000000007,-7.111753704421539
-0.16570000000000018,-7.155609754717355
-0.16670000000000007,-7.155609754717355
-0.16770000000000018,-7.199465805013171
-0.16870000000000007,-7.155609754717355
-0.16970000000000018,-7.111753704421539
-0.17070000000000007,-7.111753704421539
-0.17170000000000019,-7.111753704421539
-0.17270000000000008,-7.111753704421539
-0.1737000000000002,-7.155609754717355
-0.17470000000000008,-7.243321855308987
-0.1757000000000002,-7.28576319430494
-0.17670000000000008,-7.37347529489657
-0.1777000000000002,-7.4173313451923875
-0.17870000000000008,-7.4173313451923875
-0.1797000000000002,-7.4173313451923875
-0.18070000000000008,-7.4173313451923875
-0.1817000000000002,-7.37347529489657
-0.18270000000000008,-7.37347529489657
-0.1837000000000002,-7.37347529489657
-0.1847000000000001,-7.4173313451923875
-0.1857000000000002,-7.461187395488204
-0.1867000000000001,-7.5474847847799715
-0.1877000000000002,-7.591340835075788
-0.1887000000000001,-7.679052935667419
-0.1897000000000002,-7.722908985963235
-0.1907000000000001,-7.7653503249591855
-0.1917000000000001,-7.722908985963235
-0.19269999999999998,-7.679052935667419
-0.1937000000000001,-7.679052935667419
-0.19469999999999998,-7.679052935667419
-0.1957000000000001,-7.722908985963235
-0.19669999999999999,-7.722908985963235
-0.1977000000000001,-7.809206375255003
-0.1987,-7.896918475846635
-0.1997000000000001,-7.984630576438266
-0.2007,-8.027071915434218
-0.2017000000000001,-8.070927965730034
-0.2027,-8.070927965730034
-0.2037000000000001,-8.070927965730034
-0.2047,-8.070927965730034
-0.2057000000000001,-8.070927965730034
-0.2067,-8.070927965730034
-0.2077000000000001,-8.11478401602585
-0.2087,-8.158640066321666
-0.2097000000000001,-8.246352166913299
-0.2107,-8.332649556205066
-0.2117000000000001,-8.376505606500881
-0.2127,-8.464217707092514
-0.2137000000000001,-8.508073757388331
-0.2147,-8.508073757388331
-0.2157000000000001,-8.55051509638428
-0.2167,-8.508073757388331
-0.21770000000000012,-8.55051509638428
-0.2187,-8.55051509638428
-0.21970000000000012,-8.594371146680096
-0.2207,-8.68208324727173
-0.22170000000000012,-8.769795347863363
-0.2227,-8.85609273715513
-0.22370000000000012,-8.943804837746763
-0.2247,-8.987660888042578
-0.22570000000000012,-9.031516938338395
-0.2267,-8.987660888042578
-0.22770000000000012,-8.987660888042578
-0.22870000000000001,-9.031516938338395
-0.22970000000000013,-9.031516938338395
-0.23070000000000002,-9.11781432763016
-0.23170000000000013,-9.11781432763016
-0.23270000000000002,-9.24938247851761
-0.23370000000000013,-9.335679867809377
-0.23470000000000002,-9.423391968401008
-0.23570000000000013,-9.55496011928846
-0.23670000000000002,-9.59740145828441
-0.2376999999999999,-9.641257508580225
-0.23870000000000002,-9.641257508580225
-0.2396999999999999,-9.641257508580225
-0.24070000000000003,-9.685113558876042
-0.24169999999999991,-9.685113558876042
-0.24270000000000003,-9.772825659467674
-0.24369999999999992,-9.85912304875944
-0.24470000000000003,-9.946835149351072
-0.24569999999999992,-10.034547249942705
-0.24670000000000003,-10.164700689530287
-0.24769999999999992,-10.25241279012192
-0.24870000000000003,-10.340124890713554
-0.24969999999999992,-10.340124890713554
-0.25070000000000003,-10.382566229709504
-0.2516999999999999,-10.382566229709504
-0.25270000000000004,-10.42642228000532
-0.2536999999999999,-10.470278330301136
-0.25470000000000004,-10.557990430892769
-0.2556999999999999,-10.688143870480351
-0.25670000000000004,-10.819712021367803
-0.25769999999999993,-10.906009410659568
-0.25870000000000004,-11.037577561547016
-0.25969999999999993,-11.123874950838783
-0.26070000000000004,-11.211587051430415
-0.26169999999999993,-11.211587051430415
-0.26270000000000004,-11.255443101726232
-0.26369999999999993,-11.299299152022046
-0.26470000000000005,-11.343155202317865
-0.26569999999999994,-11.473308641905447
-0.26670000000000005,-11.56102074249708
-0.26769999999999994,-11.73503023238048
-0.26870000000000005,-11.82274233297211
-0.26969999999999994,-11.952895772559694
-0.27070000000000005,-12.084463923447142
-0.27169999999999994,-12.170761312738911
-0.27270000000000005,-12.258473413330542
-0.27369999999999994,-12.346185513922174
-0.27470000000000006,-12.346185513922174
-0.27569999999999995,-12.432482903213943
-0.27670000000000006,-12.476338953509758
-0.27769999999999995,-12.607907104397206
-0.27870000000000006,-12.73806054398479
-0.27969999999999995,-12.913484745168056
-0.28070000000000006,-13.043638184755638
-0.28169999999999995,-13.217647674639037
-0.28270000000000006,-13.349215825526485
-0.28369999999999995,-13.47936926511407
-0.28470000000000006,-13.567081365705702
-0.28569999999999995,-13.654793466297335
-0.28670000000000007,-13.741090855589102
-0.28769999999999996,-13.828802956180734
-0.28870000000000007,-13.960371107068182
-0.28969999999999996,-14.090524546655764
-0.29070000000000007,-14.217848563643619
-0.29169999999999996,-14.444202371622024
-0.29270000000000007,-14.57152638860988
-0.29369999999999996,-14.741291744593681
-0.2947000000000001,-14.868615761581536
-0.29569999999999996,-15.01008689156804
-0.2967000000000001,-15.137410908555893
-0.29769999999999996,-15.222293586547794
-0.2987000000000001,-15.307176264539699
-0.29969999999999997,-15.448647394526201
-0.3007000000000001,-15.618412750510005
-0.30169999999999997,-15.74573676749786
-0.3027000000000001,-15.972090575476265
-0.30369999999999997,-16.141855931460068
-0.3047000000000001,-16.354062626439823
-0.30569999999999997,-16.53797509542228
-0.3067000000000001,-16.70774045140608
-0.3077,-16.877505807389888
-0.3087000000000001,-16.962388485381787
-0.3097,-17.103859615368293
-0.3107000000000001,-17.231183632356142
-0.3117,-17.358507649344002
-0.3127000000000001,-17.584861457322408
-0.3137,-17.75462681330621
-0.3147000000000001,-17.966833508285966
-0.3157,-18.23562865526032
-0.3167000000000001,-18.44783535024008
-0.3177,-18.674189158218486
-0.3187000000000001,-18.88639585319824
-0.3197,-19.056161209182044
-0.3207000000000001,-19.2400736781645
-0.3217,-19.367397695152352
-0.3227000000000001,-19.537163051136158
-0.3237,-19.763516859114564
-0.3247000000000001,-19.93328221509837
-0.3257,-20.202077362072725
-0.3267000000000001,-20.456725396048434
-0.3277,-20.76796188201874
-0.3287000000000001,-20.980168576998494
-0.3297,-21.2065223849769
-0.3307000000000001,-21.461170418952605
-0.3317,-21.67337711393236
-0.3327000000000001,-21.857289582914817
-0.3337,-22.069496277894572
-0.3347000000000001,-22.295850085872978
-0.3357,-22.508056780852733
-0.3367000000000001,-22.776851927827092
-0.3377,-23.073941300798747
-0.3387000000000001,-23.342736447773106
-0.3397,-23.639825820744765
-0.3407000000000001,-23.993503645711023
-0.3417,-24.20571034069078
-0.3427000000000001,-24.516946826661083
-0.3437,-24.771594860636792
-0.3447000000000001,-24.95550732961925
-0.3457,-25.210155363594954
-0.3467000000000001,-25.43650917157336
-0.3477,-25.73359854454502
-0.3487000000000001,-26.044835030515326
-0.3497,-26.34192440348698
-0.3507000000000001,-26.69560222845324
-0.3517,-27.049280053419505
-0.3527000000000001,-27.38881076538711
-0.3537,-27.700047251357418
-0.3547000000000001,-28.011283737327723
-0.3557,-28.308373110299385
-0.35670000000000013,-28.619609596269694
-0.3577,-28.91669896924135
-0.35870000000000013,-29.27037679420761
-0.3597,-29.581613280177915
-0.36070000000000013,-29.96358533114148
-0.3617,-30.359704495103685
-0.3626999999999999,-30.7558236590659
-0.3637,-31.137795710029454
-0.3646999999999999,-31.49147353499572
-0.3657,-31.887592698957924
-0.3666999999999999,-32.184682071929586
-0.3677,-32.49591855789989
-0.3686999999999999,-32.84959638286615
-0.36970000000000003,-33.18912709483376
-0.3706999999999999,-33.58524625879597
-0.37170000000000003,-33.98136542275818
-0.3726999999999999,-34.33504324772444
-0.37370000000000003,-34.75945663768395
-0.3746999999999999,-35.240458479638065
-0.37570000000000003,-35.679018982596226
-0.3766999999999999,-36.07513814655844
-0.37770000000000004,-36.47125731052064
-0.3786999999999999,-36.81078802248826
-0.37970000000000004,-37.206907186450465
-0.3806999999999999,-37.56058501141672
-0.38170000000000004,-37.94255706238028
-0.38269999999999993,-38.38111756533845
-0.38370000000000004,-38.81967806829661
-0.38469999999999993,-39.30067991025072
-0.38570000000000004,-39.78168175220483
-0.38669999999999993,-40.26268359415894
-0.38770000000000004,-40.78612677510901
-0.38869999999999993,-41.267128617063115
-0.38970000000000005,-41.70568912002128
-0.39069999999999994,-42.186690961975394
-0.39170000000000005,-42.568663012938956
-0.39269999999999994,-43.007223515897124
-0.39370000000000005,-43.53066669684718
-0.39469999999999994,-44.011668538801295
-0.39570000000000005,-44.535111719751356
-0.39669999999999994,-45.05855490070142
-0.39770000000000005,-45.581998081651484
-0.39869999999999994,-46.147882601597495
-0.39970000000000006,-46.67132578254756
-0.40069999999999995,-47.19476896349763
-0.40170000000000006,-47.67577080545174
-0.40269999999999995,-48.156772647405845
-0.40370000000000006,-48.68021582835591
-0.40469999999999995,-49.16121767031002
-0.40570000000000006,-49.72710219025603
-0.40669999999999995,-50.29298671020206
-0.40770000000000006,-50.85887123014807
-0.40869999999999995,-51.509638428085985
-0.40970000000000006,-52.075522948032
-0.41069999999999995,-52.74043725896857
-0.41170000000000007,-53.348763117910536
-0.41269999999999996,-53.9570889768525
-0.41370000000000007,-54.52297349679851
-0.41469999999999996,-55.088858016744524
-0.41570000000000007,-55.612301197694585
-0.41669999999999996,-56.1781857176406
-0.41770000000000007,-56.786511576582576
-0.41869999999999996,-57.352396096528594
-0.4197000000000001,-58.05975174646111
-0.42069999999999996,-58.66807760540307
-0.4217000000000001,-59.31884480334099
-0.42269999999999996,-60.02620045327351
-0.4237000000000001,-60.63452631221547
-0.42469999999999997,-61.242852171157445
-0.4257000000000001,-61.80873669110345
-0.42669999999999997,-62.37462121104946
-0.4277000000000001,-62.98294706999144
-0.42869999999999997,-63.59127292893339
-0.4297000000000001,-64.25618723986996
-0.43069999999999997,-64.94939577680383
-0.4317000000000001,-65.64260431373769
-0.4327,-66.39240130266617
-0.4337000000000001,-67.128051178596
-0.4347,-67.82125971552985
-0.4357000000000001,-68.52861536546239
-0.4367,-69.1793825634003
-0.4377000000000001,-69.8301497613382
-0.4387,-70.48091695927613
-0.4397000000000001,-71.1458312702127
-0.4407,-71.8814811461425
-0.4417000000000001,-72.57468968307639
-0.4427,-73.3669280110008
-0.4437000000000001,-74.14501922592657
-0.4447,-74.93725755385098
-0.4457000000000001,-75.81437855976732
-0.4467,-76.55002843569714
-0.4477000000000001,-77.38470810261751
-0.4487,-78.12035797854733
-0.4497000000000001,-78.85600785447714
-0.4507,-79.60580484340561
-0.4517000000000001,-80.42633739732734
-0.4527,-81.21857572525175
-0.4537000000000001,-82.03910827917348
-0.4547,-82.9162292850898
-0.4557000000000001,-83.79335029100612
-0.4567,-84.61388284492786
-0.4577000000000001,-85.49100385084417
-0.4587,-86.32568351776455
-0.4597000000000001,-87.14621607168625
-0.4607,-87.98089573860662
-0.4617000000000001,-88.7589869535324
-0.4627,-89.63610795944872
-0.4637000000000001,-90.47078762636909
-0.4647,-91.33376151928677
-0.4657000000000001,-92.25332386419905
-0.4667,-93.21532754810727
-0.4677000000000001,-94.13488989301955
-0.4687,-95.04030512493317
-0.4697000000000001,-95.95986746984543
-0.4707,-96.87942981475771
-0.4717000000000001,-97.74240370767538
-0.4727,-98.6195247135917
-0.4737000000000001,-99.53908705850398
-0.4747,-100.40206095142165
-0.4757000000000001,-101.3640646353299
-0.4767,-102.3260683192381
-0.4777000000000001,-103.33051334214227
-0.4787,-104.41984104303836
-0.4797000000000001,-105.46672740493848
-0.4807,-106.59849644483052
-0.48170000000000013,-107.68782414572658
-0.4827,-108.73471050762672
-0.48370000000000013,-109.73915553053091
-0.4847,-110.74360055343507
-0.48570000000000013,-111.74804557633925
-0.4867,-110.4465111804634
-0.48570000000000013,-107.03705694778867
-0.4847,-104.77351886800463
-0.48370000000000013,-102.93439417818009
-0.4827,-101.27918195733798
-0.48170000000000013,-99.66641107549184
-0.4807,-98.18096421063355
-0.4797000000000001,-96.5681933287874
-0.4787,-95.08274646392913
-0.4777000000000001,-93.55485826007487
-0.4767,-92.08355850821525
-0.4757000000000001,-90.55567030436099
-0.4747,-89.15510611749461
-0.4737000000000001,-87.75454193062824
-0.4727,-86.45300753475239
-0.4717000000000001,-85.17976736487385
-0.4707,-83.92067430799398
-0.4697000000000001,-82.746463929106
-0.4687,-81.57225355021802
-0.4677000000000001,-80.34145471933543
-0.4667,-79.1248030014515
-0.4657000000000001,-77.90815128356756
-0.4647,-76.63491111368903
-0.4637000000000001,-75.46070073480107
-0.4627,-74.32893169490903
-0.4617000000000001,-73.197162655017
-0.4607,-72.15027629311687
