Jan. 15, 2025   13:26:13
Cyclic Voltammetry
File: c:/users/guazh/data/banditlqround7_x0exp772_r5/2025-01-10-exp853\exp853-2025-01-15t13_12_11-arkoh\exp853_cv_sr_200mvs_efin_-1600mv.bin
Data Source:  Experiment
Instrument Model:  CHI760E
Header: CV ran at 200 mVs
Note: 

Init E (V) = -1
High E (V) = -1
Low E (V) = -1.6
Final E (V) = -1
Init P/N = N
Scan Rate (V/s) = 0.2
Segment = 3
Sample Interval (V) = 0.001
Quiet Time (sec) = 2
Sensitivity (A/V) = 0.01
Comp R (ohm) = 1.5

Results:

Channel 1:
Segment 1:

Segment 2:

Segment 3:

Potential/V, Current/A

-1.000, -6.168e-5
-1.001, 7.634e-6
-1.002, 5.168e-5
-1.003, 7.223e-5
-1.004, 9.940e-5
-1.005, 1.266e-4
-1.006, 1.365e-4
-1.007, 1.483e-4
-1.008, 1.710e-4
-1.009, 1.800e-4
-1.010, 1.834e-4
-1.011, 2.008e-4
-1.012, 2.135e-4
-1.013, 2.124e-4
-1.014, 2.233e-4
-1.015, 2.383e-4
-1.016, 2.380e-4
-1.017, 2.423e-4
-1.018, 2.581e-4
-1.019, 2.611e-4
-1.020, 2.603e-4
-1.021, 2.730e-4
-1.022, 2.816e-4
-1.023, 2.782e-4
-1.024, 2.869e-4
-1.025, 2.994e-4
-1.026, 2.965e-4
-1.027, 2.983e-4
-1.028, 3.126e-4
-1.029, 3.144e-4
-1.030, 3.113e-4
-1.031, 3.237e-4
-1.032, 3.304e-4
-1.033, 3.257e-4
-1.034, 3.332e-4
-1.035, 3.444e-4
-1.036, 3.412e-4
-1.037, 3.423e-4
-1.038, 3.556e-4
-1.039, 3.568e-4
-1.040, 3.526e-4
-1.041, 3.644e-4
-1.042, 3.712e-4
-1.043, 3.653e-4
-1.044, 3.728e-4
-1.045, 3.833e-4
-1.046, 3.798e-4
-1.047, 3.813e-4
-1.048, 3.942e-4
-1.049, 3.950e-4
-1.050, 3.914e-4
-1.051, 4.022e-4
-1.052, 4.083e-4
-1.053, 4.018e-4
-1.054, 4.084e-4
-1.055, 4.188e-4
-1.056, 4.146e-4
-1.057, 4.150e-4
-1.058, 4.274e-4
-1.059, 4.278e-4
-1.060, 4.238e-4
-1.061, 4.343e-4
-1.062, 4.404e-4
-1.063, 4.347e-4
-1.064, 4.407e-4
-1.065, 4.514e-4
-1.066, 4.472e-4
-1.067, 4.478e-4
-1.068, 4.605e-4
-1.069, 4.604e-4
-1.070, 4.559e-4
-1.071, 4.665e-4
-1.072, 4.718e-4
-1.073, 4.658e-4
-1.074, 4.718e-4
-1.075, 4.825e-4
-1.076, 4.780e-4
-1.077, 4.771e-4
-1.078, 4.892e-4
-1.079, 4.886e-4
-1.080, 4.839e-4
-1.081, 4.944e-4
-1.082, 4.996e-4
-1.083, 4.930e-4
-1.084, 4.992e-4
-1.085, 5.086e-4
-1.086, 5.045e-4
-1.087, 5.044e-4
-1.088, 5.163e-4
-1.089, 5.158e-4
-1.090, 5.113e-4
-1.091, 5.211e-4
-1.092, 5.266e-4
-1.093, 5.197e-4
-1.094, 5.258e-4
-1.095, 5.355e-4
-1.096, 5.301e-4
-1.097, 5.298e-4
-1.098, 5.416e-4
-1.099, 5.408e-4
-1.100, 5.359e-4
-1.101, 5.460e-4
-1.102, 5.507e-4
-1.103, 5.440e-4
-1.104, 5.495e-4
-1.105, 5.591e-4
-1.106, 5.541e-4
-1.107, 5.536e-4
-1.108, 5.654e-4
-1.109, 5.636e-4
-1.110, 5.590e-4
-1.111, 5.693e-4
-1.112, 5.740e-4
-1.113, 5.668e-4
-1.114, 5.727e-4
-1.115, 5.817e-4
-1.116, 5.769e-4
-1.117, 5.761e-4
-1.118, 5.878e-4
-1.119, 5.871e-4
-1.120, 5.822e-4
-1.121, 5.922e-4
-1.122, 5.969e-4
-1.123, 5.899e-4
-1.124, 5.961e-4
-1.125, 6.050e-4
-1.126, 5.999e-4
-1.127, 5.998e-4
-1.128, 6.105e-4
-1.129, 6.096e-4
-1.130, 6.046e-4
-1.131, 6.147e-4
-1.132, 6.189e-4
-1.133, 6.122e-4
-1.134, 6.180e-4
-1.135, 6.272e-4
-1.136, 6.214e-4
-1.137, 6.220e-4
-1.138, 6.326e-4
-1.139, 6.317e-4
-1.140, 6.275e-4
-1.141, 6.376e-4
-1.142, 6.420e-4
-1.143, 6.353e-4
-1.144, 6.407e-4
-1.145, 6.500e-4
-1.146, 6.444e-4
-1.147, 6.439e-4
-1.148, 6.557e-4
-1.149, 6.542e-4
-1.150, 6.495e-4
-1.151, 6.597e-4
-1.152, 6.644e-4
-1.153, 6.581e-4
-1.154, 6.640e-4
-1.155, 6.729e-4
-1.156, 6.680e-4
-1.157, 6.681e-4
-1.158, 6.800e-4
-1.159, 6.783e-4
-1.160, 6.737e-4
-1.161, 6.840e-4
-1.162, 6.885e-4
-1.163, 6.808e-4
-1.164, 6.873e-4
-1.165, 6.958e-4
-1.166, 6.900e-4
-1.167, 6.902e-4
-1.168, 7.014e-4
-1.169, 7.000e-4
-1.170, 6.958e-4
-1.171, 7.052e-4
-1.172, 7.091e-4
-1.173, 7.021e-4
-1.174, 7.075e-4
-1.175, 7.168e-4
-1.176, 7.105e-4
-1.177, 7.112e-4
-1.178, 7.224e-4
-1.179, 7.206e-4
-1.180, 7.159e-4
-1.181, 7.256e-4
-1.182, 7.292e-4
-1.183, 7.222e-4
-1.184, 7.278e-4
-1.185, 7.362e-4
-1.186, 7.300e-4
-1.187, 7.300e-4
-1.188, 7.411e-4
-1.189, 7.380e-4
-1.190, 7.336e-4
-1.191, 7.428e-4
-1.192, 7.458e-4
-1.193, 7.378e-4
-1.194, 7.436e-4
-1.195, 7.513e-4
-1.196, 7.455e-4
-1.197, 7.440e-4
-1.198, 7.548e-4
-1.199, 7.519e-4
-1.200, 7.463e-4
-1.201, 7.557e-4
-1.202, 7.587e-4
-1.203, 7.507e-4
-1.204, 7.559e-4
-1.205, 7.632e-4
-1.206, 7.559e-4
-1.207, 7.552e-4
-1.208, 7.650e-4
-1.209, 7.617e-4
-1.210, 7.553e-4
-1.211, 7.636e-4
-1.212, 7.663e-4
-1.213, 7.571e-4
-1.214, 7.619e-4
-1.215, 7.692e-4
-1.216, 7.613e-4
-1.217, 7.604e-4
-1.218, 7.701e-4
-1.219, 7.658e-4
-1.220, 7.600e-4
-1.221, 7.675e-4
-1.222, 7.696e-4
-1.223, 7.604e-4
-1.224, 7.644e-4
-1.225, 7.702e-4
-1.226, 7.618e-4
-1.227, 7.602e-4
-1.228, 7.689e-4
-1.229, 7.662e-4
-1.230, 7.584e-4
-1.231, 7.653e-4
-1.232, 7.663e-4
-1.233, 7.561e-4
-1.234, 7.594e-4
-1.235, 7.648e-4
-1.236, 7.562e-4
-1.237, 7.532e-4
-1.238, 7.616e-4
-1.239, 7.570e-4
-1.240, 7.486e-4
-1.241, 7.560e-4
-1.242, 7.560e-4
-1.243, 7.455e-4
-1.244, 7.483e-4
-1.245, 7.531e-4
-1.246, 7.434e-4
-1.247, 7.408e-4
-1.248, 7.489e-4
-1.249, 7.432e-4
-1.250, 7.353e-4
-1.251, 7.420e-4
-1.252, 7.414e-4
-1.253, 7.303e-4
-1.254, 7.336e-4
-1.255, 7.375e-4
-1.256, 7.273e-4
-1.257, 7.240e-4
-1.258, 7.312e-4
-1.259, 7.250e-4
-1.260, 7.170e-4
-1.261, 7.230e-4
-1.262, 7.226e-4
-1.263, 7.115e-4
-1.264, 7.141e-4
-1.265, 7.181e-4
-1.266, 7.079e-4
-1.267, 7.048e-4
-1.268, 7.127e-4
-1.269, 7.052e-4
-1.270, 6.974e-4
-1.271, 7.039e-4
-1.272, 7.028e-4
-1.273, 6.918e-4
-1.274, 6.946e-4
-1.275, 6.981e-4
-1.276, 6.882e-4
-1.277, 6.854e-4
-1.278, 6.924e-4
-1.279, 6.867e-4
-1.280, 6.800e-4
-1.281, 6.864e-4
-1.282, 6.849e-4
-1.283, 6.742e-4
-1.284, 6.775e-4
-1.285, 6.814e-4
-1.286, 6.714e-4
-1.287, 6.690e-4
-1.288, 6.761e-4
-1.289, 6.704e-4
-1.290, 6.624e-4
-1.291, 6.687e-4
-1.292, 6.688e-4
-1.293, 6.574e-4
-1.294, 6.607e-4
-1.295, 6.657e-4
-1.296, 6.556e-4
-1.297, 6.541e-4
-1.298, 6.615e-4
-1.299, 6.559e-4
-1.300, 6.494e-4
-1.301, 6.565e-4
-1.302, 6.568e-4
-1.303, 6.470e-4
-1.304, 6.510e-4
-1.305, 6.561e-4
-1.306, 6.472e-4
-1.307, 6.454e-4
-1.308, 6.538e-4
-1.309, 6.479e-4
-1.310, 6.421e-4
-1.311, 6.509e-4
-1.312, 6.507e-4
-1.313, 6.383e-4
-1.314, 6.434e-4
-1.315, 6.494e-4
-1.316, 6.413e-4
-1.317, 6.401e-4
-1.318, 6.492e-4
-1.319, 6.452e-4
-1.320, 6.393e-4
-1.321, 6.484e-4
-1.322, 6.487e-4
-1.323, 6.401e-4
-1.324, 6.454e-4
-1.325, 6.516e-4
-1.326, 6.441e-4
-1.327, 6.443e-4
-1.328, 6.539e-4
-1.329, 6.507e-4
-1.330, 6.466e-4
-1.331, 6.553e-4
-1.332, 6.578e-4
-1.333, 6.501e-4
-1.334, 6.566e-4
-1.335, 6.641e-4
-1.336, 6.574e-4
-1.337, 6.589e-4
-1.338, 6.696e-4
-1.339, 6.663e-4
-1.340, 6.625e-4
-1.341, 6.727e-4
-1.342, 6.756e-4
-1.343, 6.692e-4
-1.344, 6.762e-4
-1.345, 6.841e-4
-1.346, 6.785e-4
-1.347, 6.806e-4
-1.348, 6.925e-4
-1.349, 6.908e-4
-1.350, 6.884e-4
-1.351, 7.004e-4
-1.352, 7.039e-4
-1.353, 6.994e-4
-1.354, 7.079e-4
-1.355, 7.174e-4
-1.356, 7.134e-4
-1.357, 7.167e-4
-1.358, 7.295e-4
-1.359, 7.288e-4
-1.360, 7.270e-4
-1.361, 7.403e-4
-1.362, 7.455e-4
-1.363, 7.417e-4
-1.364, 7.525e-4
-1.365, 7.627e-4
-1.366, 7.604e-4
-1.367, 7.658e-4
-1.368, 7.803e-4
-1.369, 7.812e-4
-1.370, 7.824e-4
-1.371, 7.970e-4
-1.372, 8.045e-4
-1.373, 8.024e-4
-1.374, 8.152e-4
-1.375, 8.277e-4
-1.376, 8.264e-4
-1.377, 8.338e-4
-1.378, 8.502e-4
-1.379, 8.519e-4
-1.380, 8.551e-4
-1.381, 8.712e-4
-1.382, 8.804e-4
-1.383, 8.813e-4
-1.384, 8.952e-4
-1.385, 9.103e-4
-1.386, 9.112e-4
-1.387, 9.208e-4
-1.388, 9.399e-4
-1.389, 9.450e-4
-1.390, 9.502e-4
-1.391, 9.705e-4
-1.392, 9.808e-4
-1.393, 9.842e-4
-1.394, 1.000e-3
-1.395, 1.018e-3
-1.396, 1.021e-3
-1.397, 1.033e-3
-1.398, 1.054e-3
-1.399, 1.062e-3
-1.400, 1.071e-3
-1.401, 1.093e-3
-1.402, 1.107e-3
-1.403, 1.113e-3
-1.404, 1.133e-3
-1.405, 1.153e-3
-1.406, 1.161e-3
-1.407, 1.177e-3
-1.408, 1.200e-3
-1.409, 1.211e-3
-1.410, 1.221e-3
-1.411, 1.247e-3
-1.412, 1.264e-3
-1.413, 1.273e-3
-1.414, 1.296e-3
-1.415, 1.320e-3
-1.416, 1.330e-3
-1.417, 1.349e-3
-1.418, 1.377e-3
-1.419, 1.392e-3
-1.420, 1.407e-3
-1.421, 1.436e-3
-1.422, 1.457e-3
-1.423, 1.470e-3
-1.424, 1.497e-3
-1.425, 1.525e-3
-1.426, 1.539e-3
-1.427, 1.563e-3
-1.428, 1.595e-3
-1.429, 1.614e-3
-1.430, 1.633e-3
-1.431, 1.666e-3
-1.432, 1.690e-3
-1.433, 1.709e-3
-1.434, 1.739e-3
-1.435, 1.771e-3
-1.436, 1.791e-3
-1.437, 1.817e-3
-1.438, 1.853e-3
-1.439, 1.877e-3
-1.440, 1.902e-3
-1.441, 1.939e-3
-1.442, 1.969e-3
-1.443, 1.991e-3
-1.444, 2.029e-3
-1.445, 2.065e-3
-1.446, 2.091e-3
-1.447, 2.123e-3
-1.448, 2.162e-3
-1.449, 2.192e-3
-1.450, 2.222e-3
-1.451, 2.266e-3
-1.452, 2.302e-3
-1.453, 2.329e-3
-1.454, 2.370e-3
-1.455, 2.412e-3
-1.456, 2.441e-3
-1.457, 2.479e-3
-1.458, 2.526e-3
-1.459, 2.552e-3
-1.460, 2.578e-3
-1.461, 2.629e-3
-1.462, 2.672e-3
-1.463, 2.707e-3
-1.464, 2.754e-3
-1.465, 2.801e-3
-1.466, 2.837e-3
-1.467, 2.881e-3
-1.468, 2.935e-3
-1.469, 2.976e-3
-1.470, 3.018e-3
-1.471, 3.074e-3
-1.472, 3.120e-3
-1.473, 3.159e-3
-1.474, 3.212e-3
-1.475, 3.264e-3
-1.476, 3.306e-3
-1.477, 3.353e-3
-1.478, 3.412e-3
-1.479, 3.459e-3
-1.480, 3.506e-3
-1.481, 3.567e-3
-1.482, 3.620e-3
-1.483, 3.667e-3
-1.484, 3.727e-3
-1.485, 3.786e-3
-1.486, 3.835e-3
-1.487, 3.892e-3
-1.488, 3.957e-3
-1.489, 4.011e-3
-1.490, 4.064e-3
-1.491, 4.132e-3
-1.492, 4.191e-3
-1.493, 4.241e-3
-1.494, 4.302e-3
-1.495, 4.362e-3
-1.496, 4.412e-3
-1.497, 4.470e-3
-1.498, 4.537e-3
-1.499, 4.592e-3
-1.500, 4.648e-3
-1.501, 4.717e-3
-1.502, 4.780e-3
-1.503, 4.832e-3
-1.504, 4.898e-3
-1.505, 4.965e-3
-1.506, 5.027e-3
-1.507, 5.085e-3
-1.508, 5.150e-3
-1.509, 5.207e-3
-1.510, 5.266e-3
-1.511, 5.336e-3
-1.512, 5.398e-3
-1.513, 5.453e-3
-1.514, 5.523e-3
-1.515, 5.593e-3
-1.516, 5.649e-3
-1.517, 5.711e-3
-1.518, 5.780e-3
-1.519, 5.838e-3
-1.520, 5.898e-3
-1.521, 5.971e-3
-1.522, 6.037e-3
-1.523, 6.096e-3
-1.524, 6.168e-3
-1.525, 6.239e-3
-1.526, 6.300e-3
-1.527, 6.379e-3
-1.528, 6.448e-3
-1.529, 6.516e-3
-1.530, 6.578e-3
-1.531, 6.651e-3
-1.532, 6.720e-3
-1.533, 6.778e-3
-1.534, 6.852e-3
-1.535, 6.929e-3
-1.536, 6.985e-3
-1.537, 7.049e-3
-1.538, 7.122e-3
-1.539, 7.181e-3
-1.540, 7.247e-3
-1.541, 7.274e-3
-1.542, 7.330e-3
-1.543, 7.388e-3
-1.544, 7.460e-3
-1.545, 7.533e-3
-1.546, 7.583e-3
-1.547, 7.651e-3
-1.548, 7.728e-3
-1.549, 7.786e-3
-1.550, 7.846e-3
-1.551, 7.915e-3
-1.552, 7.976e-3
-1.553, 8.032e-3
-1.554, 8.102e-3
-1.555, 8.171e-3
-1.556, 8.238e-3
-1.557, 8.298e-3
-1.558, 8.373e-3
-1.559, 8.436e-3
-1.560, 8.499e-3
-1.561, 8.572e-3
-1.562, 8.647e-3
-1.563, 8.706e-3
-1.564, 8.778e-3
-1.565, 8.854e-3
-1.566, 8.910e-3
-1.567, 8.966e-3
-1.568, 9.034e-3
-1.569, 9.091e-3
-1.570, 9.144e-3
-1.571, 9.212e-3
-1.572, 9.284e-3
-1.573, 9.334e-3
-1.574, 9.404e-3
-1.575, 9.480e-3
-1.576, 9.535e-3
-1.577, 9.601e-3
-1.578, 9.705e-3
-1.579, 9.816e-3
-1.580, 9.892e-3
-1.581, 9.892e-3
-1.582, 9.952e-3
-1.583, 1.001e-2
-1.584, 1.007e-2
-1.585, 1.012e-2
-1.586, 1.016e-2
-1.587, 1.022e-2
-1.588, 1.030e-2
-1.589, 1.036e-2
-1.590, 1.041e-2
-1.591, 1.047e-2
-1.592, 1.054e-2
-1.593, 1.060e-2
-1.594, 1.068e-2
-1.595, 1.074e-2
-1.596, 1.080e-2
-1.597, 1.086e-2
-1.598, 1.093e-2
-1.599, 1.099e-2
-1.600, 1.097e-2
-1.599, 1.088e-2
-1.598, 1.082e-2
-1.597, 1.075e-2
-1.596, 1.069e-2
-1.595, 1.062e-2
-1.594, 1.051e-2
-1.593, 1.034e-2
-1.592, 1.026e-2
-1.591, 1.016e-2
-1.590, 1.008e-2
-1.589, 1.003e-2
-1.588, 9.941e-3
-1.587, 9.867e-3
-1.586, 9.790e-3
-1.585, 9.714e-3
-1.584, 9.653e-3
-1.583, 9.629e-3
-1.582, 9.572e-3
-1.581, 9.492e-3
-1.580, 9.426e-3
-1.579, 9.312e-3
-1.578, 9.165e-3
-1.577, 9.088e-3
-1.576, 9.013e-3
-1.575, 8.955e-3
-1.574, 8.874e-3
-1.573, 8.789e-3
-1.572, 8.744e-3
-1.571, 8.659e-3
-1.570, 8.578e-3
-1.569, 8.540e-3
-1.568, 8.494e-3
-1.567, 8.418e-3
-1.566, 8.368e-3
-1.565, 8.294e-3
-1.564, 8.211e-3
-1.563, 8.134e-3
-1.562, 8.062e-3
-1.561, 7.985e-3
-1.560, 7.895e-3
-1.559, 7.807e-3
-1.558, 7.694e-3
-1.557, 7.631e-3
-1.556, 7.570e-3
-1.555, 7.508e-3
-1.554, 7.432e-3
-1.553, 7.365e-3
-1.552, 7.315e-3
-1.551, 7.249e-3
-1.550, 7.191e-3
-1.549, 7.153e-3
-1.548, 7.088e-3
-1.547, 7.014e-3
-1.546, 6.950e-3
-1.545, 6.888e-3
-1.544, 6.821e-3
-1.543, 6.759e-3
-1.542, 6.699e-3
-1.541, 6.660e-3
-1.540, 6.569e-3
-1.539, 6.487e-3
-1.538, 6.423e-3
-1.537, 6.340e-3
-1.536, 6.283e-3
-1.535, 6.235e-3
-1.534, 6.180e-3
-1.533, 6.103e-3
-1.532, 6.055e-3
-1.531, 6.003e-3
-1.530, 5.932e-3
-1.529, 5.869e-3
-1.528, 5.803e-3
-1.527, 5.737e-3
-1.526, 5.735e-3
-1.525, 5.640e-3
-1.524, 5.568e-3
-1.523, 5.499e-3
-1.522, 5.453e-3
-1.521, 5.384e-3
-1.520, 5.301e-3
-1.519, 5.257e-3
-1.518, 5.196e-3
-1.517, 5.118e-3
-1.516, 5.071e-3
-1.515, 5.021e-3
-1.514, 4.951e-3
-1.513, 4.892e-3
-1.512, 4.845e-3
-1.511, 4.786e-3
-1.510, 4.728e-3
-1.509, 4.684e-3
-1.508, 4.632e-3
-1.507, 4.572e-3
-1.506, 4.524e-3
-1.505, 4.476e-3
-1.504, 4.415e-3
-1.503, 4.365e-3
-1.502, 4.316e-3
-1.501, 4.259e-3
-1.500, 4.204e-3
-1.499, 4.141e-3
-1.498, 4.090e-3
-1.497, 4.029e-3
-1.496, 3.982e-3
-1.495, 3.937e-3
-1.494, 3.877e-3
-1.493, 3.801e-3
-1.492, 3.765e-3
-1.491, 3.715e-3
-1.490, 3.667e-3
-1.489, 3.651e-3
-1.488, 3.601e-3
-1.487, 3.554e-3
-1.486, 3.508e-3
-1.485, 3.468e-3
-1.484, 3.412e-3
-1.483, 3.373e-3
-1.482, 3.342e-3
-1.481, 3.282e-3
-1.480, 3.237e-3
-1.479, 3.193e-3
-1.478, 3.146e-3
-1.477, 3.093e-3
-1.476, 3.051e-3
-1.475, 3.011e-3
-1.474, 2.964e-3
-1.473, 2.917e-3
-1.472, 2.867e-3
-1.471, 2.818e-3
-1.470, 2.766e-3
-1.469, 2.727e-3
-1.468, 2.686e-3
-1.467, 2.637e-3
-1.466, 2.602e-3
-1.465, 2.571e-3
-1.464, 2.517e-3
-1.463, 2.477e-3
-1.462, 2.447e-3
-1.461, 2.401e-3
-1.460, 2.358e-3
-1.459, 2.333e-3
-1.458, 2.295e-3
-1.457, 2.251e-3
-1.456, 2.219e-3
-1.455, 2.185e-3
-1.454, 2.143e-3
-1.453, 2.106e-3
-1.452, 2.079e-3
-1.451, 2.041e-3
-1.450, 2.017e-3
-1.449, 1.979e-3
-1.448, 1.941e-3
-1.447, 1.900e-3
-1.446, 1.871e-3
-1.445, 1.841e-3
-1.444, 1.799e-3
-1.443, 1.769e-3
-1.442, 1.740e-3
-1.441, 1.712e-3
-1.440, 1.668e-3
-1.439, 1.644e-3
-1.438, 1.608e-3
-1.437, 1.574e-3
-1.436, 1.549e-3
-1.435, 1.517e-3
-1.434, 1.481e-3
-1.433, 1.450e-3
-1.432, 1.430e-3
-1.431, 1.397e-3
-1.430, 1.367e-3
-1.429, 1.349e-3
-1.428, 1.322e-3
-1.427, 1.285e-3
-1.426, 1.267e-3
-1.425, 1.246e-3
-1.424, 1.211e-3
-1.423, 1.190e-3
-1.422, 1.171e-3
-1.421, 1.143e-3
-1.420, 1.114e-3
-1.419, 1.098e-3
-1.418, 1.075e-3
-1.417, 1.044e-3
-1.416, 1.027e-3
-1.415, 1.008e-3
-1.414, 9.838e-4
-1.413, 9.640e-4
-1.412, 9.472e-4
-1.411, 9.194e-4
-1.410, 8.957e-4
-1.409, 8.819e-4
-1.408, 8.609e-4
-1.407, 8.344e-4
-1.406, 8.200e-4
-1.405, 8.045e-4
-1.404, 7.751e-4
-1.403, 7.598e-4
-1.402, 7.485e-4
-1.401, 7.219e-4
-1.400, 7.028e-4
-1.399, 6.959e-4
-1.398, 6.729e-4
-1.397, 6.492e-4
-1.396, 6.402e-4
-1.395, 6.264e-4
-1.394, 6.015e-4
-1.393, 5.891e-4
-1.392, 5.814e-4
-1.391, 5.588e-4
-1.390, 5.417e-4
-1.389, 5.347e-4
-1.388, 5.169e-4
-1.387, 4.958e-4
-1.386, 4.886e-4
-1.385, 4.758e-4
-1.384, 4.508e-4
-1.383, 4.381e-4
-1.382, 4.323e-4
-1.381, 4.146e-4
-1.380, 3.999e-4
-1.379, 3.970e-4
-1.378, 3.842e-4
-1.377, 3.658e-4
-1.376, 3.598e-4
-1.375, 3.511e-4
-1.374, 3.319e-4
-1.373, 3.233e-4
-1.372, 3.178e-4
-1.371, 3.037e-4
-1.370, 2.893e-4
-1.369, 2.864e-4
-1.368, 2.739e-4
-1.367, 2.580e-4
-1.366, 2.543e-4
-1.365, 2.478e-4
-1.364, 2.298e-4
-1.363, 2.246e-4
-1.362, 2.225e-4
-1.361, 2.072e-4
-1.360, 1.967e-4
-1.359, 1.965e-4
-1.358, 1.849e-4
-1.357, 1.705e-4
-1.356, 1.691e-4
-1.355, 1.640e-4
-1.354, 1.485e-4
-1.353, 1.445e-4
-1.352, 1.465e-4
-1.351, 1.315e-4
-1.350, 1.216e-4
-1.349, 1.225e-4
-1.348, 1.130e-4
-1.347, 1.001e-4
-1.346, 1.005e-4
-1.345, 9.559e-5
-1.344, 8.149e-5
-1.343, 7.769e-5
-1.342, 7.814e-5
-1.341, 6.539e-5
-1.340, 5.731e-5
-1.339, 6.043e-5
-1.338, 5.165e-5
-1.337, 3.989e-5
-1.336, 4.163e-5
-1.335, 3.844e-5
-1.334, 2.483e-5
-1.333, 2.374e-5
-1.332, 2.470e-5
-1.331, 1.296e-5
-1.330, 6.036e-6
-1.329, 8.927e-6
-1.328, 5.604e-7
-1.327, -1.016e-5
-1.326, -7.954e-6
-1.325, -1.029e-5
-1.324, -2.253e-5
-1.323, -2.354e-5
-1.322, -2.146e-5
-1.321, -3.244e-5
-1.320, -3.814e-5
-1.319, -3.363e-5
-1.318, -4.112e-5
-1.317, -5.083e-5
-1.316, -4.761e-5
-1.315, -4.912e-5
-1.314, -6.087e-5
-1.313, -6.141e-5
-1.312, -5.812e-5
-1.311, -6.888e-5
-1.310, -7.415e-5
-1.309, -6.871e-5
-1.308, -7.567e-5
-1.307, -8.479e-5
-1.306, -8.086e-5
-1.305, -8.221e-5
-1.304, -9.285e-5
-1.303, -9.222e-5
-1.302, -8.868e-5
-1.301, -9.767e-5
-1.300, -1.027e-4
-1.299, -9.731e-5
-1.298, -1.033e-4
-1.297, -1.125e-4
-1.296, -1.077e-4
-1.295, -1.091e-4
-1.294, -1.195e-4
-1.293, -1.189e-4
-1.292, -1.162e-4
-1.291, -1.250e-4
-1.290, -1.292e-4
-1.289, -1.237e-4
-1.288, -1.293e-4
-1.287, -1.375e-4
-1.286, -1.338e-4
-1.285, -1.340e-4
-1.284, -1.446e-4
-1.283, -1.436e-4
-1.282, -1.398e-4
-1.281, -1.495e-4
-1.280, -1.541e-4
-1.279, -1.482e-4
-1.278, -1.535e-4
-1.277, -1.614e-4
-1.276, -1.569e-4
-1.275, -1.574e-4
-1.274, -1.670e-4
-1.273, -1.664e-4
-1.272, -1.621e-4
-1.271, -1.711e-4
-1.270, -1.750e-4
-1.269, -1.691e-4
-1.268, -1.744e-4
-1.267, -1.826e-4
-1.266, -1.772e-4
-1.265, -1.779e-4
-1.264, -1.876e-4
-1.263, -1.859e-4
-1.262, -1.823e-4
-1.261, -1.905e-4
-1.260, -1.951e-4
-1.259, -1.885e-4
-1.258, -1.941e-4
-1.257, -2.021e-4
-1.256, -1.964e-4
-1.255, -1.967e-4
-1.254, -2.072e-4
-1.253, -2.056e-4
-1.252, -2.018e-4
-1.251, -2.102e-4
-1.250, -2.138e-4
-1.249, -2.077e-4
-1.248, -2.125e-4
-1.247, -2.203e-4
-1.246, -2.153e-4
-1.245, -2.153e-4
-1.244, -2.250e-4
-1.243, -2.248e-4
-1.242, -2.214e-4
-1.241, -2.303e-4
-1.240, -2.332e-4
-1.239, -2.268e-4
-1.238, -2.321e-4
-1.237, -2.395e-4
-1.236, -2.351e-4
-1.235, -2.353e-4
-1.234, -2.452e-4
-1.233, -2.435e-4
-1.232, -2.396e-4
-1.231, -2.487e-4
-1.230, -2.526e-4
-1.229, -2.471e-4
-1.228, -2.521e-4
-1.227, -2.593e-4
-1.226, -2.483e-4
-1.225, -2.490e-4
-1.224, -2.593e-4
-1.223, -2.578e-4
-1.222, -2.544e-4
-1.221, -2.632e-4
-1.220, -2.670e-4
-1.219, -2.605e-4
-1.218, -2.664e-4
-1.217, -2.740e-4
-1.216, -2.686e-4
-1.215, -2.691e-4
-1.214, -2.796e-4
-1.213, -2.776e-4
-1.212, -2.736e-4
-1.211, -2.831e-4
-1.210, -2.867e-4
-1.209, -2.805e-4
-1.208, -2.849e-4
-1.207, -2.930e-4
-1.206, -2.875e-4
-1.205, -2.879e-4
-1.204, -2.988e-4
-1.203, -2.973e-4
-1.202, -2.929e-4
-1.201, -3.023e-4
-1.200, -3.054e-4
-1.199, -3.005e-4
-1.198, -3.069e-4
-1.197, -3.137e-4
-1.196, -3.088e-4
-1.195, -3.090e-4
-1.194, -3.185e-4
-1.193, -3.173e-4
-1.192, -3.130e-4
-1.191, -3.225e-4
-1.190, -3.268e-4
-1.189, -3.200e-4
-1.188, -3.260e-4
-1.187, -3.335e-4
-1.186, -3.287e-4
-1.185, -3.291e-4
-1.184, -3.394e-4
-1.183, -3.385e-4
-1.182, -3.351e-4
-1.181, -3.436e-4
-1.180, -3.482e-4
-1.179, -3.418e-4
-1.178, -3.484e-4
-1.177, -3.568e-4
-1.176, -3.515e-4
-1.175, -3.527e-4
-1.174, -3.628e-4
-1.173, -3.617e-4
-1.172, -3.586e-4
-1.171, -3.677e-4
-1.170, -3.715e-4
-1.169, -3.667e-4
-1.168, -3.717e-4
-1.167, -3.799e-4
-1.166, -3.757e-4
-1.165, -3.769e-4
-1.164, -3.868e-4
-1.163, -3.859e-4
-1.162, -3.827e-4
-1.161, -3.922e-4
-1.160, -3.957e-4
-1.159, -3.903e-4
-1.158, -3.970e-4
-1.157, -4.052e-4
-1.156, -4.018e-4
-1.155, -4.033e-4
-1.154, -4.135e-4
-1.153, -4.127e-4
-1.152, -4.101e-4
-1.151, -4.202e-4
-1.150, -4.247e-4
-1.149, -4.190e-4
-1.148, -4.260e-4
-1.147, -4.347e-4
-1.146, -4.307e-4
-1.145, -4.337e-4
-1.144, -4.440e-4
-1.143, -4.437e-4
-1.142, -4.420e-4
-1.141, -4.516e-4
-1.140, -4.567e-4
-1.139, -4.521e-4
-1.138, -4.589e-4
-1.137, -4.688e-4
-1.136, -4.641e-4
-1.135, -4.663e-4
-1.134, -4.771e-4
-1.133, -4.773e-4
-1.132, -4.751e-4
-1.131, -4.858e-4
-1.130, -4.913e-4
-1.129, -4.874e-4
-1.128, -4.942e-4
-1.127, -5.033e-4
-1.126, -4.985e-4
-1.125, -5.006e-4
-1.124, -5.133e-4
-1.123, -5.137e-4
-1.122, -5.118e-4
-1.121, -5.229e-4
-1.120, -5.276e-4
-1.119, -5.244e-4
-1.118, -5.320e-4
-1.117, -5.413e-4
-1.116, -5.388e-4
-1.115, -5.408e-4
-1.114, -5.534e-4
-1.113, -5.547e-4
-1.112, -5.528e-4
-1.111, -5.650e-4
-1.110, -5.703e-4
-1.109, -5.663e-4
-1.108, -5.739e-4
-1.107, -5.841e-4
-1.106, -5.822e-4
-1.105, -5.854e-4
-1.104, -5.990e-4
-1.103, -6.002e-4
-1.102, -6.004e-4
-1.101, -6.133e-4
-1.100, -6.177e-4
-1.099, -6.147e-4
-1.098, -6.221e-4
-1.097, -6.326e-4
-1.096, -6.295e-4
-1.095, -6.335e-4
-1.094, -6.464e-4
-1.093, -6.479e-4
-1.092, -6.468e-4
-1.091, -6.588e-4
-1.090, -6.652e-4
-1.089, -6.624e-4
-1.088, -6.711e-4
-1.087, -6.826e-4
-1.086, -6.807e-4
-1.085, -6.842e-4
-1.084, -6.982e-4
-1.083, -6.991e-4
-1.082, -6.986e-4
-1.081, -7.111e-4
-1.080, -7.169e-4
-1.079, -7.138e-4
-1.078, -7.231e-4
-1.077, -7.341e-4
-1.076, -7.324e-4
-1.075, -7.372e-4
-1.074, -7.505e-4
-1.073, -7.522e-4
-1.072, -7.508e-4
-1.071, -7.642e-4
-1.070, -7.713e-4
-1.069, -7.685e-4
-1.068, -7.778e-4
-1.067, -7.900e-4
-1.066, -7.880e-4
-1.065, -7.922e-4
-1.064, -8.055e-4
-1.063, -8.076e-4
-1.062, -8.071e-4
-1.061, -8.193e-4
-1.060, -8.264e-4
-1.059, -8.245e-4
-1.058, -8.326e-4
-1.057, -8.454e-4
-1.056, -8.435e-4
-1.055, -8.476e-4
-1.054, -8.618e-4
-1.053, -8.646e-4
-1.052, -8.646e-4
-1.051, -8.766e-4
-1.050, -8.844e-4
-1.049, -8.824e-4
-1.048, -8.924e-4
-1.047, -9.066e-4
-1.046, -9.051e-4
-1.045, -9.082e-4
-1.044, -9.217e-4
-1.043, -9.229e-4
-1.042, -9.233e-4
-1.041, -9.368e-4
-1.040, -9.449e-4
-1.039, -9.418e-4
-1.038, -9.516e-4
-1.037, -9.631e-4
-1.036, -9.635e-4
-1.035, -9.688e-4
-1.034, -9.842e-4
-1.033, -9.876e-4
-1.032, -9.874e-4
-1.031, -9.994e-4
-1.030, -1.008e-3
-1.029, -1.007e-3
-1.028, -1.017e-3
-1.027, -1.029e-3
-1.026, -1.029e-3
-1.025, -1.034e-3
-1.024, -1.050e-3
-1.023, -1.054e-3
-1.022, -1.054e-3
-1.021, -1.066e-3
-1.020, -1.075e-3
-1.019, -1.075e-3
-1.018, -1.087e-3
-1.017, -1.099e-3
-1.016, -1.099e-3
-1.015, -1.104e-3
-1.014, -1.119e-3
-1.013, -1.123e-3
-1.012, -1.127e-3
-1.011, -1.137e-3
-1.010, -1.146e-3
-1.009, -1.146e-3
-1.008, -1.158e-3
-1.007, -1.170e-3
-1.006, -1.169e-3
-1.005, -1.176e-3
-1.004, -1.193e-3
-1.003, -1.200e-3
-1.002, -1.201e-3
-1.001, -1.214e-3
