Potential V vs RHE, Current mA cm-2
0.013299999999999867,-0.14529085049613927
0.012299999999999978,-0.5248578922499286
0.011299999999999866,-0.6956135461436386
0.010299999999999976,-0.8068098543130304
0.009299999999999864,-0.8721695163667951
0.008299999999999974,-0.9066884720835021
0.007299999999999862,-0.9554960119288457
0.006299999999999972,-1.0185921359028263
0.00529999999999986,-1.069238800437995
0.0042999999999999705,-1.1023430448548366
0.0032999999999998586,-1.1177633980233654
0.0022999999999999687,-1.1463405662806392
0.0012999999999998568,-1.1971287019457941
0.00029999999999996696,-1.2397115120717317
-0.000700000000000145,-1.2626298351295453
-0.0017000000000000348,-1.2730986987485464
-0.0027000000000001467,-1.2929046569466571
-0.0037000000000000366,-1.3390242453222572
-0.0047000000000001485,-1.3837291223979924
-0.005700000000000038,-1.3995738889564808
-0.00670000000000015,-1.4083450990156439
-0.00770000000000004,-1.4288584128636872
-0.008700000000000152,-1.471299751859638
-0.009700000000000042,-1.5165705134553193
-0.010700000000000154,-1.5363764716534298
-0.011700000000000044,-1.54203531685289
-0.012700000000000156,-1.5660854089505953
-0.013700000000000045,-1.6014531914472214
-0.014700000000000157,-1.6495533756426328
-0.015700000000000047,-1.6651151999411482
-0.01670000000000016,-1.6736034677403384
-0.01770000000000005,-1.694824137238314
-0.01870000000000016,-1.7372654762342652
-0.01970000000000005,-1.7825362378299463
-0.020700000000000163,-1.8023421960280568
-0.021700000000000053,-1.8108304638272468
-0.022700000000000164,-1.8377099785246829
-0.023700000000000054,-1.8801513175206337
-0.024700000000000166,-1.9282515017160449
-0.025700000000000056,-1.9508868825138854
-0.026700000000000168,-1.9565457277133458
-0.027700000000000058,-1.9848399537106465
-0.02870000000000017,-2.0329401379060577
-0.02970000000000006,-2.079625610801604
-0.03070000000000017,-2.1065051254990395
-0.03170000000000006,-2.113578681998365
-0.03270000000000017,-2.1404581966958003
-0.03370000000000006,-2.192802514790807
-0.034700000000000175,-2.2394879876863527
-0.035700000000000065,-2.2649527910839233
-0.03670000000000018,-2.280514615382439
-0.03770000000000007,-2.30597941878001
-0.03870000000000018,-2.362567870774611
-0.03970000000000007,-2.4064239210704272
-0.04070000000000018,-2.4347181470677284
-0.04170000000000007,-2.4531093939659736
-0.04270000000000018,-2.4814036199632743
-0.04370000000000007,-2.5351626493581456
-0.044700000000000184,-2.586092256153287
-0.045700000000000074,-2.6115570595508575
-0.046700000000000186,-2.631363017748968
-0.047700000000000076,-2.658242532446404
-0.04870000000000019,-2.712001561841275
-0.04970000000000008,-2.767175302536012
-0.05070000000000019,-2.7926401059335824
-0.05170000000000008,-2.8124460641316933
-0.05270000000000019,-2.846399135328454
-0.05370000000000008,-2.897328742123595
-0.05470000000000019,-2.9539171941181968
-0.05570000000000008,-2.9807967088156326
-0.056700000000000195,-2.997773244414013
-0.057700000000000085,-3.0359704495103688
-0.058700000000000196,-3.08407063370578
-0.059700000000000086,-3.1392443744005165
-0.0607000000000002,-3.1731974455972773
-0.06170000000000009,-3.198662248994848
-0.0627000000000002,-3.2297858975918787
-0.06370000000000009,-3.2821302156868852
-0.0647000000000002,-3.3330598224820265
-0.06570000000000009,-3.362768759779192
-0.0667000000000002,-3.3740864501781123
-0.0677000000000001,-3.4108689439746036
-0.0687000000000002,-3.4702868185689346
-0.0697000000000001,-3.519801714064211
-0.07070000000000021,-3.553754785260972
-0.0717000000000001,-3.566487186959758
-0.07270000000000021,-3.6032696807562488
-0.0737000000000001,-3.658443421450985
-0.07470000000000021,-3.7065436056463965
-0.0757000000000001,-3.7376672542434273
-0.07670000000000021,-3.7546437898418072
-0.0777000000000001,-3.7871821497387033
-0.07870000000000021,-3.84518531303317
-0.0797000000000001,-3.8932854972285815
-0.08070000000000022,-3.9244091458256123
-0.0817000000000001,-3.9428003927238575
-0.08270000000000022,-3.9640210622218324
-0.08370000000000011,-4.024853648116029
-0.08470000000000022,-4.072953832311441
-0.08570000000000011,-4.102662769608606
-0.08670000000000022,-4.118224593907121
-0.08770000000000011,-4.146518819904423
-0.08870000000000022,-4.203107271899024
-0.08970000000000011,-4.256866301293895
-0.09070000000000022,-4.279501682091736
-0.09170000000000011,-4.297892928989982
-0.09270000000000023,-4.330431288886877
-0.09370000000000012,-4.377116761782423
-0.09470000000000023,-4.426631657277699
-0.09570000000000012,-4.447852326775675
-0.09670000000000023,-4.459170017174596
-0.09770000000000012,-4.493123088371357
-0.09870000000000023,-4.544052695166498
-0.09970000000000012,-4.594982301961639
-0.10070000000000023,-4.623276527958939
-0.10170000000000012,-4.63742364095759
-0.10270000000000024,-4.669962000854486
-0.10370000000000013,-4.709573917250707
-0.10470000000000024,-4.756259390146253
-0.10570000000000013,-4.784553616143554
-0.10670000000000024,-4.791627172642879
-0.10770000000000013,-4.82275082123991
-0.10870000000000024,-4.870851005435322
-0.10970000000000013,-4.916121767031002
-0.11070000000000024,-4.943001281728439
-0.11170000000000013,-4.950074838227763
-0.11270000000000002,-4.976954352925199
-0.11370000000000013,-5.03071338232007
-0.11470000000000002,-5.068910587416426
-0.11570000000000014,-5.092960679514132
-0.11670000000000003,-5.104278369913052
-0.11770000000000014,-5.133987307210218
-0.11870000000000003,-5.189161047904955
-0.11970000000000014,-5.22452883040158
-0.12070000000000003,-5.241505365999961
-0.12170000000000014,-5.2514083450990166
-0.12270000000000003,-5.272629014596992
-0.12370000000000014,-5.322143910092268
-0.12470000000000003,-5.360341115188624
-0.12570000000000014,-5.3815617846866
-0.12670000000000003,-5.397123608985115
-0.12770000000000015,-5.41834427848309
-0.12870000000000004,-5.465029751378637
-0.12970000000000015,-5.510300512974317
-0.13070000000000004,-5.525862337272833
-0.13170000000000015,-5.5272770485726985
-0.13270000000000004,-5.5541565632701335
-0.13370000000000015,-5.59235376836649
-0.13470000000000004,-5.640453952561901
-0.13570000000000015,-5.651771642960822
-0.13670000000000004,-5.656015776860417
-0.13770000000000016,-5.685724714157582
-0.13870000000000005,-5.719677785354343
-0.13970000000000016,-5.757874990450699
-0.14070000000000005,-5.77485152604908
-0.14170000000000016,-5.78051037124854
-0.14270000000000005,-5.80314575204638
-0.14370000000000016,-5.839928245842872
-0.14470000000000005,-5.878125450939227
-0.14570000000000016,-5.893687275237743
-0.14670000000000005,-5.888028430038283
-0.14770000000000016,-5.9078343882363935
-0.14870000000000005,-5.947446304632614
-0.14970000000000017,-5.98281408712924
-0.15070000000000006,-5.9997906227276205
-0.15170000000000017,-5.99413177752816
-0.15270000000000006,-6.009693601826676
-0.15370000000000017,-6.050720229522762
-0.15470000000000006,-6.0790144555200625
-0.15570000000000017,-6.0917468572188485
-0.15670000000000006,-6.086088012019388
-0.15770000000000017,-6.100235125018038
-0.15870000000000006,-6.134188196214799
-0.15970000000000018,-6.161067710912235
-0.16070000000000007,-6.16531184481183
-0.16170000000000018,-6.161067710912235
-0.16270000000000007,-6.175214823910885
-0.16370000000000018,-6.2162414516069715
-0.16470000000000007,-6.245950388904137
-0.16570000000000018,-6.2431209663044065
-0.16670000000000007,-6.237462121104946
-0.16770000000000018,-6.238876832404812
-0.16870000000000007,-6.270000481001842
-0.16970000000000018,-6.301124129598874
-0.17070000000000007,-6.294050573099549
-0.17170000000000019,-6.289806439199953
-0.17270000000000008,-6.2954652843994126
-0.1737000000000002,-6.318100665197254
-0.17470000000000008,-6.342150757294959
-0.1757000000000002,-6.335077200795634
-0.17670000000000008,-6.326588932996443
-0.1777000000000002,-6.330833066896039
-0.17870000000000008,-6.346394891194555
-0.1797000000000002,-6.369030271992395
-0.18070000000000008,-6.361956715493069
-0.1817000000000002,-6.34780960249442
-0.18270000000000008,-6.35063902509415
-0.1837000000000002,-6.369030271992395
-0.1847000000000001,-6.381762673691181
-0.1857000000000002,-6.378933251091451
-0.1867000000000001,-6.3548831589937445
-0.1877000000000002,-6.35629787029361
-0.1887000000000001,-6.37327440589199
-0.1897000000000002,-6.388836230190505
-0.1907000000000001,-6.3803479623913155
-0.1917000000000001,-6.352053736394015
-0.19269999999999998,-6.349224313794284
-0.1937000000000001,-6.366200849392665
-0.19469999999999998,-6.37044498329226
-0.1957000000000001,-6.35629787029361
-0.19669999999999999,-6.330833066896039
-0.1977000000000001,-6.31951537649712
-0.1987,-6.333662489495769
-0.1997000000000001,-6.339321334695229
-0.2007,-6.328003644296309
-0.2017000000000001,-6.299709418299008
-0.2027,-6.289806439199953
-0.2037000000000001,-6.298294706999143
-0.2047,-6.2954652843994126
-0.2057000000000001,-6.270000481001842
-0.2067,-6.245950388904137
-0.2077000000000001,-6.233217987205351
-0.2087,-6.238876832404812
-0.2097000000000001,-6.240291543704677
-0.2107,-6.211997317707376
-0.2117000000000001,-6.178044246510615
-0.2127,-6.166726556111695
-0.2137000000000001,-6.1709706900112895
-0.2147,-6.17380011261102
-0.2157000000000001,-6.15682357701264
-0.2167,-6.111552815416958
-0.21770000000000012,-6.094576279818578
-0.2187,-6.094576279818578
-0.21970000000000012,-6.088917434619118
-0.2207,-6.062037919921682
-0.22170000000000012,-6.022426003525461
-0.2227,-6.005449467927082
-0.22370000000000012,-6.001205334027486
-0.2247,-5.99413177752816
-0.22570000000000012,-5.96583755153086
-0.2267,-5.921981501235043
-0.22770000000000012,-5.902175543036933
-0.22870000000000001,-5.902175543036933
-0.22970000000000013,-5.890857852638012
-0.23070000000000002,-5.859734204040981
-0.23170000000000013,-5.818707576344896
-0.23270000000000002,-5.7974869068469195
-0.23370000000000013,-5.80031632944665
-0.23470000000000002,-5.786169216448
-0.23570000000000013,-5.75504556785097
-0.23670000000000002,-5.715433651454749
-0.2376999999999999,-5.689968848057178
-0.23870000000000002,-5.692798270656908
-0.2396999999999999,-5.682895291557853
-0.24070000000000003,-5.654601065560552
-0.24169999999999991,-5.613574437864465
-0.24270000000000003,-5.58952434576676
-0.24369999999999992,-5.588109634466894
-0.24470000000000003,-5.582450789267434
-0.24569999999999992,-5.548497718070673
-0.24670000000000003,-5.515959358173778
-0.24769999999999992,-5.4947386886758025
-0.24870000000000003,-5.498982822575398
-0.24969999999999992,-5.496153399975667
-0.25070000000000003,-5.465029751378637
-0.2516999999999999,-5.433906102781606
-0.25270000000000004,-5.415514855883361
-0.2536999999999999,-5.421173701082821
-0.25470000000000004,-5.425417834982416
-0.2556999999999999,-5.39570889768525
-0.25670000000000004,-5.364585249088219
-0.25769999999999993,-5.3575116925888935
-0.25870000000000004,-5.364585249088219
-0.25969999999999993,-5.371658805587544
-0.26070000000000004,-5.3504381360895685
-0.26169999999999993,-5.319314487492538
-0.26270000000000004,-5.322143910092268
-0.26369999999999993,-5.336291023090919
-0.26470000000000005,-5.343364579590244
-0.26569999999999994,-5.329217466591594
-0.26670000000000005,-5.316485064892808
-0.26769999999999994,-5.312240930993213
-0.26870000000000005,-5.333461600491188
-0.26969999999999994,-5.344779290890109
-0.27070000000000005,-5.337705734390783
-0.27169999999999994,-5.312240930993213
-0.27270000000000005,-5.319314487492538
-0.27369999999999994,-5.351852847389433
-0.27470000000000006,-5.371658805587544
-0.27569999999999995,-5.373073516887409
-0.27670000000000006,-5.361755826488489
-0.27769999999999995,-5.3759029394871405
-0.27870000000000006,-5.405611876784305
-0.27969999999999995,-5.4296619688820105
-0.28070000000000006,-5.433906102781606
-0.28169999999999995,-5.4353208140814715
-0.28270000000000006,-5.452297349679851
-0.28369999999999995,-5.496153399975667
-0.28470000000000006,-5.530106471172428
-0.28569999999999995,-5.537180027671754
-0.28670000000000007,-5.544253584171079
-0.28769999999999996,-5.569718387568649
-0.28870000000000007,-5.616403860464195
-0.28969999999999996,-5.661674622059877
-0.29070000000000007,-5.670162889859067
-0.29169999999999996,-5.685724714157582
-0.29270000000000007,-5.726751341853668
-0.29369999999999996,-5.773436814749215
-0.2947000000000001,-5.82578113284422
-0.29569999999999996,-5.849831224941926
-0.2967000000000001,-5.872466605739767
-0.29769999999999996,-5.914907944735719
-0.2987000000000001,-5.970081685430455
-0.29969999999999997,-6.028084848724921
-0.3007000000000001,-6.062037919921682
-0.30169999999999997,-6.087502723319252
-0.3027000000000001,-6.144091175313854
-0.30369999999999997,-6.209167895107646
-0.3047000000000001,-6.2756593262013025
-0.30569999999999997,-6.318100665197254
-0.3067000000000001,-6.35063902509415
-0.3077,-6.411471610988346
-0.3087000000000001,-6.493524866380518
-0.3097,-6.5642604313737705
-0.3107000000000001,-6.615190038168912
-0.3117,-6.659046088464728
-0.3127000000000001,-6.729781653457979
-0.3137,-6.821737887949207
-0.3147000000000001,-6.900961720741648
-0.3157,-6.960379595335981
-0.3167000000000001,-7.018382758630446
-0.3177,-7.094777168823159
-0.3187000000000001,-7.195221671113577
-0.3197,-7.28576319430494
-0.3207000000000001,-7.35366933669846
-0.3217,-7.420160767792117
-0.3227000000000001,-7.503628734484154
-0.3237,-7.615390927173493
-0.3247000000000001,-7.714420718164044
-0.3257,-7.789400417056893
-0.3267000000000001,-7.868624249849334
-0.3277,-7.964824618240158
-0.3287000000000001,-8.085075078728684
-0.3297,-8.201081405317618
-0.3307000000000001,-8.284549372009655
-0.3317,-8.375090895201017
-0.3327000000000001,-8.48543837659049
-0.3337,-8.607103548378884
-0.3347000000000001,-8.730183431467141
-0.3357,-8.826383799857965
-0.3367000000000001,-8.923998879548652
-0.3377,-9.048493473936775
-0.3387000000000001,-9.189964603923277
-0.3397,-9.322947466110591
-0.3407000000000001,-9.430465524900336
-0.3417,-9.537983583690076
-0.3427000000000001,-9.675210579776985
-0.3437,-9.822340554962949
-0.3447000000000001,-9.963811684949455
-0.3457,-10.092550413237172
-0.3467000000000001,-10.211386162425834
-0.3477,-10.359930848911663
-0.3487000000000001,-10.521207937096278
-0.3497,-10.67682618008143
-0.3507000000000001,-10.818297310067935
-0.3517,-10.947036038355654
-0.3527000000000001,-11.106898415240401
-0.3537,-11.292225595522723
-0.3547000000000001,-11.447843838507877
-0.3557,-11.604876792792895
-0.35670000000000013,-11.759080324478186
-0.3577,-11.927430969162122
-0.35870000000000013,-12.121246417243634
-0.3597,-12.305158886226089
-0.36070000000000013,-12.477753664809624
-0.3617,-12.646104309493563
-0.3626999999999999,-12.832846201075748
-0.3637,-13.043638184755638
-0.3646999999999999,-13.251600745835798
-0.3657,-13.436927926118118
-0.3666999999999999,-13.623669817700303
-0.3677,-13.830217667480598
-0.3686999999999999,-14.06647445455806
-0.36970000000000003,-14.288584128636872
-0.3706999999999999,-14.486643710617974
-0.37170000000000003,-14.69885040559773
-0.3726999999999999,-14.939351326574789
-0.37370000000000003,-15.193999360550496
-0.3746999999999999,-15.43450028152755
-0.37570000000000003,-15.660854089505953
-0.3766999999999999,-15.88720789748436
-0.37770000000000004,-16.15600304445872
-0.3786999999999999,-16.424798191433077
-0.37970000000000004,-16.693593338407435
-0.3806999999999999,-16.93409425938449
-0.38170000000000004,-17.20288940635885
-0.38269999999999993,-17.48583166633185
-0.38370000000000004,-17.797068152302163
-0.38469999999999993,-18.08001041227517
-0.38570000000000004,-18.377099785246827
-0.38669999999999993,-18.660042045219836
-0.38770000000000004,-18.97127853119014
-0.38869999999999993,-19.296662130159103
-0.38970000000000005,-19.622045729128057
-0.39069999999999994,-19.947429328097016
-0.39170000000000005,-20.25866581406732
-0.39269999999999994,-20.612343639033586
-0.39370000000000005,-20.980168576998494
-0.39469999999999994,-21.347993514963402
-0.39570000000000005,-21.701671339929664
-0.39669999999999994,-22.055349164895922
-0.39770000000000005,-22.437321215859484
-0.39869999999999994,-22.84758749282034
-0.39970000000000006,-23.24370665678255
-0.40069999999999995,-23.639825820744765
-0.40170000000000006,-24.035944984706973
-0.40269999999999995,-24.44621126166783
-0.40370000000000006,-24.884771764625995
-0.40469999999999995,-25.323332267584156
-0.40570000000000006,-25.719451431546364
-0.40669999999999995,-26.14386482150588
-0.40770000000000006,-26.59657243746269
-0.40869999999999995,-27.06342716641815
-0.40970000000000006,-27.530281895373616
-0.41069999999999995,-27.968842398331773
-0.41170000000000007,-28.421550014288584
-0.41269999999999996,-28.88840474324405
-0.41370000000000007,-29.369406585198163
-0.41469999999999996,-29.850408427152274
-0.41570000000000007,-30.317263156107735
-0.41669999999999996,-30.7841178850632
-0.41770000000000007,-31.27926684001596
-0.41869999999999996,-31.788562907967375
-0.4197000000000001,-32.297858975918786
-0.42069999999999996,-32.807155043870196
-0.4217000000000001,-33.316451111821614
-0.42269999999999996,-33.825747179773025
-0.4237000000000001,-34.32089613472579
-0.42469999999999997,-34.84433931567585
-0.4257000000000001,-35.353635383627264
-0.42669999999999997,-35.862931451578675
-0.4277000000000001,-36.38637463252874
-0.42869999999999997,-36.92396492647745
-0.4297000000000001,-37.48984944642347
-0.43069999999999997,-37.98499840137623
-0.4317000000000001,-38.480147356329
-0.4327,-39.046031876275016
-0.4337000000000001,-39.696799074212926
-0.4347,-40.26268359415894
-0.4357000000000001,-40.78612677510901
-0.4367,-41.30956995605907
-0.4377000000000001,-41.83301313700913
-0.4387,-42.4130447699538
-0.4397000000000001,-42.97892928989981
-0.4407,-43.558960922844484
-0.4417000000000001,-44.110698329791845
-0.4427,-44.634141510741905
-0.4437000000000001,-45.20002603068792
-0.4447,-45.75176343763528
-0.4457000000000001,-46.33179507057995
-0.4467,-46.91182670352462
-0.4477000000000001,-47.506005449467935
-0.4487,-48.1992139864018
-0.4497000000000001,-48.83583407134107
-0.4507,-49.514895495276285
-0.4517000000000001,-50.1656626932142
-0.4527,-50.83057700415076
-0.4537000000000001,-51.43890286309273
-0.4547,-52.08967006103065
-0.4557000000000001,-52.75458437196722
-0.4567,-53.39120445690648
-0.4577000000000001,-54.02782454184575
-0.4587,-54.70688596578097
-0.4597000000000001,-55.371800276717536
-0.4607,-55.980126135659496
-0.4617000000000001,-56.65918755959472
-0.4627,-57.36654320952724
-0.4637000000000001,-58.017310407465146
-0.4647,-58.65393049240442
-0.4657000000000001,-59.375433255335594
-0.4667,-60.11108313126541
-0.4677000000000001,-60.86088012019388
-0.4687,-61.455058866137186
-0.4697000000000001,-62.11997317707376
-0.4707,-62.799034601008984
-0.4717000000000001,-63.52053736394014
-0.4727,-64.15715744887942
-0.4737000000000001,-64.89280732480923
-0.4747,-65.64260431373769
-0.4757000000000001,-66.32166573767293
-0.4767,-67.01487427460678
-0.4777000000000001,-67.6656414725447
-0.4787,-68.52861536546239
-0.4797000000000001,-69.26426524139221
-0.4807,-69.9716208913247
-0.48170000000000013,-70.66482942825859
-0.4827,-71.4004793041884
-0.48370000000000013,-72.24930608410743
-0.4847,-72.8859261690467
-0.48570000000000013,-73.48010491499001
-0.4867,-73.09813286402644
-0.48570000000000013,-72.09368784112228
-0.4847,-71.2307139482046
-0.48370000000000013,-70.33944582928963
-0.4827,-69.39158925838004
-0.48170000000000013,-68.37299712247722
-0.4807,-67.41099343856901
-0.4797000000000001,-66.46313686765943
-0.4787,-65.65675142673635
-0.4777000000000001,-64.79377753381868
-0.4767,-63.874215188906405
-0.4757000000000001,-62.89806439199953
-0.4747,-61.95020782108996
-0.4737000000000001,-61.03064547617768
-0.4727,-60.16767158326001
-0.4717000000000001,-59.33299191633964
-0.4707,-58.498312249419264
-0.4697000000000001,-57.70607392149485
-0.4687,-56.998718271562325
-0.4677000000000001,-56.093303039648696
-0.4667,-55.23032914673103
-0.4657000000000001,-54.45223793180526
-0.4647,-53.70244094287679
-0.4637000000000001,-52.938496840949675
-0.4627,-52.23114119101716
-0.4617000000000001,-51.53793265408329
