Potential V vs RHE, Current mA cm-2
0.4132999999999999,0.004094174501809416
0.4122999999999999,0.0022493909667854082
0.4112999999999999,0.0017231183632356146
0.4102999999999999,0.0014316878354634173
0.4092999999999999,0.0012271205815029328
0.4082999999999999,0.0010289195283918412
0.4072999999999999,0.000862832421787686
0.4062999999999999,0.0006869838072144618
0.4052999999999999,0.000502788395972034
0.4042999999999999,0.00036881523587481505
0.4032999999999999,0.0002556383318856121
0.4022999999999999,0.00012030704894052271
0.4012999999999999,-3.740496676843157e-05
0.4002999999999999,-0.00014345172580631471
0.3992999999999999,-0.00026073129256512625
0.3982999999999999,-0.0003918750300626152
0.3972999999999999,-0.0004938757147828843
0.3962999999999999,-0.0006152579443113045
0.3952999999999999,-0.0007268786658706558
0.3942999999999999,-0.0008175616601920048
0.39329999999999987,-0.0009083861256433401
0.39229999999999987,-0.000997654408664824
0.39129999999999987,-0.0011344569913617729
0.39029999999999987,-0.0012126905262443094
0.38929999999999987,-0.0012977146753661982
0.38829999999999987,-0.0013983006487866022
0.38729999999999987,-0.0014684703292599081
0.38629999999999987,-0.0015972090575476264
0.38529999999999986,-0.001697653559838044
0.38429999999999986,-0.0017584861457322406
0.38329999999999986,-0.001854686514123063
0.38229999999999986,-0.0019084455435179344
0.38129999999999986,-0.0020230371588070024
0.38029999999999986,-0.002124896372397285
0.37929999999999986,-0.0021913878034909417
0.37829999999999986,-0.0022479762554855434
0.37729999999999986,-0.00232012653177866
0.37629999999999986,-0.0024177416114693475
0.37529999999999986,-0.002498380155561655
0.37429999999999986,-0.0025606274527557164
0.37329999999999985,-0.0026455101307476182
0.37229999999999985,-0.0027261486748399255
0.37129999999999985,-0.0027997136624329073
0.37029999999999985,-0.00289591403082373
0.36929999999999985,-0.0029468436376188715
0.36829999999999985,-0.0030048468009133376
0.36729999999999985,-0.0030911441902051052
0.36629999999999985,-0.0031746121568971422
0.36529999999999985,-0.0032411035879907992
0.36429999999999985,-0.0032991067512852653
0.36329999999999985,-0.0033556952032798675
0.36229999999999984,-0.0034320896134725793
0.36129999999999984,-0.003533948827062861
0.36029999999999984,-0.0036075138146558433
0.35929999999999984,-0.0036570287101511194
0.35829999999999984,-0.0037150318734455864
0.35729999999999984,-0.003768790902840458
0.35629999999999984,-0.0038664059825311453
0.35529999999999984,-0.003920165011926016
0.35429999999999984,-0.003986656443019673
0.35329999999999984,-0.00405597729671306
0.35229999999999984,-0.004108321614808067
0.35129999999999983,-0.004211595539698215
0.35029999999999983,-0.004254036878694165
0.34929999999999983,-0.0042978929289899815
0.34829999999999983,-0.004377116761782424
0.34729999999999983,-0.0044520964606752705
0.34629999999999983,-0.004528490870867982
0.34529999999999983,-0.004572346921163798
0.34429999999999983,-0.004611958837560019
0.3432999999999998,-0.004684109113853137
0.3422999999999998,-0.004710988628550571
0.3412999999999998,-0.0048114331308409895
0.3402999999999998,-0.004889242252333567
0.3392999999999998,-0.004911877633131407
0.3382999999999998,-0.0049613925286266835
0.3372999999999998,-0.005034957516219666
0.3362999999999998,-0.0051028636586131874
0.3352999999999998,-0.005170769801006709
0.3342999999999998,-0.005208967006103065
0.3332999999999998,-0.0052485789224992856
0.3322999999999998,-0.005312240930993212
0.3312999999999998,-0.005363170537788354
0.3302999999999998,-0.005442394370580797
0.3292999999999998,-0.005487665132176478
0.3282999999999998,-0.005528691759872563
0.3272999999999998,-0.00558669492316703
0.3262999999999998,-0.005641868663861766
0.3252999999999999,-0.0057069453836555584
0.3242999999999999,-0.005757874990450699
0.3232999999999999,-0.005801731040746516
0.3222999999999999,-0.005868222471840172
0.3212999999999999,-0.005953105149832074
0.3202999999999999,-0.005987058221028835
0.3192999999999999,-0.006029499560024787
0.3182999999999999,-0.006086088012019387
0.3172999999999999,-0.006111552815416958
0.3162999999999999,-0.006196435493408861
0.3152999999999999,-0.006241706255004542
0.3142999999999999,-0.006285562305300358
0.3132999999999999,-0.006315271242597524
0.3122999999999999,-0.00635912729289334
0.3112999999999999,-0.0064524982386844325
0.3102999999999999,-0.006479377753381868
0.3092999999999999,-0.006511916113278764
0.3082999999999999,-0.006584066389571881
0.3072999999999999,-0.006620848883368372
0.3062999999999999,-0.0067000727161608134
0.3052999999999999,-0.006734025787357574
0.3042999999999999,-0.00676373472465474
0.3032999999999999,-0.0068160790427497465
0.3022999999999999,-0.006861349804345428
0.3012999999999999,-0.006929255946738949
0.3002999999999999,-0.006988673821333281
0.2992999999999999,-0.006998576800432336
0.2982999999999999,-0.007055165252426938
0.2972999999999999,-0.0070990213027227545
0.2962999999999999,-0.0071754157129154655
0.2952999999999999,-0.007232004164910068
0.2942999999999999,-0.007254639545707908
0.2932999999999999,-0.007285763194304939
0.2922999999999999,-0.007338107512399945
0.2912999999999999,-0.007396110675694412
0.2902999999999999,-0.007468260951987528
0.2892999999999999,-0.007496555177984829
0.2882999999999999,-0.00751636113618294
0.2872999999999999,-0.007584267278576463
0.2862999999999999,-0.007639441019271198
0.2852999999999999,-0.007680467646967283
0.2842999999999999,-0.00770451773906499
0.2832999999999999,-0.007759691479759728
0.2822999999999999,-0.007795059262256353
0.2812999999999999,-0.007862965404649876
0.2802999999999999,-0.007895503764546771
0.2792999999999999,-0.007937945103542721
0.2782999999999999,-0.007988874710337861
0.2772999999999999,-0.008015754225035298
0.2762999999999999,-0.00809497805782774
0.2752999999999999,-0.008133175262924095
0.2742999999999999,-0.008155810643721936
0.2732999999999999,-0.008219472652215863
0.2722999999999999,-0.0082463521669133
0.2712999999999999,-0.008326990711005604
0.2702999999999999,-0.008366602627401826
0.2692999999999999,-0.008377920317800748
0.26829999999999987,-0.00843450876979535
0.26729999999999987,-0.008465632418392379
0.26629999999999987,-0.008539197405985362
0.26529999999999987,-0.008568906343282527
0.26429999999999987,-0.00859720056927983
0.26329999999999987,-0.008638227196975915
0.26229999999999987,-0.00868491266987146
0.26129999999999987,-0.008762721791364036
0.26029999999999986,-0.008792430728661203
0.25929999999999986,-0.008815066109459044
0.25829999999999986,-0.008874483984053376
0.25729999999999986,-0.008908437055250136
0.25629999999999986,-0.008950878394246088
0.25529999999999986,-0.009023028670539205
0.25429999999999986,-0.009024443381839069
0.25329999999999986,-0.00906405529823529
0.25229999999999986,-0.009120643750229892
0.25129999999999986,-0.009171573357025033
0.25029999999999986,-0.009212599984721119
0.24929999999999986,-0.009257870746316801
0.24829999999999985,-0.009281920838414505
0.24729999999999985,-0.009314459198311403
0.24629999999999985,-0.009375291784205599
0.24529999999999985,-0.009455930328297906
0.24429999999999985,-0.009471492152596421
0.24329999999999985,-0.009498371667293856
0.24229999999999985,-0.009566277809687378
0.24129999999999985,-0.009604475014783733
0.24029999999999985,-0.009646916353779685
0.23929999999999985,-0.009689357692775636
0.23829999999999985,-0.009710578362273611
0.23729999999999984,-0.009745946144770238
0.23629999999999984,-0.009808193441964298
0.23529999999999984,-0.009854878914859847
0.23429999999999984,-0.009888831986056607
0.23329999999999984,-0.009919955634653638
0.23229999999999984,-0.009959567551049858
0.23129999999999984,-0.010011911869144864
0.23029999999999984,-0.01005293849684095
0.22929999999999984,-0.010078403300238523
0.22829999999999984,-0.010133577040933258
0.22729999999999984,-0.010140650597432582
0.22629999999999983,-0.01020997145112597
0.22529999999999983,-0.010265145191820707
0.22429999999999983,-0.010266559903120571
0.22329999999999983,-0.010307586530816657
0.22229999999999983,-0.010338710179413688
0.22129999999999983,-0.01040944574440694
0.22029999999999983,-0.010467448907701406
0.21929999999999983,-0.010499987267598302
0.21829999999999983,-0.010524037359696007
0.21729999999999983,-0.010541013895294387
0.21629999999999983,-0.01061174946028764
0.21529999999999982,-0.010682485025280892
0.21429999999999982,-0.010681070313981028
0.21329999999999982,-0.010719267519077383
0.21229999999999982,-0.010773026548472254
0.21129999999999982,-0.010801320774469554
0.21029999999999982,-0.010860738649063886
0.20929999999999982,-0.010883374029861727
0.20829999999999982,-0.010930059502757274
0.20729999999999982,-0.010966841996553765
0.20629999999999982,-0.011029089293747827
0.20529999999999982,-0.011081433611842832
0.20429999999999982,-0.011104068992640673
0.20329999999999981,-0.011132363218637975
0.2022999999999998,-0.011183292825433113
0.2012999999999998,-0.011254028390426368
0.20029999999999992,-0.011303543285921643
0.19929999999999992,-0.011329008089319213
0.19829999999999992,-0.011357302315316514
0.19729999999999992,-0.01138418183001395
0.19629999999999992,-0.011456332106307067
0.19529999999999992,-0.011498773445303019
0.19429999999999992,-0.01157799727809546
0.19329999999999992,-0.01161760919449168
0.19229999999999992,-0.01162326803969114
0.19129999999999991,-0.011686930048185069
0.1902999999999999,-0.011727956675881154
0.1892999999999999,-0.011747762634079265
0.1882999999999999,-0.011798692240874405
0.1872999999999999,-0.011845377713769952
0.1862999999999999,-0.011892063186665499
0.1852999999999999,-0.011927430969162125
0.1842999999999999,-0.011955725195159425
0.1832999999999999,-0.011998166534155376
0.1822999999999999,-0.012029290182752408
0.1812999999999999,-0.012109928726844714
0.1802999999999999,-0.012162273044939722
0.1792999999999999,-0.012155199488440394
0.1782999999999999,-0.012207543806535402
0.1772999999999999,-0.012240082166432296
0.1762999999999999,-0.012298085329726764
0.1752999999999999,-0.012354673781721365
0.1742999999999999,-0.012371650317319745
0.1732999999999999,-0.012401359254616912
0.1722999999999999,-0.012446630016212592
0.1712999999999999,-0.01250746260210679
0.1702999999999999,-0.01254990394110274
0.1692999999999999,-0.012556977497602066
0.1682999999999999,-0.012619224794796127
0.1672999999999999,-0.012665910267691673
0.1662999999999999,-0.012712595740587218
0.1652999999999999,-0.012746548811783982
0.1642999999999999,-0.012784746016880337
0.1632999999999999,-0.012810210820277905
0.1622999999999999,-0.012852652159273859
0.1612999999999999,-0.012912070033868189
0.1602999999999999,-0.012972902619762385
0.1592999999999999,-0.012989879155360765
0.15829999999999989,-0.013016758670058201
0.15729999999999988,-0.013070517699453074
0.15629999999999988,-0.013141253264446326
0.15529999999999988,-0.013159644511344572
0.15429999999999988,-0.0131907681599416
0.15329999999999988,-0.013220477097238767
0.15229999999999988,-0.013288383239632289
0.15129999999999988,-0.013318092176929456
0.15029999999999988,-0.01337043649502446
0.14929999999999988,-0.013412877834020412
0.14829999999999988,-0.013448245616517038
0.14729999999999988,-0.01347936926511407
0.14629999999999987,-0.013557178386606646
0.14529999999999987,-0.013571325499605297
0.14429999999999987,-0.01360810799340179
0.14329999999999987,-0.013661867022796658
0.14229999999999987,-0.013714211340891666
0.14129999999999987,-0.013752408545988021
0.14029999999999987,-0.013797679307583703
0.13929999999999987,-0.013823144110981272
0.13829999999999987,-0.013857097182178034
0.13729999999999987,-0.013905197366373445
0.13629999999999987,-0.013974518220066835
0.13529999999999986,-0.01401271542516319
0.13429999999999986,-0.014024033115562108
0.13329999999999986,-0.014053742052859277
0.13229999999999986,-0.014087695124056035
0.13129999999999986,-0.014130136463051987
0.13029999999999986,-0.014203701450644968
0.12929999999999986,-0.014231995676642267
0.12829999999999986,-0.01424614278964092
0.12729999999999986,-0.01430273124163552
0.12629999999999986,-0.014359319693630123
0.12529999999999986,-0.014401761032626074
0.12429999999999986,-0.014444202371622025
0.12329999999999985,-0.014472496597619325
0.12229999999999985,-0.014514937936615275
0.12129999999999985,-0.014571526388609878
0.12029999999999985,-0.014599820614607179
0.11929999999999985,-0.01465640906660178
0.11829999999999985,-0.014684703292599082
0.11729999999999985,-0.014727144631595034
0.11629999999999985,-0.014797880196588285
0.11529999999999985,-0.014840321535584235
0.11429999999999985,-0.014868615761581536
0.11329999999999985,-0.014896909987578835
0.11229999999999984,-0.014939351326574786
0.11129999999999984,-0.015024234004566688
0.11029999999999984,-0.01505252823056399
0.10929999999999984,-0.015080822456561293
0.10829999999999984,-0.015137410908555892
0.10729999999999984,-0.015151558021554544
0.10629999999999984,-0.015236440699546445
0.10529999999999984,-0.015278882038542396
0.10429999999999984,-0.015293029151541045
0.10329999999999984,-0.015335470490536997
0.10229999999999984,-0.015349617603535646
0.10129999999999983,-0.015406206055530251
0.10029999999999983,-0.01546279450752485
0.09929999999999983,-0.015491088733522153
0.09829999999999983,-0.015533530072518101
0.09729999999999983,-0.015561824298515404
0.09629999999999983,-0.015618412750510005
0.09529999999999983,-0.015660854089505957
0.09429999999999983,-0.01568914831550326
0.09329999999999983,-0.015717442541500558
0.09229999999999983,-0.01575988388049651
0.09129999999999983,-0.01583061944548976
0.09029999999999982,-0.01588720789748436
0.08929999999999982,-0.01591550212348166
0.08829999999999982,-0.015929649236480315
0.08729999999999982,-0.01597209057547626
0.08629999999999982,-0.016028679027470863
0.08529999999999982,-0.016071120366466816
0.08429999999999982,-0.01611356170546277
0.08329999999999982,-0.016127708818461418
0.08229999999999982,-0.016170150157457368
0.08129999999999982,-0.01625503283544927
0.08029999999999982,-0.016283327061446574
0.07929999999999982,-0.016325768400442524
0.07829999999999981,-0.016354062626439823
0.07729999999999981,-0.01638235685243712
0.07629999999999981,-0.016453092417430374
0.07529999999999992,-0.016495533756426328
0.07429999999999992,-0.01650968086942498
0.07329999999999992,-0.01656626932141958
0.07229999999999992,-0.01662285777341418
0.07129999999999992,-0.016693593338407434
0.07029999999999992,-0.016721887564404736
0.06929999999999992,-0.016764328903400686
0.06829999999999992,-0.016820917355395284
0.06729999999999992,-0.016820917355395284
0.06629999999999991,-0.01691994714638584
0.06529999999999991,-0.016962388485381792
0.06429999999999991,-0.01697653559838044
0.06329999999999991,-0.017018976937376393
0.06229999999999991,-0.01706141827637234
0.06129999999999991,-0.017118006728366945
0.06029999999999991,-0.017174595180361543
0.05929999999999991,-0.017202889406358845
0.05829999999999991,-0.017231183632356147
0.05729999999999991,-0.017273624971352097
0.056299999999999906,-0.0173302134233467
0.055299999999999905,-0.0173868018753413
0.054299999999999904,-0.0174150961013386
0.0532999999999999,-0.017457537440334552
0.0522999999999999,-0.0175282730053278
0.0512999999999999,-0.017570714344323755
0.0502999999999999,-0.017627302796318356
0.0492999999999999,-0.01765559702231566
0.0482999999999999,-0.01769803836131161
0.0472999999999999,-0.01772633258730891
0.0462999999999999,-0.017797068152302163
0.045299999999999896,-0.017839509491298113
0.044299999999999895,-0.01785365660429676
0.043299999999999894,-0.017881950830294063
0.04229999999999989,-0.017952686395287316
0.04129999999999989,-0.018009274847281917
0.04029999999999989,-0.018065863299276518
0.03929999999999989,-0.018094157525273817
0.03829999999999989,-0.01813659886426977
0.03729999999999989,-0.01816489309026707
0.03629999999999989,-0.018249775768258973
0.03529999999999989,-0.018292217107254923
0.034299999999999886,-0.018320511333252226
0.033299999999999885,-0.018377099785246823
0.032299999999999884,-0.018405394011244126
0.031299999999999883,-0.01847612957623738
0.030299999999999883,-0.01851857091523333
0.02929999999999988,-0.018546865141230634
0.02829999999999988,-0.018603453593225232
0.02729999999999988,-0.018645894932221182
0.02629999999999988,-0.018716630497214438
0.025299999999999878,-0.018759071836210388
0.024299999999999877,-0.018773218949209036
0.023299999999999876,-0.01882980740120364
0.022299999999999875,-0.018886395853198238
0.021299999999999875,-0.018942984305192843
0.020299999999999874,-0.019027866983184743
0.019299999999999873,-0.019042014096183394
0.018299999999999872,-0.019084455435179344
0.01729999999999987,-0.019126896774175294
0.01629999999999987,-0.0191834852261699
0.01529999999999987,-0.019254220791163148
0.014299999999999868,-0.01928251501716045
0.013299999999999867,-0.019310809243157753
0.012299999999999978,-0.019381544808151
0.011299999999999866,-0.019438133260145606
0.010299999999999976,-0.019480574599141553
0.009299999999999864,-0.019523015938137503
0.008299999999999974,-0.019551310164134805
0.007299999999999862,-0.019607898616129407
0.006299999999999972,-0.019664487068124008
0.00529999999999986,-0.01970692840711996
0.0042999999999999705,-0.01973522263311726
0.0032999999999998586,-0.019791811085111865
0.0022999999999999687,-0.019834252424107815
0.0012999999999998568,-0.019904987989101064
0.00029999999999996696,-0.019947429328097017
-0.000700000000000145,-0.01997572355409432
-0.0017000000000000348,-0.020018164893090266
-0.0027000000000001467,-0.02004645911908757
-0.0037000000000000366,-0.020145488910078124
-0.0047000000000001485,-0.020187930249074077
-0.005700000000000038,-0.020244518701068675
-0.00670000000000015,-0.020272812927065977
-0.00770000000000004,-0.02032940137906058
-0.008700000000000152,-0.02041428405705248
-0.009700000000000042,-0.020470872509047083
-0.010700000000000154,-0.02052746096104168
-0.011700000000000044,-0.020584049413036282
-0.012700000000000156,-0.020598196526034934
-0.013700000000000045,-0.020668932091028186
-0.014700000000000157,-0.02071137343002414
-0.015700000000000047,-0.02075381476902009
-0.01670000000000016,-0.020810403221014687
-0.01770000000000005,-0.02085284456001064
-0.01870000000000016,-0.020909433012005242
-0.01970000000000005,-0.020966021463999843
-0.020700000000000163,-0.020994315689997142
-0.021700000000000053,-0.021036757028993096
-0.022700000000000164,-0.021093345480987697
-0.023700000000000054,-0.021149933932982302
-0.024700000000000166,-0.02122066949797555
-0.025700000000000056,-0.02124896372397285
-0.026700000000000168,-0.021291405062968803
-0.027700000000000058,-0.021333846401964753
-0.02870000000000017,-0.021404581966958002
-0.02970000000000006,-0.021475317531951258
-0.03070000000000017,-0.02150361175794856
-0.03170000000000006,-0.02153190598394586
-0.03270000000000017,-0.02158849443594046
-0.03370000000000006,-0.02165923000093371
-0.034700000000000175,-0.021687524226931015
-0.035700000000000065,-0.021744112678925617
-0.03670000000000018,-0.021800701130920214
-0.03770000000000007,-0.021843142469916164
-0.03870000000000018,-0.021913878034909417
-0.03970000000000007,-0.02197046648690402
-0.04070000000000018,-0.022012907825899968
-0.04170000000000007,-0.02204120205189727
-0.04270000000000018,-0.02208364339089322
-0.04370000000000007,-0.022168526068885124
-0.044700000000000184,-0.022225114520879725
-0.045700000000000074,-0.022253408746877028
-0.046700000000000186,-0.02230999719887163
-0.047700000000000076,-0.022338291424868928
-0.04870000000000019,-0.022437321215859483
-0.04970000000000008,-0.022479762554855433
-0.05070000000000019,-0.022508056780852735
-0.05170000000000008,-0.022550498119848682
-0.05270000000000019,-0.022592939458844635
-0.05370000000000008,-0.022663675023837888
-0.05470000000000019,-0.02270611636283384
-0.05570000000000008,-0.02273441058883114
-0.056700000000000195,-0.02280514615382439
-0.057700000000000085,-0.022819293266823044
-0.058700000000000196,-0.022890028831816296
-0.059700000000000086,-0.022974911509808196
-0.0607000000000002,-0.022989058622806844
-0.06170000000000009,-0.0230597941878001
