Sept. 8, 2024   17:58:52
Linear Sweep Voltammetry
File: c:/users/guazh/data/20240903_batch_252_500/2024-09-03-exp299\1acid_3ac-2024-09-08t17_55_41-lsvinphos\1acid_3ac_lsv_50mvs_efin_-2300mv.bin
Data Source:  Experiment
Instrument Model:  CHI760E
Header: LSV ran at 50 mVs with Efin at -2300mV
Note: 

Init E (V) = -0.6
Final E (V) = -2.3
Scan Rate (V/s) = 0.05
Sample Interval (V) = 0.001
Quiet Time (sec) = 2
Sensitivity (A/V) = 1e-4
Comp R (ohm) = 8.2

Results:

Channel 1:
Ep = -1.884V
ip = 7.366e-4A
Ah = 9.905e-4C

Potential/V, Current/A

-0.600, 4.231e-6
-0.601, 4.358e-6
-0.602, 4.426e-6
-0.603, 4.474e-6
-0.604, 4.518e-6
-0.605, 4.557e-6
-0.606, 4.597e-6
-0.607, 4.634e-6
-0.608, 4.670e-6
-0.609, 4.709e-6
-0.610, 4.742e-6
-0.611, 4.778e-6
-0.612, 4.813e-6
-0.613, 4.848e-6
-0.614, 4.883e-6
-0.615, 4.917e-6
-0.616, 4.950e-6
-0.617, 4.986e-6
-0.618, 5.021e-6
-0.619, 5.057e-6
-0.620, 5.089e-6
-0.621, 5.122e-6
-0.622, 5.158e-6
-0.623, 5.192e-6
-0.624, 5.228e-6
-0.625, 5.263e-6
-0.626, 5.295e-6
-0.627, 5.331e-6
-0.628, 5.365e-6
-0.629, 5.400e-6
-0.630, 5.433e-6
-0.631, 5.467e-6
-0.632, 5.503e-6
-0.633, 5.538e-6
-0.634, 5.573e-6
-0.635, 5.608e-6
-0.636, 5.642e-6
-0.637, 5.676e-6
-0.638, 5.711e-6
-0.639, 5.748e-6
-0.640, 5.783e-6
-0.641, 5.818e-6
-0.642, 5.852e-6
-0.643, 5.886e-6
-0.644, 5.919e-6
-0.645, 5.951e-6
-0.646, 5.986e-6
-0.647, 6.021e-6
-0.648, 6.057e-6
-0.649, 6.091e-6
-0.650, 6.125e-6
-0.651, 6.160e-6
-0.652, 6.193e-6
-0.653, 6.226e-6
-0.654, 6.261e-6
-0.655, 6.294e-6
-0.656, 6.328e-6
-0.657, 6.364e-6
-0.658, 6.397e-6
-0.659, 6.433e-6
-0.660, 6.466e-6
-0.661, 6.499e-6
-0.662, 6.535e-6
-0.663, 6.567e-6
-0.664, 6.602e-6
-0.665, 6.635e-6
-0.666, 6.670e-6
-0.667, 6.704e-6
-0.668, 6.737e-6
-0.669, 6.770e-6
-0.670, 6.803e-6
-0.671, 6.835e-6
-0.672, 6.868e-6
-0.673, 6.900e-6
-0.674, 6.931e-6
-0.675, 6.964e-6
-0.676, 6.995e-6
-0.677, 7.026e-6
-0.678, 7.058e-6
-0.679, 7.090e-6
-0.680, 7.122e-6
-0.681, 7.153e-6
-0.682, 7.182e-6
-0.683, 7.214e-6
-0.684, 7.244e-6
-0.685, 7.272e-6
-0.686, 7.302e-6
-0.687, 7.330e-6
-0.688, 7.358e-6
-0.689, 7.388e-6
-0.690, 7.414e-6
-0.691, 7.444e-6
-0.692, 7.471e-6
-0.693, 7.499e-6
-0.694, 7.527e-6
-0.695, 7.551e-6
-0.696, 7.579e-6
-0.697, 7.606e-6
-0.698, 7.632e-6
-0.699, 7.659e-6
-0.700, 7.684e-6
-0.701, 7.709e-6
-0.702, 7.735e-6
-0.703, 7.759e-6
-0.704, 7.783e-6
-0.705, 7.806e-6
-0.706, 7.827e-6
-0.707, 7.852e-6
-0.708, 7.874e-6
-0.709, 7.898e-6
-0.710, 7.920e-6
-0.711, 7.940e-6
-0.712, 7.961e-6
-0.713, 7.984e-6
-0.714, 8.002e-6
-0.715, 8.021e-6
-0.716, 8.040e-6
-0.717, 8.060e-6
-0.718, 8.078e-6
-0.719, 8.096e-6
-0.720, 8.112e-6
-0.721, 8.130e-6
-0.722, 8.146e-6
-0.723, 8.163e-6
-0.724, 8.181e-6
-0.725, 8.195e-6
-0.726, 8.211e-6
-0.727, 8.226e-6
-0.728, 8.241e-6
-0.729, 8.257e-6
-0.730, 8.269e-6
-0.731, 8.283e-6
-0.732, 8.296e-6
-0.733, 8.307e-6
-0.734, 8.319e-6
-0.735, 8.328e-6
-0.736, 8.340e-6
-0.737, 8.351e-6
-0.738, 8.360e-6
-0.739, 8.370e-6
-0.740, 8.378e-6
-0.741, 8.387e-6
-0.742, 8.397e-6
-0.743, 8.404e-6
-0.744, 8.411e-6
-0.745, 8.419e-6
-0.746, 8.425e-6
-0.747, 8.432e-6
-0.748, 8.437e-6
-0.749, 8.444e-6
-0.750, 8.449e-6
-0.751, 8.453e-6
-0.752, 8.458e-6
-0.753, 8.461e-6
-0.754, 8.465e-6
-0.755, 8.469e-6
-0.756, 8.472e-6
-0.757, 8.475e-6
-0.758, 8.477e-6
-0.759, 8.479e-6
-0.760, 8.480e-6
-0.761, 8.483e-6
-0.762, 8.483e-6
-0.763, 8.483e-6
-0.764, 8.484e-6
-0.765, 8.484e-6
-0.766, 8.484e-6
-0.767, 8.483e-6
-0.768, 8.485e-6
-0.769, 8.486e-6
-0.770, 8.481e-6
-0.771, 8.480e-6
-0.772, 8.479e-6
-0.773, 8.477e-6
-0.774, 8.474e-6
-0.775, 8.470e-6
-0.776, 8.467e-6
-0.777, 8.466e-6
-0.778, 8.461e-6
-0.779, 8.459e-6
-0.780, 8.454e-6
-0.781, 8.450e-6
-0.782, 8.447e-6
-0.783, 8.441e-6
-0.784, 8.438e-6
-0.785, 8.433e-6
-0.786, 8.426e-6
-0.787, 8.423e-6
-0.788, 8.417e-6
-0.789, 8.412e-6
-0.790, 8.407e-6
-0.791, 8.399e-6
-0.792, 8.395e-6
-0.793, 8.390e-6
-0.794, 8.383e-6
-0.795, 8.377e-6
-0.796, 8.369e-6
-0.797, 8.364e-6
-0.798, 8.358e-6
-0.799, 8.351e-6
-0.800, 8.343e-6
-0.801, 8.336e-6
-0.802, 8.331e-6
-0.803, 8.322e-6
-0.804, 8.316e-6
-0.805, 8.308e-6
-0.806, 8.301e-6
-0.807, 8.293e-6
-0.808, 8.286e-6
-0.809, 8.279e-6
-0.810, 8.269e-6
-0.811, 8.263e-6
-0.812, 8.255e-6
-0.813, 8.246e-6
-0.814, 8.237e-6
-0.815, 8.227e-6
-0.816, 8.220e-6
-0.817, 8.211e-6
-0.818, 8.203e-6
-0.819, 8.198e-6
-0.820, 8.191e-6
-0.821, 8.179e-6
-0.822, 8.171e-6
-0.823, 8.161e-6
-0.824, 8.153e-6
-0.825, 8.144e-6
-0.826, 8.135e-6
-0.827, 8.128e-6
-0.828, 8.118e-6
-0.829, 8.110e-6
-0.830, 8.102e-6
-0.831, 8.092e-6
-0.832, 8.085e-6
-0.833, 8.077e-6
-0.834, 8.068e-6
-0.835, 8.059e-6
-0.836, 8.051e-6
-0.837, 8.043e-6
-0.838, 8.035e-6
-0.839, 8.027e-6
-0.840, 8.018e-6
-0.841, 8.009e-6
-0.842, 8.002e-6
-0.843, 7.993e-6
-0.844, 7.985e-6
-0.845, 7.977e-6
-0.846, 7.970e-6
-0.847, 7.961e-6
-0.848, 7.952e-6
-0.849, 7.944e-6
-0.850, 7.934e-6
-0.851, 7.926e-6
-0.852, 7.919e-6
-0.853, 7.909e-6
-0.854, 7.903e-6
-0.855, 7.894e-6
-0.856, 7.886e-6
-0.857, 7.878e-6
-0.858, 7.870e-6
-0.859, 7.863e-6
-0.860, 7.854e-6
-0.861, 7.844e-6
-0.862, 7.839e-6
-0.863, 7.829e-6
-0.864, 7.823e-6
-0.865, 7.815e-6
-0.866, 7.807e-6
-0.867, 7.800e-6
-0.868, 7.792e-6
-0.869, 7.785e-6
-0.870, 7.778e-6
-0.871, 7.772e-6
-0.872, 7.764e-6
-0.873, 7.757e-6
-0.874, 7.748e-6
-0.875, 7.740e-6
-0.876, 7.733e-6
-0.877, 7.725e-6
-0.878, 7.717e-6
-0.879, 7.710e-6
-0.880, 7.702e-6
-0.881, 7.695e-6
-0.882, 7.689e-6
-0.883, 7.682e-6
-0.884, 7.675e-6
-0.885, 7.667e-6
-0.886, 7.660e-6
-0.887, 7.653e-6
-0.888, 7.645e-6
-0.889, 7.640e-6
-0.890, 7.632e-6
-0.891, 7.626e-6
-0.892, 7.619e-6
-0.893, 7.612e-6
-0.894, 7.606e-6
-0.895, 7.597e-6
-0.896, 7.593e-6
-0.897, 7.586e-6
-0.898, 7.578e-6
-0.899, 7.572e-6
-0.900, 7.564e-6
-0.901, 7.556e-6
-0.902, 7.551e-6
-0.903, 7.545e-6
-0.904, 7.538e-6
-0.905, 7.532e-6
-0.906, 7.525e-6
-0.907, 7.520e-6
-0.908, 7.513e-6
-0.909, 7.508e-6
-0.910, 7.501e-6
-0.911, 7.494e-6
-0.912, 7.488e-6
-0.913, 7.481e-6
-0.914, 7.475e-6
-0.915, 7.468e-6
-0.916, 7.462e-6
-0.917, 7.455e-6
-0.918, 7.450e-6
-0.919, 7.443e-6
-0.920, 7.436e-6
-0.921, 7.431e-6
-0.922, 7.424e-6
-0.923, 7.419e-6
-0.924, 7.412e-6
-0.925, 7.406e-6
-0.926, 7.400e-6
-0.927, 7.395e-6
-0.928, 7.388e-6
-0.929, 7.383e-6
-0.930, 7.376e-6
-0.931, 7.370e-6
-0.932, 7.364e-6
-0.933, 7.358e-6
-0.934, 7.353e-6
-0.935, 7.345e-6
-0.936, 7.339e-6
-0.937, 7.333e-6
-0.938, 7.328e-6
-0.939, 7.322e-6
-0.940, 7.315e-6
-0.941, 7.309e-6
-0.942, 7.303e-6
-0.943, 7.298e-6
-0.944, 7.292e-6
-0.945, 7.285e-6
-0.946, 7.279e-6
-0.947, 7.274e-6
-0.948, 7.268e-6
-0.949, 7.262e-6
-0.950, 7.256e-6
-0.951, 7.250e-6
-0.952, 7.245e-6
-0.953, 7.239e-6
-0.954, 7.234e-6
-0.955, 7.228e-6
-0.956, 7.221e-6
-0.957, 7.216e-6
-0.958, 7.211e-6
-0.959, 7.204e-6
-0.960, 7.198e-6
-0.961, 7.192e-6
-0.962, 7.186e-6
-0.963, 7.180e-6
-0.964, 7.174e-6
-0.965, 7.168e-6
-0.966, 7.163e-6
-0.967, 7.156e-6
-0.968, 7.149e-6
-0.969, 7.146e-6
-0.970, 7.138e-6
-0.971, 7.132e-6
-0.972, 7.126e-6
-0.973, 7.124e-6
-0.974, 7.117e-6
-0.975, 7.110e-6
-0.976, 7.104e-6
-0.977, 7.098e-6
-0.978, 7.091e-6
-0.979, 7.087e-6
-0.980, 7.080e-6
-0.981, 7.075e-6
-0.982, 7.069e-6
-0.983, 7.062e-6
-0.984, 7.057e-6
-0.985, 7.052e-6
-0.986, 7.047e-6
-0.987, 7.041e-6
-0.988, 7.035e-6
-0.989, 7.030e-6
-0.990, 7.024e-6
-0.991, 7.018e-6
-0.992, 7.014e-6
-0.993, 7.008e-6
-0.994, 7.003e-6
-0.995, 6.999e-6
-0.996, 6.992e-6
-0.997, 6.987e-6
-0.998, 6.983e-6
-0.999, 6.978e-6
-1.000, 6.973e-6
-1.001, 6.967e-6
-1.002, 6.962e-6
-1.003, 6.958e-6
-1.004, 6.953e-6
-1.005, 6.948e-6
-1.006, 6.942e-6
-1.007, 6.938e-6
-1.008, 6.933e-6
-1.009, 6.929e-6
-1.010, 6.922e-6
-1.011, 6.919e-6
-1.012, 6.915e-6
-1.013, 6.911e-6
-1.014, 6.913e-6
-1.015, 6.904e-6
-1.016, 6.903e-6
-1.017, 6.898e-6
-1.018, 6.893e-6
-1.019, 6.890e-6
-1.020, 6.884e-6
-1.021, 6.879e-6
-1.022, 6.879e-6
-1.023, 6.875e-6
-1.024, 6.873e-6
-1.025, 6.870e-6
-1.026, 6.865e-6
-1.027, 6.863e-6
-1.028, 6.861e-6
-1.029, 6.858e-6
-1.030, 6.856e-6
-1.031, 6.851e-6
-1.032, 6.849e-6
-1.033, 6.846e-6
-1.034, 6.843e-6
-1.035, 6.841e-6
-1.036, 6.838e-6
-1.037, 6.836e-6
-1.038, 6.832e-6
-1.039, 6.830e-6
-1.040, 6.828e-6
-1.041, 6.826e-6
-1.042, 6.825e-6
-1.043, 6.823e-6
-1.044, 6.825e-6
-1.045, 6.823e-6
-1.046, 6.833e-6
-1.047, 6.824e-6
-1.048, 6.821e-6
-1.049, 6.828e-6
-1.050, 6.830e-6
-1.051, 6.828e-6
-1.052, 6.829e-6
-1.053, 6.829e-6
-1.054, 6.834e-6
-1.055, 6.831e-6
-1.056, 6.825e-6
-1.057, 6.836e-6
-1.058, 6.838e-6
-1.059, 6.825e-6
-1.060, 6.825e-6
-1.061, 6.824e-6
-1.062, 6.828e-6
-1.063, 6.829e-6
-1.064, 6.831e-6
-1.065, 6.833e-6
-1.066, 6.834e-6
-1.067, 6.838e-6
-1.068, 6.840e-6
-1.069, 6.842e-6
-1.070, 6.843e-6
-1.071, 6.846e-6
-1.072, 6.849e-6
-1.073, 6.851e-6
-1.074, 6.855e-6
-1.075, 6.858e-6
-1.076, 6.862e-6
-1.077, 6.866e-6
-1.078, 6.869e-6
-1.079, 6.872e-6
-1.080, 6.877e-6
-1.081, 6.881e-6
-1.082, 6.887e-6
-1.083, 6.890e-6
-1.084, 6.896e-6
-1.085, 6.900e-6
-1.086, 6.904e-6
-1.087, 6.909e-6
-1.088, 6.914e-6
-1.089, 6.919e-6
-1.090, 6.924e-6
-1.091, 6.930e-6
-1.092, 6.933e-6
-1.093, 6.940e-6
-1.094, 6.948e-6
-1.095, 6.950e-6
-1.096, 6.955e-6
-1.097, 6.961e-6
-1.098, 6.966e-6
-1.099, 6.974e-6
-1.100, 6.978e-6
-1.101, 6.985e-6
-1.102, 7.003e-6
-1.103, 7.010e-6
-1.104, 7.005e-6
-1.105, 7.020e-6
-1.106, 7.029e-6
-1.107, 7.035e-6
-1.108, 7.043e-6
-1.109, 7.046e-6
-1.110, 7.059e-6
-1.111, 7.064e-6
-1.112, 7.070e-6
-1.113, 7.077e-6
-1.114, 7.088e-6
-1.115, 7.091e-6
-1.116, 7.099e-6
-1.117, 7.103e-6
-1.118, 7.113e-6
-1.119, 7.119e-6
-1.120, 7.125e-6
-1.121, 7.133e-6
-1.122, 7.141e-6
-1.123, 7.147e-6
-1.124, 7.153e-6
-1.125, 7.165e-6
-1.126, 7.182e-6
-1.127, 7.192e-6
-1.128, 7.192e-6
-1.129, 7.199e-6
-1.130, 7.206e-6
-1.131, 7.215e-6
-1.132, 7.226e-6
-1.133, 7.235e-6
-1.134, 7.245e-6
-1.135, 7.256e-6
-1.136, 7.263e-6
-1.137, 7.271e-6
-1.138, 7.279e-6
-1.139, 7.291e-6
-1.140, 7.298e-6
-1.141, 7.307e-6
-1.142, 7.326e-6
-1.143, 7.354e-6
-1.144, 7.372e-6
-1.145, 7.378e-6
-1.146, 7.388e-6
-1.147, 7.392e-6
-1.148, 7.397e-6
-1.149, 7.407e-6
-1.150, 7.415e-6
-1.151, 7.426e-6
-1.152, 7.441e-6
-1.153, 7.450e-6
-1.154, 7.460e-6
-1.155, 7.475e-6
-1.156, 7.483e-6
-1.157, 7.487e-6
-1.158, 7.498e-6
-1.159, 7.508e-6
-1.160, 7.517e-6
-1.161, 7.527e-6
-1.162, 7.538e-6
-1.163, 7.549e-6
-1.164, 7.558e-6
-1.165, 7.568e-6
-1.166, 7.580e-6
-1.167, 7.590e-6
-1.168, 7.602e-6
-1.169, 7.615e-6
-1.170, 7.626e-6
-1.171, 7.641e-6
-1.172, 7.653e-6
-1.173, 7.663e-6
-1.174, 7.679e-6
-1.175, 7.690e-6
-1.176, 7.701e-6
-1.177, 7.716e-6
-1.178, 7.732e-6
-1.179, 7.743e-6
-1.180, 7.757e-6
-1.181, 7.767e-6
-1.182, 7.781e-6
-1.183, 7.791e-6
-1.184, 7.806e-6
-1.185, 7.819e-6
-1.186, 7.830e-6
-1.187, 7.844e-6
-1.188, 7.858e-6
-1.189, 7.871e-6
-1.190, 7.885e-6
-1.191, 7.898e-6
-1.192, 7.913e-6
-1.193, 7.930e-6
-1.194, 7.940e-6
-1.195, 7.953e-6
-1.196, 7.968e-6
-1.197, 7.982e-6
-1.198, 7.996e-6
-1.199, 8.010e-6
-1.200, 8.024e-6
-1.201, 8.037e-6
-1.202, 8.051e-6
-1.203, 8.066e-6
-1.204, 8.082e-6
-1.205, 8.094e-6
-1.206, 8.109e-6
-1.207, 8.124e-6
-1.208, 8.138e-6
-1.209, 8.153e-6
-1.210, 8.168e-6
-1.211, 8.182e-6
-1.212, 8.199e-6
-1.213, 8.215e-6
-1.214, 8.232e-6
-1.215, 8.248e-6
-1.216, 8.265e-6
-1.217, 8.286e-6
-1.218, 8.302e-6
-1.219, 8.318e-6
-1.220, 8.333e-6
-1.221, 8.348e-6
-1.222, 8.366e-6
-1.223, 8.380e-6
-1.224, 8.396e-6
-1.225, 8.413e-6
-1.226, 8.428e-6
-1.227, 8.445e-6
-1.228, 8.460e-6
-1.229, 8.480e-6
-1.230, 8.494e-6
-1.231, 8.509e-6
-1.232, 8.526e-6
-1.233, 8.545e-6
-1.234, 8.559e-6
-1.235, 8.574e-6
-1.236, 8.589e-6
-1.237, 8.605e-6
-1.238, 8.621e-6
-1.239, 8.637e-6
-1.240, 8.654e-6
-1.241, 8.672e-6
-1.242, 8.691e-6
-1.243, 8.706e-6
-1.244, 8.725e-6
-1.245, 8.740e-6
-1.246, 8.758e-6
-1.247, 8.776e-6
-1.248, 8.794e-6
-1.249, 8.810e-6
-1.250, 8.826e-6
-1.251, 8.843e-6
-1.252, 8.861e-6
-1.253, 8.878e-6
-1.254, 8.896e-6
-1.255, 8.913e-6
-1.256, 8.931e-6
-1.257, 8.948e-6
-1.258, 8.967e-6
-1.259, 8.987e-6
-1.260, 9.005e-6
-1.261, 9.023e-6
-1.262, 9.042e-6
-1.263, 9.058e-6
-1.264, 9.077e-6
-1.265, 9.096e-6
-1.266, 9.113e-6
-1.267, 9.133e-6
-1.268, 9.151e-6
-1.269, 9.170e-6
-1.270, 9.190e-6
-1.271, 9.207e-6
-1.272, 9.228e-6
-1.273, 9.248e-6
-1.274, 9.268e-6
-1.275, 9.287e-6
-1.276, 9.307e-6
-1.277, 9.328e-6
-1.278, 9.347e-6
-1.279, 9.368e-6
-1.280, 9.389e-6
-1.281, 9.410e-6
-1.282, 9.430e-6
-1.283, 9.447e-6
-1.284, 9.468e-6
-1.285, 9.487e-6
-1.286, 9.509e-6
-1.287, 9.530e-6
-1.288, 9.551e-6
-1.289, 9.575e-6
-1.290, 9.596e-6
-1.291, 9.618e-6
-1.292, 9.640e-6
-1.293, 9.660e-6
-1.294, 9.681e-6
-1.295, 9.701e-6
-1.296, 9.722e-6
-1.297, 9.747e-6
-1.298, 9.766e-6
-1.299, 9.790e-6
-1.300, 9.812e-6
-1.301, 9.831e-6
-1.302, 9.853e-6
-1.303, 9.874e-6
-1.304, 9.896e-6
-1.305, 9.917e-6
-1.306, 9.940e-6
-1.307, 9.961e-6
-1.308, 9.983e-6
-1.309, 1.001e-5
-1.310, 1.003e-5
-1.311, 1.005e-5
-1.312, 1.007e-5
-1.313, 1.010e-5
-1.314, 1.012e-5
-1.315, 1.014e-5
-1.316, 1.016e-5
-1.317, 1.018e-5
-1.318, 1.020e-5
-1.319, 1.023e-5
-1.320, 1.025e-5
-1.321, 1.027e-5
-1.322, 1.030e-5
-1.323, 1.032e-5
-1.324, 1.034e-5
-1.325, 1.037e-5
-1.326, 1.039e-5
-1.327, 1.041e-5
-1.328, 1.044e-5
-1.329, 1.046e-5
-1.330, 1.049e-5
-1.331, 1.051e-5
-1.332, 1.053e-5
-1.333, 1.056e-5
-1.334, 1.058e-5
-1.335, 1.060e-5
-1.336, 1.063e-5
-1.337, 1.065e-5
-1.338, 1.068e-5
-1.339, 1.071e-5
-1.340, 1.073e-5
-1.341, 1.075e-5
-1.342, 1.078e-5
-1.343, 1.080e-5
-1.344, 1.083e-5
-1.345, 1.086e-5
-1.346, 1.088e-5
-1.347, 1.091e-5
-1.348, 1.093e-5
-1.349, 1.096e-5
-1.350, 1.098e-5
-1.351, 1.100e-5
-1.352, 1.103e-5
-1.353, 1.105e-5
-1.354, 1.107e-5
-1.355, 1.110e-5
-1.356, 1.112e-5
-1.357, 1.115e-5
-1.358, 1.118e-5
-1.359, 1.120e-5
-1.360, 1.123e-5
-1.361, 1.126e-5
-1.362, 1.128e-5
-1.363, 1.131e-5
-1.364, 1.134e-5
-1.365, 1.136e-5
-1.366, 1.139e-5
-1.367, 1.142e-5
-1.368, 1.144e-5
-1.369, 1.147e-5
-1.370, 1.150e-5
-1.371, 1.152e-5
-1.372, 1.155e-5
-1.373, 1.158e-5
-1.374, 1.161e-5
-1.375, 1.164e-5
-1.376, 1.167e-5
-1.377, 1.170e-5
-1.378, 1.173e-5
-1.379, 1.176e-5
-1.380, 1.179e-5
-1.381, 1.182e-5
-1.382, 1.185e-5
-1.383, 1.188e-5
-1.384, 1.191e-5
-1.385, 1.194e-5
-1.386, 1.197e-5
-1.387, 1.199e-5
-1.388, 1.202e-5
-1.389, 1.205e-5
-1.390, 1.208e-5
-1.391, 1.211e-5
-1.392, 1.215e-5
-1.393, 1.222e-5
-1.394, 1.230e-5
-1.395, 1.245e-5
-1.396, 1.269e-5
-1.397, 1.294e-5
-1.398, 1.317e-5
-1.399, 1.335e-5
-1.400, 1.339e-5
-1.401, 1.332e-5
-1.402, 1.330e-5
-1.403, 1.346e-5
-1.404, 1.367e-5
-1.405, 1.378e-5
-1.406, 1.377e-5
-1.407, 1.367e-5
-1.408, 1.356e-5
-1.409, 1.347e-5
-1.410, 1.340e-5
-1.411, 1.337e-5
-1.412, 1.337e-5
-1.413, 1.337e-5
-1.414, 1.339e-5
-1.415, 1.341e-5
-1.416, 1.343e-5
-1.417, 1.346e-5
-1.418, 1.349e-5
-1.419, 1.355e-5
-1.420, 1.358e-5
-1.421, 1.360e-5
-1.422, 1.365e-5
-1.423, 1.369e-5
-1.424, 1.373e-5
-1.425, 1.376e-5
-1.426, 1.381e-5
-1.427, 1.388e-5
-1.428, 1.396e-5
-1.429, 1.404e-5
-1.430, 1.418e-5
-1.431, 1.421e-5
-1.432, 1.415e-5
-1.433, 1.417e-5
-1.434, 1.419e-5
-1.435, 1.423e-5
-1.436, 1.427e-5
-1.437, 1.430e-5
-1.438, 1.434e-5
-1.439, 1.439e-5
-1.440, 1.444e-5
-1.441, 1.449e-5
-1.442, 1.454e-5
-1.443, 1.459e-5
-1.444, 1.464e-5
-1.445, 1.469e-5
-1.446, 1.475e-5
-1.447, 1.480e-5
-1.448, 1.485e-5
-1.449, 1.491e-5
-1.450, 1.496e-5
-1.451, 1.501e-5
-1.452, 1.506e-5
-1.453, 1.511e-5
-1.454, 1.517e-5
-1.455, 1.523e-5
-1.456, 1.529e-5
-1.457, 1.535e-5
-1.458, 1.542e-5
-1.459, 1.550e-5
-1.460, 1.556e-5
-1.461, 1.563e-5
-1.462, 1.569e-5
-1.463, 1.575e-5
-1.464, 1.583e-5
-1.465, 1.589e-5
-1.466, 1.596e-5
-1.467, 1.604e-5
-1.468, 1.610e-5
-1.469, 1.616e-5
-1.470, 1.625e-5
-1.471, 1.634e-5
-1.472, 1.642e-5
-1.473, 1.656e-5
-1.474, 1.665e-5
-1.475, 1.697e-5
-1.476, 1.708e-5
-1.477, 1.709e-5
-1.478, 1.711e-5
-1.479, 1.714e-5
-1.480, 1.722e-5
-1.481, 1.729e-5
-1.482, 1.735e-5
-1.483, 1.742e-5
-1.484, 1.750e-5
-1.485, 1.758e-5
-1.486, 1.769e-5
-1.487, 1.777e-5
-1.488, 1.786e-5
-1.489, 1.794e-5
-1.490, 1.803e-5
-1.491, 1.813e-5
-1.492, 1.821e-5
-1.493, 1.831e-5
-1.494, 1.841e-5
-1.495, 1.850e-5
-1.496, 1.860e-5
-1.497, 1.870e-5
-1.498, 1.880e-5
-1.499, 1.891e-5
-1.500, 1.902e-5
-1.501, 1.912e-5
-1.502, 1.924e-5
-1.503, 1.934e-5
-1.504, 1.945e-5
-1.505, 1.956e-5
-1.506, 1.968e-5
-1.507, 1.980e-5
-1.508, 1.993e-5
-1.509, 2.005e-5
-1.510, 2.018e-5
-1.511, 2.030e-5
-1.512, 2.047e-5
-1.513, 2.059e-5
-1.514, 2.068e-5
-1.515, 2.081e-5
-1.516, 2.097e-5
-1.517, 2.114e-5
-1.518, 2.129e-5
-1.519, 2.145e-5
-1.520, 2.160e-5
-1.521, 2.171e-5
-1.522, 2.183e-5
-1.523, 2.196e-5
-1.524, 2.213e-5
-1.525, 2.229e-5
-1.526, 2.245e-5
-1.527, 2.261e-5
-1.528, 2.276e-5
-1.529, 2.292e-5
-1.530, 2.310e-5
-1.531, 2.328e-5
-1.532, 2.345e-5
-1.533, 2.360e-5
-1.534, 2.379e-5
-1.535, 2.398e-5
-1.536, 2.421e-5
-1.537, 2.436e-5
-1.538, 2.453e-5
-1.539, 2.474e-5
-1.540, 2.496e-5
-1.541, 2.517e-5
-1.542, 2.538e-5
-1.543, 2.553e-5
-1.544, 2.571e-5
-1.545, 2.590e-5
-1.546, 2.606e-5
-1.547, 2.625e-5
-1.548, 2.644e-5
-1.549, 2.670e-5
-1.550, 2.700e-5
-1.551, 2.739e-5
-1.552, 2.749e-5
-1.553, 2.767e-5
-1.554, 2.789e-5
-1.555, 2.812e-5
-1.556, 2.841e-5
-1.557, 2.873e-5
-1.558, 2.898e-5
-1.559, 2.922e-5
-1.560, 2.952e-5
-1.561, 2.990e-5
-1.562, 3.024e-5
-1.563, 3.058e-5
-1.564, 3.090e-5
-1.565, 3.121e-5
-1.566, 3.153e-5
-1.567, 3.184e-5
-1.568, 3.217e-5
-1.569, 3.247e-5
-1.570, 3.276e-5
-1.571, 3.308e-5
-1.572, 3.339e-5
-1.573, 3.368e-5
-1.574, 3.397e-5
-1.575, 3.427e-5
-1.576, 3.457e-5
-1.577, 3.487e-5
-1.578, 3.523e-5
-1.579, 3.551e-5
-1.580, 3.581e-5
-1.581, 3.612e-5
-1.582, 3.645e-5
-1.583, 3.679e-5
-1.584, 3.714e-5
-1.585, 3.749e-5
-1.586, 3.784e-5
-1.587, 3.818e-5
-1.588, 3.854e-5
-1.589, 3.901e-5
-1.590, 3.946e-5
-1.591, 3.982e-5
-1.592, 4.016e-5
-1.593, 4.070e-5
-1.594, 4.163e-5
-1.595, 4.172e-5
-1.596, 4.219e-5
-1.597, 4.246e-5
-1.598, 4.281e-5
-1.599, 4.323e-5
-1.600, 4.365e-5
-1.601, 4.409e-5
-1.602, 4.467e-5
-1.603, 4.536e-5
-1.604, 4.616e-5
-1.605, 4.698e-5
-1.606, 4.766e-5
-1.607, 4.824e-5
-1.608, 4.876e-5
-1.609, 4.930e-5
-1.610, 4.977e-5
-1.611, 5.018e-5
-1.612, 5.052e-5
-1.613, 5.082e-5
-1.614, 5.118e-5
-1.615, 5.154e-5
-1.616, 5.189e-5
-1.617, 5.223e-5
-1.618, 5.266e-5
-1.619, 5.320e-5
-1.620, 5.359e-5
-1.621, 5.397e-5
-1.622, 5.450e-5
-1.623, 5.502e-5
-1.624, 5.568e-5
-1.625, 5.624e-5
-1.626, 5.666e-5
-1.627, 5.705e-5
-1.628, 5.751e-5
-1.629, 5.806e-5
-1.630, 5.862e-5
-1.631, 5.919e-5
-1.632, 5.983e-5
-1.633, 6.055e-5
-1.634, 6.119e-5
-1.635, 6.185e-5
-1.636, 6.254e-5
-1.637, 6.322e-5
-1.638, 6.398e-5
-1.639, 6.471e-5
-1.640, 6.539e-5
-1.641, 6.616e-5
-1.642, 6.689e-5
-1.643, 6.762e-5
-1.644, 6.840e-5
-1.645, 6.920e-5
-1.646, 6.995e-5
-1.647, 7.075e-5
-1.648, 7.158e-5
-1.649, 7.234e-5
-1.650, 7.315e-5
-1.651, 7.394e-5
-1.652, 7.480e-5
-1.653, 7.567e-5
-1.654, 7.658e-5
-1.655, 7.743e-5
-1.656, 7.828e-5
-1.657, 7.910e-5
-1.658, 8.002e-5
-1.659, 8.098e-5
-1.660, 8.189e-5
-1.661, 8.275e-5
-1.662, 8.382e-5
-1.663, 8.504e-5
-1.664, 8.609e-5
-1.665, 8.776e-5
-1.666, 8.840e-5
-1.667, 8.884e-5
-1.668, 8.976e-5
-1.669, 9.068e-5
-1.670, 9.150e-5
-1.671, 9.241e-5
-1.672, 9.336e-5
-1.673, 9.428e-5
-1.674, 9.531e-5
-1.675, 9.638e-5
-1.676, 9.736e-5
-1.677, 9.846e-5
-1.678, 9.948e-5
-1.679, 1.006e-4
-1.680, 1.018e-4
-1.681, 1.028e-4
-1.682, 1.039e-4
-1.683, 1.050e-4
-1.684, 1.061e-4
-1.685, 1.073e-4
-1.686, 1.084e-4
-1.687, 1.096e-4
-1.688, 1.107e-4
-1.689, 1.118e-4
-1.690, 1.131e-4
-1.691, 1.143e-4
-1.692, 1.156e-4
-1.693, 1.168e-4
-1.694, 1.181e-4
-1.695, 1.193e-4
-1.696, 1.206e-4
-1.697, 1.219e-4
-1.698, 1.233e-4
-1.699, 1.245e-4
-1.700, 1.258e-4
-1.701, 1.271e-4
-1.702, 1.284e-4
-1.703, 1.297e-4
-1.704, 1.310e-4
-1.705, 1.324e-4
-1.706, 1.337e-4
-1.707, 1.351e-4
-1.708, 1.365e-4
-1.709, 1.379e-4
-1.710, 1.392e-4
-1.711, 1.406e-4
-1.712, 1.421e-4
-1.713, 1.435e-4
-1.714, 1.450e-4
-1.715, 1.464e-4
-1.716, 1.478e-4
-1.717, 1.493e-4
-1.718, 1.508e-4
-1.719, 1.523e-4
-1.720, 1.539e-4
-1.721, 1.555e-4
-1.722, 1.569e-4
-1.723, 1.584e-4
-1.724, 1.600e-4
-1.725, 1.617e-4
-1.726, 1.633e-4
-1.727, 1.649e-4
-1.728, 1.666e-4
-1.729, 1.683e-4
-1.730, 1.700e-4
-1.731, 1.718e-4
-1.732, 1.736e-4
-1.733, 1.755e-4
-1.734, 1.773e-4
-1.735, 1.793e-4
-1.736, 1.813e-4
-1.737, 1.834e-4
-1.738, 1.856e-4
-1.739, 1.878e-4
-1.740, 1.901e-4
-1.741, 1.925e-4
-1.742, 1.950e-4
-1.743, 1.974e-4
-1.744, 2.000e-4
-1.745, 2.027e-4
-1.746, 2.055e-4
-1.747, 2.085e-4
-1.748, 2.115e-4
-1.749, 2.147e-4
-1.750, 2.180e-4
-1.751, 2.214e-4
-1.752, 2.249e-4
-1.753, 2.285e-4
-1.754, 2.322e-4
-1.755, 2.358e-4
-1.756, 2.398e-4
-1.757, 2.438e-4
-1.758, 2.477e-4
-1.759, 2.515e-4
-1.760, 2.555e-4
-1.761, 2.595e-4
-1.762, 2.635e-4
-1.763, 2.677e-4
-1.764, 2.719e-4
-1.765, 2.761e-4
-1.766, 2.803e-4
-1.767, 2.846e-4
-1.768, 2.890e-4
-1.769, 2.935e-4
-1.770, 2.979e-4
-1.771, 3.023e-4
-1.772, 3.068e-4
-1.773, 3.113e-4
-1.774, 3.159e-4
-1.775, 3.206e-4
-1.776, 3.253e-4
-1.777, 3.300e-4
-1.778, 3.348e-4
-1.779, 3.397e-4
-1.780, 3.446e-4
-1.781, 3.496e-4
-1.782, 3.546e-4
-1.783, 3.595e-4
-1.784, 3.645e-4
-1.785, 3.695e-4
-1.786, 3.746e-4
-1.787, 3.797e-4
-1.788, 3.849e-4
-1.789, 3.901e-4
-1.790, 3.955e-4
-1.791, 4.009e-4
-1.792, 4.062e-4
-1.793, 4.115e-4
-1.794, 4.169e-4
-1.795, 4.223e-4
-1.796, 4.278e-4
-1.797, 4.332e-4
-1.798, 4.387e-4
-1.799, 4.443e-4
-1.800, 4.499e-4
-1.801, 4.555e-4
-1.802, 4.613e-4
-1.803, 4.672e-4
-1.804, 4.730e-4
-1.805, 4.788e-4
-1.806, 4.846e-4
-1.807, 4.905e-4
-1.808, 4.965e-4
-1.809, 5.024e-4
-1.810, 5.084e-4
-1.811, 5.144e-4
-1.812, 5.204e-4
-1.813, 5.264e-4
-1.814, 5.324e-4
-1.815, 5.385e-4
-1.816, 5.447e-4
-1.817, 5.508e-4
-1.818, 5.570e-4
-1.819, 5.632e-4
-1.820, 5.693e-4
-1.821, 5.756e-4
-1.822, 5.819e-4
-1.823, 5.883e-4
-1.824, 5.946e-4
-1.825, 6.008e-4
-1.826, 6.071e-4
-1.827, 6.134e-4
-1.828, 6.198e-4
-1.829, 6.263e-4
-1.830, 6.328e-4
-1.831, 6.393e-4
-1.832, 6.459e-4
-1.833, 6.524e-4
-1.834, 6.589e-4
-1.835, 6.655e-4
-1.836, 6.722e-4
-1.837, 6.787e-4
-1.838, 6.852e-4
-1.839, 6.916e-4
-1.840, 6.982e-4
-1.841, 7.049e-4
-1.842, 7.116e-4
-1.843, 7.183e-4
-1.844, 7.251e-4
-1.845, 7.320e-4
-1.846, 7.389e-4
-1.847, 7.458e-4
-1.848, 7.526e-4
-1.849, 7.594e-4
-1.850, 7.665e-4
-1.851, 7.736e-4
-1.852, 7.808e-4
-1.853, 7.879e-4
-1.854, 7.950e-4
-1.855, 8.021e-4
-1.856, 8.093e-4
-1.857, 8.164e-4
-1.858, 8.235e-4
-1.859, 8.307e-4
-1.860, 8.380e-4
-1.861, 8.452e-4
-1.862, 8.525e-4
-1.863, 8.599e-4
-1.864, 8.672e-4
-1.865, 8.746e-4
-1.866, 8.820e-4
-1.867, 8.893e-4
-1.868, 8.966e-4
-1.869, 9.041e-4
-1.870, 9.116e-4
-1.871, 9.192e-4
-1.872, 9.268e-4
-1.873, 9.344e-4
-1.874, 9.419e-4
-1.875, 9.495e-4
-1.876, 9.570e-4
-1.877, 9.647e-4
-1.878, 9.723e-4
-1.879, 9.802e-4
-1.880, 9.880e-4
-1.881, 9.957e-4
-1.882, 1.003e-3
-1.883, 1.010e-3
-1.884, 1.011e-3
-1.885, 1.011e-3
-1.886, 1.011e-3
-1.887, 1.011e-3
-1.888, 1.011e-3
-1.889, 1.011e-3
-1.890, 1.011e-3
-1.891, 1.011e-3
-1.892, 1.011e-3
-1.893, 1.011e-3
-1.894, 1.011e-3
-1.895, 1.011e-3
-1.896, 1.011e-3
-1.897, 1.011e-3
-1.898, 1.011e-3
-1.899, 1.011e-3
-1.900, 1.011e-3
-1.901, 1.011e-3
-1.902, 1.011e-3
-1.903, 1.011e-3
-1.904, 1.011e-3
-1.905, 1.011e-3
-1.906, 1.011e-3
-1.907, 1.011e-3
-1.908, 1.011e-3
-1.909, 1.011e-3
-1.910, 1.011e-3
-1.911, 1.011e-3
-1.912, 1.011e-3
-1.913, 1.011e-3
-1.914, 1.011e-3
-1.915, 1.011e-3
-1.916, 1.011e-3
-1.917, 1.011e-3
-1.918, 1.011e-3
-1.919, 1.011e-3
-1.920, 1.011e-3
-1.921, 1.011e-3
-1.922, 1.011e-3
-1.923, 1.011e-3
-1.924, 1.011e-3
-1.925, 1.011e-3
-1.926, 1.011e-3
-1.927, 1.011e-3
-1.928, 1.011e-3
-1.929, 1.011e-3
-1.930, 1.011e-3
-1.931, 1.011e-3
-1.932, 1.011e-3
-1.933, 1.011e-3
-1.934, 1.011e-3
-1.935, 1.011e-3
-1.936, 1.011e-3
-1.937, 1.011e-3
-1.938, 1.011e-3
-1.939, 1.011e-3
-1.940, 1.011e-3
-1.941, 1.011e-3
-1.942, 1.011e-3
-1.943, 1.011e-3
-1.944, 1.011e-3
-1.945, 1.011e-3
-1.946, 1.011e-3
-1.947, 1.011e-3
-1.948, 1.011e-3
-1.949, 1.011e-3
-1.950, 1.011e-3
-1.951, 1.011e-3
-1.952, 1.011e-3
-1.953, 1.011e-3
-1.954, 1.011e-3
-1.955, 1.011e-3
-1.956, 1.011e-3
-1.957, 1.011e-3
-1.958, 1.011e-3
-1.959, 1.011e-3
-1.960, 1.011e-3
-1.961, 1.011e-3
-1.962, 1.011e-3
-1.963, 1.011e-3
-1.964, 1.011e-3
-1.965, 1.011e-3
-1.966, 1.011e-3
-1.967, 1.011e-3
-1.968, 1.011e-3
-1.969, 1.011e-3
-1.970, 1.011e-3
-1.971, 1.011e-3
-1.972, 1.011e-3
-1.973, 1.011e-3
-1.974, 1.011e-3
-1.975, 1.011e-3
-1.976, 1.011e-3
-1.977, 1.011e-3
-1.978, 1.011e-3
-1.979, 1.011e-3
-1.980, 1.011e-3
-1.981, 1.011e-3
-1.982, 1.011e-3
-1.983, 1.011e-3
-1.984, 1.011e-3
-1.985, 1.011e-3
-1.986, 1.011e-3
-1.987, 1.011e-3
-1.988, 1.011e-3
-1.989, 1.011e-3
-1.990, 1.011e-3
-1.991, 1.011e-3
-1.992, 1.011e-3
-1.993, 1.011e-3
-1.994, 1.011e-3
-1.995, 1.011e-3
-1.996, 1.011e-3
-1.997, 1.011e-3
-1.998, 1.011e-3
-1.999, 1.011e-3
-2.000, 1.011e-3
-2.001, 1.011e-3
-2.002, 1.011e-3
-2.003, 1.011e-3
-2.004, 1.011e-3
-2.005, 1.011e-3
-2.006, 1.011e-3
-2.007, 1.011e-3
-2.008, 1.011e-3
-2.009, 1.011e-3
-2.010, 1.011e-3
-2.011, 1.011e-3
-2.012, 1.011e-3
-2.013, 1.011e-3
-2.014, 1.011e-3
-2.015, 1.011e-3
-2.016, 1.011e-3
-2.017, 1.011e-3
-2.018, 1.011e-3
-2.019, 1.011e-3
-2.020, 1.011e-3
-2.021, 1.011e-3
-2.022, 1.011e-3
-2.023, 1.011e-3
-2.024, 1.011e-3
-2.025, 1.011e-3
-2.026, 1.011e-3
-2.027, 1.011e-3
-2.028, 1.011e-3
-2.029, 1.011e-3
-2.030, 1.011e-3
-2.031, 1.011e-3
-2.032, 1.011e-3
-2.033, 1.011e-3
-2.034, 1.011e-3
-2.035, 1.011e-3
-2.036, 1.011e-3
-2.037, 1.011e-3
-2.038, 1.011e-3
-2.039, 1.011e-3
-2.040, 1.011e-3
-2.041, 1.011e-3
-2.042, 1.011e-3
-2.043, 1.011e-3
-2.044, 1.011e-3
-2.045, 1.011e-3
-2.046, 1.011e-3
-2.047, 1.011e-3
-2.048, 1.011e-3
-2.049, 1.011e-3
-2.050, 1.011e-3
-2.051, 1.011e-3
-2.052, 1.011e-3
-2.053, 1.011e-3
-2.054, 1.011e-3
-2.055, 1.011e-3
-2.056, 1.011e-3
-2.057, 1.011e-3
-2.058, 1.011e-3
-2.059, 1.011e-3
-2.060, 1.011e-3
-2.061, 1.011e-3
-2.062, 1.011e-3
-2.063, 1.011e-3
-2.064, 1.011e-3
-2.065, 1.011e-3
-2.066, 1.011e-3
-2.067, 1.011e-3
-2.068, 1.011e-3
-2.069, 1.011e-3
-2.070, 1.011e-3
-2.071, 1.011e-3
-2.072, 1.011e-3
-2.073, 1.011e-3
-2.074, 1.011e-3
-2.075, 1.011e-3
-2.076, 1.011e-3
-2.077, 1.011e-3
-2.078, 1.011e-3
-2.079, 1.011e-3
-2.080, 1.011e-3
-2.081, 1.011e-3
-2.082, 1.011e-3
-2.083, 1.011e-3
-2.084, 1.011e-3
-2.085, 1.011e-3
-2.086, 1.011e-3
-2.087, 1.011e-3
-2.088, 1.011e-3
-2.089, 1.011e-3
-2.090, 1.011e-3
-2.091, 1.011e-3
-2.092, 1.011e-3
-2.093, 1.011e-3
-2.094, 1.011e-3
-2.095, 1.011e-3
-2.096, 1.011e-3
-2.097, 1.011e-3
-2.098, 1.011e-3
-2.099, 1.011e-3
-2.100, 1.011e-3
-2.101, 1.011e-3
-2.102, 1.011e-3
-2.103, 1.011e-3
-2.104, 1.011e-3
-2.105, 1.011e-3
-2.106, 1.011e-3
-2.107, 1.011e-3
-2.108, 1.011e-3
-2.109, 1.011e-3
-2.110, 1.011e-3
-2.111, 1.011e-3
-2.112, 1.011e-3
-2.113, 1.011e-3
-2.114, 1.011e-3
-2.115, 1.011e-3
-2.116, 1.011e-3
-2.117, 1.011e-3
-2.118, 1.011e-3
-2.119, 1.011e-3
-2.120, 1.011e-3
-2.121, 1.011e-3
-2.122, 1.011e-3
-2.123, 1.011e-3
-2.124, 1.011e-3
-2.125, 1.011e-3
-2.126, 1.011e-3
-2.127, 1.011e-3
-2.128, 1.011e-3
-2.129, 1.011e-3
-2.130, 1.011e-3
-2.131, 1.011e-3
-2.132, 1.011e-3
-2.133, 1.011e-3
-2.134, 1.011e-3
-2.135, 1.011e-3
-2.136, 1.011e-3
-2.137, 1.011e-3
-2.138, 1.011e-3
-2.139, 1.011e-3
-2.140, 1.011e-3
-2.141, 1.011e-3
-2.142, 1.011e-3
-2.143, 1.011e-3
-2.144, 1.011e-3
-2.145, 1.011e-3
-2.146, 1.011e-3
-2.147, 1.011e-3
-2.148, 1.011e-3
-2.149, 1.011e-3
-2.150, 1.011e-3
-2.151, 1.011e-3
-2.152, 1.011e-3
-2.153, 1.011e-3
-2.154, 1.011e-3
-2.155, 1.011e-3
-2.156, 1.011e-3
-2.157, 1.011e-3
-2.158, 1.011e-3
-2.159, 1.011e-3
-2.160, 1.011e-3
-2.161, 1.011e-3
-2.162, 1.011e-3
-2.163, 1.011e-3
-2.164, 1.011e-3
-2.165, 1.011e-3
-2.166, 1.011e-3
-2.167, 1.011e-3
-2.168, 1.011e-3
-2.169, 1.011e-3
-2.170, 1.011e-3
-2.171, 1.011e-3
-2.172, 1.011e-3
-2.173, 1.011e-3
-2.174, 1.011e-3
-2.175, 1.011e-3
-2.176, 1.011e-3
-2.177, 1.011e-3
-2.178, 1.011e-3
-2.179, 1.011e-3
-2.180, 1.011e-3
-2.181, 1.011e-3
-2.182, 1.011e-3
-2.183, 1.011e-3
-2.184, 1.011e-3
-2.185, 1.011e-3
-2.186, 1.011e-3
-2.187, 1.011e-3
-2.188, 1.011e-3
-2.189, 1.011e-3
-2.190, 1.011e-3
-2.191, 1.011e-3
-2.192, 1.011e-3
-2.193, 1.011e-3
-2.194, 1.011e-3
-2.195, 1.011e-3
-2.196, 1.011e-3
-2.197, 1.011e-3
-2.198, 1.011e-3
-2.199, 1.011e-3
-2.200, 1.011e-3
-2.201, 1.011e-3
-2.202, 1.011e-3
-2.203, 1.011e-3
-2.204, 1.011e-3
-2.205, 1.011e-3
-2.206, 1.011e-3
-2.207, 1.011e-3
-2.208, 1.011e-3
-2.209, 1.011e-3
-2.210, 1.011e-3
-2.211, 1.011e-3
-2.212, 1.011e-3
-2.213, 1.011e-3
-2.214, 1.011e-3
-2.215, 1.011e-3
-2.216, 1.011e-3
-2.217, 1.011e-3
-2.218, 1.011e-3
-2.219, 1.011e-3
-2.220, 1.011e-3
-2.221, 1.011e-3
-2.222, 1.011e-3
-2.223, 1.011e-3
-2.224, 1.011e-3
-2.225, 1.011e-3
-2.226, 1.011e-3
-2.227, 1.011e-3
-2.228, 1.011e-3
-2.229, 1.011e-3
-2.230, 1.011e-3
-2.231, 1.011e-3
-2.232, 1.011e-3
-2.233, 1.011e-3
-2.234, 1.011e-3
-2.235, 1.011e-3
-2.236, 1.011e-3
-2.237, 1.011e-3
-2.238, 1.011e-3
-2.239, 1.011e-3
-2.240, 1.011e-3
-2.241, 1.011e-3
-2.242, 1.011e-3
-2.243, 1.011e-3
-2.244, 1.011e-3
-2.245, 1.011e-3
-2.246, 1.011e-3
-2.247, 1.011e-3
-2.248, 1.011e-3
-2.249, 1.011e-3
-2.250, 1.011e-3
-2.251, 1.011e-3
-2.252, 1.011e-3
-2.253, 1.011e-3
-2.254, 1.011e-3
-2.255, 1.011e-3
-2.256, 1.011e-3
-2.257, 1.011e-3
-2.258, 1.011e-3
-2.259, 1.011e-3
-2.260, 1.011e-3
-2.261, 1.011e-3
-2.262, 1.011e-3
-2.263, 1.011e-3
-2.264, 1.011e-3
-2.265, 1.011e-3
-2.266, 1.011e-3
-2.267, 1.011e-3
-2.268, 1.011e-3
-2.269, 1.011e-3
-2.270, 1.011e-3
-2.271, 1.011e-3
-2.272, 1.011e-3
-2.273, 1.011e-3
-2.274, 1.011e-3
-2.275, 1.011e-3
-2.276, 1.011e-3
-2.277, 1.011e-3
-2.278, 1.011e-3
-2.279, 1.011e-3
-2.280, 1.011e-3
-2.281, 1.011e-3
-2.282, 1.011e-3
-2.283, 1.011e-3
-2.284, 1.011e-3
-2.285, 1.011e-3
-2.286, 1.011e-3
-2.287, 1.011e-3
-2.288, 1.011e-3
-2.289, 1.011e-3
-2.290, 1.011e-3
-2.291, 1.011e-3
-2.292, 1.011e-3
-2.293, 1.011e-3
-2.294, 1.011e-3
-2.295, 1.011e-3
-2.296, 1.011e-3
-2.297, 1.011e-3
-2.298, 1.011e-3
-2.299, 1.011e-3
