Potential V vs RHE, Current mA cm-2
0.013299999999999867,-5.063251742216966
0.012299999999999978,-7.804962241355407
0.011299999999999866,-10.051523785541084
0.010299999999999976,-12.015143069753755
0.009299999999999864,-13.278480260533234
0.008299999999999974,-14.373466806628771
0.007299999999999862,-15.660854089505953
0.006299999999999972,-16.495533756426326
0.00529999999999986,-17.103859615368293
0.0042999999999999705,-18.03756907327922
0.0032999999999998586,-18.759071836210385
0.0022999999999999687,-19.056161209182044
0.0012999999999998568,-19.664487068124007
0.00029999999999996696,-20.286960040064624
-0.000700000000000145,-20.48501962204573
-0.0017000000000000348,-20.79625610801604
-0.0027000000000001467,-21.418729079956652
-0.0037000000000000366,-21.67337711393236
-0.0047000000000001485,-21.814848243918867
-0.005700000000000038,-22.38073276386488
-0.00670000000000015,-22.80514615382439
-0.00770000000000004,-22.819293266823045
-0.008700000000000152,-23.15882397879065
-0.009700000000000042,-23.62567870774611
-0.010700000000000154,-23.653972933743415
-0.011700000000000044,-23.809591176728567
-0.012700000000000156,-24.290593018682678
-0.013700000000000045,-24.417917035670534
-0.014700000000000157,-24.432064148669184
-0.015700000000000047,-24.799889086634096
-0.01670000000000016,-25.09697845960575
-0.01770000000000005,-24.983801555616548
-0.01870000000000016,-25.210155363594954
-0.01970000000000005,-25.563833188561212
-0.020700000000000163,-25.49309762356796
-0.021700000000000053,-25.535538962563912
-0.022700000000000164,-25.90336390052882
-0.023700000000000054,-25.86092256153287
-0.024700000000000166,-25.81848122253692
-0.025700000000000056,-26.14386482150588
-0.026700000000000168,-26.34192440348698
-0.027700000000000058,-26.242894612496432
-0.02870000000000017,-26.440954194477534
-0.02970000000000006,-26.780484906445146
-0.03070000000000017,-26.709749341451893
-0.03170000000000006,-26.851220471438396
-0.03270000000000017,-27.289780974396557
-0.03370000000000006,-27.303928087395207
-0.034700000000000175,-27.176604070407354
-0.035700000000000065,-27.445399217381713
-0.03670000000000018,-27.417104991384413
-0.03770000000000007,-26.97854448842625
-0.03870000000000018,-27.162456957408708
-0.03970000000000007,-27.473693443379013
-0.04070000000000018,-27.332222313392506
-0.04170000000000007,-27.31807520039386
-0.04270000000000018,-27.700047251357418
-0.04370000000000007,-27.756635703352025
-0.044700000000000184,-27.62931168636417
-0.045700000000000074,-27.883959720339874
-0.046700000000000186,-28.09616641531963
-0.047700000000000076,-27.940548172334477
-0.04870000000000019,-28.082019302320973
-0.04970000000000008,-28.32252022329803
-0.05070000000000019,-28.166901980312883
-0.05170000000000008,-28.18104909331153
-0.05270000000000019,-28.49228557928184
-0.05370000000000008,-28.49228557928184
-0.05470000000000019,-28.421550014288584
-0.05570000000000008,-28.690345161262943
-0.056700000000000195,-28.8176691782508
-0.057700000000000085,-28.633756709268344
-0.058700000000000196,-28.80352206525215
-0.059700000000000086,-29.058170099227848
-0.0607000000000002,-28.944993195238652
-0.06170000000000009,-29.044022986229205
-0.0627000000000002,-29.38355369819681
-0.06370000000000009,-29.29867102020491
-0.0647000000000002,-29.14305277721976
-0.06570000000000009,-29.32696524620221
-0.0667000000000002,-29.39770081119546
-0.0677000000000001,-29.18549411621571
-0.0687000000000002,-29.35525947219951
-0.0697000000000001,-29.62405461917387
-0.07070000000000021,-29.525024828183312
-0.0717000000000001,-29.496730602186016
-0.07270000000000021,-29.80796708815632
-0.0737000000000001,-29.822114201154974
-0.07470000000000021,-29.73723152316307
-0.0757000000000001,-30.10505646112798
-0.07670000000000021,-30.288968930110435
-0.0777000000000001,-30.10505646112798
-0.07870000000000021,-30.246527591114486
-0.0797000000000001,-30.47288139909289
-0.08070000000000022,-30.331410269106385
-0.0817000000000001,-30.303116043109085
-0.08270000000000022,-30.62849964207804
-0.08370000000000011,-30.656793868075347
-0.08470000000000022,-30.642646755076694
-0.08570000000000011,-30.968030354045652
-0.08670000000000022,-31.151942823028104
-0.08770000000000011,-30.99632458004295
-0.08870000000000022,-31.180237049025404
-0.08970000000000011,-31.420737970002463
-0.09070000000000022,-31.22267838802136
-0.09170000000000011,-31.19438416202406
-0.09270000000000023,-31.49147353499572
-0.09370000000000012,-31.449032195999767
-0.09470000000000023,-31.36414951800786
-0.09570000000000012,-31.64709177798087
-0.09670000000000023,-31.802710020966025
-0.09770000000000012,-31.689533116976815
-0.09870000000000023,-31.930034037953877
-0.09970000000000012,-32.283711862920136
-0.10070000000000023,-32.22712341092554
-0.10170000000000012,-32.31200608891744
-0.10270000000000024,-32.7505665918756
-0.10370000000000013,-32.7788608178729
-0.10470000000000024,-32.693978139881004
-0.10570000000000013,-33.00521462585131
-0.10670000000000024,-33.21742132083106
-0.10770000000000013,-33.10424441684186
-0.10870000000000024,-33.316451111821614
-0.10970000000000013,-33.64183471079057
-0.11070000000000024,-33.58524625879597
-0.11170000000000013,-33.64183471079057
-0.11270000000000002,-34.03795387475279
-0.11370000000000013,-34.12283655274469
-0.11470000000000002,-34.05210098775143
-0.11570000000000014,-34.36333747372174
-0.11670000000000003,-34.5472499427042
-0.11770000000000014,-34.47651437771095
-0.11870000000000003,-34.787750863681254
-0.11970000000000014,-35.15557580164616
-0.12070000000000003,-35.169722914644815
-0.12170000000000014,-35.311194044631314
-0.12270000000000003,-35.721460321592176
-0.12370000000000014,-35.778048773586775
-0.12470000000000003,-35.778048773586775
-0.12570000000000014,-36.21660927654494
-0.12670000000000003,-36.5136986495166
-0.12770000000000015,-36.40052174552739
-0.12870000000000004,-36.7117582314977
-0.12970000000000015,-37.136171621457216
-0.13070000000000004,-37.093730282461266
-0.13170000000000015,-37.334231203438314
-0.13270000000000004,-37.87182149738703
-0.13370000000000015,-37.99914551437489
-0.13470000000000004,-38.09817530536544
-0.13570000000000015,-38.55088292132225
-0.13670000000000004,-38.83382518129526
-0.13770000000000016,-38.706501164307404
-0.13870000000000005,-39.03188476327636
-0.13970000000000016,-39.45629815323587
-0.14070000000000005,-39.42800392723857
-0.14170000000000016,-39.59776928322238
-0.14270000000000005,-40.135359577171094
-0.14370000000000016,-40.26268359415894
-0.14470000000000005,-40.30512493315489
-0.14570000000000016,-40.78612677510901
-0.14670000000000005,-41.15395171307392
-0.14770000000000016,-41.25298150406447
-0.14870000000000005,-41.677394894023976
-0.14970000000000017,-42.214985187972694
-0.15070000000000006,-42.4130447699538
-0.15170000000000017,-42.51207456094435
-0.15270000000000006,-43.06381196789171
-0.15370000000000017,-43.53066669684718
-0.15470000000000006,-43.82775606981884
-0.15570000000000017,-44.42193481576215
-0.15670000000000006,-44.88878954471762
-0.15770000000000017,-45.044407787702774
-0.15870000000000006,-45.412232725667685
-0.15970000000000018,-45.83664611562718
-0.16070000000000007,-45.90738168062044
-0.16170000000000018,-46.02055858460964
-0.16270000000000007,-46.572295991557006
-0.16370000000000018,-46.77035557353811
-0.16470000000000007,-46.77035557353811
-0.16570000000000018,-47.16647473750032
-0.16670000000000007,-47.57674101446119
-0.16770000000000018,-47.77480059644228
-0.16870000000000007,-48.29824377739235
-0.16970000000000018,-48.89242252333566
-0.17070000000000007,-49.062187879319474
-0.17170000000000019,-49.43001281728438
-0.17270000000000008,-50.179809806212845
-0.1737000000000002,-50.547634744177756
-0.17470000000000008,-50.81642989115212
-0.1757000000000002,-51.38231441109813
-0.17670000000000008,-51.792580688059
-0.1777000000000002,-51.82087491405629
-0.17870000000000008,-52.17455273902255
-0.1797000000000002,-52.71214303297127
-0.18070000000000008,-52.938496840949675
-0.1817000000000002,-53.419498682903786
-0.18270000000000008,-54.22588412382685
-0.1837000000000002,-54.60785617479041
-0.1847000000000001,-55.018122451751275
-0.1857000000000002,-55.79621366667705
-0.1867000000000001,-56.26306839563251
-0.1877000000000002,-56.34795107362442
-0.1887000000000001,-56.74407023758662
-0.1897000000000002,-57.28166053153533
-0.1907000000000001,-57.493867226515086
-0.1917000000000001,-57.91828061647461
-0.19269999999999998,-58.66807760540307
-0.1937000000000001,-58.965166978374725
-0.19469999999999998,-59.19152078635314
-0.1957000000000001,-59.87058221028835
-0.19669999999999999,-60.37987827823977
-0.1977000000000001,-60.62037919921682
-0.1987,-61.28529351015339
-0.1997000000000001,-61.96435493408861
-0.2007,-62.26144430706027
-0.2017000000000001,-62.71415192301708
-0.2027,-63.4780960249442
-0.2037000000000001,-63.831773849910455
-0.2047,-64.1288632228821
-0.2057000000000001,-64.82207175981598
-0.2067,-65.31722071476874
-0.2077000000000001,-65.48698607075255
-0.2087,-66.12360615569182
-0.2097000000000001,-66.85925603162164
-0.2107,-67.22708096958654
-0.2117000000000001,-67.82125971552985
-0.2127,-68.65593938245023
-0.2137000000000001,-68.96717586842054
-0.2147,-69.33500080638545
-0.2157000000000001,-70.38188716828559
-0.2167,-71.1458312702127
-0.21770000000000012,-71.52780332117625
-0.2187,-72.15027629311687
-0.21970000000000012,-72.73030792606153
-0.2207,-72.90007328204534
-0.22170000000000012,-73.3952222369981
-0.2227,-74.13087211292792
-0.22370000000000012,-74.39966725990229
-0.2247,-74.79578642386448
-0.22570000000000012,-75.65876031678216
-0.2267,-76.19635061073087
-0.22770000000000012,-76.49343998370253
-0.22870000000000001,-77.22908985963235
-0.22970000000000013,-77.97888684856083
-0.23070000000000002,-78.20524065653922
-0.23170000000000013,-78.65794827249603
-0.23270000000000002,-79.56336350440966
-0.23370000000000013,-80.12924802435568
-0.23470000000000002,-80.6385440923071
-0.23570000000000013,-81.45907664622881
-0.23670000000000002,-82.10984384416672
-0.2376999999999999,-82.43522744313569
-0.23870000000000002,-83.1991715450628
-0.2396999999999999,-83.96311564698992
-0.24070000000000003,-84.34508769795349
-0.24169999999999991,-84.96756066989411
-0.24270000000000003,-85.78809322381582
-0.24369999999999992,-86.25494795277129
-0.24470000000000003,-86.6227728907362
-0.24569999999999992,-87.44330544465792
-0.24670000000000003,-88.10821975559449
-0.24769999999999992,-88.36286778957019
-0.24870000000000003,-89.15510611749461
-0.24969999999999992,-90.08881557540555
-0.25070000000000003,-90.6122587563556
-0.2516999999999999,-91.26302595429351
-0.25270000000000004,-92.15429407320849
-0.2536999999999999,-92.59285457616664
-0.25470000000000004,-92.96067951413156
-0.2556999999999999,-93.59729959907082
-0.25670000000000004,-94.14903700601819
-0.25769999999999993,-94.5168619439831
-0.25870000000000004,-95.28080604591021
-0.25969999999999993,-96.10133859983195
-0.26070000000000004,-96.49745776379415
-0.26169999999999993,-97.04919517074151
-0.26270000000000004,-97.91216906365919
-0.26369999999999993,-98.46390647060656
-0.26470000000000005,-99.07223232954851
-0.26569999999999994,-100.06253023945405
-0.26670000000000005,-100.89720990637443
-0.26769999999999994,-101.33577040933257
-0.26870000000000005,-102.11386162425833
-0.26969999999999994,-102.84951150018817
-0.27070000000000005,-103.21733643815308
-0.27169999999999994,-103.85395652309235
-0.27270000000000005,-104.90084288499246
-0.27369999999999994,-105.53746296993172
-0.27470000000000006,-106.07505326388046
-0.27569999999999995,-106.98046849579409
-0.27670000000000006,-107.65952991972928
-0.27769999999999995,-108.04150197069285
-0.27870000000000006,-108.86203452461457
-0.27969999999999995,-109.75330264352955
-0.28070000000000006,-110.17771603348905
-0.28169999999999995,-110.71530632743777
-0.28270000000000006,-111.54998599435814
-0.28369999999999995,-112.15831185330009
-0.28470000000000006,-112.80907905123803
-0.28569999999999995,-113.9549952041287
-0.28670000000000007,-114.87455754904099
-0.28769999999999996,-115.25652960000453
-0.28870000000000007,-115.94973813693841
-0.28969999999999996,-116.91174182084664
-0.29070000000000007,-117.67568592277377
-0.29169999999999996,-118.63768960668197
-0.29270000000000007,-119.769458646574
-0.29369999999999996,-120.39193161851462
-0.2947000000000001,-120.87293346046872
-0.29569999999999996,-121.76420157938371
-0.2967000000000001,-122.64132258530003
-0.29769999999999996,-123.29208978323796
-0.2987000000000001,-124.23994635414752
-0.29969999999999997,-125.15950869905981
-0.3007000000000001,-125.64051054101391
-0.30169999999999997,-126.3195719649491
-0.3027000000000001,-127.28157564885734
-0.30369999999999997,-127.79087171680875
-0.3047000000000001,-128.48408025374263
-0.30569999999999997,-129.884644440609
-0.3067000000000001,-131.1437374974889
-0.3077,-132.06329984240116
-0.3087000000000001,-133.06774486530534
-0.3097,-133.94486587122168
-0.3107000000000001,-134.39757348717848
-0.3117,-134.97760512012314
-0.3127000000000001,-136.0103443690246
-0.3137,-136.6186702279666
-0.3147000000000001,-137.17040763491394
-0.3157,-138.28802956180735
-0.3167000000000001,-139.2641803587142
-0.3177,-139.84421199165885
-0.3187000000000001,-140.59400898058735
-0.3197,-141.47112998650366
-0.3207000000000001,-142.31995676642268
-0.3217,-143.3102546763282
-0.3227000000000001,-144.58349484620675
-0.3237,-145.57379275611228
-0.3247000000000001,-146.4226195360313
-0.3257,-147.55438857592333
-0.3267000000000001,-148.54468648582886
-0.3277,-149.39351326574788
-0.3287000000000001,-150.66675343562642
-0.3297,-151.7985224755184
-0.3307000000000001,-152.36440699546444
-0.3317,-153.21323377538346
-0.3327000000000001,-154.0620605553025
-0.3337,-154.6279450752485
-0.3347000000000001,-155.19382959519453
-0.3357,-156.46706976507306
-0.3367000000000001,-157.7403099349516
-0.3377,-158.87207897484362
-0.3387000000000001,-160.28679027470866
-0.3397,-161.70150157457368
-0.3407000000000001,-162.6917994844792
-0.3417,-163.82356852437124
-0.3427000000000001,-165.3797509542228
-0.3437,-166.3700488641283
-0.3447000000000001,-167.21887564404733
-0.3457,-168.35064468393938
-0.3467000000000001,-169.0580003338719
-0.3477,-169.6238848538179
-0.3487000000000001,-170.89712502369645
-0.3497,-172.59477858353446
-0.3507000000000001,-173.58507649344
-0.3517,-174.99978779330505
-0.3527000000000001,-176.6974413531431
-0.3537,-177.82921039303508
-0.3547000000000001,-178.67803717295413
-0.3557,-180.09274847281918
-0.35670000000000013,-181.64893090267074
-0.3577,-182.78069994256273
-0.35870000000000013,-184.33688237241427
-0.3597,-185.89306480226583
-0.36070000000000013,-187.30777610213087
-0.3617,-188.72248740199586
-0.3626999999999999,-190.42014096183394
-0.3637,-191.69338113171247
-0.3646999999999999,-192.966621301591
-0.3657,-194.38133260145605
-0.3666999999999999,-195.65457277133459
-0.3677,-196.6448706812401
-0.3686999999999999,-198.3425242410781
-0.36970000000000003,-199.75723554094319
-0.3706999999999999,-200.6060623208622
-0.37170000000000003,-202.02077362072723
-0.3726999999999999,-203.85989831055176
-0.37370000000000003,-205.13313848043032
-0.3746999999999999,-206.54784978029537
-0.37570000000000003,-208.1040322101469
-0.3766999999999999,-209.51874351001192
-0.37770000000000004,-210.93345480987696
-0.3786999999999999,-212.631108369715
-0.37970000000000004,-214.18729079956654
-0.3806999999999999,-215.31905983945856
-0.38170000000000004,-216.87524226931012
-0.38269999999999993,-218.71436695913465
-0.38370000000000004,-220.41202051897272
-0.38469999999999993,-221.96820294882426
-0.38570000000000004,-223.6658565086623
-0.38669999999999993,-221.68526068885126
-0.38570000000000004,-216.59230000933712
-0.38469999999999993,-212.914050629688
-0.38370000000000004,-209.8016857699849
-0.38269999999999993,-206.26490752032234
-0.38170000000000004,-203.01107153063276
-0.3806999999999999,-200.18164893090267
-0.37970000000000004,-197.35222633117263
-0.3786999999999999,-194.38133260145605
-0.37770000000000004,-191.83485226169896
-0.3766999999999999,-188.8639585319824
-0.37570000000000003,-185.89306480226583
-0.3746999999999999,-183.48805559249527
-0.37370000000000003,-181.2245175127112
-0.3726999999999999,-178.3950949129811
-0.37170000000000003,-175.56567231325104
-0.3706999999999999,-173.302134233467
-0.36970000000000003,-170.75565389370993
-0.3686999999999999,-168.06770242396635
-0.3677,-165.6626932141958
-0.3666999999999999,-163.25768400442522
-0.3657,-160.71120366466818
-0.3646999999999999,-158.4476655848841
-0.3637,-156.46706976507306
-0.3626999999999999,-153.920589425316
-0.3617,-151.65705134553193
-0.36070000000000013,-149.39351326574788
-0.3597,-146.9885040559773
-0.35870000000000013,-144.58349484620675
-0.3577,-142.7443701563822
-0.35670000000000013,-140.66474454558062
-0.3557,-138.40120646579655
-0.3547000000000001,-136.57622888897063
-0.3537,-134.66636863415286
-0.3527000000000001,-132.3462421023742
-0.3517,-130.32320494356716
-0.3507000000000001,-128.59725715773186
-0.3497,-126.47519020793426
-0.3487000000000001,-124.19750501515158
-0.3477,-122.33008609932973
-0.3467000000000001,-120.37778450551596
-0.3457,-118.26986466871706
-0.3447000000000001,-116.67124089986959
-0.3437,-115.22823537400723
-0.3427000000000001,-113.45984624917594
-0.3417,-111.6207215593514
-0.3407000000000001,-109.8806266605174
-0.3397,-107.8575895017104
-0.3387000000000001,-105.94772924689259
-0.3377,-104.4056939300397
-0.3367000000000001,-102.67974614420436
-0.3357,-100.76988588938657
-0.3347000000000001,-99.28443902452827
-0.3337,-97.68581525568078
-0.3327000000000001,-95.60618964487918
-0.3317,-93.76706495505464
-0.3307000000000001,-92.23917675120039
-0.3297,-90.41419917437449
-0.3287000000000001,-88.6741042755405
-0.3277,-87.44330544465792
-0.3267000000000001,-85.91541724080368
-0.3257,-84.04799832498183
-0.3247000000000001,-82.44937455613434
-0.3237,-80.8366036742882
-0.3227000000000001,-78.99747898446365
-0.3217,-77.45544366761075
-0.3207000000000001,-76.26708617572413
-0.3197,-74.64016818087934
-0.3187000000000001,-72.97080884703858
-0.3177,-71.74001001615602
-0.3167000000000001,-70.28285737729502
-0.3157,-68.59935093045563
-0.3147000000000001,-67.34025787357575
-0.3137,-66.13775326869046
-0.3127000000000001,-64.56742372584027
-0.3117,-63.26588932996445
-0.3107000000000001,-62.17656162906836
-0.3097,-60.71940899020737
-0.3087000000000001,-59.19152078635314
-0.3077,-57.96072195547055
-0.3067000000000001,-56.44698086461496
-0.30569999999999997,-54.66444462678501
-0.3047000000000001,-53.447792908901086
-0.30369999999999997,-52.2169940780185
-0.3027000000000001,-50.43445784018856
-0.30169999999999997,-48.97730520132757
-0.3007000000000001,-47.902124613430146
-0.29969999999999997,-46.501560426563756
-0.2987000000000001,-45.28490870867982
-0.29769999999999996,-44.54925883275
-0.2967000000000001,-43.558960922844484
-0.29569999999999996,-42.158396735978094
-0.2947000000000001,-41.139804600075266
-0.29369999999999996,-40.177800916167044
-0.29270000000000007,-38.777236729300654
-0.29169999999999996,-37.53229078541942
-0.29070000000000007,-36.55613998851254
-0.28969999999999996,-35.240458479638065
-0.28870000000000007,-33.95307119676088
-0.28769999999999996,-33.10424441684186
-0.28670000000000007,-31.986622489948477
-0.28569999999999995,-30.642646755076694
-0.28470000000000006,-29.73723152316307
-0.28369999999999995,-28.831816291249446
-0.28270000000000006,-27.572723234369565
-0.28169999999999995,-26.511689759470787
-0.28070000000000006,-25.705304318547718
-0.27969999999999995,-24.502799713662437
-0.27870000000000006,-23.300295108777156
-0.27769999999999995,-22.479762554855434
-0.27670000000000006,-21.447023305953955
-0.27569999999999995,-20.230371588070028
-0.27470000000000006,-19.49472171214021
-0.27369999999999994,-18.716630497214435
-0.27270000000000005,-17.570714344323754
-0.27169999999999994,-16.721887564404735
-0.27070000000000005,-16.11356170546277
-0.26969999999999994,-15.02423400456669
-0.26870000000000005,-13.968859374867373
-0.26769999999999994,-13.285553817032559
