Dec. 19, 2024   01:30:39
Cyclic Voltammetry
File: c:/users/guazh/data/banditlqround7_x0exp667_r5/2024-12-16-exp696\exp696-2024-12-19t01_21_18-arkoh\exp696_cv_sr_50mvs_efin_-1500mv.bin
Data Source:  Experiment
Instrument Model:  CHI760E
Header: CV ran at 50 mVs
Note: 

Init E (V) = -1
High E (V) = -1
Low E (V) = -1.5
Final E (V) = -1
Init P/N = N
Scan Rate (V/s) = 0.05
Segment = 3
Sample Interval (V) = 0.001
Quiet Time (sec) = 2
Sensitivity (A/V) = 0.01
Comp R (ohm) = 1.2

Results:

Channel 1:
Segment 1:
Ep = -1.277V
ip = 4.382e-4A
Ah = 8.733e-4C

Segment 2:

Segment 3:

Potential/V, Current/A

-1.000, -1.562e-4
-1.001, -9.379e-5
-1.002, -5.087e-5
-1.003, -1.951e-5
-1.004, 7.585e-6
-1.005, 3.151e-5
-1.006, 5.259e-5
-1.007, 6.932e-5
-1.008, 8.300e-5
-1.009, 9.709e-5
-1.010, 1.114e-4
-1.011, 1.243e-4
-1.012, 1.358e-4
-1.013, 1.446e-4
-1.014, 1.540e-4
-1.015, 1.650e-4
-1.016, 1.748e-4
-1.017, 1.833e-4
-1.018, 1.900e-4
-1.019, 1.979e-4
-1.020, 2.070e-4
-1.021, 2.152e-4
-1.022, 2.221e-4
-1.023, 2.280e-4
-1.024, 2.348e-4
-1.025, 2.420e-4
-1.026, 2.497e-4
-1.027, 2.552e-4
-1.028, 2.604e-4
-1.029, 2.659e-4
-1.030, 2.732e-4
-1.031, 2.806e-4
-1.032, 2.844e-4
-1.033, 2.892e-4
-1.034, 2.945e-4
-1.035, 3.011e-4
-1.036, 3.083e-4
-1.037, 3.122e-4
-1.038, 3.167e-4
-1.039, 3.212e-4
-1.040, 3.269e-4
-1.041, 3.337e-4
-1.042, 3.384e-4
-1.043, 3.422e-4
-1.044, 3.469e-4
-1.045, 3.521e-4
-1.046, 3.581e-4
-1.047, 3.627e-4
-1.048, 3.660e-4
-1.049, 3.713e-4
-1.050, 3.765e-4
-1.051, 3.817e-4
-1.052, 3.856e-4
-1.053, 3.885e-4
-1.054, 3.936e-4
-1.055, 3.995e-4
-1.056, 4.048e-4
-1.057, 4.091e-4
-1.058, 4.131e-4
-1.059, 4.141e-4
-1.060, 4.201e-4
-1.061, 4.255e-4
-1.062, 4.292e-4
-1.063, 4.319e-4
-1.064, 4.359e-4
-1.065, 4.418e-4
-1.066, 4.475e-4
-1.067, 4.500e-4
-1.068, 4.534e-4
-1.069, 4.567e-4
-1.070, 4.619e-4
-1.071, 4.680e-4
-1.072, 4.713e-4
-1.073, 4.745e-4
-1.074, 4.755e-4
-1.075, 4.822e-4
-1.076, 4.870e-4
-1.077, 4.911e-4
-1.078, 4.938e-4
-1.079, 4.965e-4
-1.080, 5.004e-4
-1.081, 5.057e-4
-1.082, 5.091e-4
-1.083, 5.111e-4
-1.084, 5.169e-4
-1.085, 5.203e-4
-1.086, 5.251e-4
-1.087, 5.310e-4
-1.088, 5.308e-4
-1.089, 5.351e-4
-1.090, 5.373e-4
-1.091, 5.422e-4
-1.092, 5.479e-4
-1.093, 5.501e-4
-1.094, 5.543e-4
-1.095, 5.590e-4
-1.096, 5.633e-4
-1.097, 5.682e-4
-1.098, 5.700e-4
-1.099, 5.725e-4
-1.100, 5.788e-4
-1.101, 5.826e-4
-1.102, 5.872e-4
-1.103, 5.892e-4
-1.104, 5.936e-4
-1.105, 5.989e-4
-1.106, 6.059e-4
-1.107, 6.108e-4
-1.108, 6.117e-4
-1.109, 6.139e-4
-1.110, 6.202e-4
-1.111, 6.249e-4
-1.112, 6.306e-4
-1.113, 6.343e-4
-1.114, 6.393e-4
-1.115, 6.453e-4
-1.116, 6.509e-4
-1.117, 6.551e-4
-1.118, 6.577e-4
-1.119, 6.623e-4
-1.120, 6.699e-4
-1.121, 6.775e-4
-1.122, 6.823e-4
-1.123, 6.861e-4
-1.124, 6.903e-4
-1.125, 6.969e-4
-1.126, 7.034e-4
-1.127, 7.098e-4
-1.128, 7.136e-4
-1.129, 7.189e-4
-1.130, 7.263e-4
-1.131, 7.347e-4
-1.132, 7.405e-4
-1.133, 7.453e-4
-1.134, 7.507e-4
-1.135, 7.574e-4
-1.136, 7.648e-4
-1.137, 7.692e-4
-1.138, 7.754e-4
-1.139, 7.845e-4
-1.140, 7.931e-4
-1.141, 8.012e-4
-1.142, 8.073e-4
-1.143, 8.122e-4
-1.144, 8.169e-4
-1.145, 8.242e-4
-1.146, 8.315e-4
-1.147, 8.410e-4
-1.148, 8.477e-4
-1.149, 8.540e-4
-1.150, 8.625e-4
-1.151, 8.702e-4
-1.152, 8.778e-4
-1.153, 8.838e-4
-1.154, 8.925e-4
-1.155, 8.979e-4
-1.156, 9.082e-4
-1.157, 9.156e-4
-1.158, 9.203e-4
-1.159, 9.285e-4
-1.160, 9.368e-4
-1.161, 9.454e-4
-1.162, 9.526e-4
-1.163, 9.585e-4
-1.164, 9.660e-4
-1.165, 9.786e-4
-1.166, 9.889e-4
-1.167, 9.959e-4
-1.168, 9.998e-4
-1.169, 1.006e-3
-1.170, 1.016e-3
-1.171, 1.025e-3
-1.172, 1.032e-3
-1.173, 1.039e-3
-1.174, 1.046e-3
-1.175, 1.056e-3
-1.176, 1.066e-3
-1.177, 1.076e-3
-1.178, 1.082e-3
-1.179, 1.089e-3
-1.180, 1.098e-3
-1.181, 1.108e-3
-1.182, 1.116e-3
-1.183, 1.123e-3
-1.184, 1.129e-3
-1.185, 1.138e-3
-1.186, 1.147e-3
-1.187, 1.156e-3
-1.188, 1.164e-3
-1.189, 1.170e-3
-1.190, 1.180e-3
-1.191, 1.191e-3
-1.192, 1.198e-3
-1.193, 1.206e-3
-1.194, 1.209e-3
-1.195, 1.221e-3
-1.196, 1.232e-3
-1.197, 1.241e-3
-1.198, 1.247e-3
-1.199, 1.251e-3
-1.200, 1.263e-3
-1.201, 1.274e-3
-1.202, 1.284e-3
-1.203, 1.290e-3
-1.204, 1.296e-3
-1.205, 1.303e-3
-1.206, 1.314e-3
-1.207, 1.321e-3
-1.208, 1.329e-3
-1.209, 1.337e-3
-1.210, 1.346e-3
-1.211, 1.356e-3
-1.212, 1.367e-3
-1.213, 1.370e-3
-1.214, 1.374e-3
-1.215, 1.385e-3
-1.216, 1.394e-3
-1.217, 1.400e-3
-1.218, 1.408e-3
-1.219, 1.411e-3
-1.220, 1.424e-3
-1.221, 1.431e-3
-1.222, 1.441e-3
-1.223, 1.445e-3
-1.224, 1.450e-3
-1.225, 1.462e-3
-1.226, 1.471e-3
-1.227, 1.481e-3
-1.228, 1.485e-3
-1.229, 1.493e-3
-1.230, 1.502e-3
-1.231, 1.511e-3
-1.232, 1.516e-3
-1.233, 1.524e-3
-1.234, 1.529e-3
-1.235, 1.538e-3
-1.236, 1.548e-3
-1.237, 1.555e-3
-1.238, 1.558e-3
-1.239, 1.562e-3
-1.240, 1.566e-3
-1.241, 1.576e-3
-1.242, 1.585e-3
-1.243, 1.586e-3
-1.244, 1.596e-3
-1.245, 1.600e-3
-1.246, 1.606e-3
-1.247, 1.613e-3
-1.248, 1.615e-3
-1.249, 1.623e-3
-1.250, 1.629e-3
-1.251, 1.641e-3
-1.252, 1.641e-3
-1.253, 1.638e-3
-1.254, 1.644e-3
-1.255, 1.646e-3
-1.256, 1.652e-3
-1.257, 1.659e-3
-1.258, 1.662e-3
-1.259, 1.667e-3
-1.260, 1.670e-3
-1.261, 1.673e-3
-1.262, 1.674e-3
-1.263, 1.676e-3
-1.264, 1.676e-3
-1.265, 1.683e-3
-1.266, 1.688e-3
-1.267, 1.689e-3
-1.268, 1.689e-3
-1.269, 1.690e-3
-1.270, 1.689e-3
-1.271, 1.694e-3
-1.272, 1.697e-3
-1.273, 1.693e-3
-1.274, 1.695e-3
-1.275, 1.695e-3
-1.276, 1.699e-3
-1.277, 1.700e-3
-1.278, 1.697e-3
-1.279, 1.694e-3
-1.280, 1.696e-3
-1.281, 1.696e-3
-1.282, 1.695e-3
-1.283, 1.696e-3
-1.284, 1.692e-3
-1.285, 1.693e-3
-1.286, 1.691e-3
-1.287, 1.688e-3
-1.288, 1.685e-3
-1.289, 1.682e-3
-1.290, 1.682e-3
-1.291, 1.680e-3
-1.292, 1.679e-3
-1.293, 1.675e-3
-1.294, 1.672e-3
-1.295, 1.670e-3
-1.296, 1.669e-3
-1.297, 1.665e-3
-1.298, 1.663e-3
-1.299, 1.658e-3
-1.300, 1.653e-3
-1.301, 1.648e-3
-1.302, 1.642e-3
-1.303, 1.641e-3
-1.304, 1.635e-3
-1.305, 1.634e-3
-1.306, 1.630e-3
-1.307, 1.629e-3
-1.308, 1.618e-3
-1.309, 1.614e-3
-1.310, 1.614e-3
-1.311, 1.606e-3
-1.312, 1.605e-3
-1.313, 1.598e-3
-1.314, 1.593e-3
-1.315, 1.589e-3
-1.316, 1.586e-3
-1.317, 1.582e-3
-1.318, 1.574e-3
-1.319, 1.569e-3
-1.320, 1.564e-3
-1.321, 1.562e-3
-1.322, 1.556e-3
-1.323, 1.552e-3
-1.324, 1.546e-3
-1.325, 1.542e-3
-1.326, 1.539e-3
-1.327, 1.538e-3
-1.328, 1.531e-3
-1.329, 1.524e-3
-1.330, 1.527e-3
-1.331, 1.525e-3
-1.332, 1.521e-3
-1.333, 1.515e-3
-1.334, 1.510e-3
-1.335, 1.507e-3
-1.336, 1.504e-3
-1.337, 1.504e-3
-1.338, 1.501e-3
-1.339, 1.498e-3
-1.340, 1.498e-3
-1.341, 1.500e-3
-1.342, 1.497e-3
-1.343, 1.493e-3
-1.344, 1.494e-3
-1.345, 1.505e-3
-1.346, 1.493e-3
-1.347, 1.494e-3
-1.348, 1.497e-3
-1.349, 1.487e-3
-1.350, 1.496e-3
-1.351, 1.497e-3
-1.352, 1.504e-3
-1.353, 1.504e-3
-1.354, 1.512e-3
-1.355, 1.513e-3
-1.356, 1.518e-3
-1.357, 1.523e-3
-1.358, 1.524e-3
-1.359, 1.531e-3
-1.360, 1.535e-3
-1.361, 1.544e-3
-1.362, 1.557e-3
-1.363, 1.557e-3
-1.364, 1.564e-3
-1.365, 1.572e-3
-1.366, 1.582e-3
-1.367, 1.590e-3
-1.368, 1.601e-3
-1.369, 1.608e-3
-1.370, 1.624e-3
-1.371, 1.628e-3
-1.372, 1.639e-3
-1.373, 1.652e-3
-1.374, 1.665e-3
-1.375, 1.678e-3
-1.376, 1.691e-3
-1.377, 1.705e-3
-1.378, 1.719e-3
-1.379, 1.729e-3
-1.380, 1.749e-3
-1.381, 1.763e-3
-1.382, 1.777e-3
-1.383, 1.789e-3
-1.384, 1.803e-3
-1.385, 1.819e-3
-1.386, 1.840e-3
-1.387, 1.859e-3
-1.388, 1.879e-3
-1.389, 1.898e-3
-1.390, 1.914e-3
-1.391, 1.938e-3
-1.392, 1.955e-3
-1.393, 1.976e-3
-1.394, 1.995e-3
-1.395, 2.022e-3
-1.396, 2.046e-3
-1.397, 2.076e-3
-1.398, 2.096e-3
-1.399, 2.128e-3
-1.400, 2.152e-3
-1.401, 2.185e-3
-1.402, 2.217e-3
-1.403, 2.251e-3
-1.404, 2.282e-3
-1.405, 2.317e-3
-1.406, 2.352e-3
-1.407, 2.391e-3
-1.408, 2.429e-3
-1.409, 2.468e-3
-1.410, 2.512e-3
-1.411, 2.557e-3
-1.412, 2.609e-3
-1.413, 2.650e-3
-1.414, 2.700e-3
-1.415, 2.752e-3
-1.416, 2.804e-3
-1.417, 2.858e-3
-1.418, 2.911e-3
-1.419, 2.968e-3
-1.420, 3.033e-3
-1.421, 3.094e-3
-1.422, 3.161e-3
-1.423, 3.225e-3
-1.424, 3.287e-3
-1.425, 3.359e-3
-1.426, 3.428e-3
-1.427, 3.494e-3
-1.428, 3.564e-3
-1.429, 3.635e-3
-1.430, 3.708e-3
-1.431, 3.786e-3
-1.432, 3.861e-3
-1.433, 3.936e-3
-1.434, 4.013e-3
-1.435, 4.088e-3
-1.436, 4.171e-3
-1.437, 4.254e-3
-1.438, 4.346e-3
-1.439, 4.406e-3
-1.440, 4.497e-3
-1.441, 4.592e-3
-1.442, 4.687e-3
-1.443, 4.772e-3
-1.444, 4.864e-3
-1.445, 4.946e-3
-1.446, 5.037e-3
-1.447, 5.128e-3
-1.448, 5.217e-3
-1.449, 5.315e-3
-1.450, 5.406e-3
-1.451, 5.495e-3
-1.452, 5.596e-3
-1.453, 5.674e-3
-1.454, 5.774e-3
-1.455, 5.863e-3
-1.456, 5.949e-3
-1.457, 6.039e-3
-1.458, 6.125e-3
-1.459, 6.207e-3
-1.460, 6.295e-3
-1.461, 6.393e-3
-1.462, 6.470e-3
-1.463, 6.557e-3
-1.464, 6.639e-3
-1.465, 6.719e-3
-1.466, 6.821e-3
-1.467, 6.896e-3
-1.468, 6.983e-3
-1.469, 7.076e-3
-1.470, 7.158e-3
-1.471, 7.241e-3
-1.472, 7.316e-3
-1.473, 7.401e-3
-1.474, 7.483e-3
-1.475, 7.569e-3
-1.476, 7.639e-3
-1.477, 7.732e-3
-1.478, 7.805e-3
-1.479, 7.885e-3
-1.480, 7.960e-3
-1.481, 8.041e-3
-1.482, 8.130e-3
-1.483, 8.203e-3
-1.484, 8.266e-3
-1.485, 8.347e-3
-1.486, 8.412e-3
-1.487, 8.471e-3
-1.488, 8.560e-3
-1.489, 8.657e-3
-1.490, 8.721e-3
-1.491, 8.804e-3
-1.492, 8.889e-3
-1.493, 8.979e-3
-1.494, 9.029e-3
-1.495, 9.113e-3
-1.496, 9.169e-3
-1.497, 9.256e-3
-1.498, 9.374e-3
-1.499, 9.409e-3
-1.500, 9.365e-3
-1.499, 9.281e-3
-1.498, 9.191e-3
-1.497, 9.125e-3
-1.496, 9.022e-3
-1.495, 8.927e-3
-1.494, 8.866e-3
-1.493, 8.775e-3
-1.492, 8.691e-3
-1.491, 8.610e-3
-1.490, 8.541e-3
-1.489, 8.450e-3
-1.488, 8.364e-3
-1.487, 8.304e-3
-1.486, 8.239e-3
-1.485, 8.139e-3
-1.484, 8.045e-3
-1.483, 7.972e-3
-1.482, 7.889e-3
-1.481, 7.774e-3
-1.480, 7.702e-3
-1.479, 7.633e-3
-1.478, 7.575e-3
-1.477, 7.512e-3
-1.476, 7.450e-3
-1.475, 7.365e-3
-1.474, 7.290e-3
-1.473, 7.179e-3
-1.472, 7.155e-3
-1.471, 7.099e-3
-1.470, 7.008e-3
-1.469, 6.949e-3
-1.468, 6.874e-3
-1.467, 6.791e-3
-1.466, 6.711e-3
-1.465, 6.628e-3
-1.464, 6.580e-3
-1.463, 6.488e-3
-1.462, 6.417e-3
-1.461, 6.352e-3
-1.460, 6.289e-3
-1.459, 6.203e-3
-1.458, 6.129e-3
-1.457, 6.026e-3
-1.456, 5.927e-3
-1.455, 5.846e-3
-1.454, 5.801e-3
-1.453, 5.664e-3
-1.452, 5.532e-3
-1.451, 5.436e-3
-1.450, 5.347e-3
-1.449, 5.278e-3
-1.448, 5.217e-3
-1.447, 5.160e-3
-1.446, 5.079e-3
-1.445, 5.003e-3
-1.444, 4.941e-3
-1.443, 4.877e-3
-1.442, 4.816e-3
-1.441, 4.744e-3
-1.440, 4.671e-3
-1.439, 4.610e-3
-1.438, 4.539e-3
-1.437, 4.470e-3
-1.436, 4.412e-3
-1.435, 4.354e-3
-1.434, 4.304e-3
-1.433, 4.239e-3
-1.432, 4.199e-3
-1.431, 4.128e-3
-1.430, 4.080e-3
-1.429, 4.009e-3
-1.428, 3.954e-3
-1.427, 3.894e-3
-1.426, 3.861e-3
-1.425, 3.787e-3
-1.424, 3.731e-3
-1.423, 3.678e-3
-1.422, 3.616e-3
-1.421, 3.560e-3
-1.420, 3.492e-3
-1.419, 3.429e-3
-1.418, 3.352e-3
-1.417, 3.296e-3
-1.416, 3.218e-3
-1.415, 3.168e-3
-1.414, 3.114e-3
-1.413, 3.061e-3
-1.412, 3.001e-3
-1.411, 2.943e-3
-1.410, 2.892e-3
-1.409, 2.842e-3
-1.408, 2.790e-3
-1.407, 2.736e-3
-1.406, 2.684e-3
-1.405, 2.632e-3
-1.404, 2.583e-3
-1.403, 2.527e-3
-1.402, 2.480e-3
-1.401, 2.422e-3
-1.400, 2.380e-3
-1.399, 2.330e-3
-1.398, 2.282e-3
-1.397, 2.237e-3
-1.396, 2.184e-3
-1.395, 2.137e-3
-1.394, 2.091e-3
-1.393, 2.050e-3
-1.392, 2.016e-3
-1.391, 1.958e-3
-1.390, 1.919e-3
-1.389, 1.877e-3
-1.388, 1.839e-3
-1.387, 1.793e-3
-1.386, 1.749e-3
-1.385, 1.708e-3
-1.384, 1.673e-3
-1.383, 1.630e-3
-1.382, 1.587e-3
-1.381, 1.546e-3
-1.380, 1.508e-3
-1.379, 1.474e-3
-1.378, 1.435e-3
-1.377, 1.397e-3
-1.376, 1.360e-3
-1.375, 1.324e-3
-1.374, 1.297e-3
-1.373, 1.261e-3
-1.372, 1.225e-3
-1.371, 1.191e-3
-1.370, 1.158e-3
-1.369, 1.125e-3
-1.368, 1.091e-3
-1.367, 1.056e-3
-1.366, 1.024e-3
-1.365, 9.926e-4
-1.364, 9.648e-4
-1.363, 9.367e-4
-1.362, 9.102e-4
-1.361, 8.770e-4
-1.360, 8.486e-4
-1.359, 8.194e-4
-1.358, 7.921e-4
-1.357, 7.724e-4
-1.356, 7.414e-4
-1.355, 7.168e-4
-1.354, 7.044e-4
-1.353, 6.678e-4
-1.352, 6.408e-4
-1.351, 6.144e-4
-1.350, 5.930e-4
-1.349, 5.707e-4
-1.348, 5.467e-4
-1.347, 5.217e-4
-1.346, 4.992e-4
-1.345, 4.771e-4
-1.344, 4.570e-4
-1.343, 4.356e-4
-1.342, 4.151e-4
-1.341, 3.946e-4
-1.340, 3.717e-4
-1.339, 3.520e-4
-1.338, 3.326e-4
-1.337, 3.134e-4
-1.336, 2.940e-4
-1.335, 2.768e-4
-1.334, 2.590e-4
-1.333, 2.419e-4
-1.332, 2.244e-4
-1.331, 2.052e-4
-1.330, 1.871e-4
-1.329, 1.702e-4
-1.328, 1.556e-4
-1.327, 1.402e-4
-1.326, 1.231e-4
-1.325, 1.080e-4
-1.324, 9.409e-5
-1.323, 7.919e-5
-1.322, 6.207e-5
-1.321, 4.534e-5
-1.320, 3.057e-5
-1.319, 1.722e-5
-1.318, 4.092e-6
-1.317, -1.024e-5
-1.316, -2.540e-5
-1.315, -3.863e-5
-1.314, -4.980e-5
-1.313, -6.223e-5
-1.312, -7.529e-5
-1.311, -9.029e-5
-1.310, -1.037e-4
-1.309, -1.155e-4
-1.308, -1.246e-4
-1.307, -1.360e-4
-1.306, -1.480e-4
-1.305, -1.605e-4
-1.304, -1.695e-4
-1.303, -1.816e-4
-1.302, -1.927e-4
-1.301, -2.053e-4
-1.300, -2.172e-4
-1.299, -2.282e-4
-1.298, -2.396e-4
-1.297, -2.505e-4
-1.296, -2.633e-4
-1.295, -2.732e-4
-1.294, -2.834e-4
-1.293, -2.912e-4
-1.292, -3.019e-4
-1.291, -3.130e-4
-1.290, -3.225e-4
-1.289, -3.338e-4
-1.288, -3.402e-4
-1.287, -3.529e-4
-1.286, -3.628e-4
-1.285, -3.737e-4
-1.284, -3.798e-4
-1.283, -3.898e-4
-1.282, -3.973e-4
-1.281, -4.092e-4
-1.280, -4.194e-4
-1.279, -4.284e-4
-1.278, -4.351e-4
-1.277, -4.432e-4
-1.276, -4.540e-4
-1.275, -4.641e-4
-1.274, -4.703e-4
-1.273, -4.797e-4
-1.272, -4.852e-4
-1.271, -4.950e-4
-1.270, -5.041e-4
-1.269, -5.126e-4
-1.268, -5.216e-4
-1.267, -5.306e-4
-1.266, -5.410e-4
-1.265, -5.521e-4
-1.264, -5.600e-4
-1.263, -5.655e-4
-1.262, -5.738e-4
-1.261, -5.821e-4
-1.260, -5.926e-4
-1.259, -5.993e-4
-1.258, -6.073e-4
-1.257, -6.177e-4
-1.256, -6.267e-4
-1.255, -6.339e-4
-1.254, -6.444e-4
-1.253, -6.506e-4
-1.252, -6.589e-4
-1.251, -6.692e-4
-1.250, -6.843e-4
-1.249, -6.911e-4
-1.248, -6.991e-4
-1.247, -7.053e-4
-1.246, -7.148e-4
-1.245, -7.239e-4
-1.244, -7.317e-4
-1.243, -7.382e-4
-1.242, -7.479e-4
-1.241, -7.571e-4
-1.240, -7.683e-4
-1.239, -7.789e-4
-1.238, -7.877e-4
-1.237, -7.987e-4
-1.236, -8.059e-4
-1.235, -8.170e-4
-1.234, -8.221e-4
-1.233, -8.288e-4
-1.232, -8.400e-4
-1.231, -8.511e-4
-1.230, -8.640e-4
-1.229, -8.722e-4
-1.228, -8.798e-4
-1.227, -8.900e-4
-1.226, -9.013e-4
-1.225, -9.112e-4
-1.224, -9.210e-4
-1.223, -9.257e-4
-1.222, -9.411e-4
-1.221, -9.515e-4
-1.220, -9.621e-4
-1.219, -9.734e-4
-1.218, -9.805e-4
-1.217, -9.919e-4
-1.216, -1.002e-3
-1.215, -1.014e-3
-1.214, -1.024e-3
-1.213, -1.035e-3
-1.212, -1.045e-3
-1.211, -1.056e-3
-1.210, -1.068e-3
-1.209, -1.082e-3
-1.208, -1.086e-3
-1.207, -1.103e-3
-1.206, -1.110e-3
-1.205, -1.119e-3
-1.204, -1.129e-3
-1.203, -1.139e-3
-1.202, -1.154e-3
-1.201, -1.165e-3
-1.200, -1.184e-3
-1.199, -1.190e-3
-1.198, -1.200e-3
-1.197, -1.204e-3
-1.196, -1.215e-3
-1.195, -1.223e-3
-1.194, -1.236e-3
-1.193, -1.245e-3
-1.192, -1.254e-3
-1.191, -1.268e-3
-1.190, -1.283e-3
-1.189, -1.292e-3
-1.188, -1.296e-3
-1.187, -1.309e-3
-1.186, -1.307e-3
-1.185, -1.321e-3
-1.184, -1.331e-3
-1.183, -1.341e-3
-1.182, -1.352e-3
-1.181, -1.361e-3
-1.180, -1.373e-3
-1.179, -1.375e-3
-1.178, -1.382e-3
-1.177, -1.387e-3
-1.176, -1.399e-3
-1.175, -1.404e-3
-1.174, -1.415e-3
-1.173, -1.417e-3
-1.172, -1.423e-3
-1.171, -1.431e-3
-1.170, -1.437e-3
-1.169, -1.443e-3
-1.168, -1.442e-3
-1.167, -1.452e-3
-1.166, -1.456e-3
-1.165, -1.461e-3
-1.164, -1.462e-3
-1.163, -1.468e-3
-1.162, -1.473e-3
-1.161, -1.477e-3
-1.160, -1.485e-3
-1.159, -1.485e-3
-1.158, -1.487e-3
-1.157, -1.493e-3
-1.156, -1.494e-3
-1.155, -1.493e-3
-1.154, -1.495e-3
-1.153, -1.496e-3
-1.152, -1.507e-3
-1.151, -1.509e-3
-1.150, -1.511e-3
-1.149, -1.507e-3
-1.148, -1.508e-3
-1.147, -1.511e-3
-1.146, -1.514e-3
-1.145, -1.516e-3
-1.144, -1.513e-3
-1.143, -1.511e-3
-1.142, -1.509e-3
-1.141, -1.511e-3
-1.140, -1.512e-3
-1.139, -1.510e-3
-1.138, -1.508e-3
-1.137, -1.507e-3
-1.136, -1.505e-3
-1.135, -1.504e-3
-1.134, -1.500e-3
-1.133, -1.496e-3
-1.132, -1.497e-3
-1.131, -1.497e-3
-1.130, -1.501e-3
-1.129, -1.498e-3
-1.128, -1.493e-3
-1.127, -1.491e-3
-1.126, -1.489e-3
-1.125, -1.491e-3
-1.124, -1.485e-3
-1.123, -1.485e-3
-1.122, -1.480e-3
-1.121, -1.478e-3
-1.120, -1.480e-3
-1.119, -1.473e-3
-1.118, -1.474e-3
-1.117, -1.470e-3
-1.116, -1.470e-3
-1.115, -1.462e-3
-1.114, -1.461e-3
-1.113, -1.460e-3
-1.112, -1.456e-3
-1.111, -1.457e-3
-1.110, -1.459e-3
-1.109, -1.458e-3
-1.108, -1.447e-3
-1.107, -1.447e-3
-1.106, -1.449e-3
-1.105, -1.444e-3
-1.104, -1.443e-3
-1.103, -1.442e-3
-1.102, -1.441e-3
-1.101, -1.436e-3
-1.100, -1.426e-3
-1.099, -1.426e-3
-1.098, -1.423e-3
-1.097, -1.417e-3
-1.096, -1.413e-3
-1.095, -1.419e-3
-1.094, -1.416e-3
-1.093, -1.416e-3
-1.092, -1.413e-3
-1.091, -1.409e-3
-1.090, -1.410e-3
-1.089, -1.409e-3
-1.088, -1.402e-3
-1.087, -1.400e-3
-1.086, -1.400e-3
-1.085, -1.396e-3
-1.084, -1.399e-3
-1.083, -1.398e-3
-1.082, -1.398e-3
-1.081, -1.393e-3
-1.080, -1.394e-3
-1.079, -1.386e-3
-1.078, -1.387e-3
-1.077, -1.386e-3
-1.076, -1.386e-3
-1.075, -1.391e-3
-1.074, -1.387e-3
-1.073, -1.384e-3
-1.072, -1.382e-3
-1.071, -1.380e-3
-1.070, -1.390e-3
-1.069, -1.383e-3
-1.068, -1.383e-3
-1.067, -1.380e-3
-1.066, -1.382e-3
-1.065, -1.384e-3
-1.064, -1.383e-3
-1.063, -1.376e-3
-1.062, -1.368e-3
-1.061, -1.371e-3
-1.060, -1.368e-3
-1.059, -1.372e-3
-1.058, -1.372e-3
-1.057, -1.372e-3
-1.056, -1.369e-3
-1.055, -1.371e-3
-1.054, -1.365e-3
-1.053, -1.366e-3
-1.052, -1.362e-3
-1.051, -1.365e-3
-1.050, -1.367e-3
-1.049, -1.369e-3
-1.048, -1.365e-3
-1.047, -1.368e-3
-1.046, -1.365e-3
-1.045, -1.367e-3
-1.044, -1.362e-3
-1.043, -1.386e-3
-1.042, -1.373e-3
-1.041, -1.380e-3
-1.040, -1.376e-3
-1.039, -1.379e-3
-1.038, -1.375e-3
-1.037, -1.374e-3
-1.036, -1.370e-3
-1.035, -1.379e-3
-1.034, -1.371e-3
-1.033, -1.376e-3
-1.032, -1.369e-3
-1.031, -1.371e-3
-1.030, -1.371e-3
-1.029, -1.371e-3
-1.028, -1.376e-3
-1.027, -1.373e-3
-1.026, -1.375e-3
-1.025, -1.373e-3
-1.024, -1.381e-3
-1.023, -1.370e-3
-1.022, -1.375e-3
-1.021, -1.373e-3
-1.020, -1.379e-3
-1.019, -1.383e-3
-1.018, -1.387e-3
-1.017, -1.381e-3
-1.016, -1.390e-3
-1.015, -1.378e-3
-1.014, -1.389e-3
-1.013, -1.385e-3
-1.012, -1.385e-3
-1.011, -1.387e-3
-1.010, -1.389e-3
-1.009, -1.386e-3
-1.008, -1.388e-3
-1.007, -1.383e-3
-1.006, -1.394e-3
-1.005, -1.390e-3
-1.004, -1.395e-3
-1.003, -1.388e-3
-1.002, -1.392e-3
-1.001, -1.389e-3
