Potential V vs RHE, Current mA cm-2
0.013299999999999867,2.515356691160035
0.012299999999999978,1.3002611557059554
0.011299999999999866,0.4549711540365957
0.010299999999999976,-0.4010706535117379
0.009299999999999864,-1.3278480260533234
0.008299999999999974,-1.9749369746115912
0.007299999999999862,-2.543650917157336
0.006299999999999972,-3.28071550438702
0.00529999999999986,-3.8579177147319554
0.0042999999999999705,-4.265354569093086
0.0032999999999998586,-4.842556779438021
0.0022999999999999687,-5.407026588084171
0.0012999999999998568,-5.726751341853668
0.00029999999999996696,-6.131358773615069
-0.000700000000000145,-6.674607912763243
-0.0017000000000000348,-6.98584439873355
-0.0027000000000001467,-7.260298390907368
-0.0037000000000000366,-7.73564138766202
-0.0047000000000001485,-8.087904501328415
-0.005700000000000038,-8.267572836411274
-0.00670000000000015,-8.658033155174026
-0.00770000000000004,-9.040005206137584
-0.008700000000000152,-9.211185273421254
-0.009700000000000042,-9.487053976894938
-0.010700000000000154,-9.914296789454177
-0.011700000000000044,-10.118015216634742
-0.012700000000000156,-10.284951150018816
-0.013700000000000045,-10.666923200982376
-0.014700000000000157,-10.939962481856329
-0.015700000000000047,-11.024845159848232
-0.01670000000000016,-11.330422800619079
-0.01770000000000005,-11.658635822187769
-0.01870000000000016,-11.774642148776701
-0.01970000000000005,-11.995337111555646
-0.020700000000000163,-12.33628253482312
-0.021700000000000053,-12.470680108310297
-0.022700000000000164,-12.590930568798825
-0.023700000000000054,-12.94036425986549
-0.024700000000000166,-13.189353448641736
-0.025700000000000056,-13.261503724934855
-0.026700000000000168,-13.521810604110021
-0.027700000000000058,-13.831632378780464
-0.02870000000000017,-13.933491592370746
-0.02970000000000006,-14.140039442151041
-0.03070000000000017,-14.500790823616628
-0.03170000000000006,-14.61396772760583
-0.03270000000000017,-14.71299751859638
-0.03370000000000006,-15.01008689156804
-0.034700000000000175,-15.208146473549144
-0.035700000000000065,-15.293029151541045
-0.03670000000000018,-15.575971411514052
-0.03770000000000007,-15.88720789748436
-0.03870000000000018,-15.957943462477614
-0.03970000000000007,-16.127708818461418
-0.04070000000000018,-16.453092417430376
-0.04170000000000007,-16.580416434418233
-0.04270000000000018,-16.679446225408782
-0.04370000000000007,-17.03312405037504
-0.044700000000000184,-17.231183632356142
-0.045700000000000074,-17.28777208435075
-0.046700000000000186,-17.570714344323754
-0.047700000000000076,-17.853656604296763
-0.04870000000000019,-17.952686395287316
-0.04970000000000008,-18.10830463827247
-0.05070000000000019,-18.419541124242777
-0.05170000000000008,-18.546865141230633
-0.05270000000000019,-18.660042045219836
-0.05370000000000008,-18.985425644188794
-0.05470000000000019,-19.1834852261699
-0.05570000000000008,-19.22592656516585
-0.056700000000000195,-19.508868825138855
-0.057700000000000085,-19.820105311109163
-0.058700000000000196,-19.890840876102416
-0.059700000000000086,-20.088900458083522
-0.0607000000000002,-20.42843117005113
-0.06170000000000009,-20.541608074040333
-0.0627000000000002,-20.626490752032236
-0.06370000000000009,-20.90943301200524
-0.0647000000000002,-21.107492593986347
-0.06570000000000009,-21.13578681998365
-0.0667000000000002,-21.418729079956652
-0.0677000000000001,-21.744112678925614
-0.0687000000000002,-21.814848243918867
-0.0697000000000001,-22.012907825899973
-0.07070000000000021,-22.324144311870278
-0.0717000000000001,-22.437321215859484
-0.07270000000000021,-22.564645232847337
-0.0737000000000001,-22.87588171881764
-0.07470000000000021,-23.073941300798747
-0.0757000000000001,-23.102235526796047
-0.07670000000000021,-23.356883560771752
-0.0777000000000001,-23.639825820744765
-0.07870000000000021,-23.696414272739364
-0.0797000000000001,-23.88032674172182
-0.08070000000000022,-24.20571034069078
-0.0817000000000001,-24.304740131681328
-0.08270000000000022,-24.389622809673234
-0.08370000000000011,-24.71500640864219
-0.08470000000000022,-24.927213103621945
-0.08570000000000011,-24.969654442617898
-0.08670000000000022,-25.210155363594954
-0.08770000000000011,-25.46480339757066
-0.08870000000000022,-25.507244736566612
-0.08970000000000011,-25.677010092550415
-0.09070000000000022,-25.959952352523427
-0.09170000000000011,-26.073129256512626
-0.09270000000000023,-26.14386482150588
-0.09370000000000012,-26.455101307476184
-0.09470000000000023,-26.65316088945729
-0.09570000000000012,-26.69560222845324
-0.09670000000000023,-26.95025026242895
-0.09770000000000012,-27.176604070407354
-0.09870000000000023,-27.204898296404657
-0.09970000000000012,-27.332222313392506
-0.10070000000000023,-27.615164573365515
-0.10170000000000012,-27.700047251357418
-0.10270000000000024,-27.770782816350668
-0.10370000000000013,-28.05372507632368
-0.10470000000000024,-28.265931771303435
-0.10570000000000013,-28.336667336296685
-0.10670000000000024,-28.56302114427509
-0.10770000000000013,-28.789374952253496
-0.10870000000000024,-28.732786500258893
-0.10970000000000013,-28.86011051724675
-0.11070000000000024,-29.157199890218404
-0.11170000000000013,-29.29867102020491
-0.11270000000000002,-29.539171941181966
-0.11370000000000013,-29.878702653149578
-0.11470000000000002,-30.06261512213203
-0.11570000000000014,-30.02017378313608
-0.11670000000000003,-30.147497800123933
-0.11770000000000014,-30.37385160810234
-0.11870000000000003,-30.387998721100992
-0.11970000000000014,-30.600205416080744
-0.12070000000000003,-30.968030354045652
-0.12170000000000014,-31.12364859703081
-0.12270000000000003,-31.180237049025404
-0.12370000000000014,-31.420737970002463
-0.12470000000000003,-31.57635621298762
-0.12570000000000014,-31.590503325986273
-0.12670000000000003,-31.85929847296063
-0.12770000000000015,-32.14224073293363
-0.12870000000000004,-32.170534958930936
-0.12970000000000015,-32.31200608891744
-0.13070000000000004,-32.53835989689585
-0.13170000000000015,-32.6373896878864
-0.13270000000000004,-32.7788608178729
-0.13370000000000015,-33.06180307784591
-0.13470000000000004,-33.302303998822964
-0.13570000000000015,-33.245715546828364
-0.13670000000000004,-33.344745337818914
-0.13770000000000016,-33.50036358080407
-0.13870000000000005,-33.54280491980002
-0.13970000000000016,-33.86818851876898
-0.14070000000000005,-34.377484586720385
-0.14170000000000016,-34.5755441687015
-0.14270000000000005,-34.632132620696105
-0.14370000000000016,-34.717015298688004
-0.14470000000000005,-34.773603750682604
-0.14570000000000016,-34.787750863681254
-0.14670000000000005,-35.14142868864751
-0.14770000000000016,-35.57998919160567
-0.14870000000000005,-35.693166095594876
-0.14970000000000017,-35.89122567757598
-0.15070000000000006,-36.230756389543586
-0.15170000000000017,-36.37222751953009
-0.15270000000000006,-36.47125731052064
-0.15370000000000017,-36.740052457495004
-0.15470000000000006,-36.88152358748151
-0.15570000000000017,-36.90981781347881
-0.15670000000000006,-37.15031873445586
-0.15770000000000017,-37.51814367242077
-0.15870000000000006,-37.687909028404576
-0.15970000000000018,-37.84352727138973
-0.16070000000000007,-38.16891087035869
-0.16170000000000018,-38.23964643535194
-0.16270000000000007,-38.253793548350586
-0.16370000000000018,-38.593324260318205
-0.16470000000000007,-38.89041363328986
-0.16570000000000018,-39.060178989273666
-0.16670000000000007,-39.44215104023723
-0.16770000000000018,-39.79582886520348
-0.16870000000000007,-39.89485865619403
-0.16970000000000018,-40.05047689917919
-0.17070000000000007,-40.37586049814815
-0.17170000000000019,-40.460743176140056
-0.17270000000000008,-40.5880671931279
-0.1737000000000002,-40.85686234010226
-0.17470000000000008,-41.06906903508202
-0.1757000000000002,-41.23883439106582
-0.17670000000000008,-41.719836233019926
-0.1777000000000002,-42.14424962297944
-0.17870000000000008,-42.10180828398349
-0.1797000000000002,-42.172543848976744
-0.18070000000000008,-42.540368786941656
-0.1817000000000002,-42.766722594920054
-0.18270000000000008,-43.04966485489307
-0.1837000000000002,-43.43163690585662
-0.1847000000000001,-43.629696487837734
-0.1857000000000002,-43.71457916582963
-0.1867000000000001,-44.011668538801295
-0.1877000000000002,-44.36534636376755
-0.1887000000000001,-44.4926703807554
-0.1897000000000002,-44.67658284973786
-0.1907000000000001,-45.12929046569467
-0.1917000000000001,-45.42637983866633
-0.19269999999999998,-45.581998081651484
-0.1937000000000001,-45.949823019616396
-0.19469999999999998,-46.204471053592094
-0.1957000000000001,-46.27520661858535
-0.19669999999999999,-46.572295991557006
-0.1977000000000001,-46.92597381652327
-0.1987,-47.10988628550572
-0.1997000000000001,-47.40697565847737
-0.2007,-47.81724193543825
-0.2017000000000001,-48.04359574341665
-0.2027,-48.12847842140855
-0.2037000000000001,-48.45386202037751
-0.2047,-48.76509850634781
-0.2057000000000001,-48.96315808832892
-0.2067,-49.48660126927898
-0.2077000000000001,-49.89686754623985
-0.2087,-49.925161772237146
-0.2097000000000001,-50.12322135421825
-0.2107,-50.448604953187214
-0.2117000000000001,-50.66081164816696
-0.2127,-50.84472411714942
-0.2137000000000001,-51.25499039411028
-0.2147,-51.580373993079235
-0.2157000000000001,-51.77843357506035
-0.2167,-52.16040562602391
-0.21770000000000012,-52.528230563988814
-0.2187,-52.66970169397532
-0.21970000000000012,-52.83946704995912
-0.2207,-53.20729198792403
-0.22170000000000012,-53.447792908901086
-0.2227,-53.63170537788354
-0.22370000000000012,-54.0419716548444
-0.2247,-54.45223793180526
-0.22570000000000012,-54.537120609797164
-0.2267,-54.86250420876612
-0.22770000000000012,-55.21618203373238
-0.22870000000000001,-55.25862337272834
-0.22970000000000013,-55.555712745699985
-0.23070000000000002,-55.994273248658146
-0.23170000000000013,-56.29136262162981
-0.23270000000000002,-56.64504044659606
-0.23370000000000013,-57.08360094955424
-0.23470000000000002,-57.394837435524536
-0.23570000000000013,-57.52216145251239
-0.23670000000000002,-57.7768094864881
-0.2376999999999999,-58.15878153745166
-0.23870000000000002,-58.28610555443952
-0.2396999999999999,-58.498312249419264
-0.24070000000000003,-58.965166978374725
-0.24169999999999991,-59.19152078635314
-0.24270000000000003,-59.34713902933829
-0.24369999999999992,-59.7998466452951
-0.24470000000000003,-60.12523024426406
-0.24569999999999992,-60.28084848724921
-0.24670000000000003,-60.73355610320602
-0.24769999999999992,-61.07308681517363
-0.24870000000000003,-61.20041083216149
-0.24969999999999992,-61.440911753138536
-0.25070000000000003,-61.780442465106155
-0.2516999999999999,-61.97850204708726
-0.25270000000000004,-62.06338472507916
-0.2536999999999999,-62.501945228037314
-0.25470000000000004,-63.01124129598873
-0.2556999999999999,-63.29418355596174
-0.25670000000000004,-63.71859694592126
-0.25769999999999993,-63.902509414903705
-0.25870000000000004,-63.902509414903705
-0.25969999999999993,-64.15715744887942
-0.26070000000000004,-64.58157083883891
-0.26169999999999993,-64.89280732480923
-0.26270000000000004,-65.09086690679034
-0.26369999999999993,-65.38795627976201
-0.26470000000000005,-65.71333987873095
-0.26569999999999994,-65.84066389571882
-0.26670000000000005,-66.12360615569182
-0.26769999999999994,-66.42069552866347
-0.26870000000000005,-66.43484264166212
-0.26969999999999994,-66.67534356263918
-0.27070000000000005,-67.18463963059058
-0.27169999999999994,-67.45343477756495
-0.27270000000000005,-67.73637703753796
-0.27369999999999994,-68.20323176649342
-0.27470000000000006,-68.44373268747047
-0.27569999999999995,-68.38714423547587
-0.27670000000000006,-68.55690959145967
-0.27769999999999995,-68.89644030342728
-0.27870000000000006,-69.0944998854084
-0.27969999999999995,-69.44817771037465
-0.28070000000000006,-69.92917955232878
-0.28169999999999995,-70.08479779531392
-0.28270000000000006,-70.15553336030716
-0.28369999999999995,-70.41018139428287
-0.28470000000000006,-70.52335829827209
-0.28569999999999995,-70.62238808926263
-0.28670000000000007,-71.04680147922215
-0.28769999999999996,-71.5419504341749
-0.28870000000000007,-71.74001001615602
-0.28969999999999996,-71.95221671113578
-0.29070000000000007,-72.16442340611552
-0.29169999999999996,-72.23515897110877
-0.29270000000000007,-72.32004164910067
-0.29369999999999996,-72.64542524806963
-0.2947000000000001,-72.91422039504398
-0.29569999999999996,-72.97080884703858
-0.2967000000000001,-73.2254568810143
-0.29769999999999996,-73.49425202798865
-0.2987000000000001,-73.48010491499001
-0.29969999999999997,-73.53669336698461
-0.3007000000000001,-73.79134140096032
-0.30169999999999997,-73.90451830494952
-0.3027000000000001,-74.21575479091983
-0.30369999999999997,-74.55528550288744
-0.3047000000000001,-74.78163931086584
-0.30569999999999997,-74.8806691018564
-0.3067000000000001,-75.12117002283344
-0.3077,-75.31922960481455
-0.3087000000000001,-75.26264115281995
-0.3097,-75.30508249181591
-0.3107000000000001,-75.57387763879026
-0.3117,-75.68705454277946
-0.3127000000000001,-75.7294958817754
-0.3137,-76.0407323677457
-0.3147000000000001,-76.15390927173492
-0.3157,-75.99829102874978
-0.3167000000000001,-76.13976215873627
-0.3177,-76.28123328872279
-0.3187000000000001,-76.21049772372953
-0.3197,-76.33782174071737
-0.3207000000000001,-76.66320533968634
-0.3217,-76.83297069567014
-0.3227000000000001,-76.83297069567014
-0.3237,-77.03103027765125
-0.3247000000000001,-77.14420718164045
-0.3257,-77.14420718164045
-0.3267000000000001,-77.4412965546121
-0.3277,-77.71009170158646
-0.3287000000000001,-77.61106191059591
-0.3297,-77.51203211960537
-0.3307000000000001,-77.46959078060941
-0.3317,-77.42714944161345
-0.3327000000000001,-77.51203211960537
-0.3337,-77.78082726657972
-0.3347000000000001,-77.8940041705689
-0.3357,-77.76668015358106
-0.3367000000000001,-77.8940041705689
-0.3377,-78.13450509154598
-0.3387000000000001,-78.13450509154598
-0.3397,-78.16279931754329
-0.3407000000000001,-78.33256467352709
-0.3417,-77.85156283157298
-0.3427000000000001,-77.62520902359456
-0.3437,-78.10621086554868
-0.3447000000000001,-78.51647714250953
-0.3457,-78.48818291651223
-0.3467000000000001,-78.24768199553519
-0.3477,-77.71009170158646
-0.3487000000000001,-77.20079563363505
-0.3497,-77.1583542946391
-0.3507000000000001,-77.79497437957838
-0.3517,-78.04962241355408
-0.3527000000000001,-78.09206375255003
-0.3537,-78.16279931754329
-0.3547000000000001,-77.85156283157298
-0.3557,-77.37056098961885
-0.35670000000000013,-77.17250140763775
-0.3577,-77.22908985963235
-0.35870000000000013,-77.22908985963235
-0.3597,-77.32811965062291
-0.36070000000000013,-77.46959078060941
-0.3617,-77.243236972631
-0.3626999999999999,-77.1017658426445
-0.3637,-77.1017658426445
-0.3646999999999999,-76.9320004866607
-0.3657,-76.62076400069039
-0.3666999999999999,-76.50758709670117
-0.3677,-76.49343998370253
-0.3686999999999999,-76.38026307971333
-0.36970000000000003,-76.19635061073087
-0.3706999999999999,-76.09732081974033
-0.37170000000000003,-75.82852567276596
-0.3726999999999999,-75.55973052579161
-0.37370000000000003,-75.63046609078486
-0.3746999999999999,-75.74364299477406
-0.37570000000000003,-75.63046609078486
-0.3766999999999999,-75.6729074297808
-0.37770000000000004,-75.48899496079835
-0.3786999999999999,-74.93725755385098
-0.37970000000000004,-74.65431529387797
-0.3806999999999999,-74.68260951987529
-0.38170000000000004,-74.52699127689014
-0.38269999999999993,-74.34307880790767
-0.38370000000000004,-74.44210859889823
-0.38469999999999993,-74.38552014690363
-0.38570000000000004,-73.97525386994278
-0.38669999999999993,-73.72060583596706
-0.38770000000000004,-73.53669336698461
-0.38869999999999993,-73.33863378500351
-0.38970000000000005,-73.29619244600755
-0.39069999999999994,-73.3669280110008
-0.39170000000000005,-73.197162655017
-0.39269999999999994,-72.84348483005074
-0.39370000000000005,-72.70201370006424
-0.39469999999999994,-72.56054257007773
-0.39570000000000005,-72.20686474511147
-0.39669999999999994,-72.10783495412092
-0.39770000000000005,-72.23515897110877
-0.39869999999999994,-72.13612918011822
-0.39970000000000006,-72.10783495412092
-0.40069999999999995,-72.19271763211282
-0.40170000000000006,-71.89562825914116
-0.40269999999999995,-71.57024466017221
-0.40370000000000006,-71.55609754717355
-0.40469999999999995,-71.32974373919515
-0.40570000000000006,-71.06094859222078
-0.40669999999999995,-71.08924281821808
-0.40770000000000006,-71.2024197222073
-0.40869999999999995,-71.18827260920865
-0.40970000000000006,-71.07509570521944
-0.41069999999999995,-71.07509570521944
-0.41170000000000007,-70.8345947842424
-0.41269999999999996,-70.66482942825859
-0.41370000000000007,-70.79215344524643
-0.41469999999999996,-70.8628890102397
-0.41570000000000007,-70.79215344524643
-0.41669999999999996,-70.93362457523294
-0.41770000000000007,-71.10338993121674
-0.41869999999999996,-70.90533034923564
-0.4197000000000001,-70.82044767124374
-0.42069999999999996,-71.0326543662235
-0.4217000000000001,-71.0326543662235
-0.42269999999999996,-71.04680147922215
-0.4237000000000001,-71.18827260920865
-0.42469999999999997,-71.27315528720055
-0.4257000000000001,-71.5136562081776
-0.42669999999999997,-71.74001001615602
-0.4277000000000001,-71.9946580501317
-0.42869999999999997,-71.8248926941479
-0.4297000000000001,-71.74001001615602
-0.43069999999999997,-71.92392248513846
-0.4317000000000001,-71.9946580501317
-0.4327,-72.26345319710607
-0.4337000000000001,-72.78689637805614
-0.4347,-73.12642709002374
-0.4357000000000001,-73.2537511070116
-0.4367,-73.52254625398596
-0.4377000000000001,-73.7064587229684
-0.4387,-73.6781644969711
-0.4397000000000001,-73.89037119195086
-0.4407,-74.45625571189689
-0.4417000000000001,-74.79578642386448
-0.4427,-74.93725755385098
-0.4437000000000001,-75.31922960481455
-0.4447,-75.81437855976732
-0.4457000000000001,-76.05487948074436
-0.4467,-76.49343998370253
-0.4477000000000001,-76.88955914766474
-0.4487,-77.04517739064991
-0.4497000000000001,-77.38470810261751
-0.4507,-77.8940041705689
-0.4517000000000001,-78.29012333453113
-0.4527,-78.68624249849334
-0.4537000000000001,-79.25212701843935
-0.4547,-79.63409906940291
-0.4557000000000001,-79.88874710337862
-0.4567,-80.46877873632329
-0.4577000000000001,-81.20442861225311
-0.4587,-81.75616601920048
-0.4597000000000001,-82.26546208715187
-0.4607,-82.93037639808846
-0.4617000000000001,-83.35478978804795
-0.4627,-83.62358493502231
-0.4637000000000001,-84.37338192395079
-0.4647,-85.08073757388331
-0.4657000000000001,-85.67491631982661
-0.4667,-86.52374309974564
-0.4677000000000001,-87.23109874967815
-0.4687,-87.62721791364037
-0.4697000000000001,-88.27798511157829
-0.4707,-88.91460519651754
-0.4717000000000001,-89.55122528145681
-0.4727,-90.23028670539205
-0.4737000000000001,-91.16399616330297
-0.4747,-92.01282294322199
-0.4757000000000001,-92.6352959151626
-0.4767,-93.59729959907082
-0.4777000000000001,-94.5734503959777
-0.4787,-95.12518780292505
-0.4797000000000001,-95.73351366186702
-0.4807,-96.5681933287874
-0.48170000000000013,-97.30384320471723
-0.4827,-98.19511132363219
-0.48370000000000013,-99.25614479853097
-0.4847,-100.11911869144865
-0.48570000000000013,-100.95379835836901
-0.4867,-100.7274445503906
-0.48570000000000013,-99.32688036352423
-0.4847,-97.95461040265513
-0.48370000000000013,-96.75210579776986
-0.4827,-95.83254345285758
-0.48170000000000013,-94.7432157519615
-0.4807,-93.54071114707622
-0.4797000000000001,-92.6918843671572
-0.4787,-91.81476336124088
-0.4777000000000001,-90.82446545133537
-0.4767,-90.14540402740013
-0.4757000000000001,-89.31072436047977
-0.4747,-88.27798511157829
-0.4737000000000001,-87.42915833165927
-0.4727,-86.7076555687281
-0.4717000000000001,-85.87297590180773
-0.4707,-84.92511933089816
-0.4697000000000001,-84.16117522897105
-0.4687,-83.45381957903851
-0.4677000000000001,-82.53425723412623
-0.4667,-81.96837271418022
-0.4657000000000001,-81.41663530723285
-0.4647,-80.51122007531923
-0.4637000000000001,-79.70483463439616
-0.4627,-78.82771362847984
-0.4617000000000001,-77.90815128356756
-0.4607,-77.25738408562965
