Potential V vs RHE, Current mA cm-2
0.013299999999999867,1.1338911068418267
0.012299999999999978,-0.6022426003525461
0.011299999999999866,-2.0032312006088917
0.010299999999999976,-3.1406590857003813
0.009299999999999864,-4.084271522710361
0.008299999999999974,-4.890656963633432
0.007299999999999862,-5.641868663861766
0.006299999999999972,-6.330833066896039
0.00529999999999986,-6.90944998854084
0.0042999999999999705,-7.3975253869942765
0.0032999999999998586,-7.848818291651225
0.0022999999999999687,-8.287378794609385
0.0012999999999998568,-8.725939297567548
0.00029999999999996696,-9.109326059830972
-0.000700000000000145,-9.440368503999391
-0.0017000000000000348,-9.765752102968348
-0.0027000000000001467,-10.110941660135417
-0.0037000000000000366,-10.456131217302488
-0.0047000000000001485,-10.746147033774818
-0.005700000000000038,-10.97391555305309
-0.00670000000000015,-11.239881277427717
-0.00770000000000004,-11.518579403501128
-0.008700000000000152,-11.807180508673596
-0.009700000000000042,-12.061828542649302
-0.010700000000000154,-12.285352928027978
-0.011700000000000044,-12.494730200408004
-0.012700000000000156,-12.72674285358587
-0.013700000000000045,-12.992708577960498
-0.014700000000000157,-13.219062385938905
-0.015700000000000047,-13.387413030622842
-0.01670000000000016,-13.586887323903813
-0.01770000000000005,-13.837291223979923
-0.01870000000000016,-14.09193925795563
-0.01970000000000005,-14.30273124163552
-0.020700000000000163,-14.514937936615278
-0.021700000000000053,-14.741291744593681
-0.022700000000000164,-14.967645552572087
-0.023700000000000054,-15.222293586547794
-0.024700000000000166,-15.448647394526201
-0.025700000000000056,-15.632559863508657
-0.026700000000000168,-15.830619445489761
-0.027700000000000058,-16.071120366466815
-0.02870000000000017,-16.311621287443874
-0.02970000000000006,-16.56626932141958
-0.03070000000000017,-16.806770242396635
-0.03170000000000006,-17.00482982437774
-0.03270000000000017,-17.2453307453548
-0.03370000000000006,-17.499978779330505
-0.034700000000000175,-17.75462681330621
-0.035700000000000065,-18.009274847281915
-0.03670000000000018,-18.23562865526032
-0.03770000000000007,-18.47612957623738
-0.03870000000000018,-18.77321894920904
-0.03970000000000007,-18.985425644188794
-0.04070000000000018,-19.1834852261699
-0.04170000000000007,-19.395691921149652
-0.04270000000000018,-19.678634181122664
-0.04370000000000007,-20.01816489309027
-0.044700000000000184,-20.286960040064624
-0.045700000000000074,-20.52746096104168
-0.046700000000000186,-20.79625610801604
-0.047700000000000076,-21.065051254990397
-0.04870000000000019,-21.376287740960702
-0.04970000000000008,-21.67337711393236
-0.05070000000000019,-21.91387803490942
-0.05170000000000008,-22.182673181883775
-0.05270000000000019,-22.451468328858134
-0.05370000000000008,-22.790999040825742
-0.05470000000000019,-23.102235526796047
-0.05570000000000008,-23.371030673770406
-0.056700000000000195,-23.639825820744765
-0.057700000000000085,-23.93691519371642
-0.058700000000000196,-24.24815167968673
-0.059700000000000086,-24.545241052658387
-0.0607000000000002,-24.828183312631392
-0.06170000000000009,-25.1394197986017
-0.0627000000000002,-25.478950510569312
-0.06370000000000009,-25.790186996539617
-0.0647000000000002,-26.11557059550858
-0.06570000000000009,-26.398512855481584
-0.0667000000000002,-26.65316088945729
-0.0677000000000001,-27.00683871442355
-0.0687000000000002,-27.37466365238846
-0.0697000000000001,-27.700047251357418
-0.07070000000000021,-28.011283737327723
-0.0717000000000001,-28.265931771303435
-0.07270000000000021,-28.577168257273744
-0.0737000000000001,-28.91669896924135
-0.07470000000000021,-29.213788342213007
-0.0757000000000001,-29.468436376188716
-0.07670000000000021,-29.751378636161718
-0.0777000000000001,-30.11920357412663
-0.07870000000000021,-30.51532273808884
-0.0797000000000001,-30.82655922405915
-0.08070000000000022,-31.12364859703081
-0.0817000000000001,-31.420737970002463
-0.08270000000000022,-31.703680229975475
-0.08370000000000011,-32.02906382894443
-0.08470000000000022,-32.354447427913385
-0.08570000000000011,-32.66568391388369
-0.08670000000000022,-32.97692039985401
-0.08770000000000011,-33.41548090281216
-0.08870000000000022,-33.76915872777842
-0.08970000000000011,-34.08039521374873
-0.09070000000000022,-34.34919036072309
-0.09170000000000011,-34.61798550769744
-0.09270000000000023,-34.95751621966506
-0.09370000000000012,-35.311194044631314
-0.09470000000000023,-35.650724756598926
-0.09570000000000012,-35.93366701657193
-0.09670000000000023,-36.230756389543586
-0.09770000000000012,-36.570287101511205
-0.09870000000000023,-36.89567070048016
-0.09970000000000012,-37.221054299449115
-0.10070000000000023,-37.51814367242077
-0.10170000000000012,-37.82938015839108
-0.10270000000000024,-38.211352209354644
-0.10370000000000013,-38.607471373316855
-0.10470000000000024,-38.97529631128177
-0.10570000000000013,-39.258238571254765
-0.10670000000000024,-39.47044526623452
-0.10770000000000013,-39.72509330021023
-0.10870000000000024,-40.06462401217784
-0.10970000000000013,-40.40415472414545
-0.11070000000000024,-40.644655645122505
-0.11170000000000013,-40.88515656609956
-0.11270000000000002,-41.168098826072566
-0.11370000000000013,-41.57836510303343
-0.11470000000000002,-41.96033715399699
-0.11570000000000014,-42.29986786596459
-0.11670000000000003,-42.483780334947056
-0.11770000000000014,-42.752575481921404
-0.11870000000000003,-43.09210619388902
-0.11970000000000014,-43.43163690585662
-0.12070000000000003,-43.70043205283099
-0.12170000000000014,-43.96922719980534
-0.12270000000000003,-44.223875233781044
-0.12370000000000014,-44.4926703807554
-0.12470000000000003,-44.775612640728404
-0.12570000000000014,-45.05855490070142
-0.12670000000000003,-45.44052695166498
-0.12770000000000015,-45.82249900262854
-0.12870000000000004,-46.204471053592094
-0.12970000000000015,-46.529854652561056
-0.13070000000000004,-46.77035557353811
-0.13170000000000015,-46.95426804252057
-0.13270000000000004,-47.180621850498966
-0.13370000000000015,-47.520152562466585
-0.13470000000000004,-47.95871306542474
-0.13570000000000015,-48.2840966643937
-0.13670000000000004,-48.567038924366706
-0.13770000000000016,-48.90656963633432
-0.13870000000000005,-49.26024746130057
-0.13970000000000016,-49.571483947270885
-0.14070000000000005,-49.84027909424525
-0.14170000000000016,-50.0807800152223
-0.14270000000000005,-50.37786938819396
-0.14370000000000016,-50.68910587416426
-0.14470000000000005,-51.000342360134574
-0.14570000000000016,-51.31157884610488
-0.14670000000000005,-51.580373993079235
-0.14770000000000016,-51.934051818045496
-0.14870000000000005,-52.30187675601041
-0.14970000000000017,-52.61311324198071
-0.15070000000000006,-52.86776127595642
-0.15170000000000017,-53.12240930993213
-0.15270000000000006,-53.419498682903786
-0.15370000000000017,-53.74488228187274
-0.15470000000000006,-54.02782454184575
-0.15570000000000017,-54.31076680181876
-0.15670000000000006,-54.60785617479041
-0.15770000000000017,-54.975681112755325
-0.15870000000000006,-55.28691759872564
-0.15970000000000018,-55.612301197694585
-0.16070000000000007,-55.881096344668954
-0.16170000000000018,-56.14989149164331
-0.16270000000000007,-56.46112797761361
-0.16370000000000018,-56.81480580257987
-0.16470000000000007,-57.15433651454749
-0.16570000000000018,-57.380690322525886
-0.16670000000000007,-57.67777969549755
-0.16770000000000018,-57.96072195547055
-0.16870000000000007,-58.31439978043681
-0.16970000000000018,-58.62563626640712
-0.17070000000000007,-58.93687275237743
-0.17170000000000019,-59.19152078635314
-0.17270000000000008,-59.502757272323436
-0.1737000000000002,-59.70081685430455
-0.17470000000000008,-60.01205334027486
-0.1757000000000002,-60.36573116524111
-0.17670000000000008,-60.691114764210084
-0.1777000000000002,-60.94576279818578
-0.17870000000000008,-61.21455794516014
-0.1797000000000002,-61.525794431130436
-0.18070000000000008,-61.7662953521075
-0.1817000000000002,-62.04923761208051
-0.18270000000000008,-62.43120966304407
-0.1837000000000002,-62.81318171400764
-0.1847000000000001,-63.181006651972545
-0.1857000000000002,-63.52053736394014
-0.1867000000000001,-63.732744058919906
-0.1877000000000002,-64.05812765788886
-0.1887000000000001,-64.38351125685783
-0.1897000000000002,-64.73718908182407
-0.1907000000000001,-65.09086690679034
-0.1917000000000001,-65.40210339276065
-0.19269999999999998,-65.74163410472826
-0.1937000000000001,-66.15190038168912
-0.19469999999999998,-66.46313686765943
-0.1957000000000001,-66.73193201463377
-0.19669999999999999,-66.98658004860948
-0.1977000000000001,-67.28366942158114
-0.1987,-67.62320013354876
-0.1997000000000001,-67.90614239352176
-0.2007,-68.20323176649342
-0.2017000000000001,-68.55690959145967
-0.2027,-68.93888164242324
-0.2037000000000001,-69.36329503238275
-0.2047,-69.6886786313517
-0.2057000000000001,-69.9716208913247
-0.2067,-70.22626892530042
-0.2077000000000001,-70.52335829827209
-0.2087,-70.87703612323833
-0.2097000000000001,-71.32974373919515
-0.2107,-71.7965984681506
-0.2117000000000001,-72.22101185811013
-0.2127,-72.60298390907369
-0.2137000000000001,-72.8859261690467
-0.2147,-73.06983863802915
-0.2157000000000001,-73.2537511070116
-0.2167,-73.5649875929819
-0.21770000000000012,-73.91866541794816
-0.2187,-74.32893169490903
-0.21970000000000012,-74.65431529387797
-0.2207,-74.97969889284694
-0.22170000000000012,-75.37581805680915
-0.2227,-75.77193722077136
-0.22370000000000012,-76.08317370674168
-0.2247,-76.38026307971333
-0.22570000000000012,-76.66320533968634
-0.2267,-76.97444182565664
-0.22770000000000012,-77.17250140763775
-0.22870000000000001,-77.45544366761075
-0.22970000000000013,-77.78082726657972
-0.23070000000000002,-78.20524065653922
-0.23170000000000013,-78.55891848150549
-0.23270000000000002,-78.9267434194704
-0.23370000000000013,-79.30871547043395
-0.23470000000000002,-79.71898174739482
-0.23570000000000013,-80.04436534636378
-0.23670000000000002,-80.28486626734085
-0.2376999999999999,-80.58195564031249
-0.23870000000000002,-81.10539882126255
-0.2396999999999999,-81.3458997422396
-0.24070000000000003,-81.48737087222611
-0.24169999999999991,-81.75616601920048
-0.24270000000000003,-82.06740250517078
-0.24369999999999992,-82.50596300812894
-0.24470000000000003,-83.01525907608035
-0.24569999999999992,-83.24161288405877
-0.24670000000000003,-83.52455514403178
-0.24769999999999992,-83.83579163000208
-0.24870000000000003,-84.16117522897105
-0.24969999999999992,-84.5431472799346
-0.25070000000000003,-84.86853087890354
-0.2516999999999999,-85.13732602587791
-0.25270000000000004,-85.47685673784551
-0.2536999999999999,-85.81638744981312
-0.25470000000000004,-86.19835950077669
-0.2556999999999999,-86.75009690772404
-0.25670000000000004,-86.94815648970517
-0.25769999999999993,-87.10377473269031
-0.25870000000000004,-87.27354008867411
-0.25969999999999993,-87.57062946164578
-0.26070000000000004,-87.89601306061473
-0.26169999999999993,-88.24969088558099
-0.26270000000000004,-88.65995716254186
-0.26369999999999993,-89.08437055250135
-0.26470000000000005,-89.38145992547301
-0.26569999999999994,-89.59366662045278
-0.26670000000000005,-89.87660888042578
-0.26769999999999994,-90.04637423640959
-0.26870000000000005,-90.20199247939475
-0.26969999999999994,-90.41419917437449
-0.27070000000000005,-90.56981741735964
-0.27169999999999994,-90.79617122533804
-0.27270000000000005,-91.09326059830971
-0.27369999999999994,-91.41864419727867
-0.27470000000000006,-91.71573357025032
-0.27569999999999995,-91.88549892623412
-0.27670000000000006,-92.05526428221793
-0.27769999999999995,-92.28161809019635
-0.27870000000000006,-92.59285457616664
-0.27969999999999995,-92.84750261014237
-0.28070000000000006,-93.01726796612617
-0.28169999999999995,-93.14459198311401
-0.28270000000000006,-93.27191600010187
-0.28369999999999995,-93.45582846908432
-0.28470000000000006,-93.62559382506812
-0.28569999999999995,-93.63974093806678
-0.28670000000000007,-93.73877072905732
-0.28769999999999996,-93.95097742403709
-0.28870000000000007,-94.13488989301955
-0.28969999999999996,-94.26221391000739
-0.29070000000000007,-94.36124370099793
-0.29169999999999996,-94.41783215299256
-0.29270000000000007,-94.47442060498715
-0.29369999999999996,-94.5451561699804
-0.2947000000000001,-94.61589173497366
-0.29569999999999996,-94.67248018696824
-0.2967000000000001,-94.71492152596421
-0.29769999999999996,-94.78565709095746
-0.2987000000000001,-94.91298110794531
-0.29969999999999997,-94.94127533394261
-0.3007000000000001,-94.92712822094396
-0.30169999999999997,-94.89883399494667
-0.3027000000000001,-94.88468688194801
-0.30369999999999997,-94.81395131695474
-0.3047000000000001,-94.75736286496016
-0.30569999999999997,-94.67248018696824
-0.3067000000000001,-94.55930328297906
-0.3077,-94.58759750897636
-0.3087000000000001,-94.53100905698176
-0.3097,-94.4319792659912
-0.3107000000000001,-94.21977257101145
-0.3117,-94.20562545801279
-0.3127000000000001,-94.30465524900335
-0.3137,-94.4036850399939
-0.3147000000000001,-94.24806679700876
-0.3157,-93.90853608504113
-0.3167000000000001,-93.90853608504113
-0.3177,-94.10659566702225
-0.3187000000000001,-93.80950629405058
-0.3197,-93.46997558208298
-0.3207000000000001,-93.07385641812076
-0.3217,-92.70603148015586
-0.3227000000000001,-92.29576520319499
-0.3237,-91.54596821426652
-0.3247000000000001,-90.98008369432051
-0.3257,-90.7820241123394
-0.3267000000000001,-90.51322896536506
-0.3277,-90.21613959239339
-0.3287000000000001,-90.04637423640959
-0.3297,-89.74928486343794
-0.3307000000000001,-89.28243013448247
-0.3317,-88.88631097052026
-0.3327000000000001,-88.44775046756209
-0.3337,-87.92430728661203
-0.3347000000000001,-87.44330544465792
-0.3357,-86.99059782870111
-0.3367000000000001,-86.50959598674699
-0.3377,-86.04274125779153
-0.3387000000000001,-85.66076920682796
-0.3397,-85.26465004286577
-0.3407000000000001,-84.7129126359184
-0.3417,-84.07629255097913
-0.3427000000000001,-83.48211380503581
-0.3437,-82.88793505909248
-0.3447000000000001,-82.36449187814243
-0.3457,-81.75616601920048
-0.3467000000000001,-81.20442861225311
-0.3477,-80.70927965730034
-0.3487000000000001,-80.24242492834487
-0.3497,-79.70483463439616
-0.3507000000000001,-79.1248030014515
-0.3517,-78.53062425550819
-0.3527000000000001,-78.00718107455812
-0.3537,-77.4412965546121
-0.3547000000000001,-76.8754120346661
-0.3557,-76.39441019271199
-0.35670000000000013,-75.84267278576462
-0.3577,-75.37581805680915
-0.35870000000000013,-74.92311044085234
-0.3597,-74.41381437290093
-0.36070000000000013,-73.90451830494952
-0.3617,-73.35278089800215
-0.3626999999999999,-72.87177905604804
-0.3637,-72.50395411808313
-0.3646999999999999,-72.15027629311687
-0.3657,-71.75415712915466
-0.3666999999999999,-71.4004793041884
-0.3677,-71.06094859222078
-0.3686999999999999,-70.77800633224777
-0.36970000000000003,-70.39603428128423
-0.3706999999999999,-70.12723913430986
-0.37170000000000003,-69.8018555353409
-0.3726999999999999,-69.47647193637195
-0.37370000000000003,-69.3491479193841
-0.3746999999999999,-69.22182390239624
-0.37570000000000003,-69.05205854641244
-0.3766999999999999,-68.88229319042864
-0.37770000000000004,-68.68423360844753
-0.3786999999999999,-68.57105670445833
-0.37970000000000004,-68.42958557447183
-0.3806999999999999,-68.33055578348127
-0.38170000000000004,-68.24567310548937
-0.38269999999999993,-68.28811444448532
-0.38370000000000004,-68.40129134847452
-0.38469999999999993,-68.50032113946509
-0.38570000000000004,-68.55690959145967
-0.38669999999999993,-68.59935093045563
-0.38770000000000004,-68.62764515645293
-0.38869999999999993,-68.72667494744348
-0.38970000000000005,-68.85399896443133
-0.39069999999999994,-68.9813229814192
-0.39170000000000005,-69.19352967639895
-0.39269999999999994,-69.3491479193841
-0.39370000000000005,-69.64623729235576
-0.39469999999999994,-69.8018555353409
-0.39570000000000005,-69.98576800432336
-0.39669999999999994,-70.21212181230177
-0.39770000000000005,-70.48091695927613
-0.39869999999999994,-70.8345947842424
-0.39970000000000006,-71.13168415721405
-0.40069999999999995,-71.38633219118975
-0.40170000000000006,-71.8248926941479
-0.40269999999999995,-72.24930608410743
-0.40370000000000006,-72.67371947406694
-0.40469999999999995,-73.15472131602105
-0.40570000000000006,-73.53669336698461
-0.40669999999999995,-73.89037119195086
-0.40770000000000006,-74.25819612991579
-0.40869999999999995,-74.75334508486853
-0.40970000000000006,-75.2484940398213
-0.41069999999999995,-75.77193722077136
-0.41170000000000007,-76.30952751472009
-0.41269999999999996,-76.84711780866878
-0.41370000000000007,-77.56862057159996
-0.41469999999999996,-78.34671178652573
-0.41570000000000007,-78.9550376454677
-0.41669999999999996,-79.56336350440966
-0.41770000000000007,-80.21413070234757
-0.41869999999999996,-80.90733923928146
-0.4197000000000001,-81.68543045420722
-0.42069999999999996,-82.49181589513029
-0.4217000000000001,-83.22746577106011
-0.42269999999999996,-83.97726275998858
-0.4237000000000001,-84.69876552291974
-0.42469999999999997,-85.56173941583742
-0.4257000000000001,-86.42471330875509
-0.42669999999999997,-87.33012854066871
-0.4277000000000001,-88.29213222457693
-0.42869999999999997,-89.38145992547301
-0.4297000000000001,-90.4424934003718
-0.43069999999999997,-91.58840955326248
-0.4317000000000001,-92.6352959151626
-0.4327,-93.83780052004788
-0.4337000000000001,-95.06859935093047
-0.4347,-96.341839520809
-0.4357000000000001,-97.6575210296835
-0.4367,-99.08637944254717
-0.4377000000000001,-100.4162080644203
-0.4387,-101.9865376072705
-0.4397000000000001,-103.5568671501207
-0.4407,-105.22622648396143
-0.4417000000000001,-107.33414632076033
-0.4427,-109.18741812358353
-0.4437000000000001,-111.09727837840134
-0.4447,-112.68175503425017
-0.4457000000000001,-114.61990951506527
-0.4467,-116.58635822187767
-0.4477000000000001,-118.72257228467387
-0.4487,-120.85878634747009
-0.4497000000000001,-122.89597061927573
-0.4507,-125.00389045607463
-0.4517000000000001,-127.2108400838641
-0.4527,-129.4885252766468
-0.4537000000000001,-131.90768159941604
-0.4547,-134.41172060017715
-0.4557000000000001,-136.83087692294635
-0.4567,-139.15100345472501
-0.4577000000000001,-141.4003944215104
-0.4587,-142.8858412863687
-0.4597000000000001,-143.0273124163552
-0.4607,-143.0273124163552
-0.4617000000000001,-143.0273124163552
-0.4627,-143.0273124163552
-0.4637000000000001,-143.0273124163552
-0.4647,-143.0273124163552
-0.4657000000000001,-143.0273124163552
-0.4667,-143.0273124163552
-0.4677000000000001,-143.0273124163552
-0.4687,-143.0273124163552
-0.4697000000000001,-143.0273124163552
-0.4707,-143.0273124163552
-0.4717000000000001,-143.0273124163552
-0.4727,-143.0273124163552
-0.4737000000000001,-143.0273124163552
-0.4747,-143.0273124163552
-0.4757000000000001,-143.0273124163552
-0.4767,-143.0273124163552
-0.4777000000000001,-143.0273124163552
-0.4787,-143.0273124163552
-0.4797000000000001,-143.0273124163552
-0.4807,-143.0273124163552
-0.48170000000000013,-143.0273124163552
-0.4827,-143.0273124163552
-0.48370000000000013,-143.0273124163552
-0.4847,-143.0273124163552
-0.48570000000000013,-143.0273124163552
-0.4867,-143.0273124163552
-0.48570000000000013,-143.0273124163552
-0.4847,-143.0273124163552
-0.48370000000000013,-143.0273124163552
-0.4827,-143.0273124163552
-0.48170000000000013,-143.0273124163552
-0.4807,-143.0273124163552
-0.4797000000000001,-143.0273124163552
-0.4787,-143.0273124163552
-0.4777000000000001,-143.0273124163552
-0.4767,-143.0273124163552
-0.4757000000000001,-143.0273124163552
-0.4747,-143.0273124163552
-0.4737000000000001,-143.0273124163552
-0.4727,-143.0273124163552
-0.4717000000000001,-143.0273124163552
-0.4707,-143.0273124163552
-0.4697000000000001,-143.0273124163552
-0.4687,-143.0273124163552
-0.4677000000000001,-143.0273124163552
-0.4667,-143.0273124163552
-0.4657000000000001,-143.0273124163552
-0.4647,-143.0273124163552
-0.4637000000000001,-143.0273124163552
-0.4627,-143.0273124163552
-0.4617000000000001,-143.0273124163552
-0.4607,-143.0273124163552
