Potential V vs RHE, Current mA cm-2
0.013299999999999867,1.5646706976507305
0.012299999999999978,-0.1696238848538179
0.011299999999999866,-1.5957943462477613
0.010299999999999976,-2.7841518381343926
0.009299999999999864,-3.782938015839108
0.008299999999999974,-4.619032394059345
0.007299999999999862,-5.377317650787004
0.006299999999999972,-6.098820413718173
0.00529999999999986,-6.729781653457979
0.0042999999999999705,-7.281519060405343
0.0032999999999998586,-7.766765036259051
0.0022999999999999687,-8.233619765214515
0.0012999999999998568,-8.703303916769705
0.00029999999999996696,-9.143279131027732
-0.000700000000000145,-9.522421759391563
-0.0017000000000000348,-9.874684873057957
-0.0027000000000001467,-10.207142028526238
-0.0037000000000000366,-10.552331585693308
-0.0047000000000001485,-10.894691720260647
-0.005700000000000038,-11.197439938431765
-0.00670000000000015,-11.470479219305716
-0.00770000000000004,-11.743518500179668
-0.008700000000000152,-12.046266718350788
-0.009700000000000042,-12.33911195742285
-0.010700000000000154,-12.609321815697072
-0.011700000000000044,-12.839919757575073
-0.012700000000000156,-13.10022663675024
-0.013700000000000045,-13.376095340223923
-0.014700000000000157,-13.651964043697603
-0.015700000000000047,-13.87548842907628
-0.01670000000000016,-14.100427525754823
-0.01770000000000005,-14.345172580631472
-0.01870000000000016,-14.599820614607177
-0.01970000000000005,-14.882762874580186
-0.020700000000000163,-15.10911668255859
-0.021700000000000053,-15.307176264539699
-0.022700000000000164,-15.547677185516752
-0.023700000000000054,-15.830619445489761
-0.024700000000000166,-16.127708818461418
-0.025700000000000056,-16.368209739438473
-0.026700000000000168,-16.56626932141958
-0.027700000000000058,-16.806770242396635
-0.02870000000000017,-17.07556538937099
-0.02970000000000006,-17.358507649344002
-0.03070000000000017,-17.584861457322408
-0.03170000000000006,-17.81121526530081
-0.03270000000000017,-18.06586329927652
-0.03370000000000006,-18.377099785246827
-0.034700000000000175,-18.674189158218486
-0.035700000000000065,-18.94298430519284
-0.03670000000000018,-19.169338113171246
-0.03770000000000007,-19.423986147146955
-0.03870000000000018,-19.721075520118614
-0.03970000000000007,-20.01816489309027
-0.04070000000000018,-20.286960040064624
-0.04170000000000007,-20.541608074040333
-0.04270000000000018,-20.824550334013338
-0.04370000000000007,-21.149933932982297
-0.044700000000000184,-21.461170418952605
-0.045700000000000074,-21.729965565926964
-0.046700000000000186,-21.98461359990267
-0.047700000000000076,-22.253408746877028
-0.04870000000000019,-22.621233684841933
-0.04970000000000008,-22.974911509808198
-0.05070000000000019,-23.257853769781203
-0.05170000000000008,-23.51250180375691
-0.05270000000000019,-23.83788540272587
-0.05370000000000008,-24.17741611469348
-0.05470000000000019,-24.516946826661083
-0.05570000000000008,-24.828183312631392
-0.056700000000000195,-25.111125572604404
-0.057700000000000085,-25.42236205857471
-0.058700000000000196,-25.77603988354097
-0.059700000000000086,-26.129717708507226
-0.0607000000000002,-26.412659968480234
-0.06170000000000009,-26.681455115454593
-0.0627000000000002,-27.049280053419505
-0.06370000000000009,-27.43125210438306
-0.0647000000000002,-27.813224155346617
-0.06570000000000009,-28.05372507632368
-0.0667000000000002,-28.336667336296685
-0.0677000000000001,-28.676198048264297
-0.0687000000000002,-29.086464325225155
-0.0697000000000001,-29.510877715184666
-0.07070000000000021,-29.850408427152274
-0.0717000000000001,-30.17579202612123
-0.07270000000000021,-30.47288139909289
-0.0737000000000001,-30.82655922405915
-0.07470000000000021,-31.22267838802136
-0.0757000000000001,-31.54806198699032
-0.07670000000000021,-31.84515135996197
-0.0777000000000001,-32.21297629792688
-0.07870000000000021,-32.6090954618891
-0.0797000000000001,-33.01936173884996
-0.08070000000000022,-33.38718667681487
-0.0817000000000001,-33.698423162785176
-0.08270000000000022,-34.02380676175414
-0.08370000000000011,-34.4057788127177
-0.08470000000000022,-34.787750863681254
-0.08570000000000011,-35.12728157564886
-0.08670000000000022,-35.48095940061512
-0.08770000000000011,-35.82049011258273
-0.08870000000000022,-36.230756389543586
-0.08970000000000011,-36.655169779503105
-0.09070000000000022,-37.05128894346531
-0.09170000000000011,-37.40496676843157
-0.09270000000000023,-37.73035036740053
-0.09370000000000012,-38.11232241836409
-0.09470000000000023,-38.4518531303317
-0.09570000000000012,-38.777236729300654
-0.09670000000000023,-39.145061667265566
-0.09770000000000012,-39.51288660523048
-0.09870000000000023,-39.92315288219133
-0.09970000000000012,-40.33341915915219
-0.10070000000000023,-40.68709698411846
-0.10170000000000012,-41.01248058308742
-0.10270000000000024,-41.40859974704962
-0.10370000000000013,-41.83301313700913
-0.10470000000000024,-42.200838074974044
-0.10570000000000013,-42.497927447945706
-0.10670000000000024,-42.82331104691466
-0.10770000000000013,-43.205283097878215
-0.10870000000000024,-43.657990713835034
-0.10970000000000013,-44.068256990795895
-0.11070000000000024,-44.45022904175945
-0.11170000000000013,-44.775612640728404
-0.11270000000000002,-45.12929046569467
-0.11370000000000013,-45.51126251665823
-0.11470000000000002,-45.89323456762179
-0.11570000000000014,-46.27520661858535
-0.11670000000000003,-46.68547289554621
-0.11770000000000014,-46.96841515551922
-0.11870000000000003,-47.36453431948143
-0.11970000000000014,-47.76065348344364
-0.12070000000000003,-48.156772647405845
-0.12170000000000014,-48.51045047237211
-0.12270000000000003,-48.89242252333566
-0.12370000000000014,-49.30268880029653
-0.12470000000000003,-49.67051373826144
-0.12570000000000014,-50.038338676226346
-0.12670000000000003,-50.34957516219666
-0.12770000000000015,-50.68910587416426
-0.12870000000000004,-51.113519264123774
-0.12970000000000015,-51.53793265408329
-0.13070000000000004,-51.8774633660509
-0.13170000000000015,-52.23114119101716
-0.13270000000000004,-52.58481901598341
-0.13370000000000015,-52.995085292944275
-0.13470000000000004,-53.39120445690648
-0.13570000000000015,-53.70244094287679
-0.13670000000000004,-54.05611876784305
-0.13770000000000016,-54.45223793180526
-0.13870000000000005,-54.82006286977017
-0.13970000000000016,-55.24447625972968
-0.14070000000000005,-55.626448310693235
-0.14170000000000016,-55.96597902266086
-0.14270000000000005,-56.333803960625765
-0.14370000000000016,-56.74407023758662
-0.14470000000000005,-57.15433651454749
-0.14570000000000016,-57.479720113516436
-0.14670000000000005,-57.8333979384827
-0.14770000000000016,-58.21536998944626
-0.14870000000000005,-58.59734204040982
-0.14970000000000017,-58.97931409137338
-0.15070000000000006,-59.375433255335594
-0.15170000000000017,-59.7149639673032
-0.15270000000000006,-60.054494679270796
-0.15370000000000017,-60.47890806923032
-0.15470000000000006,-60.903321459189826
-0.15570000000000017,-61.29944062315204
-0.15670000000000006,-61.5682357701264
-0.15770000000000017,-61.936060708091304
-0.15870000000000006,-62.36047409805081
-0.15970000000000018,-62.75659326201302
-0.16070000000000007,-63.15271242597524
-0.16170000000000018,-63.5063902509415
-0.16270000000000007,-63.874215188906405
-0.16370000000000018,-64.27033435286862
-0.16470000000000007,-64.69474774282813
-0.16570000000000018,-65.02013134179708
-0.16670000000000007,-65.31722071476874
-0.16770000000000018,-65.670898539735
-0.16870000000000007,-66.0670177036972
-0.16970000000000018,-66.51972531965401
-0.17070000000000007,-66.9299915966149
-0.17170000000000019,-67.34025787357575
-0.17270000000000008,-67.65149435954605
-0.1737000000000002,-68.04761352350828
-0.17470000000000008,-68.52861536546239
-0.1757000000000002,-68.86814607742998
-0.17670000000000008,-69.19352967639895
-0.1777000000000002,-69.57550172736251
-0.17870000000000008,-69.9433266653274
-0.1797000000000002,-70.39603428128423
-0.18070000000000008,-70.77800633224777
-0.1817000000000002,-71.10338993121674
-0.18270000000000008,-71.47121486918165
-0.1837000000000002,-71.8531869201452
-0.1847000000000001,-72.26345319710607
-0.1857000000000002,-72.67371947406694
-0.1867000000000001,-73.01325018603454
-0.1877000000000002,-73.38107512399945
-0.1887000000000001,-73.81963562695762
-0.1897000000000002,-74.18746056492253
-0.1907000000000001,-74.56943261588609
-0.1917000000000001,-75.02214023184291
-0.19269999999999998,-75.47484784779972
-0.1937000000000001,-75.88511412476056
-0.19469999999999998,-76.25293906272547
-0.1957000000000001,-76.55002843569714
-0.19669999999999999,-76.8754120346661
-0.1977000000000001,-77.2998254246256
-0.1987,-77.79497437957838
-0.1997000000000001,-78.20524065653922
-0.2007,-78.62965404649873
-0.2017000000000001,-79.01162609746228
-0.2027,-79.45018660042047
-0.2037000000000001,-79.90289421637728
-0.2047,-80.28486626734085
-0.2057000000000001,-80.59610275331114
-0.2067,-80.99222191727335
-0.2077000000000001,-81.47322375922747
-0.2087,-81.95422560118158
-0.2097000000000001,-82.26546208715187
-0.2107,-82.6615812511141
-0.2117000000000001,-83.08599464107361
-0.2127,-83.59529070902502
-0.2137000000000001,-83.79335029100612
-0.2147,-84.16117522897105
-0.2157000000000001,-84.67047129692244
-0.2167,-85.12317891287925
-0.21770000000000012,-85.54759230283878
-0.2187,-85.98615280579692
-0.21970000000000012,-86.50959598674699
-0.2207,-86.91986226370786
-0.22170000000000012,-87.25939297567547
-0.2227,-87.62721791364037
-0.22370000000000012,-87.99504285160528
-0.2247,-88.37701490256885
-0.22570000000000012,-88.815575405527
-0.2267,-89.29657724748111
-0.22770000000000012,-89.70684352444198
-0.22870000000000001,-90.15955114039879
-0.22970000000000013,-90.6122587563556
-0.23070000000000002,-91.12155482430701
-0.23170000000000013,-91.48937976227192
-0.23270000000000002,-91.72988068324898
-0.23370000000000013,-92.18258829920579
-0.23470000000000002,-92.6070016891653
-0.23570000000000013,-93.03141507912481
-0.23670000000000002,-93.46997558208298
-0.2376999999999999,-93.80950629405058
-0.23870000000000002,-94.19147834501413
-0.2396999999999999,-94.601744621975
-0.24070000000000003,-95.02615801193451
-0.24169999999999991,-95.40813006289807
-0.24270000000000003,-95.87498479185354
-0.24369999999999992,-96.22866261681979
-0.24470000000000003,-96.6813702327766
-0.24569999999999992,-97.03504805774287
-0.24670000000000003,-97.38872588270912
-0.24769999999999992,-97.64337391668484
-0.24870000000000003,-97.99705174165109
-0.24969999999999992,-98.4780535836052
-0.25070000000000003,-98.88831986056607
-0.2516999999999999,-99.24199768553233
-0.25270000000000004,-99.66641107549184
-0.2536999999999999,-100.04838312645539
-0.25470000000000004,-100.48694362941356
-0.2556999999999999,-100.91135701937307
-0.25670000000000004,-101.22259350534338
-0.25769999999999993,-101.49138865231772
-0.25870000000000004,-101.80262513828804
-0.25969999999999993,-102.09971451125969
-0.26070000000000004,-102.42509811022865
-0.26169999999999993,-102.70804037020166
-0.26270000000000004,-103.00512974317333
-0.26369999999999993,-103.37295468113824
-0.26470000000000005,-103.79736807109774
-0.26569999999999994,-104.13689878306535
-0.26670000000000005,-104.433988156037
-0.26769999999999994,-104.73107752900866
-0.26870000000000005,-105.12719669297088
-0.26969999999999994,-105.4384331789412
-0.27070000000000005,-105.63649276092228
-0.27169999999999994,-105.90528790789664
-0.27270000000000005,-106.10334748987775
-0.27369999999999994,-106.38628974985076
-0.27470000000000006,-106.66923200982377
-0.27569999999999995,-106.98046849579409
-0.27670000000000006,-107.22096941677113
-0.27769999999999995,-107.40488188575358
-0.27870000000000006,-107.65952991972928
-0.27969999999999995,-107.94247217970229
-0.28070000000000006,-108.15467887468205
-0.28169999999999995,-108.32444423066585
-0.28270000000000006,-108.46591536065236
-0.28369999999999995,-108.69226916863077
-0.28470000000000006,-108.89032875061187
-0.28569999999999995,-109.04594699359701
-0.28670000000000007,-109.17327101058488
-0.28769999999999996,-109.37133059256598
-0.28870000000000007,-109.54109594854978
-0.28969999999999996,-109.7957439825255
-0.29070000000000007,-109.97965645150795
-0.29169999999999996,-109.92306799951335
-0.29270000000000007,-109.97965645150795
-0.29369999999999996,-110.0786862424985
-0.2947000000000001,-110.1352746944931
-0.29569999999999996,-110.1918631464877
-0.2967000000000001,-110.20601025948636
-0.29769999999999996,-110.1918631464877
-0.2987000000000001,-110.22015737248502
-0.29969999999999997,-110.3050400504769
-0.3007000000000001,-110.1352746944931
-0.30169999999999997,-109.89477377351605
-0.3027000000000001,-109.89477377351605
-0.30369999999999997,-109.8523324345201
-0.3047000000000001,-109.83818532152145
-0.30569999999999997,-109.73915553053091
-0.3067000000000001,-109.58353728754575
-0.3077,-109.41377193156194
-0.3087000000000001,-109.28644791457408
-0.3097,-109.14497678458758
-0.3107000000000001,-108.89032875061187
-0.3117,-108.5932393776402
-0.3127000000000001,-108.36688556966182
-0.3137,-108.09809042268746
-0.3147000000000001,-107.88588372770771
-0.3157,-107.73026548472255
-0.3167000000000001,-107.44732322474954
-0.3177,-107.16438096477653
-0.3187000000000001,-106.83899736580757
-0.3197,-106.4287310888467
-0.3207000000000001,-105.94772924689259
-0.3217,-105.42428606594254
-0.3227000000000001,-104.97157844998573
-0.3237,-104.60375351202082
-0.3247000000000001,-104.2359285740559
-0.3257,-103.79736807109774
-0.3267000000000001,-103.35880756813957
-0.3277,-102.79292304819357
-0.3287000000000001,-102.22703852824755
-0.3297,-101.71774246029614
-0.3307000000000001,-101.10941660135417
-0.3317,-100.54353208140815
-0.3327000000000001,-99.9635004484635
-0.3337,-99.44005726751342
-0.3347000000000001,-98.95905542555931
-0.3357,-98.5063478096025
-0.3367000000000001,-97.78484504667132
-0.3377,-97.00675383174556
-0.3387000000000001,-96.2852510688144
-0.3397,-95.59204253188052
-0.3407000000000001,-94.87053976894937
-0.3417,-94.14903700601819
-0.3427000000000001,-93.45582846908432
-0.3437,-92.87579683613966
-0.3447000000000001,-92.33820654219093
-0.3457,-91.67329223125436
-0.3467000000000001,-90.88105390332996
-0.3477,-90.15955114039879
-0.3487000000000001,-89.40975415147031
-0.3497,-88.63166293654454
-0.3507000000000001,-87.92430728661203
-0.3517,-87.20280452368085
-0.3527000000000001,-86.49544887374834
-0.3537,-85.87297590180773
-0.3547000000000001,-85.2222087038698
-0.3557,-84.5148530539373
-0.35670000000000013,-83.75090895201016
-0.3577,-83.04355330207765
-0.35870000000000013,-82.49181589513029
-0.3597,-81.98251982717888
-0.36070000000000013,-81.43078242023151
-0.3617,-80.82245656128954
-0.3626999999999999,-80.21413070234757
-0.3637,-79.61995195640426
-0.3646999999999999,-79.05406743645825
-0.3657,-78.51647714250953
-0.3666999999999999,-78.00718107455812
-0.3677,-77.51203211960537
-0.3686999999999999,-77.08761872964584
-0.36970000000000003,-76.77638224367554
-0.3706999999999999,-76.36611596671467
-0.37170000000000003,-75.94170257675518
-0.3726999999999999,-75.55973052579161
-0.37370000000000003,-75.23434692682265
-0.3746999999999999,-74.92311044085234
-0.37570000000000003,-74.64016818087934
-0.3766999999999999,-74.41381437290093
-0.37770000000000004,-74.18746056492253
-0.3786999999999999,-74.0176952089387
-0.37970000000000004,-73.90451830494952
-0.3806999999999999,-73.7347529489657
-0.38170000000000004,-73.52254625398596
-0.38269999999999993,-73.40936934999675
-0.38370000000000004,-73.35278089800215
-0.38469999999999993,-73.26789822001024
-0.38570000000000004,-73.31033955900621
-0.38669999999999993,-71.44292064318435
-0.38570000000000004,-67.86370105452582
-0.38469999999999993,-64.96354288980248
-0.38370000000000004,-62.36047409805081
-0.38269999999999993,-60.02620045327351
-0.38170000000000004,-57.974869068469204
-0.3806999999999999,-56.12159726564601
-0.37970000000000004,-54.31076680181876
-0.3786999999999999,-52.61311324198071
-0.37770000000000004,-50.915459682142675
-0.3766999999999999,-49.26024746130057
-0.37570000000000003,-47.74650637044499
-0.3746999999999999,-46.37423640957591
-0.37370000000000003,-45.086849126698716
-0.3726999999999999,-43.77116761782423
-0.37170000000000003,-42.497927447945706
-0.3706999999999999,-41.267128617063115
-0.36970000000000003,-40.06462401217784
-0.3686999999999999,-38.91870785928716
-0.3677,-37.81523304539243
-0.3666999999999999,-36.6834640055004
-0.3657,-35.62243053060162
-0.3646999999999999,-34.6604268466934
-0.3637,-33.712570275783825
-0.3626999999999999,-32.7788608178729
-0.3617,-31.788562907967375
-0.36070000000000013,-30.854853450056453
-0.3597,-29.991879557138777
-0.35870000000000013,-29.171347003217054
-0.3577,-28.336667336296685
-0.35670000000000013,-27.487840556377662
-0.3557,-26.65316088945729
-0.3547000000000001,-25.90336390052882
-0.3537,-25.1394197986017
-0.3527000000000001,-24.37547569667458
-0.3517,-23.61153159474746
-0.3507000000000001,-22.87588171881764
-0.3497,-22.210967407881075
-0.3487000000000001,-21.54605309694451
-0.3477,-20.85284456001064
-0.3467000000000001,-20.17378313607542
-0.3457,-19.508868825138855
-0.3447000000000001,-18.88639585319824
-0.3437,-18.334658446250877
-0.3427000000000001,-17.72633258730891
-0.3417,-17.103859615368293
-0.3407000000000001,-16.50968086942498
-0.3397,-15.957943462477614
-0.3387000000000001,-15.448647394526201
-0.3377,-14.896909987578834
-0.3367000000000001,-14.331025467632822
-0.3357,-13.775043926785862
-0.3347000000000001,-13.27140670403391
-0.3337,-12.818699088077096
-0.3327000000000001,-12.316476576625009
-0.3317,-11.795862818274676
-0.3307000000000001,-11.299299152022046
-0.3297,-10.835273845666316
-0.3287000000000001,-10.413689878306533
-0.3277,-9.99069119964689
-0.3267000000000001,-9.521007048091697
-0.3257,-9.062640586935425
-0.3247000000000001,-8.649544887374834
-0.3237,-8.25766985731222
-0.3227000000000001,-7.864380115949738
-0.3217,-7.418746056492251
-0.3207000000000001,-7.005650356931662
-0.3197,-6.639240130266617
-0.3187000000000001,-6.291221150499819
-0.3177,-5.926225635134639
-0.3167000000000001,-5.528691759872564
-0.3157,-5.143890286309273
-0.3147000000000001,-4.81709197604045
-0.3137,-4.498781933570816
-0.3127000000000001,-4.162080644202938
-0.3117,-3.8098175305365434
-0.3107000000000001,-3.4462367264712297
-0.3097,-3.1420737970002466
-0.3087000000000001,-2.8619609596269693
-0.3077,-2.550724473656661
-0.3067000000000001,-2.229585008587298
-0.30569999999999997,-1.8999572757187444
-0.3047000000000001,-1.6170150157457368
-0.30369999999999997,-1.3722699608690856
-0.3027000000000001,-1.086215336036375
-0.30169999999999997,-0.7756862057159997
-0.3007000000000001,-0.48114331308409897
-0.29969999999999997,-0.2164508288793506
-0.2987000000000001,0.0048595333150364016
-0.29769999999999996,0.2614386482150588
-0.2967000000000001,0.5534350605072024
-0.29569999999999996,0.8242108033013704
-0.2947000000000001,1.0673996757481703
-0.29369999999999996,1.2723913430986138
-0.29270000000000007,1.5038381117565338
-0.29169999999999996,1.781121526530081
-0.29070000000000007,2.0301107153063276
-0.28969999999999996,2.2522203893851382
-0.28870000000000007,2.4446211261667834
-0.28769999999999996,2.6511689759470785
-0.28670000000000007,2.9100611438223805
-0.28569999999999995,3.1519767760993016
-0.28470000000000006,3.351451069380272
-0.28369999999999995,3.5311194044631313
-0.28270000000000006,3.7192760073451816
-0.28169999999999995,3.958362217022373
-0.28070000000000006,4.191789581500104
-0.27969999999999995,4.374287339182693
-0.27870000000000006,4.538393849967037
-0.27769999999999995,4.723721030249357
-0.27670000000000006,4.941586570428573
-0.27569999999999995,5.166525667107114
-0.27470000000000006,5.333461600491188
-0.27369999999999994,5.480591575677152
-0.27270000000000005,5.658845199460147
-0.27169999999999994,5.859734204040981
-0.27070000000000005,6.067696765121143
-0.26969999999999994,6.233217987205351
-0.26870000000000005,6.366200849392665
-0.26769999999999994,6.543039761875795
-0.26670000000000005,6.753831745555685
-0.26569999999999994,6.947647193637194
-0.26470000000000005,7.101850725322484
