Dec. 20, 2024   03:25:41
Cyclic Voltammetry
File: c:/users/guazh/data/banditlqround7_x0exp667_r5/2024-12-16-exp707\exp707-2024-12-20t03_13_03-h2koh\exp707_cv_sr_900mvs_efin_-1500mv.bin
Data Source:  Experiment
Instrument Model:  CHI760E
Header: CV ran at 900 mVs
Note: 

Init E (V) = -1
High E (V) = -1
Low E (V) = -1.5
Final E (V) = -1
Init P/N = N
Scan Rate (V/s) = 0.9
Segment = 3
Sample Interval (V) = 0.001
Quiet Time (sec) = 2
Sensitivity (A/V) = 0.01
Comp R (ohm) = 1.1

Results:

Channel 1:
Segment 1:

Segment 2:

Segment 3:

Potential/V, Current/A

-1.000, -8.970e-4
-1.001, -7.521e-4
-1.002, -6.103e-4
-1.003, -4.716e-4
-1.004, -3.328e-4
-1.005, -1.972e-4
-1.006, -6.459e-5
-1.007, 6.490e-5
-1.008, 1.882e-4
-1.009, 3.085e-4
-1.010, 4.256e-4
-1.011, 5.397e-4
-1.012, 6.538e-4
-1.013, 7.679e-4
-1.014, 8.788e-4
-1.015, 9.898e-4
-1.016, 1.104e-3
-1.017, 1.218e-3
-1.018, 1.332e-3
-1.019, 1.443e-3
-1.020, 1.554e-3
-1.021, 1.662e-3
-1.022, 1.770e-3
-1.023, 1.875e-3
-1.024, 1.973e-3
-1.025, 2.072e-3
-1.026, 2.171e-3
-1.027, 2.260e-3
-1.028, 2.356e-3
-1.029, 2.454e-3
-1.030, 2.550e-3
-1.031, 2.645e-3
-1.032, 2.741e-3
-1.033, 2.837e-3
-1.034, 2.932e-3
-1.035, 3.028e-3
-1.036, 3.123e-3
-1.037, 3.216e-3
-1.038, 3.302e-3
-1.039, 3.388e-3
-1.040, 3.475e-3
-1.041, 3.558e-3
-1.042, 3.638e-3
-1.043, 3.718e-3
-1.044, 3.802e-3
-1.045, 3.882e-3
-1.046, 3.968e-3
-1.047, 4.054e-3
-1.048, 4.138e-3
-1.049, 4.224e-3
-1.050, 4.310e-3
-1.051, 4.391e-3
-1.052, 4.474e-3
-1.053, 4.551e-3
-1.054, 4.622e-3
-1.055, 4.699e-3
-1.056, 4.770e-3
-1.057, 4.841e-3
-1.058, 4.915e-3
-1.059, 4.986e-3
-1.060, 5.060e-3
-1.061, 5.134e-3
-1.062, 5.214e-3
-1.063, 5.291e-3
-1.064, 5.368e-3
-1.065, 5.445e-3
-1.066, 5.519e-3
-1.067, 5.596e-3
-1.068, 5.667e-3
-1.069, 5.735e-3
-1.070, 5.806e-3
-1.071, 5.873e-3
-1.072, 5.938e-3
-1.073, 6.006e-3
-1.074, 6.074e-3
-1.075, 6.145e-3
-1.076, 6.216e-3
-1.077, 6.287e-3
-1.078, 6.361e-3
-1.079, 6.432e-3
-1.080, 6.506e-3
-1.081, 6.576e-3
-1.082, 6.647e-3
-1.083, 6.715e-3
-1.084, 6.777e-3
-1.085, 6.842e-3
-1.086, 6.906e-3
-1.087, 6.965e-3
-1.088, 7.027e-3
-1.089, 7.091e-3
-1.090, 7.153e-3
-1.091, 7.221e-3
-1.092, 7.289e-3
-1.093, 7.356e-3
-1.094, 7.424e-3
-1.095, 7.495e-3
-1.096, 7.557e-3
-1.097, 7.625e-3
-1.098, 7.686e-3
-1.099, 7.745e-3
-1.100, 7.807e-3
-1.101, 7.865e-3
-1.102, 7.918e-3
-1.103, 7.979e-3
-1.104, 8.038e-3
-1.105, 8.099e-3
-1.106, 8.161e-3
-1.107, 8.226e-3
-1.108, 8.291e-3
-1.109, 8.355e-3
-1.110, 8.420e-3
-1.111, 8.485e-3
-1.112, 8.547e-3
-1.113, 8.608e-3
-1.114, 8.664e-3
-1.115, 8.725e-3
-1.116, 8.784e-3
-1.117, 8.839e-3
-1.118, 8.898e-3
-1.119, 8.957e-3
-1.120, 9.018e-3
-1.121, 9.080e-3
-1.122, 9.145e-3
-1.123, 9.209e-3
-1.124, 9.274e-3
-1.125, 9.336e-3
-1.126, 9.401e-3
-1.127, 9.462e-3
-1.128, 9.518e-3
-1.129, 9.576e-3
-1.130, 9.632e-3
-1.131, 9.687e-3
-1.132, 9.740e-3
-1.133, 9.798e-3
-1.134, 9.854e-3
-1.135, 9.909e-3
-1.136, 9.968e-3
-1.137, 1.003e-2
-1.138, 1.009e-2
-1.139, 1.015e-2
-1.140, 1.022e-2
-1.141, 1.028e-2
-1.142, 1.034e-2
-1.143, 1.040e-2
-1.144, 1.046e-2
-1.145, 1.051e-2
-1.146, 1.057e-2
-1.147, 1.062e-2
-1.148, 1.068e-2
-1.149, 1.074e-2
-1.150, 1.079e-2
-1.151, 1.085e-2
-1.152, 1.091e-2
-1.153, 1.098e-2
-1.154, 1.104e-2
-1.155, 1.111e-2
-1.156, 1.116e-2
-1.157, 1.123e-2
-1.158, 1.128e-2
-1.159, 1.133e-2
-1.160, 1.138e-2
-1.161, 1.144e-2
-1.162, 1.149e-2
-1.163, 1.154e-2
-1.164, 1.159e-2
-1.165, 1.165e-2
-1.166, 1.171e-2
-1.167, 1.177e-2
-1.168, 1.183e-2
-1.169, 1.189e-2
-1.170, 1.195e-2
-1.171, 1.202e-2
-1.172, 1.208e-2
-1.173, 1.213e-2
-1.174, 1.218e-2
-1.175, 1.224e-2
-1.176, 1.229e-2
-1.177, 1.234e-2
-1.178, 1.239e-2
-1.179, 1.245e-2
-1.180, 1.250e-2
-1.181, 1.255e-2
-1.182, 1.261e-2
-1.183, 1.267e-2
-1.184, 1.273e-2
-1.185, 1.280e-2
-1.186, 1.286e-2
-1.187, 1.291e-2
-1.188, 1.297e-2
-1.189, 1.302e-2
-1.190, 1.307e-2
-1.191, 1.312e-2
-1.192, 1.316e-2
-1.193, 1.321e-2
-1.194, 1.326e-2
-1.195, 1.332e-2
-1.196, 1.337e-2
-1.197, 1.343e-2
-1.198, 1.349e-2
-1.199, 1.354e-2
-1.200, 1.361e-2
-1.201, 1.366e-2
-1.202, 1.372e-2
-1.203, 1.377e-2
-1.204, 1.382e-2
-1.205, 1.386e-2
-1.206, 1.391e-2
-1.207, 1.396e-2
-1.208, 1.402e-2
-1.209, 1.407e-2
-1.210, 1.412e-2
-1.211, 1.418e-2
-1.212, 1.423e-2
-1.213, 1.428e-2
-1.214, 1.434e-2
-1.215, 1.439e-2
-1.216, 1.444e-2
-1.217, 1.450e-2
-1.218, 1.455e-2
-1.219, 1.460e-2
-1.220, 1.465e-2
-1.221, 1.470e-2
-1.222, 1.475e-2
-1.223, 1.481e-2
-1.224, 1.486e-2
-1.225, 1.491e-2
-1.226, 1.496e-2
-1.227, 1.502e-2
-1.228, 1.508e-2
-1.229, 1.514e-2
-1.230, 1.519e-2
-1.231, 1.524e-2
-1.232, 1.530e-2
-1.233, 1.534e-2
-1.234, 1.539e-2
-1.235, 1.543e-2
-1.236, 1.547e-2
-1.237, 1.551e-2
-1.238, 1.555e-2
-1.239, 1.560e-2
-1.240, 1.565e-2
-1.241, 1.570e-2
-1.242, 1.575e-2
-1.243, 1.581e-2
-1.244, 1.586e-2
-1.245, 1.592e-2
-1.246, 1.597e-2
-1.247, 1.602e-2
-1.248, 1.607e-2
-1.249, 1.611e-2
-1.250, 1.616e-2
-1.251, 1.620e-2
-1.252, 1.625e-2
-1.253, 1.629e-2
-1.254, 1.634e-2
-1.255, 1.638e-2
-1.256, 1.643e-2
-1.257, 1.648e-2
-1.258, 1.653e-2
-1.259, 1.657e-2
-1.260, 1.663e-2
-1.261, 1.667e-2
-1.262, 1.672e-2
-1.263, 1.676e-2
-1.264, 1.680e-2
-1.265, 1.685e-2
-1.266, 1.690e-2
-1.267, 1.694e-2
-1.268, 1.699e-2
-1.269, 1.703e-2
-1.270, 1.707e-2
-1.271, 1.712e-2
-1.272, 1.718e-2
-1.273, 1.723e-2
-1.274, 1.728e-2
-1.275, 1.733e-2
-1.276, 1.738e-2
-1.277, 1.743e-2
-1.278, 1.748e-2
-1.279, 1.752e-2
-1.280, 1.756e-2
-1.281, 1.761e-2
-1.282, 1.764e-2
-1.283, 1.769e-2
-1.284, 1.773e-2
-1.285, 1.777e-2
-1.286, 1.781e-2
-1.287, 1.786e-2
-1.288, 1.791e-2
-1.289, 1.796e-2
-1.290, 1.800e-2
-1.291, 1.805e-2
-1.292, 1.809e-2
-1.293, 1.813e-2
-1.294, 1.817e-2
-1.295, 1.821e-2
-1.296, 1.825e-2
-1.297, 1.829e-2
-1.298, 1.833e-2
-1.299, 1.837e-2
-1.300, 1.841e-2
-1.301, 1.846e-2
-1.302, 1.850e-2
-1.303, 1.855e-2
-1.304, 1.859e-2
-1.305, 1.865e-2
-1.306, 1.869e-2
-1.307, 1.874e-2
-1.308, 1.878e-2
-1.309, 1.881e-2
-1.310, 1.885e-2
-1.311, 1.889e-2
-1.312, 1.892e-2
-1.313, 1.897e-2
-1.314, 1.900e-2
-1.315, 1.904e-2
-1.316, 1.908e-2
-1.317, 1.912e-2
-1.318, 1.917e-2
-1.319, 1.921e-2
-1.320, 1.926e-2
-1.321, 1.931e-2
-1.322, 1.935e-2
-1.323, 1.939e-2
-1.324, 1.943e-2
-1.325, 1.946e-2
-1.326, 1.950e-2
-1.327, 1.953e-2
-1.328, 1.956e-2
-1.329, 1.959e-2
-1.330, 1.962e-2
-1.331, 1.965e-2
-1.332, 1.969e-2
-1.333, 1.973e-2
-1.334, 1.977e-2
-1.335, 1.981e-2
-1.336, 1.985e-2
-1.337, 1.989e-2
-1.338, 1.992e-2
-1.339, 1.995e-2
-1.340, 1.999e-2
-1.341, 2.002e-2
-1.342, 2.005e-2
-1.343, 2.009e-2
-1.344, 2.012e-2
-1.345, 2.015e-2
-1.346, 2.019e-2
-1.347, 2.023e-2
-1.348, 2.027e-2
-1.349, 2.031e-2
-1.350, 2.035e-2
-1.351, 2.039e-2
-1.352, 2.044e-2
-1.353, 2.048e-2
-1.354, 2.051e-2
-1.355, 2.055e-2
-1.356, 2.058e-2
-1.357, 2.061e-2
-1.358, 2.064e-2
-1.359, 2.067e-2
-1.360, 2.071e-2
-1.361, 2.074e-2
-1.362, 2.078e-2
-1.363, 2.082e-2
-1.364, 2.086e-2
-1.365, 2.090e-2
-1.366, 2.094e-2
-1.367, 2.099e-2
-1.368, 2.103e-2
-1.369, 2.107e-2
-1.370, 2.111e-2
-1.371, 2.115e-2
-1.372, 2.118e-2
-1.373, 2.121e-2
-1.374, 2.125e-2
-1.375, 2.128e-2
-1.376, 2.132e-2
-1.377, 2.136e-2
-1.378, 2.140e-2
-1.379, 2.144e-2
-1.380, 2.149e-2
-1.381, 2.153e-2
-1.382, 2.157e-2
-1.383, 2.162e-2
-1.384, 2.165e-2
-1.385, 2.169e-2
-1.386, 2.172e-2
-1.387, 2.175e-2
-1.388, 2.179e-2
-1.389, 2.182e-2
-1.390, 2.186e-2
-1.391, 2.190e-2
-1.392, 2.193e-2
-1.393, 2.197e-2
-1.394, 2.201e-2
-1.395, 2.205e-2
-1.396, 2.209e-2
-1.397, 2.214e-2
-1.398, 2.218e-2
-1.399, 2.222e-2
-1.400, 2.226e-2
-1.401, 2.229e-2
-1.402, 2.232e-2
-1.403, 2.235e-2
-1.404, 2.239e-2
-1.405, 2.241e-2
-1.406, 2.244e-2
-1.407, 2.248e-2
-1.408, 2.251e-2
-1.409, 2.255e-2
-1.410, 2.260e-2
-1.411, 2.264e-2
-1.412, 2.269e-2
-1.413, 2.273e-2
-1.414, 2.277e-2
-1.415, 2.281e-2
-1.416, 2.284e-2
-1.417, 2.287e-2
-1.418, 2.291e-2
-1.419, 2.294e-2
-1.420, 2.298e-2
-1.421, 2.302e-2
-1.422, 2.306e-2
-1.423, 2.309e-2
-1.424, 2.313e-2
-1.425, 2.317e-2
-1.426, 2.321e-2
-1.427, 2.325e-2
-1.428, 2.328e-2
-1.429, 2.331e-2
-1.430, 2.335e-2
-1.431, 2.338e-2
-1.432, 2.341e-2
-1.433, 2.345e-2
-1.434, 2.349e-2
-1.435, 2.352e-2
-1.436, 2.356e-2
-1.437, 2.360e-2
-1.438, 2.365e-2
-1.439, 2.369e-2
-1.440, 2.374e-2
-1.441, 2.378e-2
-1.442, 2.382e-2
-1.443, 2.386e-2
-1.444, 2.389e-2
-1.445, 2.393e-2
-1.446, 2.397e-2
-1.447, 2.400e-2
-1.448, 2.403e-2
-1.449, 2.406e-2
-1.450, 2.409e-2
-1.451, 2.413e-2
-1.452, 2.417e-2
-1.453, 2.421e-2
-1.454, 2.424e-2
-1.455, 2.428e-2
-1.456, 2.432e-2
-1.457, 2.436e-2
-1.458, 2.439e-2
-1.459, 2.442e-2
-1.460, 2.446e-2
-1.461, 2.449e-2
-1.462, 2.452e-2
-1.463, 2.455e-2
-1.464, 2.458e-2
-1.465, 2.461e-2
-1.466, 2.464e-2
-1.467, 2.468e-2
-1.468, 2.472e-2
-1.469, 2.476e-2
-1.470, 2.480e-2
-1.471, 2.484e-2
-1.472, 2.487e-2
-1.473, 2.491e-2
-1.474, 2.494e-2
-1.475, 2.497e-2
-1.476, 2.500e-2
-1.477, 2.504e-2
-1.478, 2.507e-2
-1.479, 2.510e-2
-1.480, 2.513e-2
-1.481, 2.516e-2
-1.482, 2.520e-2
-1.483, 2.523e-2
-1.484, 2.527e-2
-1.485, 2.531e-2
-1.486, 2.535e-2
-1.487, 2.538e-2
-1.488, 2.541e-2
-1.489, 2.543e-2
-1.490, 2.545e-2
-1.491, 2.546e-2
-1.492, 2.549e-2
-1.493, 2.552e-2
-1.494, 2.556e-2
-1.495, 2.559e-2
-1.496, 2.562e-2
-1.497, 2.566e-2
-1.498, 2.571e-2
-1.499, 2.576e-2
-1.500, 2.570e-2
-1.499, 2.544e-2
-1.498, 2.519e-2
-1.497, 2.495e-2
-1.496, 2.470e-2
-1.495, 2.445e-2
-1.494, 2.420e-2
-1.493, 2.396e-2
-1.492, 2.372e-2
-1.491, 2.349e-2
-1.490, 2.326e-2
-1.489, 2.304e-2
-1.488, 2.282e-2
-1.487, 2.261e-2
-1.486, 2.239e-2
-1.485, 2.218e-2
-1.484, 2.196e-2
-1.483, 2.175e-2
-1.482, 2.153e-2
-1.481, 2.132e-2
-1.480, 2.110e-2
-1.479, 2.088e-2
-1.478, 2.066e-2
-1.477, 2.044e-2
-1.476, 2.023e-2
-1.475, 2.002e-2
-1.474, 1.981e-2
-1.473, 1.961e-2
-1.472, 1.941e-2
-1.471, 1.922e-2
-1.470, 1.902e-2
-1.469, 1.883e-2
-1.468, 1.863e-2
-1.467, 1.843e-2
-1.466, 1.823e-2
-1.465, 1.804e-2
-1.464, 1.784e-2
-1.463, 1.764e-2
-1.462, 1.745e-2
-1.461, 1.725e-2
-1.460, 1.707e-2
-1.459, 1.689e-2
-1.458, 1.671e-2
-1.457, 1.653e-2
-1.456, 1.635e-2
-1.455, 1.617e-2
-1.454, 1.600e-2
-1.453, 1.582e-2
-1.452, 1.564e-2
-1.451, 1.546e-2
-1.450, 1.528e-2
-1.449, 1.510e-2
-1.448, 1.492e-2
-1.447, 1.474e-2
-1.446, 1.456e-2
-1.445, 1.438e-2
-1.444, 1.420e-2
-1.443, 1.403e-2
-1.442, 1.387e-2
-1.441, 1.370e-2
-1.440, 1.353e-2
-1.439, 1.336e-2
-1.438, 1.320e-2
-1.437, 1.303e-2
-1.436, 1.285e-2
-1.435, 1.269e-2
-1.434, 1.252e-2
-1.433, 1.235e-2
-1.432, 1.218e-2
-1.431, 1.202e-2
-1.430, 1.186e-2
-1.429, 1.170e-2
-1.428, 1.155e-2
-1.427, 1.140e-2
-1.426, 1.124e-2
-1.425, 1.109e-2
-1.424, 1.094e-2
-1.423, 1.079e-2
-1.422, 1.064e-2
-1.421, 1.049e-2
-1.420, 1.033e-2
-1.419, 1.017e-2
-1.418, 1.002e-2
-1.417, 9.866e-3
-1.416, 9.715e-3
-1.415, 9.564e-3
-1.414, 9.419e-3
-1.413, 9.277e-3
-1.412, 9.135e-3
-1.411, 8.997e-3
-1.410, 8.861e-3
-1.409, 8.719e-3
-1.408, 8.580e-3
-1.407, 8.439e-3
-1.406, 8.294e-3
-1.405, 8.155e-3
-1.404, 8.013e-3
-1.403, 7.868e-3
-1.402, 7.730e-3
-1.401, 7.591e-3
-1.400, 7.455e-3
-1.399, 7.323e-3
-1.398, 7.193e-3
-1.397, 7.064e-3
-1.396, 6.937e-3
-1.395, 6.811e-3
-1.394, 6.684e-3
-1.393, 6.555e-3
-1.392, 6.428e-3
-1.391, 6.299e-3
-1.390, 6.169e-3
-1.389, 6.043e-3
-1.388, 5.914e-3
-1.387, 5.787e-3
-1.386, 5.664e-3
-1.385, 5.541e-3
-1.384, 5.420e-3
-1.383, 5.303e-3
-1.382, 5.186e-3
-1.381, 5.072e-3
-1.380, 4.958e-3
-1.379, 4.844e-3
-1.378, 4.733e-3
-1.377, 4.612e-3
-1.376, 4.498e-3
-1.375, 4.381e-3
-1.374, 4.264e-3
-1.373, 4.144e-3
-1.372, 4.030e-3
-1.371, 3.916e-3
-1.370, 3.805e-3
-1.369, 3.697e-3
-1.368, 3.589e-3
-1.367, 3.484e-3
-1.366, 3.379e-3
-1.365, 3.278e-3
-1.364, 3.173e-3
-1.363, 3.071e-3
-1.362, 2.963e-3
-1.361, 2.855e-3
-1.360, 2.750e-3
-1.359, 2.642e-3
-1.358, 2.538e-3
-1.357, 2.433e-3
-1.356, 2.328e-3
-1.355, 2.229e-3
-1.354, 2.131e-3
-1.353, 2.035e-3
-1.352, 1.943e-3
-1.351, 1.844e-3
-1.350, 1.754e-3
-1.349, 1.662e-3
-1.348, 1.569e-3
-1.347, 1.474e-3
-1.346, 1.378e-3
-1.345, 1.283e-3
-1.344, 1.190e-3
-1.343, 1.092e-3
-1.342, 9.960e-4
-1.341, 9.066e-4
-1.340, 8.141e-4
-1.339, 7.247e-4
-1.338, 6.384e-4
-1.337, 5.551e-4
-1.336, 4.719e-4
-1.335, 3.886e-4
-1.334, 3.054e-4
-1.333, 2.221e-4
-1.332, 1.358e-4
-1.331, 4.949e-5
-1.330, -3.684e-5
-1.329, -1.232e-4
-1.328, -2.033e-4
-1.327, -2.681e-4
-1.326, -3.513e-4
-1.325, -4.346e-4
-1.324, -5.147e-4
-1.323, -5.918e-4
-1.322, -6.596e-4
-1.321, -7.305e-4
-1.320, -8.045e-4
-1.319, -8.785e-4
-1.318, -9.525e-4
-1.317, -1.033e-3
-1.316, -1.113e-3
-1.315, -1.190e-3
-1.314, -1.273e-3
-1.313, -1.353e-3
-1.312, -1.430e-3
-1.311, -1.511e-3
-1.310, -1.588e-3
-1.309, -1.659e-3
-1.308, -1.726e-3
-1.307, -1.797e-3
-1.306, -1.868e-3
-1.305, -1.936e-3
-1.304, -2.004e-3
-1.303, -2.069e-3
-1.302, -2.136e-3
-1.301, -2.207e-3
-1.300, -2.281e-3
-1.299, -2.352e-3
-1.298, -2.429e-3
-1.297, -2.500e-3
-1.296, -2.568e-3
-1.295, -2.639e-3
-1.294, -2.707e-3
-1.293, -2.768e-3
-1.292, -2.830e-3
-1.291, -2.892e-3
-1.290, -2.947e-3
-1.289, -3.009e-3
-1.288, -3.064e-3
-1.287, -3.126e-3
-1.286, -3.194e-3
-1.285, -3.256e-3
-1.284, -3.320e-3
-1.283, -3.385e-3
-1.282, -3.450e-3
-1.281, -3.512e-3
-1.280, -3.576e-3
-1.279, -3.635e-3
-1.278, -3.693e-3
-1.277, -3.749e-3
-1.276, -3.804e-3
-1.275, -3.857e-3
-1.274, -3.912e-3
-1.273, -3.968e-3
-1.272, -4.026e-3
-1.271, -4.085e-3
-1.270, -4.144e-3
-1.269, -4.202e-3
-1.268, -4.267e-3
-1.267, -4.322e-3
-1.266, -4.378e-3
-1.265, -4.433e-3
-1.264, -4.483e-3
-1.263, -4.532e-3
-1.262, -4.578e-3
-1.261, -4.628e-3
-1.260, -4.674e-3
-1.259, -4.720e-3
-1.258, -4.772e-3
-1.257, -4.825e-3
-1.256, -4.877e-3
-1.255, -4.933e-3
-1.254, -4.991e-3
-1.253, -5.047e-3
-1.252, -5.102e-3
-1.251, -5.155e-3
-1.250, -5.207e-3
-1.249, -5.257e-3
-1.248, -5.306e-3
-1.247, -5.352e-3
-1.246, -5.398e-3
-1.245, -5.442e-3
-1.244, -5.491e-3
-1.243, -5.537e-3
-1.242, -5.586e-3
-1.241, -5.639e-3
-1.240, -5.691e-3
-1.239, -5.744e-3
-1.238, -5.799e-3
-1.237, -5.852e-3
-1.236, -5.901e-3
-1.235, -5.953e-3
-1.234, -6.000e-3
-1.233, -6.043e-3
-1.232, -6.089e-3
-1.231, -6.132e-3
-1.230, -6.172e-3
-1.229, -6.218e-3
-1.228, -6.268e-3
-1.227, -6.317e-3
-1.226, -6.370e-3
-1.225, -6.419e-3
-1.224, -6.468e-3
-1.223, -6.524e-3
-1.222, -6.576e-3
-1.221, -6.629e-3
-1.220, -6.681e-3
-1.219, -6.727e-3
-1.218, -6.773e-3
-1.217, -6.820e-3
-1.216, -6.863e-3
-1.215, -6.906e-3
-1.214, -6.952e-3
-1.213, -6.999e-3
-1.212, -7.051e-3
-1.211, -7.100e-3
-1.210, -7.153e-3
-1.209, -7.202e-3
-1.208, -7.257e-3
-1.207, -7.307e-3
-1.206, -7.356e-3
-1.205, -7.405e-3
-1.204, -7.452e-3
-1.203, -7.498e-3
-1.202, -7.544e-3
-1.201, -7.587e-3
-1.200, -7.634e-3
-1.199, -7.677e-3
-1.198, -7.726e-3
-1.197, -7.772e-3
-1.196, -7.825e-3
-1.195, -7.877e-3
-1.194, -7.933e-3
-1.193, -7.988e-3
-1.192, -8.041e-3
-1.191, -8.093e-3
-1.190, -8.145e-3
-1.189, -8.195e-3
-1.188, -8.241e-3
-1.187, -8.287e-3
-1.186, -8.333e-3
-1.185, -8.377e-3
-1.184, -8.423e-3
-1.183, -8.469e-3
-1.182, -8.518e-3
-1.181, -8.571e-3
-1.180, -8.623e-3
-1.179, -8.679e-3
-1.178, -8.737e-3
-1.177, -8.790e-3
-1.176, -8.842e-3
-1.175, -8.895e-3
-1.174, -8.941e-3
-1.173, -8.990e-3
-1.172, -9.036e-3
-1.171, -9.080e-3
-1.170, -9.126e-3
-1.169, -9.172e-3
-1.168, -9.221e-3
-1.167, -9.274e-3
-1.166, -9.329e-3
-1.165, -9.385e-3
-1.164, -9.443e-3
-1.163, -9.499e-3
-1.162, -9.554e-3
-1.161, -9.607e-3
-1.160, -9.662e-3
-1.159, -9.712e-3
-1.158, -9.761e-3
-1.157, -9.804e-3
-1.156, -9.853e-3
-1.155, -9.897e-3
-1.154, -9.946e-3
-1.153, -9.995e-3
-1.152, -1.004e-2
-1.151, -1.010e-2
-1.150, -1.015e-2
-1.149, -1.020e-2
-1.148, -1.027e-2
-1.147, -1.032e-2
-1.146, -1.037e-2
-1.145, -1.042e-2
-1.144, -1.047e-2
-1.143, -1.052e-2
-1.142, -1.057e-2
-1.141, -1.061e-2
-1.140, -1.066e-2
-1.139, -1.071e-2
-1.138, -1.075e-2
-1.137, -1.081e-2
-1.136, -1.086e-2
-1.135, -1.091e-2
-1.134, -1.096e-2
-1.133, -1.102e-2
-1.132, -1.107e-2
-1.131, -1.113e-2
-1.130, -1.118e-2
-1.129, -1.123e-2
-1.128, -1.127e-2
-1.127, -1.132e-2
-1.126, -1.137e-2
-1.125, -1.141e-2
-1.124, -1.146e-2
-1.123, -1.150e-2
-1.122, -1.155e-2
-1.121, -1.160e-2
-1.120, -1.165e-2
-1.119, -1.170e-2
-1.118, -1.176e-2
-1.117, -1.181e-2
-1.116, -1.186e-2
-1.115, -1.191e-2
-1.114, -1.196e-2
-1.113, -1.201e-2
-1.112, -1.205e-2
-1.111, -1.210e-2
-1.110, -1.214e-2
-1.109, -1.218e-2
-1.108, -1.223e-2
-1.107, -1.227e-2
-1.106, -1.232e-2
-1.105, -1.237e-2
-1.104, -1.242e-2
-1.103, -1.248e-2
-1.102, -1.253e-2
-1.101, -1.258e-2
-1.100, -1.263e-2
-1.099, -1.268e-2
-1.098, -1.273e-2
-1.097, -1.277e-2
-1.096, -1.281e-2
-1.095, -1.285e-2
-1.094, -1.290e-2
-1.093, -1.294e-2
-1.092, -1.299e-2
-1.091, -1.304e-2
-1.090, -1.308e-2
-1.089, -1.314e-2
-1.088, -1.319e-2
-1.087, -1.324e-2
-1.086, -1.329e-2
-1.085, -1.334e-2
-1.084, -1.339e-2
-1.083, -1.344e-2
-1.082, -1.348e-2
-1.081, -1.352e-2
-1.080, -1.356e-2
-1.079, -1.361e-2
-1.078, -1.365e-2
-1.077, -1.370e-2
-1.076, -1.375e-2
-1.075, -1.379e-2
-1.074, -1.385e-2
-1.073, -1.390e-2
-1.072, -1.395e-2
-1.071, -1.400e-2
-1.070, -1.405e-2
-1.069, -1.409e-2
-1.068, -1.413e-2
-1.067, -1.417e-2
-1.066, -1.422e-2
-1.065, -1.425e-2
-1.064, -1.429e-2
-1.063, -1.433e-2
-1.062, -1.437e-2
-1.061, -1.442e-2
-1.060, -1.447e-2
-1.059, -1.452e-2
-1.058, -1.456e-2
-1.057, -1.462e-2
-1.056, -1.467e-2
-1.055, -1.472e-2
-1.054, -1.476e-2
-1.053, -1.480e-2
-1.052, -1.484e-2
-1.051, -1.488e-2
-1.050, -1.491e-2
-1.049, -1.495e-2
-1.048, -1.499e-2
-1.047, -1.503e-2
-1.046, -1.508e-2
-1.045, -1.512e-2
-1.044, -1.516e-2
-1.043, -1.521e-2
-1.042, -1.526e-2
-1.041, -1.530e-2
-1.040, -1.534e-2
-1.039, -1.538e-2
-1.038, -1.542e-2
-1.037, -1.546e-2
-1.036, -1.551e-2
-1.035, -1.555e-2
-1.034, -1.560e-2
-1.033, -1.564e-2
-1.032, -1.569e-2
-1.031, -1.574e-2
-1.030, -1.578e-2
-1.029, -1.583e-2
-1.028, -1.587e-2
-1.027, -1.591e-2
-1.026, -1.595e-2
-1.025, -1.599e-2
-1.024, -1.602e-2
-1.023, -1.606e-2
-1.022, -1.610e-2
-1.021, -1.613e-2
-1.020, -1.617e-2
-1.019, -1.621e-2
-1.018, -1.625e-2
-1.017, -1.630e-2
-1.016, -1.634e-2
-1.015, -1.639e-2
-1.014, -1.644e-2
-1.013, -1.649e-2
-1.012, -1.653e-2
-1.011, -1.658e-2
-1.010, -1.662e-2
-1.009, -1.666e-2
-1.008, -1.671e-2
-1.007, -1.675e-2
-1.006, -1.679e-2
-1.005, -1.682e-2
-1.004, -1.686e-2
-1.003, -1.690e-2
-1.002, -1.694e-2
-1.001, -1.698e-2
