Potential V vs RHE, Current mA cm-2
0.013299999999999867,15.406206055530248
0.012299999999999978,13.743920278188831
0.011299999999999866,12.300914752326493
0.010299999999999976,11.058798231044992
0.009299999999999864,9.942591015451477
0.008299999999999974,8.919754745649056
0.007299999999999862,7.913895011445016
0.006299999999999972,6.971697285734901
0.00529999999999986,6.110138104117093
0.0042999999999999705,5.329217466591594
0.0032999999999998586,4.552540962965688
0.0022999999999999687,3.781523304539243
0.0012999999999998568,3.0274821817111786
0.00029999999999996696,2.348420757775961
-0.000700000000000145,1.7160448067362895
-0.0017000000000000348,1.0883374029861725
-0.0027000000000001467,0.4630350084458265
-0.0037000000000000366,-0.16014531914472213
-0.0047000000000001485,-0.7420160767792118
-0.005700000000000038,-1.2715425163186949
-0.00670000000000015,-1.8009274847281918
-0.00770000000000004,-2.3257853769781205
-0.008700000000000152,-2.8619609596269693
-0.009700000000000042,-3.3415480902812167
-0.010700000000000154,-3.7970851288377587
-0.011700000000000044,-4.251207456094435
-0.012700000000000156,-4.718062185049897
-0.013700000000000045,-5.166525667107114
-0.014700000000000157,-5.585280211867165
-0.015700000000000047,-5.951690438532209
-0.01670000000000016,-6.328003644296309
-0.01770000000000005,-6.7283669421581145
-0.01870000000000016,-7.111753704421539
-0.01970000000000005,-7.472505085887125
-0.020700000000000163,-7.802132818755678
-0.021700000000000053,-8.13741939682369
-0.022700000000000164,-8.512317891287925
-0.023700000000000054,-8.85609273715513
-0.024700000000000166,-9.180061624824223
-0.025700000000000056,-9.453100905698175
-0.026700000000000168,-9.728969609171857
-0.027700000000000058,-10.040206095142164
-0.02870000000000017,-10.35285729241234
-0.02970000000000006,-10.62589657328629
-0.03070000000000017,-10.867812205563212
-0.03170000000000006,-11.113971971739728
-0.03270000000000017,-11.484626332304368
-0.03370000000000006,-11.74917734537913
-0.034700000000000175,-11.938748659561044
-0.035700000000000065,-12.167931890139181
-0.03670000000000018,-12.394285698117587
-0.03770000000000007,-12.641860175593967
-0.03870000000000018,-12.902167054769135
-0.03970000000000007,-13.139838553146461
-0.04070000000000018,-13.34780111422662
-0.04170000000000007,-13.581228478704354
-0.04270000000000018,-13.831632378780464
-0.04370000000000007,-14.065059743258194
-0.044700000000000184,-14.26028990263957
-0.045700000000000074,-14.430055258623375
-0.046700000000000186,-14.61396772760583
-0.047700000000000076,-14.826174422585586
-0.04870000000000019,-15.05252823056399
-0.04970000000000008,-15.236440699546446
-0.05070000000000019,-15.406206055530248
-0.05170000000000008,-15.575971411514052
-0.05270000000000019,-15.78817810649381
-0.05370000000000008,-16.000384801473565
-0.05470000000000019,-16.15600304445872
-0.05570000000000008,-16.28332706144657
-0.056700000000000195,-16.438945304431726
-0.057700000000000085,-16.651151999411482
-0.058700000000000196,-16.835064468393938
-0.059700000000000086,-17.018976937376394
-0.0607000000000002,-17.132153841365596
-0.06170000000000009,-17.301919197349395
-0.0627000000000002,-17.528273005327804
-0.06370000000000009,-17.71218547431026
-0.0647000000000002,-17.881950830294063
-0.06570000000000009,-18.009274847281915
-0.0667000000000002,-18.15074597726842
-0.0677000000000001,-18.292217107254928
-0.0687000000000002,-18.44783535024008
-0.0697000000000001,-18.617600706223882
-0.07070000000000021,-18.744924723211735
-0.0717000000000001,-18.88639585319824
-0.07270000000000021,-19.070308322180697
-0.0737000000000001,-19.2400736781645
-0.07470000000000021,-19.395691921149652
-0.0757000000000001,-19.508868825138855
-0.07670000000000021,-19.65033995512536
-0.0777000000000001,-19.834252424107817
-0.07870000000000021,-19.98987066709297
-0.0797000000000001,-20.117194684080822
-0.08070000000000022,-20.21622447507137
-0.0817000000000001,-20.357695605057877
-0.08270000000000022,-20.52746096104168
-0.08370000000000011,-20.69722631702549
-0.08470000000000022,-20.824550334013338
-0.08570000000000011,-20.923580125003895
-0.08670000000000022,-21.036757028993097
-0.08770000000000011,-21.2065223849769
-0.08870000000000022,-21.362140627962056
-0.08970000000000011,-21.54605309694451
-0.09070000000000022,-21.67337711393236
-0.09170000000000011,-21.857289582914817
-0.09270000000000023,-22.027054938898623
-0.09370000000000012,-22.15437895588647
-0.09470000000000023,-22.210967407881075
-0.09570000000000012,-22.295850085872978
-0.09670000000000023,-22.40902698986218
-0.09770000000000012,-22.564645232847337
-0.09870000000000023,-22.734410588831135
-0.09970000000000012,-22.932470170812245
-0.10070000000000023,-22.974911509808198
-0.10170000000000012,-23.059794187800097
-0.10270000000000024,-23.1163826397947
-0.10370000000000013,-23.257853769781203
-0.10470000000000024,-23.44176623876366
-0.10570000000000013,-23.51250180375691
-0.10670000000000024,-23.639825820744765
-0.10770000000000013,-23.781296950731264
-0.10870000000000024,-23.951062306715073
-0.10970000000000013,-24.106680549700226
-0.11070000000000024,-24.21985745368943
-0.11170000000000013,-24.36132858367593
-0.11270000000000002,-24.488652600663784
-0.11370000000000013,-24.630123730650286
-0.11470000000000002,-24.757447747638142
-0.11570000000000014,-24.884771764625995
-0.11670000000000003,-24.983801555616548
-0.11770000000000014,-25.09697845960575
-0.11870000000000003,-25.238449589592253
-0.11970000000000014,-25.36577360658011
-0.12070000000000003,-25.49309762356796
-0.12170000000000014,-25.620421640555815
-0.12270000000000003,-25.761892770542314
-0.12370000000000014,-25.91751101352747
-0.12470000000000003,-26.044835030515326
-0.12570000000000014,-26.14386482150588
-0.12670000000000003,-26.29948306449103
-0.12770000000000015,-26.469248420474838
-0.12870000000000004,-26.62486666345999
-0.12970000000000015,-26.752190680447846
-0.13070000000000004,-26.86536758443705
-0.13170000000000015,-26.992691601424898
-0.13270000000000004,-27.162456957408708
-0.13370000000000015,-27.303928087395207
-0.13470000000000004,-27.43125210438306
-0.13570000000000015,-27.544429008372262
-0.13670000000000004,-27.700047251357418
-0.13770000000000016,-27.869812607341224
-0.13870000000000005,-28.039577963325023
-0.13970000000000016,-28.18104909331153
-0.14070000000000005,-28.280078884302082
-0.14170000000000016,-28.421550014288584
-0.14270000000000005,-28.577168257273744
-0.14370000000000016,-28.732786500258893
-0.14470000000000005,-28.86011051724675
-0.14570000000000016,-29.015728760231898
-0.14670000000000005,-29.171347003217054
-0.14770000000000016,-29.32696524620221
-0.14870000000000005,-29.496730602186016
-0.14970000000000017,-29.62405461917387
-0.15070000000000006,-29.73723152316307
-0.15170000000000017,-29.850408427152274
-0.15270000000000006,-30.03432089613473
-0.15370000000000017,-30.204086252118536
-0.15470000000000006,-30.317263156107735
-0.15570000000000017,-30.47288139909289
-0.15670000000000006,-30.614352529079397
-0.15770000000000017,-30.82655922405915
-0.15870000000000006,-31.010471693041605
-0.15970000000000018,-31.12364859703081
-0.16070000000000007,-31.22267838802136
-0.16170000000000018,-31.420737970002463
-0.16270000000000007,-31.604650438984915
-0.16370000000000018,-31.77441579496872
-0.16470000000000007,-31.915886924955227
-0.16570000000000018,-32.02906382894443
-0.16670000000000007,-32.170534958930936
-0.16770000000000018,-32.340300314914735
-0.16870000000000007,-32.58080123589179
-0.16970000000000018,-32.7222723658783
-0.17070000000000007,-32.79300793087155
-0.17170000000000019,-32.9486261738567
-0.17270000000000008,-33.11839152984051
-0.1737000000000002,-33.25986265982701
-0.17470000000000008,-33.44377512880947
-0.1757000000000002,-33.59939337179462
-0.17670000000000008,-33.740864501781125
-0.1777000000000002,-33.95307119676088
-0.17870000000000008,-34.179425004739294
-0.1797000000000002,-34.33504324772444
-0.18070000000000008,-34.43407303871499
-0.1817000000000002,-34.5472499427042
-0.18270000000000008,-34.6887210726907
-0.1837000000000002,-34.81604508967855
-0.1847000000000001,-34.98581044566235
-0.1857000000000002,-35.15557580164616
-0.1867000000000001,-35.297046931632664
-0.1877000000000002,-35.43851806161916
-0.1887000000000001,-35.608283417602976
-0.1897000000000002,-35.79219588658543
-0.1907000000000001,-35.91951990357328
-0.1917000000000001,-36.00440258156518
-0.19269999999999998,-36.20246216354629
-0.1937000000000001,-36.37222751953009
-0.19469999999999998,-36.55613998851254
-0.1957000000000001,-36.768346683492304
-0.19669999999999999,-36.96640626547341
-0.1977000000000001,-37.06543605646396
-0.1987,-37.235201412447765
-0.1997000000000001,-37.305936977441014
-0.2007,-37.46155522042617
-0.2017000000000001,-37.645467689408626
-0.2027,-37.744497480399176
-0.2037000000000001,-37.84352727138973
-0.2047,-37.95670417537893
-0.2057000000000001,-38.08402819236679
-0.2067,-38.197205096355994
-0.2077000000000001,-38.38111756533845
-0.2087,-38.63576559931415
-0.2097000000000001,-38.791383842299304
-0.2107,-38.96114919828311
-0.2117000000000001,-38.93285497228581
-0.2127,-39.01773765027771
-0.2137000000000001,-39.00359053727906
-0.2147,-39.258238571254765
-0.2157000000000001,-39.37141547524397
-0.2167,-39.55532794422642
-0.21770000000000012,-39.68265196121428
-0.2187,-39.80997597820213
-0.21970000000000012,-39.93729999518999
-0.2207,-40.00803556018324
-0.22170000000000012,-40.07877112517649
-0.2227,-40.20609514216434
-0.22370000000000012,-40.29097782015624
-0.2247,-40.4465960631414
-0.22570000000000012,-40.531478741133306
-0.2267,-40.545625854131956
-0.22770000000000012,-40.729538323114404
-0.22870000000000001,-40.88515656609956
-0.22970000000000013,-41.02662769608606
-0.23070000000000002,-41.139804600075266
-0.23170000000000013,-41.12565748707661
-0.23270000000000002,-41.23883439106582
-0.23370000000000013,-41.36615840805367
-0.23470000000000002,-41.45104108604558
-0.23570000000000013,-41.57836510303343
-0.23670000000000002,-41.70568912002128
-0.2376999999999999,-41.88960158900374
-0.23870000000000002,-41.90374870200238
-0.2396999999999999,-41.94619004099834
-0.24070000000000003,-42.03107271899024
-0.24169999999999991,-42.115955396982145
-0.24270000000000003,-42.243279413969994
-0.24369999999999992,-42.29986786596459
-0.24470000000000003,-42.243279413969994
-0.24569999999999992,-42.3281620919619
-0.24670000000000003,-42.42719188295245
-0.24769999999999992,-42.582810125937606
-0.24870000000000003,-42.667692803929505
-0.24969999999999992,-42.695987029926805
-0.25070000000000003,-42.681839916928155
-0.2516999999999999,-42.72428125592411
-0.25270000000000004,-42.752575481921404
-0.2536999999999999,-42.837458159913304
-0.25470000000000004,-42.87989949890926
-0.2556999999999999,-42.87989949890926
-0.25670000000000004,-42.92234083790521
-0.25769999999999993,-43.02137062889577
-0.25870000000000004,-43.04966485489307
-0.25969999999999993,-43.06381196789171
-0.26070000000000004,-43.03551774189442
-0.26169999999999993,-43.04966485489307
-0.26270000000000004,-43.120400419886316
-0.26369999999999993,-43.17698887188092
-0.26470000000000005,-43.148694645883616
-0.26569999999999994,-43.120400419886316
-0.26670000000000005,-43.19113598487957
-0.26769999999999994,-43.17698887188092
-0.26870000000000005,-43.16284175888227
-0.26969999999999994,-43.120400419886316
-0.27070000000000005,-43.106253306887666
-0.27169999999999994,-43.04966485489307
-0.27270000000000005,-43.16284175888227
-0.27369999999999994,-43.148694645883616
-0.27470000000000006,-43.120400419886316
-0.27569999999999995,-43.09210619388902
-0.27670000000000006,-43.06381196789171
-0.27769999999999995,-43.120400419886316
-0.27870000000000006,-43.120400419886316
-0.27969999999999995,-43.04966485489307
-0.28070000000000006,-42.96478217690117
-0.28169999999999995,-42.90819372490656
-0.28270000000000006,-42.80916393391601
-0.28369999999999995,-42.752575481921404
-0.28470000000000006,-42.79501682091736
-0.28569999999999995,-42.79501682091736
-0.28670000000000007,-42.695987029926805
-0.28769999999999996,-42.653545690930855
-0.28870000000000007,-42.540368786941656
-0.28969999999999996,-42.497927447945706
-0.29070000000000007,-42.3564563179592
-0.29169999999999996,-42.214985187972694
-0.29270000000000007,-42.130102509980794
-0.29369999999999996,-42.115955396982145
-0.2947000000000001,-41.83301313700913
-0.29569999999999996,-41.79057179801318
-0.2967000000000001,-41.719836233019926
-0.29769999999999996,-41.57836510303343
-0.2987000000000001,-41.42274686004827
-0.29969999999999997,-41.677394894023976
-0.3007000000000001,-41.69154200702263
-0.30169999999999997,-41.45104108604558
-0.3027000000000001,-41.25298150406447
-0.30369999999999997,-41.12565748707661
-0.3047000000000001,-40.701244097117105
-0.30569999999999997,-40.43244895014274
-0.3067000000000001,-40.26268359415894
-0.3077,-40.30512493315489
-0.3087000000000001,-40.26268359415894
-0.3097,-40.163653803168394
-0.3107000000000001,-40.00803556018324
-0.3117,-39.79582886520348
-0.3127000000000001,-39.66850484821563
-0.3137,-39.49873949223183
-0.3147000000000001,-39.28653279725207
-0.3157,-39.01773765027771
-0.3167000000000001,-38.83382518129526
-0.3177,-38.706501164307404
-0.3187000000000001,-38.607471373316855
-0.3197,-38.4518531303317
-0.3207000000000001,-38.253793548350586
-0.3217,-38.05573396636949
-0.3227000000000001,-37.94255706238028
-0.3237,-37.758644593397825
-0.3247000000000001,-37.57473212441538
-0.3257,-37.36252542943562
-0.3267000000000001,-37.221054299449115
-0.3277,-37.05128894346531
-0.3287000000000001,-36.89567070048016
-0.3297,-36.725905344496354
-0.3307000000000001,-36.54199287551389
-0.3317,-36.38637463252874
-0.3327000000000001,-36.25905061554089
-0.3337,-36.11757948555439
-0.3347000000000001,-35.94781412957058
-0.3357,-35.848784338580025
-0.3367000000000001,-35.778048773586775
-0.3377,-36.04684392056114
-0.3387000000000001,-36.04684392056114
-0.3397,-35.82049011258273
-0.3407000000000001,-35.48095940061512
-0.3417,-35.45266517461782
-0.3427000000000001,-35.48095940061512
-0.3437,-35.282899818634014
-0.3447000000000001,-35.226311366639415
-0.3457,-35.02825178465831
-0.3467000000000001,-34.9716633326637
-0.3477,-34.8867806546718
-0.3487000000000001,-34.87263354167316
-0.3497,-34.8018979766799
-0.3507000000000001,-34.75945663768395
-0.3517,-34.731162411686654
-0.3527000000000001,-34.7453095246853
-0.3537,-34.773603750682604
-0.3547000000000001,-34.75945663768395
-0.3557,-34.8018979766799
-0.35670000000000013,-34.773603750682604
-0.3577,-34.8301922026772
-0.35870000000000013,-34.92922199366775
-0.3597,-34.98581044566235
-0.36070000000000013,-35.198017140642115
-0.3617,-35.396076722623214
-0.3626999999999999,-35.50925362661242
-0.3637,-35.608283417602976
-0.3646999999999999,-35.679018982596226
-0.3657,-35.806342999584075
-0.3666999999999999,-35.90537279057463
-0.3677,-36.04684392056114
-0.3686999999999999,-36.244903502542236
-0.36970000000000003,-36.4288159715247
-0.3706999999999999,-36.584434214509855
-0.37170000000000003,-36.7117582314977
-0.3726999999999999,-36.83908224848555
-0.37370000000000003,-37.00884760446935
-0.3746999999999999,-37.178612960453165
-0.37570000000000003,-37.34837831643697
-0.3766999999999999,-37.617173463411326
-0.37770000000000004,-37.97085128837759
-0.3786999999999999,-38.253793548350586
-0.37970000000000004,-38.46600024333035
-0.3806999999999999,-38.63576559931415
-0.38170000000000004,-38.90456074628851
-0.38269999999999993,-39.145061667265566
-0.38370000000000004,-39.37141547524397
-0.38469999999999993,-39.654357735216976
-0.38570000000000004,-40.06462401217784
-0.38669999999999993,-40.3900076111468
-0.38770000000000004,-40.77197966211036
-0.38869999999999993,-40.91345079209687
-0.38970000000000005,-41.111510374077966
-0.39069999999999994,-41.36615840805367
-0.39170000000000005,-41.677394894023976
-0.39269999999999994,-42.115955396982145
-0.39370000000000005,-42.497927447945706
-0.39469999999999994,-42.87989949890926
-0.39570000000000005,-43.19113598487957
-0.39669999999999994,-43.643843600836384
-0.39770000000000005,-44.03996276479859
-0.39869999999999994,-44.36534636376755
-0.39970000000000006,-44.704877075735155
-0.40069999999999995,-45.00196644870681
-0.40170000000000006,-45.27076159568118
-0.40269999999999995,-45.70932209863933
-0.40370000000000006,-46.2327652795894
-0.40469999999999995,-46.65717866954891
-0.40570000000000006,-46.96841515551922
-0.40669999999999995,-47.449416997473335
-0.40770000000000006,-47.93041883942744
-0.40869999999999995,-48.4255677943802
-0.40970000000000006,-48.87827541033702
-0.41069999999999995,-49.34513013929248
-0.41170000000000007,-49.939308885235796
-0.41269999999999996,-50.491046292183164
-0.41370000000000007,-51.028636586131874
-0.41469999999999996,-51.53793265408329
-0.41570000000000007,-51.962346044042796
-0.41669999999999996,-52.55652478998611
-0.41770000000000007,-53.15070353592942
-0.41869999999999996,-53.7873236208687
-0.4197000000000001,-54.43809081880661
-0.42069999999999996,-55.07471090374588
-0.4217000000000001,-55.73962521468245
-0.42269999999999996,-56.44698086461496
-0.4237000000000001,-57.15433651454749
-0.42469999999999997,-57.87583927747865
-0.4257000000000001,-58.583194927411164
-0.42669999999999997,-59.375433255335594
-0.4277000000000001,-60.224260035254616
-0.42869999999999997,-61.07308681517363
-0.4297000000000001,-61.851178030099405
-0.43069999999999997,-62.629269245025185
-0.4317000000000001,-63.64786138092801
-0.4327,-64.60986506483623
-0.4337000000000001,-65.57186874874445
-0.4347,-66.56216665864997
-0.4357000000000001,-67.59490590755146
-0.4367,-68.67008649544888
-0.4377000000000001,-69.8018555353409
-0.4387,-70.93362457523294
-0.4397000000000001,-72.07954072812362
-0.4407,-73.2537511070116
-0.4417000000000001,-74.52699127689014
-0.4427,-75.92755546375653
-0.4437000000000001,-77.56862057159996
-0.4447,-78.8135665154812
-0.4457000000000001,-80.05851245936242
-0.4467,-81.57225355021802
-0.4477000000000001,-83.11428886707091
-0.4487,-84.6846184099211
-0.4497000000000001,-86.21250661377533
-0.4507,-87.68380636563498
-0.4517000000000001,-89.19754745649055
-0.4527,-90.92349524232591
-0.4537000000000001,-92.6352959151626
-0.4547,-94.4602734919885
-0.4557000000000001,-96.27110395581576
-0.4567,-98.08193441964299
-0.4577000000000001,-100.02008890045809
-0.4587,-101.95824338127319
-0.4597000000000001,-103.59930848911664
-0.4607,-105.39599183994524
-0.4617000000000001,-107.09364539978327
-0.4627,-108.94691720260647
-0.4637000000000001,-110.70115921443913
-0.4647,-112.46954833927042
-0.4657000000000001,-114.1530547861098
-0.4667,-116.00632658893302
-0.4677000000000001,-117.77471571376431
-0.4687,-119.5996932905902
-0.4697000000000001,-120.87293346046872
-0.4707,-122.69791103729463
-0.4717000000000001,-124.09847522416102
-0.4727,-126.05077681797478
-0.4737000000000001,-127.57866502182902
-0.4747,-128.9792292086954
-0.4757000000000001,-130.30905783056855
-0.4767,-131.6530335654403
-0.4777000000000001,-133.0253035263094
-0.4787,-134.46830905217172
-0.4797000000000001,-135.79813767404485
-0.4807,-138.42950069179386
-0.48170000000000013,-139.73103508766968
-0.4827,-140.4949791895968
-0.48370000000000013,-141.07501082254146
-0.4847,-142.6028990263957
-0.48570000000000013,-143.4517258063147
-0.4867,-143.5931969363012
-0.48570000000000013,-142.03701450644968
-0.4847,-140.5515676415914
-0.48370000000000013,-139.2641803587142
-0.4827,-137.65140947686808
-0.48170000000000013,-136.29328662899763
-0.4807,-135.1615175891056
-0.4797000000000001,-133.84583608023112
-0.4787,-132.26135942438228
-0.4777000000000001,-130.6061472035402
-0.4767,-129.41778971165354
-0.4757000000000001,-128.15869665477368
-0.4747,-126.74398535490863
-0.4737000000000001,-124.97559623007734
-0.4727,-123.56088493021231
-0.4717000000000001,-122.2452034213378
-0.4707,-120.90122768646604
-0.4697000000000001,-119.72701730757805
-0.4687,-118.12839353873056
-0.4677000000000001,-116.75612357786147
-0.4667,-115.31311805199914
-0.4657000000000001,-113.78522984814491
-0.4647,-112.72419637324612
-0.4637000000000001,-111.52169176836084
