July 13, 2024   20:38:51
Cyclic Voltammetry
File: c:/users/guazh/data/20240709_batch67/2024-07-10-exp35\exp35-2024-07-13t20_17_43-arkoh\exp35_cv_sr_700mvs_efin_-1800mv.bin
Data Source:  Experiment
Instrument Model:  CHI760E
Header: CV ran at 700 mVs
Note: 

Init E (V) = -1
High E (V) = -1
Low E (V) = -1.8
Final E (V) = -1
Init P/N = N
Scan Rate (V/s) = 0.7
Segment = 3
Sample Interval (V) = 0.001
Quiet Time (sec) = 2
Sensitivity (A/V) = 0.01
Comp R (ohm) = 1.8

Results:

Channel 1:
Segment 1:

Segment 2:
Ep = -1.144V
ip = -1.777e-4A
Ah = -2.151e-5C

Segment 3:

Potential/V, Current/A

-1.000, 9.405e-6
-1.001, 4.024e-5
-1.002, 6.490e-5
-1.003, 8.340e-5
-1.004, 1.019e-4
-1.005, 1.142e-4
-1.006, 1.235e-4
-1.007, 1.327e-4
-1.008, 1.389e-4
-1.009, 1.451e-4
-1.010, 1.512e-4
-1.011, 1.605e-4
-1.012, 1.666e-4
-1.013, 1.728e-4
-1.014, 1.790e-4
-1.015, 1.821e-4
-1.016, 1.851e-4
-1.017, 1.851e-4
-1.018, 1.882e-4
-1.019, 1.882e-4
-1.020, 1.882e-4
-1.021, 1.913e-4
-1.022, 1.913e-4
-1.023, 1.944e-4
-1.024, 1.975e-4
-1.025, 2.006e-4
-1.026, 2.036e-4
-1.027, 2.036e-4
-1.028, 2.036e-4
-1.029, 2.036e-4
-1.030, 2.036e-4
-1.031, 2.036e-4
-1.032, 2.036e-4
-1.033, 2.036e-4
-1.034, 2.036e-4
-1.035, 2.067e-4
-1.036, 2.098e-4
-1.037, 2.129e-4
-1.038, 2.129e-4
-1.039, 2.160e-4
-1.040, 2.129e-4
-1.041, 2.129e-4
-1.042, 2.129e-4
-1.043, 2.098e-4
-1.044, 2.098e-4
-1.045, 2.067e-4
-1.046, 2.098e-4
-1.047, 2.129e-4
-1.048, 2.129e-4
-1.049, 2.160e-4
-1.050, 2.191e-4
-1.051, 2.191e-4
-1.052, 2.191e-4
-1.053, 2.221e-4
-1.054, 2.191e-4
-1.055, 2.191e-4
-1.056, 2.191e-4
-1.057, 2.221e-4
-1.058, 2.221e-4
-1.059, 2.252e-4
-1.060, 2.252e-4
-1.061, 2.252e-4
-1.062, 2.283e-4
-1.063, 2.283e-4
-1.064, 2.283e-4
-1.065, 2.283e-4
-1.066, 2.252e-4
-1.067, 2.252e-4
-1.068, 2.283e-4
-1.069, 2.283e-4
-1.070, 2.283e-4
-1.071, 2.314e-4
-1.072, 2.345e-4
-1.073, 2.345e-4
-1.074, 2.345e-4
-1.075, 2.345e-4
-1.076, 2.345e-4
-1.077, 2.314e-4
-1.078, 2.345e-4
-1.079, 2.314e-4
-1.080, 2.314e-4
-1.081, 2.314e-4
-1.082, 2.345e-4
-1.083, 2.345e-4
-1.084, 2.376e-4
-1.085, 2.376e-4
-1.086, 2.376e-4
-1.087, 2.376e-4
-1.088, 2.345e-4
-1.089, 2.345e-4
-1.090, 2.314e-4
-1.091, 2.345e-4
-1.092, 2.345e-4
-1.093, 2.345e-4
-1.094, 2.345e-4
-1.095, 2.376e-4
-1.096, 2.406e-4
-1.097, 2.406e-4
-1.098, 2.437e-4
-1.099, 2.406e-4
-1.100, 2.376e-4
-1.101, 2.376e-4
-1.102, 2.376e-4
-1.103, 2.376e-4
-1.104, 2.376e-4
-1.105, 2.376e-4
-1.106, 2.406e-4
-1.107, 2.437e-4
-1.108, 2.437e-4
-1.109, 2.437e-4
-1.110, 2.437e-4
-1.111, 2.437e-4
-1.112, 2.406e-4
-1.113, 2.376e-4
-1.114, 2.376e-4
-1.115, 2.376e-4
-1.116, 2.406e-4
-1.117, 2.406e-4
-1.118, 2.437e-4
-1.119, 2.437e-4
-1.120, 2.468e-4
-1.121, 2.468e-4
-1.122, 2.437e-4
-1.123, 2.437e-4
-1.124, 2.437e-4
-1.125, 2.437e-4
-1.126, 2.437e-4
-1.127, 2.437e-4
-1.128, 2.437e-4
-1.129, 2.468e-4
-1.130, 2.499e-4
-1.131, 2.499e-4
-1.132, 2.499e-4
-1.133, 2.499e-4
-1.134, 2.499e-4
-1.135, 2.499e-4
-1.136, 2.468e-4
-1.137, 2.468e-4
-1.138, 2.468e-4
-1.139, 2.468e-4
-1.140, 2.468e-4
-1.141, 2.499e-4
-1.142, 2.499e-4
-1.143, 2.499e-4
-1.144, 2.499e-4
-1.145, 2.468e-4
-1.146, 2.468e-4
-1.147, 2.468e-4
-1.148, 2.437e-4
-1.149, 2.437e-4
-1.150, 2.437e-4
-1.151, 2.468e-4
-1.152, 2.468e-4
-1.153, 2.499e-4
-1.154, 2.530e-4
-1.155, 2.530e-4
-1.156, 2.530e-4
-1.157, 2.499e-4
-1.158, 2.499e-4
-1.159, 2.499e-4
-1.160, 2.468e-4
-1.161, 2.468e-4
-1.162, 2.468e-4
-1.163, 2.468e-4
-1.164, 2.499e-4
-1.165, 2.499e-4
-1.166, 2.530e-4
-1.167, 2.530e-4
-1.168, 2.530e-4
-1.169, 2.530e-4
-1.170, 2.499e-4
-1.171, 2.499e-4
-1.172, 2.468e-4
-1.173, 2.468e-4
-1.174, 2.468e-4
-1.175, 2.468e-4
-1.176, 2.499e-4
-1.177, 2.499e-4
-1.178, 2.499e-4
-1.179, 2.530e-4
-1.180, 2.530e-4
-1.181, 2.499e-4
-1.182, 2.499e-4
-1.183, 2.499e-4
-1.184, 2.468e-4
-1.185, 2.499e-4
-1.186, 2.499e-4
-1.187, 2.499e-4
-1.188, 2.530e-4
-1.189, 2.561e-4
-1.190, 2.561e-4
-1.191, 2.561e-4
-1.192, 2.561e-4
-1.193, 2.561e-4
-1.194, 2.530e-4
-1.195, 2.499e-4
-1.196, 2.499e-4
-1.197, 2.499e-4
-1.198, 2.530e-4
-1.199, 2.530e-4
-1.200, 2.561e-4
-1.201, 2.561e-4
-1.202, 2.561e-4
-1.203, 2.561e-4
-1.204, 2.561e-4
-1.205, 2.561e-4
-1.206, 2.530e-4
-1.207, 2.530e-4
-1.208, 2.530e-4
-1.209, 2.530e-4
-1.210, 2.530e-4
-1.211, 2.561e-4
-1.212, 2.591e-4
-1.213, 2.591e-4
-1.214, 2.622e-4
-1.215, 2.591e-4
-1.216, 2.591e-4
-1.217, 2.561e-4
-1.218, 2.561e-4
-1.219, 2.561e-4
-1.220, 2.561e-4
-1.221, 2.561e-4
-1.222, 2.591e-4
-1.223, 2.591e-4
-1.224, 2.622e-4
-1.225, 2.622e-4
-1.226, 2.622e-4
-1.227, 2.622e-4
-1.228, 2.622e-4
-1.229, 2.622e-4
-1.230, 2.622e-4
-1.231, 2.622e-4
-1.232, 2.622e-4
-1.233, 2.622e-4
-1.234, 2.653e-4
-1.235, 2.684e-4
-1.236, 2.715e-4
-1.237, 2.715e-4
-1.238, 2.715e-4
-1.239, 2.715e-4
-1.240, 2.715e-4
-1.241, 2.684e-4
-1.242, 2.684e-4
-1.243, 2.684e-4
-1.244, 2.715e-4
-1.245, 2.746e-4
-1.246, 2.746e-4
-1.247, 2.776e-4
-1.248, 2.807e-4
-1.249, 2.807e-4
-1.250, 2.838e-4
-1.251, 2.807e-4
-1.252, 2.838e-4
-1.253, 2.807e-4
-1.254, 2.807e-4
-1.255, 2.807e-4
-1.256, 2.838e-4
-1.257, 2.838e-4
-1.258, 2.869e-4
-1.259, 2.900e-4
-1.260, 2.900e-4
-1.261, 2.931e-4
-1.262, 2.900e-4
-1.263, 2.931e-4
-1.264, 2.900e-4
-1.265, 2.900e-4
-1.266, 2.900e-4
-1.267, 2.900e-4
-1.268, 2.931e-4
-1.269, 2.961e-4
-1.270, 2.992e-4
-1.271, 2.992e-4
-1.272, 2.992e-4
-1.273, 3.023e-4
-1.274, 2.992e-4
-1.275, 2.992e-4
-1.276, 2.992e-4
-1.277, 2.992e-4
-1.278, 2.992e-4
-1.279, 2.992e-4
-1.280, 3.023e-4
-1.281, 3.054e-4
-1.282, 3.054e-4
-1.283, 3.085e-4
-1.284, 3.085e-4
-1.285, 3.085e-4
-1.286, 3.085e-4
-1.287, 3.054e-4
-1.288, 3.054e-4
-1.289, 3.054e-4
-1.290, 3.023e-4
-1.291, 3.054e-4
-1.292, 3.085e-4
-1.293, 3.085e-4
-1.294, 3.115e-4
-1.295, 3.115e-4
-1.296, 3.115e-4
-1.297, 3.115e-4
-1.298, 3.146e-4
-1.299, 3.115e-4
-1.300, 3.085e-4
-1.301, 3.085e-4
-1.302, 3.085e-4
-1.303, 3.085e-4
-1.304, 3.085e-4
-1.305, 3.115e-4
-1.306, 3.115e-4
-1.307, 3.115e-4
-1.308, 3.146e-4
-1.309, 3.115e-4
-1.310, 3.115e-4
-1.311, 3.085e-4
-1.312, 3.085e-4
-1.313, 3.085e-4
-1.314, 3.085e-4
-1.315, 3.115e-4
-1.316, 3.146e-4
-1.317, 3.146e-4
-1.318, 3.146e-4
-1.319, 3.146e-4
-1.320, 3.146e-4
-1.321, 3.115e-4
-1.322, 3.115e-4
-1.323, 3.085e-4
-1.324, 3.085e-4
-1.325, 3.085e-4
-1.326, 3.085e-4
-1.327, 3.115e-4
-1.328, 3.146e-4
-1.329, 3.146e-4
-1.330, 3.146e-4
-1.331, 3.146e-4
-1.332, 3.146e-4
-1.333, 3.115e-4
-1.334, 3.115e-4
-1.335, 3.115e-4
-1.336, 3.085e-4
-1.337, 3.085e-4
-1.338, 3.085e-4
-1.339, 3.115e-4
-1.340, 3.146e-4
-1.341, 3.146e-4
-1.342, 3.146e-4
-1.343, 3.146e-4
-1.344, 3.115e-4
-1.345, 3.115e-4
-1.346, 3.115e-4
-1.347, 3.115e-4
-1.348, 3.085e-4
-1.349, 3.085e-4
-1.350, 3.115e-4
-1.351, 3.115e-4
-1.352, 3.146e-4
-1.353, 3.146e-4
-1.354, 3.146e-4
-1.355, 3.146e-4
-1.356, 3.115e-4
-1.357, 3.115e-4
-1.358, 3.085e-4
-1.359, 3.085e-4
-1.360, 3.085e-4
-1.361, 3.115e-4
-1.362, 3.115e-4
-1.363, 3.146e-4
-1.364, 3.146e-4
-1.365, 3.146e-4
-1.366, 3.146e-4
-1.367, 3.146e-4
-1.368, 3.115e-4
-1.369, 3.115e-4
-1.370, 3.085e-4
-1.371, 3.085e-4
-1.372, 3.085e-4
-1.373, 3.085e-4
-1.374, 3.115e-4
-1.375, 3.146e-4
-1.376, 3.146e-4
-1.377, 3.177e-4
-1.378, 3.146e-4
-1.379, 3.177e-4
-1.380, 3.146e-4
-1.381, 3.146e-4
-1.382, 3.146e-4
-1.383, 3.146e-4
-1.384, 3.146e-4
-1.385, 3.146e-4
-1.386, 3.177e-4
-1.387, 3.208e-4
-1.388, 3.208e-4
-1.389, 3.208e-4
-1.390, 3.208e-4
-1.391, 3.177e-4
-1.392, 3.177e-4
-1.393, 3.177e-4
-1.394, 3.146e-4
-1.395, 3.146e-4
-1.396, 3.177e-4
-1.397, 3.177e-4
-1.398, 3.208e-4
-1.399, 3.239e-4
-1.400, 3.239e-4
-1.401, 3.239e-4
-1.402, 3.239e-4
-1.403, 3.208e-4
-1.404, 3.177e-4
-1.405, 3.177e-4
-1.406, 3.177e-4
-1.407, 3.177e-4
-1.408, 3.177e-4
-1.409, 3.177e-4
-1.410, 3.177e-4
-1.411, 3.208e-4
-1.412, 3.239e-4
-1.413, 3.239e-4
-1.414, 3.239e-4
-1.415, 3.239e-4
-1.416, 3.208e-4
-1.417, 3.208e-4
-1.418, 3.208e-4
-1.419, 3.208e-4
-1.420, 3.208e-4
-1.421, 3.239e-4
-1.422, 3.239e-4
-1.423, 3.239e-4
-1.424, 3.239e-4
-1.425, 3.239e-4
-1.426, 3.208e-4
-1.427, 3.208e-4
-1.428, 3.177e-4
-1.429, 3.177e-4
-1.430, 3.146e-4
-1.431, 3.177e-4
-1.432, 3.177e-4
-1.433, 3.208e-4
-1.434, 3.208e-4
-1.435, 3.208e-4
-1.436, 3.208e-4
-1.437, 3.177e-4
-1.438, 3.146e-4
-1.439, 3.115e-4
-1.440, 3.115e-4
-1.441, 3.115e-4
-1.442, 3.115e-4
-1.443, 3.115e-4
-1.444, 3.115e-4
-1.445, 3.115e-4
-1.446, 3.146e-4
-1.447, 3.146e-4
-1.448, 3.115e-4
-1.449, 3.115e-4
-1.450, 3.085e-4
-1.451, 3.054e-4
-1.452, 3.023e-4
-1.453, 3.023e-4
-1.454, 3.023e-4
-1.455, 3.023e-4
-1.456, 3.054e-4
-1.457, 3.054e-4
-1.458, 3.054e-4
-1.459, 3.085e-4
-1.460, 3.054e-4
-1.461, 3.023e-4
-1.462, 3.023e-4
-1.463, 2.992e-4
-1.464, 2.961e-4
-1.465, 2.961e-4
-1.466, 2.961e-4
-1.467, 2.961e-4
-1.468, 2.961e-4
-1.469, 2.961e-4
-1.470, 2.961e-4
-1.471, 2.992e-4
-1.472, 2.961e-4
-1.473, 2.961e-4
-1.474, 2.931e-4
-1.475, 2.931e-4
-1.476, 2.931e-4
-1.477, 2.931e-4
-1.478, 2.961e-4
-1.479, 2.961e-4
-1.480, 2.992e-4
-1.481, 2.992e-4
-1.482, 2.992e-4
-1.483, 2.992e-4
-1.484, 2.992e-4
-1.485, 2.961e-4
-1.486, 2.961e-4
-1.487, 2.931e-4
-1.488, 2.931e-4
-1.489, 2.931e-4
-1.490, 2.961e-4
-1.491, 2.961e-4
-1.492, 2.992e-4
-1.493, 3.023e-4
-1.494, 3.023e-4
-1.495, 3.023e-4
-1.496, 2.992e-4
-1.497, 2.992e-4
-1.498, 2.961e-4
-1.499, 2.961e-4
-1.500, 2.961e-4
-1.501, 2.992e-4
-1.502, 3.023e-4
-1.503, 3.023e-4
-1.504, 3.054e-4
-1.505, 3.054e-4
-1.506, 3.054e-4
-1.507, 3.054e-4
-1.508, 3.085e-4
-1.509, 3.054e-4
-1.510, 3.054e-4
-1.511, 3.054e-4
-1.512, 3.085e-4
-1.513, 3.115e-4
-1.514, 3.115e-4
-1.515, 3.146e-4
-1.516, 3.177e-4
-1.517, 3.177e-4
-1.518, 3.177e-4
-1.519, 3.177e-4
-1.520, 3.177e-4
-1.521, 3.177e-4
-1.522, 3.177e-4
-1.523, 3.208e-4
-1.524, 3.239e-4
-1.525, 3.270e-4
-1.526, 3.300e-4
-1.527, 3.331e-4
-1.528, 3.362e-4
-1.529, 3.362e-4
-1.530, 3.393e-4
-1.531, 3.393e-4
-1.532, 3.393e-4
-1.533, 3.393e-4
-1.534, 3.424e-4
-1.535, 3.455e-4
-1.536, 3.485e-4
-1.537, 3.516e-4
-1.538, 3.547e-4
-1.539, 3.609e-4
-1.540, 3.640e-4
-1.541, 3.640e-4
-1.542, 3.670e-4
-1.543, 3.701e-4
-1.544, 3.701e-4
-1.545, 3.701e-4
-1.546, 3.732e-4
-1.547, 3.794e-4
-1.548, 3.825e-4
-1.549, 3.886e-4
-1.550, 3.917e-4
-1.551, 3.948e-4
-1.552, 4.010e-4
-1.553, 4.010e-4
-1.554, 4.040e-4
-1.555, 4.071e-4
-1.556, 4.102e-4
-1.557, 4.133e-4
-1.558, 4.164e-4
-1.559, 4.225e-4
-1.560, 4.256e-4
-1.561, 4.349e-4
-1.562, 4.380e-4
-1.563, 4.410e-4
-1.564, 4.472e-4
-1.565, 4.503e-4
-1.566, 4.534e-4
-1.567, 4.565e-4
-1.568, 4.595e-4
-1.569, 4.657e-4
-1.570, 4.688e-4
-1.571, 4.750e-4
-1.572, 4.842e-4
-1.573, 4.904e-4
-1.574, 4.996e-4
-1.575, 5.027e-4
-1.576, 5.120e-4
-1.577, 5.150e-4
-1.578, 5.181e-4
-1.579, 5.212e-4
-1.580, 5.274e-4
-1.581, 5.305e-4
-1.582, 5.366e-4
-1.583, 5.428e-4
-1.584, 5.459e-4
-1.585, 5.551e-4
-1.586, 5.613e-4
-1.587, 5.674e-4
-1.588, 5.736e-4
-1.589, 5.798e-4
-1.590, 5.859e-4
-1.591, 5.921e-4
-1.592, 5.983e-4
-1.593, 6.014e-4
-1.594, 6.106e-4
-1.595, 6.168e-4
-1.596, 6.260e-4
-1.597, 6.353e-4
-1.598, 6.414e-4
-1.599, 6.507e-4
-1.600, 6.569e-4
-1.601, 6.630e-4
-1.602, 6.692e-4
-1.603, 6.723e-4
-1.604, 6.846e-4
-1.605, 6.908e-4
-1.606, 7.000e-4
-1.607, 7.124e-4
-1.608, 7.216e-4
-1.609, 7.309e-4
-1.610, 7.370e-4
-1.611, 7.432e-4
-1.612, 7.524e-4
-1.613, 7.586e-4
-1.614, 7.648e-4
-1.615, 7.709e-4
-1.616, 7.802e-4
-1.617, 7.925e-4
-1.618, 8.018e-4
-1.619, 8.141e-4
-1.620, 8.264e-4
-1.621, 8.326e-4
-1.622, 8.449e-4
-1.623, 8.542e-4
-1.624, 8.603e-4
-1.625, 8.696e-4
-1.626, 8.758e-4
-1.627, 8.850e-4
-1.628, 8.912e-4
-1.629, 9.004e-4
-1.630, 9.097e-4
-1.631, 9.220e-4
-1.632, 9.343e-4
-1.633, 9.467e-4
-1.634, 9.590e-4
-1.635, 9.683e-4
-1.636, 9.775e-4
-1.637, 9.868e-4
-1.638, 9.991e-4
-1.639, 1.011e-3
-1.640, 1.021e-3
-1.641, 1.033e-3
-1.642, 1.042e-3
-1.643, 1.055e-3
-1.644, 1.067e-3
-1.645, 1.076e-3
-1.646, 1.085e-3
-1.647, 1.098e-3
-1.648, 1.110e-3
-1.649, 1.122e-3
-1.650, 1.135e-3
-1.651, 1.144e-3
-1.652, 1.159e-3
-1.653, 1.175e-3
-1.654, 1.187e-3
-1.655, 1.203e-3
-1.656, 1.215e-3
-1.657, 1.227e-3
-1.658, 1.236e-3
-1.659, 1.249e-3
-1.660, 1.264e-3
-1.661, 1.273e-3
-1.662, 1.289e-3
-1.663, 1.298e-3
-1.664, 1.320e-3
-1.665, 1.329e-3
-1.666, 1.344e-3
-1.667, 1.363e-3
-1.668, 1.378e-3
-1.669, 1.397e-3
-1.670, 1.406e-3
-1.671, 1.418e-3
-1.672, 1.434e-3
-1.673, 1.446e-3
-1.674, 1.458e-3
-1.675, 1.474e-3
-1.676, 1.489e-3
-1.677, 1.505e-3
-1.678, 1.520e-3
-1.679, 1.536e-3
-1.680, 1.554e-3
-1.681, 1.569e-3
-1.682, 1.585e-3
-1.683, 1.600e-3
-1.684, 1.619e-3
-1.685, 1.637e-3
-1.686, 1.647e-3
-1.687, 1.662e-3
-1.688, 1.677e-3
-1.689, 1.699e-3
-1.690, 1.717e-3
-1.691, 1.733e-3
-1.692, 1.751e-3
-1.693, 1.767e-3
-1.694, 1.782e-3
-1.695, 1.798e-3
-1.696, 1.813e-3
-1.697, 1.832e-3
-1.698, 1.847e-3
-1.699, 1.865e-3
-1.700, 1.884e-3
-1.701, 1.902e-3
-1.702, 1.921e-3
-1.703, 1.943e-3
-1.704, 1.958e-3
-1.705, 1.976e-3
-1.706, 1.989e-3
-1.707, 2.010e-3
-1.708, 2.032e-3
-1.709, 2.054e-3
-1.710, 2.072e-3
-1.711, 2.087e-3
-1.712, 2.109e-3
-1.713, 2.128e-3
-1.714, 2.149e-3
-1.715, 2.164e-3
-1.716, 2.189e-3
-1.717, 2.205e-3
-1.718, 2.220e-3
-1.719, 2.235e-3
-1.720, 2.254e-3
-1.721, 2.275e-3
-1.722, 2.297e-3
-1.723, 2.319e-3
-1.724, 2.343e-3
-1.725, 2.365e-3
-1.726, 2.390e-3
-1.727, 2.411e-3
-1.728, 2.436e-3
-1.729, 2.457e-3
-1.730, 2.479e-3
-1.731, 2.497e-3
-1.732, 2.513e-3
-1.733, 2.531e-3
-1.734, 2.547e-3
-1.735, 2.568e-3
-1.736, 2.590e-3
-1.737, 2.612e-3
-1.738, 2.633e-3
-1.739, 2.661e-3
-1.740, 2.692e-3
-1.741, 2.716e-3
-1.742, 2.735e-3
-1.743, 2.760e-3
-1.744, 2.781e-3
-1.745, 2.803e-3
-1.746, 2.827e-3
-1.747, 2.849e-3
-1.748, 2.867e-3
-1.749, 2.889e-3
-1.750, 2.908e-3
-1.751, 2.932e-3
-1.752, 2.957e-3
-1.753, 2.985e-3
-1.754, 3.012e-3
-1.755, 3.034e-3
-1.756, 3.065e-3
-1.757, 3.096e-3
-1.758, 3.123e-3
-1.759, 3.145e-3
-1.760, 3.170e-3
-1.761, 3.197e-3
-1.762, 3.225e-3
-1.763, 3.253e-3
-1.764, 3.281e-3
-1.765, 3.302e-3
-1.766, 3.324e-3
-1.767, 3.355e-3
-1.768, 3.376e-3
-1.769, 3.404e-3
-1.770, 3.429e-3
-1.771, 3.453e-3
-1.772, 3.484e-3
-1.773, 3.518e-3
-1.774, 3.540e-3
-1.775, 3.577e-3
-1.776, 3.598e-3
-1.777, 3.626e-3
-1.778, 3.651e-3
-1.779, 3.675e-3
-1.780, 3.706e-3
-1.781, 3.734e-3
-1.782, 3.752e-3
-1.783, 3.774e-3
-1.784, 3.805e-3
-1.785, 3.826e-3
-1.786, 3.851e-3
-1.787, 3.879e-3
-1.788, 3.900e-3
-1.789, 3.922e-3
-1.790, 3.950e-3
-1.791, 3.984e-3
-1.792, 4.017e-3
-1.793, 4.048e-3
-1.794, 4.076e-3
-1.795, 4.104e-3
-1.796, 4.128e-3
-1.797, 4.165e-3
-1.798, 4.196e-3
-1.799, 4.224e-3
-1.800, 4.221e-3
-1.799, 4.184e-3
-1.798, 4.153e-3
-1.797, 4.128e-3
-1.796, 4.098e-3
-1.795, 4.070e-3
-1.794, 4.042e-3
-1.793, 4.014e-3
-1.792, 3.993e-3
-1.791, 3.968e-3
-1.790, 3.940e-3
-1.789, 3.910e-3
-1.788, 3.882e-3
-1.787, 3.842e-3
-1.786, 3.808e-3
-1.785, 3.783e-3
-1.784, 3.765e-3
-1.783, 3.731e-3
-1.782, 3.709e-3
-1.781, 3.691e-3
-1.780, 3.663e-3
-1.779, 3.638e-3
-1.778, 3.610e-3
-1.777, 3.583e-3
-1.776, 3.555e-3
-1.775, 3.533e-3
-1.774, 3.512e-3
-1.773, 3.487e-3
-1.772, 3.466e-3
-1.771, 3.435e-3
-1.770, 3.419e-3
-1.769, 3.392e-3
-1.768, 3.370e-3
-1.767, 3.348e-3
-1.766, 3.321e-3
-1.765, 3.296e-3
-1.764, 3.265e-3
-1.763, 3.237e-3
-1.762, 3.210e-3
-1.761, 3.182e-3
-1.760, 3.163e-3
-1.759, 3.142e-3
-1.758, 3.120e-3
-1.757, 3.105e-3
-1.756, 3.080e-3
-1.755, 3.059e-3
-1.754, 3.040e-3
-1.753, 3.015e-3
-1.752, 3.000e-3
-1.751, 2.972e-3
-1.750, 2.948e-3
-1.749, 2.923e-3
-1.748, 2.904e-3
-1.747, 2.880e-3
-1.746, 2.867e-3
-1.745, 2.843e-3
-1.744, 2.824e-3
-1.743, 2.800e-3
-1.742, 2.772e-3
-1.741, 2.750e-3
-1.740, 2.723e-3
-1.739, 2.695e-3
-1.738, 2.670e-3
-1.737, 2.642e-3
-1.736, 2.621e-3
-1.735, 2.596e-3
-1.734, 2.575e-3
-1.733, 2.553e-3
-1.732, 2.525e-3
-1.731, 2.497e-3
-1.730, 2.473e-3
-1.729, 2.445e-3
-1.728, 2.420e-3
-1.727, 2.399e-3
-1.726, 2.380e-3
-1.725, 2.362e-3
-1.724, 2.343e-3
-1.723, 2.325e-3
-1.722, 2.306e-3
-1.721, 2.288e-3
-1.720, 2.266e-3
-1.719, 2.242e-3
-1.718, 2.217e-3
-1.717, 2.195e-3
-1.716, 2.168e-3
-1.715, 2.143e-3
-1.714, 2.121e-3
-1.713, 2.103e-3
-1.712, 2.081e-3
-1.711, 2.066e-3
-1.710, 2.044e-3
-1.709, 2.023e-3
-1.708, 2.004e-3
-1.707, 1.983e-3
-1.706, 1.958e-3
-1.705, 1.939e-3
-1.704, 1.918e-3
-1.703, 1.899e-3
-1.702, 1.878e-3
-1.701, 1.859e-3
-1.700, 1.838e-3
-1.699, 1.825e-3
-1.698, 1.804e-3
-1.697, 1.785e-3
-1.696, 1.764e-3
-1.695, 1.748e-3
-1.694, 1.724e-3
-1.693, 1.708e-3
-1.692, 1.690e-3
-1.691, 1.674e-3
-1.690, 1.653e-3
-1.689, 1.637e-3
-1.688, 1.622e-3
-1.687, 1.603e-3
-1.686, 1.585e-3
-1.685, 1.563e-3
-1.684, 1.545e-3
-1.683, 1.526e-3
-1.682, 1.505e-3
-1.681, 1.489e-3
-1.680, 1.471e-3
-1.679, 1.455e-3
-1.678, 1.440e-3
-1.677, 1.425e-3
-1.676, 1.409e-3
-1.675, 1.397e-3
-1.674, 1.375e-3
-1.673, 1.360e-3
-1.672, 1.341e-3
-1.671, 1.320e-3
-1.670, 1.301e-3
-1.669, 1.280e-3
-1.668, 1.258e-3
-1.667, 1.240e-3
-1.666, 1.227e-3
-1.665, 1.215e-3
-1.664, 1.199e-3
-1.663, 1.187e-3
-1.662, 1.172e-3
-1.661, 1.153e-3
-1.660, 1.141e-3
-1.659, 1.129e-3
-1.658, 1.110e-3
-1.657, 1.095e-3
-1.656, 1.085e-3
-1.655, 1.073e-3
-1.654, 1.061e-3
-1.653, 1.045e-3
-1.652, 1.030e-3
-1.651, 1.018e-3
-1.650, 1.002e-3
-1.649, 9.898e-4
-1.648, 9.713e-4
-1.647, 9.559e-4
-1.646, 9.405e-4
-1.645, 9.282e-4
-1.644, 9.128e-4
-1.643, 9.004e-4
-1.642, 8.912e-4
-1.641, 8.788e-4
-1.640, 8.665e-4
-1.639, 8.511e-4
-1.638, 8.357e-4
-1.637, 8.233e-4
-1.636, 8.079e-4
-1.635, 7.956e-4
-1.634, 7.802e-4
-1.633, 7.679e-4
-1.632, 7.586e-4
-1.631, 7.463e-4
-1.630, 7.339e-4
-1.629, 7.247e-4
-1.628, 7.124e-4
-1.627, 6.969e-4
-1.626, 6.877e-4
-1.625, 6.754e-4
-1.624, 6.630e-4
-1.623, 6.507e-4
-1.622, 6.384e-4
-1.621, 6.291e-4
-1.620, 6.168e-4
-1.619, 6.075e-4
-1.618, 5.983e-4
-1.617, 5.890e-4
-1.616, 5.798e-4
-1.615, 5.674e-4
-1.614, 5.551e-4
-1.613, 5.459e-4
-1.612, 5.335e-4
-1.611, 5.243e-4
-1.610, 5.150e-4
-1.609, 5.058e-4
-1.608, 4.965e-4
-1.607, 4.873e-4
-1.606, 4.780e-4
-1.605, 4.688e-4
-1.604, 4.595e-4
-1.603, 4.472e-4
-1.602, 4.410e-4
-1.601, 4.287e-4
-1.600, 4.225e-4
-1.599, 4.133e-4
-1.598, 4.040e-4
-1.597, 3.979e-4
-1.596, 3.886e-4
-1.595, 3.825e-4
-1.594, 3.732e-4
-1.593, 3.670e-4
-1.592, 3.578e-4
-1.591, 3.455e-4
-1.590, 3.362e-4
-1.589, 3.300e-4
-1.588, 3.239e-4
-1.587, 3.146e-4
-1.586, 3.085e-4
-1.585, 3.023e-4
-1.584, 2.961e-4
-1.583, 2.900e-4
-1.582, 2.838e-4
-1.581, 2.776e-4
-1.580, 2.715e-4
-1.579, 2.622e-4
-1.578, 2.561e-4
-1.577, 2.499e-4
-1.576, 2.437e-4
-1.575, 2.376e-4
-1.574, 2.314e-4
-1.573, 2.252e-4
-1.572, 2.221e-4
-1.571, 2.160e-4
-1.570, 2.129e-4
-1.569, 2.036e-4
-1.568, 1.975e-4
-1.567, 1.913e-4
-1.566, 1.851e-4
-1.565, 1.790e-4
-1.564, 1.759e-4
-1.563, 1.697e-4
-1.562, 1.666e-4
-1.561, 1.636e-4
-1.560, 1.605e-4
-1.559, 1.543e-4
-1.558, 1.512e-4
-1.557, 1.481e-4
-1.556, 1.389e-4
-1.555, 1.358e-4
-1.554, 1.296e-4
-1.553, 1.266e-4
-1.552, 1.204e-4
-1.551, 1.173e-4
-1.550, 1.142e-4
-1.549, 1.111e-4
-1.548, 1.081e-4
-1.547, 1.050e-4
-1.546, 1.019e-4
-1.545, 9.882e-5
-1.544, 9.265e-5
-1.543, 8.957e-5
-1.542, 8.340e-5
-1.541, 8.032e-5
-1.540, 7.723e-5
-1.539, 7.415e-5
-1.538, 7.415e-5
-1.537, 7.107e-5
-1.536, 6.798e-5
-1.535, 6.490e-5
-1.534, 6.182e-5
-1.533, 5.873e-5
-1.532, 5.565e-5
-1.531, 4.949e-5
-1.530, 4.640e-5
-1.529, 4.332e-5
-1.528, 4.332e-5
-1.527, 4.024e-5
-1.526, 4.024e-5
-1.525, 3.715e-5
-1.524, 3.407e-5
-1.523, 3.407e-5
-1.522, 3.099e-5
-1.521, 2.482e-5
-1.520, 2.482e-5
-1.519, 2.174e-5
-1.518, 1.865e-5
-1.517, 1.557e-5
-1.516, 1.557e-5
-1.515, 1.249e-5
-1.514, 1.249e-5
-1.513, 1.249e-5
-1.512, 9.405e-6
-1.511, 6.322e-6
-1.510, 3.239e-6
-1.509, 3.239e-6
-1.508, 1.559e-7
-1.507, -2.927e-6
-1.506, -6.010e-6
-1.505, -6.010e-6
-1.504, -6.010e-6
-1.503, -6.010e-6
-1.502, -6.010e-6
-1.501, -9.093e-6
-1.500, -9.093e-6
-1.499, -1.218e-5
-1.498, -1.218e-5
-1.497, -1.526e-5
-1.496, -1.834e-5
-1.495, -2.143e-5
-1.494, -2.143e-5
-1.493, -2.143e-5
-1.492, -2.143e-5
-1.491, -2.143e-5
-1.490, -2.451e-5
-1.489, -2.451e-5
-1.488, -2.451e-5
-1.487, -2.759e-5
-1.486, -2.759e-5
-1.485, -3.068e-5
-1.484, -3.376e-5
-1.483, -3.684e-5
-1.482, -3.376e-5
-1.481, -3.684e-5
-1.480, -3.376e-5
-1.479, -3.684e-5
-1.478, -3.684e-5
-1.477, -3.684e-5
-1.476, -3.684e-5
-1.475, -3.684e-5
-1.474, -3.992e-5
-1.473, -4.301e-5
-1.472, -4.609e-5
-1.471, -4.609e-5
-1.470, -4.609e-5
-1.469, -4.609e-5
-1.468, -4.609e-5
-1.467, -4.609e-5
-1.466, -4.609e-5
-1.465, -4.609e-5
-1.464, -4.609e-5
-1.463, -4.917e-5
-1.462, -5.226e-5
-1.461, -5.226e-5
-1.460, -5.534e-5
-1.459, -5.226e-5
-1.458, -5.534e-5
-1.457, -5.226e-5
-1.456, -5.226e-5
-1.455, -5.226e-5
-1.454, -5.226e-5
-1.453, -5.226e-5
-1.452, -5.534e-5
-1.451, -5.842e-5
-1.450, -5.842e-5
-1.449, -5.842e-5
-1.448, -5.842e-5
-1.447, -6.151e-5
-1.446, -6.151e-5
-1.445, -5.842e-5
-1.444, -5.842e-5
-1.443, -5.842e-5
-1.442, -5.842e-5
-1.441, -5.842e-5
-1.440, -6.151e-5
-1.439, -6.151e-5
-1.438, -6.459e-5
-1.437, -6.459e-5
-1.436, -6.459e-5
-1.435, -6.767e-5
-1.434, -6.459e-5
-1.433, -6.459e-5
-1.432, -6.151e-5
-1.431, -6.151e-5
-1.430, -6.459e-5
-1.429, -6.459e-5
-1.428, -6.459e-5
-1.427, -6.767e-5
-1.426, -6.767e-5
-1.425, -7.076e-5
-1.424, -7.076e-5
-1.423, -7.076e-5
-1.422, -6.767e-5
-1.421, -6.767e-5
-1.420, -6.767e-5
-1.419, -6.767e-5
-1.418, -6.767e-5
-1.417, -7.076e-5
-1.416, -7.076e-5
-1.415, -7.076e-5
-1.414, -7.384e-5
-1.413, -7.384e-5
-1.412, -7.384e-5
-1.411, -7.384e-5
-1.410, -7.076e-5
-1.409, -7.076e-5
-1.408, -7.076e-5
-1.407, -7.076e-5
-1.406, -7.076e-5
-1.405, -7.076e-5
-1.404, -7.076e-5
-1.403, -7.384e-5
-1.402, -7.384e-5
-1.401, -7.692e-5
-1.400, -7.692e-5
-1.399, -7.692e-5
-1.398, -7.692e-5
-1.397, -7.384e-5
-1.396, -7.384e-5
-1.395, -7.692e-5
-1.394, -7.692e-5
-1.393, -7.692e-5
-1.392, -7.692e-5
-1.391, -8.000e-5
-1.390, -8.000e-5
-1.389, -8.000e-5
-1.388, -8.000e-5
-1.387, -8.000e-5
-1.386, -8.000e-5
-1.385, -7.692e-5
-1.384, -7.692e-5
-1.383, -7.692e-5
-1.382, -8.000e-5
-1.381, -8.000e-5
-1.380, -8.309e-5
-1.379, -8.309e-5
-1.378, -8.309e-5
-1.377, -8.617e-5
-1.376, -8.309e-5
-1.375, -8.309e-5
-1.374, -8.309e-5
-1.373, -8.309e-5
-1.372, -8.309e-5
-1.371, -8.309e-5
-1.370, -8.309e-5
-1.369, -8.309e-5
-1.368, -8.617e-5
-1.367, -8.925e-5
-1.366, -8.925e-5
-1.365, -8.925e-5
-1.364, -8.617e-5
-1.363, -8.617e-5
-1.362, -8.617e-5
-1.361, -8.617e-5
-1.360, -8.617e-5
-1.359, -8.925e-5
-1.358, -8.925e-5
-1.357, -8.925e-5
-1.356, -9.234e-5
-1.355, -9.234e-5
-1.354, -9.234e-5
-1.353, -9.234e-5
-1.352, -9.234e-5
-1.351, -9.234e-5
-1.350, -9.234e-5
-1.349, -9.234e-5
-1.348, -9.234e-5
-1.347, -9.234e-5
-1.346, -9.542e-5
-1.345, -9.542e-5
-1.344, -9.850e-5
-1.343, -9.850e-5
-1.342, -9.850e-5
-1.341, -9.850e-5
-1.340, -9.850e-5
-1.339, -9.850e-5
-1.338, -9.850e-5
-1.337, -9.542e-5
-1.336, -9.850e-5
-1.335, -9.850e-5
-1.334, -1.016e-4
-1.333, -1.016e-4
-1.332, -1.047e-4
-1.331, -1.047e-4
-1.330, -1.047e-4
-1.329, -1.047e-4
-1.328, -1.047e-4
-1.327, -1.047e-4
-1.326, -1.016e-4
-1.325, -1.047e-4
-1.324, -1.078e-4
-1.323, -1.078e-4
-1.322, -1.078e-4
-1.321, -1.108e-4
-1.320, -1.108e-4
-1.319, -1.108e-4
-1.318, -1.139e-4
-1.317, -1.108e-4
-1.316, -1.108e-4
-1.315, -1.108e-4
-1.314, -1.108e-4
-1.313, -1.108e-4
-1.312, -1.139e-4
-1.311, -1.170e-4
-1.310, -1.170e-4
-1.309, -1.201e-4
-1.308, -1.201e-4
-1.307, -1.201e-4
-1.306, -1.201e-4
-1.305, -1.201e-4
-1.304, -1.201e-4
-1.303, -1.201e-4
-1.302, -1.201e-4
-1.301, -1.201e-4
-1.300, -1.232e-4
-1.299, -1.263e-4
-1.298, -1.263e-4
-1.297, -1.293e-4
-1.296, -1.293e-4
-1.295, -1.324e-4
-1.294, -1.293e-4
-1.293, -1.293e-4
-1.292, -1.293e-4
-1.291, -1.293e-4
-1.290, -1.293e-4
-1.289, -1.324e-4
-1.288, -1.355e-4
-1.287, -1.355e-4
-1.286, -1.386e-4
-1.285, -1.386e-4
-1.284, -1.417e-4
-1.283, -1.417e-4
-1.282, -1.417e-4
-1.281, -1.417e-4
-1.280, -1.417e-4
-1.279, -1.417e-4
-1.278, -1.417e-4
-1.277, -1.448e-4
-1.276, -1.478e-4
-1.275, -1.478e-4
-1.274, -1.509e-4
-1.273, -1.540e-4
-1.272, -1.540e-4
-1.271, -1.540e-4
-1.270, -1.540e-4
-1.269, -1.540e-4
-1.268, -1.540e-4
-1.267, -1.540e-4
-1.266, -1.540e-4
-1.265, -1.571e-4
-1.264, -1.571e-4
-1.263, -1.602e-4
-1.262, -1.632e-4
-1.261, -1.663e-4
-1.260, -1.663e-4
-1.259, -1.663e-4
-1.258, -1.663e-4
-1.257, -1.663e-4
-1.256, -1.663e-4
-1.255, -1.663e-4
-1.254, -1.663e-4
-1.253, -1.694e-4
-1.252, -1.725e-4
-1.251, -1.756e-4
-1.250, -1.787e-4
-1.249, -1.787e-4
-1.248, -1.787e-4
-1.247, -1.817e-4
-1.246, -1.817e-4
-1.245, -1.817e-4
-1.244, -1.817e-4
-1.243, -1.848e-4
-1.242, -1.848e-4
-1.241, -1.879e-4
-1.240, -1.910e-4
-1.239, -1.941e-4
-1.238, -1.972e-4
-1.237, -1.972e-4
-1.236, -2.002e-4
-1.235, -2.002e-4
-1.234, -2.002e-4
-1.233, -2.002e-4
-1.232, -2.002e-4
-1.231, -2.033e-4
-1.230, -2.064e-4
-1.229, -2.095e-4
-1.228, -2.126e-4
-1.227, -2.157e-4
-1.226, -2.157e-4
-1.225, -2.187e-4
-1.224, -2.187e-4
-1.223, -2.218e-4
-1.222, -2.218e-4
-1.221, -2.218e-4
-1.220, -2.218e-4
-1.219, -2.249e-4
-1.218, -2.280e-4
-1.217, -2.280e-4
-1.216, -2.342e-4
-1.215, -2.342e-4
-1.214, -2.372e-4
-1.213, -2.403e-4
-1.212, -2.403e-4
-1.211, -2.403e-4
-1.210, -2.403e-4
-1.209, -2.403e-4
-1.208, -2.403e-4
-1.207, -2.465e-4
-1.206, -2.496e-4
-1.205, -2.496e-4
-1.204, -2.527e-4
-1.203, -2.557e-4
-1.202, -2.557e-4
-1.201, -2.588e-4
-1.200, -2.588e-4
-1.199, -2.588e-4
-1.198, -2.588e-4
-1.197, -2.619e-4
-1.196, -2.650e-4
-1.195, -2.681e-4
-1.194, -2.681e-4
-1.193, -2.712e-4
-1.192, -2.773e-4
-1.191, -2.804e-4
-1.190, -2.804e-4
-1.189, -2.835e-4
-1.188, -2.835e-4
-1.187, -2.804e-4
-1.186, -2.835e-4
-1.185, -2.835e-4
-1.184, -2.866e-4
-1.183, -2.897e-4
-1.182, -2.958e-4
-1.181, -2.958e-4
-1.180, -2.989e-4
-1.179, -3.020e-4
-1.178, -3.020e-4
-1.177, -3.051e-4
-1.176, -3.020e-4
-1.175, -3.051e-4
-1.174, -3.051e-4
-1.173, -3.051e-4
-1.172, -3.082e-4
-1.171, -3.112e-4
-1.170, -3.143e-4
-1.169, -3.143e-4
-1.168, -3.174e-4
-1.167, -3.174e-4
-1.166, -3.205e-4
-1.165, -3.205e-4
-1.164, -3.205e-4
-1.163, -3.205e-4
-1.162, -3.205e-4
-1.161, -3.236e-4
-1.160, -3.236e-4
-1.159, -3.267e-4
-1.158, -3.297e-4
-1.157, -3.328e-4
-1.156, -3.328e-4
-1.155, -3.328e-4
-1.154, -3.297e-4
-1.153, -3.297e-4
-1.152, -3.267e-4
-1.151, -3.267e-4
-1.150, -3.267e-4
-1.149, -3.267e-4
-1.148, -3.267e-4
-1.147, -3.297e-4
-1.146, -3.328e-4
-1.145, -3.328e-4
-1.144, -3.359e-4
-1.143, -3.328e-4
-1.142, -3.328e-4
-1.141, -3.328e-4
-1.140, -3.297e-4
-1.139, -3.297e-4
-1.138, -3.297e-4
-1.137, -3.297e-4
-1.136, -3.297e-4
-1.135, -3.297e-4
-1.134, -3.328e-4
-1.133, -3.328e-4
-1.132, -3.328e-4
-1.131, -3.328e-4
-1.130, -3.328e-4
-1.129, -3.297e-4
-1.128, -3.267e-4
-1.127, -3.297e-4
-1.126, -3.267e-4
-1.125, -3.267e-4
-1.124, -3.297e-4
-1.123, -3.297e-4
-1.122, -3.297e-4
-1.121, -3.297e-4
-1.120, -3.267e-4
-1.119, -3.267e-4
-1.118, -3.267e-4
-1.117, -3.236e-4
-1.116, -3.236e-4
-1.115, -3.236e-4
-1.114, -3.236e-4
-1.113, -3.236e-4
-1.112, -3.236e-4
-1.111, -3.267e-4
-1.110, -3.267e-4
-1.109, -3.267e-4
-1.108, -3.267e-4
-1.107, -3.267e-4
-1.106, -3.236e-4
-1.105, -3.205e-4
-1.104, -3.205e-4
-1.103, -3.205e-4
-1.102, -3.205e-4
-1.101, -3.205e-4
-1.100, -3.236e-4
-1.099, -3.236e-4
-1.098, -3.236e-4
-1.097, -3.236e-4
-1.096, -3.236e-4
-1.095, -3.236e-4
-1.094, -3.205e-4
-1.093, -3.174e-4
-1.092, -3.205e-4
-1.091, -3.174e-4
-1.090, -3.205e-4
-1.089, -3.205e-4
-1.088, -3.205e-4
-1.087, -3.205e-4
-1.086, -3.205e-4
-1.085, -3.236e-4
-1.084, -3.205e-4
-1.083, -3.174e-4
-1.082, -3.174e-4
-1.081, -3.174e-4
-1.080, -3.174e-4
-1.079, -3.174e-4
-1.078, -3.174e-4
-1.077, -3.174e-4
-1.076, -3.205e-4
-1.075, -3.205e-4
-1.074, -3.236e-4
-1.073, -3.205e-4
-1.072, -3.174e-4
-1.071, -3.174e-4
-1.070, -3.112e-4
-1.069, -3.143e-4
-1.068, -3.143e-4
-1.067, -3.143e-4
-1.066, -3.174e-4
-1.065, -3.174e-4
-1.064, -3.205e-4
-1.063, -3.205e-4
-1.062, -3.205e-4
-1.061, -3.205e-4
-1.060, -3.174e-4
-1.059, -3.143e-4
-1.058, -3.143e-4
-1.057, -3.143e-4
-1.056, -3.143e-4
-1.055, -3.143e-4
-1.054, -3.143e-4
-1.053, -3.174e-4
-1.052, -3.174e-4
-1.051, -3.174e-4
-1.050, -3.174e-4
-1.049, -3.174e-4
-1.048, -3.143e-4
-1.047, -3.143e-4
-1.046, -3.143e-4
-1.045, -3.112e-4
-1.044, -3.143e-4
-1.043, -3.143e-4
-1.042, -3.174e-4
-1.041, -3.174e-4
-1.040, -3.205e-4
-1.039, -3.205e-4
-1.038, -3.174e-4
-1.037, -3.174e-4
-1.036, -3.143e-4
-1.035, -3.143e-4
-1.034, -3.112e-4
-1.033, -3.112e-4
-1.032, -3.112e-4
-1.031, -3.143e-4
-1.030, -3.143e-4
-1.029, -3.174e-4
-1.028, -3.174e-4
-1.027, -3.174e-4
-1.026, -3.174e-4
-1.025, -3.143e-4
-1.024, -3.112e-4
-1.023, -3.112e-4
-1.022, -3.112e-4
-1.021, -3.082e-4
-1.020, -3.112e-4
-1.019, -3.112e-4
-1.018, -3.112e-4
-1.017, -3.143e-4
-1.016, -3.143e-4
-1.015, -3.143e-4
-1.014, -3.112e-4
-1.013, -3.112e-4
-1.012, -3.112e-4
-1.011, -3.112e-4
-1.010, -3.082e-4
-1.009, -3.082e-4
-1.008, -3.082e-4
-1.007, -3.112e-4
-1.006, -3.112e-4
-1.005, -3.112e-4
-1.004, -3.082e-4
-1.003, -3.082e-4
-1.002, -3.082e-4
-1.001, -3.082e-4
