Sept. 5, 2024   21:45:30
Linear Sweep Voltammetry
File: c:/users/guazh/data/20240903_batch_252_500/2024-09-03-exp273\1acid_2ac-2024-09-05t21_42_20-lsvinphos\1acid_2ac_lsv_50mvs_efin_-2300mv.bin
Data Source:  Experiment
Instrument Model:  CHI760E
Header: LSV ran at 50 mVs with Efin at -2300mV
Note: 

Init E (V) = -0.6
Final E (V) = -2.3
Scan Rate (V/s) = 0.05
Sample Interval (V) = 0.001
Quiet Time (sec) = 2
Sensitivity (A/V) = 1e-4
Comp R (ohm) = 7.7

Results:

Channel 1:
Ep = -1.859V
ip = 8.406e-4A
Ah = 1.122e-3C

Potential/V, Current/A

-0.600, 3.189e-6
-0.601, 3.302e-6
-0.602, 3.365e-6
-0.603, 3.410e-6
-0.604, 3.451e-6
-0.605, 3.487e-6
-0.606, 3.523e-6
-0.607, 3.556e-6
-0.608, 3.592e-6
-0.609, 3.627e-6
-0.610, 3.659e-6
-0.611, 3.693e-6
-0.612, 3.726e-6
-0.613, 3.757e-6
-0.614, 3.791e-6
-0.615, 3.825e-6
-0.616, 3.857e-6
-0.617, 3.892e-6
-0.618, 3.923e-6
-0.619, 3.955e-6
-0.620, 3.988e-6
-0.621, 4.021e-6
-0.622, 4.053e-6
-0.623, 4.085e-6
-0.624, 4.119e-6
-0.625, 4.151e-6
-0.626, 4.183e-6
-0.627, 4.215e-6
-0.628, 4.248e-6
-0.629, 4.280e-6
-0.630, 4.314e-6
-0.631, 4.348e-6
-0.632, 4.381e-6
-0.633, 4.415e-6
-0.634, 4.449e-6
-0.635, 4.483e-6
-0.636, 4.518e-6
-0.637, 4.552e-6
-0.638, 4.587e-6
-0.639, 4.622e-6
-0.640, 4.657e-6
-0.641, 4.692e-6
-0.642, 4.726e-6
-0.643, 4.761e-6
-0.644, 4.797e-6
-0.645, 4.830e-6
-0.646, 4.866e-6
-0.647, 4.900e-6
-0.648, 4.935e-6
-0.649, 4.971e-6
-0.650, 5.005e-6
-0.651, 5.041e-6
-0.652, 5.077e-6
-0.653, 5.112e-6
-0.654, 5.149e-6
-0.655, 5.182e-6
-0.656, 5.220e-6
-0.657, 5.256e-6
-0.658, 5.291e-6
-0.659, 5.329e-6
-0.660, 5.364e-6
-0.661, 5.400e-6
-0.662, 5.433e-6
-0.663, 5.468e-6
-0.664, 5.505e-6
-0.665, 5.542e-6
-0.666, 5.580e-6
-0.667, 5.615e-6
-0.668, 5.650e-6
-0.669, 5.685e-6
-0.670, 5.721e-6
-0.671, 5.757e-6
-0.672, 5.793e-6
-0.673, 5.829e-6
-0.674, 5.863e-6
-0.675, 5.897e-6
-0.676, 5.931e-6
-0.677, 5.963e-6
-0.678, 6.000e-6
-0.679, 6.035e-6
-0.680, 6.070e-6
-0.681, 6.109e-6
-0.682, 6.146e-6
-0.683, 6.178e-6
-0.684, 6.210e-6
-0.685, 6.240e-6
-0.686, 6.273e-6
-0.687, 6.307e-6
-0.688, 6.340e-6
-0.689, 6.375e-6
-0.690, 6.407e-6
-0.691, 6.441e-6
-0.692, 6.473e-6
-0.693, 6.504e-6
-0.694, 6.539e-6
-0.695, 6.570e-6
-0.696, 6.602e-6
-0.697, 6.634e-6
-0.698, 6.666e-6
-0.699, 6.697e-6
-0.700, 6.728e-6
-0.701, 6.757e-6
-0.702, 6.789e-6
-0.703, 6.818e-6
-0.704, 6.851e-6
-0.705, 6.878e-6
-0.706, 6.907e-6
-0.707, 6.934e-6
-0.708, 6.963e-6
-0.709, 6.992e-6
-0.710, 7.019e-6
-0.711, 7.047e-6
-0.712, 7.073e-6
-0.713, 7.102e-6
-0.714, 7.128e-6
-0.715, 7.155e-6
-0.716, 7.181e-6
-0.717, 7.208e-6
-0.718, 7.233e-6
-0.719, 7.257e-6
-0.720, 7.280e-6
-0.721, 7.304e-6
-0.722, 7.327e-6
-0.723, 7.349e-6
-0.724, 7.372e-6
-0.725, 7.393e-6
-0.726, 7.417e-6
-0.727, 7.437e-6
-0.728, 7.459e-6
-0.729, 7.480e-6
-0.730, 7.500e-6
-0.731, 7.518e-6
-0.732, 7.538e-6
-0.733, 7.555e-6
-0.734, 7.575e-6
-0.735, 7.592e-6
-0.736, 7.609e-6
-0.737, 7.627e-6
-0.738, 7.643e-6
-0.739, 7.661e-6
-0.740, 7.675e-6
-0.741, 7.689e-6
-0.742, 7.705e-6
-0.743, 7.719e-6
-0.744, 7.734e-6
-0.745, 7.748e-6
-0.746, 7.760e-6
-0.747, 7.771e-6
-0.748, 7.783e-6
-0.749, 7.795e-6
-0.750, 7.806e-6
-0.751, 7.815e-6
-0.752, 7.825e-6
-0.753, 7.835e-6
-0.754, 7.844e-6
-0.755, 7.853e-6
-0.756, 7.861e-6
-0.757, 7.868e-6
-0.758, 7.877e-6
-0.759, 7.883e-6
-0.760, 7.889e-6
-0.761, 7.896e-6
-0.762, 7.900e-6
-0.763, 7.906e-6
-0.764, 7.911e-6
-0.765, 7.914e-6
-0.766, 7.920e-6
-0.767, 7.923e-6
-0.768, 7.927e-6
-0.769, 7.930e-6
-0.770, 7.931e-6
-0.771, 7.932e-6
-0.772, 7.933e-6
-0.773, 7.934e-6
-0.774, 7.936e-6
-0.775, 7.935e-6
-0.776, 7.935e-6
-0.777, 7.935e-6
-0.778, 7.933e-6
-0.779, 7.933e-6
-0.780, 7.930e-6
-0.781, 7.928e-6
-0.782, 7.928e-6
-0.783, 7.924e-6
-0.784, 7.922e-6
-0.785, 7.917e-6
-0.786, 7.913e-6
-0.787, 7.910e-6
-0.788, 7.905e-6
-0.789, 7.902e-6
-0.790, 7.895e-6
-0.791, 7.889e-6
-0.792, 7.884e-6
-0.793, 7.879e-6
-0.794, 7.872e-6
-0.795, 7.867e-6
-0.796, 7.859e-6
-0.797, 7.851e-6
-0.798, 7.847e-6
-0.799, 7.839e-6
-0.800, 7.830e-6
-0.801, 7.824e-6
-0.802, 7.814e-6
-0.803, 7.806e-6
-0.804, 7.800e-6
-0.805, 7.790e-6
-0.806, 7.782e-6
-0.807, 7.773e-6
-0.808, 7.765e-6
-0.809, 7.757e-6
-0.810, 7.745e-6
-0.811, 7.737e-6
-0.812, 7.727e-6
-0.813, 7.718e-6
-0.814, 7.708e-6
-0.815, 7.697e-6
-0.816, 7.687e-6
-0.817, 7.676e-6
-0.818, 7.665e-6
-0.819, 7.658e-6
-0.820, 7.649e-6
-0.821, 7.636e-6
-0.822, 7.624e-6
-0.823, 7.612e-6
-0.824, 7.601e-6
-0.825, 7.589e-6
-0.826, 7.578e-6
-0.827, 7.567e-6
-0.828, 7.556e-6
-0.829, 7.544e-6
-0.830, 7.533e-6
-0.831, 7.521e-6
-0.832, 7.510e-6
-0.833, 7.500e-6
-0.834, 7.486e-6
-0.835, 7.475e-6
-0.836, 7.463e-6
-0.837, 7.450e-6
-0.838, 7.439e-6
-0.839, 7.427e-6
-0.840, 7.415e-6
-0.841, 7.403e-6
-0.842, 7.391e-6
-0.843, 7.380e-6
-0.844, 7.368e-6
-0.845, 7.357e-6
-0.846, 7.346e-6
-0.847, 7.333e-6
-0.848, 7.323e-6
-0.849, 7.311e-6
-0.850, 7.299e-6
-0.851, 7.288e-6
-0.852, 7.276e-6
-0.853, 7.264e-6
-0.854, 7.254e-6
-0.855, 7.243e-6
-0.856, 7.230e-6
-0.857, 7.220e-6
-0.858, 7.209e-6
-0.859, 7.198e-6
-0.860, 7.186e-6
-0.861, 7.174e-6
-0.862, 7.163e-6
-0.863, 7.151e-6
-0.864, 7.142e-6
-0.865, 7.130e-6
-0.866, 7.118e-6
-0.867, 7.107e-6
-0.868, 7.096e-6
-0.869, 7.086e-6
-0.870, 7.074e-6
-0.871, 7.066e-6
-0.872, 7.053e-6
-0.873, 7.042e-6
-0.874, 7.031e-6
-0.875, 7.020e-6
-0.876, 7.012e-6
-0.877, 7.001e-6
-0.878, 6.992e-6
-0.879, 6.980e-6
-0.880, 6.970e-6
-0.881, 6.961e-6
-0.882, 6.949e-6
-0.883, 6.940e-6
-0.884, 6.932e-6
-0.885, 6.921e-6
-0.886, 6.913e-6
-0.887, 6.902e-6
-0.888, 6.893e-6
-0.889, 6.884e-6
-0.890, 6.873e-6
-0.891, 6.865e-6
-0.892, 6.856e-6
-0.893, 6.847e-6
-0.894, 6.838e-6
-0.895, 6.829e-6
-0.896, 6.821e-6
-0.897, 6.812e-6
-0.898, 6.804e-6
-0.899, 6.795e-6
-0.900, 6.786e-6
-0.901, 6.775e-6
-0.902, 6.768e-6
-0.903, 6.759e-6
-0.904, 6.751e-6
-0.905, 6.742e-6
-0.906, 6.733e-6
-0.907, 6.725e-6
-0.908, 6.716e-6
-0.909, 6.708e-6
-0.910, 6.699e-6
-0.911, 6.692e-6
-0.912, 6.683e-6
-0.913, 6.675e-6
-0.914, 6.667e-6
-0.915, 6.661e-6
-0.916, 6.651e-6
-0.917, 6.644e-6
-0.918, 6.637e-6
-0.919, 6.628e-6
-0.920, 6.622e-6
-0.921, 6.616e-6
-0.922, 6.608e-6
-0.923, 6.600e-6
-0.924, 6.594e-6
-0.925, 6.586e-6
-0.926, 6.579e-6
-0.927, 6.571e-6
-0.928, 6.565e-6
-0.929, 6.558e-6
-0.930, 6.549e-6
-0.931, 6.543e-6
-0.932, 6.536e-6
-0.933, 6.529e-6
-0.934, 6.525e-6
-0.935, 6.516e-6
-0.936, 6.511e-6
-0.937, 6.504e-6
-0.938, 6.496e-6
-0.939, 6.492e-6
-0.940, 6.487e-6
-0.941, 6.481e-6
-0.942, 6.475e-6
-0.943, 6.468e-6
-0.944, 6.462e-6
-0.945, 6.457e-6
-0.946, 6.451e-6
-0.947, 6.446e-6
-0.948, 6.441e-6
-0.949, 6.435e-6
-0.950, 6.428e-6
-0.951, 6.424e-6
-0.952, 6.419e-6
-0.953, 6.411e-6
-0.954, 6.406e-6
-0.955, 6.399e-6
-0.956, 6.392e-6
-0.957, 6.387e-6
-0.958, 6.382e-6
-0.959, 6.377e-6
-0.960, 6.370e-6
-0.961, 6.366e-6
-0.962, 6.359e-6
-0.963, 6.355e-6
-0.964, 6.349e-6
-0.965, 6.343e-6
-0.966, 6.338e-6
-0.967, 6.334e-6
-0.968, 6.329e-6
-0.969, 6.323e-6
-0.970, 6.317e-6
-0.971, 6.313e-6
-0.972, 6.308e-6
-0.973, 6.306e-6
-0.974, 6.301e-6
-0.975, 6.294e-6
-0.976, 6.290e-6
-0.977, 6.285e-6
-0.978, 6.280e-6
-0.979, 6.276e-6
-0.980, 6.271e-6
-0.981, 6.266e-6
-0.982, 6.263e-6
-0.983, 6.258e-6
-0.984, 6.255e-6
-0.985, 6.250e-6
-0.986, 6.245e-6
-0.987, 6.242e-6
-0.988, 6.238e-6
-0.989, 6.235e-6
-0.990, 6.231e-6
-0.991, 6.227e-6
-0.992, 6.223e-6
-0.993, 6.219e-6
-0.994, 6.213e-6
-0.995, 6.209e-6
-0.996, 6.207e-6
-0.997, 6.202e-6
-0.998, 6.201e-6
-0.999, 6.198e-6
-1.000, 6.192e-6
-1.001, 6.190e-6
-1.002, 6.185e-6
-1.003, 6.182e-6
-1.004, 6.179e-6
-1.005, 6.175e-6
-1.006, 6.173e-6
-1.007, 6.169e-6
-1.008, 6.167e-6
-1.009, 6.165e-6
-1.010, 6.160e-6
-1.011, 6.157e-6
-1.012, 6.156e-6
-1.013, 6.151e-6
-1.014, 6.150e-6
-1.015, 6.147e-6
-1.016, 6.144e-6
-1.017, 6.142e-6
-1.018, 6.138e-6
-1.019, 6.138e-6
-1.020, 6.137e-6
-1.021, 6.134e-6
-1.022, 6.133e-6
-1.023, 6.130e-6
-1.024, 6.130e-6
-1.025, 6.128e-6
-1.026, 6.125e-6
-1.027, 6.123e-6
-1.028, 6.122e-6
-1.029, 6.120e-6
-1.030, 6.119e-6
-1.031, 6.118e-6
-1.032, 6.116e-6
-1.033, 6.117e-6
-1.034, 6.115e-6
-1.035, 6.113e-6
-1.036, 6.113e-6
-1.037, 6.112e-6
-1.038, 6.111e-6
-1.039, 6.112e-6
-1.040, 6.109e-6
-1.041, 6.109e-6
-1.042, 6.108e-6
-1.043, 6.109e-6
-1.044, 6.108e-6
-1.045, 6.107e-6
-1.046, 6.107e-6
-1.047, 6.106e-6
-1.048, 6.106e-6
-1.049, 6.108e-6
-1.050, 6.108e-6
-1.051, 6.110e-6
-1.052, 6.111e-6
-1.053, 6.112e-6
-1.054, 6.114e-6
-1.055, 6.113e-6
-1.056, 6.115e-6
-1.057, 6.117e-6
-1.058, 6.118e-6
-1.059, 6.120e-6
-1.060, 6.122e-6
-1.061, 6.122e-6
-1.062, 6.125e-6
-1.063, 6.127e-6
-1.064, 6.129e-6
-1.065, 6.130e-6
-1.066, 6.133e-6
-1.067, 6.135e-6
-1.068, 6.141e-6
-1.069, 6.144e-6
-1.070, 6.146e-6
-1.071, 6.148e-6
-1.072, 6.150e-6
-1.073, 6.154e-6
-1.074, 6.158e-6
-1.075, 6.161e-6
-1.076, 6.166e-6
-1.077, 6.169e-6
-1.078, 6.174e-6
-1.079, 6.178e-6
-1.080, 6.181e-6
-1.081, 6.186e-6
-1.082, 6.188e-6
-1.083, 6.194e-6
-1.084, 6.200e-6
-1.085, 6.202e-6
-1.086, 6.207e-6
-1.087, 6.210e-6
-1.088, 6.217e-6
-1.089, 6.223e-6
-1.090, 6.227e-6
-1.091, 6.235e-6
-1.092, 6.238e-6
-1.093, 6.244e-6
-1.094, 6.251e-6
-1.095, 6.257e-6
-1.096, 6.262e-6
-1.097, 6.269e-6
-1.098, 6.275e-6
-1.099, 6.283e-6
-1.100, 6.289e-6
-1.101, 6.297e-6
-1.102, 6.304e-6
-1.103, 6.310e-6
-1.104, 6.317e-6
-1.105, 6.325e-6
-1.106, 6.332e-6
-1.107, 6.340e-6
-1.108, 6.348e-6
-1.109, 6.355e-6
-1.110, 6.362e-6
-1.111, 6.370e-6
-1.112, 6.376e-6
-1.113, 6.385e-6
-1.114, 6.394e-6
-1.115, 6.401e-6
-1.116, 6.411e-6
-1.117, 6.417e-6
-1.118, 6.427e-6
-1.119, 6.435e-6
-1.120, 6.442e-6
-1.121, 6.453e-6
-1.122, 6.460e-6
-1.123, 6.470e-6
-1.124, 6.479e-6
-1.125, 6.486e-6
-1.126, 6.497e-6
-1.127, 6.504e-6
-1.128, 6.512e-6
-1.129, 6.521e-6
-1.130, 6.528e-6
-1.131, 6.538e-6
-1.132, 6.548e-6
-1.133, 6.557e-6
-1.134, 6.568e-6
-1.135, 6.576e-6
-1.136, 6.586e-6
-1.137, 6.594e-6
-1.138, 6.604e-6
-1.139, 6.614e-6
-1.140, 6.623e-6
-1.141, 6.633e-6
-1.142, 6.644e-6
-1.143, 6.653e-6
-1.144, 6.679e-6
-1.145, 6.698e-6
-1.146, 6.705e-6
-1.147, 6.711e-6
-1.148, 6.718e-6
-1.149, 6.726e-6
-1.150, 6.736e-6
-1.151, 6.746e-6
-1.152, 6.752e-6
-1.153, 6.759e-6
-1.154, 6.775e-6
-1.155, 6.789e-6
-1.156, 6.799e-6
-1.157, 6.806e-6
-1.158, 6.818e-6
-1.159, 6.829e-6
-1.160, 6.836e-6
-1.161, 6.848e-6
-1.162, 6.855e-6
-1.163, 6.865e-6
-1.164, 6.876e-6
-1.165, 6.885e-6
-1.166, 6.896e-6
-1.167, 6.905e-6
-1.168, 6.914e-6
-1.169, 6.924e-6
-1.170, 6.933e-6
-1.171, 6.946e-6
-1.172, 6.955e-6
-1.173, 6.966e-6
-1.174, 6.977e-6
-1.175, 6.987e-6
-1.176, 6.999e-6
-1.177, 7.010e-6
-1.178, 7.023e-6
-1.179, 7.034e-6
-1.180, 7.042e-6
-1.181, 7.052e-6
-1.182, 7.064e-6
-1.183, 7.073e-6
-1.184, 7.086e-6
-1.185, 7.098e-6
-1.186, 7.109e-6
-1.187, 7.119e-6
-1.188, 7.132e-6
-1.189, 7.143e-6
-1.190, 7.153e-6
-1.191, 7.165e-6
-1.192, 7.176e-6
-1.193, 7.190e-6
-1.194, 7.201e-6
-1.195, 7.213e-6
-1.196, 7.225e-6
-1.197, 7.238e-6
-1.198, 7.248e-6
-1.199, 7.260e-6
-1.200, 7.272e-6
-1.201, 7.284e-6
-1.202, 7.295e-6
-1.203, 7.310e-6
-1.204, 7.323e-6
-1.205, 7.332e-6
-1.206, 7.345e-6
-1.207, 7.357e-6
-1.208, 7.368e-6
-1.209, 7.380e-6
-1.210, 7.392e-6
-1.211, 7.403e-6
-1.212, 7.415e-6
-1.213, 7.427e-6
-1.214, 7.441e-6
-1.215, 7.454e-6
-1.216, 7.468e-6
-1.217, 7.481e-6
-1.218, 7.493e-6
-1.219, 7.507e-6
-1.220, 7.518e-6
-1.221, 7.531e-6
-1.222, 7.545e-6
-1.223, 7.559e-6
-1.224, 7.573e-6
-1.225, 7.588e-6
-1.226, 7.603e-6
-1.227, 7.616e-6
-1.228, 7.631e-6
-1.229, 7.651e-6
-1.230, 7.663e-6
-1.231, 7.677e-6
-1.232, 7.691e-6
-1.233, 7.707e-6
-1.234, 7.720e-6
-1.235, 7.732e-6
-1.236, 7.747e-6
-1.237, 7.761e-6
-1.238, 7.777e-6
-1.239, 7.790e-6
-1.240, 7.803e-6
-1.241, 7.818e-6
-1.242, 7.832e-6
-1.243, 7.848e-6
-1.244, 7.865e-6
-1.245, 7.877e-6
-1.246, 7.894e-6
-1.247, 7.906e-6
-1.248, 7.923e-6
-1.249, 7.940e-6
-1.250, 7.954e-6
-1.251, 7.970e-6
-1.252, 7.986e-6
-1.253, 8.002e-6
-1.254, 8.019e-6
-1.255, 8.036e-6
-1.256, 8.052e-6
-1.257, 8.066e-6
-1.258, 8.080e-6
-1.259, 8.098e-6
-1.260, 8.113e-6
-1.261, 8.131e-6
-1.262, 8.150e-6
-1.263, 8.165e-6
-1.264, 8.184e-6
-1.265, 8.201e-6
-1.266, 8.219e-6
-1.267, 8.236e-6
-1.268, 8.255e-6
-1.269, 8.272e-6
-1.270, 8.288e-6
-1.271, 8.308e-6
-1.272, 8.327e-6
-1.273, 8.348e-6
-1.274, 8.366e-6
-1.275, 8.383e-6
-1.276, 8.402e-6
-1.277, 8.419e-6
-1.278, 8.438e-6
-1.279, 8.456e-6
-1.280, 8.476e-6
-1.281, 8.495e-6
-1.282, 8.511e-6
-1.283, 8.531e-6
-1.284, 8.549e-6
-1.285, 8.566e-6
-1.286, 8.585e-6
-1.287, 8.604e-6
-1.288, 8.623e-6
-1.289, 8.641e-6
-1.290, 8.661e-6
-1.291, 8.682e-6
-1.292, 8.701e-6
-1.293, 8.724e-6
-1.294, 8.751e-6
-1.295, 8.767e-6
-1.296, 8.786e-6
-1.297, 8.806e-6
-1.298, 8.826e-6
-1.299, 8.846e-6
-1.300, 8.866e-6
-1.301, 8.887e-6
-1.302, 8.908e-6
-1.303, 8.929e-6
-1.304, 8.952e-6
-1.305, 8.973e-6
-1.306, 8.996e-6
-1.307, 9.020e-6
-1.308, 9.042e-6
-1.309, 9.064e-6
-1.310, 9.085e-6
-1.311, 9.108e-6
-1.312, 9.130e-6
-1.313, 9.155e-6
-1.314, 9.177e-6
-1.315, 9.200e-6
-1.316, 9.222e-6
-1.317, 9.244e-6
-1.318, 9.269e-6
-1.319, 9.291e-6
-1.320, 9.315e-6
-1.321, 9.340e-6
-1.322, 9.362e-6
-1.323, 9.386e-6
-1.324, 9.411e-6
-1.325, 9.433e-6
-1.326, 9.459e-6
-1.327, 9.483e-6
-1.328, 9.510e-6
-1.329, 9.535e-6
-1.330, 9.561e-6
-1.331, 9.585e-6
-1.332, 9.608e-6
-1.333, 9.633e-6
-1.334, 9.656e-6
-1.335, 9.678e-6
-1.336, 9.705e-6
-1.337, 9.733e-6
-1.338, 9.758e-6
-1.339, 9.784e-6
-1.340, 9.809e-6
-1.341, 9.836e-6
-1.342, 9.862e-6
-1.343, 9.889e-6
-1.344, 9.916e-6
-1.345, 9.940e-6
-1.346, 9.968e-6
-1.347, 9.994e-6
-1.348, 1.002e-5
-1.349, 1.005e-5
-1.350, 1.008e-5
-1.351, 1.010e-5
-1.352, 1.013e-5
-1.353, 1.016e-5
-1.354, 1.018e-5
-1.355, 1.021e-5
-1.356, 1.024e-5
-1.357, 1.027e-5
-1.358, 1.030e-5
-1.359, 1.032e-5
-1.360, 1.035e-5
-1.361, 1.038e-5
-1.362, 1.041e-5
-1.363, 1.044e-5
-1.364, 1.047e-5
-1.365, 1.049e-5
-1.366, 1.053e-5
-1.367, 1.056e-5
-1.368, 1.059e-5
-1.369, 1.062e-5
-1.370, 1.065e-5
-1.371, 1.068e-5
-1.372, 1.071e-5
-1.373, 1.075e-5
-1.374, 1.078e-5
-1.375, 1.081e-5
-1.376, 1.084e-5
-1.377, 1.088e-5
-1.378, 1.091e-5
-1.379, 1.094e-5
-1.380, 1.097e-5
-1.381, 1.101e-5
-1.382, 1.104e-5
-1.383, 1.108e-5
-1.384, 1.111e-5
-1.385, 1.114e-5
-1.386, 1.118e-5
-1.387, 1.122e-5
-1.388, 1.125e-5
-1.389, 1.129e-5
-1.390, 1.132e-5
-1.391, 1.135e-5
-1.392, 1.139e-5
-1.393, 1.143e-5
-1.394, 1.146e-5
-1.395, 1.150e-5
-1.396, 1.153e-5
-1.397, 1.157e-5
-1.398, 1.161e-5
-1.399, 1.164e-5
-1.400, 1.168e-5
-1.401, 1.172e-5
-1.402, 1.176e-5
-1.403, 1.180e-5
-1.404, 1.184e-5
-1.405, 1.187e-5
-1.406, 1.192e-5
-1.407, 1.195e-5
-1.408, 1.199e-5
-1.409, 1.202e-5
-1.410, 1.205e-5
-1.411, 1.209e-5
-1.412, 1.213e-5
-1.413, 1.217e-5
-1.414, 1.221e-5
-1.415, 1.225e-5
-1.416, 1.229e-5
-1.417, 1.234e-5
-1.418, 1.238e-5
-1.419, 1.242e-5
-1.420, 1.246e-5
-1.421, 1.251e-5
-1.422, 1.256e-5
-1.423, 1.260e-5
-1.424, 1.264e-5
-1.425, 1.268e-5
-1.426, 1.273e-5
-1.427, 1.278e-5
-1.428, 1.282e-5
-1.429, 1.287e-5
-1.430, 1.292e-5
-1.431, 1.297e-5
-1.432, 1.301e-5
-1.433, 1.306e-5
-1.434, 1.310e-5
-1.435, 1.315e-5
-1.436, 1.320e-5
-1.437, 1.325e-5
-1.438, 1.330e-5
-1.439, 1.335e-5
-1.440, 1.340e-5
-1.441, 1.345e-5
-1.442, 1.350e-5
-1.443, 1.355e-5
-1.444, 1.360e-5
-1.445, 1.366e-5
-1.446, 1.371e-5
-1.447, 1.377e-5
-1.448, 1.382e-5
-1.449, 1.387e-5
-1.450, 1.392e-5
-1.451, 1.398e-5
-1.452, 1.403e-5
-1.453, 1.408e-5
-1.454, 1.414e-5
-1.455, 1.419e-5
-1.456, 1.425e-5
-1.457, 1.431e-5
-1.458, 1.437e-5
-1.459, 1.443e-5
-1.460, 1.449e-5
-1.461, 1.454e-5
-1.462, 1.461e-5
-1.463, 1.467e-5
-1.464, 1.473e-5
-1.465, 1.479e-5
-1.466, 1.485e-5
-1.467, 1.492e-5
-1.468, 1.498e-5
-1.469, 1.504e-5
-1.470, 1.511e-5
-1.471, 1.518e-5
-1.472, 1.525e-5
-1.473, 1.532e-5
-1.474, 1.539e-5
-1.475, 1.545e-5
-1.476, 1.551e-5
-1.477, 1.557e-5
-1.478, 1.565e-5
-1.479, 1.571e-5
-1.480, 1.579e-5
-1.481, 1.586e-5
-1.482, 1.593e-5
-1.483, 1.600e-5
-1.484, 1.608e-5
-1.485, 1.615e-5
-1.486, 1.623e-5
-1.487, 1.630e-5
-1.488, 1.638e-5
-1.489, 1.645e-5
-1.490, 1.653e-5
-1.491, 1.660e-5
-1.492, 1.668e-5
-1.493, 1.675e-5
-1.494, 1.684e-5
-1.495, 1.692e-5
-1.496, 1.700e-5
-1.497, 1.708e-5
-1.498, 1.717e-5
-1.499, 1.725e-5
-1.500, 1.734e-5
-1.501, 1.741e-5
-1.502, 1.750e-5
-1.503, 1.759e-5
-1.504, 1.768e-5
-1.505, 1.777e-5
-1.506, 1.785e-5
-1.507, 1.794e-5
-1.508, 1.803e-5
-1.509, 1.812e-5
-1.510, 1.821e-5
-1.511, 1.830e-5
-1.512, 1.840e-5
-1.513, 1.850e-5
-1.514, 1.860e-5
-1.515, 1.871e-5
-1.516, 1.881e-5
-1.517, 1.892e-5
-1.518, 1.902e-5
-1.519, 1.912e-5
-1.520, 1.923e-5
-1.521, 1.934e-5
-1.522, 1.944e-5
-1.523, 1.954e-5
-1.524, 1.965e-5
-1.525, 1.976e-5
-1.526, 1.987e-5
-1.527, 1.998e-5
-1.528, 2.009e-5
-1.529, 2.021e-5
-1.530, 2.033e-5
-1.531, 2.045e-5
-1.532, 2.056e-5
-1.533, 2.068e-5
-1.534, 2.081e-5
-1.535, 2.093e-5
-1.536, 2.106e-5
-1.537, 2.118e-5
-1.538, 2.132e-5
-1.539, 2.145e-5
-1.540, 2.158e-5
-1.541, 2.171e-5
-1.542, 2.185e-5
-1.543, 2.198e-5
-1.544, 2.212e-5
-1.545, 2.226e-5
-1.546, 2.241e-5
-1.547, 2.255e-5
-1.548, 2.270e-5
-1.549, 2.285e-5
-1.550, 2.300e-5
-1.551, 2.316e-5
-1.552, 2.332e-5
-1.553, 2.348e-5
-1.554, 2.363e-5
-1.555, 2.380e-5
-1.556, 2.397e-5
-1.557, 2.414e-5
-1.558, 2.430e-5
-1.559, 2.447e-5
-1.560, 2.465e-5
-1.561, 2.483e-5
-1.562, 2.501e-5
-1.563, 2.519e-5
-1.564, 2.538e-5
-1.565, 2.557e-5
-1.566, 2.576e-5
-1.567, 2.594e-5
-1.568, 2.614e-5
-1.569, 2.634e-5
-1.570, 2.654e-5
-1.571, 2.675e-5
-1.572, 2.695e-5
-1.573, 2.717e-5
-1.574, 2.738e-5
-1.575, 2.760e-5
-1.576, 2.782e-5
-1.577, 2.804e-5
-1.578, 2.827e-5
-1.579, 2.850e-5
-1.580, 2.874e-5
-1.581, 2.898e-5
-1.582, 2.923e-5
-1.583, 2.947e-5
-1.584, 2.972e-5
-1.585, 2.996e-5
-1.586, 3.022e-5
-1.587, 3.049e-5
-1.588, 3.077e-5
-1.589, 3.104e-5
-1.590, 3.132e-5
-1.591, 3.160e-5
-1.592, 3.190e-5
-1.593, 3.220e-5
-1.594, 3.251e-5
-1.595, 3.282e-5
-1.596, 3.312e-5
-1.597, 3.344e-5
-1.598, 3.376e-5
-1.599, 3.407e-5
-1.600, 3.440e-5
-1.601, 3.473e-5
-1.602, 3.506e-5
-1.603, 3.541e-5
-1.604, 3.576e-5
-1.605, 3.613e-5
-1.606, 3.648e-5
-1.607, 3.685e-5
-1.608, 3.722e-5
-1.609, 3.759e-5
-1.610, 3.797e-5
-1.611, 3.837e-5
-1.612, 3.876e-5
-1.613, 3.917e-5
-1.614, 3.959e-5
-1.615, 4.001e-5
-1.616, 4.043e-5
-1.617, 4.086e-5
-1.618, 4.130e-5
-1.619, 4.174e-5
-1.620, 4.219e-5
-1.621, 4.265e-5
-1.622, 4.313e-5
-1.623, 4.360e-5
-1.624, 4.408e-5
-1.625, 4.457e-5
-1.626, 4.508e-5
-1.627, 4.560e-5
-1.628, 4.613e-5
-1.629, 4.665e-5
-1.630, 4.720e-5
-1.631, 4.779e-5
-1.632, 4.834e-5
-1.633, 4.892e-5
-1.634, 4.949e-5
-1.635, 5.008e-5
-1.636, 5.068e-5
-1.637, 5.134e-5
-1.638, 5.199e-5
-1.639, 5.264e-5
-1.640, 5.328e-5
-1.641, 5.393e-5
-1.642, 5.462e-5
-1.643, 5.530e-5
-1.644, 5.598e-5
-1.645, 5.667e-5
-1.646, 5.741e-5
-1.647, 5.818e-5
-1.648, 5.899e-5
-1.649, 5.974e-5
-1.650, 6.050e-5
-1.651, 6.125e-5
-1.652, 6.200e-5
-1.653, 6.279e-5
-1.654, 6.359e-5
-1.655, 6.441e-5
-1.656, 6.523e-5
-1.657, 6.605e-5
-1.658, 6.690e-5
-1.659, 6.776e-5
-1.660, 6.863e-5
-1.661, 6.953e-5
-1.662, 7.047e-5
-1.663, 7.142e-5
-1.664, 7.237e-5
-1.665, 7.329e-5
-1.666, 7.426e-5
-1.667, 7.527e-5
-1.668, 7.629e-5
-1.669, 7.729e-5
-1.670, 7.836e-5
-1.671, 7.942e-5
-1.672, 8.044e-5
-1.673, 8.152e-5
-1.674, 8.264e-5
-1.675, 8.376e-5
-1.676, 8.492e-5
-1.677, 8.609e-5
-1.678, 8.726e-5
-1.679, 8.841e-5
-1.680, 8.955e-5
-1.681, 9.076e-5
-1.682, 9.199e-5
-1.683, 9.328e-5
-1.684, 9.458e-5
-1.685, 9.589e-5
-1.686, 9.721e-5
-1.687, 9.856e-5
-1.688, 9.989e-5
-1.689, 1.013e-4
-1.690, 1.027e-4
-1.691, 1.041e-4
-1.692, 1.056e-4
-1.693, 1.070e-4
-1.694, 1.085e-4
-1.695, 1.101e-4
-1.696, 1.116e-4
-1.697, 1.131e-4
-1.698, 1.147e-4
-1.699, 1.164e-4
-1.700, 1.180e-4
-1.701, 1.196e-4
-1.702, 1.213e-4
-1.703, 1.230e-4
-1.704, 1.248e-4
-1.705, 1.266e-4
-1.706, 1.284e-4
-1.707, 1.303e-4
-1.708, 1.322e-4
-1.709, 1.341e-4
-1.710, 1.361e-4
-1.711, 1.381e-4
-1.712, 1.401e-4
-1.713, 1.422e-4
-1.714, 1.443e-4
-1.715, 1.465e-4
-1.716, 1.487e-4
-1.717, 1.510e-4
-1.718, 1.533e-4
-1.719, 1.556e-4
-1.720, 1.579e-4
-1.721, 1.604e-4
-1.722, 1.628e-4
-1.723, 1.654e-4
-1.724, 1.680e-4
-1.725, 1.707e-4
-1.726, 1.733e-4
-1.727, 1.761e-4
-1.728, 1.789e-4
-1.729, 1.817e-4
-1.730, 1.847e-4
-1.731, 1.876e-4
-1.732, 1.907e-4
-1.733, 1.938e-4
-1.734, 1.970e-4
-1.735, 2.003e-4
-1.736, 2.036e-4
-1.737, 2.070e-4
-1.738, 2.105e-4
-1.739, 2.141e-4
-1.740, 2.178e-4
-1.741, 2.215e-4
-1.742, 2.253e-4
-1.743, 2.292e-4
-1.744, 2.332e-4
-1.745, 2.372e-4
-1.746, 2.413e-4
-1.747, 2.455e-4
-1.748, 2.499e-4
-1.749, 2.542e-4
-1.750, 2.588e-4
-1.751, 2.634e-4
-1.752, 2.681e-4
-1.753, 2.729e-4
-1.754, 2.778e-4
-1.755, 2.828e-4
-1.756, 2.880e-4
-1.757, 2.933e-4
-1.758, 2.986e-4
-1.759, 3.040e-4
-1.760, 3.095e-4
-1.761, 3.151e-4
-1.762, 3.209e-4
-1.763, 3.266e-4
-1.764, 3.324e-4
-1.765, 3.383e-4
-1.766, 3.441e-4
-1.767, 3.501e-4
-1.768, 3.561e-4
-1.769, 3.621e-4
-1.770, 3.682e-4
-1.771, 3.743e-4
-1.772, 3.804e-4
-1.773, 3.866e-4
-1.774, 3.929e-4
-1.775, 3.992e-4
-1.776, 4.055e-4
-1.777, 4.116e-4
-1.778, 4.178e-4
-1.779, 4.242e-4
-1.780, 4.305e-4
-1.781, 4.368e-4
-1.782, 4.432e-4
-1.783, 4.497e-4
-1.784, 4.563e-4
-1.785, 4.628e-4
-1.786, 4.693e-4
-1.787, 4.758e-4
-1.788, 4.824e-4
-1.789, 4.891e-4
-1.790, 4.958e-4
-1.791, 5.025e-4
-1.792, 5.093e-4
-1.793, 5.161e-4
-1.794, 5.228e-4
-1.795, 5.298e-4
-1.796, 5.367e-4
-1.797, 5.436e-4
-1.798, 5.505e-4
-1.799, 5.575e-4
-1.800, 5.645e-4
-1.801, 5.714e-4
-1.802, 5.785e-4
-1.803, 5.856e-4
-1.804, 5.927e-4
-1.805, 5.997e-4
-1.806, 6.068e-4
-1.807, 6.139e-4
-1.808, 6.211e-4
-1.809, 6.284e-4
-1.810, 6.357e-4
-1.811, 6.429e-4
-1.812, 6.502e-4
-1.813, 6.575e-4
-1.814, 6.649e-4
-1.815, 6.722e-4
-1.816, 6.796e-4
-1.817, 6.869e-4
-1.818, 6.944e-4
-1.819, 7.019e-4
-1.820, 7.094e-4
-1.821, 7.169e-4
-1.822, 7.244e-4
-1.823, 7.319e-4
-1.824, 7.394e-4
-1.825, 7.470e-4
-1.826, 7.546e-4
-1.827, 7.622e-4
-1.828, 7.698e-4
-1.829, 7.774e-4
-1.830, 7.850e-4
-1.831, 7.927e-4
-1.832, 8.005e-4
-1.833, 8.083e-4
-1.834, 8.161e-4
-1.835, 8.239e-4
-1.836, 8.318e-4
-1.837, 8.396e-4
-1.838, 8.475e-4
-1.839, 8.554e-4
-1.840, 8.634e-4
-1.841, 8.713e-4
-1.842, 8.793e-4
-1.843, 8.872e-4
-1.844, 8.953e-4
-1.845, 9.033e-4
-1.846, 9.113e-4
-1.847, 9.193e-4
-1.848, 9.273e-4
-1.849, 9.354e-4
-1.850, 9.434e-4
-1.851, 9.515e-4
-1.852, 9.596e-4
-1.853, 9.677e-4
-1.854, 9.759e-4
-1.855, 9.840e-4
-1.856, 9.924e-4
-1.857, 1.001e-3
-1.858, 1.009e-3
-1.859, 1.011e-3
-1.860, 1.011e-3
-1.861, 1.011e-3
-1.862, 1.011e-3
-1.863, 1.011e-3
-1.864, 1.011e-3
-1.865, 1.011e-3
-1.866, 1.011e-3
-1.867, 1.011e-3
-1.868, 1.011e-3
-1.869, 1.011e-3
-1.870, 1.011e-3
-1.871, 1.011e-3
-1.872, 1.011e-3
-1.873, 1.011e-3
-1.874, 1.011e-3
-1.875, 1.011e-3
-1.876, 1.011e-3
-1.877, 1.011e-3
-1.878, 1.011e-3
-1.879, 1.011e-3
-1.880, 1.011e-3
-1.881, 1.011e-3
-1.882, 1.011e-3
-1.883, 1.011e-3
-1.884, 1.011e-3
-1.885, 1.011e-3
-1.886, 1.011e-3
-1.887, 1.011e-3
-1.888, 1.011e-3
-1.889, 1.011e-3
-1.890, 1.011e-3
-1.891, 1.011e-3
-1.892, 1.011e-3
-1.893, 1.011e-3
-1.894, 1.011e-3
-1.895, 1.011e-3
-1.896, 1.011e-3
-1.897, 1.011e-3
-1.898, 1.011e-3
-1.899, 1.011e-3
-1.900, 1.011e-3
-1.901, 1.011e-3
-1.902, 1.011e-3
-1.903, 1.011e-3
-1.904, 1.011e-3
-1.905, 1.011e-3
-1.906, 1.011e-3
-1.907, 1.011e-3
-1.908, 1.011e-3
-1.909, 1.011e-3
-1.910, 1.011e-3
-1.911, 1.011e-3
-1.912, 1.011e-3
-1.913, 1.011e-3
-1.914, 1.011e-3
-1.915, 1.011e-3
-1.916, 1.011e-3
-1.917, 1.011e-3
-1.918, 1.011e-3
-1.919, 1.011e-3
-1.920, 1.011e-3
-1.921, 1.011e-3
-1.922, 1.011e-3
-1.923, 1.011e-3
-1.924, 1.011e-3
-1.925, 1.011e-3
-1.926, 1.011e-3
-1.927, 1.011e-3
-1.928, 1.011e-3
-1.929, 1.011e-3
-1.930, 1.011e-3
-1.931, 1.011e-3
-1.932, 1.011e-3
-1.933, 1.011e-3
-1.934, 1.011e-3
-1.935, 1.011e-3
-1.936, 1.011e-3
-1.937, 1.011e-3
-1.938, 1.011e-3
-1.939, 1.011e-3
-1.940, 1.011e-3
-1.941, 1.011e-3
-1.942, 1.011e-3
-1.943, 1.011e-3
-1.944, 1.011e-3
-1.945, 1.011e-3
-1.946, 1.011e-3
-1.947, 1.011e-3
-1.948, 1.011e-3
-1.949, 1.011e-3
-1.950, 1.011e-3
-1.951, 1.011e-3
-1.952, 1.011e-3
-1.953, 1.011e-3
-1.954, 1.011e-3
-1.955, 1.011e-3
-1.956, 1.011e-3
-1.957, 1.011e-3
-1.958, 1.011e-3
-1.959, 1.011e-3
-1.960, 1.011e-3
-1.961, 1.011e-3
-1.962, 1.011e-3
-1.963, 1.011e-3
-1.964, 1.011e-3
-1.965, 1.011e-3
-1.966, 1.011e-3
-1.967, 1.011e-3
-1.968, 1.011e-3
-1.969, 1.011e-3
-1.970, 1.011e-3
-1.971, 1.011e-3
-1.972, 1.011e-3
-1.973, 1.011e-3
-1.974, 1.011e-3
-1.975, 1.011e-3
-1.976, 1.011e-3
-1.977, 1.011e-3
-1.978, 1.011e-3
-1.979, 1.011e-3
-1.980, 1.011e-3
-1.981, 1.011e-3
-1.982, 1.011e-3
-1.983, 1.011e-3
-1.984, 1.011e-3
-1.985, 1.011e-3
-1.986, 1.011e-3
-1.987, 1.011e-3
-1.988, 1.011e-3
-1.989, 1.011e-3
-1.990, 1.011e-3
-1.991, 1.011e-3
-1.992, 1.011e-3
-1.993, 1.011e-3
-1.994, 1.011e-3
-1.995, 1.011e-3
-1.996, 1.011e-3
-1.997, 1.011e-3
-1.998, 1.011e-3
-1.999, 1.011e-3
-2.000, 1.011e-3
-2.001, 1.011e-3
-2.002, 1.011e-3
-2.003, 1.011e-3
-2.004, 1.011e-3
-2.005, 1.011e-3
-2.006, 1.011e-3
-2.007, 1.011e-3
-2.008, 1.011e-3
-2.009, 1.011e-3
-2.010, 1.011e-3
-2.011, 1.011e-3
-2.012, 1.011e-3
-2.013, 1.011e-3
-2.014, 1.011e-3
-2.015, 1.011e-3
-2.016, 1.011e-3
-2.017, 1.011e-3
-2.018, 1.011e-3
-2.019, 1.011e-3
-2.020, 1.011e-3
-2.021, 1.011e-3
-2.022, 1.011e-3
-2.023, 1.011e-3
-2.024, 1.011e-3
-2.025, 1.011e-3
-2.026, 1.011e-3
-2.027, 1.011e-3
-2.028, 1.011e-3
-2.029, 1.011e-3
-2.030, 1.011e-3
-2.031, 1.011e-3
-2.032, 1.011e-3
-2.033, 1.011e-3
-2.034, 1.011e-3
-2.035, 1.011e-3
-2.036, 1.011e-3
-2.037, 1.011e-3
-2.038, 1.011e-3
-2.039, 1.011e-3
-2.040, 1.011e-3
-2.041, 1.011e-3
-2.042, 1.011e-3
-2.043, 1.011e-3
-2.044, 1.011e-3
-2.045, 1.011e-3
-2.046, 1.011e-3
-2.047, 1.011e-3
-2.048, 1.011e-3
-2.049, 1.011e-3
-2.050, 1.011e-3
-2.051, 1.011e-3
-2.052, 1.011e-3
-2.053, 1.011e-3
-2.054, 1.011e-3
-2.055, 1.011e-3
-2.056, 1.011e-3
-2.057, 1.011e-3
-2.058, 1.011e-3
-2.059, 1.011e-3
-2.060, 1.011e-3
-2.061, 1.011e-3
-2.062, 1.011e-3
-2.063, 1.011e-3
-2.064, 1.011e-3
-2.065, 1.011e-3
-2.066, 1.011e-3
-2.067, 1.011e-3
-2.068, 1.011e-3
-2.069, 1.011e-3
-2.070, 1.011e-3
-2.071, 1.011e-3
-2.072, 1.011e-3
-2.073, 1.011e-3
-2.074, 1.011e-3
-2.075, 1.011e-3
-2.076, 1.011e-3
-2.077, 1.011e-3
-2.078, 1.011e-3
-2.079, 1.011e-3
-2.080, 1.011e-3
-2.081, 1.011e-3
-2.082, 1.011e-3
-2.083, 1.011e-3
-2.084, 1.011e-3
-2.085, 1.011e-3
-2.086, 1.011e-3
-2.087, 1.011e-3
-2.088, 1.011e-3
-2.089, 1.011e-3
-2.090, 1.011e-3
-2.091, 1.011e-3
-2.092, 1.011e-3
-2.093, 1.011e-3
-2.094, 1.011e-3
-2.095, 1.011e-3
-2.096, 1.011e-3
-2.097, 1.011e-3
-2.098, 1.011e-3
-2.099, 1.011e-3
-2.100, 1.011e-3
-2.101, 1.011e-3
-2.102, 1.011e-3
-2.103, 1.011e-3
-2.104, 1.011e-3
-2.105, 1.011e-3
-2.106, 1.011e-3
-2.107, 1.011e-3
-2.108, 1.011e-3
-2.109, 1.011e-3
-2.110, 1.011e-3
-2.111, 1.011e-3
-2.112, 1.011e-3
-2.113, 1.011e-3
-2.114, 1.011e-3
-2.115, 1.011e-3
-2.116, 1.011e-3
-2.117, 1.011e-3
-2.118, 1.011e-3
-2.119, 1.011e-3
-2.120, 1.011e-3
-2.121, 1.011e-3
-2.122, 1.011e-3
-2.123, 1.011e-3
-2.124, 1.011e-3
-2.125, 1.011e-3
-2.126, 1.011e-3
-2.127, 1.011e-3
-2.128, 1.011e-3
-2.129, 1.011e-3
-2.130, 1.011e-3
-2.131, 1.011e-3
-2.132, 1.011e-3
-2.133, 1.011e-3
-2.134, 1.011e-3
-2.135, 1.011e-3
-2.136, 1.011e-3
-2.137, 1.011e-3
-2.138, 1.011e-3
-2.139, 1.011e-3
-2.140, 1.011e-3
-2.141, 1.011e-3
-2.142, 1.011e-3
-2.143, 1.011e-3
-2.144, 1.011e-3
-2.145, 1.011e-3
-2.146, 1.011e-3
-2.147, 1.011e-3
-2.148, 1.011e-3
-2.149, 1.011e-3
-2.150, 1.011e-3
-2.151, 1.011e-3
-2.152, 1.011e-3
-2.153, 1.011e-3
-2.154, 1.011e-3
-2.155, 1.011e-3
-2.156, 1.011e-3
-2.157, 1.011e-3
-2.158, 1.011e-3
-2.159, 1.011e-3
-2.160, 1.011e-3
-2.161, 1.011e-3
-2.162, 1.011e-3
-2.163, 1.011e-3
-2.164, 1.011e-3
-2.165, 1.011e-3
-2.166, 1.011e-3
-2.167, 1.011e-3
-2.168, 1.011e-3
-2.169, 1.011e-3
-2.170, 1.011e-3
-2.171, 1.011e-3
-2.172, 1.011e-3
-2.173, 1.011e-3
-2.174, 1.011e-3
-2.175, 1.011e-3
-2.176, 1.011e-3
-2.177, 1.011e-3
-2.178, 1.011e-3
-2.179, 1.011e-3
-2.180, 1.011e-3
-2.181, 1.011e-3
-2.182, 1.011e-3
-2.183, 1.011e-3
-2.184, 1.011e-3
-2.185, 1.011e-3
-2.186, 1.011e-3
-2.187, 1.011e-3
-2.188, 1.011e-3
-2.189, 1.011e-3
-2.190, 1.011e-3
-2.191, 1.011e-3
-2.192, 1.011e-3
-2.193, 1.011e-3
-2.194, 1.011e-3
-2.195, 1.011e-3
-2.196, 1.011e-3
-2.197, 1.011e-3
-2.198, 1.011e-3
-2.199, 1.011e-3
-2.200, 1.011e-3
-2.201, 1.011e-3
-2.202, 1.011e-3
-2.203, 1.011e-3
-2.204, 1.011e-3
-2.205, 1.011e-3
-2.206, 1.011e-3
-2.207, 1.011e-3
-2.208, 1.011e-3
-2.209, 1.011e-3
-2.210, 1.011e-3
-2.211, 1.011e-3
-2.212, 1.011e-3
-2.213, 1.011e-3
-2.214, 1.011e-3
-2.215, 1.011e-3
-2.216, 1.011e-3
-2.217, 1.011e-3
-2.218, 1.011e-3
-2.219, 1.011e-3
-2.220, 1.011e-3
-2.221, 1.011e-3
-2.222, 1.011e-3
-2.223, 1.011e-3
-2.224, 1.011e-3
-2.225, 1.011e-3
-2.226, 1.011e-3
-2.227, 1.011e-3
-2.228, 1.011e-3
-2.229, 1.011e-3
-2.230, 1.011e-3
-2.231, 1.011e-3
-2.232, 1.011e-3
-2.233, 1.011e-3
-2.234, 1.011e-3
-2.235, 1.011e-3
-2.236, 1.011e-3
-2.237, 1.011e-3
-2.238, 1.011e-3
-2.239, 1.011e-3
-2.240, 1.011e-3
-2.241, 1.011e-3
-2.242, 1.011e-3
-2.243, 1.011e-3
-2.244, 1.011e-3
-2.245, 1.011e-3
-2.246, 1.011e-3
-2.247, 1.011e-3
-2.248, 1.011e-3
-2.249, 1.011e-3
-2.250, 1.011e-3
-2.251, 1.011e-3
-2.252, 1.011e-3
-2.253, 1.011e-3
-2.254, 1.011e-3
-2.255, 1.011e-3
-2.256, 1.011e-3
-2.257, 1.011e-3
-2.258, 1.011e-3
-2.259, 1.011e-3
-2.260, 1.011e-3
-2.261, 1.011e-3
-2.262, 1.011e-3
-2.263, 1.011e-3
-2.264, 1.011e-3
-2.265, 1.011e-3
-2.266, 1.011e-3
-2.267, 1.011e-3
-2.268, 1.011e-3
-2.269, 1.011e-3
-2.270, 1.011e-3
-2.271, 1.011e-3
-2.272, 1.011e-3
-2.273, 1.011e-3
-2.274, 1.011e-3
-2.275, 1.011e-3
-2.276, 1.011e-3
-2.277, 1.011e-3
-2.278, 1.011e-3
-2.279, 1.011e-3
-2.280, 1.011e-3
-2.281, 1.011e-3
-2.282, 1.011e-3
-2.283, 1.011e-3
-2.284, 1.011e-3
-2.285, 1.011e-3
-2.286, 1.011e-3
-2.287, 1.011e-3
-2.288, 1.011e-3
-2.289, 1.011e-3
-2.290, 1.011e-3
-2.291, 1.011e-3
-2.292, 1.011e-3
-2.293, 1.011e-3
-2.294, 1.011e-3
-2.295, 1.011e-3
-2.296, 1.011e-3
-2.297, 1.011e-3
-2.298, 1.011e-3
-2.299, 1.011e-3
