Potential V vs RHE, Current mA cm-2
0.013299999999999867,-0.3947044526623452
0.012299999999999978,-2.8803522065252145
0.011299999999999866,-5.017980980621284
0.010299999999999976,-6.981600264833956
0.009299999999999864,-8.812236686859313
0.008299999999999974,-10.470278330301136
0.007299999999999862,-12.040607873151327
0.006299999999999972,-13.47936926511407
0.00529999999999986,-14.826174422585586
0.0042999999999999705,-16.141855931460068
0.0032999999999998586,-17.2736249713521
0.0022999999999999687,-18.44783535024008
0.0012999999999998568,-19.49472171214021
0.00029999999999996696,-20.456725396048434
-0.000700000000000145,-21.376287740960702
-0.0017000000000000348,-22.15437895588647
-0.0027000000000001467,-22.946617283810895
-0.0037000000000000366,-23.682267159740714
-0.0047000000000001485,-24.389622809673234
-0.005700000000000038,-24.997948668615198
-0.00670000000000015,-25.60627452755716
-0.00770000000000004,-26.21460038649913
-0.008700000000000152,-26.822926245441096
-0.009700000000000042,-27.34636942639116
-0.010700000000000154,-27.869812607341224
-0.011700000000000044,-28.350814449295335
-0.012700000000000156,-28.789374952253496
-0.013700000000000045,-29.18549411621571
-0.014700000000000157,-29.581613280177915
-0.015700000000000047,-29.921143992145527
-0.01670000000000016,-30.232380478115836
-0.01770000000000005,-30.529469851087494
-0.01870000000000016,-30.79826499806185
-0.01970000000000005,-31.010471693041605
-0.020700000000000163,-31.23682550102001
-0.021700000000000053,-31.449032195999767
-0.022700000000000164,-31.661238890979522
-0.023700000000000054,-31.84515135996197
-0.024700000000000166,-32.01491671594578
-0.025700000000000056,-32.24127052392419
-0.026700000000000168,-32.368594540912035
-0.027700000000000058,-32.53835989689585
-0.02870000000000017,-32.66568391388369
-0.02970000000000006,-32.764713704874254
-0.03070000000000017,-32.892037721862096
-0.03170000000000006,-32.93447906085806
-0.03270000000000017,-32.97692039985401
-0.03370000000000006,-33.10424441684186
-0.034700000000000175,-33.18912709483376
-0.035700000000000065,-33.288156885824314
-0.03670000000000018,-33.373039563816214
-0.03770000000000007,-33.50036358080407
-0.03870000000000018,-33.58524625879597
-0.03970000000000007,-33.670128936787876
-0.04070000000000018,-33.670128936787876
-0.04170000000000007,-33.712570275783825
-0.04270000000000018,-33.712570275783825
-0.04370000000000007,-33.712570275783825
-0.044700000000000184,-33.755011614779775
-0.045700000000000074,-33.755011614779775
-0.046700000000000186,-33.755011614779775
-0.047700000000000076,-33.81160006677438
-0.04870000000000019,-33.85404140577033
-0.04970000000000008,-33.93892408376223
-0.05070000000000019,-33.98136542275818
-0.05170000000000008,-34.02380676175414
-0.05270000000000019,-33.98136542275818
-0.05370000000000008,-34.02380676175414
-0.05470000000000019,-34.02380676175414
-0.05570000000000008,-34.02380676175414
-0.056700000000000195,-33.98136542275818
-0.057700000000000085,-33.98136542275818
-0.058700000000000196,-33.98136542275818
-0.059700000000000086,-33.98136542275818
-0.0607000000000002,-33.98136542275818
-0.06170000000000009,-34.02380676175414
-0.0627000000000002,-34.06624810075008
-0.06370000000000009,-34.02380676175414
-0.0647000000000002,-34.06624810075008
-0.06570000000000009,-34.06624810075008
-0.0667000000000002,-34.02380676175414
-0.0677000000000001,-34.06624810075008
-0.0687000000000002,-34.02380676175414
-0.0697000000000001,-33.98136542275818
-0.07070000000000021,-33.93892408376223
-0.0717000000000001,-33.89648274476628
-0.07270000000000021,-33.89648274476628
-0.0737000000000001,-33.89648274476628
-0.07470000000000021,-33.85404140577033
-0.0757000000000001,-33.85404140577033
-0.07670000000000021,-33.85404140577033
-0.0777000000000001,-33.85404140577033
-0.07870000000000021,-33.85404140577033
-0.0797000000000001,-33.85404140577033
-0.08070000000000022,-33.81160006677438
-0.0817000000000001,-33.712570275783825
-0.08270000000000022,-33.670128936787876
-0.08370000000000011,-33.627687597791926
-0.08470000000000022,-33.58524625879597
-0.08570000000000011,-33.58524625879597
-0.08670000000000022,-33.54280491980002
-0.08770000000000011,-33.50036358080407
-0.08870000000000022,-33.50036358080407
-0.08970000000000011,-33.50036358080407
-0.09070000000000022,-33.50036358080407
-0.09170000000000011,-33.50036358080407
-0.09270000000000023,-33.50036358080407
-0.09370000000000012,-33.50036358080407
-0.09470000000000023,-33.45792224180811
-0.09570000000000012,-33.41548090281216
-0.09670000000000023,-33.373039563816214
-0.09770000000000012,-33.373039563816214
-0.09870000000000023,-33.373039563816214
-0.09970000000000012,-33.330598224820264
-0.10070000000000023,-33.330598224820264
-0.10170000000000012,-33.288156885824314
-0.10270000000000024,-33.330598224820264
-0.10370000000000013,-33.330598224820264
-0.10470000000000024,-33.373039563816214
-0.10570000000000013,-33.373039563816214
-0.10670000000000024,-33.373039563816214
-0.10770000000000013,-33.373039563816214
-0.10870000000000024,-33.330598224820264
-0.10970000000000013,-33.330598224820264
-0.11070000000000024,-33.288156885824314
-0.11170000000000013,-33.288156885824314
-0.11270000000000002,-33.231568433829715
-0.11370000000000013,-33.288156885824314
-0.11470000000000002,-33.288156885824314
-0.11570000000000014,-33.330598224820264
-0.11670000000000003,-33.288156885824314
-0.11770000000000014,-33.373039563816214
-0.11870000000000003,-33.373039563816214
-0.11970000000000014,-33.41548090281216
-0.12070000000000003,-33.373039563816214
-0.12170000000000014,-33.373039563816214
-0.12270000000000003,-33.330598224820264
-0.12370000000000014,-33.373039563816214
-0.12470000000000003,-33.330598224820264
-0.12570000000000014,-33.330598224820264
-0.12670000000000003,-33.373039563816214
-0.12770000000000015,-33.373039563816214
-0.12870000000000004,-33.41548090281216
-0.12970000000000015,-33.45792224180811
-0.13070000000000004,-33.50036358080407
-0.13170000000000015,-33.58524625879597
-0.13270000000000004,-33.58524625879597
-0.13370000000000015,-33.627687597791926
-0.13470000000000004,-33.627687597791926
-0.13570000000000015,-33.627687597791926
-0.13670000000000004,-33.670128936787876
-0.13770000000000016,-33.670128936787876
-0.13870000000000005,-33.670128936787876
-0.13970000000000016,-33.712570275783825
-0.14070000000000005,-33.755011614779775
-0.14170000000000016,-33.81160006677438
-0.14270000000000005,-33.89648274476628
-0.14370000000000016,-33.89648274476628
-0.14470000000000005,-33.98136542275818
-0.14570000000000016,-34.02380676175414
-0.14670000000000005,-34.06624810075008
-0.14770000000000016,-34.10868943974604
-0.14870000000000005,-34.10868943974604
-0.14970000000000017,-34.10868943974604
-0.15070000000000006,-34.15113077874198
-0.15170000000000017,-34.15113077874198
-0.15270000000000006,-34.193572117737936
-0.15370000000000017,-34.193572117737936
-0.15470000000000006,-34.278454795729836
-0.15570000000000017,-34.377484586720385
-0.15670000000000006,-34.41992592571634
-0.15770000000000017,-34.50480860370825
-0.15870000000000006,-34.58969128170015
-0.15970000000000018,-34.58969128170015
-0.16070000000000007,-34.632132620696105
-0.16170000000000018,-34.67457395969205
-0.16270000000000007,-34.717015298688004
-0.16370000000000018,-34.717015298688004
-0.16470000000000007,-34.75945663768395
-0.16570000000000018,-34.8018979766799
-0.16670000000000007,-34.85848642867451
-0.16770000000000018,-34.94336910666641
-0.16870000000000007,-35.02825178465831
-0.16970000000000018,-35.07069312365426
-0.17070000000000007,-35.15557580164616
-0.17170000000000019,-35.240458479638065
-0.17270000000000008,-35.282899818634014
-0.1737000000000002,-35.32534115762997
-0.17470000000000008,-35.38192960962457
-0.1757000000000002,-35.42437094862052
-0.17670000000000008,-35.46681228761647
-0.1777000000000002,-35.46681228761647
-0.17870000000000008,-35.50925362661242
-0.1797000000000002,-35.55169496560837
-0.18070000000000008,-35.636577643600276
-0.1817000000000002,-35.721460321592176
-0.18270000000000008,-35.806342999584075
-0.1837000000000002,-35.90537279057463
-0.1847000000000001,-35.99025546856653
-0.1857000000000002,-36.03269680756248
-0.1867000000000001,-36.16002082455034
-0.1877000000000002,-36.16002082455034
-0.1887000000000001,-36.244903502542236
-0.1897000000000002,-36.28734484153819
-0.1907000000000001,-36.329786180534136
-0.1917000000000001,-36.37222751953009
-0.19269999999999998,-36.4288159715247
-0.1937000000000001,-36.47125731052064
-0.19469999999999998,-36.55613998851254
-0.1957000000000001,-36.64102266650445
-0.19669999999999999,-36.725905344496354
-0.1977000000000001,-36.8532293614842
-0.1987,-36.95225915247476
-0.1997000000000001,-37.037141830466666
-0.2007,-37.07958316946261
-0.2017000000000001,-37.122024508458566
-0.2027,-37.164465847454515
-0.2037000000000001,-37.206907186450465
-0.2047,-37.249348525446415
-0.2057000000000001,-37.291789864442364
-0.2067,-37.376672542434264
-0.2077000000000001,-37.47570233342482
-0.2087,-37.51814367242077
-0.2097000000000001,-37.60302635041268
-0.2107,-37.687909028404576
-0.2117000000000001,-37.81523304539243
-0.2127,-37.85767438438838
-0.2137000000000001,-37.90011572338433
-0.2147,-37.94255706238028
-0.2157000000000001,-38.08402819236679
-0.2167,-38.12646953136274
-0.21770000000000012,-38.12646953136274
-0.2187,-38.253793548350586
-0.21970000000000012,-38.253793548350586
-0.2207,-38.33867622634249
-0.22170000000000012,-38.42355890433439
-0.2227,-38.522588695324956
-0.22370000000000012,-38.607471373316855
-0.2247,-38.692354051308754
-0.22570000000000012,-38.777236729300654
-0.2267,-38.81967806829661
-0.22770000000000012,-38.90456074628851
-0.22870000000000001,-38.94700208528445
-0.22970000000000013,-38.98944342428042
-0.23070000000000002,-39.046031876275016
-0.23170000000000013,-39.08847321527096
-0.23270000000000002,-39.130914554266916
-0.23370000000000013,-39.21579723225882
-0.23470000000000002,-39.30067991025072
-0.23570000000000013,-39.38556258824262
-0.23670000000000002,-39.51288660523048
-0.2376999999999999,-39.61191639622103
-0.23870000000000002,-39.696799074212926
-0.2396999999999999,-39.78168175220483
-0.24070000000000003,-39.82412309120078
-0.24169999999999991,-39.86656443019674
-0.24270000000000003,-39.90900576919269
-0.24369999999999992,-39.95144710818864
-0.24470000000000003,-39.99388844718459
-0.24569999999999992,-40.03632978618054
-0.24670000000000003,-40.092918238175145
-0.24769999999999992,-40.135359577171094
-0.24870000000000003,-40.220242255162994
-0.24969999999999992,-40.30512493315489
-0.25070000000000003,-40.3900076111468
-0.2516999999999999,-40.4748902891387
-0.25270000000000004,-40.559772967130606
-0.2536999999999999,-40.616361419125205
-0.25470000000000004,-40.65880275812115
-0.2556999999999999,-40.65880275812115
-0.25670000000000004,-40.701244097117105
-0.25769999999999993,-40.701244097117105
-0.25870000000000004,-40.78612677510901
-0.25969999999999993,-40.828568114104954
-0.26070000000000004,-40.91345079209687
-0.26169999999999993,-41.04077480908471
-0.26270000000000004,-41.182245939071215
-0.26369999999999993,-41.267128617063115
-0.26470000000000005,-41.43689397304693
-0.26569999999999994,-41.52177665103883
-0.26670000000000005,-41.66324778102533
-0.26769999999999994,-41.74813045901723
-0.26870000000000005,-41.83301313700913
-0.26969999999999994,-41.91789581500104
-0.27070000000000005,-42.00277849299294
-0.27169999999999994,-42.04521983198889
-0.27270000000000005,-42.186690961975394
-0.27369999999999994,-42.2715736399673
-0.27470000000000006,-42.3564563179592
-0.27569999999999995,-42.483780334947056
-0.27670000000000006,-42.6111043519349
-0.27769999999999995,-42.79501682091736
-0.27870000000000006,-42.92234083790521
-0.27969999999999995,-43.04966485489307
-0.28070000000000006,-43.134547532884966
-0.28169999999999995,-43.27601866287147
-0.28270000000000006,-43.40334267985933
-0.28369999999999995,-43.53066669684718
-0.28470000000000006,-43.61554937483908
-0.28569999999999995,-43.79946184382153
-0.28670000000000007,-43.88434452181344
-0.28769999999999996,-44.054109877797245
-0.28870000000000007,-44.28046368577565
-0.28969999999999996,-44.4926703807554
-0.29070000000000007,-44.66243573673921
-0.29169999999999996,-44.88878954471762
-0.29270000000000007,-45.05855490070142
-0.29369999999999996,-45.27076159568118
-0.2947000000000001,-45.45467406466363
-0.29569999999999996,-45.624439420647434
-0.2967000000000001,-45.79420477663124
-0.29769999999999996,-45.97811724561369
-0.2987000000000001,-46.147882601597495
-0.29969999999999997,-46.41667774857186
-0.3007000000000001,-46.628884443551605
-0.30169999999999997,-46.88353247752732
-0.3027000000000001,-47.15232762450167
-0.30369999999999997,-47.40697565847737
-0.3047000000000001,-47.67577080545174
-0.30569999999999997,-47.93041883942744
-0.3067000000000001,-48.1992139864018
-0.3077,-48.45386202037751
-0.3087000000000001,-48.68021582835591
-0.3097,-48.93486386233162
-0.3107000000000001,-49.20365900930597
-0.3117,-49.458307043281685
-0.3127000000000001,-49.76954352925199
-0.3137,-50.0807800152223
-0.3147000000000001,-50.42031072718991
-0.3157,-50.77398855215617
-0.3167000000000001,-51.071077925127824
-0.3177,-51.46719708909004
-0.3187000000000001,-51.86331625305225
-0.3197,-52.30187675601041
-0.3207000000000001,-52.69799591997262
-0.3217,-53.079967970936174
-0.3227000000000001,-53.518528473894335
-0.3237,-53.9570889768525
-0.3247000000000001,-54.39564947981066
-0.3257,-54.834209982768826
-0.3267000000000001,-55.357653163718886
-0.3277,-55.881096344668954
-0.3287000000000001,-56.404539525619015
-0.3297,-57.012865384560975
-0.3307000000000001,-57.62119124350295
-0.3317,-58.22951710244491
-0.3327000000000001,-58.83784296138688
-0.3337,-59.502757272323436
-0.3347000000000001,-60.19596580925731
-0.3357,-60.84673300719523
-0.3367000000000001,-61.53994154412909
-0.3377,-62.20485585506566
-0.3387000000000001,-62.94050573099548
-0.3397,-63.77518539791585
-0.3407000000000001,-64.63815929083353
-0.3417,-65.51528029674984
-0.3427000000000001,-66.43484264166212
-0.3437,-67.39684632557035
-0.3447000000000001,-68.44373268747047
-0.3457,-69.39158925838004
-0.3467000000000001,-70.48091695927613
-0.3477,-71.52780332117625
-0.3487000000000001,-72.63127813507097
-0.3497,-73.80548851395896
-0.3507000000000001,-75.02214023184291
-0.3517,-76.23879194972683
-0.3527000000000001,-77.55447345860131
-0.3537,-78.91259630647174
-0.3547000000000001,-80.38389605833139
-0.3557,-81.86934292318966
-0.35670000000000013,-83.48211380503581
-0.3577,-85.13732602587791
-0.35870000000000013,-86.80668535971866
-0.3597,-88.5892215975486
-0.36070000000000013,-90.32931649638259
-0.3617,-92.16844118620713
-0.3626999999999999,-94.03586010202899
-0.3637,-96.00230880884139
-0.3646999999999999,-98.01119885464975
-0.3657,-100.14741291744595
-0.3666999999999999,-102.45339233622596
-0.3677,-104.85840154599651
-0.3686999999999999,-107.34829343375898
-0.36970000000000003,-109.9655093385093
-0.3706999999999999,-112.71004926024747
-0.37170000000000003,-115.53947185997755
-0.3726999999999999,-118.42548291170223
-0.37370000000000003,-121.29734685042824
-0.3746999999999999,-124.35312325813672
-0.37570000000000003,-127.36645832684925
-0.3766999999999999,-130.46467607355368
-0.37770000000000004,-133.64777649825
-0.3786999999999999,-136.8733182619423
-0.37970000000000004,-140.18374270362645
-0.3806999999999999,-143.5931969363012
-0.38170000000000004,-147.1299751859638
-0.38269999999999993,-150.66675343562642
-0.38370000000000004,-154.3450028152755
-0.38469999999999993,-158.02325219492457
-0.38570000000000004,-161.84297270456022
-0.38669999999999993,-163.68209739438475
-0.38570000000000004,-162.40885722450622
-0.38469999999999993,-161.5600304445872
-0.38370000000000004,-160.99414592464117
-0.38269999999999993,-160.71120366466818
-0.38170000000000004,-160.5697325346817
-0.3806999999999999,-160.5697325346817
-0.37970000000000004,-160.28679027470866
-0.3786999999999999,-160.14531914472215
-0.37770000000000004,-160.00384801473567
-0.3766999999999999,-159.72090575476264
-0.37570000000000003,-159.43796349478964
-0.3746999999999999,-158.87207897484362
-0.37370000000000003,-158.4476655848841
-0.3726999999999999,-157.88178106493808
-0.37170000000000003,-157.17442541500557
-0.3706999999999999,-156.60854089505958
-0.36970000000000003,-155.90118524512707
-0.3686999999999999,-155.19382959519453
-0.3677,-154.486473945262
-0.3666999999999999,-153.920589425316
-0.3657,-153.21323377538346
-0.3646999999999999,-152.50587812545095
-0.3637,-151.5155802155454
-0.3626999999999999,-150.8082245656129
-0.3617,-149.6764555257209
-0.36070000000000013,-148.82762874580186
-0.3597,-147.97880196588284
-0.35870000000000013,-146.8470329259908
-0.3577,-145.85673501608528
-0.35670000000000013,-144.86643710617977
-0.3557,-143.73466806628772
-0.3547000000000001,-142.6028990263957
-0.3537,-141.41454153450906
-0.3527000000000001,-140.18374270362645
-0.3517,-139.0095323247385
-0.3507000000000001,-137.83532194585052
-0.3497,-136.70355290595847
-0.3487000000000001,-135.6142252050624
-0.3477,-134.42586771317576
-0.3467000000000001,-133.29409867328377
-0.3457,-132.11988829439576
-0.3447000000000001,-130.90323657651186
-0.3437,-129.58755506763737
-0.3427000000000001,-128.32846201075745
-0.3417,-127.05522184087894
-0.3407000000000001,-125.7536874450031
-0.3397,-124.43800593612862
-0.3387000000000001,-123.1364715402528
-0.3377,-121.82079003137831
-0.3367000000000001,-120.51925563550247
-0.3357,-119.20357412662798
-0.3347000000000001,-117.85959839175621
-0.3337,-116.54391688288172
-0.3327000000000001,-115.19994114800993
-0.3317,-113.88425963913545
-0.3307000000000001,-112.54028390426367
-0.3297,-111.18216105639323
-0.3287000000000001,-109.73915553053091
-0.3277,-108.43762113465506
-0.3267000000000001,-107.03705694778867
-0.3257,-105.73552255191284
-0.3247000000000001,-104.3773997040424
-0.3237,-103.01927685617197
-0.3227000000000001,-101.71774246029614
-0.3217,-100.35961961242569
-0.3207000000000001,-99.01564387755391
-0.3197,-97.69996236867944
-0.3187000000000001,-96.31354529481169
-0.3177,-94.95542244694126
-0.3167000000000001,-93.55485826007487
-0.3157,-92.2108825252031
-0.3147000000000001,-90.85275967733266
-0.3137,-89.46634260346492
-0.3127000000000001,-88.10821975559449
-0.3117,-86.84912669871461
-0.3107000000000001,-85.49100385084417
-0.3097,-84.18946945496833
-0.3087000000000001,-82.87378794609386
-0.3077,-81.51566509822342
-0.3067000000000001,-80.21413070234757
-0.30569999999999997,-78.91259630647174
-0.3047000000000001,-77.55447345860131
-0.30369999999999997,-76.23879194972683
-0.3027000000000001,-74.89481621485504
-0.30169999999999997,-73.57913470598055
-0.3007000000000001,-72.27760031010472
-0.29969999999999997,-70.96191880123024
-0.2987000000000001,-69.74526708334632
-0.29769999999999996,-68.44373268747047
-0.2967000000000001,-67.128051178596
-0.29569999999999996,-65.91139946071206
-0.2947000000000001,-64.59571795183757
-0.29369999999999996,-63.3366248949577
-0.29270000000000007,-62.06338472507916
-0.29169999999999996,-60.761850329203334
-0.29070000000000007,-59.54519861131939
-0.28969999999999996,-58.27195844144086
-0.28870000000000007,-56.97042404556503
-0.28769999999999996,-55.6971838756865
-0.28670000000000007,-54.43809081880661
-0.28569999999999995,-53.22143910092268
-0.28470000000000006,-51.990640270040096
-0.28369999999999995,-50.81642989115212
-0.28270000000000006,-49.642219512264134
-0.28169999999999995,-48.45386202037751
-0.28070000000000006,-47.27965164148953
-0.27969999999999995,-46.10544126260155
-0.27870000000000006,-44.93123088371356
-0.27769999999999995,-43.79946184382153
-0.27670000000000006,-42.6111043519349
-0.27569999999999995,-41.43689397304693
-0.27470000000000006,-40.34756627215084
-0.27369999999999994,-39.21579723225882
-0.27270000000000005,-38.12646953136274
-0.27169999999999994,-37.07958316946261
-0.27070000000000005,-35.94781412957058
-0.26969999999999994,-34.85848642867451
-0.26870000000000005,-33.755011614779775
-0.26769999999999994,-32.70812525287965
-0.26670000000000005,-31.618797551983565
