Potential V vs RHE, Current mA cm-2
0.013299999999999867,25.648715866553115
0.012299999999999978,23.55494314275286
0.011299999999999866,21.67337711393236
0.010299999999999976,20.06060623208622
0.009299999999999864,18.49027668923603
0.008299999999999974,16.792623129397985
0.007299999999999862,14.953498439573437
0.006299999999999972,13.344971691626892
0.00529999999999986,11.9486516386601
0.0042999999999999705,10.553746296993173
0.0032999999999998586,9.025858093138934
0.0022999999999999687,7.413087211292793
0.0012999999999998568,5.929055057734368
0.00029999999999996696,4.708159205950842
-0.000700000000000145,3.4434073038714996
-0.0017000000000000348,2.048501962204573
-0.0027000000000001467,0.5647527509061226
-0.0037000000000000366,-0.8308599464107361
-0.0047000000000001485,-1.9650339955125358
-0.005700000000000038,-3.0996324580042955
-0.00670000000000015,-4.364384360083638
-0.00770000000000004,-5.80314575204638
-0.008700000000000152,-7.067897654125724
-0.009700000000000042,-8.11478401602585
-0.010700000000000154,-9.161670377925978
-0.011700000000000044,-10.382566229709504
-0.012700000000000156,-11.73503023238048
-0.013700000000000045,-12.955926084164007
-0.014700000000000157,-13.916515056772363
-0.015700000000000047,-14.868615761581536
-0.01670000000000016,-16.056973253468165
-0.01770000000000005,-17.2736249713521
-0.01870000000000016,-18.40539401124413
-0.01970000000000005,-19.3249563561564
-0.020700000000000163,-20.244518701068674
-0.021700000000000053,-21.333846401964752
-0.022700000000000164,-22.550498119848687
-0.023700000000000054,-23.597384481748815
-0.024700000000000166,-24.474505487665134
-0.025700000000000056,-25.295038041586857
-0.026700000000000168,-26.34192440348698
-0.027700000000000058,-27.487840556377662
-0.02870000000000017,-28.478138466283188
-0.02970000000000006,-29.31281813320356
-0.03070000000000017,-30.04846800913338
-0.03170000000000006,-31.010471693041605
-0.03270000000000017,-32.14224073293363
-0.03370000000000006,-33.10424441684186
-0.034700000000000175,-33.85404140577033
-0.035700000000000065,-34.632132620696105
-0.03670000000000018,-35.594136304604326
-0.03770000000000007,-36.64102266650445
-0.03870000000000018,-37.60302635041268
-0.03970000000000007,-38.29623488734655
-0.04070000000000018,-39.046031876275016
-0.04170000000000007,-39.90900576919269
-0.04270000000000018,-40.99833347008877
-0.04370000000000007,-41.96033715399699
-0.044700000000000184,-42.6111043519349
-0.045700000000000074,-43.31846000186743
-0.046700000000000186,-44.223875233781044
-0.047700000000000076,-45.18587891768927
-0.04870000000000019,-46.062999923605595
-0.04970000000000008,-46.713767121543505
-0.05070000000000019,-47.36453431948143
-0.05170000000000008,-48.2840966643937
-0.05270000000000019,-49.33098302629383
-0.05370000000000008,-50.1656626932142
-0.05470000000000019,-50.85887123014807
-0.05570000000000008,-51.46719708909004
-0.056700000000000195,-52.34431809500636
-0.057700000000000085,-53.348763117910536
-0.058700000000000196,-54.16929567183226
-0.059700000000000086,-54.834209982768826
-0.0607000000000002,-55.400094502714836
-0.06170000000000009,-56.1781857176406
-0.0627000000000002,-57.097748062552874
-0.06370000000000009,-57.87583927747865
-0.0647000000000002,-58.45587091042332
-0.06570000000000009,-59.02175543036933
-0.0667000000000002,-59.757405306299155
-0.0677000000000001,-60.63452631221547
-0.0687000000000002,-61.455058866137186
-0.0697000000000001,-62.02094338608321
-0.07070000000000021,-62.58682790602922
-0.0717000000000001,-63.421507572949594
-0.07270000000000021,-64.38351125685783
-0.0737000000000001,-65.16160247178358
-0.07470000000000021,-65.76992833072556
-0.0757000000000001,-66.39240130266617
-0.07670000000000021,-67.128051178596
-0.0777000000000001,-68.0051721845123
-0.07870000000000021,-68.82570473843404
-0.0797000000000001,-69.39158925838004
-0.08070000000000022,-70.01406223032066
-0.0817000000000001,-70.79215344524643
-0.08270000000000022,-71.75415712915466
-0.08370000000000011,-72.53224834408043
-0.08470000000000022,-73.09813286402644
-0.08570000000000011,-73.6781644969711
-0.08670000000000022,-74.41381437290093
-0.08770000000000011,-75.29093537881725
-0.08870000000000022,-76.06902659374302
-0.08970000000000011,-76.5924697746931
-0.09070000000000022,-77.1583542946391
-0.09170000000000011,-77.95059262256353
-0.09270000000000023,-78.8135665154812
-0.09370000000000012,-79.56336350440966
-0.09470000000000023,-80.12924802435568
-0.09570000000000012,-80.65269120530574
-0.09670000000000023,-81.43078242023151
-0.09770000000000012,-82.30790342614785
-0.09870000000000023,-83.08599464107361
-0.09970000000000012,-83.60943782202366
-0.10070000000000023,-84.13288100297372
-0.10170000000000012,-84.8826779919022
-0.10270000000000024,-85.70321054582392
-0.10370000000000013,-86.49544887374834
-0.10470000000000024,-87.01889205469841
-0.10570000000000013,-87.54233523564847
-0.10670000000000024,-88.32042645057423
-0.10770000000000013,-89.23998879548651
-0.10870000000000024,-90.03222712341093
-0.10970000000000013,-90.59811164335694
-0.11070000000000024,-91.12155482430701
-0.11170000000000013,-91.81476336124088
-0.11270000000000002,-92.6918843671572
-0.11370000000000013,-93.42753424308701
-0.11470000000000002,-93.95097742403709
-0.11570000000000014,-94.47442060498715
-0.11670000000000003,-95.18177625491967
-0.11770000000000014,-96.04475014783733
-0.11870000000000003,-96.73795868477121
-0.11970000000000014,-97.31799031771587
-0.12070000000000003,-97.84143349866595
-0.12170000000000014,-98.5346420355998
-0.12270000000000003,-99.45420438051207
-0.12370000000000014,-100.14741291744595
-0.12470000000000003,-100.71329743739196
-0.12570000000000014,-101.27918195733798
-0.12670000000000003,-102.07142028526239
-0.12770000000000015,-102.97683551717601
-0.12870000000000004,-103.7266325061045
-0.12970000000000015,-104.25007568705455
-0.13070000000000004,-104.73107752900866
-0.13170000000000015,-105.46672740493848
-0.13270000000000004,-106.30140707185885
-0.13370000000000015,-106.99461560879273
-0.13470000000000004,-107.56050012873874
-0.13570000000000015,-108.0839433096888
-0.13670000000000004,-108.83374029861727
-0.13770000000000016,-109.69671419153494
-0.13870000000000005,-110.4465111804634
-0.13970000000000016,-111.01239570040943
-0.14070000000000005,-111.49339754236355
-0.14170000000000016,-112.22904741829338
-0.14270000000000005,-113.06372708521374
-0.14370000000000016,-113.79937696114357
-0.14470000000000005,-114.3228201420936
-0.14570000000000016,-114.84626332304367
-0.14670000000000005,-115.5819131989735
-0.14770000000000016,-116.45903420488982
-0.14870000000000005,-117.19468408081964
-0.14970000000000017,-117.71812726176971
-0.15070000000000006,-118.24157044271978
-0.15170000000000017,-118.99136743164823
-0.15270000000000006,-119.9109297765605
-0.15370000000000017,-120.64657965249035
-0.15470000000000006,-121.21246417243634
-0.15570000000000017,-121.73590735338641
-0.15670000000000006,-122.48570434231489
-0.15770000000000017,-123.34867823523254
-0.15870000000000006,-124.09847522416102
-0.15970000000000018,-124.57947706611512
-0.16070000000000007,-125.10292024706521
-0.16170000000000018,-125.79612878399907
-0.16270000000000007,-126.61666133792076
-0.16370000000000018,-127.4088996658452
-0.16470000000000007,-127.93234284679528
-0.16570000000000018,-128.45578602774532
-0.16670000000000007,-129.19143590367514
-0.16770000000000018,-130.06855690959148
-0.16870000000000007,-130.84664812451723
-0.16970000000000018,-131.37009130546733
-0.17070000000000007,-131.95012293841197
-0.17170000000000019,-132.6857728143418
-0.17270000000000008,-133.5628938202581
-0.1737000000000002,-134.29854369618792
-0.17470000000000008,-134.82198687713802
-0.1757000000000002,-135.387871397084
-0.17670000000000008,-136.13766838601245
-0.1777000000000002,-137.00064227893017
-0.17870000000000008,-137.70799792886265
-0.1797000000000002,-138.27388244880868
-0.18070000000000008,-138.7548842907628
-0.1817000000000002,-139.49053416669264
-0.18270000000000008,-140.36765517260895
-0.1837000000000002,-141.10330504853877
-0.1847000000000001,-141.61260111649017
-0.1857000000000002,-142.03701450644968
-0.1867000000000001,-142.7443701563822
-0.1877000000000002,-143.73466806628772
-0.1887000000000001,-144.44202371622026
-0.1897000000000002,-145.00790823616626
-0.1907000000000001,-145.57379275611228
-0.1917000000000001,-146.28114840604482
-0.19269999999999998,-147.1299751859638
-0.1937000000000001,-147.83733083589632
-0.19469999999999998,-148.40321535584232
-0.1957000000000001,-148.96909987578834
-0.19669999999999999,-149.6764555257209
-0.1977000000000001,-150.5252823056399
-0.1987,-151.23263795557244
-0.1997000000000001,-151.7985224755184
-0.2007,-152.36440699546444
-0.2017000000000001,-153.07176264539694
-0.2027,-153.920589425316
-0.2037000000000001,-154.6279450752485
-0.2047,-155.19382959519453
-0.2057000000000001,-155.75971411514055
-0.2067,-156.46706976507306
-0.2077000000000001,-157.31589654499206
-0.2087,-158.02325219492457
-0.2097000000000001,-158.5891367148706
-0.2107,-159.01355010483013
-0.2117000000000001,-159.86237688474912
-0.2127,-160.71120366466818
-0.2137000000000001,-161.41855931460069
-0.2147,-161.9844438345467
-0.2157000000000001,-162.5503283544927
-0.2167,-163.25768400442522
-0.21770000000000012,-164.10651078434424
-0.2187,-164.81386643427678
-0.21970000000000012,-165.3797509542228
-0.2207,-165.94563547416882
-0.22170000000000012,-166.65299112410133
-0.2227,-167.50181790402033
-0.22370000000000012,-168.20917355395284
-0.2247,-168.77505807389886
-0.22570000000000012,-169.3409425938449
-0.2267,-170.0482982437774
-0.22770000000000012,-170.89712502369645
-0.22870000000000001,-171.60448067362896
-0.22970000000000013,-172.17036519357498
-0.23070000000000002,-172.59477858353446
-0.23170000000000013,-173.302134233467
-0.23270000000000002,-174.150961013386
-0.23370000000000013,-174.71684553333202
-0.23470000000000002,-175.28273005327804
-0.23570000000000013,-175.84861457322407
-0.23670000000000002,-176.6974413531431
-0.2376999999999999,-177.54626813306209
-0.23870000000000002,-178.25362378299462
-0.2396999999999999,-178.81950830294062
-0.24070000000000003,-179.38539282288664
-0.24169999999999991,-180.23421960280567
-0.24270000000000003,-181.08304638272472
-0.24369999999999992,-181.79040203265723
-0.24470000000000003,-182.35628655260325
-0.24569999999999992,-182.92217107254925
-0.24670000000000003,-183.62952672248176
-0.24769999999999992,-184.47835350240078
-0.24870000000000003,-185.3271802823198
-0.24969999999999992,-185.89306480226583
-0.25070000000000003,-186.45894932221185
-0.2516999999999999,-187.30777610213087
-0.25270000000000004,-188.15660288204987
-0.2536999999999999,-188.8639585319824
-0.25470000000000004,-189.2883719219419
-0.2556999999999999,-189.8542564418879
-0.25670000000000004,-190.42014096183394
-0.25769999999999993,-191.268967741753
-0.25870000000000004,-191.9763233916855
-0.25969999999999993,-192.54220791163152
-0.26070000000000004,-193.10809243157752
-0.26169999999999993,-193.81544808151003
-0.26270000000000004,-194.80574599141553
-0.26369999999999993,-195.51310164134807
-0.26470000000000005,-195.93751503130758
-0.26569999999999994,-196.6448706812401
-0.26670000000000005,-197.35222633117263
-0.26769999999999994,-198.20105311109162
-0.26870000000000005,-199.04987989101065
-0.26969999999999994,-199.61576441095667
-0.27070000000000005,-200.04017780091618
-0.27169999999999994,-200.7475334508487
-0.27270000000000005,-201.59636023076774
-0.27369999999999994,-202.30371588070025
-0.27470000000000006,-202.7281292706598
-0.27569999999999995,-203.29401379060576
-0.27670000000000006,-204.0013694405383
-0.27769999999999995,-204.8501962204573
-0.27870000000000006,-205.55755187038983
-0.27969999999999995,-206.26490752032234
-0.28070000000000006,-206.83079204026836
-0.28169999999999995,-207.67961882018741
-0.28270000000000006,-208.52844560010638
-0.28369999999999995,-209.37727238002543
-0.28470000000000006,-209.8016857699849
-0.28569999999999995,-210.36757028993094
-0.28670000000000007,-211.07492593986345
-0.28769999999999996,-211.9237527197825
-0.28870000000000007,-212.631108369715
-0.28969999999999996,-213.19699288966103
-0.29070000000000007,-213.62140627962054
-0.29169999999999996,-214.61170418952605
-0.29270000000000007,-215.7434732294181
-0.29369999999999996,-216.73377113932364
-0.2947000000000001,-217.44112678925615
-0.29569999999999996,-218.14848243918865
-0.2967000000000001,-218.85583808912116
-0.29769999999999996,-219.8461359990267
-0.2987000000000001,-220.6949627789457
-0.29969999999999997,-221.26084729889175
-0.3007000000000001,-221.82673181883774
-0.30169999999999997,-222.6755585987568
-0.3027000000000001,-223.52438537867582
-0.30369999999999997,-224.2317410286083
-0.3047000000000001,-224.65615441856778
-0.30569999999999997,-225.22203893851383
-0.3067000000000001,-225.92939458844637
-0.3077,-226.91969249835188
-0.3087000000000001,-227.7685192782709
-0.3097,-228.47587492820347
-0.3107000000000001,-229.04175944814943
-0.3117,-229.89058622806846
-0.3127000000000001,-230.880884137974
-0.3137,-231.5882397879065
-0.3147000000000001,-232.15412430785253
-0.3157,-232.72000882779852
-0.3167000000000001,-233.56883560771757
-0.3177,-234.4176623876366
-0.3187000000000001,-235.26648916755556
-0.3197,-235.69090255751513
-0.3207000000000001,-236.25678707746113
-0.3217,-237.10561385738015
-0.3227000000000001,-237.9544406372992
-0.3237,-238.66179628723168
-0.3247000000000001,-239.0862096771912
-0.3257,-239.65209419713722
-0.3267000000000001,-240.50092097705624
-0.3277,-241.49121888696175
-0.3287000000000001,-242.19857453689428
-0.3297,-242.76445905684034
-0.3307000000000001,-243.3303435767863
-0.3317,-244.17917035670533
-0.3327000000000001,-245.16946826661086
-0.3337,-245.87682391654337
-0.3347000000000001,-246.30123730650286
-0.3357,-246.8671218264489
-0.3367000000000001,-247.71594860636796
-0.3377,-248.70624651627344
-0.3387000000000001,-249.41360216620598
-0.3397,-250.1209578161385
-0.3407000000000001,-250.6868423360845
-0.3417,-251.67714024599002
-0.3427000000000001,-252.66743815589555
-0.3437,-253.51626493581452
-0.3447000000000001,-254.08214945576057
-0.3457,-254.64803397570657
-0.3467000000000001,-255.35538962563913
-0.3477,-256.20421640555816
-0.3487000000000001,-256.91157205549064
-0.3497,-257.4774565754367
-0.3507000000000001,-258.18481222536917
-0.3517,-259.0336390052882
-0.3527000000000001,-260.16540804518024
-0.3537,-261.1557059550858
-0.3547000000000001,-261.8630616050183
-0.3557,-262.57041725495077
-0.35670000000000013,-263.56071516485633
-0.3577,-264.55101307476184
-0.35870000000000013,-265.39983985468086
-0.3597,-265.9657243746269
-0.36070000000000013,-266.5316088945729
-0.3617,-267.38043567449193
-0.3626999999999999,-268.22926245441096
-0.3637,-268.93661810434344
-0.3646999999999999,-269.5025026242895
-0.3657,-270.0683871442355
-0.3666999999999999,-270.9172139241545
-0.3677,-271.9075118340601
-0.3686999999999999,-272.8978097439656
-0.36970000000000003,-273.4636942639116
-0.3706999999999999,-274.1710499138441
-0.37170000000000003,-275.0198766937631
-0.3726999999999999,-275.86870347368216
-0.37370000000000003,-276.5760591236147
-0.3746999999999999,-277.1419436435607
-0.37570000000000003,-277.7078281635067
-0.3766999999999999,-278.5566549434257
-0.37770000000000004,-279.40548172334474
-0.3786999999999999,-280.3957796332503
-0.37970000000000004,-280.9616641531963
-0.3806999999999999,-281.52754867314235
-0.38170000000000004,-282.51784658304786
-0.38269999999999993,-283.64961562293985
-0.38370000000000004,-284.63991353284536
-0.38469999999999993,-285.3472691827779
-0.38570000000000004,-286.0546248327104
-0.38669999999999993,-285.4887403127644
-0.38570000000000004,-282.65931771303434
-0.38469999999999993,-279.82989511330425
-0.38370000000000004,-276.7175302536012
-0.38269999999999993,-273.8881076538711
-0.38170000000000004,-271.20015618412754
-0.3806999999999999,-268.512204714384
-0.37970000000000004,-265.9657243746269
-0.3786999999999999,-263.13630177489676
-0.37770000000000004,-260.3068791751668
-0.3766999999999999,-257.76039883540966
-0.37570000000000003,-255.35538962563913
-0.3746999999999999,-252.80890928588207
-0.37370000000000003,-250.1209578161385
-0.3726999999999999,-247.2915352164084
-0.37170000000000003,-244.74505487665132
-0.3706999999999999,-242.19857453689428
-0.36970000000000003,-239.7935653271237
-0.3686999999999999,-236.96414272739366
-0.3677,-234.4176623876366
-0.3666999999999999,-232.01265317786604
-0.3657,-229.60764396809546
-0.3646999999999999,-227.34410588831142
-0.3637,-224.65615441856778
-0.3626999999999999,-221.96820294882426
-0.3617,-219.42172260906716
-0.36070000000000013,-217.29965565926966
-0.3597,-215.17758870947208
-0.35870000000000013,-212.631108369715
-0.3577,-210.08462802995794
-0.35670000000000013,-207.67961882018741
-0.3557,-205.55755187038983
-0.3547000000000001,-203.29401379060576
-0.3537,-200.7475334508487
-0.3527000000000001,-198.20105311109162
-0.3517,-195.93751503130758
-0.3507000000000001,-193.81544808151003
-0.3497,-191.41043887173947
-0.3487000000000001,-188.8639585319824
-0.3477,-186.45894932221185
-0.3467000000000001,-184.19541124242778
-0.3457,-182.07334429263022
-0.3447000000000001,-179.95127734283267
-0.3437,-177.54626813306209
-0.3427000000000001,-175.14125892329156
-0.3417,-172.87772084350746
-0.3407000000000001,-170.89712502369645
-0.3397,-168.77505807389886
-0.3387000000000001,-166.3700488641283
-0.3377,-164.10651078434424
-0.3367000000000001,-161.9844438345467
-0.3357,-160.00384801473567
-0.3347000000000001,-158.02325219492457
-0.3337,-155.75971411514055
-0.3327000000000001,-153.49617603535648
-0.3317,-151.37410908555893
-0.3307000000000001,-149.53498439573437
-0.3297,-147.55438857592333
-0.3287000000000001,-145.29085049613926
-0.3277,-143.0273124163552
-0.3267000000000001,-141.01842237054686
-0.3257,-139.13685634172634
-0.3247000000000001,-137.1845547479126
-0.3237,-135.03419357211774
-0.3227000000000001,-132.89797950932152
-0.3217,-130.98811925450374
-0.3207000000000001,-129.2338772426711
-0.3197,-127.32401698785328
-0.3187000000000001,-125.18780292505707
-0.3177,-123.09403020125686
-0.3167000000000001,-121.21246417243634
-0.3157,-119.38748659561045
-0.3147000000000001,-117.59080324478184
-0.3137,-115.62435453796945
-0.3127000000000001,-113.71449428315165
-0.3117,-112.05928206230955
-0.3107000000000001,-110.4465111804634
-0.3097,-108.73471050762672
-0.3087000000000001,-106.86729159180487
-0.3077,-104.98572556298437
-0.3067000000000001,-103.20318932515443
-0.30569999999999997,-101.54797710431234
-0.3047000000000001,-99.70885241448778
-0.30369999999999997,-97.74240370767538
-0.3027000000000001,-95.79010211386164
-0.30169999999999997,-94.03586010202899
-0.3007000000000001,-92.42308922018285
-0.29969999999999997,-90.68299432134886
-0.2987000000000001,-88.63166293654454
-0.29769999999999996,-86.6227728907362
-0.2967000000000001,-84.92511933089816
-0.29569999999999996,-83.31234844905201
-0.2947000000000001,-81.57225355021802
-0.29369999999999996,-79.60580484340561
-0.29270000000000007,-77.68179747558916
-0.29169999999999996,-76.02658525474708
-0.29070000000000007,-74.54113838988879
-0.28969999999999996,-72.8859261690467
-0.28870000000000007,-71.10338993121674
-0.28769999999999996,-69.30670658038814
-0.28670000000000007,-67.73637703753796
-0.28569999999999995,-66.29337151167562
-0.28470000000000006,-64.72304196882543
-0.28369999999999995,-62.94050573099548
-0.28270000000000006,-61.242852171157445
-0.28169999999999995,-59.67252262830725
-0.28070000000000006,-58.22951710244491
-0.27969999999999995,-56.65918755959472
-0.27870000000000006,-54.876651321764776
-0.27769999999999995,-53.16485064892808
-0.27670000000000006,-51.69355089706845
-0.27569999999999995,-50.29298671020206
-0.27470000000000006,-48.76509850634781
-0.27369999999999994,-47.067444946509774
-0.27270000000000005,-45.412232725667685
-0.27169999999999994,-43.96922719980534
-0.27070000000000005,-42.6111043519349
-0.26969999999999994,-41.139804600075266
-0.26870000000000005,-39.51288660523048
-0.26769999999999994,-37.85767438438838
