Potential V vs RHE, Current mA cm-2
0.4132999999999999,-0.006888229319042864
0.4122999999999999,-0.008496756066989412
0.4112999999999999,-0.00894380483774676
0.4102999999999999,-0.009206941139521658
0.4092999999999999,-0.00946300388479723
0.4082999999999999,-0.00959174261308495
0.4072999999999999,-0.009740287299570776
0.4062999999999999,-0.009922785057253367
0.4052999999999999,-0.010139235886132717
0.4042999999999999,-0.010250998078822056
0.4032999999999999,-0.010313245376016118
0.4022999999999999,-0.010402372187907615
0.4012999999999999,-0.010522622648396141
0.4002999999999999,-0.010695217426979679
0.3992999999999999,-0.010840932690865775
0.3982999999999999,-0.010922985946257948
0.3972999999999999,-0.011023430448548366
0.3962999999999999,-0.011171975135034195
0.3952999999999999,-0.011249784256526773
0.3942999999999999,-0.01139549952041287
0.39329999999999987,-0.011494529311403422
0.39229999999999987,-0.011538385361699238
0.39129999999999987,-0.011657221110887902
0.39029999999999987,-0.011742103788879804
0.38929999999999987,-0.011935919236961313
0.38829999999999987,-0.012135393530242284
0.38729999999999987,-0.01229101177322744
0.38629999999999987,-0.012390041564217991
0.38529999999999986,-0.012421165212815022
0.38429999999999986,-0.012432482903213941
0.38329999999999986,-0.012517365581205843
0.38229999999999986,-0.012558392208901932
0.38129999999999986,-0.012630542485195047
0.38029999999999986,-0.012764940058682225
0.37929999999999986,-0.012967243774562928
0.37829999999999986,-0.01310022663675024
0.37729999999999986,-0.01315115624354538
0.37629999999999986,-0.013179450469542681
0.37529999999999986,-0.013213403540739443
0.37429999999999986,-0.01326008901363499
0.37329999999999985,-0.013333654001227971
0.37229999999999985,-0.013439757348717848
0.37129999999999985,-0.013564251943105973
0.37029999999999985,-0.013752408545988021
0.36929999999999985,-0.013874073717776415
0.36829999999999985,-0.013968859374867372
0.36729999999999985,-0.013971688797467102
0.36629999999999985,-0.013995738889564808
0.36529999999999985,-0.014062230320658464
0.36429999999999985,-0.014135795308251445
0.36329999999999985,-0.014203701450644968
0.36229999999999984,-0.014373466806628774
0.36129999999999984,-0.014500790823616624
0.36029999999999984,-0.014543232162612576
0.35929999999999984,-0.01461396772760583
0.35829999999999984,-0.014670556179600431
0.35729999999999984,-0.014741291744593682
0.35629999999999984,-0.014896909987578835
0.35529999999999984,-0.015024234004566688
0.35429999999999984,-0.01505252823056399
0.35329999999999984,-0.015080822456561293
0.35229999999999984,-0.015109116682558592
0.35129999999999983,-0.015222293586547794
0.35029999999999983,-0.015321323377538347
0.34929999999999983,-0.015392058942531598
0.34829999999999983,-0.015476941620523503
0.34729999999999983,-0.015590118524512706
0.34629999999999983,-0.015675001202504608
0.34529999999999983,-0.01573158965449921
0.34429999999999983,-0.01575988388049651
0.3432999999999998,-0.01583061944548976
0.3422999999999998,-0.01588720789748436
0.3412999999999998,-0.015986237688474913
0.3402999999999998,-0.016071120366466816
0.3392999999999998,-0.016099414592464115
0.3382999999999998,-0.016226738609451972
0.3372999999999998,-0.016325768400442524
0.3362999999999998,-0.016396503965435776
0.3352999999999998,-0.016495533756426328
0.3342999999999998,-0.01656626932141958
0.3332999999999998,-0.01660871066041553
0.3322999999999998,-0.016693593338407434
0.3312999999999998,-0.016778476016399334
0.3302999999999998,-0.01687750580738989
0.3292999999999998,-0.01690580003338719
0.3282999999999998,-0.016962388485381792
0.3272999999999998,-0.01703312405037504
0.3262999999999998,-0.017089712502369642
0.3252999999999999,-0.017174595180361543
0.3242999999999999,-0.017231183632356147
0.3232999999999999,-0.0173019191973494
0.3222999999999999,-0.017514125892329157
0.3212999999999999,-0.01771218547431026
0.3202999999999999,-0.017797068152302163
0.3192999999999999,-0.017782921039303512
0.3182999999999999,-0.01776877392630486
0.3172999999999999,-0.017797068152302163
0.3162999999999999,-0.017867803717295416
0.3152999999999999,-0.017896097943292714
0.3142999999999999,-0.017966833508285963
0.3132999999999999,-0.01812245175127112
0.3122999999999999,-0.018235628655260322
0.3112999999999999,-0.018362952672248176
0.3102999999999999,-0.018447835350240076
0.3092999999999999,-0.01847612957623738
0.3082999999999999,-0.01851857091523333
0.3072999999999999,-0.01849027668923603
0.3062999999999999,-0.018546865141230634
0.3052999999999999,-0.018631747819222534
0.3042999999999999,-0.018716630497214438
0.3032999999999999,-0.018886395853198238
0.3022999999999999,-0.01897127853119014
0.3012999999999999,-0.019070308322180696
0.3002999999999999,-0.019126896774175294
0.2992999999999999,-0.019141043887173945
0.2982999999999999,-0.019169338113171244
0.2972999999999999,-0.01922592656516585
0.2962999999999999,-0.019310809243157753
0.2952999999999999,-0.019438133260145606
0.2942999999999999,-0.019494721712140204
0.2932999999999999,-0.01959375150313076
0.2922999999999999,-0.01963619284212671
0.2912999999999999,-0.019664487068124008
0.2902999999999999,-0.019777663972113214
0.2892999999999999,-0.019876693763103765
0.2882999999999999,-0.019947429328097017
0.2872999999999999,-0.01997572355409432
0.2862999999999999,-0.02004645911908757
0.2852999999999999,-0.020103047571082173
0.2842999999999999,-0.020258665814067326
0.2832999999999999,-0.020371842718056525
0.2822999999999999,-0.020513313848043033
0.2812999999999999,-0.020626490752032236
0.2802999999999999,-0.020683079204026837
0.2792999999999999,-0.02073966765602144
0.2782999999999999,-0.02073966765602144
0.2772999999999999,-0.02075381476902009
0.2762999999999999,-0.02078210899501739
0.2752999999999999,-0.020838697447011986
0.2742999999999999,-0.020980168576998495
0.2732999999999999,-0.021164081045980946
0.2722999999999999,-0.0212631108369715
0.2712999999999999,-0.021347993514963404
0.2702999999999999,-0.021333846401964753
0.2692999999999999,-0.021347993514963404
0.26829999999999987,-0.021404581966958002
0.26729999999999987,-0.021432876192955305
0.26629999999999987,-0.021546053096944507
0.26529999999999987,-0.021729965565926962
0.26429999999999987,-0.021814848243918866
0.26329999999999987,-0.02194217226090672
0.26229999999999987,-0.021928025147908068
0.26129999999999987,-0.021928025147908068
0.26029999999999986,-0.02199876071290132
0.25929999999999986,-0.022027054938898623
0.25829999999999986,-0.022210967407881078
0.25729999999999986,-0.022366585650866227
0.25629999999999986,-0.02242317410286083
0.25529999999999986,-0.022479762554855433
0.25429999999999986,-0.022522203893851383
0.25329999999999986,-0.022536351006850038
0.25229999999999986,-0.022607086571843286
0.25129999999999986,-0.022691969249835187
0.25029999999999986,-0.02280514615382439
0.24929999999999986,-0.022861734605818994
0.24829999999999985,-0.022904175944814944
0.24729999999999985,-0.023017352848804146
0.24629999999999985,-0.02310223552679605
0.24529999999999985,-0.02318711820478795
0.24429999999999985,-0.02324370665678255
0.24329999999999985,-0.023300295108777156
0.24229999999999985,-0.023356883560771757
0.24129999999999985,-0.023427619125765006
0.24029999999999985,-0.02347006046476096
0.23929999999999985,-0.02354079602975421
0.23829999999999985,-0.023625678707746112
0.23729999999999984,-0.023710561385738016
0.23629999999999984,-0.02389447385472047
0.23529999999999984,-0.02392276808071777
0.23429999999999984,-0.02397935653271237
0.23329999999999984,-0.024092533436701577
0.23229999999999984,-0.02424815167968673
0.23129999999999984,-0.024403769922671882
0.23029999999999984,-0.024446211261667832
0.22929999999999984,-0.024417917035670533
0.22829999999999984,-0.024446211261667832
0.22729999999999984,-0.02447450548766513
0.22629999999999983,-0.02453109393965974
0.22529999999999983,-0.02461597661765164
0.22429999999999983,-0.02468671218264489
0.22329999999999983,-0.024898918877624646
0.22229999999999983,-0.025012095781613848
0.22129999999999983,-0.0250545371206098
0.22029999999999983,-0.02506868423360845
0.21929999999999983,-0.0250828313466071
0.21829999999999983,-0.02512527268560305
0.21729999999999983,-0.025196008250596303
0.21629999999999983,-0.025309185154585506
0.21529999999999982,-0.02547895051056931
0.21429999999999982,-0.02553553896256391
0.21329999999999982,-0.025606274527557166
0.21229999999999982,-0.025691157205549067
0.21129999999999982,-0.02576189277054232
0.21029999999999982,-0.02591751101352747
0.20929999999999982,-0.025988246578520724
0.20829999999999982,-0.025959952352523425
0.20729999999999982,-0.025974099465522073
0.20629999999999982,-0.026073129256512624
0.20529999999999982,-0.02614386482150588
0.20429999999999982,-0.026257041725495082
0.20329999999999981,-0.026370218629484285
0.2022999999999998,-0.02656827821146539
0.2012999999999998,-0.026667308002455942
0.20029999999999992,-0.026709749341451892
0.19929999999999992,-0.02668145511545459
0.19829999999999992,-0.026709749341451892
0.19729999999999992,-0.026752190680447843
0.19629999999999992,-0.026907808923433
0.19529999999999992,-0.02703513294042085
0.19429999999999992,-0.027190751183406005
0.19329999999999992,-0.027261486748399254
0.19229999999999992,-0.027219045409403307
0.19129999999999991,-0.02727563386139791
0.1902999999999999,-0.027332222313392506
0.1892999999999999,-0.02740295787838576
0.1882999999999999,-0.027473693443379014
0.1872999999999999,-0.027601017460366868
0.1862999999999999,-0.027714194364356067
0.1852999999999999,-0.027869812607341227
0.1842999999999999,-0.027912253946337173
0.1832999999999999,-0.027954695285333123
0.1822999999999999,-0.027954695285333123
0.1812999999999999,-0.028039577963325023
0.1802999999999999,-0.02815275486731423
0.1792999999999999,-0.02819519620631018
0.1782999999999999,-0.028280078884302083
0.1772999999999999,-0.028379108675292634
0.1762999999999999,-0.02860546248327104
0.1752999999999999,-0.028690345161262943
0.1742999999999999,-0.028647903822266993
0.1732999999999999,-0.028690345161262943
0.1722999999999999,-0.028761080726256192
0.1712999999999999,-0.028860110517246747
0.1702999999999999,-0.029058170099227856
0.1692999999999999,-0.02922793545521166
0.1682999999999999,-0.029425995037192763
0.1672999999999999,-0.029482583489187364
0.1662999999999999,-0.029440142150191414
0.1652999999999999,-0.029440142150191414
0.1642999999999999,-0.02946843637618871
0.1632999999999999,-0.02953917194118197
0.1622999999999999,-0.029638201732172516
0.1612999999999999,-0.029751378636161722
0.1602999999999999,-0.029906996879146875
0.1592999999999999,-0.03007676223513068
0.15829999999999989,-0.03006261512213203
0.15729999999999988,-0.03011920357412663
0.15629999999999988,-0.030232380478115835
0.15529999999999988,-0.030246527591114486
0.15429999999999988,-0.030288968930110433
0.15329999999999988,-0.030373851608102336
0.15229999999999988,-0.03044458717309559
0.15129999999999988,-0.030571911190083446
0.15029999999999988,-0.030699235207071292
0.14929999999999988,-0.030812412111060502
0.14829999999999988,-0.03085485345005645
0.14729999999999988,-0.030883147676053754
0.14629999999999987,-0.030968030354045658
0.14529999999999987,-0.031052913032037555
0.14429999999999987,-0.03110950148403216
0.14329999999999987,-0.03120853127502271
0.14229999999999987,-0.03127926684001596
0.14129999999999987,-0.03137829663100652
0.14029999999999987,-0.03149147353499571
0.13929999999999987,-0.03154806198699031
0.13829999999999987,-0.031731974455972776
0.13729999999999987,-0.03198662248994848
0.13629999999999987,-0.032057358054941726
0.13529999999999986,-0.032071505167940384
0.13429999999999986,-0.03204321094194308
0.13329999999999986,-0.032085652280939035
0.13229999999999986,-0.032156387845932284
0.13129999999999986,-0.03224127052392419
0.13029999999999986,-0.032326153201916084
0.12929999999999986,-0.03239688876690934
0.12829999999999986,-0.03249591855789989
0.12729999999999986,-0.032708125252879645
0.12629999999999986,-0.0328354492698675
0.12529999999999986,-0.0328354492698675
0.12429999999999986,-0.03287789060886345
0.12329999999999985,-0.03293447906085806
0.12229999999999985,-0.03301936173884996
0.12129999999999985,-0.03313253864283916
0.12029999999999985,-0.03324571554682836
0.11929999999999985,-0.03340133378981351
0.11829999999999985,-0.03341548090281216
0.11729999999999985,-0.03348621646780542
0.11629999999999985,-0.03361354048479327
0.11529999999999985,-0.03375501161477978
0.11429999999999985,-0.03393892408376223
0.11329999999999985,-0.03405210098775143
0.11229999999999984,-0.03408039521374873
0.11129999999999984,-0.03415113077874199
0.11029999999999984,-0.03420771923073659
0.10929999999999984,-0.034264307682731185
0.10829999999999984,-0.034349190360723085
0.10729999999999984,-0.03443407303871499
0.10629999999999984,-0.034561397055702846
0.10529999999999984,-0.034717015298688
0.10429999999999984,-0.034915074880669104
0.10329999999999984,-0.03498581044566235
0.10229999999999984,-0.03495751621966506
0.10129999999999983,-0.0349716633326637
0.10029999999999983,-0.03507069312365426
0.09929999999999983,-0.03511313446265021
0.09829999999999983,-0.03524045847963807
0.09729999999999983,-0.03539607672262322
0.09629999999999983,-0.035565842078607024
0.09529999999999983,-0.03569316609559487
0.09429999999999983,-0.035679018982596226
0.09329999999999983,-0.03572146032159217
0.09229999999999983,-0.03591951990357328
0.09129999999999983,-0.03631563906753549
0.09029999999999982,-0.03637222751953009
0.08929999999999982,-0.03632978618053414
0.08829999999999982,-0.036301491954536844
0.08729999999999982,-0.03635808040653144
0.08629999999999982,-0.036457110197522
0.08529999999999982,-0.036598581327508505
0.08429999999999982,-0.0366834640055004
0.08329999999999982,-0.036782493796490956
0.08229999999999982,-0.03693811203947611
0.08129999999999982,-0.03706543605646396
0.08029999999999982,-0.03717861296045316
0.07929999999999982,-0.03724934852544641
0.07829999999999981,-0.03727764275144372
0.07729999999999981,-0.037320084090439666
0.07629999999999981,-0.037433260994428876
0.07529999999999992,-0.03761717346341132
0.07429999999999992,-0.03782938015839108
0.07329999999999992,-0.03791426283638299
0.07229999999999992,-0.03794255706238028
0.07129999999999992,-0.03801329262737353
0.07029999999999992,-0.03806988107936814
0.06929999999999992,-0.03816891087035869
0.06829999999999992,-0.03828208777434789
0.06729999999999992,-0.038409411791335744
0.06629999999999991,-0.03860747137331685
0.06529999999999991,-0.03866405982531145
0.06429999999999991,-0.038777236729300654
0.06329999999999991,-0.03887626652029121
0.06229999999999991,-0.03891870785928716
0.06129999999999991,-0.039003590537279066
0.06029999999999991,-0.03910262032826961
0.05929999999999991,-0.03921579723225881
0.05829999999999991,-0.03937141547524397
0.05729999999999991,-0.03958362217022373
0.056299999999999906,-0.039696799074212925
0.055299999999999905,-0.03975338752620753
0.054299999999999904,-0.03975338752620753
0.0532999999999999,-0.039824123091200786
0.0522999999999999,-0.039909005769192686
0.0512999999999999,-0.04005047689917919
0.0502999999999999,-0.040262683594158945
0.0492999999999999,-0.040361713385149496
0.0482999999999999,-0.04043244895014275
0.0472999999999999,-0.04058806719312791
0.0462999999999999,-0.040814421001106306
0.045299999999999896,-0.040885156566099555
0.044299999999999895,-0.04084271522710361
0.043299999999999894,-0.040899303679098206
0.04229999999999989,-0.04106906903508201
0.04129999999999989,-0.04135201129505502
0.04029999999999989,-0.04159251221603208
0.03929999999999989,-0.04187545447600509
0.03829999999999989,-0.04183301313700913
0.03729999999999989,-0.04169154200702263
0.03629999999999989,-0.04171983623301993
0.03529999999999989,-0.04187545447600509
0.034299999999999886,-0.04203107271899024
0.033299999999999885,-0.04217254384897674
0.032299999999999884,-0.04232816209196189
0.031299999999999883,-0.04242719188295245
0.030299999999999883,-0.042582810125937606
0.02929999999999988,-0.04259695723893625
0.02829999999999988,-0.042639398577932204
0.02729999999999988,-0.04275257548192141
0.02629999999999988,-0.042936487950903865
0.025299999999999878,-0.04323357732387552
0.024299999999999877,-0.04354481380984583
0.023299999999999876,-0.04357310803584313
0.022299999999999875,-0.043474078244852575
0.021299999999999875,-0.043474078244852575
0.020299999999999874,-0.04357310803584313
0.019299999999999873,-0.04364384360083638
0.018299999999999872,-0.043757020504825585
0.01729999999999987,-0.043912638747810734
0.01629999999999987,-0.04419558100778375
0.01529999999999987,-0.044506817493754056
0.014299999999999868,-0.04456340594574865
0.013299999999999867,-0.04461999439774326
0.012299999999999978,-0.044860495318720314
0.011299999999999866,-0.04491708377071492
0.010299999999999976,-0.04497367222270952
0.009299999999999864,-0.04505855490070142
0.008299999999999974,-0.045072702013700075
0.007299999999999862,-0.04512929046569467
0.006299999999999972,-0.045242467369683875
0.00529999999999986,-0.04552540962965688
0.0042999999999999705,-0.045794204776631244
0.0032999999999998586,-0.04585079322862584
0.0022999999999999687,-0.04590738168062044
0.0012999999999998568,-0.04592152879361909
0.00029999999999996696,-0.04599226435861234
-0.000700000000000145,-0.046147882601597495
-0.0017000000000000348,-0.046275206618585356
-0.0027000000000001467,-0.0464874133135651
-0.0037000000000000366,-0.04675620846053946
-0.0047000000000001485,-0.04674206134754081
-0.005700000000000038,-0.04677035557353812
-0.00670000000000015,-0.046883532477527315
-0.00770000000000004,-0.047166474737500325
-0.008700000000000152,-0.04749185833646928
-0.009700000000000042,-0.04777480059644229
-0.010700000000000154,-0.04781724193543824
-0.011700000000000044,-0.04770406503144904
-0.012700000000000156,-0.04766162369245308
-0.013700000000000045,-0.04776065348344364
-0.014700000000000157,-0.04801530151741934
-0.015700000000000047,-0.04842556779438021
-0.01670000000000016,-0.04866606871535726
-0.01770000000000005,-0.04855289181136806
-0.01870000000000016,-0.04856703892436671
-0.01970000000000005,-0.048637774489359964
-0.020700000000000163,-0.048750951393349166
-0.021700000000000053,-0.04890656963633432
-0.022700000000000164,-0.049005599427324874
-0.023700000000000054,-0.049175364783308674
-0.024700000000000166,-0.049401718591287086
-0.025700000000000056,-0.04962807239926549
-0.026700000000000168,-0.04964221951226414
-0.027700000000000058,-0.04965636662526278
-0.02870000000000017,-0.04978369064225065
-0.02970000000000006,-0.04995345599823445
-0.03070000000000017,-0.050080780015222294
-0.03170000000000006,-0.0501656626932142
-0.03270000000000017,-0.0503071338232007
-0.03370000000000006,-0.05043445784018856
-0.034700000000000175,-0.05068910587416426
-0.035700000000000065,-0.05087301834314672
-0.03670000000000018,-0.05090131256914402
-0.03770000000000007,-0.05095790102113862
-0.03870000000000018,-0.05107107792512782
-0.03970000000000007,-0.051311578846104884
-0.04070000000000018,-0.051764286462061694
-0.04170000000000007,-0.05179258068805899
-0.04270000000000018,-0.051693550897068445
-0.04370000000000007,-0.051764286462061694
-0.044700000000000184,-0.051863316253052245
-0.045700000000000074,-0.05217455273902255
-0.046700000000000186,-0.05252823056398881
-0.047700000000000076,-0.05240090654700096
-0.04870000000000019,-0.052514083450990165
-0.04970000000000008,-0.05262726035497937
-0.05070000000000019,-0.05274043725896857
-0.05170000000000008,-0.05292434972795102
-0.05270000000000019,-0.05316485064892808
-0.05370000000000008,-0.053348763117910536
-0.05470000000000019,-0.05339120445690649
-0.05570000000000008,-0.05346194002189974
-0.056700000000000195,-0.05360341115188624
-0.057700000000000085,-0.05368829382987814
-0.058700000000000196,-0.0541834427848309
-0.059700000000000086,-0.05496153399975667
-0.0607000000000002,-0.05515959358173778
-0.06170000000000009,-0.05503226956474993
-0.0627000000000002,-0.05476347441777557
-0.06370000000000009,-0.05472103307877962
-0.0647000000000002,-0.054820062869770175
-0.06570000000000009,-0.054890798434763424
-0.0667000000000002,-0.05511715224274182
