Potential V vs RHE, Current mA cm-2
0.013299999999999867,3.5311194044631313
0.012299999999999978,2.8761080726256196
0.011299999999999866,2.30880884137974
0.010299999999999976,1.8292217107254924
0.009299999999999864,1.4812027309586933
0.008299999999999974,1.2626298351295453
0.007299999999999862,1.0881959318561862
0.006299999999999972,0.7829012333453113
0.00529999999999986,0.4776065348344364
0.0042999999999999705,0.2594580523952477
0.0032999999999998586,0.12863969849672777
0.0022999999999999687,-0.002205534916489592
0.0012999999999998568,-0.2202705493889862
0.00029999999999996696,-0.48199213986401795
-0.000700000000000145,-0.6564260431373771
-0.0017000000000000348,-0.7001406223032067
-0.0027000000000001467,-0.7872868383748929
-0.0037000000000000366,-1.0054353208140816
-0.0047000000000001485,-1.2234423321232837
-0.005700000000000038,-1.3543031273607997
-0.00670000000000015,-1.3980177065266295
-0.00770000000000004,-1.4415908145624723
-0.008700000000000152,-1.6156003044458718
-0.009700000000000042,-1.8334658446250875
-0.010700000000000154,-1.9650339955125358
-0.011700000000000044,-2.008890045808352
-0.012700000000000156,-2.052746096104168
-0.013700000000000045,-2.1828995356917518
-0.014700000000000157,-2.4007650758709675
-0.015700000000000047,-2.4884771764625997
-0.01670000000000016,-2.4884771764625997
-0.01770000000000005,-2.576189277054232
-0.01870000000000016,-2.706342716641815
-0.01970000000000005,-2.8803522065252145
-0.020700000000000163,-2.968064307116847
-0.021700000000000053,-2.968064307116847
-0.022700000000000164,-3.0119203574126634
-0.023700000000000054,-3.1420737970002466
-0.024700000000000166,-3.317497998183511
-0.025700000000000056,-3.403795387475278
-0.026700000000000168,-3.403795387475278
-0.027700000000000058,-3.447651437771094
-0.02870000000000017,-3.579219588658543
-0.02970000000000006,-3.7093730282461257
-0.03070000000000017,-3.7970851288377587
-0.03170000000000006,-3.840941179133574
-0.03270000000000017,-3.840941179133574
-0.03370000000000006,-3.971094618721158
-0.034700000000000175,-4.102662769608606
-0.035700000000000065,-4.1889601589003735
-0.03670000000000018,-4.1889601589003735
-0.03770000000000007,-4.1889601589003735
-0.03870000000000018,-4.3205283097878215
-0.03970000000000007,-4.494537799671222
-0.04070000000000018,-4.626105950558669
-0.04170000000000007,-4.626105950558669
-0.04270000000000018,-4.582249900262854
-0.04370000000000007,-4.712403339850438
-0.044700000000000184,-4.887827541033701
-0.045700000000000074,-4.974124930325469
-0.046700000000000186,-4.974124930325469
-0.047700000000000076,-5.017980980621284
-0.04870000000000019,-5.105693081212917
-0.04970000000000008,-5.279702571096316
-0.05070000000000019,-5.323558621392133
-0.05170000000000008,-5.323558621392133
-0.05270000000000019,-5.367414671687949
-0.05370000000000008,-5.453712060979717
-0.05470000000000019,-5.629136262162981
-0.05570000000000008,-5.715433651454749
-0.056700000000000195,-5.715433651454749
-0.057700000000000085,-5.715433651454749
-0.058700000000000196,-5.847001802342197
-0.059700000000000086,-5.977155241929781
-0.0607000000000002,-6.064867342521412
-0.06170000000000009,-6.064867342521412
-0.0627000000000002,-6.064867342521412
-0.06370000000000009,-6.196435493408861
-0.0647000000000002,-6.326588932996443
-0.06570000000000009,-6.414301033588076
-0.0667000000000002,-6.414301033588076
-0.0677000000000001,-6.414301033588076
-0.0687000000000002,-6.54445447317566
-0.0697000000000001,-6.6760226240631075
-0.07070000000000021,-6.762320013354876
-0.0717000000000001,-6.762320013354876
-0.07270000000000021,-6.762320013354876
-0.0737000000000001,-6.850032113946507
-0.07470000000000021,-7.024041603829907
-0.0757000000000001,-7.111753704421539
-0.07670000000000021,-7.067897654125724
-0.0777000000000001,-7.111753704421539
-0.07870000000000021,-7.199465805013171
-0.0797000000000001,-7.37347529489657
-0.08070000000000022,-7.461187395488204
-0.0817000000000001,-7.461187395488204
-0.08270000000000022,-7.50504344578402
-0.08370000000000011,-7.635196885371603
-0.08470000000000022,-7.7653503249591855
-0.08570000000000011,-7.853062425550818
-0.08670000000000022,-7.853062425550818
-0.08770000000000011,-7.853062425550818
-0.08870000000000022,-7.984630576438266
-0.08970000000000011,-8.158640066321666
-0.09070000000000022,-8.246352166913299
-0.09170000000000011,-8.288793505909249
-0.09270000000000023,-8.288793505909249
-0.09370000000000012,-8.4203616567967
-0.09470000000000023,-8.594371146680096
-0.09570000000000012,-8.638227196975913
-0.09670000000000023,-8.68208324727173
-0.09770000000000012,-8.68208324727173
-0.09870000000000023,-8.812236686859313
-0.09970000000000012,-8.987660888042578
-0.10070000000000023,-9.073958277334345
-0.10170000000000012,-9.073958277334345
-0.10270000000000024,-9.11781432763016
-0.10370000000000013,-9.24938247851761
-0.10470000000000024,-9.423391968401008
-0.10570000000000013,-9.511104068992642
-0.10670000000000024,-9.511104068992642
-0.10770000000000013,-9.511104068992642
-0.10870000000000024,-9.641257508580225
-0.10970000000000013,-9.81668170976349
-0.11070000000000024,-9.902979099055257
-0.11170000000000013,-9.902979099055257
-0.11270000000000002,-9.946835149351072
-0.11370000000000013,-10.120844639234473
-0.11470000000000002,-10.25241279012192
-0.11570000000000014,-10.382566229709504
-0.11670000000000003,-10.382566229709504
-0.11770000000000014,-10.382566229709504
-0.11870000000000003,-10.557990430892769
-0.11970000000000014,-10.688143870480351
-0.12070000000000003,-10.819712021367803
-0.12170000000000014,-10.819712021367803
-0.12270000000000003,-10.819712021367803
-0.12370000000000014,-10.949865460955383
-0.12470000000000003,-11.123874950838783
-0.12570000000000014,-11.211587051430415
-0.12670000000000003,-11.211587051430415
-0.12770000000000015,-11.255443101726232
-0.12870000000000004,-11.385596541313816
-0.12970000000000015,-11.56102074249708
-0.13070000000000004,-11.691174182084664
-0.13170000000000015,-11.691174182084664
-0.13270000000000004,-11.73503023238048
-0.13370000000000015,-11.86659838326793
-0.13470000000000004,-12.040607873151327
-0.13570000000000015,-12.170761312738911
-0.13670000000000004,-12.170761312738911
-0.13770000000000016,-12.214617363034726
-0.13870000000000005,-12.346185513922174
-0.13970000000000016,-12.520195003805576
-0.14070000000000005,-12.651763154693022
-0.14170000000000016,-12.651763154693022
-0.14270000000000005,-12.694204493688973
-0.14370000000000016,-12.825772644576423
-0.14470000000000005,-12.99978213445982
-0.14570000000000016,-13.13135028534727
-0.14670000000000005,-13.13135028534727
-0.14770000000000016,-13.175206335643086
-0.14870000000000005,-13.261503724934855
-0.14970000000000017,-13.436927926118118
-0.15070000000000006,-13.567081365705702
-0.15170000000000017,-13.610937416001518
-0.15270000000000006,-13.698649516593148
-0.15370000000000017,-13.828802956180734
-0.15470000000000006,-14.002812446064135
-0.15570000000000017,-14.13438059695158
-0.15670000000000006,-14.175407224647667
-0.15770000000000017,-14.217848563643619
-0.15870000000000006,-14.345172580631472
-0.15970000000000018,-14.529085049613924
-0.16070000000000007,-14.69885040559773
-0.16170000000000018,-14.69885040559773
-0.16270000000000007,-14.783733083589633
-0.16370000000000018,-14.967645552572087
-0.16470000000000007,-15.179852247551842
-0.16570000000000018,-15.307176264539699
-0.16670000000000007,-15.349617603535648
-0.16770000000000018,-15.349617603535648
-0.16870000000000007,-15.575971411514052
-0.16970000000000018,-15.74573676749786
-0.17070000000000007,-15.87306078448571
-0.17170000000000019,-15.91550212348166
-0.17270000000000008,-16.014531914472215
-0.1737000000000002,-16.141855931460068
-0.17470000000000008,-16.396503965435777
-0.1757000000000002,-16.495533756426326
-0.17670000000000008,-16.53797509542228
-0.1777000000000002,-16.622857773414182
-0.17870000000000008,-16.750181790402035
-0.1797000000000002,-16.962388485381787
-0.18070000000000008,-17.103859615368293
-0.1817000000000002,-17.188742293360193
-0.18270000000000008,-17.231183632356142
-0.1837000000000002,-17.40094898833995
-0.1847000000000001,-17.627302796318357
-0.1857000000000002,-17.75462681330621
-0.1867000000000001,-17.839509491298113
-0.1877000000000002,-17.924392169290012
-0.1887000000000001,-18.10830463827247
-0.1897000000000002,-18.362952672248177
-0.1907000000000001,-18.49027668923603
-0.1917000000000001,-18.589306480226583
-0.19269999999999998,-18.631747819222536
-0.1937000000000001,-18.843954514202288
-0.19469999999999998,-19.112749661176647
-0.1957000000000001,-19.2400736781645
-0.19669999999999999,-19.3249563561564
-0.1977000000000001,-19.452280373144255
-0.1987,-19.636192842126707
-0.1997000000000001,-19.890840876102416
-0.2007,-20.06060623208622
-0.2017000000000001,-20.159636023076775
-0.2027,-20.244518701068674
-0.2037000000000001,-20.456725396048434
-0.2047,-20.683079204026836
-0.2057000000000001,-20.85284456001064
-0.2067,-20.93772723800254
-0.2077000000000001,-21.022609915994444
-0.2087,-21.248963723972853
-0.2097000000000001,-21.503611757948562
-0.2107,-21.67337711393236
-0.2117000000000001,-21.814848243918867
-0.2127,-21.94217226090672
-0.2137000000000001,-22.196820294882425
-0.2147,-22.46561544185678
-0.2157000000000001,-22.72026347583249
-0.2167,-22.819293266823045
-0.21770000000000012,-22.946617283810895
-0.2187,-23.15882397879065
-0.21970000000000012,-23.427619125765005
-0.2207,-23.639825820744765
-0.22170000000000012,-23.767149837732617
-0.2227,-23.908620967719123
-0.22370000000000012,-24.120827662698876
-0.2247,-24.432064148669184
-0.22570000000000012,-24.64427084364894
-0.2267,-24.771594860636792
-0.22770000000000012,-24.9130659906233
-0.22870000000000001,-25.0828313466071
-0.22970000000000013,-25.39406783257741
-0.23070000000000002,-25.563833188561212
-0.23170000000000013,-25.648715866553115
-0.23270000000000002,-25.81848122253692
-0.23370000000000013,-26.129717708507226
-0.23470000000000002,-26.440954194477534
-0.23570000000000013,-26.69560222845324
-0.23670000000000002,-26.86536758443705
-0.2376999999999999,-27.049280053419505
-0.23870000000000002,-27.303928087395207
-0.2396999999999999,-27.615164573365515
-0.24070000000000003,-27.869812607341224
-0.24169999999999991,-28.05372507632368
-0.24270000000000003,-28.22349043230748
-0.24369999999999992,-28.478138466283188
-0.24470000000000003,-28.831816291249446
-0.24569999999999992,-29.058170099227848
-0.24670000000000003,-29.22793545521166
-0.24769999999999992,-29.39770081119546
-0.24870000000000003,-29.66649595816982
-0.24969999999999992,-30.04846800913338
-0.25070000000000003,-30.274821817111786
-0.2516999999999999,-30.444587173095588
-0.25270000000000004,-30.614352529079397
-0.2536999999999999,-30.88314767605375
-0.25470000000000004,-31.23682550102001
-0.2556999999999999,-31.49147353499572
-0.25670000000000004,-31.717827342974125
-0.25769999999999993,-31.887592698957924
-0.25870000000000004,-32.184682071929586
-0.25969999999999993,-32.53835989689585
-0.26070000000000004,-32.84959638286615
-0.26169999999999993,-33.06180307784591
-0.26270000000000004,-33.288156885824314
-0.26369999999999993,-33.58524625879597
-0.26470000000000005,-33.93892408376223
-0.26569999999999994,-34.236013456733886
-0.26670000000000005,-34.377484586720385
-0.26769999999999994,-34.462367264712285
-0.26870000000000005,-34.632132620696105
-0.26969999999999994,-34.98581044566235
-0.27070000000000005,-35.42437094862052
-0.27169999999999994,-35.763901660588125
-0.27270000000000005,-36.07513814655844
-0.27369999999999994,-36.37222751953009
-0.27470000000000006,-36.6834640055004
-0.27569999999999995,-36.99470049147071
-0.27670000000000006,-37.206907186450465
-0.27769999999999995,-37.47570233342482
-0.27870000000000006,-37.81523304539243
-0.27969999999999995,-38.16891087035869
-0.28070000000000006,-38.522588695324956
-0.28169999999999995,-38.734795390304704
-0.28270000000000006,-38.94700208528445
-0.28369999999999995,-39.258238571254765
-0.28470000000000006,-39.654357735216976
-0.28569999999999995,-39.95144710818864
-0.28670000000000007,-40.26268359415894
-0.28769999999999996,-40.51733162813464
-0.28870000000000007,-40.91345079209687
-0.28969999999999996,-41.39445263405098
-0.29070000000000007,-41.70568912002128
-0.29169999999999996,-41.96033715399699
-0.29270000000000007,-42.186690961975394
-0.29369999999999996,-42.526221673943
-0.2947000000000001,-42.96478217690117
-0.29569999999999996,-43.27601866287147
-0.2967000000000001,-43.53066669684718
-0.29769999999999996,-43.79946184382153
-0.2987000000000001,-44.138992555789144
-0.29969999999999997,-44.535111719751356
-0.3007000000000001,-44.84634820572166
-0.30169999999999997,-45.05855490070142
-0.3027000000000001,-45.32735004767578
-0.30369999999999997,-45.70932209863933
-0.3047000000000001,-46.10544126260155
-0.30569999999999997,-46.45911908756781
-0.3067000000000001,-46.67132578254756
-0.3077,-46.94012092952192
-0.3087000000000001,-47.23721030249357
-0.3097,-47.633329466455784
-0.3107000000000001,-47.93041883942744
-0.3117,-48.156772647405845
-0.3127000000000001,-48.41142068138156
-0.3137,-48.80753984534376
-0.3147000000000001,-49.20365900930597
-0.3157,-49.557336834272235
-0.3167000000000001,-49.85442620724389
-0.3177,-50.0807800152223
-0.3187000000000001,-50.42031072718991
-0.3197,-50.77398855215617
-0.3207000000000001,-50.98619524713592
-0.3217,-51.21254905511432
-0.3227000000000001,-51.424755750094086
-0.3237,-51.82087491405629
-0.3247000000000001,-52.25943541701445
-0.3257,-52.59896612898206
-0.3267000000000001,-52.82531993696047
-0.3277,-53.079967970936174
-0.3287000000000001,-53.39120445690648
-0.3297,-53.7873236208687
-0.3307000000000001,-54.08441299384035
-0.3317,-54.35320814081471
-0.3327000000000001,-54.60785617479041
-0.3337,-54.961533999756675
-0.3347000000000001,-55.442535841710786
-0.3357,-55.6971838756865
-0.3367000000000001,-55.96597902266086
-0.3377,-56.1781857176406
-0.3387000000000001,-56.44698086461496
-0.3397,-56.82895291557852
-0.3407000000000001,-57.097748062552874
-0.3417,-57.26751341853669
-0.3427000000000001,-57.45142588751914
-0.3437,-57.70607392149485
-0.3447000000000001,-58.017310407465146
-0.3457,-58.22951710244491
-0.3467000000000001,-58.39928245842871
-0.3477,-58.62563626640712
-0.3487000000000001,-58.97931409137338
-0.3497,-59.36128614233694
-0.3507000000000001,-59.6300812893113
-0.3517,-59.757405306299155
-0.3527000000000001,-59.92717066228296
-0.3537,-60.19596580925731
-0.3547000000000001,-60.49305518222897
-0.3557,-60.761850329203334
-0.35670000000000013,-60.889174346191176
-0.3577,-61.01649836317903
-0.35870000000000013,-61.28529351015339
-0.3597,-61.53994154412909
-0.36070000000000013,-61.7662953521075
-0.3617,-61.89361936909536
-0.3626999999999999,-61.936060708091304
-0.3637,-62.11997317707376
-0.3646999999999999,-62.28973853305756
-0.3657,-62.33217987205352
-0.3666999999999999,-62.37462121104946
-0.3677,-62.28973853305756
-0.3686999999999999,-62.41706255004542
-0.36970000000000003,-62.544386567033264
-0.3706999999999999,-62.544386567033264
-0.37170000000000003,-62.501945228037314
-0.3726999999999999,-62.41706255004542
-0.37370000000000003,-62.41706255004542
-0.3746999999999999,-62.459503889041365
-0.37570000000000003,-62.41706255004542
-0.3766999999999999,-62.16241451606972
-0.37770000000000004,-61.936060708091304
-0.3786999999999999,-61.89361936909536
-0.37970000000000004,-61.89361936909536
-0.3806999999999999,-61.7662953521075
-0.38170000000000004,-61.49750020513315
-0.38269999999999993,-61.28529351015339
-0.38370000000000004,-61.242852171157445
-0.38469999999999993,-61.242852171157445
-0.38570000000000004,-61.20041083216149
-0.38669999999999993,-60.974057024183075
-0.38770000000000004,-60.67696765121143
-0.38869999999999993,-60.49305518222897
-0.38970000000000005,-60.36573116524111
-0.39069999999999994,-60.15352447026136
-0.39170000000000005,-59.9696120012789
-0.39269999999999994,-59.757405306299155
-0.39370000000000005,-59.54519861131939
-0.39469999999999994,-59.31884480334099
-0.39570000000000005,-59.06419676936528
-0.39669999999999994,-58.71051894439902
-0.39770000000000005,-58.39928245842871
-0.39869999999999994,-58.18707576344896
-0.39970000000000006,-57.93242772947325
-0.40069999999999995,-57.57874990450699
-0.40170000000000006,-57.22507207954074
-0.40269999999999995,-56.82895291557852
-0.40370000000000006,-56.61674622059877
-0.40469999999999995,-56.30550973462846
-0.40570000000000006,-55.9235376836649
-0.40669999999999995,-55.442535841710786
-0.40770000000000006,-54.961533999756675
-0.40869999999999995,-54.65029751378637
-0.40970000000000006,-54.31076680181876
-0.41069999999999995,-53.91464763785655
-0.41170000000000007,-53.433645795902436
-0.41269999999999996,-52.95264395394832
-0.41370000000000007,-52.55652478998611
-0.41469999999999996,-52.2169940780185
-0.41570000000000007,-51.73599223606439
-0.41669999999999996,-51.21254905511432
-0.41770000000000007,-50.73154721316022
-0.41869999999999996,-50.335428049198
-0.4197000000000001,-50.024191563227696
-0.42069999999999996,-49.642219512264134
-0.4217000000000001,-49.118776331314066
-0.42269999999999996,-48.59533315036401
-0.4237000000000001,-48.24165532539775
-0.42469999999999997,-47.93041883942744
-0.4257000000000001,-47.54844678846388
-0.42669999999999997,-47.10988628550572
-0.4277000000000001,-46.628884443551605
-0.42869999999999997,-46.27520661858535
-0.4297000000000001,-45.93567590661774
-0.43069999999999997,-45.581998081651484
-0.4317000000000001,-45.10099623969737
-0.4327,-44.74731841473111
-0.4337000000000001,-44.4926703807554
-0.4347,-44.28046368577565
-0.4357000000000001,-43.92678586080939
-0.4367,-43.53066669684718
-0.4377000000000001,-43.134547532884966
-0.4387,-42.92234083790521
-0.4397000000000001,-42.79501682091736
-0.4407,-42.483780334947056
-0.4417000000000001,-42.087661170984845
-0.4427,-41.70568912002128
-0.4437000000000001,-41.47933531204288
-0.4447,-41.39445263405098
-0.4457000000000001,-41.267128617063115
-0.4467,-41.083216148080666
-0.4477000000000001,-40.91345079209687
-0.4487,-40.78612677510901
-0.4497000000000001,-40.701244097117105
-0.4507,-40.559772967130606
-0.4517000000000001,-40.43244895014274
-0.4527,-40.30512493315489
-0.4537000000000001,-40.30512493315489
-0.4547,-40.34756627215084
-0.4557000000000001,-40.30512493315489
-0.4567,-40.220242255162994
-0.4577000000000001,-40.177800916167044
-0.4587,-40.26268359415894
-0.4597000000000001,-40.43244895014274
-0.4607,-40.43244895014274
-0.4617000000000001,-40.3900076111468
-0.4627,-40.30512493315489
-0.4637000000000001,-40.3900076111468
-0.4647,-40.559772967130606
-0.4657000000000001,-40.616361419125205
-0.4667,-40.701244097117105
-0.4677000000000001,-40.743685436113054
-0.4687,-40.91345079209687
-0.4697000000000001,-41.083216148080666
-0.4707,-41.182245939071215
-0.4717000000000001,-41.083216148080666
-0.4727,-40.99833347008877
-0.4737000000000001,-41.083216148080666
-0.4747,-41.30956995605907
-0.4757000000000001,-41.606659329030734
-0.4767,-41.79057179801318
-0.4777000000000001,-41.74813045901723
-0.4787,-41.91789581500104
-0.4797000000000001,-42.39889765695515
-0.4807,-42.92234083790521
-0.48170000000000013,-43.007223515897124
-0.4827,-43.09210619388902
-0.48370000000000013,-43.31846000186743
-0.4847,-43.657990713835034
-0.48570000000000013,-43.96922719980534
-0.4867,-44.181433894785094
-0.4876999999999999,-44.4077877027635
-0.4887,-44.704877075735155
-0.4896999999999999,-44.97367222270952
-0.4907,-45.27076159568118
-0.4916999999999999,-45.45467406466363
-0.4927,-45.70932209863933
-0.4936999999999999,-46.10544126260155
-0.49470000000000003,-46.586443104555656
-0.4956999999999999,-46.84109113853137
-0.49670000000000003,-47.15232762450167
-0.4976999999999999,-47.36453431948143
-0.49870000000000003,-47.633329466455784
-0.4996999999999999,-48.029448630417996
-0.5007,-48.32653800338966
-0.5016999999999999,-48.59533315036401
-0.5027,-48.84998118433972
-0.5036999999999999,-49.24610034830193
-0.5047,-49.72710219025603
-0.5056999999999999,-50.12322135421825
-0.5067,-50.335428049198
-0.5076999999999999,-50.64666453516831
-0.5087,-51.071077925127824
