Apr. 26, 2025   20:54:07
Cyclic Voltammetry
File: c:/users/guazh/data/banditlqround7_x0exp590_r20/2025-04-16-exp1198\exp1198-2025-04-26t20_29_00-h2koh\exp1198_cv_sr_500mvs_efin_-2000mv.bin
Data Source:  Experiment
Instrument Model:  CHI760E
Header: CV ran at 500 mVs
Note: 

Init E (V) = -1
High E (V) = -1
Low E (V) = -2
Final E (V) = -1
Init P/N = N
Scan Rate (V/s) = 0.5
Segment = 3
Sample Interval (V) = 0.001
Quiet Time (sec) = 2
Sensitivity (A/V) = 0.01
Comp R (ohm) = 1.4

Results:

Channel 1:
Segment 1:

Segment 2:

Segment 3:

Potential/V, Current/A

-1.000, 3.239e-6
-1.001, 3.239e-6
-1.002, 3.239e-6
-1.003, 3.239e-6
-1.004, 3.239e-6
-1.005, 3.239e-6
-1.006, 3.239e-6
-1.007, 3.239e-6
-1.008, 6.322e-6
-1.009, 6.322e-6
-1.010, 3.239e-6
-1.011, 3.239e-6
-1.012, 3.239e-6
-1.013, 6.322e-6
-1.014, 3.239e-6
-1.015, 3.239e-6
-1.016, 6.322e-6
-1.017, 6.322e-6
-1.018, 3.239e-6
-1.019, 3.239e-6
-1.020, 3.239e-6
-1.021, 6.322e-6
-1.022, 3.239e-6
-1.023, 6.322e-6
-1.024, 6.322e-6
-1.025, 6.322e-6
-1.026, 6.322e-6
-1.027, 3.239e-6
-1.028, 3.239e-6
-1.029, 3.239e-6
-1.030, 3.239e-6
-1.031, 6.322e-6
-1.032, 6.322e-6
-1.033, 6.322e-6
-1.034, 6.322e-6
-1.035, 6.322e-6
-1.036, 6.322e-6
-1.037, 6.322e-6
-1.038, 6.322e-6
-1.039, 6.322e-6
-1.040, 6.322e-6
-1.041, 6.322e-6
-1.042, 6.322e-6
-1.043, 3.239e-6
-1.044, 6.322e-6
-1.045, 6.322e-6
-1.046, 6.322e-6
-1.047, 6.322e-6
-1.048, 6.322e-6
-1.049, 6.322e-6
-1.050, 6.322e-6
-1.051, 6.322e-6
-1.052, 6.322e-6
-1.053, 6.322e-6
-1.054, 6.322e-6
-1.055, 6.322e-6
-1.056, 3.239e-6
-1.057, 6.322e-6
-1.058, 6.322e-6
-1.059, 6.322e-6
-1.060, 6.322e-6
-1.061, 6.322e-6
-1.062, 6.322e-6
-1.063, 6.322e-6
-1.064, 6.322e-6
-1.065, 6.322e-6
-1.066, 6.322e-6
-1.067, 6.322e-6
-1.068, 6.322e-6
-1.069, 6.322e-6
-1.070, 6.322e-6
-1.071, 6.322e-6
-1.072, 6.322e-6
-1.073, 6.322e-6
-1.074, 6.322e-6
-1.075, 6.322e-6
-1.076, 6.322e-6
-1.077, 6.322e-6
-1.078, 6.322e-6
-1.079, 6.322e-6
-1.080, 6.322e-6
-1.081, 6.322e-6
-1.082, 6.322e-6
-1.083, 6.322e-6
-1.084, 6.322e-6
-1.085, 6.322e-6
-1.086, 6.322e-6
-1.087, 6.322e-6
-1.088, 6.322e-6
-1.089, 6.322e-6
-1.090, 6.322e-6
-1.091, 6.322e-6
-1.092, 6.322e-6
-1.093, 6.322e-6
-1.094, 6.322e-6
-1.095, 6.322e-6
-1.096, 6.322e-6
-1.097, 6.322e-6
-1.098, 6.322e-6
-1.099, 6.322e-6
-1.100, 6.322e-6
-1.101, 6.322e-6
-1.102, 6.322e-6
-1.103, 6.322e-6
-1.104, 6.322e-6
-1.105, 6.322e-6
-1.106, 6.322e-6
-1.107, 6.322e-6
-1.108, 6.322e-6
-1.109, 6.322e-6
-1.110, 6.322e-6
-1.111, 6.322e-6
-1.112, 6.322e-6
-1.113, 6.322e-6
-1.114, 6.322e-6
-1.115, 6.322e-6
-1.116, 6.322e-6
-1.117, 6.322e-6
-1.118, 6.322e-6
-1.119, 6.322e-6
-1.120, 6.322e-6
-1.121, 6.322e-6
-1.122, 6.322e-6
-1.123, 6.322e-6
-1.124, 6.322e-6
-1.125, 6.322e-6
-1.126, 6.322e-6
-1.127, 6.322e-6
-1.128, 6.322e-6
-1.129, 6.322e-6
-1.130, 6.322e-6
-1.131, 6.322e-6
-1.132, 6.322e-6
-1.133, 6.322e-6
-1.134, 6.322e-6
-1.135, 6.322e-6
-1.136, 6.322e-6
-1.137, 6.322e-6
-1.138, 6.322e-6
-1.139, 6.322e-6
-1.140, 6.322e-6
-1.141, 6.322e-6
-1.142, 6.322e-6
-1.143, 6.322e-6
-1.144, 6.322e-6
-1.145, 6.322e-6
-1.146, 6.322e-6
-1.147, 6.322e-6
-1.148, 6.322e-6
-1.149, 6.322e-6
-1.150, 6.322e-6
-1.151, 6.322e-6
-1.152, 9.405e-6
-1.153, 6.322e-6
-1.154, 6.322e-6
-1.155, 6.322e-6
-1.156, 9.405e-6
-1.157, 6.322e-6
-1.158, 9.405e-6
-1.159, 6.322e-6
-1.160, 6.322e-6
-1.161, 6.322e-6
-1.162, 6.322e-6
-1.163, 6.322e-6
-1.164, 6.322e-6
-1.165, 6.322e-6
-1.166, 6.322e-6
-1.167, 9.405e-6
-1.168, 6.322e-6
-1.169, 6.322e-6
-1.170, 6.322e-6
-1.171, 6.322e-6
-1.172, 6.322e-6
-1.173, 6.322e-6
-1.174, 6.322e-6
-1.175, 9.405e-6
-1.176, 6.322e-6
-1.177, 6.322e-6
-1.178, 6.322e-6
-1.179, 9.405e-6
-1.180, 9.405e-6
-1.181, 9.405e-6
-1.182, 6.322e-6
-1.183, 9.405e-6
-1.184, 9.405e-6
-1.185, 9.405e-6
-1.186, 6.322e-6
-1.187, 6.322e-6
-1.188, 9.405e-6
-1.189, 9.405e-6
-1.190, 9.405e-6
-1.191, 6.322e-6
-1.192, 9.405e-6
-1.193, 9.405e-6
-1.194, 9.405e-6
-1.195, 9.405e-6
-1.196, 9.405e-6
-1.197, 9.405e-6
-1.198, 9.405e-6
-1.199, 6.322e-6
-1.200, 9.405e-6
-1.201, 9.405e-6
-1.202, 9.405e-6
-1.203, 9.405e-6
-1.204, 6.322e-6
-1.205, 9.405e-6
-1.206, 9.405e-6
-1.207, 9.405e-6
-1.208, 6.322e-6
-1.209, 9.405e-6
-1.210, 9.405e-6
-1.211, 9.405e-6
-1.212, 6.322e-6
-1.213, 6.322e-6
-1.214, 9.405e-6
-1.215, 9.405e-6
-1.216, 9.405e-6
-1.217, 9.405e-6
-1.218, 6.322e-6
-1.219, 9.405e-6
-1.220, 9.405e-6
-1.221, 9.405e-6
-1.222, 9.405e-6
-1.223, 9.405e-6
-1.224, 9.405e-6
-1.225, 9.405e-6
-1.226, 9.405e-6
-1.227, 6.322e-6
-1.228, 6.322e-6
-1.229, 9.405e-6
-1.230, 9.405e-6
-1.231, 9.405e-6
-1.232, 9.405e-6
-1.233, 9.405e-6
-1.234, 9.405e-6
-1.235, 9.405e-6
-1.236, 9.405e-6
-1.237, 9.405e-6
-1.238, 9.405e-6
-1.239, 9.405e-6
-1.240, 9.405e-6
-1.241, 9.405e-6
-1.242, 9.405e-6
-1.243, 9.405e-6
-1.244, 9.405e-6
-1.245, 9.405e-6
-1.246, 9.405e-6
-1.247, 9.405e-6
-1.248, 9.405e-6
-1.249, 9.405e-6
-1.250, 9.405e-6
-1.251, 9.405e-6
-1.252, 9.405e-6
-1.253, 9.405e-6
-1.254, 9.405e-6
-1.255, 9.405e-6
-1.256, 9.405e-6
-1.257, 9.405e-6
-1.258, 9.405e-6
-1.259, 9.405e-6
-1.260, 9.405e-6
-1.261, 9.405e-6
-1.262, 9.405e-6
-1.263, 9.405e-6
-1.264, 9.405e-6
-1.265, 9.405e-6
-1.266, 9.405e-6
-1.267, 9.405e-6
-1.268, 9.405e-6
-1.269, 9.405e-6
-1.270, 9.405e-6
-1.271, 9.405e-6
-1.272, 9.405e-6
-1.273, 9.405e-6
-1.274, 9.405e-6
-1.275, 9.405e-6
-1.276, 9.405e-6
-1.277, 9.405e-6
-1.278, 9.405e-6
-1.279, 9.405e-6
-1.280, 9.405e-6
-1.281, 9.405e-6
-1.282, 9.405e-6
-1.283, 9.405e-6
-1.284, 9.405e-6
-1.285, 9.405e-6
-1.286, 9.405e-6
-1.287, 9.405e-6
-1.288, 9.405e-6
-1.289, 9.405e-6
-1.290, 9.405e-6
-1.291, 9.405e-6
-1.292, 9.405e-6
-1.293, 9.405e-6
-1.294, 9.405e-6
-1.295, 9.405e-6
-1.296, 1.249e-5
-1.297, 9.405e-6
-1.298, 9.405e-6
-1.299, 9.405e-6
-1.300, 9.405e-6
-1.301, 9.405e-6
-1.302, 9.405e-6
-1.303, 9.405e-6
-1.304, 9.405e-6
-1.305, 9.405e-6
-1.306, 9.405e-6
-1.307, 9.405e-6
-1.308, 9.405e-6
-1.309, 9.405e-6
-1.310, 9.405e-6
-1.311, 9.405e-6
-1.312, 9.405e-6
-1.313, 9.405e-6
-1.314, 9.405e-6
-1.315, 9.405e-6
-1.316, 9.405e-6
-1.317, 9.405e-6
-1.318, 9.405e-6
-1.319, 9.405e-6
-1.320, 9.405e-6
-1.321, 9.405e-6
-1.322, 9.405e-6
-1.323, 9.405e-6
-1.324, 9.405e-6
-1.325, 1.249e-5
-1.326, 9.405e-6
-1.327, 9.405e-6
-1.328, 9.405e-6
-1.329, 9.405e-6
-1.330, 9.405e-6
-1.331, 9.405e-6
-1.332, 9.405e-6
-1.333, 9.405e-6
-1.334, 9.405e-6
-1.335, 9.405e-6
-1.336, 9.405e-6
-1.337, 1.249e-5
-1.338, 1.249e-5
-1.339, 9.405e-6
-1.340, 9.405e-6
-1.341, 9.405e-6
-1.342, 1.249e-5
-1.343, 1.249e-5
-1.344, 9.405e-6
-1.345, 1.249e-5
-1.346, 1.249e-5
-1.347, 1.249e-5
-1.348, 9.405e-6
-1.349, 9.405e-6
-1.350, 9.405e-6
-1.351, 1.249e-5
-1.352, 9.405e-6
-1.353, 1.249e-5
-1.354, 9.405e-6
-1.355, 9.405e-6
-1.356, 1.249e-5
-1.357, 1.249e-5
-1.358, 9.405e-6
-1.359, 1.249e-5
-1.360, 1.249e-5
-1.361, 1.249e-5
-1.362, 1.249e-5
-1.363, 9.405e-6
-1.364, 1.249e-5
-1.365, 1.249e-5
-1.366, 1.249e-5
-1.367, 1.249e-5
-1.368, 1.249e-5
-1.369, 1.249e-5
-1.370, 1.249e-5
-1.371, 1.249e-5
-1.372, 1.249e-5
-1.373, 1.249e-5
-1.374, 1.249e-5
-1.375, 1.249e-5
-1.376, 9.405e-6
-1.377, 1.249e-5
-1.378, 1.249e-5
-1.379, 1.249e-5
-1.380, 1.249e-5
-1.381, 1.249e-5
-1.382, 1.249e-5
-1.383, 1.249e-5
-1.384, 1.249e-5
-1.385, 1.249e-5
-1.386, 1.249e-5
-1.387, 1.249e-5
-1.388, 1.249e-5
-1.389, 1.249e-5
-1.390, 1.249e-5
-1.391, 1.249e-5
-1.392, 1.249e-5
-1.393, 1.249e-5
-1.394, 1.249e-5
-1.395, 1.249e-5
-1.396, 1.249e-5
-1.397, 1.249e-5
-1.398, 1.249e-5
-1.399, 1.249e-5
-1.400, 1.249e-5
-1.401, 1.249e-5
-1.402, 1.249e-5
-1.403, 1.249e-5
-1.404, 1.249e-5
-1.405, 1.249e-5
-1.406, 1.249e-5
-1.407, 1.249e-5
-1.408, 1.249e-5
-1.409, 1.249e-5
-1.410, 1.249e-5
-1.411, 1.249e-5
-1.412, 1.249e-5
-1.413, 1.249e-5
-1.414, 1.249e-5
-1.415, 1.249e-5
-1.416, 1.249e-5
-1.417, 1.249e-5
-1.418, 1.249e-5
-1.419, 1.249e-5
-1.420, 1.249e-5
-1.421, 1.249e-5
-1.422, 1.249e-5
-1.423, 1.249e-5
-1.424, 1.249e-5
-1.425, 1.249e-5
-1.426, 1.249e-5
-1.427, 1.249e-5
-1.428, 1.249e-5
-1.429, 1.249e-5
-1.430, 1.249e-5
-1.431, 1.249e-5
-1.432, 1.249e-5
-1.433, 1.249e-5
-1.434, 1.249e-5
-1.435, 1.249e-5
-1.436, 1.249e-5
-1.437, 1.249e-5
-1.438, 1.249e-5
-1.439, 1.249e-5
-1.440, 1.249e-5
-1.441, 1.249e-5
-1.442, 1.557e-5
-1.443, 1.249e-5
-1.444, 1.557e-5
-1.445, 1.557e-5
-1.446, 1.557e-5
-1.447, 1.249e-5
-1.448, 1.249e-5
-1.449, 1.249e-5
-1.450, 1.557e-5
-1.451, 1.557e-5
-1.452, 1.249e-5
-1.453, 1.557e-5
-1.454, 1.249e-5
-1.455, 1.557e-5
-1.456, 1.557e-5
-1.457, 1.557e-5
-1.458, 1.557e-5
-1.459, 1.557e-5
-1.460, 1.557e-5
-1.461, 1.557e-5
-1.462, 1.557e-5
-1.463, 1.557e-5
-1.464, 1.557e-5
-1.465, 1.557e-5
-1.466, 1.557e-5
-1.467, 1.557e-5
-1.468, 1.557e-5
-1.469, 1.557e-5
-1.470, 1.557e-5
-1.471, 1.557e-5
-1.472, 1.557e-5
-1.473, 1.557e-5
-1.474, 1.557e-5
-1.475, 1.557e-5
-1.476, 1.557e-5
-1.477, 1.557e-5
-1.478, 1.557e-5
-1.479, 1.557e-5
-1.480, 1.557e-5
-1.481, 1.557e-5
-1.482, 1.557e-5
-1.483, 1.557e-5
-1.484, 1.557e-5
-1.485, 1.557e-5
-1.486, 1.557e-5
-1.487, 1.557e-5
-1.488, 1.557e-5
-1.489, 1.557e-5
-1.490, 1.557e-5
-1.491, 1.557e-5
-1.492, 1.865e-5
-1.493, 1.557e-5
-1.494, 1.557e-5
-1.495, 1.557e-5
-1.496, 1.865e-5
-1.497, 1.557e-5
-1.498, 1.557e-5
-1.499, 1.557e-5
-1.500, 1.865e-5
-1.501, 1.557e-5
-1.502, 1.865e-5
-1.503, 1.557e-5
-1.504, 1.865e-5
-1.505, 1.865e-5
-1.506, 1.865e-5
-1.507, 1.557e-5
-1.508, 1.865e-5
-1.509, 1.865e-5
-1.510, 1.865e-5
-1.511, 1.865e-5
-1.512, 1.865e-5
-1.513, 1.865e-5
-1.514, 1.865e-5
-1.515, 1.865e-5
-1.516, 1.865e-5
-1.517, 1.865e-5
-1.518, 1.865e-5
-1.519, 1.865e-5
-1.520, 1.865e-5
-1.521, 1.865e-5
-1.522, 1.865e-5
-1.523, 1.865e-5
-1.524, 1.865e-5
-1.525, 1.865e-5
-1.526, 1.865e-5
-1.527, 1.865e-5
-1.528, 1.865e-5
-1.529, 1.865e-5
-1.530, 1.865e-5
-1.531, 1.865e-5
-1.532, 1.865e-5
-1.533, 1.865e-5
-1.534, 1.865e-5
-1.535, 1.865e-5
-1.536, 1.865e-5
-1.537, 1.865e-5
-1.538, 1.865e-5
-1.539, 1.865e-5
-1.540, 1.865e-5
-1.541, 1.865e-5
-1.542, 2.174e-5
-1.543, 1.865e-5
-1.544, 1.865e-5
-1.545, 1.865e-5
-1.546, 2.174e-5
-1.547, 1.865e-5
-1.548, 1.865e-5
-1.549, 2.174e-5
-1.550, 1.865e-5
-1.551, 1.865e-5
-1.552, 1.865e-5
-1.553, 1.865e-5
-1.554, 2.174e-5
-1.555, 2.174e-5
-1.556, 2.174e-5
-1.557, 1.865e-5
-1.558, 1.865e-5
-1.559, 2.174e-5
-1.560, 2.174e-5
-1.561, 2.174e-5
-1.562, 2.174e-5
-1.563, 2.174e-5
-1.564, 2.174e-5
-1.565, 2.174e-5
-1.566, 2.174e-5
-1.567, 2.174e-5
-1.568, 2.174e-5
-1.569, 2.174e-5
-1.570, 2.174e-5
-1.571, 2.174e-5
-1.572, 2.174e-5
-1.573, 2.174e-5
-1.574, 2.174e-5
-1.575, 2.174e-5
-1.576, 2.174e-5
-1.577, 2.174e-5
-1.578, 2.174e-5
-1.579, 2.174e-5
-1.580, 2.174e-5
-1.581, 2.174e-5
-1.582, 2.174e-5
-1.583, 2.174e-5
-1.584, 2.174e-5
-1.585, 2.174e-5
-1.586, 2.482e-5
-1.587, 2.174e-5
-1.588, 2.174e-5
-1.589, 2.482e-5
-1.590, 2.482e-5
-1.591, 2.482e-5
-1.592, 2.482e-5
-1.593, 2.482e-5
-1.594, 2.482e-5
-1.595, 2.482e-5
-1.596, 2.482e-5
-1.597, 2.482e-5
-1.598, 2.482e-5
-1.599, 2.482e-5
-1.600, 2.482e-5
-1.601, 2.482e-5
-1.602, 2.482e-5
-1.603, 2.482e-5
-1.604, 2.790e-5
-1.605, 2.790e-5
-1.606, 2.790e-5
-1.607, 2.482e-5
-1.608, 2.482e-5
-1.609, 2.790e-5
-1.610, 2.790e-5
-1.611, 2.790e-5
-1.612, 2.790e-5
-1.613, 2.790e-5
-1.614, 2.790e-5
-1.615, 2.790e-5
-1.616, 2.790e-5
-1.617, 2.790e-5
-1.618, 2.790e-5
-1.619, 2.790e-5
-1.620, 2.790e-5
-1.621, 2.790e-5
-1.622, 3.099e-5
-1.623, 3.099e-5
-1.624, 2.790e-5
-1.625, 3.099e-5
-1.626, 3.099e-5
-1.627, 3.099e-5
-1.628, 3.099e-5
-1.629, 3.099e-5
-1.630, 3.099e-5
-1.631, 3.099e-5
-1.632, 3.099e-5
-1.633, 3.407e-5
-1.634, 3.407e-5
-1.635, 3.407e-5
-1.636, 3.407e-5
-1.637, 3.407e-5
-1.638, 3.407e-5
-1.639, 3.407e-5
-1.640, 3.407e-5
-1.641, 3.715e-5
-1.642, 3.715e-5
-1.643, 3.407e-5
-1.644, 3.715e-5
-1.645, 3.715e-5
-1.646, 3.715e-5
-1.647, 3.715e-5
-1.648, 4.024e-5
-1.649, 3.715e-5
-1.650, 4.024e-5
-1.651, 4.024e-5
-1.652, 4.024e-5
-1.653, 4.024e-5
-1.654, 4.332e-5
-1.655, 4.024e-5
-1.656, 4.332e-5
-1.657, 4.332e-5
-1.658, 4.332e-5
-1.659, 4.332e-5
-1.660, 4.332e-5
-1.661, 4.640e-5
-1.662, 4.640e-5
-1.663, 4.640e-5
-1.664, 4.949e-5
-1.665, 4.949e-5
-1.666, 4.949e-5
-1.667, 4.949e-5
-1.668, 4.949e-5
-1.669, 5.257e-5
-1.670, 4.949e-5
-1.671, 5.257e-5
-1.672, 5.257e-5
-1.673, 5.257e-5
-1.674, 5.565e-5
-1.675, 5.565e-5
-1.676, 5.565e-5
-1.677, 5.873e-5
-1.678, 5.873e-5
-1.679, 5.873e-5
-1.680, 5.873e-5
-1.681, 6.182e-5
-1.682, 6.182e-5
-1.683, 6.182e-5
-1.684, 6.490e-5
-1.685, 6.490e-5
-1.686, 6.490e-5
-1.687, 6.490e-5
-1.688, 6.490e-5
-1.689, 6.798e-5
-1.690, 6.798e-5
-1.691, 6.798e-5
-1.692, 7.107e-5
-1.693, 7.107e-5
-1.694, 7.415e-5
-1.695, 7.415e-5
-1.696, 7.415e-5
-1.697, 7.415e-5
-1.698, 7.723e-5
-1.699, 7.723e-5
-1.700, 8.032e-5
-1.701, 8.032e-5
-1.702, 8.032e-5
-1.703, 8.340e-5
-1.704, 8.340e-5
-1.705, 8.340e-5
-1.706, 8.648e-5
-1.707, 8.648e-5
-1.708, 8.957e-5
-1.709, 8.957e-5
-1.710, 8.957e-5
-1.711, 8.957e-5
-1.712, 9.265e-5
-1.713, 9.573e-5
-1.714, 9.573e-5
-1.715, 9.573e-5
-1.716, 9.573e-5
-1.717, 9.882e-5
-1.718, 9.882e-5
-1.719, 9.882e-5
-1.720, 1.019e-4
-1.721, 1.019e-4
-1.722, 1.050e-4
-1.723, 1.050e-4
-1.724, 1.050e-4
-1.725, 1.081e-4
-1.726, 1.081e-4
-1.727, 1.081e-4
-1.728, 1.081e-4
-1.729, 1.111e-4
-1.730, 1.111e-4
-1.731, 1.111e-4
-1.732, 1.142e-4
-1.733, 1.142e-4
-1.734, 1.142e-4
-1.735, 1.173e-4
-1.736, 1.173e-4
-1.737, 1.173e-4
-1.738, 1.173e-4
-1.739, 1.173e-4
-1.740, 1.204e-4
-1.741, 1.204e-4
-1.742, 1.204e-4
-1.743, 1.235e-4
-1.744, 1.235e-4
-1.745, 1.235e-4
-1.746, 1.235e-4
-1.747, 1.266e-4
-1.748, 1.266e-4
-1.749, 1.296e-4
-1.750, 1.296e-4
-1.751, 1.296e-4
-1.752, 1.296e-4
-1.753, 1.327e-4
-1.754, 1.327e-4
-1.755, 1.358e-4
-1.756, 1.358e-4
-1.757, 1.358e-4
-1.758, 1.389e-4
-1.759, 1.389e-4
-1.760, 1.420e-4
-1.761, 1.420e-4
-1.762, 1.420e-4
-1.763, 1.451e-4
-1.764, 1.451e-4
-1.765, 1.451e-4
-1.766, 1.481e-4
-1.767, 1.512e-4
-1.768, 1.512e-4
-1.769, 1.512e-4
-1.770, 1.543e-4
-1.771, 1.543e-4
-1.772, 1.574e-4
-1.773, 1.574e-4
-1.774, 1.605e-4
-1.775, 1.605e-4
-1.776, 1.636e-4
-1.777, 1.666e-4
-1.778, 1.666e-4
-1.779, 1.666e-4
-1.780, 1.697e-4
-1.781, 1.728e-4
-1.782, 1.728e-4
-1.783, 1.759e-4
-1.784, 1.790e-4
-1.785, 1.790e-4
-1.786, 1.821e-4
-1.787, 1.821e-4
-1.788, 1.851e-4
-1.789, 1.851e-4
-1.790, 1.882e-4
-1.791, 1.913e-4
-1.792, 1.944e-4
-1.793, 1.944e-4
-1.794, 1.975e-4
-1.795, 2.006e-4
-1.796, 2.006e-4
-1.797, 2.036e-4
-1.798, 2.067e-4
-1.799, 2.067e-4
-1.800, 2.098e-4
-1.801, 2.129e-4
-1.802, 2.160e-4
-1.803, 2.191e-4
-1.804, 2.221e-4
-1.805, 2.221e-4
-1.806, 2.252e-4
-1.807, 2.283e-4
-1.808, 2.314e-4
-1.809, 2.345e-4
-1.810, 2.376e-4
-1.811, 2.406e-4
-1.812, 2.437e-4
-1.813, 2.468e-4
-1.814, 2.468e-4
-1.815, 2.499e-4
-1.816, 2.561e-4
-1.817, 2.591e-4
-1.818, 2.591e-4
-1.819, 2.622e-4
-1.820, 2.684e-4
-1.821, 2.715e-4
-1.822, 2.746e-4
-1.823, 2.776e-4
-1.824, 2.807e-4
-1.825, 2.838e-4
-1.826, 2.900e-4
-1.827, 2.900e-4
-1.828, 2.961e-4
-1.829, 2.992e-4
-1.830, 3.023e-4
-1.831, 3.085e-4
-1.832, 3.115e-4
-1.833, 3.146e-4
-1.834, 3.208e-4
-1.835, 3.239e-4
-1.836, 3.270e-4
-1.837, 3.331e-4
-1.838, 3.362e-4
-1.839, 3.424e-4
-1.840, 3.455e-4
-1.841, 3.516e-4
-1.842, 3.547e-4
-1.843, 3.609e-4
-1.844, 3.640e-4
-1.845, 3.701e-4
-1.846, 3.732e-4
-1.847, 3.794e-4
-1.848, 3.855e-4
-1.849, 3.917e-4
-1.850, 3.979e-4
-1.851, 4.010e-4
-1.852, 4.071e-4
-1.853, 4.133e-4
-1.854, 4.195e-4
-1.855, 4.225e-4
-1.856, 4.287e-4
-1.857, 4.349e-4
-1.858, 4.410e-4
-1.859, 4.503e-4
-1.860, 4.534e-4
-1.861, 4.595e-4
-1.862, 4.688e-4
-1.863, 4.750e-4
-1.864, 4.811e-4
-1.865, 4.873e-4
-1.866, 4.965e-4
-1.867, 5.027e-4
-1.868, 5.120e-4
-1.869, 5.181e-4
-1.870, 5.274e-4
-1.871, 5.335e-4
-1.872, 5.397e-4
-1.873, 5.489e-4
-1.874, 5.582e-4
-1.875, 5.674e-4
-1.876, 5.767e-4
-1.877, 5.829e-4
-1.878, 5.921e-4
-1.879, 6.014e-4
-1.880, 6.106e-4
-1.881, 6.199e-4
-1.882, 6.291e-4
-1.883, 6.384e-4
-1.884, 6.476e-4
-1.885, 6.569e-4
-1.886, 6.692e-4
-1.887, 6.784e-4
-1.888, 6.908e-4
-1.889, 7.000e-4
-1.890, 7.124e-4
-1.891, 7.216e-4
-1.892, 7.339e-4
-1.893, 7.463e-4
-1.894, 7.586e-4
-1.895, 7.709e-4
-1.896, 7.833e-4
-1.897, 7.956e-4
-1.898, 8.079e-4
-1.899, 8.233e-4
-1.900, 8.357e-4
-1.901, 8.511e-4
-1.902, 8.634e-4
-1.903, 8.788e-4
-1.904, 8.943e-4
-1.905, 9.066e-4
-1.906, 9.220e-4
-1.907, 9.374e-4
-1.908, 9.528e-4
-1.909, 9.713e-4
-1.910, 9.868e-4
-1.911, 1.002e-3
-1.912, 1.021e-3
-1.913, 1.036e-3
-1.914, 1.055e-3
-1.915, 1.070e-3
-1.916, 1.092e-3
-1.917, 1.110e-3
-1.918, 1.129e-3
-1.919, 1.150e-3
-1.920, 1.169e-3
-1.921, 1.187e-3
-1.922, 1.206e-3
-1.923, 1.227e-3
-1.924, 1.249e-3
-1.925, 1.270e-3
-1.926, 1.292e-3
-1.927, 1.314e-3
-1.928, 1.338e-3
-1.929, 1.360e-3
-1.930, 1.384e-3
-1.931, 1.406e-3
-1.932, 1.431e-3
-1.933, 1.458e-3
-1.934, 1.483e-3
-1.935, 1.508e-3
-1.936, 1.536e-3
-1.937, 1.563e-3
-1.938, 1.591e-3
-1.939, 1.616e-3
-1.940, 1.643e-3
-1.941, 1.674e-3
-1.942, 1.705e-3
-1.943, 1.736e-3
-1.944, 1.767e-3
-1.945, 1.798e-3
-1.946, 1.828e-3
-1.947, 1.859e-3
-1.948, 1.890e-3
-1.949, 1.924e-3
-1.950, 1.958e-3
-1.951, 1.995e-3
-1.952, 2.029e-3
-1.953, 2.063e-3
-1.954, 2.100e-3
-1.955, 2.137e-3
-1.956, 2.174e-3
-1.957, 2.211e-3
-1.958, 2.248e-3
-1.959, 2.288e-3
-1.960, 2.328e-3
-1.961, 2.371e-3
-1.962, 2.411e-3
-1.963, 2.451e-3
-1.964, 2.491e-3
-1.965, 2.534e-3
-1.966, 2.578e-3
-1.967, 2.621e-3
-1.968, 2.664e-3
-1.969, 2.710e-3
-1.970, 2.756e-3
-1.971, 2.800e-3
-1.972, 2.846e-3
-1.973, 2.892e-3
-1.974, 2.941e-3
-1.975, 2.991e-3
-1.976, 3.040e-3
-1.977, 3.093e-3
-1.978, 3.142e-3
-1.979, 3.194e-3
-1.980, 3.244e-3
-1.981, 3.296e-3
-1.982, 3.348e-3
-1.983, 3.404e-3
-1.984, 3.456e-3
-1.985, 3.515e-3
-1.986, 3.570e-3
-1.987, 3.626e-3
-1.988, 3.681e-3
-1.989, 3.737e-3
-1.990, 3.795e-3
-1.991, 3.857e-3
-1.992, 3.919e-3
-1.993, 3.980e-3
-1.994, 4.045e-3
-1.995, 4.107e-3
-1.996, 4.172e-3
-1.997, 4.236e-3
-1.998, 4.301e-3
-1.999, 4.366e-3
-2.000, 4.397e-3
-1.999, 4.366e-3
-1.998, 4.332e-3
-1.997, 4.298e-3
-1.996, 4.261e-3
-1.995, 4.227e-3
-1.994, 4.190e-3
-1.993, 4.156e-3
-1.992, 4.122e-3
-1.991, 4.091e-3
-1.990, 4.058e-3
-1.989, 4.024e-3
-1.988, 3.990e-3
-1.987, 3.956e-3
-1.986, 3.919e-3
-1.985, 3.888e-3
-1.984, 3.851e-3
-1.983, 3.820e-3
-1.982, 3.786e-3
-1.981, 3.752e-3
-1.980, 3.718e-3
-1.979, 3.688e-3
-1.978, 3.654e-3
-1.977, 3.620e-3
-1.976, 3.589e-3
-1.975, 3.558e-3
-1.974, 3.530e-3
-1.973, 3.499e-3
-1.972, 3.469e-3
-1.971, 3.438e-3
-1.970, 3.407e-3
-1.969, 3.376e-3
-1.968, 3.351e-3
-1.967, 3.321e-3
-1.966, 3.296e-3
-1.965, 3.271e-3
-1.964, 3.244e-3
-1.963, 3.219e-3
-1.962, 3.191e-3
-1.961, 3.167e-3
-1.960, 3.142e-3
-1.959, 3.117e-3
-1.958, 3.096e-3
-1.957, 3.071e-3
-1.956, 3.049e-3
-1.955, 3.025e-3
-1.954, 3.003e-3
-1.953, 2.978e-3
-1.952, 2.957e-3
-1.951, 2.935e-3
-1.950, 2.914e-3
-1.949, 2.895e-3
-1.948, 2.874e-3
-1.947, 2.855e-3
-1.946, 2.830e-3
-1.945, 2.812e-3
-1.944, 2.790e-3
-1.943, 2.772e-3
-1.942, 2.753e-3
-1.941, 2.738e-3
-1.940, 2.716e-3
-1.939, 2.698e-3
-1.938, 2.679e-3
-1.937, 2.658e-3
-1.936, 2.642e-3
-1.935, 2.624e-3
-1.934, 2.605e-3
-1.933, 2.587e-3
-1.932, 2.571e-3
-1.931, 2.553e-3
-1.930, 2.534e-3
-1.929, 2.516e-3
-1.928, 2.497e-3
-1.927, 2.482e-3
-1.926, 2.464e-3
-1.925, 2.445e-3
-1.924, 2.430e-3
-1.923, 2.411e-3
-1.922, 2.396e-3
-1.921, 2.377e-3
-1.920, 2.359e-3
-1.919, 2.340e-3
-1.918, 2.322e-3
-1.917, 2.306e-3
-1.916, 2.288e-3
-1.915, 2.272e-3
-1.914, 2.254e-3
-1.913, 2.235e-3
-1.912, 2.217e-3
-1.911, 2.198e-3
-1.910, 2.180e-3
-1.909, 2.161e-3
-1.908, 2.146e-3
-1.907, 2.124e-3
-1.906, 2.109e-3
-1.905, 2.087e-3
-1.904, 2.069e-3
-1.903, 2.050e-3
-1.902, 2.032e-3
-1.901, 2.010e-3
-1.900, 1.995e-3
-1.899, 1.973e-3
-1.898, 1.955e-3
-1.897, 1.936e-3
-1.896, 1.915e-3
-1.895, 1.896e-3
-1.894, 1.872e-3
-1.893, 1.853e-3
-1.892, 1.832e-3
-1.891, 1.813e-3
-1.890, 1.795e-3
-1.889, 1.773e-3
-1.888, 1.751e-3
-1.887, 1.730e-3
-1.886, 1.711e-3
-1.885, 1.690e-3
-1.884, 1.668e-3
-1.883, 1.650e-3
-1.882, 1.628e-3
-1.881, 1.606e-3
-1.880, 1.585e-3
-1.879, 1.563e-3
-1.878, 1.542e-3
-1.877, 1.520e-3
-1.876, 1.499e-3
-1.875, 1.480e-3
-1.874, 1.458e-3
-1.873, 1.437e-3
-1.872, 1.418e-3
-1.871, 1.397e-3
-1.870, 1.375e-3
-1.869, 1.354e-3
-1.868, 1.332e-3
-1.867, 1.314e-3
-1.866, 1.295e-3
-1.865, 1.273e-3
-1.864, 1.252e-3
-1.863, 1.233e-3
-1.862, 1.212e-3
-1.861, 1.193e-3
-1.860, 1.175e-3
-1.859, 1.153e-3
-1.858, 1.135e-3
-1.857, 1.113e-3
-1.856, 1.095e-3
-1.855, 1.076e-3
-1.854, 1.055e-3
-1.853, 1.036e-3
-1.852, 1.018e-3
-1.851, 9.991e-4
-1.850, 9.806e-4
-1.849, 9.621e-4
-1.848, 9.436e-4
-1.847, 9.251e-4
-1.846, 9.066e-4
-1.845, 8.881e-4
-1.844, 8.696e-4
-1.843, 8.542e-4
-1.842, 8.357e-4
-1.841, 8.203e-4
-1.840, 8.018e-4
-1.839, 7.863e-4
-1.838, 7.679e-4
-1.837, 7.555e-4
-1.836, 7.370e-4
-1.835, 7.216e-4
-1.834, 7.062e-4
-1.833, 6.908e-4
-1.832, 6.784e-4
-1.831, 6.630e-4
-1.830, 6.476e-4
-1.829, 6.322e-4
-1.828, 6.199e-4
-1.827, 6.044e-4
-1.826, 5.921e-4
-1.825, 5.798e-4
-1.824, 5.644e-4
-1.823, 5.520e-4
-1.822, 5.397e-4
-1.821, 5.274e-4
-1.820, 5.150e-4
-1.819, 5.027e-4
-1.818, 4.904e-4
-1.817, 4.780e-4
-1.816, 4.688e-4
-1.815, 4.565e-4
-1.814, 4.472e-4
-1.813, 4.349e-4
-1.812, 4.256e-4
-1.811, 4.164e-4
-1.810, 4.040e-4
-1.809, 3.979e-4
-1.808, 3.855e-4
-1.807, 3.794e-4
-1.806, 3.701e-4
-1.805, 3.609e-4
-1.804, 3.516e-4
-1.803, 3.424e-4
-1.802, 3.362e-4
-1.801, 3.270e-4
-1.800, 3.208e-4
-1.799, 3.115e-4
-1.798, 3.054e-4
-1.797, 2.961e-4
-1.796, 2.900e-4
-1.795, 2.838e-4
-1.794, 2.776e-4
-1.793, 2.684e-4
-1.792, 2.653e-4
-1.791, 2.591e-4
-1.790, 2.530e-4
-1.789, 2.468e-4
-1.788, 2.406e-4
-1.787, 2.376e-4
-1.786, 2.283e-4
-1.785, 2.252e-4
-1.784, 2.191e-4
-1.783, 2.160e-4
-1.782, 2.098e-4
-1.781, 2.067e-4
-1.780, 2.006e-4
-1.779, 1.975e-4
-1.778, 1.944e-4
-1.777, 1.882e-4
-1.776, 1.851e-4
-1.775, 1.821e-4
-1.774, 1.790e-4
-1.773, 1.759e-4
-1.772, 1.697e-4
-1.771, 1.666e-4
-1.770, 1.636e-4
-1.769, 1.605e-4
-1.768, 1.574e-4
-1.767, 1.543e-4
-1.766, 1.512e-4
-1.765, 1.481e-4
-1.764, 1.451e-4
-1.763, 1.420e-4
-1.762, 1.420e-4
-1.761, 1.389e-4
-1.760, 1.358e-4
-1.759, 1.327e-4
-1.758, 1.327e-4
-1.757, 1.296e-4
-1.756, 1.266e-4
-1.755, 1.235e-4
-1.754, 1.235e-4
-1.753, 1.204e-4
-1.752, 1.173e-4
-1.751, 1.142e-4
-1.750, 1.142e-4
-1.749, 1.111e-4
-1.748, 1.081e-4
-1.747, 1.081e-4
-1.746, 1.050e-4
-1.745, 1.050e-4
-1.744, 1.019e-4
-1.743, 1.019e-4
-1.742, 9.882e-5
-1.741, 9.882e-5
-1.740, 9.573e-5
-1.739, 9.573e-5
-1.738, 9.265e-5
-1.737, 9.265e-5
-1.736, 8.957e-5
-1.735, 8.957e-5
-1.734, 8.648e-5
-1.733, 8.648e-5
-1.732, 8.648e-5
-1.731, 8.340e-5
-1.730, 8.340e-5
-1.729, 8.032e-5
-1.728, 8.032e-5
-1.727, 7.723e-5
-1.726, 7.723e-5
-1.725, 7.723e-5
-1.724, 7.723e-5
-1.723, 7.415e-5
-1.722, 7.415e-5
-1.721, 7.107e-5
-1.720, 7.107e-5
-1.719, 7.107e-5
-1.718, 6.798e-5
-1.717, 6.798e-5
-1.716, 6.798e-5
-1.715, 6.490e-5
-1.714, 6.490e-5
-1.713, 6.490e-5
-1.712, 6.490e-5
-1.711, 6.182e-5
-1.710, 6.182e-5
-1.709, 6.182e-5
-1.708, 6.182e-5
-1.707, 5.873e-5
-1.706, 5.873e-5
-1.705, 5.565e-5
-1.704, 5.565e-5
-1.703, 5.565e-5
-1.702, 5.565e-5
-1.701, 5.565e-5
-1.700, 5.257e-5
-1.699, 5.257e-5
-1.698, 5.257e-5
-1.697, 5.257e-5
-1.696, 4.949e-5
-1.695, 4.949e-5
-1.694, 4.949e-5
-1.693, 4.949e-5
-1.692, 4.949e-5
-1.691, 4.640e-5
-1.690, 4.640e-5
-1.689, 4.332e-5
-1.688, 4.640e-5
-1.687, 4.640e-5
-1.686, 4.332e-5
-1.685, 4.332e-5
-1.684, 4.332e-5
-1.683, 4.332e-5
-1.682, 4.024e-5
-1.681, 4.024e-5
-1.680, 4.024e-5
-1.679, 4.024e-5
-1.678, 3.715e-5
-1.677, 3.715e-5
-1.676, 3.715e-5
-1.675, 3.715e-5
-1.674, 3.715e-5
-1.673, 3.715e-5
-1.672, 3.407e-5
-1.671, 3.407e-5
-1.670, 3.407e-5
-1.669, 3.407e-5
-1.668, 3.407e-5
-1.667, 3.099e-5
-1.666, 3.099e-5
-1.665, 3.099e-5
-1.664, 3.099e-5
-1.663, 3.099e-5
-1.662, 3.099e-5
-1.661, 2.790e-5
-1.660, 2.790e-5
-1.659, 2.790e-5
-1.658, 2.790e-5
-1.657, 2.482e-5
-1.656, 2.482e-5
-1.655, 2.482e-5
-1.654, 2.482e-5
-1.653, 2.482e-5
-1.652, 2.482e-5
-1.651, 2.482e-5
-1.650, 2.482e-5
-1.649, 2.482e-5
-1.648, 2.174e-5
-1.647, 2.174e-5
-1.646, 2.174e-5
-1.645, 2.174e-5
-1.644, 2.174e-5
-1.643, 2.174e-5
-1.642, 2.174e-5
-1.641, 2.174e-5
-1.640, 1.865e-5
-1.639, 1.865e-5
-1.638, 1.865e-5
-1.637, 1.865e-5
-1.636, 1.865e-5
-1.635, 1.865e-5
-1.634, 1.557e-5
-1.633, 1.865e-5
-1.632, 1.557e-5
-1.631, 1.557e-5
-1.630, 1.557e-5
-1.629, 1.557e-5
-1.628, 1.557e-5
-1.627, 1.557e-5
-1.626, 1.249e-5
-1.625, 1.249e-5
-1.624, 1.249e-5
-1.623, 1.249e-5
-1.622, 1.249e-5
-1.621, 1.249e-5
-1.620, 1.249e-5
-1.619, 1.249e-5
-1.618, 1.249e-5
-1.617, 9.405e-6
-1.616, 1.249e-5
-1.615, 1.249e-5
-1.614, 9.405e-6
-1.613, 9.405e-6
-1.612, 9.405e-6
-1.611, 9.405e-6
-1.610, 9.405e-6
-1.609, 9.405e-6
-1.608, 9.405e-6
-1.607, 9.405e-6
-1.606, 9.405e-6
-1.605, 9.405e-6
-1.604, 9.405e-6
-1.603, 9.405e-6
-1.602, 6.322e-6
-1.601, 9.405e-6
-1.600, 6.322e-6
-1.599, 6.322e-6
-1.598, 6.322e-6
-1.597, 6.322e-6
-1.596, 6.322e-6
-1.595, 6.322e-6
-1.594, 6.322e-6
-1.593, 6.322e-6
-1.592, 6.322e-6
-1.591, 6.322e-6
-1.590, 6.322e-6
-1.589, 3.239e-6
-1.588, 6.322e-6
-1.587, 3.239e-6
-1.586, 6.322e-6
-1.585, 3.239e-6
-1.584, 3.239e-6
-1.583, 6.322e-6
-1.582, 3.239e-6
-1.581, 3.239e-6
-1.580, 3.239e-6
-1.579, 3.239e-6
-1.578, 3.239e-6
-1.577, 3.239e-6
-1.576, 3.239e-6
-1.575, 3.239e-6
-1.574, 3.239e-6
-1.573, 3.239e-6
-1.572, 3.239e-6
-1.571, 3.239e-6
-1.570, 3.239e-6
-1.569, 3.239e-6
-1.568, 3.239e-6
-1.567, 3.239e-6
-1.566, 3.239e-6
-1.565, 3.239e-6
-1.564, 3.239e-6
-1.563, 3.239e-6
-1.562, 3.239e-6
-1.561, 3.239e-6
-1.560, 3.239e-6
-1.559, 3.239e-6
-1.558, 3.239e-6
-1.557, 1.559e-7
-1.556, 3.239e-6
-1.555, 1.559e-7
-1.554, 1.559e-7
-1.553, 1.559e-7
-1.552, 3.239e-6
-1.551, 3.239e-6
-1.550, 3.239e-6
-1.549, 1.559e-7
-1.548, 1.559e-7
-1.547, 1.559e-7
-1.546, 1.559e-7
-1.545, 1.559e-7
-1.544, 1.559e-7
-1.543, 1.559e-7
-1.542, 1.559e-7
-1.541, 1.559e-7
-1.540, 1.559e-7
-1.539, 1.559e-7
-1.538, 1.559e-7
-1.537, 1.559e-7
-1.536, 1.559e-7
-1.535, 1.559e-7
-1.534, 1.559e-7
-1.533, 1.559e-7
-1.532, 1.559e-7
-1.531, 1.559e-7
-1.530, 1.559e-7
-1.529, 1.559e-7
-1.528, 1.559e-7
-1.527, 1.559e-7
-1.526, 1.559e-7
-1.525, 1.559e-7
-1.524, 1.559e-7
-1.523, 1.559e-7
-1.522, 1.559e-7
-1.521, 1.559e-7
-1.520, 1.559e-7
-1.519, 1.559e-7
-1.518, 1.559e-7
-1.517, 1.559e-7
-1.516, 1.559e-7
-1.515, 1.559e-7
-1.514, 1.559e-7
-1.513, 1.559e-7
-1.512, 1.559e-7
-1.511, 1.559e-7
-1.510, 1.559e-7
-1.509, 1.559e-7
-1.508, 1.559e-7
-1.507, 1.559e-7
-1.506, 1.559e-7
-1.505, -2.927e-6
-1.504, 1.559e-7
-1.503, 1.559e-7
-1.502, 1.559e-7
-1.501, 1.559e-7
-1.500, 1.559e-7
-1.499, 1.559e-7
-1.498, 1.559e-7
-1.497, 1.559e-7
-1.496, 1.559e-7
-1.495, 1.559e-7
-1.494, 1.559e-7
-1.493, 1.559e-7
-1.492, 1.559e-7
-1.491, 1.559e-7
-1.490, -2.927e-6
-1.489, 1.559e-7
-1.488, 1.559e-7
-1.487, 1.559e-7
-1.486, 1.559e-7
-1.485, -2.927e-6
-1.484, -2.927e-6
-1.483, 1.559e-7
-1.482, 1.559e-7
-1.481, -2.927e-6
-1.480, 1.559e-7
-1.479, 1.559e-7
-1.478, 1.559e-7
-1.477, 1.559e-7
-1.476, -2.927e-6
-1.475, 1.559e-7
-1.474, 1.559e-7
-1.473, -2.927e-6
-1.472, 1.559e-7
-1.471, 1.559e-7
-1.470, 1.559e-7
-1.469, -2.927e-6
-1.468, -2.927e-6
-1.467, -2.927e-6
-1.466, 1.559e-7
-1.465, 1.559e-7
-1.464, -2.927e-6
-1.463, -2.927e-6
-1.462, 1.559e-7
-1.461, -2.927e-6
-1.460, -2.927e-6
-1.459, -2.927e-6
-1.458, -2.927e-6
-1.457, 1.559e-7
-1.456, -2.927e-6
-1.455, -2.927e-6
-1.454, -2.927e-6
-1.453, -2.927e-6
-1.452, -2.927e-6
-1.451, 1.559e-7
-1.450, 1.559e-7
-1.449, -2.927e-6
-1.448, 1.559e-7
-1.447, -2.927e-6
-1.446, 1.559e-7
-1.445, -2.927e-6
-1.444, -2.927e-6
-1.443, 1.559e-7
-1.442, -2.927e-6
-1.441, -2.927e-6
-1.440, -2.927e-6
-1.439, 1.559e-7
-1.438, -2.927e-6
-1.437, -2.927e-6
-1.436, -2.927e-6
-1.435, 1.559e-7
-1.434, -2.927e-6
-1.433, -2.927e-6
-1.432, -2.927e-6
-1.431, -2.927e-6
-1.430, -2.927e-6
-1.429, -2.927e-6
-1.428, -2.927e-6
-1.427, -2.927e-6
-1.426, -2.927e-6
-1.425, -2.927e-6
-1.424, -2.927e-6
-1.423, -2.927e-6
-1.422, -2.927e-6
-1.421, -2.927e-6
-1.420, -2.927e-6
-1.419, -2.927e-6
-1.418, -2.927e-6
-1.417, -2.927e-6
-1.416, -2.927e-6
-1.415, -2.927e-6
-1.414, -2.927e-6
-1.413, -2.927e-6
-1.412, -2.927e-6
-1.411, 1.559e-7
-1.410, -2.927e-6
-1.409, -2.927e-6
-1.408, -2.927e-6
-1.407, -2.927e-6
-1.406, -2.927e-6
-1.405, -2.927e-6
-1.404, -2.927e-6
-1.403, 1.559e-7
-1.402, -2.927e-6
-1.401, -2.927e-6
-1.400, -2.927e-6
-1.399, -2.927e-6
-1.398, -2.927e-6
-1.397, -2.927e-6
-1.396, -2.927e-6
-1.395, -2.927e-6
-1.394, -2.927e-6
-1.393, -2.927e-6
-1.392, -2.927e-6
-1.391, -2.927e-6
-1.390, -2.927e-6
-1.389, -2.927e-6
-1.388, -2.927e-6
-1.387, -2.927e-6
-1.386, -2.927e-6
-1.385, -2.927e-6
-1.384, -2.927e-6
-1.383, -2.927e-6
-1.382, -2.927e-6
-1.381, -2.927e-6
-1.380, -2.927e-6
-1.379, -2.927e-6
-1.378, -2.927e-6
-1.377, -2.927e-6
-1.376, -2.927e-6
-1.375, -2.927e-6
-1.374, -2.927e-6
-1.373, -2.927e-6
-1.372, -2.927e-6
-1.371, -2.927e-6
-1.370, -2.927e-6
-1.369, -2.927e-6
-1.368, -2.927e-6
-1.367, -2.927e-6
-1.366, -2.927e-6
-1.365, -2.927e-6
-1.364, -2.927e-6
-1.363, -2.927e-6
-1.362, 1.559e-7
-1.361, -2.927e-6
-1.360, -2.927e-6
-1.359, -2.927e-6
-1.358, 1.559e-7
-1.357, -2.927e-6
-1.356, -2.927e-6
-1.355, -2.927e-6
-1.354, -2.927e-6
-1.353, -2.927e-6
-1.352, -2.927e-6
-1.351, -2.927e-6
-1.350, -2.927e-6
-1.349, -2.927e-6
-1.348, -2.927e-6
-1.347, -2.927e-6
-1.346, -2.927e-6
-1.345, -2.927e-6
-1.344, -2.927e-6
-1.343, -2.927e-6
-1.342, -2.927e-6
-1.341, -2.927e-6
-1.340, -2.927e-6
-1.339, -2.927e-6
-1.338, -2.927e-6
-1.337, -2.927e-6
-1.336, -2.927e-6
-1.335, -2.927e-6
-1.334, -2.927e-6
-1.333, -2.927e-6
-1.332, -2.927e-6
-1.331, -2.927e-6
-1.330, -2.927e-6
-1.329, -2.927e-6
-1.328, -2.927e-6
-1.327, -2.927e-6
-1.326, -2.927e-6
-1.325, -2.927e-6
-1.324, -2.927e-6
-1.323, -2.927e-6
-1.322, -2.927e-6
-1.321, -2.927e-6
-1.320, -2.927e-6
-1.319, -2.927e-6
-1.318, -2.927e-6
-1.317, -2.927e-6
-1.316, -2.927e-6
-1.315, -2.927e-6
-1.314, -2.927e-6
-1.313, -2.927e-6
-1.312, -2.927e-6
-1.311, -2.927e-6
-1.310, -2.927e-6
-1.309, -2.927e-6
-1.308, -2.927e-6
-1.307, -2.927e-6
-1.306, -2.927e-6
-1.305, -2.927e-6
-1.304, -2.927e-6
-1.303, -2.927e-6
-1.302, -2.927e-6
-1.301, -2.927e-6
-1.300, -2.927e-6
-1.299, -2.927e-6
-1.298, -2.927e-6
-1.297, -2.927e-6
-1.296, -2.927e-6
-1.295, -2.927e-6
-1.294, -2.927e-6
-1.293, -2.927e-6
-1.292, -2.927e-6
-1.291, -2.927e-6
-1.290, -2.927e-6
-1.289, -2.927e-6
-1.288, -2.927e-6
-1.287, -2.927e-6
-1.286, -2.927e-6
-1.285, -2.927e-6
-1.284, -2.927e-6
-1.283, -2.927e-6
-1.282, -2.927e-6
-1.281, -2.927e-6
-1.280, -2.927e-6
-1.279, -2.927e-6
-1.278, -2.927e-6
-1.277, -2.927e-6
-1.276, -2.927e-6
-1.275, -2.927e-6
-1.274, -2.927e-6
-1.273, -2.927e-6
-1.272, -2.927e-6
-1.271, -2.927e-6
-1.270, -2.927e-6
-1.269, -2.927e-6
-1.268, -2.927e-6
-1.267, -2.927e-6
-1.266, -2.927e-6
-1.265, -2.927e-6
-1.264, -2.927e-6
-1.263, -2.927e-6
-1.262, -2.927e-6
-1.261, -2.927e-6
-1.260, -2.927e-6
-1.259, -2.927e-6
-1.258, -2.927e-6
-1.257, -2.927e-6
-1.256, -2.927e-6
-1.255, -2.927e-6
-1.254, -2.927e-6
-1.253, -2.927e-6
-1.252, -2.927e-6
-1.251, -2.927e-6
-1.250, -2.927e-6
-1.249, -2.927e-6
-1.248, -2.927e-6
-1.247, -2.927e-6
-1.246, -2.927e-6
-1.245, 1.559e-7
-1.244, -2.927e-6
-1.243, -2.927e-6
-1.242, -2.927e-6
-1.241, -2.927e-6
-1.240, -2.927e-6
-1.239, -2.927e-6
-1.238, -2.927e-6
-1.237, -2.927e-6
-1.236, -2.927e-6
-1.235, -2.927e-6
-1.234, -2.927e-6
-1.233, -2.927e-6
-1.232, -2.927e-6
-1.231, -2.927e-6
-1.230, -2.927e-6
-1.229, -2.927e-6
-1.228, -2.927e-6
-1.227, -2.927e-6
-1.226, -2.927e-6
-1.225, -2.927e-6
-1.224, -2.927e-6
-1.223, -2.927e-6
-1.222, -2.927e-6
-1.221, -2.927e-6
-1.220, -2.927e-6
-1.219, -2.927e-6
-1.218, -2.927e-6
-1.217, -2.927e-6
-1.216, -2.927e-6
-1.215, -2.927e-6
-1.214, -2.927e-6
-1.213, -2.927e-6
-1.212, -2.927e-6
-1.211, -2.927e-6
-1.210, -2.927e-6
-1.209, -2.927e-6
-1.208, -2.927e-6
-1.207, -2.927e-6
-1.206, -2.927e-6
-1.205, -2.927e-6
-1.204, -2.927e-6
-1.203, -2.927e-6
-1.202, -2.927e-6
-1.201, -2.927e-6
-1.200, -2.927e-6
-1.199, -2.927e-6
-1.198, -2.927e-6
-1.197, -2.927e-6
-1.196, -2.927e-6
-1.195, -2.927e-6
-1.194, -2.927e-6
-1.193, -2.927e-6
-1.192, -2.927e-6
-1.191, -2.927e-6
-1.190, -2.927e-6
-1.189, -2.927e-6
-1.188, -2.927e-6
-1.187, -2.927e-6
-1.186, -2.927e-6
-1.185, -2.927e-6
-1.184, -2.927e-6
-1.183, -2.927e-6
-1.182, -2.927e-6
-1.181, -2.927e-6
-1.180, -2.927e-6
-1.179, -2.927e-6
-1.178, -2.927e-6
-1.177, -2.927e-6
-1.176, -2.927e-6
-1.175, -2.927e-6
-1.174, -2.927e-6
-1.173, -2.927e-6
-1.172, -2.927e-6
-1.171, -2.927e-6
-1.170, -2.927e-6
-1.169, -2.927e-6
-1.168, -2.927e-6
-1.167, -2.927e-6
-1.166, -2.927e-6
-1.165, -2.927e-6
-1.164, -2.927e-6
-1.163, -6.010e-6
-1.162, -2.927e-6
-1.161, -2.927e-6
-1.160, -2.927e-6
-1.159, -2.927e-6
-1.158, -2.927e-6
-1.157, -2.927e-6
-1.156, -2.927e-6
-1.155, -2.927e-6
-1.154, -2.927e-6
-1.153, -2.927e-6
-1.152, -2.927e-6
-1.151, -2.927e-6
-1.150, -2.927e-6
-1.149, -2.927e-6
-1.148, -2.927e-6
-1.147, -2.927e-6
-1.146, -2.927e-6
-1.145, -2.927e-6
-1.144, -2.927e-6
-1.143, -2.927e-6
-1.142, -2.927e-6
-1.141, -2.927e-6
-1.140, -2.927e-6
-1.139, -2.927e-6
-1.138, -2.927e-6
-1.137, -2.927e-6
-1.136, -2.927e-6
-1.135, -2.927e-6
-1.134, -2.927e-6
-1.133, -2.927e-6
-1.132, -2.927e-6
-1.131, -2.927e-6
-1.130, -2.927e-6
-1.129, -2.927e-6
-1.128, -2.927e-6
-1.127, -2.927e-6
-1.126, -2.927e-6
-1.125, -2.927e-6
-1.124, -2.927e-6
-1.123, -2.927e-6
-1.122, -2.927e-6
-1.121, -2.927e-6
-1.120, -2.927e-6
-1.119, -2.927e-6
-1.118, -2.927e-6
-1.117, -2.927e-6
-1.116, -2.927e-6
-1.115, -2.927e-6
-1.114, -2.927e-6
-1.113, -2.927e-6
-1.112, -2.927e-6
-1.111, -2.927e-6
-1.110, -2.927e-6
-1.109, -2.927e-6
-1.108, -2.927e-6
-1.107, -2.927e-6
-1.106, -2.927e-6
-1.105, -2.927e-6
-1.104, -2.927e-6
-1.103, -2.927e-6
-1.102, -2.927e-6
-1.101, -2.927e-6
-1.100, -2.927e-6
-1.099, -2.927e-6
-1.098, -2.927e-6
-1.097, -2.927e-6
-1.096, -2.927e-6
-1.095, -2.927e-6
-1.094, -2.927e-6
-1.093, -2.927e-6
-1.092, -2.927e-6
-1.091, -2.927e-6
-1.090, -2.927e-6
-1.089, -2.927e-6
-1.088, -2.927e-6
-1.087, -2.927e-6
-1.086, -2.927e-6
-1.085, -2.927e-6
-1.084, -2.927e-6
-1.083, -2.927e-6
-1.082, -2.927e-6
-1.081, -2.927e-6
-1.080, -2.927e-6
-1.079, -2.927e-6
-1.078, -2.927e-6
-1.077, -2.927e-6
-1.076, -2.927e-6
-1.075, -2.927e-6
-1.074, -2.927e-6
-1.073, -2.927e-6
-1.072, -2.927e-6
-1.071, -2.927e-6
-1.070, -2.927e-6
-1.069, -2.927e-6
-1.068, -2.927e-6
-1.067, -2.927e-6
-1.066, -2.927e-6
-1.065, -2.927e-6
-1.064, -2.927e-6
-1.063, -2.927e-6
-1.062, -2.927e-6
-1.061, -2.927e-6
-1.060, -2.927e-6
-1.059, -2.927e-6
-1.058, -2.927e-6
-1.057, -2.927e-6
-1.056, -2.927e-6
-1.055, -2.927e-6
-1.054, -2.927e-6
-1.053, -2.927e-6
-1.052, -2.927e-6
-1.051, -2.927e-6
-1.050, -2.927e-6
-1.049, -2.927e-6
-1.048, -2.927e-6
-1.047, -2.927e-6
-1.046, -2.927e-6
-1.045, -2.927e-6
-1.044, -2.927e-6
-1.043, -2.927e-6
-1.042, -2.927e-6
-1.041, -2.927e-6
-1.040, -2.927e-6
-1.039, -2.927e-6
-1.038, -2.927e-6
-1.037, -2.927e-6
-1.036, -2.927e-6
-1.035, -2.927e-6
-1.034, -2.927e-6
-1.033, -2.927e-6
-1.032, -2.927e-6
-1.031, -2.927e-6
-1.030, -2.927e-6
-1.029, -2.927e-6
-1.028, -2.927e-6
-1.027, -2.927e-6
-1.026, -2.927e-6
-1.025, -2.927e-6
-1.024, -2.927e-6
-1.023, -2.927e-6
-1.022, -2.927e-6
-1.021, -2.927e-6
-1.020, -2.927e-6
-1.019, -2.927e-6
-1.018, -2.927e-6
-1.017, -2.927e-6
-1.016, -2.927e-6
-1.015, -2.927e-6
-1.014, -2.927e-6
-1.013, -2.927e-6
-1.012, -2.927e-6
-1.011, -2.927e-6
-1.010, -2.927e-6
-1.009, -2.927e-6
-1.008, -2.927e-6
-1.007, -2.927e-6
-1.006, -2.927e-6
-1.005, -2.927e-6
-1.004, -2.927e-6
-1.003, -2.927e-6
-1.002, -2.927e-6
-1.001, -2.927e-6
