Potential V vs RHE, Current mA cm-2
0.013299999999999867,-0.2202705493889862
0.012299999999999978,-1.1362961160515976
0.011299999999999866,-1.92117794521672
0.010299999999999976,-2.576189277054232
0.009299999999999864,-3.1859298472960624
0.008299999999999974,-3.7093730282461257
0.007299999999999862,-4.146518819904423
0.006299999999999972,-4.538393849967037
0.00529999999999986,-4.843971490737885
0.0042999999999999705,-5.149549131508733
0.0032999999999998586,-5.411270721983764
0.0022999999999999687,-5.629136262162981
0.0012999999999998568,-5.890857852638012
0.00029999999999996696,-6.021011292225596
-0.000700000000000145,-6.238876832404812
-0.0017000000000000348,-6.37044498329226
-0.0027000000000001467,-6.500598422879844
-0.0037000000000000366,-6.632166573767292
-0.0047000000000001485,-6.719878674358924
-0.005700000000000038,-6.806176063650692
-0.00670000000000015,-6.893888164242324
-0.00770000000000004,-6.981600264833956
-0.008700000000000152,-7.067897654125724
-0.009700000000000042,-7.155609754717355
-0.010700000000000154,-7.199465805013171
-0.011700000000000044,-7.243321855308987
-0.012700000000000156,-7.28576319430494
-0.013700000000000045,-7.329619244600755
-0.014700000000000157,-7.37347529489657
-0.015700000000000047,-7.4173313451923875
-0.01670000000000016,-7.50504344578402
-0.01770000000000005,-7.50504344578402
-0.01870000000000016,-7.50504344578402
-0.01970000000000005,-7.5474847847799715
-0.020700000000000163,-7.591340835075788
-0.021700000000000053,-7.591340835075788
-0.022700000000000164,-7.635196885371603
-0.023700000000000054,-7.679052935667419
-0.024700000000000166,-7.679052935667419
-0.025700000000000056,-7.722908985963235
-0.026700000000000168,-7.722908985963235
-0.027700000000000058,-7.7653503249591855
-0.02870000000000017,-7.7653503249591855
-0.02970000000000006,-7.7653503249591855
-0.03070000000000017,-7.7653503249591855
-0.03170000000000006,-7.7653503249591855
-0.03270000000000017,-7.809206375255003
-0.03370000000000006,-7.809206375255003
-0.034700000000000175,-7.809206375255003
-0.035700000000000065,-7.809206375255003
-0.03670000000000018,-7.853062425550818
-0.03770000000000007,-7.853062425550818
-0.03870000000000018,-7.853062425550818
-0.03970000000000007,-7.809206375255003
-0.04070000000000018,-7.853062425550818
-0.04170000000000007,-7.853062425550818
-0.04270000000000018,-7.896918475846635
-0.04370000000000007,-7.896918475846635
-0.044700000000000184,-7.853062425550818
-0.045700000000000074,-7.896918475846635
-0.046700000000000186,-7.853062425550818
-0.047700000000000076,-7.896918475846635
-0.04870000000000019,-7.896918475846635
-0.04970000000000008,-7.940774526142452
-0.05070000000000019,-7.940774526142452
-0.05170000000000008,-7.984630576438266
-0.05270000000000019,-7.984630576438266
-0.05370000000000008,-7.940774526142452
-0.05470000000000019,-7.940774526142452
-0.05570000000000008,-7.940774526142452
-0.056700000000000195,-7.940774526142452
-0.057700000000000085,-7.984630576438266
-0.058700000000000196,-7.984630576438266
-0.059700000000000086,-8.027071915434218
-0.0607000000000002,-7.984630576438266
-0.06170000000000009,-8.027071915434218
-0.0627000000000002,-8.027071915434218
-0.06370000000000009,-7.984630576438266
-0.0647000000000002,-8.027071915434218
-0.06570000000000009,-8.027071915434218
-0.0667000000000002,-8.027071915434218
-0.0677000000000001,-8.027071915434218
-0.0687000000000002,-8.027071915434218
-0.0697000000000001,-8.027071915434218
-0.07070000000000021,-8.027071915434218
-0.0717000000000001,-8.027071915434218
-0.07270000000000021,-8.027071915434218
-0.0737000000000001,-8.027071915434218
-0.07470000000000021,-8.027071915434218
-0.0757000000000001,-8.070927965730034
-0.07670000000000021,-8.027071915434218
-0.0777000000000001,-8.070927965730034
-0.07870000000000021,-8.027071915434218
-0.0797000000000001,-8.027071915434218
-0.08070000000000022,-8.027071915434218
-0.0817000000000001,-8.027071915434218
-0.08270000000000022,-8.027071915434218
-0.08370000000000011,-8.070927965730034
-0.08470000000000022,-8.070927965730034
-0.08570000000000011,-8.070927965730034
-0.08670000000000022,-8.070927965730034
-0.08770000000000011,-8.070927965730034
-0.08870000000000022,-8.070927965730034
-0.08970000000000011,-8.070927965730034
-0.09070000000000022,-8.11478401602585
-0.09170000000000011,-8.11478401602585
-0.09270000000000023,-8.11478401602585
-0.09370000000000012,-8.070927965730034
-0.09470000000000023,-8.070927965730034
-0.09570000000000012,-8.070927965730034
-0.09670000000000023,-8.070927965730034
-0.09770000000000012,-8.070927965730034
-0.09870000000000023,-8.070927965730034
-0.09970000000000012,-8.11478401602585
-0.10070000000000023,-8.11478401602585
-0.10170000000000012,-8.158640066321666
-0.10270000000000024,-8.158640066321666
-0.10370000000000013,-8.11478401602585
-0.10470000000000024,-8.158640066321666
-0.10570000000000013,-8.158640066321666
-0.10670000000000024,-8.158640066321666
-0.10770000000000013,-8.158640066321666
-0.10870000000000024,-8.158640066321666
-0.10970000000000013,-8.202496116617484
-0.11070000000000024,-8.202496116617484
-0.11170000000000013,-8.202496116617484
-0.11270000000000002,-8.202496116617484
-0.11370000000000013,-8.246352166913299
-0.11470000000000002,-8.246352166913299
-0.11570000000000014,-8.246352166913299
-0.11670000000000003,-8.246352166913299
-0.11770000000000014,-8.246352166913299
-0.11870000000000003,-8.246352166913299
-0.11970000000000014,-8.246352166913299
-0.12070000000000003,-8.246352166913299
-0.12170000000000014,-8.246352166913299
-0.12270000000000003,-8.246352166913299
-0.12370000000000014,-8.246352166913299
-0.12470000000000003,-8.246352166913299
-0.12570000000000014,-8.288793505909249
-0.12670000000000003,-8.288793505909249
-0.12770000000000015,-8.288793505909249
-0.12870000000000004,-8.288793505909249
-0.12970000000000015,-8.246352166913299
-0.13070000000000004,-8.246352166913299
-0.13170000000000015,-8.246352166913299
-0.13270000000000004,-8.288793505909249
-0.13370000000000015,-8.332649556205066
-0.13470000000000004,-8.332649556205066
-0.13570000000000015,-8.332649556205066
-0.13670000000000004,-8.332649556205066
-0.13770000000000016,-8.332649556205066
-0.13870000000000005,-8.332649556205066
-0.13970000000000016,-8.376505606500881
-0.14070000000000005,-8.376505606500881
-0.14170000000000016,-8.376505606500881
-0.14270000000000005,-8.4203616567967
-0.14370000000000016,-8.376505606500881
-0.14470000000000005,-8.376505606500881
-0.14570000000000016,-8.376505606500881
-0.14670000000000005,-8.376505606500881
-0.14770000000000016,-8.376505606500881
-0.14870000000000005,-8.4203616567967
-0.14970000000000017,-8.4203616567967
-0.15070000000000006,-8.4203616567967
-0.15170000000000017,-8.464217707092514
-0.15270000000000006,-8.464217707092514
-0.15370000000000017,-8.4203616567967
-0.15470000000000006,-8.464217707092514
-0.15570000000000017,-8.464217707092514
-0.15670000000000006,-8.508073757388331
-0.15770000000000017,-8.508073757388331
-0.15870000000000006,-8.55051509638428
-0.15970000000000018,-8.55051509638428
-0.16070000000000007,-8.55051509638428
-0.16170000000000018,-8.55051509638428
-0.16270000000000007,-8.55051509638428
-0.16370000000000018,-8.55051509638428
-0.16470000000000007,-8.55051509638428
-0.16570000000000018,-8.594371146680096
-0.16670000000000007,-8.594371146680096
-0.16770000000000018,-8.594371146680096
-0.16870000000000007,-8.638227196975913
-0.16970000000000018,-8.638227196975913
-0.17070000000000007,-8.68208324727173
-0.17170000000000019,-8.725939297567548
-0.17270000000000008,-8.725939297567548
-0.1737000000000002,-8.725939297567548
-0.17470000000000008,-8.725939297567548
-0.1757000000000002,-8.769795347863363
-0.17670000000000008,-8.769795347863363
-0.1777000000000002,-8.812236686859313
-0.17870000000000008,-8.812236686859313
-0.1797000000000002,-8.812236686859313
-0.18070000000000008,-8.812236686859313
-0.1817000000000002,-8.85609273715513
-0.18270000000000008,-8.899948787450944
-0.1837000000000002,-8.899948787450944
-0.1847000000000001,-8.943804837746763
-0.1857000000000002,-8.943804837746763
-0.1867000000000001,-8.943804837746763
-0.1877000000000002,-8.943804837746763
-0.1887000000000001,-8.987660888042578
-0.1897000000000002,-8.987660888042578
-0.1907000000000001,-9.031516938338395
-0.1917000000000001,-9.073958277334345
-0.19269999999999998,-9.073958277334345
-0.1937000000000001,-9.11781432763016
-0.19469999999999998,-9.11781432763016
-0.1957000000000001,-9.11781432763016
-0.19669999999999999,-9.11781432763016
-0.1977000000000001,-9.161670377925978
-0.1987,-9.205526428221793
-0.1997000000000001,-9.205526428221793
-0.2007,-9.24938247851761
-0.2017000000000001,-9.293238528813426
-0.2027,-9.293238528813426
-0.2037000000000001,-9.335679867809377
-0.2047,-9.335679867809377
-0.2057000000000001,-9.379535918105192
-0.2067,-9.423391968401008
-0.2077000000000001,-9.467248018696827
-0.2087,-9.511104068992642
-0.2097000000000001,-9.55496011928846
-0.2107,-9.55496011928846
-0.2117000000000001,-9.55496011928846
-0.2127,-9.55496011928846
-0.2137000000000001,-9.59740145828441
-0.2147,-9.59740145828441
-0.2157000000000001,-9.685113558876042
-0.2167,-9.772825659467674
-0.21770000000000012,-9.85912304875944
-0.2187,-9.902979099055257
-0.21970000000000012,-9.99069119964689
-0.2207,-10.034547249942705
-0.22170000000000012,-10.078403300238522
-0.2227,-10.078403300238522
-0.22370000000000012,-10.078403300238522
-0.2247,-10.078403300238522
-0.22570000000000012,-10.120844639234473
-0.2267,-10.164700689530287
-0.22770000000000012,-10.25241279012192
-0.22870000000000001,-10.25241279012192
-0.22970000000000013,-10.340124890713554
-0.23070000000000002,-10.382566229709504
-0.23170000000000013,-10.42642228000532
-0.23270000000000002,-10.514134380596953
-0.23370000000000013,-10.557990430892769
-0.23470000000000002,-10.644287820184536
-0.23570000000000013,-10.644287820184536
-0.23670000000000002,-10.688143870480351
-0.2376999999999999,-10.688143870480351
-0.23870000000000002,-10.775855971071984
-0.2396999999999999,-10.819712021367803
-0.24070000000000003,-10.906009410659568
-0.24169999999999991,-10.993721511251199
-0.24270000000000003,-11.081433611842833
-0.24369999999999992,-11.1677310011346
-0.24470000000000003,-11.211587051430415
-0.24569999999999992,-11.299299152022046
-0.24670000000000003,-11.385596541313816
-0.24769999999999992,-11.42945259160963
-0.24870000000000003,-11.517164692201263
-0.24969999999999992,-11.56102074249708
-0.25070000000000003,-11.647318131788847
-0.2516999999999999,-11.73503023238048
-0.25270000000000004,-11.82274233297211
-0.2536999999999999,-11.86659838326793
-0.25470000000000004,-11.952895772559694
-0.2556999999999999,-12.040607873151327
-0.25670000000000004,-12.12831997374296
-0.25769999999999993,-12.214617363034726
-0.25870000000000004,-12.302329463626359
-0.25969999999999993,-12.390041564217992
-0.26070000000000004,-12.476338953509758
-0.26169999999999993,-12.56405105410139
-0.26270000000000004,-12.651763154693022
-0.26369999999999993,-12.73806054398479
-0.26470000000000005,-12.825772644576423
-0.26569999999999994,-12.913484745168056
-0.26670000000000005,-13.087494235051453
-0.26769999999999994,-13.217647674639037
-0.26870000000000005,-13.30535977523067
-0.26969999999999994,-13.3930718758223
-0.27070000000000005,-13.47936926511407
-0.27169999999999994,-13.610937416001518
-0.27270000000000005,-13.741090855589102
-0.27369999999999994,-13.872659006476551
-0.27470000000000006,-13.960371107068182
-0.27569999999999995,-14.090524546655764
-0.27670000000000006,-14.175407224647667
-0.27769999999999995,-14.30273124163552
-0.27870000000000006,-14.401761032626075
-0.27969999999999995,-14.529085049613924
-0.28070000000000006,-14.69885040559773
-0.28169999999999995,-14.868615761581536
-0.28270000000000006,-15.01008689156804
-0.28369999999999995,-15.137410908555893
-0.28470000000000006,-15.264734925543747
-0.28569999999999995,-15.349617603535648
-0.28670000000000007,-15.491088733522153
-0.28769999999999996,-15.660854089505953
-0.28870000000000007,-15.830619445489761
-0.28969999999999996,-15.972090575476265
-0.29070000000000007,-16.141855931460068
-0.29169999999999996,-16.311621287443874
-0.29270000000000007,-16.438945304431726
-0.29369999999999996,-16.622857773414182
-0.2947000000000001,-16.750181790402035
-0.29569999999999996,-16.962388485381787
-0.2967000000000001,-17.103859615368293
-0.29769999999999996,-17.231183632356142
-0.2987000000000001,-17.40094898833995
-0.29969999999999997,-17.584861457322408
-0.3007000000000001,-17.797068152302163
-0.30169999999999997,-17.966833508285966
-0.3027000000000001,-18.15074597726842
-0.30369999999999997,-18.320511333252224
-0.3047000000000001,-18.49027668923603
-0.30569999999999997,-18.674189158218486
-0.3067000000000001,-18.80151317520634
-0.3077,-19.01371987018609
-0.3087000000000001,-19.2400736781645
-0.3097,-19.49472171214021
-0.3107000000000001,-19.678634181122664
-0.3117,-19.848399537106463
-0.3127000000000001,-20.01816489309027
-0.3137,-20.202077362072725
-0.3147000000000001,-20.414284057052477
-0.3157,-20.683079204026836
-0.3167000000000001,-20.93772723800254
-0.3177,-21.149933932982297
-0.3187000000000001,-21.376287740960702
-0.3197,-21.58849443594046
-0.3207000000000001,-21.814848243918867
-0.3217,-22.069496277894572
-0.3227000000000001,-22.295850085872978
-0.3237,-22.592939458844636
-0.3247000000000001,-22.861734605818995
-0.3257,-23.1163826397947
-0.3267000000000001,-23.385177786769056
-0.3277,-23.597384481748815
-0.3287000000000001,-23.823738289727217
-0.3297,-24.078386323702922
-0.3307000000000001,-24.34718147067728
-0.3317,-24.64427084364894
-0.3327000000000001,-24.870624651627345
-0.3337,-25.167714024599
-0.3347000000000001,-25.43650917157336
-0.3357,-25.691157205549064
-0.3367000000000001,-25.959952352523427
-0.3377,-26.257041725495082
-0.3387000000000001,-26.525836872469437
-0.3397,-26.780484906445146
-0.3407000000000001,-27.091721392415455
-0.3417,-27.34636942639116
-0.3427000000000001,-27.65760591236147
-0.3437,-27.954695285333123
-0.3447000000000001,-28.22349043230748
-0.3457,-28.53472691827779
-0.3467000000000001,-28.831816291249446
-0.3477,-29.14305277721976
-0.3487000000000001,-29.482583489187363
-0.3497,-29.793819975157668
-0.3507000000000001,-30.147497800123933
-0.3517,-30.402145834099635
-0.3527000000000001,-30.71338232006995
-0.3537,-31.010471693041605
-0.3547000000000001,-31.36414951800786
-0.3557,-31.717827342974125
-0.35670000000000013,-32.01491671594578
-0.3577,-32.32615320191609
-0.35870000000000013,-32.62324257488775
-0.3597,-32.93447906085806
-0.36070000000000013,-33.231568433829715
-0.3617,-33.627687597791926
-0.3626999999999999,-33.98136542275818
-0.3637,-34.278454795729836
-0.3646999999999999,-34.632132620696105
-0.3657,-34.94336910666641
-0.3666999999999999,-35.282899818634014
-0.3677,-35.636577643600276
-0.3686999999999999,-36.03269680756248
-0.36970000000000003,-36.4288159715247
-0.3706999999999999,-36.725905344496354
-0.37170000000000003,-37.122024508458566
-0.3726999999999999,-37.51814367242077
-0.37370000000000003,-37.85767438438838
-0.3746999999999999,-38.253793548350586
-0.37570000000000003,-38.6499127123128
-0.3766999999999999,-38.98944342428042
-0.37770000000000004,-39.38556258824262
-0.3786999999999999,-39.78168175220483
-0.37970000000000004,-40.135359577171094
-0.3806999999999999,-40.51733162813464
-0.38170000000000004,-40.91345079209687
-0.38269999999999993,-41.352011295055014
-0.38370000000000004,-41.74813045901723
-0.38469999999999993,-42.087661170984845
-0.38570000000000004,-42.483780334947056
-0.38669999999999993,-42.87989949890926
-0.38770000000000004,-43.27601866287147
-0.38869999999999993,-43.657990713835034
-0.38970000000000005,-44.011668538801295
-0.39069999999999994,-44.4077877027635
-0.39170000000000005,-44.84634820572166
-0.39269999999999994,-45.27076159568118
-0.39370000000000005,-45.70932209863933
-0.39469999999999994,-46.10544126260155
-0.39570000000000005,-46.501560426563756
-0.39669999999999994,-46.84109113853137
-0.39770000000000005,-47.32209298048547
-0.39869999999999994,-47.76065348344364
-0.39970000000000006,-48.24165532539775
-0.40069999999999995,-48.63777448935996
-0.40170000000000006,-49.03389365332217
-0.40269999999999995,-49.41586570428573
-0.40370000000000006,-49.81198486824794
-0.40469999999999995,-50.20810403221015
-0.40570000000000006,-50.60422319617236
-0.40669999999999995,-51.071077925127824
-0.40770000000000006,-51.55207976708194
-0.40869999999999995,-52.033081609036046
-0.40970000000000006,-52.514083450990164
-0.41069999999999995,-52.91020261495237
-0.41170000000000007,-53.348763117910536
-0.41269999999999996,-53.74488228187274
-0.41370000000000007,-54.16929567183226
-0.41469999999999996,-54.60785617479041
-0.41570000000000007,-55.046416677748574
-0.41669999999999996,-55.442535841710786
-0.41770000000000007,-55.838655005673
-0.41869999999999996,-56.1781857176406
-0.4197000000000001,-56.57430488160282
-0.42069999999999996,-57.012865384560975
-0.4217000000000001,-57.493867226515086
-0.42269999999999996,-58.017310407465146
-0.4237000000000001,-58.498312249419264
-0.42469999999999997,-58.880284300382826
-0.4257000000000001,-59.31884480334099
-0.42669999999999997,-59.7998466452951
-0.4277000000000001,-60.32328982624517
-0.42869999999999997,-60.80429166819927
-0.4297000000000001,-61.242852171157445
-0.43069999999999997,-61.63897133511965
-0.4317000000000001,-62.11997317707376
-0.4327,-62.68585769701977
-0.4337000000000001,-63.251742216965795
-0.4347,-63.77518539791585
-0.4357000000000001,-64.19959878787537
-0.4367,-64.63815929083353
-0.4377000000000001,-65.11916113278764
-0.4387,-65.64260431373769
-0.4397000000000001,-66.16604749468777
-0.4407,-66.60460799764593
-0.4417000000000001,-67.08560983960004
-0.4427,-67.56661168155415
-0.4437000000000001,-68.0900548625042
-0.4447,-68.61349804345427
-0.4457000000000001,-69.0944998854084
-0.4467,-69.53306038836655
-0.4477000000000001,-70.01406223032066
-0.4487,-70.43847562028017
-0.4497000000000001,-70.87703612323833
-0.4507,-71.4004793041884
-0.4517000000000001,-71.96636382413442
-0.4527,-72.57468968307639
-0.4537000000000001,-73.09813286402644
-0.4547,-73.62157604497652
-0.4557000000000001,-74.06013654793468
-0.4567,-74.41381437290093
-0.4577000000000001,-74.8523748758591
-0.4587,-75.37581805680915
-0.4597000000000001,-75.98414391575112
-0.4607,-76.46514575770523
-0.4617000000000001,-76.81882358267148
-0.4627,-77.20079563363505
-0.4637000000000001,-77.68179747558916
-0.4647,-78.38915312552167
-0.4657000000000001,-79.16724434044745
-0.4667,-79.7755701993894
-0.4677000000000001,-80.25657204134353
-0.4687,-80.7800152222936
-0.4697000000000001,-81.30345840324367
-0.4707,-81.86934292318966
-0.4717000000000001,-82.43522744313569
-0.4727,-82.95867062408576
-0.4737000000000001,-83.48211380503581
-0.4747,-83.96311564698992
-0.4757000000000001,-84.52900016693594
-0.4767,-85.052443347886
-0.4777000000000001,-85.61832786783202
-0.4787,-86.09932970978613
-0.4797000000000001,-86.66521422973216
-0.4807,-87.27354008867411
-0.48170000000000013,-87.89601306061473
-0.4827,-88.5043389195567
-0.48370000000000013,-89.02778210050676
-0.4847,-89.59366662045278
-0.48570000000000013,-90.15955114039879
-0.4867,-90.07466846240689
-0.48570000000000013,-88.6741042755405
-0.4847,-87.37256987966467
-0.48370000000000013,-86.28324217876859
-0.4827,-85.32123849486035
-0.48170000000000013,-84.48655882793999
-0.4807,-83.60943782202366
-0.4797000000000001,-82.70402259011003
-0.4787,-81.78446024519776
-0.4777000000000001,-80.99222191727335
-0.4767,-80.29901338033947
-0.4757000000000001,-79.60580484340561
-0.4747,-78.8135665154812
-0.4737000000000001,-77.99303396155948
-0.4727,-77.1583542946391
-0.4717000000000001,-76.33782174071737
-0.4707,-75.5880247517889
-0.4697000000000001,-74.89481621485504
-0.4687,-74.14501922592657
-0.4677000000000001,-73.45181068899271
-0.4667,-72.75860215205884
-0.4657000000000001,-71.96636382413442
-0.4647,-71.18827260920865
-0.4637000000000001,-70.43847562028017
-0.4627,-69.78770842234226
-0.4617000000000001,-69.13694122440434
-0.4607,-68.44373268747047
