Potential V vs RHE, Current mA cm-2
0.013299999999999867,-0.08447241171494134
0.012299999999999978,-0.4798700729142204
0.011299999999999866,-0.7055165252426938
0.010299999999999976,-0.868774209247119
0.009299999999999864,-0.9945420438051207
0.008299999999999974,-1.072492636427684
0.007299999999999862,-1.1353058181416917
0.006299999999999972,-1.2019387203653351
0.00529999999999986,-1.271825458578668
0.0042999999999999705,-1.340297485492136
0.0032999999999998586,-1.382172939968141
0.0022999999999999687,-1.4161260111649017
0.0012999999999998568,-1.461396772760583
0.00029999999999996696,-1.5193999360550492
-0.000700000000000145,-1.5731589654499207
-0.0017000000000000348,-1.6099414592464116
-0.0027000000000001467,-1.6354062626439825
-0.0037000000000000366,-1.6736034677403384
-0.0047000000000001485,-1.72736249713521
-0.005700000000000038,-1.776877392630486
-0.00670000000000015,-1.813659886426977
-0.00770000000000004,-1.8334658446250875
-0.008700000000000152,-1.8744924723211736
-0.009700000000000042,-1.9310809243157752
-0.010700000000000154,-1.9834252424107812
-0.011700000000000044,-2.0159636023076772
-0.012700000000000156,-2.042843117005113
-0.013700000000000045,-2.082455033401334
-0.014700000000000157,-2.1390434853959355
-0.015700000000000047,-2.1885583808912115
-0.01670000000000016,-2.225340874687703
-0.01770000000000005,-2.2550498119848683
-0.01870000000000016,-2.296076439680954
-0.01970000000000005,-2.355494314275286
-0.020700000000000163,-2.412082766269888
-0.021700000000000053,-2.4502799713662435
-0.022700000000000164,-2.485647753862869
-0.023700000000000054,-2.5309185154585507
-0.024700000000000166,-2.5931658126526123
-0.025700000000000056,-2.6539983985468085
-0.026700000000000168,-2.69361031494303
-0.027700000000000058,-2.7332222313392514
-0.02870000000000017,-2.7841518381343926
-0.02970000000000006,-2.8478138466283185
-0.03070000000000017,-2.9171347003217054
-0.03170000000000006,-2.9609907506175217
-0.03270000000000017,-3.002017378313608
-0.03370000000000006,-3.0586058303082093
-0.034700000000000175,-3.1279266840015962
-0.035700000000000065,-3.200076960294713
-0.03670000000000018,-3.2524212783897193
-0.03770000000000007,-3.2991067512852656
-0.03870000000000018,-3.361354048479327
-0.03970000000000007,-3.427845479572984
-0.04070000000000018,-3.5014104671659654
-0.04170000000000007,-3.559413630460432
-0.04270000000000018,-3.608928525955709
-0.04370000000000007,-3.6754199570493657
-0.044700000000000184,-3.751814367242077
-0.045700000000000074,-3.8282087774347895
-0.046700000000000186,-3.8947002085284463
-0.047700000000000076,-3.9428003927238575
-0.04870000000000019,-4.0121212464172435
-0.04970000000000008,-4.095589213109282
-0.05070000000000019,-4.174813045901724
-0.05170000000000008,-4.2413044769953805
-0.05270000000000019,-4.300722351589712
-0.05370000000000008,-4.3657990713835035
-0.05470000000000019,-4.457755305874731
-0.05570000000000008,-4.541223272566767
-0.056700000000000195,-4.60629999236056
-0.057700000000000085,-4.668547289554621
-0.058700000000000196,-4.737868143248008
-0.059700000000000086,-4.82840966643937
-0.0607000000000002,-4.916121767031002
-0.06170000000000009,-4.992516177223715
-0.0627000000000002,-5.060422319617237
-0.06370000000000009,-5.129743173310623
-0.0647000000000002,-5.2188699852021205
-0.06570000000000009,-5.312240930993213
-0.0667000000000002,-5.37873236208687
-0.0677000000000001,-5.445223793180525
-0.0687000000000002,-5.521618203373238
-0.0697000000000001,-5.614989149164331
-0.07070000000000021,-5.708360094955423
-0.0717000000000001,-5.78051037124854
-0.07270000000000021,-5.851245936241792
-0.0737000000000001,-5.936128614233694
-0.07470000000000021,-6.023840714825327
-0.0757000000000001,-6.1186263719162834
-0.07670000000000021,-6.195020782108996
-0.0777000000000001,-6.261512213202653
-0.07870000000000021,-6.342150757294959
-0.0797000000000001,-6.435521703086052
-0.08070000000000022,-6.528892648877145
-0.0817000000000001,-6.605287059069856
-0.08270000000000022,-6.674607912763243
-0.08370000000000011,-6.759490590755146
-0.08470000000000022,-6.861349804345428
-0.08570000000000011,-6.953306038836654
-0.08670000000000022,-7.032529871629097
-0.08770000000000011,-7.100436014022619
-0.08870000000000022,-7.185318692014522
-0.08970000000000011,-7.284348483005074
-0.09070000000000022,-7.3777194287961665
-0.09170000000000011,-7.456943261588608
-0.09270000000000023,-7.523434692682265
-0.09370000000000012,-7.609732081974033
-0.09470000000000023,-7.708761872964584
-0.09570000000000012,-7.802132818755678
-0.09670000000000023,-7.8827713628479845
-0.09770000000000012,-7.9549216391411015
-0.09870000000000023,-8.039804317133003
-0.09970000000000012,-8.140248819423421
-0.10070000000000023,-8.23786389911411
-0.10170000000000012,-8.315673020606686
-0.10270000000000024,-8.392067430799397
-0.10370000000000013,-8.469876552291973
-0.10470000000000024,-8.578809322381582
-0.10570000000000013,-8.67642440207227
-0.10670000000000024,-8.751404100965116
-0.10770000000000013,-8.826383799857965
-0.10870000000000024,-8.907022343950272
-0.10970000000000013,-9.008881557540553
-0.11070000000000024,-9.116399616330296
-0.11170000000000013,-9.202697005622065
-0.11270000000000002,-9.27767670451491
-0.11370000000000013,-9.355485826007486
-0.11470000000000002,-9.450271483098444
-0.11570000000000014,-9.553545407988592
-0.11670000000000003,-9.6341839520809
-0.11770000000000014,-9.706334228374017
-0.11870000000000003,-9.802534596764838
-0.11970000000000014,-9.901564387755393
-0.12070000000000003,-10.01615600304446
-0.12170000000000014,-10.116600505334876
-0.12270000000000003,-10.166115400830154
-0.12370000000000014,-10.255242212721651
-0.12470000000000003,-10.354272003712204
-0.12570000000000014,-10.461790062501947
-0.12670000000000003,-10.550916874393444
-0.12770000000000015,-10.60892003768791
-0.12870000000000004,-10.707949828678462
-0.12970000000000015,-10.816882598768071
-0.13070000000000004,-10.920156523658218
-0.13170000000000015,-11.010698046849582
-0.13270000000000004,-11.091336590941888
-0.13370000000000015,-11.17904869153352
-0.13470000000000004,-11.286566750323264
-0.13570000000000015,-11.38984067521341
-0.13670000000000004,-11.481796909704636
-0.13770000000000016,-11.56950901029627
-0.13870000000000005,-11.648732843088712
-0.13970000000000016,-11.75766561317832
-0.14070000000000005,-11.862354249368334
-0.14170000000000016,-11.957139906459291
-0.14270000000000005,-12.046266718350788
-0.14370000000000016,-12.14246708674161
-0.14470000000000005,-12.25988812463041
-0.14570000000000016,-12.374479739919476
-0.14670000000000005,-12.470680108310297
-0.14770000000000016,-12.559806920201796
-0.14870000000000005,-12.658836711192349
-0.14970000000000017,-12.77767246038101
-0.15070000000000006,-12.892264075670079
-0.15170000000000017,-12.987049732761037
-0.15270000000000006,-13.081835389851994
-0.15370000000000017,-13.185109314742142
-0.15470000000000006,-13.295456796131614
-0.15570000000000017,-13.417121967920007
-0.15670000000000006,-13.526054738009616
-0.15770000000000017,-13.620840395100572
-0.15870000000000006,-13.726943742590452
-0.15970000000000018,-13.848608914378843
-0.16070000000000007,-13.9716887974671
-0.16170000000000018,-14.083450990156441
-0.16270000000000007,-14.175407224647667
-0.16370000000000018,-14.288584128636872
-0.16470000000000007,-14.415908145624723
-0.16570000000000018,-14.557379275611227
-0.16670000000000007,-14.67055617960043
-0.16770000000000018,-14.769585970590983
-0.16870000000000007,-14.896909987578834
-0.16970000000000018,-15.02423400456669
-0.17070000000000007,-15.151558021554543
-0.17170000000000019,-15.264734925543747
-0.17270000000000008,-15.37791182953295
-0.1737000000000002,-15.505235846520803
-0.17470000000000008,-15.646706976507305
-0.1757000000000002,-15.78817810649381
-0.17670000000000008,-15.91550212348166
-0.1777000000000002,-16.02867902747086
-0.17870000000000008,-16.15600304445872
-0.1797000000000002,-16.311621287443874
-0.18070000000000008,-16.453092417430376
-0.1817000000000002,-16.56626932141958
-0.18270000000000008,-16.70774045140608
-0.1837000000000002,-16.849211581392588
-0.1847000000000001,-17.00482982437774
-0.1857000000000002,-17.160448067362896
-0.1867000000000001,-17.28777208435075
-0.1877000000000002,-17.429243214337255
-0.1887000000000001,-17.556567231325104
-0.1897000000000002,-17.72633258730891
-0.1907000000000001,-17.867803717295413
-0.1917000000000001,-18.009274847281915
-0.19269999999999998,-18.15074597726842
-0.1937000000000001,-18.306364220253574
-0.19469999999999998,-18.47612957623738
-0.1957000000000001,-18.631747819222536
-0.19669999999999999,-18.78736606220769
-0.1977000000000001,-18.92883719219419
-0.1987,-19.084455435179343
-0.1997000000000001,-19.2400736781645
-0.2007,-19.409839034148305
-0.2017000000000001,-19.593751503130758
-0.2027,-19.749369746115914
-0.2037000000000001,-19.919135102099716
-0.2047,-20.07475334508487
-0.2057000000000001,-20.25866581406732
-0.2067,-20.42843117005113
-0.2077000000000001,-20.569902300037633
-0.2087,-20.72552054302279
-0.2097000000000001,-20.90943301200524
-0.2107,-21.093345480987697
-0.2117000000000001,-21.2631108369715
-0.2127,-21.418729079956652
-0.2137000000000001,-21.58849443594046
-0.2147,-21.814848243918867
-0.2157000000000001,-21.99876071290132
-0.2167,-22.15437895588647
-0.21770000000000012,-22.309997198871628
-0.2187,-22.493909667854084
-0.21970000000000012,-22.706116362833843
-0.2207,-22.904175944814945
-0.22170000000000012,-23.088088413797397
-0.2227,-23.257853769781203
-0.22370000000000012,-23.44176623876366
-0.2247,-23.639825820744765
-0.22570000000000012,-23.83788540272587
-0.2267,-24.021797871708326
-0.22770000000000012,-24.17741611469348
-0.22870000000000001,-24.36132858367593
-0.22970000000000013,-24.559388165657033
-0.23070000000000002,-24.74330063463949
-0.23170000000000013,-24.927213103621945
-0.23270000000000002,-25.111125572604404
-0.23370000000000013,-25.295038041586857
-0.23470000000000002,-25.49309762356796
-0.23570000000000013,-25.705304318547718
-0.23670000000000002,-25.875069674531517
-0.2376999999999999,-26.058982143513976
-0.23870000000000002,-26.242894612496432
-0.2396999999999999,-26.455101307476184
-0.24070000000000003,-26.65316088945729
-0.24169999999999991,-26.837073358439746
-0.24270000000000003,-27.00683871442355
-0.24369999999999992,-27.204898296404657
-0.24470000000000003,-27.417104991384413
-0.24569999999999992,-27.615164573365515
-0.24670000000000003,-27.813224155346617
-0.24769999999999992,-27.997136624329073
-0.24870000000000003,-28.18104909331153
-0.24969999999999992,-28.364961562293985
-0.25070000000000003,-28.52057980527914
-0.2516999999999999,-28.690345161262943
-0.25270000000000004,-28.8742576302454
-0.2536999999999999,-29.058170099227848
-0.25470000000000004,-29.242082568210304
-0.2556999999999999,-29.440142150191413
-0.25670000000000004,-29.63820173217252
-0.25769999999999993,-29.80796708815632
-0.25870000000000004,-29.991879557138777
-0.25969999999999993,-30.17579202612123
-0.26070000000000004,-30.331410269106385
-0.26169999999999993,-30.487028512091538
-0.26270000000000004,-30.642646755076694
-0.26369999999999993,-30.8407063370578
-0.26470000000000005,-31.024618806040255
-0.26569999999999994,-31.22267838802136
-0.26670000000000005,-31.392443744005163
-0.26769999999999994,-31.505620647994366
-0.26870000000000005,-31.64709177798087
-0.26969999999999994,-31.788562907967375
-0.27070000000000005,-31.915886924955227
-0.27169999999999994,-32.02906382894443
-0.27270000000000005,-32.14224073293363
-0.27369999999999994,-32.297858975918786
-0.27470000000000006,-32.4676243319026
-0.27569999999999995,-32.66568391388369
-0.27670000000000006,-32.73641947887695
-0.27769999999999995,-32.8354492698675
-0.27870000000000006,-32.9486261738567
-0.27969999999999995,-33.04765596484726
-0.28070000000000006,-33.160832868836465
-0.28169999999999995,-33.245715546828364
-0.28270000000000006,-33.330598224820264
-0.28369999999999995,-33.44377512880947
-0.28470000000000006,-33.55695203279867
-0.28569999999999995,-33.64183471079057
-0.28670000000000007,-33.740864501781125
-0.28769999999999996,-33.712570275783825
-0.28870000000000007,-33.755011614779775
-0.28969999999999996,-33.88233563176763
-0.29070000000000007,-33.99551253575683
-0.29169999999999996,-34.05210098775143
-0.29270000000000007,-34.09454232674739
-0.29369999999999996,-34.15113077874198
-0.2947000000000001,-34.221866343735236
-0.29569999999999996,-34.236013456733886
-0.2967000000000001,-34.179425004739294
-0.29769999999999996,-34.15113077874198
-0.2987000000000001,-34.179425004739294
-0.29969999999999997,-34.221866343735236
-0.3007000000000001,-34.26430768273119
-0.30169999999999997,-34.26430768273119
-0.3027000000000001,-34.236013456733886
-0.30369999999999997,-34.193572117737936
-0.3047000000000001,-34.179425004739294
-0.30569999999999997,-34.179425004739294
-0.3067000000000001,-34.12283655274469
-0.3077,-34.08039521374873
-0.3087000000000001,-34.00965964875548
-0.3097,-33.96721830975953
-0.3107000000000001,-33.89648274476628
-0.3117,-33.825747179773025
-0.3127000000000001,-33.755011614779775
-0.3137,-33.726717388782475
-0.3147000000000001,-33.670128936787876
-0.3157,-33.58524625879597
-0.3167000000000001,-33.51451069380272
-0.3177,-33.41548090281216
-0.3187000000000001,-33.316451111821614
-0.3197,-33.231568433829715
-0.3207000000000001,-33.160832868836465
-0.3217,-33.06180307784591
-0.3227000000000001,-32.9486261738567
-0.3237,-32.8354492698675
-0.3247000000000001,-32.73641947887695
-0.3257,-32.62324257488775
-0.3267000000000001,-32.51006567089854
-0.3277,-32.39688876690934
-0.3287000000000001,-32.297858975918786
-0.3297,-32.19882918492823
-0.3307000000000001,-32.12809361993498
-0.3317,-31.986622489948477
-0.3327000000000001,-31.85929847296063
-0.3337,-31.731974455972775
-0.3347000000000001,-31.618797551983565
-0.3357,-31.533914873991666
-0.3367000000000001,-31.434885083001117
-0.3377,-31.27926684001596
-0.3387000000000001,-31.180237049025404
-0.3397,-31.137795710029454
-0.3407000000000001,-31.067060145036205
-0.3417,-30.925589015049702
-0.3427000000000001,-30.82655922405915
-0.3437,-30.741676546067247
-0.3447000000000001,-30.685088094072643
-0.3457,-30.670940981073993
-0.3467000000000001,-30.571911190083444
-0.3477,-30.45873428609424
-0.3487000000000001,-30.37385160810234
-0.3497,-30.37385160810234
-0.3507000000000001,-30.402145834099635
-0.3517,-30.345557382105042
-0.3527000000000001,-30.246527591114486
-0.3537,-30.161644913122586
-0.3547000000000001,-30.147497800123933
-0.3557,-30.13335068712528
-0.35670000000000013,-30.10505646112798
-0.3577,-30.06261512213203
-0.35870000000000013,-30.06261512213203
-0.3597,-30.07676223513068
-0.36070000000000013,-30.10505646112798
-0.3617,-30.147497800123933
-0.3626999999999999,-30.07676223513068
-0.3637,-30.06261512213203
-0.3646999999999999,-30.07676223513068
-0.3657,-30.09090934812933
-0.3666999999999999,-30.10505646112798
-0.3677,-30.10505646112798
-0.3686999999999999,-30.11920357412663
-0.36970000000000003,-30.161644913122586
-0.3706999999999999,-30.189939139119886
-0.37170000000000003,-30.204086252118536
-0.3726999999999999,-30.232380478115836
-0.37370000000000003,-30.274821817111786
-0.3746999999999999,-30.317263156107735
-0.37570000000000003,-30.359704495103685
-0.3766999999999999,-30.416292947098288
-0.37770000000000004,-30.402145834099635
-0.3786999999999999,-30.416292947098288
-0.37970000000000004,-30.45873428609424
-0.3806999999999999,-30.487028512091538
-0.38170000000000004,-30.51532273808884
-0.38269999999999993,-30.529469851087494
-0.38370000000000004,-30.54361696408614
-0.38469999999999993,-30.571911190083444
-0.38570000000000004,-30.62849964207804
-0.38669999999999993,-30.62849964207804
-0.38770000000000004,-30.62849964207804
-0.38869999999999993,-30.62849964207804
-0.38970000000000005,-30.670940981073993
-0.39069999999999994,-30.71338232006995
-0.39170000000000005,-30.71338232006995
-0.39269999999999994,-30.685088094072643
-0.39370000000000005,-30.670940981073993
-0.39469999999999994,-30.670940981073993
-0.39570000000000005,-30.685088094072643
-0.39669999999999994,-30.656793868075347
-0.39770000000000005,-30.62849964207804
-0.39869999999999994,-30.614352529079397
-0.39970000000000006,-30.614352529079397
-0.40069999999999995,-30.58605830308209
-0.40170000000000006,-30.51532273808884
-0.40269999999999995,-30.444587173095588
-0.40370000000000006,-30.387998721100992
-0.40469999999999995,-30.43044006009694
-0.40570000000000006,-30.387998721100992
-0.40669999999999995,-30.274821817111786
-0.40770000000000006,-30.232380478115836
-0.40869999999999995,-30.21823336511718
-0.40970000000000006,-30.204086252118536
-0.41069999999999995,-30.161644913122586
-0.41170000000000007,-30.06261512213203
-0.41269999999999996,-29.949438218142824
-0.41370000000000007,-29.906996879146874
-0.41469999999999996,-29.864555540150924
-0.41570000000000007,-29.80796708815632
-0.41669999999999996,-29.73723152316307
-0.41770000000000007,-29.68064307116847
-0.41869999999999996,-29.62405461917387
-0.4197000000000001,-29.609907506175215
-0.42069999999999996,-29.609907506175215
-0.4217000000000001,-29.525024828183312
-0.42269999999999996,-29.468436376188716
-0.4237000000000001,-29.468436376188716
-0.42469999999999997,-29.468436376188716
-0.4257000000000001,-29.482583489187363
-0.42669999999999997,-29.482583489187363
-0.4277000000000001,-29.468436376188716
-0.42869999999999997,-29.539171941181966
-0.4297000000000001,-29.609907506175215
-0.43069999999999997,-29.68064307116847
-0.4317000000000001,-29.751378636161718
-0.4327,-29.878702653149578
-0.4337000000000001,-30.06261512213203
-0.4347,-30.274821817111786
-0.4357000000000001,-30.54361696408614
-0.4367,-30.82655922405915
-0.4377000000000001,-31.180237049025404
-0.4387,-31.661238890979522
-0.4397000000000001,-32.19882918492823
-0.4407,-32.84959638286615
-0.4417000000000001,-33.655981823789226
-0.4427,-34.58969128170015
-0.4437000000000001,-35.82049011258273
-0.4447,-37.334231203438314
-0.4457000000000001,-38.98944342428042
-0.4467,-40.84271522710361
-0.4477000000000001,-42.78086970791871
-0.4487,-44.91708377071491
-0.4497000000000001,-47.26550452849088
-0.4507,-49.76954352925199
-0.4517000000000001,-52.40090654700096
-0.4527,-55.018122451751275
-0.4537000000000001,-57.6353383565016
-0.4547,-60.12523024426406
-0.4557000000000001,-62.51609234103597
-0.4567,-64.85036598581328
-0.4577000000000001,-66.9582858226122
-0.4587,-69.06620565941108
-0.4597000000000001,-71.0043601402262
-0.4607,-72.94251462104128
-0.4617000000000001,-74.65431529387797
-0.4627,-76.33782174071737
-0.4637000000000001,-77.8940041705689
-0.4647,-79.36530392242857
-0.4657000000000001,-80.65269120530574
-0.4667,-81.7986073581964
-0.4677000000000001,-82.73231681610734
-0.4687,-83.87823296899803
-0.4697000000000001,-84.84023665290624
-0.4707,-85.60418075483337
-0.4717000000000001,-86.35397774376185
-0.4727,-87.10377473269031
-0.4737000000000001,-87.71210059163228
-0.4747,-88.15066109459043
-0.4757000000000001,-88.7023985015378
-0.4767,-89.02778210050676
-0.4777000000000001,-89.33901858647707
-0.4787,-89.59366662045278
-0.4797000000000001,-90.21613959239339
-0.4807,-90.48493473936773
-0.48170000000000013,-90.18784536639609
-0.4827,-90.48493473936773
-0.48370000000000013,-90.59811164335694
-0.4847,-90.48493473936773
-0.48570000000000013,-90.56981741735964
-0.4867,-90.55567030436099
-0.48570000000000013,-89.29657724748111
-0.4847,-88.10821975559449
-0.48370000000000013,-87.79698326962418
-0.4827,-88.20724954658505
-0.48170000000000013,-87.11792184568897
-0.4807,-85.81638744981312
-0.4797000000000001,-84.57144150593189
-0.4787,-83.76505606500882
-0.4777000000000001,-83.04355330207765
-0.4767,-82.12399095716538
-0.4757000000000001,-81.50151798522475
-0.4747,-81.09125170826391
-0.4737000000000001,-80.18583647635029
-0.4727,-79.35115680942992
-0.4717000000000001,-78.82771362847984
-0.4707,-77.39885521561615
-0.4697000000000001,-76.62076400069039
-0.4687,-75.80023144676866
-0.4677000000000001,-75.40411228280645
-0.4667,-74.58357972888473
-0.4657000000000001,-73.90451830494952
-0.4647,-73.04154441203184
