Aug. 6, 2024   15:25:08
Cyclic Voltammetry
File: c:/users/guazh/data/20240802_batch_500/2024-08-02-exp36\exp36-2024-08-06t14_59_00-arkoh\exp36_cv_sr_700mvs_efin_-2000mv.bin
Data Source:  Experiment
Instrument Model:  CHI760E
Header: CV ran at 700 mVs
Note: 

Init E (V) = -1
High E (V) = -1
Low E (V) = -2
Final E (V) = -1
Init P/N = N
Scan Rate (V/s) = 0.7
Segment = 3
Sample Interval (V) = 0.001
Quiet Time (sec) = 2
Sensitivity (A/V) = 0.01
Comp R (ohm) = 2.2

Results:

Channel 1:
Segment 1:

Segment 2:

Segment 3:

Potential/V, Current/A

-1.000, 3.239e-6
-1.001, 3.239e-6
-1.002, 1.559e-7
-1.003, 3.239e-6
-1.004, 3.239e-6
-1.005, 3.239e-6
-1.006, 3.239e-6
-1.007, 3.239e-6
-1.008, 3.239e-6
-1.009, 3.239e-6
-1.010, 3.239e-6
-1.011, 3.239e-6
-1.012, 3.239e-6
-1.013, 3.239e-6
-1.014, 3.239e-6
-1.015, 3.239e-6
-1.016, 3.239e-6
-1.017, 3.239e-6
-1.018, 3.239e-6
-1.019, 3.239e-6
-1.020, 3.239e-6
-1.021, 3.239e-6
-1.022, 3.239e-6
-1.023, 3.239e-6
-1.024, 3.239e-6
-1.025, 3.239e-6
-1.026, 3.239e-6
-1.027, 3.239e-6
-1.028, 3.239e-6
-1.029, 3.239e-6
-1.030, 3.239e-6
-1.031, 3.239e-6
-1.032, 3.239e-6
-1.033, 3.239e-6
-1.034, 3.239e-6
-1.035, 3.239e-6
-1.036, 6.322e-6
-1.037, 3.239e-6
-1.038, 3.239e-6
-1.039, 3.239e-6
-1.040, 3.239e-6
-1.041, 3.239e-6
-1.042, 3.239e-6
-1.043, 3.239e-6
-1.044, 3.239e-6
-1.045, 3.239e-6
-1.046, 3.239e-6
-1.047, 3.239e-6
-1.048, 3.239e-6
-1.049, 3.239e-6
-1.050, 3.239e-6
-1.051, 3.239e-6
-1.052, 3.239e-6
-1.053, 3.239e-6
-1.054, 3.239e-6
-1.055, 3.239e-6
-1.056, 6.322e-6
-1.057, 3.239e-6
-1.058, 3.239e-6
-1.059, 6.322e-6
-1.060, 3.239e-6
-1.061, 6.322e-6
-1.062, 3.239e-6
-1.063, 3.239e-6
-1.064, 3.239e-6
-1.065, 3.239e-6
-1.066, 6.322e-6
-1.067, 3.239e-6
-1.068, 6.322e-6
-1.069, 3.239e-6
-1.070, 6.322e-6
-1.071, 3.239e-6
-1.072, 6.322e-6
-1.073, 6.322e-6
-1.074, 3.239e-6
-1.075, 6.322e-6
-1.076, 3.239e-6
-1.077, 3.239e-6
-1.078, 6.322e-6
-1.079, 6.322e-6
-1.080, 3.239e-6
-1.081, 6.322e-6
-1.082, 6.322e-6
-1.083, 6.322e-6
-1.084, 6.322e-6
-1.085, 3.239e-6
-1.086, 6.322e-6
-1.087, 6.322e-6
-1.088, 6.322e-6
-1.089, 3.239e-6
-1.090, 6.322e-6
-1.091, 6.322e-6
-1.092, 6.322e-6
-1.093, 6.322e-6
-1.094, 6.322e-6
-1.095, 6.322e-6
-1.096, 6.322e-6
-1.097, 6.322e-6
-1.098, 6.322e-6
-1.099, 6.322e-6
-1.100, 6.322e-6
-1.101, 6.322e-6
-1.102, 6.322e-6
-1.103, 3.239e-6
-1.104, 6.322e-6
-1.105, 6.322e-6
-1.106, 6.322e-6
-1.107, 6.322e-6
-1.108, 6.322e-6
-1.109, 6.322e-6
-1.110, 6.322e-6
-1.111, 6.322e-6
-1.112, 6.322e-6
-1.113, 6.322e-6
-1.114, 6.322e-6
-1.115, 6.322e-6
-1.116, 6.322e-6
-1.117, 6.322e-6
-1.118, 6.322e-6
-1.119, 6.322e-6
-1.120, 6.322e-6
-1.121, 6.322e-6
-1.122, 6.322e-6
-1.123, 6.322e-6
-1.124, 6.322e-6
-1.125, 6.322e-6
-1.126, 6.322e-6
-1.127, 6.322e-6
-1.128, 6.322e-6
-1.129, 6.322e-6
-1.130, 6.322e-6
-1.131, 6.322e-6
-1.132, 6.322e-6
-1.133, 6.322e-6
-1.134, 6.322e-6
-1.135, 6.322e-6
-1.136, 6.322e-6
-1.137, 6.322e-6
-1.138, 6.322e-6
-1.139, 6.322e-6
-1.140, 6.322e-6
-1.141, 6.322e-6
-1.142, 6.322e-6
-1.143, 6.322e-6
-1.144, 6.322e-6
-1.145, 6.322e-6
-1.146, 6.322e-6
-1.147, 6.322e-6
-1.148, 6.322e-6
-1.149, 6.322e-6
-1.150, 6.322e-6
-1.151, 6.322e-6
-1.152, 6.322e-6
-1.153, 6.322e-6
-1.154, 6.322e-6
-1.155, 6.322e-6
-1.156, 6.322e-6
-1.157, 6.322e-6
-1.158, 6.322e-6
-1.159, 6.322e-6
-1.160, 6.322e-6
-1.161, 6.322e-6
-1.162, 9.405e-6
-1.163, 6.322e-6
-1.164, 6.322e-6
-1.165, 6.322e-6
-1.166, 6.322e-6
-1.167, 6.322e-6
-1.168, 6.322e-6
-1.169, 6.322e-6
-1.170, 6.322e-6
-1.171, 6.322e-6
-1.172, 6.322e-6
-1.173, 6.322e-6
-1.174, 9.405e-6
-1.175, 6.322e-6
-1.176, 6.322e-6
-1.177, 6.322e-6
-1.178, 9.405e-6
-1.179, 6.322e-6
-1.180, 6.322e-6
-1.181, 6.322e-6
-1.182, 6.322e-6
-1.183, 6.322e-6
-1.184, 6.322e-6
-1.185, 6.322e-6
-1.186, 6.322e-6
-1.187, 6.322e-6
-1.188, 6.322e-6
-1.189, 9.405e-6
-1.190, 9.405e-6
-1.191, 6.322e-6
-1.192, 6.322e-6
-1.193, 6.322e-6
-1.194, 6.322e-6
-1.195, 6.322e-6
-1.196, 9.405e-6
-1.197, 6.322e-6
-1.198, 9.405e-6
-1.199, 6.322e-6
-1.200, 9.405e-6
-1.201, 9.405e-6
-1.202, 6.322e-6
-1.203, 6.322e-6
-1.204, 6.322e-6
-1.205, 9.405e-6
-1.206, 6.322e-6
-1.207, 9.405e-6
-1.208, 6.322e-6
-1.209, 6.322e-6
-1.210, 9.405e-6
-1.211, 9.405e-6
-1.212, 6.322e-6
-1.213, 6.322e-6
-1.214, 6.322e-6
-1.215, 9.405e-6
-1.216, 9.405e-6
-1.217, 9.405e-6
-1.218, 6.322e-6
-1.219, 9.405e-6
-1.220, 9.405e-6
-1.221, 9.405e-6
-1.222, 9.405e-6
-1.223, 9.405e-6
-1.224, 9.405e-6
-1.225, 9.405e-6
-1.226, 9.405e-6
-1.227, 9.405e-6
-1.228, 9.405e-6
-1.229, 9.405e-6
-1.230, 9.405e-6
-1.231, 6.322e-6
-1.232, 9.405e-6
-1.233, 9.405e-6
-1.234, 9.405e-6
-1.235, 9.405e-6
-1.236, 9.405e-6
-1.237, 9.405e-6
-1.238, 9.405e-6
-1.239, 9.405e-6
-1.240, 9.405e-6
-1.241, 9.405e-6
-1.242, 9.405e-6
-1.243, 9.405e-6
-1.244, 9.405e-6
-1.245, 9.405e-6
-1.246, 9.405e-6
-1.247, 9.405e-6
-1.248, 9.405e-6
-1.249, 9.405e-6
-1.250, 9.405e-6
-1.251, 9.405e-6
-1.252, 9.405e-6
-1.253, 9.405e-6
-1.254, 9.405e-6
-1.255, 9.405e-6
-1.256, 9.405e-6
-1.257, 9.405e-6
-1.258, 9.405e-6
-1.259, 9.405e-6
-1.260, 9.405e-6
-1.261, 9.405e-6
-1.262, 9.405e-6
-1.263, 9.405e-6
-1.264, 9.405e-6
-1.265, 9.405e-6
-1.266, 9.405e-6
-1.267, 9.405e-6
-1.268, 9.405e-6
-1.269, 9.405e-6
-1.270, 9.405e-6
-1.271, 9.405e-6
-1.272, 9.405e-6
-1.273, 9.405e-6
-1.274, 9.405e-6
-1.275, 9.405e-6
-1.276, 9.405e-6
-1.277, 9.405e-6
-1.278, 9.405e-6
-1.279, 9.405e-6
-1.280, 9.405e-6
-1.281, 9.405e-6
-1.282, 9.405e-6
-1.283, 9.405e-6
-1.284, 9.405e-6
-1.285, 9.405e-6
-1.286, 9.405e-6
-1.287, 9.405e-6
-1.288, 9.405e-6
-1.289, 9.405e-6
-1.290, 9.405e-6
-1.291, 1.249e-5
-1.292, 1.249e-5
-1.293, 9.405e-6
-1.294, 9.405e-6
-1.295, 1.249e-5
-1.296, 9.405e-6
-1.297, 1.249e-5
-1.298, 9.405e-6
-1.299, 9.405e-6
-1.300, 9.405e-6
-1.301, 9.405e-6
-1.302, 9.405e-6
-1.303, 9.405e-6
-1.304, 1.249e-5
-1.305, 9.405e-6
-1.306, 1.249e-5
-1.307, 9.405e-6
-1.308, 1.249e-5
-1.309, 1.249e-5
-1.310, 1.249e-5
-1.311, 1.249e-5
-1.312, 1.249e-5
-1.313, 1.249e-5
-1.314, 9.405e-6
-1.315, 1.249e-5
-1.316, 1.249e-5
-1.317, 1.249e-5
-1.318, 1.249e-5
-1.319, 1.249e-5
-1.320, 1.249e-5
-1.321, 1.249e-5
-1.322, 1.249e-5
-1.323, 1.249e-5
-1.324, 1.249e-5
-1.325, 9.405e-6
-1.326, 1.249e-5
-1.327, 1.249e-5
-1.328, 1.249e-5
-1.329, 1.249e-5
-1.330, 1.249e-5
-1.331, 1.249e-5
-1.332, 1.249e-5
-1.333, 1.249e-5
-1.334, 1.249e-5
-1.335, 1.249e-5
-1.336, 1.249e-5
-1.337, 1.249e-5
-1.338, 1.249e-5
-1.339, 1.249e-5
-1.340, 1.249e-5
-1.341, 1.249e-5
-1.342, 1.249e-5
-1.343, 1.249e-5
-1.344, 1.249e-5
-1.345, 1.249e-5
-1.346, 1.249e-5
-1.347, 1.249e-5
-1.348, 1.249e-5
-1.349, 1.249e-5
-1.350, 1.249e-5
-1.351, 1.249e-5
-1.352, 1.249e-5
-1.353, 1.249e-5
-1.354, 1.249e-5
-1.355, 1.249e-5
-1.356, 1.249e-5
-1.357, 1.249e-5
-1.358, 1.249e-5
-1.359, 1.249e-5
-1.360, 1.249e-5
-1.361, 1.249e-5
-1.362, 1.249e-5
-1.363, 1.249e-5
-1.364, 1.249e-5
-1.365, 1.249e-5
-1.366, 1.249e-5
-1.367, 1.249e-5
-1.368, 1.249e-5
-1.369, 1.249e-5
-1.370, 1.249e-5
-1.371, 1.249e-5
-1.372, 1.249e-5
-1.373, 1.249e-5
-1.374, 1.249e-5
-1.375, 1.249e-5
-1.376, 1.249e-5
-1.377, 1.249e-5
-1.378, 1.249e-5
-1.379, 1.249e-5
-1.380, 1.249e-5
-1.381, 1.249e-5
-1.382, 1.249e-5
-1.383, 1.249e-5
-1.384, 1.249e-5
-1.385, 1.557e-5
-1.386, 1.557e-5
-1.387, 1.249e-5
-1.388, 1.249e-5
-1.389, 1.557e-5
-1.390, 1.557e-5
-1.391, 1.249e-5
-1.392, 1.557e-5
-1.393, 1.249e-5
-1.394, 1.557e-5
-1.395, 1.249e-5
-1.396, 1.557e-5
-1.397, 1.557e-5
-1.398, 1.249e-5
-1.399, 1.557e-5
-1.400, 1.249e-5
-1.401, 1.249e-5
-1.402, 1.249e-5
-1.403, 1.557e-5
-1.404, 1.557e-5
-1.405, 1.557e-5
-1.406, 1.249e-5
-1.407, 1.557e-5
-1.408, 1.557e-5
-1.409, 1.557e-5
-1.410, 1.557e-5
-1.411, 1.557e-5
-1.412, 1.557e-5
-1.413, 1.557e-5
-1.414, 1.557e-5
-1.415, 1.557e-5
-1.416, 1.557e-5
-1.417, 1.557e-5
-1.418, 1.557e-5
-1.419, 1.557e-5
-1.420, 1.557e-5
-1.421, 1.557e-5
-1.422, 1.557e-5
-1.423, 1.557e-5
-1.424, 1.557e-5
-1.425, 1.557e-5
-1.426, 1.557e-5
-1.427, 1.557e-5
-1.428, 1.557e-5
-1.429, 1.557e-5
-1.430, 1.557e-5
-1.431, 1.557e-5
-1.432, 1.557e-5
-1.433, 1.557e-5
-1.434, 1.557e-5
-1.435, 1.557e-5
-1.436, 1.557e-5
-1.437, 1.557e-5
-1.438, 1.557e-5
-1.439, 1.557e-5
-1.440, 1.557e-5
-1.441, 1.557e-5
-1.442, 1.557e-5
-1.443, 1.557e-5
-1.444, 1.557e-5
-1.445, 1.557e-5
-1.446, 1.865e-5
-1.447, 1.557e-5
-1.448, 1.557e-5
-1.449, 1.557e-5
-1.450, 1.557e-5
-1.451, 1.865e-5
-1.452, 1.557e-5
-1.453, 1.557e-5
-1.454, 1.557e-5
-1.455, 1.865e-5
-1.456, 1.557e-5
-1.457, 1.865e-5
-1.458, 1.557e-5
-1.459, 1.865e-5
-1.460, 1.557e-5
-1.461, 1.865e-5
-1.462, 1.557e-5
-1.463, 1.557e-5
-1.464, 1.865e-5
-1.465, 1.865e-5
-1.466, 1.557e-5
-1.467, 1.865e-5
-1.468, 1.865e-5
-1.469, 1.865e-5
-1.470, 1.865e-5
-1.471, 1.865e-5
-1.472, 1.865e-5
-1.473, 1.865e-5
-1.474, 1.557e-5
-1.475, 1.865e-5
-1.476, 1.557e-5
-1.477, 1.865e-5
-1.478, 1.865e-5
-1.479, 1.865e-5
-1.480, 1.865e-5
-1.481, 1.865e-5
-1.482, 1.865e-5
-1.483, 1.865e-5
-1.484, 1.865e-5
-1.485, 1.865e-5
-1.486, 1.865e-5
-1.487, 1.865e-5
-1.488, 1.865e-5
-1.489, 1.865e-5
-1.490, 1.865e-5
-1.491, 1.865e-5
-1.492, 1.865e-5
-1.493, 1.865e-5
-1.494, 1.865e-5
-1.495, 1.865e-5
-1.496, 1.865e-5
-1.497, 1.865e-5
-1.498, 1.865e-5
-1.499, 1.865e-5
-1.500, 1.865e-5
-1.501, 1.865e-5
-1.502, 1.865e-5
-1.503, 1.865e-5
-1.504, 1.865e-5
-1.505, 1.865e-5
-1.506, 1.865e-5
-1.507, 1.865e-5
-1.508, 1.865e-5
-1.509, 1.865e-5
-1.510, 1.865e-5
-1.511, 1.865e-5
-1.512, 1.865e-5
-1.513, 1.865e-5
-1.514, 1.865e-5
-1.515, 1.865e-5
-1.516, 1.865e-5
-1.517, 1.865e-5
-1.518, 2.174e-5
-1.519, 2.174e-5
-1.520, 2.174e-5
-1.521, 1.865e-5
-1.522, 2.174e-5
-1.523, 1.865e-5
-1.524, 2.174e-5
-1.525, 2.174e-5
-1.526, 2.174e-5
-1.527, 2.174e-5
-1.528, 2.174e-5
-1.529, 2.174e-5
-1.530, 2.174e-5
-1.531, 2.174e-5
-1.532, 2.174e-5
-1.533, 2.174e-5
-1.534, 2.174e-5
-1.535, 2.174e-5
-1.536, 2.174e-5
-1.537, 2.174e-5
-1.538, 2.174e-5
-1.539, 2.174e-5
-1.540, 2.174e-5
-1.541, 2.174e-5
-1.542, 2.174e-5
-1.543, 2.174e-5
-1.544, 2.174e-5
-1.545, 2.174e-5
-1.546, 2.174e-5
-1.547, 2.174e-5
-1.548, 2.174e-5
-1.549, 2.174e-5
-1.550, 2.174e-5
-1.551, 2.174e-5
-1.552, 2.174e-5
-1.553, 2.174e-5
-1.554, 2.174e-5
-1.555, 2.174e-5
-1.556, 2.482e-5
-1.557, 2.174e-5
-1.558, 2.174e-5
-1.559, 2.174e-5
-1.560, 2.482e-5
-1.561, 2.174e-5
-1.562, 2.174e-5
-1.563, 2.174e-5
-1.564, 2.174e-5
-1.565, 2.174e-5
-1.566, 2.174e-5
-1.567, 2.482e-5
-1.568, 2.174e-5
-1.569, 2.482e-5
-1.570, 2.174e-5
-1.571, 2.482e-5
-1.572, 2.482e-5
-1.573, 2.482e-5
-1.574, 2.482e-5
-1.575, 2.482e-5
-1.576, 2.482e-5
-1.577, 2.174e-5
-1.578, 2.482e-5
-1.579, 2.482e-5
-1.580, 2.482e-5
-1.581, 2.482e-5
-1.582, 2.482e-5
-1.583, 2.482e-5
-1.584, 2.482e-5
-1.585, 2.482e-5
-1.586, 2.482e-5
-1.587, 2.482e-5
-1.588, 2.482e-5
-1.589, 2.482e-5
-1.590, 2.482e-5
-1.591, 2.482e-5
-1.592, 2.482e-5
-1.593, 2.482e-5
-1.594, 2.790e-5
-1.595, 2.482e-5
-1.596, 2.482e-5
-1.597, 2.482e-5
-1.598, 2.482e-5
-1.599, 2.482e-5
-1.600, 2.482e-5
-1.601, 2.790e-5
-1.602, 2.790e-5
-1.603, 2.790e-5
-1.604, 2.790e-5
-1.605, 2.790e-5
-1.606, 2.790e-5
-1.607, 2.790e-5
-1.608, 2.790e-5
-1.609, 2.790e-5
-1.610, 2.790e-5
-1.611, 2.790e-5
-1.612, 2.790e-5
-1.613, 2.790e-5
-1.614, 2.790e-5
-1.615, 2.790e-5
-1.616, 2.790e-5
-1.617, 2.790e-5
-1.618, 2.790e-5
-1.619, 2.790e-5
-1.620, 2.790e-5
-1.621, 3.099e-5
-1.622, 3.099e-5
-1.623, 3.099e-5
-1.624, 3.099e-5
-1.625, 3.099e-5
-1.626, 3.099e-5
-1.627, 3.099e-5
-1.628, 3.099e-5
-1.629, 3.099e-5
-1.630, 3.099e-5
-1.631, 3.099e-5
-1.632, 3.099e-5
-1.633, 3.099e-5
-1.634, 3.099e-5
-1.635, 3.407e-5
-1.636, 3.099e-5
-1.637, 3.407e-5
-1.638, 3.407e-5
-1.639, 3.407e-5
-1.640, 3.407e-5
-1.641, 3.407e-5
-1.642, 3.407e-5
-1.643, 3.407e-5
-1.644, 3.407e-5
-1.645, 3.407e-5
-1.646, 3.715e-5
-1.647, 3.715e-5
-1.648, 3.715e-5
-1.649, 3.715e-5
-1.650, 3.715e-5
-1.651, 3.715e-5
-1.652, 3.715e-5
-1.653, 3.715e-5
-1.654, 3.715e-5
-1.655, 4.024e-5
-1.656, 4.024e-5
-1.657, 4.024e-5
-1.658, 4.024e-5
-1.659, 4.024e-5
-1.660, 4.024e-5
-1.661, 4.024e-5
-1.662, 4.024e-5
-1.663, 4.024e-5
-1.664, 4.332e-5
-1.665, 4.332e-5
-1.666, 4.332e-5
-1.667, 4.332e-5
-1.668, 4.332e-5
-1.669, 4.332e-5
-1.670, 4.332e-5
-1.671, 4.640e-5
-1.672, 4.640e-5
-1.673, 4.640e-5
-1.674, 4.640e-5
-1.675, 4.640e-5
-1.676, 4.640e-5
-1.677, 4.949e-5
-1.678, 4.949e-5
-1.679, 4.949e-5
-1.680, 4.949e-5
-1.681, 4.949e-5
-1.682, 5.257e-5
-1.683, 5.257e-5
-1.684, 5.257e-5
-1.685, 5.257e-5
-1.686, 5.257e-5
-1.687, 5.565e-5
-1.688, 5.565e-5
-1.689, 5.565e-5
-1.690, 5.873e-5
-1.691, 5.873e-5
-1.692, 5.873e-5
-1.693, 5.873e-5
-1.694, 5.873e-5
-1.695, 6.182e-5
-1.696, 6.182e-5
-1.697, 6.182e-5
-1.698, 6.490e-5
-1.699, 6.490e-5
-1.700, 6.798e-5
-1.701, 6.798e-5
-1.702, 6.798e-5
-1.703, 6.798e-5
-1.704, 7.107e-5
-1.705, 7.107e-5
-1.706, 7.415e-5
-1.707, 7.415e-5
-1.708, 7.415e-5
-1.709, 7.723e-5
-1.710, 7.723e-5
-1.711, 7.723e-5
-1.712, 8.032e-5
-1.713, 8.032e-5
-1.714, 8.340e-5
-1.715, 8.340e-5
-1.716, 8.648e-5
-1.717, 8.648e-5
-1.718, 8.957e-5
-1.719, 8.957e-5
-1.720, 9.265e-5
-1.721, 9.265e-5
-1.722, 9.573e-5
-1.723, 9.573e-5
-1.724, 9.882e-5
-1.725, 9.882e-5
-1.726, 1.019e-4
-1.727, 1.050e-4
-1.728, 1.050e-4
-1.729, 1.081e-4
-1.730, 1.111e-4
-1.731, 1.111e-4
-1.732, 1.142e-4
-1.733, 1.173e-4
-1.734, 1.173e-4
-1.735, 1.204e-4
-1.736, 1.235e-4
-1.737, 1.266e-4
-1.738, 1.296e-4
-1.739, 1.296e-4
-1.740, 1.327e-4
-1.741, 1.358e-4
-1.742, 1.389e-4
-1.743, 1.420e-4
-1.744, 1.451e-4
-1.745, 1.481e-4
-1.746, 1.512e-4
-1.747, 1.543e-4
-1.748, 1.574e-4
-1.749, 1.605e-4
-1.750, 1.666e-4
-1.751, 1.697e-4
-1.752, 1.728e-4
-1.753, 1.759e-4
-1.754, 1.790e-4
-1.755, 1.821e-4
-1.756, 1.882e-4
-1.757, 1.913e-4
-1.758, 1.975e-4
-1.759, 2.006e-4
-1.760, 2.067e-4
-1.761, 2.098e-4
-1.762, 2.160e-4
-1.763, 2.191e-4
-1.764, 2.252e-4
-1.765, 2.314e-4
-1.766, 2.345e-4
-1.767, 2.406e-4
-1.768, 2.468e-4
-1.769, 2.530e-4
-1.770, 2.561e-4
-1.771, 2.622e-4
-1.772, 2.684e-4
-1.773, 2.746e-4
-1.774, 2.838e-4
-1.775, 2.900e-4
-1.776, 2.961e-4
-1.777, 3.023e-4
-1.778, 3.115e-4
-1.779, 3.177e-4
-1.780, 3.270e-4
-1.781, 3.331e-4
-1.782, 3.424e-4
-1.783, 3.516e-4
-1.784, 3.609e-4
-1.785, 3.701e-4
-1.786, 3.794e-4
-1.787, 3.886e-4
-1.788, 3.979e-4
-1.789, 4.071e-4
-1.790, 4.164e-4
-1.791, 4.256e-4
-1.792, 4.380e-4
-1.793, 4.472e-4
-1.794, 4.595e-4
-1.795, 4.719e-4
-1.796, 4.842e-4
-1.797, 4.965e-4
-1.798, 5.089e-4
-1.799, 5.212e-4
-1.800, 5.335e-4
-1.801, 5.489e-4
-1.802, 5.613e-4
-1.803, 5.736e-4
-1.804, 5.890e-4
-1.805, 6.044e-4
-1.806, 6.199e-4
-1.807, 6.353e-4
-1.808, 6.507e-4
-1.809, 6.692e-4
-1.810, 6.846e-4
-1.811, 7.031e-4
-1.812, 7.216e-4
-1.813, 7.370e-4
-1.814, 7.555e-4
-1.815, 7.740e-4
-1.816, 7.925e-4
-1.817, 8.141e-4
-1.818, 8.357e-4
-1.819, 8.542e-4
-1.820, 8.788e-4
-1.821, 9.004e-4
-1.822, 9.220e-4
-1.823, 9.436e-4
-1.824, 9.683e-4
-1.825, 9.898e-4
-1.826, 1.014e-3
-1.827, 1.039e-3
-1.828, 1.064e-3
-1.829, 1.088e-3
-1.830, 1.116e-3
-1.831, 1.144e-3
-1.832, 1.172e-3
-1.833, 1.199e-3
-1.834, 1.227e-3
-1.835, 1.255e-3
-1.836, 1.283e-3
-1.837, 1.314e-3
-1.838, 1.344e-3
-1.839, 1.375e-3
-1.840, 1.406e-3
-1.841, 1.440e-3
-1.842, 1.474e-3
-1.843, 1.508e-3
-1.844, 1.545e-3
-1.845, 1.579e-3
-1.846, 1.616e-3
-1.847, 1.650e-3
-1.848, 1.687e-3
-1.849, 1.721e-3
-1.850, 1.761e-3
-1.851, 1.798e-3
-1.852, 1.841e-3
-1.853, 1.878e-3
-1.854, 1.921e-3
-1.855, 1.961e-3
-1.856, 2.004e-3
-1.857, 2.044e-3
-1.858, 2.087e-3
-1.859, 2.131e-3
-1.860, 2.174e-3
-1.861, 2.217e-3
-1.862, 2.260e-3
-1.863, 2.309e-3
-1.864, 2.356e-3
-1.865, 2.405e-3
-1.866, 2.454e-3
-1.867, 2.501e-3
-1.868, 2.550e-3
-1.869, 2.599e-3
-1.870, 2.649e-3
-1.871, 2.698e-3
-1.872, 2.747e-3
-1.873, 2.800e-3
-1.874, 2.849e-3
-1.875, 2.904e-3
-1.876, 2.957e-3
-1.877, 3.012e-3
-1.878, 3.068e-3
-1.879, 3.123e-3
-1.880, 3.182e-3
-1.881, 3.237e-3
-1.882, 3.293e-3
-1.883, 3.348e-3
-1.884, 3.404e-3
-1.885, 3.462e-3
-1.886, 3.521e-3
-1.887, 3.583e-3
-1.888, 3.641e-3
-1.889, 3.703e-3
-1.890, 3.765e-3
-1.891, 3.826e-3
-1.892, 3.888e-3
-1.893, 3.950e-3
-1.894, 4.011e-3
-1.895, 4.073e-3
-1.896, 4.135e-3
-1.897, 4.199e-3
-1.898, 4.264e-3
-1.899, 4.329e-3
-1.900, 4.397e-3
-1.901, 4.461e-3
-1.902, 4.529e-3
-1.903, 4.594e-3
-1.904, 4.662e-3
-1.905, 4.727e-3
-1.906, 4.794e-3
-1.907, 4.859e-3
-1.908, 4.927e-3
-1.909, 4.995e-3
-1.910, 5.066e-3
-1.911, 5.140e-3
-1.912, 5.211e-3
-1.913, 5.282e-3
-1.914, 5.352e-3
-1.915, 5.423e-3
-1.916, 5.494e-3
-1.917, 5.565e-3
-1.918, 5.636e-3
-1.919, 5.710e-3
-1.920, 5.781e-3
-1.921, 5.855e-3
-1.922, 5.929e-3
-1.923, 6.006e-3
-1.924, 6.083e-3
-1.925, 6.157e-3
-1.926, 6.234e-3
-1.927, 6.308e-3
-1.928, 6.382e-3
-1.929, 6.456e-3
-1.930, 6.530e-3
-1.931, 6.607e-3
-1.932, 6.681e-3
-1.933, 6.761e-3
-1.934, 6.838e-3
-1.935, 6.919e-3
-1.936, 6.999e-3
-1.937, 7.079e-3
-1.938, 7.156e-3
-1.939, 7.236e-3
-1.940, 7.313e-3
-1.941, 7.390e-3
-1.942, 7.467e-3
-1.943, 7.545e-3
-1.944, 7.628e-3
-1.945, 7.711e-3
-1.946, 7.794e-3
-1.947, 7.878e-3
-1.948, 7.961e-3
-1.949, 8.044e-3
-1.950, 8.127e-3
-1.951, 8.207e-3
-1.952, 8.288e-3
-1.953, 8.368e-3
-1.954, 8.448e-3
-1.955, 8.531e-3
-1.956, 8.614e-3
-1.957, 8.698e-3
-1.958, 8.784e-3
-1.959, 8.870e-3
-1.960, 8.954e-3
-1.961, 9.040e-3
-1.962, 9.123e-3
-1.963, 9.206e-3
-1.964, 9.290e-3
-1.965, 9.370e-3
-1.966, 9.456e-3
-1.967, 9.542e-3
-1.968, 9.629e-3
-1.969, 9.715e-3
-1.970, 9.804e-3
-1.971, 9.894e-3
-1.972, 9.980e-3
-1.973, 1.007e-2
-1.974, 1.015e-2
-1.975, 1.024e-2
-1.976, 1.032e-2
-1.977, 1.041e-2
-1.978, 1.049e-2
-1.979, 1.058e-2
-1.980, 1.067e-2
-1.981, 1.075e-2
-1.982, 1.085e-2
-1.983, 1.094e-2
-1.984, 1.103e-2
-1.985, 1.112e-2
-1.986, 1.120e-2
-1.987, 1.129e-2
-1.988, 1.138e-2
-1.989, 1.147e-2
-1.990, 1.155e-2
-1.991, 1.164e-2
-1.992, 1.173e-2
-1.993, 1.183e-2
-1.994, 1.192e-2
-1.995, 1.201e-2
-1.996, 1.210e-2
-1.997, 1.219e-2
-1.998, 1.228e-2
-1.999, 1.237e-2
-2.000, 1.241e-2
-1.999, 1.235e-2
-1.998, 1.230e-2
-1.997, 1.224e-2
-1.996, 1.219e-2
-1.995, 1.213e-2
-1.994, 1.208e-2
-1.993, 1.202e-2
-1.992, 1.196e-2
-1.991, 1.190e-2
-1.990, 1.184e-2
-1.989, 1.177e-2
-1.988, 1.171e-2
-1.987, 1.165e-2
-1.986, 1.159e-2
-1.985, 1.152e-2
-1.984, 1.147e-2
-1.983, 1.140e-2
-1.982, 1.134e-2
-1.981, 1.128e-2
-1.980, 1.122e-2
-1.979, 1.116e-2
-1.978, 1.109e-2
-1.977, 1.103e-2
-1.976, 1.096e-2
-1.975, 1.090e-2
-1.974, 1.084e-2
-1.973, 1.078e-2
-1.972, 1.071e-2
-1.971, 1.066e-2
-1.970, 1.059e-2
-1.969, 1.053e-2
-1.968, 1.046e-2
-1.967, 1.040e-2
-1.966, 1.033e-2
-1.965, 1.026e-2
-1.964, 1.020e-2
-1.963, 1.013e-2
-1.962, 1.007e-2
-1.961, 1.001e-2
-1.960, 9.946e-3
-1.959, 9.885e-3
-1.958, 9.823e-3
-1.957, 9.758e-3
-1.956, 9.693e-3
-1.955, 9.626e-3
-1.954, 9.561e-3
-1.953, 9.493e-3
-1.952, 9.428e-3
-1.951, 9.364e-3
-1.950, 9.302e-3
-1.949, 9.240e-3
-1.948, 9.179e-3
-1.947, 9.117e-3
-1.946, 9.058e-3
-1.945, 8.994e-3
-1.944, 8.929e-3
-1.943, 8.867e-3
-1.942, 8.802e-3
-1.941, 8.738e-3
-1.940, 8.673e-3
-1.939, 8.611e-3
-1.938, 8.550e-3
-1.937, 8.491e-3
-1.936, 8.432e-3
-1.935, 8.371e-3
-1.934, 8.309e-3
-1.933, 8.247e-3
-1.932, 8.183e-3
-1.931, 8.121e-3
-1.930, 8.056e-3
-1.929, 7.995e-3
-1.928, 7.933e-3
-1.927, 7.871e-3
-1.926, 7.813e-3
-1.925, 7.754e-3
-1.924, 7.696e-3
-1.923, 7.640e-3
-1.922, 7.578e-3
-1.921, 7.520e-3
-1.920, 7.458e-3
-1.919, 7.397e-3
-1.918, 7.338e-3
-1.917, 7.276e-3
-1.916, 7.218e-3
-1.915, 7.162e-3
-1.914, 7.104e-3
-1.913, 7.048e-3
-1.912, 6.990e-3
-1.911, 6.934e-3
-1.910, 6.879e-3
-1.909, 6.820e-3
-1.908, 6.758e-3
-1.907, 6.700e-3
-1.906, 6.641e-3
-1.905, 6.583e-3
-1.904, 6.527e-3
-1.903, 6.472e-3
-1.902, 6.416e-3
-1.901, 6.364e-3
-1.900, 6.308e-3
-1.899, 6.253e-3
-1.898, 6.197e-3
-1.897, 6.142e-3
-1.896, 6.086e-3
-1.895, 6.031e-3
-1.894, 5.972e-3
-1.893, 5.920e-3
-1.892, 5.864e-3
-1.891, 5.815e-3
-1.890, 5.762e-3
-1.889, 5.710e-3
-1.888, 5.658e-3
-1.887, 5.605e-3
-1.886, 5.553e-3
-1.885, 5.497e-3
-1.884, 5.445e-3
-1.883, 5.389e-3
-1.882, 5.337e-3
-1.881, 5.288e-3
-1.880, 5.238e-3
-1.879, 5.186e-3
-1.878, 5.140e-3
-1.877, 5.090e-3
-1.876, 5.041e-3
-1.875, 4.992e-3
-1.874, 4.942e-3
-1.873, 4.890e-3
-1.872, 4.841e-3
-1.871, 4.791e-3
-1.870, 4.739e-3
-1.869, 4.693e-3
-1.868, 4.643e-3
-1.867, 4.597e-3
-1.866, 4.554e-3
-1.865, 4.508e-3
-1.864, 4.461e-3
-1.863, 4.412e-3
-1.862, 4.366e-3
-1.861, 4.320e-3
-1.860, 4.270e-3
-1.859, 4.224e-3
-1.858, 4.178e-3
-1.857, 4.135e-3
-1.856, 4.091e-3
-1.855, 4.048e-3
-1.854, 4.005e-3
-1.853, 3.962e-3
-1.852, 3.919e-3
-1.851, 3.873e-3
-1.850, 3.832e-3
-1.849, 3.786e-3
-1.848, 3.743e-3
-1.847, 3.700e-3
-1.846, 3.657e-3
-1.845, 3.617e-3
-1.844, 3.577e-3
-1.843, 3.536e-3
-1.842, 3.496e-3
-1.841, 3.456e-3
-1.840, 3.416e-3
-1.839, 3.373e-3
-1.838, 3.333e-3
-1.837, 3.293e-3
-1.836, 3.253e-3
-1.835, 3.213e-3
-1.834, 3.173e-3
-1.833, 3.136e-3
-1.832, 3.099e-3
-1.831, 3.062e-3
-1.830, 3.025e-3
-1.829, 2.988e-3
-1.828, 2.951e-3
-1.827, 2.914e-3
-1.826, 2.877e-3
-1.825, 2.837e-3
-1.824, 2.803e-3
-1.823, 2.769e-3
-1.822, 2.732e-3
-1.821, 2.698e-3
-1.820, 2.664e-3
-1.819, 2.630e-3
-1.818, 2.596e-3
-1.817, 2.562e-3
-1.816, 2.528e-3
-1.815, 2.494e-3
-1.814, 2.460e-3
-1.813, 2.427e-3
-1.812, 2.393e-3
-1.811, 2.362e-3
-1.810, 2.331e-3
-1.809, 2.300e-3
-1.808, 2.269e-3
-1.807, 2.238e-3
-1.806, 2.208e-3
-1.805, 2.177e-3
-1.804, 2.146e-3
-1.803, 2.118e-3
-1.802, 2.084e-3
-1.801, 2.057e-3
-1.800, 2.026e-3
-1.799, 1.998e-3
-1.798, 1.970e-3
-1.797, 1.943e-3
-1.796, 1.915e-3
-1.795, 1.890e-3
-1.794, 1.862e-3
-1.793, 1.835e-3
-1.792, 1.807e-3
-1.791, 1.782e-3
-1.790, 1.754e-3
-1.789, 1.727e-3
-1.788, 1.699e-3
-1.787, 1.674e-3
-1.786, 1.650e-3
-1.785, 1.628e-3
-1.784, 1.600e-3
-1.783, 1.579e-3
-1.782, 1.554e-3
-1.781, 1.529e-3
-1.780, 1.505e-3
-1.779, 1.483e-3
-1.778, 1.458e-3
-1.777, 1.434e-3
-1.776, 1.412e-3
-1.775, 1.391e-3
-1.774, 1.369e-3
-1.773, 1.347e-3
-1.772, 1.326e-3
-1.771, 1.304e-3
-1.770, 1.283e-3
-1.769, 1.264e-3
-1.768, 1.243e-3
-1.767, 1.221e-3
-1.766, 1.203e-3
-1.765, 1.181e-3
-1.764, 1.162e-3
-1.763, 1.144e-3
-1.762, 1.125e-3
-1.761, 1.107e-3
-1.760, 1.088e-3
-1.759, 1.070e-3
-1.758, 1.051e-3
-1.757, 1.033e-3
-1.756, 1.014e-3
-1.755, 9.960e-4
-1.754, 9.806e-4
-1.753, 9.621e-4
-1.752, 9.467e-4
-1.751, 9.313e-4
-1.750, 9.128e-4
-1.749, 9.004e-4
-1.748, 8.819e-4
-1.747, 8.665e-4
-1.746, 8.511e-4
-1.745, 8.357e-4
-1.744, 8.203e-4
-1.743, 8.048e-4
-1.742, 7.894e-4
-1.741, 7.771e-4
-1.740, 7.617e-4
-1.739, 7.463e-4
-1.738, 7.339e-4
-1.737, 7.216e-4
-1.736, 7.093e-4
-1.735, 6.939e-4
-1.734, 6.815e-4
-1.733, 6.692e-4
-1.732, 6.538e-4
-1.731, 6.414e-4
-1.730, 6.322e-4
-1.729, 6.199e-4
-1.728, 6.075e-4
-1.727, 5.983e-4
-1.726, 5.859e-4
-1.725, 5.736e-4
-1.724, 5.613e-4
-1.723, 5.520e-4
-1.722, 5.397e-4
-1.721, 5.305e-4
-1.720, 5.181e-4
-1.719, 5.089e-4
-1.718, 4.965e-4
-1.717, 4.873e-4
-1.716, 4.780e-4
-1.715, 4.688e-4
-1.714, 4.595e-4
-1.713, 4.503e-4
-1.712, 4.410e-4
-1.711, 4.318e-4
-1.710, 4.225e-4
-1.709, 4.133e-4
-1.708, 4.071e-4
-1.707, 3.979e-4
-1.706, 3.886e-4
-1.705, 3.794e-4
-1.704, 3.732e-4
-1.703, 3.640e-4
-1.702, 3.578e-4
-1.701, 3.516e-4
-1.700, 3.424e-4
-1.699, 3.362e-4
-1.698, 3.300e-4
-1.697, 3.208e-4
-1.696, 3.146e-4
-1.695, 3.085e-4
-1.694, 2.992e-4
-1.693, 2.931e-4
-1.692, 2.900e-4
-1.691, 2.807e-4
-1.690, 2.746e-4
-1.689, 2.684e-4
-1.688, 2.653e-4
-1.687, 2.561e-4
-1.686, 2.530e-4
-1.685, 2.468e-4
-1.684, 2.406e-4
-1.683, 2.345e-4
-1.682, 2.314e-4
-1.681, 2.252e-4
-1.680, 2.191e-4
-1.679, 2.160e-4
-1.678, 2.098e-4
-1.677, 2.067e-4
-1.676, 2.006e-4
-1.675, 1.975e-4
-1.674, 1.913e-4
-1.673, 1.882e-4
-1.672, 1.821e-4
-1.671, 1.759e-4
-1.670, 1.728e-4
-1.669, 1.697e-4
-1.668, 1.666e-4
-1.667, 1.636e-4
-1.666, 1.574e-4
-1.665, 1.543e-4
-1.664, 1.512e-4
-1.663, 1.481e-4
-1.662, 1.420e-4
-1.661, 1.420e-4
-1.660, 1.358e-4
-1.659, 1.327e-4
-1.658, 1.296e-4
-1.657, 1.266e-4
-1.656, 1.235e-4
-1.655, 1.204e-4
-1.654, 1.173e-4
-1.653, 1.142e-4
-1.652, 1.111e-4
-1.651, 1.081e-4
-1.650, 1.081e-4
-1.649, 1.019e-4
-1.648, 1.019e-4
-1.647, 9.882e-5
-1.646, 9.573e-5
-1.645, 9.573e-5
-1.644, 9.265e-5
-1.643, 8.957e-5
-1.642, 8.648e-5
-1.641, 8.648e-5
-1.640, 8.340e-5
-1.639, 8.032e-5
-1.638, 7.723e-5
-1.637, 7.723e-5
-1.636, 7.415e-5
-1.635, 7.107e-5
-1.634, 7.107e-5
-1.633, 6.798e-5
-1.632, 6.798e-5
-1.631, 6.490e-5
-1.630, 6.182e-5
-1.629, 6.182e-5
-1.628, 5.873e-5
-1.627, 5.873e-5
-1.626, 5.565e-5
-1.625, 5.565e-5
-1.624, 5.257e-5
-1.623, 5.257e-5
-1.622, 4.949e-5
-1.621, 4.949e-5
-1.620, 4.640e-5
-1.619, 4.640e-5
-1.618, 4.640e-5
-1.617, 4.332e-5
-1.616, 4.332e-5
-1.615, 4.024e-5
-1.614, 4.024e-5
-1.613, 3.715e-5
-1.612, 3.715e-5
-1.611, 3.715e-5
-1.610, 3.715e-5
-1.609, 3.407e-5
-1.608, 3.407e-5
-1.607, 3.407e-5
-1.606, 3.099e-5
-1.605, 3.099e-5
-1.604, 2.790e-5
-1.603, 2.790e-5
-1.602, 2.790e-5
-1.601, 2.482e-5
-1.600, 2.790e-5
-1.599, 2.482e-5
-1.598, 2.482e-5
-1.597, 2.482e-5
-1.596, 2.174e-5
-1.595, 2.174e-5
-1.594, 2.174e-5
-1.593, 1.865e-5
-1.592, 2.174e-5
-1.591, 1.865e-5
-1.590, 1.865e-5
-1.589, 1.865e-5
-1.588, 1.557e-5
-1.587, 1.865e-5
-1.586, 1.557e-5
-1.585, 1.557e-5
-1.584, 1.557e-5
-1.583, 1.249e-5
-1.582, 1.249e-5
-1.581, 1.249e-5
-1.580, 1.249e-5
-1.579, 1.249e-5
-1.578, 1.249e-5
-1.577, 9.405e-6
-1.576, 9.405e-6
-1.575, 9.405e-6
-1.574, 9.405e-6
-1.573, 9.405e-6
-1.572, 9.405e-6
-1.571, 9.405e-6
-1.570, 6.322e-6
-1.569, 6.322e-6
-1.568, 6.322e-6
-1.567, 9.405e-6
-1.566, 6.322e-6
-1.565, 6.322e-6
-1.564, 6.322e-6
-1.563, 6.322e-6
-1.562, 6.322e-6
-1.561, 6.322e-6
-1.560, 6.322e-6
-1.559, 3.239e-6
-1.558, 3.239e-6
-1.557, 3.239e-6
-1.556, 3.239e-6
-1.555, 3.239e-6
-1.554, 3.239e-6
-1.553, 3.239e-6
-1.552, 3.239e-6
-1.551, 3.239e-6
-1.550, 1.559e-7
-1.549, 3.239e-6
-1.548, 1.559e-7
-1.547, 1.559e-7
-1.546, 1.559e-7
-1.545, 1.559e-7
-1.544, 1.559e-7
-1.543, 1.559e-7
-1.542, 1.559e-7
-1.541, 1.559e-7
-1.540, 1.559e-7
-1.539, 1.559e-7
-1.538, 1.559e-7
-1.537, 1.559e-7
-1.536, -2.927e-6
-1.535, 1.559e-7
-1.534, -2.927e-6
-1.533, -2.927e-6
-1.532, -2.927e-6
-1.531, -2.927e-6
-1.530, -2.927e-6
-1.529, -2.927e-6
-1.528, -2.927e-6
-1.527, -2.927e-6
-1.526, -2.927e-6
-1.525, -2.927e-6
-1.524, -2.927e-6
-1.523, -2.927e-6
-1.522, -2.927e-6
-1.521, -2.927e-6
-1.520, -2.927e-6
-1.519, -2.927e-6
-1.518, -2.927e-6
-1.517, -2.927e-6
-1.516, -2.927e-6
-1.515, -2.927e-6
-1.514, -6.010e-6
-1.513, -2.927e-6
-1.512, -6.010e-6
-1.511, -2.927e-6
-1.510, -6.010e-6
-1.509, -6.010e-6
-1.508, -6.010e-6
-1.507, -6.010e-6
-1.506, -2.927e-6
-1.505, -6.010e-6
-1.504, -6.010e-6
-1.503, -6.010e-6
-1.502, -6.010e-6
-1.501, -6.010e-6
-1.500, -6.010e-6
-1.499, -6.010e-6
-1.498, -6.010e-6
-1.497, -6.010e-6
-1.496, -6.010e-6
-1.495, -6.010e-6
-1.494, -6.010e-6
-1.493, -6.010e-6
-1.492, -6.010e-6
-1.491, -6.010e-6
-1.490, -6.010e-6
-1.489, -6.010e-6
-1.488, -6.010e-6
-1.487, -6.010e-6
-1.486, -6.010e-6
-1.485, -6.010e-6
-1.484, -6.010e-6
-1.483, -6.010e-6
-1.482, -6.010e-6
-1.481, -6.010e-6
-1.480, -6.010e-6
-1.479, -6.010e-6
-1.478, -6.010e-6
-1.477, -6.010e-6
-1.476, -6.010e-6
-1.475, -6.010e-6
-1.474, -6.010e-6
-1.473, -6.010e-6
-1.472, -6.010e-6
-1.471, -6.010e-6
-1.470, -6.010e-6
-1.469, -6.010e-6
-1.468, -6.010e-6
-1.467, -6.010e-6
-1.466, -9.093e-6
-1.465, -6.010e-6
-1.464, -6.010e-6
-1.463, -6.010e-6
-1.462, -6.010e-6
-1.461, -6.010e-6
-1.460, -9.093e-6
-1.459, -6.010e-6
-1.458, -9.093e-6
-1.457, -6.010e-6
-1.456, -6.010e-6
-1.455, -9.093e-6
-1.454, -6.010e-6
-1.453, -6.010e-6
-1.452, -6.010e-6
-1.451, -9.093e-6
-1.450, -6.010e-6
-1.449, -9.093e-6
-1.448, -9.093e-6
-1.447, -6.010e-6
-1.446, -6.010e-6
-1.445, -9.093e-6
-1.444, -9.093e-6
-1.443, -9.093e-6
-1.442, -9.093e-6
-1.441, -6.010e-6
-1.440, -9.093e-6
-1.439, -9.093e-6
-1.438, -6.010e-6
-1.437, -9.093e-6
-1.436, -9.093e-6
-1.435, -6.010e-6
-1.434, -9.093e-6
-1.433, -9.093e-6
-1.432, -9.093e-6
-1.431, -9.093e-6
-1.430, -9.093e-6
-1.429, -9.093e-6
-1.428, -9.093e-6
-1.427, -9.093e-6
-1.426, -9.093e-6
-1.425, -9.093e-6
-1.424, -9.093e-6
-1.423, -6.010e-6
-1.422, -9.093e-6
-1.421, -9.093e-6
-1.420, -9.093e-6
-1.419, -9.093e-6
-1.418, -9.093e-6
-1.417, -9.093e-6
-1.416, -9.093e-6
-1.415, -9.093e-6
-1.414, -9.093e-6
-1.413, -9.093e-6
-1.412, -9.093e-6
-1.411, -9.093e-6
-1.410, -9.093e-6
-1.409, -9.093e-6
-1.408, -9.093e-6
-1.407, -9.093e-6
-1.406, -9.093e-6
-1.405, -9.093e-6
-1.404, -9.093e-6
-1.403, -9.093e-6
-1.402, -9.093e-6
-1.401, -9.093e-6
-1.400, -9.093e-6
-1.399, -9.093e-6
-1.398, -9.093e-6
-1.397, -9.093e-6
-1.396, -9.093e-6
-1.395, -9.093e-6
-1.394, -9.093e-6
-1.393, -9.093e-6
-1.392, -9.093e-6
-1.391, -9.093e-6
-1.390, -9.093e-6
-1.389, -9.093e-6
-1.388, -9.093e-6
-1.387, -9.093e-6
-1.386, -9.093e-6
-1.385, -9.093e-6
-1.384, -9.093e-6
-1.383, -9.093e-6
-1.382, -9.093e-6
-1.381, -9.093e-6
-1.380, -9.093e-6
-1.379, -9.093e-6
-1.378, -9.093e-6
-1.377, -9.093e-6
-1.376, -9.093e-6
-1.375, -9.093e-6
-1.374, -9.093e-6
-1.373, -9.093e-6
-1.372, -9.093e-6
-1.371, -9.093e-6
-1.370, -9.093e-6
-1.369, -9.093e-6
-1.368, -9.093e-6
-1.367, -9.093e-6
-1.366, -9.093e-6
-1.365, -9.093e-6
-1.364, -9.093e-6
-1.363, -9.093e-6
-1.362, -9.093e-6
-1.361, -9.093e-6
-1.360, -9.093e-6
-1.359, -9.093e-6
-1.358, -9.093e-6
-1.357, -9.093e-6
-1.356, -9.093e-6
-1.355, -9.093e-6
-1.354, -9.093e-6
-1.353, -9.093e-6
-1.352, -9.093e-6
-1.351, -9.093e-6
-1.350, -9.093e-6
-1.349, -9.093e-6
-1.348, -9.093e-6
-1.347, -9.093e-6
-1.346, -9.093e-6
-1.345, -9.093e-6
-1.344, -9.093e-6
-1.343, -9.093e-6
-1.342, -6.010e-6
-1.341, -9.093e-6
-1.340, -9.093e-6
-1.339, -9.093e-6
-1.338, -9.093e-6
-1.337, -9.093e-6
-1.336, -9.093e-6
-1.335, -9.093e-6
-1.334, -9.093e-6
-1.333, -9.093e-6
-1.332, -9.093e-6
-1.331, -9.093e-6
-1.330, -9.093e-6
-1.329, -9.093e-6
-1.328, -9.093e-6
-1.327, -9.093e-6
-1.326, -9.093e-6
-1.325, -9.093e-6
-1.324, -9.093e-6
-1.323, -9.093e-6
-1.322, -9.093e-6
-1.321, -9.093e-6
-1.320, -9.093e-6
-1.319, -6.010e-6
-1.318, -9.093e-6
-1.317, -9.093e-6
-1.316, -9.093e-6
-1.315, -9.093e-6
-1.314, -9.093e-6
-1.313, -9.093e-6
-1.312, -9.093e-6
-1.311, -9.093e-6
-1.310, -9.093e-6
-1.309, -9.093e-6
-1.308, -9.093e-6
-1.307, -9.093e-6
-1.306, -9.093e-6
-1.305, -9.093e-6
-1.304, -9.093e-6
-1.303, -9.093e-6
-1.302, -9.093e-6
-1.301, -9.093e-6
-1.300, -9.093e-6
-1.299, -9.093e-6
-1.298, -9.093e-6
-1.297, -9.093e-6
-1.296, -9.093e-6
-1.295, -9.093e-6
-1.294, -9.093e-6
-1.293, -9.093e-6
-1.292, -9.093e-6
-1.291, -9.093e-6
-1.290, -9.093e-6
-1.289, -9.093e-6
-1.288, -9.093e-6
-1.287, -9.093e-6
-1.286, -9.093e-6
-1.285, -9.093e-6
-1.284, -9.093e-6
-1.283, -9.093e-6
-1.282, -9.093e-6
-1.281, -9.093e-6
-1.280, -9.093e-6
-1.279, -9.093e-6
-1.278, -9.093e-6
-1.277, -9.093e-6
-1.276, -9.093e-6
-1.275, -9.093e-6
-1.274, -9.093e-6
-1.273, -9.093e-6
-1.272, -9.093e-6
-1.271, -9.093e-6
-1.270, -9.093e-6
-1.269, -9.093e-6
-1.268, -9.093e-6
-1.267, -9.093e-6
-1.266, -9.093e-6
-1.265, -9.093e-6
-1.264, -9.093e-6
-1.263, -9.093e-6
-1.262, -9.093e-6
-1.261, -9.093e-6
-1.260, -9.093e-6
-1.259, -9.093e-6
-1.258, -9.093e-6
-1.257, -9.093e-6
-1.256, -9.093e-6
-1.255, -9.093e-6
-1.254, -9.093e-6
-1.253, -9.093e-6
-1.252, -9.093e-6
-1.251, -9.093e-6
-1.250, -9.093e-6
-1.249, -9.093e-6
-1.248, -9.093e-6
-1.247, -9.093e-6
-1.246, -9.093e-6
-1.245, -9.093e-6
-1.244, -9.093e-6
-1.243, -9.093e-6
-1.242, -9.093e-6
-1.241, -9.093e-6
-1.240, -9.093e-6
-1.239, -9.093e-6
-1.238, -9.093e-6
-1.237, -9.093e-6
-1.236, -9.093e-6
-1.235, -9.093e-6
-1.234, -9.093e-6
-1.233, -9.093e-6
-1.232, -9.093e-6
-1.231, -9.093e-6
-1.230, -9.093e-6
-1.229, -9.093e-6
-1.228, -9.093e-6
-1.227, -9.093e-6
-1.226, -9.093e-6
-1.225, -9.093e-6
-1.224, -9.093e-6
-1.223, -9.093e-6
-1.222, -9.093e-6
-1.221, -9.093e-6
-1.220, -9.093e-6
-1.219, -9.093e-6
-1.218, -9.093e-6
-1.217, -9.093e-6
-1.216, -9.093e-6
-1.215, -9.093e-6
-1.214, -9.093e-6
-1.213, -9.093e-6
-1.212, -9.093e-6
-1.211, -9.093e-6
-1.210, -9.093e-6
-1.209, -9.093e-6
-1.208, -9.093e-6
-1.207, -9.093e-6
-1.206, -9.093e-6
-1.205, -9.093e-6
-1.204, -9.093e-6
-1.203, -9.093e-6
-1.202, -9.093e-6
-1.201, -9.093e-6
-1.200, -9.093e-6
-1.199, -9.093e-6
-1.198, -9.093e-6
-1.197, -9.093e-6
-1.196, -9.093e-6
-1.195, -9.093e-6
-1.194, -9.093e-6
-1.193, -9.093e-6
-1.192, -9.093e-6
-1.191, -9.093e-6
-1.190, -9.093e-6
-1.189, -9.093e-6
-1.188, -9.093e-6
-1.187, -9.093e-6
-1.186, -9.093e-6
-1.185, -9.093e-6
-1.184, -9.093e-6
-1.183, -9.093e-6
-1.182, -9.093e-6
-1.181, -9.093e-6
-1.180, -9.093e-6
-1.179, -9.093e-6
-1.178, -9.093e-6
-1.177, -9.093e-6
-1.176, -9.093e-6
-1.175, -9.093e-6
-1.174, -9.093e-6
-1.173, -9.093e-6
-1.172, -9.093e-6
-1.171, -9.093e-6
-1.170, -9.093e-6
-1.169, -9.093e-6
-1.168, -9.093e-6
-1.167, -9.093e-6
-1.166, -9.093e-6
-1.165, -9.093e-6
-1.164, -9.093e-6
-1.163, -9.093e-6
-1.162, -9.093e-6
-1.161, -9.093e-6
-1.160, -9.093e-6
-1.159, -9.093e-6
-1.158, -9.093e-6
-1.157, -9.093e-6
-1.156, -9.093e-6
-1.155, -9.093e-6
-1.154, -9.093e-6
-1.153, -9.093e-6
-1.152, -9.093e-6
-1.151, -9.093e-6
-1.150, -9.093e-6
-1.149, -9.093e-6
-1.148, -9.093e-6
-1.147, -9.093e-6
-1.146, -9.093e-6
-1.145, -9.093e-6
-1.144, -9.093e-6
-1.143, -9.093e-6
-1.142, -9.093e-6
-1.141, -9.093e-6
-1.140, -9.093e-6
-1.139, -9.093e-6
-1.138, -9.093e-6
-1.137, -9.093e-6
-1.136, -9.093e-6
-1.135, -9.093e-6
-1.134, -9.093e-6
-1.133, -9.093e-6
-1.132, -9.093e-6
-1.131, -9.093e-6
-1.130, -9.093e-6
-1.129, -9.093e-6
-1.128, -9.093e-6
-1.127, -9.093e-6
-1.126, -9.093e-6
-1.125, -9.093e-6
-1.124, -9.093e-6
-1.123, -9.093e-6
-1.122, -9.093e-6
-1.121, -9.093e-6
-1.120, -9.093e-6
-1.119, -9.093e-6
-1.118, -9.093e-6
-1.117, -9.093e-6
-1.116, -9.093e-6
-1.115, -9.093e-6
-1.114, -9.093e-6
-1.113, -9.093e-6
-1.112, -9.093e-6
-1.111, -9.093e-6
-1.110, -9.093e-6
-1.109, -9.093e-6
-1.108, -9.093e-6
-1.107, -9.093e-6
-1.106, -9.093e-6
-1.105, -9.093e-6
-1.104, -9.093e-6
-1.103, -9.093e-6
-1.102, -9.093e-6
-1.101, -9.093e-6
-1.100, -9.093e-6
-1.099, -9.093e-6
-1.098, -9.093e-6
-1.097, -9.093e-6
-1.096, -9.093e-6
-1.095, -9.093e-6
-1.094, -9.093e-6
-1.093, -9.093e-6
-1.092, -9.093e-6
-1.091, -9.093e-6
-1.090, -9.093e-6
-1.089, -9.093e-6
-1.088, -9.093e-6
-1.087, -9.093e-6
-1.086, -9.093e-6
-1.085, -9.093e-6
-1.084, -9.093e-6
-1.083, -9.093e-6
-1.082, -9.093e-6
-1.081, -9.093e-6
-1.080, -9.093e-6
-1.079, -9.093e-6
-1.078, -9.093e-6
-1.077, -9.093e-6
-1.076, -9.093e-6
-1.075, -9.093e-6
-1.074, -9.093e-6
-1.073, -9.093e-6
-1.072, -9.093e-6
-1.071, -9.093e-6
-1.070, -9.093e-6
-1.069, -9.093e-6
-1.068, -9.093e-6
-1.067, -9.093e-6
-1.066, -9.093e-6
-1.065, -9.093e-6
-1.064, -9.093e-6
-1.063, -9.093e-6
-1.062, -9.093e-6
-1.061, -9.093e-6
-1.060, -9.093e-6
-1.059, -9.093e-6
-1.058, -9.093e-6
-1.057, -9.093e-6
-1.056, -9.093e-6
-1.055, -9.093e-6
-1.054, -9.093e-6
-1.053, -9.093e-6
-1.052, -9.093e-6
-1.051, -9.093e-6
-1.050, -9.093e-6
-1.049, -9.093e-6
-1.048, -9.093e-6
-1.047, -9.093e-6
-1.046, -1.218e-5
-1.045, -9.093e-6
-1.044, -9.093e-6
-1.043, -9.093e-6
-1.042, -9.093e-6
-1.041, -9.093e-6
-1.040, -9.093e-6
-1.039, -9.093e-6
-1.038, -9.093e-6
-1.037, -9.093e-6
-1.036, -9.093e-6
-1.035, -9.093e-6
-1.034, -9.093e-6
-1.033, -9.093e-6
-1.032, -9.093e-6
-1.031, -9.093e-6
-1.030, -9.093e-6
-1.029, -9.093e-6
-1.028, -9.093e-6
-1.027, -9.093e-6
-1.026, -9.093e-6
-1.025, -9.093e-6
-1.024, -9.093e-6
-1.023, -9.093e-6
-1.022, -9.093e-6
-1.021, -9.093e-6
-1.020, -9.093e-6
-1.019, -9.093e-6
-1.018, -9.093e-6
-1.017, -9.093e-6
-1.016, -9.093e-6
-1.015, -9.093e-6
-1.014, -9.093e-6
-1.013, -9.093e-6
-1.012, -1.218e-5
-1.011, -9.093e-6
-1.010, -9.093e-6
-1.009, -9.093e-6
-1.008, -9.093e-6
-1.007, -9.093e-6
-1.006, -9.093e-6
-1.005, -9.093e-6
-1.004, -9.093e-6
-1.003, -9.093e-6
-1.002, -9.093e-6
-1.001, -9.093e-6
