Aug. 3, 2024   17:22:06
Cyclic Voltammetry
File: c:/users/guazh/data/20240802_batch_500/2024-08-02-exp8\exp8-2024-08-03t17_16_08-arkoh\exp8_cv_sr_100mvs_efin_-1400mv.bin
Data Source:  Experiment
Instrument Model:  CHI760E
Header: CV ran at 100 mVs
Note: 

Init E (V) = -1
High E (V) = -1
Low E (V) = -1.4
Final E (V) = -1
Init P/N = N
Scan Rate (V/s) = 0.1
Segment = 3
Sample Interval (V) = 0.001
Quiet Time (sec) = 2
Sensitivity (A/V) = 0.01
Comp R (ohm) = 1.7

Results:

Channel 1:
Segment 1:

Segment 2:

Segment 3:

Potential/V, Current/A

-1.000, 2.307e-5
-1.001, 6.749e-5
-1.002, 9.546e-5
-1.003, 1.111e-4
-1.004, 1.114e-4
-1.005, 1.301e-4
-1.006, 1.246e-4
-1.007, 1.348e-4
-1.008, 1.403e-4
-1.009, 1.352e-4
-1.010, 1.503e-4
-1.011, 1.423e-4
-1.012, 1.506e-4
-1.013, 1.546e-4
-1.014, 1.479e-4
-1.015, 1.626e-4
-1.016, 1.533e-4
-1.017, 1.604e-4
-1.018, 1.644e-4
-1.019, 1.569e-4
-1.020, 1.710e-4
-1.021, 1.611e-4
-1.022, 1.676e-4
-1.023, 1.714e-4
-1.024, 1.639e-4
-1.025, 1.772e-4
-1.026, 1.673e-4
-1.027, 1.733e-4
-1.028, 1.772e-4
-1.029, 1.684e-4
-1.030, 1.817e-4
-1.031, 1.720e-4
-1.032, 1.778e-4
-1.033, 1.812e-4
-1.034, 1.732e-4
-1.035, 1.855e-4
-1.036, 1.757e-4
-1.037, 1.817e-4
-1.038, 1.848e-4
-1.039, 1.764e-4
-1.040, 1.889e-4
-1.041, 1.792e-4
-1.042, 1.850e-4
-1.043, 1.876e-4
-1.044, 1.794e-4
-1.045, 1.916e-4
-1.046, 1.815e-4
-1.047, 1.874e-4
-1.048, 1.895e-4
-1.049, 1.815e-4
-1.050, 1.939e-4
-1.051, 1.835e-4
-1.052, 1.897e-4
-1.053, 1.919e-4
-1.054, 1.836e-4
-1.055, 1.961e-4
-1.056, 1.853e-4
-1.057, 1.912e-4
-1.058, 1.936e-4
-1.059, 1.850e-4
-1.060, 1.978e-4
-1.061, 1.867e-4
-1.062, 1.926e-4
-1.063, 1.953e-4
-1.064, 1.862e-4
-1.065, 1.986e-4
-1.066, 1.882e-4
-1.067, 1.933e-4
-1.068, 1.965e-4
-1.069, 1.871e-4
-1.070, 1.996e-4
-1.071, 1.893e-4
-1.072, 1.941e-4
-1.073, 1.969e-4
-1.074, 1.884e-4
-1.075, 2.007e-4
-1.076, 1.902e-4
-1.077, 1.952e-4
-1.078, 1.972e-4
-1.079, 1.891e-4
-1.080, 2.007e-4
-1.081, 1.903e-4
-1.082, 1.956e-4
-1.083, 1.979e-4
-1.084, 1.893e-4
-1.085, 2.011e-4
-1.086, 1.906e-4
-1.087, 1.961e-4
-1.088, 1.982e-4
-1.089, 1.894e-4
-1.090, 2.016e-4
-1.091, 1.908e-4
-1.092, 1.965e-4
-1.093, 1.982e-4
-1.094, 1.900e-4
-1.095, 2.017e-4
-1.096, 1.912e-4
-1.097, 1.966e-4
-1.098, 1.984e-4
-1.099, 1.897e-4
-1.100, 2.022e-4
-1.101, 1.913e-4
-1.102, 1.968e-4
-1.103, 1.992e-4
-1.104, 1.901e-4
-1.105, 2.025e-4
-1.106, 1.918e-4
-1.107, 1.968e-4
-1.108, 1.997e-4
-1.109, 1.902e-4
-1.110, 2.025e-4
-1.111, 1.922e-4
-1.112, 1.972e-4
-1.113, 1.996e-4
-1.114, 1.910e-4
-1.115, 2.028e-4
-1.116, 1.926e-4
-1.117, 1.975e-4
-1.118, 2.000e-4
-1.119, 1.917e-4
-1.120, 2.033e-4
-1.121, 1.931e-4
-1.122, 1.983e-4
-1.123, 2.002e-4
-1.124, 1.919e-4
-1.125, 2.042e-4
-1.126, 1.934e-4
-1.127, 1.994e-4
-1.128, 2.008e-4
-1.129, 1.928e-4
-1.130, 2.048e-4
-1.131, 1.942e-4
-1.132, 2.000e-4
-1.133, 2.017e-4
-1.134, 1.933e-4
-1.135, 2.058e-4
-1.136, 1.949e-4
-1.137, 2.005e-4
-1.138, 2.026e-4
-1.139, 1.943e-4
-1.140, 2.066e-4
-1.141, 1.957e-4
-1.142, 2.015e-4
-1.143, 2.037e-4
-1.144, 1.952e-4
-1.145, 2.073e-4
-1.146, 1.968e-4
-1.147, 2.023e-4
-1.148, 2.048e-4
-1.149, 1.960e-4
-1.150, 2.085e-4
-1.151, 1.981e-4
-1.152, 2.038e-4
-1.153, 2.060e-4
-1.154, 1.976e-4
-1.155, 2.093e-4
-1.156, 1.992e-4
-1.157, 2.046e-4
-1.158, 2.067e-4
-1.159, 1.987e-4
-1.160, 2.105e-4
-1.161, 2.003e-4
-1.162, 2.060e-4
-1.163, 2.081e-4
-1.164, 2.000e-4
-1.165, 2.118e-4
-1.166, 2.017e-4
-1.167, 2.077e-4
-1.168, 2.091e-4
-1.169, 2.016e-4
-1.170, 2.134e-4
-1.171, 2.029e-4
-1.172, 2.092e-4
-1.173, 2.108e-4
-1.174, 2.028e-4
-1.175, 2.155e-4
-1.176, 2.045e-4
-1.177, 2.110e-4
-1.178, 2.134e-4
-1.179, 2.044e-4
-1.180, 2.172e-4
-1.181, 2.063e-4
-1.182, 2.123e-4
-1.183, 2.148e-4
-1.184, 2.066e-4
-1.185, 2.190e-4
-1.186, 2.085e-4
-1.187, 2.143e-4
-1.188, 2.170e-4
-1.189, 2.086e-4
-1.190, 2.213e-4
-1.191, 2.109e-4
-1.192, 2.167e-4
-1.193, 2.192e-4
-1.194, 2.115e-4
-1.195, 2.234e-4
-1.196, 2.137e-4
-1.197, 2.195e-4
-1.198, 2.218e-4
-1.199, 2.147e-4
-1.200, 2.264e-4
-1.201, 2.169e-4
-1.202, 2.230e-4
-1.203, 2.254e-4
-1.204, 2.179e-4
-1.205, 2.303e-4
-1.206, 2.207e-4
-1.207, 2.269e-4
-1.208, 2.292e-4
-1.209, 2.219e-4
-1.210, 2.345e-4
-1.211, 2.247e-4
-1.212, 2.316e-4
-1.213, 2.340e-4
-1.214, 2.269e-4
-1.215, 2.400e-4
-1.216, 2.298e-4
-1.217, 2.370e-4
-1.218, 2.395e-4
-1.219, 2.323e-4
-1.220, 2.460e-4
-1.221, 2.361e-4
-1.222, 2.436e-4
-1.223, 2.466e-4
-1.224, 2.395e-4
-1.225, 2.533e-4
-1.226, 2.437e-4
-1.227, 2.512e-4
-1.228, 2.551e-4
-1.229, 2.492e-4
-1.230, 2.622e-4
-1.231, 2.534e-4
-1.232, 2.604e-4
-1.233, 2.645e-4
-1.234, 2.580e-4
-1.235, 2.720e-4
-1.236, 2.637e-4
-1.237, 2.716e-4
-1.238, 2.757e-4
-1.239, 2.700e-4
-1.240, 2.840e-4
-1.241, 2.755e-4
-1.242, 2.849e-4
-1.243, 2.887e-4
-1.244, 2.839e-4
-1.245, 2.986e-4
-1.246, 2.905e-4
-1.247, 3.003e-4
-1.248, 3.043e-4
-1.249, 2.999e-4
-1.250, 3.153e-4
-1.251, 3.079e-4
-1.252, 3.182e-4
-1.253, 3.228e-4
-1.254, 3.192e-4
-1.255, 3.354e-4
-1.256, 3.281e-4
-1.257, 3.387e-4
-1.258, 3.449e-4
-1.259, 3.413e-4
-1.260, 3.582e-4
-1.261, 3.520e-4
-1.262, 3.631e-4
-1.263, 3.696e-4
-1.264, 3.670e-4
-1.265, 3.845e-4
-1.266, 3.791e-4
-1.267, 3.914e-4
-1.268, 3.990e-4
-1.269, 3.969e-4
-1.270, 4.149e-4
-1.271, 4.108e-4
-1.272, 4.232e-4
-1.273, 4.316e-4
-1.274, 4.311e-4
-1.275, 4.505e-4
-1.276, 4.468e-4
-1.277, 4.608e-4
-1.278, 4.701e-4
-1.279, 4.705e-4
-1.280, 4.912e-4
-1.281, 4.886e-4
-1.282, 5.031e-4
-1.283, 5.136e-4
-1.284, 5.154e-4
-1.285, 5.364e-4
-1.286, 5.355e-4
-1.287, 5.522e-4
-1.288, 5.631e-4
-1.289, 5.664e-4
-1.290, 5.893e-4
-1.291, 5.887e-4
-1.292, 6.066e-4
-1.293, 6.189e-4
-1.294, 6.235e-4
-1.295, 6.476e-4
-1.296, 6.487e-4
-1.297, 6.685e-4
-1.298, 6.820e-4
-1.299, 6.879e-4
-1.300, 7.137e-4
-1.301, 7.159e-4
-1.302, 7.370e-4
-1.303, 7.526e-4
-1.304, 7.600e-4
-1.305, 7.869e-4
-1.306, 7.920e-4
-1.307, 8.146e-4
-1.308, 8.318e-4
-1.309, 8.416e-4
-1.310, 8.700e-4
-1.311, 8.763e-4
-1.312, 9.000e-4
-1.313, 9.190e-4
-1.314, 9.299e-4
-1.315, 9.596e-4
-1.316, 9.685e-4
-1.317, 9.943e-4
-1.318, 1.014e-3
-1.319, 1.028e-3
-1.320, 1.059e-3
-1.321, 1.069e-3
-1.322, 1.097e-3
-1.323, 1.120e-3
-1.324, 1.135e-3
-1.325, 1.168e-3
-1.326, 1.180e-3
-1.327, 1.210e-3
-1.328, 1.232e-3
-1.329, 1.250e-3
-1.330, 1.286e-3
-1.331, 1.300e-3
-1.332, 1.332e-3
-1.333, 1.357e-3
-1.334, 1.376e-3
-1.335, 1.414e-3
-1.336, 1.430e-3
-1.337, 1.464e-3
-1.338, 1.492e-3
-1.339, 1.512e-3
-1.340, 1.552e-3
-1.341, 1.570e-3
-1.342, 1.607e-3
-1.343, 1.637e-3
-1.344, 1.661e-3
-1.345, 1.702e-3
-1.346, 1.723e-3
-1.347, 1.761e-3
-1.348, 1.793e-3
-1.349, 1.819e-3
-1.350, 1.862e-3
-1.351, 1.884e-3
-1.352, 1.925e-3
-1.353, 1.959e-3
-1.354, 1.987e-3
-1.355, 2.032e-3
-1.356, 2.057e-3
-1.357, 2.098e-3
-1.358, 2.135e-3
-1.359, 2.165e-3
-1.360, 2.213e-3
-1.361, 2.239e-3
-1.362, 2.284e-3
-1.363, 2.322e-3
-1.364, 2.354e-3
-1.365, 2.405e-3
-1.366, 2.433e-3
-1.367, 2.480e-3
-1.368, 2.520e-3
-1.369, 2.555e-3
-1.370, 2.607e-3
-1.371, 2.638e-3
-1.372, 2.687e-3
-1.373, 2.728e-3
-1.374, 2.766e-3
-1.375, 2.819e-3
-1.376, 2.851e-3
-1.377, 2.902e-3
-1.378, 2.946e-3
-1.379, 2.984e-3
-1.380, 3.040e-3
-1.381, 3.077e-3
-1.382, 3.131e-3
-1.383, 3.179e-3
-1.384, 3.219e-3
-1.385, 3.277e-3
-1.386, 3.314e-3
-1.387, 3.371e-3
-1.388, 3.419e-3
-1.389, 3.461e-3
-1.390, 3.523e-3
-1.391, 3.562e-3
-1.392, 3.619e-3
-1.393, 3.670e-3
-1.394, 3.716e-3
-1.395, 3.777e-3
-1.396, 3.819e-3
-1.397, 3.877e-3
-1.398, 3.930e-3
-1.399, 3.978e-3
-1.400, 3.950e-3
-1.399, 3.848e-3
-1.398, 3.791e-3
-1.397, 3.729e-3
-1.396, 3.664e-3
-1.395, 3.615e-3
-1.394, 3.547e-3
-1.393, 3.496e-3
-1.392, 3.439e-3
-1.391, 3.378e-3
-1.390, 3.332e-3
-1.389, 3.268e-3
-1.388, 3.222e-3
-1.387, 3.168e-3
-1.386, 3.109e-3
-1.385, 3.069e-3
-1.384, 3.008e-3
-1.383, 2.964e-3
-1.382, 2.914e-3
-1.381, 2.860e-3
-1.380, 2.820e-3
-1.379, 2.764e-3
-1.378, 2.722e-3
-1.377, 2.675e-3
-1.376, 2.623e-3
-1.375, 2.587e-3
-1.374, 2.531e-3
-1.373, 2.495e-3
-1.372, 2.451e-3
-1.371, 2.403e-3
-1.370, 2.370e-3
-1.369, 2.317e-3
-1.368, 2.282e-3
-1.367, 2.241e-3
-1.366, 2.193e-3
-1.365, 2.165e-3
-1.364, 2.115e-3
-1.363, 2.083e-3
-1.362, 2.044e-3
-1.361, 2.000e-3
-1.360, 1.973e-3
-1.359, 1.925e-3
-1.358, 1.896e-3
-1.357, 1.859e-3
-1.356, 1.817e-3
-1.355, 1.794e-3
-1.354, 1.748e-3
-1.353, 1.722e-3
-1.352, 1.687e-3
-1.351, 1.648e-3
-1.350, 1.627e-3
-1.349, 1.583e-3
-1.348, 1.558e-3
-1.347, 1.527e-3
-1.346, 1.490e-3
-1.345, 1.470e-3
-1.344, 1.429e-3
-1.343, 1.406e-3
-1.342, 1.377e-3
-1.341, 1.342e-3
-1.340, 1.325e-3
-1.339, 1.286e-3
-1.338, 1.266e-3
-1.337, 1.238e-3
-1.336, 1.206e-3
-1.335, 1.192e-3
-1.334, 1.155e-3
-1.333, 1.137e-3
-1.332, 1.111e-3
-1.331, 1.080e-3
-1.330, 1.067e-3
-1.329, 1.031e-3
-1.328, 1.016e-3
-1.327, 9.923e-4
-1.326, 9.633e-4
-1.325, 9.524e-4
-1.324, 9.188e-4
-1.323, 9.044e-4
-1.322, 8.828e-4
-1.321, 8.550e-4
-1.320, 8.460e-4
-1.319, 8.137e-4
-1.318, 8.006e-4
-1.317, 7.805e-4
-1.316, 7.549e-4
-1.315, 7.465e-4
-1.314, 7.176e-4
-1.313, 7.060e-4
-1.312, 6.876e-4
-1.311, 6.637e-4
-1.310, 6.573e-4
-1.309, 6.291e-4
-1.308, 6.195e-4
-1.307, 6.029e-4
-1.306, 5.811e-4
-1.305, 5.757e-4
-1.304, 5.491e-4
-1.303, 5.407e-4
-1.302, 5.245e-4
-1.301, 5.044e-4
-1.300, 5.006e-4
-1.299, 4.748e-4
-1.298, 4.684e-4
-1.297, 4.536e-4
-1.296, 4.346e-4
-1.295, 4.325e-4
-1.294, 4.085e-4
-1.293, 4.035e-4
-1.292, 3.898e-4
-1.291, 3.718e-4
-1.290, 3.710e-4
-1.289, 3.475e-4
-1.288, 3.435e-4
-1.287, 3.318e-4
-1.286, 3.142e-4
-1.285, 3.148e-4
-1.284, 2.925e-4
-1.283, 2.894e-4
-1.282, 2.790e-4
-1.281, 2.623e-4
-1.280, 2.631e-4
-1.279, 2.426e-4
-1.278, 2.406e-4
-1.277, 2.314e-4
-1.276, 2.161e-4
-1.275, 2.181e-4
-1.274, 1.984e-4
-1.273, 1.967e-4
-1.272, 1.884e-4
-1.271, 1.740e-4
-1.270, 1.768e-4
-1.269, 1.582e-4
-1.268, 1.580e-4
-1.267, 1.496e-4
-1.266, 1.366e-4
-1.265, 1.396e-4
-1.264, 1.220e-4
-1.263, 1.225e-4
-1.262, 1.150e-4
-1.261, 1.023e-4
-1.260, 1.071e-4
-1.259, 8.925e-5
-1.258, 9.075e-5
-1.257, 8.392e-5
-1.256, 7.238e-5
-1.255, 7.702e-5
-1.254, 6.027e-5
-1.253, 6.260e-5
-1.252, 5.650e-5
-1.251, 4.465e-5
-1.250, 5.076e-5
-1.249, 3.393e-5
-1.248, 3.718e-5
-1.247, 3.110e-5
-1.246, 2.004e-5
-1.245, 2.690e-5
-1.244, 1.079e-5
-1.243, 1.383e-5
-1.242, 8.858e-6
-1.241, -1.936e-6
-1.240, 5.483e-6
-1.239, -9.888e-6
-1.238, -6.849e-6
-1.237, -1.076e-5
-1.236, -2.087e-5
-1.235, -1.374e-5
-1.234, -2.845e-5
-1.233, -2.459e-5
-1.232, -2.825e-5
-1.231, -3.782e-5
-1.230, -3.053e-5
-1.229, -4.643e-5
-1.228, -4.170e-5
-1.227, -4.473e-5
-1.226, -5.370e-5
-1.225, -4.589e-5
-1.224, -5.982e-5
-1.223, -5.552e-5
-1.222, -5.893e-5
-1.221, -6.749e-5
-1.220, -5.953e-5
-1.219, -7.338e-5
-1.218, -6.821e-5
-1.217, -7.176e-5
-1.216, -8.014e-5
-1.215, -7.168e-5
-1.214, -8.559e-5
-1.213, -7.988e-5
-1.212, -8.303e-5
-1.211, -9.134e-5
-1.210, -8.247e-5
-1.209, -9.652e-5
-1.208, -9.027e-5
-1.207, -9.336e-5
-1.206, -1.017e-4
-1.205, -9.234e-5
-1.204, -1.061e-4
-1.203, -1.006e-4
-1.202, -1.029e-4
-1.201, -1.112e-4
-1.200, -1.017e-4
-1.199, -1.152e-4
-1.198, -1.092e-4
-1.197, -1.116e-4
-1.196, -1.196e-4
-1.195, -1.104e-4
-1.194, -1.232e-4
-1.193, -1.176e-4
-1.192, -1.195e-4
-1.191, -1.271e-4
-1.190, -1.182e-4
-1.189, -1.306e-4
-1.188, -1.247e-4
-1.187, -1.269e-4
-1.186, -1.345e-4
-1.185, -1.253e-4
-1.184, -1.376e-4
-1.183, -1.314e-4
-1.182, -1.338e-4
-1.181, -1.410e-4
-1.180, -1.316e-4
-1.179, -1.444e-4
-1.178, -1.386e-4
-1.177, -1.407e-4
-1.176, -1.474e-4
-1.175, -1.377e-4
-1.174, -1.508e-4
-1.173, -1.437e-4
-1.172, -1.463e-4
-1.171, -1.534e-4
-1.170, -1.435e-4
-1.169, -1.565e-4
-1.168, -1.494e-4
-1.167, -1.515e-4
-1.166, -1.587e-4
-1.165, -1.489e-4
-1.164, -1.615e-4
-1.163, -1.548e-4
-1.162, -1.566e-4
-1.161, -1.639e-4
-1.160, -1.539e-4
-1.159, -1.665e-4
-1.158, -1.598e-4
-1.157, -1.616e-4
-1.156, -1.685e-4
-1.155, -1.591e-4
-1.154, -1.709e-4
-1.153, -1.644e-4
-1.152, -1.665e-4
-1.151, -1.729e-4
-1.150, -1.638e-4
-1.149, -1.752e-4
-1.148, -1.685e-4
-1.147, -1.708e-4
-1.146, -1.774e-4
-1.145, -1.678e-4
-1.144, -1.795e-4
-1.143, -1.727e-4
-1.142, -1.752e-4
-1.141, -1.816e-4
-1.140, -1.715e-4
-1.139, -1.839e-4
-1.138, -1.768e-4
-1.137, -1.792e-4
-1.136, -1.852e-4
-1.135, -1.756e-4
-1.134, -1.879e-4
-1.133, -1.804e-4
-1.132, -1.827e-4
-1.131, -1.896e-4
-1.130, -1.794e-4
-1.129, -1.916e-4
-1.128, -1.844e-4
-1.127, -1.865e-4
-1.126, -1.933e-4
-1.125, -1.831e-4
-1.124, -1.954e-4
-1.123, -1.883e-4
-1.122, -1.900e-4
-1.121, -1.967e-4
-1.120, -1.867e-4
-1.119, -1.988e-4
-1.118, -1.915e-4
-1.117, -1.935e-4
-1.116, -2.002e-4
-1.115, -1.904e-4
-1.114, -2.023e-4
-1.113, -1.959e-4
-1.112, -1.972e-4
-1.111, -2.037e-4
-1.110, -1.942e-4
-1.109, -2.057e-4
-1.108, -1.988e-4
-1.107, -2.008e-4
-1.106, -2.069e-4
-1.105, -1.977e-4
-1.104, -2.092e-4
-1.103, -2.021e-4
-1.102, -2.047e-4
-1.101, -2.105e-4
-1.100, -2.010e-4
-1.099, -2.133e-4
-1.098, -2.054e-4
-1.097, -2.080e-4
-1.096, -2.142e-4
-1.095, -2.044e-4
-1.094, -2.174e-4
-1.093, -2.091e-4
-1.092, -2.119e-4
-1.091, -2.180e-4
-1.090, -2.083e-4
-1.089, -2.207e-4
-1.088, -2.131e-4
-1.087, -2.154e-4
-1.086, -2.218e-4
-1.085, -2.117e-4
-1.084, -2.243e-4
-1.083, -2.171e-4
-1.082, -2.193e-4
-1.081, -2.258e-4
-1.080, -2.159e-4
-1.079, -2.283e-4
-1.078, -2.210e-4
-1.077, -2.232e-4
-1.076, -2.302e-4
-1.075, -2.210e-4
-1.074, -2.327e-4
-1.073, -2.254e-4
-1.072, -2.279e-4
-1.071, -2.342e-4
-1.070, -2.249e-4
-1.069, -2.370e-4
-1.068, -2.297e-4
-1.067, -2.327e-4
-1.066, -2.386e-4
-1.065, -2.295e-4
-1.064, -2.414e-4
-1.063, -2.346e-4
-1.062, -2.377e-4
-1.061, -2.440e-4
-1.060, -2.346e-4
-1.059, -2.473e-4
-1.058, -2.398e-4
-1.057, -2.433e-4
-1.056, -2.492e-4
-1.055, -2.403e-4
-1.054, -2.529e-4
-1.053, -2.455e-4
-1.052, -2.489e-4
-1.051, -2.552e-4
-1.050, -2.463e-4
-1.049, -2.594e-4
-1.048, -2.520e-4
-1.047, -2.553e-4
-1.046, -2.621e-4
-1.045, -2.526e-4
-1.044, -2.659e-4
-1.043, -2.590e-4
-1.042, -2.624e-4
-1.041, -2.693e-4
-1.040, -2.603e-4
-1.039, -2.734e-4
-1.038, -2.669e-4
-1.037, -2.705e-4
-1.036, -2.773e-4
-1.035, -2.686e-4
-1.034, -2.818e-4
-1.033, -2.753e-4
-1.032, -2.787e-4
-1.031, -2.859e-4
-1.030, -2.775e-4
-1.029, -2.908e-4
-1.028, -2.841e-4
-1.027, -2.886e-4
-1.026, -2.952e-4
-1.025, -2.876e-4
-1.024, -3.015e-4
-1.023, -2.945e-4
-1.022, -2.991e-4
-1.021, -3.060e-4
-1.020, -2.980e-4
-1.019, -3.128e-4
-1.018, -3.056e-4
-1.017, -3.108e-4
-1.016, -3.172e-4
-1.015, -3.095e-4
-1.014, -3.240e-4
-1.013, -3.171e-4
-1.012, -3.226e-4
-1.011, -3.298e-4
-1.010, -3.227e-4
-1.009, -3.376e-4
-1.008, -3.303e-4
-1.007, -3.362e-4
-1.006, -3.437e-4
-1.005, -3.361e-4
-1.004, -3.510e-4
-1.003, -3.447e-4
-1.002, -3.504e-4
-1.001, -3.577e-4
