Potential V vs RHE, Current mA cm-2
0.013299999999999867,-0.6564260431373771
0.012299999999999978,-2.794054817233447
0.011299999999999866,-4.364384360083638
0.010299999999999976,-5.672992312458796
0.009299999999999864,-6.806176063650692
0.008299999999999974,-7.7653503249591855
0.007299999999999862,-8.594371146680096
0.006299999999999972,-9.335679867809377
0.00529999999999986,-9.946835149351072
0.0042999999999999705,-10.382566229709504
0.0032999999999998586,-10.775855971071984
0.0022999999999999687,-11.123874950838783
0.0012999999999998568,-11.473308641905447
0.00029999999999996696,-11.778886282676295
-0.000700000000000145,-12.12831997374296
-0.0017000000000000348,-12.390041564217992
-0.0027000000000001467,-12.651763154693022
-0.0037000000000000366,-12.869628694872238
-0.0047000000000001485,-12.955926084164007
-0.005700000000000038,-13.087494235051453
-0.00670000000000015,-13.261503724934855
-0.00770000000000004,-13.349215825526485
-0.008700000000000152,-13.567081365705702
-0.009700000000000042,-13.741090855589102
-0.010700000000000154,-13.916515056772363
-0.011700000000000044,-14.046668496359947
-0.012700000000000156,-14.090524546655764
-0.013700000000000045,-14.13438059695158
-0.014700000000000157,-14.175407224647667
-0.015700000000000047,-14.26028990263957
-0.01670000000000016,-14.401761032626075
-0.01770000000000005,-14.529085049613924
-0.01870000000000016,-14.65640906660178
-0.01970000000000005,-14.741291744593681
-0.020700000000000163,-14.741291744593681
-0.021700000000000053,-14.783733083589633
-0.022700000000000164,-14.783733083589633
-0.023700000000000054,-14.826174422585586
-0.024700000000000166,-14.925204213576137
-0.025700000000000056,-15.05252823056399
-0.026700000000000168,-15.179852247551842
-0.027700000000000058,-15.264734925543747
-0.02870000000000017,-15.307176264539699
-0.02970000000000006,-15.307176264539699
-0.03070000000000017,-15.264734925543747
-0.03170000000000006,-15.307176264539699
-0.03270000000000017,-15.349617603535648
-0.03370000000000006,-15.491088733522153
-0.034700000000000175,-15.618412750510005
-0.035700000000000065,-15.70329542850191
-0.03670000000000018,-15.74573676749786
-0.03770000000000007,-15.74573676749786
-0.03870000000000018,-15.78817810649381
-0.03970000000000007,-15.74573676749786
-0.04070000000000018,-15.78817810649381
-0.04170000000000007,-15.87306078448571
-0.04270000000000018,-15.972090575476265
-0.04370000000000007,-16.099414592464115
-0.044700000000000184,-16.099414592464115
-0.045700000000000074,-16.099414592464115
-0.046700000000000186,-16.099414592464115
-0.047700000000000076,-16.056973253468165
-0.04870000000000019,-16.099414592464115
-0.04970000000000008,-16.141855931460068
-0.05070000000000019,-16.22673860945197
-0.05170000000000008,-16.269179948447924
-0.05270000000000019,-16.311621287443874
-0.05370000000000008,-16.311621287443874
-0.05470000000000019,-16.311621287443874
-0.05570000000000008,-16.269179948447924
-0.056700000000000195,-16.269179948447924
-0.057700000000000085,-16.311621287443874
-0.058700000000000196,-16.354062626439823
-0.059700000000000086,-16.438945304431726
-0.0607000000000002,-16.53797509542228
-0.06170000000000009,-16.580416434418233
-0.0627000000000002,-16.53797509542228
-0.06370000000000009,-16.53797509542228
-0.0647000000000002,-16.495533756426326
-0.06570000000000009,-16.53797509542228
-0.0667000000000002,-16.580416434418233
-0.0677000000000001,-16.622857773414182
-0.0687000000000002,-16.70774045140608
-0.0697000000000001,-16.70774045140608
-0.07070000000000021,-16.70774045140608
-0.0717000000000001,-16.665299112410132
-0.07270000000000021,-16.622857773414182
-0.0737000000000001,-16.622857773414182
-0.07470000000000021,-16.622857773414182
-0.0757000000000001,-16.70774045140608
-0.07670000000000021,-16.750181790402035
-0.0777000000000001,-16.792623129397985
-0.07870000000000021,-16.792623129397985
-0.0797000000000001,-16.70774045140608
-0.08070000000000022,-16.665299112410132
-0.0817000000000001,-16.665299112410132
-0.08270000000000022,-16.665299112410132
-0.08370000000000011,-16.70774045140608
-0.08470000000000022,-16.750181790402035
-0.08570000000000011,-16.792623129397985
-0.08670000000000022,-16.792623129397985
-0.08770000000000011,-16.750181790402035
-0.08870000000000022,-16.70774045140608
-0.08970000000000011,-16.665299112410132
-0.09070000000000022,-16.665299112410132
-0.09170000000000011,-16.750181790402035
-0.09270000000000023,-16.792623129397985
-0.09370000000000012,-16.877505807389888
-0.09470000000000023,-16.877505807389888
-0.09570000000000012,-16.835064468393938
-0.09670000000000023,-16.792623129397985
-0.09770000000000012,-16.750181790402035
-0.09870000000000023,-16.792623129397985
-0.09970000000000012,-16.835064468393938
-0.10070000000000023,-16.877505807389888
-0.10170000000000012,-16.962388485381787
-0.10270000000000024,-17.018976937376394
-0.10370000000000013,-16.962388485381787
-0.10470000000000024,-16.962388485381787
-0.10570000000000013,-16.919947146385837
-0.10670000000000024,-16.877505807389888
-0.10770000000000013,-16.919947146385837
-0.10870000000000024,-17.018976937376394
-0.10970000000000013,-17.061418276372343
-0.11070000000000024,-17.146300954364243
-0.11170000000000013,-17.188742293360193
-0.11270000000000002,-17.146300954364243
-0.11370000000000013,-17.103859615368293
-0.11470000000000002,-17.061418276372343
-0.11570000000000014,-17.146300954364243
-0.11670000000000003,-17.188742293360193
-0.11770000000000014,-17.2736249713521
-0.11870000000000003,-17.358507649344002
-0.11970000000000014,-17.40094898833995
-0.12070000000000003,-17.40094898833995
-0.12170000000000014,-17.358507649344002
-0.12270000000000003,-17.358507649344002
-0.12370000000000014,-17.40094898833995
-0.12470000000000003,-17.4433903273359
-0.12570000000000014,-17.542420118326454
-0.12670000000000003,-17.627302796318357
-0.12770000000000015,-17.71218547431026
-0.12870000000000004,-17.71218547431026
-0.12970000000000015,-17.71218547431026
-0.13070000000000004,-17.71218547431026
-0.13170000000000015,-17.71218547431026
-0.13270000000000004,-17.75462681330621
-0.13370000000000015,-17.881950830294063
-0.13470000000000004,-17.966833508285966
-0.13570000000000015,-18.10830463827247
-0.13670000000000004,-18.15074597726842
-0.13770000000000016,-18.15074597726842
-0.13870000000000005,-18.15074597726842
-0.13970000000000016,-18.15074597726842
-0.14070000000000005,-18.19318731626437
-0.14170000000000016,-18.320511333252224
-0.14270000000000005,-18.44783535024008
-0.14370000000000016,-18.49027668923603
-0.14470000000000005,-18.589306480226583
-0.14570000000000016,-18.589306480226583
-0.14670000000000005,-18.589306480226583
-0.14770000000000016,-18.589306480226583
-0.14870000000000005,-18.674189158218486
-0.14970000000000017,-18.759071836210385
-0.15070000000000006,-18.843954514202288
-0.15170000000000017,-18.97127853119014
-0.15270000000000006,-19.056161209182044
-0.15370000000000017,-19.112749661176647
-0.15470000000000006,-19.155191000172596
-0.15570000000000017,-19.155191000172596
-0.15670000000000006,-19.197632339168546
-0.15770000000000017,-19.28251501716045
-0.15870000000000006,-19.409839034148305
-0.15970000000000018,-19.537163051136158
-0.16070000000000007,-19.678634181122664
-0.16170000000000018,-19.721075520118614
-0.16270000000000007,-19.763516859114564
-0.16370000000000018,-19.805958198110513
-0.16470000000000007,-19.848399537106463
-0.16570000000000018,-19.93328221509837
-0.16670000000000007,-20.06060623208622
-0.16770000000000018,-20.159636023076775
-0.16870000000000007,-20.329401379060574
-0.16970000000000018,-20.414284057052477
-0.17070000000000007,-20.456725396048434
-0.17170000000000019,-20.499166735044383
-0.17270000000000008,-20.541608074040333
-0.1737000000000002,-20.626490752032236
-0.17470000000000008,-20.72552054302279
-0.1757000000000002,-20.85284456001064
-0.17670000000000008,-21.022609915994444
-0.1777000000000002,-21.107492593986347
-0.17870000000000008,-21.2065223849769
-0.1797000000000002,-21.248963723972853
-0.18070000000000008,-21.291405062968803
-0.1817000000000002,-21.418729079956652
-0.18270000000000008,-21.58849443594046
-0.1837000000000002,-21.729965565926964
-0.1847000000000001,-21.899730921910766
-0.1857000000000002,-22.027054938898623
-0.1867000000000001,-22.15437895588647
-0.1877000000000002,-22.196820294882425
-0.1887000000000001,-22.253408746877028
-0.1897000000000002,-22.295850085872978
-0.1907000000000001,-22.42317410286083
-0.1917000000000001,-22.592939458844636
-0.19269999999999998,-22.776851927827092
-0.1937000000000001,-22.946617283810895
-0.19469999999999998,-23.031499961802798
-0.1957000000000001,-23.1163826397947
-0.19669999999999999,-23.15882397879065
-0.1977000000000001,-23.24370665678255
-0.1987,-23.385177786769056
-0.1997000000000001,-23.51250180375691
-0.2007,-23.639825820744765
-0.2017000000000001,-23.86617962872317
-0.2027,-23.951062306715073
-0.2037000000000001,-24.035944984706973
-0.2047,-24.078386323702922
-0.2057000000000001,-24.16326900169483
-0.2067,-24.24815167968673
-0.2077000000000001,-24.389622809673234
-0.2087,-24.601829504652986
-0.2097000000000001,-24.729153521640843
-0.2107,-24.870624651627345
-0.2117000000000001,-24.997948668615198
-0.2127,-25.04039000761115
-0.2137000000000001,-25.12527268560305
-0.2147,-25.252596702590903
-0.2157000000000001,-25.478950510569312
-0.2167,-25.691157205549064
-0.21770000000000012,-25.86092256153287
-0.2187,-26.044835030515326
-0.21970000000000012,-26.21460038649913
-0.2207,-26.34192440348698
-0.22170000000000012,-26.483395533473487
-0.2227,-26.61071955046134
-0.22370000000000012,-26.780484906445146
-0.2247,-27.00683871442355
-0.22570000000000012,-27.219045409403304
-0.2267,-27.43125210438306
-0.22770000000000012,-27.65760591236147
-0.22870000000000001,-27.78492992934932
-0.22970000000000013,-27.912253946337174
-0.23070000000000002,-28.05372507632368
-0.23170000000000013,-28.18104909331153
-0.23270000000000002,-28.350814449295335
-0.23370000000000013,-28.577168257273744
-0.23470000000000002,-28.789374952253496
-0.23570000000000013,-29.001581647233255
-0.23670000000000002,-29.14305277721976
-0.2376999999999999,-29.27037679420761
-0.23870000000000002,-29.39770081119546
-0.2396999999999999,-29.482583489187363
-0.24070000000000003,-29.708937297165768
-0.24169999999999991,-29.921143992145527
-0.24270000000000003,-30.147497800123933
-0.24369999999999992,-30.402145834099635
-0.24470000000000003,-30.571911190083444
-0.24569999999999992,-30.71338232006995
-0.24670000000000003,-30.8407063370578
-0.24769999999999992,-30.925589015049702
-0.24870000000000003,-31.137795710029454
-0.24969999999999992,-31.321708179011907
-0.25070000000000003,-31.57635621298762
-0.2516999999999999,-31.84515135996197
-0.25270000000000004,-32.09979939393769
-0.2536999999999999,-32.283711862920136
-0.25470000000000004,-32.45347721890394
-0.2556999999999999,-32.58080123589179
-0.25670000000000004,-32.807155043870196
-0.25769999999999993,-32.97692039985401
-0.25870000000000004,-33.231568433829715
-0.25969999999999993,-33.50036358080407
-0.26070000000000004,-33.755011614779775
-0.26169999999999993,-33.98136542275818
-0.26270000000000004,-34.15113077874198
-0.26369999999999993,-34.236013456733886
-0.26470000000000005,-34.41992592571634
-0.26569999999999994,-34.58969128170015
-0.26670000000000005,-34.8018979766799
-0.26769999999999994,-35.07069312365426
-0.26870000000000005,-35.282899818634014
-0.26969999999999994,-35.46681228761647
-0.27070000000000005,-35.594136304604326
-0.27169999999999994,-35.679018982596226
-0.27270000000000005,-35.763901660588125
-0.27369999999999994,-35.94781412957058
-0.27470000000000006,-36.11757948555439
-0.27569999999999995,-36.28734484153819
-0.27670000000000006,-36.47125731052064
-0.27769999999999995,-36.5985813275085
-0.27870000000000006,-36.6834640055004
-0.27969999999999995,-36.725905344496354
-0.28070000000000006,-36.768346683492304
-0.28169999999999995,-36.89567070048016
-0.28270000000000006,-36.99470049147071
-0.28369999999999995,-37.164465847454515
-0.28470000000000006,-37.291789864442364
-0.28569999999999995,-37.41911388143023
-0.28670000000000007,-37.56058501141672
-0.28769999999999996,-37.60302635041268
-0.28870000000000007,-37.60302635041268
-0.28969999999999996,-37.56058501141672
-0.29070000000000007,-37.60302635041268
-0.29169999999999996,-37.687909028404576
-0.29270000000000007,-37.77279170639648
-0.29369999999999996,-37.85767438438838
-0.2947000000000001,-37.85767438438838
-0.29569999999999996,-37.81523304539243
-0.2967000000000001,-37.73035036740053
-0.29769999999999996,-37.687909028404576
-0.2987000000000001,-37.60302635041268
-0.29969999999999997,-37.60302635041268
-0.3007000000000001,-37.645467689408626
-0.30169999999999997,-37.645467689408626
-0.3027000000000001,-37.645467689408626
-0.30369999999999997,-37.51814367242077
-0.3047000000000001,-37.376672542434264
-0.30569999999999997,-37.249348525446415
-0.3067000000000001,-37.122024508458566
-0.3077,-36.99470049147071
-0.3087000000000001,-36.99470049147071
-0.3097,-36.89567070048016
-0.3107000000000001,-36.8532293614842
-0.3117,-36.768346683492304
-0.3127000000000001,-36.5985813275085
-0.3137,-36.4288159715247
-0.3147000000000001,-36.244903502542236
-0.3157,-36.11757948555439
-0.3167000000000001,-36.03269680756248
-0.3177,-35.99025546856653
-0.3187000000000001,-35.90537279057463
-0.3197,-35.721460321592176
-0.3207000000000001,-35.55169496560837
-0.3217,-35.38192960962457
-0.3227000000000001,-35.15557580164616
-0.3237,-35.02825178465831
-0.3247000000000001,-34.94336910666641
-0.3257,-34.85848642867451
-0.3267000000000001,-34.75945663768395
-0.3277,-34.632132620696105
-0.3287000000000001,-34.462367264712285
-0.3297,-34.278454795729836
-0.3307000000000001,-34.10868943974604
-0.3317,-33.93892408376223
-0.3327000000000001,-33.81160006677438
-0.3337,-33.712570275783825
-0.3347000000000001,-33.670128936787876
-0.3357,-33.627687597791926
-0.3367000000000001,-33.50036358080407
-0.3377,-33.373039563816214
-0.3387000000000001,-33.18912709483376
-0.3397,-33.10424441684186
-0.3407000000000001,-32.97692039985401
-0.3417,-32.97692039985401
-0.3427000000000001,-32.93447906085806
-0.3437,-32.93447906085806
-0.3447000000000001,-32.892037721862096
-0.3457,-32.84959638286615
-0.3467000000000001,-32.764713704874254
-0.3477,-32.70812525287965
-0.3487000000000001,-32.66568391388369
-0.3497,-32.70812525287965
-0.3507000000000001,-32.764713704874254
-0.3517,-32.807155043870196
-0.3527000000000001,-32.84959638286615
-0.3537,-32.84959638286615
-0.3547000000000001,-32.84959638286615
-0.3557,-32.892037721862096
-0.35670000000000013,-32.892037721862096
-0.3577,-32.93447906085806
-0.35870000000000013,-33.06180307784591
-0.3597,-33.18912709483376
-0.36070000000000013,-33.288156885824314
-0.3617,-33.41548090281216
-0.3626999999999999,-33.50036358080407
-0.3637,-33.58524625879597
-0.3646999999999999,-33.670128936787876
-0.3657,-33.85404140577033
-0.3666999999999999,-34.06624810075008
-0.3677,-34.278454795729836
-0.3686999999999999,-34.5472499427042
-0.36970000000000003,-34.75945663768395
-0.3706999999999999,-34.94336910666641
-0.37170000000000003,-35.11313446265021
-0.3726999999999999,-35.282899818634014
-0.37370000000000003,-35.55169496560837
-0.3746999999999999,-35.848784338580025
-0.37570000000000003,-36.16002082455034
-0.3766999999999999,-36.55613998851254
-0.37770000000000004,-36.8532293614842
-0.3786999999999999,-37.164465847454515
-0.37970000000000004,-37.376672542434264
-0.3806999999999999,-37.645467689408626
-0.38170000000000004,-37.94255706238028
-0.38269999999999993,-38.33867622634249
-0.38370000000000004,-38.81967806829661
-0.38469999999999993,-39.258238571254765
-0.38570000000000004,-39.739240413208876
-0.38669999999999993,-38.42355890433439
-0.38570000000000004,-34.632132620696105
-0.38469999999999993,-31.661238890979522
-0.38370000000000004,-29.31281813320356
-0.38269999999999993,-27.38881076538711
-0.38170000000000004,-25.77603988354097
-0.3806999999999999,-24.389622809673234
-0.37970000000000004,-23.15882397879065
-0.3786999999999999,-22.027054938898623
-0.37770000000000004,-20.93772723800254
-0.3766999999999999,-19.93328221509837
-0.37570000000000003,-19.01371987018609
-0.3746999999999999,-18.19318731626437
-0.37370000000000003,-17.4433903273359
-0.3726999999999999,-16.792623129397985
-0.37170000000000003,-16.184297270456018
-0.3706999999999999,-15.575971411514052
-0.36970000000000003,-14.925204213576137
-0.3686999999999999,-14.26028990263957
-0.3677,-13.610937416001518
-0.3666999999999999,-13.043638184755638
-0.3657,-12.56405105410139
-0.3646999999999999,-12.084463923447142
-0.3637,-11.604876792792895
-0.3626999999999999,-11.1677310011346
-0.3617,-10.644287820184536
-0.36070000000000013,-10.164700689530287
-0.3597,-9.641257508580225
-0.35870000000000013,-9.161670377925978
-0.3577,-8.725939297567548
-0.35670000000000013,-8.332649556205066
-0.3557,-7.984630576438266
-0.3547000000000001,-7.635196885371603
-0.3537,-7.243321855308987
-0.3527000000000001,-6.806176063650692
-0.3517,-6.37044498329226
-0.3507000000000001,-5.9347139029338285
-0.3497,-5.585280211867165
-0.3487000000000001,-5.235846520800501
-0.3477,-4.9302688800296535
-0.3467000000000001,-4.668547289554621
-0.3457,-4.3205283097878215
-0.3447000000000001,-3.927238568425342
-0.3437,-3.579219588658543
-0.3427000000000001,-3.1859298472960624
-0.3417,-2.8803522065252145
-0.3407000000000001,-2.576189277054232
-0.3397,-2.3144676865791998
-0.3387000000000001,-2.095187435100119
-0.3377,-1.8334658446250875
-0.3367000000000001,-1.5293029151541047
-0.3357,-1.1798692240874404
-0.3347000000000001,-0.8745745255765657
-0.3337,-0.5692798270656908
-0.3327000000000001,-0.26384365742482935
-0.3317,-0.04582249900262853
-0.3307000000000001,0.12863969849672777
-0.3297,0.3903188476327636
-0.3287000000000001,0.6084673300719523
-0.3277,0.870188920546984
-0.3267000000000001,1.219056727093702
-0.3257,1.4812027309586933
-0.3247000000000001,1.7429243214337253
-0.3237,1.9169338113171246
-0.3227000000000001,2.048501962204573
-0.3217,2.2225114520879723
-0.3207000000000001,2.4403769922671885
-0.3197,2.658242532446404
-0.3187000000000001,2.919964122921436
-0.3177,3.1816857133964676
-0.3167000000000001,3.3995512535756833
-0.3157,3.5749754547589476
-0.3147000000000001,3.7051288943465317
-0.3137,3.8366970452339793
-0.3127000000000001,4.01070653511738
-0.3117,4.184716025000778
-0.3107000000000001,4.402581565179994
-0.3097,4.6218618166590755
-0.3087000000000001,4.839727356838291
-0.3077,5.01373684672169
-0.3067000000000001,5.101448947313322
-0.30569999999999997,5.231602386900906
-0.3047000000000001,5.319314487492538
-0.30369999999999997,5.493323977375938
-0.3027000000000001,5.7111895175551535
-0.30169999999999997,5.886613718738418
-0.3007000000000001,6.060623208621817
-0.29969999999999997,6.1907766482094
-0.2987000000000001,6.322344799096849
-0.29769999999999996,6.410056899688482
-0.2967000000000001,6.496354288980249
-0.29569999999999996,6.5840663895718805
-0.2947000000000001,6.75807587945528
-0.29369999999999996,6.933500080638546
-0.29270000000000007,7.15136562081776
-0.29169999999999996,7.281519060405343
-0.29070000000000007,7.369231160996977
-0.28969999999999996,7.413087211292793
-0.28870000000000007,7.49938460058456
-0.28769999999999996,7.587096701176192
-0.28670000000000007,7.7186648520636405
-0.28569999999999995,7.892674341947039
-0.28470000000000006,8.066683831830439
-0.28369999999999995,8.198251982717888
-0.28270000000000006,8.284549372009655
-0.28169999999999995,8.372261472601286
-0.28070000000000006,8.416117522897103
-0.27969999999999995,8.459973573192919
-0.27870000000000006,8.590127012780503
-0.27769999999999995,8.72169516366795
-0.27670000000000006,8.851848603255535
-0.27569999999999995,9.025858093138934
-0.27470000000000006,9.113570193730567
-0.27369999999999994,9.201282294322198
-0.27270000000000005,9.245138344618015
-0.27169999999999994,9.287579683613965
-0.27070000000000005,9.375291784205599
-0.26969999999999994,9.506859935093045
-0.26870000000000005,9.63701337468063
-0.26769999999999994,9.768581525568079
-0.26670000000000005,9.942591015451477
