Potential V vs RHE, Current mA cm-2
0.013299999999999867,-0.5255652478998613
0.012299999999999978,-2.794054817233447
0.011299999999999866,-4.712403339850438
0.010299999999999976,-6.326588932996443
0.009299999999999864,-7.722908985963235
0.008299999999999974,-8.987660888042578
0.007299999999999862,-9.99069119964689
0.006299999999999972,-10.949865460955383
0.00529999999999986,-11.691174182084664
0.0042999999999999705,-12.390041564217992
0.0032999999999998586,-12.955926084164007
0.0022999999999999687,-13.523225315409885
0.0012999999999998568,-14.046668496359947
0.00029999999999996696,-14.486643710617974
-0.000700000000000145,-14.967645552572087
-0.0017000000000000348,-15.3920589425316
-0.0027000000000001467,-15.78817810649381
-0.0037000000000000366,-16.184297270456018
-0.0047000000000001485,-16.495533756426326
-0.005700000000000038,-16.792623129397985
-0.00670000000000015,-16.962388485381787
-0.00770000000000004,-17.188742293360193
-0.008700000000000152,-17.358507649344002
-0.009700000000000042,-17.48583166633185
-0.010700000000000154,-17.71218547431026
-0.011700000000000044,-17.924392169290012
-0.012700000000000156,-18.10830463827247
-0.013700000000000045,-18.320511333252224
-0.014700000000000157,-18.53271802823198
-0.015700000000000047,-18.716630497214435
-0.01670000000000016,-18.843954514202288
-0.01770000000000005,-18.92883719219419
-0.01870000000000016,-19.01371987018609
-0.01970000000000005,-19.112749661176647
-0.020700000000000163,-19.155191000172596
-0.021700000000000053,-19.2400736781645
-0.022700000000000164,-19.3249563561564
-0.023700000000000054,-19.452280373144255
-0.024700000000000166,-19.579604390132108
-0.025700000000000056,-19.721075520118614
-0.026700000000000168,-19.890840876102416
-0.027700000000000058,-19.97572355409432
-0.02870000000000017,-20.06060623208622
-0.02970000000000006,-20.10304757108217
-0.03070000000000017,-20.159636023076775
-0.03170000000000006,-20.202077362072725
-0.03270000000000017,-20.202077362072725
-0.03370000000000006,-20.244518701068674
-0.034700000000000175,-20.329401379060574
-0.035700000000000065,-20.414284057052477
-0.03670000000000018,-20.541608074040333
-0.03770000000000007,-20.683079204026836
-0.03870000000000018,-20.810403221014692
-0.03970000000000007,-20.85284456001064
-0.04070000000000018,-20.93772723800254
-0.04170000000000007,-20.980168576998494
-0.04270000000000018,-20.980168576998494
-0.04370000000000007,-21.022609915994444
-0.044700000000000184,-20.980168576998494
-0.045700000000000074,-21.022609915994444
-0.046700000000000186,-21.107492593986347
-0.047700000000000076,-21.2065223849769
-0.04870000000000019,-21.291405062968803
-0.04970000000000008,-21.376287740960702
-0.05070000000000019,-21.461170418952605
-0.05170000000000008,-21.54605309694451
-0.05270000000000019,-21.54605309694451
-0.05370000000000008,-21.54605309694451
-0.05470000000000019,-21.54605309694451
-0.05570000000000008,-21.461170418952605
-0.056700000000000195,-21.54605309694451
-0.057700000000000085,-21.54605309694451
-0.058700000000000196,-21.58849443594046
-0.059700000000000086,-21.67337711393236
-0.0607000000000002,-21.772406904922917
-0.06170000000000009,-21.857289582914817
-0.0627000000000002,-21.899730921910766
-0.06370000000000009,-21.94217226090672
-0.0647000000000002,-21.94217226090672
-0.06570000000000009,-21.94217226090672
-0.0667000000000002,-21.857289582914817
-0.0677000000000001,-21.857289582914817
-0.0687000000000002,-21.857289582914817
-0.0697000000000001,-21.857289582914817
-0.07070000000000021,-21.899730921910766
-0.0717000000000001,-21.94217226090672
-0.07270000000000021,-22.027054938898623
-0.0737000000000001,-22.069496277894572
-0.07470000000000021,-22.069496277894572
-0.0757000000000001,-22.069496277894572
-0.07670000000000021,-22.027054938898623
-0.0777000000000001,-21.98461359990267
-0.07870000000000021,-21.94217226090672
-0.0797000000000001,-21.94217226090672
-0.08070000000000022,-21.94217226090672
-0.0817000000000001,-21.98461359990267
-0.08270000000000022,-22.027054938898623
-0.08370000000000011,-22.069496277894572
-0.08470000000000022,-22.111937616890522
-0.08570000000000011,-22.15437895588647
-0.08670000000000022,-22.15437895588647
-0.08770000000000011,-22.111937616890522
-0.08870000000000022,-22.069496277894572
-0.08970000000000011,-22.069496277894572
-0.09070000000000022,-22.027054938898623
-0.09170000000000011,-22.027054938898623
-0.09270000000000023,-22.027054938898623
-0.09370000000000012,-22.069496277894572
-0.09470000000000023,-22.15437895588647
-0.09570000000000012,-22.196820294882425
-0.09670000000000023,-22.295850085872978
-0.09770000000000012,-22.295850085872978
-0.09870000000000023,-22.295850085872978
-0.09970000000000012,-22.295850085872978
-0.10070000000000023,-22.196820294882425
-0.10170000000000012,-22.196820294882425
-0.10270000000000024,-22.15437895588647
-0.10370000000000013,-22.196820294882425
-0.10470000000000024,-22.196820294882425
-0.10570000000000013,-22.253408746877028
-0.10670000000000024,-22.33829142486893
-0.10770000000000013,-22.38073276386488
-0.10870000000000024,-22.42317410286083
-0.10970000000000013,-22.42317410286083
-0.11070000000000024,-22.46561544185678
-0.11170000000000013,-22.42317410286083
-0.11270000000000002,-22.42317410286083
-0.11370000000000013,-22.38073276386488
-0.11470000000000002,-22.38073276386488
-0.11570000000000014,-22.38073276386488
-0.11670000000000003,-22.42317410286083
-0.11770000000000014,-22.508056780852733
-0.11870000000000003,-22.592939458844636
-0.11970000000000014,-22.67782213683654
-0.12070000000000003,-22.72026347583249
-0.12170000000000014,-22.776851927827092
-0.12270000000000003,-22.819293266823045
-0.12370000000000014,-22.819293266823045
-0.12470000000000003,-22.776851927827092
-0.12570000000000014,-22.776851927827092
-0.12670000000000003,-22.819293266823045
-0.12770000000000015,-22.819293266823045
-0.12870000000000004,-22.904175944814945
-0.12970000000000015,-22.989058622806844
-0.13070000000000004,-23.073941300798747
-0.13170000000000015,-23.2012653177866
-0.13270000000000004,-23.300295108777156
-0.13370000000000015,-23.342736447773106
-0.13470000000000004,-23.385177786769056
-0.13570000000000015,-23.385177786769056
-0.13670000000000004,-23.385177786769056
-0.13770000000000016,-23.427619125765005
-0.13870000000000005,-23.51250180375691
-0.13970000000000016,-23.597384481748815
-0.14070000000000005,-23.724708498736668
-0.14170000000000016,-23.823738289727217
-0.14270000000000005,-23.951062306715073
-0.14370000000000016,-24.078386323702922
-0.14470000000000005,-24.16326900169483
-0.14570000000000016,-24.24815167968673
-0.14670000000000005,-24.24815167968673
-0.14770000000000016,-24.290593018682678
-0.14870000000000005,-24.34718147067728
-0.14970000000000017,-24.389622809673234
-0.15070000000000006,-24.474505487665134
-0.15170000000000017,-24.559388165657033
-0.15270000000000006,-24.686712182644893
-0.15370000000000017,-24.814036199632742
-0.15470000000000006,-24.9130659906233
-0.15570000000000017,-25.04039000761115
-0.15670000000000006,-25.12527268560305
-0.15770000000000017,-25.210155363594954
-0.15870000000000006,-25.295038041586857
-0.15970000000000018,-25.295038041586857
-0.16070000000000007,-25.337479380582806
-0.16170000000000018,-25.478950510569312
-0.16270000000000007,-25.521391849565262
-0.16370000000000018,-25.691157205549064
-0.16470000000000007,-25.86092256153287
-0.16570000000000018,-25.959952352523427
-0.16670000000000007,-26.087276369511276
-0.16770000000000018,-26.21460038649913
-0.16870000000000007,-26.29948306449103
-0.16970000000000018,-26.34192440348698
-0.17070000000000007,-26.38436574248293
-0.17170000000000019,-26.525836872469437
-0.17270000000000008,-26.525836872469437
-0.1737000000000002,-26.69560222845324
-0.17470000000000008,-26.780484906445146
-0.1757000000000002,-26.9643973754276
-0.17670000000000008,-27.134162731411404
-0.1777000000000002,-27.303928087395207
-0.17870000000000008,-27.43125210438306
-0.1797000000000002,-27.572723234369565
-0.18070000000000008,-27.700047251357418
-0.1817000000000002,-27.742488590353368
-0.18270000000000008,-27.869812607341224
-0.1837000000000002,-27.954695285333123
-0.1847000000000001,-28.05372507632368
-0.1857000000000002,-28.18104909331153
-0.1867000000000001,-28.308373110299385
-0.1877000000000002,-28.53472691827779
-0.1887000000000001,-28.704492274261593
-0.1897000000000002,-28.91669896924135
-0.1907000000000001,-29.100611438223805
-0.1917000000000001,-29.18549411621571
-0.19269999999999998,-29.31281813320356
-0.1937000000000001,-29.35525947219951
-0.19469999999999998,-29.39770081119546
-0.1957000000000001,-29.482583489187363
-0.19669999999999999,-29.62405461917387
-0.1977000000000001,-29.793819975157668
-0.1987,-29.96358533114148
-0.1997000000000001,-30.189939139119886
-0.2007,-30.359704495103685
-0.2017000000000001,-30.571911190083444
-0.2027,-30.79826499806185
-0.2037000000000001,-30.968030354045652
-0.2047,-31.052913032037555
-0.2057000000000001,-31.19438416202406
-0.2067,-31.321708179011907
-0.2077000000000001,-31.40659085700382
-0.2087,-31.57635621298762
-0.2097000000000001,-31.717827342974125
-0.2107,-31.930034037953877
-0.2117000000000001,-32.14224073293363
-0.2127,-32.32615320191609
-0.2137000000000001,-32.58080123589179
-0.2147,-32.764713704874254
-0.2157000000000001,-32.97692039985401
-0.2167,-33.14668575583781
-0.21770000000000012,-33.231568433829715
-0.2187,-33.373039563816214
-0.21970000000000012,-33.54280491980002
-0.2207,-33.755011614779775
-0.22170000000000012,-33.93892408376223
-0.2227,-34.193572117737936
-0.22370000000000012,-34.41992592571634
-0.2247,-34.67457395969205
-0.22570000000000012,-34.94336910666641
-0.2267,-35.15557580164616
-0.22770000000000012,-35.38192960962457
-0.22870000000000001,-35.50925362661242
-0.22970000000000013,-35.679018982596226
-0.23070000000000002,-35.848784338580025
-0.23170000000000013,-36.03269680756248
-0.23270000000000002,-36.244903502542236
-0.23370000000000013,-36.47125731052064
-0.23470000000000002,-36.768346683492304
-0.23570000000000013,-37.037141830466666
-0.23670000000000002,-37.291789864442364
-0.2376999999999999,-37.56058501141672
-0.23870000000000002,-37.77279170639648
-0.2396999999999999,-37.99914551437489
-0.24070000000000003,-38.211352209354644
-0.24169999999999991,-38.38111756533845
-0.24270000000000003,-38.5650300343209
-0.24369999999999992,-38.81967806829661
-0.24470000000000003,-38.98944342428042
-0.24569999999999992,-39.30067991025072
-0.24670000000000003,-39.61191639622103
-0.24769999999999992,-39.86656443019674
-0.24870000000000003,-40.220242255162994
-0.24969999999999992,-40.4748902891387
-0.25070000000000003,-40.701244097117105
-0.2516999999999999,-40.91345079209687
-0.25270000000000004,-41.139804600075266
-0.2536999999999999,-41.30956995605907
-0.25470000000000004,-41.56421799003478
-0.2556999999999999,-41.79057179801318
-0.25670000000000004,-42.04521983198889
-0.25769999999999993,-42.3564563179592
-0.25870000000000004,-42.6111043519349
-0.25969999999999993,-42.92234083790521
-0.26070000000000004,-43.23357732387552
-0.26169999999999993,-43.48822535785123
-0.26270000000000004,-43.70043205283099
-0.26369999999999993,-43.96922719980534
-0.26470000000000005,-44.181433894785094
-0.26569999999999994,-44.45022904175945
-0.26670000000000005,-44.704877075735155
-0.26769999999999994,-44.97367222270952
-0.26870000000000005,-45.27076159568118
-0.26969999999999994,-45.53955674265553
-0.27070000000000005,-45.85079322862584
-0.27169999999999994,-46.147882601597495
-0.27270000000000005,-46.37423640957591
-0.27369999999999994,-46.628884443551605
-0.27470000000000006,-46.79864979953541
-0.27569999999999995,-47.02500360751382
-0.27670000000000006,-47.19476896349763
-0.27769999999999995,-47.36453431948143
-0.27870000000000006,-47.590888127459834
-0.27969999999999995,-47.80309482243959
-0.28070000000000006,-48.029448630417996
-0.28169999999999995,-48.2840966643937
-0.28270000000000006,-48.51045047237211
-0.28369999999999995,-48.76509850634781
-0.28470000000000006,-48.93486386233162
-0.28569999999999995,-49.16121767031002
-0.28670000000000007,-49.28854168729788
-0.28769999999999996,-49.373424365289786
-0.28870000000000007,-49.557336834272235
-0.28969999999999996,-49.642219512264134
-0.29070000000000007,-49.76954352925199
-0.29169999999999996,-49.939308885235796
-0.29270000000000007,-50.12322135421825
-0.29369999999999996,-50.29298671020206
-0.2947000000000001,-50.37786938819396
-0.29569999999999996,-50.46275206618586
-0.2967000000000001,-50.547634744177756
-0.29769999999999996,-50.64666453516831
-0.2987000000000001,-50.64666453516831
-0.29969999999999997,-50.68910587416426
-0.3007000000000001,-50.68910587416426
-0.30169999999999997,-50.73154721316022
-0.3027000000000001,-50.77398855215617
-0.30369999999999997,-50.85887123014807
-0.3047000000000001,-50.98619524713592
-0.30569999999999997,-51.028636586131874
-0.3067000000000001,-51.17010771611838
-0.3077,-51.21254905511432
-0.3087000000000001,-51.21254905511432
-0.3097,-51.127666377122424
-0.3107000000000001,-51.028636586131874
-0.3117,-50.90131256914402
-0.3127000000000001,-50.81642989115212
-0.3137,-50.77398855215617
-0.3147000000000001,-50.68910587416426
-0.3157,-50.68910587416426
-0.3167000000000001,-50.60422319617236
-0.3177,-50.547634744177756
-0.3187000000000001,-50.50519340518181
-0.3197,-50.335428049198
-0.3207000000000001,-50.20810403221015
-0.3217,-50.0807800152223
-0.3227000000000001,-49.85442620724389
-0.3237,-49.642219512264134
-0.3247000000000001,-49.41586570428573
-0.3257,-49.24610034830193
-0.3267000000000001,-49.118776331314066
-0.3277,-48.93486386233162
-0.3287000000000001,-48.84998118433972
-0.3297,-48.72265716735186
-0.3307000000000001,-48.59533315036401
-0.3317,-48.45386202037751
-0.3327000000000001,-48.1992139864018
-0.3337,-47.987007291422046
-0.3347000000000001,-47.80309482243959
-0.3357,-47.54844678846388
-0.3367000000000001,-47.32209298048547
-0.3377,-47.15232762450167
-0.3387000000000001,-46.982562268517874
-0.3397,-46.84109113853137
-0.3407000000000001,-46.713767121543505
-0.3417,-46.628884443551605
-0.3427000000000001,-46.501560426563756
-0.3437,-46.3176479575813
-0.3447000000000001,-46.147882601597495
-0.3457,-45.93567590661774
-0.3467000000000001,-45.70932209863933
-0.3477,-45.53955674265553
-0.3487000000000001,-45.36979138667173
-0.3497,-45.22832025668522
-0.3507000000000001,-45.143437578693316
-0.3517,-45.05855490070142
-0.3527000000000001,-44.97367222270952
-0.3537,-44.93123088371356
-0.3547000000000001,-44.84634820572166
-0.3557,-44.80390686672572
-0.35670000000000013,-44.619994397743255
-0.3577,-44.535111719751356
-0.35870000000000013,-44.4077877027635
-0.3597,-44.28046368577565
-0.36070000000000013,-44.223875233781044
-0.3617,-44.223875233781044
-0.3626999999999999,-44.223875233781044
-0.3637,-44.28046368577565
-0.3646999999999999,-44.3229050247716
-0.3657,-44.36534636376755
-0.3666999999999999,-44.4077877027635
-0.3677,-44.4077877027635
-0.3686999999999999,-44.4077877027635
-0.36970000000000003,-44.45022904175945
-0.3706999999999999,-44.4926703807554
-0.37170000000000003,-44.535111719751356
-0.3726999999999999,-44.577553058747306
-0.37370000000000003,-44.704877075735155
-0.3746999999999999,-44.88878954471762
-0.37570000000000003,-45.01611356170547
-0.3766999999999999,-45.22832025668522
-0.37770000000000004,-45.412232725667685
-0.3786999999999999,-45.581998081651484
-0.37970000000000004,-45.70932209863933
-0.3806999999999999,-45.89323456762179
-0.38170000000000004,-46.062999923605595
-0.38269999999999993,-46.27520661858535
-0.38370000000000004,-46.501560426563756
-0.38469999999999993,-46.75620846053947
-0.38570000000000004,-47.10988628550572
-0.38669999999999993,-45.624439420647434
-0.38570000000000004,-41.39445263405098
-0.38469999999999993,-37.99914551437489
-0.38370000000000004,-35.02825178465831
-0.38269999999999993,-32.45347721890394
-0.38170000000000004,-30.189939139119886
-0.3806999999999999,-28.13860775431558
-0.37970000000000004,-26.257041725495082
-0.3786999999999999,-24.601829504652986
-0.37770000000000004,-23.031499961802798
-0.3766999999999999,-21.63093577493641
-0.37570000000000003,-20.371842718056527
-0.3746999999999999,-19.197632339168546
-0.37370000000000003,-18.10830463827247
-0.3726999999999999,-17.103859615368293
-0.37170000000000003,-16.056973253468165
-0.3706999999999999,-15.05252823056399
-0.36970000000000003,-14.090524546655764
-0.3686999999999999,-13.13135028534727
-0.3677,-12.302329463626359
-0.3666999999999999,-11.473308641905447
-0.3657,-10.688143870480351
-0.3646999999999999,-10.034547249942705
-0.3637,-9.379535918105192
-0.3626999999999999,-8.769795347863363
-0.3617,-8.158640066321666
-0.36070000000000013,-7.591340835075788
-0.3597,-7.024041603829907
-0.35870000000000013,-6.414301033588076
-0.3577,-5.80314575204638
-0.35670000000000013,-5.235846520800501
-0.3557,-4.668547289554621
-0.3547000000000001,-4.1889601589003735
-0.3537,-3.6655169779503103
-0.3527000000000001,-3.273641947887695
-0.3517,-2.8379108675292635
-0.3507000000000001,-2.4007650758709675
-0.3497,-2.095187435100119
-0.3487000000000001,-1.6594563547416883
-0.3477,-1.2234423321232837
-0.3467000000000001,-0.7872868383748929
-0.3457,-0.3511313446265021
-0.3447000000000001,0.04140859974704963
-0.3437,0.4776065348344364
-0.3427000000000001,0.8264743413811545
-0.3417,1.1317690398920295
-0.3407000000000001,1.4373466806628774
-0.3397,1.6990682711379093
-0.3387000000000001,1.9607898616129409
-0.3377,2.2663675023837886
-0.3367000000000001,2.5705304318547717
-0.3357,2.919964122921436
-0.3347000000000001,3.225541763692284
-0.3337,3.5749754547589476
-0.3327000000000001,3.922994434525747
-0.3317,4.184716025000778
-0.3307000000000001,4.44643761547581
-0.3297,4.708159205950842
-0.3287000000000001,4.883583407134107
-0.3277,5.101448947313322
-0.3267000000000001,5.275458437196722
-0.3257,5.493323977375938
-0.3247000000000001,5.7111895175551535
-0.3237,5.9729111080301855
-0.3227000000000001,6.278488748801033
-0.3217,6.540210339276065
-0.3207000000000001,6.801931929751096
-0.3197,6.975941419634496
-0.3187000000000001,7.237663010109527
-0.3177,7.32537511070116
-0.3167000000000001,7.49938460058456
-0.3157,7.674808801767824
-0.3147000000000001,7.804962241355407
-0.3137,7.980386442538672
-0.3127000000000001,8.154395932422071
-0.3117,8.416117522897103
-0.3107000000000001,8.63398306307632
-0.3097,8.80799255295972
-0.3087000000000001,9.025858093138934
-0.3077,9.201282294322198
-0.3067000000000001,9.331435733909782
-0.30569999999999997,9.463003884797232
-0.3047000000000001,9.549301274088998
-0.30369999999999997,9.680869424976446
-0.3027000000000001,9.811022864564029
-0.30169999999999997,9.942591015451477
-0.3007000000000001,10.116600505334876
-0.29969999999999997,10.334466045514093
-0.2987000000000001,10.509890246697358
-0.29769999999999996,10.727755786876573
-0.2967000000000001,10.857909226464155
-0.29569999999999996,10.989477377351605
-0.2947000000000001,11.119630816939189
-0.29369999999999996,11.20734291753082
-0.29270000000000007,11.295055018122452
-0.29169999999999996,11.33891106841827
-0.29070000000000007,11.469064508005852
-0.28969999999999996,11.6006326588933
-0.28870000000000007,11.774642148776701
-0.28769999999999996,11.9486516386601
-0.28670000000000007,12.122661128543498
-0.28569999999999995,12.298085329726765
-0.28470000000000006,12.384382719018532
-0.28369999999999995,12.559806920201796
-0.28270000000000006,12.603662970497613
-0.28169999999999995,12.646104309493563
-0.28070000000000006,12.733816410085195
-0.27969999999999995,12.77767246038101
-0.27870000000000006,12.95168195026441
-0.27769999999999995,13.039394050856043
-0.27670000000000006,13.213403540739444
-0.27569999999999995,13.388827741922707
-0.27470000000000006,13.518981181510291
-0.27369999999999994,13.65054933239774
-0.27270000000000005,13.780702771985322
-0.27169999999999994,13.824558822281137
-0.27070000000000005,13.91227092287277
-0.26969999999999994,13.954712261868721
-0.26870000000000005,14.042424362460354
-0.26769999999999994,14.08628041275617
-0.26670000000000005,14.217848563643619
-0.26569999999999994,14.387613919627421
