Potential V vs RHE, Current mA cm-2
0.013299999999999867,0.3031726315610774
0.012299999999999978,-0.9181476336124089
0.011299999999999866,-1.9650339955125358
0.010299999999999976,-2.8803522065252145
0.009299999999999864,-3.5353635383627267
0.008299999999999974,-3.971094618721158
0.007299999999999862,-4.276672259492005
0.006299999999999972,-4.712403339850438
0.00529999999999986,-5.235846520800501
0.0042999999999999705,-5.80314575204638
0.0032999999999998586,-6.282732882700628
0.0022999999999999687,-6.54445447317566
0.0012999999999998568,-6.6760226240631075
0.00029999999999996696,-6.806176063650692
-0.000700000000000145,-7.067897654125724
-0.0017000000000000348,-7.50504344578402
-0.0027000000000001467,-7.896918475846635
-0.0037000000000000366,-8.202496116617484
-0.0047000000000001485,-8.246352166913299
-0.005700000000000038,-8.246352166913299
-0.00670000000000015,-8.288793505909249
-0.00770000000000004,-8.508073757388331
-0.008700000000000152,-8.812236686859313
-0.009700000000000042,-9.073958277334345
-0.010700000000000154,-9.205526428221793
-0.011700000000000044,-9.205526428221793
-0.012700000000000156,-9.205526428221793
-0.013700000000000045,-9.293238528813426
-0.014700000000000157,-9.511104068992642
-0.015700000000000047,-9.772825659467674
-0.01670000000000016,-9.946835149351072
-0.01770000000000005,-9.946835149351072
-0.01870000000000016,-9.81668170976349
-0.01970000000000005,-9.728969609171857
-0.020700000000000163,-9.81668170976349
-0.021700000000000053,-10.034547249942705
-0.022700000000000164,-10.296268840417738
-0.023700000000000054,-10.42642228000532
-0.024700000000000166,-10.382566229709504
-0.025700000000000056,-10.25241279012192
-0.026700000000000168,-10.164700689530287
-0.027700000000000058,-10.296268840417738
-0.02870000000000017,-10.557990430892769
-0.02970000000000006,-10.775855971071984
-0.03070000000000017,-10.819712021367803
-0.03170000000000006,-10.731999920776168
-0.03270000000000017,-10.601846481188586
-0.03370000000000006,-10.601846481188586
-0.034700000000000175,-10.775855971071984
-0.035700000000000065,-11.037577561547016
-0.03670000000000018,-11.211587051430415
-0.03770000000000007,-11.1677310011346
-0.03870000000000018,-11.037577561547016
-0.03970000000000007,-10.906009410659568
-0.04070000000000018,-10.906009410659568
-0.04170000000000007,-11.081433611842833
-0.04270000000000018,-11.255443101726232
-0.04370000000000007,-11.343155202317865
-0.044700000000000184,-11.211587051430415
-0.045700000000000074,-11.037577561547016
-0.046700000000000186,-10.949865460955383
-0.047700000000000076,-10.993721511251199
-0.04870000000000019,-11.1677310011346
-0.04970000000000008,-11.299299152022046
-0.05070000000000019,-11.299299152022046
-0.05170000000000008,-11.1677310011346
-0.05270000000000019,-10.993721511251199
-0.05370000000000008,-10.949865460955383
-0.05470000000000019,-11.081433611842833
-0.05570000000000008,-11.255443101726232
-0.056700000000000195,-11.385596541313816
-0.057700000000000085,-11.343155202317865
-0.058700000000000196,-11.211587051430415
-0.059700000000000086,-11.081433611842833
-0.0607000000000002,-11.081433611842833
-0.06170000000000009,-11.255443101726232
-0.0627000000000002,-11.473308641905447
-0.06370000000000009,-11.56102074249708
-0.0647000000000002,-11.517164692201263
-0.06570000000000009,-11.343155202317865
-0.0667000000000002,-11.255443101726232
-0.0677000000000001,-11.343155202317865
-0.0687000000000002,-11.56102074249708
-0.0697000000000001,-11.691174182084664
-0.07070000000000021,-11.691174182084664
-0.0717000000000001,-11.56102074249708
-0.07270000000000021,-11.385596541313816
-0.0737000000000001,-11.299299152022046
-0.07470000000000021,-11.42945259160963
-0.0757000000000001,-11.604876792792895
-0.07670000000000021,-11.73503023238048
-0.0777000000000001,-11.647318131788847
-0.07870000000000021,-11.517164692201263
-0.0797000000000001,-11.385596541313816
-0.08070000000000022,-11.385596541313816
-0.0817000000000001,-11.56102074249708
-0.08270000000000022,-11.73503023238048
-0.08370000000000011,-11.778886282676295
-0.08470000000000022,-11.691174182084664
-0.08570000000000011,-11.517164692201263
-0.08670000000000022,-11.473308641905447
-0.08770000000000011,-11.56102074249708
-0.08870000000000022,-11.73503023238048
-0.08970000000000011,-11.909039722263879
-0.09070000000000022,-11.909039722263879
-0.09170000000000011,-11.82274233297211
-0.09270000000000023,-11.647318131788847
-0.09370000000000012,-11.604876792792895
-0.09470000000000023,-11.778886282676295
-0.09570000000000012,-11.952895772559694
-0.09670000000000023,-12.084463923447142
-0.09770000000000012,-11.996751822855511
-0.09870000000000023,-11.82274233297211
-0.09970000000000012,-11.647318131788847
-0.10070000000000023,-11.647318131788847
-0.10170000000000012,-11.778886282676295
-0.10270000000000024,-11.952895772559694
-0.10370000000000013,-11.952895772559694
-0.10470000000000024,-11.82274233297211
-0.10570000000000013,-11.604876792792895
-0.10670000000000024,-11.517164692201263
-0.10770000000000013,-11.56102074249708
-0.10870000000000024,-11.73503023238048
-0.10970000000000013,-11.909039722263879
-0.11070000000000024,-11.909039722263879
-0.11170000000000013,-11.778886282676295
-0.11270000000000002,-11.647318131788847
-0.11370000000000013,-11.604876792792895
-0.11470000000000002,-11.73503023238048
-0.11570000000000014,-11.86659838326793
-0.11670000000000003,-11.952895772559694
-0.11770000000000014,-11.86659838326793
-0.11870000000000003,-11.73503023238048
-0.11970000000000014,-11.647318131788847
-0.12070000000000003,-11.691174182084664
-0.12170000000000014,-11.86659838326793
-0.12270000000000003,-12.084463923447142
-0.12370000000000014,-12.170761312738911
-0.12470000000000003,-12.084463923447142
-0.12570000000000014,-11.909039722263879
-0.12670000000000003,-11.778886282676295
-0.12770000000000015,-11.82274233297211
-0.12870000000000004,-11.952895772559694
-0.12970000000000015,-12.084463923447142
-0.13070000000000004,-12.12831997374296
-0.13170000000000015,-11.996751822855511
-0.13270000000000004,-11.82274233297211
-0.13370000000000015,-11.778886282676295
-0.13470000000000004,-11.952895772559694
-0.13570000000000015,-12.12831997374296
-0.13670000000000004,-12.258473413330542
-0.13770000000000016,-12.214617363034726
-0.13870000000000005,-12.040607873151327
-0.13970000000000016,-11.909039722263879
-0.14070000000000005,-11.952895772559694
-0.14170000000000016,-12.170761312738911
-0.14270000000000005,-12.346185513922174
-0.14370000000000016,-12.432482903213943
-0.14470000000000005,-12.302329463626359
-0.14570000000000016,-12.12831997374296
-0.14670000000000005,-12.084463923447142
-0.14770000000000016,-12.12831997374296
-0.14870000000000005,-12.302329463626359
-0.14970000000000017,-12.476338953509758
-0.15070000000000006,-12.520195003805576
-0.15170000000000017,-12.390041564217992
-0.15270000000000006,-12.258473413330542
-0.15370000000000017,-12.170761312738911
-0.15470000000000006,-12.302329463626359
-0.15570000000000017,-12.476338953509758
-0.15670000000000006,-12.520195003805576
-0.15770000000000017,-12.476338953509758
-0.15870000000000006,-12.302329463626359
-0.15970000000000018,-12.170761312738911
-0.16070000000000007,-12.214617363034726
-0.16170000000000018,-12.390041564217992
-0.16270000000000007,-12.607907104397206
-0.16370000000000018,-12.694204493688973
-0.16470000000000007,-12.651763154693022
-0.16570000000000018,-12.476338953509758
-0.16670000000000007,-12.390041564217992
-0.16770000000000018,-12.476338953509758
-0.16870000000000007,-12.651763154693022
-0.16970000000000018,-12.825772644576423
-0.17070000000000007,-12.869628694872238
-0.17170000000000019,-12.694204493688973
-0.17270000000000008,-12.520195003805576
-0.1737000000000002,-12.432482903213943
-0.17470000000000008,-12.56405105410139
-0.1757000000000002,-12.73806054398479
-0.17670000000000008,-12.869628694872238
-0.1777000000000002,-12.869628694872238
-0.17870000000000008,-12.825772644576423
-0.1797000000000002,-12.825772644576423
-0.18070000000000008,-12.955926084164007
-0.1817000000000002,-13.175206335643086
-0.18270000000000008,-13.349215825526485
-0.1837000000000002,-13.349215825526485
-0.1847000000000001,-13.13135028534727
-0.1857000000000002,-12.869628694872238
-0.1867000000000001,-12.694204493688973
-0.1877000000000002,-12.781916594280606
-0.1887000000000001,-12.99978213445982
-0.1897000000000002,-13.175206335643086
-0.1907000000000001,-13.13135028534727
-0.1917000000000001,-12.913484745168056
-0.19269999999999998,-12.73806054398479
-0.1937000000000001,-12.651763154693022
-0.19469999999999998,-12.781916594280606
-0.1957000000000001,-12.99978213445982
-0.19669999999999999,-13.175206335643086
-0.1977000000000001,-13.175206335643086
-0.1987,-13.13135028534727
-0.1997000000000001,-13.13135028534727
-0.2007,-13.217647674639037
-0.2017000000000001,-13.47936926511407
-0.2027,-13.741090855589102
-0.2037000000000001,-13.828802956180734
-0.2047,-13.698649516593148
-0.2057000000000001,-13.523225315409885
-0.2067,-13.3930718758223
-0.2077000000000001,-13.3930718758223
-0.2087,-13.523225315409885
-0.2097000000000001,-13.610937416001518
-0.2107,-13.567081365705702
-0.2117000000000001,-13.3930718758223
-0.2127,-13.261503724934855
-0.2137000000000001,-13.217647674639037
-0.2147,-13.349215825526485
-0.2157000000000001,-13.567081365705702
-0.2167,-13.698649516593148
-0.21770000000000012,-13.741090855589102
-0.2187,-13.610937416001518
-0.21970000000000012,-13.567081365705702
-0.2207,-13.610937416001518
-0.22170000000000012,-13.784946905884919
-0.2227,-14.002812446064135
-0.22370000000000012,-14.090524546655764
-0.2247,-14.046668496359947
-0.22570000000000012,-13.916515056772363
-0.2267,-13.828802956180734
-0.22770000000000012,-13.916515056772363
-0.22870000000000001,-14.090524546655764
-0.22970000000000013,-14.175407224647667
-0.23070000000000002,-14.175407224647667
-0.23170000000000013,-14.046668496359947
-0.23270000000000002,-13.872659006476551
-0.23370000000000013,-13.872659006476551
-0.23470000000000002,-14.002812446064135
-0.23570000000000013,-14.217848563643619
-0.23670000000000002,-14.30273124163552
-0.2376999999999999,-14.217848563643619
-0.23870000000000002,-13.916515056772363
-0.2396999999999999,-13.741090855589102
-0.24070000000000003,-13.741090855589102
-0.24169999999999991,-14.046668496359947
-0.24270000000000003,-14.529085049613924
-0.24369999999999992,-14.868615761581536
-0.24470000000000003,-14.925204213576137
-0.24569999999999992,-14.925204213576137
-0.24670000000000003,-14.868615761581536
-0.24769999999999992,-14.925204213576137
-0.24870000000000003,-15.05252823056399
-0.24969999999999992,-15.179852247551842
-0.25070000000000003,-15.179852247551842
-0.2516999999999999,-15.01008689156804
-0.25270000000000004,-14.826174422585586
-0.2536999999999999,-14.741291744593681
-0.25470000000000004,-14.868615761581536
-0.2556999999999999,-15.01008689156804
-0.25670000000000004,-15.094969569559943
-0.25769999999999993,-15.01008689156804
-0.25870000000000004,-14.783733083589633
-0.25969999999999993,-14.61396772760583
-0.26070000000000004,-14.529085049613924
-0.26169999999999993,-14.57152638860988
-0.26270000000000004,-14.61396772760583
-0.26369999999999993,-14.61396772760583
-0.26470000000000005,-14.529085049613924
-0.26569999999999994,-14.345172580631472
-0.26670000000000005,-14.345172580631472
-0.26769999999999994,-14.486643710617974
-0.26870000000000005,-14.69885040559773
-0.26969999999999994,-14.925204213576137
-0.27070000000000005,-15.05252823056399
-0.27169999999999994,-15.01008689156804
-0.27270000000000005,-14.967645552572087
-0.27369999999999994,-15.05252823056399
-0.27470000000000006,-15.264734925543747
-0.27569999999999995,-15.533530072518102
-0.27670000000000006,-15.70329542850191
-0.27769999999999995,-15.618412750510005
-0.27870000000000006,-15.491088733522153
-0.27969999999999995,-15.307176264539699
-0.28070000000000006,-15.264734925543747
-0.28169999999999995,-15.349617603535648
-0.28270000000000006,-15.448647394526201
-0.28369999999999995,-15.491088733522153
-0.28470000000000006,-15.307176264539699
-0.28569999999999995,-15.094969569559943
-0.28670000000000007,-15.01008689156804
-0.28769999999999996,-15.05252823056399
-0.28870000000000007,-15.264734925543747
-0.28969999999999996,-15.491088733522153
-0.29070000000000007,-15.575971411514052
-0.29169999999999996,-15.575971411514052
-0.29270000000000007,-15.491088733522153
-0.29369999999999996,-15.618412750510005
-0.2947000000000001,-15.87306078448571
-0.29569999999999996,-16.184297270456018
-0.2967000000000001,-16.396503965435777
-0.29769999999999996,-16.396503965435777
-0.2987000000000001,-16.269179948447924
-0.29969999999999997,-16.141855931460068
-0.3007000000000001,-16.184297270456018
-0.30169999999999997,-16.311621287443874
-0.3027000000000001,-16.495533756426326
-0.30369999999999997,-16.53797509542228
-0.3047000000000001,-16.354062626439823
-0.30569999999999997,-16.184297270456018
-0.3067000000000001,-16.141855931460068
-0.3077,-16.22673860945197
-0.3087000000000001,-16.396503965435777
-0.3097,-16.580416434418233
-0.3107000000000001,-16.665299112410132
-0.3117,-16.580416434418233
-0.3127000000000001,-16.438945304431726
-0.3137,-16.495533756426326
-0.3147000000000001,-16.70774045140608
-0.3157,-16.962388485381787
-0.3167000000000001,-17.146300954364243
-0.3177,-17.188742293360193
-0.3187000000000001,-17.103859615368293
-0.3197,-17.061418276372343
-0.3207000000000001,-17.146300954364243
-0.3217,-17.358507649344002
-0.3227000000000001,-17.627302796318357
-0.3237,-17.75462681330621
-0.3247000000000001,-17.71218547431026
-0.3257,-17.669744135314307
-0.3267000000000001,-17.669744135314307
-0.3277,-17.839509491298113
-0.3287000000000001,-18.15074597726842
-0.3297,-18.40539401124413
-0.3307000000000001,-18.49027668923603
-0.3317,-18.44783535024008
-0.3327000000000001,-18.362952672248177
-0.3337,-18.44783535024008
-0.3347000000000001,-18.674189158218486
-0.3357,-18.97127853119014
-0.3367000000000001,-19.2400736781645
-0.3377,-19.28251501716045
-0.3387000000000001,-19.2400736781645
-0.3397,-19.2400736781645
-0.3407000000000001,-19.367397695152352
-0.3417,-19.678634181122664
-0.3427000000000001,-20.01816489309027
-0.3437,-20.244518701068674
-0.3447000000000001,-20.329401379060574
-0.3457,-20.286960040064624
-0.3467000000000001,-20.329401379060574
-0.3477,-20.541608074040333
-0.3487000000000001,-20.89528589900659
-0.3497,-21.2065223849769
-0.3507000000000001,-21.376287740960702
-0.3517,-21.418729079956652
-0.3527000000000001,-21.461170418952605
-0.3537,-21.54605309694451
-0.3547000000000001,-21.899730921910766
-0.3557,-22.295850085872978
-0.35670000000000013,-22.63538079784059
-0.3577,-22.819293266823045
-0.35870000000000013,-22.819293266823045
-0.3597,-22.861734605818995
-0.36070000000000013,-23.031499961802798
-0.3617,-23.342736447773106
-0.3626999999999999,-23.724708498736668
-0.3637,-24.120827662698876
-0.3646999999999999,-24.34718147067728
-0.3657,-24.432064148669184
-0.3666999999999999,-24.64427084364894
-0.3677,-25.04039000761115
-0.3686999999999999,-25.60627452755716
-0.36970000000000003,-26.129717708507226
-0.3706999999999999,-26.483395533473487
-0.37170000000000003,-26.65316088945729
-0.3726999999999999,-26.780484906445146
-0.37370000000000003,-27.091721392415455
-0.3746999999999999,-27.615164573365515
-0.37570000000000003,-28.22349043230748
-0.3766999999999999,-28.746933613257543
-0.37770000000000004,-29.058170099227848
-0.3786999999999999,-29.22793545521166
-0.37970000000000004,-29.482583489187363
-0.3806999999999999,-29.921143992145527
-0.38170000000000004,-30.487028512091538
-0.38269999999999993,-31.095354371033505
-0.38370000000000004,-31.618797551983565
-0.38469999999999993,-32.01491671594578
-0.38570000000000004,-32.41103587990799
-0.38669999999999993,-32.807155043870196
-0.38770000000000004,-33.373039563816214
-0.38869999999999993,-34.06624810075008
-0.38970000000000005,-34.717015298688004
-0.39069999999999994,-35.240458479638065
-0.39170000000000005,-35.636577643600276
-0.39269999999999994,-35.99025546856653
-0.39370000000000005,-36.5136986495166
-0.39469999999999994,-37.206907186450465
-0.39570000000000005,-37.99914551437489
-0.39669999999999994,-38.734795390304704
-0.39770000000000005,-39.30067991025072
-0.39869999999999994,-39.78168175220483
-0.39970000000000006,-40.26268359415894
-0.40069999999999995,-40.95589213109281
-0.40170000000000006,-41.83301313700913
-0.40269999999999995,-42.752575481921404
-0.40370000000000006,-43.57310803584313
-0.40469999999999995,-44.223875233781044
-0.40570000000000006,-44.88878954471762
-0.40669999999999995,-45.666880759643384
-0.40770000000000006,-46.586443104555656
-0.40869999999999995,-47.76065348344364
-0.40970000000000006,-48.89242252333566
-0.41069999999999995,-49.939308885235796
-0.41170000000000007,-50.81642989115212
-0.41269999999999996,-51.69355089706845
-0.41370000000000007,-52.69799591997262
-0.41469999999999996,-53.7873236208687
-0.41570000000000007,-55.003975338752625
-0.41669999999999996,-56.093303039648696
-0.41770000000000007,-57.05530672355693
-0.41869999999999996,-57.8333979384827
-0.4197000000000001,-58.66807760540307
-0.42069999999999996,-59.6300812893113
-0.4217000000000001,-60.71940899020737
-0.42269999999999996,-61.936060708091304
-0.4237000000000001,-63.06782974798333
-0.42469999999999997,-64.0722747708875
-0.4257000000000001,-65.03427845479574
-0.42669999999999997,-66.12360615569182
-0.4277000000000001,-67.39684632557035
-0.42869999999999997,-68.78326339943808
-0.4297000000000001,-70.22626892530042
-0.43069999999999997,-71.52780332117625
-0.4317000000000001,-72.75860215205884
-0.4327,-73.97525386994278
-0.4337000000000001,-75.29093537881725
-0.4347,-76.67735245268499
-0.4357000000000001,-78.12035797854733
-0.4367,-79.52092216541372
-0.4377000000000001,-80.73757388329766
-0.4387,-81.82690158419373
-0.4397000000000001,-82.95867062408576
-0.4407,-84.18946945496833
-0.4417000000000001,-85.44856251184822
-0.4427,-86.80668535971866
-0.4437000000000001,-87.98089573860662
-0.4447,-89.07022343950271
-0.4457000000000001,-90.07466846240689
-0.4467,-91.16399616330297
-0.4477000000000001,-92.3806478811869
-0.4487,-93.65388805106544
-0.4497000000000001,-95.04030512493317
-0.4507,-96.3984279728036
-0.4517000000000001,-97.6575210296835
-0.4527,-98.88831986056607
-0.4537000000000001,-100.14741291744595
-0.4547,-101.54797710431234
-0.4557000000000001,-103.07586530816658
-0.4567,-104.5471650600262
-0.4577000000000001,-105.86284656890071
-0.4587,-107.07949828678463
-0.4597000000000001,-108.1688259876807
-0.4607,-109.35718347956733
-0.4617000000000001,-110.70115921443913
-0.4627,-112.14416474030146
-0.4637000000000001,-113.40325779718134
-0.4647,-114.57746817606933
-0.4657000000000001,-115.68094298996405
-0.4667,-116.89759470784797
-0.4677000000000001,-118.24157044271978
-0.4687,-119.68457596858211
-0.4697000000000001,-121.12758149444444
-0.4707,-122.52814568131083
-0.4717000000000001,-123.74479739919475
-0.4727,-124.9614491170787
-0.4737000000000001,-126.19224794796128
-0.4747,-126.88545648489513
-0.4757000000000001,-128.28602067176152
-0.4767,-129.8563502146117
-0.4777000000000001,-131.24276728847948
-0.4787,-132.55844879735392
-0.4797000000000001,-133.64777649825
-0.4807,-134.9068695551299
-0.48170000000000013,-136.26499240300032
-0.4827,-138.96709098574257
-0.48370000000000013,-139.70274086167237
-0.4847,-140.53742052859275
-0.48570000000000013,-142.17848563643616
-0.4867,-141.75407224647665
-0.48570000000000013,-140.05641868663866
-0.4847,-138.6982958387682
-0.48370000000000013,-137.31187876490046
-0.4827,-135.2181060411002
-0.48170000000000013,-133.46386402926754
-0.4807,-131.76621046942952
-0.4797000000000001,-130.19588092657932
-0.4787,-128.89434653070347
-0.4777000000000001,-127.84746016880335
-0.4767,-127.012780501883
-0.4757000000000001,-126.14980660896532
-0.4747,-125.31512694204494
-0.4737000000000001,-125.83857012299501
-0.4727,-124.87656643908679
-0.4717000000000001,-124.39556459713268
-0.4707,-124.26824058014482
-0.4697000000000001,-123.87212141618261
-0.4687,-123.1364715402528
-0.4677000000000001,-122.25935053433648
