Dec. 29, 2024   12:34:20
Cyclic Voltammetry
File: c:/users/guazh/data/banditlqround7_x0exp136_r20/2024-12-24-exp777\exp777-2024-12-29t12_22_47-arkoh\exp777_cv_sr_600mvs_efin_-1500mv.bin
Data Source:  Experiment
Instrument Model:  CHI760E
Header: CV ran at 600 mVs
Note: 

Init E (V) = -1
High E (V) = -1
Low E (V) = -1.5
Final E (V) = -1
Init P/N = N
Scan Rate (V/s) = 0.6
Segment = 3
Sample Interval (V) = 0.001
Quiet Time (sec) = 2
Sensitivity (A/V) = 0.01
Comp R (ohm) = 1.4

Results:

Channel 1:
Segment 1:

Segment 2:

Segment 3:

Potential/V, Current/A

-1.000, -1.218e-5
-1.001, 8.032e-5
-1.002, 1.605e-4
-1.003, 2.252e-4
-1.004, 2.807e-4
-1.005, 3.239e-4
-1.006, 3.640e-4
-1.007, 3.979e-4
-1.008, 4.287e-4
-1.009, 4.657e-4
-1.010, 5.027e-4
-1.011, 5.366e-4
-1.012, 5.736e-4
-1.013, 6.044e-4
-1.014, 6.291e-4
-1.015, 6.476e-4
-1.016, 6.661e-4
-1.017, 6.784e-4
-1.018, 6.939e-4
-1.019, 7.154e-4
-1.020, 7.432e-4
-1.021, 7.679e-4
-1.022, 7.956e-4
-1.023, 8.172e-4
-1.024, 8.326e-4
-1.025, 8.449e-4
-1.026, 8.511e-4
-1.027, 8.573e-4
-1.028, 8.634e-4
-1.029, 8.758e-4
-1.030, 8.943e-4
-1.031, 9.097e-4
-1.032, 9.313e-4
-1.033, 9.467e-4
-1.034, 9.528e-4
-1.035, 9.590e-4
-1.036, 9.590e-4
-1.037, 9.590e-4
-1.038, 9.621e-4
-1.039, 9.683e-4
-1.040, 9.837e-4
-1.041, 9.991e-4
-1.042, 1.014e-3
-1.043, 1.027e-3
-1.044, 1.033e-3
-1.045, 1.033e-3
-1.046, 1.030e-3
-1.047, 1.024e-3
-1.048, 1.021e-3
-1.049, 1.027e-3
-1.050, 1.033e-3
-1.051, 1.045e-3
-1.052, 1.058e-3
-1.053, 1.064e-3
-1.054, 1.067e-3
-1.055, 1.061e-3
-1.056, 1.058e-3
-1.057, 1.048e-3
-1.058, 1.045e-3
-1.059, 1.048e-3
-1.060, 1.055e-3
-1.061, 1.064e-3
-1.062, 1.076e-3
-1.063, 1.088e-3
-1.064, 1.092e-3
-1.065, 1.092e-3
-1.066, 1.088e-3
-1.067, 1.085e-3
-1.068, 1.082e-3
-1.069, 1.085e-3
-1.070, 1.092e-3
-1.071, 1.101e-3
-1.072, 1.113e-3
-1.073, 1.122e-3
-1.074, 1.122e-3
-1.075, 1.122e-3
-1.076, 1.116e-3
-1.077, 1.107e-3
-1.078, 1.104e-3
-1.079, 1.104e-3
-1.080, 1.110e-3
-1.081, 1.119e-3
-1.082, 1.129e-3
-1.083, 1.135e-3
-1.084, 1.135e-3
-1.085, 1.129e-3
-1.086, 1.122e-3
-1.087, 1.113e-3
-1.088, 1.110e-3
-1.089, 1.116e-3
-1.090, 1.122e-3
-1.091, 1.132e-3
-1.092, 1.144e-3
-1.093, 1.150e-3
-1.094, 1.150e-3
-1.095, 1.147e-3
-1.096, 1.144e-3
-1.097, 1.135e-3
-1.098, 1.132e-3
-1.099, 1.135e-3
-1.100, 1.144e-3
-1.101, 1.150e-3
-1.102, 1.162e-3
-1.103, 1.169e-3
-1.104, 1.172e-3
-1.105, 1.169e-3
-1.106, 1.169e-3
-1.107, 1.159e-3
-1.108, 1.156e-3
-1.109, 1.159e-3
-1.110, 1.166e-3
-1.111, 1.172e-3
-1.112, 1.181e-3
-1.113, 1.184e-3
-1.114, 1.184e-3
-1.115, 1.178e-3
-1.116, 1.175e-3
-1.117, 1.166e-3
-1.118, 1.162e-3
-1.119, 1.162e-3
-1.120, 1.166e-3
-1.121, 1.172e-3
-1.122, 1.181e-3
-1.123, 1.184e-3
-1.124, 1.181e-3
-1.125, 1.178e-3
-1.126, 1.172e-3
-1.127, 1.159e-3
-1.128, 1.156e-3
-1.129, 1.156e-3
-1.130, 1.159e-3
-1.131, 1.166e-3
-1.132, 1.175e-3
-1.133, 1.178e-3
-1.134, 1.181e-3
-1.135, 1.175e-3
-1.136, 1.169e-3
-1.137, 1.159e-3
-1.138, 1.156e-3
-1.139, 1.159e-3
-1.140, 1.166e-3
-1.141, 1.175e-3
-1.142, 1.187e-3
-1.143, 1.193e-3
-1.144, 1.196e-3
-1.145, 1.193e-3
-1.146, 1.187e-3
-1.147, 1.181e-3
-1.148, 1.181e-3
-1.149, 1.184e-3
-1.150, 1.196e-3
-1.151, 1.206e-3
-1.152, 1.221e-3
-1.153, 1.230e-3
-1.154, 1.233e-3
-1.155, 1.233e-3
-1.156, 1.227e-3
-1.157, 1.218e-3
-1.158, 1.218e-3
-1.159, 1.215e-3
-1.160, 1.221e-3
-1.161, 1.227e-3
-1.162, 1.233e-3
-1.163, 1.236e-3
-1.164, 1.230e-3
-1.165, 1.221e-3
-1.166, 1.212e-3
-1.167, 1.199e-3
-1.168, 1.193e-3
-1.169, 1.190e-3
-1.170, 1.196e-3
-1.171, 1.199e-3
-1.172, 1.209e-3
-1.173, 1.212e-3
-1.174, 1.212e-3
-1.175, 1.212e-3
-1.176, 1.209e-3
-1.177, 1.203e-3
-1.178, 1.206e-3
-1.179, 1.212e-3
-1.180, 1.224e-3
-1.181, 1.236e-3
-1.182, 1.252e-3
-1.183, 1.261e-3
-1.184, 1.264e-3
-1.185, 1.267e-3
-1.186, 1.264e-3
-1.187, 1.258e-3
-1.188, 1.258e-3
-1.189, 1.261e-3
-1.190, 1.267e-3
-1.191, 1.273e-3
-1.192, 1.283e-3
-1.193, 1.289e-3
-1.194, 1.286e-3
-1.195, 1.280e-3
-1.196, 1.270e-3
-1.197, 1.261e-3
-1.198, 1.255e-3
-1.199, 1.255e-3
-1.200, 1.261e-3
-1.201, 1.264e-3
-1.202, 1.273e-3
-1.203, 1.280e-3
-1.204, 1.277e-3
-1.205, 1.273e-3
-1.206, 1.267e-3
-1.207, 1.258e-3
-1.208, 1.258e-3
-1.209, 1.261e-3
-1.210, 1.267e-3
-1.211, 1.280e-3
-1.212, 1.295e-3
-1.213, 1.301e-3
-1.214, 1.304e-3
-1.215, 1.304e-3
-1.216, 1.298e-3
-1.217, 1.295e-3
-1.218, 1.295e-3
-1.219, 1.301e-3
-1.220, 1.310e-3
-1.221, 1.320e-3
-1.222, 1.332e-3
-1.223, 1.338e-3
-1.224, 1.341e-3
-1.225, 1.335e-3
-1.226, 1.329e-3
-1.227, 1.317e-3
-1.228, 1.314e-3
-1.229, 1.314e-3
-1.230, 1.317e-3
-1.231, 1.320e-3
-1.232, 1.329e-3
-1.233, 1.332e-3
-1.234, 1.332e-3
-1.235, 1.329e-3
-1.236, 1.326e-3
-1.237, 1.317e-3
-1.238, 1.317e-3
-1.239, 1.320e-3
-1.240, 1.329e-3
-1.241, 1.341e-3
-1.242, 1.357e-3
-1.243, 1.369e-3
-1.244, 1.375e-3
-1.245, 1.375e-3
-1.246, 1.372e-3
-1.247, 1.369e-3
-1.248, 1.369e-3
-1.249, 1.375e-3
-1.250, 1.384e-3
-1.251, 1.397e-3
-1.252, 1.409e-3
-1.253, 1.418e-3
-1.254, 1.421e-3
-1.255, 1.418e-3
-1.256, 1.415e-3
-1.257, 1.406e-3
-1.258, 1.400e-3
-1.259, 1.400e-3
-1.260, 1.403e-3
-1.261, 1.409e-3
-1.262, 1.421e-3
-1.263, 1.425e-3
-1.264, 1.425e-3
-1.265, 1.421e-3
-1.266, 1.415e-3
-1.267, 1.406e-3
-1.268, 1.400e-3
-1.269, 1.397e-3
-1.270, 1.403e-3
-1.271, 1.412e-3
-1.272, 1.421e-3
-1.273, 1.431e-3
-1.274, 1.431e-3
-1.275, 1.428e-3
-1.276, 1.428e-3
-1.277, 1.421e-3
-1.278, 1.421e-3
-1.279, 1.428e-3
-1.280, 1.437e-3
-1.281, 1.449e-3
-1.282, 1.462e-3
-1.283, 1.471e-3
-1.284, 1.474e-3
-1.285, 1.474e-3
-1.286, 1.471e-3
-1.287, 1.465e-3
-1.288, 1.462e-3
-1.289, 1.465e-3
-1.290, 1.471e-3
-1.291, 1.480e-3
-1.292, 1.492e-3
-1.293, 1.499e-3
-1.294, 1.499e-3
-1.295, 1.495e-3
-1.296, 1.489e-3
-1.297, 1.480e-3
-1.298, 1.474e-3
-1.299, 1.474e-3
-1.300, 1.480e-3
-1.301, 1.486e-3
-1.302, 1.495e-3
-1.303, 1.505e-3
-1.304, 1.502e-3
-1.305, 1.499e-3
-1.306, 1.492e-3
-1.307, 1.483e-3
-1.308, 1.480e-3
-1.309, 1.483e-3
-1.310, 1.495e-3
-1.311, 1.514e-3
-1.312, 1.536e-3
-1.313, 1.548e-3
-1.314, 1.554e-3
-1.315, 1.554e-3
-1.316, 1.548e-3
-1.317, 1.536e-3
-1.318, 1.529e-3
-1.319, 1.529e-3
-1.320, 1.532e-3
-1.321, 1.542e-3
-1.322, 1.551e-3
-1.323, 1.557e-3
-1.324, 1.560e-3
-1.325, 1.557e-3
-1.326, 1.551e-3
-1.327, 1.548e-3
-1.328, 1.548e-3
-1.329, 1.557e-3
-1.330, 1.569e-3
-1.331, 1.585e-3
-1.332, 1.603e-3
-1.333, 1.619e-3
-1.334, 1.628e-3
-1.335, 1.628e-3
-1.336, 1.628e-3
-1.337, 1.622e-3
-1.338, 1.622e-3
-1.339, 1.625e-3
-1.340, 1.634e-3
-1.341, 1.643e-3
-1.342, 1.656e-3
-1.343, 1.668e-3
-1.344, 1.671e-3
-1.345, 1.674e-3
-1.346, 1.674e-3
-1.347, 1.674e-3
-1.348, 1.677e-3
-1.349, 1.680e-3
-1.350, 1.687e-3
-1.351, 1.696e-3
-1.352, 1.705e-3
-1.353, 1.714e-3
-1.354, 1.721e-3
-1.355, 1.724e-3
-1.356, 1.724e-3
-1.357, 1.727e-3
-1.358, 1.736e-3
-1.359, 1.751e-3
-1.360, 1.773e-3
-1.361, 1.798e-3
-1.362, 1.822e-3
-1.363, 1.841e-3
-1.364, 1.850e-3
-1.365, 1.850e-3
-1.366, 1.841e-3
-1.367, 1.832e-3
-1.368, 1.828e-3
-1.369, 1.832e-3
-1.370, 1.838e-3
-1.371, 1.850e-3
-1.372, 1.869e-3
-1.373, 1.884e-3
-1.374, 1.896e-3
-1.375, 1.906e-3
-1.376, 1.912e-3
-1.377, 1.918e-3
-1.378, 1.924e-3
-1.379, 1.939e-3
-1.380, 1.958e-3
-1.381, 1.980e-3
-1.382, 2.004e-3
-1.383, 2.023e-3
-1.384, 2.035e-3
-1.385, 2.044e-3
-1.386, 2.050e-3
-1.387, 2.057e-3
-1.388, 2.069e-3
-1.389, 2.087e-3
-1.390, 2.112e-3
-1.391, 2.143e-3
-1.392, 2.174e-3
-1.393, 2.205e-3
-1.394, 2.232e-3
-1.395, 2.257e-3
-1.396, 2.279e-3
-1.397, 2.294e-3
-1.398, 2.319e-3
-1.399, 2.346e-3
-1.400, 2.377e-3
-1.401, 2.408e-3
-1.402, 2.442e-3
-1.403, 2.467e-3
-1.404, 2.494e-3
-1.405, 2.516e-3
-1.406, 2.534e-3
-1.407, 2.553e-3
-1.408, 2.575e-3
-1.409, 2.602e-3
-1.410, 2.636e-3
-1.411, 2.673e-3
-1.412, 2.716e-3
-1.413, 2.750e-3
-1.414, 2.787e-3
-1.415, 2.818e-3
-1.416, 2.846e-3
-1.417, 2.880e-3
-1.418, 2.917e-3
-1.419, 2.963e-3
-1.420, 3.012e-3
-1.421, 3.065e-3
-1.422, 3.123e-3
-1.423, 3.176e-3
-1.424, 3.222e-3
-1.425, 3.265e-3
-1.426, 3.305e-3
-1.427, 3.348e-3
-1.428, 3.395e-3
-1.429, 3.447e-3
-1.430, 3.503e-3
-1.431, 3.561e-3
-1.432, 3.620e-3
-1.433, 3.675e-3
-1.434, 3.728e-3
-1.435, 3.774e-3
-1.436, 3.820e-3
-1.437, 3.866e-3
-1.438, 3.919e-3
-1.439, 3.977e-3
-1.440, 4.045e-3
-1.441, 4.113e-3
-1.442, 4.184e-3
-1.443, 4.249e-3
-1.444, 4.307e-3
-1.445, 4.366e-3
-1.446, 4.424e-3
-1.447, 4.483e-3
-1.448, 4.545e-3
-1.449, 4.609e-3
-1.450, 4.674e-3
-1.451, 4.745e-3
-1.452, 4.825e-3
-1.453, 4.908e-3
-1.454, 4.995e-3
-1.455, 5.084e-3
-1.456, 5.174e-3
-1.457, 5.263e-3
-1.458, 5.356e-3
-1.459, 5.454e-3
-1.460, 5.556e-3
-1.461, 5.658e-3
-1.462, 5.766e-3
-1.463, 5.867e-3
-1.464, 5.960e-3
-1.465, 6.049e-3
-1.466, 6.132e-3
-1.467, 6.206e-3
-1.468, 6.284e-3
-1.469, 6.364e-3
-1.470, 6.450e-3
-1.471, 6.539e-3
-1.472, 6.632e-3
-1.473, 6.718e-3
-1.474, 6.801e-3
-1.475, 6.879e-3
-1.476, 6.953e-3
-1.477, 7.023e-3
-1.478, 7.104e-3
-1.479, 7.190e-3
-1.480, 7.289e-3
-1.481, 7.397e-3
-1.482, 7.514e-3
-1.483, 7.628e-3
-1.484, 7.736e-3
-1.485, 7.837e-3
-1.486, 7.939e-3
-1.487, 8.041e-3
-1.488, 8.143e-3
-1.489, 8.251e-3
-1.490, 8.362e-3
-1.491, 8.479e-3
-1.492, 8.593e-3
-1.493, 8.704e-3
-1.494, 8.806e-3
-1.495, 8.895e-3
-1.496, 8.978e-3
-1.497, 9.061e-3
-1.498, 9.142e-3
-1.499, 9.228e-3
-1.500, 9.246e-3
-1.499, 9.160e-3
-1.498, 9.089e-3
-1.497, 9.018e-3
-1.496, 8.944e-3
-1.495, 8.870e-3
-1.494, 8.793e-3
-1.493, 8.716e-3
-1.492, 8.645e-3
-1.491, 8.580e-3
-1.490, 8.519e-3
-1.489, 8.463e-3
-1.488, 8.417e-3
-1.487, 8.365e-3
-1.486, 8.312e-3
-1.485, 8.257e-3
-1.484, 8.198e-3
-1.483, 8.130e-3
-1.482, 8.066e-3
-1.481, 8.007e-3
-1.480, 7.948e-3
-1.479, 7.896e-3
-1.478, 7.847e-3
-1.477, 7.794e-3
-1.476, 7.739e-3
-1.475, 7.677e-3
-1.474, 7.606e-3
-1.473, 7.529e-3
-1.472, 7.458e-3
-1.471, 7.384e-3
-1.470, 7.319e-3
-1.469, 7.264e-3
-1.468, 7.205e-3
-1.467, 7.147e-3
-1.466, 7.082e-3
-1.465, 7.014e-3
-1.464, 6.940e-3
-1.463, 6.860e-3
-1.462, 6.789e-3
-1.461, 6.721e-3
-1.460, 6.660e-3
-1.459, 6.601e-3
-1.458, 6.546e-3
-1.457, 6.490e-3
-1.456, 6.428e-3
-1.455, 6.361e-3
-1.454, 6.290e-3
-1.453, 6.219e-3
-1.452, 6.148e-3
-1.451, 6.083e-3
-1.450, 6.021e-3
-1.449, 5.966e-3
-1.448, 5.914e-3
-1.447, 5.858e-3
-1.446, 5.796e-3
-1.445, 5.735e-3
-1.444, 5.667e-3
-1.443, 5.599e-3
-1.442, 5.531e-3
-1.441, 5.470e-3
-1.440, 5.408e-3
-1.439, 5.352e-3
-1.438, 5.300e-3
-1.437, 5.245e-3
-1.436, 5.183e-3
-1.435, 5.124e-3
-1.434, 5.044e-3
-1.433, 4.976e-3
-1.432, 4.912e-3
-1.431, 4.850e-3
-1.430, 4.794e-3
-1.429, 4.739e-3
-1.428, 4.690e-3
-1.427, 4.634e-3
-1.426, 4.575e-3
-1.425, 4.514e-3
-1.424, 4.449e-3
-1.423, 4.378e-3
-1.422, 4.313e-3
-1.421, 4.258e-3
-1.420, 4.202e-3
-1.419, 4.156e-3
-1.418, 4.113e-3
-1.417, 4.061e-3
-1.416, 4.008e-3
-1.415, 3.950e-3
-1.414, 3.891e-3
-1.413, 3.826e-3
-1.412, 3.771e-3
-1.411, 3.718e-3
-1.410, 3.672e-3
-1.409, 3.632e-3
-1.408, 3.592e-3
-1.407, 3.546e-3
-1.406, 3.496e-3
-1.405, 3.441e-3
-1.404, 3.382e-3
-1.403, 3.321e-3
-1.402, 3.262e-3
-1.401, 3.207e-3
-1.400, 3.154e-3
-1.399, 3.111e-3
-1.398, 3.071e-3
-1.397, 3.034e-3
-1.396, 2.988e-3
-1.395, 2.938e-3
-1.394, 2.880e-3
-1.393, 2.818e-3
-1.392, 2.763e-3
-1.391, 2.710e-3
-1.390, 2.658e-3
-1.389, 2.612e-3
-1.388, 2.568e-3
-1.387, 2.522e-3
-1.386, 2.476e-3
-1.385, 2.427e-3
-1.384, 2.377e-3
-1.383, 2.328e-3
-1.382, 2.279e-3
-1.381, 2.238e-3
-1.380, 2.201e-3
-1.379, 2.168e-3
-1.378, 2.140e-3
-1.377, 2.106e-3
-1.376, 2.075e-3
-1.375, 2.038e-3
-1.374, 1.998e-3
-1.373, 1.955e-3
-1.372, 1.915e-3
-1.371, 1.878e-3
-1.370, 1.844e-3
-1.369, 1.810e-3
-1.368, 1.779e-3
-1.367, 1.745e-3
-1.366, 1.705e-3
-1.365, 1.665e-3
-1.364, 1.616e-3
-1.363, 1.569e-3
-1.362, 1.523e-3
-1.361, 1.480e-3
-1.360, 1.446e-3
-1.359, 1.412e-3
-1.358, 1.384e-3
-1.357, 1.351e-3
-1.356, 1.317e-3
-1.355, 1.277e-3
-1.354, 1.236e-3
-1.353, 1.193e-3
-1.352, 1.156e-3
-1.351, 1.122e-3
-1.350, 1.095e-3
-1.349, 1.070e-3
-1.348, 1.045e-3
-1.347, 1.021e-3
-1.346, 9.929e-4
-1.345, 9.590e-4
-1.344, 9.220e-4
-1.343, 8.850e-4
-1.342, 8.511e-4
-1.341, 8.203e-4
-1.340, 7.956e-4
-1.339, 7.740e-4
-1.338, 7.524e-4
-1.337, 7.309e-4
-1.336, 7.031e-4
-1.335, 6.754e-4
-1.334, 6.414e-4
-1.333, 6.075e-4
-1.332, 5.767e-4
-1.331, 5.489e-4
-1.330, 5.274e-4
-1.329, 5.089e-4
-1.328, 4.935e-4
-1.327, 4.719e-4
-1.326, 4.503e-4
-1.325, 4.195e-4
-1.324, 3.917e-4
-1.323, 3.578e-4
-1.322, 3.331e-4
-1.321, 3.085e-4
-1.320, 2.900e-4
-1.319, 2.746e-4
-1.318, 2.591e-4
-1.317, 2.437e-4
-1.316, 2.221e-4
-1.315, 1.975e-4
-1.314, 1.728e-4
-1.313, 1.420e-4
-1.312, 1.204e-4
-1.311, 9.882e-5
-1.310, 8.340e-5
-1.309, 7.415e-5
-1.308, 6.182e-5
-1.307, 4.949e-5
-1.306, 3.099e-5
-1.305, 9.405e-6
-1.304, -1.526e-5
-1.303, -3.992e-5
-1.302, -6.151e-5
-1.301, -8.000e-5
-1.300, -9.234e-5
-1.299, -1.016e-4
-1.298, -1.108e-4
-1.297, -1.232e-4
-1.296, -1.386e-4
-1.295, -1.571e-4
-1.294, -1.787e-4
-1.293, -2.033e-4
-1.292, -2.249e-4
-1.291, -2.403e-4
-1.290, -2.496e-4
-1.289, -2.588e-4
-1.288, -2.619e-4
-1.287, -2.712e-4
-1.286, -2.835e-4
-1.285, -2.989e-4
-1.284, -3.205e-4
-1.283, -3.421e-4
-1.282, -3.575e-4
-1.281, -3.698e-4
-1.280, -3.760e-4
-1.279, -3.821e-4
-1.278, -3.821e-4
-1.277, -3.883e-4
-1.276, -3.976e-4
-1.275, -4.130e-4
-1.274, -4.284e-4
-1.273, -4.531e-4
-1.272, -4.654e-4
-1.271, -4.777e-4
-1.270, -4.808e-4
-1.269, -4.808e-4
-1.268, -4.808e-4
-1.267, -4.839e-4
-1.266, -4.931e-4
-1.265, -5.055e-4
-1.264, -5.209e-4
-1.263, -5.394e-4
-1.262, -5.517e-4
-1.261, -5.610e-4
-1.260, -5.671e-4
-1.259, -5.702e-4
-1.258, -5.702e-4
-1.257, -5.764e-4
-1.256, -5.826e-4
-1.255, -5.980e-4
-1.254, -6.134e-4
-1.253, -6.350e-4
-1.252, -6.473e-4
-1.251, -6.565e-4
-1.250, -6.627e-4
-1.249, -6.627e-4
-1.248, -6.627e-4
-1.247, -6.658e-4
-1.246, -6.720e-4
-1.245, -6.843e-4
-1.244, -6.997e-4
-1.243, -7.151e-4
-1.242, -7.244e-4
-1.241, -7.305e-4
-1.240, -7.336e-4
-1.239, -7.336e-4
-1.238, -7.275e-4
-1.237, -7.275e-4
-1.236, -7.305e-4
-1.235, -7.398e-4
-1.234, -7.490e-4
-1.233, -7.645e-4
-1.232, -7.737e-4
-1.231, -7.799e-4
-1.230, -7.830e-4
-1.229, -7.799e-4
-1.228, -7.768e-4
-1.227, -7.799e-4
-1.226, -7.830e-4
-1.225, -7.922e-4
-1.224, -8.045e-4
-1.223, -8.200e-4
-1.222, -8.323e-4
-1.221, -8.385e-4
-1.220, -8.385e-4
-1.219, -8.385e-4
-1.218, -8.354e-4
-1.217, -8.354e-4
-1.216, -8.385e-4
-1.215, -8.477e-4
-1.214, -8.631e-4
-1.213, -8.754e-4
-1.212, -8.847e-4
-1.211, -8.909e-4
-1.210, -8.909e-4
-1.209, -8.847e-4
-1.208, -8.785e-4
-1.207, -8.754e-4
-1.206, -8.754e-4
-1.205, -8.816e-4
-1.204, -8.909e-4
-1.203, -9.001e-4
-1.202, -9.063e-4
-1.201, -9.094e-4
-1.200, -9.063e-4
-1.199, -9.001e-4
-1.198, -8.909e-4
-1.197, -8.878e-4
-1.196, -8.909e-4
-1.195, -8.939e-4
-1.194, -9.063e-4
-1.193, -9.217e-4
-1.192, -9.279e-4
-1.191, -9.371e-4
-1.190, -9.371e-4
-1.189, -9.340e-4
-1.188, -9.309e-4
-1.187, -9.309e-4
-1.186, -9.371e-4
-1.185, -9.433e-4
-1.184, -9.587e-4
-1.183, -9.741e-4
-1.182, -9.834e-4
-1.181, -9.895e-4
-1.180, -9.926e-4
-1.179, -9.895e-4
-1.178, -9.864e-4
-1.177, -9.864e-4
-1.176, -9.895e-4
-1.175, -9.988e-4
-1.174, -1.008e-3
-1.173, -1.020e-3
-1.172, -1.027e-3
-1.171, -1.030e-3
-1.170, -1.027e-3
-1.169, -1.020e-3
-1.168, -1.008e-3
-1.167, -1.005e-3
-1.166, -1.005e-3
-1.165, -1.008e-3
-1.164, -1.017e-3
-1.163, -1.027e-3
-1.162, -1.033e-3
-1.161, -1.039e-3
-1.160, -1.036e-3
-1.159, -1.033e-3
-1.158, -1.023e-3
-1.157, -1.020e-3
-1.156, -1.027e-3
-1.155, -1.033e-3
-1.154, -1.045e-3
-1.153, -1.057e-3
-1.152, -1.067e-3
-1.151, -1.073e-3
-1.150, -1.073e-3
-1.149, -1.070e-3
-1.148, -1.064e-3
-1.147, -1.060e-3
-1.146, -1.060e-3
-1.145, -1.067e-3
-1.144, -1.076e-3
-1.143, -1.088e-3
-1.142, -1.097e-3
-1.141, -1.097e-3
-1.140, -1.097e-3
-1.139, -1.091e-3
-1.138, -1.085e-3
-1.137, -1.082e-3
-1.136, -1.079e-3
-1.135, -1.085e-3
-1.134, -1.091e-3
-1.133, -1.104e-3
-1.132, -1.113e-3
-1.131, -1.116e-3
-1.130, -1.116e-3
-1.129, -1.110e-3
-1.128, -1.104e-3
-1.127, -1.101e-3
-1.126, -1.104e-3
-1.125, -1.107e-3
-1.124, -1.116e-3
-1.123, -1.128e-3
-1.122, -1.134e-3
-1.121, -1.138e-3
-1.120, -1.138e-3
-1.119, -1.131e-3
-1.118, -1.125e-3
-1.117, -1.122e-3
-1.116, -1.119e-3
-1.115, -1.122e-3
-1.114, -1.128e-3
-1.113, -1.138e-3
-1.112, -1.138e-3
-1.111, -1.141e-3
-1.110, -1.134e-3
-1.109, -1.122e-3
-1.108, -1.113e-3
-1.107, -1.107e-3
-1.106, -1.104e-3
-1.105, -1.107e-3
-1.104, -1.119e-3
-1.103, -1.131e-3
-1.102, -1.141e-3
-1.101, -1.147e-3
-1.100, -1.150e-3
-1.099, -1.144e-3
-1.098, -1.138e-3
-1.097, -1.138e-3
-1.096, -1.138e-3
-1.095, -1.141e-3
-1.094, -1.150e-3
-1.093, -1.159e-3
-1.092, -1.168e-3
-1.091, -1.171e-3
-1.090, -1.171e-3
-1.089, -1.168e-3
-1.088, -1.162e-3
-1.087, -1.162e-3
-1.086, -1.165e-3
-1.085, -1.168e-3
-1.084, -1.181e-3
-1.083, -1.193e-3
-1.082, -1.202e-3
-1.081, -1.208e-3
-1.080, -1.212e-3
-1.079, -1.212e-3
-1.078, -1.208e-3
-1.077, -1.212e-3
-1.076, -1.215e-3
-1.075, -1.227e-3
-1.074, -1.239e-3
-1.073, -1.255e-3
-1.072, -1.264e-3
-1.071, -1.270e-3
-1.070, -1.270e-3
-1.069, -1.261e-3
-1.068, -1.255e-3
-1.067, -1.249e-3
-1.066, -1.245e-3
-1.065, -1.245e-3
-1.064, -1.249e-3
-1.063, -1.258e-3
-1.062, -1.261e-3
-1.061, -1.255e-3
-1.060, -1.249e-3
-1.059, -1.236e-3
-1.058, -1.224e-3
-1.057, -1.218e-3
-1.056, -1.215e-3
-1.055, -1.218e-3
-1.054, -1.224e-3
-1.053, -1.233e-3
-1.052, -1.236e-3
-1.051, -1.239e-3
-1.050, -1.239e-3
-1.049, -1.233e-3
-1.048, -1.230e-3
-1.047, -1.230e-3
-1.046, -1.233e-3
-1.045, -1.242e-3
-1.044, -1.255e-3
-1.043, -1.267e-3
-1.042, -1.276e-3
-1.041, -1.286e-3
-1.040, -1.286e-3
-1.039, -1.286e-3
-1.038, -1.282e-3
-1.037, -1.282e-3
-1.036, -1.286e-3
-1.035, -1.292e-3
-1.034, -1.301e-3
-1.033, -1.313e-3
-1.032, -1.319e-3
-1.031, -1.322e-3
-1.030, -1.322e-3
-1.029, -1.316e-3
-1.028, -1.307e-3
-1.027, -1.304e-3
-1.026, -1.304e-3
-1.025, -1.310e-3
-1.024, -1.319e-3
-1.023, -1.332e-3
-1.022, -1.338e-3
-1.021, -1.341e-3
-1.020, -1.338e-3
-1.019, -1.332e-3
-1.018, -1.322e-3
-1.017, -1.319e-3
-1.016, -1.322e-3
-1.015, -1.332e-3
-1.014, -1.341e-3
-1.013, -1.353e-3
-1.012, -1.363e-3
-1.011, -1.369e-3
-1.010, -1.372e-3
-1.009, -1.369e-3
-1.008, -1.366e-3
-1.007, -1.369e-3
-1.006, -1.372e-3
-1.005, -1.381e-3
-1.004, -1.396e-3
-1.003, -1.409e-3
-1.002, -1.421e-3
-1.001, -1.427e-3
