Potential V vs RHE, Current mA cm-2
0.013299999999999867,-0.04582249900262853
0.012299999999999978,-1.2671569112891135
0.011299999999999866,-2.226755585987568
0.010299999999999976,-3.055776407708479
0.009299999999999864,-3.840941179133574
0.008299999999999974,-4.582249900262854
0.007299999999999862,-5.367414671687949
0.006299999999999972,-6.108723392817228
0.00529999999999986,-6.806176063650692
0.0042999999999999705,-7.50504344578402
0.0032999999999998586,-8.11478401602585
0.0022999999999999687,-8.68208324727173
0.0012999999999998568,-9.161670377925978
0.00029999999999996696,-9.59740145828441
-0.000700000000000145,-9.99069119964689
-0.0017000000000000348,-10.340124890713554
-0.0027000000000001467,-10.644287820184536
-0.0037000000000000366,-11.037577561547016
-0.0047000000000001485,-11.343155202317865
-0.005700000000000038,-11.691174182084664
-0.00670000000000015,-12.12831997374296
-0.00770000000000004,-12.520195003805576
-0.008700000000000152,-12.913484745168056
-0.009700000000000042,-13.30535977523067
-0.010700000000000154,-13.610937416001518
-0.011700000000000044,-13.916515056772363
-0.012700000000000156,-14.13438059695158
-0.013700000000000045,-14.30273124163552
-0.014700000000000157,-14.444202371622024
-0.015700000000000047,-14.529085049613924
-0.01670000000000016,-14.69885040559773
-0.01770000000000005,-14.868615761581536
-0.01870000000000016,-15.094969569559943
-0.01970000000000005,-15.307176264539699
-0.020700000000000163,-15.575971411514052
-0.021700000000000053,-15.830619445489761
-0.022700000000000164,-16.141855931460068
-0.023700000000000054,-16.354062626439823
-0.024700000000000166,-16.53797509542228
-0.025700000000000056,-16.665299112410132
-0.026700000000000168,-16.750181790402035
-0.027700000000000058,-16.835064468393938
-0.02870000000000017,-16.919947146385837
-0.02970000000000006,-16.962388485381787
-0.03070000000000017,-17.103859615368293
-0.03170000000000006,-17.188742293360193
-0.03270000000000017,-17.358507649344002
-0.03370000000000006,-17.584861457322408
-0.034700000000000175,-17.797068152302163
-0.035700000000000065,-18.009274847281915
-0.03670000000000018,-18.19318731626437
-0.03770000000000007,-18.320511333252224
-0.03870000000000018,-18.40539401124413
-0.03970000000000007,-18.44783535024008
-0.04070000000000018,-18.44783535024008
-0.04170000000000007,-18.44783535024008
-0.04270000000000018,-18.40539401124413
-0.04370000000000007,-18.44783535024008
-0.044700000000000184,-18.44783535024008
-0.045700000000000074,-18.53271802823198
-0.046700000000000186,-18.631747819222536
-0.047700000000000076,-18.759071836210385
-0.04870000000000019,-18.92883719219419
-0.04970000000000008,-19.01371987018609
-0.05070000000000019,-19.112749661176647
-0.05170000000000008,-19.197632339168546
-0.05270000000000019,-19.197632339168546
-0.05370000000000008,-19.197632339168546
-0.05470000000000019,-19.112749661176647
-0.05570000000000008,-19.01371987018609
-0.056700000000000195,-19.01371987018609
-0.057700000000000085,-19.01371987018609
-0.058700000000000196,-19.056161209182044
-0.059700000000000086,-19.155191000172596
-0.0607000000000002,-19.2400736781645
-0.06170000000000009,-19.367397695152352
-0.0627000000000002,-19.537163051136158
-0.06370000000000009,-19.636192842126707
-0.0647000000000002,-19.763516859114564
-0.06570000000000009,-19.805958198110513
-0.0667000000000002,-19.805958198110513
-0.0677000000000001,-19.848399537106463
-0.0687000000000002,-19.805958198110513
-0.0697000000000001,-19.805958198110513
-0.07070000000000021,-19.848399537106463
-0.0717000000000001,-19.890840876102416
-0.07270000000000021,-19.97572355409432
-0.0737000000000001,-20.10304757108217
-0.07470000000000021,-20.244518701068674
-0.0757000000000001,-20.414284057052477
-0.07670000000000021,-20.499166735044383
-0.0777000000000001,-20.626490752032236
-0.07870000000000021,-20.626490752032236
-0.0797000000000001,-20.626490752032236
-0.08070000000000022,-20.626490752032236
-0.0817000000000001,-20.584049413036283
-0.08270000000000022,-20.499166735044383
-0.08370000000000011,-20.499166735044383
-0.08470000000000022,-20.456725396048434
-0.08570000000000011,-20.499166735044383
-0.08670000000000022,-20.584049413036283
-0.08770000000000011,-20.626490752032236
-0.08870000000000022,-20.72552054302279
-0.08970000000000011,-20.810403221014692
-0.09070000000000022,-20.85284456001064
-0.09170000000000011,-20.89528589900659
-0.09270000000000023,-20.85284456001064
-0.09370000000000012,-20.810403221014692
-0.09470000000000023,-20.76796188201874
-0.09570000000000012,-20.626490752032236
-0.09670000000000023,-20.584049413036283
-0.09770000000000012,-20.541608074040333
-0.09870000000000023,-20.541608074040333
-0.09970000000000012,-20.584049413036283
-0.10070000000000023,-20.683079204026836
-0.10170000000000012,-20.76796188201874
-0.10270000000000024,-20.89528589900659
-0.10370000000000013,-20.93772723800254
-0.10470000000000024,-20.980168576998494
-0.10570000000000013,-21.022609915994444
-0.10670000000000024,-20.980168576998494
-0.10770000000000013,-20.93772723800254
-0.10870000000000024,-20.93772723800254
-0.10970000000000013,-20.89528589900659
-0.11070000000000024,-20.89528589900659
-0.11170000000000013,-20.89528589900659
-0.11270000000000002,-20.93772723800254
-0.11370000000000013,-21.065051254990397
-0.11470000000000002,-21.2065223849769
-0.11570000000000014,-21.333846401964752
-0.11670000000000003,-21.418729079956652
-0.11770000000000014,-21.503611757948562
-0.11870000000000003,-21.54605309694451
-0.11970000000000014,-21.503611757948562
-0.12070000000000003,-21.503611757948562
-0.12170000000000014,-21.461170418952605
-0.12270000000000003,-21.333846401964752
-0.12370000000000014,-21.333846401964752
-0.12470000000000003,-21.248963723972853
-0.12570000000000014,-21.333846401964752
-0.12670000000000003,-21.376287740960702
-0.12770000000000015,-21.461170418952605
-0.12870000000000004,-21.54605309694451
-0.12970000000000015,-21.63093577493641
-0.13070000000000004,-21.67337711393236
-0.13170000000000015,-21.772406904922917
-0.13270000000000004,-21.772406904922917
-0.13370000000000015,-21.63093577493641
-0.13470000000000004,-21.58849443594046
-0.13570000000000015,-21.461170418952605
-0.13670000000000004,-21.461170418952605
-0.13770000000000016,-21.418729079956652
-0.13870000000000005,-21.418729079956652
-0.13970000000000016,-21.461170418952605
-0.14070000000000005,-21.54605309694451
-0.14170000000000016,-21.67337711393236
-0.14270000000000005,-21.857289582914817
-0.14370000000000016,-21.94217226090672
-0.14470000000000005,-22.027054938898623
-0.14570000000000016,-22.027054938898623
-0.14670000000000005,-21.98461359990267
-0.14770000000000016,-21.899730921910766
-0.14870000000000005,-21.814848243918867
-0.14970000000000017,-21.729965565926964
-0.15070000000000006,-21.63093577493641
-0.15170000000000017,-21.63093577493641
-0.15270000000000006,-21.67337711393236
-0.15370000000000017,-21.772406904922917
-0.15470000000000006,-21.899730921910766
-0.15570000000000017,-22.027054938898623
-0.15670000000000006,-22.111937616890522
-0.15770000000000017,-22.253408746877028
-0.15870000000000006,-22.295850085872978
-0.15970000000000018,-22.295850085872978
-0.16070000000000007,-22.295850085872978
-0.16170000000000018,-22.253408746877028
-0.16270000000000007,-22.15437895588647
-0.16370000000000018,-22.111937616890522
-0.16470000000000007,-22.111937616890522
-0.16570000000000018,-22.15437895588647
-0.16670000000000007,-22.253408746877028
-0.16770000000000018,-22.33829142486893
-0.16870000000000007,-22.42317410286083
-0.16970000000000018,-22.508056780852733
-0.17070000000000007,-22.550498119848687
-0.17170000000000019,-22.592939458844636
-0.17270000000000008,-22.592939458844636
-0.1737000000000002,-22.508056780852733
-0.17470000000000008,-22.42317410286083
-0.1757000000000002,-22.295850085872978
-0.17670000000000008,-22.253408746877028
-0.1777000000000002,-22.196820294882425
-0.17870000000000008,-22.196820294882425
-0.1797000000000002,-22.253408746877028
-0.18070000000000008,-22.33829142486893
-0.1817000000000002,-22.46561544185678
-0.18270000000000008,-22.63538079784059
-0.1837000000000002,-22.72026347583249
-0.1847000000000001,-22.861734605818995
-0.1857000000000002,-22.861734605818995
-0.1867000000000001,-22.904175944814945
-0.1877000000000002,-22.904175944814945
-0.1887000000000001,-22.904175944814945
-0.1897000000000002,-22.861734605818995
-0.1907000000000001,-22.904175944814945
-0.1917000000000001,-22.946617283810895
-0.19269999999999998,-23.073941300798747
-0.1937000000000001,-23.2012653177866
-0.19469999999999998,-23.300295108777156
-0.1957000000000001,-23.47006046476096
-0.19669999999999999,-23.55494314275286
-0.1977000000000001,-23.639825820744765
-0.1987,-23.682267159740714
-0.1997000000000001,-23.639825820744765
-0.2007,-23.597384481748815
-0.2017000000000001,-23.55494314275286
-0.2027,-23.47006046476096
-0.2037000000000001,-23.427619125765005
-0.2047,-23.427619125765005
-0.2057000000000001,-23.427619125765005
-0.2067,-23.51250180375691
-0.2077000000000001,-23.597384481748815
-0.2087,-23.682267159740714
-0.2097000000000001,-23.724708498736668
-0.2107,-23.767149837732617
-0.2117000000000001,-23.823738289727217
-0.2127,-23.823738289727217
-0.2137000000000001,-23.724708498736668
-0.2147,-23.639825820744765
-0.2157000000000001,-23.597384481748815
-0.2167,-23.55494314275286
-0.21770000000000012,-23.51250180375691
-0.2187,-23.51250180375691
-0.21970000000000012,-23.55494314275286
-0.2207,-23.639825820744765
-0.22170000000000012,-23.724708498736668
-0.2227,-23.908620967719123
-0.22370000000000012,-23.951062306715073
-0.2247,-23.993503645711023
-0.22570000000000012,-24.035944984706973
-0.2267,-23.993503645711023
-0.22770000000000012,-23.993503645711023
-0.22870000000000001,-23.951062306715073
-0.22970000000000013,-23.86617962872317
-0.23070000000000002,-23.86617962872317
-0.23170000000000013,-23.908620967719123
-0.23270000000000002,-23.993503645711023
-0.23370000000000013,-24.16326900169483
-0.23470000000000002,-24.290593018682678
-0.23570000000000013,-24.474505487665134
-0.23670000000000002,-24.686712182644893
-0.2376999999999999,-24.814036199632742
-0.23870000000000002,-24.870624651627345
-0.2396999999999999,-24.9130659906233
-0.24070000000000003,-24.870624651627345
-0.24169999999999991,-24.870624651627345
-0.24270000000000003,-24.729153521640843
-0.24369999999999992,-24.771594860636792
-0.24470000000000003,-24.771594860636792
-0.24569999999999992,-24.870624651627345
-0.24670000000000003,-24.997948668615198
-0.24769999999999992,-25.12527268560305
-0.24870000000000003,-25.295038041586857
-0.24969999999999992,-25.39406783257741
-0.25070000000000003,-25.521391849565262
-0.2516999999999999,-25.60627452755716
-0.25270000000000004,-25.60627452755716
-0.2536999999999999,-25.563833188561212
-0.25470000000000004,-25.521391849565262
-0.2556999999999999,-25.39406783257741
-0.25670000000000004,-25.39406783257741
-0.25769999999999993,-25.295038041586857
-0.25870000000000004,-25.337479380582806
-0.25969999999999993,-25.43650917157336
-0.26070000000000004,-25.521391849565262
-0.26169999999999993,-25.60627452755716
-0.26270000000000004,-25.73359854454502
-0.26369999999999993,-25.77603988354097
-0.26470000000000005,-25.77603988354097
-0.26569999999999994,-25.81848122253692
-0.26670000000000005,-25.81848122253692
-0.26769999999999994,-25.81848122253692
-0.26870000000000005,-25.81848122253692
-0.26969999999999994,-25.77603988354097
-0.27070000000000005,-25.77603988354097
-0.27169999999999994,-25.77603988354097
-0.27270000000000005,-25.86092256153287
-0.27369999999999994,-26.002393691519377
-0.27470000000000006,-26.17215904750318
-0.27569999999999995,-26.38436574248293
-0.27670000000000006,-26.568278211465387
-0.27769999999999995,-26.69560222845324
-0.27870000000000006,-26.69560222845324
-0.27969999999999995,-26.69560222845324
-0.28070000000000006,-26.61071955046134
-0.28169999999999995,-26.525836872469437
-0.28270000000000006,-26.38436574248293
-0.28369999999999995,-26.38436574248293
-0.28470000000000006,-26.38436574248293
-0.28569999999999995,-26.525836872469437
-0.28670000000000007,-26.61071955046134
-0.28769999999999996,-26.738043567449193
-0.28870000000000007,-26.86536758443705
-0.28969999999999996,-27.00683871442355
-0.29070000000000007,-27.134162731411404
-0.29169999999999996,-27.219045409403304
-0.29270000000000007,-27.303928087395207
-0.29369999999999996,-27.261486748399253
-0.2947000000000001,-27.261486748399253
-0.29569999999999996,-27.176604070407354
-0.2967000000000001,-27.176604070407354
-0.29769999999999996,-27.176604070407354
-0.2987000000000001,-27.176604070407354
-0.29969999999999997,-27.261486748399253
-0.3007000000000001,-27.34636942639116
-0.30169999999999997,-27.43125210438306
-0.3027000000000001,-27.615164573365515
-0.30369999999999997,-27.700047251357418
-0.3047000000000001,-27.827371268345274
-0.30569999999999997,-27.869812607341224
-0.3067000000000001,-27.869812607341224
-0.3077,-27.869812607341224
-0.3087000000000001,-27.78492992934932
-0.3097,-27.65760591236147
-0.3107000000000001,-27.615164573365515
-0.3117,-27.572723234369565
-0.3127000000000001,-27.530281895373616
-0.3137,-27.530281895373616
-0.3147000000000001,-27.572723234369565
-0.3157,-27.700047251357418
-0.3167000000000001,-27.78492992934932
-0.3177,-27.954695285333123
-0.3187000000000001,-28.011283737327723
-0.3197,-28.05372507632368
-0.3207000000000001,-28.05372507632368
-0.3217,-28.011283737327723
-0.3227000000000001,-27.954695285333123
-0.3237,-27.954695285333123
-0.3247000000000001,-27.912253946337174
-0.3257,-27.954695285333123
-0.3267000000000001,-28.011283737327723
-0.3277,-28.05372507632368
-0.3287000000000001,-28.09616641531963
-0.3297,-28.18104909331153
-0.3307000000000001,-28.265931771303435
-0.3317,-28.350814449295335
-0.3327000000000001,-28.393255788291288
-0.3337,-28.435697127287238
-0.3347000000000001,-28.393255788291288
-0.3357,-28.393255788291288
-0.3367000000000001,-28.350814449295335
-0.3377,-28.308373110299385
-0.3387000000000001,-28.308373110299385
-0.3397,-28.435697127287238
-0.3407000000000001,-28.619609596269694
-0.3417,-28.959140308237306
-0.3427000000000001,-29.440142150191413
-0.3437,-29.878702653149578
-0.3447000000000001,-30.317263156107735
-0.3457,-30.614352529079397
-0.3467000000000001,-30.79826499806185
-0.3477,-30.88314767605375
-0.3487000000000001,-30.968030354045652
-0.3497,-30.968030354045652
-0.3507000000000001,-31.052913032037555
-0.3517,-31.095354371033505
-0.3527000000000001,-31.19438416202406
-0.3537,-31.23682550102001
-0.3547000000000001,-31.36414951800786
-0.3557,-31.49147353499572
-0.35670000000000013,-31.618797551983565
-0.3577,-31.76026868197007
-0.35870000000000013,-31.802710020966025
-0.3597,-31.802710020966025
-0.36070000000000013,-31.802710020966025
-0.3617,-31.802710020966025
-0.3626999999999999,-31.76026868197007
-0.3637,-31.802710020966025
-0.3646999999999999,-31.802710020966025
-0.3657,-31.930034037953877
-0.3666999999999999,-32.09979939393769
-0.3677,-32.283711862920136
-0.3686999999999999,-32.49591855789989
-0.36970000000000003,-32.66568391388369
-0.3706999999999999,-32.84959638286615
-0.37170000000000003,-33.06180307784591
-0.3726999999999999,-33.18912709483376
-0.37370000000000003,-33.288156885824314
-0.3746999999999999,-33.330598224820264
-0.37570000000000003,-33.41548090281216
-0.3766999999999999,-33.54280491980002
-0.37770000000000004,-33.670128936787876
-0.3786999999999999,-33.89648274476628
-0.37970000000000004,-34.15113077874198
-0.3806999999999999,-34.50480860370825
-0.38170000000000004,-34.85848642867451
-0.38269999999999993,-35.282899818634014
-0.38370000000000004,-35.679018982596226
-0.38469999999999993,-36.11757948555439
-0.38570000000000004,-36.5136986495166
-0.38669999999999993,-36.81078802248826
-0.38770000000000004,-37.164465847454515
-0.38869999999999993,-37.47570233342482
-0.38970000000000005,-37.73035036740053
-0.39069999999999994,-38.04158685337084
-0.39170000000000005,-38.38111756533845
-0.39269999999999994,-38.692354051308754
-0.39370000000000005,-39.08847321527096
-0.39469999999999994,-39.42800392723857
-0.39570000000000005,-39.82412309120078
-0.39669999999999994,-40.177800916167044
-0.39770000000000005,-40.559772967130606
-0.39869999999999994,-40.87100945310091
-0.39970000000000006,-41.22468727806717
-0.40069999999999995,-41.52177665103883
-0.40170000000000006,-41.83301313700913
-0.40269999999999995,-42.087661170984845
-0.40370000000000006,-42.4413389959511
-0.40469999999999995,-42.752575481921404
-0.40570000000000006,-43.17698887188092
-0.40669999999999995,-43.61554937483908
-0.40770000000000006,-44.054109877797245
-0.40869999999999995,-44.535111719751356
-0.40970000000000006,-45.05855490070142
-0.41069999999999995,-45.581998081651484
-0.41170000000000007,-46.10544126260155
-0.41269999999999996,-46.586443104555656
-0.41370000000000007,-47.02500360751382
-0.41469999999999996,-47.46356411047198
-0.41570000000000007,-47.84553616143554
-0.41669999999999996,-48.2840966643937
-0.41770000000000007,-48.76509850634781
-0.41869999999999996,-49.24610034830193
-0.4197000000000001,-49.76954352925199
-0.42069999999999996,-50.335428049198
-0.4217000000000001,-50.98619524713592
-0.42269999999999996,-51.69355089706845
-0.4237000000000001,-52.34431809500636
-0.42469999999999997,-53.079967970936174
-0.4257000000000001,-53.7873236208687
-0.42669999999999997,-54.480532157802564
-0.4277000000000001,-55.17374069473642
-0.42869999999999997,-55.838655005673
-0.4297000000000001,-56.489422203610914
-0.43069999999999997,-57.14018940154883
-0.4317000000000001,-57.79095659948675
-0.4327,-58.498312249419264
-0.4337000000000001,-59.27640346434504
-0.4347,-60.06864179226946
-0.4357000000000001,-60.93161568518713
-0.4367,-61.80873669110345
-0.4377000000000001,-62.68585769701977
-0.4387,-63.46394891194555
-0.4397000000000001,-64.34106991786187
-0.4407,-65.16160247178358
-0.4417000000000001,-65.99628213870396
-0.4427,-66.81681469262568
-0.4437000000000001,-67.73637703753796
-0.4447,-68.65593938245023
-0.4457000000000001,-69.70282574435035
-0.4467,-70.79215344524643
-0.4477000000000001,-71.8814811461425
-0.4487,-72.97080884703858
-0.4497000000000001,-74.14501922592657
-0.4507,-75.2484940398213
-0.4517000000000001,-76.33782174071737
-0.4527,-77.42714944161345
-0.4537000000000001,-78.47403580351359
-0.4547,-79.52092216541372
-0.4557000000000001,-80.52536718831789
-0.4567,-81.57225355021802
-0.4577000000000001,-82.6615812511141
-0.4587,-83.75090895201016
-0.4597000000000001,-84.8826779919022
-0.4607,-86.09932970978613
-0.4617000000000001,-87.33012854066871
-0.4627,-88.5892215975486
-0.4637000000000001,-89.80587331543254
-0.4647,-91.03667214631511
-0.4657000000000001,-92.25332386419905
-0.4667,-93.42753424308701
-0.4677000000000001,-94.601744621975
-0.4687,-95.74766077486568
-0.4697000000000001,-96.92187115375367
-0.4707,-98.09608153264163
-0.4717000000000001,-99.27029191152963
-0.4727,-100.54353208140815
-0.4737000000000001,-101.76018379929208
-0.4747,-102.97683551717601
-0.4757000000000001,-104.25007568705455
-0.4767,-105.46672740493848
-0.4777000000000001,-106.78240891381296
-0.4787,-108.0839433096888
-0.4797000000000001,-109.44206615755924
-0.4807,-110.78604189243102
-0.48170000000000013,-112.14416474030146
-0.4827,-113.44569913617728
-0.48370000000000013,-114.84626332304367
-0.4847,-116.28926884890602
-0.48570000000000013,-117.81715705276027
-0.4867,-118.3406002337103
-0.48570000000000013,-117.3785965498021
-0.4847,-116.58635822187767
-0.48370000000000013,-115.8931496849438
-0.4827,-115.2423824870059
-0.48170000000000013,-114.53502683707337
-0.4807,-113.75693562214758
-0.4797000000000001,-112.96469729422319
-0.4787,-112.10172340130552
-0.4777000000000001,-111.22460239538917
-0.4767,-110.40406984146746
-0.4757000000000001,-109.52694883555114
-0.4747,-108.69226916863077
-0.4737000000000001,-107.87173661470905
-0.4727,-107.07949828678463
-0.4717000000000001,-106.34384841085482
-0.4707,-105.5516100829304
-0.4697000000000001,-104.81596020700057
-0.4687,-104.06616321807209
-0.4677000000000001,-103.33051334214227
-0.4667,-102.5524221272165
