Potential V vs RHE, Current mA cm-2
0.013299999999999867,7.761106191059591
0.012299999999999978,6.016767158326001
0.011299999999999866,4.490293665771627
0.010299999999999976,3.0076762235130676
0.009299999999999864,1.5675001202504606
0.008299999999999974,0.2594580523952477
0.007299999999999862,-1.0925815368857679
0.006299999999999972,-2.3144676865791998
0.00529999999999986,-3.579219588658543
0.0042999999999999705,-4.800115440442069
0.0032999999999998586,-5.977155241929781
0.0022999999999999687,-7.199465805013171
0.0012999999999998568,-8.376505606500881
0.00029999999999996696,-9.467248018696827
-0.000700000000000145,-10.557990430892769
-0.0017000000000000348,-11.604876792792895
-0.0027000000000001467,-12.651763154693022
-0.0037000000000000366,-13.567081365705702
-0.0047000000000001485,-14.486643710617974
-0.005700000000000038,-15.3920589425316
-0.00670000000000015,-16.311621287443874
-0.00770000000000004,-17.146300954364243
-0.008700000000000152,-18.009274847281915
-0.009700000000000042,-18.92883719219419
-0.010700000000000154,-19.805958198110513
-0.011700000000000044,-20.683079204026836
-0.012700000000000156,-21.503611757948562
-0.013700000000000045,-22.38073276386488
-0.014700000000000157,-23.2012653177866
-0.015700000000000047,-23.993503645711023
-0.01670000000000016,-24.729153521640843
-0.01770000000000005,-25.478950510569312
-0.01870000000000016,-26.129717708507226
-0.01970000000000005,-26.822926245441096
-0.020700000000000163,-27.487840556377662
-0.021700000000000053,-28.09616641531963
-0.022700000000000164,-28.746933613257543
-0.023700000000000054,-29.39770081119546
-0.024700000000000166,-30.04846800913338
-0.025700000000000056,-30.7558236590659
-0.026700000000000168,-31.40659085700382
-0.027700000000000058,-32.09979939393769
-0.02870000000000017,-32.807155043870196
-0.02970000000000006,-33.50036358080407
-0.03070000000000017,-34.15113077874198
-0.03170000000000006,-34.8018979766799
-0.03270000000000017,-35.42437094862052
-0.03370000000000006,-35.99025546856653
-0.034700000000000175,-36.55613998851254
-0.035700000000000065,-37.122024508458566
-0.03670000000000018,-37.645467689408626
-0.03770000000000007,-38.211352209354644
-0.03870000000000018,-38.734795390304704
-0.03970000000000007,-39.30067991025072
-0.04070000000000018,-39.86656443019674
-0.04170000000000007,-40.43244895014274
-0.04270000000000018,-40.99833347008877
-0.04370000000000007,-41.606659329030734
-0.044700000000000184,-42.130102509980794
-0.045700000000000074,-42.653545690930855
-0.046700000000000186,-43.134547532884966
-0.047700000000000076,-43.61554937483908
-0.04870000000000019,-44.054109877797245
-0.04970000000000008,-44.535111719751356
-0.05070000000000019,-44.93123088371356
-0.05170000000000008,-45.36979138667173
-0.05270000000000019,-45.85079322862584
-0.05370000000000008,-46.27520661858535
-0.05470000000000019,-46.79864979953541
-0.05570000000000008,-47.32209298048547
-0.056700000000000195,-47.84553616143554
-0.057700000000000085,-48.36897934238561
-0.058700000000000196,-48.93486386233162
-0.059700000000000086,-49.50074838227763
-0.0607000000000002,-50.0807800152223
-0.06170000000000009,-50.60422319617236
-0.0627000000000002,-51.071077925127824
-0.06370000000000009,-51.509638428085985
-0.0647000000000002,-51.990640270040096
-0.06570000000000009,-52.42920077299826
-0.0667000000000002,-52.86776127595642
-0.0677000000000001,-53.30632177891458
-0.0687000000000002,-53.74488228187274
-0.0697000000000001,-54.2117370108282
-0.07070000000000021,-54.69273885278232
-0.0717000000000001,-55.17374069473642
-0.07270000000000021,-55.65474253669055
-0.0737000000000001,-56.13574437864466
-0.07470000000000021,-56.57430488160282
-0.0757000000000001,-57.012865384560975
-0.07670000000000021,-57.45142588751914
-0.0777000000000001,-57.87583927747865
-0.07870000000000021,-58.27195844144086
-0.0797000000000001,-58.66807760540307
-0.08070000000000022,-59.06419676936528
-0.0817000000000001,-59.403727481332886
-0.08270000000000022,-59.842287984291055
-0.08370000000000011,-60.28084848724921
-0.08470000000000022,-60.71940899020737
-0.08570000000000011,-61.20041083216149
-0.08670000000000022,-61.6814126741156
-0.08770000000000011,-62.16241451606972
-0.08870000000000022,-62.68585769701977
-0.08970000000000011,-63.15271242597524
-0.09070000000000022,-63.59127292893339
-0.09170000000000011,-64.0722747708875
-0.09270000000000023,-64.51083527384567
-0.09370000000000012,-64.94939577680383
-0.09470000000000023,-65.34551494076604
-0.09570000000000012,-65.76992833072556
-0.09670000000000023,-66.16604749468777
-0.09770000000000012,-66.60460799764593
-0.09870000000000023,-67.00072716160814
-0.09970000000000012,-67.52417034255821
-0.10070000000000023,-67.96273084551636
-0.10170000000000012,-68.48617402646643
-0.10270000000000024,-68.96717586842054
-0.10370000000000013,-69.4906190493706
-0.10470000000000024,-69.91503243933012
-0.10570000000000013,-70.35359294228827
-0.10670000000000024,-70.8345947842424
-0.10770000000000013,-71.27315528720055
-0.10870000000000024,-71.66927445116276
-0.10970000000000013,-72.05124650212633
-0.11070000000000024,-72.44736566608852
-0.11170000000000013,-72.80104349105478
-0.11270000000000002,-73.197162655017
-0.11370000000000013,-73.57913470598055
-0.11470000000000002,-74.06013654793468
-0.11570000000000014,-74.54113838988879
-0.11670000000000003,-74.97969889284694
-0.11770000000000014,-75.46070073480107
-0.11870000000000003,-75.98414391575112
-0.11970000000000014,-76.46514575770523
-0.12070000000000003,-76.94614759965934
-0.12170000000000014,-77.42714944161345
-0.12270000000000003,-77.86570994457162
-0.12370000000000014,-78.29012333453113
-0.12470000000000003,-78.68624249849334
-0.12570000000000014,-79.1248030014515
-0.12670000000000003,-79.47848082641775
-0.12770000000000015,-79.90289421637728
-0.12870000000000004,-80.38389605833139
-0.12970000000000015,-80.90733923928146
-0.13070000000000004,-81.43078242023151
-0.13170000000000015,-81.99666694017753
-0.13270000000000004,-82.52011012112759
-0.13370000000000015,-83.08599464107361
-0.13470000000000004,-83.56699648302772
-0.13570000000000015,-84.04799832498183
-0.13670000000000004,-84.52900016693594
-0.13770000000000016,-84.96756066989411
-0.13870000000000005,-85.36367983385631
-0.13970000000000016,-85.80224033681448
-0.14070000000000005,-86.22665372677399
-0.14170000000000016,-86.6227728907362
-0.14270000000000005,-87.10377473269031
-0.14370000000000016,-87.58477657464444
-0.14470000000000005,-88.10821975559449
-0.14570000000000016,-88.63166293654454
-0.14670000000000005,-89.15510611749461
-0.14770000000000016,-89.67854929844468
-0.14870000000000005,-90.15955114039879
-0.14970000000000017,-90.6405529823529
-0.15070000000000006,-91.12155482430701
-0.15170000000000017,-91.56011532726518
-0.15270000000000006,-91.94208737822873
-0.15370000000000017,-92.33820654219093
-0.15470000000000006,-92.6918843671572
-0.15570000000000017,-93.03141507912481
-0.15670000000000006,-93.38509290409107
-0.15770000000000017,-93.82365340704924
-0.15870000000000006,-94.26221391000739
-0.15970000000000018,-94.78565709095746
-0.16070000000000007,-95.35154161090348
-0.16170000000000018,-95.95986746984543
-0.16270000000000007,-96.5681933287874
-0.16370000000000018,-97.21896052672531
-0.16470000000000007,-97.84143349866595
-0.16570000000000018,-98.4497593576079
-0.16670000000000007,-99.01564387755391
-0.16770000000000018,-99.53908705850398
-0.16870000000000007,-100.02008890045809
-0.16970000000000018,-100.45864940341626
-0.17070000000000007,-100.84062145437981
-0.17170000000000019,-101.19429927934607
-0.17270000000000008,-101.6753011213002
-0.1737000000000002,-102.07142028526239
-0.17470000000000008,-102.4958336752219
-0.1757000000000002,-102.93439417818009
-0.17670000000000008,-103.41539602013418
-0.1777000000000002,-103.89639786208829
-0.17870000000000008,-104.41984104303836
-0.1797000000000002,-104.94328422398843
-0.18070000000000008,-105.42428606594254
-0.1817000000000002,-105.99017058588855
-0.18270000000000008,-106.47117242784265
-0.1837000000000002,-106.95217426979677
-0.1847000000000001,-107.51805878974278
-0.1857000000000002,-108.0839433096888
-0.1867000000000001,-108.60738649063886
-0.1877000000000002,-109.21571234958083
-0.1887000000000001,-109.78159686952685
-0.1897000000000002,-110.40406984146746
-0.1907000000000001,-111.01239570040943
-0.1917000000000001,-111.57828022035544
-0.19269999999999998,-112.18660607929739
-0.1937000000000001,-112.79493193823936
-0.19469999999999998,-113.31837511918944
-0.1957000000000001,-113.84181830013951
-0.19669999999999999,-114.28037880309766
-0.1977000000000001,-114.71893930605583
-0.1987,-115.05847001802343
-0.1997000000000001,-115.4121478429897
-0.2007,-115.80826700695191
-0.2017000000000001,-116.06291504092759
-0.2027,-116.50147554388576
-0.2037000000000001,-116.89759470784797
-0.2047,-117.33615521080614
-0.2057000000000001,-117.81715705276027
-0.2067,-118.29815889471436
-0.2077000000000001,-118.76501362366983
-0.2087,-119.2884568046199
-0.2097000000000001,-119.769458646574
-0.2107,-120.29290182752408
-0.2117000000000001,-120.77390366947817
-0.2127,-121.2549055114323
-0.2137000000000001,-121.73590735338641
-0.2147,-122.17446785634456
-0.2157000000000001,-122.61302835930273
-0.2167,-123.00914752326493
-0.21770000000000012,-123.39111957422851
-0.2187,-123.82968007718667
-0.21970000000000012,-124.31068191914078
-0.2207,-124.83412510009084
-0.22170000000000012,-125.35756828104091
-0.2227,-125.88101146199097
-0.22370000000000012,-126.44689598193698
-0.2247,-126.97033916288706
-0.22570000000000012,-127.4937823438371
-0.2267,-128.01722552478716
-0.22770000000000012,-128.4982273667413
-0.22870000000000001,-128.89434653070347
-0.22970000000000013,-129.33290703366166
-0.23070000000000002,-129.75732042362114
-0.23170000000000013,-130.06855690959148
-0.23270000000000002,-130.46467607355368
-0.23370000000000013,-130.84664812451723
-0.23470000000000002,-131.32764996647134
-0.23570000000000013,-131.76621046942952
-0.23670000000000002,-132.24721231138363
-0.2376999999999999,-132.6857728143418
-0.23870000000000002,-133.20921599529186
-0.2396999999999999,-133.69021783724597
-0.24070000000000003,-134.17121967920008
-0.24169999999999991,-134.69466286015015
-0.24270000000000003,-135.17566470210423
-0.24369999999999992,-135.65666654405837
-0.24470000000000003,-136.13766838601245
-0.24569999999999992,-136.562081775972
-0.24670000000000003,-137.04308361792607
-0.24769999999999992,-137.52408545988024
-0.24870000000000003,-137.9626459628384
-0.24969999999999992,-138.44364780479248
-0.25070000000000003,-138.88220830775063
-0.2516999999999999,-139.36321014970477
-0.25270000000000004,-139.9290946696508
-0.2536999999999999,-140.45253785060083
-0.25470000000000004,-140.93353969255494
-0.2556999999999999,-141.456982873505
-0.25670000000000004,-142.03701450644968
-0.25769999999999993,-142.6028990263957
-0.25870000000000004,-143.0273124163552
-0.25969999999999993,-143.5931969363012
-0.26070000000000004,-144.01761032626072
-0.26169999999999993,-144.58349484620675
-0.26270000000000004,-145.14937936615277
-0.26369999999999993,-145.7152638860988
-0.26470000000000005,-146.5640906660178
-0.26569999999999994,-147.27144631595033
-0.26670000000000005,-148.26174422585584
-0.26769999999999994,-149.1105710057749
-0.26870000000000005,-149.95939778569388
-0.26969999999999994,-150.8082245656129
-0.27070000000000005,-151.37410908555893
-0.27169999999999994,-152.0814647354914
-0.27270000000000005,-152.50587812545095
-0.27369999999999994,-152.93029151541046
-0.27470000000000006,-153.35470490536997
-0.27569999999999995,-153.77911829532948
-0.27670000000000006,-154.0620605553025
-0.27769999999999995,-154.3450028152755
-0.27870000000000006,-154.486473945262
-0.27969999999999995,-154.6279450752485
-0.28070000000000006,-154.9108873352215
-0.28169999999999995,-154.9108873352215
-0.28270000000000006,-155.05235846520802
-0.28369999999999995,-155.33530072518104
-0.28470000000000006,-155.47677185516753
-0.28569999999999995,-155.75971411514055
-0.28670000000000007,-156.04265637511355
-0.28769999999999996,-156.46706976507306
-0.28870000000000007,-156.75001202504606
-0.28969999999999996,-157.31589654499206
-0.29070000000000007,-157.7403099349516
-0.29169999999999996,-158.3061944548976
-0.29270000000000007,-159.01355010483013
-0.29369999999999996,-159.57943462477613
-0.2947000000000001,-160.14531914472215
-0.29569999999999996,-160.71120366466818
-0.2967000000000001,-161.2770881846142
-0.29769999999999996,-161.84297270456022
-0.2987000000000001,-162.2673860945197
-0.29969999999999997,-162.6917994844792
-0.3007000000000001,-163.11621287443873
-0.30169999999999997,-163.54062626439824
-0.3027000000000001,-163.96503965435775
-0.30369999999999997,-164.24798191433075
-0.3047000000000001,-164.67239530429026
-0.30569999999999997,-164.9553375642633
-0.3067000000000001,-165.3797509542228
-0.3077,-165.94563547416882
-0.3087000000000001,-166.3700488641283
-0.3097,-167.07740451406085
-0.3107000000000001,-167.6432890340068
-0.3117,-168.20917355395284
-0.3127000000000001,-168.91652920388537
-0.3137,-169.6238848538179
-0.3147000000000001,-170.33124050375042
-0.3157,-171.03859615368293
-0.3167000000000001,-171.60448067362896
-0.3177,-172.0288940635885
-0.3187000000000001,-172.45330745354798
-0.3197,-172.87772084350746
-0.3207000000000001,-173.16066310348046
-0.3217,-173.44360536345349
-0.3227000000000001,-173.72654762342648
-0.3237,-174.0094898833995
-0.3247000000000001,-174.43390327335902
-0.3257,-174.99978779330505
-0.3267000000000001,-175.42420118326456
-0.3277,-176.13155683319707
-0.3287000000000001,-176.8389124831296
-0.3297,-177.54626813306209
-0.3307000000000001,-178.25362378299462
-0.3317,-178.96097943292713
-0.3327000000000001,-179.66833508285964
-0.3337,-180.09274847281918
-0.3347000000000001,-180.65863299276518
-0.3357,-181.2245175127112
-0.3367000000000001,-181.64893090267074
-0.3377,-182.07334429263022
-0.3387000000000001,-182.49775768258974
-0.3397,-182.92217107254925
-0.3407000000000001,-183.48805559249527
-0.3417,-184.05394011244127
-0.3427000000000001,-184.6198246323873
-0.3437,-185.1857091523333
-0.3447000000000001,-185.7515936722793
-0.3457,-186.45894932221185
-0.3467000000000001,-187.16630497214436
-0.3477,-187.87366062207687
-0.3487000000000001,-188.4395451420229
-0.3497,-189.1469007919554
-0.3507000000000001,-189.71278531190143
-0.3517,-190.27866983184742
-0.3527000000000001,-190.84455435179345
-0.3537,-191.268967741753
-0.3547000000000001,-191.69338113171247
-0.3557,-192.2592656516585
-0.35670000000000013,-192.683679041618
-0.3577,-193.249563561564
-0.35870000000000013,-193.81544808151003
-0.3597,-194.2398614714695
-0.36070000000000013,-194.66427486142905
-0.3617,-195.08868825138856
-0.3626999999999999,-195.65457277133459
-0.3637,-196.0789861612941
-0.3646999999999999,-196.50339955125358
-0.3657,-197.0692840711996
-0.3666999999999999,-197.63516859114563
-0.3677,-198.05958198110514
-0.3686999999999999,-198.62546650105114
-0.36970000000000003,-199.19135102099716
-0.3706999999999999,-199.75723554094319
-0.37170000000000003,-200.3231200608892
-0.3726999999999999,-201.03047571082172
-0.37370000000000003,-201.59636023076774
-0.3746999999999999,-202.16224475071377
-0.37570000000000003,-202.7281292706598
-0.3766999999999999,-203.43548492059227
-0.37770000000000004,-204.0013694405383
-0.3786999999999999,-204.42578283049778
-0.37970000000000004,-204.8501962204573
-0.3806999999999999,-205.27460961041683
-0.38170000000000004,-205.69902300037634
-0.38269999999999993,-205.98196526034934
-0.38370000000000004,-206.40637865030885
-0.38469999999999993,-206.68932091028185
-0.38570000000000004,-207.1137343002414
-0.38669999999999993,-207.5381476902009
-0.38770000000000004,-207.96256108016038
-0.38869999999999993,-208.52844560010638
-0.38970000000000005,-208.95285899006592
-0.39069999999999994,-209.37727238002543
-0.39170000000000005,-209.94315689997146
-0.39269999999999994,-210.36757028993094
-0.39370000000000005,-210.79198367989048
-0.39469999999999994,-211.21639706985
-0.39570000000000005,-211.499339329823
-0.39669999999999994,-211.9237527197825
-0.39770000000000005,-212.34816610974204
-0.39869999999999994,-212.77257949970152
-0.39970000000000006,-213.05552175967455
-0.40069999999999995,-213.62140627962054
-0.40170000000000006,-214.04581966958003
-0.40269999999999995,-214.32876192955305
-0.40370000000000006,-214.89464644949908
-0.40469999999999995,-215.31905983945856
-0.40570000000000006,-215.88494435940459
-0.40669999999999995,-216.3093577493641
-0.40770000000000006,-216.73377113932364
-0.40869999999999995,-217.15818452928315
-0.40970000000000006,-217.44112678925615
-0.41069999999999995,-217.58259791924263
-0.41170000000000007,-217.72406904922914
-0.41269999999999996,-218.00701130920217
-0.41370000000000007,-218.14848243918865
-0.41469999999999996,-218.28995356917517
-0.41570000000000007,-218.57289582914817
-0.41669999999999996,-218.85583808912116
-0.41770000000000007,-219.28025147908068
-0.41869999999999996,-219.7046648690402
-0.4197000000000001,-220.2705493889862
-0.42069999999999996,-220.83643390893224
-0.4217000000000001,-221.54378955886475
-0.42269999999999996,-222.25114520879725
-0.4237000000000001,-222.81702972874328
-0.42469999999999997,-223.6658565086623
-0.4257000000000001,-224.2317410286083
-0.42669999999999997,-224.5146832885813
-0.4277000000000001,-224.65615441856778
-0.42869999999999997,-224.65615441856778
-0.4297000000000001,-224.93909667854084
-0.43069999999999997,-225.08056780852735
-0.4317000000000001,-225.08056780852735
-0.4327,-225.22203893851383
-0.4337000000000001,-225.22203893851383
-0.4347,-225.22203893851383
-0.4357000000000001,-225.50498119848683
-0.4367,-225.64645232847332
-0.4377000000000001,-225.92939458844637
-0.4387,-226.07086571843288
-0.4397000000000001,-226.35380797840588
-0.4407,-226.63675023837888
-0.4417000000000001,-226.91969249835188
-0.4427,-227.2026347583249
-0.4437000000000001,-227.4855770182979
-0.4447,-227.7685192782709
-0.4457000000000001,-228.0514615382439
-0.4467,-228.47587492820347
-0.4477000000000001,-228.75881718817644
-0.4487,-229.18323057813595
-0.4497000000000001,-229.32470170812243
-0.4507,-229.60764396809546
-0.4517000000000001,-229.74911509808197
-0.4527,-229.74911509808197
-0.4537000000000001,-229.74911509808197
-0.4547,-229.60764396809546
-0.4557000000000001,-229.32470170812243
-0.4567,-229.18323057813595
-0.4577000000000001,-229.04175944814943
-0.4587,-228.75881718817644
-0.4597000000000001,-228.75881718817644
-0.4607,-228.90028831816295
-0.4617000000000001,-229.18323057813595
-0.4627,-229.46617283810895
-0.4637000000000001,-230.03205735805497
-0.4647,-230.59794187800094
-0.4657000000000001,-231.3052975279335
-0.4667,-231.8711820478795
-0.4677000000000001,-232.43706656782552
-0.4687,-232.86147995778504
-0.4697000000000001,-233.28589334774458
-0.4707,-233.4273644777311
-0.4717000000000001,-233.4273644777311
-0.4727,-233.4273644777311
-0.4737000000000001,-233.28589334774458
-0.4747,-233.1444222177581
-0.4757000000000001,-233.00295108777152
-0.4767,-232.86147995778504
-0.4777000000000001,-232.72000882779852
-0.4787,-232.72000882779852
-0.4797000000000001,-232.57853769781204
-0.4807,-232.57853769781204
-0.48170000000000013,-232.43706656782552
-0.4827,-232.29559543783904
-0.48370000000000013,-232.29559543783904
-0.4847,-232.29559543783904
-0.48570000000000013,-232.15412430785253
-0.4867,-230.880884137974
-0.48570000000000013,-227.4855770182979
-0.4847,-224.37321215859478
-0.48370000000000013,-221.26084729889175
-0.4827,-218.43142469916165
-0.48170000000000013,-215.7434732294181
-0.4807,-213.05552175967455
-0.4797000000000001,-210.36757028993094
-0.4787,-207.8210899501739
-0.4777000000000001,-205.13313848043032
-0.4767,-202.58665814067325
-0.4757000000000001,-200.18164893090267
-0.4747,-197.63516859114563
-0.4737000000000001,-195.23015938137505
-0.4727,-192.82515017160452
-0.4717000000000001,-190.27866983184742
-0.4707,-187.87366062207687
-0.4697000000000001,-185.46865141230631
-0.4687,-183.20511333252225
-0.4677000000000001,-180.94157525273818
-0.4667,-178.53656604296762
