Potential V vs RHE, Current mA cm-2
0.013299999999999867,7.804962241355407
0.012299999999999978,6.322344799096849
0.011299999999999866,4.9698807964258735
0.010299999999999976,3.661272844050715
0.009299999999999864,2.4842330425630044
0.008299999999999974,1.5675001202504606
0.007299999999999862,0.6520404381077953
0.006299999999999972,-0.26384365742482935
0.00529999999999986,-1.2234423321232837
0.0042999999999999705,-2.095187435100119
0.0032999999999998586,-2.794054817233447
0.0022999999999999687,-3.403795387475278
0.0012999999999998568,-4.146518819904423
0.00029999999999996696,-4.9302688800296535
-0.000700000000000145,-5.629136262162981
-0.0017000000000000348,-6.152579443113044
-0.0027000000000001467,-6.6760226240631075
-0.0037000000000000366,-7.243321855308987
-0.0047000000000001485,-7.940774526142452
-0.005700000000000038,-8.55051509638428
-0.00670000000000015,-8.987660888042578
-0.00770000000000004,-9.379535918105192
-0.008700000000000152,-9.902979099055257
-0.009700000000000042,-10.470278330301136
-0.010700000000000154,-10.949865460955383
-0.011700000000000044,-11.343155202317865
-0.012700000000000156,-11.691174182084664
-0.013700000000000045,-12.214617363034726
-0.014700000000000157,-12.825772644576423
-0.015700000000000047,-13.30535977523067
-0.01670000000000016,-13.610937416001518
-0.01770000000000005,-13.828802956180734
-0.01870000000000016,-14.175407224647667
-0.01970000000000005,-14.61396772760583
-0.020700000000000163,-15.05252823056399
-0.021700000000000053,-15.3920589425316
-0.022700000000000164,-15.70329542850191
-0.023700000000000054,-16.056973253468165
-0.024700000000000166,-16.53797509542228
-0.025700000000000056,-16.877505807389888
-0.026700000000000168,-17.061418276372343
-0.027700000000000058,-17.2736249713521
-0.02870000000000017,-17.627302796318357
-0.02970000000000006,-18.15074597726842
-0.03070000000000017,-18.589306480226583
-0.03170000000000006,-18.759071836210385
-0.03270000000000017,-19.01371987018609
-0.03370000000000006,-19.3249563561564
-0.034700000000000175,-19.721075520118614
-0.035700000000000065,-19.97572355409432
-0.03670000000000018,-20.159636023076775
-0.03770000000000007,-20.286960040064624
-0.03870000000000018,-20.626490752032236
-0.03970000000000007,-21.065051254990397
-0.04070000000000018,-21.418729079956652
-0.04170000000000007,-21.58849443594046
-0.04270000000000018,-21.729965565926964
-0.04370000000000007,-22.069496277894572
-0.044700000000000184,-22.46561544185678
-0.045700000000000074,-22.819293266823045
-0.046700000000000186,-22.989058622806844
-0.047700000000000076,-23.1163826397947
-0.04870000000000019,-23.342736447773106
-0.04970000000000008,-23.767149837732617
-0.05070000000000019,-24.120827662698876
-0.05170000000000008,-24.389622809673234
-0.05270000000000019,-24.516946826661083
-0.05370000000000008,-24.771594860636792
-0.05470000000000019,-25.12527268560305
-0.05570000000000008,-25.43650917157336
-0.056700000000000195,-25.60627452755716
-0.057700000000000085,-25.77603988354097
-0.058700000000000196,-26.087276369511276
-0.059700000000000086,-26.525836872469437
-0.0607000000000002,-26.822926245441096
-0.06170000000000009,-26.9643973754276
-0.0627000000000002,-27.091721392415455
-0.06370000000000009,-27.34636942639116
-0.0647000000000002,-27.78492992934932
-0.06570000000000009,-28.13860775431558
-0.0667000000000002,-28.350814449295335
-0.0677000000000001,-28.435697127287238
-0.0687000000000002,-28.662050935265643
-0.0697000000000001,-29.058170099227848
-0.07070000000000021,-29.39770081119546
-0.0717000000000001,-29.62405461917387
-0.07270000000000021,-29.793819975157668
-0.0737000000000001,-30.04846800913338
-0.07470000000000021,-30.359704495103685
-0.0757000000000001,-30.71338232006995
-0.07670000000000021,-30.88314767605375
-0.0777000000000001,-31.052913032037555
-0.07870000000000021,-31.321708179011907
-0.0797000000000001,-31.661238890979522
-0.08070000000000022,-31.972475376949827
-0.0817000000000001,-32.09979939393769
-0.08270000000000022,-32.283711862920136
-0.08370000000000011,-32.58080123589179
-0.08470000000000022,-32.93447906085806
-0.08570000000000011,-33.231568433829715
-0.08670000000000022,-33.45792224180811
-0.08770000000000011,-33.627687597791926
-0.08870000000000022,-33.93892408376223
-0.08970000000000011,-34.278454795729836
-0.09070000000000022,-34.5472499427042
-0.09170000000000011,-34.67457395969205
-0.09270000000000023,-34.8018979766799
-0.09370000000000012,-35.07069312365426
-0.09470000000000023,-35.46681228761647
-0.09570000000000012,-35.763901660588125
-0.09670000000000023,-35.99025546856653
-0.09770000000000012,-36.11757948555439
-0.09870000000000023,-36.37222751953009
-0.09970000000000012,-36.768346683492304
-0.10070000000000023,-37.122024508458566
-0.10170000000000012,-37.249348525446415
-0.10270000000000024,-37.334231203438314
-0.10370000000000013,-37.56058501141672
-0.10470000000000024,-37.99914551437489
-0.10570000000000013,-38.42355890433439
-0.10670000000000024,-38.607471373316855
-0.10770000000000013,-38.734795390304704
-0.10870000000000024,-38.90456074628851
-0.10970000000000013,-39.173355893262865
-0.11070000000000024,-39.42800392723857
-0.11170000000000013,-39.654357735216976
-0.11270000000000002,-39.99388844718459
-0.11370000000000013,-40.3900076111468
-0.11470000000000002,-40.78612677510901
-0.11570000000000014,-41.04077480908471
-0.11670000000000003,-41.182245939071215
-0.11770000000000014,-41.352011295055014
-0.11870000000000003,-41.70568912002128
-0.11970000000000014,-42.087661170984845
-0.12070000000000003,-42.3564563179592
-0.12170000000000014,-42.483780334947056
-0.12270000000000003,-42.568663012938956
-0.12370000000000014,-42.92234083790521
-0.12470000000000003,-43.36090134086337
-0.12570000000000014,-43.70043205283099
-0.12670000000000003,-43.88434452181344
-0.12770000000000015,-44.011668538801295
-0.12870000000000004,-44.223875233781044
-0.12970000000000015,-44.577553058747306
-0.13070000000000004,-44.88878954471762
-0.13170000000000015,-45.143437578693316
-0.13270000000000004,-45.36979138667173
-0.13370000000000015,-45.70932209863933
-0.13470000000000004,-46.10544126260155
-0.13570000000000015,-46.41667774857186
-0.13670000000000004,-46.544001765559706
-0.13770000000000016,-46.67132578254756
-0.13870000000000005,-46.88353247752732
-0.13970000000000016,-47.32209298048547
-0.14070000000000005,-47.67577080545174
-0.14170000000000016,-47.8879775004315
-0.14270000000000005,-48.029448630417996
-0.14370000000000016,-48.2840966643937
-0.14470000000000005,-48.63777448935996
-0.14570000000000016,-48.89242252333566
-0.14670000000000005,-49.118776331314066
-0.14770000000000016,-49.28854168729788
-0.14870000000000005,-49.59977817326819
-0.14970000000000017,-50.0807800152223
-0.15070000000000006,-50.46275206618586
-0.15170000000000017,-50.64666453516831
-0.15270000000000006,-50.68910587416426
-0.15370000000000017,-50.90131256914402
-0.15470000000000006,-51.17010771611838
-0.15570000000000017,-51.46719708909004
-0.15670000000000006,-51.73599223606439
-0.15770000000000017,-51.948198931044146
-0.15870000000000006,-52.30187675601041
-0.15970000000000018,-52.59896612898206
-0.16070000000000007,-52.91020261495237
-0.16170000000000018,-52.995085292944275
-0.16270000000000007,-53.079967970936174
-0.16370000000000018,-53.518528473894335
-0.16470000000000007,-53.999530315848446
-0.16570000000000018,-54.35320814081471
-0.16670000000000007,-54.43809081880661
-0.16770000000000018,-54.35320814081471
-0.16870000000000007,-54.480532157802564
-0.16970000000000018,-54.834209982768826
-0.17070000000000007,-55.21618203373238
-0.17170000000000019,-55.484977180706736
-0.17270000000000008,-55.7820665536784
-0.1737000000000002,-56.13574437864466
-0.17470000000000008,-56.44698086461496
-0.1757000000000002,-56.70162889859067
-0.17670000000000008,-56.786511576582576
-0.1777000000000002,-56.927982706569075
-0.17870000000000008,-57.26751341853669
-0.1797000000000002,-57.66363258249889
-0.18070000000000008,-58.017310407465146
-0.1817000000000002,-58.14463442445301
-0.18270000000000008,-58.27195844144086
-0.1837000000000002,-58.54075358841522
-0.1847000000000001,-58.97931409137338
-0.1857000000000002,-59.403727481332886
-0.1867000000000001,-59.6300812893113
-0.1877000000000002,-59.757405306299155
-0.1887000000000001,-60.02620045327351
-0.1897000000000002,-60.40817250423707
-0.1907000000000001,-60.761850329203334
-0.1917000000000001,-60.889174346191176
-0.19269999999999998,-60.93161568518713
-0.1937000000000001,-61.15796949316553
-0.19469999999999998,-61.53994154412909
-0.1957000000000001,-61.89361936909536
-0.19669999999999999,-62.11997317707376
-0.1977000000000001,-62.28973853305756
-0.1987,-62.544386567033264
-0.1997000000000001,-62.94050573099548
-0.2007,-63.3366248949577
-0.2017000000000001,-63.59127292893339
-0.2027,-63.732744058919906
-0.2037000000000001,-63.98739209289561
-0.2047,-64.29862857886593
-0.2057000000000001,-64.55327661284163
-0.2067,-64.77963042082003
-0.2077000000000001,-64.99183711579978
-0.2087,-65.4728389577539
-0.2097000000000001,-65.99628213870396
-0.2107,-66.25093017267966
-0.2117000000000001,-66.16604749468777
-0.2127,-66.03872347769992
-0.2137000000000001,-66.47728398065809
-0.2147,-67.21293385658788
-0.2157000000000001,-67.82125971552985
-0.2167,-68.17493754049613
-0.21770000000000012,-68.17493754049613
-0.2187,-68.0900548625042
-0.21970000000000012,-68.21737887949207
-0.2207,-68.52861536546239
-0.22170000000000012,-68.91058741642594
-0.2227,-69.26426524139221
-0.22370000000000012,-69.61794306635846
-0.2247,-69.95747377832606
-0.22570000000000012,-70.22626892530042
-0.2267,-70.39603428128423
-0.22770000000000012,-70.57994675026669
-0.22870000000000001,-70.79215344524643
-0.22970000000000013,-71.0043601402262
-0.23070000000000002,-71.44292064318435
-0.23170000000000013,-71.92392248513846
-0.23270000000000002,-72.27760031010472
-0.23370000000000013,-72.67371947406694
-0.23470000000000002,-73.01325018603454
-0.23570000000000013,-73.15472131602105
-0.23670000000000002,-73.32448667200485
-0.2376999999999999,-73.53669336698461
-0.23870000000000002,-73.8479298529549
-0.2396999999999999,-74.14501922592657
-0.24070000000000003,-74.41381437290093
-0.24169999999999991,-74.66846240687663
-0.24270000000000003,-75.1070229098348
-0.24369999999999992,-75.77193722077136
-0.24470000000000003,-76.23879194972683
-0.24569999999999992,-76.42270441870929
-0.24670000000000003,-76.42270441870929
-0.24769999999999992,-76.33782174071737
-0.24870000000000003,-76.5924697746931
-0.24969999999999992,-77.0734716166472
-0.25070000000000003,-77.59691479759726
-0.2516999999999999,-77.99303396155948
-0.25270000000000004,-78.24768199553519
-0.2536999999999999,-78.47403580351359
-0.25470000000000004,-78.77112517648524
-0.2556999999999999,-78.99747898446365
-0.25670000000000004,-79.16724434044745
-0.25769999999999993,-79.16724434044745
-0.25870000000000004,-79.37945103542721
-0.25969999999999993,-79.94533555537322
-0.26070000000000004,-80.52536718831789
-0.26169999999999993,-80.7800152222936
-0.26270000000000004,-80.82245656128954
-0.26369999999999993,-80.9497805782774
-0.26470000000000005,-81.3458997422396
-0.26569999999999994,-81.82690158419373
-0.26670000000000005,-82.13813807016405
-0.26769999999999994,-82.30790342614785
-0.26870000000000005,-82.47766878213164
-0.26969999999999994,-82.70402259011003
-0.27070000000000005,-82.95867062408576
-0.27169999999999994,-83.31234844905201
-0.27270000000000005,-83.66602627401826
-0.27369999999999994,-84.00555698598588
-0.27470000000000006,-84.35923481095215
-0.27569999999999995,-84.61388284492786
-0.27670000000000006,-84.75535397491434
-0.27769999999999995,-84.7977953139103
-0.27870000000000006,-85.01000200889004
-0.27969999999999995,-85.44856251184822
-0.28070000000000006,-85.92956435380233
-0.28169999999999995,-86.18421238777805
-0.28270000000000006,-86.36812485676049
-0.28369999999999995,-86.5378902127443
-0.28470000000000006,-86.84912669871461
-0.28569999999999995,-87.14621607168625
-0.28670000000000007,-87.33012854066871
-0.28769999999999996,-87.54233523564847
-0.28870000000000007,-88.02333707760259
-0.28969999999999996,-88.5892215975486
-0.29070000000000007,-88.9853407615108
-0.29169999999999996,-89.11266477849867
-0.29270000000000007,-89.11266477849867
-0.29369999999999996,-89.23998879548651
-0.2947000000000001,-89.55122528145681
-0.29569999999999996,-89.94734444541903
-0.2967000000000001,-90.32931649638259
-0.29769999999999996,-90.59811164335694
-0.2987000000000001,-90.81031833833671
-0.29969999999999997,-91.12155482430701
-0.3007000000000001,-91.29132018029082
-0.30169999999999997,-91.46108553627462
-0.3027000000000001,-91.64499800525708
-0.30369999999999997,-91.98452871722468
-0.3047000000000001,-92.4655305591788
-0.30569999999999997,-92.86164972314101
-0.3067000000000001,-93.08800353111941
-0.3077,-93.21532754810727
-0.3087000000000001,-93.30021022609918
-0.3097,-93.61144671206948
-0.3107000000000001,-93.82365340704924
-0.3117,-93.99341876303303
-0.3127000000000001,-94.17733123201549
-0.3137,-94.47442060498715
-0.3147000000000001,-94.8280984299534
-0.3157,-95.12518780292505
-0.3167000000000001,-95.30910027190752
-0.3177,-95.39398294989942
-0.3187000000000001,-95.52130696688728
-0.3197,-95.79010211386164
-0.3207000000000001,-96.12963282582925
-0.3217,-96.31354529481169
-0.3227000000000001,-96.3984279728036
-0.3237,-96.61063466778336
-0.3247000000000001,-96.92187115375367
-0.3257,-97.21896052672531
-0.3267000000000001,-97.36043165671182
-0.3277,-97.36043165671182
-0.3287000000000001,-97.53019701269562
-0.3297,-97.88387483766188
-0.3307000000000001,-98.09608153264163
-0.3317,-98.09608153264163
-0.3327000000000001,-98.01119885464975
-0.3337,-98.09608153264163
-0.3347000000000001,-98.4497593576079
-0.3357,-98.7044073915836
-0.3367000000000001,-98.7892900695755
-0.3377,-98.7892900695755
-0.3387000000000001,-98.88831986056607
-0.3397,-99.14296789454177
-0.3407000000000001,-99.27029191152963
-0.3417,-99.31273325052557
-0.3427000000000001,-99.27029191152963
-0.3437,-99.41176304151614
-0.3447000000000001,-99.62396973649588
-0.3457,-99.83617643147564
-0.3467000000000001,-99.83617643147564
-0.3477,-99.7937350924797
-0.3487000000000001,-99.75129375348374
-0.3497,-99.87861777047159
-0.3507000000000001,-100.06253023945405
-0.3517,-100.10497157844999
-0.3527000000000001,-99.97764756146215
-0.3537,-99.93520622246619
-0.3547000000000001,-100.02008890045809
-0.3557,-100.18985425644189
-0.35670000000000013,-100.14741291744595
-0.3577,-100.06253023945405
-0.35870000000000013,-100.02008890045809
-0.3597,-100.10497157844999
-0.36070000000000013,-100.14741291744595
-0.3617,-99.97764756146215
-0.3626999999999999,-99.70885241448778
-0.3637,-99.66641107549184
-0.3646999999999999,-99.75129375348374
-0.3657,-99.75129375348374
-0.3666999999999999,-99.62396973649588
-0.3677,-99.45420438051207
-0.3686999999999999,-99.41176304151614
-0.36970000000000003,-99.35517458952152
-0.3706999999999999,-99.27029191152963
-0.37170000000000003,-99.10052655554581
-0.3726999999999999,-98.83173140857146
-0.37370000000000003,-98.7044073915836
-0.3746999999999999,-98.66196605258766
-0.37570000000000003,-98.57708337459576
-0.3766999999999999,-98.40731801861195
-0.37770000000000004,-98.18096421063355
-0.3786999999999999,-98.01119885464975
-0.37970000000000004,-97.96875751565379
-0.3806999999999999,-97.92631617665783
-0.38170000000000004,-97.74240370767538
-0.38269999999999993,-97.44531433470372
-0.38370000000000004,-97.00675383174556
-0.38469999999999993,-96.87942981475771
-0.38570000000000004,-96.87942981475771
-0.38669999999999993,-96.79454713676581
-0.38770000000000004,-96.61063466778336
-0.38869999999999993,-96.31354529481169
-0.38970000000000005,-96.0871914868333
-0.39069999999999994,-95.87498479185354
-0.39170000000000005,-95.60618964487918
-0.39269999999999994,-95.35154161090348
-0.39370000000000005,-95.26665893291157
-0.39469999999999994,-95.22421759391563
-0.39570000000000005,-95.08274646392913
-0.39669999999999994,-94.70077441296557
-0.39770000000000005,-94.30465524900335
-0.39869999999999994,-94.21977257101145
-0.39970000000000006,-94.38953792699526
-0.40069999999999995,-94.4319792659912
-0.40170000000000006,-94.07830144102493
-0.40269999999999995,-93.61144671206948
-0.40370000000000006,-93.30021022609918
-0.40469999999999995,-93.17288620911131
-0.40570000000000006,-93.08800353111941
-0.40669999999999995,-92.98897374012887
-0.40770000000000006,-92.86164972314101
-0.40869999999999995,-92.73432570615316
-0.40970000000000006,-92.6918843671572
-0.41069999999999995,-92.6918843671572
-0.41170000000000007,-92.6070016891653
-0.41269999999999996,-92.3806478811869
-0.41370000000000007,-92.25332386419905
-0.41469999999999996,-92.33820654219093
-0.41570000000000007,-92.3806478811869
-0.41669999999999996,-92.29576520319499
-0.41770000000000007,-92.08355850821525
-0.41869999999999996,-92.04111716921928
-0.4197000000000001,-92.12599984721119
-0.42069999999999996,-92.25332386419905
-0.4217000000000001,-92.2108825252031
-0.42269999999999996,-92.12599984721119
-0.4237000000000001,-92.12599984721119
-0.42469999999999997,-92.3806478811869
-0.4257000000000001,-92.56456035016936
-0.42669999999999997,-92.4655305591788
-0.4277000000000001,-92.33820654219093
-0.42869999999999997,-92.3806478811869
-0.4297000000000001,-92.64944302816124
-0.43069999999999997,-92.98897374012887
-0.4317000000000001,-93.17288620911131
-0.4327,-93.30021022609918
-0.4337000000000001,-93.46997558208298
-0.4347,-93.78121206805329
-0.4357000000000001,-94.17733123201549
-0.4367,-94.4319792659912
-0.4377000000000001,-94.601744621975
-0.4387,-94.8280984299534
-0.4397000000000001,-95.04030512493317
-0.4407,-95.35154161090348
-0.4417000000000001,-95.64863098387512
-0.4427,-95.95986746984543
-0.4437000000000001,-96.4833106507955
-0.4447,-97.00675383174556
-0.4457000000000001,-97.36043165671182
-0.4467,-97.61507969068752
-0.4477000000000001,-97.84143349866595
-0.4487,-98.2234055496295
-0.4497000000000001,-98.7892900695755
-0.4507,-99.45420438051207
-0.4517000000000001,-99.83617643147564
-0.4527,-100.23229559543785
-0.4537000000000001,-100.88306279337576
-0.4547,-101.6753011213002
-0.4557000000000001,-102.36850965823406
-0.4567,-102.93439417818009
-0.4577000000000001,-103.28807200314633
-0.4587,-103.76907384510045
-0.4597000000000001,-104.3773997040424
-0.4607,-105.02816690198033
-0.4617000000000001,-105.63649276092228
-0.4627,-106.30140707185885
-0.4637000000000001,-107.07949828678463
-0.4647,-107.99906063169689
-0.4657000000000001,-108.83374029861727
-0.4667,-109.35718347956733
-0.4677000000000001,-109.73915553053091
-0.4687,-110.40406984146746
-0.4697000000000001,-111.3094850733811
-0.4707,-112.44125411327312
-0.4717000000000001,-113.36081645818538
-0.4727,-114.0115836561233
-0.4737000000000001,-114.67649796705987
-0.4747,-115.45458918198564
-0.4757000000000001,-116.24682750991008
-0.4767,-117.15224274182368
-0.4777000000000001,-118.02936374774
-0.4787,-118.99136743164823
-0.4797000000000001,-119.99581245455242
-0.4807,-120.9153747994647
-0.48170000000000013,-121.73590735338641
-0.4827,-122.52814568131083
-0.48370000000000013,-123.43356091322445
-0.4847,-124.52288861412055
-0.48570000000000013,-125.44245095903281
-0.4867,-125.00389045607463
-0.48570000000000013,-122.69791103729463
-0.4847,-120.9153747994647
-0.48370000000000013,-119.55725195159425
-0.4827,-118.11424642573192
-0.48170000000000013,-116.54391688288172
-0.4807,-114.88870466203963
-0.4797000000000001,-113.40325779718134
-0.4787,-112.18660607929739
-0.4777000000000001,-111.01239570040943
-0.4767,-109.69671419153494
-0.4757000000000001,-108.3102971176672
-0.4747,-106.99461560879273
-0.4737000000000001,-105.82040522990474
-0.4727,-104.77351886800463
-0.4717000000000001,-103.68419116710854
-0.4707,-102.36850965823406
-0.4697000000000001,-101.15185794035013
-0.4687,-99.97764756146215
-0.4677000000000001,-98.7892900695755
-0.4667,-97.61507969068752
-0.4657000000000001,-96.3984279728036
-0.4647,-95.30910027190752
-0.4637000000000001,-94.38953792699526
-0.4627,-93.30021022609918
-0.4617000000000001,-91.98452871722468
-0.4607,-90.7254356603448
