Potential V vs RHE, Current mA cm-2
0.013299999999999867,-0.14048083207659814
0.012299999999999978,-0.9789802195066053
0.011299999999999866,-1.4783733083589634
0.010299999999999976,-1.8122451751271118
0.009299999999999864,-2.044257828304978
0.008299999999999974,-2.2126084729889177
0.007299999999999862,-2.385203251572452
0.006299999999999972,-2.552139184956526
0.00529999999999986,-2.6851220471438397
0.0042999999999999705,-2.791225394633717
0.0032999999999998586,-2.8732786500258896
0.0022999999999999687,-2.968064307116847
0.0012999999999998568,-3.08690005630551
0.00029999999999996696,-3.178856290796737
-0.000700000000000145,-3.2510065670898545
-0.0017000000000000348,-3.314668575583781
-0.0027000000000001467,-3.3839894292771677
-0.0037000000000000366,-3.4830192202677206
-0.0047000000000001485,-3.562243053060162
-0.005700000000000038,-3.6145873711551686
-0.00670000000000015,-3.669761111849905
-0.00770000000000004,-3.733423120343832
-0.008700000000000152,-3.823964643535194
-0.009700000000000042,-3.9088473215270967
-0.010700000000000154,-3.965435773521698
-0.011700000000000044,-4.007877112517649
-0.012700000000000156,-4.070124409711711
-0.013700000000000045,-4.145104108604558
-0.014700000000000157,-4.23281620919619
-0.015700000000000047,-4.282331104691466
-0.01670000000000016,-4.3205283097878215
-0.01770000000000005,-4.388434452181344
-0.01870000000000016,-4.469072996273651
-0.01970000000000005,-4.552540962965688
-0.020700000000000163,-4.60629999236056
-0.021700000000000053,-4.645911908756781
-0.022700000000000164,-4.7138180511503025
-0.023700000000000054,-4.801530151741935
-0.024700000000000166,-4.8849981184339715
-0.025700000000000056,-4.945830704328168
-0.026700000000000168,-4.98827204332412
-0.027700000000000058,-5.050519340518181
-0.02870000000000017,-5.142475575009408
-0.02970000000000006,-5.2259435417014455
-0.03070000000000017,-5.285361416295777
-0.03170000000000006,-5.3306321778914585
-0.03270000000000017,-5.40419716548444
-0.03370000000000006,-5.5018122451751275
-0.034700000000000175,-5.59518319096622
-0.035700000000000065,-5.668748178559202
-0.03670000000000018,-5.722507207954074
-0.03770000000000007,-5.77485152604908
-0.03870000000000018,-5.8752960283394975
-0.03970000000000007,-5.96583755153086
-0.04070000000000018,-6.039402539123842
-0.04170000000000007,-6.098820413718173
-0.04270000000000018,-6.169555978711425
-0.04370000000000007,-6.274244614901438
-0.044700000000000184,-6.37327440589199
-0.045700000000000074,-6.442595259585377
-0.046700000000000186,-6.510501401978899
-0.047700000000000076,-6.579822255672285
-0.04870000000000019,-6.690169737061758
-0.04970000000000008,-6.7934436619519065
-0.05070000000000019,-6.864179226945158
-0.05170000000000008,-6.9320853693386795
-0.05270000000000019,-7.011309202131122
-0.05370000000000008,-7.117412549621
-0.05470000000000019,-7.227760031010472
-0.05570000000000008,-7.301325018603455
-0.056700000000000195,-7.36781644969711
-0.057700000000000085,-7.448454993789417
-0.058700000000000196,-7.548899496079835
-0.059700000000000086,-7.669149956568364
-0.0607000000000002,-7.746959078060941
-0.06170000000000009,-7.824768199553517
-0.0627000000000002,-7.9082361662455565
-0.06370000000000009,-8.018583647635028
-0.0647000000000002,-8.127516417724635
-0.06570000000000009,-8.213813807016404
-0.0667000000000002,-8.270402259011005
-0.0677000000000001,-8.355284937002907
-0.0687000000000002,-8.458558861893053
-0.0697000000000001,-8.567491631982662
-0.07070000000000021,-8.65944786647389
-0.0717000000000001,-8.731598142767007
-0.07270000000000021,-8.823554377258235
-0.0737000000000001,-8.933901858647706
-0.07470000000000021,-9.04424934003718
-0.0757000000000001,-9.137620285828271
-0.07670000000000021,-9.205526428221793
-0.0777000000000001,-9.297482662713021
-0.07870000000000021,-9.412074278002088
-0.0797000000000001,-9.528080604591022
-0.08070000000000022,-9.618622127782384
-0.0817000000000001,-9.68794298147577
-0.08270000000000022,-9.761507969068754
-0.08370000000000011,-9.87892900695755
-0.08470000000000022,-9.994935333546485
-0.08570000000000011,-10.091135701937308
-0.08670000000000022,-10.170359534729748
-0.08770000000000011,-10.248168656222326
-0.08870000000000022,-10.386810363609099
-0.08970000000000011,-10.521207937096278
-0.09070000000000022,-10.573552255191283
-0.09170000000000011,-10.635799552385345
-0.09270000000000023,-10.723511652976978
-0.09370000000000012,-10.835273845666316
-0.09470000000000023,-10.96259786265417
-0.09570000000000012,-11.043236406746477
-0.09670000000000023,-11.104068992640675
-0.09770000000000012,-11.176219268933789
-0.09870000000000023,-11.286566750323264
-0.09970000000000012,-11.419549612510576
-0.10070000000000023,-11.519994114800994
-0.10170000000000012,-11.58931496849438
-0.10270000000000024,-11.674197646486283
-0.10370000000000013,-11.776056860076565
-0.10470000000000024,-11.887819052765904
-0.10570000000000013,-11.96845759685821
-0.10670000000000024,-12.03070489405227
-0.10770000000000013,-12.122661128543498
-0.10870000000000024,-12.254229279430946
-0.10970000000000013,-12.382968007718665
-0.11070000000000024,-12.481997798709218
-0.11170000000000013,-12.534342116804225
-0.11270000000000002,-12.62063950609599
-0.11370000000000013,-12.722498719686275
-0.11470000000000002,-12.849822736674128
-0.11570000000000014,-12.957340795463871
-0.11670000000000003,-13.028076360457122
-0.11770000000000014,-13.104470770649836
-0.11870000000000003,-13.221891808538631
-0.11970000000000014,-13.329409867328376
-0.12070000000000003,-13.422780813119468
-0.12170000000000014,-13.492101666812855
-0.12270000000000003,-13.567081365705702
-0.12370000000000014,-13.654793466297335
-0.12470000000000003,-13.767970370286537
-0.12570000000000014,-13.872659006476551
-0.12670000000000003,-13.978762353966427
-0.12770000000000015,-14.050912630259544
-0.12870000000000004,-14.161260111649016
-0.12970000000000015,-14.274437015638219
-0.13070000000000004,-14.373466806628771
-0.13170000000000015,-14.458349484620674
-0.13270000000000004,-14.529085049613924
-0.13370000000000015,-14.62811484060448
-0.13470000000000004,-14.769585970590983
-0.13570000000000015,-14.882762874580186
-0.13670000000000004,-14.953498439573437
-0.13770000000000016,-15.03838111756534
-0.13870000000000005,-15.137410908555893
-0.13970000000000016,-15.250587812545096
-0.14070000000000005,-15.335470490536997
-0.14170000000000016,-15.406206055530248
-0.14270000000000005,-15.491088733522153
-0.14370000000000016,-15.618412750510005
-0.14470000000000005,-15.77403099349516
-0.14570000000000016,-15.88720789748436
-0.14670000000000005,-15.943796349478962
-0.14770000000000016,-16.02867902747086
-0.14870000000000005,-16.141855931460068
-0.14970000000000017,-16.28332706144657
-0.15070000000000006,-16.410651078434423
-0.15170000000000017,-16.481386643427676
-0.15270000000000006,-16.56626932141958
-0.15370000000000017,-16.679446225408782
-0.15470000000000006,-16.792623129397985
-0.15570000000000017,-16.90580003338719
-0.15670000000000006,-17.00482982437774
-0.15770000000000017,-17.103859615368293
-0.15870000000000006,-17.2453307453548
-0.15970000000000018,-17.37265476234265
-0.16070000000000007,-17.499978779330505
-0.16170000000000018,-17.570714344323754
-0.16270000000000007,-17.655597022315657
-0.16370000000000018,-17.797068152302163
-0.16470000000000007,-17.952686395287316
-0.16570000000000018,-18.08001041227517
-0.16670000000000007,-18.207334429263025
-0.16770000000000018,-18.292217107254928
-0.16870000000000007,-18.40539401124413
-0.16970000000000018,-18.561012254229283
-0.17070000000000007,-18.702483384215785
-0.17170000000000019,-18.829807401203638
-0.17270000000000008,-18.91469007919554
-0.1737000000000002,-19.042014096183394
-0.17470000000000008,-19.211779452167196
-0.1757000000000002,-19.353250582153702
-0.17670000000000008,-19.466427486142905
-0.1777000000000002,-19.593751503130758
-0.17870000000000008,-19.721075520118614
-0.1797000000000002,-19.890840876102416
-0.18070000000000008,-20.03231200608892
-0.1817000000000002,-20.14548891007812
-0.18270000000000008,-20.25866581406732
-0.1837000000000002,-20.38598983105518
-0.1847000000000001,-20.541608074040333
-0.1857000000000002,-20.69722631702549
-0.1867000000000001,-20.810403221014692
-0.1877000000000002,-20.93772723800254
-0.1887000000000001,-21.107492593986347
-0.1897000000000002,-21.291405062968803
-0.1907000000000001,-21.47531753195126
-0.1917000000000001,-21.58849443594046
-0.19269999999999998,-21.701671339929664
-0.1937000000000001,-21.857289582914817
-0.19469999999999998,-22.027054938898623
-0.1957000000000001,-22.196820294882425
-0.19669999999999999,-22.36658565086623
-0.1977000000000001,-22.493909667854084
-0.1987,-22.63538079784059
-0.1997000000000001,-22.819293266823045
-0.2007,-23.031499961802798
-0.2017000000000001,-23.15882397879065
-0.2027,-23.257853769781203
-0.2037000000000001,-23.399324899767706
-0.2047,-23.56909025575151
-0.2057000000000001,-23.781296950731264
-0.2067,-23.93691519371642
-0.2077000000000001,-24.050092097705623
-0.2087,-24.191563227692125
-0.2097000000000001,-24.34718147067728
-0.2107,-24.531093939659737
-0.2117000000000001,-24.71500640864219
-0.2127,-24.898918877624645
-0.2137000000000001,-25.054537120609798
-0.2147,-25.295038041586857
-0.2157000000000001,-25.49309762356796
-0.2167,-25.620421640555815
-0.21770000000000012,-25.761892770542314
-0.2187,-25.90336390052882
-0.21970000000000012,-26.087276369511276
-0.2207,-26.242894612496432
-0.22170000000000012,-26.398512855481584
-0.2227,-26.539983985468087
-0.22370000000000012,-26.723896454450543
-0.2247,-26.907808923433
-0.22570000000000012,-27.1058685054141
-0.2267,-27.275633861397907
-0.22770000000000012,-27.40295787838576
-0.22870000000000001,-27.544429008372262
-0.22970000000000013,-27.714194364356068
-0.23070000000000002,-27.883959720339874
-0.23170000000000013,-28.039577963325023
-0.23270000000000002,-28.166901980312883
-0.23370000000000013,-28.294225997300735
-0.23470000000000002,-28.463991353284538
-0.23570000000000013,-28.577168257273744
-0.23670000000000002,-28.662050935265643
-0.2376999999999999,-28.775227839254843
-0.23870000000000002,-28.91669896924135
-0.2396999999999999,-29.086464325225155
-0.24070000000000003,-29.22793545521166
-0.24169999999999991,-29.35525947219951
-0.24270000000000003,-29.42599503719276
-0.24369999999999992,-29.510877715184666
-0.24470000000000003,-29.63820173217252
-0.24569999999999992,-29.76552574916037
-0.24670000000000003,-29.864555540150924
-0.24769999999999992,-29.921143992145527
-0.24870000000000003,-30.02017378313608
-0.24969999999999992,-30.10505646112798
-0.25070000000000003,-30.204086252118536
-0.2516999999999999,-30.260674704113132
-0.25270000000000004,-30.317263156107735
-0.2536999999999999,-30.387998721100992
-0.25470000000000004,-30.444587173095588
-0.2556999999999999,-30.50117562509019
-0.25670000000000004,-30.55776407708479
-0.25769999999999993,-30.58605830308209
-0.25870000000000004,-30.571911190083444
-0.25969999999999993,-30.62849964207804
-0.26070000000000004,-30.685088094072643
-0.26169999999999993,-30.670940981073993
-0.26270000000000004,-30.600205416080744
-0.26369999999999993,-30.58605830308209
-0.26470000000000005,-30.54361696408614
-0.26569999999999994,-30.487028512091538
-0.26670000000000005,-30.43044006009694
-0.26769999999999994,-30.317263156107735
-0.26870000000000005,-30.274821817111786
-0.26969999999999994,-30.232380478115836
-0.27070000000000005,-30.161644913122586
-0.27169999999999994,-30.03432089613473
-0.27270000000000005,-29.892849766148224
-0.27369999999999994,-29.779672862159025
-0.27470000000000006,-29.66649595816982
-0.27569999999999995,-29.525024828183312
-0.27670000000000006,-29.369406585198163
-0.27769999999999995,-29.213788342213007
-0.27870000000000006,-29.058170099227848
-0.27969999999999995,-28.9025518562427
-0.28070000000000006,-28.775227839254843
-0.28169999999999995,-28.633756709268344
-0.28270000000000006,-28.435697127287238
-0.28369999999999995,-28.209343319308836
-0.28470000000000006,-28.02543085032638
-0.28569999999999995,-27.855665494342567
-0.28670000000000007,-27.700047251357418
-0.28769999999999996,-27.473693443379013
-0.28870000000000007,-27.275633861397907
-0.28969999999999996,-27.14830984441005
-0.29070000000000007,-26.97854448842625
-0.29169999999999996,-26.752190680447846
-0.29270000000000007,-26.55413109846674
-0.29369999999999996,-26.313630177489685
-0.2947000000000001,-26.129717708507226
-0.29569999999999996,-25.959952352523427
-0.2967000000000001,-25.846775448534224
-0.29769999999999996,-25.73359854454502
-0.2987000000000001,-25.563833188561212
-0.29969999999999997,-25.39406783257741
-0.3007000000000001,-25.266743815589557
-0.30169999999999997,-25.09697845960575
-0.3027000000000001,-24.95550732961925
-0.30369999999999997,-24.828183312631392
-0.3047000000000001,-24.74330063463949
-0.30569999999999997,-24.65841795664759
-0.3067000000000001,-24.545241052658387
-0.3077,-24.432064148669184
-0.3087000000000001,-24.36132858367593
-0.3097,-24.304740131681328
-0.3107000000000001,-24.290593018682678
-0.3117,-24.23400456668808
-0.3127000000000001,-24.20571034069078
-0.3137,-24.149121888696175
-0.3147000000000001,-24.16326900169483
-0.3157,-24.191563227692125
-0.3167000000000001,-24.23400456668808
-0.3177,-24.21985745368943
-0.3187000000000001,-24.20571034069078
-0.3197,-24.23400456668808
-0.3207000000000001,-24.31888724467998
-0.3217,-24.40376992267188
-0.3227000000000001,-24.460358374666487
-0.3237,-24.516946826661083
-0.3247000000000001,-24.630123730650286
-0.3257,-24.771594860636792
-0.3267000000000001,-24.898918877624645
-0.3277,-24.997948668615198
-0.3287000000000001,-25.153566911600354
-0.3297,-25.323332267584156
-0.3307000000000001,-25.507244736566612
-0.3317,-25.677010092550415
-0.3327000000000001,-25.81848122253692
-0.3337,-25.988246578520723
-0.3347000000000001,-26.20045327350048
-0.3357,-26.440954194477534
-0.3367000000000001,-26.681455115454593
-0.3377,-26.89366181043435
-0.3387000000000001,-27.134162731411404
-0.3397,-27.38881076538711
-0.3407000000000001,-27.65760591236147
-0.3417,-27.940548172334477
-0.3427000000000001,-28.19519620631018
-0.3437,-28.44984424028589
-0.3447000000000001,-28.746933613257543
-0.3457,-29.058170099227848
-0.3467000000000001,-29.369406585198163
-0.3477,-29.66649595816982
-0.3487000000000001,-29.949438218142824
-0.3497,-30.246527591114486
-0.3507000000000001,-30.58605830308209
-0.3517,-30.939736128048356
-0.3527000000000001,-31.27926684001596
-0.3537,-31.604650438984915
-0.3547000000000001,-31.986622489948477
-0.3557,-32.42518299290664
-0.35670000000000013,-32.79300793087155
-0.3577,-33.09009730384321
-0.35870000000000013,-33.48621646780542
-0.3597,-33.86818851876898
-0.36070000000000013,-34.278454795729836
-0.3617,-34.8301922026772
-0.3626999999999999,-35.254605592636715
-0.3637,-35.594136304604326
-0.3646999999999999,-35.94781412957058
-0.3657,-36.3439332935328
-0.3666999999999999,-36.81078802248826
-0.3677,-37.26349563844507
-0.3686999999999999,-37.702056141403226
-0.36970000000000003,-38.197205096355994
-0.3706999999999999,-38.607471373316855
-0.37170000000000003,-39.10262032826961
-0.3726999999999999,-39.58362217022373
-0.37370000000000003,-40.07877112517649
-0.3746999999999999,-40.602214306126555
-0.37570000000000003,-41.168098826072566
-0.3766999999999999,-41.649100668026676
-0.37770000000000004,-42.158396735978094
-0.3786999999999999,-42.653545690930855
-0.37970000000000004,-43.19113598487957
-0.3806999999999999,-43.72872627882828
-0.38170000000000004,-44.3229050247716
-0.38269999999999993,-44.86049531872031
-0.38370000000000004,-45.39808561266902
-0.38469999999999993,-45.97811724561369
-0.38570000000000004,-46.586443104555656
-0.38669999999999993,-45.89323456762179
-0.38570000000000004,-44.36534636376755
-0.38469999999999993,-43.27601866287147
-0.38370000000000004,-42.34230920496055
-0.38269999999999993,-41.46518819904423
-0.38170000000000004,-40.602214306126555
-0.3806999999999999,-39.78168175220483
-0.37970000000000004,-38.96114919828311
-0.3786999999999999,-38.22549932235329
-0.37770000000000004,-37.53229078541942
-0.3766999999999999,-36.86737647448285
-0.37570000000000003,-36.16002082455034
-0.3746999999999999,-35.396076722623214
-0.37370000000000003,-34.6887210726907
-0.3726999999999999,-33.99551253575683
-0.37170000000000003,-33.316451111821614
-0.3706999999999999,-32.7222723658783
-0.36970000000000003,-32.05735805494172
-0.3686999999999999,-31.30756106601326
-0.3677,-30.685088094072643
-0.3666999999999999,-30.11920357412663
-0.3657,-29.510877715184666
-0.3646999999999999,-28.88840474324405
-0.3637,-28.280078884302082
-0.3626999999999999,-27.700047251357418
-0.3617,-27.134162731411404
-0.36070000000000013,-26.568278211465387
-0.3597,-26.002393691519377
-0.35870000000000013,-25.46480339757066
-0.3577,-24.95550732961925
-0.35670000000000013,-24.432064148669184
-0.3557,-23.894473854720466
-0.3547000000000001,-23.356883560771752
-0.3537,-22.87588171881764
-0.3527000000000001,-22.46561544185678
-0.3517,-21.97046648690402
-0.3507000000000001,-21.418729079956652
-0.3497,-20.923580125003895
-0.3487000000000001,-20.47087250904708
-0.3477,-20.01816489309027
-0.3467000000000001,-19.593751503130758
-0.3457,-19.126896774175293
-0.3447000000000001,-18.645894932221182
-0.3437,-18.221481542261674
-0.3427000000000001,-17.839509491298113
-0.3417,-17.429243214337255
-0.3407000000000001,-17.03312405037504
-0.3397,-16.60871066041553
-0.3387000000000001,-16.184297270456018
-0.3377,-15.830619445489761
-0.3367000000000001,-15.448647394526201
-0.3357,-15.06667534356264
-0.3347000000000001,-14.684703292599082
-0.3337,-14.316878354634172
-0.3327000000000001,-13.970274086167239
-0.3317,-13.622255106400438
-0.3307000000000001,-13.274236126633639
-0.3297,-12.91207003386819
-0.3287000000000001,-12.56405105410139
-0.3277,-12.254229279430946
-0.3267000000000001,-11.947236927360233
-0.3257,-11.611950349292222
-0.3247000000000001,-11.254028390426367
-0.3237,-10.942791904456058
-0.3227000000000001,-10.678240891381297
-0.3217,-10.399542765307885
-0.3207000000000001,-10.082647434138115
-0.3197,-9.771410948167809
-0.3187000000000001,-9.472906863896286
-0.3177,-9.205526428221793
-0.3167000000000001,-8.95795195074541
-0.3157,-8.656618443874159
-0.3147000000000001,-8.349626091803447
-0.3137,-8.073757388329765
-0.3127000000000001,-7.858721270750279
-0.3117,-7.645099864470658
-0.3107000000000001,-7.394695964394547
-0.3097,-7.118827260920864
-0.3087000000000001,-6.862764515645292
-0.3077,-6.644898975466076
-0.3067000000000001,-6.435521703086052
-0.30569999999999997,-6.192191359509266
-0.3047000000000001,-5.937543325533559
-0.30369999999999997,-5.718263074054478
-0.3027000000000001,-5.5272770485726985
-0.30169999999999997,-5.334876311791054
-0.3007000000000001,-5.112766637712243
-0.29969999999999997,-4.877924561934646
-0.2987000000000001,-4.665717866954891
-0.29769999999999996,-4.476146552772976
-0.2967000000000001,-4.304966485489307
-0.29569999999999996,-4.113980460007527
-0.2947000000000001,-3.9046031876275014
-0.29369999999999996,-3.707958316946261
-0.29270000000000007,-3.543851806161917
-0.29169999999999996,-3.3783305840777076
-0.29070000000000007,-3.205735805494173
-0.28969999999999996,-3.0076762235130676
-0.28870000000000007,-2.820934331930883
-0.28769999999999996,-2.6738043567449195
-0.28670000000000007,-2.5266743815589554
-0.28569999999999995,-2.3653972933743415
-0.28470000000000006,-2.1828995356917518
-0.28369999999999995,-2.0103047571082175
-0.28270000000000006,-1.8773218949209036
-0.28169999999999995,-1.7471684553333202
-0.28070000000000006,-1.5929649236480312
-0.27969999999999995,-1.433102546763282
-0.27870000000000006,-1.2722498719686275
-0.27769999999999995,-1.1447843838507878
-0.27670000000000006,-1.0292024706518144
-0.27569999999999995,-0.8892875230951621
-0.27470000000000006,-0.7343766357599406
-0.27369999999999994,-0.5933299191633964
-0.27270000000000005,-0.46544001765559706
-0.27169999999999994,-0.37079583169462615
-0.27070000000000005,-0.24318887244679982
-0.26969999999999994,-0.09992105910946754
-0.26870000000000005,0.03171782734297412
