Potential V vs RHE, Current mA cm-2
0.013299999999999867,1.4373466806628774
0.012299999999999978,-2.532333226758415
0.011299999999999866,-6.414301033588076
0.010299999999999976,-10.120844639234473
0.009299999999999864,-13.30535977523067
0.008299999999999974,-16.962388485381787
0.007299999999999862,-20.541608074040333
0.006299999999999972,-24.516946826661083
0.00529999999999986,-28.308373110299385
0.0042999999999999705,-32.368594540912035
0.0032999999999998586,-36.47125731052064
0.0022999999999999687,-40.559772967130606
0.0012999999999998568,-44.4926703807554
0.00029999999999996696,-48.156772647405845
-0.000700000000000145,-51.73599223606439
-0.0017000000000000348,-54.876651321764776
-0.0027000000000001467,-57.66363258249889
-0.0037000000000000366,-60.23840714825326
-0.0047000000000001485,-62.72829903601572
-0.005700000000000038,-64.82207175981598
-0.00670000000000015,-67.39684632557035
-0.00770000000000004,-69.78770842234226
-0.008700000000000152,-72.67371947406694
-0.009700000000000042,-75.2484940398213
-0.010700000000000154,-78.29012333453113
-0.011700000000000044,-81.38834108123557
-0.012700000000000156,-84.57144150593189
-0.013700000000000045,-87.33012854066871
-0.014700000000000157,-90.15955114039879
-0.015700000000000047,-92.90409106213696
-0.01670000000000016,-95.26665893291157
-0.01770000000000005,-97.09163650973747
-0.01870000000000016,-98.83173140857146
-0.01970000000000005,-100.45864940341626
-0.020700000000000163,-101.76018379929208
-0.021700000000000053,-103.64174982811258
-0.022700000000000164,-105.25452070995874
-0.023700000000000054,-107.26341075576708
-0.024700000000000166,-109.35718347956733
-0.025700000000000056,-111.6207215593514
-0.026700000000000168,-114.0115836561233
-0.027700000000000058,-116.67124089986959
-0.02870000000000017,-118.76501362366983
-0.02970000000000006,-120.9153747994647
-0.03070000000000017,-123.1364715402528
-0.03170000000000006,-124.74924242209892
-0.03270000000000017,-125.96589413998288
-0.03370000000000006,-127.19669297086547
-0.034700000000000175,-128.45578602774532
-0.035700000000000065,-129.19143590367514
-0.03670000000000018,-130.50711741254963
-0.03770000000000007,-131.72376913043357
-0.03870000000000018,-133.2516573342878
-0.03970000000000007,-134.86442821613394
-0.04070000000000018,-136.74599424495443
-0.04170000000000007,-138.6982958387682
-0.04270000000000018,-140.66474454558062
-0.04370000000000007,-142.6028990263957
-0.044700000000000184,-144.30055258623375
-0.045700000000000074,-146.1396772760583
-0.046700000000000186,-147.4129174459368
-0.047700000000000076,-148.40321535584232
-0.04870000000000019,-149.1105710057749
-0.04970000000000008,-150.1008689156804
-0.05070000000000019,-150.5252823056399
-0.05170000000000008,-151.37410908555893
-0.05270000000000019,-152.0814647354914
-0.05370000000000008,-153.35470490536997
-0.05470000000000019,-154.76941620523502
-0.05570000000000008,-156.18412750510007
-0.056700000000000195,-158.02325219492457
-0.057700000000000085,-159.72090575476264
-0.058700000000000196,-161.1356170546277
-0.059700000000000086,-162.8332706144657
-0.0607000000000002,-164.24798191433075
-0.06170000000000009,-165.09680869424977
-0.0627000000000002,-165.8041643441823
-0.06370000000000009,-166.3700488641283
-0.0647000000000002,-167.07740451406085
-0.06570000000000009,-167.21887564404733
-0.0667000000000002,-167.92623129397984
-0.0677000000000001,-168.49211581392586
-0.0687000000000002,-169.6238848538179
-0.0697000000000001,-170.61418276372342
-0.07070000000000021,-171.88742293360195
-0.0717000000000001,-173.16066310348046
-0.07270000000000021,-174.85831666331853
-0.0737000000000001,-176.27302796318358
-0.07470000000000021,-177.54626813306209
-0.0757000000000001,-178.81950830294062
-0.07670000000000021,-179.52686395287316
-0.0777000000000001,-179.80980621284618
-0.07870000000000021,-180.37569073279218
-0.0797000000000001,-180.8001041227517
-0.08070000000000022,-180.8001041227517
-0.0817000000000001,-181.2245175127112
-0.08270000000000022,-181.64893090267074
-0.08370000000000011,-182.49775768258974
-0.08470000000000022,-183.34658446250873
-0.08570000000000011,-184.47835350240078
-0.08670000000000022,-185.7515936722793
-0.08770000000000011,-187.30777610213087
-0.08870000000000022,-188.58101627200938
-0.08970000000000011,-189.71278531190143
-0.09070000000000022,-190.70308322180696
-0.09170000000000011,-191.268967741753
-0.09270000000000023,-191.69338113171247
-0.09370000000000012,-191.9763233916855
-0.09470000000000023,-192.40073678164498
-0.09570000000000012,-192.11779452167198
-0.09670000000000023,-192.40073678164498
-0.09770000000000012,-192.82515017160452
-0.09870000000000023,-193.6739769515235
-0.09970000000000012,-194.38133260145605
-0.10070000000000023,-195.37163051136156
-0.10170000000000012,-196.50339955125358
-0.10270000000000024,-197.91811085111863
-0.10370000000000013,-198.90840876102413
-0.10470000000000024,-200.04017780091618
-0.10570000000000013,-201.03047571082172
-0.10670000000000024,-201.59636023076774
-0.10770000000000013,-202.02077362072723
-0.10870000000000024,-202.30371588070025
-0.10970000000000013,-202.44518701068677
-0.11070000000000024,-202.16224475071377
-0.11170000000000013,-202.44518701068677
-0.11270000000000002,-202.58665814067325
-0.11370000000000013,-203.29401379060576
-0.11470000000000002,-204.0013694405383
-0.11570000000000014,-204.7087250904708
-0.11670000000000003,-205.69902300037634
-0.11770000000000014,-207.1137343002414
-0.11870000000000003,-208.1040322101469
-0.11970000000000014,-208.95285899006592
-0.12070000000000003,-209.8016857699849
-0.12170000000000014,-210.22609915994445
-0.12270000000000003,-210.50904141991748
-0.12370000000000014,-210.65051254990397
-0.12470000000000003,-210.65051254990397
-0.12570000000000014,-210.08462802995794
-0.12670000000000003,-210.50904141991748
-0.12770000000000015,-210.50904141991748
-0.12870000000000004,-211.21639706985
-0.12970000000000015,-211.782281589796
-0.13070000000000004,-212.48963723972852
-0.13170000000000015,-213.62140627962054
-0.13270000000000004,-214.75317531951256
-0.13370000000000015,-215.88494435940459
-0.13470000000000004,-216.73377113932364
-0.13570000000000015,-217.44112678925615
-0.13670000000000004,-218.00701130920217
-0.13770000000000016,-218.14848243918865
-0.13870000000000005,-218.14848243918865
-0.13970000000000016,-218.14848243918865
-0.14070000000000005,-217.86554017921566
-0.14170000000000016,-218.14848243918865
-0.14270000000000005,-218.28995356917517
-0.14370000000000016,-218.85583808912116
-0.14470000000000005,-219.42172260906716
-0.14570000000000016,-220.1290782589997
-0.14670000000000005,-221.11937616890526
-0.14770000000000016,-222.3926163387838
-0.14870000000000005,-223.2414431187028
-0.14970000000000017,-223.9487987686353
-0.15070000000000006,-224.79762554855435
-0.15170000000000017,-225.22203893851383
-0.15270000000000006,-225.22203893851383
-0.15370000000000017,-225.22203893851383
-0.15470000000000006,-225.08056780852735
-0.15570000000000017,-224.65615441856778
-0.15670000000000006,-224.79762554855435
-0.15770000000000017,-224.79762554855435
-0.15870000000000006,-225.22203893851383
-0.15970000000000018,-225.78792345845983
-0.16070000000000007,-226.63675023837888
-0.16170000000000018,-227.4855770182979
-0.16270000000000007,-228.61734605818995
-0.16370000000000018,-229.46617283810895
-0.16470000000000007,-230.17352848804146
-0.16570000000000018,-231.0223552679605
-0.16670000000000007,-231.3052975279335
-0.16770000000000018,-231.163826397947
-0.16870000000000007,-231.0223552679605
-0.16970000000000018,-231.0223552679605
-0.17070000000000007,-230.45647074801445
-0.17170000000000019,-230.7394130079875
-0.17270000000000008,-230.7394130079875
-0.1737000000000002,-231.0223552679605
-0.17470000000000008,-231.44676865792
-0.1757000000000002,-232.15412430785253
-0.17670000000000008,-233.1444222177581
-0.1777000000000002,-233.99324899767706
-0.17870000000000008,-234.9835469075826
-0.1797000000000002,-235.83237368750162
-0.18070000000000008,-236.6812004674206
-0.1817000000000002,-236.96414272739366
-0.18270000000000008,-237.10561385738015
-0.1837000000000002,-236.82267159740715
-0.1847000000000001,-236.96414272739366
-0.1857000000000002,-236.3982582074476
-0.1867000000000001,-236.25678707746113
-0.1877000000000002,-236.25678707746113
-0.1887000000000001,-236.82267159740715
-0.1897000000000002,-237.38855611735315
-0.1907000000000001,-238.0959117672857
-0.1917000000000001,-238.94473854720468
-0.19269999999999998,-240.0765075870967
-0.1937000000000001,-240.92533436701575
-0.19469999999999998,-241.6326900169483
-0.1957000000000001,-242.62298792685377
-0.19669999999999999,-242.90593018682682
-0.1977000000000001,-242.90593018682682
-0.1987,-243.04740131681334
-0.1997000000000001,-243.04740131681334
-0.2007,-242.62298792685377
-0.2017000000000001,-242.90593018682682
-0.2027,-242.76445905684034
-0.2037000000000001,-243.3303435767863
-0.2047,-243.75475696674582
-0.2057000000000001,-244.60358374666484
-0.2067,-245.31093939659738
-0.2077000000000001,-246.4427084364894
-0.2087,-247.2915352164084
-0.2097000000000001,-247.99889086634093
-0.2107,-248.9891887762465
-0.2117000000000001,-248.9891887762465
-0.2127,-248.84771764625998
-0.2137000000000001,-248.84771764625998
-0.2147,-248.84771764625998
-0.2157000000000001,-248.42330425630044
-0.2167,-248.56477538628693
-0.21770000000000012,-248.42330425630044
-0.2187,-248.9891887762465
-0.21970000000000012,-249.69654442617897
-0.2207,-250.545371206098
-0.22170000000000012,-251.39419798601702
-0.2227,-252.38449589592256
-0.22370000000000012,-253.23332267584152
-0.2247,-254.08214945576057
-0.22570000000000012,-254.78950510569314
-0.2267,-254.93097623567962
-0.22770000000000012,-255.07244736566614
-0.22870000000000001,-255.07244736566614
-0.22970000000000013,-255.21391849565262
-0.23070000000000002,-254.78950510569314
-0.23170000000000013,-254.78950510569314
-0.23270000000000002,-254.93097623567962
-0.23370000000000013,-255.49686075562562
-0.23470000000000002,-255.92127414558513
-0.23570000000000013,-256.77010092550415
-0.23670000000000002,-257.6189277054232
-0.2376999999999999,-258.7506967453152
-0.23870000000000002,-259.7409946552208
-0.2396999999999999,-260.4483503051532
-0.24070000000000003,-261.2971770850723
-0.24169999999999991,-261.58011934504526
-0.24270000000000003,-261.7215904750318
-0.24369999999999992,-261.8630616050183
-0.24470000000000003,-261.8630616050183
-0.24569999999999992,-261.2971770850723
-0.24670000000000003,-261.4386482150588
-0.24769999999999992,-261.4386482150588
-0.24870000000000003,-262.1460038649913
-0.24969999999999992,-262.7118883849373
-0.25070000000000003,-263.56071516485633
-0.2516999999999999,-264.6924842047484
-0.25270000000000004,-265.82425324464043
-0.2536999999999999,-266.6730800245594
-0.25470000000000004,-267.6633779344649
-0.2556999999999999,-268.65367584437047
-0.25670000000000004,-268.93661810434344
-0.25769999999999993,-269.07808923433
-0.25870000000000004,-269.2195603643164
-0.25969999999999993,-269.361031494303
-0.26070000000000004,-268.93661810434344
-0.26169999999999993,-269.361031494303
-0.26270000000000004,-269.5025026242895
-0.26369999999999993,-269.926916014249
-0.26470000000000005,-270.49280053419506
-0.26569999999999994,-271.341627314114
-0.26670000000000005,-272.61486748399255
-0.26769999999999994,-273.8881076538711
-0.26870000000000005,-274.7369344337901
-0.26969999999999994,-275.7272323436957
-0.27070000000000005,-276.5760591236147
-0.27169999999999994,-277.1419436435607
-0.27270000000000005,-277.4248859035337
-0.27369999999999994,-277.56635703352015
-0.27470000000000006,-277.84929929349323
-0.27569999999999995,-277.7078281635067
-0.27670000000000006,-278.1322415534662
-0.27769999999999995,-278.4151838134392
-0.27870000000000006,-279.1225394633717
-0.27969999999999995,-279.6884239833177
-0.28070000000000006,-280.67872189322327
-0.28169999999999995,-281.9519620631018
-0.28270000000000006,-283.5081444929533
-0.28369999999999995,-284.63991353284536
-0.28470000000000006,-285.7716825727374
-0.28569999999999995,-287.04492274261594
-0.28670000000000007,-287.610807262562
-0.28769999999999996,-288.03522065252145
-0.28870000000000007,-288.3181629124945
-0.28969999999999996,-288.45963404248096
-0.29070000000000007,-288.45963404248096
-0.29169999999999996,-288.8840474324405
-0.29270000000000007,-289.1669896924135
-0.29369999999999996,-290.0158164723325
-0.2947000000000001,-290.86464325225154
-0.29569999999999996,-291.9964122921436
-0.2967000000000001,-293.55259472199515
-0.29769999999999996,-295.10877715184665
-0.2987000000000001,-296.3820173217252
-0.29969999999999997,-297.3723152316307
-0.3007000000000001,-298.6455554015092
-0.30169999999999997,-299.3529110514418
-0.3027000000000001,-299.91879557138776
-0.30369999999999997,-300.3432089613473
-0.3047000000000001,-300.9090934812933
-0.30569999999999997,-301.0505646112798
-0.3067000000000001,-301.7579202612123
-0.3077,-302.4652759111449
-0.3087000000000001,-303.4555738210504
-0.3097,-304.4458717309559
-0.3107000000000001,-305.71911190083443
-0.3117,-307.27529433068594
-0.3127000000000001,-308.8314767605375
-0.3137,-310.38765919038906
-0.3147000000000001,-311.80237049025413
-0.3157,-313.21708179011915
-0.3167000000000001,-314.20737970002466
-0.3177,-314.91473534995714
-0.3187000000000001,-315.4806198699032
-0.3197,-316.1879755198357
-0.3207000000000001,-316.47091777980876
-0.3217,-317.03680229975475
-0.3227000000000001,-317.60268681970075
-0.3237,-318.8759269895793
-0.3247000000000001,-320.00769602947133
-0.3257,-321.42240732933635
-0.3267000000000001,-323.1200608891744
-0.3277,-325.1006567089854
-0.3287000000000001,-326.79831026882346
-0.3297,-328.3544926986751
-0.3307000000000001,-329.62773286855355
-0.3317,-330.4765596484726
-0.3327000000000001,-331.3253864283916
-0.3337,-332.3156843382971
-0.3347000000000001,-333.1645111182162
-0.3357,-333.44745337818915
-0.3367000000000001,-334.2962801581082
-0.3377,-335.00363580804066
-0.3387000000000001,-336.5598182378922
-0.3397,-337.83305840777075
-0.3407000000000001,-339.2477697076358
-0.3417,-340.94542326747387
-0.3427000000000001,-343.06749021727137
-0.3437,-345.04808603708244
-0.3447000000000001,-347.0286818568935
-0.3457,-349.0092776767046
-0.3467000000000001,-350.2825178465831
-0.3477,-351.2728157564886
-0.3487000000000001,-352.26311366639413
-0.3497,-353.25341157629964
-0.3507000000000001,-353.5363538362726
-0.3517,-354.8095940061512
-0.3527000000000001,-355.9413630460432
-0.3537,-357.4975454758948
-0.3547000000000001,-359.0537279057463
-0.3557,-360.75138146558436
-0.35670000000000013,-362.87344841538186
-0.3577,-364.854044235193
-0.35870000000000013,-366.97611118499054
-0.3597,-368.67376474482853
-0.36070000000000013,-370.3714183046666
-0.3617,-371.64465847454517
-0.3626999999999999,-372.7764275144371
-0.3637,-373.90819655432915
-0.3646999999999999,-374.75702333424823
-0.3657,-375.3229078541942
-0.3666999999999999,-376.4546768940863
-0.3677,-377.7279170639648
-0.3686999999999999,-379.28409949381637
-0.36970000000000003,-380.98175305365436
-0.3706999999999999,-382.82087774347895
-0.37170000000000003,-384.9429446932765
-0.3726999999999999,-387.347953903047
-0.37370000000000003,-389.4700208528446
-0.3746999999999999,-391.4506166726556
-0.37570000000000003,-393.7141547524397
-0.3766999999999999,-395.1288660523047
-0.37770000000000004,-396.5435773521698
-0.3786999999999999,-397.81681752204827
-0.37970000000000004,-399.23152882191334
-0.3806999999999999,-400.36329786180534
-0.38170000000000004,-402.06095142164344
-0.38269999999999993,-403.1927204615355
-0.38370000000000004,-405.03184515135996
-0.38469999999999993,-407.0124409711711
-0.38570000000000004,-409.27597905095513
-0.38669999999999993,-408.28568114104957
-0.38570000000000004,-401.77800916167047
-0.38469999999999993,-395.41180831227774
-0.38370000000000004,-389.0456074628851
-0.38269999999999993,-382.82087774347895
-0.38170000000000004,-376.31320576409973
-0.3806999999999999,-369.8055337847206
-0.37970000000000004,-363.1563906753549
-0.3786999999999999,-357.07313208593524
-0.37770000000000004,-350.2825178465831
-0.3766999999999999,-344.34073038714996
-0.37570000000000003,-338.5404140577033
-0.3746999999999999,-333.30598224820267
-0.37370000000000003,-328.2130215686885
-0.3726999999999999,-323.40300314914737
-0.37170000000000003,-319.01739811956577
-0.3706999999999999,-314.91473534995714
-0.36970000000000003,-310.52913032037554
-0.3686999999999999,-306.1435252907939
-0.3677,-301.8993913911989
-0.3666999999999999,-297.23084410164427
-0.3657,-292.56229681208964
-0.3646999999999999,-287.610807262562
-0.3637,-282.8007888430208
-0.3626999999999999,-277.56635703352015
-0.3617,-273.1807520039386
-0.36070000000000013,-268.65367584437047
-0.3597,-264.55101307476184
-0.35870000000000013,-260.4483503051532
-0.3577,-256.62862979551767
-0.35670000000000013,-253.09185154585506
-0.3557,-249.69654442617897
-0.3547000000000001,-246.15976617651637
-0.3537,-242.48151679686728
-0.3527000000000001,-239.0862096771912
-0.3517,-235.12501803756908
-0.3507000000000001,-230.880884137974
-0.3497,-226.77822136836537
-0.3487000000000001,-222.3926163387838
-0.3477,-217.86554017921566
-0.3467000000000001,-213.90434853959354
-0.3457,-209.66021463999843
-0.3447000000000001,-205.98196526034934
-0.3437,-202.30371588070025
-0.3427000000000001,-198.90840876102413
-0.3417,-195.93751503130758
-0.3407000000000001,-193.10809243157752
-0.3397,-189.8542564418879
-0.3387000000000001,-186.74189158218485
-0.3377,-183.77099785246824
-0.3367000000000001,-180.37569073279218
-0.3357,-176.4144990931701
-0.3347000000000001,-172.59477858353446
-0.3337,-168.77505807389886
-0.3327000000000001,-164.67239530429026
-0.3317,-160.99414592464117
-0.3307000000000001,-157.31589654499206
-0.3297,-154.0620605553025
-0.3287000000000001,-150.8082245656129
-0.3277,-147.97880196588284
-0.3267000000000001,-145.14937936615277
-0.3257,-142.6028990263957
-0.3247000000000001,-139.74518220066832
-0.3237,-136.91575960093826
-0.3227000000000001,-134.21366101819604
-0.3217,-130.9456779155078
-0.3207000000000001,-127.4937823438371
-0.3197,-123.91456275517855
-0.3187000000000001,-120.43437295751058
-0.3177,-116.50147554388576
-0.3167000000000001,-113.19105110220158
-0.3157,-109.56939017454708
-0.3147000000000001,-106.64093778382647
-0.3137,-103.59930848911664
-0.3127000000000001,-100.88306279337576
-0.3117,-98.4497593576079
-0.3107000000000001,-96.04475014783733
-0.3097,-93.46997558208298
-0.3087000000000001,-90.93764235532454
-0.3077,-88.4194562415648
-0.3067000000000001,-85.36367983385631
-0.30569999999999997,-82.09569673116808
-0.3047000000000001,-78.8135665154812
-0.30369999999999997,-75.54558341279296
-0.3027000000000001,-71.7965984681506
-0.30169999999999997,-68.78326339943808
-0.3007000000000001,-65.43039761875795
-0.29969999999999997,-62.58682790602922
-0.2987000000000001,-59.9696120012789
-0.29769999999999996,-57.493867226515086
-0.2967000000000001,-55.13129935574048
-0.29569999999999996,-52.91020261495237
-0.2947000000000001,-50.73154721316022
-0.29369999999999996,-48.41142068138156
-0.29270000000000007,-46.2327652795894
-0.29169999999999996,-43.40334267985933
-0.29070000000000007,-40.26268359415894
-0.28969999999999996,-37.291789864442364
-0.28870000000000007,-34.236013456733886
-0.28769999999999996,-30.7558236590659
-0.28670000000000007,-27.742488590353368
-0.28569999999999995,-24.771594860636792
-0.28470000000000006,-22.196820294882425
-0.28369999999999995,-19.721075520118614
-0.28270000000000006,-17.542420118326454
-0.28169999999999995,-15.448647394526201
-0.28070000000000006,-13.47936926511407
-0.27969999999999995,-11.56102074249708
-0.27870000000000006,-9.467248018696827
-0.27769999999999995,-7.461187395488204
-0.27670000000000006,-4.843971490737885
-0.27569999999999995,-2.1390434853959355
-0.27470000000000006,0.5647527509061226
-0.27369999999999994,3.355695203279867
-0.27270000000000005,6.540210339276065
-0.27169999999999994,9.287579683613965
-0.27070000000000005,12.166517178839316
-0.26969999999999994,14.472496597619326
-0.26870000000000005,16.750181790402035
