Potential V vs RHE, Current mA cm-2
0.013299999999999867,4.2285720752965945
0.012299999999999978,-0.002205534916489592
0.011299999999999866,-4.364384360083638
0.010299999999999976,-8.812236686859313
0.009299999999999864,-13.610937416001518
0.008299999999999974,-17.966833508285966
0.007299999999999862,-22.253408746877028
0.006299999999999972,-26.002393691519377
0.00529999999999986,-29.31281813320356
0.0042999999999999705,-32.24127052392419
0.0032999999999998586,-34.58969128170015
0.0022999999999999687,-37.334231203438314
0.0012999999999998568,-39.99388844718459
0.00029999999999996696,-43.134547532884966
-0.000700000000000145,-46.501560426563756
-0.0017000000000000348,-49.98175022423175
-0.0027000000000001467,-53.68829382987814
-0.0037000000000000366,-57.012865384560975
-0.0047000000000001485,-60.02620045327351
-0.005700000000000038,-62.544386567033264
-0.00670000000000015,-64.63815929083353
-0.00770000000000004,-66.34995996367022
-0.008700000000000152,-67.82125971552985
-0.009700000000000042,-69.8301497613382
-0.010700000000000154,-71.7965984681506
-0.011700000000000044,-74.06013654793468
-0.012700000000000156,-76.67735245268499
-0.013700000000000045,-79.42189237442317
-0.014700000000000157,-82.35034476514379
-0.015700000000000047,-84.75535397491434
-0.01670000000000016,-86.89156803771054
-0.01770000000000005,-88.71654561453644
-0.01870000000000016,-90.03222712341093
-0.01970000000000005,-91.16399616330297
-0.020700000000000163,-92.25332386419905
-0.021700000000000053,-93.46997558208298
-0.022700000000000164,-95.04030512493317
-0.023700000000000054,-97.00675383174556
-0.024700000000000166,-99.22785057253368
-0.025700000000000056,-101.6753011213002
-0.026700000000000168,-103.7266325061045
-0.027700000000000058,-105.7779638909088
-0.02870000000000017,-107.34829343375898
-0.02970000000000006,-108.39517979565912
-0.03070000000000017,-109.25815368857677
-0.03170000000000006,-109.92306799951335
-0.03270000000000017,-110.74360055343507
-0.03370000000000006,-111.57828022035544
-0.034700000000000175,-112.87981461623129
-0.035700000000000065,-114.67649796705987
-0.03670000000000018,-116.45903420488982
-0.03770000000000007,-118.46792425069816
-0.03870000000000018,-120.20801914953216
-0.03970000000000007,-121.90567270937021
-0.04070000000000018,-123.00914752326493
-0.04170000000000007,-123.532590704215
-0.04270000000000018,-124.09847522416102
-0.04370000000000007,-124.35312325813672
-0.044700000000000184,-124.91900777808273
-0.045700000000000074,-125.56977497602065
-0.046700000000000186,-126.84301514589919
-0.047700000000000076,-128.32846201075745
-0.04870000000000019,-129.98367423159957
-0.04970000000000008,-131.76621046942952
-0.05070000000000019,-133.20921599529186
-0.05170000000000008,-134.34098503518388
-0.05270000000000019,-135.09078202411234
-0.05370000000000008,-135.51519541407185
-0.05470000000000019,-135.82643190004217
-0.05570000000000008,-135.99619725602597
-0.056700000000000195,-136.26499240300032
-0.057700000000000085,-137.04308361792607
-0.058700000000000196,-138.17485265781812
-0.059700000000000086,-139.53297550568857
-0.0607000000000002,-141.10330504853877
-0.06170000000000009,-142.6028990263957
-0.0627000000000002,-144.01761032626072
-0.06370000000000009,-144.86643710617977
-0.0647000000000002,-145.14937936615277
-0.06570000000000009,-145.43232162612577
-0.0667000000000002,-145.43232162612577
-0.0677000000000001,-145.57379275611228
-0.0687000000000002,-145.85673501608528
-0.0697000000000001,-146.7055617960043
-0.07070000000000021,-147.83733083589632
-0.0717000000000001,-148.96909987578834
-0.07270000000000021,-150.66675343562642
-0.0737000000000001,-151.93999360550492
-0.07470000000000021,-152.93029151541046
-0.0757000000000001,-153.49617603535648
-0.07670000000000021,-153.77911829532948
-0.0777000000000001,-153.77911829532948
-0.07870000000000021,-153.49617603535648
-0.0797000000000001,-153.63764716534297
-0.08070000000000022,-153.920589425316
-0.0817000000000001,-154.76941620523502
-0.08270000000000022,-155.75971411514055
-0.08370000000000011,-157.17442541500557
-0.08470000000000022,-158.73060784485713
-0.08570000000000011,-159.86237688474912
-0.08670000000000022,-160.5697325346817
-0.08770000000000011,-160.99414592464117
-0.08870000000000022,-161.1356170546277
-0.08970000000000011,-160.8526747946547
-0.09070000000000022,-160.5697325346817
-0.09170000000000011,-160.71120366466818
-0.09270000000000023,-161.1356170546277
-0.09370000000000012,-161.84297270456022
-0.09470000000000023,-162.8332706144657
-0.09570000000000012,-164.10651078434424
-0.09670000000000023,-165.3797509542228
-0.09770000000000012,-166.3700488641283
-0.09870000000000023,-166.93593338407433
-0.09970000000000012,-167.21887564404733
-0.10070000000000023,-167.21887564404733
-0.10170000000000012,-166.79446225408785
-0.10270000000000024,-166.79446225408785
-0.10370000000000013,-166.79446225408785
-0.10470000000000024,-167.21887564404733
-0.10570000000000013,-168.06770242396635
-0.10670000000000024,-169.0580003338719
-0.10770000000000013,-170.61418276372342
-0.10870000000000024,-171.46300954364247
-0.10970000000000013,-172.31183632356147
-0.11070000000000024,-172.73624971352098
-0.11170000000000013,-172.59477858353446
-0.11270000000000002,-172.31183632356147
-0.11370000000000013,-171.88742293360195
-0.11470000000000002,-172.0288940635885
-0.11570000000000014,-172.0288940635885
-0.11670000000000003,-172.45330745354798
-0.11770000000000014,-173.44360536345349
-0.11870000000000003,-174.43390327335902
-0.11970000000000014,-175.70714344323756
-0.12070000000000003,-176.55597022315658
-0.12170000000000014,-177.2633258730891
-0.12270000000000003,-177.54626813306209
-0.12370000000000014,-177.54626813306209
-0.12470000000000003,-177.1218547431026
-0.12570000000000014,-176.6974413531431
-0.12670000000000003,-176.4144990931701
-0.12770000000000015,-176.55597022315658
-0.12870000000000004,-177.1218547431026
-0.12970000000000015,-177.9706815230216
-0.13070000000000004,-179.10245056291362
-0.13170000000000015,-179.95127734283267
-0.13270000000000004,-180.94157525273818
-0.13370000000000015,-181.36598864269772
-0.13470000000000004,-181.36598864269772
-0.13570000000000015,-181.2245175127112
-0.13670000000000004,-180.94157525273818
-0.13770000000000016,-180.94157525273818
-0.13870000000000005,-180.94157525273818
-0.13970000000000016,-181.36598864269772
-0.14070000000000005,-182.07334429263022
-0.14170000000000016,-183.06364220253573
-0.14270000000000005,-184.33688237241427
-0.14370000000000016,-185.0442380223468
-0.14470000000000005,-186.03453593225234
-0.14570000000000016,-186.17600706223882
-0.14670000000000005,-185.89306480226583
-0.14770000000000016,-185.6101225422928
-0.14870000000000005,-184.9027668923603
-0.14970000000000017,-184.7612957623738
-0.15070000000000006,-184.47835350240078
-0.15170000000000017,-185.0442380223468
-0.15270000000000006,-185.7515936722793
-0.15370000000000017,-186.60042045219836
-0.15470000000000006,-187.73218949209036
-0.15570000000000017,-188.4395451420229
-0.15670000000000006,-188.8639585319824
-0.15770000000000017,-188.8639585319824
-0.15870000000000006,-188.58101627200938
-0.15970000000000018,-188.29807401203638
-0.16070000000000007,-187.87366062207687
-0.16170000000000018,-187.44924723211736
-0.16270000000000007,-187.59071836210387
-0.16370000000000018,-188.15660288204987
-0.16470000000000007,-189.0054296619689
-0.16570000000000018,-190.13719870186094
-0.16670000000000007,-191.12749661176645
-0.16770000000000018,-191.9763233916855
-0.16870000000000007,-192.2592656516585
-0.16970000000000018,-192.40073678164498
-0.17070000000000007,-192.2592656516585
-0.17170000000000019,-191.83485226169896
-0.17270000000000008,-191.551910001726
-0.1737000000000002,-191.41043887173947
-0.17470000000000008,-191.9763233916855
-0.1757000000000002,-192.683679041618
-0.17670000000000008,-193.3910346915505
-0.1777000000000002,-194.66427486142905
-0.17870000000000008,-195.51310164134807
-0.1797000000000002,-196.2204572912806
-0.18070000000000008,-196.3619284212671
-0.1817000000000002,-196.2204572912806
-0.18270000000000008,-196.0789861612941
-0.1837000000000002,-195.51310164134807
-0.1847000000000001,-195.23015938137505
-0.1857000000000002,-195.23015938137505
-0.1867000000000001,-195.65457277133459
-0.1877000000000002,-196.50339955125358
-0.1887000000000001,-197.49369746115914
-0.1897000000000002,-198.76693763103765
-0.1907000000000001,-199.61576441095667
-0.1917000000000001,-200.04017780091618
-0.19269999999999998,-200.3231200608892
-0.1937000000000001,-200.04017780091618
-0.19469999999999998,-199.61576441095667
-0.1957000000000001,-199.19135102099716
-0.19669999999999999,-198.90840876102413
-0.1977000000000001,-199.19135102099716
-0.1987,-199.75723554094319
-0.1997000000000001,-200.6060623208622
-0.2007,-201.87930249074074
-0.2017000000000001,-202.86960040064628
-0.2027,-203.71842718056527
-0.2037000000000001,-204.2843117005113
-0.2047,-204.2843117005113
-0.2057000000000001,-204.2843117005113
-0.2067,-203.71842718056527
-0.2077000000000001,-203.57695605057876
-0.2087,-203.43548492059227
-0.2097000000000001,-203.85989831055176
-0.2107,-204.7087250904708
-0.2117000000000001,-205.69902300037634
-0.2127,-207.1137343002414
-0.2137000000000001,-207.96256108016038
-0.2147,-208.8113878600794
-0.2157000000000001,-209.23580125003892
-0.2167,-209.23580125003892
-0.21770000000000012,-208.95285899006592
-0.2187,-208.3869744701199
-0.21970000000000012,-208.3869744701199
-0.2207,-208.3869744701199
-0.22170000000000012,-208.95285899006592
-0.2227,-209.8016857699849
-0.22370000000000012,-210.65051254990397
-0.2247,-211.782281589796
-0.22570000000000012,-212.631108369715
-0.2267,-213.19699288966103
-0.22770000000000012,-213.47993514963403
-0.22870000000000001,-213.33846401964755
-0.22970000000000013,-212.914050629688
-0.23070000000000002,-212.631108369715
-0.23170000000000013,-212.34816610974204
-0.23270000000000002,-212.48963723972852
-0.23370000000000013,-213.05552175967455
-0.23470000000000002,-214.04581966958003
-0.23570000000000013,-215.03611757948556
-0.23670000000000002,-215.88494435940459
-0.2376999999999999,-216.87524226931012
-0.23870000000000002,-217.29965565926966
-0.2396999999999999,-217.29965565926966
-0.24070000000000003,-217.15818452928315
-0.24169999999999991,-216.87524226931012
-0.24270000000000003,-216.87524226931012
-0.24369999999999992,-216.87524226931012
-0.24470000000000003,-217.29965565926966
-0.24569999999999992,-218.14848243918865
-0.24670000000000003,-219.28025147908068
-0.24769999999999992,-220.5534916489592
-0.24870000000000003,-221.68526068885126
-0.24969999999999992,-222.6755585987568
-0.25070000000000003,-223.09997198871628
-0.2516999999999999,-223.09997198871628
-0.25270000000000004,-222.9585008587298
-0.2536999999999999,-222.6755585987568
-0.25470000000000004,-222.6755585987568
-0.2556999999999999,-222.6755585987568
-0.25670000000000004,-223.38291424868927
-0.25769999999999993,-224.37321215859478
-0.25870000000000004,-225.50498119848683
-0.25969999999999993,-226.91969249835188
-0.26070000000000004,-227.9099904082574
-0.26169999999999993,-228.61734605818995
-0.26270000000000004,-228.75881718817644
-0.26369999999999993,-228.75881718817644
-0.26470000000000005,-228.75881718817644
-0.26569999999999994,-228.61734605818995
-0.26670000000000005,-228.75881718817644
-0.26769999999999994,-229.32470170812243
-0.26870000000000005,-230.17352848804146
-0.26969999999999994,-231.163826397947
-0.27070000000000005,-232.57853769781204
-0.27169999999999994,-233.85177786769057
-0.27270000000000005,-235.12501803756908
-0.27369999999999994,-235.69090255751513
-0.27470000000000006,-235.97384481748813
-0.27569999999999995,-236.1153159474746
-0.27670000000000006,-235.83237368750162
-0.27769999999999995,-235.97384481748813
-0.27870000000000006,-236.25678707746113
-0.27969999999999995,-236.96414272739366
-0.28070000000000006,-238.0959117672857
-0.28169999999999995,-239.2276808071777
-0.28270000000000006,-240.92533436701575
-0.28369999999999995,-242.05710340690777
-0.28470000000000006,-243.3303435767863
-0.28569999999999995,-243.8962280967323
-0.28670000000000007,-244.32064148669184
-0.28769999999999996,-244.46211261667833
-0.28870000000000007,-244.32064148669184
-0.28969999999999996,-244.60358374666484
-0.29070000000000007,-245.02799713662432
-0.29169999999999996,-245.87682391654337
-0.29270000000000007,-247.0085929564354
-0.29369999999999996,-248.42330425630044
-0.2947000000000001,-250.4039000761115
-0.29569999999999996,-251.81861137597656
-0.2967000000000001,-252.95038041586852
-0.29769999999999996,-253.65773606580112
-0.2987000000000001,-254.08214945576057
-0.29969999999999997,-254.36509171573357
-0.3007000000000001,-254.50656284572008
-0.30169999999999997,-254.93097623567962
-0.3027000000000001,-255.92127414558513
-0.30369999999999997,-257.1945143154637
-0.3047000000000001,-258.7506967453152
-0.30569999999999997,-260.58982143513975
-0.3067000000000001,-262.2874749949778
-0.3077,-263.56071516485633
-0.3087000000000001,-264.6924842047484
-0.3097,-265.5413109846674
-0.3107000000000001,-266.1071955046134
-0.3117,-266.2486666345999
-0.3127000000000001,-266.8145511545459
-0.3137,-267.38043567449193
-0.3147000000000001,-268.37073358439744
-0.3157,-269.926916014249
-0.3167000000000001,-271.62456957408705
-0.3177,-273.7466365238846
-0.3187000000000001,-275.44429008372265
-0.3197,-277.0004725135742
-0.3207000000000001,-278.1322415534662
-0.3217,-278.8395972033987
-0.3227000000000001,-279.40548172334474
-0.3237,-279.82989511330425
-0.3247000000000001,-280.5372507632368
-0.3257,-281.3860775431558
-0.3267000000000001,-282.65931771303434
-0.3277,-284.35697127287233
-0.3287000000000001,-286.33756709268346
-0.3297,-288.45963404248096
-0.3307000000000001,-290.157287602319
-0.3317,-291.71347003217056
-0.3327000000000001,-292.8452390720626
-0.3337,-293.6940658519816
-0.3347000000000001,-294.2599503719276
-0.3357,-294.8258348918736
-0.3367000000000001,-295.67466167179265
-0.3377,-296.80643071168464
-0.3387000000000001,-298.50408427152274
-0.3397,-300.48468009133376
-0.3407000000000001,-302.6067470411313
-0.3417,-304.72881399092887
-0.3427000000000001,-306.56793868075346
-0.3437,-307.98264998061853
-0.3447000000000001,-309.1144190205105
-0.3457,-309.9632458004295
-0.3467000000000001,-310.6706014503621
-0.3477,-311.6608993602676
-0.3487000000000001,-312.65119727017316
-0.3497,-314.0659085700381
-0.3507000000000001,-316.04650438984913
-0.3517,-318.02710020966026
-0.3527000000000001,-320.4321094194308
-0.3537,-322.5541763692284
-0.3547000000000001,-324.67624331902596
-0.3557,-326.23242574887746
-0.35670000000000013,-327.3641947887695
-0.3577,-328.63743495864804
-0.35870000000000013,-329.48626173856707
-0.3597,-330.7595019084456
-0.36070000000000013,-332.03274207832413
-0.3617,-333.7303956381621
-0.3626999999999999,-335.9939337179462
-0.3637,-338.2574717977303
-0.3646999999999999,-340.80395213748733
-0.3657,-343.06749021727137
-0.3666999999999999,-345.04808603708244
-0.3677,-346.604268466934
-0.3686999999999999,-348.16045089678556
-0.36970000000000003,-349.43369106666404
-0.3706999999999999,-350.5654601065561
-0.37170000000000003,-351.8387002764346
-0.3726999999999999,-353.5363538362726
-0.37370000000000003,-355.51694965608374
-0.3746999999999999,-357.7804877358678
-0.37570000000000003,-360.3269680756248
-0.3766999999999999,-362.87344841538186
-0.37770000000000004,-365.2784576251525
-0.3786999999999999,-367.2590534449635
-0.37970000000000004,-368.95670700480156
-0.3806999999999999,-370.3714183046666
-0.38170000000000004,-371.5031873445586
-0.38269999999999993,-372.9178986444237
-0.38370000000000004,-374.4740810742752
-0.38469999999999993,-376.59614802407276
-0.38570000000000004,-379.14262836382983
-0.38669999999999993,-378.43527271389735
-0.38570000000000004,-372.49348525446413
-0.38469999999999993,-366.551697795031
-0.38370000000000004,-360.89285259557084
-0.38269999999999993,-354.8095940061512
-0.38170000000000004,-348.72633541673156
-0.3806999999999999,-342.64307682731186
-0.37970000000000004,-336.1354048479327
-0.3786999999999999,-330.33508851848603
-0.37770000000000004,-324.67624331902596
-0.3766999999999999,-319.72475376949825
-0.37570000000000003,-314.91473534995714
-0.3746999999999999,-310.6706014503621
-0.37370000000000003,-306.70940981073994
-0.3726999999999999,-302.32380478115834
-0.37170000000000003,-297.6552574916037
-0.3706999999999999,-292.9867102020491
-0.36970000000000003,-287.893749522535
-0.3686999999999999,-282.65931771303434
-0.3677,-277.4248859035337
-0.3666999999999999,-272.7563386139791
-0.3657,-268.37073358439744
-0.3646999999999999,-264.40954194477536
-0.3637,-260.73129256512624
-0.3626999999999999,-257.4774565754367
-0.3617,-254.08214945576057
-0.36070000000000013,-250.545371206098
-0.3597,-246.7256506964624
-0.35870000000000013,-242.48151679686728
-0.3577,-238.2373828972722
-0.35670000000000013,-233.4273644777311
-0.3557,-229.18323057813595
-0.3547000000000001,-224.93909667854084
-0.3537,-221.26084729889175
-0.3527000000000001,-217.86554017921566
-0.3517,-214.89464644949908
-0.3507000000000001,-212.2066949797555
-0.3497,-209.23580125003892
-0.3487000000000001,-206.12343639033585
-0.3477,-202.58665814067325
-0.3467000000000001,-198.76693763103765
-0.3457,-194.66427486142905
-0.3447000000000001,-190.42014096183394
-0.3437,-186.60042045219836
-0.3427000000000001,-182.78069994256273
-0.3417,-179.52686395287316
-0.3407000000000001,-176.6974413531431
-0.3397,-174.0094898833995
-0.3387000000000001,-171.60448067362896
-0.3377,-168.77505807389886
-0.3367000000000001,-165.8041643441823
-0.3357,-162.40885722450622
-0.3347000000000001,-158.73060784485713
-0.3337,-154.9108873352215
-0.3327000000000001,-150.94969569559944
-0.3317,-147.27144631595033
-0.3307000000000001,-144.01761032626072
-0.3297,-141.06086370954282
-0.3287000000000001,-138.52853048278442
-0.3277,-136.26499240300032
-0.3267000000000001,-133.69021783724597
-0.3257,-131.24276728847948
-0.3247000000000001,-128.2294322197669
-0.3237,-124.87656643908679
-0.3227000000000001,-121.2549055114323
-0.3217,-117.50592056678994
-0.3207000000000001,-114.05402499511925
-0.3197,-110.6162765364472
-0.3187000000000001,-107.64538280673065
-0.3177,-105.29696204895468
-0.3167000000000001,-103.07586530816658
-0.3157,-101.02453392336226
-0.3147000000000001,-98.74684873057957
-0.3137,-96.4833106507955
-0.3127000000000001,-93.55485826007487
-0.3117,-90.20199247939475
-0.3107000000000001,-86.89156803771054
-0.3097,-83.35478978804795
-0.3087000000000001,-80.12924802435568
-0.3077,-76.98858893865528
-0.3067000000000001,-74.54113838988879
-0.30569999999999997,-72.32004164910067
-0.3047000000000001,-70.31115160329232
-0.30369999999999997,-68.44373268747047
-0.3027000000000001,-66.16604749468777
-0.30169999999999997,-63.860068075907755
-0.3007000000000001,-61.07308681517363
-0.29969999999999997,-57.974869068469204
-0.2987000000000001,-54.791768643772876
-0.29769999999999996,-51.38231441109813
-0.2967000000000001,-48.24165532539775
-0.29569999999999996,-45.624439420647434
-0.2947000000000001,-43.31846000186743
-0.29369999999999996,-41.267128617063115
-0.29270000000000007,-39.42800392723857
-0.29169999999999996,-37.687909028404576
-0.29070000000000007,-35.806342999584075
-0.28969999999999996,-33.330598224820264
-0.28870000000000007,-30.571911190083444
-0.28769999999999996,-27.700047251357418
-0.28670000000000007,-24.516946826661083
-0.28569999999999995,-21.503611757948562
-0.28470000000000006,-18.716630497214435
-0.28369999999999995,-16.438945304431726
-0.28270000000000006,-14.57152638860988
-0.28169999999999995,-12.694204493688973
-0.28070000000000006,-11.255443101726232
-0.27969999999999995,-9.55496011928846
-0.27870000000000006,-7.7653503249591855
-0.27769999999999995,-5.453712060979717
-0.27670000000000006,-2.924208256821031
-0.27569999999999995,-0.1330535977523067
-0.27470000000000006,2.919964122921436
-0.27369999999999994,5.624892128263387
-0.27270000000000005,8.198251982717888
-0.27169999999999994,10.248168656222326
-0.27070000000000005,12.122661128543498
-0.26969999999999994,13.65054933239774
