Potential V vs RHE, Current mA cm-2
0.013299999999999867,9.593157324384812
0.012299999999999978,8.022827781534623
0.011299999999999866,6.5840663895718805
0.010299999999999976,5.275458437196722
0.009299999999999864,3.9668504848215624
0.008299999999999974,2.70209858274222
0.007299999999999862,1.4373466806628774
0.006299999999999972,0.21588494435940458
0.00529999999999986,-0.9181476336124089
0.0042999999999999705,-1.92117794521672
0.0032999999999998586,-2.8379108675292635
0.0022999999999999687,-3.623075638954359
0.0012999999999998568,-4.364384360083638
0.00029999999999996696,-5.149549131508733
-0.000700000000000145,-5.890857852638012
-0.0017000000000000348,-6.719878674358924
-0.0027000000000001467,-7.5474847847799715
-0.0037000000000000366,-8.4203616567967
-0.0047000000000001485,-9.335679867809377
-0.005700000000000038,-10.164700689530287
-0.00670000000000015,-10.949865460955383
-0.00770000000000004,-11.647318131788847
-0.008700000000000152,-12.214617363034726
-0.009700000000000042,-12.781916594280606
-0.010700000000000154,-13.261503724934855
-0.011700000000000044,-13.828802956180734
-0.012700000000000156,-14.345172580631472
-0.013700000000000045,-14.967645552572087
-0.014700000000000157,-15.660854089505953
-0.015700000000000047,-16.311621287443874
-0.01670000000000016,-17.061418276372343
-0.01770000000000005,-17.669744135314307
-0.01870000000000016,-18.23562865526032
-0.01970000000000005,-18.759071836210385
-0.020700000000000163,-19.197632339168546
-0.021700000000000053,-19.579604390132108
-0.022700000000000164,-19.93328221509837
-0.023700000000000054,-20.371842718056527
-0.024700000000000166,-20.85284456001064
-0.025700000000000056,-21.418729079956652
-0.026700000000000168,-22.027054938898623
-0.027700000000000058,-22.63538079784059
-0.02870000000000017,-23.342736447773106
-0.02970000000000006,-23.951062306715073
-0.03070000000000017,-24.474505487665134
-0.03170000000000006,-24.9130659906233
-0.03270000000000017,-25.337479380582806
-0.03370000000000006,-25.691157205549064
-0.034700000000000175,-26.087276369511276
-0.035700000000000065,-26.483395533473487
-0.03670000000000018,-26.9643973754276
-0.03770000000000007,-27.530281895373616
-0.03870000000000018,-28.09616641531963
-0.03970000000000007,-28.704492274261593
-0.04070000000000018,-29.27037679420761
-0.04170000000000007,-29.793819975157668
-0.04270000000000018,-30.232380478115836
-0.04370000000000007,-30.571911190083444
-0.044700000000000184,-30.88314767605375
-0.045700000000000074,-31.137795710029454
-0.046700000000000186,-31.49147353499572
-0.047700000000000076,-31.84515135996197
-0.04870000000000019,-32.32615320191609
-0.04970000000000008,-32.892037721862096
-0.05070000000000019,-33.41548090281216
-0.05170000000000008,-34.06624810075008
-0.05270000000000019,-34.5472499427042
-0.05370000000000008,-35.07069312365426
-0.05470000000000019,-35.50925362661242
-0.05570000000000008,-35.848784338580025
-0.056700000000000195,-36.20246216354629
-0.057700000000000085,-36.47125731052064
-0.058700000000000196,-36.81078802248826
-0.059700000000000086,-37.206907186450465
-0.0607000000000002,-37.687909028404576
-0.06170000000000009,-38.211352209354644
-0.0627000000000002,-38.81967806829661
-0.06370000000000009,-39.34312124924667
-0.0647000000000002,-39.86656443019674
-0.06570000000000009,-40.30512493315489
-0.0667000000000002,-40.701244097117105
-0.0677000000000001,-41.04077480908471
-0.0687000000000002,-41.352011295055014
-0.0697000000000001,-41.66324778102533
-0.07070000000000021,-42.00277849299294
-0.0717000000000001,-42.483780334947056
-0.07270000000000021,-43.007223515897124
-0.0737000000000001,-43.57310803584313
-0.07470000000000021,-44.223875233781044
-0.0757000000000001,-44.88878954471762
-0.07670000000000021,-45.45467406466363
-0.0777000000000001,-45.97811724561369
-0.07870000000000021,-46.41667774857186
-0.0797000000000001,-46.79864979953541
-0.08070000000000022,-47.15232762450167
-0.0817000000000001,-47.54844678846388
-0.08270000000000022,-47.8879775004315
-0.08370000000000011,-48.32653800338966
-0.08470000000000022,-48.80753984534376
-0.08570000000000011,-49.28854168729788
-0.08670000000000022,-49.85442620724389
-0.08770000000000011,-50.335428049198
-0.08870000000000022,-50.77398855215617
-0.08970000000000011,-51.127666377122424
-0.09070000000000022,-51.424755750094086
-0.09170000000000011,-51.82087491405629
-0.09270000000000023,-52.2169940780185
-0.09370000000000012,-52.74043725896857
-0.09470000000000023,-53.39120445690648
-0.09570000000000012,-54.1268543328363
-0.09670000000000023,-54.961533999756675
-0.09770000000000012,-55.838655005673
-0.09870000000000023,-56.70162889859067
-0.09970000000000012,-57.57874990450699
-0.10070000000000023,-58.27195844144086
-0.10170000000000012,-58.880284300382826
-0.10270000000000024,-59.31884480334099
-0.10370000000000013,-59.6300812893113
-0.10470000000000024,-59.9696120012789
-0.10570000000000013,-60.28084848724921
-0.10670000000000024,-60.63452631221547
-0.10770000000000013,-61.07308681517363
-0.10870000000000024,-61.49750020513315
-0.10970000000000013,-62.02094338608321
-0.11070000000000024,-62.501945228037314
-0.11170000000000013,-62.94050573099548
-0.11270000000000002,-63.29418355596174
-0.11370000000000013,-63.54883158993744
-0.11470000000000002,-63.860068075907755
-0.11570000000000014,-64.02983343189156
-0.11670000000000003,-64.29862857886593
-0.11770000000000014,-64.63815929083353
-0.11870000000000003,-65.03427845479574
-0.11970000000000014,-65.51528029674984
-0.12070000000000003,-66.08116481669586
-0.12170000000000014,-66.73193201463377
-0.12270000000000003,-67.25537519558385
-0.12370000000000014,-67.7788183765339
-0.12470000000000003,-68.21737887949207
-0.12570000000000014,-68.61349804345427
-0.12670000000000003,-69.0096172074165
-0.12770000000000015,-69.39158925838004
-0.12870000000000004,-69.87259110033416
-0.12970000000000015,-70.39603428128423
-0.13070000000000004,-70.96191880123024
-0.13170000000000015,-71.6268331121668
-0.13270000000000004,-72.32004164910067
-0.13370000000000015,-73.01325018603454
-0.13470000000000004,-73.72060583596706
-0.13570000000000015,-74.28649035591307
-0.13670000000000004,-74.89481621485504
-0.13770000000000016,-75.37581805680915
-0.13870000000000005,-75.85681989876326
-0.13970000000000016,-76.38026307971333
-0.14070000000000005,-76.9037062606634
-0.14170000000000016,-77.55447345860131
-0.14270000000000005,-78.29012333453113
-0.14370000000000016,-79.0399203234596
-0.14470000000000005,-79.81801153838538
-0.14570000000000016,-80.52536718831789
-0.14670000000000005,-81.13369304725985
-0.14770000000000016,-81.65713622820991
-0.14870000000000005,-82.09569673116808
-0.14970000000000017,-82.52011012112759
-0.15070000000000006,-82.87378794609386
-0.15170000000000017,-83.26990711005605
-0.15270000000000006,-83.70846761301424
-0.15370000000000017,-84.23191079396429
-0.15470000000000006,-84.84023665290624
-0.15570000000000017,-85.49100385084417
-0.15670000000000006,-86.22665372677399
-0.15770000000000017,-86.89156803771054
-0.15870000000000006,-87.49989389665252
-0.15970000000000018,-87.98089573860662
-0.16070000000000007,-88.37701490256885
-0.16170000000000018,-88.71654561453644
-0.16270000000000007,-88.9853407615108
-0.16370000000000018,-89.32487147347842
-0.16470000000000007,-89.63610795944872
-0.16570000000000018,-89.98978578441499
-0.16670000000000007,-90.37175783537855
-0.16770000000000018,-90.81031833833671
-0.16870000000000007,-91.24887884129487
-0.16970000000000018,-91.60255666626112
-0.17070000000000007,-91.89964603923279
-0.17170000000000019,-92.16844118620713
-0.17270000000000008,-92.29576520319499
-0.1737000000000002,-92.4655305591788
-0.17470000000000008,-92.6918843671572
-0.1757000000000002,-92.94653240113291
-0.17670000000000008,-93.42753424308701
-0.1777000000000002,-93.99341876303303
-0.17870000000000008,-94.6583330739696
-0.1797000000000002,-95.47886562789132
-0.18070000000000008,-96.27110395581576
-0.1817000000000002,-97.09163650973747
-0.18270000000000008,-97.78484504667132
-0.1837000000000002,-98.4497593576079
-0.1847000000000001,-99.14296789454177
-0.1857000000000002,-99.75129375348374
-0.1867000000000001,-100.45864940341626
-0.1877000000000002,-101.19429927934607
-0.1887000000000001,-101.97239049427183
-0.1897000000000002,-102.84951150018817
-0.1907000000000001,-103.7266325061045
-0.1917000000000001,-104.64619485101677
-0.19269999999999998,-105.42428606594254
-0.1937000000000001,-106.15993594187235
-0.19469999999999998,-106.78240891381296
-0.1957000000000001,-107.26341075576708
-0.19669999999999999,-107.68782414572658
-0.1977000000000001,-108.0839433096888
-0.1987,-108.52250381264696
-0.1997000000000001,-108.96106431560513
-0.2007,-109.44206615755924
-0.2017000000000001,-110.00795067750525
-0.2027,-110.57383519745127
-0.2037000000000001,-111.18216105639323
-0.2047,-111.7056042373433
-0.2057000000000001,-112.14416474030146
-0.2067,-112.58272524325962
-0.2077000000000001,-112.83737327723534
-0.2087,-113.14860976320564
-0.2097000000000001,-113.36081645818538
-0.2107,-113.67205294415571
-0.2117000000000001,-114.0115836561233
-0.2127,-114.40770282008553
-0.2137000000000001,-114.84626332304367
-0.2147,-115.36970650399375
-0.2157000000000001,-115.8931496849438
-0.2167,-116.41659286589388
-0.21770000000000012,-116.81271202985609
-0.2187,-117.19468408081964
-0.21970000000000012,-117.63324458377778
-0.2207,-117.98692240874406
-0.22170000000000012,-118.38304157270628
-0.2227,-118.90648475365633
-0.22370000000000012,-119.47236927360234
-0.2247,-120.20801914953216
-0.22570000000000012,-120.95781613846064
-0.2267,-121.82079003137831
-0.22770000000000012,-122.52814568131083
-0.22870000000000001,-123.2213542182447
-0.22970000000000013,-123.78723873819072
-0.23070000000000002,-124.22579924114888
-0.23170000000000013,-124.57947706611512
-0.23270000000000002,-124.87656643908679
-0.23370000000000013,-125.23024426405304
-0.23470000000000002,-125.56977497602065
-0.23570000000000013,-126.00833547897882
-0.23670000000000002,-126.5317786599289
-0.2376999999999999,-127.09766317987489
-0.23870000000000002,-127.72013615181551
-0.2396999999999999,-128.32846201075745
-0.24070000000000003,-128.89434653070347
-0.24169999999999991,-129.50267238964545
-0.24270000000000003,-130.06855690959148
-0.24369999999999992,-130.63444142953747
-0.24470000000000003,-131.2003259494835
-0.24569999999999992,-131.80865180842545
-0.24670000000000003,-132.60089013634988
-0.24769999999999992,-133.37898135127566
-0.24870000000000003,-134.256102357192
-0.24969999999999992,-135.09078202411234
-0.25070000000000003,-135.82643190004217
-0.2516999999999999,-136.51964043697603
-0.25270000000000004,-137.00064227893017
-0.2536999999999999,-137.43920278188833
-0.25470000000000004,-137.75043926785864
-0.2556999999999999,-137.9626459628384
-0.25670000000000004,-138.13241131882216
-0.25769999999999993,-138.3163237878046
-0.25870000000000004,-138.57097182178035
-0.25969999999999993,-138.79732562975875
-0.26070000000000004,-139.0095323247385
-0.26169999999999993,-139.22173901971826
-0.26270000000000004,-139.3207688107088
-0.26369999999999993,-139.4056514887007
-0.26470000000000005,-139.3207688107088
-0.26569999999999994,-139.1792976807223
-0.26670000000000005,-139.09441500273041
-0.26769999999999994,-138.96709098574257
-0.26870000000000005,-139.05197366373446
-0.26969999999999994,-139.13685634172634
-0.27070000000000005,-139.4056514887007
-0.27169999999999994,-139.8866533306548
-0.27270000000000005,-140.45253785060083
-0.27369999999999994,-141.2306290655266
-0.27470000000000006,-142.03701450644968
-0.27569999999999995,-142.8858412863687
-0.27670000000000006,-143.5931969363012
-0.27769999999999995,-144.44202371622026
-0.27870000000000006,-145.14937936615277
-0.27969999999999995,-145.9982061460718
-0.28070000000000006,-146.8470329259908
-0.28169999999999995,-147.6958597059098
-0.28270000000000006,-148.54468648582886
-0.28369999999999995,-149.39351326574788
-0.28470000000000006,-150.38381117565342
-0.28569999999999995,-151.09116682558593
-0.28670000000000007,-151.7985224755184
-0.28769999999999996,-152.22293586547795
-0.28870000000000007,-152.50587812545095
-0.28969999999999996,-152.93029151541046
-0.29070000000000007,-153.07176264539694
-0.29169999999999996,-153.21323377538346
-0.29270000000000007,-153.35470490536997
-0.29369999999999996,-153.35470490536997
-0.2947000000000001,-153.63764716534297
-0.29569999999999996,-153.77911829532948
-0.2967000000000001,-154.203531685289
-0.29769999999999996,-154.3450028152755
-0.2987000000000001,-154.6279450752485
-0.29969999999999997,-154.6279450752485
-0.3007000000000001,-154.6279450752485
-0.30169999999999997,-154.6279450752485
-0.3027000000000001,-154.486473945262
-0.30369999999999997,-154.3450028152755
-0.3047000000000001,-154.486473945262
-0.30569999999999997,-154.6279450752485
-0.3067000000000001,-154.9108873352215
-0.3077,-155.05235846520802
-0.3087000000000001,-155.47677185516753
-0.3097,-155.61824298515404
-0.3107000000000001,-155.90118524512707
-0.3117,-156.04265637511355
-0.3127000000000001,-156.18412750510007
-0.3137,-156.18412750510007
-0.3147000000000001,-156.32559863508658
-0.3157,-156.32559863508658
-0.3167000000000001,-156.46706976507306
-0.3177,-156.75001202504606
-0.3187000000000001,-157.17442541500557
-0.3197,-157.59883880496508
-0.3207000000000001,-158.1647233249111
-0.3217,-158.73060784485713
-0.3227000000000001,-159.29649236480313
-0.3237,-159.86237688474912
-0.3247000000000001,-160.28679027470866
-0.3257,-160.8526747946547
-0.3267000000000001,-161.41855931460069
-0.3277,-162.12591496453322
-0.3287000000000001,-162.8332706144657
-0.3297,-163.54062626439824
-0.3307000000000001,-164.10651078434424
-0.3317,-164.81386643427678
-0.3327000000000001,-165.2382798242363
-0.3337,-165.5212220842093
-0.3347000000000001,-165.6626932141958
-0.3357,-165.6626932141958
-0.3367000000000001,-165.6626932141958
-0.3377,-165.5212220842093
-0.3387000000000001,-165.3797509542228
-0.3397,-165.3797509542228
-0.3407000000000001,-165.3797509542228
-0.3417,-165.5212220842093
-0.3427000000000001,-165.6626932141958
-0.3437,-165.94563547416882
-0.3447000000000001,-166.0871066041553
-0.3457,-166.22857773414182
-0.3467000000000001,-166.22857773414182
-0.3477,-166.22857773414182
-0.3487000000000001,-166.22857773414182
-0.3497,-166.0871066041553
-0.3507000000000001,-166.0871066041553
-0.3517,-166.22857773414182
-0.3527000000000001,-166.3700488641283
-0.3537,-166.51151999411482
-0.3547000000000001,-166.93593338407433
-0.3557,-167.07740451406085
-0.35670000000000013,-167.21887564404733
-0.3577,-167.36034677403384
-0.35870000000000013,-167.36034677403384
-0.3597,-167.36034677403384
-0.36070000000000013,-167.36034677403384
-0.3617,-167.36034677403384
-0.3626999999999999,-167.36034677403384
-0.3637,-167.50181790402033
-0.3646999999999999,-167.6432890340068
-0.3657,-167.92623129397984
-0.3666999999999999,-168.20917355395284
-0.3677,-168.49211581392586
-0.3686999999999999,-168.63358694391238
-0.36970000000000003,-168.63358694391238
-0.3706999999999999,-168.63358694391238
-0.37170000000000003,-168.49211581392586
-0.3726999999999999,-168.49211581392586
-0.37370000000000003,-168.49211581392586
-0.3746999999999999,-168.63358694391238
-0.37570000000000003,-168.77505807389886
-0.3766999999999999,-169.19947146385837
-0.37770000000000004,-169.48241372383137
-0.3786999999999999,-169.9068271137909
-0.37970000000000004,-170.33124050375042
-0.3806999999999999,-170.47271163373694
-0.38170000000000004,-170.61418276372342
-0.38269999999999993,-170.75565389370993
-0.38370000000000004,-170.75565389370993
-0.38469999999999993,-170.61418276372342
-0.38570000000000004,-170.61418276372342
-0.38669999999999993,-170.61418276372342
-0.38770000000000004,-170.75565389370993
-0.38869999999999993,-170.89712502369645
-0.38970000000000005,-171.03859615368293
-0.39069999999999994,-171.18006728366944
-0.39170000000000005,-171.18006728366944
-0.39269999999999994,-171.18006728366944
-0.39370000000000005,-171.03859615368293
-0.39469999999999994,-170.89712502369645
-0.39570000000000005,-170.61418276372342
-0.39669999999999994,-170.47271163373694
-0.39770000000000005,-170.18976937376394
-0.39869999999999994,-170.0482982437774
-0.39970000000000006,-170.0482982437774
-0.40069999999999995,-170.18976937376394
-0.40170000000000006,-170.33124050375042
-0.40269999999999995,-170.33124050375042
-0.40370000000000006,-170.33124050375042
-0.40469999999999995,-170.33124050375042
-0.40570000000000006,-170.0482982437774
-0.40669999999999995,-170.0482982437774
-0.40770000000000006,-169.7653559838044
-0.40869999999999995,-169.7653559838044
-0.40970000000000006,-169.6238848538179
-0.41069999999999995,-169.6238848538179
-0.41170000000000007,-169.7653559838044
-0.41269999999999996,-169.9068271137909
-0.41370000000000007,-170.18976937376394
-0.41469999999999996,-170.33124050375042
-0.41570000000000007,-170.33124050375042
-0.41669999999999996,-170.33124050375042
-0.41770000000000007,-170.18976937376394
-0.41869999999999996,-170.18976937376394
-0.4197000000000001,-170.18976937376394
-0.42069999999999996,-170.33124050375042
-0.4217000000000001,-170.61418276372342
-0.42269999999999996,-170.89712502369645
-0.4237000000000001,-171.18006728366944
-0.42469999999999997,-171.60448067362896
-0.4257000000000001,-172.0288940635885
-0.42669999999999997,-172.31183632356147
-0.4277000000000001,-172.31183632356147
-0.42869999999999997,-172.31183632356147
-0.4297000000000001,-172.17036519357498
-0.43069999999999997,-171.88742293360195
-0.4317000000000001,-171.60448067362896
-0.4327,-171.18006728366944
-0.4337000000000001,-171.03859615368293
-0.4347,-170.89712502369645
-0.4357000000000001,-170.75565389370993
-0.4367,-170.61418276372342
-0.4377000000000001,-170.47271163373694
-0.4387,-170.33124050375042
-0.4397000000000001,-170.18976937376394
-0.4407,-170.0482982437774
-0.4417000000000001,-169.9068271137909
-0.4427,-169.7653559838044
-0.4437000000000001,-169.7653559838044
-0.4447,-169.9068271137909
-0.4457000000000001,-170.0482982437774
-0.4467,-170.47271163373694
-0.4477000000000001,-170.75565389370993
-0.4487,-171.18006728366944
-0.4497000000000001,-171.60448067362896
-0.4507,-171.88742293360195
-0.4517000000000001,-172.0288940635885
-0.4527,-172.17036519357498
-0.4537000000000001,-172.0288940635885
-0.4547,-171.88742293360195
-0.4557000000000001,-171.74595180361547
-0.4567,-171.74595180361547
-0.4577000000000001,-171.74595180361547
-0.4587,-172.0288940635885
-0.4597000000000001,-172.31183632356147
-0.4607,-172.59477858353446
-0.4617000000000001,-172.87772084350746
-0.4627,-173.302134233467
-0.4637000000000001,-173.58507649344
-0.4647,-173.86801875341303
-0.4657000000000001,-174.0094898833995
-0.4667,-174.43390327335902
-0.4677000000000001,-174.57537440334553
-0.4687,-174.99978779330505
-0.4697000000000001,-175.56567231325104
-0.4707,-175.99008570321055
-0.4717000000000001,-176.55597022315658
-0.4727,-176.98038361311612
-0.4737000000000001,-177.1218547431026
-0.4747,-177.2633258730891
-0.4757000000000001,-177.4047970030756
-0.4767,-177.4047970030756
-0.4777000000000001,-177.2633258730891
-0.4787,-177.2633258730891
-0.4797000000000001,-177.2633258730891
-0.4807,-177.2633258730891
-0.48170000000000013,-177.2633258730891
-0.4827,-177.4047970030756
-0.48370000000000013,-177.4047970030756
-0.4847,-177.4047970030756
-0.48570000000000013,-177.2633258730891
-0.4867,-175.70714344323756
-0.48570000000000013,-171.88742293360195
-0.4847,-168.35064468393938
-0.48370000000000013,-164.9553375642633
-0.4827,-161.9844438345467
-0.48170000000000013,-159.15502123481662
-0.4807,-156.60854089505958
-0.4797000000000001,-154.203531685289
-0.4787,-152.0814647354914
-0.4777000000000001,-149.95939778569388
-0.4767,-147.97880196588284
-0.4757000000000001,-145.85673501608528
-0.4747,-143.73466806628772
-0.4737000000000001,-141.61260111649017
-0.4727,-139.44809282769666
-0.4717000000000001,-137.43920278188833
-0.4707,-135.47275407507593
-0.4697000000000001,-133.60533515925405
-0.4687,-131.8510931474214
-0.4677000000000001,-130.11099824858744
-0.4667,-128.4982273667413
-0.4657000000000001,-126.84301514589919
