Potential V vs RHE, Current mA cm-2
0.4132999999999999,0.001851857091523333
0.4122999999999999,-0.0012796063707279258
0.4112999999999999,-0.0026950250262428948
0.4102999999999999,-0.0036754199570493648
0.4092999999999999,-0.004616202971459615
0.4082999999999999,-0.005466444462678501
0.4072999999999999,-0.0062077531838077805
0.4062999999999999,-0.0067863701054525815
0.4052999999999999,-0.0074626021067880684
0.4042999999999999,-0.0081289311290245
0.4032999999999999,-0.008679253824672
0.4022999999999999,-0.009233820654219094
0.4012999999999999,-0.00975726383516916
0.4002999999999999,-0.010208556739826105
0.3992999999999999,-0.01074897645637455
0.3982999999999999,-0.011263931369525422
0.3972999999999999,-0.011665709378687092
0.3962999999999999,-0.012067487387848764
0.3952999999999999,-0.012459362417911377
0.3942999999999999,-0.012845578602774533
0.39329999999999987,-0.013254430168435529
0.39229999999999987,-0.013630743374199627
0.39129999999999987,-0.013985835910465752
0.39029999999999987,-0.014331025467632824
0.38929999999999987,-0.014642261953603129
0.38829999999999987,-0.01503838111756534
0.38729999999999987,-0.015349617603535646
0.38629999999999987,-0.015646706976507305
0.38529999999999986,-0.01591550212348166
0.38429999999999986,-0.016212591496453318
0.38329999999999986,-0.01659456354741688
0.38229999999999986,-0.01683506446839394
0.38129999999999986,-0.017132153841365592
0.38029999999999986,-0.017443390327335904
0.37929999999999986,-0.01766974413531431
0.37829999999999986,-0.017995127734283266
0.37729999999999986,-0.018263922881257624
0.37629999999999986,-0.01850442380223468
0.37529999999999986,-0.018801513175206338
0.37429999999999986,-0.018985425644188793
0.37329999999999985,-0.0193249563561564
0.37229999999999985,-0.019607898616129407
0.37129999999999985,-0.019890840876102416
0.37029999999999985,-0.02007475334508487
0.36929999999999985,-0.02032940137906058
0.36829999999999985,-0.020640637865030884
0.36729999999999985,-0.020994315689997142
0.36629999999999985,-0.02119237527197825
0.36529999999999985,-0.021319699288966102
0.36429999999999985,-0.021687524226931015
0.36329999999999985,-0.02198461359990267
0.36229999999999984,-0.022281702972874327
0.36129999999999984,-0.022479762554855433
0.36029999999999984,-0.02273441058883114
0.35929999999999984,-0.022960764396809545
0.35829999999999984,-0.02318711820478795
0.35729999999999984,-0.023342736447773106
0.35629999999999984,-0.02356909025575151
0.35529999999999984,-0.023767149837732617
0.35429999999999984,-0.024021797871708325
0.35329999999999984,-0.02433303435767863
0.35229999999999984,-0.024587682391654337
0.35129999999999983,-0.02475744774763814
0.35029999999999983,-0.0249979486686152
0.34929999999999983,-0.025365773606580107
0.34829999999999983,-0.025577980301559864
0.34729999999999983,-0.025860922561532867
0.34629999999999983,-0.02591751101352747
0.34529999999999983,-0.026186306160501827
0.34429999999999983,-0.02649754264647214
0.3432999999999998,-0.026794632019443793
0.3422999999999998,-0.027063427166418155
0.3412999999999998,-0.027289780974396556
0.3402999999999998,-0.027530281895373616
0.3392999999999998,-0.027784929929349323
0.3382999999999998,-0.02806787218932233
0.3372999999999998,-0.028350814449295336
0.3362999999999998,-0.02849228557928184
0.3352999999999998,-0.028746933613257548
0.3342999999999998,-0.029058170099227856
0.3332999999999998,-0.029298671020204912
0.3322999999999998,-0.029553319054180613
0.3312999999999998,-0.02968064307116847
0.3302999999999998,-0.029963585331141473
0.3292999999999998,-0.030246527591114486
0.3282999999999998,-0.03047288139909289
0.3272999999999998,-0.030755823659065897
0.3262999999999998,-0.030968030354045658
0.3252999999999999,-0.03110950148403216
0.3242999999999999,-0.03137829663100652
0.3232999999999999,-0.03156220909998896
0.3222999999999999,-0.031802710020966025
0.3212999999999999,-0.032014916715945786
0.3202999999999999,-0.03224127052392419
0.3192999999999999,-0.032467624331902596
0.3182999999999999,-0.03284959638286615
0.3172999999999999,-0.033061803077845904
0.3162999999999999,-0.033274009772825665
0.3152999999999999,-0.03350036358080407
0.3142999999999999,-0.033712570275783824
0.3132999999999999,-0.03398136542275818
0.3122999999999999,-0.034094542326747385
0.3112999999999999,-0.03425016056973254
0.3102999999999999,-0.03453310282970555
0.3092999999999999,-0.0346604268466934
0.3082999999999999,-0.03494336910666641
0.3072999999999999,-0.035297046931632665
0.3062999999999999,-0.035466812287616466
0.3052999999999999,-0.03584878433858003
0.3042999999999999,-0.03631563906753549
0.3032999999999999,-0.03669761111849905
0.3022999999999999,-0.036881523587481514
0.3012999999999999,-0.036867376474482856
0.3002999999999999,-0.03709373028246127
0.2992999999999999,-0.03724934852544641
0.2982999999999999,-0.03756058501141672
0.2972999999999999,-0.03782938015839108
0.2962999999999999,-0.038055733966369486
0.2952999999999999,-0.03825379354835059
0.2942999999999999,-0.038522588695324954
0.2932999999999999,-0.03886211940729256
0.2922999999999999,-0.039159208780264215
0.2912999999999999,-0.03928653279725207
0.2902999999999999,-0.039611916396221025
0.2892999999999999,-0.039795828865203484
0.2882999999999999,-0.03999388844718459
0.2872999999999999,-0.040262683594158945
0.2862999999999999,-0.04048903740213735
0.2852999999999999,-0.040361713385149496
0.2842999999999999,-0.04048903740213735
0.2832999999999999,-0.04085686234010226
0.2822999999999999,-0.04112565748707661
0.2812999999999999,-0.04139445263405097
0.2802999999999999,-0.04156421799003478
0.2792999999999999,-0.04188960158900373
0.2782999999999999,-0.042016925605991594
0.2772999999999999,-0.04234230920496055
0.2762999999999999,-0.04279501682091736
0.2752999999999999,-0.04290819372490656
0.2742999999999999,-0.04344578401885528
0.2732999999999999,-0.04351651958384853
0.2722999999999999,-0.04370043205283098
0.2712999999999999,-0.04381360895682019
0.2702999999999999,-0.0443229050247716
0.2692999999999999,-0.044591700171745956
0.26829999999999987,-0.04529905582167848
0.26729999999999987,-0.045794204776631244
0.26629999999999987,-0.04599226435861234
0.26529999999999987,-0.04610544126260154
0.26429999999999987,-0.046317647957581295
0.26329999999999987,-0.04672791423454216
0.26229999999999987,-0.04685523825153001
0.26129999999999987,-0.04702500360751381
0.26029999999999986,-0.04759088812745983
0.25929999999999986,-0.04777480059644229
0.25829999999999986,-0.04804359574341665
0.25729999999999986,-0.04859533315036401
0.25629999999999986,-0.048750951393349166
0.25529999999999986,-0.04869436294135456
0.25429999999999986,-0.04896315808832892
0.25329999999999986,-0.04934513013929248
0.25229999999999986,-0.04967051373826144
0.25129999999999986,-0.049854426207243896
0.25029999999999986,-0.049925161772237145
0.24929999999999986,-0.0503071338232007
0.24829999999999985,-0.05057592897017506
0.24729999999999985,-0.05085887123014807
0.24629999999999985,-0.05081642989115212
0.24529999999999985,-0.05108522503812647
0.24429999999999985,-0.05153793265408329
0.24329999999999985,-0.05121254905511433
0.24229999999999985,-0.052075522948032
0.24129999999999985,-0.05237261232100365
0.24029999999999985,-0.052386759434002304
0.23929999999999985,-0.05271214303297127
0.23829999999999985,-0.05292434972795102
0.23729999999999984,-0.05356096981289029
0.23629999999999984,-0.053631705377883546
0.23529999999999984,-0.053518528473894336
0.23429999999999984,-0.053886353411859246
0.23329999999999984,-0.054141001445834946
0.23229999999999984,-0.05501812245175128
0.23129999999999984,-0.05518788780773508
0.23029999999999984,-0.055272770485726985
0.22929999999999984,-0.05467859173978367
0.22829999999999984,-0.05528691759872562
0.22729999999999984,-0.05586694923167029
0.22629999999999983,-0.05646112797761362
0.22529999999999983,-0.05595183190966221
0.22429999999999983,-0.05598012613565951
0.22329999999999983,-0.05639039241262036
0.22229999999999983,-0.05665918755959472
0.22129999999999983,-0.057069453836555574
0.22029999999999983,-0.05746557300051779
0.21929999999999983,-0.05767777969549755
0.21829999999999983,-0.058031457520463806
0.21729999999999983,-0.05779095659948674
0.21629999999999983,-0.058045604633462464
0.21529999999999982,-0.058597342040409825
0.21429999999999982,-0.058837842961386874
0.21329999999999982,-0.05920566789935178
0.21229999999999982,-0.0597432581933005
0.21129999999999982,-0.0599979062272762
0.21029999999999982,-0.06022426003525461
0.20929999999999982,-0.060408172504237065
0.20829999999999982,-0.06104479258917633
0.20729999999999982,-0.061907766482094014
0.20629999999999982,-0.06262926924502517
0.20529999999999982,-0.06258682790602922
0.20429999999999982,-0.06291221150499818
0.20329999999999981,-0.06315271242597524
0.2022999999999998,-0.06352053736394014
0.2012999999999998,-0.06407227477088752
0.20029999999999992,-0.06480792464681732
0.19929999999999992,-0.06524648514977549
0.19829999999999992,-0.06557186874874445
0.19729999999999992,-0.0657557812177269
0.19629999999999992,-0.06619434172068506
0.19529999999999992,-0.06656216665864997
0.19429999999999992,-0.06700072716160814
0.19329999999999992,-0.0673826992125717
0.19229999999999992,-0.06784955394152717
0.19129999999999991,-0.0677222299245393
0.1902999999999999,-0.0676656414725447
0.1892999999999999,-0.06814664331449882
0.1882999999999999,-0.06861349804345429
0.1872999999999999,-0.06909449988540839
0.1862999999999999,-0.0692642652413922
0.1852999999999999,-0.06953306038836657
0.1842999999999999,-0.0694057363713787
0.1832999999999999,-0.06988673821333281
0.1822999999999999,-0.07016968047330582
0.1812999999999999,-0.07038188716828557
0.1802999999999999,-0.07091947746223429
0.1792999999999999,-0.07138633219118974
0.1782999999999999,-0.07164098022516545
0.1772999999999999,-0.07185318692014521
0.1762999999999999,-0.07193806959813712
0.1752999999999999,-0.07212198206711957
0.1742999999999999,-0.07217857051911417
0.1732999999999999,-0.07219271763211282
0.1722999999999999,-0.07244736566608852
0.1712999999999999,-0.07270201370006424
0.1702999999999999,-0.07299910307303589
0.1692999999999999,-0.07306983863802914
0.1682999999999999,-0.07304154441203185
0.1672999999999999,-0.072914220395044
0.1662999999999999,-0.0732254568810143
0.1652999999999999,-0.07386207696595355
0.1642999999999999,-0.07397525386994278
0.1632999999999999,-0.07410257788693062
0.1622999999999999,-0.07410257788693062
0.1612999999999999,-0.07415916633892522
0.1602999999999999,-0.07448454993789419
0.1592999999999999,-0.07486652198885775
0.15829999999999989,-0.07506458157083885
0.15729999999999988,-0.07530508249181589
0.15629999999999988,-0.07538996516980781
0.15529999999999988,-0.0756163189777862
0.15429999999999988,-0.07602658525474706
0.15329999999999988,-0.07612561504573763
0.15229999999999988,-0.07599829102874978
0.15129999999999988,-0.07621049772372954
0.15029999999999988,-0.07664905822668767
0.14929999999999988,-0.07711591295564316
0.14829999999999988,-0.07704517739064991
0.14729999999999988,-0.07705932450364854
0.14629999999999987,-0.07748373789360806
0.14529999999999987,-0.07775253304058242
0.14429999999999987,-0.0777808272665797
0.14329999999999987,-0.07795059262256351
0.14229999999999987,-0.07820524065653922
0.14129999999999987,-0.07827597622153248
0.14029999999999987,-0.07879941940248254
0.13929999999999987,-0.07908236166245554
0.13829999999999987,-0.0792945683574353
0.13729999999999987,-0.07967654040839886
0.13629999999999987,-0.0794643337134191
0.13529999999999986,-0.07919553856644475
0.13429999999999986,-0.07990289421637728
0.13329999999999986,-0.08017168936335163
0.13229999999999986,-0.08022827781534624
0.13129999999999986,-0.08019998358934893
0.13029999999999986,-0.08032730760633679
0.12929999999999986,-0.08099222191727334
0.12829999999999986,-0.08131760551624231
0.12729999999999986,-0.08127516417724635
0.12629999999999986,-0.08144492953323015
0.12529999999999986,-0.08162884200221261
0.12429999999999986,-0.08172787179320316
0.12329999999999985,-0.08210984384416672
0.12229999999999985,-0.08274646392910599
0.12129999999999985,-0.08285964083309519
0.12029999999999985,-0.0831425830930682
0.11929999999999985,-0.08311428886707091
0.11829999999999985,-0.08322746577106012
0.11729999999999985,-0.08356699648302772
0.11629999999999985,-0.08414702811597238
0.11529999999999985,-0.08442997037594539
0.11429999999999985,-0.08509488468688196
0.11329999999999985,-0.08529294426886307
0.11229999999999984,-0.08526465004286575
0.11129999999999984,-0.08527879715586441
0.11029999999999984,-0.08557588652883606
0.10929999999999984,-0.08574565188481988
0.10829999999999984,-0.08621250661377533
0.10729999999999984,-0.08639641908275779
0.10629999999999984,-0.08638227196975913
0.10529999999999984,-0.0866793613427308
0.10429999999999984,-0.08708962761969166
0.10329999999999984,-0.0872735400886741
0.10229999999999984,-0.08730183431467141
0.10129999999999983,-0.08758477657464442
0.10029999999999983,-0.08723109874967816
0.09929999999999983,-0.08730183431467141
0.09829999999999983,-0.08817895532058774
0.09729999999999983,-0.08846189758056075
0.09629999999999983,-0.08863166293654455
0.09529999999999983,-0.08943804837746762
0.09429999999999983,-0.08942390126446896
0.09329999999999983,-0.08949463682946222
0.09229999999999983,-0.08993319733242039
0.09129999999999983,-0.08973513775043927
0.09029999999999982,-0.08970684352444197
0.08929999999999982,-0.08945219549046628
0.08829999999999982,-0.08991905021942173
0.08729999999999982,-0.09037175783537854
0.08629999999999982,-0.09054152319136234
0.08529999999999982,-0.09106496637231241
0.08429999999999982,-0.09133376151928675
0.08329999999999982,-0.09136205574528407
0.08229999999999982,-0.09103667214631511
0.08129999999999982,-0.09146108553627462
0.08029999999999982,-0.09093764235532456
0.07929999999999982,-0.09171573357025031
0.07829999999999981,-0.09218258829920578
0.07729999999999981,-0.09212599984721119
0.07629999999999981,-0.09259285457616664
0.07529999999999992,-0.09255041323717071
0.07429999999999992,-0.09264944302816126
0.07329999999999992,-0.09342753424308703
0.07229999999999992,-0.09327191600010187
0.07129999999999992,-0.09358315248607219
0.07029999999999992,-0.09358315248607219
0.06929999999999992,-0.09358315248607219
0.06829999999999992,-0.09429050813600469
0.06729999999999992,-0.09472906863896285
0.06629999999999991,-0.09472906863896285
0.06529999999999991,-0.0944885677179858
0.06429999999999991,-0.09441783215299256
0.06329999999999991,-0.09487053976894937
0.06229999999999991,-0.09504030512493315
0.06129999999999991,-0.09529495315890889
0.06029999999999991,-0.09595986746984543
0.05929999999999991,-0.0962003683908225
0.05829999999999991,-0.0962286626168198
0.05729999999999991,-0.09695016537975096
0.056299999999999906,-0.09675210579776986
0.055299999999999905,-0.09663892889378066
0.054299999999999904,-0.0967662529107685
0.0532999999999999,-0.09710578362273611
0.0522999999999999,-0.09775655082067403
0.0512999999999999,-0.0981951113236322
0.0502999999999999,-0.09803949308064704
0.0492999999999999,-0.09811022864564029
0.0482999999999999,-0.09852049492260115
0.0472999999999999,-0.09928443902452828
0.0462999999999999,-0.09886002563456876
0.045299999999999896,-0.09843561224460926
0.044299999999999895,-0.09898734965155662
0.043299999999999894,-0.09928443902452828
0.04229999999999989,-0.09972299952748644
0.04129999999999989,-0.1003596196124257
0.04029999999999989,-0.10048694362941356
0.03929999999999989,-0.10074159166338927
0.03829999999999989,-0.10112356371435283
0.03729999999999989,-0.10177433091229074
0.03629999999999989,-0.10184506647728399
0.03529999999999989,-0.10188750781627993
0.034299999999999886,-0.10194409626827454
0.033299999999999885,-0.10211386162425835
0.032299999999999884,-0.1025241279012192
0.031299999999999883,-0.10262315769220977
0.030299999999999883,-0.10292024706518142
0.02929999999999988,-0.10331636622914364
0.02829999999999988,-0.10368419116710853
0.02729999999999988,-0.1043208112520478
0.02629999999999988,-0.10471693041601002
0.025299999999999878,-0.10464619485101677
0.024299999999999877,-0.10485840154599652
0.023299999999999876,-0.10559405142192634
0.022299999999999875,-0.10570722832591554
0.021299999999999875,-0.10574966966491149
0.020299999999999874,-0.1061457888288737
0.019299999999999873,-0.10686729159180487
0.018299999999999872,-0.10683899736580757
0.01729999999999987,-0.10743317611175088
0.01629999999999987,-0.10784344238871174
0.01529999999999987,-0.10809809042268745
0.014299999999999868,-0.10828200289166989
0.013299999999999867,-0.10891862297660918
0.012299999999999978,-0.10886203452461457
0.011299999999999866,-0.10927230080157543
0.010299999999999976,-0.10942791904456058
0.009299999999999864,-0.10971086130453359
0.008299999999999974,-0.11016356892049041
0.007299999999999862,-0.11026259871148097
0.006299999999999972,-0.11050309963245801
0.00529999999999986,-0.11094166013541619
0.0042999999999999705,-0.11121045528239053
0.0032999999999998586,-0.11098410147441214
0.0022999999999999687,-0.11187536959332708
0.0012999999999998568,-0.1119885464973163
0.00029999999999996696,-0.11286566750323263
-0.000700000000000145,-0.11399743654312465
-0.0017000000000000348,-0.11428037880309765
-0.0027000000000001467,-0.1142379374641017
-0.0037000000000000366,-0.11445014415908147
-0.0047000000000001485,-0.11454917395007203
-0.005700000000000038,-0.11539800072999104
-0.00670000000000015,-0.11551117763398025
-0.00770000000000004,-0.11524238248700588
-0.008700000000000152,-0.11549703052098159
-0.009700000000000042,-0.11602047370193166
-0.010700000000000154,-0.11634585730090061
-0.011700000000000044,-0.11582241411995055
-0.012700000000000156,-0.11651562265688443
-0.013700000000000045,-0.1176049503577805
-0.014700000000000157,-0.1176049503577805
-0.015700000000000047,-0.11783130416575889
-0.01670000000000016,-0.1179444810697481
-0.01770000000000005,-0.11835474734670896
-0.01870000000000016,-0.11858110115468738
-0.01970000000000005,-0.11846792425069817
-0.020700000000000163,-0.11889233764065768
-0.021700000000000053,-0.11875086651067117
-0.022700000000000164,-0.11896307320565094
-0.023700000000000054,-0.11952895772559695
-0.024700000000000166,-0.12005240090654701
-0.025700000000000056,-0.12112758149444444
-0.026700000000000168,-0.12153784777140529
-0.027700000000000058,-0.12210373229135131
-0.02870000000000017,-0.12194811404836617
-0.02970000000000006,-0.1218207900313783
-0.03070000000000017,-0.12244326300331891
-0.03170000000000006,-0.12237252743832566
-0.03270000000000017,-0.12324964844424201
-0.03370000000000006,-0.12244326300331891
-0.034700000000000175,-0.12245741011631758
-0.035700000000000065,-0.12286767639327843
-0.03670000000000018,-0.12399944543317046
-0.03770000000000007,-0.12450874150112187
-0.03870000000000018,-0.12380138585118937
-0.03970000000000007,-0.12442385882312997
-0.04070000000000018,-0.12521609715105442
-0.04170000000000007,-0.12469265397010434
-0.04270000000000018,-0.12456532995311646
-0.04370000000000007,-0.12438141748413403
-0.044700000000000184,-0.12510292024706518
-0.045700000000000074,-0.12565465765401257
-0.046700000000000186,-0.12664495556391808
-0.047700000000000076,-0.12634786619094643
-0.04870000000000019,-0.12667324978991537
-0.04970000000000008,-0.12691375071089245
-0.05070000000000019,-0.1262629835129545
-0.05170000000000008,-0.12620639506095993
-0.05270000000000019,-0.12680057380690324
-0.05370000000000008,-0.12762110636082497
-0.05470000000000019,-0.12842749180174803
-0.05570000000000008,-0.12854066870573724
-0.056700000000000195,-0.1278050188298074
-0.057700000000000085,-0.12787575439480064
-0.058700000000000196,-0.12807381397678178
-0.059700000000000086,-0.1294319368246522
-0.0607000000000002,-0.12998367423159957
-0.06170000000000009,-0.13083250101151858
-0.0627000000000002,-0.13149741532245518
-0.06370000000000009,-0.1314832682094565
-0.0647000000000002,-0.13165303356544034
-0.06570000000000009,-0.13166718067843897
-0.0667000000000002,-0.1322896536503796
-0.0677000000000001,-0.1326291843623472
-0.0687000000000002,-0.1329404208483175
-0.0697000000000001,-0.133081891978304
-0.07070000000000021,-0.13347801114226623
