Potential V vs RHE, Current mA cm-2
0.013299999999999867,5.96583755153086
0.012299999999999978,5.5018122451751275
0.011299999999999866,5.150963842808599
0.010299999999999976,4.85387446983694
0.009299999999999864,4.583664611562719
0.008299999999999974,4.347407824485257
0.007299999999999862,4.130956995605907
0.006299999999999972,3.9215797232258818
0.00529999999999986,3.7263495638445066
0.0042999999999999705,3.522631136663941
0.0032999999999998586,3.3401333789813514
0.0022999999999999687,3.161879755198357
0.0012999999999998568,2.9935291105144173
0.00029999999999996696,2.8265931771303436
-0.000700000000000145,2.661071955046134
-0.0017000000000000348,2.50262428946125
-0.0027000000000001467,2.349835469075826
-0.0037000000000000366,2.202705493889862
-0.0047000000000001485,2.0569902300037635
-0.005700000000000038,1.9155191000172598
-0.00670000000000015,1.7853656604296764
-0.00770000000000004,1.6594563547416883
-0.008700000000000152,1.5264734925543744
-0.009700000000000042,1.3985835910465754
-0.010700000000000154,1.2736645832684925
-0.011700000000000044,1.1558191319897348
-0.012700000000000156,1.0405201610507344
-0.013700000000000045,0.9277676704514911
-0.014700000000000157,0.8121857572525175
-0.015700000000000047,0.7056579963726802
-0.01670000000000016,0.5994131777528161
-0.01770000000000005,0.5032128093619935
-0.01870000000000016,0.40658802758121154
-0.01970000000000005,0.3096803035404565
-0.020700000000000163,0.21404581966958006
-0.021700000000000053,0.12606492393097343
-0.022700000000000164,0.037433260994428876
-0.023700000000000054,-0.050080780015222294
-0.024700000000000166,-0.13912270922872771
-0.025700000000000056,-0.2284758749282034
-0.026700000000000168,-0.3055776407708479
-0.027700000000000058,-0.3869235405130875
-0.02870000000000017,-0.4658644310455565
-0.02970000000000006,-0.5466444462678502
-0.03070000000000017,-0.6247365100204001
-0.03170000000000006,-0.6941988348437735
-0.03270000000000017,-0.7618220349773223
-0.03370000000000006,-0.8334064267504931
-0.034700000000000175,-0.9028687515738664
-0.035700000000000065,-0.9740287299570778
-0.03670000000000018,-1.0354272003712204
-0.03770000000000007,-1.0975330264352956
-0.03870000000000018,-1.1603462081493032
-0.03970000000000007,-1.2254229279430946
-0.04070000000000018,-1.2856896293173452
-0.04170000000000007,-1.3469466286015015
-0.04270000000000018,-1.4033936094661164
-0.04370000000000007,-1.461396772760583
-0.044700000000000184,-1.5179852247551844
-0.045700000000000074,-1.5717442541500557
-0.046700000000000186,-1.6226738609451972
-0.047700000000000076,-1.6764328903400685
-0.04870000000000019,-1.7301919197349398
-0.04970000000000008,-1.7881950830294064
-0.05070000000000019,-1.8334658446250875
-0.05170000000000008,-1.8872248740199586
-0.05270000000000019,-1.93532505821537
-0.05370000000000008,-1.9763516859114565
-0.05470000000000019,-2.0357695605057877
-0.05570000000000008,-2.085284456001064
-0.056700000000000195,-2.12631108369715
-0.057700000000000085,-2.1758259791924264
-0.058700000000000196,-2.2182673181883774
-0.059700000000000086,-2.2621233684841937
-0.0607000000000002,-2.310223552679605
-0.06170000000000009,-2.361153159474746
-0.0627000000000002,-2.407838632370292
-0.06370000000000009,-2.4488652600663787
-0.0647000000000002,-2.49413602166206
-0.06570000000000009,-2.536577360658011
-0.0667000000000002,-2.5677010092550416
-0.0677000000000001,-2.6115570595508575
-0.0687000000000002,-2.6511689759470785
-0.0697000000000001,-2.70209858274222
-0.07070000000000021,-2.754442900837226
-0.0717000000000001,-2.794054817233447
-0.07270000000000021,-2.8308373110299385
-0.0737000000000001,-2.8718639387260247
-0.07470000000000021,-2.91289056642211
-0.0757000000000001,-2.9482583489187366
-0.07670000000000021,-2.9850408427152275
-0.0777000000000001,-3.021823336511718
-0.07870000000000021,-3.0713382320069944
-0.0797000000000001,-3.1151942823028107
-0.08070000000000022,-3.160465043898492
-0.0817000000000001,-3.1944181150952526
-0.08270000000000022,-3.2340300314914736
-0.08370000000000011,-3.27222723658783
-0.08470000000000022,-3.314668575583781
-0.08570000000000011,-3.351451069380272
-0.08670000000000022,-3.3995512535756833
-0.08770000000000011,-3.4419925925716344
-0.08870000000000022,-3.4872633541673155
-0.08970000000000011,-3.532534115762996
-0.09070000000000022,-3.569316609559488
-0.09170000000000011,-3.6075138146558436
-0.09270000000000023,-3.6485404423519294
-0.09370000000000012,-3.6895670700480157
-0.09470000000000023,-3.734837831643697
-0.09570000000000012,-3.782938015839108
-0.09670000000000023,-3.833867622634249
-0.09770000000000012,-3.8805530955297955
-0.09870000000000023,-3.9215797232258818
-0.09970000000000012,-3.971094618721158
-0.10070000000000023,-4.01070653511738
-0.10170000000000012,-4.046074317614004
-0.10270000000000024,-4.085686234010226
-0.10370000000000013,-4.138030552105232
-0.10470000000000024,-4.193204292799969
-0.10570000000000013,-4.24413389959511
-0.10670000000000024,-4.300722351589712
-0.10770000000000013,-4.3403342679859325
-0.10870000000000024,-4.387019740881478
-0.10970000000000013,-4.4322905024771595
-0.11070000000000024,-4.480390686672571
-0.11170000000000013,-4.525661448268252
-0.11270000000000002,-4.587908745462314
-0.11370000000000013,-4.645911908756781
-0.11470000000000002,-4.695426804252056
-0.11570000000000014,-4.754844678846388
-0.11670000000000003,-4.804359574341665
-0.11770000000000014,-4.851045047237211
-0.11870000000000003,-4.900559942732487
-0.11970000000000014,-4.950074838227763
-0.12070000000000003,-4.995345599823445
-0.12170000000000014,-5.0618370309171015
-0.12270000000000003,-5.124084328111163
-0.12370000000000014,-5.190575759204819
-0.12470000000000003,-5.255652478998611
-0.12570000000000014,-5.310826219693348
-0.12670000000000003,-5.368829382987815
-0.12770000000000015,-5.428247257582146
-0.12870000000000004,-5.490494554776207
-0.12970000000000015,-5.5541565632701335
-0.13070000000000004,-5.605086170065275
-0.13170000000000015,-5.678651157658257
-0.13270000000000004,-5.750801433951374
-0.13370000000000015,-5.8102193085457055
-0.13470000000000004,-5.890857852638012
-0.13570000000000015,-5.963008128931129
-0.13670000000000004,-6.016767158326001
-0.13770000000000016,-6.067696765121143
-0.13870000000000005,-6.14833530921345
-0.13970000000000016,-6.224729719406161
-0.14070000000000005,-6.292635861799683
-0.14170000000000016,-6.3676155606925295
-0.14270000000000005,-6.4595717951837575
-0.14370000000000016,-6.523233803677684
-0.14470000000000005,-6.601042925170261
-0.14570000000000016,-6.690169737061758
-0.14670000000000005,-6.7609053020550105
-0.14770000000000016,-6.831640867048262
-0.14870000000000005,-6.906620565941108
-0.14970000000000017,-7.011309202131122
-0.15070000000000006,-7.103265436622349
-0.15170000000000017,-7.190977537213982
-0.15270000000000006,-7.278689637805614
-0.15370000000000017,-7.3777194287961665
-0.15470000000000006,-7.456943261588608
-0.15570000000000017,-7.526264115281995
-0.15670000000000006,-7.618220349773223
-0.15770000000000017,-7.715835429463911
-0.15870000000000006,-7.816279931754329
-0.15970000000000018,-7.911065588845285
-0.16070000000000007,-8.036974894533273
-0.16170000000000018,-8.144492953323017
-0.16270000000000007,-8.227960920015054
-0.16370000000000018,-8.322746577106011
-0.16470000000000007,-8.427435213296024
-0.16570000000000018,-8.520806159087115
-0.16670000000000007,-8.61134768227848
-0.16770000000000018,-8.711792184568896
-0.16870000000000007,-8.827798511157829
-0.16970000000000018,-8.939560703847167
-0.17070000000000007,-9.065470009535154
-0.17170000000000019,-9.185720470023682
-0.17270000000000008,-9.304556219212346
-0.1737000000000002,-9.423391968401008
-0.17470000000000008,-9.545057140189403
-0.1757000000000002,-9.676625291076851
-0.17670000000000008,-9.788387483766188
-0.1777000000000002,-9.902979099055257
-0.17870000000000008,-10.007667735245269
-0.1797000000000002,-10.126503484433933
-0.18070000000000008,-10.256656924021515
-0.1817000000000002,-10.37832209580991
-0.18270000000000008,-10.528281493595602
-0.1837000000000002,-10.666923200982376
-0.1847000000000001,-10.818297310067935
-0.1857000000000002,-10.966841996553764
-0.1867000000000001,-11.094166013541617
-0.1877000000000002,-11.228563587028798
-0.1887000000000001,-11.36437587181584
-0.1897000000000002,-11.494529311403422
-0.1907000000000001,-11.614779771891952
-0.1917000000000001,-11.74917734537913
-0.19269999999999998,-11.903380877064418
-0.1937000000000001,-12.049096140950518
-0.19469999999999998,-12.218861496934323
-0.1957000000000001,-12.390041564217992
-0.19669999999999999,-12.551318652402605
-0.1977000000000001,-12.674398535490864
-0.1987,-12.810210820277907
-0.1997000000000001,-12.957340795463871
-0.2007,-13.11437374974889
-0.2017000000000001,-13.27706554923337
-0.2027,-13.445416193917309
-0.2037000000000001,-13.62508452900017
-0.2047,-13.769385081586401
-0.2057000000000001,-13.929247458471151
-0.2067,-14.079206856256844
-0.2077000000000001,-14.231995676642269
-0.2087,-14.387613919627421
-0.2097000000000001,-14.557379275611227
-0.2107,-14.727144631595033
-0.2117000000000001,-14.882762874580186
-0.2127,-15.06667534356264
-0.2137000000000001,-15.236440699546446
-0.2147,-15.4203531685289
-0.2157000000000001,-15.575971411514052
-0.2167,-15.717442541500558
-0.21770000000000012,-15.858913671487063
-0.2187,-16.02867902747086
-0.21970000000000012,-16.19844438345467
-0.2207,-16.339915513441174
-0.22170000000000012,-16.50968086942498
-0.2227,-16.679446225408782
-0.22370000000000012,-16.849211581392588
-0.2247,-16.97653559838044
-0.22570000000000012,-17.089712502369647
-0.2267,-17.2453307453548
-0.22770000000000012,-17.4150961013386
-0.22870000000000001,-17.542420118326454
-0.22970000000000013,-17.698038361311607
-0.23070000000000002,-17.853656604296763
-0.23170000000000013,-17.966833508285966
-0.23270000000000002,-18.10830463827247
-0.23370000000000013,-18.207334429263025
-0.23470000000000002,-18.292217107254928
-0.23570000000000013,-18.433688237241427
-0.23670000000000002,-18.57515936722793
-0.2376999999999999,-18.674189158218486
-0.23870000000000002,-18.80151317520634
-0.2396999999999999,-18.872248740199588
-0.24070000000000003,-18.97127853119014
-0.24169999999999991,-19.042014096183394
-0.24270000000000003,-19.112749661176647
-0.24369999999999992,-19.211779452167196
-0.24470000000000003,-19.31080924315775
-0.24569999999999992,-19.353250582153702
-0.24670000000000003,-19.409839034148305
-0.24769999999999992,-19.466427486142905
-0.24870000000000003,-19.551310164134804
-0.24969999999999992,-19.60789861612941
-0.25070000000000003,-19.65033995512536
-0.2516999999999999,-19.69278129412131
-0.25270000000000004,-19.721075520118614
-0.2536999999999999,-19.749369746115914
-0.25470000000000004,-19.749369746115914
-0.2556999999999999,-19.77766397211321
-0.25670000000000004,-19.77766397211321
-0.25769999999999993,-19.820105311109163
-0.25870000000000004,-19.791811085111863
-0.25969999999999993,-19.876693763103766
-0.26070000000000004,-19.947429328097016
-0.26169999999999993,-19.961576441095666
-0.26270000000000004,-19.93328221509837
-0.26369999999999993,-19.904987989101066
-0.26470000000000005,-19.876693763103766
-0.26569999999999994,-19.876693763103766
-0.26670000000000005,-19.890840876102416
-0.26769999999999994,-19.904987989101066
-0.26870000000000005,-20.00401778009162
-0.26969999999999994,-20.07475334508487
-0.27070000000000005,-20.03231200608892
-0.27169999999999994,-19.961576441095666
-0.27270000000000005,-19.93328221509837
-0.27369999999999994,-19.919135102099716
-0.27470000000000006,-19.93328221509837
-0.27569999999999995,-19.961576441095666
-0.27670000000000006,-19.961576441095666
-0.27769999999999995,-19.947429328097016
-0.27870000000000006,-19.947429328097016
-0.27969999999999995,-19.947429328097016
-0.28070000000000006,-19.904987989101066
-0.28169999999999995,-19.890840876102416
-0.28270000000000006,-19.834252424107817
-0.28369999999999995,-19.73522263311726
-0.28470000000000006,-19.678634181122664
-0.28569999999999995,-19.69278129412131
-0.28670000000000007,-19.65033995512536
-0.28769999999999996,-19.537163051136158
-0.28870000000000007,-19.480574599141555
-0.28969999999999996,-19.353250582153702
-0.29070000000000007,-19.2400736781645
-0.29169999999999996,-19.112749661176647
-0.29270000000000007,-18.97127853119014
-0.29369999999999996,-18.88639585319824
-0.2947000000000001,-18.815660288204988
-0.29569999999999996,-18.660042045219836
-0.2967000000000001,-18.49027668923603
-0.29769999999999996,-18.362952672248177
-0.2987000000000001,-18.164893090267068
-0.29969999999999997,-17.995127734283265
-0.3007000000000001,-17.782921039303513
-0.30169999999999997,-17.584861457322408
-0.3027000000000001,-17.386801875341302
-0.30369999999999997,-17.160448067362896
-0.3047000000000001,-16.93409425938449
-0.30569999999999997,-16.679446225408782
-0.3067000000000001,-16.453092417430376
-0.3077,-16.269179948447924
-0.3087000000000001,-16.085267479465468
-0.3097,-15.88720789748436
-0.3107000000000001,-15.675001202504609
-0.3117,-15.43450028152755
-0.3127000000000001,-15.193999360550496
-0.3137,-14.953498439573437
-0.3147000000000001,-14.71299751859638
-0.3157,-14.486643710617974
-0.3167000000000001,-14.30273124163552
-0.3177,-14.090524546655764
-0.3187000000000001,-13.906612077673309
-0.3197,-13.69582009399342
-0.3207000000000001,-13.530298871909212
-0.3217,-13.390242453222573
-0.3227000000000001,-13.275650837933506
-0.3237,-13.104470770649836
-0.3247000000000001,-12.987049732761037
-0.3257,-12.87245811747197
-0.3267000000000001,-12.745134100484115
-0.3277,-12.641860175593967
-0.3287000000000001,-12.581027589699772
-0.3297,-12.520195003805576
-0.3307000000000001,-12.453703572711918
-0.3317,-12.398529832017182
-0.3327000000000001,-12.390041564217992
-0.3337,-12.401359254616912
-0.3347000000000001,-12.46785068571057
-0.3357,-12.457947706611513
-0.3367000000000001,-12.47916837610949
-0.3377,-12.483412510009083
-0.3387000000000001,-12.534342116804225
-0.3397,-12.55839220890193
-0.3407000000000001,-12.590930568798825
-0.3417,-12.624883639995588
-0.3427000000000001,-12.657421999892483
-0.3437,-12.7012780501883
-0.3447000000000001,-12.776257749081147
-0.3457,-12.824357933276557
-0.3467000000000001,-12.88660523047062
-0.3477,-12.950267238964546
-0.3487000000000001,-13.009685113558877
-0.3497,-13.09173836895105
-0.3507000000000001,-13.195012293841197
-0.3517,-13.289797950932153
-0.3527000000000001,-13.411463122720548
-0.3537,-13.534543005808807
-0.3547000000000001,-13.647719909798008
-0.3557,-13.765140947686808
-0.35670000000000013,-13.913685634172637
-0.3577,-14.014130136463052
-0.35870000000000013,-14.189554337646317
-0.3597,-14.274437015638219
-0.36070000000000013,-14.458349484620674
-0.3617,-14.62811484060448
-0.3626999999999999,-14.741291744593681
-0.3637,-15.02423400456669
-0.3646999999999999,-15.193999360550496
-0.3657,-15.406206055530248
-0.3666999999999999,-15.618412750510005
-0.3677,-15.858913671487063
-0.3686999999999999,-16.085267479465468
-0.36970000000000003,-16.311621287443874
-0.3706999999999999,-16.53797509542228
-0.37170000000000003,-16.764328903400685
-0.3726999999999999,-16.99068271137909
-0.37370000000000003,-17.231183632356142
-0.3746999999999999,-17.471684553333205
-0.37570000000000003,-17.72633258730891
-0.3766999999999999,-17.966833508285966
-0.37770000000000004,-18.23562865526032
-0.3786999999999999,-18.504423802234676
-0.37970000000000004,-18.78736606220769
-0.3806999999999999,-19.056161209182044
-0.38170000000000004,-19.31080924315775
-0.38269999999999993,-19.60789861612941
-0.38370000000000004,-19.876693763103766
-0.38469999999999993,-20.14548891007812
-0.38570000000000004,-20.414284057052477
-0.38669999999999993,-20.73966765602144
-0.38770000000000004,-21.036757028993097
-0.38869999999999993,-21.30555217596745
-0.38970000000000005,-21.602641548939108
-0.39069999999999994,-21.92802514790807
-0.39170000000000005,-22.225114520879725
-0.39269999999999994,-22.536351006850033
-0.39370000000000005,-22.819293266823045
-0.39469999999999994,-23.144676865792
-0.39570000000000005,-23.44176623876366
-0.39669999999999994,-23.710561385738018
-0.39770000000000005,-23.96520941971372
-0.39869999999999994,-24.33303435767863
-0.39970000000000006,-24.64427084364894
-0.40069999999999995,-24.927213103621945
-0.40170000000000006,-25.266743815589557
-0.40269999999999995,-25.57798030155986
-0.40370000000000006,-25.974099465522073
-0.40469999999999995,-26.34192440348698
-0.40570000000000006,-26.752190680447846
-0.40669999999999995,-27.14830984441005
-0.40770000000000006,-27.530281895373616
-0.40869999999999995,-27.813224155346617
-0.40970000000000006,-28.18104909331153
-0.41069999999999995,-28.52057980527914
-0.41170000000000007,-28.789374952253496
-0.41269999999999996,-29.22793545521166
-0.41370000000000007,-29.72308441016442
-0.41469999999999996,-29.63820173217252
-0.41570000000000007,-29.935291105144174
-0.41669999999999996,-30.359704495103685
-0.41770000000000007,-30.7558236590659
-0.41869999999999996,-31.109501484032155
-0.4197000000000001,-31.46317930899841
-0.42069999999999996,-31.77441579496872
-0.4217000000000001,-32.184682071929586
-0.42269999999999996,-32.51006567089854
-0.4237000000000001,-32.92033194785941
-0.42469999999999997,-33.344745337818914
-0.4257000000000001,-33.68427604978652
-0.42669999999999997,-34.02380676175414
-0.4277000000000001,-34.43407303871499
-0.42869999999999997,-34.773603750682604
-0.4297000000000001,-35.297046931632664
-0.43069999999999997,-35.721460321592176
-0.4317000000000001,-36.14587371155169
-0.4327,-36.329786180534136
-0.4337000000000001,-36.8532293614842
-0.4347,-37.40496676843157
-0.4357000000000001,-37.81523304539243
-0.4367,-38.08402819236679
-0.4377000000000001,-38.593324260318205
-0.4387,-39.060178989273666
-0.4397000000000001,-39.39970970124127
-0.4407,-39.35726836224533
-0.4417000000000001,-39.83827020419943
-0.4427,-40.37586049814815
-0.4437000000000001,-41.111510374077966
-0.4447,-41.46518819904423
-0.4457000000000001,-42.04521983198889
-0.4467,-42.115955396982145
-0.4477000000000001,-42.568663012938956
-0.4487,-43.02137062889577
-0.4497000000000001,-43.58725514884178
-0.4507,-43.85605029581614
-0.4517000000000001,-44.16728678178645
-0.4527,-44.634141510741905
-0.4537000000000001,-44.83220109272301
-0.4547,-45.497115403659585
-0.4557000000000001,-45.78005766363259
-0.4567,-46.176176827594794
-0.4577000000000001,-46.36008929657725
-0.4587,-46.86938536452866
-0.4597000000000001,-47.619182353457134
-0.4607,-47.77480059644228
-0.4617000000000001,-48.2558024383964
-0.4627,-48.45386202037751
-0.4637000000000001,-49.21780612230463
-0.4647,-49.642219512264134
-0.4657000000000001,-49.78369064225064
-0.4667,-50.3637222751953
-0.4677000000000001,-50.74569432615886
-0.4687,-50.97204813413727
-0.4697000000000001,-51.69355089706845
-0.4707,-52.2735825300131
-0.4717000000000001,-52.57067190298476
-0.4727,-52.88190838895507
-0.4737000000000001,-53.29217466591593
-0.4747,-53.872206298860604
-0.4757000000000001,-53.9570889768525
-0.4767,-54.494679270801214
-0.4777000000000001,-55.24447625972968
-0.4787,-55.27277048572698
-0.4797000000000001,-56.06500881365141
-0.4807,-56.70162889859067
-0.48170000000000013,-56.942129819567725
-0.4827,-57.479720113516436
-0.48370000000000013,-57.87583927747865
-0.4847,-58.17292865045031
-0.48570000000000013,-58.71051894439902
-0.4867,-58.809548735389576
-0.48570000000000013,-57.93242772947325
-0.4847,-57.53630856551105
-0.48370000000000013,-57.15433651454749
-0.4827,-56.37624529962171
-0.48170000000000013,-56.008420361656796
-0.4807,-55.5840069716973
-0.4797000000000001,-54.933239773759375
-0.4787,-54.2117370108282
-0.4777000000000001,-53.67414671687949
-0.4767,-53.17899776192673
-0.4757000000000001,-52.57067190298476
-0.4747,-52.31602386900906
-0.4737000000000001,-51.934051818045496
-0.4727,-51.594521106077885
-0.4717000000000001,-50.90131256914402
-0.4707,-50.43445784018856
-0.4697000000000001,-50.179809806212845
-0.4687,-49.41586570428573
-0.4677000000000001,-48.75095139334916
-0.4667,-48.65192160235861
-0.4657000000000001,-48.2840966643937
-0.4647,-47.49185833646928
