Mar. 8, 2025   04:34:22
Cyclic Voltammetry
File: c:/users/guazh/data/banditlqround7_x0exp169_r20_3/2025-03-03-exp905\exp905-2025-03-08t04_29_29-arkoh\exp905_cv_50mvs_efin_-1400mv.bin
Data Source:  Experiment
Instrument Model:  CHI760E
Header: CV ran at 50 mVs
Note: 

Init E (V) = -1
High E (V) = -1
Low E (V) = -1.4
Final E (V) = -1
Init P/N = N
Scan Rate (V/s) = 0.05
Segment = 7
Sample Interval (V) = 0.001
Quiet Time (sec) = 60
Sensitivity (A/V) = 0.001
Comp R (ohm) = 1.3

Results:

Channel 1:
Segment 1:

Segment 2:

Segment 3:

Segment 4:

Segment 5:

Segment 6:

Segment 7:

Potential/V, Current/A

-1.000, 4.571e-5
-1.001, 1.062e-4
-1.002, 1.334e-4
-1.003, 1.486e-4
-1.004, 1.588e-4
-1.005, 1.637e-4
-1.006, 1.682e-4
-1.007, 1.721e-4
-1.008, 1.754e-4
-1.009, 1.783e-4
-1.010, 1.800e-4
-1.011, 1.813e-4
-1.012, 1.836e-4
-1.013, 1.858e-4
-1.014, 1.874e-4
-1.015, 1.883e-4
-1.016, 1.887e-4
-1.017, 1.905e-4
-1.018, 1.926e-4
-1.019, 1.936e-4
-1.020, 1.944e-4
-1.021, 1.943e-4
-1.022, 1.961e-4
-1.023, 1.983e-4
-1.024, 1.995e-4
-1.025, 1.998e-4
-1.026, 2.001e-4
-1.027, 2.010e-4
-1.028, 2.031e-4
-1.029, 2.037e-4
-1.030, 2.042e-4
-1.031, 2.050e-4
-1.032, 2.054e-4
-1.033, 2.077e-4
-1.034, 2.089e-4
-1.035, 2.088e-4
-1.036, 2.097e-4
-1.037, 2.104e-4
-1.038, 2.123e-4
-1.039, 2.138e-4
-1.040, 2.136e-4
-1.041, 2.140e-4
-1.042, 2.155e-4
-1.043, 2.172e-4
-1.044, 2.187e-4
-1.045, 2.189e-4
-1.046, 2.193e-4
-1.047, 2.207e-4
-1.048, 2.222e-4
-1.049, 2.240e-4
-1.050, 2.243e-4
-1.051, 2.245e-4
-1.052, 2.262e-4
-1.053, 2.277e-4
-1.054, 2.293e-4
-1.055, 2.298e-4
-1.056, 2.301e-4
-1.057, 2.317e-4
-1.058, 2.337e-4
-1.059, 2.350e-4
-1.060, 2.359e-4
-1.061, 2.358e-4
-1.062, 2.379e-4
-1.063, 2.398e-4
-1.064, 2.413e-4
-1.065, 2.420e-4
-1.066, 2.428e-4
-1.067, 2.440e-4
-1.068, 2.465e-4
-1.069, 2.473e-4
-1.070, 2.484e-4
-1.071, 2.493e-4
-1.072, 2.505e-4
-1.073, 2.530e-4
-1.074, 2.549e-4
-1.075, 2.565e-4
-1.076, 2.570e-4
-1.077, 2.581e-4
-1.078, 2.603e-4
-1.079, 2.623e-4
-1.080, 2.626e-4
-1.081, 2.640e-4
-1.082, 2.654e-4
-1.083, 2.680e-4
-1.084, 2.700e-4
-1.085, 2.705e-4
-1.086, 2.716e-4
-1.087, 2.734e-4
-1.088, 2.758e-4
-1.089, 2.777e-4
-1.090, 2.787e-4
-1.091, 2.797e-4
-1.092, 2.821e-4
-1.093, 2.840e-4
-1.094, 2.863e-4
-1.095, 2.877e-4
-1.096, 2.884e-4
-1.097, 2.904e-4
-1.098, 2.929e-4
-1.099, 2.951e-4
-1.100, 2.970e-4
-1.101, 2.974e-4
-1.102, 2.997e-4
-1.103, 3.025e-4
-1.104, 3.042e-4
-1.105, 3.058e-4
-1.106, 3.070e-4
-1.107, 3.089e-4
-1.108, 3.119e-4
-1.109, 3.139e-4
-1.110, 3.151e-4
-1.111, 3.169e-4
-1.112, 3.186e-4
-1.113, 3.217e-4
-1.114, 3.240e-4
-1.115, 3.253e-4
-1.116, 3.270e-4
-1.117, 3.288e-4
-1.118, 3.316e-4
-1.119, 3.344e-4
-1.120, 3.354e-4
-1.121, 3.371e-4
-1.122, 3.395e-4
-1.123, 3.419e-4
-1.124, 3.450e-4
-1.125, 3.462e-4
-1.126, 3.478e-4
-1.127, 3.505e-4
-1.128, 3.530e-4
-1.129, 3.556e-4
-1.130, 3.572e-4
-1.131, 3.587e-4
-1.132, 3.613e-4
-1.133, 3.635e-4
-1.134, 3.664e-4
-1.135, 3.685e-4
-1.136, 3.692e-4
-1.137, 3.722e-4
-1.138, 3.747e-4
-1.139, 3.776e-4
-1.140, 3.794e-4
-1.141, 3.807e-4
-1.142, 3.831e-4
-1.143, 3.864e-4
-1.144, 3.885e-4
-1.145, 3.907e-4
-1.146, 3.922e-4
-1.147, 3.945e-4
-1.148, 3.978e-4
-1.149, 4.001e-4
-1.150, 4.019e-4
-1.151, 4.038e-4
-1.152, 4.063e-4
-1.153, 4.090e-4
-1.154, 4.122e-4
-1.155, 4.133e-4
-1.156, 4.154e-4
-1.157, 4.173e-4
-1.158, 4.208e-4
-1.159, 4.239e-4
-1.160, 4.252e-4
-1.161, 4.268e-4
-1.162, 4.295e-4
-1.163, 4.323e-4
-1.164, 4.355e-4
-1.165, 4.367e-4
-1.166, 4.389e-4
-1.167, 4.414e-4
-1.168, 4.443e-4
-1.169, 4.470e-4
-1.170, 4.493e-4
-1.171, 4.505e-4
-1.172, 4.535e-4
-1.173, 4.561e-4
-1.174, 4.592e-4
-1.175, 4.613e-4
-1.176, 4.625e-4
-1.177, 4.661e-4
-1.178, 4.699e-4
-1.179, 4.721e-4
-1.180, 4.741e-4
-1.181, 4.752e-4
-1.182, 4.780e-4
-1.183, 4.819e-4
-1.184, 4.844e-4
-1.185, 4.866e-4
-1.186, 4.880e-4
-1.187, 4.911e-4
-1.188, 4.944e-4
-1.189, 4.975e-4
-1.190, 4.997e-4
-1.191, 5.021e-4
-1.192, 5.039e-4
-1.193, 5.080e-4
-1.194, 5.114e-4
-1.195, 5.132e-4
-1.196, 5.154e-4
-1.197, 5.181e-4
-1.198, 5.217e-4
-1.199, 5.259e-4
-1.200, 5.278e-4
-1.201, 5.302e-4
-1.202, 5.332e-4
-1.203, 5.366e-4
-1.204, 5.407e-4
-1.205, 5.430e-4
-1.206, 5.451e-4
-1.207, 5.487e-4
-1.208, 5.523e-4
-1.209, 5.564e-4
-1.210, 5.593e-4
-1.211, 5.613e-4
-1.212, 5.653e-4
-1.213, 5.691e-4
-1.214, 5.730e-4
-1.215, 5.768e-4
-1.216, 5.784e-4
-1.217, 5.825e-4
-1.218, 5.868e-4
-1.219, 5.909e-4
-1.220, 5.946e-4
-1.221, 5.971e-4
-1.222, 6.013e-4
-1.223, 6.059e-4
-1.224, 6.102e-4
-1.225, 6.137e-4
-1.226, 6.169e-4
-1.227, 6.211e-4
-1.228, 6.273e-4
-1.229, 6.332e-4
-1.230, 6.362e-4
-1.231, 6.389e-4
-1.232, 6.431e-4
-1.233, 6.483e-4
-1.234, 6.535e-4
-1.235, 6.573e-4
-1.236, 6.616e-4
-1.237, 6.656e-4
-1.238, 6.715e-4
-1.239, 6.769e-4
-1.240, 6.814e-4
-1.241, 6.856e-4
-1.242, 6.909e-4
-1.243, 6.965e-4
-1.244, 7.026e-4
-1.245, 7.070e-4
-1.246, 7.118e-4
-1.247, 7.171e-4
-1.248, 7.232e-4
-1.249, 7.301e-4
-1.250, 7.351e-4
-1.251, 7.399e-4
-1.252, 7.459e-4
-1.253, 7.526e-4
-1.254, 7.588e-4
-1.255, 7.651e-4
-1.256, 7.704e-4
-1.257, 7.768e-4
-1.258, 7.841e-4
-1.259, 7.910e-4
-1.260, 7.978e-4
-1.261, 8.033e-4
-1.262, 8.108e-4
-1.263, 8.183e-4
-1.264, 8.260e-4
-1.265, 8.334e-4
-1.266, 8.403e-4
-1.267, 8.477e-4
-1.268, 8.564e-4
-1.269, 8.644e-4
-1.270, 8.731e-4
-1.271, 8.807e-4
-1.272, 8.888e-4
-1.273, 8.986e-4
-1.274, 9.086e-4
-1.275, 9.174e-4
-1.276, 9.268e-4
-1.277, 9.364e-4
-1.278, 9.477e-4
-1.279, 9.594e-4
-1.280, 9.709e-4
-1.281, 9.811e-4
-1.282, 9.929e-4
-1.283, 1.006e-3
-1.284, 1.020e-3
-1.285, 1.033e-3
-1.286, 1.047e-3
-1.287, 1.061e-3
-1.288, 1.078e-3
-1.289, 1.095e-3
-1.290, 1.112e-3
-1.291, 1.130e-3
-1.292, 1.150e-3
-1.293, 1.172e-3
-1.294, 1.196e-3
-1.295, 1.220e-3
-1.296, 1.246e-3
-1.297, 1.274e-3
-1.298, 1.307e-3
-1.299, 1.342e-3
-1.300, 1.381e-3
-1.301, 1.423e-3
-1.302, 1.471e-3
-1.303, 1.527e-3
-1.304, 1.590e-3
-1.305, 1.662e-3
-1.306, 1.745e-3
-1.307, 1.842e-3
-1.308, 1.959e-3
-1.309, 2.091e-3
-1.310, 2.244e-3
-1.311, 2.420e-3
-1.312, 2.619e-3
-1.313, 2.844e-3
-1.314, 3.094e-3
-1.315, 3.368e-3
-1.316, 3.665e-3
-1.317, 3.984e-3
-1.318, 4.321e-3
-1.319, 4.676e-3
-1.320, 5.037e-3
-1.321, 5.406e-3
-1.322, 5.780e-3
-1.323, 6.151e-3
-1.324, 6.527e-3
-1.325, 6.891e-3
-1.326, 7.254e-3
-1.327, 7.607e-3
-1.328, 7.954e-3
-1.329, 8.295e-3
-1.330, 8.625e-3
-1.331, 8.953e-3
-1.332, 9.267e-3
-1.333, 9.574e-3
-1.334, 9.872e-3
-1.335, 1.009e-2
-1.336, 1.011e-2
-1.337, 1.011e-2
-1.338, 1.011e-2
-1.339, 1.011e-2
-1.340, 1.011e-2
-1.341, 1.011e-2
-1.342, 1.011e-2
-1.343, 1.011e-2
-1.344, 1.011e-2
-1.345, 1.011e-2
-1.346, 1.011e-2
-1.347, 1.011e-2
-1.348, 1.011e-2
-1.349, 1.011e-2
-1.350, 1.011e-2
-1.351, 1.011e-2
-1.352, 1.011e-2
-1.353, 1.011e-2
-1.354, 1.011e-2
-1.355, 1.011e-2
-1.356, 1.011e-2
-1.357, 1.011e-2
-1.358, 1.011e-2
-1.359, 1.011e-2
-1.360, 1.011e-2
-1.361, 1.011e-2
-1.362, 1.011e-2
-1.363, 1.011e-2
-1.364, 1.011e-2
-1.365, 1.011e-2
-1.366, 1.011e-2
-1.367, 1.011e-2
-1.368, 1.011e-2
-1.369, 1.011e-2
-1.370, 1.011e-2
-1.371, 1.011e-2
-1.372, 1.011e-2
-1.373, 1.011e-2
-1.374, 1.011e-2
-1.375, 1.011e-2
-1.376, 1.011e-2
-1.377, 1.011e-2
-1.378, 1.011e-2
-1.379, 1.011e-2
-1.380, 1.011e-2
-1.381, 1.011e-2
-1.382, 1.011e-2
-1.383, 1.011e-2
-1.384, 1.011e-2
-1.385, 1.011e-2
-1.386, 1.011e-2
-1.387, 1.011e-2
-1.388, 1.011e-2
-1.389, 1.011e-2
-1.390, 1.011e-2
-1.391, 1.011e-2
-1.392, 1.011e-2
-1.393, 1.011e-2
-1.394, 1.011e-2
-1.395, 1.011e-2
-1.396, 1.011e-2
-1.397, 1.011e-2
-1.398, 1.011e-2
-1.399, 1.011e-2
-1.400, 1.011e-2
-1.399, 1.011e-2
-1.398, 1.011e-2
-1.397, 1.011e-2
-1.396, 1.011e-2
-1.395, 1.011e-2
-1.394, 1.011e-2
-1.393, 1.011e-2
-1.392, 1.011e-2
-1.391, 1.011e-2
-1.390, 1.011e-2
-1.389, 1.011e-2
-1.388, 1.011e-2
-1.387, 1.011e-2
-1.386, 1.011e-2
-1.385, 1.011e-2
-1.384, 1.011e-2
-1.383, 1.011e-2
-1.382, 1.011e-2
-1.381, 1.011e-2
-1.380, 1.011e-2
-1.379, 1.011e-2
-1.378, 1.011e-2
-1.377, 1.011e-2
-1.376, 1.011e-2
-1.375, 1.011e-2
-1.374, 1.011e-2
-1.373, 1.011e-2
-1.372, 1.011e-2
-1.371, 1.011e-2
-1.370, 1.011e-2
-1.369, 1.011e-2
-1.368, 1.011e-2
-1.367, 1.011e-2
-1.366, 1.011e-2
-1.365, 1.011e-2
-1.364, 1.011e-2
-1.363, 1.011e-2
-1.362, 1.011e-2
-1.361, 1.011e-2
-1.360, 1.011e-2
-1.359, 1.011e-2
-1.358, 1.011e-2
-1.357, 1.011e-2
-1.356, 1.011e-2
-1.355, 1.011e-2
-1.354, 1.011e-2
-1.353, 1.011e-2
-1.352, 1.011e-2
-1.351, 1.011e-2
-1.350, 1.011e-2
-1.349, 1.011e-2
-1.348, 1.011e-2
-1.347, 1.011e-2
-1.346, 1.011e-2
-1.345, 1.011e-2
-1.344, 1.011e-2
-1.343, 1.011e-2
-1.342, 1.011e-2
-1.341, 1.011e-2
-1.340, 1.011e-2
-1.339, 1.011e-2
-1.338, 1.011e-2
-1.337, 1.011e-2
-1.336, 1.011e-2
-1.335, 1.011e-2
-1.334, 1.011e-2
-1.333, 1.001e-2
-1.332, 9.871e-3
-1.331, 9.772e-3
-1.330, 9.625e-3
-1.329, 9.512e-3
-1.328, 9.496e-3
-1.327, 9.390e-3
-1.326, 9.263e-3
-1.325, 9.171e-3
-1.324, 9.019e-3
-1.323, 8.883e-3
-1.322, 8.792e-3
-1.321, 8.689e-3
-1.320, 8.578e-3
-1.319, 8.465e-3
-1.318, 8.361e-3
-1.317, 8.252e-3
-1.316, 8.139e-3
-1.315, 8.017e-3
-1.314, 7.900e-3
-1.313, 7.790e-3
-1.312, 7.688e-3
-1.311, 7.580e-3
-1.310, 7.477e-3
-1.309, 7.368e-3
-1.308, 7.266e-3
-1.307, 7.166e-3
-1.306, 7.070e-3
-1.305, 6.956e-3
-1.304, 6.848e-3
-1.303, 6.740e-3
-1.302, 6.632e-3
-1.301, 6.540e-3
-1.300, 6.452e-3
-1.299, 6.347e-3
-1.298, 6.252e-3
-1.297, 6.188e-3
-1.296, 6.090e-3
-1.295, 5.995e-3
-1.294, 5.898e-3
-1.293, 5.806e-3
-1.292, 5.738e-3
-1.291, 5.654e-3
-1.290, 5.576e-3
-1.289, 5.471e-3
-1.288, 5.403e-3
-1.287, 5.303e-3
-1.286, 5.218e-3
-1.285, 5.154e-3
-1.284, 5.064e-3
-1.283, 4.970e-3
-1.282, 4.885e-3
-1.281, 4.803e-3
-1.280, 4.720e-3
-1.279, 4.631e-3
-1.278, 4.548e-3
-1.277, 4.464e-3
-1.276, 4.385e-3
-1.275, 4.309e-3
-1.274, 4.232e-3
-1.273, 4.159e-3
-1.272, 4.084e-3
-1.271, 4.017e-3
-1.270, 3.934e-3
-1.269, 3.856e-3
-1.268, 3.777e-3
-1.267, 3.700e-3
-1.266, 3.626e-3
-1.265, 3.549e-3
-1.264, 3.472e-3
-1.263, 3.399e-3
-1.262, 3.325e-3
-1.261, 3.244e-3
-1.260, 3.169e-3
-1.259, 3.097e-3
-1.258, 3.025e-3
-1.257, 2.954e-3
-1.256, 2.887e-3
-1.255, 2.818e-3
-1.254, 2.747e-3
-1.253, 2.681e-3
-1.252, 2.615e-3
-1.251, 2.552e-3
-1.250, 2.488e-3
-1.249, 2.423e-3
-1.248, 2.361e-3
-1.247, 2.298e-3
-1.246, 2.237e-3
-1.245, 2.177e-3
-1.244, 2.117e-3
-1.243, 2.058e-3
-1.242, 2.001e-3
-1.241, 1.945e-3
-1.240, 1.890e-3
-1.239, 1.851e-3
-1.238, 1.793e-3
-1.237, 1.739e-3
-1.236, 1.687e-3
-1.235, 1.635e-3
-1.234, 1.591e-3
-1.233, 1.540e-3
-1.232, 1.491e-3
-1.231, 1.445e-3
-1.230, 1.399e-3
-1.229, 1.354e-3
-1.228, 1.307e-3
-1.227, 1.264e-3
-1.226, 1.222e-3
-1.225, 1.180e-3
-1.224, 1.139e-3
-1.223, 1.098e-3
-1.222, 1.059e-3
-1.221, 1.022e-3
-1.220, 9.844e-4
-1.219, 9.466e-4
-1.218, 9.106e-4
-1.217, 8.761e-4
-1.216, 8.430e-4
-1.215, 8.087e-4
-1.214, 7.752e-4
-1.213, 7.429e-4
-1.212, 7.113e-4
-1.211, 6.812e-4
-1.210, 6.511e-4
-1.209, 6.211e-4
-1.208, 5.922e-4
-1.207, 5.645e-4
-1.206, 5.374e-4
-1.205, 5.121e-4
-1.204, 4.853e-4
-1.203, 4.593e-4
-1.202, 4.351e-4
-1.201, 4.115e-4
-1.200, 3.888e-4
-1.199, 3.669e-4
-1.198, 3.431e-4
-1.197, 3.217e-4
-1.196, 3.008e-4
-1.195, 2.804e-4
-1.194, 2.600e-4
-1.193, 2.404e-4
-1.192, 2.220e-4
-1.191, 2.046e-4
-1.190, 1.865e-4
-1.189, 1.687e-4
-1.188, 1.513e-4
-1.187, 1.353e-4
-1.186, 1.201e-4
-1.185, 1.046e-4
-1.184, 8.964e-5
-1.183, 7.503e-5
-1.182, 6.094e-5
-1.181, 4.778e-5
-1.180, 3.465e-5
-1.179, 2.067e-5
-1.178, 7.193e-6
-1.177, -4.967e-6
-1.176, -1.545e-5
-1.175, -2.668e-5
-1.174, -3.875e-5
-1.173, -4.921e-5
-1.172, -5.974e-5
-1.171, -6.928e-5
-1.170, -7.881e-5
-1.169, -8.946e-5
-1.168, -9.858e-5
-1.167, -1.071e-4
-1.166, -1.151e-4
-1.165, -1.229e-4
-1.164, -1.318e-4
-1.163, -1.401e-4
-1.162, -1.473e-4
-1.161, -1.543e-4
-1.160, -1.609e-4
-1.159, -1.687e-4
-1.158, -1.762e-4
-1.157, -1.819e-4
-1.156, -1.878e-4
-1.155, -1.935e-4
-1.154, -1.999e-4
-1.153, -2.066e-4
-1.152, -2.111e-4
-1.151, -2.162e-4
-1.150, -2.215e-4
-1.149, -2.268e-4
-1.148, -2.324e-4
-1.147, -2.371e-4
-1.146, -2.408e-4
-1.145, -2.452e-4
-1.144, -2.499e-4
-1.143, -2.546e-4
-1.142, -2.585e-4
-1.141, -2.614e-4
-1.140, -2.652e-4
-1.139, -2.696e-4
-1.138, -2.735e-4
-1.137, -2.773e-4
-1.136, -2.793e-4
-1.135, -2.827e-4
-1.134, -2.867e-4
-1.133, -2.899e-4
-1.132, -2.929e-4
-1.131, -2.946e-4
-1.130, -2.975e-4
-1.129, -3.012e-4
-1.128, -3.041e-4
-1.127, -3.063e-4
-1.126, -3.086e-4
-1.125, -3.104e-4
-1.124, -3.137e-4
-1.123, -3.161e-4
-1.122, -3.182e-4
-1.121, -3.199e-4
-1.120, -3.210e-4
-1.119, -3.243e-4
-1.118, -3.268e-4
-1.117, -3.281e-4
-1.116, -3.293e-4
-1.115, -3.309e-4
-1.114, -3.333e-4
-1.113, -3.358e-4
-1.112, -3.366e-4
-1.111, -3.376e-4
-1.110, -3.394e-4
-1.109, -3.413e-4
-1.108, -3.437e-4
-1.107, -3.448e-4
-1.106, -3.454e-4
-1.105, -3.468e-4
-1.104, -3.482e-4
-1.103, -3.503e-4
-1.102, -3.515e-4
-1.101, -3.517e-4
-1.100, -3.529e-4
-1.099, -3.547e-4
-1.098, -3.560e-4
-1.097, -3.572e-4
-1.096, -3.570e-4
-1.095, -3.581e-4
-1.094, -3.601e-4
-1.093, -3.608e-4
-1.092, -3.617e-4
-1.091, -3.620e-4
-1.090, -3.626e-4
-1.089, -3.643e-4
-1.088, -3.651e-4
-1.087, -3.664e-4
-1.086, -3.664e-4
-1.085, -3.672e-4
-1.084, -3.679e-4
-1.083, -3.688e-4
-1.082, -3.694e-4
-1.081, -3.700e-4
-1.080, -3.700e-4
-1.079, -3.717e-4
-1.078, -3.728e-4
-1.077, -3.733e-4
-1.076, -3.740e-4
-1.075, -3.749e-4
-1.074, -3.758e-4
-1.073, -3.771e-4
-1.072, -3.770e-4
-1.071, -3.772e-4
-1.070, -3.780e-4
-1.069, -3.788e-4
-1.068, -3.823e-4
-1.067, -3.815e-4
-1.066, -3.813e-4
-1.065, -3.817e-4
-1.064, -3.816e-4
-1.063, -3.833e-4
-1.062, -3.838e-4
-1.061, -3.833e-4
-1.060, -3.838e-4
-1.059, -3.851e-4
-1.058, -3.859e-4
-1.057, -3.868e-4
-1.056, -3.860e-4
-1.055, -3.868e-4
-1.054, -3.880e-4
-1.053, -3.889e-4
-1.052, -3.895e-4
-1.051, -3.892e-4
-1.050, -3.895e-4
-1.049, -3.911e-4
-1.048, -3.919e-4
-1.047, -3.924e-4
-1.046, -3.926e-4
-1.045, -3.927e-4
-1.044, -3.938e-4
-1.043, -3.951e-4
-1.042, -3.954e-4
-1.041, -3.958e-4
-1.040, -3.953e-4
-1.039, -3.968e-4
-1.038, -3.982e-4
-1.037, -3.986e-4
-1.036, -3.989e-4
-1.035, -3.991e-4
-1.034, -4.001e-4
-1.033, -4.020e-4
-1.032, -4.015e-4
-1.031, -4.021e-4
-1.030, -4.025e-4
-1.029, -4.035e-4
-1.028, -4.050e-4
-1.027, -4.056e-4
-1.026, -4.058e-4
-1.025, -4.062e-4
-1.024, -4.077e-4
-1.023, -4.089e-4
-1.022, -4.096e-4
-1.021, -4.093e-4
-1.020, -4.098e-4
-1.019, -4.112e-4
-1.018, -4.124e-4
-1.017, -4.133e-4
-1.016, -4.133e-4
-1.015, -4.139e-4
-1.014, -4.154e-4
-1.013, -4.162e-4
-1.012, -4.174e-4
-1.011, -4.175e-4
-1.010, -4.181e-4
-1.009, -4.198e-4
-1.008, -4.205e-4
-1.007, -4.218e-4
-1.006, -4.220e-4
-1.005, -4.227e-4
-1.004, -4.242e-4
-1.003, -4.257e-4
-1.002, -4.263e-4
-1.001, -4.271e-4
-1.000, -3.390e-4
-1.001, -2.170e-4
-1.002, -1.481e-4
-1.003, -1.029e-4
-1.004, -6.972e-5
-1.005, -4.569e-5
-1.006, -2.706e-5
-1.007, -1.191e-5
-1.008, 1.112e-6
-1.009, 1.320e-5
-1.010, 2.358e-5
-1.011, 3.185e-5
-1.012, 3.979e-5
-1.013, 4.679e-5
-1.014, 5.437e-5
-1.015, 6.109e-5
-1.016, 6.619e-5
-1.017, 7.119e-5
-1.018, 7.637e-5
-1.019, 8.191e-5
-1.020, 8.721e-5
-1.021, 9.032e-5
-1.022, 9.399e-5
-1.023, 9.834e-5
-1.024, 1.032e-4
-1.025, 1.067e-4
-1.026, 1.095e-4
-1.027, 1.122e-4
-1.028, 1.159e-4
-1.029, 1.189e-4
-1.030, 1.223e-4
-1.031, 1.247e-4
-1.032, 1.266e-4
-1.033, 1.294e-4
-1.034, 1.324e-4
-1.035, 1.350e-4
-1.036, 1.374e-4
-1.037, 1.388e-4
-1.038, 1.410e-4
-1.039, 1.440e-4
-1.040, 1.462e-4
-1.041, 1.480e-4
-1.042, 1.492e-4
-1.043, 1.513e-4
-1.044, 1.540e-4
-1.045, 1.561e-4
-1.046, 1.570e-4
-1.047, 1.587e-4
-1.048, 1.606e-4
-1.049, 1.629e-4
-1.050, 1.650e-4
-1.051, 1.659e-4
-1.052, 1.670e-4
-1.053, 1.684e-4
-1.054, 1.706e-4
-1.055, 1.728e-4
-1.056, 1.733e-4
-1.057, 1.744e-4
-1.058, 1.758e-4
-1.059, 1.781e-4
-1.060, 1.801e-4
-1.061, 1.805e-4
-1.062, 1.812e-4
-1.063, 1.830e-4
-1.064, 1.846e-4
-1.065, 1.865e-4
-1.066, 1.873e-4
-1.067, 1.878e-4
-1.068, 1.897e-4
-1.069, 1.912e-4
-1.070, 1.928e-4
-1.071, 1.940e-4
-1.072, 1.939e-4
-1.073, 1.956e-4
-1.074, 1.975e-4
-1.075, 1.997e-4
-1.076, 2.003e-4
-1.077, 2.004e-4
-1.078, 2.018e-4
-1.079, 2.035e-4
-1.080, 2.047e-4
-1.081, 2.057e-4
-1.082, 2.064e-4
-1.083, 2.072e-4
-1.084, 2.093e-4
-1.085, 2.106e-4
-1.086, 2.115e-4
-1.087, 2.121e-4
-1.088, 2.129e-4
-1.089, 2.151e-4
-1.090, 2.166e-4
-1.091, 2.165e-4
-1.092, 2.178e-4
-1.093, 2.189e-4
-1.094, 2.204e-4
-1.095, 2.223e-4
-1.096, 2.225e-4
-1.097, 2.231e-4
-1.098, 2.243e-4
-1.099, 2.258e-4
-1.100, 2.278e-4
-1.101, 2.284e-4
-1.102, 2.290e-4
-1.103, 2.303e-4
-1.104, 2.316e-4
-1.105, 2.333e-4
-1.106, 2.342e-4
-1.107, 2.344e-4
-1.108, 2.359e-4
-1.109, 2.374e-4
-1.110, 2.390e-4
-1.111, 2.398e-4
-1.112, 2.402e-4
-1.113, 2.414e-4
-1.114, 2.433e-4
-1.115, 2.445e-4
-1.116, 2.456e-4
-1.117, 2.458e-4
-1.118, 2.474e-4
-1.119, 2.494e-4
-1.120, 2.508e-4
-1.121, 2.518e-4
-1.122, 2.520e-4
-1.123, 2.534e-4
-1.124, 2.552e-4
-1.125, 2.567e-4
-1.126, 2.577e-4
-1.127, 2.590e-4
-1.128, 2.594e-4
-1.129, 2.616e-4
-1.130, 2.632e-4
-1.131, 2.642e-4
-1.132, 2.651e-4
-1.133, 2.660e-4
-1.134, 2.682e-4
-1.135, 2.703e-4
-1.136, 2.707e-4
-1.137, 2.720e-4
-1.138, 2.734e-4
-1.139, 2.754e-4
-1.140, 2.774e-4
-1.141, 2.782e-4
-1.142, 2.793e-4
-1.143, 2.810e-4
-1.144, 2.824e-4
-1.145, 2.848e-4
-1.146, 2.860e-4
-1.147, 2.870e-4
-1.148, 2.888e-4
-1.149, 2.907e-4
-1.150, 2.932e-4
-1.151, 2.951e-4
-1.152, 2.957e-4
-1.153, 2.976e-4
-1.154, 3.001e-4
-1.155, 3.025e-4
-1.156, 3.047e-4
-1.157, 3.055e-4
-1.158, 3.075e-4
-1.159, 3.105e-4
-1.160, 3.125e-4
-1.161, 3.151e-4
-1.162, 3.162e-4
-1.163, 3.186e-4
-1.164, 3.217e-4
-1.165, 3.244e-4
-1.166, 3.265e-4
-1.167, 3.289e-4
-1.168, 3.314e-4
-1.169, 3.347e-4
-1.170, 3.382e-4
-1.171, 3.405e-4
-1.172, 3.430e-4
-1.173, 3.460e-4
-1.174, 3.493e-4
-1.175, 3.535e-4
-1.176, 3.563e-4
-1.177, 3.600e-4
-1.178, 3.635e-4
-1.179, 3.672e-4
-1.180, 3.718e-4
-1.181, 3.753e-4
-1.182, 3.785e-4
-1.183, 3.829e-4
-1.184, 3.874e-4
-1.185, 3.929e-4
-1.186, 3.970e-4
-1.187, 4.013e-4
-1.188, 4.062e-4
-1.189, 4.120e-4
-1.190, 4.179e-4
-1.191, 4.234e-4
-1.192, 4.281e-4
-1.193, 4.342e-4
-1.194, 4.409e-4
-1.195, 4.479e-4
-1.196, 4.547e-4
-1.197, 4.604e-4
-1.198, 4.677e-4
-1.199, 4.760e-4
-1.200, 4.840e-4
-1.201, 4.922e-4
-1.202, 4.998e-4
-1.203, 5.089e-4
-1.204, 5.184e-4
-1.205, 5.283e-4
-1.206, 5.378e-4
-1.207, 5.476e-4
-1.208, 5.578e-4
-1.209, 5.699e-4
-1.210, 5.823e-4
-1.211, 5.933e-4
-1.212, 6.058e-4
-1.213, 6.184e-4
-1.214, 6.326e-4
-1.215, 6.477e-4
-1.216, 6.621e-4
-1.217, 6.771e-4
-1.218, 6.932e-4
-1.219, 7.105e-4
-1.220, 7.289e-4
-1.221, 7.466e-4
-1.222, 7.654e-4
-1.223, 7.854e-4
-1.224, 8.064e-4
-1.225, 8.293e-4
-1.226, 8.520e-4
-1.227, 8.750e-4
-1.228, 9.005e-4
-1.229, 9.288e-4
-1.230, 9.558e-4
-1.231, 9.837e-4
-1.232, 1.013e-3
-1.233, 1.044e-3
-1.234, 1.077e-3
-1.235, 1.111e-3
-1.236, 1.147e-3
-1.237, 1.183e-3
-1.238, 1.222e-3
-1.239, 1.263e-3
-1.240, 1.306e-3
-1.241, 1.350e-3
-1.242, 1.391e-3
-1.243, 1.440e-3
-1.244, 1.493e-3
-1.245, 1.549e-3
-1.246, 1.601e-3
-1.247, 1.657e-3
-1.248, 1.715e-3
-1.249, 1.777e-3
-1.250, 1.842e-3
-1.251, 1.907e-3
-1.252, 1.976e-3
-1.253, 2.046e-3
-1.254, 2.119e-3
-1.255, 2.195e-3
-1.256, 2.272e-3
-1.257, 2.351e-3
-1.258, 2.433e-3
-1.259, 2.517e-3
-1.260, 2.603e-3
-1.261, 2.690e-3
-1.262, 2.778e-3
-1.263, 2.867e-3
-1.264, 2.959e-3
-1.265, 3.052e-3
-1.266, 3.146e-3
-1.267, 3.239e-3
-1.268, 3.334e-3
-1.269, 3.430e-3
-1.270, 3.525e-3
-1.271, 3.621e-3
-1.272, 3.714e-3
-1.273, 3.811e-3
-1.274, 3.907e-3
-1.275, 4.004e-3
-1.276, 4.100e-3
-1.277, 4.193e-3
-1.278, 4.290e-3
-1.279, 4.384e-3
-1.280, 4.479e-3
-1.281, 4.574e-3
-1.282, 4.669e-3
-1.283, 4.763e-3
-1.284, 4.859e-3
-1.285, 4.953e-3
-1.286, 5.052e-3
-1.287, 5.150e-3
-1.288, 5.245e-3
-1.289, 5.341e-3
-1.290, 5.435e-3
-1.291, 5.529e-3
-1.292, 5.627e-3
-1.293, 5.721e-3
-1.294, 5.818e-3
-1.295, 5.915e-3
-1.296, 6.014e-3
-1.297, 6.110e-3
-1.298, 6.207e-3
-1.299, 6.301e-3
-1.300, 6.401e-3
-1.301, 6.492e-3
-1.302, 6.599e-3
-1.303, 6.712e-3
-1.304, 6.801e-3
-1.305, 6.898e-3
-1.306, 6.985e-3
-1.307, 7.082e-3
-1.308, 7.172e-3
-1.309, 7.271e-3
-1.310, 7.362e-3
-1.311, 7.459e-3
-1.312, 7.549e-3
-1.313, 7.646e-3
-1.314, 7.740e-3
-1.315, 7.835e-3
-1.316, 7.932e-3
-1.317, 8.037e-3
-1.318, 8.141e-3
-1.319, 8.245e-3
-1.320, 8.365e-3
-1.321, 8.453e-3
-1.322, 8.562e-3
-1.323, 8.657e-3
-1.324, 8.750e-3
-1.325, 8.852e-3
-1.326, 8.947e-3
-1.327, 9.034e-3
-1.328, 9.119e-3
-1.329, 9.209e-3
-1.330, 9.296e-3
-1.331, 9.384e-3
-1.332, 9.481e-3
-1.333, 9.568e-3
-1.334, 9.660e-3
-1.335, 9.754e-3
-1.336, 9.845e-3
-1.337, 9.929e-3
-1.338, 1.002e-2
-1.339, 1.010e-2
-1.340, 1.011e-2
-1.341, 1.011e-2
-1.342, 1.011e-2
-1.343, 1.011e-2
-1.344, 1.011e-2
-1.345, 1.011e-2
-1.346, 1.011e-2
-1.347, 1.011e-2
-1.348, 1.011e-2
-1.349, 1.011e-2
-1.350, 1.011e-2
-1.351, 1.011e-2
-1.352, 1.011e-2
-1.353, 1.011e-2
-1.354, 1.011e-2
-1.355, 1.011e-2
-1.356, 1.011e-2
-1.357, 1.011e-2
-1.358, 1.011e-2
-1.359, 1.011e-2
-1.360, 1.011e-2
-1.361, 1.011e-2
-1.362, 1.011e-2
-1.363, 1.011e-2
-1.364, 1.011e-2
-1.365, 1.011e-2
-1.366, 1.011e-2
-1.367, 1.011e-2
-1.368, 1.011e-2
-1.369, 1.011e-2
-1.370, 1.011e-2
-1.371, 1.011e-2
-1.372, 1.011e-2
-1.373, 1.011e-2
-1.374, 1.011e-2
-1.375, 1.011e-2
-1.376, 1.011e-2
-1.377, 1.011e-2
-1.378, 1.011e-2
-1.379, 1.011e-2
-1.380, 1.011e-2
-1.381, 1.011e-2
-1.382, 1.011e-2
-1.383, 1.011e-2
-1.384, 1.011e-2
-1.385, 1.011e-2
-1.386, 1.011e-2
-1.387, 1.011e-2
-1.388, 1.011e-2
-1.389, 1.011e-2
-1.390, 1.011e-2
-1.391, 1.011e-2
-1.392, 1.011e-2
-1.393, 1.011e-2
-1.394, 1.011e-2
-1.395, 1.011e-2
-1.396, 1.011e-2
-1.397, 1.011e-2
-1.398, 1.011e-2
-1.399, 1.011e-2
-1.400, 1.011e-2
-1.399, 1.011e-2
-1.398, 1.011e-2
-1.397, 1.011e-2
-1.396, 1.011e-2
-1.395, 1.011e-2
-1.394, 1.011e-2
-1.393, 1.011e-2
-1.392, 1.011e-2
-1.391, 1.011e-2
-1.390, 1.011e-2
-1.389, 1.011e-2
-1.388, 1.011e-2
-1.387, 1.011e-2
-1.386, 1.011e-2
-1.385, 1.011e-2
-1.384, 1.011e-2
-1.383, 1.011e-2
-1.382, 1.011e-2
-1.381, 1.011e-2
-1.380, 1.011e-2
-1.379, 1.011e-2
-1.378, 1.011e-2
-1.377, 1.011e-2
-1.376, 1.011e-2
-1.375, 1.011e-2
-1.374, 1.011e-2
-1.373, 1.011e-2
-1.372, 1.011e-2
-1.371, 1.011e-2
-1.370, 1.011e-2
-1.369, 1.011e-2
-1.368, 1.011e-2
-1.367, 1.011e-2
-1.366, 1.011e-2
-1.365, 1.011e-2
-1.364, 1.011e-2
-1.363, 1.011e-2
-1.362, 1.011e-2
-1.361, 1.011e-2
-1.360, 1.011e-2
-1.359, 1.011e-2
-1.358, 1.011e-2
-1.357, 1.011e-2
-1.356, 1.011e-2
-1.355, 1.011e-2
-1.354, 1.011e-2
-1.353, 1.011e-2
-1.352, 1.011e-2
-1.351, 1.011e-2
-1.350, 1.011e-2
-1.349, 1.008e-2
-1.348, 9.983e-3
-1.347, 9.859e-3
-1.346, 9.755e-3
-1.345, 9.645e-3
-1.344, 9.515e-3
-1.343, 9.435e-3
-1.342, 9.329e-3
-1.341, 9.234e-3
-1.340, 9.122e-3
-1.339, 8.997e-3
-1.338, 8.916e-3
-1.337, 8.797e-3
-1.336, 8.676e-3
-1.335, 8.562e-3
-1.334, 8.477e-3
-1.333, 8.365e-3
-1.332, 8.413e-3
-1.331, 8.314e-3
-1.330, 8.209e-3
-1.329, 8.137e-3
-1.328, 8.022e-3
-1.327, 7.941e-3
-1.326, 7.842e-3
-1.325, 7.818e-3
-1.324, 7.706e-3
-1.323, 7.603e-3
-1.322, 7.517e-3
-1.321, 7.454e-3
-1.320, 7.350e-3
-1.319, 7.263e-3
-1.318, 7.179e-3
-1.317, 7.079e-3
-1.316, 7.006e-3
-1.315, 6.901e-3
-1.314, 6.838e-3
-1.313, 6.766e-3
-1.312, 6.663e-3
-1.311, 6.609e-3
-1.310, 6.551e-3
-1.309, 6.442e-3
-1.308, 6.347e-3
-1.307, 6.261e-3
-1.306, 6.203e-3
-1.305, 6.169e-3
-1.304, 6.097e-3
-1.303, 6.016e-3
-1.302, 5.945e-3
-1.301, 6.005e-3
-1.300, 5.972e-3
-1.299, 5.846e-3
-1.298, 5.759e-3
-1.297, 5.672e-3
-1.296, 5.604e-3
-1.295, 5.539e-3
-1.294, 5.451e-3
-1.293, 5.378e-3
-1.292, 5.285e-3
-1.291, 5.200e-3
-1.290, 5.133e-3
-1.289, 5.048e-3
-1.288, 4.960e-3
-1.287, 4.886e-3
-1.286, 4.810e-3
-1.285, 4.742e-3
-1.284, 4.663e-3
-1.283, 4.593e-3
-1.282, 4.510e-3
-1.281, 4.434e-3
-1.280, 4.357e-3
-1.279, 4.282e-3
-1.278, 4.207e-3
-1.277, 4.144e-3
-1.276, 4.061e-3
-1.275, 3.988e-3
-1.274, 3.914e-3
-1.273, 3.841e-3
-1.272, 3.775e-3
-1.271, 3.694e-3
-1.270, 3.624e-3
-1.269, 3.550e-3
-1.268, 3.479e-3
-1.267, 3.407e-3
-1.266, 3.352e-3
-1.265, 3.275e-3
-1.264, 3.210e-3
-1.263, 3.137e-3
-1.262, 3.068e-3
-1.261, 3.004e-3
-1.260, 2.942e-3
-1.259, 2.877e-3
-1.258, 2.812e-3
-1.257, 2.748e-3
-1.256, 2.708e-3
-1.255, 2.643e-3
-1.254, 2.585e-3
-1.253, 2.531e-3
-1.252, 2.487e-3
-1.251, 2.444e-3
-1.250, 2.396e-3
-1.249, 2.345e-3
-1.248, 2.292e-3
-1.247, 2.245e-3
-1.246, 2.196e-3
-1.245, 2.153e-3
-1.244, 2.092e-3
-1.243, 2.042e-3
-1.242, 1.993e-3
-1.241, 1.941e-3
-1.240, 1.889e-3
-1.239, 1.837e-3
-1.238, 1.779e-3
-1.237, 1.730e-3
-1.236, 1.677e-3
-1.235, 1.628e-3
-1.234, 1.581e-3
-1.233, 1.534e-3
-1.232, 1.491e-3
-1.231, 1.444e-3
-1.230, 1.400e-3
-1.229, 1.359e-3
-1.228, 1.314e-3
-1.227, 1.270e-3
-1.226, 1.234e-3
-1.225, 1.192e-3
-1.224, 1.150e-3
-1.223, 1.109e-3
-1.222, 1.068e-3
-1.221, 1.031e-3
-1.220, 9.937e-4
-1.219, 9.565e-4
-1.218, 9.204e-4
-1.217, 8.845e-4
-1.216, 8.506e-4
-1.215, 8.172e-4
-1.214, 7.876e-4
-1.213, 7.532e-4
-1.212, 7.206e-4
-1.211, 6.902e-4
-1.210, 6.603e-4
-1.209, 6.317e-4
-1.208, 6.027e-4
-1.207, 5.740e-4
-1.206, 5.474e-4
-1.205, 5.218e-4
-1.204, 4.957e-4
-1.203, 4.696e-4
-1.202, 4.447e-4
-1.201, 4.205e-4
-1.200, 3.983e-4
-1.199, 3.756e-4
-1.198, 3.529e-4
-1.197, 3.306e-4
-1.196, 3.098e-4
-1.195, 2.903e-4
-1.194, 2.706e-4
-1.193, 2.506e-4
-1.192, 2.318e-4
-1.191, 2.130e-4
-1.190, 1.957e-4
-1.189, 1.791e-4
-1.188, 1.610e-4
-1.187, 1.446e-4
-1.186, 1.288e-4
-1.185, 1.138e-4
-1.184, 9.939e-5
-1.183, 8.397e-5
-1.182, 6.928e-5
-1.181, 5.650e-5
-1.180, 4.377e-5
-1.179, 3.083e-5
-1.178, 1.735e-5
-1.177, 4.109e-6
-1.176, -6.894e-6
-1.175, -1.765e-5
-1.174, -2.877e-5
-1.173, -3.960e-5
-1.172, -5.056e-5
-1.171, -6.068e-5
-1.170, -7.000e-5
-1.169, -7.966e-5
-1.168, -8.936e-5
-1.167, -9.876e-5
-1.166, -1.073e-4
-1.165, -1.146e-4
-1.164, -1.226e-4
-1.163, -1.308e-4
-1.162, -1.391e-4
-1.161, -1.464e-4
-1.160, -1.525e-4
-1.159, -1.598e-4
-1.158, -1.669e-4
-1.157, -1.738e-4
-1.156, -1.800e-4
-1.155, -1.851e-4
-1.154, -1.908e-4
-1.153, -1.973e-4
-1.152, -2.026e-4
-1.151, -2.082e-4
-1.150, -2.127e-4
-1.149, -2.171e-4
-1.148, -2.226e-4
-1.147, -2.276e-4
-1.146, -2.319e-4
-1.145, -2.362e-4
-1.144, -2.396e-4
-1.143, -2.444e-4
-1.142, -2.489e-4
-1.141, -2.522e-4
-1.140, -2.555e-4
-1.139, -2.590e-4
-1.138, -2.633e-4
-1.137, -2.678e-4
-1.136, -2.703e-4
-1.135, -2.729e-4
-1.134, -2.762e-4
-1.133, -2.795e-4
-1.132, -2.830e-4
-1.131, -2.859e-4
-1.130, -2.876e-4
-1.129, -2.904e-4
-1.128, -2.932e-4
-1.127, -2.959e-4
-1.126, -2.984e-4
-1.125, -3.004e-4
-1.124, -3.021e-4
-1.123, -3.056e-4
-1.122, -3.074e-4
-1.121, -3.148e-4
-1.120, -3.113e-4
-1.119, -3.109e-4
-1.118, -3.129e-4
-1.117, -3.148e-4
-1.116, -3.164e-4
-1.115, -3.178e-4
-1.114, -3.198e-4
-1.113, -3.221e-4
-1.112, -3.242e-4
-1.111, -3.256e-4
-1.110, -3.265e-4
-1.109, -3.277e-4
-1.108, -3.300e-4
-1.107, -3.316e-4
-1.106, -3.329e-4
-1.105, -3.342e-4
-1.104, -3.345e-4
-1.103, -3.363e-4
-1.102, -3.386e-4
-1.101, -3.397e-4
-1.100, -3.402e-4
-1.099, -3.411e-4
-1.098, -3.425e-4
-1.097, -3.444e-4
-1.096, -3.450e-4
-1.095, -3.455e-4
-1.094, -3.466e-4
-1.093, -3.477e-4
-1.092, -3.489e-4
-1.091, -3.496e-4
-1.090, -3.494e-4
-1.089, -3.511e-4
-1.088, -3.518e-4
-1.087, -3.534e-4
-1.086, -3.610e-4
-1.085, -3.578e-4
-1.084, -3.561e-4
-1.083, -3.575e-4
-1.082, -3.590e-4
-1.081, -3.598e-4
-1.080, -3.597e-4
-1.079, -3.600e-4
-1.078, -3.622e-4
-1.077, -3.631e-4
-1.076, -3.634e-4
-1.075, -3.639e-4
-1.074, -3.643e-4
-1.073, -3.659e-4
-1.072, -3.662e-4
-1.071, -3.666e-4
-1.070, -3.678e-4
-1.069, -3.672e-4
-1.068, -3.685e-4
-1.067, -3.696e-4
-1.066, -3.705e-4
-1.065, -3.705e-4
-1.064, -3.709e-4
-1.063, -3.723e-4
-1.062, -3.727e-4
-1.061, -3.735e-4
-1.060, -3.739e-4
-1.059, -3.740e-4
-1.058, -3.747e-4
-1.057, -3.766e-4
-1.056, -3.764e-4
-1.055, -3.766e-4
-1.054, -3.767e-4
-1.053, -3.781e-4
-1.052, -3.794e-4
-1.051, -3.797e-4
-1.050, -3.799e-4
-1.049, -3.801e-4
-1.048, -3.813e-4
-1.047, -3.827e-4
-1.046, -3.838e-4
-1.045, -3.830e-4
-1.044, -3.834e-4
-1.043, -3.847e-4
-1.042, -3.856e-4
-1.041, -3.867e-4
-1.040, -3.860e-4
-1.039, -3.862e-4
-1.038, -3.886e-4
-1.037, -3.890e-4
-1.036, -3.898e-4
-1.035, -3.900e-4
-1.034, -3.905e-4
-1.033, -3.921e-4
-1.032, -3.931e-4
-1.031, -3.940e-4
-1.030, -3.946e-4
-1.029, -3.945e-4
-1.028, -3.963e-4
-1.027, -3.975e-4
-1.026, -3.983e-4
-1.025, -3.986e-4
-1.024, -3.994e-4
-1.023, -4.008e-4
-1.022, -4.021e-4
-1.021, -4.029e-4
-1.020, -4.034e-4
-1.019, -4.037e-4
-1.018, -4.051e-4
-1.017, -4.067e-4
-1.016, -4.072e-4
-1.015, -4.081e-4
-1.014, -4.084e-4
-1.013, -4.099e-4
-1.012, -4.116e-4
-1.011, -4.126e-4
-1.010, -4.127e-4
-1.009, -4.140e-4
-1.008, -4.148e-4
-1.007, -4.167e-4
-1.006, -4.182e-4
-1.005, -4.179e-4
-1.004, -4.195e-4
-1.003, -4.202e-4
-1.002, -4.222e-4
-1.001, -4.233e-4
-1.000, -3.373e-4
-1.001, -2.149e-4
-1.002, -1.452e-4
-1.003, -9.982e-5
-1.004, -6.698e-5
-1.005, -4.284e-5
-1.006, -2.379e-5
-1.007, -8.726e-6
-1.008, 3.094e-6
-1.009, 1.446e-5
-1.010, 2.478e-5
-1.011, 3.386e-5
-1.012, 4.150e-5
-1.013, 4.743e-5
-1.014, 5.416e-5
-1.015, 6.111e-5
-1.016, 6.678e-5
-1.017, 7.166e-5
-1.018, 7.607e-5
-1.019, 8.083e-5
-1.020, 8.623e-5
-1.021, 9.025e-5
-1.022, 9.425e-5
-1.023, 9.762e-5
-1.024, 1.014e-4
-1.025, 1.053e-4
-1.026, 1.089e-4
-1.027, 1.116e-4
-1.028, 1.139e-4
-1.029, 1.168e-4
-1.030, 1.199e-4
-1.031, 1.235e-4
-1.032, 1.251e-4
-1.033, 1.274e-4
-1.034, 1.297e-4
-1.035, 1.321e-4
-1.036, 1.353e-4
-1.037, 1.370e-4
-1.038, 1.384e-4
-1.039, 1.408e-4
-1.040, 1.430e-4
-1.041, 1.459e-4
-1.042, 1.472e-4
-1.043, 1.482e-4
-1.044, 1.506e-4
-1.045, 1.520e-4
-1.046, 1.548e-4
-1.047, 1.563e-4
-1.048, 1.570e-4
-1.049, 1.588e-4
-1.050, 1.608e-4
-1.051, 1.632e-4
-1.052, 1.644e-4
-1.053, 1.647e-4
-1.054, 1.659e-4
-1.055, 1.685e-4
-1.056, 1.699e-4
-1.057, 1.711e-4
-1.058, 1.720e-4
-1.059, 1.733e-4
-1.060, 1.752e-4
-1.061, 1.765e-4
-1.062, 1.783e-4
-1.063, 1.790e-4
-1.064, 1.796e-4
-1.065, 1.813e-4
-1.066, 1.834e-4
-1.067, 1.842e-4
-1.068, 1.847e-4
-1.069, 1.857e-4
-1.070, 1.875e-4
-1.071, 1.892e-4
-1.072, 1.899e-4
-1.073, 1.905e-4
-1.074, 1.920e-4
-1.075, 1.943e-4
-1.076, 1.962e-4
-1.077, 1.959e-4
-1.078, 1.964e-4
-1.079, 1.974e-4
-1.080, 1.986e-4
-1.081, 2.007e-4
-1.082, 2.010e-4
-1.083, 2.021e-4
-1.084, 2.029e-4
-1.085, 2.042e-4
-1.086, 2.058e-4
-1.087, 2.068e-4
-1.088, 2.071e-4
-1.089, 2.083e-4
-1.090, 2.096e-4
-1.091, 2.113e-4
-1.092, 2.121e-4
-1.093, 2.130e-4
-1.094, 2.147e-4
-1.095, 2.169e-4
-1.096, 2.166e-4
-1.097, 2.178e-4
-1.098, 2.184e-4
-1.099, 2.189e-4
-1.100, 2.210e-4
-1.101, 2.219e-4
-1.102, 2.235e-4
-1.103, 2.234e-4
-1.104, 2.245e-4
-1.105, 2.258e-4
-1.106, 2.275e-4
-1.107, 2.285e-4
-1.108, 2.287e-4
-1.109, 2.297e-4
-1.110, 2.312e-4
-1.111, 2.332e-4
-1.112, 2.336e-4
-1.113, 2.346e-4
-1.114, 2.355e-4
-1.115, 2.370e-4
-1.116, 2.383e-4
-1.117, 2.394e-4
-1.118, 2.402e-4
-1.119, 2.411e-4
-1.120, 2.422e-4
-1.121, 2.445e-4
-1.122, 2.451e-4
-1.123, 2.461e-4
-1.124, 2.466e-4
-1.125, 2.484e-4
-1.126, 2.502e-4
-1.127, 2.518e-4
-1.128, 2.518e-4
-1.129, 2.529e-4
-1.130, 2.550e-4
-1.131, 2.561e-4
-1.132, 2.575e-4
-1.133, 2.582e-4
-1.134, 2.593e-4
-1.135, 2.616e-4
-1.136, 2.629e-4
-1.137, 2.642e-4
-1.138, 2.655e-4
-1.139, 2.663e-4
-1.140, 2.686e-4
-1.141, 2.701e-4
-1.142, 2.716e-4
-1.143, 2.727e-4
-1.144, 2.729e-4
-1.145, 2.760e-4
-1.146, 2.780e-4
-1.147, 2.796e-4
-1.148, 2.803e-4
-1.149, 2.820e-4
-1.150, 2.842e-4
-1.151, 2.867e-4
-1.152, 2.878e-4
-1.153, 2.896e-4
-1.154, 2.908e-4
-1.155, 2.933e-4
-1.156, 2.963e-4
-1.157, 2.976e-4
-1.158, 2.995e-4
-1.159, 3.006e-4
-1.160, 3.037e-4
-1.161, 3.068e-4
-1.162, 3.086e-4
-1.163, 3.103e-4
-1.164, 3.133e-4
-1.165, 3.158e-4
-1.166, 3.189e-4
-1.167, 3.213e-4
-1.168, 3.236e-4
-1.169, 3.258e-4
-1.170, 3.298e-4
-1.171, 3.327e-4
-1.172, 3.367e-4
-1.173, 3.385e-4
-1.174, 3.414e-4
-1.175, 3.462e-4
-1.176, 3.491e-4
-1.177, 3.541e-4
-1.178, 3.570e-4
-1.179, 3.605e-4
-1.180, 3.649e-4
-1.181, 3.692e-4
-1.182, 3.770e-4
-1.183, 3.798e-4
-1.184, 3.828e-4
-1.185, 3.876e-4
-1.186, 3.932e-4
-1.187, 3.975e-4
-1.188, 4.035e-4
-1.189, 4.074e-4
-1.190, 4.143e-4
-1.191, 4.206e-4
-1.192, 4.268e-4
-1.193, 4.325e-4
-1.194, 4.384e-4
-1.195, 4.463e-4
-1.196, 4.539e-4
-1.197, 4.611e-4
-1.198, 4.686e-4
-1.199, 4.763e-4
-1.200, 4.840e-4
-1.201, 4.946e-4
-1.202, 5.029e-4
-1.203, 5.119e-4
-1.204, 5.215e-4
-1.205, 5.321e-4
-1.206, 5.438e-4
-1.207, 5.546e-4
-1.208, 5.646e-4
-1.209, 5.771e-4
-1.210, 5.893e-4
-1.211, 6.035e-4
-1.212, 6.162e-4
-1.213, 6.303e-4
-1.214, 6.440e-4
-1.215, 6.600e-4
-1.216, 6.762e-4
-1.217, 6.932e-4
-1.218, 7.096e-4
-1.219, 7.275e-4
-1.220, 7.464e-4
-1.221, 7.674e-4
-1.222, 7.868e-4
-1.223, 8.073e-4
-1.224, 8.303e-4
-1.225, 8.530e-4
-1.226, 8.788e-4
-1.227, 9.028e-4
-1.228, 9.307e-4
-1.229, 9.584e-4
-1.230, 9.881e-4
-1.231, 1.017e-3
-1.232, 1.047e-3
-1.233, 1.081e-3
-1.234, 1.113e-3
-1.235, 1.151e-3
-1.236, 1.187e-3
-1.237, 1.227e-3
-1.238, 1.266e-3
-1.239, 1.308e-3
-1.240, 1.352e-3
-1.241, 1.398e-3
-1.242, 1.445e-3
-1.243, 1.494e-3
-1.244, 1.546e-3
-1.245, 1.599e-3
-1.246, 1.656e-3
-1.247, 1.711e-3
-1.248, 1.772e-3
-1.249, 1.831e-3
-1.250, 1.898e-3
-1.251, 1.963e-3
-1.252, 2.029e-3
-1.253, 2.100e-3
-1.254, 2.172e-3
-1.255, 2.246e-3
-1.256, 2.325e-3
-1.257, 2.399e-3
-1.258, 2.479e-3
-1.259, 2.560e-3
-1.260, 2.642e-3
-1.261, 2.727e-3
-1.262, 2.811e-3
-1.263, 2.900e-3
-1.264, 2.981e-3
-1.265, 3.076e-3
-1.266, 3.161e-3
-1.267, 3.255e-3
-1.268, 3.342e-3
-1.269, 3.435e-3
-1.270, 3.528e-3
-1.271, 3.614e-3
-1.272, 3.711e-3
-1.273, 3.801e-3
-1.274, 3.894e-3
-1.275, 3.982e-3
-1.276, 4.076e-3
-1.277, 4.172e-3
-1.278, 4.259e-3
-1.279, 4.353e-3
-1.280, 4.446e-3
-1.281, 4.542e-3
-1.282, 4.634e-3
-1.283, 4.722e-3
-1.284, 4.819e-3
-1.285, 4.908e-3
-1.286, 5.003e-3
-1.287, 5.099e-3
-1.288, 5.185e-3
-1.289, 5.283e-3
-1.290, 5.377e-3
-1.291, 5.474e-3
-1.292, 5.562e-3
-1.293, 5.656e-3
-1.294, 5.743e-3
-1.295, 5.847e-3
-1.296, 5.932e-3
-1.297, 6.032e-3
-1.298, 6.123e-3
-1.299, 6.218e-3
-1.300, 6.311e-3
-1.301, 6.408e-3
-1.302, 6.493e-3
-1.303, 6.592e-3
-1.304, 6.689e-3
-1.305, 6.774e-3
-1.306, 6.869e-3
-1.307, 6.964e-3
-1.308, 7.054e-3
-1.309, 7.150e-3
-1.310, 7.253e-3
-1.311, 7.340e-3
-1.312, 7.442e-3
-1.313, 7.535e-3
-1.314, 7.640e-3
-1.315, 7.725e-3
-1.316, 7.816e-3
-1.317, 7.909e-3
-1.318, 8.006e-3
-1.319, 8.096e-3
-1.320, 8.185e-3
-1.321, 8.278e-3
-1.322, 8.376e-3
-1.323, 8.464e-3
-1.324, 8.560e-3
-1.325, 8.659e-3
-1.326, 8.750e-3
-1.327, 8.837e-3
-1.328, 8.930e-3
-1.329, 9.019e-3
-1.330, 9.115e-3
-1.331, 9.200e-3
-1.332, 9.303e-3
-1.333, 9.391e-3
-1.334, 9.481e-3
-1.335, 9.583e-3
-1.336, 9.684e-3
-1.337, 9.794e-3
-1.338, 9.874e-3
-1.339, 9.965e-3
-1.340, 1.006e-2
-1.341, 1.011e-2
-1.342, 1.011e-2
-1.343, 1.011e-2
-1.344, 1.011e-2
-1.345, 1.011e-2
-1.346, 1.011e-2
-1.347, 1.011e-2
-1.348, 1.011e-2
-1.349, 1.011e-2
-1.350, 1.011e-2
-1.351, 1.011e-2
-1.352, 1.011e-2
-1.353, 1.011e-2
-1.354, 1.011e-2
-1.355, 1.011e-2
-1.356, 1.011e-2
-1.357, 1.011e-2
-1.358, 1.011e-2
-1.359, 1.011e-2
-1.360, 1.011e-2
-1.361, 1.011e-2
-1.362, 1.011e-2
-1.363, 1.011e-2
-1.364, 1.011e-2
-1.365, 1.011e-2
-1.366, 1.011e-2
-1.367, 1.011e-2
-1.368, 1.011e-2
-1.369, 1.011e-2
-1.370, 1.011e-2
-1.371, 1.011e-2
-1.372, 1.011e-2
-1.373, 1.011e-2
-1.374, 1.011e-2
-1.375, 1.011e-2
-1.376, 1.011e-2
-1.377, 1.011e-2
-1.378, 1.011e-2
-1.379, 1.011e-2
-1.380, 1.011e-2
-1.381, 1.011e-2
-1.382, 1.011e-2
-1.383, 1.011e-2
-1.384, 1.011e-2
-1.385, 1.011e-2
-1.386, 1.011e-2
-1.387, 1.011e-2
-1.388, 1.011e-2
-1.389, 1.011e-2
-1.390, 1.011e-2
-1.391, 1.011e-2
-1.392, 1.011e-2
-1.393, 1.011e-2
-1.394, 1.011e-2
-1.395, 1.011e-2
-1.396, 1.011e-2
-1.397, 1.011e-2
-1.398, 1.011e-2
-1.399, 1.011e-2
-1.400, 1.011e-2
-1.399, 1.011e-2
-1.398, 1.011e-2
-1.397, 1.011e-2
-1.396, 1.011e-2
-1.395, 1.011e-2
-1.394, 1.011e-2
-1.393, 1.011e-2
-1.392, 1.011e-2
-1.391, 1.011e-2
-1.390, 1.011e-2
-1.389, 1.011e-2
-1.388, 1.011e-2
-1.387, 1.011e-2
-1.386, 1.011e-2
-1.385, 1.011e-2
-1.384, 1.011e-2
-1.383, 1.011e-2
-1.382, 1.011e-2
-1.381, 1.011e-2
-1.380, 1.011e-2
-1.379, 1.011e-2
-1.378, 1.011e-2
-1.377, 1.011e-2
-1.376, 1.011e-2
-1.375, 1.011e-2
-1.374, 1.011e-2
-1.373, 1.011e-2
-1.372, 1.011e-2
-1.371, 1.011e-2
-1.370, 1.011e-2
-1.369, 1.011e-2
-1.368, 1.011e-2
-1.367, 1.011e-2
-1.366, 1.011e-2
-1.365, 1.011e-2
-1.364, 1.011e-2
-1.363, 1.011e-2
-1.362, 1.011e-2
-1.361, 1.011e-2
-1.360, 1.011e-2
-1.359, 1.011e-2
-1.358, 1.011e-2
-1.357, 1.011e-2
-1.356, 1.011e-2
-1.355, 1.011e-2
-1.354, 1.011e-2
-1.353, 1.011e-2
-1.352, 1.011e-2
-1.351, 1.011e-2
-1.350, 1.011e-2
-1.349, 1.011e-2
-1.348, 1.011e-2
-1.347, 1.011e-2
-1.346, 1.003e-2
-1.345, 1.011e-2
-1.344, 9.978e-3
-1.343, 9.930e-3
-1.342, 9.765e-3
-1.341, 9.677e-3
-1.340, 9.573e-3
-1.339, 9.524e-3
-1.338, 9.407e-3
-1.337, 9.303e-3
-1.336, 9.175e-3
-1.335, 9.032e-3
-1.334, 8.950e-3
-1.333, 8.928e-3
-1.332, 8.805e-3
-1.331, 8.706e-3
-1.330, 8.602e-3
-1.329, 8.497e-3
-1.328, 8.393e-3
-1.327, 8.274e-3
-1.326, 8.186e-3
-1.325, 8.078e-3
-1.324, 7.975e-3
-1.323, 7.883e-3
-1.322, 7.777e-3
-1.321, 7.677e-3
-1.320, 7.607e-3
-1.319, 7.492e-3
-1.318, 7.444e-3
-1.317, 7.371e-3
-1.316, 7.255e-3
-1.315, 7.177e-3
-1.314, 7.067e-3
-1.313, 7.025e-3
-1.312, 6.912e-3
-1.311, 6.825e-3
-1.310, 6.737e-3
-1.309, 6.640e-3
-1.308, 6.535e-3
-1.307, 6.462e-3
-1.306, 6.369e-3
-1.305, 6.284e-3
-1.304, 6.187e-3
-1.303, 6.110e-3
-1.302, 6.018e-3
-1.301, 5.930e-3
-1.300, 5.854e-3
-1.299, 5.754e-3
-1.298, 5.669e-3
-1.297, 5.585e-3
-1.296, 5.503e-3
-1.295, 5.422e-3
-1.294, 5.362e-3
-1.293, 5.269e-3
-1.292, 5.191e-3
-1.291, 5.101e-3
-1.290, 5.015e-3
-1.289, 4.935e-3
-1.288, 4.854e-3
-1.287, 4.770e-3
-1.286, 4.682e-3
-1.285, 4.600e-3
-1.284, 4.518e-3
-1.283, 4.487e-3
-1.282, 4.412e-3
-1.281, 4.302e-3
-1.280, 4.249e-3
-1.279, 4.182e-3
-1.278, 4.098e-3
-1.277, 4.026e-3
-1.276, 3.960e-3
-1.275, 3.882e-3
-1.274, 3.818e-3
-1.273, 3.738e-3
-1.272, 3.662e-3
-1.271, 3.566e-3
-1.270, 3.524e-3
-1.269, 3.438e-3
-1.268, 3.374e-3
-1.267, 3.305e-3
-1.266, 3.290e-3
-1.265, 3.213e-3
-1.264, 3.157e-3
-1.263, 3.095e-3
-1.262, 3.026e-3
-1.261, 2.967e-3
-1.260, 2.908e-3
-1.259, 2.843e-3
-1.258, 2.786e-3
-1.257, 2.724e-3
-1.256, 2.664e-3
-1.255, 2.606e-3
-1.254, 2.573e-3
-1.253, 2.506e-3
-1.252, 2.448e-3
-1.251, 2.391e-3
-1.250, 2.331e-3
-1.249, 2.281e-3
-1.248, 2.232e-3
-1.247, 2.202e-3
-1.246, 2.130e-3
-1.245, 2.075e-3
-1.244, 2.024e-3
-1.243, 1.971e-3
-1.242, 1.923e-3
-1.241, 1.869e-3
-1.240, 1.820e-3
-1.239, 1.773e-3
-1.238, 1.722e-3
-1.237, 1.681e-3
-1.236, 1.631e-3
-1.235, 1.585e-3
-1.234, 1.540e-3
-1.233, 1.489e-3
-1.232, 1.443e-3
-1.231, 1.404e-3
-1.230, 1.357e-3
-1.229, 1.322e-3
-1.228, 1.275e-3
-1.227, 1.239e-3
-1.226, 1.192e-3
-1.225, 1.154e-3
-1.224, 1.112e-3
-1.223, 1.081e-3
-1.222, 1.044e-3
-1.221, 1.005e-3
-1.220, 9.697e-4
-1.219, 9.337e-4
-1.218, 9.002e-4
-1.217, 8.657e-4
-1.216, 8.308e-4
-1.215, 8.021e-4
-1.214, 7.670e-4
-1.213, 7.372e-4
-1.212, 7.082e-4
-1.211, 6.813e-4
-1.210, 6.496e-4
-1.209, 6.213e-4
-1.208, 5.932e-4
-1.207, 5.702e-4
-1.206, 5.400e-4
-1.205, 5.148e-4
-1.204, 4.881e-4
-1.203, 4.636e-4
-1.202, 4.413e-4
-1.201, 4.152e-4
-1.200, 3.964e-4
-1.199, 3.737e-4
-1.198, 3.501e-4
-1.197, 3.294e-4
-1.196, 3.074e-4
-1.195, 2.874e-4
-1.194, 2.694e-4
-1.193, 2.494e-4
-1.192, 2.308e-4
-1.191, 2.120e-4
-1.190, 1.943e-4
-1.189, 1.776e-4
-1.188, 1.621e-4
-1.187, 1.448e-4
-1.186, 1.297e-4
-1.185, 1.133e-4
-1.184, 1.004e-4
-1.183, 8.574e-5
-1.182, 7.188e-5
-1.181, 5.837e-5
-1.180, 4.494e-5
-1.179, 3.277e-5
-1.178, 2.026e-5
-1.177, 7.719e-6
-1.176, -3.825e-6
-1.175, -1.523e-5
-1.174, -2.563e-5
-1.173, -3.555e-5
-1.172, -4.597e-5
-1.171, -5.681e-5
-1.170, -6.613e-5
-1.169, -7.575e-5
-1.168, -8.338e-5
-1.167, -9.323e-5
-1.166, -1.019e-4
-1.165, -1.104e-4
-1.164, -1.184e-4
-1.163, -1.256e-4
-1.162, -1.333e-4
-1.161, -1.414e-4
-1.160, -1.479e-4
-1.159, -1.543e-4
-1.158, -1.609e-4
-1.157, -1.667e-4
-1.156, -1.747e-4
-1.155, -1.799e-4
-1.154, -1.857e-4
-1.153, -1.900e-4
-1.152, -1.965e-4
-1.151, -2.015e-4
-1.150, -2.070e-4
-1.149, -2.108e-4
-1.148, -2.161e-4
-1.147, -2.202e-4
-1.146, -2.264e-4
-1.145, -2.300e-4
-1.144, -2.338e-4
-1.143, -2.378e-4
-1.142, -2.428e-4
-1.141, -2.458e-4
-1.140, -2.508e-4
-1.139, -2.528e-4
-1.138, -2.562e-4
-1.137, -2.598e-4
-1.136, -2.640e-4
-1.135, -2.667e-4
-1.134, -2.690e-4
-1.133, -2.724e-4
-1.132, -2.746e-4
-1.131, -2.840e-4
-1.130, -2.824e-4
-1.129, -2.870e-4
-1.128, -2.878e-4
-1.127, -2.907e-4
-1.126, -2.954e-4
-1.125, -2.941e-4
-1.124, -2.940e-4
-1.123, -2.960e-4
-1.122, -2.963e-4
-1.121, -3.016e-4
-1.120, -3.012e-4
-1.119, -3.052e-4
-1.118, -3.047e-4
-1.117, -3.080e-4
-1.116, -3.097e-4
-1.115, -3.129e-4
-1.114, -3.135e-4
-1.113, -3.155e-4
-1.112, -3.157e-4
-1.111, -3.202e-4
-1.110, -3.213e-4
-1.109, -3.220e-4
-1.108, -3.217e-4
-1.107, -3.246e-4
-1.106, -3.255e-4
-1.105, -3.285e-4
-1.104, -3.278e-4
-1.103, -3.297e-4
-1.102, -3.306e-4
-1.101, -3.335e-4
-1.100, -3.336e-4
-1.099, -3.353e-4
-1.098, -3.351e-4
-1.097, -3.373e-4
-1.096, -3.367e-4
-1.095, -3.396e-4
-1.094, -3.391e-4
-1.093, -3.404e-4
-1.092, -3.413e-4
-1.091, -3.431e-4
-1.090, -3.438e-4
-1.089, -3.453e-4
-1.088, -3.443e-4
-1.087, -3.469e-4
-1.086, -3.469e-4
-1.085, -3.490e-4
-1.084, -3.486e-4
-1.083, -3.494e-4
-1.082, -3.497e-4
-1.081, -3.520e-4
-1.080, -3.519e-4
-1.079, -3.524e-4
-1.078, -3.522e-4
-1.077, -3.540e-4
-1.076, -3.553e-4
-1.075, -3.572e-4
-1.074, -3.594e-4
-1.073, -3.637e-4
-1.072, -3.609e-4
-1.071, -3.622e-4
-1.070, -3.620e-4
-1.069, -3.620e-4
-1.068, -3.613e-4
-1.067, -3.631e-4
-1.066, -3.629e-4
-1.065, -3.651e-4
-1.064, -3.639e-4
-1.063, -3.640e-4
-1.062, -3.654e-4
-1.061, -3.661e-4
-1.060, -3.681e-4
-1.059, -3.670e-4
-1.058, -3.688e-4
-1.057, -3.674e-4
-1.056, -3.705e-4
-1.055, -3.707e-4
-1.054, -3.718e-4
-1.053, -3.715e-4
-1.052, -3.725e-4
-1.051, -3.736e-4
-1.050, -3.749e-4
-1.049, -3.738e-4
-1.048, -3.748e-4
-1.047, -3.754e-4
-1.046, -3.763e-4
-1.045, -3.787e-4
-1.044, -3.778e-4
-1.043, -3.789e-4
-1.042, -3.781e-4
-1.041, -3.811e-4
-1.040, -3.798e-4
-1.039, -3.828e-4
-1.038, -3.814e-4
-1.037, -3.829e-4
-1.036, -3.830e-4
-1.035, -3.862e-4
-1.034, -3.846e-4
-1.033, -3.876e-4
-1.032, -3.856e-4
-1.031, -3.891e-4
-1.030, -3.892e-4
-1.029, -3.894e-4
-1.028, -3.907e-4
-1.027, -3.909e-4
-1.026, -3.923e-4
-1.025, -3.938e-4
-1.024, -3.951e-4
-1.023, -3.934e-4
-1.022, -3.988e-4
-1.021, -3.979e-4
-1.020, -4.005e-4
-1.019, -3.985e-4
-1.018, -3.997e-4
-1.017, -4.015e-4
-1.016, -4.015e-4
-1.015, -4.041e-4
-1.014, -4.038e-4
-1.013, -4.050e-4
-1.012, -4.053e-4
-1.011, -4.087e-4
-1.010, -4.082e-4
-1.009, -4.108e-4
-1.008, -4.093e-4
-1.007, -4.119e-4
-1.006, -4.142e-4
-1.005, -4.143e-4
-1.004, -4.166e-4
-1.003, -4.151e-4
-1.002, -4.192e-4
-1.001, -4.189e-4
