Potential V vs RHE, Current mA cm-2
0.013299999999999867,0.2594580523952477
0.012299999999999978,-1.1362961160515976
0.011299999999999866,-2.4007650758709675
0.010299999999999976,-3.6655169779503103
0.009299999999999864,-4.800115440442069
0.008299999999999974,-5.9347139029338285
0.007299999999999862,-6.981600264833956
0.006299999999999972,-7.984630576438266
0.00529999999999986,-8.899948787450944
0.0042999999999999705,-9.81668170976349
0.0032999999999998586,-10.644287820184536
0.0022999999999999687,-11.42945259160963
0.0012999999999998568,-12.258473413330542
0.00029999999999996696,-12.99978213445982
-0.000700000000000145,-13.741090855589102
-0.0017000000000000348,-14.486643710617974
-0.0027000000000001467,-15.179852247551842
-0.0037000000000000366,-15.87306078448571
-0.0047000000000001485,-16.495533756426326
-0.005700000000000038,-17.061418276372343
-0.00670000000000015,-17.584861457322408
-0.00770000000000004,-18.15074597726842
-0.008700000000000152,-18.631747819222536
-0.009700000000000042,-19.155191000172596
-0.010700000000000154,-19.636192842126707
-0.011700000000000044,-20.159636023076775
-0.012700000000000156,-20.626490752032236
-0.013700000000000045,-21.107492593986347
-0.014700000000000157,-21.63093577493641
-0.015700000000000047,-22.111937616890522
-0.01670000000000016,-22.550498119848687
-0.01770000000000005,-22.989058622806844
-0.01870000000000016,-23.385177786769056
-0.01970000000000005,-23.767149837732617
-0.020700000000000163,-24.078386323702922
-0.021700000000000053,-24.474505487665134
-0.022700000000000164,-24.771594860636792
-0.023700000000000054,-25.12527268560305
-0.024700000000000166,-25.43650917157336
-0.025700000000000056,-25.73359854454502
-0.026700000000000168,-26.002393691519377
-0.027700000000000058,-26.257041725495082
-0.02870000000000017,-26.483395533473487
-0.02970000000000006,-26.69560222845324
-0.03070000000000017,-26.907808923433
-0.03170000000000006,-27.091721392415455
-0.03270000000000017,-27.303928087395207
-0.03370000000000006,-27.530281895373616
-0.034700000000000175,-27.78492992934932
-0.035700000000000065,-28.09616641531963
-0.03670000000000018,-28.350814449295335
-0.03770000000000007,-28.662050935265643
-0.03870000000000018,-28.91669896924135
-0.03970000000000007,-29.14305277721976
-0.04070000000000018,-29.39770081119546
-0.04170000000000007,-29.66649595816982
-0.04270000000000018,-29.878702653149578
-0.04370000000000007,-30.10505646112798
-0.044700000000000184,-30.317263156107735
-0.045700000000000074,-30.529469851087494
-0.046700000000000186,-30.71338232006995
-0.047700000000000076,-30.88314767605375
-0.04870000000000019,-31.010471693041605
-0.04970000000000008,-31.137795710029454
-0.05070000000000019,-31.27926684001596
-0.05170000000000008,-31.40659085700382
-0.05270000000000019,-31.533914873991666
-0.05370000000000008,-31.57635621298762
-0.05470000000000019,-31.661238890979522
-0.05570000000000008,-31.717827342974125
-0.056700000000000195,-31.76026868197007
-0.057700000000000085,-31.84515135996197
-0.058700000000000196,-31.930034037953877
-0.059700000000000086,-32.01491671594578
-0.0607000000000002,-32.09979939393769
-0.06170000000000009,-32.24127052392419
-0.0627000000000002,-32.32615320191609
-0.06370000000000009,-32.49591855789989
-0.0647000000000002,-32.66568391388369
-0.06570000000000009,-32.84959638286615
-0.0667000000000002,-33.01936173884996
-0.0677000000000001,-33.14668575583781
-0.0687000000000002,-33.330598224820264
-0.0697000000000001,-33.45792224180811
-0.07070000000000021,-33.627687597791926
-0.0717000000000001,-33.755011614779775
-0.07270000000000021,-33.89648274476628
-0.0737000000000001,-34.06624810075008
-0.07470000000000021,-34.15113077874198
-0.0757000000000001,-34.278454795729836
-0.07670000000000021,-34.33504324772444
-0.0777000000000001,-34.377484586720385
-0.07870000000000021,-34.377484586720385
-0.0797000000000001,-34.33504324772444
-0.08070000000000022,-34.278454795729836
-0.0817000000000001,-34.278454795729836
-0.08270000000000022,-34.278454795729836
-0.08370000000000011,-34.33504324772444
-0.08470000000000022,-34.41992592571634
-0.08570000000000011,-34.50480860370825
-0.08670000000000022,-34.58969128170015
-0.08770000000000011,-34.717015298688004
-0.08870000000000022,-34.85848642867451
-0.08970000000000011,-34.98581044566235
-0.09070000000000022,-35.07069312365426
-0.09170000000000011,-35.15557580164616
-0.09270000000000023,-35.240458479638065
-0.09370000000000012,-35.32534115762997
-0.09470000000000023,-35.46681228761647
-0.09570000000000012,-35.636577643600276
-0.09670000000000023,-35.806342999584075
-0.09770000000000012,-35.94781412957058
-0.09870000000000023,-36.03269680756248
-0.09970000000000012,-36.07513814655844
-0.10070000000000023,-36.07513814655844
-0.10170000000000012,-36.07513814655844
-0.10270000000000024,-36.07513814655844
-0.10370000000000013,-36.03269680756248
-0.10470000000000024,-36.07513814655844
-0.10570000000000013,-36.07513814655844
-0.10670000000000024,-36.11757948555439
-0.10770000000000013,-36.16002082455034
-0.10870000000000024,-36.244903502542236
-0.10970000000000013,-36.28734484153819
-0.11070000000000024,-36.37222751953009
-0.11170000000000013,-36.4288159715247
-0.11270000000000002,-36.47125731052064
-0.11370000000000013,-36.55613998851254
-0.11470000000000002,-36.5985813275085
-0.11570000000000014,-36.6834640055004
-0.11670000000000003,-36.768346683492304
-0.11770000000000014,-36.89567070048016
-0.11870000000000003,-37.07958316946261
-0.11970000000000014,-37.206907186450465
-0.12070000000000003,-37.334231203438314
-0.12170000000000014,-37.41911388143023
-0.12270000000000003,-37.47570233342482
-0.12370000000000014,-37.47570233342482
-0.12470000000000003,-37.47570233342482
-0.12570000000000014,-37.47570233342482
-0.12670000000000003,-37.51814367242077
-0.12770000000000015,-37.47570233342482
-0.12870000000000004,-37.51814367242077
-0.12970000000000015,-37.51814367242077
-0.13070000000000004,-37.51814367242077
-0.13170000000000015,-37.56058501141672
-0.13270000000000004,-37.56058501141672
-0.13370000000000015,-37.60302635041268
-0.13470000000000004,-37.645467689408626
-0.13570000000000015,-37.73035036740053
-0.13670000000000004,-37.77279170639648
-0.13770000000000016,-37.85767438438838
-0.13870000000000005,-37.99914551437489
-0.13970000000000016,-38.12646953136274
-0.14070000000000005,-38.29623488734655
-0.14170000000000016,-38.46600024333035
-0.14270000000000005,-38.6499127123128
-0.14370000000000016,-38.777236729300654
-0.14470000000000005,-38.86211940729255
-0.14570000000000016,-38.94700208528445
-0.14670000000000005,-38.98944342428042
-0.14770000000000016,-39.08847321527096
-0.14870000000000005,-39.173355893262865
-0.14970000000000017,-39.258238571254765
-0.15070000000000006,-39.34312124924667
-0.15170000000000017,-39.38556258824262
-0.15270000000000006,-39.38556258824262
-0.15370000000000017,-39.38556258824262
-0.15470000000000006,-39.34312124924667
-0.15570000000000017,-39.30067991025072
-0.15670000000000006,-39.30067991025072
-0.15770000000000017,-39.30067991025072
-0.15870000000000006,-39.258238571254765
-0.15970000000000018,-39.258238571254765
-0.16070000000000007,-39.258238571254765
-0.16170000000000018,-39.258238571254765
-0.16270000000000007,-39.30067991025072
-0.16370000000000018,-39.34312124924667
-0.16470000000000007,-39.42800392723857
-0.16570000000000018,-39.56947505722508
-0.16670000000000007,-39.696799074212926
-0.16770000000000018,-39.82412309120078
-0.16870000000000007,-39.99388844718459
-0.16970000000000018,-40.177800916167044
-0.17070000000000007,-40.30512493315489
-0.17170000000000019,-40.51733162813464
-0.17270000000000008,-40.65880275812115
-0.1737000000000002,-40.828568114104954
-0.17470000000000008,-40.91345079209687
-0.1757000000000002,-40.99833347008877
-0.17670000000000008,-41.083216148080666
-0.1777000000000002,-41.139804600075266
-0.17870000000000008,-41.139804600075266
-0.1797000000000002,-41.182245939071215
-0.18070000000000008,-41.139804600075266
-0.1817000000000002,-41.139804600075266
-0.18270000000000008,-41.083216148080666
-0.1837000000000002,-41.04077480908471
-0.1847000000000001,-40.95589213109281
-0.1857000000000002,-40.91345079209687
-0.1867000000000001,-40.87100945310091
-0.1877000000000002,-40.91345079209687
-0.1887000000000001,-40.95589213109281
-0.1897000000000002,-41.04077480908471
-0.1907000000000001,-41.182245939071215
-0.1917000000000001,-41.352011295055014
-0.19269999999999998,-41.47933531204288
-0.1937000000000001,-41.606659329030734
-0.19469999999999998,-41.74813045901723
-0.1957000000000001,-41.87545447600508
-0.19669999999999999,-42.04521983198889
-0.1977000000000001,-42.186690961975394
-0.1987,-42.3564563179592
-0.1997000000000001,-42.483780334947056
-0.2007,-42.653545690930855
-0.2017000000000001,-42.79501682091736
-0.2027,-42.92234083790521
-0.2037000000000001,-43.007223515897124
-0.2047,-43.007223515897124
-0.2057000000000001,-43.007223515897124
-0.2067,-42.96478217690117
-0.2077000000000001,-42.87989949890926
-0.2087,-42.87989949890926
-0.2097000000000001,-42.837458159913304
-0.2107,-42.87989949890926
-0.2117000000000001,-42.92234083790521
-0.2127,-42.96478217690117
-0.2137000000000001,-43.007223515897124
-0.2147,-43.007223515897124
-0.2157000000000001,-43.04966485489307
-0.2167,-43.04966485489307
-0.21770000000000012,-43.09210619388902
-0.2187,-43.17698887188092
-0.21970000000000012,-43.31846000186743
-0.2207,-43.44578401885527
-0.22170000000000012,-43.57310803584313
-0.2227,-43.75702050482558
-0.22370000000000012,-43.92678586080939
-0.2247,-44.054109877797245
-0.22570000000000012,-44.138992555789144
-0.2267,-44.223875233781044
-0.22770000000000012,-44.3229050247716
-0.22870000000000001,-44.4077877027635
-0.22970000000000013,-44.535111719751356
-0.23070000000000002,-44.619994397743255
-0.23170000000000013,-44.74731841473111
-0.23270000000000002,-44.84634820572166
-0.23370000000000013,-44.88878954471762
-0.23470000000000002,-44.97367222270952
-0.23570000000000013,-45.01611356170547
-0.23670000000000002,-45.05855490070142
-0.2376999999999999,-45.10099623969737
-0.23870000000000002,-45.18587891768927
-0.2396999999999999,-45.18587891768927
-0.24070000000000003,-45.22832025668522
-0.24169999999999991,-45.22832025668522
-0.24270000000000003,-45.27076159568118
-0.24369999999999992,-45.32735004767578
-0.24470000000000003,-45.36979138667173
-0.24569999999999992,-45.45467406466363
-0.24670000000000003,-45.53955674265553
-0.24769999999999992,-45.666880759643384
-0.24870000000000003,-45.79420477663124
-0.24969999999999992,-45.93567590661774
-0.25070000000000003,-46.062999923605595
-0.2516999999999999,-46.19032394059345
-0.25270000000000004,-46.37423640957591
-0.2536999999999999,-46.501560426563756
-0.25470000000000004,-46.67132578254756
-0.2556999999999999,-46.84109113853137
-0.25670000000000004,-46.982562268517874
-0.25769999999999993,-47.10988628550572
-0.25870000000000004,-47.19476896349763
-0.25969999999999993,-47.27965164148953
-0.26070000000000004,-47.36453431948143
-0.26169999999999993,-47.46356411047198
-0.26270000000000004,-47.506005449467935
-0.26369999999999993,-47.54844678846388
-0.26470000000000005,-47.506005449467935
-0.26569999999999994,-47.506005449467935
-0.26670000000000005,-47.54844678846388
-0.26769999999999994,-47.506005449467935
-0.26870000000000005,-47.54844678846388
-0.26969999999999994,-47.590888127459834
-0.27070000000000005,-47.633329466455784
-0.27169999999999994,-47.71821214444768
-0.27270000000000005,-47.8879775004315
-0.27369999999999994,-48.071889969413945
-0.27470000000000006,-48.24165532539775
-0.27569999999999995,-48.45386202037751
-0.27670000000000006,-48.68021582835591
-0.27769999999999995,-48.89242252333566
-0.27870000000000006,-49.118776331314066
-0.27969999999999995,-49.28854168729788
-0.28070000000000006,-49.50074838227763
-0.28169999999999995,-49.72710219025603
-0.28270000000000006,-49.89686754623985
-0.28369999999999995,-50.20810403221015
-0.28470000000000006,-50.50519340518181
-0.28569999999999995,-50.77398855215617
-0.28670000000000007,-51.071077925127824
-0.28769999999999996,-51.25499039411028
-0.28870000000000007,-51.38231441109813
-0.28969999999999996,-51.46719708909004
-0.29070000000000007,-51.55207976708194
-0.29169999999999996,-51.65110955807249
-0.29270000000000007,-51.77843357506035
-0.29369999999999996,-51.90575759204819
-0.2947000000000001,-51.990640270040096
-0.29569999999999996,-52.11796428702795
-0.2967000000000001,-52.25943541701445
-0.29769999999999996,-52.42920077299826
-0.2987000000000001,-52.64140746797801
-0.29969999999999997,-52.82531993696047
-0.3007000000000001,-53.079967970936174
-0.30169999999999997,-53.348763117910536
-0.3027000000000001,-53.68829382987814
-0.30369999999999997,-54.0419716548444
-0.3047000000000001,-54.480532157802564
-0.30569999999999997,-54.919092660760725
-0.3067000000000001,-55.442535841710786
-0.3077,-55.96597902266086
-0.3087000000000001,-56.489422203610914
-0.3097,-56.97042404556503
-0.3107000000000001,-57.408984548523186
-0.3117,-57.8333979384827
-0.3127000000000001,-58.18707576344896
-0.3137,-58.583194927411164
-0.3147000000000001,-58.97931409137338
-0.3157,-59.36128614233694
-0.3167000000000001,-59.757405306299155
-0.3177,-60.19596580925731
-0.3187000000000001,-60.59208497321952
-0.3197,-60.93161568518713
-0.3207000000000001,-61.28529351015339
-0.3217,-61.63897133511965
-0.3227000000000001,-61.97850204708726
-0.3237,-62.459503889041365
-0.3247000000000001,-62.98294706999144
-0.3257,-63.54883158993744
-0.3267000000000001,-64.19959878787537
-0.3277,-64.90695443780788
-0.3287000000000001,-65.64260431373769
-0.3297,-66.47728398065809
-0.3307000000000001,-67.2978165345798
-0.3317,-68.17493754049613
-0.3327000000000001,-69.05205854641244
-0.3337,-69.95747377832606
-0.3347000000000001,-70.87703612323833
-0.3357,-71.7965984681506
-0.3367000000000001,-72.71616081306288
-0.3377,-73.62157604497652
-0.3387000000000001,-74.49869705089283
-0.3397,-75.4182593958051
-0.3407000000000001,-76.29538040172143
-0.3417,-77.11591295564315
-0.3427000000000001,-77.99303396155948
-0.3437,-78.91259630647174
-0.3447000000000001,-79.81801153838538
-0.3457,-80.69513254430169
-0.3467000000000001,-81.61469488921396
-0.3477,-82.52011012112759
-0.3487000000000001,-83.48211380503581
-0.3497,-84.44411748894404
-0.3507000000000001,-85.57588652883607
-0.3517,-86.7076555687281
-0.3527000000000001,-87.89601306061473
-0.3537,-89.11266477849867
-0.3547000000000001,-90.41419917437449
-0.3557,-91.81476336124088
-0.35670000000000013,-93.25776888710321
-0.3577,-94.78565709095746
-0.35870000000000013,-96.3984279728036
-0.3597,-98.05364019364569
-0.36070000000000013,-99.75129375348374
-0.3617,-101.3640646353299
-0.3626999999999999,-102.97683551717601
-0.3637,-104.5471650600262
-0.3646999999999999,-106.07505326388046
-0.3657,-107.56050012873874
-0.3666999999999999,-109.13082967158894
-0.3677,-110.78604189243102
-0.3686999999999999,-112.54028390426367
-0.36970000000000003,-114.3228201420936
-0.3706999999999999,-115.97803236293572
-0.37170000000000003,-117.63324458377778
-0.3726999999999999,-119.20357412662798
-0.37370000000000003,-120.64657965249035
-0.3746999999999999,-122.1320265173486
-0.37570000000000003,-123.65991472120285
-0.3766999999999999,-125.35756828104091
-0.37770000000000004,-127.23913430986138
-0.3786999999999999,-128.89434653070347
-0.37970000000000004,-130.84664812451723
-0.3806999999999999,-132.8555381703256
-0.38170000000000004,-135.1332233631083
-0.38269999999999993,-137.08552495692206
-0.38370000000000004,-139.84421199165885
-0.38469999999999993,-141.89554337646317
-0.38570000000000004,-143.73466806628772
-0.38669999999999993,-144.72496597619326
-0.38570000000000004,-144.72496597619326
-0.38469999999999993,-145.43232162612577
-0.38370000000000004,-145.7152638860988
-0.38269999999999993,-146.28114840604482
-0.38170000000000004,-146.8470329259908
-0.3806999999999999,-146.8470329259908
-0.37970000000000004,-146.7055617960043
-0.3786999999999999,-146.7055617960043
-0.37770000000000004,-146.28114840604482
-0.3766999999999999,-145.43232162612577
-0.37570000000000003,-144.58349484620675
-0.3746999999999999,-144.15908145624724
-0.37370000000000003,-143.4517258063147
-0.3726999999999999,-142.7443701563822
-0.37170000000000003,-142.03701450644968
-0.3706999999999999,-141.3155117435185
-0.36970000000000003,-139.8866533306548
-0.3686999999999999,-138.27388244880868
-0.3677,-136.7884355839504
-0.3666999999999999,-135.2181060411002
-0.3657,-133.73265917624192
-0.3646999999999999,-132.55844879735392
-0.3637,-131.5964451134457
-0.3626999999999999,-130.63444142953747
-0.3617,-129.9412328926036
-0.36070000000000013,-129.5451137286414
-0.3597,-129.27631858166706
-0.35870000000000013,-128.93678786969946
-0.3577,-128.71043406172103
-0.35670000000000013,-128.41334468874936
-0.3557,-128.01722552478716
-0.3547000000000001,-127.66354769982091
-0.3537,-127.4088996658452
-0.3527000000000001,-127.32401698785328
-0.3517,-127.19669297086547
-0.3507000000000001,-127.012780501883
-0.3497,-126.6732497899154
-0.3487000000000001,-126.00833547897882
-0.3477,-125.23024426405304
-0.3467000000000001,-124.31068191914078
-0.3457,-123.3062368962366
-0.3447000000000001,-122.25935053433648
-0.3437,-121.17002283344038
-0.3427000000000001,-120.03825379354835
-0.3417,-118.94892609265229
-0.3407000000000001,-117.85959839175621
-0.3397,-116.77027069086012
-0.3387000000000001,-115.76582566795594
-0.3377,-114.63405662806393
-0.3367000000000001,-113.44569913617728
-0.3357,-112.31393009628526
-0.3347000000000001,-111.22460239538917
-0.3337,-110.17771603348905
-0.3327000000000001,-109.17327101058488
-0.3317,-108.21126732667666
-0.3307000000000001,-107.30585209476303
-0.3297,-106.51361376683862
-0.3287000000000001,-105.86284656890071
-0.3277,-105.33940338795064
-0.3267000000000001,-104.77351886800463
-0.3257,-104.2076343480586
-0.3247000000000001,-103.50027869812607
-0.3237,-102.67974614420436
-0.3227000000000001,-101.76018379929208
-0.3217,-100.88306279337576
-0.3207000000000001,-100.06253023945405
-0.3197,-99.18540923353773
-0.3187000000000001,-98.2234055496295
-0.3177,-97.21896052672531
-0.3167000000000001,-96.12963282582925
-0.3157,-95.04030512493317
-0.3147000000000001,-93.99341876303303
-0.3137,-92.90409106213696
-0.3127000000000001,-91.89964603923279
-0.3117,-90.99423080731917
-0.3107000000000001,-90.07466846240689
-0.3097,-89.15510611749461
-0.3087000000000001,-88.23554377258235
-0.3077,-87.37256987966467
-0.3067000000000001,-86.49544887374834
-0.30569999999999997,-85.70321054582392
-0.3047000000000001,-84.96756066989411
-0.30369999999999997,-84.18946945496833
-0.3027000000000001,-83.43967246603985
-0.30169999999999997,-82.56255146012353
-0.3007000000000001,-81.65713622820991
-0.29969999999999997,-80.69513254430169
-0.2987000000000001,-79.7755701993894
-0.29769999999999996,-78.77112517648524
-0.2967000000000001,-77.76668015358106
-0.29569999999999996,-76.71979379168094
-0.2947000000000001,-75.63046609078486
-0.29369999999999996,-74.58357972888473
-0.29270000000000007,-73.49425202798865
-0.29169999999999996,-72.44736566608852
-0.29070000000000007,-71.4004793041884
-0.28969999999999996,-70.39603428128423
-0.28870000000000007,-69.43403059737601
-0.28769999999999996,-68.48617402646643
-0.28670000000000007,-67.52417034255821
-0.28569999999999995,-66.56216665864997
-0.28470000000000006,-65.68504565273366
-0.28369999999999995,-64.86451309881193
-0.28270000000000006,-64.15715744887942
-0.28169999999999995,-63.3366248949577
-0.28070000000000006,-62.58682790602922
-0.27969999999999995,-61.851178030099405
-0.27870000000000006,-61.07308681517363
-0.27769999999999995,-60.28084848724921
-0.27670000000000006,-59.44616882032884
-0.27569999999999995,-58.583194927411164
-0.27470000000000006,-57.70607392149485
-0.27369999999999994,-56.74407023758662
-0.27270000000000005,-55.838655005673
-0.27169999999999994,-54.961533999756675
-0.27070000000000005,-54.0419716548444
-0.26969999999999994,-53.22143910092268
-0.26870000000000005,-52.386759434002315
-0.26769999999999994,-51.46719708909004
-0.26670000000000005,-50.547634744177756
-0.26569999999999994,-49.557336834272235
