Potential V vs RHE, Current mA cm-2
0.013299999999999867,0.3031726315610774
0.012299999999999978,-0.9617207416482519
0.011299999999999866,-2.095187435100119
0.010299999999999976,-3.1420737970002466
0.009299999999999864,-4.146518819904423
0.008299999999999974,-5.017980980621284
0.007299999999999862,-5.847001802342197
0.006299999999999972,-6.54445447317566
0.00529999999999986,-7.199465805013171
0.0042999999999999705,-7.853062425550818
0.0032999999999998586,-8.464217707092514
0.0022999999999999687,-9.11781432763016
0.0012999999999998568,-9.728969609171857
0.00029999999999996696,-10.25241279012192
-0.000700000000000145,-10.775855971071984
-0.0017000000000000348,-11.211587051430415
-0.0027000000000001467,-11.73503023238048
-0.0037000000000000366,-12.170761312738911
-0.0047000000000001485,-12.607907104397206
-0.005700000000000038,-12.955926084164007
-0.00670000000000015,-13.30535977523067
-0.00770000000000004,-13.523225315409885
-0.008700000000000152,-13.872659006476551
-0.009700000000000042,-14.175407224647667
-0.010700000000000154,-14.529085049613924
-0.011700000000000044,-14.783733083589633
-0.012700000000000156,-15.094969569559943
-0.013700000000000045,-15.349617603535648
-0.014700000000000157,-15.618412750510005
-0.015700000000000047,-15.87306078448571
-0.01670000000000016,-16.141855931460068
-0.01770000000000005,-16.354062626439823
-0.01870000000000016,-16.53797509542228
-0.01970000000000005,-16.70774045140608
-0.020700000000000163,-16.877505807389888
-0.021700000000000053,-16.962388485381787
-0.022700000000000164,-17.146300954364243
-0.023700000000000054,-17.2736249713521
-0.024700000000000166,-17.4433903273359
-0.025700000000000056,-17.584861457322408
-0.026700000000000168,-17.75462681330621
-0.027700000000000058,-17.924392169290012
-0.02870000000000017,-18.10830463827247
-0.02970000000000006,-18.320511333252224
-0.03070000000000017,-18.49027668923603
-0.03170000000000006,-18.631747819222536
-0.03270000000000017,-18.716630497214435
-0.03370000000000006,-18.80151317520634
-0.034700000000000175,-18.80151317520634
-0.035700000000000065,-18.843954514202288
-0.03670000000000018,-18.88639585319824
-0.03770000000000007,-18.97127853119014
-0.03870000000000018,-19.112749661176647
-0.03970000000000007,-19.197632339168546
-0.04070000000000018,-19.3249563561564
-0.04170000000000007,-19.409839034148305
-0.04270000000000018,-19.49472171214021
-0.04370000000000007,-19.678634181122664
-0.044700000000000184,-19.848399537106463
-0.045700000000000074,-19.890840876102416
-0.046700000000000186,-19.93328221509837
-0.047700000000000076,-19.890840876102416
-0.04870000000000019,-19.890840876102416
-0.04970000000000008,-19.93328221509837
-0.05070000000000019,-20.01816489309027
-0.05170000000000008,-20.06060623208622
-0.05270000000000019,-20.159636023076775
-0.05370000000000008,-20.202077362072725
-0.05470000000000019,-20.202077362072725
-0.05570000000000008,-20.244518701068674
-0.056700000000000195,-20.371842718056527
-0.057700000000000085,-20.541608074040333
-0.058700000000000196,-20.683079204026836
-0.059700000000000086,-20.76796188201874
-0.0607000000000002,-20.76796188201874
-0.06170000000000009,-20.85284456001064
-0.0627000000000002,-20.89528589900659
-0.06370000000000009,-20.980168576998494
-0.0647000000000002,-20.980168576998494
-0.06570000000000009,-20.93772723800254
-0.0667000000000002,-20.85284456001064
-0.0677000000000001,-20.810403221014692
-0.0687000000000002,-20.76796188201874
-0.0697000000000001,-20.85284456001064
-0.07070000000000021,-20.980168576998494
-0.0717000000000001,-21.065051254990397
-0.07270000000000021,-21.149933932982297
-0.0737000000000001,-21.291405062968803
-0.07470000000000021,-21.376287740960702
-0.0757000000000001,-21.461170418952605
-0.07670000000000021,-21.54605309694451
-0.0777000000000001,-21.58849443594046
-0.07870000000000021,-21.63093577493641
-0.0797000000000001,-21.63093577493641
-0.08070000000000022,-21.67337711393236
-0.0817000000000001,-21.58849443594046
-0.08270000000000022,-21.54605309694451
-0.08370000000000011,-21.503611757948562
-0.08470000000000022,-21.54605309694451
-0.08570000000000011,-21.63093577493641
-0.08670000000000022,-21.67337711393236
-0.08770000000000011,-21.772406904922917
-0.08870000000000022,-21.814848243918867
-0.08970000000000011,-21.94217226090672
-0.09070000000000022,-22.069496277894572
-0.09170000000000011,-22.15437895588647
-0.09270000000000023,-22.15437895588647
-0.09370000000000012,-22.111937616890522
-0.09470000000000023,-22.069496277894572
-0.09570000000000012,-22.027054938898623
-0.09670000000000023,-22.069496277894572
-0.09770000000000012,-22.069496277894572
-0.09870000000000023,-22.111937616890522
-0.09970000000000012,-22.069496277894572
-0.10070000000000023,-22.111937616890522
-0.10170000000000012,-22.15437895588647
-0.10270000000000024,-22.295850085872978
-0.10370000000000013,-22.46561544185678
-0.10470000000000024,-22.592939458844636
-0.10570000000000013,-22.67782213683654
-0.10670000000000024,-22.72026347583249
-0.10770000000000013,-22.776851927827092
-0.10870000000000024,-22.819293266823045
-0.10970000000000013,-22.819293266823045
-0.11070000000000024,-22.819293266823045
-0.11170000000000013,-22.72026347583249
-0.11270000000000002,-22.63538079784059
-0.11370000000000013,-22.592939458844636
-0.11470000000000002,-22.508056780852733
-0.11570000000000014,-22.550498119848687
-0.11670000000000003,-22.592939458844636
-0.11770000000000014,-22.776851927827092
-0.11870000000000003,-22.904175944814945
-0.11970000000000014,-23.031499961802798
-0.12070000000000003,-23.15882397879065
-0.12170000000000014,-23.24370665678255
-0.12270000000000003,-23.24370665678255
-0.12370000000000014,-23.342736447773106
-0.12470000000000003,-23.385177786769056
-0.12570000000000014,-23.427619125765005
-0.12670000000000003,-23.427619125765005
-0.12770000000000015,-23.342736447773106
-0.12870000000000004,-23.24370665678255
-0.12970000000000015,-23.2012653177866
-0.13070000000000004,-23.24370665678255
-0.13170000000000015,-23.300295108777156
-0.13270000000000004,-23.385177786769056
-0.13370000000000015,-23.47006046476096
-0.13470000000000004,-23.55494314275286
-0.13570000000000015,-23.682267159740714
-0.13670000000000004,-23.823738289727217
-0.13770000000000016,-23.951062306715073
-0.13870000000000005,-24.078386323702922
-0.13970000000000016,-24.120827662698876
-0.14070000000000005,-24.078386323702922
-0.14170000000000016,-23.951062306715073
-0.14270000000000005,-23.86617962872317
-0.14370000000000016,-23.823738289727217
-0.14470000000000005,-23.86617962872317
-0.14570000000000016,-23.908620967719123
-0.14670000000000005,-23.908620967719123
-0.14770000000000016,-23.908620967719123
-0.14870000000000005,-23.908620967719123
-0.14970000000000017,-24.035944984706973
-0.15070000000000006,-24.20571034069078
-0.15170000000000017,-24.432064148669184
-0.15270000000000006,-24.559388165657033
-0.15370000000000017,-24.601829504652986
-0.15470000000000006,-24.64427084364894
-0.15570000000000017,-24.686712182644893
-0.15670000000000006,-24.729153521640843
-0.15770000000000017,-24.771594860636792
-0.15870000000000006,-24.729153521640843
-0.15970000000000018,-24.64427084364894
-0.16070000000000007,-24.516946826661083
-0.16170000000000018,-24.474505487665134
-0.16270000000000007,-24.516946826661083
-0.16370000000000018,-24.559388165657033
-0.16470000000000007,-24.686712182644893
-0.16570000000000018,-24.814036199632742
-0.16670000000000007,-24.997948668615198
-0.16770000000000018,-25.12527268560305
-0.16870000000000007,-25.252596702590903
-0.16970000000000018,-25.295038041586857
-0.17070000000000007,-25.337479380582806
-0.17170000000000019,-25.39406783257741
-0.17270000000000008,-25.43650917157336
-0.1737000000000002,-25.43650917157336
-0.17470000000000008,-25.337479380582806
-0.1757000000000002,-25.252596702590903
-0.17670000000000008,-25.252596702590903
-0.1777000000000002,-25.295038041586857
-0.17870000000000008,-25.43650917157336
-0.1797000000000002,-25.521391849565262
-0.18070000000000008,-25.60627452755716
-0.1817000000000002,-25.648715866553115
-0.18270000000000008,-25.73359854454502
-0.1837000000000002,-25.86092256153287
-0.1847000000000001,-26.002393691519377
-0.1857000000000002,-26.044835030515326
-0.1867000000000001,-26.087276369511276
-0.1877000000000002,-26.044835030515326
-0.1887000000000001,-26.002393691519377
-0.1897000000000002,-25.959952352523427
-0.1907000000000001,-26.044835030515326
-0.1917000000000001,-26.087276369511276
-0.19269999999999998,-26.129717708507226
-0.1937000000000001,-26.21460038649913
-0.19469999999999998,-26.257041725495082
-0.1957000000000001,-26.34192440348698
-0.19669999999999999,-26.483395533473487
-0.1977000000000001,-26.61071955046134
-0.1987,-26.69560222845324
-0.1997000000000001,-26.69560222845324
-0.2007,-26.65316088945729
-0.2017000000000001,-26.65316088945729
-0.2027,-26.738043567449193
-0.2037000000000001,-26.780484906445146
-0.2047,-26.822926245441096
-0.2057000000000001,-26.822926245441096
-0.2067,-26.822926245441096
-0.2077000000000001,-26.907808923433
-0.2087,-27.00683871442355
-0.2097000000000001,-27.176604070407354
-0.2107,-27.34636942639116
-0.2117000000000001,-27.43125210438306
-0.2127,-27.530281895373616
-0.2137000000000001,-27.572723234369565
-0.2147,-27.615164573365515
-0.2157000000000001,-27.65760591236147
-0.2167,-27.65760591236147
-0.21770000000000012,-27.615164573365515
-0.2187,-27.572723234369565
-0.21970000000000012,-27.572723234369565
-0.2207,-27.530281895373616
-0.22170000000000012,-27.572723234369565
-0.2227,-27.742488590353368
-0.22370000000000012,-27.954695285333123
-0.2247,-28.18104909331153
-0.22570000000000012,-28.308373110299385
-0.2267,-28.393255788291288
-0.22770000000000012,-28.435697127287238
-0.22870000000000001,-28.478138466283188
-0.22970000000000013,-28.53472691827779
-0.23070000000000002,-28.619609596269694
-0.23170000000000013,-28.662050935265643
-0.23270000000000002,-28.619609596269694
-0.23370000000000013,-28.577168257273744
-0.23470000000000002,-28.619609596269694
-0.23570000000000013,-28.662050935265643
-0.23670000000000002,-28.704492274261593
-0.2376999999999999,-28.789374952253496
-0.23870000000000002,-28.91669896924135
-0.2396999999999999,-29.100611438223805
-0.24070000000000003,-29.27037679420761
-0.24169999999999991,-29.440142150191413
-0.24270000000000003,-29.581613280177915
-0.24369999999999992,-29.751378636161718
-0.24470000000000003,-29.921143992145527
-0.24569999999999992,-30.04846800913338
-0.24670000000000003,-30.10505646112798
-0.24769999999999992,-30.10505646112798
-0.24870000000000003,-30.10505646112798
-0.24969999999999992,-30.10505646112798
-0.25070000000000003,-30.147497800123933
-0.2516999999999999,-30.189939139119886
-0.25270000000000004,-30.274821817111786
-0.2536999999999999,-30.402145834099635
-0.25470000000000004,-30.571911190083444
-0.2556999999999999,-30.79826499806185
-0.25670000000000004,-31.052913032037555
-0.25769999999999993,-31.321708179011907
-0.25870000000000004,-31.57635621298762
-0.25969999999999993,-31.802710020966025
-0.26070000000000004,-31.972475376949827
-0.26169999999999993,-32.05735805494172
-0.26270000000000004,-32.184682071929586
-0.26369999999999993,-32.32615320191609
-0.26470000000000005,-32.41103587990799
-0.26569999999999994,-32.45347721890394
-0.26670000000000005,-32.45347721890394
-0.26769999999999994,-32.53835989689585
-0.26870000000000005,-32.70812525287965
-0.26969999999999994,-32.97692039985401
-0.27070000000000005,-33.330598224820264
-0.27169999999999994,-33.712570275783825
-0.27270000000000005,-34.06624810075008
-0.27369999999999994,-34.377484586720385
-0.27470000000000006,-34.67457395969205
-0.27569999999999995,-34.98581044566235
-0.27670000000000006,-35.240458479638065
-0.27769999999999995,-35.46681228761647
-0.27870000000000006,-35.636577643600276
-0.27969999999999995,-35.763901660588125
-0.28070000000000006,-35.90537279057463
-0.28169999999999995,-36.07513814655844
-0.28270000000000006,-36.329786180534136
-0.28369999999999995,-36.6834640055004
-0.28470000000000006,-37.122024508458566
-0.28569999999999995,-37.60302635041268
-0.28670000000000007,-38.08402819236679
-0.28769999999999996,-38.522588695324956
-0.28870000000000007,-38.98944342428042
-0.28969999999999996,-39.47044526623452
-0.29070000000000007,-39.95144710818864
-0.29169999999999996,-40.43244895014274
-0.29270000000000007,-40.828568114104954
-0.29369999999999996,-41.182245939071215
-0.2947000000000001,-41.39445263405098
-0.29569999999999996,-41.66324778102533
-0.2967000000000001,-42.04521983198889
-0.29769999999999996,-42.526221673943
-0.2987000000000001,-43.007223515897124
-0.29969999999999997,-43.61554937483908
-0.3007000000000001,-44.3229050247716
-0.30169999999999997,-45.05855490070142
-0.3027000000000001,-45.89323456762179
-0.30369999999999997,-46.67132578254756
-0.3047000000000001,-47.46356411047198
-0.30569999999999997,-48.156772647405845
-0.3067000000000001,-48.80753984534376
-0.3077,-49.458307043281685
-0.3087000000000001,-50.024191563227696
-0.3097,-50.60422319617236
-0.3107000000000001,-51.17010771611838
-0.3117,-51.82087491405629
-0.3127000000000001,-52.59896612898206
-0.3137,-53.39120445690648
-0.3147000000000001,-54.31076680181876
-0.3157,-55.357653163718886
-0.3167000000000001,-56.489422203610914
-0.3177,-57.66363258249889
-0.3187000000000001,-58.79540162239092
-0.3197,-59.757405306299155
-0.3207000000000001,-60.761850329203334
-0.3217,-61.7662953521075
-0.3227000000000001,-62.81318171400764
-0.3237,-63.860068075907755
-0.3247000000000001,-64.82207175981598
-0.3257,-65.7274869917296
-0.3267000000000001,-66.87340314462028
-0.3277,-68.17493754049613
-0.3287000000000001,-69.57550172736251
-0.3297,-71.06094859222078
-0.3307000000000001,-72.48980700508447
-0.3317,-73.97525386994278
-0.3327000000000001,-75.54558341279296
-0.3337,-77.11591295564315
-0.3347000000000001,-78.64380115949739
-0.3357,-80.12924802435568
-0.3367000000000001,-81.57225355021802
-0.3377,-82.87378794609386
-0.3387000000000001,-84.18946945496833
-0.3397,-85.66076920682796
-0.3407000000000001,-87.27354008867411
-0.3417,-88.94289942251486
-0.3427000000000001,-90.68299432134886
-0.3437,-92.4655305591788
-0.3447000000000001,-94.30465524900335
-0.3457,-96.31354529481169
-0.3467000000000001,-98.364876679616
-0.3477,-100.18985425644189
-0.3487000000000001,-101.84506647728399
-0.3497,-103.41539602013418
-0.3507000000000001,-105.21207937096277
-0.3517,-107.03705694778867
-0.3527000000000001,-108.87618163761321
-0.3537,-110.48895251945936
-0.3547000000000001,-111.96025227131899
-0.3557,-113.62961160515974
-0.35670000000000013,-115.68094298996405
-0.3577,-118.07180508673595
-0.35870000000000013,-120.43437295751058
-0.3597,-122.52814568131083
-0.36070000000000013,-124.43800593612862
-0.3617,-126.36201330394509
-0.3626999999999999,-128.37090334975343
-0.3637,-130.50711741254963
-0.3646999999999999,-132.37453632837148
-0.3657,-133.81754185423384
-0.3666999999999999,-134.9917522331218
-0.3677,-136.26499240300032
-0.3686999999999999,-137.75043926785864
-0.36970000000000003,-139.49053416669264
-0.3706999999999999,-141.41454153450906
-0.37170000000000003,-143.4517258063147
-0.3726999999999999,-145.57379275611228
-0.37370000000000003,-147.6958597059098
-0.3746999999999999,-149.95939778569388
-0.37570000000000003,-152.0814647354914
-0.3766999999999999,-154.203531685289
-0.37770000000000004,-156.18412750510007
-0.3786999999999999,-157.88178106493808
-0.37970000000000004,-159.43796349478964
-0.3806999999999999,-160.8526747946547
-0.38170000000000004,-162.12591496453322
-0.38269999999999993,-163.54062626439824
-0.38370000000000004,-164.67239530429026
-0.38469999999999993,-165.94563547416882
-0.38570000000000004,-167.50181790402033
-0.38669999999999993,-168.49211581392586
-0.38570000000000004,-168.35064468393938
-0.38469999999999993,-168.20917355395284
-0.38370000000000004,-168.06770242396635
-0.38269999999999993,-167.6432890340068
-0.38170000000000004,-167.21887564404733
-0.3806999999999999,-166.93593338407433
-0.37970000000000004,-166.22857773414182
-0.3786999999999999,-165.09680869424977
-0.37770000000000004,-163.68209739438475
-0.3766999999999999,-162.2673860945197
-0.37570000000000003,-160.71120366466818
-0.3746999999999999,-159.57943462477613
-0.37370000000000003,-158.5891367148706
-0.3726999999999999,-157.59883880496508
-0.37170000000000003,-156.60854089505958
-0.3706999999999999,-155.75971411514055
-0.36970000000000003,-155.19382959519453
-0.3686999999999999,-155.05235846520802
-0.3677,-154.9108873352215
-0.3666999999999999,-154.486473945262
-0.3657,-153.920589425316
-0.3646999999999999,-153.21323377538346
-0.3637,-152.36440699546444
-0.3626999999999999,-151.5155802155454
-0.3617,-150.24234004566688
-0.36070000000000013,-148.54468648582886
-0.3597,-146.8470329259908
-0.35870000000000013,-145.29085049613926
-0.3577,-143.87613919627424
-0.35670000000000013,-142.8858412863687
-0.3557,-142.03701450644968
-0.3547000000000001,-141.2306290655266
-0.3537,-140.5798618675887
-0.3527000000000001,-140.0988600256346
-0.3517,-139.57541684468453
-0.3507000000000001,-138.96709098574257
-0.3497,-138.23144110981272
-0.3487000000000001,-137.43920278188833
-0.3477,-136.43475775898415
-0.3467000000000001,-135.43031273607997
-0.3457,-134.29854369618792
-0.3447000000000001,-132.9404208483175
-0.3437,-131.32764996647134
-0.3427000000000001,-129.6299964066333
-0.3417,-128.32846201075745
-0.3407000000000001,-127.45134100484115
-0.3397,-126.61666133792076
-0.3387000000000001,-125.79612878399907
-0.3377,-124.91900777808273
-0.3367000000000001,-124.05603388516508
-0.3357,-123.532590704215
-0.3347000000000001,-122.95255907127036
-0.3337,-122.17446785634456
-0.3327000000000001,-120.95781613846064
-0.3317,-119.47236927360234
-0.3307000000000001,-118.11424642573192
-0.3297,-116.94003604684394
-0.3287000000000001,-115.85070834594785
-0.3277,-114.67649796705987
-0.3267000000000001,-113.23349244119754
-0.3257,-111.91781093232305
-0.3247000000000001,-110.92751302241753
-0.3237,-110.40406984146746
-0.3227000000000001,-110.05039201650122
-0.3217,-109.4845074965552
-0.3207000000000001,-108.64982782963483
-0.3197,-107.78685393671715
-0.3187000000000001,-106.99461560879273
-0.3177,-106.30140707185885
-0.3167000000000001,-105.33940338795064
-0.3157,-103.85395652309235
-0.3147000000000001,-102.11386162425833
-0.3137,-100.35961961242569
-0.3127000000000001,-98.97320253855796
-0.3117,-97.78484504667132
-0.3107000000000001,-96.79454713676581
-0.3097,-95.83254345285758
-0.3087000000000001,-94.91298110794531
-0.3077,-94.03586010202899
-0.3067000000000001,-93.30021022609918
-0.30569999999999997,-92.6918843671572
-0.3047000000000001,-92.04111716921928
-0.30369999999999997,-91.20643750229891
-0.3027000000000001,-90.28687515738663
-0.30169999999999997,-89.36731281247435
-0.3007000000000001,-88.5043389195567
-0.29969999999999997,-87.49989389665252
-0.2987000000000001,-86.32568351776455
-0.29769999999999996,-84.8826779919022
-0.2967000000000001,-83.48211380503581
-0.29569999999999996,-82.26546208715187
-0.2947000000000001,-81.1761343862558
-0.29369999999999996,-80.25657204134353
-0.29270000000000007,-79.37945103542721
-0.29169999999999996,-78.51647714250953
-0.29070000000000007,-77.55447345860131
-0.28969999999999996,-76.71979379168094
-0.28870000000000007,-76.06902659374302
-0.28769999999999996,-75.29093537881725
-0.28670000000000007,-74.37137303390499
-0.28569999999999995,-73.45181068899271
-0.28470000000000006,-72.53224834408043
-0.28369999999999995,-71.66927445116276
-0.28270000000000006,-70.8345947842424
-0.28169999999999995,-69.78770842234226
-0.28070000000000006,-68.61349804345427
-0.27969999999999995,-67.34025787357575
-0.27870000000000006,-66.12360615569182
-0.27769999999999995,-65.0767197937917
-0.27670000000000006,-64.11471610988345
-0.27569999999999995,-63.29418355596174
-0.27470000000000006,-62.459503889041365
-0.27369999999999994,-61.6814126741156
-0.27270000000000005,-60.93161568518713
-0.27169999999999994,-60.15352447026136
-0.27070000000000005,-59.31884480334099
-0.26969999999999994,-58.498312249419264
-0.26870000000000005,-57.66363258249889
