Potential V vs RHE, Current mA cm-2
0.05339999999999995,-0.02240902698986218
0.05239999999999995,-0.023583237368750162
0.051399999999999946,-0.024120827662698876
0.050399999999999945,-0.024488652600663786
0.049399999999999944,-0.024814036199632745
0.04839999999999994,-0.025139419798601705
0.04739999999999994,-0.02547895051056931
0.04639999999999994,-0.02577603988354097
0.04539999999999994,-0.026058982143513973
0.04439999999999994,-0.02632777729048833
0.04339999999999994,-0.02662486666345999
0.04239999999999994,-0.026936103149430297
0.04139999999999994,-0.027204898296404656
0.040399999999999936,-0.02743125210438306
0.039399999999999935,-0.02772834147735472
0.038399999999999934,-0.028011283737327728
0.03739999999999993,-0.028322520223298033
0.03639999999999993,-0.028591315370272388
0.03539999999999993,-0.028831816291249444
0.03439999999999993,-0.029100611438223806
0.03339999999999993,-0.02939770081119546
0.03239999999999993,-0.02970893729716577
0.03139999999999993,-0.029977732444140127
0.030399999999999927,-0.030232380478115835
0.029399999999999926,-0.030487028512091542
0.028399999999999925,-0.030784117885063196
0.027399999999999924,-0.031067060145036202
0.026399999999999924,-0.03132170817901191
0.025399999999999923,-0.03157635621298762
0.024399999999999922,-0.03184515135996198
0.02339999999999992,-0.03214224073293363
0.02239999999999992,-0.03243933010590529
0.02139999999999992,-0.032708125252879645
0.020399999999999918,-0.032991067512852655
0.019399999999999917,-0.03325986265982701
0.018399999999999916,-0.03357109914579732
0.017399999999999916,-0.033910629857764926
0.016399999999999915,-0.03420771923073659
0.015399999999999914,-0.034462367264712294
0.014399999999999913,-0.034731162411686646
0.013399999999999912,-0.03504239889765696
0.012399999999999911,-0.035381929609624566
0.01139999999999991,-0.035650724756598924
0.01039999999999991,-0.035947814129570585
0.009399999999999908,-0.03625905061554088
0.008399999999999908,-0.036570287101511195
0.007399999999999907,-0.036923964926477454
0.006399999999999906,-0.037235201412447766
0.005399999999999905,-0.037518143672420776
0.004399999999999904,-0.03782938015839108
0.003399999999999903,-0.038154763757360044
0.002399999999999902,-0.038494294469327645
0.0013999999999999013,-0.03880553095529796
0.00039999999999990044,-0.03910262032826961
-0.0006000000000001005,-0.039442151040237225
-0.0016000000000001013,-0.03975338752620753
-0.0026000000000001022,-0.04013535957717109
-0.003600000000000103,-0.0404465960631414
-0.004600000000000104,-0.04075783254911171
-0.005600000000000105,-0.04108321614808067
-0.006600000000000106,-0.041451041086045574
-0.007600000000000107,-0.041818866024010484
-0.008600000000000108,-0.04214424962297945
-0.009600000000000108,-0.04245548610894975
-0.01060000000000011,-0.04276672259492006
-0.01160000000000011,-0.04316284175888227
-0.012600000000000111,-0.04355896092284448
-0.013600000000000112,-0.04389849163481209
-0.014600000000000113,-0.044223875233781046
-0.015600000000000114,-0.044577553058747305
-0.016600000000000115,-0.044959525109710866
-0.017600000000000116,-0.04534149716067442
-0.018600000000000116,-0.045681027872642034
-0.019600000000000117,-0.04602055858460964
-0.020600000000000118,-0.046345942183578605
-0.02160000000000012,-0.04674206134754081
-0.02260000000000012,-0.04715232762450167
-0.02360000000000012,-0.047520152562466576
-0.024600000000000122,-0.04788797750043149
-0.025600000000000123,-0.0482558024383964
-0.026600000000000124,-0.04865192160235861
-0.027600000000000124,-0.04907633499231812
-0.028600000000000125,-0.04943001281728438
-0.029600000000000126,-0.04978369064225065
-0.030600000000000127,-0.0501656626932142
-0.03160000000000013,-0.05057592897017506
-0.03260000000000013,-0.05100034236013457
-0.03360000000000013,-0.05138231441109813
-0.03460000000000002,-0.051764286462061694
-0.03560000000000002,-0.0521604056260239
-0.03660000000000002,-0.05257067190298476
-0.03760000000000002,-0.05300923240594292
-0.03860000000000002,-0.05339120445690649
-0.039600000000000024,-0.05377317650787005
-0.040600000000000025,-0.0541834427848309
-0.041600000000000026,-0.05459370906179176
-0.04260000000000003,-0.05506056379074723
-0.04360000000000003,-0.055428388728712134
-0.04460000000000003,-0.05582450789267435
-0.04560000000000003,-0.05622062705663656
-0.04660000000000003,-0.05665918755959472
-0.04760000000000003,-0.05709774806255288
-0.04860000000000003,-0.05750801433951374
-0.04960000000000003,-0.057875839277478656
-0.050600000000000034,-0.05831439978043681
-0.051600000000000035,-0.058752960283394974
-0.052600000000000036,-0.05919152078635314
-0.053600000000000037,-0.05958763995031534
-0.05460000000000004,-0.05998375911427755
-0.05560000000000004,-0.06037987827823976
-0.05660000000000004,-0.060846733007195224
-0.05760000000000004,-0.06129944062315204
-0.05860000000000004,-0.0617097069001129
-0.05960000000000004,-0.062134120290072405
-0.06060000000000004,-0.06255853368003192
-0.061600000000000044,-0.06301124129598873
-0.06260000000000004,-0.06346394891194555
-0.06360000000000005,-0.06391665652790236
-0.06460000000000005,-0.06436936414385917
-0.06560000000000005,-0.06477963042082002
-0.06660000000000005,-0.06523233803677685
-0.06760000000000005,-0.06571333987873097
-0.06860000000000005,-0.06613775326869047
-0.06960000000000005,-0.06657631377164863
-0.07060000000000005,-0.06700072716160814
-0.07160000000000005,-0.06746758189056361
-0.07260000000000005,-0.0679485837325177
-0.07360000000000005,-0.06837299712247723
-0.07460000000000006,-0.06879741051243674
-0.07560000000000006,-0.06923597101539489
-0.07660000000000006,-0.06967453151835307
-0.07760000000000006,-0.07016968047330582
-0.07860000000000006,-0.07060824097626398
-0.07960000000000006,-0.07103265436622348
-0.08060000000000006,-0.07148536198218029
-0.08160000000000006,-0.07195221671113576
-0.08260000000000006,-0.07243321855308989
-0.08360000000000006,-0.07285763194304938
-0.08460000000000006,-0.07326789822001026
-0.08560000000000006,-0.07372060583596705
-0.08660000000000007,-0.07418746056492254
-0.08760000000000007,-0.07465431529387798
-0.08860000000000007,-0.0751070229098348
-0.08960000000000007,-0.07554558341279295
-0.09060000000000007,-0.07598414391575113
-0.09160000000000007,-0.07642270441870928
-0.09260000000000007,-0.0768754120346661
-0.09360000000000007,-0.0773281196506229
-0.09460000000000007,-0.07775253304058242
-0.09560000000000007,-0.07817694643054193
-0.09660000000000007,-0.07865794827249603
-0.09760000000000008,-0.0791248030014515
-0.09860000000000008,-0.07953506927841236
-0.09960000000000008,-0.07994533555537323
-0.10060000000000008,-0.08036974894533275
-0.10160000000000008,-0.08083660367428819
-0.10260000000000008,-0.08130345840324366
-0.10360000000000008,-0.08172787179320316
-0.10460000000000008,-0.08213813807016403
-0.10560000000000008,-0.08256255146012353
-0.10660000000000008,-0.0830011119630817
-0.10760000000000008,-0.08343967246603987
-0.10860000000000009,-0.08382164451700343
-0.10960000000000009,-0.08420361656796697
-0.11060000000000009,-0.08458558861893054
-0.11160000000000009,-0.08502414912188871
-0.11260000000000009,-0.08547685673784551
-0.11360000000000009,-0.08587297590180773
-0.11460000000000009,-0.08629738929176724
-0.11560000000000009,-0.08669350845572944
-0.11660000000000009,-0.08708962761969166
-0.1176000000000001,-0.08749989389665253
-0.1186000000000001,-0.08788186594761609
-0.1196000000000001,-0.08823554377258234
-0.1206000000000001,-0.08860336871054725
-0.1216000000000001,-0.08901363498750811
-0.1226000000000001,-0.08943804837746762
-0.1236000000000001,-0.08980587331543252
-0.1246000000000001,-0.09015955114039878
-0.1256000000000001,-0.09052737607836371
-0.1266000000000001,-0.09090934812932726
-0.1276000000000001,-0.09133376151928675
-0.1286000000000001,-0.09167329223125438
-0.1296000000000001,-0.092012822943222
-0.1306000000000001,-0.0923523536551896
-0.1316000000000001,-0.09273432570615316
-0.1326000000000001,-0.09313044487011536
-0.1336000000000001,-0.09346997558208296
-0.1346000000000001,-0.09378121206805329
-0.1356000000000001,-0.09412074278002087
-0.1366000000000001,-0.0944602734919885
-0.1376000000000001,-0.09484224554295206
-0.1386000000000001,-0.09513933491592372
-0.1396000000000001,-0.09545057140189403
-0.1406000000000001,-0.09577595500086299
-0.14160000000000011,-0.09610133859983194
-0.14260000000000012,-0.09645501642479819
-0.14360000000000012,-0.09673795868477121
-0.14460000000000012,-0.0970209009447442
-0.14560000000000012,-0.09728969609171857
-0.14660000000000012,-0.09760093257768888
-0.14760000000000012,-0.0979121690636592
-0.14860000000000012,-0.09818096421063353
-0.14960000000000012,-0.0984497593576079
-0.15060000000000012,-0.09869026027858496
-0.15160000000000012,-0.09897320253855796
-0.15260000000000012,-0.09929858613752693
-0.15360000000000013,-0.09952493994550533
-0.15460000000000013,-0.0997654408664824
-0.15560000000000013,-0.0999917946744608
-0.15660000000000013,-0.10026058982143515
-0.15760000000000013,-0.10055767919440682
-0.15860000000000013,-0.10078403300238521
-0.15960000000000002,-0.10098209258436633
-0.16060000000000002,-0.10120844639234472
-0.16160000000000002,-0.10143480020032314
-0.16260000000000002,-0.10170359534729749
-0.16360000000000002,-0.10191580204227724
-0.16460000000000002,-0.10208556739826105
-0.16560000000000002,-0.10231192120623946
-0.16660000000000003,-0.10256656924021516
-0.16760000000000003,-0.10276462882219627
-0.16860000000000003,-0.10294854129117871
-0.16960000000000003,-0.10309001242116521
-0.17060000000000003,-0.10325977777714902
-0.17160000000000003,-0.10344369024613147
-0.17260000000000003,-0.10365589694111124
-0.17360000000000003,-0.10379736807109774
-0.17460000000000003,-0.1039529863140829
-0.17560000000000003,-0.1040944574440694
-0.17660000000000003,-0.10426422280005321
-0.17760000000000004,-0.104433988156037
-0.17860000000000004,-0.10457545928602352
-0.17960000000000004,-0.10468863619001273
-0.18060000000000004,-0.10480181309400192
-0.18160000000000004,-0.10495743133698707
-0.18260000000000004,-0.10511304957997222
-0.18360000000000004,-0.10522622648396143
-0.18460000000000004,-0.10532525627495198
-0.18560000000000004,-0.10542428606594254
-0.18660000000000004,-0.10555161008293039
-0.18760000000000004,-0.10570722832591554
-0.18860000000000005,-0.10580625811690608
-0.18960000000000005,-0.10587699368189933
-0.19060000000000005,-0.1059477292468926
-0.19160000000000005,-0.10608920037687909
-0.19260000000000005,-0.10618823016786964
-0.19360000000000005,-0.10627311284586156
-0.19460000000000005,-0.10632970129785616
-0.19560000000000005,-0.10638628974985076
-0.19660000000000005,-0.10645702531484401
-0.19760000000000005,-0.1065702022188332
-0.19860000000000005,-0.10664093778382645
-0.19960000000000006,-0.10666923200982377
-0.20060000000000006,-0.10671167334881972
-0.20160000000000006,-0.10676826180081432
-0.20260000000000006,-0.10686729159180487
-0.20360000000000006,-0.10690973293080082
-0.20460000000000006,-0.10693802715679812
-0.20560000000000006,-0.10698046849579408
-0.20660000000000006,-0.10703705694778867
-0.20760000000000006,-0.10710779251278192
-0.20860000000000006,-0.10713608673877922
-0.20960000000000006,-0.10712193962578058
-0.21060000000000006,-0.10715023385177787
-0.21160000000000007,-0.10720682230377249
-0.21260000000000007,-0.10724926364276843
-0.21360000000000007,-0.10729170498176437
-0.21460000000000007,-0.10726341075576709
-0.21560000000000007,-0.10726341075576709
-0.21660000000000007,-0.10731999920776168
-0.21760000000000007,-0.10739073477275493
-0.21860000000000007,-0.10737658765975629
-0.21960000000000007,-0.10737658765975629
-0.22060000000000007,-0.10734829343375898
-0.22160000000000007,-0.10736244054675763
-0.22260000000000008,-0.10740488188575359
-0.22360000000000008,-0.10740488188575359
-0.22460000000000008,-0.10739073477275493
-0.22560000000000008,-0.10736244054675763
-0.22660000000000008,-0.10737658765975629
-0.22760000000000008,-0.10740488188575359
-0.22860000000000008,-0.10737658765975629
-0.22960000000000008,-0.10737658765975629
-0.23060000000000008,-0.10734829343375898
-0.23160000000000008,-0.10736244054675763
-0.23260000000000008,-0.10739073477275493
-0.23360000000000009,-0.10734829343375898
-0.2346000000000001,-0.10730585209476304
-0.2356000000000001,-0.10727755786876574
-0.2366000000000001,-0.10727755786876574
-0.2376000000000001,-0.10730585209476304
-0.2386000000000001,-0.10726341075576709
-0.2396000000000001,-0.10722096941677112
-0.2406000000000001,-0.10717852807777517
-0.2416000000000001,-0.10716438096477654
-0.2426000000000001,-0.10719267519077383
-0.2436000000000001,-0.10719267519077383
-0.2446000000000001,-0.10712193962578058
-0.2456000000000001,-0.10707949828678462
-0.2466000000000001,-0.10705120406078733
-0.2476000000000001,-0.10706535117378597
-0.2486000000000001,-0.10705120406078733
-0.2496000000000001,-0.10700876272179137
-0.2506000000000001,-0.10695217426979677
-0.2516000000000001,-0.10695217426979677
-0.2526000000000001,-0.10695217426979677
-0.2536000000000001,-0.10690973293080082
-0.2546000000000001,-0.10685314447880623
-0.2556000000000001,-0.10682485025280893
-0.2566000000000001,-0.10682485025280893
-0.2576000000000001,-0.10682485025280893
-0.2586000000000001,-0.10678240891381298
-0.2596000000000001,-0.10672582046181836
-0.2606000000000001,-0.10668337912282241
-0.2616000000000001,-0.10665508489682511
-0.2626000000000001,-0.10668337912282241
-0.2636000000000001,-0.10665508489682511
-0.2646000000000001,-0.10661264355782916
-0.2656000000000001,-0.10654190799283592
-0.2666000000000001,-0.10652776087983726
-0.2676000000000001,-0.10654190799283592
-0.2686000000000001,-0.10651361376683861
-0.2696000000000001,-0.10647117242784265
-0.2706000000000001,-0.10641458397584806
-0.2716000000000001,-0.1064004368628494
-0.2726000000000001,-0.10641458397584806
-0.2736000000000001,-0.10635799552385346
-0.2746000000000001,-0.10632970129785616
-0.2756000000000001,-0.10627311284586156
-0.2766000000000001,-0.10625896573286289
-0.2776000000000001,-0.10627311284586156
-0.2786000000000001,-0.10624481861986426
-0.2796000000000001,-0.10617408305487101
-0.2806000000000001,-0.1061457888288737
-0.28160000000000013,-0.1061457888288737
-0.28260000000000013,-0.10615993594187234
-0.28360000000000013,-0.1061174946028764
-0.2846,-0.10606090615088182
-0.2856,-0.1060326119248845
-0.2866,-0.1060326119248845
-0.2876,-0.10601846481188584
-0.2886,-0.1060043176988872
-0.2896,-0.1059760234728899
-0.2906,-0.10593358213389395
-0.2916,-0.10591943502089529
-0.2926,-0.10591943502089529
-0.2936,-0.10591943502089529
-0.29460000000000003,-0.10587699368189933
-0.29560000000000003,-0.1058345523429034
-0.29660000000000003,-0.1058345523429034
-0.29760000000000003,-0.1058345523429034
-0.29860000000000003,-0.10580625811690608
-0.29960000000000003,-0.1057779638909088
-0.30060000000000003,-0.10576381677791014
-0.30160000000000003,-0.10576381677791014
-0.30260000000000004,-0.1057779638909088
-0.30360000000000004,-0.10574966966491149
-0.30460000000000004,-0.10570722832591554
-0.30560000000000004,-0.10567893409991824
-0.30660000000000004,-0.10567893409991824
-0.30760000000000004,-0.10573552255191283
-0.30860000000000004,-0.10569308121291689
-0.30960000000000004,-0.10566478698691958
-0.31060000000000004,-0.10566478698691958
-0.31160000000000004,-0.10565063987392094
-0.31260000000000004,-0.10566478698691958
-0.31360000000000005,-0.10566478698691958
-0.31460000000000005,-0.1056364927609223
-0.31560000000000005,-0.10562234564792364
-0.31660000000000005,-0.10562234564792364
-0.31760000000000005,-0.10565063987392094
-0.31860000000000005,-0.10565063987392094
-0.31960000000000005,-0.10565063987392094
-0.32060000000000005,-0.1056364927609223
-0.32160000000000005,-0.10562234564792364
-0.32260000000000005,-0.10566478698691958
-0.32360000000000005,-0.10565063987392094
-0.32460000000000006,-0.105608198534925
-0.32560000000000006,-0.10562234564792364
-0.32660000000000006,-0.10562234564792364
-0.32760000000000006,-0.10566478698691958
-0.32860000000000006,-0.10566478698691958
-0.32960000000000006,-0.1056364927609223
-0.33060000000000006,-0.10562234564792364
-0.33160000000000006,-0.10565063987392094
-0.33260000000000006,-0.10567893409991824
-0.33360000000000006,-0.10567893409991824
-0.33460000000000006,-0.10566478698691958
-0.33560000000000006,-0.10566478698691958
-0.33660000000000007,-0.10570722832591554
-0.33760000000000007,-0.1057213754389142
-0.33860000000000007,-0.1057213754389142
-0.33960000000000007,-0.1057213754389142
-0.34060000000000007,-0.10570722832591554
-0.34160000000000007,-0.10574966966491149
-0.34260000000000007,-0.10579211100390745
-0.34360000000000007,-0.1057779638909088
-0.3446000000000001,-0.10579211100390745
-0.3456000000000001,-0.1057779638909088
-0.3466000000000001,-0.10580625811690608
-0.34759999999999996,-0.1058628465689007
-0.3486000000000001,-0.10587699368189933
-0.34959999999999997,-0.10587699368189933
-0.3506000000000001,-0.1058628465689007
-0.35159999999999997,-0.105891140794898
-0.3526000000000001,-0.1059477292468926
-0.35359999999999997,-0.10591943502089529
-0.3546000000000001,-0.10591943502089529
-0.35559999999999997,-0.10593358213389395
-0.3566000000000001,-0.1058345523429034
-0.3576,-0.10570722832591554
-0.3586000000000001,-0.10569308121291689
-0.3596,-0.10567893409991824
-0.3606000000000001,-0.10566478698691958
-0.3616,-0.10570722832591554
-0.3626000000000001,-0.1057779638909088
-0.3636,-0.1057779638909088
-0.3646000000000001,-0.10576381677791014
-0.3656,-0.1057779638909088
-0.3666000000000001,-0.10580625811690608
-0.3676,-0.1058628465689007
-0.3686000000000001,-0.10590528790789665
-0.3696,-0.105891140794898
-0.3706000000000001,-0.10593358213389395
-0.3716,-0.1059760234728899
-0.3726000000000001,-0.10601846481188584
-0.3736,-0.10604675903788315
-0.3746000000000001,-0.10606090615088182
-0.3756,-0.10607505326388045
-0.3766000000000001,-0.1061174946028764
-0.3776,-0.10617408305487101
-0.3786000000000001,-0.10620237728086832
-0.3796,-0.10620237728086832
-0.3806000000000001,-0.10623067150686559
-0.3816,-0.10627311284586156
-0.3826000000000001,-0.10634384841085481
-0.3836,-0.1063721426368521
-0.3846000000000001,-0.1063721426368521
-0.3856,-0.10638628974985076
-0.3866000000000001,-0.10645702531484401
-0.3876,-0.10654190799283592
-0.3886000000000001,-0.10655605510583457
-0.3896,-0.10654190799283592
-0.3906000000000001,-0.10658434933183186
-0.3916,-0.10664093778382645
-0.3926000000000001,-0.10672582046181836
-0.3936,-0.10675411468781566
-0.3946000000000001,-0.10678240891381298
-0.3956,-0.10681070313981027
-0.3966000000000001,-0.10685314447880623
-0.3976,-0.10692388004379948
-0.3986000000000001,-0.10696632138279542
-0.3996,-0.10700876272179137
-0.4006000000000001,-0.10703705694778867
-0.4016,-0.10710779251278192
-0.4026000000000001,-0.10717852807777517
-0.4036,-0.10717852807777517
-0.4046000000000001,-0.10722096941677112
-0.4056,-0.10726341075576709
-0.40660000000000013,-0.10733414632076034
-0.4076,-0.10744732322474954
-0.40860000000000013,-0.10747561745074685
-0.4096,-0.10747561745074685
-0.41060000000000013,-0.10751805878974278
-0.4116,-0.10758879435473605
-0.41260000000000013,-0.10770197125872524
-0.4136,-0.10775855971071985
-0.41460000000000014,-0.10778685393671714
-0.4156,-0.10781514816271445
-0.41660000000000014,-0.10787173661470904
-0.4176,-0.10795661929270095
-0.41860000000000014,-0.10801320774469556
-0.41960000000000003,-0.10804150197069286
-0.42060000000000014,-0.1080839433096888
-0.42160000000000003,-0.10818297310067936
-0.42260000000000014,-0.10833859134366451
-0.42360000000000003,-0.10839517979565912
-0.42460000000000014,-0.10843762113465506
-0.42560000000000003,-0.10849420958664967
-0.42660000000000015,-0.10856494515164292
-0.42760000000000004,-0.10867812205563213
-0.42860000000000015,-0.10870641628162941
-0.42960000000000004,-0.10874885762062536
-0.43060000000000015,-0.10877715184662266
-0.43160000000000004,-0.10884788741161593
-0.43260000000000015,-0.10896106431560514
-0.43360000000000004,-0.10903179988059837
-0.43460000000000015,-0.10910253544559163
-0.43560000000000004,-0.10913082967158892
