Potential V vs RHE, Current mA cm-2
0.05339999999999995,-0.16056973253468165
0.05239999999999995,-0.17896097943292713
0.051399999999999946,-0.1890054296619689
0.050399999999999945,-0.19622045729128057
0.049399999999999944,-0.20230371588070023
0.04839999999999994,-0.2079625610801604
0.04739999999999994,-0.21319699288966104
0.04639999999999994,-0.21828995356917516
0.04539999999999994,-0.22309997198871628
0.04439999999999994,-0.2279099904082574
0.04339999999999994,-0.23243706656782553
0.04239999999999994,-0.2368226715974071
0.04139999999999994,-0.24106680549700227
0.040399999999999936,-0.24531093939659734
0.039399999999999935,-0.24955507329619245
0.038399999999999934,-0.2537992071957876
0.03739999999999993,-0.25761892770542316
0.03639999999999993,-0.2614386482150588
0.03539999999999993,-0.2653998398546809
0.03439999999999993,-0.2695025026242895
0.03339999999999993,-0.2733222231339251
0.03239999999999993,-0.2770004725135742
0.03139999999999993,-0.2808201930232098
0.030399999999999927,-0.2844984424028589
0.029399999999999926,-0.2883181629124945
0.028399999999999925,-0.29199641229214357
0.027399999999999924,-0.2955331905418062
0.026399999999999924,-0.2993529110514418
0.025399999999999923,-0.30303116043109085
0.024399999999999922,-0.3067094098107399
0.02339999999999992,-0.3102461880604025
0.02239999999999992,-0.3136414951800786
0.02139999999999992,-0.3171782734297412
0.020399999999999918,-0.3208565228093903
0.019399999999999917,-0.3245347721890394
0.018399999999999916,-0.3279300793087155
0.017399999999999916,-0.3313253864283916
0.016399999999999915,-0.3348621646780542
0.015399999999999914,-0.3385404140577033
0.014399999999999913,-0.3422186634373524
0.013399999999999912,-0.3456139705570285
0.012399999999999911,-0.34900927767670453
0.01139999999999991,-0.3522631136663941
0.01039999999999991,-0.35579989191605677
0.009399999999999908,-0.35933667016571935
0.008399999999999908,-0.3625905061554089
0.007399999999999907,-0.365985813275085
0.006399999999999906,-0.3692396492647746
0.005399999999999905,-0.37263495638445066
0.004399999999999904,-0.3760302635041267
0.003399999999999903,-0.37914262836382984
0.002399999999999902,-0.3825379354835059
0.0013999999999999013,-0.3857917714731955
0.00039999999999990044,-0.38918707859287155
-0.0006000000000001005,-0.39258238571254767
-0.0016000000000001013,-0.39555327944226426
-0.0026000000000001022,-0.3986656443019673
-0.003600000000000103,-0.4019194802916569
-0.004600000000000104,-0.4051733162813465
-0.005600000000000105,-0.4084271522710361
-0.006600000000000106,-0.4116809882607257
-0.007600000000000107,-0.4147933531204288
-0.008600000000000108,-0.4179057179801318
-0.009600000000000108,-0.42115955396982147
-0.01060000000000011,-0.4242719188295245
-0.01160000000000011,-0.4273842836892276
-0.012600000000000111,-0.4306381196789172
-0.013600000000000112,-0.43375048453862025
-0.014600000000000113,-0.43672137826833685
-0.015600000000000114,-0.4399752142580264
-0.016600000000000115,-0.44308757911772945
-0.017600000000000116,-0.4459170017174596
-0.018600000000000116,-0.4490293665771626
-0.019600000000000117,-0.4522832025668522
-0.020600000000000118,-0.4552540962965688
-0.02160000000000012,-0.4583664611562719
-0.02260000000000012,-0.4613373548859885
-0.02360000000000012,-0.4641667774857185
-0.024600000000000122,-0.46742061347540814
-0.025600000000000123,-0.4703915072051247
-0.026600000000000124,-0.4733624009348413
-0.027600000000000124,-0.4761918235345713
-0.028600000000000125,-0.4790212461343014
-0.029600000000000126,-0.48213361099400454
-0.030600000000000127,-0.4851045047237211
-0.03160000000000013,-0.48807539845343767
-0.03260000000000013,-0.49090482105316774
-0.03360000000000013,-0.4937342436528978
-0.03460000000000002,-0.49670513738261435
-0.03560000000000002,-0.49981750224231747
-0.03660000000000002,-0.5026469248420475
-0.03760000000000002,-0.5054763474417775
-0.03860000000000002,-0.5083057700415077
-0.039600000000000024,-0.5111351926412377
-0.040600000000000025,-0.5141060863709543
-0.041600000000000026,-0.5169355089706844
-0.04260000000000003,-0.5197649315704145
-0.04360000000000003,-0.5225943541701447
-0.04460000000000003,-0.5254237767698746
-0.04560000000000003,-0.5283946704995912
-0.04660000000000003,-0.5310826219693349
-0.04760000000000003,-0.5337705734390784
-0.04860000000000003,-0.5367414671687949
-0.04960000000000003,-0.539570889768525
-0.050600000000000034,-0.5424003123682551
-0.051600000000000035,-0.5453712060979717
-0.052600000000000036,-0.5479176864377286
-0.053600000000000037,-0.5506056379074723
-0.05460000000000004,-0.5534350605072024
-0.05560000000000004,-0.556405954236919
-0.05660000000000004,-0.5590939057066625
-0.05760000000000004,-0.561781857176406
-0.05860000000000004,-0.5646112797761362
-0.05960000000000004,-0.5674407023758662
-0.06060000000000004,-0.5701286538456097
-0.061600000000000044,-0.5729580764453399
-0.06260000000000004,-0.5756460279150835
-0.06360000000000005,-0.578333979384827
-0.06460000000000005,-0.5811634019845571
-0.06560000000000005,-0.5838513534543007
-0.06660000000000005,-0.5865393049240442
-0.06760000000000005,-0.5892272563937878
-0.06860000000000005,-0.5917737367335448
-0.06960000000000005,-0.5946031593332749
-0.07060000000000005,-0.5972911108030184
-0.07160000000000005,-0.5999790622727621
-0.07260000000000005,-0.6026670137425056
-0.07360000000000005,-0.6050720229522761
-0.07460000000000006,-0.6079014455520062
-0.07560000000000006,-0.6105893970217499
-0.07660000000000006,-0.6132773484914934
-0.07760000000000006,-0.6158238288312504
-0.07860000000000006,-0.618228838041021
-0.07960000000000006,-0.620775318380778
-0.08060000000000006,-0.6236047409805081
-0.08160000000000006,-0.6261512213202652
-0.08260000000000006,-0.6286977016600223
-0.08360000000000006,-0.6312441819997794
-0.08460000000000006,-0.6337906623395364
-0.08560000000000006,-0.6366200849392665
-0.08660000000000007,-0.6391665652790235
-0.08760000000000007,-0.6415715744887941
-0.08860000000000007,-0.6441180548285511
-0.08960000000000007,-0.6468060062982948
-0.09060000000000007,-0.6493524866380518
-0.09160000000000007,-0.6518989669778088
-0.09260000000000007,-0.6543039761875794
-0.09360000000000007,-0.6568504565273365
-0.09460000000000007,-0.6593969368670936
-0.09560000000000007,-0.6620848883368372
-0.09660000000000007,-0.6646313686765942
-0.09760000000000008,-0.6668949067563783
-0.09860000000000008,-0.6694413870961354
-0.09960000000000008,-0.6719878674358926
-0.10060000000000008,-0.674392876645663
-0.10160000000000008,-0.6770808281154066
-0.10260000000000008,-0.6796273084551637
-0.10360000000000008,-0.6818908465349477
-0.10460000000000008,-0.6845787980046913
-0.10560000000000008,-0.6868423360844753
-0.10660000000000008,-0.6893888164242324
-0.10760000000000008,-0.691793825634003
-0.10860000000000009,-0.6941988348437735
-0.10960000000000009,-0.6966038440535441
-0.11060000000000009,-0.6991503243933012
-0.11160000000000009,-0.7015553336030717
-0.11260000000000009,-0.7038188716828558
-0.11360000000000009,-0.7062238808926263
-0.11460000000000009,-0.7087703612323834
-0.11560000000000009,-0.7113168415721405
-0.11660000000000009,-0.7135803796519244
-0.1176000000000001,-0.7158439177317085
-0.1186000000000001,-0.7181074558114927
-0.1196000000000001,-0.7205124650212632
-0.1206000000000001,-0.7229174742310338
-0.1216000000000001,-0.7251810123108178
-0.1226000000000001,-0.7274445503906019
-0.1236000000000001,-0.7297080884703859
-0.1246000000000001,-0.73197162655017
-0.1256000000000001,-0.7342351646299541
-0.1266000000000001,-0.7366401738397246
-0.1276000000000001,-0.7389037119195087
-0.1286000000000001,-0.7410257788693063
-0.1296000000000001,-0.7432893169490903
-0.1306000000000001,-0.7456943261588609
-0.1316000000000001,-0.7478163931086583
-0.1326000000000001,-0.749938460058456
-0.1336000000000001,-0.75220199813824
-0.1346000000000001,-0.7543240650880375
-0.1356000000000001,-0.7567290742978081
-0.1366000000000001,-0.7588511412476057
-0.1376000000000001,-0.7608317370674167
-0.1386000000000001,-0.7629538040172142
-0.1396000000000001,-0.7652173420969983
-0.1406000000000001,-0.7674808801767823
-0.14160000000000011,-0.76960294712658
-0.14260000000000012,-0.771583542946391
-0.14360000000000012,-0.773564138766202
-0.14460000000000012,-0.7758276768459861
-0.14560000000000012,-0.7780912149257702
-0.14660000000000012,-0.7800718107455812
-0.14760000000000012,-0.7821938776953787
-0.14860000000000012,-0.7840330023852033
-0.14960000000000012,-0.7862965404649873
-0.15060000000000012,-0.7884186074147849
-0.15160000000000012,-0.7903992032345959
-0.15260000000000012,-0.7925212701843936
-0.15360000000000013,-0.7943603948742181
-0.15460000000000013,-0.7964824618240156
-0.15560000000000013,-0.7984630576438266
-0.15660000000000013,-0.8003021823336512
-0.15760000000000013,-0.8024242492834487
-0.15860000000000013,-0.8044048451032598
-0.15960000000000002,-0.806385440923071
-0.16060000000000002,-0.808366036742882
-0.16160000000000002,-0.810346632562693
-0.16260000000000002,-0.812327228382504
-0.16360000000000002,-0.8141663530723287
-0.16460000000000002,-0.8161469488921397
-0.16560000000000002,-0.8185519581019103
-0.16660000000000003,-0.8209569673116808
-0.16760000000000003,-0.8223716786115459
-0.16860000000000003,-0.8242108033013704
-0.16960000000000003,-0.826049927991195
-0.17060000000000003,-0.828030523811006
-0.17160000000000003,-0.8300111196308171
-0.17260000000000003,-0.8317087731906551
-0.17360000000000003,-0.8335478978804797
-0.17460000000000003,-0.8353870225703042
-0.17560000000000003,-0.8373676183901153
-0.17660000000000003,-0.8393482142099263
-0.17760000000000004,-0.8409043966397778
-0.17860000000000004,-0.8427435213296024
-0.17960000000000004,-0.8447241171494134
-0.18060000000000004,-0.846563241839238
-0.18160000000000004,-0.848543837659049
-0.18260000000000004,-0.8503829623488736
-0.18360000000000004,-0.8520806159087115
-0.18460000000000004,-0.8542026828585092
-0.18560000000000004,-0.8560418075483337
-0.18660000000000004,-0.8580224033681447
-0.18760000000000004,-0.8598615280579692
-0.18860000000000005,-0.8615591816178074
-0.18960000000000005,-0.863681248567605
-0.19060000000000005,-0.865661844387416
-0.19160000000000005,-0.8675009690772405
-0.19260000000000005,-0.8693400937670651
-0.19360000000000005,-0.8711792184568896
-0.19460000000000005,-0.8731598142767006
-0.19560000000000005,-0.8752818812264982
-0.19660000000000005,-0.8771210059163228
-0.19760000000000005,-0.8791016017361337
-0.19860000000000005,-0.8810821975559447
-0.19960000000000006,-0.8830627933757559
-0.20060000000000006,-0.8851848603255535
-0.20160000000000006,-0.887023985015378
-0.20260000000000006,-0.8890045808351891
-0.20360000000000006,-0.8911266477849867
-0.20460000000000006,-0.8932487147347841
-0.20560000000000006,-0.8955122528145681
-0.20660000000000006,-0.8974928486343793
-0.20760000000000006,-0.8996149155841769
-0.20860000000000006,-0.9017369825339743
-0.20960000000000006,-0.9037175783537855
-0.21060000000000006,-0.9061225875635559
-0.21160000000000007,-0.9082446545133536
-0.21260000000000007,-0.9103667214631512
-0.21360000000000007,-0.9124887884129486
-0.21460000000000007,-0.9147523264927326
-0.21560000000000007,-0.9171573357025032
-0.21660000000000007,-0.9197038160422604
-0.21760000000000007,-0.9221088252520309
-0.21860000000000007,-0.9242308922018284
-0.21960000000000007,-0.9266359014115991
-0.22060000000000007,-0.9288994394913831
-0.22160000000000007,-0.9313044487011536
-0.22260000000000008,-0.9335679867809377
-0.22360000000000008,-0.9361144671206947
-0.22460000000000008,-0.9388024185904382
-0.22560000000000008,-0.9412074278002089
-0.22660000000000008,-0.943753908139966
-0.22760000000000008,-0.9463003884797231
-0.22860000000000008,-0.9487053976894935
-0.22960000000000008,-0.9516762914192101
-0.23060000000000008,-0.9542227717589672
-0.23160000000000008,-0.9569107232287108
-0.23260000000000008,-0.9595986746984544
-0.23360000000000009,-0.9621451550382114
-0.2346000000000001,-0.9652575198979146
-0.2356000000000001,-0.9679454713676581
-0.2366000000000001,-0.9707748939673883
-0.2376000000000001,-0.9737457876971048
-0.2386000000000001,-0.9764337391668484
-0.2396000000000001,-0.9795461040265513
-0.2406000000000001,-0.9826584688862544
-0.2416000000000001,-0.9856293626159711
-0.2426000000000001,-0.9886002563456876
-0.2436000000000001,-0.9917126212053906
-0.2446000000000001,-0.9948249860650937
-0.2456000000000001,-0.9983617643147563
-0.2466000000000001,-1.0013326580444728
-0.2476000000000001,-1.0045864940341627
-0.2486000000000001,-1.007840330023852
-0.2496000000000001,-1.011235637143528
-0.2506000000000001,-1.014772415393191
-0.2516000000000001,-1.018167722512867
-0.2526000000000001,-1.0214215585025566
-0.2536000000000001,-1.0250998078822056
-0.2546000000000001,-1.0286365861318683
-0.2556000000000001,-1.0321733643815307
-0.2566000000000001,-1.0359930848911665
-0.2576000000000001,-1.039246920880856
-0.2586000000000001,-1.0430666413904914
-0.2596000000000001,-1.0468863619001272
-0.2606000000000001,-1.0507060824097627
-0.2616000000000001,-1.0546672740493848
-0.2626000000000001,-1.0584869945590205
-0.2636000000000001,-1.062306715068656
-0.2646000000000001,-1.0661264355782916
-0.2656000000000001,-1.0699461560879273
-0.2666000000000001,-1.074331761117509
-0.2676000000000001,-1.078292952757131
-0.2686000000000001,-1.0823956155267396
-0.2696000000000001,-1.0866397494263347
-0.2706000000000001,-1.0908838833259298
-0.2716000000000001,-1.0951280172255249
-0.2726000000000001,-1.0995136222551065
-0.2736000000000001,-1.1037577561547016
-0.2746000000000001,-1.1082848323142698
-0.2756000000000001,-1.112811908473838
-0.2766000000000001,-1.1171975135034193
-0.2776000000000001,-1.1218660607929742
-0.2786000000000001,-1.1265346080825285
-0.2796000000000001,-1.1312031553720834
-0.2806000000000001,-1.135871702661638
-0.28160000000000013,-1.140681721081179
-0.28260000000000013,-1.1454917395007203
-0.28360000000000013,-1.1501602867902747
-0.2846,-1.154970305209816
-0.2856,-1.1600632658893302
-0.2866,-1.1651562265688442
-0.2876,-1.1701077161183717
-0.2886,-1.1753421479278725
-0.2896,-1.1802936374774
-0.2906,-1.1856695404168873
-0.2916,-1.1909039722263879
-0.2926,-1.195996932905902
-0.2936,-1.201372835845389
-0.29460000000000003,-1.2067487387848763
-0.29560000000000003,-1.2121246417243634
-0.29660000000000003,-1.217642015793837
-0.29760000000000003,-1.2228764476033378
-0.29860000000000003,-1.2283938216728114
-0.29960000000000003,-1.2341941380022579
-0.30060000000000003,-1.2397115120717317
-0.30160000000000003,-1.2456532995311649
-0.30260000000000004,-1.2511706736006385
-0.30360000000000004,-1.2568295188000984
-0.30460000000000004,-1.2626298351295453
-0.30560000000000004,-1.268430151458992
-0.30660000000000004,-1.2743719389184252
-0.30760000000000004,-1.2803137263778581
-0.30860000000000004,-1.2859725715773183
-0.30960000000000004,-1.292055830166738
-0.31060000000000004,-1.2979976176261712
-0.31160000000000004,-1.3042223473455772
-0.31260000000000004,-1.3104470770649834
-0.31360000000000005,-1.31624739339443
-0.31460000000000005,-1.3224721231138363
-0.31560000000000005,-1.328838323963229
-0.31660000000000005,-1.3350630536826351
-0.31760000000000005,-1.3414292545320279
-0.31860000000000005,-1.3476539842514341
-0.31960000000000005,-1.3545860696207725
-0.32060000000000005,-1.3610937416001518
-0.32160000000000005,-1.367318471319558
-0.32260000000000005,-1.3736846721689506
-0.32360000000000005,-1.3801923441483297
-0.32460000000000006,-1.386700016127709
-0.32560000000000006,-1.3934906303670611
-0.32660000000000006,-1.3999983023464404
-0.32760000000000006,-1.406647445455806
-0.32860000000000006,-1.4132965885651718
-0.32960000000000006,-1.420370145064497
-0.33060000000000006,-1.427443701563822
-0.33160000000000006,-1.433102546763282
-0.33260000000000006,-1.4401761032626073
-0.33360000000000006,-1.4472496597619326
-0.33460000000000006,-1.4543232162612578
-0.33560000000000006,-1.461396772760583
-0.33660000000000007,-1.4684703292599082
-0.33760000000000007,-1.4741291744593683
-0.33860000000000007,-1.4812027309586933
-0.33960000000000007,-1.4882762874580184
-0.34060000000000007,-1.4953498439573436
-0.34160000000000007,-1.502423400456669
-0.34260000000000007,-1.5094969569559942
-0.34360000000000007,-1.5165705134553193
-0.3446000000000001,-1.5236440699546445
-0.3456000000000001,-1.5307176264539697
-0.3466000000000001,-1.5377911829532949
-0.34759999999999996,-1.54486473945262
-0.3486000000000001,-1.5519382959519452
-0.34959999999999997,-1.5590118524512704
-0.3506000000000001,-1.5660854089505953
-0.35159999999999997,-1.5731589654499207
-0.3526000000000001,-1.5816472332491107
-0.35359999999999997,-1.587306078448571
-0.3546000000000001,-1.5957943462477613
-0.35559999999999997,-1.6028679027470865
-0.3566000000000001,-1.6099414592464116
-0.3576,-1.6170150157457368
-0.3586000000000001,-1.6240885722450622
-0.3596,-1.6311621287443874
-0.3606000000000001,-1.6382356852437125
-0.3616,-1.6453092417430377
-0.3626000000000001,-1.6523827982423631
-0.3636,-1.660871066041553
-0.3646000000000001,-1.6679446225408785
-0.3656,-1.6750181790402037
-0.3666000000000001,-1.6820917355395286
-0.3676,-1.6891652920388538
-0.3686000000000001,-1.696238848538179
-0.3696,-1.7033124050375041
-0.3706000000000001,-1.7118006728366943
-0.3716,-1.7188742293360195
-0.3726000000000001,-1.7259477858353447
-0.3736,-1.7330213423346699
-0.3746000000000001,-1.7400948988339953
-0.3756,-1.7457537440334552
-0.3766000000000001,-1.7528273005327806
-0.3776,-1.7599008570321055
-0.3786000000000001,-1.768389124831296
-0.3796,-1.775462681330621
-0.3806000000000001,-1.7825362378299463
-0.3816,-1.7896097943292715
-0.3826000000000001,-1.7966833508285964
-0.3836,-1.8023421960280568
-0.3846000000000001,-1.8094157525273817
-0.3856,-1.8164893090267071
-0.3866000000000001,-1.823562865526032
-0.3876,-1.8306364220253575
-0.3886000000000001,-1.8377099785246829
-0.3896,-1.8447835350240078
-0.3906000000000001,-1.8518570915233332
-0.3916,-1.8589306480226582
-0.3926000000000001,-1.8645894932221183
-0.3936,-1.8716630497214433
-0.3946000000000001,-1.8787366062207687
-0.3956,-1.8858101627200938
-0.3966000000000001,-1.892883719219419
-0.3976,-1.8985425644188794
-0.3986000000000001,-1.9056161209182045
-0.3996,-1.9126896774175295
-0.4006000000000001,-1.9197632339168547
-0.4016,-1.92683679041618
-0.4026000000000001,-1.9324956356156402
-0.4036,-1.9395691921149654
-0.4046000000000001,-1.9466427486142908
-0.4056,-1.9523015938137507
-0.40660000000000013,-1.959375150313076
-0.4076,-1.9650339955125358
-0.40860000000000013,-1.972107552011861
-0.4096,-1.9791811085111866
-0.41060000000000013,-1.9862546650105113
-0.4116,-1.993328221509837
-0.41260000000000013,-2.0004017780091616
-0.4136,-2.0103047571082175
-0.41460000000000014,-2.023037158807002
-0.4156,-2.042843117005113
-0.41660000000000014,-2.049916673504438
-0.4176,-2.051331384804303
-0.41860000000000014,-2.054160807404033
-0.41960000000000003,-2.0555755187038987
-0.42060000000000014,-2.0640637865030884
-0.42160000000000003,-2.0683079204026833
-0.42260000000000014,-2.073966765602144
-0.42360000000000003,-2.072552054302279
-0.42460000000000014,-2.073966765602144
-0.42560000000000003,-2.079625610801604
-0.42660000000000015,-2.085284456001064
-0.42760000000000004,-2.092358012500389
-0.42860000000000015,-2.0980168576998492
-0.42960000000000004,-2.10367570289931
-0.43060000000000015,-2.1093345480987695
-0.43160000000000004,-2.116408104598095
-0.43260000000000015,-2.122066949797555
-0.43360000000000004,-2.127725794997015
-0.43460000000000015,-2.133384640196476
-0.43560000000000004,-2.1404581966958003
-0.43660000000000015,-2.1461170418952604
-0.43760000000000004,-2.151775887094721
-0.43860000000000016,-2.1574347322941807
-0.43960000000000005,-2.1630935774936413
-0.44060000000000016,-2.1687524226931014
-0.44160000000000005,-2.1758259791924264
-0.44260000000000016,-2.181484824391887
-0.44360000000000005,-2.1871436695913467
-0.44460000000000016,-2.194217226090672
-0.44560000000000005,-2.199876071290132
-0.44660000000000016,-2.206949627789457
-0.44760000000000005,-2.2140231842887825
-0.44860000000000017,-2.2210967407881075
