Potential V vs RHE, Current mA cm-2
0.013299999999999867,-0.3947044526623452
0.012299999999999978,-1.2234423321232837
0.011299999999999866,-1.92117794521672
0.010299999999999976,-2.4884771764625997
0.009299999999999864,-2.8803522065252145
0.008299999999999974,-3.2297858975918787
0.007299999999999862,-3.579219588658543
0.006299999999999972,-3.840941179133574
0.00529999999999986,-4.0588067193127895
0.0042999999999999705,-4.23281620919619
0.0032999999999998586,-4.364384360083638
0.0022999999999999687,-4.538393849967037
0.0012999999999998568,-4.668547289554621
0.00029999999999996696,-4.756259390146253
-0.000700000000000145,-4.843971490737885
-0.0017000000000000348,-4.887827541033701
-0.0027000000000001467,-4.9302688800296535
-0.0037000000000000366,-5.017980980621284
-0.0047000000000001485,-5.0618370309171015
-0.005700000000000038,-5.105693081212917
-0.00670000000000015,-5.149549131508733
-0.00770000000000004,-5.191990470504685
-0.008700000000000152,-5.235846520800501
-0.009700000000000042,-5.279702571096316
-0.010700000000000154,-5.367414671687949
-0.011700000000000044,-5.367414671687949
-0.012700000000000156,-5.411270721983764
-0.013700000000000045,-5.411270721983764
-0.014700000000000157,-5.453712060979717
-0.015700000000000047,-5.453712060979717
-0.01670000000000016,-5.453712060979717
-0.01770000000000005,-5.453712060979717
-0.01870000000000016,-5.453712060979717
-0.01970000000000005,-5.453712060979717
-0.020700000000000163,-5.497568111275533
-0.021700000000000053,-5.497568111275533
-0.022700000000000164,-5.5414241615713475
-0.023700000000000054,-5.585280211867165
-0.024700000000000166,-5.585280211867165
-0.025700000000000056,-5.585280211867165
-0.026700000000000168,-5.585280211867165
-0.027700000000000058,-5.629136262162981
-0.02870000000000017,-5.629136262162981
-0.02970000000000006,-5.585280211867165
-0.03070000000000017,-5.585280211867165
-0.03170000000000006,-5.585280211867165
-0.03270000000000017,-5.629136262162981
-0.03370000000000006,-5.629136262162981
-0.034700000000000175,-5.629136262162981
-0.035700000000000065,-5.629136262162981
-0.03670000000000018,-5.672992312458796
-0.03770000000000007,-5.629136262162981
-0.03870000000000018,-5.672992312458796
-0.03970000000000007,-5.672992312458796
-0.04070000000000018,-5.672992312458796
-0.04170000000000007,-5.672992312458796
-0.04270000000000018,-5.629136262162981
-0.04370000000000007,-5.629136262162981
-0.044700000000000184,-5.629136262162981
-0.045700000000000074,-5.629136262162981
-0.046700000000000186,-5.629136262162981
-0.047700000000000076,-5.629136262162981
-0.04870000000000019,-5.629136262162981
-0.04970000000000008,-5.672992312458796
-0.05070000000000019,-5.672992312458796
-0.05170000000000008,-5.672992312458796
-0.05270000000000019,-5.672992312458796
-0.05370000000000008,-5.672992312458796
-0.05470000000000019,-5.672992312458796
-0.05570000000000008,-5.629136262162981
-0.056700000000000195,-5.629136262162981
-0.057700000000000085,-5.629136262162981
-0.058700000000000196,-5.629136262162981
-0.059700000000000086,-5.585280211867165
-0.0607000000000002,-5.629136262162981
-0.06170000000000009,-5.629136262162981
-0.0627000000000002,-5.672992312458796
-0.06370000000000009,-5.672992312458796
-0.0647000000000002,-5.672992312458796
-0.06570000000000009,-5.672992312458796
-0.0667000000000002,-5.672992312458796
-0.0677000000000001,-5.629136262162981
-0.0687000000000002,-5.629136262162981
-0.0697000000000001,-5.629136262162981
-0.07070000000000021,-5.629136262162981
-0.0717000000000001,-5.585280211867165
-0.07270000000000021,-5.629136262162981
-0.0737000000000001,-5.629136262162981
-0.07470000000000021,-5.629136262162981
-0.0757000000000001,-5.629136262162981
-0.07670000000000021,-5.629136262162981
-0.0777000000000001,-5.629136262162981
-0.07870000000000021,-5.672992312458796
-0.0797000000000001,-5.672992312458796
-0.08070000000000022,-5.629136262162981
-0.0817000000000001,-5.629136262162981
-0.08270000000000022,-5.585280211867165
-0.08370000000000011,-5.585280211867165
-0.08470000000000022,-5.585280211867165
-0.08570000000000011,-5.585280211867165
-0.08670000000000022,-5.585280211867165
-0.08770000000000011,-5.629136262162981
-0.08870000000000022,-5.585280211867165
-0.08970000000000011,-5.629136262162981
-0.09070000000000022,-5.629136262162981
-0.09170000000000011,-5.629136262162981
-0.09270000000000023,-5.629136262162981
-0.09370000000000012,-5.629136262162981
-0.09470000000000023,-5.629136262162981
-0.09570000000000012,-5.629136262162981
-0.09670000000000023,-5.629136262162981
-0.09770000000000012,-5.585280211867165
-0.09870000000000023,-5.585280211867165
-0.09970000000000012,-5.585280211867165
-0.10070000000000023,-5.629136262162981
-0.10170000000000012,-5.629136262162981
-0.10270000000000024,-5.629136262162981
-0.10370000000000013,-5.629136262162981
-0.10470000000000024,-5.629136262162981
-0.10570000000000013,-5.672992312458796
-0.10670000000000024,-5.672992312458796
-0.10770000000000013,-5.629136262162981
-0.10870000000000024,-5.672992312458796
-0.10970000000000013,-5.629136262162981
-0.11070000000000024,-5.629136262162981
-0.11170000000000013,-5.629136262162981
-0.11270000000000002,-5.629136262162981
-0.11370000000000013,-5.629136262162981
-0.11470000000000002,-5.629136262162981
-0.11570000000000014,-5.672992312458796
-0.11670000000000003,-5.672992312458796
-0.11770000000000014,-5.672992312458796
-0.11870000000000003,-5.672992312458796
-0.11970000000000014,-5.715433651454749
-0.12070000000000003,-5.672992312458796
-0.12170000000000014,-5.672992312458796
-0.12270000000000003,-5.672992312458796
-0.12370000000000014,-5.672992312458796
-0.12470000000000003,-5.672992312458796
-0.12570000000000014,-5.672992312458796
-0.12670000000000003,-5.672992312458796
-0.12770000000000015,-5.672992312458796
-0.12870000000000004,-5.672992312458796
-0.12970000000000015,-5.715433651454749
-0.13070000000000004,-5.715433651454749
-0.13170000000000015,-5.759289701750564
-0.13270000000000004,-5.759289701750564
-0.13370000000000015,-5.759289701750564
-0.13470000000000004,-5.759289701750564
-0.13570000000000015,-5.715433651454749
-0.13670000000000004,-5.715433651454749
-0.13770000000000016,-5.715433651454749
-0.13870000000000005,-5.759289701750564
-0.13970000000000016,-5.715433651454749
-0.14070000000000005,-5.759289701750564
-0.14170000000000016,-5.759289701750564
-0.14270000000000005,-5.847001802342197
-0.14370000000000016,-5.80314575204638
-0.14470000000000005,-5.847001802342197
-0.14570000000000016,-5.80314575204638
-0.14670000000000005,-5.847001802342197
-0.14770000000000016,-5.847001802342197
-0.14870000000000005,-5.80314575204638
-0.14970000000000017,-5.80314575204638
-0.15070000000000006,-5.847001802342197
-0.15170000000000017,-5.847001802342197
-0.15270000000000006,-5.847001802342197
-0.15370000000000017,-5.890857852638012
-0.15470000000000006,-5.890857852638012
-0.15570000000000017,-5.890857852638012
-0.15670000000000006,-5.890857852638012
-0.15770000000000017,-5.9347139029338285
-0.15870000000000006,-5.9347139029338285
-0.15970000000000018,-5.977155241929781
-0.16070000000000007,-5.9347139029338285
-0.16170000000000018,-5.9347139029338285
-0.16270000000000007,-5.9347139029338285
-0.16370000000000018,-5.9347139029338285
-0.16470000000000007,-5.977155241929781
-0.16570000000000018,-5.977155241929781
-0.16670000000000007,-5.977155241929781
-0.16770000000000018,-5.977155241929781
-0.16870000000000007,-5.977155241929781
-0.16970000000000018,-6.021011292225596
-0.17070000000000007,-6.021011292225596
-0.17170000000000019,-6.021011292225596
-0.17270000000000008,-6.064867342521412
-0.1737000000000002,-6.021011292225596
-0.17470000000000008,-6.064867342521412
-0.1757000000000002,-6.064867342521412
-0.17670000000000008,-6.108723392817228
-0.1777000000000002,-6.064867342521412
-0.17870000000000008,-6.108723392817228
-0.1797000000000002,-6.108723392817228
-0.18070000000000008,-6.152579443113044
-0.1817000000000002,-6.152579443113044
-0.18270000000000008,-6.196435493408861
-0.1837000000000002,-6.196435493408861
-0.1847000000000001,-6.238876832404812
-0.1857000000000002,-6.238876832404812
-0.1867000000000001,-6.238876832404812
-0.1877000000000002,-6.238876832404812
-0.1887000000000001,-6.282732882700628
-0.1897000000000002,-6.238876832404812
-0.1907000000000001,-6.238876832404812
-0.1917000000000001,-6.238876832404812
-0.19269999999999998,-6.282732882700628
-0.1937000000000001,-6.326588932996443
-0.19469999999999998,-6.326588932996443
-0.1957000000000001,-6.37044498329226
-0.19669999999999999,-6.37044498329226
-0.1977000000000001,-6.414301033588076
-0.1987,-6.458157083883892
-0.1997000000000001,-6.458157083883892
-0.2007,-6.458157083883892
-0.2017000000000001,-6.500598422879844
-0.2027,-6.458157083883892
-0.2037000000000001,-6.500598422879844
-0.2047,-6.500598422879844
-0.2057000000000001,-6.54445447317566
-0.2067,-6.54445447317566
-0.2077000000000001,-6.54445447317566
-0.2087,-6.588310523471475
-0.2097000000000001,-6.632166573767292
-0.2107,-6.6760226240631075
-0.2117000000000001,-6.6760226240631075
-0.2127,-6.719878674358924
-0.2137000000000001,-6.762320013354876
-0.2147,-6.762320013354876
-0.2157000000000001,-6.762320013354876
-0.2167,-6.806176063650692
-0.21770000000000012,-6.806176063650692
-0.2187,-6.850032113946507
-0.21970000000000012,-6.850032113946507
-0.2207,-6.850032113946507
-0.22170000000000012,-6.893888164242324
-0.2227,-6.981600264833956
-0.22370000000000012,-6.981600264833956
-0.2247,-7.024041603829907
-0.22570000000000012,-7.024041603829907
-0.2267,-7.067897654125724
-0.22770000000000012,-7.067897654125724
-0.22870000000000001,-7.111753704421539
-0.22970000000000013,-7.111753704421539
-0.23070000000000002,-7.155609754717355
-0.23170000000000013,-7.155609754717355
-0.23270000000000002,-7.155609754717355
-0.23370000000000013,-7.243321855308987
-0.23470000000000002,-7.243321855308987
-0.23570000000000013,-7.28576319430494
-0.23670000000000002,-7.329619244600755
-0.2376999999999999,-7.37347529489657
-0.23870000000000002,-7.4173313451923875
-0.2396999999999999,-7.461187395488204
-0.24070000000000003,-7.461187395488204
-0.24169999999999991,-7.461187395488204
-0.24270000000000003,-7.50504344578402
-0.24369999999999992,-7.5474847847799715
-0.24470000000000003,-7.591340835075788
-0.24569999999999992,-7.591340835075788
-0.24670000000000003,-7.635196885371603
-0.24769999999999992,-7.679052935667419
-0.24870000000000003,-7.722908985963235
-0.24969999999999992,-7.7653503249591855
-0.25070000000000003,-7.809206375255003
-0.2516999999999999,-7.896918475846635
-0.25270000000000004,-7.940774526142452
-0.2536999999999999,-7.940774526142452
-0.25470000000000004,-7.984630576438266
-0.2556999999999999,-8.027071915434218
-0.25670000000000004,-8.070927965730034
-0.25769999999999993,-8.11478401602585
-0.25870000000000004,-8.158640066321666
-0.25969999999999993,-8.158640066321666
-0.26070000000000004,-8.246352166913299
-0.26169999999999993,-8.288793505909249
-0.26270000000000004,-8.376505606500881
-0.26369999999999993,-8.4203616567967
-0.26470000000000005,-8.508073757388331
-0.26569999999999994,-8.55051509638428
-0.26670000000000005,-8.594371146680096
-0.26769999999999994,-8.638227196975913
-0.26870000000000005,-8.725939297567548
-0.26969999999999994,-8.725939297567548
-0.27070000000000005,-8.769795347863363
-0.27169999999999994,-8.812236686859313
-0.27270000000000005,-8.899948787450944
-0.27369999999999994,-8.987660888042578
-0.27470000000000006,-9.031516938338395
-0.27569999999999995,-9.073958277334345
-0.27670000000000006,-9.161670377925978
-0.27769999999999995,-9.24938247851761
-0.27870000000000006,-9.335679867809377
-0.27969999999999995,-9.423391968401008
-0.28070000000000006,-9.467248018696827
-0.28169999999999995,-9.55496011928846
-0.28270000000000006,-9.55496011928846
-0.28369999999999995,-9.59740145828441
-0.28470000000000006,-9.685113558876042
-0.28569999999999995,-9.772825659467674
-0.28670000000000007,-9.81668170976349
-0.28769999999999996,-9.902979099055257
-0.28870000000000007,-9.99069119964689
-0.28969999999999996,-10.120844639234473
-0.29070000000000007,-10.208556739826104
-0.29169999999999996,-10.296268840417738
-0.29270000000000007,-10.382566229709504
-0.29369999999999996,-10.42642228000532
-0.2947000000000001,-10.557990430892769
-0.29569999999999996,-10.601846481188586
-0.2967000000000001,-10.688143870480351
-0.29769999999999996,-10.775855971071984
-0.2987000000000001,-10.863568071663616
-0.29969999999999997,-10.949865460955383
-0.3007000000000001,-11.037577561547016
-0.30169999999999997,-11.1677310011346
-0.3027000000000001,-11.299299152022046
-0.30369999999999997,-11.385596541313816
-0.3047000000000001,-11.473308641905447
-0.30569999999999997,-11.604876792792895
-0.3067000000000001,-11.73503023238048
-0.3077,-11.82274233297211
-0.3087000000000001,-11.909039722263879
-0.3097,-11.952895772559694
-0.3107000000000001,-12.084463923447142
-0.3117,-12.214617363034726
-0.3127000000000001,-12.302329463626359
-0.3137,-12.432482903213943
-0.3147000000000001,-12.56405105410139
-0.3157,-12.694204493688973
-0.3167000000000001,-12.781916594280606
-0.3177,-12.955926084164007
-0.3187000000000001,-13.087494235051453
-0.3197,-13.217647674639037
-0.3207000000000001,-13.30535977523067
-0.3217,-13.436927926118118
-0.3227000000000001,-13.523225315409885
-0.3237,-13.698649516593148
-0.3247000000000001,-13.828802956180734
-0.3257,-13.960371107068182
-0.3267000000000001,-14.090524546655764
-0.3277,-14.26028990263957
-0.3287000000000001,-14.401761032626075
-0.3297,-14.57152638860988
-0.3307000000000001,-14.69885040559773
-0.3317,-14.868615761581536
-0.3327000000000001,-15.01008689156804
-0.3337,-15.137410908555893
-0.3347000000000001,-15.307176264539699
-0.3357,-15.491088733522153
-0.3367000000000001,-15.618412750510005
-0.3377,-15.78817810649381
-0.3387000000000001,-15.91550212348166
-0.3397,-16.099414592464115
-0.3407000000000001,-16.269179948447924
-0.3417,-16.438945304431726
-0.3427000000000001,-16.622857773414182
-0.3437,-16.835064468393938
-0.3447000000000001,-17.018976937376394
-0.3457,-17.188742293360193
-0.3467000000000001,-17.358507649344002
-0.3477,-17.542420118326454
-0.3487000000000001,-17.71218547431026
-0.3497,-17.881950830294063
-0.3507000000000001,-18.06586329927652
-0.3517,-18.23562865526032
-0.3527000000000001,-18.44783535024008
-0.3537,-18.674189158218486
-0.3547000000000001,-18.88639585319824
-0.3557,-19.056161209182044
-0.35670000000000013,-19.28251501716045
-0.3577,-19.537163051136158
-0.35870000000000013,-19.721075520118614
-0.3597,-19.93328221509837
-0.36070000000000013,-20.10304757108217
-0.3617,-20.371842718056527
-0.3626999999999999,-20.499166735044383
-0.3637,-20.76796188201874
-0.3646999999999999,-20.980168576998494
-0.3657,-21.2065223849769
-0.3666999999999999,-21.418729079956652
-0.3677,-21.67337711393236
-0.3686999999999999,-21.899730921910766
-0.36970000000000003,-22.15437895588647
-0.3706999999999999,-22.42317410286083
-0.37170000000000003,-22.63538079784059
-0.3726999999999999,-22.904175944814945
-0.37370000000000003,-23.1163826397947
-0.3746999999999999,-23.385177786769056
-0.37570000000000003,-23.597384481748815
-0.3766999999999999,-23.86617962872317
-0.37770000000000004,-24.120827662698876
-0.3786999999999999,-24.34718147067728
-0.37970000000000004,-24.601829504652986
-0.3806999999999999,-24.870624651627345
-0.38170000000000004,-25.12527268560305
-0.38269999999999993,-25.478950510569312
-0.38370000000000004,-25.73359854454502
-0.38469999999999993,-26.002393691519377
-0.38570000000000004,-26.257041725495082
-0.38669999999999993,-26.568278211465387
-0.38770000000000004,-26.780484906445146
-0.38869999999999993,-27.091721392415455
-0.38970000000000005,-27.303928087395207
-0.39069999999999994,-27.615164573365515
-0.39170000000000005,-27.869812607341224
-0.39269999999999994,-28.18104909331153
-0.39370000000000005,-28.478138466283188
-0.39469999999999994,-28.789374952253496
-0.39570000000000005,-29.100611438223805
-0.39669999999999994,-29.39770081119546
-0.39770000000000005,-29.66649595816982
-0.39869999999999994,-30.00602667013743
-0.39970000000000006,-30.317263156107735
-0.40069999999999995,-30.614352529079397
-0.40170000000000006,-30.88314767605375
-0.40269999999999995,-31.19438416202406
-0.40370000000000006,-31.49147353499572
-0.40469999999999995,-31.84515135996197
-0.40570000000000006,-32.14224073293363
-0.40669999999999995,-32.45347721890394
-0.40770000000000006,-32.807155043870196
-0.40869999999999995,-33.10424441684186
-0.40970000000000006,-33.45792224180811
-0.41069999999999995,-33.81160006677438
-0.41170000000000007,-34.15113077874198
-0.41269999999999996,-34.50480860370825
-0.41370000000000007,-34.8018979766799
-0.41469999999999996,-35.15557580164616
-0.41570000000000007,-35.46681228761647
-0.41669999999999996,-35.848784338580025
-0.41770000000000007,-36.20246216354629
-0.41869999999999996,-36.55613998851254
-0.4197000000000001,-36.8532293614842
-0.42069999999999996,-37.291789864442364
-0.4217000000000001,-37.645467689408626
-0.42269999999999996,-38.04158685337084
-0.4237000000000001,-38.38111756533845
-0.42469999999999997,-38.734795390304704
-0.4257000000000001,-39.130914554266916
-0.42669999999999997,-39.47044526623452
-0.4277000000000001,-39.82412309120078
-0.42869999999999997,-40.26268359415894
-0.4297000000000001,-40.616361419125205
-0.43069999999999997,-40.95589213109281
-0.4317000000000001,-41.352011295055014
-0.4327,-41.74813045901723
-0.4337000000000001,-42.186690961975394
-0.4347,-42.568663012938956
-0.4357000000000001,-42.92234083790521
-0.4367,-43.36090134086337
-0.4377000000000001,-43.75702050482558
-0.4387,-44.181433894785094
-0.4397000000000001,-44.619994397743255
-0.4407,-45.01611356170547
-0.4417000000000001,-45.45467406466363
-0.4427,-45.85079322862584
-0.4437000000000001,-46.27520661858535
-0.4447,-46.67132578254756
-0.4457000000000001,-47.10988628550572
-0.4467,-47.54844678846388
-0.4477000000000001,-47.93041883942744
-0.4487,-48.36897934238561
-0.4497000000000001,-48.80753984534376
-0.4507,-49.28854168729788
-0.4517000000000001,-49.72710219025603
-0.4527,-50.1656626932142
-0.4537000000000001,-50.60422319617236
-0.4547,-51.028636586131874
-0.4557000000000001,-51.46719708909004
-0.4567,-51.948198931044146
-0.4577000000000001,-52.386759434002315
-0.4587,-52.82531993696047
-0.4597000000000001,-53.26388043991864
-0.4607,-53.68829382987814
-0.4617000000000001,-54.16929567183226
-0.4627,-54.69273885278232
-0.4637000000000001,-55.13129935574048
-0.4647,-55.612301197694585
-0.4657000000000001,-56.093303039648696
-0.4667,-56.57430488160282
-0.4677000000000001,-57.05530672355693
-0.4687,-57.53630856551105
-0.4697000000000001,-57.974869068469204
-0.4707,-58.45587091042332
-0.4717000000000001,-58.92272563937878
-0.4727,-59.403727481332886
-0.4737000000000001,-59.92717066228296
-0.4747,-60.40817250423707
-0.4757000000000001,-60.889174346191176
-0.4767,-61.412617527141244
-0.4777000000000001,-61.89361936909536
-0.4787,-62.41706255004542
-0.4797000000000001,-62.94050573099548
-0.4807,-63.37906623395363
-0.48170000000000013,-63.902509414903705
-0.4827,-64.38351125685783
-0.48370000000000013,-64.90695443780788
-0.4847,-65.38795627976201
-0.48570000000000013,-65.91139946071206
-0.4867,-65.68504565273366
-0.48570000000000013,-64.42595259585376
-0.4847,-63.3366248949577
-0.48370000000000013,-62.37462121104946
-0.4827,-61.455058866137186
-0.48170000000000013,-60.59208497321952
-0.4807,-59.757405306299155
-0.4797000000000001,-58.97931409137338
-0.4787,-58.22951710244491
-0.4777000000000001,-57.57874990450699
-0.4767,-56.927982706569075
-0.4757000000000001,-56.26306839563251
-0.4747,-55.527418519702685
-0.4737000000000001,-54.791768643772876
-0.4727,-54.1268543328363
-0.4717000000000001,-53.39120445690648
-0.4707,-52.74043725896857
-0.4697000000000001,-52.033081609036046
-0.4687,-51.38231441109813
-0.4677000000000001,-50.77398855215617
-0.4667,-50.1656626932142
-0.4657000000000001,-49.50074838227763
-0.4647,-48.89242252333566
-0.4637000000000001,-48.24165532539775
-0.4627,-47.633329466455784
-0.4617000000000001,-46.94012092952192
-0.4607,-46.3176479575813
