Potential V vs RHE, Current mA cm-2
0.013299999999999867,-0.014826174422585584
0.012299999999999978,-0.020569902300037635
0.011299999999999866,-0.024884771764625994
0.010299999999999976,-0.02811031352831828
0.009299999999999864,-0.03079826499806185
0.008299999999999974,-0.032722272365878304
0.007299999999999862,-0.03412283655274468
0.006299999999999972,-0.03593366701657193
0.00529999999999986,-0.038522588695324954
0.0042999999999999705,-0.03949873949223183
0.0032999999999998586,-0.04115395171307392
0.0022999999999999687,-0.04232816209196189
0.0012999999999998568,-0.04331846000186742
0.00029999999999996696,-0.045256614482682526
-0.000700000000000145,-0.046331795070579954
-0.0017000000000000348,-0.046982562268517866
-0.0027000000000001467,-0.04780309482243959
-0.0037000000000000366,-0.04896315808832892
-0.0047000000000001485,-0.05012322135421825
-0.005700000000000038,-0.051410608637095435
-0.00670000000000015,-0.05206137583503335
-0.00770000000000004,-0.052768731484965865
-0.008700000000000152,-0.053858059185861944
-0.009700000000000042,-0.05484835709576747
-0.010700000000000154,-0.056446980864614964
-0.011700000000000044,-0.056828952915578525
-0.012700000000000156,-0.05698457115856368
-0.013700000000000045,-0.057946574842471905
-0.014700000000000157,-0.05943202170733019
-0.015700000000000047,-0.05981399375829375
-0.01670000000000016,-0.06036573116524111
-0.01770000000000005,-0.060959909911184426
-0.01870000000000016,-0.0615965299961237
-0.01970000000000005,-0.06308197686098199
-0.020700000000000163,-0.0635629787029361
-0.021700000000000053,-0.0640439805448902
-0.022700000000000164,-0.06449668816084701
-0.023700000000000054,-0.06485036598581327
-0.024700000000000166,-0.06622263594668236
-0.025700000000000056,-0.06697243293561084
-0.026700000000000168,-0.06717049251759194
-0.027700000000000058,-0.06743928766456629
-0.02870000000000017,-0.06852861536546237
-0.02970000000000006,-0.0692642652413922
-0.03070000000000017,-0.07053750541127073
-0.03170000000000006,-0.07101850725322485
-0.03270000000000017,-0.07100436014022618
-0.03370000000000006,-0.07199465805013172
-0.034700000000000175,-0.07342351646299541
-0.035700000000000065,-0.07387622407895222
-0.03670000000000018,-0.07434307880790768
-0.03770000000000007,-0.07417331345192386
-0.03870000000000018,-0.07475334508486854
-0.03970000000000007,-0.07608317370674167
-0.04070000000000018,-0.07714420718164045
-0.04170000000000007,-0.07738470810261751
-0.04270000000000018,-0.0771866485206364
-0.04370000000000007,-0.07853062425550819
-0.044700000000000184,-0.07916724434044746
-0.045700000000000074,-0.07998777689436919
-0.046700000000000186,-0.08039804317133004
-0.047700000000000076,-0.08052536718831789
-0.04870000000000019,-0.08155810643721936
-0.04970000000000008,-0.08277475815510331
-0.05070000000000019,-0.08334064267504931
-0.05170000000000008,-0.08331234844905201
-0.05270000000000019,-0.08423191079396428
-0.05370000000000008,-0.08438752903694943
-0.05470000000000019,-0.08594371146680099
-0.05570000000000008,-0.08672180268172675
-0.056700000000000195,-0.08683497958571595
-0.057700000000000085,-0.08765551213963767
-0.058700000000000196,-0.08789601306061473
-0.059700000000000086,-0.08877313406653106
-0.0607000000000002,-0.09018784536639608
-0.06170000000000009,-0.0903293164963826
-0.0627000000000002,-0.09056981741735964
-0.06370000000000009,-0.09165914511825574
-0.0647000000000002,-0.09269188436715721
-0.06570000000000009,-0.09383780052004788
-0.0667000000000002,-0.0939226831980398
-0.0677000000000001,-0.09419147834501414
-0.0687000000000002,-0.0944885677179858
-0.0697000000000001,-0.09601645592184005
-0.07070000000000021,-0.09683698847576175
-0.0717000000000001,-0.09757263835169158
-0.07270000000000021,-0.09778484504667133
-0.0737000000000001,-0.0985346420355998
-0.07470000000000021,-0.09979373509247969
-0.0757000000000001,-0.10078403300238521
-0.07670000000000021,-0.10140650597432584
-0.0777000000000001,-0.10198653760727049
-0.07870000000000021,-0.10231192120623946
-0.0797000000000001,-0.10375492673210178
-0.08070000000000022,-0.1048866957719938
-0.0817000000000001,-0.10505646112797762
-0.08270000000000022,-0.10550916874393444
-0.08370000000000011,-0.10625896573286289
-0.08470000000000022,-0.10740488188575359
-0.08570000000000011,-0.10855079803864424
-0.08670000000000022,-0.10907424121959435
-0.08770000000000011,-0.10947036038355652
-0.08870000000000022,-0.11092751302241752
-0.08970000000000011,-0.1118187811413325
-0.09070000000000022,-0.11297884440722182
-0.09170000000000011,-0.11394084809113005
-0.09270000000000023,-0.11347399336217459
-0.09370000000000012,-0.11480382198404772
-0.09470000000000023,-0.11645903420488982
-0.09570000000000012,-0.11725127253281424
-0.09670000000000023,-0.11767568592277375
-0.09770000000000012,-0.11785959839175622
-0.09870000000000023,-0.1192601625786226
-0.09970000000000012,-0.11993922400255783
-0.10070000000000023,-0.12121246417243635
-0.10170000000000012,-0.1218773784833729
-0.10270000000000024,-0.12211787940434997
-0.10370000000000013,-0.1232779426702393
-0.10470000000000024,-0.12513121447306247
-0.10570000000000013,-0.1258102758969977
-0.10670000000000024,-0.12637616041694374
-0.10770000000000013,-0.1270410747278803
-0.10870000000000024,-0.1275503707958317
-0.10970000000000013,-0.12863969849672777
-0.11070000000000024,-0.12996952711860094
-0.11170000000000013,-0.13088908946351321
-0.11270000000000002,-0.13152570954845244
-0.11370000000000013,-0.13227550653738093
-0.11470000000000002,-0.13343556980327026
-0.11570000000000014,-0.13473710419914608
-0.11670000000000003,-0.1350483406851164
-0.11770000000000014,-0.13514737047610695
-0.11870000000000003,-0.1369864951659315
-0.11970000000000014,-0.138542677595783
-0.12070000000000003,-0.13919344479372098
-0.12170000000000014,-0.14002812446064133
-0.12270000000000003,-0.14042424362460354
-0.12370000000000014,-0.1410608637095428
-0.12470000000000003,-0.1428858412863687
-0.12570000000000014,-0.14316878354634172
-0.12670000000000003,-0.14415908145624726
-0.12770000000000015,-0.14486643710617977
-0.12870000000000004,-0.14529085049613927
-0.12970000000000015,-0.1467055617960043
-0.13070000000000004,-0.14769585970590982
-0.13170000000000015,-0.14812027309586934
-0.13270000000000004,-0.14925204213576138
-0.13370000000000015,-0.1498179266557074
-0.13470000000000004,-0.1512326379555724
-0.13570000000000015,-0.15222293586547794
-0.13670000000000004,-0.15264734925543746
-0.13770000000000016,-0.15349617603535648
-0.13870000000000005,-0.15462794507524852
-0.13970000000000016,-0.155335300725181
-0.14070000000000005,-0.15660854089505957
-0.14170000000000016,-0.15717442541500556
-0.14270000000000005,-0.15759883880496509
-0.14370000000000016,-0.1584476655848841
-0.14470000000000005,-0.15957943462477614
-0.14570000000000016,-0.16056973253468165
-0.14670000000000005,-0.16141855931460067
-0.14770000000000016,-0.1617015015745737
-0.14870000000000005,-0.1628332706144657
-0.14970000000000017,-0.16424798191433077
-0.15070000000000006,-0.16509680869424978
-0.15170000000000017,-0.1656626932141958
-0.15270000000000006,-0.1656626932141958
-0.15370000000000017,-0.1666529911241013
-0.15470000000000006,-0.16764328903400685
-0.15570000000000017,-0.16849211581392587
-0.15670000000000006,-0.1694824137238314
-0.15770000000000017,-0.1696238848538179
-0.15870000000000006,-0.17061418276372342
-0.15970000000000018,-0.17174595180361546
-0.16070000000000007,-0.173302134233467
-0.16170000000000018,-0.1737265476234265
-0.16270000000000007,-0.17400948988339954
-0.16370000000000018,-0.17514125892329155
-0.16470000000000007,-0.17655597022315658
-0.16570000000000018,-0.1772633258730891
-0.16670000000000007,-0.1771218547431026
-0.16770000000000018,-0.17797068152302162
-0.16870000000000007,-0.1782536237829946
-0.16970000000000018,-0.17966833508285968
-0.17070000000000007,-0.18037569073279217
-0.17170000000000019,-0.18094157525273818
-0.17270000000000008,-0.18094157525273818
-0.1737000000000002,-0.18179040203265723
-0.17470000000000008,-0.18334658446250876
-0.1757000000000002,-0.18348805559249526
-0.17670000000000008,-0.18377099785246825
-0.1777000000000002,-0.1849027668923603
-0.17870000000000008,-0.1851857091523333
-0.1797000000000002,-0.18631747819222533
-0.18070000000000008,-0.18688336271217135
-0.1817000000000002,-0.18744924723211737
-0.18270000000000008,-0.18773218949209036
-0.1837000000000002,-0.18801513175206336
-0.1847000000000001,-0.18942984305192842
-0.1857000000000002,-0.19013719870186094
-0.1867000000000001,-0.19027866983184744
-0.1877000000000002,-0.19070308322180693
-0.1887000000000001,-0.19126896774175295
-0.1897000000000002,-0.19254220791163149
-0.1907000000000001,-0.1933910346915505
-0.1917000000000001,-0.19381544808151
-0.19269999999999998,-0.19381544808151
-0.1937000000000001,-0.19438133260145604
-0.19469999999999998,-0.19508868825138856
-0.1957000000000001,-0.19593751503130757
-0.19669999999999999,-0.19622045729128057
-0.1977000000000001,-0.19593751503130757
-0.1987,-0.19678634181122662
-0.1997000000000001,-0.19805958198110513
-0.2007,-0.19890840876102414
-0.2017000000000001,-0.19933282215098366
-0.2027,-0.19904987989101067
-0.2037000000000001,-0.19947429328097016
-0.2047,-0.20060606232086217
-0.2057000000000001,-0.20046459119087567
-0.2067,-0.2008890045808352
-0.2077000000000001,-0.2007475334508487
-0.2087,-0.20159636023076774
-0.2097000000000001,-0.20272812927065975
-0.2107,-0.20343548492059227
-0.2117000000000001,-0.20315254266061927
-0.2127,-0.20343548492059227
-0.2137000000000001,-0.20315254266061927
-0.2147,-0.20470872509047083
-0.2157000000000001,-0.20584049413036284
-0.2167,-0.20541608074040332
-0.21770000000000012,-0.20513313848043033
-0.2187,-0.20569902300037635
-0.21970000000000012,-0.20640637865030886
-0.2207,-0.20725520543022788
-0.22170000000000012,-0.20683079204026839
-0.2227,-0.20697226317025488
-0.22370000000000012,-0.2076796188201874
-0.2247,-0.2082455033401334
-0.22570000000000012,-0.20852844560010642
-0.2267,-0.2088113878600794
-0.22770000000000012,-0.20838697447011992
-0.22870000000000001,-0.20909433012005244
-0.22970000000000013,-0.20994315689997145
-0.23070000000000002,-0.20994315689997145
-0.23170000000000013,-0.21050904141991747
-0.23270000000000002,-0.21022609915994445
-0.23370000000000013,-0.21008462802995795
-0.23470000000000002,-0.21107492593986346
-0.23570000000000013,-0.21149933932982298
-0.23670000000000002,-0.2116408104598095
-0.2376999999999999,-0.2119237527197825
-0.23870000000000002,-0.21149933932982298
-0.2396999999999999,-0.21333846401964754
-0.24070000000000003,-0.21362140627962053
-0.24169999999999991,-0.21362140627962053
-0.24270000000000003,-0.21390434853959353
-0.24369999999999992,-0.21333846401964754
-0.24470000000000003,-0.21503611757948557
-0.24569999999999992,-0.21447023305953958
-0.24670000000000003,-0.21475317531951257
-0.24769999999999992,-0.21447023305953958
-0.24870000000000003,-0.21475317531951257
-0.24969999999999992,-0.2153190598394586
-0.25070000000000003,-0.21659230000933713
-0.2516999999999999,-0.2161678866193776
-0.25270000000000004,-0.2160264154893911
-0.2536999999999999,-0.21659230000933713
-0.25470000000000004,-0.21659230000933713
-0.2556999999999999,-0.21744112678925615
-0.25670000000000004,-0.21715818452928315
-0.25769999999999993,-0.2167337711393236
-0.25870000000000004,-0.21772406904922914
-0.25969999999999993,-0.21828995356917516
-0.26070000000000004,-0.21857289582914816
-0.26169999999999993,-0.2181484824391887
-0.26270000000000004,-0.21828995356917516
-0.26369999999999993,-0.21871436695913468
-0.26470000000000005,-0.2189973092191077
-0.26569999999999994,-0.2199876071290132
-0.26670000000000005,-0.2204120205189727
-0.26769999999999994,-0.2202705493889862
-0.26870000000000005,-0.22126084729889173
-0.26969999999999994,-0.22196820294882427
-0.27070000000000005,-0.2228170297287433
-0.27169999999999994,-0.22253408746877026
-0.27270000000000005,-0.22196820294882427
-0.27369999999999994,-0.22225114520879727
-0.27470000000000006,-0.22210967407881074
-0.27569999999999995,-0.2229585008587298
-0.27670000000000006,-0.22239261633878374
-0.27769999999999995,-0.22168526068885125
-0.27870000000000006,-0.22225114520879727
-0.27969999999999995,-0.2235243853786758
-0.28070000000000006,-0.2232414431187028
-0.28169999999999995,-0.2229585008587298
-0.28270000000000006,-0.22309997198871628
-0.28369999999999995,-0.22267555859875673
-0.28470000000000006,-0.22366585650866228
-0.28569999999999995,-0.22380732763864883
-0.28670000000000007,-0.22338291424868928
-0.28769999999999996,-0.2232414431187028
-0.28870000000000007,-0.22366585650866228
-0.28969999999999996,-0.2242317410286083
-0.29070000000000007,-0.22493909667854084
-0.29169999999999996,-0.2239487987686353
-0.29270000000000007,-0.22493909667854084
-0.29369999999999996,-0.2242317410286083
-0.2947000000000001,-0.22522203893851384
-0.29569999999999996,-0.22578792345845985
-0.2967000000000001,-0.22522203893851384
-0.29769999999999996,-0.22522203893851384
-0.2987000000000001,-0.22564645232847336
-0.29969999999999997,-0.22649527910839237
-0.3007000000000001,-0.2270611636283384
-0.30169999999999997,-0.22691969249835187
-0.3027000000000001,-0.2267782213683654
-0.30369999999999997,-0.22720263475832486
-0.3047000000000001,-0.2276270481482844
-0.30569999999999997,-0.2276270481482844
-0.3067000000000001,-0.2281929326682304
-0.3077,-0.22720263475832486
-0.3087000000000001,-0.2276270481482844
-0.3097,-0.2293247017081224
-0.3107000000000001,-0.22918323057813594
-0.3117,-0.22890028831816295
-0.3127000000000001,-0.2293247017081224
-0.3137,-0.22904175944814942
-0.3147000000000001,-0.22974911509808196
-0.3157,-0.23031499961802795
-0.3167000000000001,-0.23003205735805496
-0.3177,-0.22989058622806843
-0.3187000000000001,-0.23031499961802795
-0.3197,-0.231729710917893
-0.3207000000000001,-0.23243706656782553
-0.3217,-0.23314442221775805
-0.3227000000000001,-0.23272000882779853
-0.3237,-0.23300295108777153
-0.3247000000000001,-0.23286147995778506
-0.3257,-0.23328589334774452
-0.3267000000000001,-0.23201265317786599
-0.3277,-0.231729710917893
-0.3287000000000001,-0.23201265317786599
-0.3297,-0.232578537697812
-0.3307000000000001,-0.23300295108777153
-0.3317,-0.23286147995778506
-0.3327000000000001,-0.23229559543783898
-0.3337,-0.23300295108777153
-0.3347000000000001,-0.23371030673770407
-0.3357,-0.23399324899767707
-0.3367000000000001,-0.23413472012766354
-0.3377,-0.23371030673770407
-0.3387000000000001,-0.23371030673770407
-0.3397,-0.23512501803756908
-0.3407000000000001,-0.23526648916755558
-0.3417,-0.23498354690758255
-0.3427000000000001,-0.23512501803756908
-0.3437,-0.23498354690758255
-0.3447000000000001,-0.23724708498736666
-0.3457,-0.23724708498736666
-0.3467000000000001,-0.23696414272739363
-0.3477,-0.23738855611735316
-0.3487000000000001,-0.23710561385738013
-0.3497,-0.23781296950731265
-0.3507000000000001,-0.23837885402725867
-0.3517,-0.23753002724733965
-0.3527000000000001,-0.23738855611735316
-0.3537,-0.23837885402725867
-0.3547000000000001,-0.23908620967719119
-0.3557,-0.2392276808071777
-0.35670000000000013,-0.2392276808071777
-0.3577,-0.2386617962872317
-0.35870000000000013,-0.2388032674172182
-0.3597,-0.2399350364571102
-0.36070000000000013,-0.24021797871708325
-0.3617,-0.24050092097705625
-0.3626999999999999,-0.24035944984706975
-0.3637,-0.24050092097705625
-0.3646999999999999,-0.24219857453689428
-0.3657,-0.2420571034069078
-0.3666999999999999,-0.2420571034069078
-0.3677,-0.2420571034069078
-0.3686999999999999,-0.24276445905684027
-0.36970000000000003,-0.24389622809673234
-0.3706999999999999,-0.24474505487665132
-0.37170000000000003,-0.24474505487665132
-0.3726999999999999,-0.24502799713662435
-0.37370000000000003,-0.24545241052658387
-0.3746999999999999,-0.2468671218264489
-0.37570000000000003,-0.2474330063463949
-0.3766999999999999,-0.24799889086634092
-0.37770000000000004,-0.2477159486063679
-0.3786999999999999,-0.24814036199632744
-0.37970000000000004,-0.24955507329619245
-0.3806999999999999,-0.25096978459605745
-0.38170000000000004,-0.252243024765936
-0.38269999999999993,-0.252808909285882
-0.38370000000000004,-0.25365773606580105
-0.38469999999999993,-0.25464803397570657
-0.38570000000000004,-0.25535538962563914
-0.38669999999999993,-0.25535538962563914
-0.38770000000000004,-0.2562042164055581
-0.38869999999999993,-0.25662862979551765
-0.38970000000000005,-0.2588921678753017
-0.39069999999999994,-0.26058982143513976
-0.39170000000000005,-0.2624289461249643
-0.39269999999999994,-0.26299483064491036
-0.39370000000000005,-0.2637021862948429
-0.39469999999999994,-0.2646924842047484
-0.39570000000000005,-0.2651168975947079
-0.39669999999999994,-0.2649754264647214
-0.39770000000000005,-0.2656827821146539
-0.39869999999999994,-0.2661071955046134
-0.39970000000000006,-0.267946320194438
-0.40069999999999995,-0.270209858274222
-0.40170000000000006,-0.27077574279416805
-0.40269999999999995,-0.27148309844410057
-0.40370000000000006,-0.2736051653938981
-0.40469999999999995,-0.27530281895373615
-0.40570000000000006,-0.2772834147735472
-0.40669999999999995,-0.27883959720339874
-0.40770000000000006,-0.27954695285333125
-0.40869999999999995,-0.2811031352831828
-0.40970000000000006,-0.28379108675292636
-0.41069999999999995,-0.28534726918277786
-0.41170000000000007,-0.28647903822266996
-0.41269999999999996,-0.2880352206525215
-0.41370000000000007,-0.29029875873230554
-0.41469999999999996,-0.29355259472199513
-0.41570000000000007,-0.29539171941181963
-0.41669999999999996,-0.29793819975157676
-0.41770000000000007,-0.30034320896134725
-0.41869999999999996,-0.3021823336511718
-0.4197000000000001,-0.30571911190083445
-0.42069999999999996,-0.3079826499806185
-0.4217000000000001,-0.30982177467044303
-0.42269999999999996,-0.3116608993602676
-0.4237000000000001,-0.31477326421997065
-0.42469999999999997,-0.31831004246963324
-0.4257000000000001,-0.3215638784593228
-0.42669999999999997,-0.3239688876690934
-0.4277000000000001,-0.3260909546188909
-0.42869999999999997,-0.3296277328685535
-0.4297000000000001,-0.33373039563816215
-0.43069999999999997,-0.3379745295377573
-0.4317000000000001,-0.34066248100750085
-0.4327,-0.34419925925716344
-0.4337000000000001,-0.347736037506826
-0.4347,-0.3522631136663941
-0.4357000000000001,-0.35579989191605677
-0.4367,-0.3587707856457733
-0.4377000000000001,-0.36273197728539536
-0.4387,-0.36740052457495004
-0.4397000000000001,-0.37291789864442365
-0.4407,-0.3784352727138973
-0.4417000000000001,-0.3818305798335734
-0.4427,-0.38607471373316854
-0.4437000000000001,-0.3910262032826961
-0.4447,-0.39739240413208876
-0.4457000000000001,-0.40404154724145447
-0.4467,-0.40927597905095514
-0.4477000000000001,-0.41422746860048276
-0.4487,-0.41833013137009134
-0.4497000000000001,-0.4242719188295245
-0.4507,-0.42894046611907916
-0.4517000000000001,-0.4329016577587012
-0.4527,-0.4379946184382154
-0.4537000000000001,-0.44322905024771597
-0.4547,-0.4511514335269602
-0.4557000000000001,-0.4570932209863934
-0.4567,-0.462610595055867
-0.4577000000000001,-0.46756208460539456
-0.4587,-0.4733624009348413
-0.4597000000000001,-0.47916271726428794
-0.4607,-0.4848215624637481
-0.4617000000000001,-0.48991452314326217
-0.4627,-0.49557336834272236
-0.4637000000000001,-0.5012322135421824
-0.4647,-0.5080228277815346
-0.4657000000000001,-0.5143890286309274
-0.4667,-0.5200478738303875
-0.4677000000000001,-0.5268384880697398
-0.4687,-0.533346160049119
-0.4697000000000001,-0.5399953031584845
-0.4707,-0.5460785617479043
-0.4717000000000001,-0.5515959358173778
-0.4727,-0.5573962521468245
-0.4737000000000001,-0.5637624529962171
-0.4747,-0.5715433651454748
-0.4757000000000001,-0.578899863904773
-0.4767,-0.5852660647541656
-0.4777000000000001,-0.5916322656035584
-0.4787,-0.6021011292225595
-0.4797000000000001,-0.6127114639715473
-0.4807,-0.6200679627308455
-0.48170000000000013,-0.6251609234103597
-0.4827,-0.6289806439199952
-0.48370000000000013,-0.63364919120955
-0.4847,-0.6397324497989695
-0.48570000000000013,-0.6455327661284163
-0.4867,-0.6506257268079303
-0.4876999999999999,-0.6579822255672285
-0.4887,-0.6657631377164863
-0.4896999999999999,-0.674958761165609
