July 16, 2024   11:30:47
Cyclic Voltammetry
File: c:/users/guazh/data/20240709_batch67/2024-07-10-exp61\exp61-2024-07-16t11_10_12-h2koh\exp61_cv_sr_500mvs_efin_-1900mv.bin
Data Source:  Experiment
Instrument Model:  CHI760E
Header: CV ran at 500 mVs
Note: 

Init E (V) = -1
High E (V) = -1
Low E (V) = -1.9
Final E (V) = -1
Init P/N = N
Scan Rate (V/s) = 0.5
Segment = 3
Sample Interval (V) = 0.001
Quiet Time (sec) = 2
Sensitivity (A/V) = 0.01
Comp R (ohm) = 1.7

Results:

Channel 1:
Segment 1:

Segment 2:
Ep = -1.022V
ip = -6.996e-6A
Ah = -1.027e-6C

Segment 3:

Potential/V, Current/A

-1.000, 3.239e-6
-1.001, 3.239e-6
-1.002, 3.239e-6
-1.003, 3.239e-6
-1.004, 3.239e-6
-1.005, 3.239e-6
-1.006, 3.239e-6
-1.007, 3.239e-6
-1.008, 3.239e-6
-1.009, 3.239e-6
-1.010, 3.239e-6
-1.011, 3.239e-6
-1.012, 3.239e-6
-1.013, 3.239e-6
-1.014, 3.239e-6
-1.015, 6.322e-6
-1.016, 6.322e-6
-1.017, 3.239e-6
-1.018, 6.322e-6
-1.019, 6.322e-6
-1.020, 6.322e-6
-1.021, 6.322e-6
-1.022, 3.239e-6
-1.023, 6.322e-6
-1.024, 6.322e-6
-1.025, 6.322e-6
-1.026, 6.322e-6
-1.027, 6.322e-6
-1.028, 6.322e-6
-1.029, 6.322e-6
-1.030, 6.322e-6
-1.031, 6.322e-6
-1.032, 6.322e-6
-1.033, 6.322e-6
-1.034, 6.322e-6
-1.035, 6.322e-6
-1.036, 6.322e-6
-1.037, 6.322e-6
-1.038, 6.322e-6
-1.039, 6.322e-6
-1.040, 6.322e-6
-1.041, 6.322e-6
-1.042, 6.322e-6
-1.043, 6.322e-6
-1.044, 6.322e-6
-1.045, 6.322e-6
-1.046, 6.322e-6
-1.047, 6.322e-6
-1.048, 6.322e-6
-1.049, 6.322e-6
-1.050, 6.322e-6
-1.051, 6.322e-6
-1.052, 6.322e-6
-1.053, 6.322e-6
-1.054, 6.322e-6
-1.055, 6.322e-6
-1.056, 6.322e-6
-1.057, 6.322e-6
-1.058, 6.322e-6
-1.059, 9.405e-6
-1.060, 9.405e-6
-1.061, 9.405e-6
-1.062, 6.322e-6
-1.063, 9.405e-6
-1.064, 9.405e-6
-1.065, 6.322e-6
-1.066, 9.405e-6
-1.067, 9.405e-6
-1.068, 9.405e-6
-1.069, 9.405e-6
-1.070, 9.405e-6
-1.071, 9.405e-6
-1.072, 9.405e-6
-1.073, 9.405e-6
-1.074, 9.405e-6
-1.075, 9.405e-6
-1.076, 9.405e-6
-1.077, 9.405e-6
-1.078, 9.405e-6
-1.079, 9.405e-6
-1.080, 9.405e-6
-1.081, 9.405e-6
-1.082, 9.405e-6
-1.083, 9.405e-6
-1.084, 9.405e-6
-1.085, 9.405e-6
-1.086, 9.405e-6
-1.087, 9.405e-6
-1.088, 9.405e-6
-1.089, 9.405e-6
-1.090, 9.405e-6
-1.091, 9.405e-6
-1.092, 9.405e-6
-1.093, 9.405e-6
-1.094, 9.405e-6
-1.095, 9.405e-6
-1.096, 9.405e-6
-1.097, 9.405e-6
-1.098, 9.405e-6
-1.099, 9.405e-6
-1.100, 9.405e-6
-1.101, 9.405e-6
-1.102, 9.405e-6
-1.103, 9.405e-6
-1.104, 9.405e-6
-1.105, 9.405e-6
-1.106, 9.405e-6
-1.107, 9.405e-6
-1.108, 9.405e-6
-1.109, 9.405e-6
-1.110, 9.405e-6
-1.111, 9.405e-6
-1.112, 9.405e-6
-1.113, 9.405e-6
-1.114, 9.405e-6
-1.115, 1.249e-5
-1.116, 9.405e-6
-1.117, 9.405e-6
-1.118, 1.249e-5
-1.119, 1.249e-5
-1.120, 1.249e-5
-1.121, 9.405e-6
-1.122, 9.405e-6
-1.123, 1.249e-5
-1.124, 1.249e-5
-1.125, 1.249e-5
-1.126, 1.249e-5
-1.127, 9.405e-6
-1.128, 1.249e-5
-1.129, 1.249e-5
-1.130, 9.405e-6
-1.131, 1.249e-5
-1.132, 1.249e-5
-1.133, 1.249e-5
-1.134, 9.405e-6
-1.135, 1.249e-5
-1.136, 1.249e-5
-1.137, 1.249e-5
-1.138, 1.249e-5
-1.139, 1.249e-5
-1.140, 1.249e-5
-1.141, 1.249e-5
-1.142, 1.249e-5
-1.143, 1.249e-5
-1.144, 1.249e-5
-1.145, 1.249e-5
-1.146, 1.249e-5
-1.147, 1.249e-5
-1.148, 1.249e-5
-1.149, 1.249e-5
-1.150, 1.249e-5
-1.151, 1.249e-5
-1.152, 1.249e-5
-1.153, 1.249e-5
-1.154, 1.249e-5
-1.155, 1.249e-5
-1.156, 1.249e-5
-1.157, 1.249e-5
-1.158, 1.249e-5
-1.159, 1.249e-5
-1.160, 1.249e-5
-1.161, 1.249e-5
-1.162, 1.249e-5
-1.163, 1.249e-5
-1.164, 1.249e-5
-1.165, 1.249e-5
-1.166, 1.249e-5
-1.167, 1.249e-5
-1.168, 1.249e-5
-1.169, 1.249e-5
-1.170, 1.249e-5
-1.171, 1.249e-5
-1.172, 1.249e-5
-1.173, 1.249e-5
-1.174, 1.249e-5
-1.175, 1.249e-5
-1.176, 1.249e-5
-1.177, 1.249e-5
-1.178, 1.249e-5
-1.179, 1.249e-5
-1.180, 1.249e-5
-1.181, 1.249e-5
-1.182, 1.249e-5
-1.183, 1.249e-5
-1.184, 1.557e-5
-1.185, 1.249e-5
-1.186, 1.249e-5
-1.187, 1.249e-5
-1.188, 1.557e-5
-1.189, 1.249e-5
-1.190, 1.249e-5
-1.191, 1.249e-5
-1.192, 1.249e-5
-1.193, 1.557e-5
-1.194, 1.557e-5
-1.195, 1.249e-5
-1.196, 1.557e-5
-1.197, 1.557e-5
-1.198, 1.557e-5
-1.199, 1.249e-5
-1.200, 1.249e-5
-1.201, 1.249e-5
-1.202, 1.249e-5
-1.203, 1.557e-5
-1.204, 1.557e-5
-1.205, 1.557e-5
-1.206, 1.249e-5
-1.207, 1.557e-5
-1.208, 1.249e-5
-1.209, 1.249e-5
-1.210, 1.557e-5
-1.211, 1.557e-5
-1.212, 1.557e-5
-1.213, 1.557e-5
-1.214, 1.557e-5
-1.215, 1.557e-5
-1.216, 1.557e-5
-1.217, 1.557e-5
-1.218, 1.557e-5
-1.219, 1.557e-5
-1.220, 1.557e-5
-1.221, 1.557e-5
-1.222, 1.557e-5
-1.223, 1.557e-5
-1.224, 1.557e-5
-1.225, 1.557e-5
-1.226, 1.557e-5
-1.227, 1.557e-5
-1.228, 1.557e-5
-1.229, 1.557e-5
-1.230, 1.557e-5
-1.231, 1.557e-5
-1.232, 1.557e-5
-1.233, 1.557e-5
-1.234, 1.557e-5
-1.235, 1.557e-5
-1.236, 1.557e-5
-1.237, 1.557e-5
-1.238, 1.557e-5
-1.239, 1.557e-5
-1.240, 1.557e-5
-1.241, 1.557e-5
-1.242, 1.557e-5
-1.243, 1.557e-5
-1.244, 1.557e-5
-1.245, 1.557e-5
-1.246, 1.557e-5
-1.247, 1.557e-5
-1.248, 1.557e-5
-1.249, 1.557e-5
-1.250, 1.557e-5
-1.251, 1.557e-5
-1.252, 1.557e-5
-1.253, 1.557e-5
-1.254, 1.557e-5
-1.255, 1.557e-5
-1.256, 1.557e-5
-1.257, 1.557e-5
-1.258, 1.557e-5
-1.259, 1.557e-5
-1.260, 1.557e-5
-1.261, 1.865e-5
-1.262, 1.557e-5
-1.263, 1.557e-5
-1.264, 1.557e-5
-1.265, 1.557e-5
-1.266, 1.557e-5
-1.267, 1.557e-5
-1.268, 1.557e-5
-1.269, 1.557e-5
-1.270, 1.557e-5
-1.271, 1.557e-5
-1.272, 1.557e-5
-1.273, 1.557e-5
-1.274, 1.557e-5
-1.275, 1.557e-5
-1.276, 1.557e-5
-1.277, 1.557e-5
-1.278, 1.557e-5
-1.279, 1.865e-5
-1.280, 1.557e-5
-1.281, 1.557e-5
-1.282, 1.865e-5
-1.283, 1.557e-5
-1.284, 1.865e-5
-1.285, 1.865e-5
-1.286, 1.557e-5
-1.287, 1.557e-5
-1.288, 1.865e-5
-1.289, 1.865e-5
-1.290, 1.865e-5
-1.291, 1.557e-5
-1.292, 1.557e-5
-1.293, 1.557e-5
-1.294, 1.865e-5
-1.295, 1.557e-5
-1.296, 1.557e-5
-1.297, 1.557e-5
-1.298, 1.865e-5
-1.299, 1.865e-5
-1.300, 1.557e-5
-1.301, 1.865e-5
-1.302, 1.865e-5
-1.303, 1.865e-5
-1.304, 1.865e-5
-1.305, 1.865e-5
-1.306, 1.865e-5
-1.307, 1.865e-5
-1.308, 1.865e-5
-1.309, 1.865e-5
-1.310, 1.557e-5
-1.311, 1.865e-5
-1.312, 1.865e-5
-1.313, 1.865e-5
-1.314, 1.865e-5
-1.315, 1.865e-5
-1.316, 1.865e-5
-1.317, 1.865e-5
-1.318, 1.865e-5
-1.319, 1.865e-5
-1.320, 1.557e-5
-1.321, 1.865e-5
-1.322, 1.865e-5
-1.323, 1.865e-5
-1.324, 1.865e-5
-1.325, 1.865e-5
-1.326, 1.865e-5
-1.327, 1.865e-5
-1.328, 1.865e-5
-1.329, 1.865e-5
-1.330, 1.865e-5
-1.331, 1.865e-5
-1.332, 1.865e-5
-1.333, 1.865e-5
-1.334, 1.865e-5
-1.335, 1.865e-5
-1.336, 1.865e-5
-1.337, 1.865e-5
-1.338, 1.865e-5
-1.339, 1.865e-5
-1.340, 1.865e-5
-1.341, 1.865e-5
-1.342, 1.865e-5
-1.343, 1.865e-5
-1.344, 1.865e-5
-1.345, 1.865e-5
-1.346, 1.865e-5
-1.347, 1.865e-5
-1.348, 1.865e-5
-1.349, 1.865e-5
-1.350, 1.865e-5
-1.351, 1.865e-5
-1.352, 1.865e-5
-1.353, 1.865e-5
-1.354, 1.865e-5
-1.355, 1.865e-5
-1.356, 1.865e-5
-1.357, 1.865e-5
-1.358, 1.865e-5
-1.359, 1.865e-5
-1.360, 1.865e-5
-1.361, 1.865e-5
-1.362, 1.865e-5
-1.363, 1.865e-5
-1.364, 1.865e-5
-1.365, 1.865e-5
-1.366, 1.865e-5
-1.367, 1.865e-5
-1.368, 1.865e-5
-1.369, 1.865e-5
-1.370, 1.865e-5
-1.371, 1.865e-5
-1.372, 1.865e-5
-1.373, 1.865e-5
-1.374, 1.865e-5
-1.375, 1.865e-5
-1.376, 1.865e-5
-1.377, 1.865e-5
-1.378, 1.865e-5
-1.379, 1.865e-5
-1.380, 1.865e-5
-1.381, 1.865e-5
-1.382, 1.865e-5
-1.383, 1.865e-5
-1.384, 1.865e-5
-1.385, 2.174e-5
-1.386, 2.174e-5
-1.387, 1.865e-5
-1.388, 1.865e-5
-1.389, 1.865e-5
-1.390, 2.174e-5
-1.391, 1.865e-5
-1.392, 1.865e-5
-1.393, 1.865e-5
-1.394, 2.174e-5
-1.395, 2.174e-5
-1.396, 1.865e-5
-1.397, 1.865e-5
-1.398, 1.865e-5
-1.399, 2.174e-5
-1.400, 1.865e-5
-1.401, 2.174e-5
-1.402, 1.865e-5
-1.403, 2.174e-5
-1.404, 2.174e-5
-1.405, 2.174e-5
-1.406, 1.865e-5
-1.407, 2.174e-5
-1.408, 2.174e-5
-1.409, 1.865e-5
-1.410, 2.174e-5
-1.411, 2.174e-5
-1.412, 2.174e-5
-1.413, 2.174e-5
-1.414, 2.174e-5
-1.415, 2.174e-5
-1.416, 1.865e-5
-1.417, 2.174e-5
-1.418, 2.174e-5
-1.419, 2.174e-5
-1.420, 2.174e-5
-1.421, 2.174e-5
-1.422, 2.174e-5
-1.423, 2.174e-5
-1.424, 2.174e-5
-1.425, 1.865e-5
-1.426, 2.174e-5
-1.427, 2.174e-5
-1.428, 2.174e-5
-1.429, 2.174e-5
-1.430, 2.174e-5
-1.431, 2.174e-5
-1.432, 2.174e-5
-1.433, 2.174e-5
-1.434, 2.174e-5
-1.435, 2.174e-5
-1.436, 2.174e-5
-1.437, 2.174e-5
-1.438, 2.174e-5
-1.439, 2.174e-5
-1.440, 2.174e-5
-1.441, 2.174e-5
-1.442, 2.174e-5
-1.443, 2.174e-5
-1.444, 2.174e-5
-1.445, 2.174e-5
-1.446, 2.174e-5
-1.447, 2.174e-5
-1.448, 2.174e-5
-1.449, 2.174e-5
-1.450, 2.174e-5
-1.451, 2.174e-5
-1.452, 2.174e-5
-1.453, 2.174e-5
-1.454, 2.174e-5
-1.455, 2.174e-5
-1.456, 2.174e-5
-1.457, 2.174e-5
-1.458, 2.174e-5
-1.459, 2.174e-5
-1.460, 2.174e-5
-1.461, 2.482e-5
-1.462, 2.174e-5
-1.463, 2.174e-5
-1.464, 2.174e-5
-1.465, 2.174e-5
-1.466, 2.174e-5
-1.467, 2.174e-5
-1.468, 2.174e-5
-1.469, 2.174e-5
-1.470, 2.174e-5
-1.471, 2.174e-5
-1.472, 2.174e-5
-1.473, 2.174e-5
-1.474, 2.174e-5
-1.475, 2.174e-5
-1.476, 2.174e-5
-1.477, 2.174e-5
-1.478, 2.482e-5
-1.479, 2.174e-5
-1.480, 2.174e-5
-1.481, 2.482e-5
-1.482, 2.174e-5
-1.483, 2.174e-5
-1.484, 2.482e-5
-1.485, 2.482e-5
-1.486, 2.482e-5
-1.487, 2.482e-5
-1.488, 2.174e-5
-1.489, 2.482e-5
-1.490, 2.174e-5
-1.491, 2.482e-5
-1.492, 2.174e-5
-1.493, 2.482e-5
-1.494, 2.174e-5
-1.495, 2.174e-5
-1.496, 2.482e-5
-1.497, 2.174e-5
-1.498, 2.482e-5
-1.499, 2.174e-5
-1.500, 2.174e-5
-1.501, 2.482e-5
-1.502, 2.482e-5
-1.503, 2.482e-5
-1.504, 2.174e-5
-1.505, 2.482e-5
-1.506, 2.482e-5
-1.507, 2.482e-5
-1.508, 2.174e-5
-1.509, 2.482e-5
-1.510, 2.482e-5
-1.511, 2.482e-5
-1.512, 2.482e-5
-1.513, 2.174e-5
-1.514, 2.482e-5
-1.515, 2.482e-5
-1.516, 2.482e-5
-1.517, 2.482e-5
-1.518, 2.482e-5
-1.519, 2.482e-5
-1.520, 2.482e-5
-1.521, 2.482e-5
-1.522, 2.482e-5
-1.523, 2.482e-5
-1.524, 2.482e-5
-1.525, 2.482e-5
-1.526, 2.482e-5
-1.527, 2.482e-5
-1.528, 2.482e-5
-1.529, 2.482e-5
-1.530, 2.482e-5
-1.531, 2.482e-5
-1.532, 2.482e-5
-1.533, 2.482e-5
-1.534, 2.482e-5
-1.535, 2.482e-5
-1.536, 2.174e-5
-1.537, 2.482e-5
-1.538, 2.482e-5
-1.539, 2.482e-5
-1.540, 2.482e-5
-1.541, 2.482e-5
-1.542, 2.482e-5
-1.543, 2.482e-5
-1.544, 2.482e-5
-1.545, 2.482e-5
-1.546, 2.482e-5
-1.547, 2.482e-5
-1.548, 2.482e-5
-1.549, 2.482e-5
-1.550, 2.482e-5
-1.551, 2.482e-5
-1.552, 2.482e-5
-1.553, 2.482e-5
-1.554, 2.482e-5
-1.555, 2.482e-5
-1.556, 2.482e-5
-1.557, 2.482e-5
-1.558, 2.482e-5
-1.559, 2.482e-5
-1.560, 2.482e-5
-1.561, 2.482e-5
-1.562, 2.482e-5
-1.563, 2.482e-5
-1.564, 2.482e-5
-1.565, 2.482e-5
-1.566, 2.482e-5
-1.567, 2.482e-5
-1.568, 2.482e-5
-1.569, 2.482e-5
-1.570, 2.482e-5
-1.571, 2.482e-5
-1.572, 2.482e-5
-1.573, 2.482e-5
-1.574, 2.482e-5
-1.575, 2.482e-5
-1.576, 2.482e-5
-1.577, 2.482e-5
-1.578, 2.482e-5
-1.579, 2.482e-5
-1.580, 2.482e-5
-1.581, 2.482e-5
-1.582, 2.482e-5
-1.583, 2.482e-5
-1.584, 2.482e-5
-1.585, 2.790e-5
-1.586, 2.790e-5
-1.587, 2.482e-5
-1.588, 2.482e-5
-1.589, 2.482e-5
-1.590, 2.790e-5
-1.591, 2.482e-5
-1.592, 2.482e-5
-1.593, 2.482e-5
-1.594, 2.790e-5
-1.595, 2.482e-5
-1.596, 2.482e-5
-1.597, 2.482e-5
-1.598, 2.482e-5
-1.599, 2.790e-5
-1.600, 2.482e-5
-1.601, 2.482e-5
-1.602, 2.790e-5
-1.603, 2.790e-5
-1.604, 2.790e-5
-1.605, 2.482e-5
-1.606, 2.790e-5
-1.607, 2.790e-5
-1.608, 2.790e-5
-1.609, 2.790e-5
-1.610, 2.482e-5
-1.611, 2.790e-5
-1.612, 2.790e-5
-1.613, 2.790e-5
-1.614, 2.482e-5
-1.615, 2.790e-5
-1.616, 2.790e-5
-1.617, 2.790e-5
-1.618, 2.790e-5
-1.619, 2.790e-5
-1.620, 2.790e-5
-1.621, 2.790e-5
-1.622, 2.790e-5
-1.623, 2.790e-5
-1.624, 2.790e-5
-1.625, 2.790e-5
-1.626, 2.790e-5
-1.627, 2.790e-5
-1.628, 2.790e-5
-1.629, 2.790e-5
-1.630, 2.790e-5
-1.631, 2.790e-5
-1.632, 2.790e-5
-1.633, 2.790e-5
-1.634, 2.790e-5
-1.635, 2.790e-5
-1.636, 2.790e-5
-1.637, 2.790e-5
-1.638, 2.790e-5
-1.639, 2.790e-5
-1.640, 2.790e-5
-1.641, 2.790e-5
-1.642, 2.790e-5
-1.643, 2.790e-5
-1.644, 2.790e-5
-1.645, 2.790e-5
-1.646, 2.790e-5
-1.647, 2.790e-5
-1.648, 2.790e-5
-1.649, 2.790e-5
-1.650, 2.790e-5
-1.651, 2.790e-5
-1.652, 2.790e-5
-1.653, 3.099e-5
-1.654, 2.790e-5
-1.655, 2.790e-5
-1.656, 2.790e-5
-1.657, 2.790e-5
-1.658, 2.790e-5
-1.659, 2.790e-5
-1.660, 2.790e-5
-1.661, 2.790e-5
-1.662, 3.099e-5
-1.663, 2.790e-5
-1.664, 2.790e-5
-1.665, 2.790e-5
-1.666, 2.790e-5
-1.667, 3.099e-5
-1.668, 2.790e-5
-1.669, 3.099e-5
-1.670, 2.790e-5
-1.671, 3.099e-5
-1.672, 3.099e-5
-1.673, 3.099e-5
-1.674, 3.099e-5
-1.675, 3.099e-5
-1.676, 3.099e-5
-1.677, 3.099e-5
-1.678, 3.099e-5
-1.679, 3.099e-5
-1.680, 3.099e-5
-1.681, 3.099e-5
-1.682, 3.099e-5
-1.683, 3.099e-5
-1.684, 3.099e-5
-1.685, 3.099e-5
-1.686, 3.099e-5
-1.687, 3.099e-5
-1.688, 3.099e-5
-1.689, 3.099e-5
-1.690, 3.099e-5
-1.691, 3.099e-5
-1.692, 3.099e-5
-1.693, 3.099e-5
-1.694, 3.099e-5
-1.695, 3.099e-5
-1.696, 3.407e-5
-1.697, 3.099e-5
-1.698, 3.099e-5
-1.699, 3.099e-5
-1.700, 3.099e-5
-1.701, 3.407e-5
-1.702, 3.099e-5
-1.703, 3.407e-5
-1.704, 3.407e-5
-1.705, 3.407e-5
-1.706, 3.407e-5
-1.707, 3.099e-5
-1.708, 3.407e-5
-1.709, 3.099e-5
-1.710, 3.407e-5
-1.711, 3.407e-5
-1.712, 3.407e-5
-1.713, 3.407e-5
-1.714, 3.407e-5
-1.715, 3.407e-5
-1.716, 3.407e-5
-1.717, 3.407e-5
-1.718, 3.407e-5
-1.719, 3.715e-5
-1.720, 3.407e-5
-1.721, 3.407e-5
-1.722, 3.715e-5
-1.723, 3.407e-5
-1.724, 3.715e-5
-1.725, 3.407e-5
-1.726, 3.715e-5
-1.727, 3.715e-5
-1.728, 3.715e-5
-1.729, 3.715e-5
-1.730, 3.715e-5
-1.731, 4.024e-5
-1.732, 3.715e-5
-1.733, 4.024e-5
-1.734, 3.715e-5
-1.735, 3.715e-5
-1.736, 4.024e-5
-1.737, 4.024e-5
-1.738, 4.024e-5
-1.739, 4.024e-5
-1.740, 4.024e-5
-1.741, 4.024e-5
-1.742, 4.024e-5
-1.743, 4.024e-5
-1.744, 4.332e-5
-1.745, 4.332e-5
-1.746, 4.332e-5
-1.747, 4.332e-5
-1.748, 4.332e-5
-1.749, 4.332e-5
-1.750, 4.332e-5
-1.751, 4.640e-5
-1.752, 4.640e-5
-1.753, 4.640e-5
-1.754, 4.640e-5
-1.755, 4.949e-5
-1.756, 4.949e-5
-1.757, 4.949e-5
-1.758, 4.949e-5
-1.759, 4.949e-5
-1.760, 4.949e-5
-1.761, 5.257e-5
-1.762, 5.257e-5
-1.763, 5.257e-5
-1.764, 5.257e-5
-1.765, 5.565e-5
-1.766, 5.565e-5
-1.767, 5.565e-5
-1.768, 5.565e-5
-1.769, 5.873e-5
-1.770, 5.873e-5
-1.771, 5.873e-5
-1.772, 6.182e-5
-1.773, 6.182e-5
-1.774, 6.490e-5
-1.775, 6.490e-5
-1.776, 6.490e-5
-1.777, 6.798e-5
-1.778, 6.798e-5
-1.779, 7.107e-5
-1.780, 7.107e-5
-1.781, 7.107e-5
-1.782, 7.415e-5
-1.783, 7.415e-5
-1.784, 7.723e-5
-1.785, 7.723e-5
-1.786, 8.032e-5
-1.787, 8.340e-5
-1.788, 8.648e-5
-1.789, 8.957e-5
-1.790, 8.957e-5
-1.791, 9.265e-5
-1.792, 9.265e-5
-1.793, 9.882e-5
-1.794, 9.882e-5
-1.795, 1.019e-4
-1.796, 1.050e-4
-1.797, 1.081e-4
-1.798, 1.111e-4
-1.799, 1.142e-4
-1.800, 1.173e-4
-1.801, 1.204e-4
-1.802, 1.266e-4
-1.803, 1.296e-4
-1.804, 1.327e-4
-1.805, 1.358e-4
-1.806, 1.389e-4
-1.807, 1.451e-4
-1.808, 1.481e-4
-1.809, 1.543e-4
-1.810, 1.605e-4
-1.811, 1.666e-4
-1.812, 1.728e-4
-1.813, 1.759e-4
-1.814, 1.821e-4
-1.815, 1.882e-4
-1.816, 1.944e-4
-1.817, 2.006e-4
-1.818, 2.067e-4
-1.819, 2.160e-4
-1.820, 2.252e-4
-1.821, 2.345e-4
-1.822, 2.406e-4
-1.823, 2.499e-4
-1.824, 2.591e-4
-1.825, 2.684e-4
-1.826, 2.776e-4
-1.827, 2.869e-4
-1.828, 2.992e-4
-1.829, 3.085e-4
-1.830, 3.239e-4
-1.831, 3.362e-4
-1.832, 3.485e-4
-1.833, 3.609e-4
-1.834, 3.732e-4
-1.835, 3.886e-4
-1.836, 4.040e-4
-1.837, 4.195e-4
-1.838, 4.380e-4
-1.839, 4.534e-4
-1.840, 4.719e-4
-1.841, 4.873e-4
-1.842, 5.089e-4
-1.843, 5.274e-4
-1.844, 5.489e-4
-1.845, 5.705e-4
-1.846, 5.952e-4
-1.847, 6.168e-4
-1.848, 6.384e-4
-1.849, 6.630e-4
-1.850, 6.877e-4
-1.851, 7.154e-4
-1.852, 7.432e-4
-1.853, 7.740e-4
-1.854, 8.018e-4
-1.855, 8.326e-4
-1.856, 8.634e-4
-1.857, 8.973e-4
-1.858, 9.282e-4
-1.859, 9.621e-4
-1.860, 9.991e-4
-1.861, 1.036e-3
-1.862, 1.073e-3
-1.863, 1.113e-3
-1.864, 1.153e-3
-1.865, 1.193e-3
-1.866, 1.230e-3
-1.867, 1.277e-3
-1.868, 1.320e-3
-1.869, 1.366e-3
-1.870, 1.415e-3
-1.871, 1.465e-3
-1.872, 1.511e-3
-1.873, 1.560e-3
-1.874, 1.610e-3
-1.875, 1.662e-3
-1.876, 1.714e-3
-1.877, 1.770e-3
-1.878, 1.828e-3
-1.879, 1.884e-3
-1.880, 1.943e-3
-1.881, 2.001e-3
-1.882, 2.060e-3
-1.883, 2.118e-3
-1.884, 2.177e-3
-1.885, 2.242e-3
-1.886, 2.306e-3
-1.887, 2.374e-3
-1.888, 2.442e-3
-1.889, 2.507e-3
-1.890, 2.571e-3
-1.891, 2.636e-3
-1.892, 2.704e-3
-1.893, 2.772e-3
-1.894, 2.843e-3
-1.895, 2.917e-3
-1.896, 2.991e-3
-1.897, 3.065e-3
-1.898, 3.136e-3
-1.899, 3.207e-3
-1.900, 3.250e-3
-1.899, 3.237e-3
-1.898, 3.225e-3
-1.897, 3.210e-3
-1.896, 3.188e-3
-1.895, 3.167e-3
-1.894, 3.139e-3
-1.893, 3.111e-3
-1.892, 3.083e-3
-1.891, 3.052e-3
-1.890, 3.025e-3
-1.889, 3.000e-3
-1.888, 2.972e-3
-1.887, 2.941e-3
-1.886, 2.911e-3
-1.885, 2.877e-3
-1.884, 2.840e-3
-1.883, 2.806e-3
-1.882, 2.778e-3
-1.881, 2.744e-3
-1.880, 2.713e-3
-1.879, 2.682e-3
-1.878, 2.649e-3
-1.877, 2.615e-3
-1.876, 2.578e-3
-1.875, 2.541e-3
-1.874, 2.504e-3
-1.873, 2.473e-3
-1.872, 2.439e-3
-1.871, 2.408e-3
-1.870, 2.371e-3
-1.869, 2.337e-3
-1.868, 2.300e-3
-1.867, 2.263e-3
-1.866, 2.229e-3
-1.865, 2.192e-3
-1.864, 2.161e-3
-1.863, 2.131e-3
-1.862, 2.097e-3
-1.861, 2.063e-3
-1.860, 2.029e-3
-1.859, 1.992e-3
-1.858, 1.958e-3
-1.857, 1.927e-3
-1.856, 1.896e-3
-1.855, 1.865e-3
-1.854, 1.835e-3
-1.853, 1.804e-3
-1.852, 1.770e-3
-1.851, 1.739e-3
-1.850, 1.708e-3
-1.849, 1.677e-3
-1.848, 1.647e-3
-1.847, 1.619e-3
-1.846, 1.591e-3
-1.845, 1.560e-3
-1.844, 1.532e-3
-1.843, 1.502e-3
-1.842, 1.471e-3
-1.841, 1.443e-3
-1.840, 1.415e-3
-1.839, 1.391e-3
-1.838, 1.366e-3
-1.837, 1.338e-3
-1.836, 1.314e-3
-1.835, 1.286e-3
-1.834, 1.258e-3
-1.833, 1.230e-3
-1.832, 1.209e-3
-1.831, 1.187e-3
-1.830, 1.162e-3
-1.829, 1.141e-3
-1.828, 1.116e-3
-1.827, 1.092e-3
-1.826, 1.067e-3
-1.825, 1.042e-3
-1.824, 1.021e-3
-1.823, 9.991e-4
-1.822, 9.806e-4
-1.821, 9.590e-4
-1.820, 9.405e-4
-1.819, 9.189e-4
-1.818, 8.973e-4
-1.817, 8.758e-4
-1.816, 8.573e-4
-1.815, 8.388e-4
-1.814, 8.203e-4
-1.813, 8.018e-4
-1.812, 7.863e-4
-1.811, 7.679e-4
-1.810, 7.494e-4
-1.809, 7.278e-4
-1.808, 7.124e-4
-1.807, 6.969e-4
-1.806, 6.815e-4
-1.805, 6.661e-4
-1.804, 6.507e-4
-1.803, 6.353e-4
-1.802, 6.199e-4
-1.801, 6.044e-4
-1.800, 5.890e-4
-1.799, 5.767e-4
-1.798, 5.613e-4
-1.797, 5.489e-4
-1.796, 5.366e-4
-1.795, 5.243e-4
-1.794, 5.089e-4
-1.793, 4.965e-4
-1.792, 4.842e-4
-1.791, 4.719e-4
-1.790, 4.595e-4
-1.789, 4.503e-4
-1.788, 4.380e-4
-1.787, 4.287e-4
-1.786, 4.164e-4
-1.785, 4.071e-4
-1.784, 3.979e-4
-1.783, 3.886e-4
-1.782, 3.763e-4
-1.781, 3.670e-4
-1.780, 3.609e-4
-1.779, 3.516e-4
-1.778, 3.424e-4
-1.777, 3.331e-4
-1.776, 3.239e-4
-1.775, 3.146e-4
-1.774, 3.085e-4
-1.773, 2.992e-4
-1.772, 2.931e-4
-1.771, 2.869e-4
-1.770, 2.776e-4
-1.769, 2.715e-4
-1.768, 2.622e-4
-1.767, 2.561e-4
-1.766, 2.499e-4
-1.765, 2.437e-4
-1.764, 2.376e-4
-1.763, 2.314e-4
-1.762, 2.283e-4
-1.761, 2.221e-4
-1.760, 2.160e-4
-1.759, 2.098e-4
-1.758, 2.036e-4
-1.757, 1.975e-4
-1.756, 1.944e-4
-1.755, 1.913e-4
-1.754, 1.851e-4
-1.753, 1.790e-4
-1.752, 1.759e-4
-1.751, 1.697e-4
-1.750, 1.666e-4
-1.749, 1.605e-4
-1.748, 1.574e-4
-1.747, 1.543e-4
-1.746, 1.512e-4
-1.745, 1.451e-4
-1.744, 1.420e-4
-1.743, 1.389e-4
-1.742, 1.327e-4
-1.741, 1.296e-4
-1.740, 1.266e-4
-1.739, 1.266e-4
-1.738, 1.235e-4
-1.737, 1.204e-4
-1.736, 1.142e-4
-1.735, 1.111e-4
-1.734, 1.111e-4
-1.733, 1.050e-4
-1.732, 1.050e-4
-1.731, 1.019e-4
-1.730, 9.882e-5
-1.729, 9.882e-5
-1.728, 9.265e-5
-1.727, 9.265e-5
-1.726, 8.957e-5
-1.725, 8.648e-5
-1.724, 8.340e-5
-1.723, 8.340e-5
-1.722, 8.032e-5
-1.721, 7.723e-5
-1.720, 7.723e-5
-1.719, 7.415e-5
-1.718, 7.415e-5
-1.717, 7.107e-5
-1.716, 7.107e-5
-1.715, 6.798e-5
-1.714, 6.490e-5
-1.713, 6.490e-5
-1.712, 6.182e-5
-1.711, 6.182e-5
-1.710, 5.873e-5
-1.709, 5.873e-5
-1.708, 5.565e-5
-1.707, 5.565e-5
-1.706, 5.565e-5
-1.705, 5.257e-5
-1.704, 5.257e-5
-1.703, 4.949e-5
-1.702, 4.949e-5
-1.701, 4.640e-5
-1.700, 4.640e-5
-1.699, 4.332e-5
-1.698, 4.332e-5
-1.697, 4.332e-5
-1.696, 4.024e-5
-1.695, 4.024e-5
-1.694, 4.024e-5
-1.693, 4.024e-5
-1.692, 3.715e-5
-1.691, 3.715e-5
-1.690, 3.715e-5
-1.689, 3.407e-5
-1.688, 3.407e-5
-1.687, 3.407e-5
-1.686, 3.407e-5
-1.685, 3.099e-5
-1.684, 3.099e-5
-1.683, 3.099e-5
-1.682, 2.790e-5
-1.681, 3.099e-5
-1.680, 2.790e-5
-1.679, 2.790e-5
-1.678, 2.790e-5
-1.677, 2.482e-5
-1.676, 2.482e-5
-1.675, 2.482e-5
-1.674, 2.482e-5
-1.673, 2.482e-5
-1.672, 2.174e-5
-1.671, 2.174e-5
-1.670, 2.174e-5
-1.669, 2.174e-5
-1.668, 1.865e-5
-1.667, 1.865e-5
-1.666, 1.865e-5
-1.665, 1.865e-5
-1.664, 1.865e-5
-1.663, 1.865e-5
-1.662, 1.865e-5
-1.661, 1.557e-5
-1.660, 1.557e-5
-1.659, 1.557e-5
-1.658, 1.557e-5
-1.657, 1.557e-5
-1.656, 1.557e-5
-1.655, 1.557e-5
-1.654, 1.557e-5
-1.653, 1.557e-5
-1.652, 1.249e-5
-1.651, 1.249e-5
-1.650, 1.249e-5
-1.649, 1.249e-5
-1.648, 1.249e-5
-1.647, 1.249e-5
-1.646, 1.249e-5
-1.645, 1.249e-5
-1.644, 1.249e-5
-1.643, 9.405e-6
-1.642, 9.405e-6
-1.641, 9.405e-6
-1.640, 9.405e-6
-1.639, 9.405e-6
-1.638, 9.405e-6
-1.637, 9.405e-6
-1.636, 9.405e-6
-1.635, 9.405e-6
-1.634, 6.322e-6
-1.633, 9.405e-6
-1.632, 9.405e-6
-1.631, 6.322e-6
-1.630, 6.322e-6
-1.629, 6.322e-6
-1.628, 6.322e-6
-1.627, 6.322e-6
-1.626, 6.322e-6
-1.625, 6.322e-6
-1.624, 6.322e-6
-1.623, 6.322e-6
-1.622, 6.322e-6
-1.621, 6.322e-6
-1.620, 6.322e-6
-1.619, 6.322e-6
-1.618, 6.322e-6
-1.617, 6.322e-6
-1.616, 6.322e-6
-1.615, 6.322e-6
-1.614, 6.322e-6
-1.613, 6.322e-6
-1.612, 3.239e-6
-1.611, 3.239e-6
-1.610, 3.239e-6
-1.609, 6.322e-6
-1.608, 3.239e-6
-1.607, 3.239e-6
-1.606, 3.239e-6
-1.605, 3.239e-6
-1.604, 3.239e-6
-1.603, 3.239e-6
-1.602, 3.239e-6
-1.601, 3.239e-6
-1.600, 3.239e-6
-1.599, 3.239e-6
-1.598, 3.239e-6
-1.597, 3.239e-6
-1.596, 3.239e-6
-1.595, 3.239e-6
-1.594, 3.239e-6
-1.593, 3.239e-6
-1.592, 3.239e-6
-1.591, 3.239e-6
-1.590, 1.559e-7
-1.589, 3.239e-6
-1.588, 1.559e-7
-1.587, 3.239e-6
-1.586, 3.239e-6
-1.585, 3.239e-6
-1.584, 1.559e-7
-1.583, 1.559e-7
-1.582, 3.239e-6
-1.581, 3.239e-6
-1.580, 1.559e-7
-1.579, 1.559e-7
-1.578, 1.559e-7
-1.577, 1.559e-7
-1.576, 1.559e-7
-1.575, 1.559e-7
-1.574, 3.239e-6
-1.573, 1.559e-7
-1.572, 1.559e-7
-1.571, 1.559e-7
-1.570, 1.559e-7
-1.569, 1.559e-7
-1.568, 1.559e-7
-1.567, 1.559e-7
-1.566, 1.559e-7
-1.565, 1.559e-7
-1.564, 1.559e-7
-1.563, 1.559e-7
-1.562, 1.559e-7
-1.561, 1.559e-7
-1.560, 1.559e-7
-1.559, 1.559e-7
-1.558, 1.559e-7
-1.557, 1.559e-7
-1.556, 1.559e-7
-1.555, 1.559e-7
-1.554, 1.559e-7
-1.553, 1.559e-7
-1.552, 1.559e-7
-1.551, 1.559e-7
-1.550, 1.559e-7
-1.549, 1.559e-7
-1.548, 1.559e-7
-1.547, -2.927e-6
-1.546, 1.559e-7
-1.545, 1.559e-7
-1.544, 1.559e-7
-1.543, 1.559e-7
-1.542, 1.559e-7
-1.541, 1.559e-7
-1.540, 1.559e-7
-1.539, 1.559e-7
-1.538, -2.927e-6
-1.537, 1.559e-7
-1.536, 1.559e-7
-1.535, 1.559e-7
-1.534, -2.927e-6
-1.533, 1.559e-7
-1.532, -2.927e-6
-1.531, 1.559e-7
-1.530, 1.559e-7
-1.529, -2.927e-6
-1.528, -2.927e-6
-1.527, -2.927e-6
-1.526, 1.559e-7
-1.525, -2.927e-6
-1.524, -2.927e-6
-1.523, -2.927e-6
-1.522, -2.927e-6
-1.521, -2.927e-6
-1.520, -2.927e-6
-1.519, -2.927e-6
-1.518, -2.927e-6
-1.517, -2.927e-6
-1.516, -2.927e-6
-1.515, -2.927e-6
-1.514, 1.559e-7
-1.513, -2.927e-6
-1.512, -2.927e-6
-1.511, -2.927e-6
-1.510, -2.927e-6
-1.509, -2.927e-6
-1.508, -2.927e-6
-1.507, -2.927e-6
-1.506, -2.927e-6
-1.505, -2.927e-6
-1.504, -2.927e-6
-1.503, -2.927e-6
-1.502, -2.927e-6
-1.501, -2.927e-6
-1.500, -2.927e-6
-1.499, -2.927e-6
-1.498, -2.927e-6
-1.497, -2.927e-6
-1.496, -2.927e-6
-1.495, -2.927e-6
-1.494, -2.927e-6
-1.493, -2.927e-6
-1.492, -2.927e-6
-1.491, -2.927e-6
-1.490, -2.927e-6
-1.489, -2.927e-6
-1.488, -2.927e-6
-1.487, -2.927e-6
-1.486, -2.927e-6
-1.485, -2.927e-6
-1.484, -2.927e-6
-1.483, -2.927e-6
-1.482, -2.927e-6
-1.481, -2.927e-6
-1.480, -2.927e-6
-1.479, -2.927e-6
-1.478, -2.927e-6
-1.477, -2.927e-6
-1.476, -2.927e-6
-1.475, -2.927e-6
-1.474, -2.927e-6
-1.473, -2.927e-6
-1.472, -2.927e-6
-1.471, -2.927e-6
-1.470, -2.927e-6
-1.469, -2.927e-6
-1.468, -2.927e-6
-1.467, -2.927e-6
-1.466, -2.927e-6
-1.465, -2.927e-6
-1.464, -2.927e-6
-1.463, -2.927e-6
-1.462, -2.927e-6
-1.461, -2.927e-6
-1.460, -2.927e-6
-1.459, -2.927e-6
-1.458, -2.927e-6
-1.457, -2.927e-6
-1.456, -2.927e-6
-1.455, -2.927e-6
-1.454, -2.927e-6
-1.453, -2.927e-6
-1.452, -2.927e-6
-1.451, -2.927e-6
-1.450, -2.927e-6
-1.449, -2.927e-6
-1.448, -2.927e-6
-1.447, -2.927e-6
-1.446, -2.927e-6
-1.445, -2.927e-6
-1.444, -2.927e-6
-1.443, -2.927e-6
-1.442, -2.927e-6
-1.441, -2.927e-6
-1.440, -2.927e-6
-1.439, -2.927e-6
-1.438, -2.927e-6
-1.437, -2.927e-6
-1.436, -2.927e-6
-1.435, -2.927e-6
-1.434, -2.927e-6
-1.433, -2.927e-6
-1.432, -2.927e-6
-1.431, -2.927e-6
-1.430, -2.927e-6
-1.429, -2.927e-6
-1.428, -2.927e-6
-1.427, -2.927e-6
-1.426, -2.927e-6
-1.425, -2.927e-6
-1.424, -2.927e-6
-1.423, -2.927e-6
-1.422, -2.927e-6
-1.421, -2.927e-6
-1.420, -2.927e-6
-1.419, -2.927e-6
-1.418, -2.927e-6
-1.417, -2.927e-6
-1.416, -2.927e-6
-1.415, -2.927e-6
-1.414, -2.927e-6
-1.413, -2.927e-6
-1.412, -2.927e-6
-1.411, -2.927e-6
-1.410, -2.927e-6
-1.409, -2.927e-6
-1.408, -2.927e-6
-1.407, -2.927e-6
-1.406, -2.927e-6
-1.405, -2.927e-6
-1.404, -2.927e-6
-1.403, -2.927e-6
-1.402, -2.927e-6
-1.401, -2.927e-6
-1.400, -2.927e-6
-1.399, -2.927e-6
-1.398, -2.927e-6
-1.397, -2.927e-6
-1.396, -2.927e-6
-1.395, -2.927e-6
-1.394, -2.927e-6
-1.393, -2.927e-6
-1.392, -2.927e-6
-1.391, -2.927e-6
-1.390, -2.927e-6
-1.389, -2.927e-6
-1.388, -6.010e-6
-1.387, -2.927e-6
-1.386, -2.927e-6
-1.385, -2.927e-6
-1.384, -2.927e-6
-1.383, -2.927e-6
-1.382, -2.927e-6
-1.381, -2.927e-6
-1.380, -2.927e-6
-1.379, -2.927e-6
-1.378, -2.927e-6
-1.377, -2.927e-6
-1.376, -6.010e-6
-1.375, -2.927e-6
-1.374, -2.927e-6
-1.373, -2.927e-6
-1.372, -2.927e-6
-1.371, -2.927e-6
-1.370, -2.927e-6
-1.369, -2.927e-6
-1.368, -2.927e-6
-1.367, -2.927e-6
-1.366, -2.927e-6
-1.365, -2.927e-6
-1.364, -2.927e-6
-1.363, -2.927e-6
-1.362, -2.927e-6
-1.361, -2.927e-6
-1.360, -6.010e-6
-1.359, -2.927e-6
-1.358, -6.010e-6
-1.357, -2.927e-6
-1.356, -2.927e-6
-1.355, -6.010e-6
-1.354, -2.927e-6
-1.353, -2.927e-6
-1.352, -2.927e-6
-1.351, -2.927e-6
-1.350, -2.927e-6
-1.349, -2.927e-6
-1.348, -2.927e-6
-1.347, -2.927e-6
-1.346, -2.927e-6
-1.345, -2.927e-6
-1.344, -6.010e-6
-1.343, -6.010e-6
-1.342, -2.927e-6
-1.341, -6.010e-6
-1.340, -6.010e-6
-1.339, -2.927e-6
-1.338, -6.010e-6
-1.337, -2.927e-6
-1.336, -6.010e-6
-1.335, -6.010e-6
-1.334, -6.010e-6
-1.333, -2.927e-6
-1.332, -6.010e-6
-1.331, -2.927e-6
-1.330, -6.010e-6
-1.329, -2.927e-6
-1.328, -6.010e-6
-1.327, -2.927e-6
-1.326, -2.927e-6
-1.325, -2.927e-6
-1.324, -2.927e-6
-1.323, -2.927e-6
-1.322, -2.927e-6
-1.321, -6.010e-6
-1.320, -6.010e-6
-1.319, -2.927e-6
-1.318, -6.010e-6
-1.317, -2.927e-6
-1.316, -6.010e-6
-1.315, -2.927e-6
-1.314, -6.010e-6
-1.313, -6.010e-6
-1.312, -6.010e-6
-1.311, -6.010e-6
-1.310, -2.927e-6
-1.309, -6.010e-6
-1.308, -2.927e-6
-1.307, -6.010e-6
-1.306, -2.927e-6
-1.305, -2.927e-6
-1.304, -6.010e-6
-1.303, -6.010e-6
-1.302, -6.010e-6
-1.301, -2.927e-6
-1.300, -6.010e-6
-1.299, -6.010e-6
-1.298, -2.927e-6
-1.297, -2.927e-6
-1.296, -2.927e-6
-1.295, -6.010e-6
-1.294, -6.010e-6
-1.293, -2.927e-6
-1.292, -6.010e-6
-1.291, -6.010e-6
-1.290, -6.010e-6
-1.289, -2.927e-6
-1.288, -6.010e-6
-1.287, -6.010e-6
-1.286, -6.010e-6
-1.285, -6.010e-6
-1.284, -6.010e-6
-1.283, -6.010e-6
-1.282, -6.010e-6
-1.281, -6.010e-6
-1.280, -6.010e-6
-1.279, -6.010e-6
-1.278, -6.010e-6
-1.277, -6.010e-6
-1.276, -6.010e-6
-1.275, -6.010e-6
-1.274, -6.010e-6
-1.273, -6.010e-6
-1.272, -6.010e-6
-1.271, -6.010e-6
-1.270, -6.010e-6
-1.269, -6.010e-6
-1.268, -6.010e-6
-1.267, -6.010e-6
-1.266, -6.010e-6
-1.265, -6.010e-6
-1.264, -6.010e-6
-1.263, -6.010e-6
-1.262, -6.010e-6
-1.261, -6.010e-6
-1.260, -6.010e-6
-1.259, -6.010e-6
-1.258, -6.010e-6
-1.257, -6.010e-6
-1.256, -6.010e-6
-1.255, -6.010e-6
-1.254, -6.010e-6
-1.253, -6.010e-6
-1.252, -6.010e-6
-1.251, -6.010e-6
-1.250, -6.010e-6
-1.249, -6.010e-6
-1.248, -6.010e-6
-1.247, -6.010e-6
-1.246, -6.010e-6
-1.245, -6.010e-6
-1.244, -6.010e-6
-1.243, -6.010e-6
-1.242, -6.010e-6
-1.241, -6.010e-6
-1.240, -6.010e-6
-1.239, -6.010e-6
-1.238, -6.010e-6
-1.237, -6.010e-6
-1.236, -6.010e-6
-1.235, -6.010e-6
-1.234, -6.010e-6
-1.233, -6.010e-6
-1.232, -6.010e-6
-1.231, -6.010e-6
-1.230, -6.010e-6
-1.229, -6.010e-6
-1.228, -6.010e-6
-1.227, -6.010e-6
-1.226, -6.010e-6
-1.225, -6.010e-6
-1.224, -6.010e-6
-1.223, -6.010e-6
-1.222, -6.010e-6
-1.221, -6.010e-6
-1.220, -6.010e-6
-1.219, -6.010e-6
-1.218, -6.010e-6
-1.217, -6.010e-6
-1.216, -6.010e-6
-1.215, -6.010e-6
-1.214, -6.010e-6
-1.213, -6.010e-6
-1.212, -6.010e-6
-1.211, -6.010e-6
-1.210, -6.010e-6
-1.209, -6.010e-6
-1.208, -6.010e-6
-1.207, -6.010e-6
-1.206, -6.010e-6
-1.205, -6.010e-6
-1.204, -6.010e-6
-1.203, -6.010e-6
-1.202, -6.010e-6
-1.201, -6.010e-6
-1.200, -6.010e-6
-1.199, -6.010e-6
-1.198, -6.010e-6
-1.197, -6.010e-6
-1.196, -6.010e-6
-1.195, -6.010e-6
-1.194, -6.010e-6
-1.193, -9.093e-6
-1.192, -6.010e-6
-1.191, -9.093e-6
-1.190, -6.010e-6
-1.189, -6.010e-6
-1.188, -9.093e-6
-1.187, -9.093e-6
-1.186, -9.093e-6
-1.185, -6.010e-6
-1.184, -9.093e-6
-1.183, -6.010e-6
-1.182, -9.093e-6
-1.181, -6.010e-6
-1.180, -9.093e-6
-1.179, -9.093e-6
-1.178, -6.010e-6
-1.177, -9.093e-6
-1.176, -9.093e-6
-1.175, -9.093e-6
-1.174, -9.093e-6
-1.173, -9.093e-6
-1.172, -9.093e-6
-1.171, -9.093e-6
-1.170, -9.093e-6
-1.169, -9.093e-6
-1.168, -9.093e-6
-1.167, -9.093e-6
-1.166, -9.093e-6
-1.165, -9.093e-6
-1.164, -9.093e-6
-1.163, -9.093e-6
-1.162, -9.093e-6
-1.161, -9.093e-6
-1.160, -9.093e-6
-1.159, -9.093e-6
-1.158, -9.093e-6
-1.157, -9.093e-6
-1.156, -9.093e-6
-1.155, -9.093e-6
-1.154, -9.093e-6
-1.153, -9.093e-6
-1.152, -9.093e-6
-1.151, -9.093e-6
-1.150, -9.093e-6
-1.149, -9.093e-6
-1.148, -9.093e-6
-1.147, -9.093e-6
-1.146, -9.093e-6
-1.145, -9.093e-6
-1.144, -9.093e-6
-1.143, -9.093e-6
-1.142, -9.093e-6
-1.141, -9.093e-6
-1.140, -9.093e-6
-1.139, -9.093e-6
-1.138, -9.093e-6
-1.137, -9.093e-6
-1.136, -9.093e-6
-1.135, -9.093e-6
-1.134, -9.093e-6
-1.133, -9.093e-6
-1.132, -9.093e-6
-1.131, -9.093e-6
-1.130, -9.093e-6
-1.129, -9.093e-6
-1.128, -9.093e-6
-1.127, -9.093e-6
-1.126, -9.093e-6
-1.125, -9.093e-6
-1.124, -9.093e-6
-1.123, -9.093e-6
-1.122, -9.093e-6
-1.121, -9.093e-6
-1.120, -9.093e-6
-1.119, -9.093e-6
-1.118, -9.093e-6
-1.117, -9.093e-6
-1.116, -9.093e-6
-1.115, -9.093e-6
-1.114, -9.093e-6
-1.113, -9.093e-6
-1.112, -9.093e-6
-1.111, -9.093e-6
-1.110, -9.093e-6
-1.109, -9.093e-6
-1.108, -9.093e-6
-1.107, -9.093e-6
-1.106, -9.093e-6
-1.105, -9.093e-6
-1.104, -9.093e-6
-1.103, -9.093e-6
-1.102, -9.093e-6
-1.101, -1.218e-5
-1.100, -9.093e-6
-1.099, -9.093e-6
-1.098, -9.093e-6
-1.097, -9.093e-6
-1.096, -1.218e-5
-1.095, -9.093e-6
-1.094, -9.093e-6
-1.093, -9.093e-6
-1.092, -1.218e-5
-1.091, -1.218e-5
-1.090, -1.218e-5
-1.089, -9.093e-6
-1.088, -1.218e-5
-1.087, -1.218e-5
-1.086, -9.093e-6
-1.085, -9.093e-6
-1.084, -1.218e-5
-1.083, -1.218e-5
-1.082, -1.218e-5
-1.081, -9.093e-6
-1.080, -1.218e-5
-1.079, -1.218e-5
-1.078, -1.218e-5
-1.077, -1.218e-5
-1.076, -1.218e-5
-1.075, -1.218e-5
-1.074, -1.218e-5
-1.073, -1.218e-5
-1.072, -1.218e-5
-1.071, -1.218e-5
-1.070, -1.218e-5
-1.069, -1.218e-5
-1.068, -1.218e-5
-1.067, -1.218e-5
-1.066, -1.218e-5
-1.065, -1.218e-5
-1.064, -1.218e-5
-1.063, -1.218e-5
-1.062, -1.218e-5
-1.061, -1.218e-5
-1.060, -1.218e-5
-1.059, -1.218e-5
-1.058, -1.218e-5
-1.057, -1.218e-5
-1.056, -1.218e-5
-1.055, -1.218e-5
-1.054, -1.218e-5
-1.053, -1.218e-5
-1.052, -1.218e-5
-1.051, -1.218e-5
-1.050, -1.218e-5
-1.049, -1.218e-5
-1.048, -1.218e-5
-1.047, -1.218e-5
-1.046, -1.218e-5
-1.045, -1.218e-5
-1.044, -1.218e-5
-1.043, -1.218e-5
-1.042, -1.218e-5
-1.041, -1.218e-5
-1.040, -1.218e-5
-1.039, -1.218e-5
-1.038, -1.218e-5
-1.037, -1.218e-5
-1.036, -1.218e-5
-1.035, -1.218e-5
-1.034, -1.218e-5
-1.033, -1.218e-5
-1.032, -1.218e-5
-1.031, -1.218e-5
-1.030, -1.218e-5
-1.029, -1.218e-5
-1.028, -1.218e-5
-1.027, -1.218e-5
-1.026, -1.218e-5
-1.025, -1.218e-5
-1.024, -1.218e-5
-1.023, -1.218e-5
-1.022, -1.526e-5
-1.021, -1.218e-5
-1.020, -1.526e-5
-1.019, -1.218e-5
-1.018, -1.218e-5
-1.017, -1.526e-5
-1.016, -1.218e-5
-1.015, -1.526e-5
-1.014, -1.218e-5
-1.013, -1.526e-5
-1.012, -1.526e-5
-1.011, -1.526e-5
-1.010, -1.526e-5
-1.009, -1.526e-5
-1.008, -1.526e-5
-1.007, -1.526e-5
-1.006, -1.218e-5
-1.005, -1.526e-5
-1.004, -1.526e-5
-1.003, -1.526e-5
-1.002, -1.526e-5
-1.001, -1.526e-5
