Potential V vs RHE, Current mA cm-2
0.013299999999999867,2.1347993514963406
0.012299999999999978,1.5675001202504606
0.011299999999999866,1.0881959318561862
0.010299999999999976,0.6956135461436386
0.009299999999999864,0.3903188476327636
0.008299999999999974,0.08502414912188871
0.007299999999999862,-0.1766974413531431
0.006299999999999972,-0.3947044526623452
0.00529999999999986,-0.6128529351015338
0.0042999999999999705,-0.8745745255765657
0.0032999999999998586,-1.0490084288499246
0.0022999999999999687,-1.3107300193249565
0.0012999999999998568,-1.4854468648582886
0.00029999999999996696,-1.6594563547416883
-0.000700000000000145,-1.8334658446250875
-0.0017000000000000348,-1.9650339955125358
-0.0027000000000001467,-2.095187435100119
-0.0037000000000000366,-2.226755585987568
-0.0047000000000001485,-2.3569090255751513
-0.005700000000000038,-2.532333226758415
-0.00670000000000015,-2.662486666345999
-0.00770000000000004,-2.794054817233447
-0.008700000000000152,-2.968064307116847
-0.009700000000000042,-3.0996324580042955
-0.010700000000000154,-3.1859298472960624
-0.011700000000000044,-3.273641947887695
-0.012700000000000156,-3.361354048479327
-0.013700000000000045,-3.447651437771094
-0.014700000000000157,-3.5353635383627267
-0.015700000000000047,-3.623075638954359
-0.01670000000000016,-3.7532290785419424
-0.01770000000000005,-3.884797229429391
-0.01870000000000016,-4.014950669016974
-0.01970000000000005,-4.102662769608606
-0.020700000000000163,-4.1889601589003735
-0.021700000000000053,-4.23281620919619
-0.022700000000000164,-4.3205283097878215
-0.023700000000000054,-4.364384360083638
-0.024700000000000166,-4.406825699079589
-0.025700000000000056,-4.538393849967037
-0.026700000000000168,-4.626105950558669
-0.027700000000000058,-4.712403339850438
-0.02870000000000017,-4.843971490737885
-0.02970000000000006,-4.9302688800296535
-0.03070000000000017,-4.974124930325469
-0.03170000000000006,-5.0618370309171015
-0.03270000000000017,-5.149549131508733
-0.03370000000000006,-5.149549131508733
-0.034700000000000175,-5.235846520800501
-0.035700000000000065,-5.279702571096316
-0.03670000000000018,-5.411270721983764
-0.03770000000000007,-5.497568111275533
-0.03870000000000018,-5.585280211867165
-0.03970000000000007,-5.672992312458796
-0.04070000000000018,-5.715433651454749
-0.04170000000000007,-5.759289701750564
-0.04270000000000018,-5.80314575204638
-0.04370000000000007,-5.847001802342197
-0.044700000000000184,-5.890857852638012
-0.045700000000000074,-5.977155241929781
-0.046700000000000186,-6.064867342521412
-0.047700000000000076,-6.152579443113044
-0.04870000000000019,-6.238876832404812
-0.04970000000000008,-6.326588932996443
-0.05070000000000019,-6.37044498329226
-0.05170000000000008,-6.414301033588076
-0.05270000000000019,-6.458157083883892
-0.05370000000000008,-6.500598422879844
-0.05470000000000019,-6.54445447317566
-0.05570000000000008,-6.632166573767292
-0.056700000000000195,-6.719878674358924
-0.057700000000000085,-6.806176063650692
-0.058700000000000196,-6.893888164242324
-0.059700000000000086,-6.93774421453814
-0.0607000000000002,-7.024041603829907
-0.06170000000000009,-7.067897654125724
-0.0627000000000002,-7.111753704421539
-0.06370000000000009,-7.111753704421539
-0.0647000000000002,-7.155609754717355
-0.06570000000000009,-7.243321855308987
-0.0667000000000002,-7.28576319430494
-0.0677000000000001,-7.37347529489657
-0.0687000000000002,-7.461187395488204
-0.0697000000000001,-7.5474847847799715
-0.07070000000000021,-7.635196885371603
-0.0717000000000001,-7.679052935667419
-0.07270000000000021,-7.722908985963235
-0.0737000000000001,-7.722908985963235
-0.07470000000000021,-7.7653503249591855
-0.0757000000000001,-7.853062425550818
-0.07670000000000021,-7.940774526142452
-0.0777000000000001,-8.027071915434218
-0.07870000000000021,-8.11478401602585
-0.0797000000000001,-8.202496116617484
-0.08070000000000022,-8.246352166913299
-0.0817000000000001,-8.288793505909249
-0.08270000000000022,-8.332649556205066
-0.08370000000000011,-8.376505606500881
-0.08470000000000022,-8.4203616567967
-0.08570000000000011,-8.464217707092514
-0.08670000000000022,-8.55051509638428
-0.08770000000000011,-8.638227196975913
-0.08870000000000022,-8.725939297567548
-0.08970000000000011,-8.812236686859313
-0.09070000000000022,-8.85609273715513
-0.09170000000000011,-8.943804837746763
-0.09270000000000023,-8.987660888042578
-0.09370000000000012,-8.987660888042578
-0.09470000000000023,-9.073958277334345
-0.09570000000000012,-9.11781432763016
-0.09670000000000023,-9.205526428221793
-0.09770000000000012,-9.293238528813426
-0.09870000000000023,-9.423391968401008
-0.09970000000000012,-9.467248018696827
-0.10070000000000023,-9.55496011928846
-0.10170000000000012,-9.59740145828441
-0.10270000000000024,-9.641257508580225
-0.10370000000000013,-9.685113558876042
-0.10470000000000024,-9.728969609171857
-0.10570000000000013,-9.81668170976349
-0.10670000000000024,-9.85912304875944
-0.10770000000000013,-9.99069119964689
-0.10870000000000024,-10.078403300238522
-0.10970000000000013,-10.164700689530287
-0.11070000000000024,-10.208556739826104
-0.11170000000000013,-10.25241279012192
-0.11270000000000002,-10.296268840417738
-0.11370000000000013,-10.340124890713554
-0.11470000000000002,-10.382566229709504
-0.11570000000000014,-10.470278330301136
-0.11670000000000003,-10.557990430892769
-0.11770000000000014,-10.644287820184536
-0.11870000000000003,-10.775855971071984
-0.11970000000000014,-10.863568071663616
-0.12070000000000003,-10.949865460955383
-0.12170000000000014,-11.037577561547016
-0.12270000000000003,-11.081433611842833
-0.12370000000000014,-11.123874950838783
-0.12470000000000003,-11.1677310011346
-0.12570000000000014,-11.255443101726232
-0.12670000000000003,-11.343155202317865
-0.12770000000000015,-11.385596541313816
-0.12870000000000004,-11.473308641905447
-0.12970000000000015,-11.56102074249708
-0.13070000000000004,-11.647318131788847
-0.13170000000000015,-11.691174182084664
-0.13270000000000004,-11.73503023238048
-0.13370000000000015,-11.778886282676295
-0.13470000000000004,-11.82274233297211
-0.13570000000000015,-11.909039722263879
-0.13670000000000004,-12.040607873151327
-0.13770000000000016,-12.12831997374296
-0.13870000000000005,-12.214617363034726
-0.13970000000000016,-12.302329463626359
-0.14070000000000005,-12.390041564217992
-0.14170000000000016,-12.432482903213943
-0.14270000000000005,-12.476338953509758
-0.14370000000000016,-12.520195003805576
-0.14470000000000005,-12.607907104397206
-0.14570000000000016,-12.694204493688973
-0.14670000000000005,-12.781916594280606
-0.14770000000000016,-12.869628694872238
-0.14870000000000005,-12.955926084164007
-0.14970000000000017,-13.043638184755638
-0.15070000000000006,-13.087494235051453
-0.15170000000000017,-13.175206335643086
-0.15270000000000006,-13.217647674639037
-0.15370000000000017,-13.261503724934855
-0.15470000000000006,-13.30535977523067
-0.15570000000000017,-13.3930718758223
-0.15670000000000006,-13.523225315409885
-0.15770000000000017,-13.610937416001518
-0.15870000000000006,-13.741090855589102
-0.15970000000000018,-13.828802956180734
-0.16070000000000007,-13.916515056772363
-0.16170000000000018,-14.002812446064135
-0.16270000000000007,-14.046668496359947
-0.16370000000000018,-14.090524546655764
-0.16470000000000007,-14.175407224647667
-0.16570000000000018,-14.217848563643619
-0.16670000000000007,-14.30273124163552
-0.16770000000000018,-14.401761032626075
-0.16870000000000007,-14.486643710617974
-0.16970000000000018,-14.57152638860988
-0.17070000000000007,-14.65640906660178
-0.17170000000000019,-14.69885040559773
-0.17270000000000008,-14.741291744593681
-0.1737000000000002,-14.783733083589633
-0.17470000000000008,-14.868615761581536
-0.1757000000000002,-14.925204213576137
-0.17670000000000008,-15.05252823056399
-0.1777000000000002,-15.137410908555893
-0.17870000000000008,-15.264734925543747
-0.1797000000000002,-15.349617603535648
-0.18070000000000008,-15.448647394526201
-0.1817000000000002,-15.491088733522153
-0.18270000000000008,-15.575971411514052
-0.1837000000000002,-15.618412750510005
-0.1847000000000001,-15.74573676749786
-0.1857000000000002,-15.830619445489761
-0.1867000000000001,-15.91550212348166
-0.1877000000000002,-16.056973253468165
-0.1887000000000001,-16.184297270456018
-0.1897000000000002,-16.269179948447924
-0.1907000000000001,-16.354062626439823
-0.1917000000000001,-16.438945304431726
-0.19269999999999998,-16.495533756426326
-0.1937000000000001,-16.53797509542228
-0.19469999999999998,-16.580416434418233
-0.1957000000000001,-16.665299112410132
-0.19669999999999999,-16.792623129397985
-0.1977000000000001,-16.919947146385837
-0.1987,-17.018976937376394
-0.1997000000000001,-17.103859615368293
-0.2007,-17.188742293360193
-0.2017000000000001,-17.2736249713521
-0.2027,-17.316066310348052
-0.2037000000000001,-17.40094898833995
-0.2047,-17.4433903273359
-0.2057000000000001,-17.542420118326454
-0.2067,-17.669744135314307
-0.2077000000000001,-17.75462681330621
-0.2087,-17.881950830294063
-0.2097000000000001,-17.966833508285966
-0.2107,-18.06586329927652
-0.2117000000000001,-18.15074597726842
-0.2127,-18.23562865526032
-0.2137000000000001,-18.320511333252224
-0.2147,-18.40539401124413
-0.2157000000000001,-18.49027668923603
-0.2167,-18.631747819222536
-0.21770000000000012,-18.716630497214435
-0.2187,-18.843954514202288
-0.21970000000000012,-18.97127853119014
-0.2207,-19.01371987018609
-0.22170000000000012,-19.155191000172596
-0.2227,-19.2400736781645
-0.22370000000000012,-19.3249563561564
-0.2247,-19.409839034148305
-0.22570000000000012,-19.537163051136158
-0.2267,-19.636192842126707
-0.22770000000000012,-19.805958198110513
-0.22870000000000001,-19.93328221509837
-0.22970000000000013,-20.01816489309027
-0.23070000000000002,-20.10304757108217
-0.23170000000000013,-20.202077362072725
-0.23270000000000002,-20.286960040064624
-0.23370000000000013,-20.371842718056527
-0.23470000000000002,-20.456725396048434
-0.23570000000000013,-20.584049413036283
-0.23670000000000002,-20.72552054302279
-0.2376999999999999,-20.85284456001064
-0.23870000000000002,-20.980168576998494
-0.2396999999999999,-21.107492593986347
-0.24070000000000003,-21.248963723972853
-0.24169999999999991,-21.291405062968803
-0.24270000000000003,-21.418729079956652
-0.24369999999999992,-21.503611757948562
-0.24470000000000003,-21.58849443594046
-0.24569999999999992,-21.729965565926964
-0.24670000000000003,-21.899730921910766
-0.24769999999999992,-22.027054938898623
-0.24870000000000003,-22.253408746877028
-0.24969999999999992,-22.38073276386488
-0.25070000000000003,-22.508056780852733
-0.2516999999999999,-22.63538079784059
-0.25270000000000004,-22.776851927827092
-0.2536999999999999,-22.904175944814945
-0.25470000000000004,-23.031499961802798
-0.2556999999999999,-23.15882397879065
-0.25670000000000004,-23.342736447773106
-0.25769999999999993,-23.47006046476096
-0.25870000000000004,-23.639825820744765
-0.25969999999999993,-23.724708498736668
-0.26070000000000004,-23.86617962872317
-0.26169999999999993,-23.993503645711023
-0.26270000000000004,-24.078386323702922
-0.26369999999999993,-24.16326900169483
-0.26470000000000005,-24.24815167968673
-0.26569999999999994,-24.389622809673234
-0.26670000000000005,-24.516946826661083
-0.26769999999999994,-24.686712182644893
-0.26870000000000005,-24.870624651627345
-0.26969999999999994,-24.997948668615198
-0.27070000000000005,-25.167714024599
-0.27169999999999994,-25.252596702590903
-0.27270000000000005,-25.39406783257741
-0.27369999999999994,-25.478950510569312
-0.27470000000000006,-25.648715866553115
-0.27569999999999995,-25.77603988354097
-0.27670000000000006,-25.91751101352747
-0.27769999999999995,-26.087276369511276
-0.27870000000000006,-26.257041725495082
-0.27969999999999995,-26.38436574248293
-0.28070000000000006,-26.568278211465387
-0.28169999999999995,-26.69560222845324
-0.28270000000000006,-26.822926245441096
-0.28369999999999995,-26.9643973754276
-0.28470000000000006,-27.091721392415455
-0.28569999999999995,-27.261486748399253
-0.28670000000000007,-27.38881076538711
-0.28769999999999996,-27.572723234369565
-0.28870000000000007,-27.742488590353368
-0.28969999999999996,-27.912253946337174
-0.29070000000000007,-28.05372507632368
-0.29169999999999996,-28.18104909331153
-0.29270000000000007,-28.265931771303435
-0.29369999999999996,-28.350814449295335
-0.2947000000000001,-28.478138466283188
-0.29569999999999996,-28.619609596269694
-0.2967000000000001,-28.746933613257543
-0.29769999999999996,-28.959140308237306
-0.2987000000000001,-29.14305277721976
-0.29969999999999997,-29.27037679420761
-0.3007000000000001,-29.440142150191413
-0.30169999999999997,-29.62405461917387
-0.3027000000000001,-29.751378636161718
-0.30369999999999997,-29.878702653149578
-0.3047000000000001,-30.00602667013743
-0.30569999999999997,-30.147497800123933
-0.3067000000000001,-30.317263156107735
-0.3077,-30.487028512091538
-0.3087000000000001,-30.614352529079397
-0.3097,-30.79826499806185
-0.3107000000000001,-30.925589015049702
-0.3117,-31.052913032037555
-0.3127000000000001,-31.19438416202406
-0.3137,-31.27926684001596
-0.3147000000000001,-31.449032195999767
-0.3157,-31.57635621298762
-0.3167000000000001,-31.717827342974125
-0.3177,-31.887592698957924
-0.3187000000000001,-32.09979939393769
-0.3197,-32.283711862920136
-0.3207000000000001,-32.45347721890394
-0.3217,-32.58080123589179
-0.3227000000000001,-32.70812525287965
-0.3237,-32.892037721862096
-0.3247000000000001,-33.01936173884996
-0.3257,-33.18912709483376
-0.3267000000000001,-33.373039563816214
-0.3277,-33.58524625879597
-0.3287000000000001,-33.755011614779775
-0.3297,-33.93892408376223
-0.3307000000000001,-34.06624810075008
-0.3317,-34.236013456733886
-0.3327000000000001,-34.377484586720385
-0.3337,-34.462367264712285
-0.3347000000000001,-34.632132620696105
-0.3357,-34.75945663768395
-0.3367000000000001,-34.94336910666641
-0.3377,-35.15557580164616
-0.3387000000000001,-35.32534115762997
-0.3397,-35.46681228761647
-0.3407000000000001,-35.594136304604326
-0.3417,-35.721460321592176
-0.3427000000000001,-35.90537279057463
-0.3437,-36.03269680756248
-0.3447000000000001,-36.16002082455034
-0.3457,-36.329786180534136
-0.3467000000000001,-36.5136986495166
-0.3477,-36.725905344496354
-0.3487000000000001,-36.89567070048016
-0.3497,-37.037141830466666
-0.3507000000000001,-37.164465847454515
-0.3517,-37.291789864442364
-0.3527000000000001,-37.41911388143023
-0.3537,-37.51814367242077
-0.3547000000000001,-37.645467689408626
-0.3557,-37.77279170639648
-0.35670000000000013,-37.90011572338433
-0.3577,-38.08402819236679
-0.35870000000000013,-38.253793548350586
-0.3597,-38.38111756533845
-0.36070000000000013,-38.46600024333035
-0.3617,-38.607471373316855
-0.3626999999999999,-38.692354051308754
-0.3637,-38.777236729300654
-0.3646999999999999,-38.90456074628851
-0.3657,-38.98944342428042
-0.3666999999999999,-39.130914554266916
-0.3677,-39.258238571254765
-0.3686999999999999,-39.38556258824262
-0.36970000000000003,-39.47044526623452
-0.3706999999999999,-39.61191639622103
-0.37170000000000003,-39.654357735216976
-0.3726999999999999,-39.739240413208876
-0.37370000000000003,-39.82412309120078
-0.3746999999999999,-39.86656443019674
-0.37570000000000003,-39.95144710818864
-0.3766999999999999,-40.03632978618054
-0.37770000000000004,-40.135359577171094
-0.3786999999999999,-40.26268359415894
-0.37970000000000004,-40.30512493315489
-0.3806999999999999,-40.3900076111468
-0.38170000000000004,-40.4748902891387
-0.38269999999999993,-40.51733162813464
-0.38370000000000004,-40.559772967130606
-0.38469999999999993,-40.65880275812115
-0.38570000000000004,-40.743685436113054
-0.38669999999999993,-40.828568114104954
-0.38770000000000004,-40.91345079209687
-0.38869999999999993,-40.99833347008877
-0.38970000000000005,-41.04077480908471
-0.39069999999999994,-41.083216148080666
-0.39170000000000005,-41.083216148080666
-0.39269999999999994,-41.139804600075266
-0.39370000000000005,-41.139804600075266
-0.39469999999999994,-41.083216148080666
-0.39570000000000005,-41.139804600075266
-0.39669999999999994,-41.139804600075266
-0.39770000000000005,-41.083216148080666
-0.39869999999999994,-41.139804600075266
-0.39970000000000006,-41.139804600075266
-0.40069999999999995,-41.139804600075266
-0.40170000000000006,-41.083216148080666
-0.40269999999999995,-41.083216148080666
-0.40370000000000006,-41.04077480908471
-0.40469999999999995,-41.04077480908471
-0.40570000000000006,-41.04077480908471
-0.40669999999999995,-41.04077480908471
-0.40770000000000006,-41.04077480908471
-0.40869999999999995,-41.04077480908471
-0.40970000000000006,-40.99833347008877
-0.41069999999999995,-40.95589213109281
-0.41170000000000007,-40.91345079209687
-0.41269999999999996,-40.828568114104954
-0.41370000000000007,-40.78612677510901
-0.41469999999999996,-40.743685436113054
-0.41570000000000007,-40.701244097117105
-0.41669999999999996,-40.65880275812115
-0.41770000000000007,-40.616361419125205
-0.41869999999999996,-40.616361419125205
-0.4197000000000001,-40.51733162813464
-0.42069999999999996,-40.51733162813464
-0.4217000000000001,-40.43244895014274
-0.42269999999999996,-40.34756627215084
-0.4237000000000001,-40.220242255162994
-0.42469999999999997,-40.135359577171094
-0.4257000000000001,-40.03632978618054
-0.42669999999999997,-39.99388844718459
-0.4277000000000001,-39.90900576919269
-0.42869999999999997,-39.86656443019674
-0.4297000000000001,-39.82412309120078
-0.43069999999999997,-39.78168175220483
-0.4317000000000001,-39.696799074212926
-0.4327,-39.56947505722508
-0.4337000000000001,-39.47044526623452
-0.4347,-39.38556258824262
-0.4357000000000001,-39.30067991025072
-0.4367,-39.21579723225882
-0.4377000000000001,-39.173355893262865
-0.4387,-39.130914554266916
-0.4397000000000001,-39.08847321527096
-0.4407,-39.046031876275016
-0.4417000000000001,-38.90456074628851
-0.4427,-38.81967806829661
-0.4437000000000001,-38.734795390304704
-0.4447,-38.6499127123128
-0.4457000000000001,-38.5650300343209
-0.4467,-38.522588695324956
-0.4477000000000001,-38.46600024333035
-0.4487,-38.38111756533845
-0.4497000000000001,-38.29623488734655
-0.4507,-38.253793548350586
-0.4517000000000001,-38.16891087035869
-0.4527,-38.12646953136274
-0.4537000000000001,-38.04158685337084
-0.4547,-37.94255706238028
-0.4557000000000001,-37.90011572338433
-0.4567,-37.85767438438838
-0.4577000000000001,-37.85767438438838
-0.4587,-37.81523304539243
-0.4597000000000001,-37.81523304539243
-0.4607,-37.77279170639648
-0.4617000000000001,-37.77279170639648
-0.4627,-37.73035036740053
-0.4637000000000001,-37.645467689408626
-0.4647,-37.645467689408626
-0.4657000000000001,-37.60302635041268
-0.4667,-37.56058501141672
-0.4677000000000001,-37.60302635041268
-0.4687,-37.645467689408626
-0.4697000000000001,-37.60302635041268
-0.4707,-37.60302635041268
-0.4717000000000001,-37.60302635041268
-0.4727,-37.60302635041268
-0.4737000000000001,-37.56058501141672
-0.4747,-37.56058501141672
-0.4757000000000001,-37.56058501141672
-0.4767,-37.60302635041268
-0.4777000000000001,-37.645467689408626
-0.4787,-37.687909028404576
-0.4797000000000001,-37.73035036740053
-0.4807,-37.77279170639648
-0.48170000000000013,-37.77279170639648
-0.4827,-37.81523304539243
-0.48370000000000013,-37.81523304539243
-0.4847,-37.85767438438838
-0.48570000000000013,-37.90011572338433
-0.4867,-37.99914551437489
-0.4876999999999999,-38.04158685337084
-0.4887,-38.16891087035869
-0.4896999999999999,-38.211352209354644
-0.4907,-38.253793548350586
-0.4916999999999999,-38.29623488734655
-0.4927,-38.33867622634249
-0.4936999999999999,-38.42355890433439
-0.49470000000000003,-38.522588695324956
-0.4956999999999999,-38.5650300343209
-0.49670000000000003,-38.692354051308754
-0.4976999999999999,-38.81967806829661
-0.49870000000000003,-38.94700208528445
-0.4996999999999999,-39.046031876275016
-0.5007,-39.173355893262865
-0.5016999999999999,-39.21579723225882
-0.5027,-39.34312124924667
-0.5036999999999999,-39.42800392723857
-0.5047,-39.56947505722508
-0.5056999999999999,-39.696799074212926
-0.5067,-39.86656443019674
-0.5076999999999999,-40.03632978618054
