Aug. 5, 2024   16:23:44
Cyclic Voltammetry
File: c:/users/guazh/data/20240802_batch_500/2024-08-02-exp27\exp27-2024-08-05t16_03_56-arkoh\exp27_cv_sr_700mvs_efin_-1700mv.bin
Data Source:  Experiment
Instrument Model:  CHI760E
Header: CV ran at 700 mVs
Note: 

Init E (V) = -1
High E (V) = -1
Low E (V) = -1.7
Final E (V) = -1
Init P/N = N
Scan Rate (V/s) = 0.7
Segment = 3
Sample Interval (V) = 0.001
Quiet Time (sec) = 2
Sensitivity (A/V) = 0.01
Comp R (ohm) = 1.9

Results:

Channel 1:
Segment 1:

Segment 2:

Segment 3:

Potential/V, Current/A

-1.000, -1.448e-4
-1.001, -1.047e-4
-1.002, -6.767e-5
-1.003, -3.992e-5
-1.004, -1.218e-5
-1.005, 9.405e-6
-1.006, 3.099e-5
-1.007, 4.949e-5
-1.008, 6.490e-5
-1.009, 8.032e-5
-1.010, 9.573e-5
-1.011, 1.111e-4
-1.012, 1.266e-4
-1.013, 1.389e-4
-1.014, 1.543e-4
-1.015, 1.697e-4
-1.016, 1.821e-4
-1.017, 1.913e-4
-1.018, 2.006e-4
-1.019, 2.098e-4
-1.020, 2.191e-4
-1.021, 2.252e-4
-1.022, 2.345e-4
-1.023, 2.437e-4
-1.024, 2.530e-4
-1.025, 2.653e-4
-1.026, 2.746e-4
-1.027, 2.838e-4
-1.028, 2.931e-4
-1.029, 2.992e-4
-1.030, 3.054e-4
-1.031, 3.115e-4
-1.032, 3.177e-4
-1.033, 3.239e-4
-1.034, 3.300e-4
-1.035, 3.362e-4
-1.036, 3.455e-4
-1.037, 3.547e-4
-1.038, 3.609e-4
-1.039, 3.701e-4
-1.040, 3.763e-4
-1.041, 3.825e-4
-1.042, 3.855e-4
-1.043, 3.917e-4
-1.044, 3.948e-4
-1.045, 4.010e-4
-1.046, 4.040e-4
-1.047, 4.102e-4
-1.048, 4.164e-4
-1.049, 4.256e-4
-1.050, 4.287e-4
-1.051, 4.349e-4
-1.052, 4.410e-4
-1.053, 4.441e-4
-1.054, 4.503e-4
-1.055, 4.534e-4
-1.056, 4.565e-4
-1.057, 4.626e-4
-1.058, 4.657e-4
-1.059, 4.719e-4
-1.060, 4.780e-4
-1.061, 4.873e-4
-1.062, 4.935e-4
-1.063, 4.996e-4
-1.064, 5.027e-4
-1.065, 5.058e-4
-1.066, 5.120e-4
-1.067, 5.150e-4
-1.068, 5.181e-4
-1.069, 5.212e-4
-1.070, 5.274e-4
-1.071, 5.335e-4
-1.072, 5.397e-4
-1.073, 5.459e-4
-1.074, 5.520e-4
-1.075, 5.582e-4
-1.076, 5.613e-4
-1.077, 5.644e-4
-1.078, 5.674e-4
-1.079, 5.705e-4
-1.080, 5.736e-4
-1.081, 5.767e-4
-1.082, 5.829e-4
-1.083, 5.890e-4
-1.084, 5.952e-4
-1.085, 6.014e-4
-1.086, 6.075e-4
-1.087, 6.106e-4
-1.088, 6.168e-4
-1.089, 6.199e-4
-1.090, 6.229e-4
-1.091, 6.260e-4
-1.092, 6.291e-4
-1.093, 6.353e-4
-1.094, 6.414e-4
-1.095, 6.476e-4
-1.096, 6.538e-4
-1.097, 6.599e-4
-1.098, 6.661e-4
-1.099, 6.692e-4
-1.100, 6.723e-4
-1.101, 6.784e-4
-1.102, 6.784e-4
-1.103, 6.846e-4
-1.104, 6.877e-4
-1.105, 6.908e-4
-1.106, 7.000e-4
-1.107, 7.062e-4
-1.108, 7.124e-4
-1.109, 7.185e-4
-1.110, 7.247e-4
-1.111, 7.278e-4
-1.112, 7.309e-4
-1.113, 7.339e-4
-1.114, 7.370e-4
-1.115, 7.401e-4
-1.116, 7.463e-4
-1.117, 7.524e-4
-1.118, 7.586e-4
-1.119, 7.648e-4
-1.120, 7.709e-4
-1.121, 7.771e-4
-1.122, 7.833e-4
-1.123, 7.863e-4
-1.124, 7.925e-4
-1.125, 7.956e-4
-1.126, 7.987e-4
-1.127, 8.048e-4
-1.128, 8.110e-4
-1.129, 8.172e-4
-1.130, 8.233e-4
-1.131, 8.326e-4
-1.132, 8.388e-4
-1.133, 8.449e-4
-1.134, 8.480e-4
-1.135, 8.542e-4
-1.136, 8.573e-4
-1.137, 8.603e-4
-1.138, 8.665e-4
-1.139, 8.696e-4
-1.140, 8.788e-4
-1.141, 8.850e-4
-1.142, 8.912e-4
-1.143, 8.973e-4
-1.144, 9.035e-4
-1.145, 9.097e-4
-1.146, 9.128e-4
-1.147, 9.189e-4
-1.148, 9.220e-4
-1.149, 9.251e-4
-1.150, 9.313e-4
-1.151, 9.343e-4
-1.152, 9.436e-4
-1.153, 9.498e-4
-1.154, 9.559e-4
-1.155, 9.621e-4
-1.156, 9.683e-4
-1.157, 9.744e-4
-1.158, 9.806e-4
-1.159, 9.868e-4
-1.160, 9.898e-4
-1.161, 9.929e-4
-1.162, 9.991e-4
-1.163, 1.005e-3
-1.164, 1.011e-3
-1.165, 1.018e-3
-1.166, 1.027e-3
-1.167, 1.033e-3
-1.168, 1.039e-3
-1.169, 1.045e-3
-1.170, 1.048e-3
-1.171, 1.051e-3
-1.172, 1.058e-3
-1.173, 1.061e-3
-1.174, 1.064e-3
-1.175, 1.070e-3
-1.176, 1.079e-3
-1.177, 1.085e-3
-1.178, 1.092e-3
-1.179, 1.098e-3
-1.180, 1.104e-3
-1.181, 1.107e-3
-1.182, 1.113e-3
-1.183, 1.119e-3
-1.184, 1.122e-3
-1.185, 1.125e-3
-1.186, 1.132e-3
-1.187, 1.138e-3
-1.188, 1.147e-3
-1.189, 1.153e-3
-1.190, 1.162e-3
-1.191, 1.169e-3
-1.192, 1.175e-3
-1.193, 1.181e-3
-1.194, 1.184e-3
-1.195, 1.190e-3
-1.196, 1.193e-3
-1.197, 1.196e-3
-1.198, 1.206e-3
-1.199, 1.212e-3
-1.200, 1.221e-3
-1.201, 1.227e-3
-1.202, 1.233e-3
-1.203, 1.243e-3
-1.204, 1.249e-3
-1.205, 1.255e-3
-1.206, 1.258e-3
-1.207, 1.264e-3
-1.208, 1.267e-3
-1.209, 1.273e-3
-1.210, 1.277e-3
-1.211, 1.286e-3
-1.212, 1.295e-3
-1.213, 1.301e-3
-1.214, 1.307e-3
-1.215, 1.317e-3
-1.216, 1.323e-3
-1.217, 1.326e-3
-1.218, 1.332e-3
-1.219, 1.335e-3
-1.220, 1.344e-3
-1.221, 1.351e-3
-1.222, 1.360e-3
-1.223, 1.369e-3
-1.224, 1.375e-3
-1.225, 1.384e-3
-1.226, 1.394e-3
-1.227, 1.400e-3
-1.228, 1.406e-3
-1.229, 1.415e-3
-1.230, 1.418e-3
-1.231, 1.425e-3
-1.232, 1.434e-3
-1.233, 1.440e-3
-1.234, 1.449e-3
-1.235, 1.455e-3
-1.236, 1.468e-3
-1.237, 1.474e-3
-1.238, 1.483e-3
-1.239, 1.489e-3
-1.240, 1.495e-3
-1.241, 1.505e-3
-1.242, 1.511e-3
-1.243, 1.517e-3
-1.244, 1.523e-3
-1.245, 1.532e-3
-1.246, 1.542e-3
-1.247, 1.551e-3
-1.248, 1.563e-3
-1.249, 1.569e-3
-1.250, 1.579e-3
-1.251, 1.585e-3
-1.252, 1.594e-3
-1.253, 1.600e-3
-1.254, 1.606e-3
-1.255, 1.613e-3
-1.256, 1.622e-3
-1.257, 1.631e-3
-1.258, 1.643e-3
-1.259, 1.653e-3
-1.260, 1.665e-3
-1.261, 1.674e-3
-1.262, 1.684e-3
-1.263, 1.693e-3
-1.264, 1.702e-3
-1.265, 1.708e-3
-1.266, 1.717e-3
-1.267, 1.727e-3
-1.268, 1.736e-3
-1.269, 1.745e-3
-1.270, 1.754e-3
-1.271, 1.764e-3
-1.272, 1.776e-3
-1.273, 1.785e-3
-1.274, 1.795e-3
-1.275, 1.804e-3
-1.276, 1.810e-3
-1.277, 1.819e-3
-1.278, 1.828e-3
-1.279, 1.835e-3
-1.280, 1.847e-3
-1.281, 1.856e-3
-1.282, 1.869e-3
-1.283, 1.881e-3
-1.284, 1.890e-3
-1.285, 1.902e-3
-1.286, 1.909e-3
-1.287, 1.918e-3
-1.288, 1.927e-3
-1.289, 1.936e-3
-1.290, 1.946e-3
-1.291, 1.958e-3
-1.292, 1.967e-3
-1.293, 1.983e-3
-1.294, 1.992e-3
-1.295, 2.004e-3
-1.296, 2.013e-3
-1.297, 2.026e-3
-1.298, 2.035e-3
-1.299, 2.044e-3
-1.300, 2.057e-3
-1.301, 2.063e-3
-1.302, 2.075e-3
-1.303, 2.084e-3
-1.304, 2.097e-3
-1.305, 2.106e-3
-1.306, 2.118e-3
-1.307, 2.131e-3
-1.308, 2.140e-3
-1.309, 2.152e-3
-1.310, 2.161e-3
-1.311, 2.171e-3
-1.312, 2.177e-3
-1.313, 2.189e-3
-1.314, 2.198e-3
-1.315, 2.208e-3
-1.316, 2.220e-3
-1.317, 2.232e-3
-1.318, 2.248e-3
-1.319, 2.257e-3
-1.320, 2.269e-3
-1.321, 2.279e-3
-1.322, 2.288e-3
-1.323, 2.297e-3
-1.324, 2.306e-3
-1.325, 2.316e-3
-1.326, 2.328e-3
-1.327, 2.340e-3
-1.328, 2.353e-3
-1.329, 2.368e-3
-1.330, 2.380e-3
-1.331, 2.393e-3
-1.332, 2.405e-3
-1.333, 2.414e-3
-1.334, 2.427e-3
-1.335, 2.436e-3
-1.336, 2.445e-3
-1.337, 2.454e-3
-1.338, 2.467e-3
-1.339, 2.479e-3
-1.340, 2.491e-3
-1.341, 2.507e-3
-1.342, 2.519e-3
-1.343, 2.531e-3
-1.344, 2.544e-3
-1.345, 2.553e-3
-1.346, 2.562e-3
-1.347, 2.571e-3
-1.348, 2.584e-3
-1.349, 2.596e-3
-1.350, 2.608e-3
-1.351, 2.621e-3
-1.352, 2.633e-3
-1.353, 2.645e-3
-1.354, 2.661e-3
-1.355, 2.673e-3
-1.356, 2.686e-3
-1.357, 2.695e-3
-1.358, 2.701e-3
-1.359, 2.710e-3
-1.360, 2.719e-3
-1.361, 2.732e-3
-1.362, 2.744e-3
-1.363, 2.753e-3
-1.364, 2.766e-3
-1.365, 2.778e-3
-1.366, 2.790e-3
-1.367, 2.803e-3
-1.368, 2.815e-3
-1.369, 2.824e-3
-1.370, 2.834e-3
-1.371, 2.843e-3
-1.372, 2.852e-3
-1.373, 2.864e-3
-1.374, 2.877e-3
-1.375, 2.886e-3
-1.376, 2.898e-3
-1.377, 2.911e-3
-1.378, 2.920e-3
-1.379, 2.932e-3
-1.380, 2.938e-3
-1.381, 2.948e-3
-1.382, 2.954e-3
-1.383, 2.963e-3
-1.384, 2.969e-3
-1.385, 2.982e-3
-1.386, 2.991e-3
-1.387, 3.003e-3
-1.388, 3.012e-3
-1.389, 3.025e-3
-1.390, 3.037e-3
-1.391, 3.046e-3
-1.392, 3.052e-3
-1.393, 3.059e-3
-1.394, 3.065e-3
-1.395, 3.074e-3
-1.396, 3.080e-3
-1.397, 3.086e-3
-1.398, 3.093e-3
-1.399, 3.102e-3
-1.400, 3.108e-3
-1.401, 3.108e-3
-1.402, 3.111e-3
-1.403, 3.114e-3
-1.404, 3.117e-3
-1.405, 3.117e-3
-1.406, 3.117e-3
-1.407, 3.120e-3
-1.408, 3.123e-3
-1.409, 3.133e-3
-1.410, 3.142e-3
-1.411, 3.148e-3
-1.412, 3.157e-3
-1.413, 3.160e-3
-1.414, 3.163e-3
-1.415, 3.163e-3
-1.416, 3.163e-3
-1.417, 3.160e-3
-1.418, 3.157e-3
-1.419, 3.154e-3
-1.420, 3.154e-3
-1.421, 3.154e-3
-1.422, 3.151e-3
-1.423, 3.154e-3
-1.424, 3.154e-3
-1.425, 3.157e-3
-1.426, 3.160e-3
-1.427, 3.163e-3
-1.428, 3.167e-3
-1.429, 3.167e-3
-1.430, 3.170e-3
-1.431, 3.173e-3
-1.432, 3.173e-3
-1.433, 3.179e-3
-1.434, 3.182e-3
-1.435, 3.182e-3
-1.436, 3.185e-3
-1.437, 3.182e-3
-1.438, 3.179e-3
-1.439, 3.179e-3
-1.440, 3.179e-3
-1.441, 3.176e-3
-1.442, 3.173e-3
-1.443, 3.170e-3
-1.444, 3.167e-3
-1.445, 3.167e-3
-1.446, 3.167e-3
-1.447, 3.163e-3
-1.448, 3.157e-3
-1.449, 3.148e-3
-1.450, 3.142e-3
-1.451, 3.136e-3
-1.452, 3.133e-3
-1.453, 3.126e-3
-1.454, 3.120e-3
-1.455, 3.117e-3
-1.456, 3.114e-3
-1.457, 3.114e-3
-1.458, 3.111e-3
-1.459, 3.108e-3
-1.460, 3.105e-3
-1.461, 3.099e-3
-1.462, 3.093e-3
-1.463, 3.089e-3
-1.464, 3.083e-3
-1.465, 3.080e-3
-1.466, 3.074e-3
-1.467, 3.071e-3
-1.468, 3.068e-3
-1.469, 3.065e-3
-1.470, 3.062e-3
-1.471, 3.059e-3
-1.472, 3.052e-3
-1.473, 3.046e-3
-1.474, 3.040e-3
-1.475, 3.034e-3
-1.476, 3.025e-3
-1.477, 3.022e-3
-1.478, 3.015e-3
-1.479, 3.009e-3
-1.480, 3.003e-3
-1.481, 3.000e-3
-1.482, 3.000e-3
-1.483, 2.994e-3
-1.484, 2.991e-3
-1.485, 2.988e-3
-1.486, 2.982e-3
-1.487, 2.978e-3
-1.488, 2.975e-3
-1.489, 2.975e-3
-1.490, 2.972e-3
-1.491, 2.975e-3
-1.492, 2.975e-3
-1.493, 2.978e-3
-1.494, 2.975e-3
-1.495, 2.975e-3
-1.496, 2.975e-3
-1.497, 2.972e-3
-1.498, 2.972e-3
-1.499, 2.972e-3
-1.500, 2.972e-3
-1.501, 2.969e-3
-1.502, 2.972e-3
-1.503, 2.978e-3
-1.504, 2.982e-3
-1.505, 2.988e-3
-1.506, 2.991e-3
-1.507, 2.994e-3
-1.508, 2.997e-3
-1.509, 3.000e-3
-1.510, 3.003e-3
-1.511, 3.009e-3
-1.512, 3.015e-3
-1.513, 3.019e-3
-1.514, 3.025e-3
-1.515, 3.031e-3
-1.516, 3.040e-3
-1.517, 3.049e-3
-1.518, 3.056e-3
-1.519, 3.062e-3
-1.520, 3.068e-3
-1.521, 3.074e-3
-1.522, 3.080e-3
-1.523, 3.086e-3
-1.524, 3.093e-3
-1.525, 3.102e-3
-1.526, 3.111e-3
-1.527, 3.123e-3
-1.528, 3.133e-3
-1.529, 3.145e-3
-1.530, 3.154e-3
-1.531, 3.163e-3
-1.532, 3.176e-3
-1.533, 3.185e-3
-1.534, 3.194e-3
-1.535, 3.204e-3
-1.536, 3.216e-3
-1.537, 3.228e-3
-1.538, 3.241e-3
-1.539, 3.256e-3
-1.540, 3.271e-3
-1.541, 3.284e-3
-1.542, 3.299e-3
-1.543, 3.311e-3
-1.544, 3.324e-3
-1.545, 3.339e-3
-1.546, 3.351e-3
-1.547, 3.367e-3
-1.548, 3.379e-3
-1.549, 3.395e-3
-1.550, 3.410e-3
-1.551, 3.429e-3
-1.552, 3.444e-3
-1.553, 3.459e-3
-1.554, 3.478e-3
-1.555, 3.493e-3
-1.556, 3.512e-3
-1.557, 3.527e-3
-1.558, 3.540e-3
-1.559, 3.558e-3
-1.560, 3.573e-3
-1.561, 3.595e-3
-1.562, 3.617e-3
-1.563, 3.635e-3
-1.564, 3.657e-3
-1.565, 3.675e-3
-1.566, 3.694e-3
-1.567, 3.712e-3
-1.568, 3.731e-3
-1.569, 3.749e-3
-1.570, 3.768e-3
-1.571, 3.789e-3
-1.572, 3.808e-3
-1.573, 3.832e-3
-1.574, 3.857e-3
-1.575, 3.882e-3
-1.576, 3.903e-3
-1.577, 3.928e-3
-1.578, 3.950e-3
-1.579, 3.968e-3
-1.580, 3.990e-3
-1.581, 4.008e-3
-1.582, 4.033e-3
-1.583, 4.051e-3
-1.584, 4.076e-3
-1.585, 4.098e-3
-1.586, 4.122e-3
-1.587, 4.144e-3
-1.588, 4.165e-3
-1.589, 4.184e-3
-1.590, 4.206e-3
-1.591, 4.227e-3
-1.592, 4.249e-3
-1.593, 4.270e-3
-1.594, 4.292e-3
-1.595, 4.317e-3
-1.596, 4.341e-3
-1.597, 4.363e-3
-1.598, 4.387e-3
-1.599, 4.415e-3
-1.600, 4.446e-3
-1.601, 4.474e-3
-1.602, 4.501e-3
-1.603, 4.526e-3
-1.604, 4.548e-3
-1.605, 4.572e-3
-1.606, 4.594e-3
-1.607, 4.616e-3
-1.608, 4.640e-3
-1.609, 4.665e-3
-1.610, 4.690e-3
-1.611, 4.711e-3
-1.612, 4.733e-3
-1.613, 4.754e-3
-1.614, 4.779e-3
-1.615, 4.807e-3
-1.616, 4.831e-3
-1.617, 4.859e-3
-1.618, 4.887e-3
-1.619, 4.912e-3
-1.620, 4.939e-3
-1.621, 4.964e-3
-1.622, 4.989e-3
-1.623, 5.019e-3
-1.624, 5.044e-3
-1.625, 5.075e-3
-1.626, 5.103e-3
-1.627, 5.130e-3
-1.628, 5.161e-3
-1.629, 5.186e-3
-1.630, 5.217e-3
-1.631, 5.241e-3
-1.632, 5.275e-3
-1.633, 5.312e-3
-1.634, 5.346e-3
-1.635, 5.374e-3
-1.636, 5.402e-3
-1.637, 5.433e-3
-1.638, 5.457e-3
-1.639, 5.485e-3
-1.640, 5.507e-3
-1.641, 5.531e-3
-1.642, 5.562e-3
-1.643, 5.590e-3
-1.644, 5.614e-3
-1.645, 5.645e-3
-1.646, 5.670e-3
-1.647, 5.695e-3
-1.648, 5.719e-3
-1.649, 5.747e-3
-1.650, 5.775e-3
-1.651, 5.806e-3
-1.652, 5.830e-3
-1.653, 5.858e-3
-1.654, 5.892e-3
-1.655, 5.920e-3
-1.656, 5.947e-3
-1.657, 5.978e-3
-1.658, 6.012e-3
-1.659, 6.043e-3
-1.660, 6.071e-3
-1.661, 6.099e-3
-1.662, 6.126e-3
-1.663, 6.151e-3
-1.664, 6.169e-3
-1.665, 6.200e-3
-1.666, 6.228e-3
-1.667, 6.256e-3
-1.668, 6.277e-3
-1.669, 6.308e-3
-1.670, 6.336e-3
-1.671, 6.364e-3
-1.672, 6.388e-3
-1.673, 6.407e-3
-1.674, 6.428e-3
-1.675, 6.456e-3
-1.676, 6.484e-3
-1.677, 6.518e-3
-1.678, 6.546e-3
-1.679, 6.583e-3
-1.680, 6.610e-3
-1.681, 6.638e-3
-1.682, 6.666e-3
-1.683, 6.697e-3
-1.684, 6.721e-3
-1.685, 6.749e-3
-1.686, 6.761e-3
-1.687, 6.780e-3
-1.688, 6.801e-3
-1.689, 6.829e-3
-1.690, 6.857e-3
-1.691, 6.882e-3
-1.692, 6.903e-3
-1.693, 6.925e-3
-1.694, 6.953e-3
-1.695, 6.990e-3
-1.696, 7.014e-3
-1.697, 7.036e-3
-1.698, 7.054e-3
-1.699, 7.082e-3
-1.700, 7.076e-3
-1.699, 7.023e-3
-1.698, 6.974e-3
-1.697, 6.925e-3
-1.696, 6.879e-3
-1.695, 6.832e-3
-1.694, 6.795e-3
-1.693, 6.749e-3
-1.692, 6.703e-3
-1.691, 6.660e-3
-1.690, 6.610e-3
-1.689, 6.561e-3
-1.688, 6.521e-3
-1.687, 6.478e-3
-1.686, 6.435e-3
-1.685, 6.395e-3
-1.684, 6.354e-3
-1.683, 6.308e-3
-1.682, 6.265e-3
-1.681, 6.210e-3
-1.680, 6.163e-3
-1.679, 6.111e-3
-1.678, 6.068e-3
-1.677, 6.028e-3
-1.676, 5.981e-3
-1.675, 5.944e-3
-1.674, 5.898e-3
-1.673, 5.852e-3
-1.672, 5.812e-3
-1.671, 5.772e-3
-1.670, 5.729e-3
-1.669, 5.685e-3
-1.668, 5.651e-3
-1.667, 5.605e-3
-1.666, 5.562e-3
-1.665, 5.534e-3
-1.664, 5.491e-3
-1.663, 5.451e-3
-1.662, 5.426e-3
-1.661, 5.393e-3
-1.660, 5.352e-3
-1.659, 5.312e-3
-1.658, 5.272e-3
-1.657, 5.235e-3
-1.656, 5.204e-3
-1.655, 5.164e-3
-1.654, 5.127e-3
-1.653, 5.090e-3
-1.652, 5.060e-3
-1.651, 5.032e-3
-1.650, 5.001e-3
-1.649, 4.961e-3
-1.648, 4.921e-3
-1.647, 4.887e-3
-1.646, 4.850e-3
-1.645, 4.804e-3
-1.644, 4.764e-3
-1.643, 4.720e-3
-1.642, 4.680e-3
-1.641, 4.643e-3
-1.640, 4.612e-3
-1.639, 4.585e-3
-1.638, 4.548e-3
-1.637, 4.511e-3
-1.636, 4.480e-3
-1.635, 4.452e-3
-1.634, 4.418e-3
-1.633, 4.387e-3
-1.632, 4.360e-3
-1.631, 4.323e-3
-1.630, 4.289e-3
-1.629, 4.261e-3
-1.628, 4.233e-3
-1.627, 4.199e-3
-1.626, 4.165e-3
-1.625, 4.132e-3
-1.624, 4.101e-3
-1.623, 4.067e-3
-1.622, 4.033e-3
-1.621, 3.996e-3
-1.620, 3.965e-3
-1.619, 3.931e-3
-1.618, 3.897e-3
-1.617, 3.863e-3
-1.616, 3.836e-3
-1.615, 3.808e-3
-1.614, 3.771e-3
-1.613, 3.740e-3
-1.612, 3.706e-3
-1.611, 3.675e-3
-1.610, 3.647e-3
-1.609, 3.620e-3
-1.608, 3.586e-3
-1.607, 3.555e-3
-1.606, 3.524e-3
-1.605, 3.496e-3
-1.604, 3.469e-3
-1.603, 3.438e-3
-1.602, 3.410e-3
-1.601, 3.382e-3
-1.600, 3.351e-3
-1.599, 3.324e-3
-1.598, 3.293e-3
-1.597, 3.262e-3
-1.596, 3.234e-3
-1.595, 3.210e-3
-1.594, 3.176e-3
-1.593, 3.145e-3
-1.592, 3.114e-3
-1.591, 3.089e-3
-1.590, 3.065e-3
-1.589, 3.040e-3
-1.588, 3.012e-3
-1.587, 2.982e-3
-1.586, 2.954e-3
-1.585, 2.926e-3
-1.584, 2.898e-3
-1.583, 2.874e-3
-1.582, 2.846e-3
-1.581, 2.821e-3
-1.580, 2.793e-3
-1.579, 2.769e-3
-1.578, 2.744e-3
-1.577, 2.719e-3
-1.576, 2.692e-3
-1.575, 2.667e-3
-1.574, 2.639e-3
-1.573, 2.615e-3
-1.572, 2.587e-3
-1.571, 2.562e-3
-1.570, 2.534e-3
-1.569, 2.513e-3
-1.568, 2.491e-3
-1.567, 2.467e-3
-1.566, 2.445e-3
-1.565, 2.420e-3
-1.564, 2.396e-3
-1.563, 2.371e-3
-1.562, 2.346e-3
-1.561, 2.322e-3
-1.560, 2.300e-3
-1.559, 2.285e-3
-1.558, 2.260e-3
-1.557, 2.242e-3
-1.556, 2.217e-3
-1.555, 2.195e-3
-1.554, 2.171e-3
-1.553, 2.149e-3
-1.552, 2.128e-3
-1.551, 2.103e-3
-1.550, 2.078e-3
-1.549, 2.060e-3
-1.548, 2.038e-3
-1.547, 2.017e-3
-1.546, 1.995e-3
-1.545, 1.973e-3
-1.544, 1.949e-3
-1.543, 1.927e-3
-1.542, 1.906e-3
-1.541, 1.884e-3
-1.540, 1.859e-3
-1.539, 1.838e-3
-1.538, 1.819e-3
-1.537, 1.795e-3
-1.536, 1.779e-3
-1.535, 1.761e-3
-1.534, 1.742e-3
-1.533, 1.727e-3
-1.532, 1.705e-3
-1.531, 1.690e-3
-1.530, 1.671e-3
-1.529, 1.653e-3
-1.528, 1.631e-3
-1.527, 1.610e-3
-1.526, 1.588e-3
-1.525, 1.569e-3
-1.524, 1.551e-3
-1.523, 1.536e-3
-1.522, 1.520e-3
-1.521, 1.502e-3
-1.520, 1.483e-3
-1.519, 1.465e-3
-1.518, 1.446e-3
-1.517, 1.431e-3
-1.516, 1.412e-3
-1.515, 1.394e-3
-1.514, 1.372e-3
-1.513, 1.357e-3
-1.512, 1.338e-3
-1.511, 1.326e-3
-1.510, 1.307e-3
-1.509, 1.292e-3
-1.508, 1.277e-3
-1.507, 1.261e-3
-1.506, 1.246e-3
-1.505, 1.227e-3
-1.504, 1.209e-3
-1.503, 1.193e-3
-1.502, 1.178e-3
-1.501, 1.169e-3
-1.500, 1.153e-3
-1.499, 1.138e-3
-1.498, 1.125e-3
-1.497, 1.107e-3
-1.496, 1.092e-3
-1.495, 1.073e-3
-1.494, 1.058e-3
-1.493, 1.042e-3
-1.492, 1.024e-3
-1.491, 1.011e-3
-1.490, 9.960e-4
-1.489, 9.837e-4
-1.488, 9.683e-4
-1.487, 9.559e-4
-1.486, 9.436e-4
-1.485, 9.313e-4
-1.484, 9.158e-4
-1.483, 9.004e-4
-1.482, 8.881e-4
-1.481, 8.696e-4
-1.480, 8.573e-4
-1.479, 8.449e-4
-1.478, 8.326e-4
-1.477, 8.203e-4
-1.476, 8.079e-4
-1.475, 7.956e-4
-1.474, 7.833e-4
-1.473, 7.740e-4
-1.472, 7.586e-4
-1.471, 7.463e-4
-1.470, 7.339e-4
-1.469, 7.185e-4
-1.468, 7.062e-4
-1.467, 6.939e-4
-1.466, 6.846e-4
-1.465, 6.754e-4
-1.464, 6.661e-4
-1.463, 6.569e-4
-1.462, 6.445e-4
-1.461, 6.322e-4
-1.460, 6.229e-4
-1.459, 6.106e-4
-1.458, 5.983e-4
-1.457, 5.829e-4
-1.456, 5.736e-4
-1.455, 5.613e-4
-1.454, 5.520e-4
-1.453, 5.428e-4
-1.452, 5.335e-4
-1.451, 5.243e-4
-1.450, 5.181e-4
-1.449, 5.058e-4
-1.448, 4.965e-4
-1.447, 4.873e-4
-1.446, 4.750e-4
-1.445, 4.657e-4
-1.444, 4.534e-4
-1.443, 4.472e-4
-1.442, 4.380e-4
-1.441, 4.287e-4
-1.440, 4.225e-4
-1.439, 4.133e-4
-1.438, 4.071e-4
-1.437, 3.979e-4
-1.436, 3.886e-4
-1.435, 3.763e-4
-1.434, 3.670e-4
-1.433, 3.547e-4
-1.432, 3.485e-4
-1.431, 3.393e-4
-1.430, 3.331e-4
-1.429, 3.270e-4
-1.428, 3.177e-4
-1.427, 3.115e-4
-1.426, 3.023e-4
-1.425, 2.961e-4
-1.424, 2.869e-4
-1.423, 2.776e-4
-1.422, 2.715e-4
-1.421, 2.622e-4
-1.420, 2.561e-4
-1.419, 2.499e-4
-1.418, 2.437e-4
-1.417, 2.376e-4
-1.416, 2.314e-4
-1.415, 2.252e-4
-1.414, 2.160e-4
-1.413, 2.098e-4
-1.412, 2.006e-4
-1.411, 1.944e-4
-1.410, 1.851e-4
-1.409, 1.790e-4
-1.408, 1.728e-4
-1.407, 1.666e-4
-1.406, 1.636e-4
-1.405, 1.574e-4
-1.404, 1.512e-4
-1.403, 1.451e-4
-1.402, 1.389e-4
-1.401, 1.296e-4
-1.400, 1.235e-4
-1.399, 1.173e-4
-1.398, 1.081e-4
-1.397, 1.050e-4
-1.396, 9.882e-5
-1.395, 9.573e-5
-1.394, 8.957e-5
-1.393, 8.648e-5
-1.392, 8.340e-5
-1.391, 7.723e-5
-1.390, 7.107e-5
-1.389, 6.490e-5
-1.388, 5.873e-5
-1.387, 4.949e-5
-1.386, 4.640e-5
-1.385, 4.024e-5
-1.384, 3.715e-5
-1.383, 3.407e-5
-1.382, 2.790e-5
-1.381, 2.482e-5
-1.380, 2.174e-5
-1.379, 1.557e-5
-1.378, 9.405e-6
-1.377, 3.239e-6
-1.376, 1.559e-7
-1.375, -6.010e-6
-1.374, -1.218e-5
-1.373, -1.526e-5
-1.372, -1.834e-5
-1.371, -2.143e-5
-1.370, -2.451e-5
-1.369, -2.759e-5
-1.368, -3.068e-5
-1.367, -3.684e-5
-1.366, -3.992e-5
-1.365, -4.609e-5
-1.364, -5.226e-5
-1.363, -5.534e-5
-1.362, -6.151e-5
-1.361, -6.459e-5
-1.360, -6.767e-5
-1.359, -6.767e-5
-1.358, -7.076e-5
-1.357, -7.384e-5
-1.356, -7.692e-5
-1.355, -8.000e-5
-1.354, -8.617e-5
-1.353, -9.234e-5
-1.352, -9.542e-5
-1.351, -1.016e-4
-1.350, -1.047e-4
-1.349, -1.078e-4
-1.348, -1.078e-4
-1.347, -1.108e-4
-1.346, -1.139e-4
-1.345, -1.139e-4
-1.344, -1.201e-4
-1.343, -1.232e-4
-1.342, -1.263e-4
-1.341, -1.324e-4
-1.340, -1.355e-4
-1.339, -1.386e-4
-1.338, -1.417e-4
-1.337, -1.448e-4
-1.336, -1.448e-4
-1.335, -1.448e-4
-1.334, -1.478e-4
-1.333, -1.509e-4
-1.332, -1.540e-4
-1.331, -1.571e-4
-1.330, -1.632e-4
-1.329, -1.663e-4
-1.328, -1.725e-4
-1.327, -1.756e-4
-1.326, -1.756e-4
-1.325, -1.756e-4
-1.324, -1.787e-4
-1.323, -1.787e-4
-1.322, -1.817e-4
-1.321, -1.848e-4
-1.320, -1.848e-4
-1.319, -1.910e-4
-1.318, -1.941e-4
-1.317, -2.002e-4
-1.316, -2.033e-4
-1.315, -2.064e-4
-1.314, -2.064e-4
-1.313, -2.064e-4
-1.312, -2.095e-4
-1.311, -2.095e-4
-1.310, -2.126e-4
-1.309, -2.157e-4
-1.308, -2.187e-4
-1.307, -2.218e-4
-1.306, -2.249e-4
-1.305, -2.311e-4
-1.304, -2.342e-4
-1.303, -2.372e-4
-1.302, -2.372e-4
-1.301, -2.372e-4
-1.300, -2.372e-4
-1.299, -2.403e-4
-1.298, -2.403e-4
-1.297, -2.434e-4
-1.296, -2.465e-4
-1.295, -2.496e-4
-1.294, -2.557e-4
-1.293, -2.588e-4
-1.292, -2.619e-4
-1.291, -2.619e-4
-1.290, -2.619e-4
-1.289, -2.650e-4
-1.288, -2.650e-4
-1.287, -2.681e-4
-1.286, -2.681e-4
-1.285, -2.712e-4
-1.284, -2.742e-4
-1.283, -2.804e-4
-1.282, -2.835e-4
-1.281, -2.866e-4
-1.280, -2.866e-4
-1.279, -2.897e-4
-1.278, -2.897e-4
-1.277, -2.897e-4
-1.276, -2.927e-4
-1.275, -2.927e-4
-1.274, -2.958e-4
-1.273, -2.989e-4
-1.272, -3.020e-4
-1.271, -3.051e-4
-1.270, -3.082e-4
-1.269, -3.143e-4
-1.268, -3.143e-4
-1.267, -3.174e-4
-1.266, -3.205e-4
-1.265, -3.205e-4
-1.264, -3.205e-4
-1.263, -3.236e-4
-1.262, -3.267e-4
-1.261, -3.297e-4
-1.260, -3.328e-4
-1.259, -3.359e-4
-1.258, -3.390e-4
-1.257, -3.421e-4
-1.256, -3.452e-4
-1.255, -3.452e-4
-1.254, -3.452e-4
-1.253, -3.482e-4
-1.252, -3.482e-4
-1.251, -3.513e-4
-1.250, -3.513e-4
-1.249, -3.575e-4
-1.248, -3.606e-4
-1.247, -3.637e-4
-1.246, -3.667e-4
-1.245, -3.698e-4
-1.244, -3.729e-4
-1.243, -3.729e-4
-1.242, -3.760e-4
-1.241, -3.760e-4
-1.240, -3.760e-4
-1.239, -3.791e-4
-1.238, -3.852e-4
-1.237, -3.883e-4
-1.236, -3.914e-4
-1.235, -3.976e-4
-1.234, -4.006e-4
-1.233, -4.037e-4
-1.232, -4.037e-4
-1.231, -4.068e-4
-1.230, -4.068e-4
-1.229, -4.099e-4
-1.228, -4.130e-4
-1.227, -4.161e-4
-1.226, -4.191e-4
-1.225, -4.222e-4
-1.224, -4.284e-4
-1.223, -4.315e-4
-1.222, -4.376e-4
-1.221, -4.407e-4
-1.220, -4.407e-4
-1.219, -4.438e-4
-1.218, -4.438e-4
-1.217, -4.469e-4
-1.216, -4.500e-4
-1.215, -4.561e-4
-1.214, -4.592e-4
-1.213, -4.623e-4
-1.212, -4.685e-4
-1.211, -4.746e-4
-1.210, -4.777e-4
-1.209, -4.808e-4
-1.208, -4.839e-4
-1.207, -4.839e-4
-1.206, -4.870e-4
-1.205, -4.901e-4
-1.204, -4.931e-4
-1.203, -4.993e-4
-1.202, -5.055e-4
-1.201, -5.116e-4
-1.200, -5.147e-4
-1.199, -5.209e-4
-1.198, -5.240e-4
-1.197, -5.271e-4
-1.196, -5.301e-4
-1.195, -5.332e-4
-1.194, -5.363e-4
-1.193, -5.394e-4
-1.192, -5.456e-4
-1.191, -5.517e-4
-1.190, -5.579e-4
-1.189, -5.641e-4
-1.188, -5.671e-4
-1.187, -5.733e-4
-1.186, -5.764e-4
-1.185, -5.826e-4
-1.184, -5.856e-4
-1.183, -5.887e-4
-1.182, -5.918e-4
-1.181, -5.980e-4
-1.180, -6.041e-4
-1.179, -6.103e-4
-1.178, -6.165e-4
-1.177, -6.257e-4
-1.176, -6.319e-4
-1.175, -6.380e-4
-1.174, -6.411e-4
-1.173, -6.442e-4
-1.172, -6.504e-4
-1.171, -6.535e-4
-1.170, -6.565e-4
-1.169, -6.658e-4
-1.168, -6.689e-4
-1.167, -6.781e-4
-1.166, -6.843e-4
-1.165, -6.935e-4
-1.164, -7.028e-4
-1.163, -7.090e-4
-1.162, -7.151e-4
-1.161, -7.182e-4
-1.160, -7.244e-4
-1.159, -7.305e-4
-1.158, -7.367e-4
-1.157, -7.429e-4
-1.156, -7.521e-4
-1.155, -7.614e-4
-1.154, -7.706e-4
-1.153, -7.768e-4
-1.152, -7.860e-4
-1.151, -7.922e-4
-1.150, -7.984e-4
-1.149, -8.045e-4
-1.148, -8.107e-4
-1.147, -8.169e-4
-1.146, -8.261e-4
-1.145, -8.354e-4
-1.144, -8.477e-4
-1.143, -8.569e-4
-1.142, -8.662e-4
-1.141, -8.754e-4
-1.140, -8.847e-4
-1.139, -8.939e-4
-1.138, -9.032e-4
-1.137, -9.094e-4
-1.136, -9.155e-4
-1.135, -9.248e-4
-1.134, -9.309e-4
-1.133, -9.433e-4
-1.132, -9.525e-4
-1.131, -9.618e-4
-1.130, -9.741e-4
-1.129, -9.834e-4
-1.128, -9.926e-4
-1.127, -1.002e-3
-1.126, -1.011e-3
-1.125, -1.020e-3
-1.124, -1.030e-3
-1.123, -1.039e-3
-1.122, -1.051e-3
-1.121, -1.060e-3
-1.120, -1.073e-3
-1.119, -1.085e-3
-1.118, -1.097e-3
-1.117, -1.107e-3
-1.116, -1.116e-3
-1.115, -1.125e-3
-1.114, -1.134e-3
-1.113, -1.144e-3
-1.112, -1.153e-3
-1.111, -1.165e-3
-1.110, -1.178e-3
-1.109, -1.190e-3
-1.108, -1.202e-3
-1.107, -1.215e-3
-1.106, -1.227e-3
-1.105, -1.239e-3
-1.104, -1.249e-3
-1.103, -1.258e-3
-1.102, -1.267e-3
-1.101, -1.276e-3
-1.100, -1.289e-3
-1.099, -1.301e-3
-1.098, -1.310e-3
-1.097, -1.326e-3
-1.096, -1.338e-3
-1.095, -1.350e-3
-1.094, -1.363e-3
-1.093, -1.375e-3
-1.092, -1.387e-3
-1.091, -1.396e-3
-1.090, -1.406e-3
-1.089, -1.418e-3
-1.088, -1.430e-3
-1.087, -1.443e-3
-1.086, -1.455e-3
-1.085, -1.467e-3
-1.084, -1.483e-3
-1.083, -1.495e-3
-1.082, -1.507e-3
-1.081, -1.520e-3
-1.080, -1.529e-3
-1.079, -1.541e-3
-1.078, -1.551e-3
-1.077, -1.563e-3
-1.076, -1.575e-3
-1.075, -1.588e-3
-1.074, -1.603e-3
-1.073, -1.618e-3
-1.072, -1.634e-3
-1.071, -1.646e-3
-1.070, -1.662e-3
-1.069, -1.674e-3
-1.068, -1.686e-3
-1.067, -1.699e-3
-1.066, -1.711e-3
-1.065, -1.723e-3
-1.064, -1.739e-3
-1.063, -1.751e-3
-1.062, -1.763e-3
-1.061, -1.779e-3
-1.060, -1.791e-3
-1.059, -1.803e-3
-1.058, -1.816e-3
-1.057, -1.828e-3
-1.056, -1.837e-3
-1.055, -1.847e-3
-1.054, -1.859e-3
-1.053, -1.871e-3
-1.052, -1.887e-3
-1.051, -1.902e-3
-1.050, -1.918e-3
-1.049, -1.933e-3
-1.048, -1.945e-3
-1.047, -1.961e-3
-1.046, -1.976e-3
-1.045, -1.988e-3
-1.044, -2.001e-3
-1.043, -2.010e-3
-1.042, -2.022e-3
-1.041, -2.035e-3
-1.040, -2.047e-3
-1.039, -2.062e-3
-1.038, -2.078e-3
-1.037, -2.093e-3
-1.036, -2.109e-3
-1.035, -2.124e-3
-1.034, -2.133e-3
-1.033, -2.149e-3
-1.032, -2.158e-3
-1.031, -2.170e-3
-1.030, -2.183e-3
-1.029, -2.195e-3
-1.028, -2.207e-3
-1.027, -2.220e-3
-1.026, -2.235e-3
-1.025, -2.251e-3
-1.024, -2.263e-3
-1.023, -2.275e-3
-1.022, -2.291e-3
-1.021, -2.303e-3
-1.020, -2.315e-3
-1.019, -2.328e-3
-1.018, -2.343e-3
-1.017, -2.355e-3
-1.016, -2.368e-3
-1.015, -2.386e-3
-1.014, -2.402e-3
-1.013, -2.417e-3
-1.012, -2.429e-3
-1.011, -2.442e-3
-1.010, -2.454e-3
-1.009, -2.469e-3
-1.008, -2.482e-3
-1.007, -2.494e-3
-1.006, -2.506e-3
-1.005, -2.519e-3
-1.004, -2.534e-3
-1.003, -2.550e-3
-1.002, -2.565e-3
-1.001, -2.577e-3
