Potential V vs RHE, Current mA cm-2
0.013299999999999867,2.352664891675556
0.012299999999999978,1.9169338113171246
0.011299999999999866,1.5250587812545096
0.010299999999999976,1.219056727093702
0.009299999999999864,0.9573351366186703
0.008299999999999974,0.7829012333453113
0.007299999999999862,0.6084673300719523
0.006299999999999972,0.43403342679859325
0.00529999999999986,0.21588494435940458
0.0042999999999999705,0.08502414912188871
0.0032999999999998586,-0.04582249900262853
0.0022999999999999687,-0.1330535977523067
0.0012999999999998568,-0.26384365742482935
0.00029999999999996696,-0.4384190318281749
-0.000700000000000145,-0.5692798270656908
-0.0017000000000000348,-0.6564260431373771
-0.0027000000000001467,-0.7001406223032067
-0.0037000000000000366,-0.8308599464107361
-0.0047000000000001485,-0.9617207416482519
-0.005700000000000038,-1.0490084288499246
-0.00670000000000015,-1.1362961160515976
-0.00770000000000004,-1.1798692240874404
-0.008700000000000152,-1.3107300193249565
-0.009700000000000042,-1.4415908145624723
-0.010700000000000154,-1.5293029151541047
-0.011700000000000044,-1.5293029151541047
-0.012700000000000156,-1.5717442541500557
-0.013700000000000045,-1.6594563547416883
-0.014700000000000157,-1.7910245056291363
-0.015700000000000047,-1.8773218949209036
-0.01670000000000016,-1.92117794521672
-0.01770000000000005,-1.9650339955125358
-0.01870000000000016,-2.008890045808352
-0.01970000000000005,-2.1390434853959355
-0.020700000000000163,-2.226755585987568
-0.021700000000000053,-2.226755585987568
-0.022700000000000164,-2.2706116362833835
-0.023700000000000054,-2.3569090255751513
-0.024700000000000166,-2.4446211261667834
-0.025700000000000056,-2.4884771764625997
-0.026700000000000168,-2.532333226758415
-0.027700000000000058,-2.532333226758415
-0.02870000000000017,-2.618630616050183
-0.02970000000000006,-2.7501987669376318
-0.03070000000000017,-2.794054817233447
-0.03170000000000006,-2.794054817233447
-0.03270000000000017,-2.8379108675292635
-0.03370000000000006,-2.8803522065252145
-0.034700000000000175,-3.0119203574126634
-0.035700000000000065,-3.055776407708479
-0.03670000000000018,-3.055776407708479
-0.03770000000000007,-3.0996324580042955
-0.03870000000000018,-3.1859298472960624
-0.03970000000000007,-3.273641947887695
-0.04070000000000018,-3.317497998183511
-0.04170000000000007,-3.317497998183511
-0.04270000000000018,-3.317497998183511
-0.04370000000000007,-3.403795387475278
-0.044700000000000184,-3.4915074880669104
-0.045700000000000074,-3.5353635383627267
-0.046700000000000186,-3.5353635383627267
-0.047700000000000076,-3.5353635383627267
-0.04870000000000019,-3.623075638954359
-0.04970000000000008,-3.7093730282461257
-0.05070000000000019,-3.7532290785419424
-0.05170000000000008,-3.7532290785419424
-0.05270000000000019,-3.7532290785419424
-0.05370000000000008,-3.840941179133574
-0.05470000000000019,-3.927238568425342
-0.05570000000000008,-4.014950669016974
-0.056700000000000195,-4.014950669016974
-0.057700000000000085,-4.014950669016974
-0.058700000000000196,-4.0588067193127895
-0.059700000000000086,-4.146518819904423
-0.0607000000000002,-4.1889601589003735
-0.06170000000000009,-4.1889601589003735
-0.0627000000000002,-4.23281620919619
-0.06370000000000009,-4.276672259492005
-0.0647000000000002,-4.364384360083638
-0.06570000000000009,-4.450681749375406
-0.0667000000000002,-4.450681749375406
-0.0677000000000001,-4.450681749375406
-0.0687000000000002,-4.538393849967037
-0.0697000000000001,-4.582249900262854
-0.07070000000000021,-4.668547289554621
-0.0717000000000001,-4.668547289554621
-0.07270000000000021,-4.668547289554621
-0.0737000000000001,-4.712403339850438
-0.07470000000000021,-4.843971490737885
-0.0757000000000001,-4.887827541033701
-0.07670000000000021,-4.887827541033701
-0.0777000000000001,-4.887827541033701
-0.07870000000000021,-4.974124930325469
-0.0797000000000001,-5.0618370309171015
-0.08070000000000022,-5.105693081212917
-0.0817000000000001,-5.105693081212917
-0.08270000000000022,-5.105693081212917
-0.08370000000000011,-5.191990470504685
-0.08470000000000022,-5.279702571096316
-0.08570000000000011,-5.367414671687949
-0.08670000000000022,-5.323558621392133
-0.08770000000000011,-5.367414671687949
-0.08870000000000022,-5.411270721983764
-0.08970000000000011,-5.497568111275533
-0.09070000000000022,-5.585280211867165
-0.09170000000000011,-5.585280211867165
-0.09270000000000023,-5.585280211867165
-0.09370000000000012,-5.629136262162981
-0.09470000000000023,-5.759289701750564
-0.09570000000000012,-5.80314575204638
-0.09670000000000023,-5.80314575204638
-0.09770000000000012,-5.80314575204638
-0.09870000000000023,-5.847001802342197
-0.09970000000000012,-5.9347139029338285
-0.10070000000000023,-6.021011292225596
-0.10170000000000012,-6.021011292225596
-0.10270000000000024,-6.021011292225596
-0.10370000000000013,-6.108723392817228
-0.10470000000000024,-6.196435493408861
-0.10570000000000013,-6.238876832404812
-0.10670000000000024,-6.238876832404812
-0.10770000000000013,-6.282732882700628
-0.10870000000000024,-6.326588932996443
-0.10970000000000013,-6.458157083883892
-0.11070000000000024,-6.500598422879844
-0.11170000000000013,-6.500598422879844
-0.11270000000000002,-6.500598422879844
-0.11370000000000013,-6.588310523471475
-0.11470000000000002,-6.6760226240631075
-0.11570000000000014,-6.719878674358924
-0.11670000000000003,-6.719878674358924
-0.11770000000000014,-6.762320013354876
-0.11870000000000003,-6.806176063650692
-0.11970000000000014,-6.893888164242324
-0.12070000000000003,-6.981600264833956
-0.12170000000000014,-6.981600264833956
-0.12270000000000003,-6.981600264833956
-0.12370000000000014,-7.067897654125724
-0.12470000000000003,-7.155609754717355
-0.12570000000000014,-7.243321855308987
-0.12670000000000003,-7.243321855308987
-0.12770000000000015,-7.243321855308987
-0.12870000000000004,-7.28576319430494
-0.12970000000000015,-7.4173313451923875
-0.13070000000000004,-7.461187395488204
-0.13170000000000015,-7.50504344578402
-0.13270000000000004,-7.50504344578402
-0.13370000000000015,-7.5474847847799715
-0.13470000000000004,-7.635196885371603
-0.13570000000000015,-7.722908985963235
-0.13670000000000004,-7.722908985963235
-0.13770000000000016,-7.722908985963235
-0.13870000000000005,-7.809206375255003
-0.13970000000000016,-7.940774526142452
-0.14070000000000005,-7.984630576438266
-0.14170000000000016,-7.984630576438266
-0.14270000000000005,-7.984630576438266
-0.14370000000000016,-8.070927965730034
-0.14470000000000005,-8.158640066321666
-0.14570000000000016,-8.246352166913299
-0.14670000000000005,-8.246352166913299
-0.14770000000000016,-8.246352166913299
-0.14870000000000005,-8.332649556205066
-0.14970000000000017,-8.4203616567967
-0.15070000000000006,-8.464217707092514
-0.15170000000000017,-8.508073757388331
-0.15270000000000006,-8.508073757388331
-0.15370000000000017,-8.594371146680096
-0.15470000000000006,-8.725939297567548
-0.15570000000000017,-8.769795347863363
-0.15670000000000006,-8.769795347863363
-0.15770000000000017,-8.812236686859313
-0.15870000000000006,-8.85609273715513
-0.15970000000000018,-8.943804837746763
-0.16070000000000007,-9.031516938338395
-0.16170000000000018,-9.031516938338395
-0.16270000000000007,-9.073958277334345
-0.16370000000000018,-9.11781432763016
-0.16470000000000007,-9.24938247851761
-0.16570000000000018,-9.335679867809377
-0.16670000000000007,-9.335679867809377
-0.16770000000000018,-9.335679867809377
-0.16870000000000007,-9.423391968401008
-0.16970000000000018,-9.511104068992642
-0.17070000000000007,-9.59740145828441
-0.17170000000000019,-9.641257508580225
-0.17270000000000008,-9.641257508580225
-0.1737000000000002,-9.728969609171857
-0.17470000000000008,-9.81668170976349
-0.1757000000000002,-9.946835149351072
-0.17670000000000008,-9.946835149351072
-0.1777000000000002,-9.99069119964689
-0.17870000000000008,-10.078403300238522
-0.1797000000000002,-10.164700689530287
-0.18070000000000008,-10.25241279012192
-0.1817000000000002,-10.25241279012192
-0.18270000000000008,-10.296268840417738
-0.1837000000000002,-10.340124890713554
-0.1847000000000001,-10.470278330301136
-0.1857000000000002,-10.557990430892769
-0.1867000000000001,-10.601846481188586
-0.1877000000000002,-10.644287820184536
-0.1887000000000001,-10.731999920776168
-0.1897000000000002,-10.863568071663616
-0.1907000000000001,-10.949865460955383
-0.1917000000000001,-10.949865460955383
-0.19269999999999998,-10.993721511251199
-0.1937000000000001,-11.081433611842833
-0.19469999999999998,-11.211587051430415
-0.1957000000000001,-11.299299152022046
-0.19669999999999999,-11.343155202317865
-0.1977000000000001,-11.385596541313816
-0.1987,-11.473308641905447
-0.1997000000000001,-11.604876792792895
-0.2007,-11.691174182084664
-0.2017000000000001,-11.73503023238048
-0.2027,-11.778886282676295
-0.2037000000000001,-11.86659838326793
-0.2047,-11.996751822855511
-0.2057000000000001,-12.084463923447142
-0.2067,-12.12831997374296
-0.2077000000000001,-12.170761312738911
-0.2087,-12.258473413330542
-0.2097000000000001,-12.390041564217992
-0.2107,-12.476338953509758
-0.2117000000000001,-12.520195003805576
-0.2127,-12.56405105410139
-0.2137000000000001,-12.651763154693022
-0.2147,-12.825772644576423
-0.2157000000000001,-12.913484745168056
-0.2167,-12.955926084164007
-0.21770000000000012,-12.99978213445982
-0.2187,-13.087494235051453
-0.21970000000000012,-13.261503724934855
-0.2207,-13.349215825526485
-0.22170000000000012,-13.3930718758223
-0.2227,-13.47936926511407
-0.22370000000000012,-13.567081365705702
-0.2247,-13.698649516593148
-0.22570000000000012,-13.828802956180734
-0.2267,-13.872659006476551
-0.22770000000000012,-13.916515056772363
-0.22870000000000001,-14.046668496359947
-0.22970000000000013,-14.175407224647667
-0.23070000000000002,-14.30273124163552
-0.23170000000000013,-14.345172580631472
-0.23270000000000002,-14.401761032626075
-0.23370000000000013,-14.529085049613924
-0.23470000000000002,-14.69885040559773
-0.23570000000000013,-14.783733083589633
-0.23670000000000002,-14.826174422585586
-0.2376999999999999,-14.925204213576137
-0.23870000000000002,-15.05252823056399
-0.2396999999999999,-15.222293586547794
-0.24070000000000003,-15.349617603535648
-0.24169999999999991,-15.448647394526201
-0.24270000000000003,-15.491088733522153
-0.24369999999999992,-15.618412750510005
-0.24470000000000003,-15.74573676749786
-0.24569999999999992,-15.830619445489761
-0.24670000000000003,-15.91550212348166
-0.24769999999999992,-15.972090575476265
-0.24870000000000003,-16.056973253468165
-0.24969999999999992,-16.22673860945197
-0.25070000000000003,-16.354062626439823
-0.2516999999999999,-16.396503965435777
-0.25270000000000004,-16.495533756426326
-0.2536999999999999,-16.665299112410132
-0.25470000000000004,-16.792623129397985
-0.2556999999999999,-16.919947146385837
-0.25670000000000004,-16.962388485381787
-0.25769999999999993,-17.061418276372343
-0.25870000000000004,-17.146300954364243
-0.25969999999999993,-17.316066310348052
-0.26070000000000004,-17.4433903273359
-0.26169999999999993,-17.542420118326454
-0.26270000000000004,-17.584861457322408
-0.26369999999999993,-17.71218547431026
-0.26470000000000005,-17.839509491298113
-0.26569999999999994,-17.966833508285966
-0.26670000000000005,-18.009274847281915
-0.26769999999999994,-18.10830463827247
-0.26870000000000005,-18.27806999425627
-0.26969999999999994,-18.44783535024008
-0.27070000000000005,-18.589306480226583
-0.27169999999999994,-18.674189158218486
-0.27270000000000005,-18.716630497214435
-0.27369999999999994,-18.88639585319824
-0.27470000000000006,-19.056161209182044
-0.27569999999999995,-19.197632339168546
-0.27670000000000006,-19.2400736781645
-0.27769999999999995,-19.3249563561564
-0.27870000000000006,-19.452280373144255
-0.27969999999999995,-19.636192842126707
-0.28070000000000006,-19.763516859114564
-0.28169999999999995,-19.848399537106463
-0.28270000000000006,-19.93328221509837
-0.28369999999999995,-20.06060623208622
-0.28470000000000006,-20.244518701068674
-0.28569999999999995,-20.371842718056527
-0.28670000000000007,-20.456725396048434
-0.28769999999999996,-20.541608074040333
-0.28870000000000007,-20.683079204026836
-0.28969999999999996,-20.810403221014692
-0.29070000000000007,-20.93772723800254
-0.29169999999999996,-21.022609915994444
-0.29270000000000007,-21.107492593986347
-0.29369999999999996,-21.248963723972853
-0.2947000000000001,-21.418729079956652
-0.29569999999999996,-21.503611757948562
-0.2967000000000001,-21.58849443594046
-0.29769999999999996,-21.67337711393236
-0.2987000000000001,-21.814848243918867
-0.29969999999999997,-21.98461359990267
-0.3007000000000001,-22.111937616890522
-0.30169999999999997,-22.196820294882425
-0.3027000000000001,-22.295850085872978
-0.30369999999999997,-22.38073276386488
-0.3047000000000001,-22.592939458844636
-0.30569999999999997,-22.72026347583249
-0.3067000000000001,-22.776851927827092
-0.3077,-22.861734605818995
-0.3087000000000001,-22.989058622806844
-0.3097,-23.15882397879065
-0.3107000000000001,-23.300295108777156
-0.3117,-23.385177786769056
-0.3127000000000001,-23.47006046476096
-0.3137,-23.55494314275286
-0.3147000000000001,-23.724708498736668
-0.3157,-23.86617962872317
-0.3167000000000001,-23.951062306715073
-0.3177,-23.993503645711023
-0.3187000000000001,-24.120827662698876
-0.3197,-24.24815167968673
-0.3207000000000001,-24.34718147067728
-0.3217,-24.432064148669184
-0.3227000000000001,-24.474505487665134
-0.3237,-24.559388165657033
-0.3247000000000001,-24.729153521640843
-0.3257,-24.9130659906233
-0.3267000000000001,-24.997948668615198
-0.3277,-25.0828313466071
-0.3287000000000001,-25.210155363594954
-0.3297,-25.337479380582806
-0.3307000000000001,-25.43650917157336
-0.3317,-25.478950510569312
-0.3327000000000001,-25.478950510569312
-0.3337,-25.60627452755716
-0.3347000000000001,-25.73359854454502
-0.3357,-25.86092256153287
-0.3367000000000001,-25.91751101352747
-0.3377,-25.959952352523427
-0.3387000000000001,-26.044835030515326
-0.3397,-26.17215904750318
-0.3407000000000001,-26.257041725495082
-0.3417,-26.29948306449103
-0.3427000000000001,-26.29948306449103
-0.3437,-26.38436574248293
-0.3447000000000001,-26.525836872469437
-0.3457,-26.61071955046134
-0.3467000000000001,-26.65316088945729
-0.3477,-26.65316088945729
-0.3487000000000001,-26.69560222845324
-0.3497,-26.822926245441096
-0.3507000000000001,-26.86536758443705
-0.3517,-26.86536758443705
-0.3527000000000001,-26.86536758443705
-0.3537,-26.86536758443705
-0.3547000000000001,-26.9643973754276
-0.3557,-27.00683871442355
-0.35670000000000013,-27.00683871442355
-0.3577,-26.9643973754276
-0.35870000000000013,-27.00683871442355
-0.3597,-27.049280053419505
-0.36070000000000013,-27.091721392415455
-0.3617,-27.049280053419505
-0.3626999999999999,-27.00683871442355
-0.3637,-27.049280053419505
-0.3646999999999999,-27.049280053419505
-0.3657,-27.091721392415455
-0.3666999999999999,-27.049280053419505
-0.3677,-27.00683871442355
-0.3686999999999999,-27.00683871442355
-0.36970000000000003,-27.049280053419505
-0.3706999999999999,-27.049280053419505
-0.37170000000000003,-26.907808923433
-0.3726999999999999,-26.780484906445146
-0.37370000000000003,-26.738043567449193
-0.3746999999999999,-26.738043567449193
-0.37570000000000003,-26.69560222845324
-0.3766999999999999,-26.65316088945729
-0.37770000000000004,-26.525836872469437
-0.3786999999999999,-26.483395533473487
-0.37970000000000004,-26.440954194477534
-0.3806999999999999,-26.34192440348698
-0.38170000000000004,-26.21460038649913
-0.38269999999999993,-26.087276369511276
-0.38370000000000004,-26.002393691519377
-0.38469999999999993,-25.959952352523427
-0.38570000000000004,-25.86092256153287
-0.38669999999999993,-25.691157205549064
-0.38770000000000004,-25.563833188561212
-0.38869999999999993,-25.478950510569312
-0.38970000000000005,-25.478950510569312
-0.39069999999999994,-25.43650917157336
-0.39170000000000005,-25.295038041586857
-0.39269999999999994,-25.210155363594954
-0.39370000000000005,-25.0828313466071
-0.39469999999999994,-25.04039000761115
-0.39570000000000005,-24.95550732961925
-0.39669999999999994,-24.771594860636792
-0.39770000000000005,-24.64427084364894
-0.39869999999999994,-24.559388165657033
-0.39970000000000006,-24.516946826661083
-0.40069999999999995,-24.432064148669184
-0.40170000000000006,-24.24815167968673
-0.40269999999999995,-24.078386323702922
-0.40370000000000006,-23.993503645711023
-0.40469999999999995,-23.951062306715073
-0.40570000000000006,-23.86617962872317
-0.40669999999999995,-23.823738289727217
-0.40770000000000006,-23.682267159740714
-0.40869999999999995,-23.639825820744765
-0.40970000000000006,-23.597384481748815
-0.41069999999999995,-23.51250180375691
-0.41170000000000007,-23.427619125765005
-0.41269999999999996,-23.300295108777156
-0.41370000000000007,-23.24370665678255
-0.41469999999999996,-23.2012653177866
-0.41570000000000007,-23.1163826397947
-0.41669999999999996,-23.031499961802798
-0.41770000000000007,-22.904175944814945
-0.41869999999999996,-22.861734605818995
-0.4197000000000001,-22.861734605818995
-0.42069999999999996,-22.819293266823045
-0.4217000000000001,-22.72026347583249
-0.42269999999999996,-22.63538079784059
-0.4237000000000001,-22.592939458844636
-0.42469999999999997,-22.63538079784059
-0.4257000000000001,-22.592939458844636
-0.42669999999999997,-22.550498119848687
-0.4277000000000001,-22.46561544185678
-0.42869999999999997,-22.42317410286083
-0.4297000000000001,-22.46561544185678
-0.43069999999999997,-22.46561544185678
-0.4317000000000001,-22.42317410286083
-0.4327,-22.38073276386488
-0.4337000000000001,-22.38073276386488
-0.4347,-22.42317410286083
-0.4357000000000001,-22.46561544185678
-0.4367,-22.42317410286083
-0.4377000000000001,-22.42317410286083
-0.4387,-22.42317410286083
-0.4397000000000001,-22.46561544185678
-0.4407,-22.508056780852733
-0.4417000000000001,-22.508056780852733
-0.4427,-22.508056780852733
-0.4437000000000001,-22.550498119848687
-0.4447,-22.63538079784059
-0.4457000000000001,-22.67782213683654
-0.4467,-22.72026347583249
-0.4477000000000001,-22.72026347583249
-0.4487,-22.776851927827092
-0.4497000000000001,-22.904175944814945
-0.4507,-22.989058622806844
-0.4517000000000001,-23.031499961802798
-0.4527,-23.031499961802798
-0.4537000000000001,-23.073941300798747
-0.4547,-23.2012653177866
-0.4557000000000001,-23.300295108777156
-0.4567,-23.385177786769056
-0.4577000000000001,-23.427619125765005
-0.4587,-23.51250180375691
-0.4597000000000001,-23.682267159740714
-0.4607,-23.823738289727217
-0.4617000000000001,-23.86617962872317
-0.4627,-23.908620967719123
-0.4637000000000001,-24.035944984706973
-0.4647,-24.20571034069078
-0.4657000000000001,-24.34718147067728
-0.4667,-24.432064148669184
-0.4677000000000001,-24.559388165657033
-0.4687,-24.686712182644893
-0.4697000000000001,-24.870624651627345
-0.4707,-24.997948668615198
-0.4717000000000001,-25.0828313466071
-0.4727,-25.167714024599
-0.4737000000000001,-25.337479380582806
-0.4747,-25.563833188561212
-0.4757000000000001,-25.73359854454502
-0.4767,-25.81848122253692
-0.4777000000000001,-25.91751101352747
-0.4787,-26.044835030515326
-0.4797000000000001,-26.257041725495082
-0.4807,-26.483395533473487
-0.48170000000000013,-26.568278211465387
-0.4827,-26.65316088945729
-0.48370000000000013,-26.780484906445146
-0.4847,-27.00683871442355
-0.48570000000000013,-27.176604070407354
-0.4867,-27.303928087395207
-0.4876999999999999,-27.38881076538711
-0.4887,-27.615164573365515
-0.4896999999999999,-27.827371268345274
-0.4907,-28.09616641531963
-0.4916999999999999,-28.265931771303435
-0.4927,-28.350814449295335
-0.4936999999999999,-28.577168257273744
-0.49470000000000003,-28.8742576302454
-0.4956999999999999,-29.058170099227848
-0.49670000000000003,-29.14305277721976
-0.4976999999999999,-29.27037679420761
-0.49870000000000003,-29.440142150191413
-0.4996999999999999,-29.66649595816982
-0.5007,-29.878702653149578
-0.5016999999999999,-30.04846800913338
-0.5027,-30.189939139119886
-0.5036999999999999,-30.444587173095588
-0.5047,-30.670940981073993
-0.5056999999999999,-30.88314767605375
-0.5067,-31.052913032037555
