Aug. 10, 2024   14:52:07
Cyclic Voltammetry
File: c:/users/guazh/data/20240802_batch_500/2024-08-02-exp74\exp74-2024-08-10t14_18_06-h2koh\exp74_cv_sr_400mvs_efin_-2100mv.bin
Data Source:  Experiment
Instrument Model:  CHI760E
Header: CV ran at 400 mVs
Note: 

Init E (V) = -1
High E (V) = -1
Low E (V) = -2.1
Final E (V) = -1
Init P/N = N
Scan Rate (V/s) = 0.4
Segment = 3
Sample Interval (V) = 0.001
Quiet Time (sec) = 2
Sensitivity (A/V) = 0.01
Comp R (ohm) = 2.2

Results:

Channel 1:
Segment 1:

Segment 2:

Segment 3:

Potential/V, Current/A

-1.000, 1.559e-7
-1.001, 1.559e-7
-1.002, 1.559e-7
-1.003, 1.559e-7
-1.004, 1.559e-7
-1.005, 3.239e-6
-1.006, 1.559e-7
-1.007, 3.239e-6
-1.008, 1.559e-7
-1.009, 3.239e-6
-1.010, 3.239e-6
-1.011, 3.239e-6
-1.012, 3.239e-6
-1.013, 3.239e-6
-1.014, 3.239e-6
-1.015, 3.239e-6
-1.016, 3.239e-6
-1.017, 3.239e-6
-1.018, 3.239e-6
-1.019, 3.239e-6
-1.020, 3.239e-6
-1.021, 3.239e-6
-1.022, 3.239e-6
-1.023, 6.322e-6
-1.024, 6.322e-6
-1.025, 3.239e-6
-1.026, 3.239e-6
-1.027, 6.322e-6
-1.028, 3.239e-6
-1.029, 3.239e-6
-1.030, 6.322e-6
-1.031, 6.322e-6
-1.032, 3.239e-6
-1.033, 6.322e-6
-1.034, 6.322e-6
-1.035, 6.322e-6
-1.036, 6.322e-6
-1.037, 6.322e-6
-1.038, 6.322e-6
-1.039, 6.322e-6
-1.040, 6.322e-6
-1.041, 6.322e-6
-1.042, 6.322e-6
-1.043, 6.322e-6
-1.044, 6.322e-6
-1.045, 6.322e-6
-1.046, 6.322e-6
-1.047, 6.322e-6
-1.048, 6.322e-6
-1.049, 6.322e-6
-1.050, 6.322e-6
-1.051, 6.322e-6
-1.052, 6.322e-6
-1.053, 6.322e-6
-1.054, 6.322e-6
-1.055, 6.322e-6
-1.056, 6.322e-6
-1.057, 6.322e-6
-1.058, 6.322e-6
-1.059, 6.322e-6
-1.060, 6.322e-6
-1.061, 6.322e-6
-1.062, 6.322e-6
-1.063, 6.322e-6
-1.064, 6.322e-6
-1.065, 6.322e-6
-1.066, 6.322e-6
-1.067, 6.322e-6
-1.068, 9.405e-6
-1.069, 9.405e-6
-1.070, 9.405e-6
-1.071, 9.405e-6
-1.072, 9.405e-6
-1.073, 9.405e-6
-1.074, 9.405e-6
-1.075, 9.405e-6
-1.076, 9.405e-6
-1.077, 9.405e-6
-1.078, 6.322e-6
-1.079, 9.405e-6
-1.080, 9.405e-6
-1.081, 9.405e-6
-1.082, 9.405e-6
-1.083, 9.405e-6
-1.084, 9.405e-6
-1.085, 9.405e-6
-1.086, 9.405e-6
-1.087, 9.405e-6
-1.088, 9.405e-6
-1.089, 9.405e-6
-1.090, 9.405e-6
-1.091, 9.405e-6
-1.092, 9.405e-6
-1.093, 9.405e-6
-1.094, 9.405e-6
-1.095, 9.405e-6
-1.096, 9.405e-6
-1.097, 9.405e-6
-1.098, 9.405e-6
-1.099, 9.405e-6
-1.100, 9.405e-6
-1.101, 9.405e-6
-1.102, 9.405e-6
-1.103, 9.405e-6
-1.104, 9.405e-6
-1.105, 9.405e-6
-1.106, 9.405e-6
-1.107, 9.405e-6
-1.108, 9.405e-6
-1.109, 9.405e-6
-1.110, 9.405e-6
-1.111, 9.405e-6
-1.112, 9.405e-6
-1.113, 9.405e-6
-1.114, 9.405e-6
-1.115, 9.405e-6
-1.116, 9.405e-6
-1.117, 9.405e-6
-1.118, 9.405e-6
-1.119, 9.405e-6
-1.120, 9.405e-6
-1.121, 9.405e-6
-1.122, 9.405e-6
-1.123, 9.405e-6
-1.124, 9.405e-6
-1.125, 9.405e-6
-1.126, 9.405e-6
-1.127, 9.405e-6
-1.128, 9.405e-6
-1.129, 9.405e-6
-1.130, 9.405e-6
-1.131, 9.405e-6
-1.132, 9.405e-6
-1.133, 9.405e-6
-1.134, 9.405e-6
-1.135, 9.405e-6
-1.136, 9.405e-6
-1.137, 1.249e-5
-1.138, 9.405e-6
-1.139, 9.405e-6
-1.140, 9.405e-6
-1.141, 9.405e-6
-1.142, 9.405e-6
-1.143, 9.405e-6
-1.144, 9.405e-6
-1.145, 9.405e-6
-1.146, 9.405e-6
-1.147, 9.405e-6
-1.148, 9.405e-6
-1.149, 9.405e-6
-1.150, 9.405e-6
-1.151, 9.405e-6
-1.152, 1.249e-5
-1.153, 1.249e-5
-1.154, 9.405e-6
-1.155, 9.405e-6
-1.156, 9.405e-6
-1.157, 9.405e-6
-1.158, 9.405e-6
-1.159, 9.405e-6
-1.160, 9.405e-6
-1.161, 9.405e-6
-1.162, 9.405e-6
-1.163, 9.405e-6
-1.164, 9.405e-6
-1.165, 1.249e-5
-1.166, 1.249e-5
-1.167, 9.405e-6
-1.168, 9.405e-6
-1.169, 9.405e-6
-1.170, 9.405e-6
-1.171, 1.249e-5
-1.172, 1.249e-5
-1.173, 9.405e-6
-1.174, 9.405e-6
-1.175, 1.249e-5
-1.176, 9.405e-6
-1.177, 9.405e-6
-1.178, 9.405e-6
-1.179, 1.249e-5
-1.180, 9.405e-6
-1.181, 1.249e-5
-1.182, 9.405e-6
-1.183, 1.249e-5
-1.184, 9.405e-6
-1.185, 1.249e-5
-1.186, 1.249e-5
-1.187, 9.405e-6
-1.188, 1.249e-5
-1.189, 9.405e-6
-1.190, 1.249e-5
-1.191, 9.405e-6
-1.192, 1.249e-5
-1.193, 1.249e-5
-1.194, 9.405e-6
-1.195, 9.405e-6
-1.196, 1.249e-5
-1.197, 9.405e-6
-1.198, 1.249e-5
-1.199, 9.405e-6
-1.200, 1.249e-5
-1.201, 1.249e-5
-1.202, 9.405e-6
-1.203, 1.249e-5
-1.204, 9.405e-6
-1.205, 1.249e-5
-1.206, 1.249e-5
-1.207, 1.249e-5
-1.208, 1.249e-5
-1.209, 9.405e-6
-1.210, 1.249e-5
-1.211, 1.249e-5
-1.212, 1.249e-5
-1.213, 1.249e-5
-1.214, 9.405e-6
-1.215, 1.249e-5
-1.216, 9.405e-6
-1.217, 1.249e-5
-1.218, 9.405e-6
-1.219, 1.249e-5
-1.220, 9.405e-6
-1.221, 9.405e-6
-1.222, 1.249e-5
-1.223, 1.249e-5
-1.224, 9.405e-6
-1.225, 1.249e-5
-1.226, 9.405e-6
-1.227, 9.405e-6
-1.228, 9.405e-6
-1.229, 1.249e-5
-1.230, 1.249e-5
-1.231, 9.405e-6
-1.232, 9.405e-6
-1.233, 1.249e-5
-1.234, 9.405e-6
-1.235, 1.249e-5
-1.236, 1.249e-5
-1.237, 1.249e-5
-1.238, 9.405e-6
-1.239, 1.249e-5
-1.240, 1.249e-5
-1.241, 1.249e-5
-1.242, 9.405e-6
-1.243, 1.249e-5
-1.244, 1.249e-5
-1.245, 1.249e-5
-1.246, 1.249e-5
-1.247, 1.249e-5
-1.248, 1.249e-5
-1.249, 1.249e-5
-1.250, 1.249e-5
-1.251, 1.249e-5
-1.252, 1.249e-5
-1.253, 1.249e-5
-1.254, 1.249e-5
-1.255, 1.249e-5
-1.256, 1.249e-5
-1.257, 1.249e-5
-1.258, 1.249e-5
-1.259, 1.249e-5
-1.260, 1.249e-5
-1.261, 9.405e-6
-1.262, 1.249e-5
-1.263, 9.405e-6
-1.264, 9.405e-6
-1.265, 9.405e-6
-1.266, 1.249e-5
-1.267, 1.249e-5
-1.268, 1.249e-5
-1.269, 1.249e-5
-1.270, 1.249e-5
-1.271, 9.405e-6
-1.272, 1.249e-5
-1.273, 1.249e-5
-1.274, 1.249e-5
-1.275, 1.249e-5
-1.276, 1.249e-5
-1.277, 1.249e-5
-1.278, 1.249e-5
-1.279, 1.249e-5
-1.280, 1.249e-5
-1.281, 1.249e-5
-1.282, 9.405e-6
-1.283, 1.249e-5
-1.284, 1.249e-5
-1.285, 1.249e-5
-1.286, 1.249e-5
-1.287, 1.249e-5
-1.288, 1.249e-5
-1.289, 1.249e-5
-1.290, 1.249e-5
-1.291, 1.249e-5
-1.292, 1.249e-5
-1.293, 1.249e-5
-1.294, 1.249e-5
-1.295, 1.249e-5
-1.296, 1.249e-5
-1.297, 1.249e-5
-1.298, 9.405e-6
-1.299, 1.249e-5
-1.300, 1.249e-5
-1.301, 1.249e-5
-1.302, 1.249e-5
-1.303, 1.249e-5
-1.304, 1.249e-5
-1.305, 1.249e-5
-1.306, 1.249e-5
-1.307, 1.249e-5
-1.308, 1.249e-5
-1.309, 1.249e-5
-1.310, 1.249e-5
-1.311, 1.249e-5
-1.312, 1.249e-5
-1.313, 1.249e-5
-1.314, 1.249e-5
-1.315, 1.249e-5
-1.316, 1.249e-5
-1.317, 1.249e-5
-1.318, 1.249e-5
-1.319, 1.249e-5
-1.320, 1.249e-5
-1.321, 1.249e-5
-1.322, 1.249e-5
-1.323, 1.249e-5
-1.324, 1.249e-5
-1.325, 1.249e-5
-1.326, 1.249e-5
-1.327, 1.249e-5
-1.328, 1.249e-5
-1.329, 1.249e-5
-1.330, 1.249e-5
-1.331, 1.249e-5
-1.332, 1.249e-5
-1.333, 1.249e-5
-1.334, 1.249e-5
-1.335, 1.249e-5
-1.336, 1.249e-5
-1.337, 1.249e-5
-1.338, 1.249e-5
-1.339, 1.249e-5
-1.340, 1.249e-5
-1.341, 1.249e-5
-1.342, 1.249e-5
-1.343, 1.249e-5
-1.344, 1.249e-5
-1.345, 1.249e-5
-1.346, 1.249e-5
-1.347, 1.249e-5
-1.348, 1.249e-5
-1.349, 1.249e-5
-1.350, 1.249e-5
-1.351, 1.249e-5
-1.352, 1.249e-5
-1.353, 1.249e-5
-1.354, 1.249e-5
-1.355, 1.249e-5
-1.356, 1.249e-5
-1.357, 1.249e-5
-1.358, 1.249e-5
-1.359, 1.249e-5
-1.360, 1.249e-5
-1.361, 1.249e-5
-1.362, 1.249e-5
-1.363, 1.249e-5
-1.364, 1.249e-5
-1.365, 1.249e-5
-1.366, 1.249e-5
-1.367, 1.249e-5
-1.368, 1.249e-5
-1.369, 1.249e-5
-1.370, 1.249e-5
-1.371, 1.249e-5
-1.372, 1.249e-5
-1.373, 1.249e-5
-1.374, 1.249e-5
-1.375, 1.249e-5
-1.376, 1.249e-5
-1.377, 1.249e-5
-1.378, 1.249e-5
-1.379, 1.249e-5
-1.380, 1.249e-5
-1.381, 1.249e-5
-1.382, 1.557e-5
-1.383, 1.249e-5
-1.384, 1.249e-5
-1.385, 1.249e-5
-1.386, 1.557e-5
-1.387, 1.249e-5
-1.388, 1.249e-5
-1.389, 1.249e-5
-1.390, 1.557e-5
-1.391, 1.249e-5
-1.392, 1.557e-5
-1.393, 1.249e-5
-1.394, 1.249e-5
-1.395, 1.249e-5
-1.396, 1.557e-5
-1.397, 1.249e-5
-1.398, 1.557e-5
-1.399, 1.557e-5
-1.400, 1.557e-5
-1.401, 1.557e-5
-1.402, 1.557e-5
-1.403, 1.557e-5
-1.404, 1.557e-5
-1.405, 1.557e-5
-1.406, 1.557e-5
-1.407, 1.249e-5
-1.408, 1.557e-5
-1.409, 1.557e-5
-1.410, 1.557e-5
-1.411, 1.557e-5
-1.412, 1.557e-5
-1.413, 1.557e-5
-1.414, 1.557e-5
-1.415, 1.557e-5
-1.416, 1.557e-5
-1.417, 1.557e-5
-1.418, 1.557e-5
-1.419, 1.557e-5
-1.420, 1.557e-5
-1.421, 1.557e-5
-1.422, 1.557e-5
-1.423, 1.557e-5
-1.424, 1.557e-5
-1.425, 1.557e-5
-1.426, 1.557e-5
-1.427, 1.557e-5
-1.428, 1.557e-5
-1.429, 1.557e-5
-1.430, 1.557e-5
-1.431, 1.557e-5
-1.432, 1.557e-5
-1.433, 1.557e-5
-1.434, 1.557e-5
-1.435, 1.557e-5
-1.436, 1.557e-5
-1.437, 1.557e-5
-1.438, 1.557e-5
-1.439, 1.557e-5
-1.440, 1.557e-5
-1.441, 1.557e-5
-1.442, 1.557e-5
-1.443, 1.557e-5
-1.444, 1.557e-5
-1.445, 1.557e-5
-1.446, 1.557e-5
-1.447, 1.557e-5
-1.448, 1.557e-5
-1.449, 1.557e-5
-1.450, 1.557e-5
-1.451, 1.557e-5
-1.452, 1.557e-5
-1.453, 1.557e-5
-1.454, 1.557e-5
-1.455, 1.865e-5
-1.456, 1.865e-5
-1.457, 1.865e-5
-1.458, 1.557e-5
-1.459, 1.557e-5
-1.460, 1.557e-5
-1.461, 1.557e-5
-1.462, 1.557e-5
-1.463, 1.557e-5
-1.464, 1.865e-5
-1.465, 1.865e-5
-1.466, 1.865e-5
-1.467, 1.865e-5
-1.468, 1.865e-5
-1.469, 1.557e-5
-1.470, 1.865e-5
-1.471, 1.557e-5
-1.472, 1.865e-5
-1.473, 1.865e-5
-1.474, 1.865e-5
-1.475, 1.865e-5
-1.476, 1.865e-5
-1.477, 1.865e-5
-1.478, 1.865e-5
-1.479, 1.865e-5
-1.480, 1.865e-5
-1.481, 1.865e-5
-1.482, 1.865e-5
-1.483, 1.865e-5
-1.484, 1.865e-5
-1.485, 1.865e-5
-1.486, 1.865e-5
-1.487, 1.865e-5
-1.488, 1.865e-5
-1.489, 1.865e-5
-1.490, 1.865e-5
-1.491, 1.865e-5
-1.492, 1.865e-5
-1.493, 1.865e-5
-1.494, 1.865e-5
-1.495, 1.865e-5
-1.496, 1.865e-5
-1.497, 1.865e-5
-1.498, 1.865e-5
-1.499, 1.865e-5
-1.500, 1.865e-5
-1.501, 1.865e-5
-1.502, 1.865e-5
-1.503, 2.174e-5
-1.504, 1.865e-5
-1.505, 1.865e-5
-1.506, 1.865e-5
-1.507, 1.865e-5
-1.508, 1.865e-5
-1.509, 1.865e-5
-1.510, 1.865e-5
-1.511, 1.865e-5
-1.512, 1.865e-5
-1.513, 1.865e-5
-1.514, 2.174e-5
-1.515, 2.174e-5
-1.516, 2.174e-5
-1.517, 2.174e-5
-1.518, 2.174e-5
-1.519, 2.174e-5
-1.520, 2.174e-5
-1.521, 2.174e-5
-1.522, 1.865e-5
-1.523, 2.174e-5
-1.524, 2.174e-5
-1.525, 2.174e-5
-1.526, 2.174e-5
-1.527, 2.174e-5
-1.528, 2.174e-5
-1.529, 2.174e-5
-1.530, 2.174e-5
-1.531, 2.174e-5
-1.532, 2.174e-5
-1.533, 2.174e-5
-1.534, 2.174e-5
-1.535, 2.174e-5
-1.536, 2.174e-5
-1.537, 2.174e-5
-1.538, 2.174e-5
-1.539, 2.174e-5
-1.540, 2.174e-5
-1.541, 2.174e-5
-1.542, 2.174e-5
-1.543, 2.174e-5
-1.544, 2.174e-5
-1.545, 2.174e-5
-1.546, 2.174e-5
-1.547, 2.174e-5
-1.548, 2.174e-5
-1.549, 2.174e-5
-1.550, 2.482e-5
-1.551, 2.482e-5
-1.552, 2.482e-5
-1.553, 2.482e-5
-1.554, 2.482e-5
-1.555, 2.482e-5
-1.556, 2.482e-5
-1.557, 2.482e-5
-1.558, 2.482e-5
-1.559, 2.482e-5
-1.560, 2.482e-5
-1.561, 2.482e-5
-1.562, 2.482e-5
-1.563, 2.482e-5
-1.564, 2.482e-5
-1.565, 2.482e-5
-1.566, 2.482e-5
-1.567, 2.482e-5
-1.568, 2.482e-5
-1.569, 2.482e-5
-1.570, 2.482e-5
-1.571, 2.482e-5
-1.572, 2.482e-5
-1.573, 2.790e-5
-1.574, 2.482e-5
-1.575, 2.790e-5
-1.576, 2.790e-5
-1.577, 2.790e-5
-1.578, 2.482e-5
-1.579, 2.790e-5
-1.580, 2.482e-5
-1.581, 2.482e-5
-1.582, 2.482e-5
-1.583, 2.790e-5
-1.584, 2.790e-5
-1.585, 2.790e-5
-1.586, 2.790e-5
-1.587, 2.790e-5
-1.588, 2.790e-5
-1.589, 2.790e-5
-1.590, 2.790e-5
-1.591, 2.790e-5
-1.592, 2.790e-5
-1.593, 2.790e-5
-1.594, 2.790e-5
-1.595, 2.790e-5
-1.596, 3.099e-5
-1.597, 3.099e-5
-1.598, 3.099e-5
-1.599, 3.099e-5
-1.600, 3.099e-5
-1.601, 2.790e-5
-1.602, 3.099e-5
-1.603, 3.099e-5
-1.604, 3.099e-5
-1.605, 3.099e-5
-1.606, 3.099e-5
-1.607, 3.099e-5
-1.608, 3.099e-5
-1.609, 3.099e-5
-1.610, 3.407e-5
-1.611, 3.099e-5
-1.612, 3.099e-5
-1.613, 3.099e-5
-1.614, 3.099e-5
-1.615, 3.407e-5
-1.616, 3.407e-5
-1.617, 3.099e-5
-1.618, 3.099e-5
-1.619, 3.407e-5
-1.620, 3.407e-5
-1.621, 3.407e-5
-1.622, 3.407e-5
-1.623, 3.407e-5
-1.624, 3.407e-5
-1.625, 3.407e-5
-1.626, 3.407e-5
-1.627, 3.407e-5
-1.628, 3.407e-5
-1.629, 3.407e-5
-1.630, 3.715e-5
-1.631, 3.715e-5
-1.632, 3.715e-5
-1.633, 3.715e-5
-1.634, 3.715e-5
-1.635, 3.715e-5
-1.636, 3.715e-5
-1.637, 3.715e-5
-1.638, 3.715e-5
-1.639, 3.715e-5
-1.640, 3.715e-5
-1.641, 3.715e-5
-1.642, 4.024e-5
-1.643, 4.024e-5
-1.644, 4.024e-5
-1.645, 4.024e-5
-1.646, 4.024e-5
-1.647, 4.024e-5
-1.648, 4.024e-5
-1.649, 4.024e-5
-1.650, 4.024e-5
-1.651, 4.024e-5
-1.652, 4.024e-5
-1.653, 4.332e-5
-1.654, 4.024e-5
-1.655, 4.332e-5
-1.656, 4.332e-5
-1.657, 4.332e-5
-1.658, 4.332e-5
-1.659, 4.332e-5
-1.660, 4.332e-5
-1.661, 4.332e-5
-1.662, 4.640e-5
-1.663, 4.640e-5
-1.664, 4.640e-5
-1.665, 4.640e-5
-1.666, 4.640e-5
-1.667, 4.640e-5
-1.668, 4.640e-5
-1.669, 4.640e-5
-1.670, 4.949e-5
-1.671, 4.949e-5
-1.672, 4.949e-5
-1.673, 4.949e-5
-1.674, 4.949e-5
-1.675, 4.949e-5
-1.676, 5.257e-5
-1.677, 5.257e-5
-1.678, 5.257e-5
-1.679, 5.257e-5
-1.680, 5.257e-5
-1.681, 5.257e-5
-1.682, 5.257e-5
-1.683, 5.257e-5
-1.684, 5.257e-5
-1.685, 5.565e-5
-1.686, 5.565e-5
-1.687, 5.565e-5
-1.688, 5.565e-5
-1.689, 5.565e-5
-1.690, 5.565e-5
-1.691, 5.565e-5
-1.692, 5.873e-5
-1.693, 5.873e-5
-1.694, 5.873e-5
-1.695, 5.873e-5
-1.696, 5.873e-5
-1.697, 6.182e-5
-1.698, 6.182e-5
-1.699, 6.182e-5
-1.700, 6.182e-5
-1.701, 6.182e-5
-1.702, 6.182e-5
-1.703, 6.490e-5
-1.704, 6.490e-5
-1.705, 6.490e-5
-1.706, 6.490e-5
-1.707, 6.490e-5
-1.708, 6.798e-5
-1.709, 6.798e-5
-1.710, 6.798e-5
-1.711, 6.798e-5
-1.712, 6.798e-5
-1.713, 6.798e-5
-1.714, 6.798e-5
-1.715, 7.107e-5
-1.716, 7.107e-5
-1.717, 7.415e-5
-1.718, 7.415e-5
-1.719, 7.415e-5
-1.720, 7.415e-5
-1.721, 7.415e-5
-1.722, 7.415e-5
-1.723, 7.723e-5
-1.724, 7.723e-5
-1.725, 7.723e-5
-1.726, 7.723e-5
-1.727, 8.032e-5
-1.728, 8.032e-5
-1.729, 8.032e-5
-1.730, 8.032e-5
-1.731, 8.340e-5
-1.732, 8.340e-5
-1.733, 8.340e-5
-1.734, 8.340e-5
-1.735, 8.648e-5
-1.736, 8.648e-5
-1.737, 8.648e-5
-1.738, 8.957e-5
-1.739, 8.957e-5
-1.740, 8.957e-5
-1.741, 8.957e-5
-1.742, 9.265e-5
-1.743, 9.265e-5
-1.744, 9.265e-5
-1.745, 9.573e-5
-1.746, 9.573e-5
-1.747, 9.573e-5
-1.748, 9.573e-5
-1.749, 9.882e-5
-1.750, 9.882e-5
-1.751, 1.019e-4
-1.752, 1.019e-4
-1.753, 1.019e-4
-1.754, 1.019e-4
-1.755, 1.050e-4
-1.756, 1.050e-4
-1.757, 1.081e-4
-1.758, 1.081e-4
-1.759, 1.081e-4
-1.760, 1.111e-4
-1.761, 1.111e-4
-1.762, 1.111e-4
-1.763, 1.142e-4
-1.764, 1.142e-4
-1.765, 1.142e-4
-1.766, 1.173e-4
-1.767, 1.173e-4
-1.768, 1.173e-4
-1.769, 1.204e-4
-1.770, 1.235e-4
-1.771, 1.235e-4
-1.772, 1.235e-4
-1.773, 1.266e-4
-1.774, 1.266e-4
-1.775, 1.296e-4
-1.776, 1.296e-4
-1.777, 1.296e-4
-1.778, 1.327e-4
-1.779, 1.327e-4
-1.780, 1.358e-4
-1.781, 1.358e-4
-1.782, 1.358e-4
-1.783, 1.389e-4
-1.784, 1.389e-4
-1.785, 1.420e-4
-1.786, 1.451e-4
-1.787, 1.451e-4
-1.788, 1.451e-4
-1.789, 1.481e-4
-1.790, 1.512e-4
-1.791, 1.512e-4
-1.792, 1.543e-4
-1.793, 1.543e-4
-1.794, 1.574e-4
-1.795, 1.605e-4
-1.796, 1.605e-4
-1.797, 1.636e-4
-1.798, 1.636e-4
-1.799, 1.666e-4
-1.800, 1.666e-4
-1.801, 1.697e-4
-1.802, 1.697e-4
-1.803, 1.728e-4
-1.804, 1.759e-4
-1.805, 1.759e-4
-1.806, 1.790e-4
-1.807, 1.790e-4
-1.808, 1.821e-4
-1.809, 1.851e-4
-1.810, 1.882e-4
-1.811, 1.882e-4
-1.812, 1.913e-4
-1.813, 1.913e-4
-1.814, 1.944e-4
-1.815, 1.944e-4
-1.816, 1.975e-4
-1.817, 2.006e-4
-1.818, 2.036e-4
-1.819, 2.067e-4
-1.820, 2.067e-4
-1.821, 2.098e-4
-1.822, 2.129e-4
-1.823, 2.160e-4
-1.824, 2.160e-4
-1.825, 2.191e-4
-1.826, 2.221e-4
-1.827, 2.221e-4
-1.828, 2.252e-4
-1.829, 2.283e-4
-1.830, 2.314e-4
-1.831, 2.345e-4
-1.832, 2.345e-4
-1.833, 2.376e-4
-1.834, 2.406e-4
-1.835, 2.437e-4
-1.836, 2.468e-4
-1.837, 2.468e-4
-1.838, 2.530e-4
-1.839, 2.530e-4
-1.840, 2.561e-4
-1.841, 2.591e-4
-1.842, 2.622e-4
-1.843, 2.653e-4
-1.844, 2.684e-4
-1.845, 2.715e-4
-1.846, 2.746e-4
-1.847, 2.776e-4
-1.848, 2.776e-4
-1.849, 2.838e-4
-1.850, 2.869e-4
-1.851, 2.900e-4
-1.852, 2.931e-4
-1.853, 2.961e-4
-1.854, 2.992e-4
-1.855, 3.023e-4
-1.856, 3.085e-4
-1.857, 3.115e-4
-1.858, 3.146e-4
-1.859, 3.177e-4
-1.860, 3.208e-4
-1.861, 3.239e-4
-1.862, 3.270e-4
-1.863, 3.331e-4
-1.864, 3.362e-4
-1.865, 3.393e-4
-1.866, 3.424e-4
-1.867, 3.455e-4
-1.868, 3.485e-4
-1.869, 3.547e-4
-1.870, 3.578e-4
-1.871, 3.640e-4
-1.872, 3.670e-4
-1.873, 3.701e-4
-1.874, 3.732e-4
-1.875, 3.763e-4
-1.876, 3.825e-4
-1.877, 3.886e-4
-1.878, 3.917e-4
-1.879, 3.948e-4
-1.880, 4.010e-4
-1.881, 4.040e-4
-1.882, 4.071e-4
-1.883, 4.133e-4
-1.884, 4.195e-4
-1.885, 4.225e-4
-1.886, 4.256e-4
-1.887, 4.318e-4
-1.888, 4.380e-4
-1.889, 4.410e-4
-1.890, 4.472e-4
-1.891, 4.534e-4
-1.892, 4.595e-4
-1.893, 4.626e-4
-1.894, 4.688e-4
-1.895, 4.750e-4
-1.896, 4.811e-4
-1.897, 4.873e-4
-1.898, 4.935e-4
-1.899, 4.965e-4
-1.900, 5.027e-4
-1.901, 5.089e-4
-1.902, 5.150e-4
-1.903, 5.212e-4
-1.904, 5.274e-4
-1.905, 5.335e-4
-1.906, 5.397e-4
-1.907, 5.459e-4
-1.908, 5.520e-4
-1.909, 5.582e-4
-1.910, 5.674e-4
-1.911, 5.736e-4
-1.912, 5.798e-4
-1.913, 5.890e-4
-1.914, 5.921e-4
-1.915, 6.014e-4
-1.916, 6.075e-4
-1.917, 6.168e-4
-1.918, 6.229e-4
-1.919, 6.291e-4
-1.920, 6.353e-4
-1.921, 6.414e-4
-1.922, 6.507e-4
-1.923, 6.599e-4
-1.924, 6.661e-4
-1.925, 6.754e-4
-1.926, 6.846e-4
-1.927, 6.908e-4
-1.928, 7.000e-4
-1.929, 7.093e-4
-1.930, 7.154e-4
-1.931, 7.247e-4
-1.932, 7.339e-4
-1.933, 7.432e-4
-1.934, 7.494e-4
-1.935, 7.586e-4
-1.936, 7.709e-4
-1.937, 7.802e-4
-1.938, 7.925e-4
-1.939, 8.018e-4
-1.940, 8.079e-4
-1.941, 8.203e-4
-1.942, 8.295e-4
-1.943, 8.418e-4
-1.944, 8.511e-4
-1.945, 8.634e-4
-1.946, 8.727e-4
-1.947, 8.819e-4
-1.948, 8.943e-4
-1.949, 9.035e-4
-1.950, 9.189e-4
-1.951, 9.313e-4
-1.952, 9.405e-4
-1.953, 9.528e-4
-1.954, 9.621e-4
-1.955, 9.744e-4
-1.956, 9.898e-4
-1.957, 1.002e-3
-1.958, 1.014e-3
-1.959, 1.024e-3
-1.960, 1.036e-3
-1.961, 1.051e-3
-1.962, 1.064e-3
-1.963, 1.076e-3
-1.964, 1.088e-3
-1.965, 1.104e-3
-1.966, 1.116e-3
-1.967, 1.129e-3
-1.968, 1.144e-3
-1.969, 1.159e-3
-1.970, 1.175e-3
-1.971, 1.190e-3
-1.972, 1.203e-3
-1.973, 1.218e-3
-1.974, 1.230e-3
-1.975, 1.246e-3
-1.976, 1.264e-3
-1.977, 1.280e-3
-1.978, 1.295e-3
-1.979, 1.310e-3
-1.980, 1.326e-3
-1.981, 1.341e-3
-1.982, 1.360e-3
-1.983, 1.378e-3
-1.984, 1.394e-3
-1.985, 1.412e-3
-1.986, 1.428e-3
-1.987, 1.443e-3
-1.988, 1.462e-3
-1.989, 1.480e-3
-1.990, 1.499e-3
-1.991, 1.517e-3
-1.992, 1.539e-3
-1.993, 1.554e-3
-1.994, 1.573e-3
-1.995, 1.594e-3
-1.996, 1.613e-3
-1.997, 1.634e-3
-1.998, 1.656e-3
-1.999, 1.674e-3
-2.000, 1.696e-3
-2.001, 1.714e-3
-2.002, 1.736e-3
-2.003, 1.761e-3
-2.004, 1.782e-3
-2.005, 1.804e-3
-2.006, 1.825e-3
-2.007, 1.847e-3
-2.008, 1.869e-3
-2.009, 1.893e-3
-2.010, 1.918e-3
-2.011, 1.943e-3
-2.012, 1.964e-3
-2.013, 1.986e-3
-2.014, 2.010e-3
-2.015, 2.035e-3
-2.016, 2.060e-3
-2.017, 2.087e-3
-2.018, 2.112e-3
-2.019, 2.137e-3
-2.020, 2.164e-3
-2.021, 2.189e-3
-2.022, 2.214e-3
-2.023, 2.242e-3
-2.024, 2.269e-3
-2.025, 2.297e-3
-2.026, 2.322e-3
-2.027, 2.349e-3
-2.028, 2.377e-3
-2.029, 2.408e-3
-2.030, 2.436e-3
-2.031, 2.467e-3
-2.032, 2.491e-3
-2.033, 2.519e-3
-2.034, 2.547e-3
-2.035, 2.578e-3
-2.036, 2.605e-3
-2.037, 2.639e-3
-2.038, 2.670e-3
-2.039, 2.698e-3
-2.040, 2.729e-3
-2.041, 2.760e-3
-2.042, 2.790e-3
-2.043, 2.821e-3
-2.044, 2.855e-3
-2.045, 2.889e-3
-2.046, 2.920e-3
-2.047, 2.951e-3
-2.048, 2.985e-3
-2.049, 3.019e-3
-2.050, 3.056e-3
-2.051, 3.089e-3
-2.052, 3.123e-3
-2.053, 3.160e-3
-2.054, 3.194e-3
-2.055, 3.231e-3
-2.056, 3.268e-3
-2.057, 3.308e-3
-2.058, 3.345e-3
-2.059, 3.379e-3
-2.060, 3.416e-3
-2.061, 3.450e-3
-2.062, 3.490e-3
-2.063, 3.530e-3
-2.064, 3.570e-3
-2.065, 3.610e-3
-2.066, 3.647e-3
-2.067, 3.684e-3
-2.068, 3.721e-3
-2.069, 3.765e-3
-2.070, 3.808e-3
-2.071, 3.851e-3
-2.072, 3.891e-3
-2.073, 3.931e-3
-2.074, 3.971e-3
-2.075, 4.014e-3
-2.076, 4.058e-3
-2.077, 4.101e-3
-2.078, 4.144e-3
-2.079, 4.184e-3
-2.080, 4.227e-3
-2.081, 4.270e-3
-2.082, 4.310e-3
-2.083, 4.357e-3
-2.084, 4.403e-3
-2.085, 4.449e-3
-2.086, 4.489e-3
-2.087, 4.532e-3
-2.088, 4.575e-3
-2.089, 4.625e-3
-2.090, 4.671e-3
-2.091, 4.720e-3
-2.092, 4.767e-3
-2.093, 4.810e-3
-2.094, 4.856e-3
-2.095, 4.905e-3
-2.096, 4.958e-3
-2.097, 5.004e-3
-2.098, 5.053e-3
-2.099, 5.103e-3
-2.100, 5.121e-3
-2.099, 5.090e-3
-2.098, 5.056e-3
-2.097, 5.029e-3
-2.096, 4.998e-3
-2.095, 4.967e-3
-2.094, 4.933e-3
-2.093, 4.896e-3
-2.092, 4.856e-3
-2.091, 4.825e-3
-2.090, 4.794e-3
-2.089, 4.760e-3
-2.088, 4.730e-3
-2.087, 4.693e-3
-2.086, 4.659e-3
-2.085, 4.628e-3
-2.084, 4.597e-3
-2.083, 4.566e-3
-2.082, 4.535e-3
-2.081, 4.498e-3
-2.080, 4.461e-3
-2.079, 4.424e-3
-2.078, 4.391e-3
-2.077, 4.363e-3
-2.076, 4.335e-3
-2.075, 4.304e-3
-2.074, 4.270e-3
-2.073, 4.233e-3
-2.072, 4.202e-3
-2.071, 4.175e-3
-2.070, 4.144e-3
-2.069, 4.113e-3
-2.068, 4.082e-3
-2.067, 4.048e-3
-2.066, 4.011e-3
-2.065, 3.980e-3
-2.064, 3.947e-3
-2.063, 3.919e-3
-2.062, 3.885e-3
-2.061, 3.854e-3
-2.060, 3.817e-3
-2.059, 3.783e-3
-2.058, 3.755e-3
-2.057, 3.728e-3
-2.056, 3.697e-3
-2.055, 3.666e-3
-2.054, 3.635e-3
-2.053, 3.601e-3
-2.052, 3.567e-3
-2.051, 3.540e-3
-2.050, 3.512e-3
-2.049, 3.481e-3
-2.048, 3.450e-3
-2.047, 3.419e-3
-2.046, 3.385e-3
-2.045, 3.361e-3
-2.044, 3.330e-3
-2.043, 3.305e-3
-2.042, 3.278e-3
-2.041, 3.247e-3
-2.040, 3.216e-3
-2.039, 3.185e-3
-2.038, 3.157e-3
-2.037, 3.133e-3
-2.036, 3.105e-3
-2.035, 3.077e-3
-2.034, 3.049e-3
-2.033, 3.019e-3
-2.032, 2.991e-3
-2.031, 2.966e-3
-2.030, 2.938e-3
-2.029, 2.914e-3
-2.028, 2.886e-3
-2.027, 2.861e-3
-2.026, 2.830e-3
-2.025, 2.806e-3
-2.024, 2.781e-3
-2.023, 2.756e-3
-2.022, 2.732e-3
-2.021, 2.704e-3
-2.020, 2.679e-3
-2.019, 2.652e-3
-2.018, 2.627e-3
-2.017, 2.602e-3
-2.016, 2.581e-3
-2.015, 2.556e-3
-2.014, 2.531e-3
-2.013, 2.504e-3
-2.012, 2.479e-3
-2.011, 2.457e-3
-2.010, 2.436e-3
-2.009, 2.414e-3
-2.008, 2.390e-3
-2.007, 2.362e-3
-2.006, 2.340e-3
-2.005, 2.319e-3
-2.004, 2.297e-3
-2.003, 2.275e-3
-2.002, 2.254e-3
-2.001, 2.232e-3
-2.000, 2.208e-3
-1.999, 2.183e-3
-1.998, 2.161e-3
-1.997, 2.143e-3
-1.996, 2.121e-3
-1.995, 2.100e-3
-1.994, 2.078e-3
-1.993, 2.057e-3
-1.992, 2.035e-3
-1.991, 2.013e-3
-1.990, 1.995e-3
-1.989, 1.976e-3
-1.988, 1.958e-3
-1.987, 1.936e-3
-1.986, 1.915e-3
-1.985, 1.896e-3
-1.984, 1.878e-3
-1.983, 1.859e-3
-1.982, 1.841e-3
-1.981, 1.822e-3
-1.980, 1.801e-3
-1.979, 1.782e-3
-1.978, 1.764e-3
-1.977, 1.748e-3
-1.976, 1.730e-3
-1.975, 1.714e-3
-1.974, 1.693e-3
-1.973, 1.674e-3
-1.972, 1.656e-3
-1.971, 1.640e-3
-1.970, 1.625e-3
-1.969, 1.606e-3
-1.968, 1.588e-3
-1.967, 1.573e-3
-1.966, 1.554e-3
-1.965, 1.539e-3
-1.964, 1.523e-3
-1.963, 1.508e-3
-1.962, 1.492e-3
-1.961, 1.477e-3
-1.960, 1.458e-3
-1.959, 1.440e-3
-1.958, 1.428e-3
-1.957, 1.412e-3
-1.956, 1.397e-3
-1.955, 1.381e-3
-1.954, 1.366e-3
-1.953, 1.351e-3
-1.952, 1.338e-3
-1.951, 1.323e-3
-1.950, 1.307e-3
-1.949, 1.295e-3
-1.948, 1.283e-3
-1.947, 1.267e-3
-1.946, 1.252e-3
-1.945, 1.236e-3
-1.944, 1.224e-3
-1.943, 1.212e-3
-1.942, 1.199e-3
-1.941, 1.187e-3
-1.940, 1.172e-3
-1.939, 1.159e-3
-1.938, 1.147e-3
-1.937, 1.135e-3
-1.936, 1.125e-3
-1.935, 1.110e-3
-1.934, 1.098e-3
-1.933, 1.085e-3
-1.932, 1.073e-3
-1.931, 1.061e-3
-1.930, 1.048e-3
-1.929, 1.039e-3
-1.928, 1.027e-3
-1.927, 1.011e-3
-1.926, 1.002e-3
-1.925, 9.898e-4
-1.924, 9.806e-4
-1.923, 9.683e-4
-1.922, 9.590e-4
-1.921, 9.467e-4
-1.920, 9.343e-4
-1.919, 9.251e-4
-1.918, 9.128e-4
-1.917, 9.035e-4
-1.916, 8.943e-4
-1.915, 8.819e-4
-1.914, 8.727e-4
-1.913, 8.634e-4
-1.912, 8.511e-4
-1.911, 8.449e-4
-1.910, 8.326e-4
-1.909, 8.264e-4
-1.908, 8.141e-4
-1.907, 8.048e-4
-1.906, 7.956e-4
-1.905, 7.863e-4
-1.904, 7.771e-4
-1.903, 7.679e-4
-1.902, 7.617e-4
-1.901, 7.524e-4
-1.900, 7.401e-4
-1.899, 7.339e-4
-1.898, 7.247e-4
-1.897, 7.154e-4
-1.896, 7.093e-4
-1.895, 7.000e-4
-1.894, 6.908e-4
-1.893, 6.846e-4
-1.892, 6.754e-4
-1.891, 6.692e-4
-1.890, 6.599e-4
-1.889, 6.507e-4
-1.888, 6.445e-4
-1.887, 6.353e-4
-1.886, 6.291e-4
-1.885, 6.199e-4
-1.884, 6.137e-4
-1.883, 6.075e-4
-1.882, 5.983e-4
-1.881, 5.921e-4
-1.880, 5.859e-4
-1.879, 5.767e-4
-1.878, 5.705e-4
-1.877, 5.644e-4
-1.876, 5.582e-4
-1.875, 5.520e-4
-1.874, 5.459e-4
-1.873, 5.397e-4
-1.872, 5.305e-4
-1.871, 5.243e-4
-1.870, 5.181e-4
-1.869, 5.120e-4
-1.868, 5.058e-4
-1.867, 4.996e-4
-1.866, 4.935e-4
-1.865, 4.873e-4
-1.864, 4.842e-4
-1.863, 4.780e-4
-1.862, 4.719e-4
-1.861, 4.657e-4
-1.860, 4.595e-4
-1.859, 4.534e-4
-1.858, 4.503e-4
-1.857, 4.441e-4
-1.856, 4.410e-4
-1.855, 4.318e-4
-1.854, 4.287e-4
-1.853, 4.225e-4
-1.852, 4.164e-4
-1.851, 4.133e-4
-1.850, 4.071e-4
-1.849, 4.040e-4
-1.848, 3.979e-4
-1.847, 3.917e-4
-1.846, 3.886e-4
-1.845, 3.825e-4
-1.844, 3.794e-4
-1.843, 3.763e-4
-1.842, 3.701e-4
-1.841, 3.640e-4
-1.840, 3.609e-4
-1.839, 3.547e-4
-1.838, 3.516e-4
-1.837, 3.485e-4
-1.836, 3.424e-4
-1.835, 3.393e-4
-1.834, 3.362e-4
-1.833, 3.300e-4
-1.832, 3.270e-4
-1.831, 3.208e-4
-1.830, 3.177e-4
-1.829, 3.146e-4
-1.828, 3.085e-4
-1.827, 3.054e-4
-1.826, 3.023e-4
-1.825, 2.992e-4
-1.824, 2.961e-4
-1.823, 2.931e-4
-1.822, 2.869e-4
-1.821, 2.838e-4
-1.820, 2.807e-4
-1.819, 2.776e-4
-1.818, 2.746e-4
-1.817, 2.715e-4
-1.816, 2.684e-4
-1.815, 2.622e-4
-1.814, 2.591e-4
-1.813, 2.561e-4
-1.812, 2.530e-4
-1.811, 2.530e-4
-1.810, 2.468e-4
-1.809, 2.437e-4
-1.808, 2.406e-4
-1.807, 2.376e-4
-1.806, 2.345e-4
-1.805, 2.314e-4
-1.804, 2.314e-4
-1.803, 2.283e-4
-1.802, 2.252e-4
-1.801, 2.221e-4
-1.800, 2.191e-4
-1.799, 2.129e-4
-1.798, 2.129e-4
-1.797, 2.129e-4
-1.796, 2.098e-4
-1.795, 2.067e-4
-1.794, 2.036e-4
-1.793, 1.975e-4
-1.792, 1.975e-4
-1.791, 1.944e-4
-1.790, 1.913e-4
-1.789, 1.913e-4
-1.788, 1.882e-4
-1.787, 1.851e-4
-1.786, 1.821e-4
-1.785, 1.821e-4
-1.784, 1.790e-4
-1.783, 1.759e-4
-1.782, 1.728e-4
-1.781, 1.728e-4
-1.780, 1.697e-4
-1.779, 1.666e-4
-1.778, 1.666e-4
-1.777, 1.636e-4
-1.776, 1.605e-4
-1.775, 1.605e-4
-1.774, 1.574e-4
-1.773, 1.543e-4
-1.772, 1.543e-4
-1.771, 1.512e-4
-1.770, 1.481e-4
-1.769, 1.481e-4
-1.768, 1.451e-4
-1.767, 1.451e-4
-1.766, 1.420e-4
-1.765, 1.389e-4
-1.764, 1.389e-4
-1.763, 1.358e-4
-1.762, 1.327e-4
-1.761, 1.327e-4
-1.760, 1.296e-4
-1.759, 1.296e-4
-1.758, 1.266e-4
-1.757, 1.266e-4
-1.756, 1.235e-4
-1.755, 1.235e-4
-1.754, 1.204e-4
-1.753, 1.204e-4
-1.752, 1.173e-4
-1.751, 1.173e-4
-1.750, 1.173e-4
-1.749, 1.142e-4
-1.748, 1.111e-4
-1.747, 1.111e-4
-1.746, 1.081e-4
-1.745, 1.081e-4
-1.744, 1.081e-4
-1.743, 1.050e-4
-1.742, 1.050e-4
-1.741, 1.019e-4
-1.740, 1.019e-4
-1.739, 9.882e-5
-1.738, 9.882e-5
-1.737, 9.882e-5
-1.736, 9.573e-5
-1.735, 9.573e-5
-1.734, 9.265e-5
-1.733, 9.265e-5
-1.732, 9.265e-5
-1.731, 8.957e-5
-1.730, 8.957e-5
-1.729, 8.957e-5
-1.728, 8.648e-5
-1.727, 8.648e-5
-1.726, 8.340e-5
-1.725, 8.340e-5
-1.724, 8.340e-5
-1.723, 8.032e-5
-1.722, 8.032e-5
-1.721, 7.723e-5
-1.720, 7.723e-5
-1.719, 7.723e-5
-1.718, 7.723e-5
-1.717, 7.415e-5
-1.716, 7.415e-5
-1.715, 7.415e-5
-1.714, 7.107e-5
-1.713, 7.107e-5
-1.712, 7.107e-5
-1.711, 6.798e-5
-1.710, 6.798e-5
-1.709, 6.798e-5
-1.708, 6.490e-5
-1.707, 6.490e-5
-1.706, 6.490e-5
-1.705, 6.490e-5
-1.704, 6.490e-5
-1.703, 6.182e-5
-1.702, 6.182e-5
-1.701, 6.182e-5
-1.700, 5.873e-5
-1.699, 5.873e-5
-1.698, 5.873e-5
-1.697, 5.873e-5
-1.696, 5.565e-5
-1.695, 5.565e-5
-1.694, 5.565e-5
-1.693, 5.565e-5
-1.692, 5.257e-5
-1.691, 5.257e-5
-1.690, 5.257e-5
-1.689, 4.949e-5
-1.688, 4.949e-5
-1.687, 4.949e-5
-1.686, 4.949e-5
-1.685, 4.949e-5
-1.684, 4.949e-5
-1.683, 4.640e-5
-1.682, 4.640e-5
-1.681, 4.640e-5
-1.680, 4.332e-5
-1.679, 4.640e-5
-1.678, 4.332e-5
-1.677, 4.332e-5
-1.676, 4.332e-5
-1.675, 4.332e-5
-1.674, 4.024e-5
-1.673, 4.024e-5
-1.672, 4.024e-5
-1.671, 4.024e-5
-1.670, 4.024e-5
-1.669, 4.024e-5
-1.668, 3.715e-5
-1.667, 3.715e-5
-1.666, 3.715e-5
-1.665, 3.715e-5
-1.664, 3.715e-5
-1.663, 3.407e-5
-1.662, 3.407e-5
-1.661, 3.407e-5
-1.660, 3.407e-5
-1.659, 3.407e-5
-1.658, 3.407e-5
-1.657, 3.407e-5
-1.656, 3.099e-5
-1.655, 3.099e-5
-1.654, 3.099e-5
-1.653, 3.099e-5
-1.652, 3.099e-5
-1.651, 3.099e-5
-1.650, 2.790e-5
-1.649, 2.790e-5
-1.648, 2.790e-5
-1.647, 2.790e-5
-1.646, 2.790e-5
-1.645, 2.790e-5
-1.644, 2.790e-5
-1.643, 2.482e-5
-1.642, 2.482e-5
-1.641, 2.482e-5
-1.640, 2.482e-5
-1.639, 2.482e-5
-1.638, 2.482e-5
-1.637, 2.174e-5
-1.636, 2.174e-5
-1.635, 2.174e-5
-1.634, 2.174e-5
-1.633, 2.174e-5
-1.632, 2.174e-5
-1.631, 2.174e-5
-1.630, 2.174e-5
-1.629, 2.174e-5
-1.628, 1.865e-5
-1.627, 1.865e-5
-1.626, 1.865e-5
-1.625, 1.865e-5
-1.624, 1.865e-5
-1.623, 1.865e-5
-1.622, 1.865e-5
-1.621, 1.865e-5
-1.620, 1.865e-5
-1.619, 1.557e-5
-1.618, 1.557e-5
-1.617, 1.557e-5
-1.616, 1.557e-5
-1.615, 1.557e-5
-1.614, 1.557e-5
-1.613, 1.557e-5
-1.612, 1.557e-5
-1.611, 1.557e-5
-1.610, 1.557e-5
-1.609, 1.249e-5
-1.608, 1.249e-5
-1.607, 1.249e-5
-1.606, 1.249e-5
-1.605, 1.249e-5
-1.604, 1.249e-5
-1.603, 1.249e-5
-1.602, 1.249e-5
-1.601, 1.249e-5
-1.600, 1.249e-5
-1.599, 9.405e-6
-1.598, 9.405e-6
-1.597, 9.405e-6
-1.596, 9.405e-6
-1.595, 9.405e-6
-1.594, 9.405e-6
-1.593, 9.405e-6
-1.592, 9.405e-6
-1.591, 9.405e-6
-1.590, 9.405e-6
-1.589, 9.405e-6
-1.588, 6.322e-6
-1.587, 9.405e-6
-1.586, 9.405e-6
-1.585, 6.322e-6
-1.584, 9.405e-6
-1.583, 6.322e-6
-1.582, 6.322e-6
-1.581, 6.322e-6
-1.580, 6.322e-6
-1.579, 6.322e-6
-1.578, 6.322e-6
-1.577, 6.322e-6
-1.576, 6.322e-6
-1.575, 6.322e-6
-1.574, 6.322e-6
-1.573, 3.239e-6
-1.572, 6.322e-6
-1.571, 3.239e-6
-1.570, 6.322e-6
-1.569, 3.239e-6
-1.568, 3.239e-6
-1.567, 3.239e-6
-1.566, 3.239e-6
-1.565, 3.239e-6
-1.564, 3.239e-6
-1.563, 3.239e-6
-1.562, 3.239e-6
-1.561, 3.239e-6
-1.560, 3.239e-6
-1.559, 3.239e-6
-1.558, 3.239e-6
-1.557, 3.239e-6
-1.556, 3.239e-6
-1.555, 1.559e-7
-1.554, 3.239e-6
-1.553, 1.559e-7
-1.552, 3.239e-6
-1.551, 1.559e-7
-1.550, 1.559e-7
-1.549, 3.239e-6
-1.548, 1.559e-7
-1.547, 1.559e-7
-1.546, 1.559e-7
-1.545, 1.559e-7
-1.544, 1.559e-7
-1.543, 1.559e-7
-1.542, 1.559e-7
-1.541, 1.559e-7
-1.540, 1.559e-7
-1.539, 1.559e-7
-1.538, 1.559e-7
-1.537, 1.559e-7
-1.536, 1.559e-7
-1.535, 1.559e-7
-1.534, 1.559e-7
-1.533, 1.559e-7
-1.532, 1.559e-7
-1.531, 1.559e-7
-1.530, -2.927e-6
-1.529, 1.559e-7
-1.528, -2.927e-6
-1.527, -2.927e-6
-1.526, -2.927e-6
-1.525, 1.559e-7
-1.524, -2.927e-6
-1.523, -2.927e-6
-1.522, -2.927e-6
-1.521, -2.927e-6
-1.520, -2.927e-6
-1.519, -2.927e-6
-1.518, -2.927e-6
-1.517, -2.927e-6
-1.516, -2.927e-6
-1.515, -2.927e-6
-1.514, -2.927e-6
-1.513, -2.927e-6
-1.512, -2.927e-6
-1.511, -2.927e-6
-1.510, -2.927e-6
-1.509, -2.927e-6
-1.508, -2.927e-6
-1.507, -2.927e-6
-1.506, -2.927e-6
-1.505, -6.010e-6
-1.504, -2.927e-6
-1.503, -2.927e-6
-1.502, -2.927e-6
-1.501, -2.927e-6
-1.500, -2.927e-6
-1.499, -2.927e-6
-1.498, -2.927e-6
-1.497, -2.927e-6
-1.496, -2.927e-6
-1.495, -2.927e-6
-1.494, -2.927e-6
-1.493, -6.010e-6
-1.492, -2.927e-6
-1.491, -2.927e-6
-1.490, -2.927e-6
-1.489, -2.927e-6
-1.488, -6.010e-6
-1.487, -6.010e-6
-1.486, -6.010e-6
-1.485, -6.010e-6
-1.484, -6.010e-6
-1.483, -6.010e-6
-1.482, -6.010e-6
-1.481, -6.010e-6
-1.480, -6.010e-6
-1.479, -6.010e-6
-1.478, -6.010e-6
-1.477, -6.010e-6
-1.476, -6.010e-6
-1.475, -6.010e-6
-1.474, -6.010e-6
-1.473, -6.010e-6
-1.472, -6.010e-6
-1.471, -6.010e-6
-1.470, -6.010e-6
-1.469, -6.010e-6
-1.468, -6.010e-6
-1.467, -6.010e-6
-1.466, -6.010e-6
-1.465, -6.010e-6
-1.464, -6.010e-6
-1.463, -6.010e-6
-1.462, -6.010e-6
-1.461, -6.010e-6
-1.460, -6.010e-6
-1.459, -6.010e-6
-1.458, -6.010e-6
-1.457, -6.010e-6
-1.456, -6.010e-6
-1.455, -6.010e-6
-1.454, -6.010e-6
-1.453, -6.010e-6
-1.452, -6.010e-6
-1.451, -6.010e-6
-1.450, -6.010e-6
-1.449, -6.010e-6
-1.448, -6.010e-6
-1.447, -6.010e-6
-1.446, -6.010e-6
-1.445, -6.010e-6
-1.444, -6.010e-6
-1.443, -6.010e-6
-1.442, -6.010e-6
-1.441, -6.010e-6
-1.440, -6.010e-6
-1.439, -6.010e-6
-1.438, -6.010e-6
-1.437, -6.010e-6
-1.436, -6.010e-6
-1.435, -6.010e-6
-1.434, -6.010e-6
-1.433, -6.010e-6
-1.432, -6.010e-6
-1.431, -6.010e-6
-1.430, -6.010e-6
-1.429, -6.010e-6
-1.428, -6.010e-6
-1.427, -9.093e-6
-1.426, -9.093e-6
-1.425, -6.010e-6
-1.424, -6.010e-6
-1.423, -6.010e-6
-1.422, -6.010e-6
-1.421, -9.093e-6
-1.420, -6.010e-6
-1.419, -9.093e-6
-1.418, -9.093e-6
-1.417, -6.010e-6
-1.416, -6.010e-6
-1.415, -6.010e-6
-1.414, -9.093e-6
-1.413, -9.093e-6
-1.412, -9.093e-6
-1.411, -6.010e-6
-1.410, -9.093e-6
-1.409, -6.010e-6
-1.408, -9.093e-6
-1.407, -9.093e-6
-1.406, -6.010e-6
-1.405, -9.093e-6
-1.404, -6.010e-6
-1.403, -9.093e-6
-1.402, -6.010e-6
-1.401, -9.093e-6
-1.400, -9.093e-6
-1.399, -6.010e-6
-1.398, -9.093e-6
-1.397, -6.010e-6
-1.396, -9.093e-6
-1.395, -9.093e-6
-1.394, -9.093e-6
-1.393, -9.093e-6
-1.392, -9.093e-6
-1.391, -9.093e-6
-1.390, -9.093e-6
-1.389, -6.010e-6
-1.388, -9.093e-6
-1.387, -6.010e-6
-1.386, -9.093e-6
-1.385, -6.010e-6
-1.384, -6.010e-6
-1.383, -9.093e-6
-1.382, -9.093e-6
-1.381, -9.093e-6
-1.380, -9.093e-6
-1.379, -9.093e-6
-1.378, -9.093e-6
-1.377, -6.010e-6
-1.376, -9.093e-6
-1.375, -9.093e-6
-1.374, -9.093e-6
-1.373, -9.093e-6
-1.372, -9.093e-6
-1.371, -9.093e-6
-1.370, -9.093e-6
-1.369, -9.093e-6
-1.368, -9.093e-6
-1.367, -9.093e-6
-1.366, -9.093e-6
-1.365, -9.093e-6
-1.364, -9.093e-6
-1.363, -9.093e-6
-1.362, -9.093e-6
-1.361, -9.093e-6
-1.360, -9.093e-6
-1.359, -9.093e-6
-1.358, -9.093e-6
-1.357, -9.093e-6
-1.356, -9.093e-6
-1.355, -9.093e-6
-1.354, -9.093e-6
-1.353, -9.093e-6
-1.352, -9.093e-6
-1.351, -9.093e-6
-1.350, -9.093e-6
-1.349, -9.093e-6
-1.348, -9.093e-6
-1.347, -9.093e-6
-1.346, -9.093e-6
-1.345, -9.093e-6
-1.344, -9.093e-6
-1.343, -9.093e-6
-1.342, -9.093e-6
-1.341, -9.093e-6
-1.340, -9.093e-6
-1.339, -9.093e-6
-1.338, -9.093e-6
-1.337, -9.093e-6
-1.336, -9.093e-6
-1.335, -9.093e-6
-1.334, -9.093e-6
-1.333, -9.093e-6
-1.332, -9.093e-6
-1.331, -9.093e-6
-1.330, -9.093e-6
-1.329, -9.093e-6
-1.328, -9.093e-6
-1.327, -9.093e-6
-1.326, -9.093e-6
-1.325, -9.093e-6
-1.324, -9.093e-6
-1.323, -9.093e-6
-1.322, -9.093e-6
-1.321, -9.093e-6
-1.320, -9.093e-6
-1.319, -9.093e-6
-1.318, -9.093e-6
-1.317, -9.093e-6
-1.316, -9.093e-6
-1.315, -9.093e-6
-1.314, -9.093e-6
-1.313, -9.093e-6
-1.312, -9.093e-6
-1.311, -9.093e-6
-1.310, -9.093e-6
-1.309, -9.093e-6
-1.308, -9.093e-6
-1.307, -9.093e-6
-1.306, -9.093e-6
-1.305, -9.093e-6
-1.304, -9.093e-6
-1.303, -9.093e-6
-1.302, -9.093e-6
-1.301, -9.093e-6
-1.300, -9.093e-6
-1.299, -9.093e-6
-1.298, -9.093e-6
-1.297, -9.093e-6
-1.296, -9.093e-6
-1.295, -9.093e-6
-1.294, -9.093e-6
-1.293, -9.093e-6
-1.292, -9.093e-6
-1.291, -9.093e-6
-1.290, -9.093e-6
-1.289, -9.093e-6
-1.288, -9.093e-6
-1.287, -9.093e-6
-1.286, -9.093e-6
-1.285, -9.093e-6
-1.284, -9.093e-6
-1.283, -9.093e-6
-1.282, -9.093e-6
-1.281, -9.093e-6
-1.280, -9.093e-6
-1.279, -9.093e-6
-1.278, -9.093e-6
-1.277, -9.093e-6
-1.276, -9.093e-6
-1.275, -9.093e-6
-1.274, -9.093e-6
-1.273, -9.093e-6
-1.272, -9.093e-6
-1.271, -9.093e-6
-1.270, -9.093e-6
-1.269, -9.093e-6
-1.268, -9.093e-6
-1.267, -9.093e-6
-1.266, -9.093e-6
-1.265, -9.093e-6
-1.264, -9.093e-6
-1.263, -9.093e-6
-1.262, -9.093e-6
-1.261, -9.093e-6
-1.260, -9.093e-6
-1.259, -9.093e-6
-1.258, -9.093e-6
-1.257, -9.093e-6
-1.256, -9.093e-6
-1.255, -9.093e-6
-1.254, -9.093e-6
-1.253, -9.093e-6
-1.252, -9.093e-6
-1.251, -9.093e-6
-1.250, -9.093e-6
-1.249, -9.093e-6
-1.248, -9.093e-6
-1.247, -9.093e-6
-1.246, -9.093e-6
-1.245, -9.093e-6
-1.244, -9.093e-6
-1.243, -9.093e-6
-1.242, -9.093e-6
-1.241, -9.093e-6
-1.240, -9.093e-6
-1.239, -9.093e-6
-1.238, -9.093e-6
-1.237, -9.093e-6
-1.236, -9.093e-6
-1.235, -9.093e-6
-1.234, -9.093e-6
-1.233, -9.093e-6
-1.232, -9.093e-6
-1.231, -9.093e-6
-1.230, -9.093e-6
-1.229, -9.093e-6
-1.228, -9.093e-6
-1.227, -9.093e-6
-1.226, -9.093e-6
-1.225, -9.093e-6
-1.224, -9.093e-6
-1.223, -9.093e-6
-1.222, -9.093e-6
-1.221, -9.093e-6
-1.220, -9.093e-6
-1.219, -9.093e-6
-1.218, -9.093e-6
-1.217, -9.093e-6
-1.216, -9.093e-6
-1.215, -9.093e-6
-1.214, -9.093e-6
-1.213, -9.093e-6
-1.212, -1.218e-5
-1.211, -9.093e-6
-1.210, -9.093e-6
-1.209, -1.218e-5
-1.208, -9.093e-6
-1.207, -9.093e-6
-1.206, -9.093e-6
-1.205, -9.093e-6
-1.204, -9.093e-6
-1.203, -9.093e-6
-1.202, -9.093e-6
-1.201, -9.093e-6
-1.200, -9.093e-6
-1.199, -9.093e-6
-1.198, -9.093e-6
-1.197, -9.093e-6
-1.196, -9.093e-6
-1.195, -9.093e-6
-1.194, -9.093e-6
-1.193, -9.093e-6
-1.192, -9.093e-6
-1.191, -9.093e-6
-1.190, -9.093e-6
-1.189, -9.093e-6
-1.188, -9.093e-6
-1.187, -9.093e-6
-1.186, -9.093e-6
-1.185, -9.093e-6
-1.184, -9.093e-6
-1.183, -1.218e-5
-1.182, -9.093e-6
-1.181, -9.093e-6
-1.180, -9.093e-6
-1.179, -9.093e-6
-1.178, -9.093e-6
-1.177, -9.093e-6
-1.176, -9.093e-6
-1.175, -1.218e-5
-1.174, -9.093e-6
-1.173, -9.093e-6
-1.172, -1.218e-5
-1.171, -9.093e-6
-1.170, -9.093e-6
-1.169, -1.218e-5
-1.168, -9.093e-6
-1.167, -9.093e-6
-1.166, -9.093e-6
-1.165, -9.093e-6
-1.164, -9.093e-6
-1.163, -9.093e-6
-1.162, -1.218e-5
-1.161, -9.093e-6
-1.160, -9.093e-6
-1.159, -9.093e-6
-1.158, -1.218e-5
-1.157, -9.093e-6
-1.156, -1.218e-5
-1.155, -1.218e-5
-1.154, -9.093e-6
-1.153, -1.218e-5
-1.152, -9.093e-6
-1.151, -9.093e-6
-1.150, -9.093e-6
-1.149, -9.093e-6
-1.148, -1.218e-5
-1.147, -9.093e-6
-1.146, -1.218e-5
-1.145, -1.218e-5
-1.144, -9.093e-6
-1.143, -9.093e-6
-1.142, -1.218e-5
-1.141, -9.093e-6
-1.140, -1.218e-5
-1.139, -9.093e-6
-1.138, -1.218e-5
-1.137, -1.218e-5
-1.136, -1.218e-5
-1.135, -1.218e-5
-1.134, -1.218e-5
-1.133, -1.218e-5
-1.132, -9.093e-6
-1.131, -1.218e-5
-1.130, -1.218e-5
-1.129, -9.093e-6
-1.128, -9.093e-6
-1.127, -1.218e-5
-1.126, -9.093e-6
-1.125, -9.093e-6
-1.124, -1.218e-5
-1.123, -1.218e-5
-1.122, -9.093e-6
-1.121, -9.093e-6
-1.120, -1.218e-5
-1.119, -1.218e-5
-1.118, -1.218e-5
-1.117, -1.218e-5
-1.116, -1.218e-5
-1.115, -1.218e-5
-1.114, -9.093e-6
-1.113, -1.218e-5
-1.112, -1.218e-5
-1.111, -1.218e-5
-1.110, -1.218e-5
-1.109, -1.218e-5
-1.108, -1.218e-5
-1.107, -1.218e-5
-1.106, -1.218e-5
-1.105, -1.218e-5
-1.104, -1.218e-5
-1.103, -1.218e-5
-1.102, -1.218e-5
-1.101, -1.218e-5
-1.100, -1.218e-5
-1.099, -1.218e-5
-1.098, -1.218e-5
-1.097, -1.218e-5
-1.096, -1.218e-5
-1.095, -1.218e-5
-1.094, -1.218e-5
-1.093, -1.218e-5
-1.092, -1.218e-5
-1.091, -1.218e-5
-1.090, -1.218e-5
-1.089, -1.218e-5
-1.088, -1.218e-5
-1.087, -1.218e-5
-1.086, -1.218e-5
-1.085, -1.218e-5
-1.084, -1.218e-5
-1.083, -1.218e-5
-1.082, -1.218e-5
-1.081, -1.218e-5
-1.080, -1.218e-5
-1.079, -1.218e-5
-1.078, -1.218e-5
-1.077, -1.218e-5
-1.076, -1.218e-5
-1.075, -1.218e-5
-1.074, -1.218e-5
-1.073, -1.218e-5
-1.072, -1.218e-5
-1.071, -1.218e-5
-1.070, -1.218e-5
-1.069, -1.218e-5
-1.068, -1.218e-5
-1.067, -1.526e-5
-1.066, -1.526e-5
-1.065, -1.526e-5
-1.064, -1.526e-5
-1.063, -1.526e-5
-1.062, -1.526e-5
-1.061, -1.526e-5
-1.060, -1.526e-5
-1.059, -1.526e-5
-1.058, -1.526e-5
-1.057, -1.526e-5
-1.056, -1.526e-5
-1.055, -1.526e-5
-1.054, -1.526e-5
-1.053, -1.526e-5
-1.052, -1.526e-5
-1.051, -1.526e-5
-1.050, -1.526e-5
-1.049, -1.526e-5
-1.048, -1.526e-5
-1.047, -1.526e-5
-1.046, -1.526e-5
-1.045, -1.526e-5
-1.044, -1.526e-5
-1.043, -1.526e-5
-1.042, -1.526e-5
-1.041, -1.526e-5
-1.040, -1.526e-5
-1.039, -1.526e-5
-1.038, -1.526e-5
-1.037, -1.526e-5
-1.036, -1.526e-5
-1.035, -1.526e-5
-1.034, -1.526e-5
-1.033, -1.526e-5
-1.032, -1.526e-5
-1.031, -1.526e-5
-1.030, -1.834e-5
-1.029, -1.834e-5
-1.028, -1.526e-5
-1.027, -1.526e-5
-1.026, -1.834e-5
-1.025, -1.834e-5
-1.024, -1.834e-5
-1.023, -1.834e-5
-1.022, -1.834e-5
-1.021, -1.834e-5
-1.020, -1.834e-5
-1.019, -1.834e-5
-1.018, -1.834e-5
-1.017, -1.834e-5
-1.016, -1.834e-5
-1.015, -1.834e-5
-1.014, -1.834e-5
-1.013, -1.834e-5
-1.012, -1.834e-5
-1.011, -1.834e-5
-1.010, -1.834e-5
-1.009, -1.834e-5
-1.008, -1.834e-5
-1.007, -1.834e-5
-1.006, -1.834e-5
-1.005, -1.834e-5
-1.004, -1.834e-5
-1.003, -1.834e-5
-1.002, -1.834e-5
-1.001, -1.834e-5
