Potential V vs RHE, Current mA cm-2
0.05339999999999995,-0.04130956995605907
0.05239999999999995,-0.04300722351589712
0.051399999999999946,-0.04368628493983233
0.050399999999999945,-0.04419558100778375
0.049399999999999944,-0.04464828862374056
0.04839999999999994,-0.045115143352696015
0.04739999999999994,-0.04558199808165148
0.04639999999999994,-0.04599226435861234
0.04539999999999994,-0.046416677748571854
0.04439999999999994,-0.04685523825153001
0.04339999999999994,-0.04730794586748682
0.04239999999999994,-0.04776065348344364
0.04139999999999994,-0.048185066873403154
0.040399999999999936,-0.04858118603736536
0.039399999999999935,-0.04901974654032352
0.038399999999999934,-0.049458307043281684
0.03739999999999993,-0.049911014659238494
0.03639999999999993,-0.05032128093619936
0.03539999999999993,-0.05071740010016157
0.03439999999999993,-0.051127666377122426
0.03339999999999993,-0.051580373993079236
0.03239999999999993,-0.0520472287220347
0.03139999999999993,-0.05245749499899556
0.030399999999999927,-0.05286776127595642
0.029399999999999926,-0.05327802755291729
0.028399999999999925,-0.05374488228187274
0.027399999999999924,-0.0541834427848309
0.026399999999999924,-0.054622003287789066
0.025399999999999923,-0.05506056379074723
0.024399999999999922,-0.055470830067708095
0.02339999999999992,-0.0558952434576676
0.02239999999999992,-0.056362098186623064
0.02139999999999992,-0.056800658689581215
0.020399999999999918,-0.05721092496654208
0.019399999999999917,-0.05762119124350294
0.018399999999999916,-0.0580597517464611
0.017399999999999916,-0.05854075358841522
0.016399999999999915,-0.05893687275237742
0.015399999999999914,-0.059375433255335584
0.014399999999999913,-0.05978569953229645
0.013399999999999912,-0.06022426003525461
0.012399999999999911,-0.06073355610320603
0.01139999999999991,-0.06115796949316554
0.01039999999999991,-0.06158238288312505
0.009399999999999908,-0.062006796273084565
0.008399999999999908,-0.06245950388904137
0.007399999999999907,-0.06295465284399412
0.006399999999999906,-0.06337906623395365
0.005399999999999905,-0.0638176267369118
0.004399999999999904,-0.06429862857886592
0.003399999999999903,-0.06473718908182408
0.002399999999999902,-0.06523233803677685
0.0013999999999999013,-0.065670898539735
0.00039999999999990044,-0.06609531192969452
-0.0006000000000001005,-0.06656216665864997
-0.0016000000000001013,-0.06701487427460678
-0.0026000000000001022,-0.0674958761165609
-0.003600000000000103,-0.0679485837325177
-0.004600000000000104,-0.06837299712247723
-0.005600000000000105,-0.06882570473843404
-0.006600000000000106,-0.0692642652413922
-0.007600000000000107,-0.06973111997034764
-0.008600000000000108,-0.07019797469930313
-0.009600000000000108,-0.07063653520226129
-0.01060000000000011,-0.0710892428182181
-0.01160000000000011,-0.0715702446601722
-0.012600000000000111,-0.07205124650212633
-0.013600000000000112,-0.07248980700508448
-0.014600000000000113,-0.07292836750804264
-0.015600000000000114,-0.07335278089800215
-0.016600000000000115,-0.07383378273995628
-0.017600000000000116,-0.07430063746891173
-0.018600000000000116,-0.07475334508486854
-0.019600000000000117,-0.0751919055878267
-0.020600000000000118,-0.07563046609078486
-0.02160000000000012,-0.07608317370674167
-0.02260000000000012,-0.07653588132269848
-0.02360000000000012,-0.07694614759965934
-0.024600000000000122,-0.07739885521561615
-0.025600000000000123,-0.07783741571857432
-0.026600000000000124,-0.07830427044752979
-0.027600000000000124,-0.07877112517648524
-0.028600000000000125,-0.0792096856794434
-0.029600000000000126,-0.07966239329540022
-0.030600000000000127,-0.08004436534636378
-0.03160000000000013,-0.08046877873632328
-0.03260000000000013,-0.08093563346527875
-0.03360000000000013,-0.0813741939682369
-0.03460000000000002,-0.08178446024519778
-0.03560000000000002,-0.08222302074815592
-0.03660000000000002,-0.08263328702511678
-0.03760000000000002,-0.08308599464107361
-0.03860000000000002,-0.08349626091803447
-0.039600000000000024,-0.08386408585599937
-0.040600000000000025,-0.08424605790696293
-0.041600000000000026,-0.08465632418392378
-0.04260000000000003,-0.08512317891287925
-0.04360000000000003,-0.08551929807684147
-0.04460000000000003,-0.08590127012780503
-0.04560000000000003,-0.08629738929176724
-0.04660000000000003,-0.08669350845572944
-0.04760000000000003,-0.08708962761969166
-0.04860000000000003,-0.08745745255765658
-0.04960000000000003,-0.08779698326962418
-0.050600000000000034,-0.08817895532058774
-0.051600000000000035,-0.0885609273715513
-0.052600000000000036,-0.08894289942251486
-0.053600000000000037,-0.08932487147347841
-0.05460000000000004,-0.08969269641144333
-0.05560000000000004,-0.09004637423640958
-0.05660000000000004,-0.09042834628737315
-0.05760000000000004,-0.09079617122533806
-0.05860000000000004,-0.09114984905030431
-0.05960000000000004,-0.09148937976227192
-0.06060000000000004,-0.09178646913524359
-0.061600000000000044,-0.09214014696020983
-0.06260000000000004,-0.0925221190111734
-0.06360000000000005,-0.09286164972314101
-0.06460000000000005,-0.09317288620911131
-0.06560000000000005,-0.09349826980808028
-0.06660000000000005,-0.09379535918105193
-0.06760000000000005,-0.09412074278002087
-0.06860000000000005,-0.09441783215299256
-0.06960000000000005,-0.09471492152596421
-0.07060000000000005,-0.0949978637859372
-0.07160000000000005,-0.09529495315890889
-0.07260000000000005,-0.09562033675787783
-0.07360000000000005,-0.09587498479185352
-0.07460000000000006,-0.09612963282582924
-0.07560000000000006,-0.09641257508580224
-0.07660000000000006,-0.0966813702327766
-0.07760000000000006,-0.09697845960574826
-0.07860000000000006,-0.09720481341372668
-0.07960000000000006,-0.09743116722170508
-0.08060000000000006,-0.09765752102968349
-0.08160000000000006,-0.0978838748376619
-0.08260000000000006,-0.09815266998463625
-0.08360000000000006,-0.098364876679616
-0.08460000000000006,-0.09856293626159711
-0.08560000000000006,-0.09876099584357821
-0.08660000000000007,-0.09894490831256067
-0.08760000000000007,-0.09918540923353773
-0.08860000000000007,-0.09938346881551882
-0.08960000000000007,-0.09953908705850398
-0.09060000000000007,-0.09970885241448779
-0.09160000000000007,-0.09987861777047159
-0.09260000000000007,-0.1000766773524527
-0.09360000000000007,-0.1002464427084365
-0.09460000000000007,-0.10037376672542435
-0.09560000000000007,-0.10052938496840952
-0.09660000000000007,-0.10069915032439332
-0.09760000000000008,-0.10084062145437982
-0.09860000000000008,-0.10098209258436633
-0.09960000000000008,-0.10106697526235821
-0.10060000000000008,-0.10119429927934608
-0.10160000000000008,-0.10133577040933257
-0.10260000000000008,-0.10146309442632043
-0.10360000000000008,-0.10153382999131368
-0.10460000000000008,-0.10163285978230424
-0.10560000000000008,-0.10170359534729749
-0.10660000000000008,-0.1017884780252894
-0.10760000000000008,-0.10188750781627993
-0.10860000000000009,-0.10197239049427186
-0.10960000000000009,-0.1020148318332678
-0.11060000000000009,-0.1020714202852624
-0.11160000000000009,-0.10211386162425835
-0.11260000000000009,-0.10219874430225025
-0.11360000000000009,-0.10222703852824755
-0.11460000000000009,-0.1022694798672435
-0.11560000000000009,-0.10231192120623946
-0.11660000000000009,-0.1023260683192381
-0.1176000000000001,-0.10235436254523542
-0.1186000000000001,-0.1023826567712327
-0.1196000000000001,-0.10235436254523542
-0.1206000000000001,-0.1023826567712327
-0.1216000000000001,-0.10236850965823405
-0.1226000000000001,-0.10239680388423136
-0.1236000000000001,-0.10236850965823405
-0.1246000000000001,-0.10234021543223674
-0.1256000000000001,-0.10231192120623946
-0.1266000000000001,-0.10228362698024217
-0.1276000000000001,-0.10228362698024217
-0.1286000000000001,-0.1022694798672435
-0.1296000000000001,-0.10219874430225025
-0.1306000000000001,-0.1021563029632543
-0.1316000000000001,-0.10211386162425835
-0.1326000000000001,-0.10208556739826105
-0.1336000000000001,-0.1020148318332678
-0.1346000000000001,-0.10194409626827454
-0.1356000000000001,-0.10185921359028265
-0.1366000000000001,-0.10183091936428534
-0.1376000000000001,-0.1017601837992921
-0.1386000000000001,-0.10168944823429883
-0.1396000000000001,-0.10157627133030964
-0.1406000000000001,-0.10149138865231773
-0.14160000000000011,-0.10142065308732448
-0.14260000000000012,-0.10134991752233123
-0.14360000000000012,-0.10125088773134068
-0.14460000000000012,-0.10115185794035012
-0.14560000000000012,-0.10103868103636092
-0.14660000000000012,-0.10093965124537037
-0.14760000000000012,-0.10086891568037712
-0.14860000000000012,-0.10071329743739196
-0.14960000000000012,-0.1006142676464014
-0.15060000000000012,-0.1005010907424122
-0.15160000000000012,-0.10037376672542435
-0.15260000000000012,-0.10028888404743246
-0.15360000000000013,-0.10016156003044459
-0.15460000000000013,-0.0999917946744608
-0.15560000000000013,-0.09987861777047159
-0.15660000000000013,-0.09972299952748644
-0.15760000000000013,-0.09965226396249319
-0.15860000000000013,-0.09949664571950805
-0.15960000000000002,-0.09935517458952153
-0.16060000000000002,-0.09922785057253368
-0.16160000000000002,-0.09908637944254717
-0.16260000000000002,-0.09897320253855796
-0.16360000000000002,-0.09883173140857146
-0.16460000000000002,-0.09864781893958902
-0.16560000000000002,-0.09856293626159711
-0.16660000000000003,-0.0984497593576079
-0.16760000000000003,-0.09827999400162409
-0.16860000000000003,-0.09813852287163759
-0.16960000000000003,-0.09795461040265514
-0.17060000000000003,-0.09779899215966999
-0.17160000000000003,-0.09765752102968349
-0.17260000000000003,-0.09753019701269564
-0.17360000000000003,-0.09737457876971047
-0.17460000000000003,-0.09719066630072802
-0.17560000000000003,-0.09703504805774286
-0.17660000000000003,-0.09686528270175906
-0.17760000000000004,-0.09675210579776986
-0.17860000000000004,-0.09658234044178605
-0.17960000000000004,-0.09641257508580224
-0.18060000000000004,-0.09624280972981844
-0.18160000000000004,-0.0960871914868333
-0.18260000000000004,-0.09593157324384814
-0.18360000000000004,-0.09577595500086299
-0.18460000000000004,-0.09559204253188053
-0.18560000000000004,-0.09543642428889539
-0.18660000000000004,-0.09526665893291157
-0.18760000000000004,-0.09513933491592372
-0.18860000000000005,-0.09495542244694127
-0.18960000000000005,-0.09478565709095746
-0.19060000000000005,-0.09461589173497365
-0.19160000000000005,-0.09447442060498715
-0.19260000000000005,-0.09433294947500065
-0.19360000000000005,-0.09414903700601819
-0.19460000000000005,-0.09397927165003438
-0.19560000000000005,-0.09382365340704923
-0.19660000000000005,-0.09363974093806678
-0.19760000000000005,-0.09351241692107892
-0.19860000000000005,-0.09335679867809377
-0.19960000000000006,-0.09315873909611266
-0.20060000000000006,-0.09300312085312752
-0.20160000000000006,-0.09281920838414506
-0.20260000000000006,-0.09270603148015585
-0.20360000000000006,-0.09255041323717071
-0.20460000000000006,-0.09236650076818824
-0.20560000000000006,-0.09219673541220444
-0.20660000000000006,-0.09204111716921928
-0.20760000000000006,-0.09191379315223143
-0.20860000000000006,-0.09174402779624763
-0.20960000000000006,-0.09156011532726518
-0.21060000000000006,-0.09141864419727867
-0.21160000000000007,-0.09127717306729217
-0.21260000000000007,-0.091121554824307
-0.21360000000000007,-0.09096593658132186
-0.21460000000000007,-0.0908103183383367
-0.21560000000000007,-0.09065470009535155
-0.21660000000000007,-0.09051322896536505
-0.21760000000000007,-0.09040005206137584
-0.21860000000000007,-0.09024443381839069
-0.21960000000000007,-0.09007466846240689
-0.22060000000000007,-0.08990490310642309
-0.22160000000000007,-0.08976343197643659
-0.22260000000000008,-0.08965025507244738
-0.22360000000000008,-0.08950878394246087
-0.22460000000000008,-0.08933901858647707
-0.22560000000000008,-0.08916925323049325
-0.22660000000000008,-0.08902778210050676
-0.22760000000000008,-0.08892875230951619
-0.22860000000000008,-0.0887589869535324
-0.22960000000000008,-0.08863166293654455
-0.23060000000000008,-0.08849019180655805
-0.23160000000000008,-0.08834872067657155
-0.23260000000000008,-0.08822139665958369
-0.23360000000000009,-0.08809407264259583
-0.2346000000000001,-0.08795260151260934
-0.2356000000000001,-0.08782527749562147
-0.2366000000000001,-0.08768380636563497
-0.2376000000000001,-0.08759892368764308
-0.2386000000000001,-0.08745745255765658
-0.2396000000000001,-0.08730183431467141
-0.2406000000000001,-0.08717451029768356
-0.2416000000000001,-0.08704718628069572
-0.2426000000000001,-0.08697645071570247
-0.2436000000000001,-0.08683497958571595
-0.2446000000000001,-0.08669350845572944
-0.2456000000000001,-0.08656618443874159
-0.2466000000000001,-0.08645300753475238
-0.2476000000000001,-0.08633983063076318
-0.2486000000000001,-0.08621250661377533
-0.2496000000000001,-0.08607103548378882
-0.2506000000000001,-0.08592956435380232
-0.2516000000000001,-0.08584468167581043
-0.2526000000000001,-0.08573150477182122
-0.2536000000000001,-0.08561832786783201
-0.2546000000000001,-0.08550515096384281
-0.2556000000000001,-0.08536367983385632
-0.2566000000000001,-0.08525050292986712
-0.2576000000000001,-0.08516562025187521
-0.2586000000000001,-0.085052443347886
-0.2596000000000001,-0.08489682510490085
-0.2606000000000001,-0.084769501087913
-0.2616000000000001,-0.0846846184099211
-0.2626000000000001,-0.08458558861893054
-0.2636000000000001,-0.08447241171494134
-0.2646000000000001,-0.08434508769795349
-0.2656000000000001,-0.08423191079396428
-0.2666000000000001,-0.08411873388997508
-0.2676000000000001,-0.08407629255097913
-0.2686000000000001,-0.08396311564698994
-0.2696000000000001,-0.08386408585599937
-0.2706000000000001,-0.08376505606500882
-0.2716000000000001,-0.08365187916101963
-0.2726000000000001,-0.08359529070902501
-0.2736000000000001,-0.08349626091803447
-0.2746000000000001,-0.0833972311270439
-0.2756000000000001,-0.0832840542230547
-0.2766000000000001,-0.08319917154506282
-0.2776000000000001,-0.0831425830930682
-0.2786000000000001,-0.083029406189079
-0.2796000000000001,-0.08291622928508981
-0.2806000000000001,-0.0828313466070979
-0.28160000000000013,-0.08273231681610735
-0.28260000000000013,-0.08268987547711139
-0.28360000000000013,-0.08257669857312219
-0.2846,-0.08244937455613434
-0.2856,-0.08236449187814243
-0.2866,-0.08227960920015054
-0.2876,-0.08220887363515728
-0.2886,-0.08210984384416672
-0.2896,-0.08199666694017753
-0.2906,-0.08191178426218561
-0.2916,-0.08182690158419371
-0.2926,-0.08177031313219911
-0.2936,-0.08168543045420722
-0.29460000000000003,-0.08160054777621531
-0.29560000000000003,-0.08150151798522477
-0.29660000000000003,-0.08141663530723285
-0.29760000000000003,-0.08136004685523826
-0.29860000000000003,-0.08126101706424771
-0.29960000000000003,-0.08117613438625582
-0.30060000000000003,-0.08109125170826391
-0.30160000000000003,-0.08099222191727334
-0.30260000000000004,-0.08093563346527875
-0.30360000000000004,-0.08083660367428819
-0.30460000000000004,-0.08073757388329764
-0.30560000000000004,-0.08066683831830439
-0.30660000000000004,-0.0806102498663098
-0.30760000000000004,-0.08056780852731382
-0.30860000000000004,-0.08048292584932194
-0.30960000000000004,-0.08038389605833138
-0.31060000000000004,-0.08031316049333813
-0.31160000000000004,-0.08024242492834488
-0.31260000000000004,-0.08019998358934893
-0.31360000000000005,-0.08012924802435568
-0.31460000000000005,-0.08004436534636378
-0.31560000000000005,-0.07995948266837187
-0.31660000000000005,-0.07988874710337862
-0.31760000000000005,-0.07986045287738132
-0.31860000000000005,-0.07977557019938941
-0.31960000000000005,-0.07971898174739482
-0.32060000000000005,-0.07966239329540022
-0.32160000000000005,-0.07956336350440966
-0.32260000000000005,-0.079549216391411
-0.32360000000000005,-0.07949262793941642
-0.32460000000000006,-0.07936530392242855
-0.32560000000000006,-0.0792945683574353
-0.32660000000000006,-0.07925212701843935
-0.32760000000000006,-0.0792096856794434
-0.32860000000000006,-0.07913895011445016
-0.32960000000000006,-0.07905406743645825
-0.33060000000000006,-0.078983331871465
-0.33160000000000006,-0.07894089053246904
-0.33260000000000006,-0.07888430208047445
-0.33360000000000006,-0.07882771362847985
-0.33460000000000006,-0.07874283095048794
-0.33560000000000006,-0.07867209538549469
-0.33660000000000007,-0.07860135982050144
-0.33760000000000007,-0.07858721270750278
-0.33860000000000007,-0.07851647714250953
-0.33960000000000007,-0.07844574157751628
-0.34060000000000007,-0.0783891531255217
-0.34160000000000007,-0.07834671178652573
-0.34260000000000007,-0.07830427044752979
-0.34360000000000007,-0.07821938776953788
-0.3446000000000001,-0.07816279931754326
-0.3456000000000001,-0.07810621086554868
-0.3466000000000001,-0.07804962241355407
-0.34759999999999996,-0.07802132818755676
-0.3486000000000001,-0.07795059262256351
-0.34959999999999997,-0.07789400417056892
-0.3506000000000001,-0.07782326860557567
-0.35159999999999997,-0.0777808272665797
-0.3526000000000001,-0.07776668015358107
-0.35359999999999997,-0.07768179747558916
-0.3546000000000001,-0.0776393561365932
-0.35559999999999997,-0.07758276768459862
-0.3566000000000001,-0.0774978850066067
-0.3576,-0.0774978850066067
-0.3586000000000001,-0.07745544366761076
-0.3596,-0.07737056098961885
-0.3606000000000001,-0.07731397253762426
-0.3616,-0.07728567831162694
-0.3626000000000001,-0.07725738408562965
-0.3636,-0.07720079563363505
-0.3646000000000001,-0.0771300600686418
-0.3656,-0.0770734716166472
-0.3666000000000001,-0.07704517739064991
-0.3676,-0.07701688316465259
-0.3686000000000001,-0.07696029471265799
-0.3696,-0.0769037062606634
-0.3706000000000001,-0.07688955914766474
-0.3716,-0.07686126492166745
-0.3726000000000001,-0.07681882358267149
-0.3736,-0.0767622351306769
-0.3746000000000001,-0.07671979379168092
-0.3756,-0.07667735245268498
-0.3766000000000001,-0.07663491111368903
-0.3776,-0.07660661688769173
-0.3786000000000001,-0.07657832266169443
-0.3796,-0.07652173420969983
-0.3806000000000001,-0.07647929287070389
-0.3816,-0.07643685153170793
-0.3826000000000001,-0.07643685153170793
-0.3836,-0.07639441019271198
-0.3846000000000001,-0.07633782174071738
-0.3856,-0.07628123328872279
-0.3866000000000001,-0.07625293906272547
-0.3876,-0.07625293906272547
-0.3886000000000001,-0.07619635061073088
-0.3896,-0.07615390927173492
-0.3906000000000001,-0.07611146793273897
-0.3916,-0.07611146793273897
-0.3926000000000001,-0.07609732081974033
-0.3936,-0.07604073236774572
-0.3946000000000001,-0.07601243814174842
-0.3956,-0.07596999680275247
-0.3966000000000001,-0.07594170257675517
-0.3976,-0.07594170257675517
-0.3986000000000001,-0.07589926123775922
-0.3996,-0.07587096701176191
-0.4006000000000001,-0.07582852567276598
-0.4016,-0.07580023144676866
-0.4026000000000001,-0.07580023144676866
-0.4036,-0.07577193722077137
-0.4046000000000001,-0.07570120165577811
-0.4056,-0.07570120165577811
-0.40660000000000013,-0.07567290742978082
-0.4076,-0.07567290742978082
-0.40860000000000013,-0.07565876031678216
-0.4096,-0.07563046609078486
-0.41060000000000013,-0.07558802475178891
-0.4116,-0.07558802475178891
-0.41260000000000013,-0.07557387763879025
-0.4136,-0.07555973052579161
-0.41460000000000014,-0.075503142073797
-0.4156,-0.075503142073797
-0.41660000000000014,-0.075503142073797
-0.4176,-0.07548899496079836
-0.41860000000000014,-0.07546070073480106
-0.41960000000000003,-0.07543240650880376
-0.42060000000000014,-0.07540411228280645
-0.42160000000000003,-0.0754465536218024
-0.42260000000000014,-0.07546070073480106
-0.42360000000000003,-0.07540411228280645
-0.42460000000000014,-0.07538996516980781
-0.42560000000000003,-0.07537581805680914
-0.42660000000000015,-0.07537581805680914
-0.42760000000000004,-0.07537581805680914
-0.42860000000000015,-0.07536167094381051
-0.42960000000000004,-0.07534752383081185
-0.43060000000000015,-0.0753333767178132
-0.43160000000000004,-0.07534752383081185
-0.43260000000000015,-0.07537581805680914
-0.43360000000000004,-0.07536167094381051
-0.43460000000000015,-0.0753333767178132
-0.43560000000000004,-0.07534752383081185
-0.43660000000000015,-0.07534752383081185
