Potential V vs RHE, Current mA cm-2
0.013299999999999867,0.2594580523952477
0.012299999999999978,-0.7437137303390498
0.011299999999999866,-1.4854468648582886
0.010299999999999976,-2.1390434853959355
0.009299999999999864,-2.706342716641815
0.008299999999999974,-3.1859298472960624
0.007299999999999862,-3.623075638954359
0.006299999999999972,-4.0588067193127895
0.00529999999999986,-4.406825699079589
0.0042999999999999705,-4.800115440442069
0.0032999999999998586,-5.149549131508733
0.0022999999999999687,-5.453712060979717
0.0012999999999998568,-5.759289701750564
0.00029999999999996696,-6.108723392817228
-0.000700000000000145,-6.326588932996443
-0.0017000000000000348,-6.588310523471475
-0.0027000000000001467,-6.806176063650692
-0.0037000000000000366,-6.981600264833956
-0.0047000000000001485,-7.111753704421539
-0.005700000000000038,-7.28576319430494
-0.00670000000000015,-7.4173313451923875
-0.00770000000000004,-7.591340835075788
-0.008700000000000152,-7.679052935667419
-0.009700000000000042,-7.896918475846635
-0.010700000000000154,-8.027071915434218
-0.011700000000000044,-8.202496116617484
-0.012700000000000156,-8.376505606500881
-0.013700000000000045,-8.508073757388331
-0.014700000000000157,-8.594371146680096
-0.015700000000000047,-8.725939297567548
-0.01670000000000016,-8.812236686859313
-0.01770000000000005,-8.85609273715513
-0.01870000000000016,-8.943804837746763
-0.01970000000000005,-8.943804837746763
-0.020700000000000163,-9.031516938338395
-0.021700000000000053,-9.11781432763016
-0.022700000000000164,-9.205526428221793
-0.023700000000000054,-9.335679867809377
-0.024700000000000166,-9.423391968401008
-0.025700000000000056,-9.511104068992642
-0.026700000000000168,-9.641257508580225
-0.027700000000000058,-9.685113558876042
-0.02870000000000017,-9.81668170976349
-0.02970000000000006,-9.85912304875944
-0.03070000000000017,-9.902979099055257
-0.03170000000000006,-9.902979099055257
-0.03270000000000017,-9.946835149351072
-0.03370000000000006,-9.99069119964689
-0.034700000000000175,-10.034547249942705
-0.035700000000000065,-10.120844639234473
-0.03670000000000018,-10.164700689530287
-0.03770000000000007,-10.25241279012192
-0.03870000000000018,-10.340124890713554
-0.03970000000000007,-10.42642228000532
-0.04070000000000018,-10.514134380596953
-0.04170000000000007,-10.601846481188586
-0.04270000000000018,-10.644287820184536
-0.04370000000000007,-10.644287820184536
-0.044700000000000184,-10.688143870480351
-0.045700000000000074,-10.731999920776168
-0.046700000000000186,-10.731999920776168
-0.047700000000000076,-10.775855971071984
-0.04870000000000019,-10.819712021367803
-0.04970000000000008,-10.906009410659568
-0.05070000000000019,-10.993721511251199
-0.05170000000000008,-11.081433611842833
-0.05270000000000019,-11.1677310011346
-0.05370000000000008,-11.255443101726232
-0.05470000000000019,-11.343155202317865
-0.05570000000000008,-11.385596541313816
-0.056700000000000195,-11.42945259160963
-0.057700000000000085,-11.473308641905447
-0.058700000000000196,-11.473308641905447
-0.059700000000000086,-11.473308641905447
-0.0607000000000002,-11.517164692201263
-0.06170000000000009,-11.604876792792895
-0.0627000000000002,-11.691174182084664
-0.06370000000000009,-11.73503023238048
-0.0647000000000002,-11.82274233297211
-0.06570000000000009,-11.909039722263879
-0.0667000000000002,-11.996751822855511
-0.0677000000000001,-12.040607873151327
-0.0687000000000002,-12.12831997374296
-0.0697000000000001,-12.170761312738911
-0.07070000000000021,-12.214617363034726
-0.0717000000000001,-12.214617363034726
-0.07270000000000021,-12.258473413330542
-0.0737000000000001,-12.302329463626359
-0.07470000000000021,-12.346185513922174
-0.0757000000000001,-12.390041564217992
-0.07670000000000021,-12.476338953509758
-0.0777000000000001,-12.56405105410139
-0.07870000000000021,-12.694204493688973
-0.0797000000000001,-12.781916594280606
-0.08070000000000022,-12.869628694872238
-0.0817000000000001,-12.913484745168056
-0.08270000000000022,-12.955926084164007
-0.08370000000000011,-12.99978213445982
-0.08470000000000022,-13.043638184755638
-0.08570000000000011,-13.087494235051453
-0.08670000000000022,-13.13135028534727
-0.08770000000000011,-13.175206335643086
-0.08870000000000022,-13.217647674639037
-0.08970000000000011,-13.30535977523067
-0.09070000000000022,-13.3930718758223
-0.09170000000000011,-13.523225315409885
-0.09270000000000023,-13.610937416001518
-0.09370000000000012,-13.698649516593148
-0.09470000000000023,-13.784946905884919
-0.09570000000000012,-13.828802956180734
-0.09670000000000023,-13.872659006476551
-0.09770000000000012,-13.916515056772363
-0.09870000000000023,-13.960371107068182
-0.09970000000000012,-13.960371107068182
-0.10070000000000023,-14.002812446064135
-0.10170000000000012,-14.046668496359947
-0.10270000000000024,-14.13438059695158
-0.10370000000000013,-14.217848563643619
-0.10470000000000024,-14.30273124163552
-0.10570000000000013,-14.401761032626075
-0.10670000000000024,-14.529085049613924
-0.10770000000000013,-14.57152638860988
-0.10870000000000024,-14.65640906660178
-0.10970000000000013,-14.69885040559773
-0.11070000000000024,-14.741291744593681
-0.11170000000000013,-14.783733083589633
-0.11270000000000002,-14.783733083589633
-0.11370000000000013,-14.868615761581536
-0.11470000000000002,-14.925204213576137
-0.11570000000000014,-15.01008689156804
-0.11670000000000003,-15.094969569559943
-0.11770000000000014,-15.179852247551842
-0.11870000000000003,-15.264734925543747
-0.11970000000000014,-15.3920589425316
-0.12070000000000003,-15.448647394526201
-0.12170000000000014,-15.533530072518102
-0.12270000000000003,-15.575971411514052
-0.12370000000000014,-15.618412750510005
-0.12470000000000003,-15.660854089505953
-0.12570000000000014,-15.70329542850191
-0.12670000000000003,-15.70329542850191
-0.12770000000000015,-15.74573676749786
-0.12870000000000004,-15.830619445489761
-0.12970000000000015,-15.91550212348166
-0.13070000000000004,-15.972090575476265
-0.13170000000000015,-16.099414592464115
-0.13270000000000004,-16.184297270456018
-0.13370000000000015,-16.269179948447924
-0.13470000000000004,-16.354062626439823
-0.13570000000000015,-16.396503965435777
-0.13670000000000004,-16.438945304431726
-0.13770000000000016,-16.495533756426326
-0.13870000000000005,-16.53797509542228
-0.13970000000000016,-16.53797509542228
-0.14070000000000005,-16.580416434418233
-0.14170000000000016,-16.622857773414182
-0.14270000000000005,-16.70774045140608
-0.14370000000000016,-16.792623129397985
-0.14470000000000005,-16.877505807389888
-0.14570000000000016,-16.919947146385837
-0.14670000000000005,-17.018976937376394
-0.14770000000000016,-17.103859615368293
-0.14870000000000005,-17.146300954364243
-0.14970000000000017,-17.146300954364243
-0.15070000000000006,-17.188742293360193
-0.15170000000000017,-17.188742293360193
-0.15270000000000006,-17.231183632356142
-0.15370000000000017,-17.231183632356142
-0.15470000000000006,-17.2736249713521
-0.15570000000000017,-17.316066310348052
-0.15670000000000006,-17.40094898833995
-0.15770000000000017,-17.4433903273359
-0.15870000000000006,-17.542420118326454
-0.15970000000000018,-17.627302796318357
-0.16070000000000007,-17.669744135314307
-0.16170000000000018,-17.71218547431026
-0.16270000000000007,-17.75462681330621
-0.16370000000000018,-17.797068152302163
-0.16470000000000007,-17.797068152302163
-0.16570000000000018,-17.797068152302163
-0.16670000000000007,-17.797068152302163
-0.16770000000000018,-17.797068152302163
-0.16870000000000007,-17.797068152302163
-0.16970000000000018,-17.881950830294063
-0.17070000000000007,-17.924392169290012
-0.17170000000000019,-18.009274847281915
-0.17270000000000008,-18.06586329927652
-0.1737000000000002,-18.10830463827247
-0.17470000000000008,-18.19318731626437
-0.1757000000000002,-18.15074597726842
-0.17670000000000008,-18.19318731626437
-0.1777000000000002,-18.19318731626437
-0.17870000000000008,-18.19318731626437
-0.1797000000000002,-18.15074597726842
-0.18070000000000008,-18.19318731626437
-0.1817000000000002,-18.19318731626437
-0.18270000000000008,-18.23562865526032
-0.1837000000000002,-18.27806999425627
-0.1847000000000001,-18.320511333252224
-0.1857000000000002,-18.362952672248177
-0.1867000000000001,-18.40539401124413
-0.1877000000000002,-18.44783535024008
-0.1887000000000001,-18.49027668923603
-0.1897000000000002,-18.49027668923603
-0.1907000000000001,-18.44783535024008
-0.1917000000000001,-18.44783535024008
-0.19269999999999998,-18.40539401124413
-0.1937000000000001,-18.40539401124413
-0.19469999999999998,-18.40539401124413
-0.1957000000000001,-18.40539401124413
-0.19669999999999999,-18.44783535024008
-0.1977000000000001,-18.49027668923603
-0.1987,-18.53271802823198
-0.1997000000000001,-18.589306480226583
-0.2007,-18.589306480226583
-0.2017000000000001,-18.631747819222536
-0.2027,-18.589306480226583
-0.2037000000000001,-18.589306480226583
-0.2047,-18.589306480226583
-0.2057000000000001,-18.53271802823198
-0.2067,-18.49027668923603
-0.2077000000000001,-18.49027668923603
-0.2087,-18.49027668923603
-0.2097000000000001,-18.53271802823198
-0.2107,-18.53271802823198
-0.2117000000000001,-18.589306480226583
-0.2127,-18.631747819222536
-0.2137000000000001,-18.631747819222536
-0.2147,-18.674189158218486
-0.2157000000000001,-18.674189158218486
-0.2167,-18.674189158218486
-0.21770000000000012,-18.674189158218486
-0.2187,-18.631747819222536
-0.21970000000000012,-18.53271802823198
-0.2207,-18.53271802823198
-0.22170000000000012,-18.53271802823198
-0.2227,-18.53271802823198
-0.22370000000000012,-18.589306480226583
-0.2247,-18.589306480226583
-0.22570000000000012,-18.631747819222536
-0.2267,-18.674189158218486
-0.22770000000000012,-18.631747819222536
-0.22870000000000001,-18.674189158218486
-0.22970000000000013,-18.674189158218486
-0.23070000000000002,-18.631747819222536
-0.23170000000000013,-18.589306480226583
-0.23270000000000002,-18.53271802823198
-0.23370000000000013,-18.53271802823198
-0.23470000000000002,-18.49027668923603
-0.23570000000000013,-18.53271802823198
-0.23670000000000002,-18.53271802823198
-0.2376999999999999,-18.589306480226583
-0.23870000000000002,-18.631747819222536
-0.2396999999999999,-18.674189158218486
-0.24070000000000003,-18.674189158218486
-0.24169999999999991,-18.716630497214435
-0.24270000000000003,-18.674189158218486
-0.24369999999999992,-18.674189158218486
-0.24470000000000003,-18.674189158218486
-0.24569999999999992,-18.631747819222536
-0.24670000000000003,-18.631747819222536
-0.24769999999999992,-18.631747819222536
-0.24870000000000003,-18.589306480226583
-0.24969999999999992,-18.631747819222536
-0.25070000000000003,-18.674189158218486
-0.2516999999999999,-18.759071836210385
-0.25270000000000004,-18.80151317520634
-0.2536999999999999,-18.843954514202288
-0.25470000000000004,-18.843954514202288
-0.2556999999999999,-18.843954514202288
-0.25670000000000004,-18.88639585319824
-0.25769999999999993,-18.88639585319824
-0.25870000000000004,-18.843954514202288
-0.25969999999999993,-18.80151317520634
-0.26070000000000004,-18.80151317520634
-0.26169999999999993,-18.843954514202288
-0.26270000000000004,-18.88639585319824
-0.26369999999999993,-18.92883719219419
-0.26470000000000005,-18.97127853119014
-0.26569999999999994,-19.01371987018609
-0.26670000000000005,-19.112749661176647
-0.26769999999999994,-19.112749661176647
-0.26870000000000005,-19.197632339168546
-0.26969999999999994,-19.197632339168546
-0.27070000000000005,-19.197632339168546
-0.27169999999999994,-19.197632339168546
-0.27270000000000005,-19.197632339168546
-0.27369999999999994,-19.197632339168546
-0.27470000000000006,-19.2400736781645
-0.27569999999999995,-19.28251501716045
-0.27670000000000006,-19.3249563561564
-0.27769999999999995,-19.367397695152352
-0.27870000000000006,-19.49472171214021
-0.27969999999999995,-19.537163051136158
-0.28070000000000006,-19.636192842126707
-0.28169999999999995,-19.678634181122664
-0.28270000000000006,-19.721075520118614
-0.28369999999999995,-19.721075520118614
-0.28470000000000006,-19.763516859114564
-0.28569999999999995,-19.805958198110513
-0.28670000000000007,-19.848399537106463
-0.28769999999999996,-19.848399537106463
-0.28870000000000007,-19.890840876102416
-0.28969999999999996,-19.97572355409432
-0.29070000000000007,-20.06060623208622
-0.29169999999999996,-20.202077362072725
-0.29270000000000007,-20.286960040064624
-0.29369999999999996,-20.371842718056527
-0.2947000000000001,-20.456725396048434
-0.29569999999999996,-20.499166735044383
-0.2967000000000001,-20.584049413036283
-0.29769999999999996,-20.626490752032236
-0.2987000000000001,-20.683079204026836
-0.29969999999999997,-20.72552054302279
-0.3007000000000001,-20.810403221014692
-0.30169999999999997,-20.85284456001064
-0.3027000000000001,-20.980168576998494
-0.30369999999999997,-21.107492593986347
-0.3047000000000001,-21.2065223849769
-0.30569999999999997,-21.333846401964752
-0.3067000000000001,-21.503611757948562
-0.3077,-21.58849443594046
-0.3087000000000001,-21.67337711393236
-0.3097,-21.772406904922917
-0.3107000000000001,-21.857289582914817
-0.3117,-21.94217226090672
-0.3127000000000001,-22.027054938898623
-0.3137,-22.069496277894572
-0.3147000000000001,-22.196820294882425
-0.3157,-22.295850085872978
-0.3167000000000001,-22.46561544185678
-0.3177,-22.592939458844636
-0.3187000000000001,-22.776851927827092
-0.3197,-22.904175944814945
-0.3207000000000001,-23.073941300798747
-0.3217,-23.2012653177866
-0.3227000000000001,-23.342736447773106
-0.3237,-23.427619125765005
-0.3247000000000001,-23.55494314275286
-0.3257,-23.682267159740714
-0.3267000000000001,-23.767149837732617
-0.3277,-23.86617962872317
-0.3287000000000001,-24.035944984706973
-0.3297,-24.20571034069078
-0.3307000000000001,-24.389622809673234
-0.3317,-24.601829504652986
-0.3327000000000001,-24.771594860636792
-0.3337,-24.95550732961925
-0.3347000000000001,-25.167714024599
-0.3357,-25.295038041586857
-0.3367000000000001,-25.478950510569312
-0.3377,-25.60627452755716
-0.3387000000000001,-25.73359854454502
-0.3397,-25.86092256153287
-0.3407000000000001,-26.044835030515326
-0.3417,-26.21460038649913
-0.3427000000000001,-26.440954194477534
-0.3437,-26.61071955046134
-0.3447000000000001,-26.822926245441096
-0.3457,-27.049280053419505
-0.3467000000000001,-27.303928087395207
-0.3477,-27.530281895373616
-0.3487000000000001,-27.742488590353368
-0.3497,-27.954695285333123
-0.3507000000000001,-28.13860775431558
-0.3517,-28.308373110299385
-0.3527000000000001,-28.478138466283188
-0.3537,-28.704492274261593
-0.3547000000000001,-28.91669896924135
-0.3557,-29.14305277721976
-0.35670000000000013,-29.35525947219951
-0.3577,-29.62405461917387
-0.35870000000000013,-29.878702653149578
-0.3597,-30.147497800123933
-0.36070000000000013,-30.359704495103685
-0.3617,-30.614352529079397
-0.3626999999999999,-30.8407063370578
-0.3637,-31.052913032037555
-0.3646999999999999,-31.27926684001596
-0.3657,-31.533914873991666
-0.3666999999999999,-31.76026868197007
-0.3677,-32.01491671594578
-0.3686999999999999,-32.24127052392419
-0.36970000000000003,-32.53835989689585
-0.3706999999999999,-32.84959638286615
-0.37170000000000003,-33.18912709483376
-0.3726999999999999,-33.50036358080407
-0.37370000000000003,-33.81160006677438
-0.3746999999999999,-34.06624810075008
-0.37570000000000003,-34.41992592571634
-0.3766999999999999,-34.67457395969205
-0.37770000000000004,-34.94336910666641
-0.3786999999999999,-35.198017140642115
-0.37970000000000004,-35.46681228761647
-0.3806999999999999,-35.721460321592176
-0.38170000000000004,-36.03269680756248
-0.38269999999999993,-36.329786180534136
-0.38370000000000004,-36.64102266650445
-0.38469999999999993,-36.95225915247476
-0.38570000000000004,-37.291789864442364
-0.38669999999999993,-37.687909028404576
-0.38770000000000004,-38.04158685337084
-0.38869999999999993,-38.38111756533845
-0.38970000000000005,-38.692354051308754
-0.39069999999999994,-38.94700208528445
-0.39170000000000005,-39.258238571254765
-0.39269999999999994,-39.56947505722508
-0.39370000000000005,-39.86656443019674
-0.39469999999999994,-40.177800916167044
-0.39570000000000005,-40.51733162813464
-0.39669999999999994,-40.87100945310091
-0.39770000000000005,-41.267128617063115
-0.39869999999999994,-41.66324778102533
-0.39970000000000006,-42.04521983198889
-0.40069999999999995,-42.4413389959511
-0.40170000000000006,-42.837458159913304
-0.40269999999999995,-43.17698887188092
-0.40370000000000006,-43.57310803584313
-0.40469999999999995,-43.92678586080939
-0.40570000000000006,-44.223875233781044
-0.40669999999999995,-44.577553058747306
-0.40770000000000006,-44.93123088371356
-0.40869999999999995,-45.32735004767578
-0.40970000000000006,-45.75176343763528
-0.41069999999999995,-46.147882601597495
-0.41170000000000007,-46.544001765559706
-0.41269999999999996,-46.982562268517874
-0.41370000000000007,-47.36453431948143
-0.41469999999999996,-47.80309482243959
-0.41570000000000007,-48.1992139864018
-0.41669999999999996,-48.63777448935996
-0.41770000000000007,-48.97730520132757
-0.41869999999999996,-49.373424365289786
-0.4197000000000001,-49.76954352925199
-0.42069999999999996,-50.1656626932142
-0.4217000000000001,-50.547634744177756
-0.42269999999999996,-50.98619524713592
-0.4237000000000001,-51.424755750094086
-0.42469999999999997,-51.90575759204819
-0.4257000000000001,-52.386759434002315
-0.42669999999999997,-52.86776127595642
-0.4277000000000001,-53.30632177891458
-0.42869999999999997,-53.74488228187274
-0.4297000000000001,-54.16929567183226
-0.43069999999999997,-54.60785617479041
-0.4317000000000001,-55.046416677748574
-0.4327,-55.484977180706736
-0.4337000000000001,-55.9235376836649
-0.4347,-56.404539525619015
-0.4357000000000001,-56.88554136757313
-0.4367,-57.408984548523186
-0.4377000000000001,-57.87583927747865
-0.4387,-58.39928245842871
-0.4397000000000001,-58.97931409137338
-0.4407,-59.403727481332886
-0.4417000000000001,-59.92717066228296
-0.4427,-60.40817250423707
-0.4437000000000001,-60.889174346191176
-0.4447,-61.37017618814529
-0.4457000000000001,-61.80873669110345
-0.4467,-62.28973853305756
-0.4477000000000001,-62.77074037501168
-0.4487,-63.20930087796983
-0.4497000000000001,-63.77518539791585
-0.4507,-64.25618723986996
-0.4517000000000001,-64.82207175981598
-0.4527,-65.34551494076604
-0.4537000000000001,-65.86895812171612
-0.4547,-66.43484264166212
-0.4557000000000001,-66.91584448361623
-0.4567,-67.43928766456631
-0.4577000000000001,-67.96273084551636
-0.4587,-68.48617402646643
-0.4597000000000001,-69.0096172074165
-0.4607,-69.53306038836655
-0.4617000000000001,-70.09894490831257
-0.4627,-70.62238808926263
-0.4637000000000001,-71.2307139482046
-0.4647,-71.7965984681506
-0.4657000000000001,-72.36248298809663
-0.4667,-73.01325018603454
-0.4677000000000001,-73.57913470598055
-0.4687,-74.37137303390499
-0.4697000000000001,-74.8523748758591
-0.4707,-75.33337671781321
-0.4717000000000001,-75.94170257675518
-0.4727,-76.46514575770523
-0.4737000000000001,-76.98858893865528
-0.4747,-77.55447345860131
-0.4757000000000001,-78.12035797854733
-0.4767,-78.68624249849334
-0.4777000000000001,-79.33700969643127
-0.4787,-80.00192400736783
-0.4797000000000001,-80.61024986630979
-0.4807,-81.21857572525175
-0.48170000000000013,-81.95422560118158
-0.4827,-82.43522744313569
-0.48370000000000013,-83.04355330207765
-0.4847,-83.56699648302772
-0.48570000000000013,-84.13288100297372
-0.4867,-83.79335029100612
-0.48570000000000013,-82.35034476514379
-0.4847,-81.13369304725985
-0.48370000000000013,-80.04436534636378
-0.4827,-79.08236166245555
-0.48170000000000013,-78.16279931754329
-0.4807,-77.28567831162695
-0.4797000000000001,-76.46514575770523
-0.4787,-75.77193722077136
-0.4777000000000001,-74.97969889284694
-0.4767,-74.24404901691713
-0.4757000000000001,-73.49425202798865
-0.4747,-72.71616081306288
-0.4737000000000001,-71.96636382413442
-0.4727,-71.27315528720055
-0.4717000000000001,-70.53750541127073
-0.4707,-69.8301497613382
-0.4697000000000001,-69.1793825634003
-0.4687,-68.48617402646643
-0.4677000000000001,-67.7788183765339
-0.4667,-67.128051178596
-0.4657000000000001,-66.43484264166212
-0.4647,-65.76992833072556
