Aug. 7, 2024   13:19:46
Cyclic Voltammetry
File: c:/users/guazh/data/20240802_batch_500/2024-08-02-exp45\exp45-2024-08-07t13_07_54-arkoh\exp45_cv_sr_600mvs_efin_-1500mv.bin
Data Source:  Experiment
Instrument Model:  CHI760E
Header: CV ran at 600 mVs
Note: 

Init E (V) = -1
High E (V) = -1
Low E (V) = -1.5
Final E (V) = -1
Init P/N = N
Scan Rate (V/s) = 0.6
Segment = 3
Sample Interval (V) = 0.001
Quiet Time (sec) = 2
Sensitivity (A/V) = 0.01
Comp R (ohm) = 2.2

Results:

Channel 1:
Segment 1:

Segment 2:

Segment 3:

Potential/V, Current/A

-1.000, -2.759e-5
-1.001, 4.332e-5
-1.002, 9.265e-5
-1.003, 1.358e-4
-1.004, 1.728e-4
-1.005, 2.006e-4
-1.006, 2.252e-4
-1.007, 2.499e-4
-1.008, 2.715e-4
-1.009, 2.961e-4
-1.010, 3.177e-4
-1.011, 3.393e-4
-1.012, 3.547e-4
-1.013, 3.670e-4
-1.014, 3.763e-4
-1.015, 3.886e-4
-1.016, 3.948e-4
-1.017, 4.040e-4
-1.018, 4.133e-4
-1.019, 4.256e-4
-1.020, 4.349e-4
-1.021, 4.472e-4
-1.022, 4.565e-4
-1.023, 4.626e-4
-1.024, 4.657e-4
-1.025, 4.719e-4
-1.026, 4.750e-4
-1.027, 4.780e-4
-1.028, 4.842e-4
-1.029, 4.904e-4
-1.030, 4.996e-4
-1.031, 5.089e-4
-1.032, 5.120e-4
-1.033, 5.181e-4
-1.034, 5.212e-4
-1.035, 5.212e-4
-1.036, 5.243e-4
-1.037, 5.274e-4
-1.038, 5.305e-4
-1.039, 5.366e-4
-1.040, 5.428e-4
-1.041, 5.520e-4
-1.042, 5.551e-4
-1.043, 5.613e-4
-1.044, 5.613e-4
-1.045, 5.644e-4
-1.046, 5.613e-4
-1.047, 5.644e-4
-1.048, 5.674e-4
-1.049, 5.736e-4
-1.050, 5.798e-4
-1.051, 5.890e-4
-1.052, 5.921e-4
-1.053, 5.952e-4
-1.054, 5.983e-4
-1.055, 6.014e-4
-1.056, 5.983e-4
-1.057, 6.044e-4
-1.058, 6.075e-4
-1.059, 6.137e-4
-1.060, 6.199e-4
-1.061, 6.260e-4
-1.062, 6.291e-4
-1.063, 6.353e-4
-1.064, 6.353e-4
-1.065, 6.353e-4
-1.066, 6.353e-4
-1.067, 6.384e-4
-1.068, 6.414e-4
-1.069, 6.476e-4
-1.070, 6.538e-4
-1.071, 6.630e-4
-1.072, 6.661e-4
-1.073, 6.692e-4
-1.074, 6.723e-4
-1.075, 6.754e-4
-1.076, 6.754e-4
-1.077, 6.784e-4
-1.078, 6.815e-4
-1.079, 6.877e-4
-1.080, 6.939e-4
-1.081, 7.031e-4
-1.082, 7.062e-4
-1.083, 7.124e-4
-1.084, 7.124e-4
-1.085, 7.154e-4
-1.086, 7.124e-4
-1.087, 7.185e-4
-1.088, 7.216e-4
-1.089, 7.278e-4
-1.090, 7.339e-4
-1.091, 7.401e-4
-1.092, 7.463e-4
-1.093, 7.494e-4
-1.094, 7.524e-4
-1.095, 7.555e-4
-1.096, 7.524e-4
-1.097, 7.555e-4
-1.098, 7.617e-4
-1.099, 7.679e-4
-1.100, 7.740e-4
-1.101, 7.833e-4
-1.102, 7.863e-4
-1.103, 7.925e-4
-1.104, 7.925e-4
-1.105, 7.956e-4
-1.106, 7.956e-4
-1.107, 7.987e-4
-1.108, 8.048e-4
-1.109, 8.110e-4
-1.110, 8.172e-4
-1.111, 8.264e-4
-1.112, 8.326e-4
-1.113, 8.357e-4
-1.114, 8.357e-4
-1.115, 8.388e-4
-1.116, 8.418e-4
-1.117, 8.418e-4
-1.118, 8.480e-4
-1.119, 8.542e-4
-1.120, 8.603e-4
-1.121, 8.665e-4
-1.122, 8.727e-4
-1.123, 8.788e-4
-1.124, 8.788e-4
-1.125, 8.819e-4
-1.126, 8.819e-4
-1.127, 8.850e-4
-1.128, 8.881e-4
-1.129, 8.943e-4
-1.130, 9.004e-4
-1.131, 9.097e-4
-1.132, 9.128e-4
-1.133, 9.158e-4
-1.134, 9.189e-4
-1.135, 9.189e-4
-1.136, 9.189e-4
-1.137, 9.220e-4
-1.138, 9.282e-4
-1.139, 9.313e-4
-1.140, 9.405e-4
-1.141, 9.467e-4
-1.142, 9.528e-4
-1.143, 9.559e-4
-1.144, 9.559e-4
-1.145, 9.590e-4
-1.146, 9.559e-4
-1.147, 9.590e-4
-1.148, 9.652e-4
-1.149, 9.683e-4
-1.150, 9.744e-4
-1.151, 9.806e-4
-1.152, 9.837e-4
-1.153, 9.898e-4
-1.154, 9.898e-4
-1.155, 9.929e-4
-1.156, 9.929e-4
-1.157, 9.929e-4
-1.158, 9.960e-4
-1.159, 1.002e-3
-1.160, 1.008e-3
-1.161, 1.014e-3
-1.162, 1.018e-3
-1.163, 1.021e-3
-1.164, 1.021e-3
-1.165, 1.021e-3
-1.166, 1.021e-3
-1.167, 1.024e-3
-1.168, 1.024e-3
-1.169, 1.030e-3
-1.170, 1.036e-3
-1.171, 1.042e-3
-1.172, 1.042e-3
-1.173, 1.045e-3
-1.174, 1.045e-3
-1.175, 1.042e-3
-1.176, 1.039e-3
-1.177, 1.042e-3
-1.178, 1.042e-3
-1.179, 1.048e-3
-1.180, 1.051e-3
-1.181, 1.058e-3
-1.182, 1.058e-3
-1.183, 1.061e-3
-1.184, 1.061e-3
-1.185, 1.058e-3
-1.186, 1.058e-3
-1.187, 1.058e-3
-1.188, 1.058e-3
-1.189, 1.058e-3
-1.190, 1.064e-3
-1.191, 1.067e-3
-1.192, 1.070e-3
-1.193, 1.073e-3
-1.194, 1.070e-3
-1.195, 1.067e-3
-1.196, 1.067e-3
-1.197, 1.064e-3
-1.198, 1.064e-3
-1.199, 1.067e-3
-1.200, 1.070e-3
-1.201, 1.073e-3
-1.202, 1.073e-3
-1.203, 1.076e-3
-1.204, 1.073e-3
-1.205, 1.070e-3
-1.206, 1.067e-3
-1.207, 1.067e-3
-1.208, 1.064e-3
-1.209, 1.067e-3
-1.210, 1.070e-3
-1.211, 1.073e-3
-1.212, 1.073e-3
-1.213, 1.073e-3
-1.214, 1.070e-3
-1.215, 1.067e-3
-1.216, 1.064e-3
-1.217, 1.064e-3
-1.218, 1.064e-3
-1.219, 1.064e-3
-1.220, 1.067e-3
-1.221, 1.070e-3
-1.222, 1.070e-3
-1.223, 1.070e-3
-1.224, 1.064e-3
-1.225, 1.064e-3
-1.226, 1.058e-3
-1.227, 1.058e-3
-1.228, 1.055e-3
-1.229, 1.058e-3
-1.230, 1.061e-3
-1.231, 1.064e-3
-1.232, 1.064e-3
-1.233, 1.064e-3
-1.234, 1.061e-3
-1.235, 1.058e-3
-1.236, 1.055e-3
-1.237, 1.051e-3
-1.238, 1.051e-3
-1.239, 1.055e-3
-1.240, 1.058e-3
-1.241, 1.061e-3
-1.242, 1.061e-3
-1.243, 1.061e-3
-1.244, 1.058e-3
-1.245, 1.058e-3
-1.246, 1.055e-3
-1.247, 1.051e-3
-1.248, 1.048e-3
-1.249, 1.051e-3
-1.250, 1.055e-3
-1.251, 1.058e-3
-1.252, 1.058e-3
-1.253, 1.058e-3
-1.254, 1.058e-3
-1.255, 1.055e-3
-1.256, 1.051e-3
-1.257, 1.051e-3
-1.258, 1.051e-3
-1.259, 1.055e-3
-1.260, 1.058e-3
-1.261, 1.061e-3
-1.262, 1.064e-3
-1.263, 1.067e-3
-1.264, 1.064e-3
-1.265, 1.064e-3
-1.266, 1.061e-3
-1.267, 1.061e-3
-1.268, 1.064e-3
-1.269, 1.064e-3
-1.270, 1.070e-3
-1.271, 1.073e-3
-1.272, 1.076e-3
-1.273, 1.079e-3
-1.274, 1.079e-3
-1.275, 1.079e-3
-1.276, 1.076e-3
-1.277, 1.079e-3
-1.278, 1.079e-3
-1.279, 1.085e-3
-1.280, 1.092e-3
-1.281, 1.098e-3
-1.282, 1.101e-3
-1.283, 1.104e-3
-1.284, 1.104e-3
-1.285, 1.104e-3
-1.286, 1.104e-3
-1.287, 1.104e-3
-1.288, 1.107e-3
-1.289, 1.113e-3
-1.290, 1.116e-3
-1.291, 1.125e-3
-1.292, 1.129e-3
-1.293, 1.135e-3
-1.294, 1.135e-3
-1.295, 1.138e-3
-1.296, 1.138e-3
-1.297, 1.141e-3
-1.298, 1.144e-3
-1.299, 1.153e-3
-1.300, 1.159e-3
-1.301, 1.169e-3
-1.302, 1.172e-3
-1.303, 1.181e-3
-1.304, 1.181e-3
-1.305, 1.187e-3
-1.306, 1.187e-3
-1.307, 1.193e-3
-1.308, 1.196e-3
-1.309, 1.203e-3
-1.310, 1.212e-3
-1.311, 1.221e-3
-1.312, 1.227e-3
-1.313, 1.236e-3
-1.314, 1.240e-3
-1.315, 1.243e-3
-1.316, 1.249e-3
-1.317, 1.252e-3
-1.318, 1.261e-3
-1.319, 1.270e-3
-1.320, 1.280e-3
-1.321, 1.295e-3
-1.322, 1.301e-3
-1.323, 1.310e-3
-1.324, 1.320e-3
-1.325, 1.323e-3
-1.326, 1.329e-3
-1.327, 1.338e-3
-1.328, 1.344e-3
-1.329, 1.354e-3
-1.330, 1.366e-3
-1.331, 1.378e-3
-1.332, 1.391e-3
-1.333, 1.400e-3
-1.334, 1.409e-3
-1.335, 1.415e-3
-1.336, 1.421e-3
-1.337, 1.434e-3
-1.338, 1.443e-3
-1.339, 1.455e-3
-1.340, 1.468e-3
-1.341, 1.480e-3
-1.342, 1.495e-3
-1.343, 1.508e-3
-1.344, 1.517e-3
-1.345, 1.529e-3
-1.346, 1.536e-3
-1.347, 1.548e-3
-1.348, 1.560e-3
-1.349, 1.576e-3
-1.350, 1.594e-3
-1.351, 1.610e-3
-1.352, 1.625e-3
-1.353, 1.637e-3
-1.354, 1.650e-3
-1.355, 1.662e-3
-1.356, 1.674e-3
-1.357, 1.687e-3
-1.358, 1.699e-3
-1.359, 1.717e-3
-1.360, 1.736e-3
-1.361, 1.754e-3
-1.362, 1.773e-3
-1.363, 1.788e-3
-1.364, 1.804e-3
-1.365, 1.816e-3
-1.366, 1.828e-3
-1.367, 1.844e-3
-1.368, 1.859e-3
-1.369, 1.878e-3
-1.370, 1.899e-3
-1.371, 1.918e-3
-1.372, 1.939e-3
-1.373, 1.958e-3
-1.374, 1.973e-3
-1.375, 1.989e-3
-1.376, 2.004e-3
-1.377, 2.023e-3
-1.378, 2.038e-3
-1.379, 2.060e-3
-1.380, 2.084e-3
-1.381, 2.106e-3
-1.382, 2.128e-3
-1.383, 2.146e-3
-1.384, 2.164e-3
-1.385, 2.183e-3
-1.386, 2.198e-3
-1.387, 2.217e-3
-1.388, 2.238e-3
-1.389, 2.260e-3
-1.390, 2.285e-3
-1.391, 2.309e-3
-1.392, 2.331e-3
-1.393, 2.356e-3
-1.394, 2.377e-3
-1.395, 2.399e-3
-1.396, 2.420e-3
-1.397, 2.439e-3
-1.398, 2.460e-3
-1.399, 2.485e-3
-1.400, 2.513e-3
-1.401, 2.541e-3
-1.402, 2.568e-3
-1.403, 2.593e-3
-1.404, 2.615e-3
-1.405, 2.636e-3
-1.406, 2.661e-3
-1.407, 2.682e-3
-1.408, 2.704e-3
-1.409, 2.732e-3
-1.410, 2.760e-3
-1.411, 2.784e-3
-1.412, 2.815e-3
-1.413, 2.840e-3
-1.414, 2.867e-3
-1.415, 2.892e-3
-1.416, 2.917e-3
-1.417, 2.945e-3
-1.418, 2.969e-3
-1.419, 3.000e-3
-1.420, 3.034e-3
-1.421, 3.065e-3
-1.422, 3.096e-3
-1.423, 3.123e-3
-1.424, 3.151e-3
-1.425, 3.179e-3
-1.426, 3.204e-3
-1.427, 3.231e-3
-1.428, 3.262e-3
-1.429, 3.296e-3
-1.430, 3.330e-3
-1.431, 3.364e-3
-1.432, 3.395e-3
-1.433, 3.429e-3
-1.434, 3.456e-3
-1.435, 3.487e-3
-1.436, 3.518e-3
-1.437, 3.549e-3
-1.438, 3.583e-3
-1.439, 3.617e-3
-1.440, 3.651e-3
-1.441, 3.688e-3
-1.442, 3.721e-3
-1.443, 3.755e-3
-1.444, 3.786e-3
-1.445, 3.817e-3
-1.446, 3.848e-3
-1.447, 3.882e-3
-1.448, 3.916e-3
-1.449, 3.953e-3
-1.450, 3.990e-3
-1.451, 4.027e-3
-1.452, 4.067e-3
-1.453, 4.101e-3
-1.454, 4.135e-3
-1.455, 4.169e-3
-1.456, 4.199e-3
-1.457, 4.236e-3
-1.458, 4.270e-3
-1.459, 4.307e-3
-1.460, 4.347e-3
-1.461, 4.384e-3
-1.462, 4.424e-3
-1.463, 4.461e-3
-1.464, 4.495e-3
-1.465, 4.529e-3
-1.466, 4.563e-3
-1.467, 4.600e-3
-1.468, 4.637e-3
-1.469, 4.677e-3
-1.470, 4.720e-3
-1.471, 4.764e-3
-1.472, 4.804e-3
-1.473, 4.844e-3
-1.474, 4.878e-3
-1.475, 4.915e-3
-1.476, 4.952e-3
-1.477, 4.989e-3
-1.478, 5.029e-3
-1.479, 5.072e-3
-1.480, 5.112e-3
-1.481, 5.155e-3
-1.482, 5.195e-3
-1.483, 5.241e-3
-1.484, 5.282e-3
-1.485, 5.319e-3
-1.486, 5.356e-3
-1.487, 5.396e-3
-1.488, 5.436e-3
-1.489, 5.482e-3
-1.490, 5.528e-3
-1.491, 5.574e-3
-1.492, 5.618e-3
-1.493, 5.664e-3
-1.494, 5.704e-3
-1.495, 5.744e-3
-1.496, 5.784e-3
-1.497, 5.827e-3
-1.498, 5.870e-3
-1.499, 5.910e-3
-1.500, 5.901e-3
-1.499, 5.809e-3
-1.498, 5.738e-3
-1.497, 5.664e-3
-1.496, 5.599e-3
-1.495, 5.534e-3
-1.494, 5.467e-3
-1.493, 5.411e-3
-1.492, 5.352e-3
-1.491, 5.300e-3
-1.490, 5.251e-3
-1.489, 5.198e-3
-1.488, 5.149e-3
-1.487, 5.100e-3
-1.486, 5.044e-3
-1.485, 4.992e-3
-1.484, 4.939e-3
-1.483, 4.887e-3
-1.482, 4.838e-3
-1.481, 4.788e-3
-1.480, 4.742e-3
-1.479, 4.699e-3
-1.478, 4.653e-3
-1.477, 4.606e-3
-1.476, 4.557e-3
-1.475, 4.508e-3
-1.474, 4.458e-3
-1.473, 4.409e-3
-1.472, 4.363e-3
-1.471, 4.320e-3
-1.470, 4.280e-3
-1.469, 4.236e-3
-1.468, 4.190e-3
-1.467, 4.150e-3
-1.466, 4.104e-3
-1.465, 4.054e-3
-1.464, 4.008e-3
-1.463, 3.962e-3
-1.462, 3.919e-3
-1.461, 3.879e-3
-1.460, 3.839e-3
-1.459, 3.799e-3
-1.458, 3.758e-3
-1.457, 3.718e-3
-1.456, 3.675e-3
-1.455, 3.632e-3
-1.454, 3.586e-3
-1.453, 3.546e-3
-1.452, 3.503e-3
-1.451, 3.462e-3
-1.450, 3.429e-3
-1.449, 3.392e-3
-1.448, 3.355e-3
-1.447, 3.318e-3
-1.446, 3.274e-3
-1.445, 3.231e-3
-1.444, 3.191e-3
-1.443, 3.151e-3
-1.442, 3.111e-3
-1.441, 3.074e-3
-1.440, 3.040e-3
-1.439, 3.006e-3
-1.438, 2.969e-3
-1.437, 2.935e-3
-1.436, 2.895e-3
-1.435, 2.855e-3
-1.434, 2.815e-3
-1.433, 2.778e-3
-1.432, 2.741e-3
-1.431, 2.707e-3
-1.430, 2.676e-3
-1.429, 2.645e-3
-1.428, 2.612e-3
-1.427, 2.578e-3
-1.426, 2.541e-3
-1.425, 2.504e-3
-1.424, 2.467e-3
-1.423, 2.430e-3
-1.422, 2.396e-3
-1.421, 2.362e-3
-1.420, 2.331e-3
-1.419, 2.300e-3
-1.418, 2.269e-3
-1.417, 2.238e-3
-1.416, 2.201e-3
-1.415, 2.168e-3
-1.414, 2.134e-3
-1.413, 2.100e-3
-1.412, 2.066e-3
-1.411, 2.035e-3
-1.410, 2.010e-3
-1.409, 1.983e-3
-1.408, 1.952e-3
-1.407, 1.921e-3
-1.406, 1.890e-3
-1.405, 1.859e-3
-1.404, 1.825e-3
-1.403, 1.795e-3
-1.402, 1.764e-3
-1.401, 1.736e-3
-1.400, 1.711e-3
-1.399, 1.684e-3
-1.398, 1.659e-3
-1.397, 1.631e-3
-1.396, 1.600e-3
-1.395, 1.569e-3
-1.394, 1.539e-3
-1.393, 1.511e-3
-1.392, 1.480e-3
-1.391, 1.455e-3
-1.390, 1.431e-3
-1.389, 1.409e-3
-1.388, 1.381e-3
-1.387, 1.360e-3
-1.386, 1.329e-3
-1.385, 1.301e-3
-1.384, 1.273e-3
-1.383, 1.246e-3
-1.382, 1.218e-3
-1.381, 1.196e-3
-1.380, 1.175e-3
-1.379, 1.153e-3
-1.378, 1.129e-3
-1.377, 1.107e-3
-1.376, 1.079e-3
-1.375, 1.051e-3
-1.374, 1.027e-3
-1.373, 1.002e-3
-1.372, 9.775e-4
-1.371, 9.559e-4
-1.370, 9.343e-4
-1.369, 9.128e-4
-1.368, 8.943e-4
-1.367, 8.727e-4
-1.366, 8.480e-4
-1.365, 8.203e-4
-1.364, 7.956e-4
-1.363, 7.740e-4
-1.362, 7.494e-4
-1.361, 7.309e-4
-1.360, 7.124e-4
-1.359, 6.969e-4
-1.358, 6.784e-4
-1.357, 6.569e-4
-1.356, 6.353e-4
-1.355, 6.137e-4
-1.354, 5.890e-4
-1.353, 5.674e-4
-1.352, 5.459e-4
-1.351, 5.274e-4
-1.350, 5.120e-4
-1.349, 4.965e-4
-1.348, 4.780e-4
-1.347, 4.595e-4
-1.346, 4.380e-4
-1.345, 4.164e-4
-1.344, 3.948e-4
-1.343, 3.763e-4
-1.342, 3.578e-4
-1.341, 3.424e-4
-1.340, 3.239e-4
-1.339, 3.115e-4
-1.338, 2.961e-4
-1.337, 2.807e-4
-1.336, 2.622e-4
-1.335, 2.406e-4
-1.334, 2.221e-4
-1.333, 2.036e-4
-1.332, 1.851e-4
-1.331, 1.728e-4
-1.330, 1.574e-4
-1.329, 1.451e-4
-1.328, 1.296e-4
-1.327, 1.173e-4
-1.326, 9.882e-5
-1.325, 8.340e-5
-1.324, 6.182e-5
-1.323, 4.640e-5
-1.322, 3.099e-5
-1.321, 1.865e-5
-1.320, 6.322e-6
-1.319, -6.010e-6
-1.318, -1.834e-5
-1.317, -3.068e-5
-1.316, -4.609e-5
-1.315, -6.459e-5
-1.314, -8.000e-5
-1.313, -9.542e-5
-1.312, -1.108e-4
-1.311, -1.201e-4
-1.310, -1.324e-4
-1.309, -1.386e-4
-1.308, -1.509e-4
-1.307, -1.632e-4
-1.306, -1.756e-4
-1.305, -1.910e-4
-1.304, -2.064e-4
-1.303, -2.218e-4
-1.302, -2.342e-4
-1.301, -2.434e-4
-1.300, -2.527e-4
-1.299, -2.619e-4
-1.298, -2.712e-4
-1.297, -2.804e-4
-1.296, -2.927e-4
-1.295, -3.082e-4
-1.294, -3.205e-4
-1.293, -3.328e-4
-1.292, -3.452e-4
-1.291, -3.513e-4
-1.290, -3.606e-4
-1.289, -3.667e-4
-1.288, -3.729e-4
-1.287, -3.821e-4
-1.286, -3.945e-4
-1.285, -4.037e-4
-1.284, -4.191e-4
-1.283, -4.284e-4
-1.282, -4.376e-4
-1.281, -4.438e-4
-1.280, -4.531e-4
-1.279, -4.592e-4
-1.278, -4.654e-4
-1.277, -4.716e-4
-1.276, -4.839e-4
-1.275, -4.931e-4
-1.274, -5.055e-4
-1.273, -5.147e-4
-1.272, -5.240e-4
-1.271, -5.271e-4
-1.270, -5.332e-4
-1.269, -5.363e-4
-1.268, -5.425e-4
-1.267, -5.486e-4
-1.266, -5.579e-4
-1.265, -5.671e-4
-1.264, -5.764e-4
-1.263, -5.887e-4
-1.262, -5.949e-4
-1.261, -5.980e-4
-1.260, -6.041e-4
-1.259, -6.072e-4
-1.258, -6.103e-4
-1.257, -6.165e-4
-1.256, -6.226e-4
-1.255, -6.319e-4
-1.254, -6.411e-4
-1.253, -6.473e-4
-1.252, -6.535e-4
-1.251, -6.596e-4
-1.250, -6.596e-4
-1.249, -6.627e-4
-1.248, -6.658e-4
-1.247, -6.689e-4
-1.246, -6.750e-4
-1.245, -6.843e-4
-1.244, -6.905e-4
-1.243, -6.997e-4
-1.242, -7.059e-4
-1.241, -7.059e-4
-1.240, -7.090e-4
-1.239, -7.090e-4
-1.238, -7.120e-4
-1.237, -7.151e-4
-1.236, -7.213e-4
-1.235, -7.275e-4
-1.234, -7.367e-4
-1.233, -7.429e-4
-1.232, -7.460e-4
-1.231, -7.490e-4
-1.230, -7.490e-4
-1.229, -7.521e-4
-1.228, -7.552e-4
-1.227, -7.552e-4
-1.226, -7.614e-4
-1.225, -7.675e-4
-1.224, -7.706e-4
-1.223, -7.768e-4
-1.222, -7.830e-4
-1.221, -7.830e-4
-1.220, -7.830e-4
-1.219, -7.830e-4
-1.218, -7.830e-4
-1.217, -7.830e-4
-1.216, -7.891e-4
-1.215, -7.922e-4
-1.214, -7.984e-4
-1.213, -8.045e-4
-1.212, -8.076e-4
-1.211, -8.076e-4
-1.210, -8.076e-4
-1.209, -8.045e-4
-1.208, -8.045e-4
-1.207, -8.045e-4
-1.206, -8.076e-4
-1.205, -8.138e-4
-1.204, -8.200e-4
-1.203, -8.230e-4
-1.202, -8.261e-4
-1.201, -8.261e-4
-1.200, -8.261e-4
-1.199, -8.230e-4
-1.198, -8.230e-4
-1.197, -8.230e-4
-1.196, -8.261e-4
-1.195, -8.292e-4
-1.194, -8.323e-4
-1.193, -8.354e-4
-1.192, -8.385e-4
-1.191, -8.354e-4
-1.190, -8.354e-4
-1.189, -8.323e-4
-1.188, -8.323e-4
-1.187, -8.323e-4
-1.186, -8.354e-4
-1.185, -8.385e-4
-1.184, -8.446e-4
-1.183, -8.477e-4
-1.182, -8.477e-4
-1.181, -8.477e-4
-1.180, -8.446e-4
-1.179, -8.415e-4
-1.178, -8.385e-4
-1.177, -8.385e-4
-1.176, -8.415e-4
-1.175, -8.446e-4
-1.174, -8.477e-4
-1.173, -8.508e-4
-1.172, -8.539e-4
-1.171, -8.508e-4
-1.170, -8.477e-4
-1.169, -8.446e-4
-1.168, -8.446e-4
-1.167, -8.446e-4
-1.166, -8.446e-4
-1.165, -8.477e-4
-1.164, -8.539e-4
-1.163, -8.539e-4
-1.162, -8.569e-4
-1.161, -8.539e-4
-1.160, -8.508e-4
-1.159, -8.477e-4
-1.158, -8.477e-4
-1.157, -8.446e-4
-1.156, -8.477e-4
-1.155, -8.508e-4
-1.154, -8.539e-4
-1.153, -8.569e-4
-1.152, -8.569e-4
-1.151, -8.569e-4
-1.150, -8.539e-4
-1.149, -8.508e-4
-1.148, -8.508e-4
-1.147, -8.477e-4
-1.146, -8.508e-4
-1.145, -8.539e-4
-1.144, -8.569e-4
-1.143, -8.600e-4
-1.142, -8.600e-4
-1.141, -8.569e-4
-1.140, -8.539e-4
-1.139, -8.508e-4
-1.138, -8.477e-4
-1.137, -8.477e-4
-1.136, -8.508e-4
-1.135, -8.508e-4
-1.134, -8.539e-4
-1.133, -8.569e-4
-1.132, -8.600e-4
-1.131, -8.569e-4
-1.130, -8.569e-4
-1.129, -8.539e-4
-1.128, -8.539e-4
-1.127, -8.539e-4
-1.126, -8.569e-4
-1.125, -8.600e-4
-1.124, -8.631e-4
-1.123, -8.662e-4
-1.122, -8.662e-4
-1.121, -8.662e-4
-1.120, -8.631e-4
-1.119, -8.569e-4
-1.118, -8.569e-4
-1.117, -8.569e-4
-1.116, -8.569e-4
-1.115, -8.600e-4
-1.114, -8.662e-4
-1.113, -8.693e-4
-1.112, -8.724e-4
-1.111, -8.724e-4
-1.110, -8.693e-4
-1.109, -8.693e-4
-1.108, -8.662e-4
-1.107, -8.662e-4
-1.106, -8.693e-4
-1.105, -8.724e-4
-1.104, -8.754e-4
-1.103, -8.785e-4
-1.102, -8.816e-4
-1.101, -8.785e-4
-1.100, -8.785e-4
-1.099, -8.754e-4
-1.098, -8.754e-4
-1.097, -8.785e-4
-1.096, -8.816e-4
-1.095, -8.847e-4
-1.094, -8.909e-4
-1.093, -8.939e-4
-1.092, -8.970e-4
-1.091, -8.970e-4
-1.090, -8.939e-4
-1.089, -8.939e-4
-1.088, -8.909e-4
-1.087, -8.939e-4
-1.086, -8.970e-4
-1.085, -9.001e-4
-1.084, -9.032e-4
-1.083, -9.094e-4
-1.082, -9.124e-4
-1.081, -9.094e-4
-1.080, -9.094e-4
-1.079, -9.094e-4
-1.078, -9.094e-4
-1.077, -9.094e-4
-1.076, -9.124e-4
-1.075, -9.186e-4
-1.074, -9.248e-4
-1.073, -9.279e-4
-1.072, -9.309e-4
-1.071, -9.309e-4
-1.070, -9.309e-4
-1.069, -9.279e-4
-1.068, -9.279e-4
-1.067, -9.309e-4
-1.066, -9.340e-4
-1.065, -9.402e-4
-1.064, -9.433e-4
-1.063, -9.494e-4
-1.062, -9.525e-4
-1.061, -9.525e-4
-1.060, -9.556e-4
-1.059, -9.525e-4
-1.058, -9.556e-4
-1.057, -9.556e-4
-1.056, -9.587e-4
-1.055, -9.649e-4
-1.054, -9.679e-4
-1.053, -9.741e-4
-1.052, -9.772e-4
-1.051, -9.772e-4
-1.050, -9.803e-4
-1.049, -9.803e-4
-1.048, -9.803e-4
-1.047, -9.834e-4
-1.046, -9.864e-4
-1.045, -9.926e-4
-1.044, -9.988e-4
-1.043, -1.005e-3
-1.042, -1.008e-3
-1.041, -1.008e-3
-1.040, -1.011e-3
-1.039, -1.011e-3
-1.038, -1.011e-3
-1.037, -1.011e-3
-1.036, -1.017e-3
-1.035, -1.023e-3
-1.034, -1.030e-3
-1.033, -1.036e-3
-1.032, -1.039e-3
-1.031, -1.042e-3
-1.030, -1.042e-3
-1.029, -1.042e-3
-1.028, -1.045e-3
-1.027, -1.048e-3
-1.026, -1.054e-3
-1.025, -1.057e-3
-1.024, -1.067e-3
-1.023, -1.073e-3
-1.022, -1.076e-3
-1.021, -1.076e-3
-1.020, -1.079e-3
-1.019, -1.079e-3
-1.018, -1.082e-3
-1.017, -1.085e-3
-1.016, -1.091e-3
-1.015, -1.097e-3
-1.014, -1.104e-3
-1.013, -1.110e-3
-1.012, -1.116e-3
-1.011, -1.119e-3
-1.010, -1.119e-3
-1.009, -1.122e-3
-1.008, -1.125e-3
-1.007, -1.128e-3
-1.006, -1.134e-3
-1.005, -1.141e-3
-1.004, -1.147e-3
-1.003, -1.153e-3
-1.002, -1.159e-3
-1.001, -1.162e-3
