Potential V vs RHE, Current mA cm-2
0.013299999999999867,0.3903188476327636
0.012299999999999978,-0.6128529351015338
0.011299999999999866,-1.3107300193249565
0.010299999999999976,-1.92117794521672
0.009299999999999864,-2.4446211261667834
0.008299999999999974,-2.8379108675292635
0.007299999999999862,-3.1859298472960624
0.006299999999999972,-3.5353635383627267
0.00529999999999986,-3.840941179133574
0.0042999999999999705,-4.1889601589003735
0.0032999999999998586,-4.494537799671222
0.0022999999999999687,-4.800115440442069
0.0012999999999998568,-5.017980980621284
0.00029999999999996696,-5.191990470504685
-0.000700000000000145,-5.323558621392133
-0.0017000000000000348,-5.497568111275533
-0.0027000000000001467,-5.585280211867165
-0.0037000000000000366,-5.715433651454749
-0.0047000000000001485,-5.847001802342197
-0.005700000000000038,-6.021011292225596
-0.00670000000000015,-6.152579443113044
-0.00770000000000004,-6.326588932996443
-0.008700000000000152,-6.458157083883892
-0.009700000000000042,-6.54445447317566
-0.010700000000000154,-6.588310523471475
-0.011700000000000044,-6.6760226240631075
-0.012700000000000156,-6.719878674358924
-0.013700000000000045,-6.762320013354876
-0.014700000000000157,-6.850032113946507
-0.015700000000000047,-6.93774421453814
-0.01670000000000016,-7.067897654125724
-0.01770000000000005,-7.199465805013171
-0.01870000000000016,-7.243321855308987
-0.01970000000000005,-7.329619244600755
-0.020700000000000163,-7.37347529489657
-0.021700000000000053,-7.37347529489657
-0.022700000000000164,-7.4173313451923875
-0.023700000000000054,-7.461187395488204
-0.024700000000000166,-7.50504344578402
-0.025700000000000056,-7.591340835075788
-0.026700000000000168,-7.679052935667419
-0.027700000000000058,-7.809206375255003
-0.02870000000000017,-7.853062425550818
-0.02970000000000006,-7.940774526142452
-0.03070000000000017,-7.940774526142452
-0.03170000000000006,-7.984630576438266
-0.03270000000000017,-7.940774526142452
-0.03370000000000006,-7.984630576438266
-0.034700000000000175,-8.027071915434218
-0.035700000000000065,-8.11478401602585
-0.03670000000000018,-8.202496116617484
-0.03770000000000007,-8.332649556205066
-0.03870000000000018,-8.376505606500881
-0.03970000000000007,-8.4203616567967
-0.04070000000000018,-8.464217707092514
-0.04170000000000007,-8.508073757388331
-0.04270000000000018,-8.464217707092514
-0.04370000000000007,-8.55051509638428
-0.044700000000000184,-8.594371146680096
-0.045700000000000074,-8.68208324727173
-0.046700000000000186,-8.769795347863363
-0.047700000000000076,-8.85609273715513
-0.04870000000000019,-8.899948787450944
-0.04970000000000008,-8.987660888042578
-0.05070000000000019,-8.987660888042578
-0.05170000000000008,-8.987660888042578
-0.05270000000000019,-8.987660888042578
-0.05370000000000008,-9.031516938338395
-0.05470000000000019,-9.073958277334345
-0.05570000000000008,-9.161670377925978
-0.056700000000000195,-9.24938247851761
-0.057700000000000085,-9.379535918105192
-0.058700000000000196,-9.423391968401008
-0.059700000000000086,-9.467248018696827
-0.0607000000000002,-9.511104068992642
-0.06170000000000009,-9.55496011928846
-0.0627000000000002,-9.55496011928846
-0.06370000000000009,-9.59740145828441
-0.0647000000000002,-9.641257508580225
-0.06570000000000009,-9.728969609171857
-0.0667000000000002,-9.81668170976349
-0.0677000000000001,-9.946835149351072
-0.0687000000000002,-9.99069119964689
-0.0697000000000001,-10.078403300238522
-0.07070000000000021,-10.078403300238522
-0.0717000000000001,-10.120844639234473
-0.07270000000000021,-10.078403300238522
-0.0737000000000001,-10.164700689530287
-0.07470000000000021,-10.208556739826104
-0.0757000000000001,-10.296268840417738
-0.07670000000000021,-10.382566229709504
-0.0777000000000001,-10.470278330301136
-0.07870000000000021,-10.557990430892769
-0.0797000000000001,-10.601846481188586
-0.08070000000000022,-10.644287820184536
-0.0817000000000001,-10.688143870480351
-0.08270000000000022,-10.644287820184536
-0.08370000000000011,-10.688143870480351
-0.08470000000000022,-10.775855971071984
-0.08570000000000011,-10.863568071663616
-0.08670000000000022,-10.949865460955383
-0.08770000000000011,-11.081433611842833
-0.08870000000000022,-11.123874950838783
-0.08970000000000011,-11.211587051430415
-0.09070000000000022,-11.211587051430415
-0.09170000000000011,-11.255443101726232
-0.09270000000000023,-11.255443101726232
-0.09370000000000012,-11.299299152022046
-0.09470000000000023,-11.385596541313816
-0.09570000000000012,-11.473308641905447
-0.09670000000000023,-11.56102074249708
-0.09770000000000012,-11.691174182084664
-0.09870000000000023,-11.778886282676295
-0.09970000000000012,-11.82274233297211
-0.10070000000000023,-11.82274233297211
-0.10170000000000012,-11.86659838326793
-0.10270000000000024,-11.909039722263879
-0.10370000000000013,-11.909039722263879
-0.10470000000000024,-11.996751822855511
-0.10570000000000013,-12.084463923447142
-0.10670000000000024,-12.170761312738911
-0.10770000000000013,-12.258473413330542
-0.10870000000000024,-12.346185513922174
-0.10970000000000013,-12.432482903213943
-0.11070000000000024,-12.432482903213943
-0.11170000000000013,-12.476338953509758
-0.11270000000000002,-12.476338953509758
-0.11370000000000013,-12.520195003805576
-0.11470000000000002,-12.56405105410139
-0.11570000000000014,-12.651763154693022
-0.11670000000000003,-12.73806054398479
-0.11770000000000014,-12.869628694872238
-0.11870000000000003,-12.913484745168056
-0.11970000000000014,-12.955926084164007
-0.12070000000000003,-12.99978213445982
-0.12170000000000014,-12.99978213445982
-0.12270000000000003,-12.99978213445982
-0.12370000000000014,-13.043638184755638
-0.12470000000000003,-13.13135028534727
-0.12570000000000014,-13.175206335643086
-0.12670000000000003,-13.30535977523067
-0.12770000000000015,-13.3930718758223
-0.12870000000000004,-13.47936926511407
-0.12970000000000015,-13.523225315409885
-0.13070000000000004,-13.523225315409885
-0.13170000000000015,-13.567081365705702
-0.13270000000000004,-13.523225315409885
-0.13370000000000015,-13.567081365705702
-0.13470000000000004,-13.654793466297335
-0.13570000000000015,-13.698649516593148
-0.13670000000000004,-13.784946905884919
-0.13770000000000016,-13.872659006476551
-0.13870000000000005,-13.916515056772363
-0.13970000000000016,-14.002812446064135
-0.14070000000000005,-14.002812446064135
-0.14170000000000016,-14.046668496359947
-0.14270000000000005,-14.046668496359947
-0.14370000000000016,-14.046668496359947
-0.14470000000000005,-14.090524546655764
-0.14570000000000016,-14.175407224647667
-0.14670000000000005,-14.26028990263957
-0.14770000000000016,-14.345172580631472
-0.14870000000000005,-14.401761032626075
-0.14970000000000017,-14.444202371622024
-0.15070000000000006,-14.444202371622024
-0.15170000000000017,-14.444202371622024
-0.15270000000000006,-14.444202371622024
-0.15370000000000017,-14.486643710617974
-0.15470000000000006,-14.486643710617974
-0.15570000000000017,-14.57152638860988
-0.15670000000000006,-14.65640906660178
-0.15770000000000017,-14.741291744593681
-0.15870000000000006,-14.741291744593681
-0.15970000000000018,-14.783733083589633
-0.16070000000000007,-14.783733083589633
-0.16170000000000018,-14.741291744593681
-0.16270000000000007,-14.69885040559773
-0.16370000000000018,-14.741291744593681
-0.16470000000000007,-14.741291744593681
-0.16570000000000018,-14.826174422585586
-0.16670000000000007,-14.868615761581536
-0.16770000000000018,-14.967645552572087
-0.16870000000000007,-14.967645552572087
-0.16970000000000018,-15.01008689156804
-0.17070000000000007,-15.01008689156804
-0.17170000000000019,-14.967645552572087
-0.17270000000000008,-14.967645552572087
-0.1737000000000002,-14.967645552572087
-0.17470000000000008,-14.967645552572087
-0.1757000000000002,-14.967645552572087
-0.17670000000000008,-15.05252823056399
-0.1777000000000002,-15.094969569559943
-0.17870000000000008,-15.137410908555893
-0.1797000000000002,-15.179852247551842
-0.18070000000000008,-15.137410908555893
-0.1817000000000002,-15.094969569559943
-0.18270000000000008,-15.094969569559943
-0.1837000000000002,-15.05252823056399
-0.1847000000000001,-15.05252823056399
-0.1857000000000002,-15.094969569559943
-0.1867000000000001,-15.137410908555893
-0.1877000000000002,-15.179852247551842
-0.1887000000000001,-15.179852247551842
-0.1897000000000002,-15.222293586547794
-0.1907000000000001,-15.179852247551842
-0.1917000000000001,-15.137410908555893
-0.19269999999999998,-15.094969569559943
-0.1937000000000001,-15.094969569559943
-0.19469999999999998,-15.05252823056399
-0.1957000000000001,-15.094969569559943
-0.19669999999999999,-15.137410908555893
-0.1977000000000001,-15.179852247551842
-0.1987,-15.179852247551842
-0.1997000000000001,-15.179852247551842
-0.2007,-15.137410908555893
-0.2017000000000001,-15.094969569559943
-0.2027,-15.05252823056399
-0.2037000000000001,-15.05252823056399
-0.2047,-15.05252823056399
-0.2057000000000001,-15.05252823056399
-0.2067,-15.094969569559943
-0.2077000000000001,-15.137410908555893
-0.2087,-15.137410908555893
-0.2097000000000001,-15.137410908555893
-0.2107,-15.05252823056399
-0.2117000000000001,-15.05252823056399
-0.2127,-14.967645552572087
-0.2137000000000001,-14.967645552572087
-0.2147,-14.925204213576137
-0.2157000000000001,-14.967645552572087
-0.2167,-15.01008689156804
-0.21770000000000012,-15.05252823056399
-0.2187,-15.05252823056399
-0.21970000000000012,-15.05252823056399
-0.2207,-15.01008689156804
-0.22170000000000012,-14.967645552572087
-0.2227,-14.925204213576137
-0.22370000000000012,-14.868615761581536
-0.2247,-14.868615761581536
-0.22570000000000012,-14.925204213576137
-0.2267,-14.967645552572087
-0.22770000000000012,-15.01008689156804
-0.22870000000000001,-15.01008689156804
-0.22970000000000013,-15.01008689156804
-0.23070000000000002,-14.967645552572087
-0.23170000000000013,-14.967645552572087
-0.23270000000000002,-14.925204213576137
-0.23370000000000013,-14.868615761581536
-0.23470000000000002,-14.826174422585586
-0.23570000000000013,-14.868615761581536
-0.23670000000000002,-14.925204213576137
-0.2376999999999999,-14.967645552572087
-0.23870000000000002,-14.967645552572087
-0.2396999999999999,-14.967645552572087
-0.24070000000000003,-14.967645552572087
-0.24169999999999991,-14.925204213576137
-0.24270000000000003,-14.868615761581536
-0.24369999999999992,-14.868615761581536
-0.24470000000000003,-14.868615761581536
-0.24569999999999992,-14.925204213576137
-0.24670000000000003,-14.967645552572087
-0.24769999999999992,-15.01008689156804
-0.24870000000000003,-15.05252823056399
-0.24969999999999992,-15.094969569559943
-0.25070000000000003,-15.05252823056399
-0.2516999999999999,-15.05252823056399
-0.25270000000000004,-15.01008689156804
-0.2536999999999999,-15.01008689156804
-0.25470000000000004,-15.05252823056399
-0.2556999999999999,-15.05252823056399
-0.25670000000000004,-15.137410908555893
-0.25769999999999993,-15.179852247551842
-0.25870000000000004,-15.222293586547794
-0.25969999999999993,-15.264734925543747
-0.26070000000000004,-15.264734925543747
-0.26169999999999993,-15.264734925543747
-0.26270000000000004,-15.222293586547794
-0.26369999999999993,-15.264734925543747
-0.26470000000000005,-15.264734925543747
-0.26569999999999994,-15.349617603535648
-0.26670000000000005,-15.448647394526201
-0.26769999999999994,-15.533530072518102
-0.26870000000000005,-15.575971411514052
-0.26969999999999994,-15.618412750510005
-0.27070000000000005,-15.618412750510005
-0.27169999999999994,-15.618412750510005
-0.27270000000000005,-15.618412750510005
-0.27369999999999994,-15.618412750510005
-0.27470000000000006,-15.660854089505953
-0.27569999999999995,-15.74573676749786
-0.27670000000000006,-15.78817810649381
-0.27769999999999995,-15.91550212348166
-0.27870000000000006,-15.972090575476265
-0.27969999999999995,-16.056973253468165
-0.28070000000000006,-16.056973253468165
-0.28169999999999995,-16.099414592464115
-0.28270000000000006,-16.099414592464115
-0.28369999999999995,-16.141855931460068
-0.28470000000000006,-16.184297270456018
-0.28569999999999995,-16.311621287443874
-0.28670000000000007,-16.396503965435777
-0.28769999999999996,-16.53797509542228
-0.28870000000000007,-16.580416434418233
-0.28969999999999996,-16.70774045140608
-0.29070000000000007,-16.70774045140608
-0.29169999999999996,-16.792623129397985
-0.29270000000000007,-16.792623129397985
-0.29369999999999996,-16.877505807389888
-0.2947000000000001,-16.919947146385837
-0.29569999999999996,-17.018976937376394
-0.2967000000000001,-17.146300954364243
-0.29769999999999996,-17.2736249713521
-0.2987000000000001,-17.358507649344002
-0.29969999999999997,-17.48583166633185
-0.3007000000000001,-17.542420118326454
-0.30169999999999997,-17.584861457322408
-0.3027000000000001,-17.669744135314307
-0.30369999999999997,-17.71218547431026
-0.3047000000000001,-17.839509491298113
-0.30569999999999997,-17.966833508285966
-0.3067000000000001,-18.10830463827247
-0.3077,-18.320511333252224
-0.3087000000000001,-18.40539401124413
-0.3097,-18.53271802823198
-0.3107000000000001,-18.674189158218486
-0.3117,-18.716630497214435
-0.3127000000000001,-18.80151317520634
-0.3137,-18.92883719219419
-0.3147000000000001,-19.01371987018609
-0.3157,-19.155191000172596
-0.3167000000000001,-19.3249563561564
-0.3177,-19.49472171214021
-0.3187000000000001,-19.678634181122664
-0.3197,-19.805958198110513
-0.3207000000000001,-19.93328221509837
-0.3217,-20.01816489309027
-0.3227000000000001,-20.10304757108217
-0.3237,-20.286960040064624
-0.3247000000000001,-20.414284057052477
-0.3257,-20.584049413036283
-0.3267000000000001,-20.76796188201874
-0.3277,-20.93772723800254
-0.3287000000000001,-21.149933932982297
-0.3297,-21.333846401964752
-0.3307000000000001,-21.461170418952605
-0.3317,-21.63093577493641
-0.3327000000000001,-21.729965565926964
-0.3337,-21.899730921910766
-0.3347000000000001,-22.069496277894572
-0.3357,-22.295850085872978
-0.3367000000000001,-22.550498119848687
-0.3377,-22.776851927827092
-0.3387000000000001,-22.989058622806844
-0.3397,-23.15882397879065
-0.3407000000000001,-23.342736447773106
-0.3417,-23.51250180375691
-0.3427000000000001,-23.682267159740714
-0.3437,-23.86617962872317
-0.3447000000000001,-24.035944984706973
-0.3457,-24.290593018682678
-0.3467000000000001,-24.559388165657033
-0.3477,-24.814036199632742
-0.3487000000000001,-25.0828313466071
-0.3497,-25.295038041586857
-0.3507000000000001,-25.521391849565262
-0.3517,-25.691157205549064
-0.3527000000000001,-25.86092256153287
-0.3537,-26.087276369511276
-0.3547000000000001,-26.29948306449103
-0.3557,-26.568278211465387
-0.35670000000000013,-26.86536758443705
-0.3577,-27.134162731411404
-0.35870000000000013,-27.43125210438306
-0.3597,-27.700047251357418
-0.36070000000000013,-27.912253946337174
-0.3617,-28.13860775431558
-0.3626999999999999,-28.350814449295335
-0.3637,-28.619609596269694
-0.3646999999999999,-28.831816291249446
-0.3657,-29.14305277721976
-0.3666999999999999,-29.482583489187363
-0.3677,-29.793819975157668
-0.3686999999999999,-30.10505646112798
-0.36970000000000003,-30.359704495103685
-0.3706999999999999,-30.614352529079397
-0.37170000000000003,-30.88314767605375
-0.3726999999999999,-31.095354371033505
-0.37370000000000003,-31.36414951800786
-0.3746999999999999,-31.661238890979522
-0.37570000000000003,-31.972475376949827
-0.3766999999999999,-32.32615320191609
-0.37770000000000004,-32.66568391388369
-0.3786999999999999,-32.97692039985401
-0.37970000000000004,-33.330598224820264
-0.3806999999999999,-33.627687597791926
-0.38170000000000004,-33.93892408376223
-0.38269999999999993,-34.236013456733886
-0.38370000000000004,-34.50480860370825
-0.38469999999999993,-34.8018979766799
-0.38570000000000004,-35.15557580164616
-0.38669999999999993,-35.55169496560837
-0.38770000000000004,-35.94781412957058
-0.38869999999999993,-36.329786180534136
-0.38970000000000005,-36.6834640055004
-0.39069999999999994,-36.99470049147071
-0.39170000000000005,-37.291789864442364
-0.39269999999999994,-37.645467689408626
-0.39370000000000005,-37.94255706238028
-0.39469999999999994,-38.253793548350586
-0.39570000000000005,-38.6499127123128
-0.39669999999999994,-39.046031876275016
-0.39770000000000005,-39.38556258824262
-0.39869999999999994,-39.82412309120078
-0.39970000000000006,-40.177800916167044
-0.40069999999999995,-40.559772967130606
-0.40170000000000006,-40.91345079209687
-0.40269999999999995,-41.267128617063115
-0.40370000000000006,-41.66324778102533
-0.40469999999999995,-42.00277849299294
-0.40570000000000006,-42.4413389959511
-0.40669999999999995,-42.92234083790521
-0.40770000000000006,-43.36090134086337
-0.40869999999999995,-43.79946184382153
-0.40970000000000006,-44.181433894785094
-0.41069999999999995,-44.577553058747306
-0.41170000000000007,-44.97367222270952
-0.41269999999999996,-45.32735004767578
-0.41370000000000007,-45.70932209863933
-0.41469999999999996,-46.147882601597495
-0.41570000000000007,-46.628884443551605
-0.41669999999999996,-47.10988628550572
-0.41770000000000007,-47.590888127459834
-0.41869999999999996,-48.029448630417996
-0.4197000000000001,-48.51045047237211
-0.42069999999999996,-48.89242252333566
-0.4217000000000001,-49.33098302629383
-0.42269999999999996,-49.76954352925199
-0.4237000000000001,-50.20810403221015
-0.42469999999999997,-50.68910587416426
-0.4257000000000001,-51.17010771611838
-0.42669999999999997,-51.65110955807249
-0.4277000000000001,-52.17455273902255
-0.42869999999999997,-52.64140746797801
-0.4297000000000001,-53.12240930993213
-0.43069999999999997,-53.56096981289029
-0.4317000000000001,-53.999530315848446
-0.4327,-54.43809081880661
-0.4337000000000001,-54.919092660760725
-0.4347,-55.400094502714836
-0.4357000000000001,-55.9235376836649
-0.4367,-56.44698086461496
-0.4377000000000001,-56.97042404556503
-0.4387,-57.53630856551105
-0.4397000000000001,-58.017310407465146
-0.4407,-58.498312249419264
-0.4417000000000001,-58.97931409137338
-0.4427,-59.403727481332886
-0.4437000000000001,-59.92717066228296
-0.4447,-60.40817250423707
-0.4457000000000001,-60.93161568518713
-0.4467,-61.49750020513315
-0.4477000000000001,-62.02094338608321
-0.4487,-62.58682790602922
-0.4497000000000001,-63.11027108697928
-0.4507,-63.59127292893339
-0.4517000000000001,-64.0722747708875
-0.4527,-64.55327661284163
-0.4537000000000001,-65.0767197937917
-0.4547,-65.60016297474175
-0.4557000000000001,-66.16604749468777
-0.4567,-66.77437335362974
-0.4577000000000001,-67.39684632557035
-0.4587,-67.96273084551636
-0.4597000000000001,-68.52861536546239
-0.4607,-69.0096172074165
-0.4617000000000001,-69.53306038836655
-0.4627,-70.05650356931662
-0.4637000000000001,-70.57994675026669
-0.4647,-71.1458312702127
-0.4657000000000001,-71.75415712915466
-0.4667,-72.32004164910067
-0.4677000000000001,-72.92836750804264
-0.4687,-73.49425202798865
-0.4697000000000001,-74.14501922592657
-0.4707,-74.72505085887124
-0.4717000000000001,-75.2484940398213
-0.4727,-75.77193722077136
-0.4737000000000001,-76.33782174071737
-0.4747,-76.9037062606634
-0.4757000000000001,-77.55447345860131
-0.4767,-78.20524065653922
-0.4777000000000001,-78.85600785447714
-0.4787,-79.47848082641775
-0.4797000000000001,-80.12924802435568
-0.4807,-80.69513254430169
-0.48170000000000013,-81.26101706424771
-0.4827,-81.82690158419373
-0.48370000000000013,-82.43522744313569
-0.4847,-83.04355330207765
-0.48570000000000013,-83.60943782202366
-0.4867,-83.48211380503581
-0.48570000000000013,-82.18057940915998
-0.4847,-81.1761343862558
-0.48370000000000013,-80.12924802435568
-0.4827,-79.20968567944341
-0.48170000000000013,-78.29012333453113
-0.4807,-77.34226676362155
-0.4797000000000001,-76.55002843569714
-0.4787,-75.71534876877676
-0.4777000000000001,-74.97969889284694
-0.4767,-74.28649035591307
-0.4757000000000001,-73.53669336698461
-0.4747,-72.84348483005074
-0.4737000000000001,-72.15027629311687
-0.4727,-71.35803796519245
-0.4717000000000001,-70.62238808926263
-0.4707,-69.87259110033416
-0.4697000000000001,-69.13694122440434
-0.4687,-68.44373268747047
-0.4677000000000001,-67.73637703753796
-0.4667,-67.08560983960004
-0.4657000000000001,-66.47728398065809
-0.4647,-65.82651678272015
