July 13, 2024   13:37:23
Cyclic Voltammetry
File: c:/users/guazh/data/20240709_batch67/2024-07-10-exp32\exp32-2024-07-13t13_18_56-arkoh\exp32_cv_sr_300mvs_efin_-1700mv.bin
Data Source:  Experiment
Instrument Model:  CHI760E
Header: CV ran at 300 mVs
Note: 

Init E (V) = -1
High E (V) = -1
Low E (V) = -1.7
Final E (V) = -1
Init P/N = N
Scan Rate (V/s) = 0.3
Segment = 3
Sample Interval (V) = 0.001
Quiet Time (sec) = 2
Sensitivity (A/V) = 0.01
Comp R (ohm) = 1.6

Results:

Channel 1:
Segment 1:

Segment 2:

Segment 3:

Potential/V, Current/A

-1.000, 6.322e-6
-1.001, 1.249e-5
-1.002, 1.865e-5
-1.003, 1.865e-5
-1.004, 1.865e-5
-1.005, 1.865e-5
-1.006, 2.174e-5
-1.007, 2.174e-5
-1.008, 2.174e-5
-1.009, 1.865e-5
-1.010, 2.174e-5
-1.011, 2.174e-5
-1.012, 2.174e-5
-1.013, 2.174e-5
-1.014, 2.174e-5
-1.015, 2.174e-5
-1.016, 2.174e-5
-1.017, 2.482e-5
-1.018, 2.174e-5
-1.019, 2.174e-5
-1.020, 2.174e-5
-1.021, 2.482e-5
-1.022, 2.482e-5
-1.023, 2.174e-5
-1.024, 2.174e-5
-1.025, 2.174e-5
-1.026, 2.482e-5
-1.027, 2.482e-5
-1.028, 2.482e-5
-1.029, 2.174e-5
-1.030, 2.174e-5
-1.031, 2.482e-5
-1.032, 2.482e-5
-1.033, 2.482e-5
-1.034, 2.482e-5
-1.035, 2.482e-5
-1.036, 2.482e-5
-1.037, 2.482e-5
-1.038, 2.482e-5
-1.039, 2.174e-5
-1.040, 2.482e-5
-1.041, 2.482e-5
-1.042, 2.482e-5
-1.043, 2.482e-5
-1.044, 2.482e-5
-1.045, 2.482e-5
-1.046, 2.482e-5
-1.047, 2.790e-5
-1.048, 2.482e-5
-1.049, 2.482e-5
-1.050, 2.482e-5
-1.051, 2.482e-5
-1.052, 2.790e-5
-1.053, 2.482e-5
-1.054, 2.482e-5
-1.055, 2.482e-5
-1.056, 2.790e-5
-1.057, 2.790e-5
-1.058, 2.482e-5
-1.059, 2.482e-5
-1.060, 2.482e-5
-1.061, 2.482e-5
-1.062, 2.482e-5
-1.063, 2.482e-5
-1.064, 2.482e-5
-1.065, 2.482e-5
-1.066, 2.790e-5
-1.067, 2.790e-5
-1.068, 2.482e-5
-1.069, 2.482e-5
-1.070, 2.482e-5
-1.071, 2.790e-5
-1.072, 2.790e-5
-1.073, 2.790e-5
-1.074, 2.482e-5
-1.075, 2.482e-5
-1.076, 2.790e-5
-1.077, 2.790e-5
-1.078, 2.482e-5
-1.079, 2.482e-5
-1.080, 2.482e-5
-1.081, 2.790e-5
-1.082, 2.790e-5
-1.083, 2.482e-5
-1.084, 2.482e-5
-1.085, 2.482e-5
-1.086, 2.790e-5
-1.087, 2.790e-5
-1.088, 2.482e-5
-1.089, 2.482e-5
-1.090, 2.482e-5
-1.091, 2.790e-5
-1.092, 2.790e-5
-1.093, 2.790e-5
-1.094, 2.482e-5
-1.095, 2.482e-5
-1.096, 2.790e-5
-1.097, 2.790e-5
-1.098, 2.790e-5
-1.099, 2.482e-5
-1.100, 2.482e-5
-1.101, 2.790e-5
-1.102, 2.790e-5
-1.103, 2.790e-5
-1.104, 2.482e-5
-1.105, 2.482e-5
-1.106, 2.790e-5
-1.107, 2.790e-5
-1.108, 2.790e-5
-1.109, 2.482e-5
-1.110, 2.482e-5
-1.111, 2.790e-5
-1.112, 2.790e-5
-1.113, 2.790e-5
-1.114, 2.482e-5
-1.115, 2.482e-5
-1.116, 2.790e-5
-1.117, 2.790e-5
-1.118, 2.790e-5
-1.119, 2.482e-5
-1.120, 2.482e-5
-1.121, 2.790e-5
-1.122, 2.790e-5
-1.123, 2.790e-5
-1.124, 2.482e-5
-1.125, 2.482e-5
-1.126, 2.790e-5
-1.127, 2.790e-5
-1.128, 2.790e-5
-1.129, 2.790e-5
-1.130, 2.790e-5
-1.131, 2.790e-5
-1.132, 2.790e-5
-1.133, 2.790e-5
-1.134, 2.790e-5
-1.135, 2.790e-5
-1.136, 2.790e-5
-1.137, 2.790e-5
-1.138, 2.790e-5
-1.139, 2.482e-5
-1.140, 2.790e-5
-1.141, 2.790e-5
-1.142, 2.790e-5
-1.143, 2.790e-5
-1.144, 2.482e-5
-1.145, 2.482e-5
-1.146, 2.790e-5
-1.147, 2.790e-5
-1.148, 2.790e-5
-1.149, 2.482e-5
-1.150, 2.790e-5
-1.151, 2.790e-5
-1.152, 2.790e-5
-1.153, 2.790e-5
-1.154, 2.790e-5
-1.155, 2.790e-5
-1.156, 2.790e-5
-1.157, 2.790e-5
-1.158, 2.790e-5
-1.159, 2.482e-5
-1.160, 2.482e-5
-1.161, 2.790e-5
-1.162, 2.790e-5
-1.163, 2.790e-5
-1.164, 2.790e-5
-1.165, 2.790e-5
-1.166, 2.790e-5
-1.167, 2.790e-5
-1.168, 2.790e-5
-1.169, 2.790e-5
-1.170, 2.790e-5
-1.171, 2.790e-5
-1.172, 2.790e-5
-1.173, 2.790e-5
-1.174, 2.790e-5
-1.175, 2.790e-5
-1.176, 2.790e-5
-1.177, 2.790e-5
-1.178, 2.790e-5
-1.179, 2.790e-5
-1.180, 2.790e-5
-1.181, 2.790e-5
-1.182, 3.099e-5
-1.183, 2.790e-5
-1.184, 2.790e-5
-1.185, 2.790e-5
-1.186, 2.790e-5
-1.187, 2.790e-5
-1.188, 2.790e-5
-1.189, 2.790e-5
-1.190, 2.790e-5
-1.191, 3.099e-5
-1.192, 2.790e-5
-1.193, 2.790e-5
-1.194, 2.790e-5
-1.195, 2.790e-5
-1.196, 2.790e-5
-1.197, 2.790e-5
-1.198, 2.790e-5
-1.199, 2.790e-5
-1.200, 2.790e-5
-1.201, 2.790e-5
-1.202, 3.099e-5
-1.203, 2.790e-5
-1.204, 2.790e-5
-1.205, 2.790e-5
-1.206, 3.099e-5
-1.207, 3.099e-5
-1.208, 3.099e-5
-1.209, 2.790e-5
-1.210, 2.790e-5
-1.211, 3.099e-5
-1.212, 3.099e-5
-1.213, 2.790e-5
-1.214, 2.790e-5
-1.215, 2.790e-5
-1.216, 3.099e-5
-1.217, 3.099e-5
-1.218, 2.790e-5
-1.219, 2.790e-5
-1.220, 2.790e-5
-1.221, 3.099e-5
-1.222, 3.099e-5
-1.223, 3.099e-5
-1.224, 2.790e-5
-1.225, 2.790e-5
-1.226, 3.099e-5
-1.227, 3.099e-5
-1.228, 3.099e-5
-1.229, 3.099e-5
-1.230, 3.099e-5
-1.231, 3.099e-5
-1.232, 3.099e-5
-1.233, 3.099e-5
-1.234, 3.099e-5
-1.235, 2.790e-5
-1.236, 3.099e-5
-1.237, 3.099e-5
-1.238, 3.099e-5
-1.239, 3.099e-5
-1.240, 3.099e-5
-1.241, 3.099e-5
-1.242, 3.407e-5
-1.243, 3.099e-5
-1.244, 3.099e-5
-1.245, 3.099e-5
-1.246, 3.099e-5
-1.247, 3.407e-5
-1.248, 3.099e-5
-1.249, 3.099e-5
-1.250, 3.099e-5
-1.251, 3.407e-5
-1.252, 3.407e-5
-1.253, 3.099e-5
-1.254, 3.099e-5
-1.255, 3.099e-5
-1.256, 3.407e-5
-1.257, 3.407e-5
-1.258, 3.407e-5
-1.259, 3.099e-5
-1.260, 3.099e-5
-1.261, 3.407e-5
-1.262, 3.407e-5
-1.263, 3.407e-5
-1.264, 3.099e-5
-1.265, 3.407e-5
-1.266, 3.407e-5
-1.267, 3.407e-5
-1.268, 3.407e-5
-1.269, 3.407e-5
-1.270, 3.407e-5
-1.271, 3.407e-5
-1.272, 3.715e-5
-1.273, 3.407e-5
-1.274, 3.407e-5
-1.275, 3.407e-5
-1.276, 3.715e-5
-1.277, 3.715e-5
-1.278, 3.715e-5
-1.279, 3.407e-5
-1.280, 3.407e-5
-1.281, 3.715e-5
-1.282, 3.715e-5
-1.283, 3.715e-5
-1.284, 3.715e-5
-1.285, 3.715e-5
-1.286, 3.715e-5
-1.287, 4.024e-5
-1.288, 3.715e-5
-1.289, 3.715e-5
-1.290, 3.715e-5
-1.291, 3.715e-5
-1.292, 4.024e-5
-1.293, 3.715e-5
-1.294, 3.715e-5
-1.295, 4.024e-5
-1.296, 4.024e-5
-1.297, 4.024e-5
-1.298, 4.024e-5
-1.299, 4.024e-5
-1.300, 4.024e-5
-1.301, 4.024e-5
-1.302, 4.024e-5
-1.303, 4.024e-5
-1.304, 4.024e-5
-1.305, 4.024e-5
-1.306, 4.332e-5
-1.307, 4.332e-5
-1.308, 4.332e-5
-1.309, 4.024e-5
-1.310, 4.332e-5
-1.311, 4.332e-5
-1.312, 4.332e-5
-1.313, 4.332e-5
-1.314, 4.332e-5
-1.315, 4.332e-5
-1.316, 4.640e-5
-1.317, 4.640e-5
-1.318, 4.640e-5
-1.319, 4.640e-5
-1.320, 4.640e-5
-1.321, 4.640e-5
-1.322, 4.640e-5
-1.323, 4.640e-5
-1.324, 4.640e-5
-1.325, 4.640e-5
-1.326, 4.949e-5
-1.327, 4.949e-5
-1.328, 4.949e-5
-1.329, 4.949e-5
-1.330, 4.949e-5
-1.331, 4.949e-5
-1.332, 5.257e-5
-1.333, 4.949e-5
-1.334, 4.949e-5
-1.335, 4.949e-5
-1.336, 5.257e-5
-1.337, 5.257e-5
-1.338, 5.257e-5
-1.339, 5.257e-5
-1.340, 5.257e-5
-1.341, 5.565e-5
-1.342, 5.565e-5
-1.343, 5.565e-5
-1.344, 5.565e-5
-1.345, 5.565e-5
-1.346, 5.873e-5
-1.347, 5.873e-5
-1.348, 5.873e-5
-1.349, 5.565e-5
-1.350, 5.873e-5
-1.351, 6.182e-5
-1.352, 6.182e-5
-1.353, 6.182e-5
-1.354, 6.182e-5
-1.355, 6.182e-5
-1.356, 6.182e-5
-1.357, 6.490e-5
-1.358, 6.490e-5
-1.359, 6.490e-5
-1.360, 6.490e-5
-1.361, 6.490e-5
-1.362, 6.798e-5
-1.363, 6.798e-5
-1.364, 6.798e-5
-1.365, 6.798e-5
-1.366, 7.107e-5
-1.367, 7.107e-5
-1.368, 7.107e-5
-1.369, 7.107e-5
-1.370, 7.107e-5
-1.371, 7.415e-5
-1.372, 7.415e-5
-1.373, 7.415e-5
-1.374, 7.415e-5
-1.375, 7.415e-5
-1.376, 7.723e-5
-1.377, 8.032e-5
-1.378, 7.723e-5
-1.379, 7.723e-5
-1.380, 8.032e-5
-1.381, 8.032e-5
-1.382, 8.340e-5
-1.383, 8.340e-5
-1.384, 8.340e-5
-1.385, 8.340e-5
-1.386, 8.648e-5
-1.387, 8.648e-5
-1.388, 8.648e-5
-1.389, 8.648e-5
-1.390, 8.957e-5
-1.391, 9.265e-5
-1.392, 9.265e-5
-1.393, 9.265e-5
-1.394, 9.265e-5
-1.395, 9.573e-5
-1.396, 9.573e-5
-1.397, 9.882e-5
-1.398, 9.882e-5
-1.399, 9.882e-5
-1.400, 9.882e-5
-1.401, 1.019e-4
-1.402, 1.050e-4
-1.403, 1.050e-4
-1.404, 1.050e-4
-1.405, 1.081e-4
-1.406, 1.081e-4
-1.407, 1.111e-4
-1.408, 1.111e-4
-1.409, 1.142e-4
-1.410, 1.142e-4
-1.411, 1.173e-4
-1.412, 1.173e-4
-1.413, 1.173e-4
-1.414, 1.204e-4
-1.415, 1.204e-4
-1.416, 1.235e-4
-1.417, 1.266e-4
-1.418, 1.266e-4
-1.419, 1.296e-4
-1.420, 1.296e-4
-1.421, 1.327e-4
-1.422, 1.358e-4
-1.423, 1.358e-4
-1.424, 1.358e-4
-1.425, 1.389e-4
-1.426, 1.420e-4
-1.427, 1.451e-4
-1.428, 1.451e-4
-1.429, 1.481e-4
-1.430, 1.481e-4
-1.431, 1.512e-4
-1.432, 1.543e-4
-1.433, 1.574e-4
-1.434, 1.574e-4
-1.435, 1.574e-4
-1.436, 1.636e-4
-1.437, 1.666e-4
-1.438, 1.666e-4
-1.439, 1.697e-4
-1.440, 1.728e-4
-1.441, 1.759e-4
-1.442, 1.790e-4
-1.443, 1.790e-4
-1.444, 1.821e-4
-1.445, 1.821e-4
-1.446, 1.882e-4
-1.447, 1.913e-4
-1.448, 1.913e-4
-1.449, 1.944e-4
-1.450, 1.975e-4
-1.451, 2.006e-4
-1.452, 2.036e-4
-1.453, 2.067e-4
-1.454, 2.098e-4
-1.455, 2.129e-4
-1.456, 2.160e-4
-1.457, 2.191e-4
-1.458, 2.221e-4
-1.459, 2.252e-4
-1.460, 2.283e-4
-1.461, 2.314e-4
-1.462, 2.376e-4
-1.463, 2.376e-4
-1.464, 2.406e-4
-1.465, 2.437e-4
-1.466, 2.499e-4
-1.467, 2.530e-4
-1.468, 2.561e-4
-1.469, 2.561e-4
-1.470, 2.622e-4
-1.471, 2.653e-4
-1.472, 2.715e-4
-1.473, 2.746e-4
-1.474, 2.776e-4
-1.475, 2.807e-4
-1.476, 2.869e-4
-1.477, 2.900e-4
-1.478, 2.931e-4
-1.479, 2.961e-4
-1.480, 2.992e-4
-1.481, 3.054e-4
-1.482, 3.085e-4
-1.483, 3.146e-4
-1.484, 3.177e-4
-1.485, 3.208e-4
-1.486, 3.270e-4
-1.487, 3.331e-4
-1.488, 3.362e-4
-1.489, 3.393e-4
-1.490, 3.455e-4
-1.491, 3.485e-4
-1.492, 3.547e-4
-1.493, 3.609e-4
-1.494, 3.609e-4
-1.495, 3.670e-4
-1.496, 3.732e-4
-1.497, 3.794e-4
-1.498, 3.855e-4
-1.499, 3.886e-4
-1.500, 3.917e-4
-1.501, 3.979e-4
-1.502, 4.040e-4
-1.503, 4.102e-4
-1.504, 4.133e-4
-1.505, 4.195e-4
-1.506, 4.256e-4
-1.507, 4.318e-4
-1.508, 4.380e-4
-1.509, 4.410e-4
-1.510, 4.472e-4
-1.511, 4.534e-4
-1.512, 4.626e-4
-1.513, 4.657e-4
-1.514, 4.688e-4
-1.515, 4.780e-4
-1.516, 4.842e-4
-1.517, 4.904e-4
-1.518, 4.965e-4
-1.519, 5.027e-4
-1.520, 5.089e-4
-1.521, 5.181e-4
-1.522, 5.243e-4
-1.523, 5.305e-4
-1.524, 5.335e-4
-1.525, 5.428e-4
-1.526, 5.489e-4
-1.527, 5.582e-4
-1.528, 5.644e-4
-1.529, 5.705e-4
-1.530, 5.798e-4
-1.531, 5.859e-4
-1.532, 5.952e-4
-1.533, 6.014e-4
-1.534, 6.075e-4
-1.535, 6.168e-4
-1.536, 6.229e-4
-1.537, 6.353e-4
-1.538, 6.414e-4
-1.539, 6.476e-4
-1.540, 6.569e-4
-1.541, 6.661e-4
-1.542, 6.754e-4
-1.543, 6.815e-4
-1.544, 6.908e-4
-1.545, 7.000e-4
-1.546, 7.093e-4
-1.547, 7.185e-4
-1.548, 7.278e-4
-1.549, 7.339e-4
-1.550, 7.432e-4
-1.551, 7.555e-4
-1.552, 7.648e-4
-1.553, 7.740e-4
-1.554, 7.833e-4
-1.555, 7.925e-4
-1.556, 8.048e-4
-1.557, 8.141e-4
-1.558, 8.233e-4
-1.559, 8.326e-4
-1.560, 8.449e-4
-1.561, 8.573e-4
-1.562, 8.665e-4
-1.563, 8.788e-4
-1.564, 8.881e-4
-1.565, 8.973e-4
-1.566, 9.097e-4
-1.567, 9.220e-4
-1.568, 9.343e-4
-1.569, 9.436e-4
-1.570, 9.559e-4
-1.571, 9.683e-4
-1.572, 9.806e-4
-1.573, 9.929e-4
-1.574, 1.005e-3
-1.575, 1.014e-3
-1.576, 1.030e-3
-1.577, 1.042e-3
-1.578, 1.055e-3
-1.579, 1.067e-3
-1.580, 1.076e-3
-1.581, 1.092e-3
-1.582, 1.107e-3
-1.583, 1.119e-3
-1.584, 1.132e-3
-1.585, 1.144e-3
-1.586, 1.159e-3
-1.587, 1.175e-3
-1.588, 1.190e-3
-1.589, 1.203e-3
-1.590, 1.215e-3
-1.591, 1.230e-3
-1.592, 1.246e-3
-1.593, 1.261e-3
-1.594, 1.273e-3
-1.595, 1.289e-3
-1.596, 1.307e-3
-1.597, 1.323e-3
-1.598, 1.338e-3
-1.599, 1.354e-3
-1.600, 1.366e-3
-1.601, 1.384e-3
-1.602, 1.403e-3
-1.603, 1.421e-3
-1.604, 1.437e-3
-1.605, 1.449e-3
-1.606, 1.468e-3
-1.607, 1.489e-3
-1.608, 1.505e-3
-1.609, 1.520e-3
-1.610, 1.539e-3
-1.611, 1.557e-3
-1.612, 1.579e-3
-1.613, 1.597e-3
-1.614, 1.616e-3
-1.615, 1.634e-3
-1.616, 1.656e-3
-1.617, 1.674e-3
-1.618, 1.696e-3
-1.619, 1.711e-3
-1.620, 1.730e-3
-1.621, 1.751e-3
-1.622, 1.773e-3
-1.623, 1.795e-3
-1.624, 1.813e-3
-1.625, 1.832e-3
-1.626, 1.853e-3
-1.627, 1.878e-3
-1.628, 1.896e-3
-1.629, 1.918e-3
-1.630, 1.939e-3
-1.631, 1.964e-3
-1.632, 1.986e-3
-1.633, 2.007e-3
-1.634, 2.026e-3
-1.635, 2.050e-3
-1.636, 2.075e-3
-1.637, 2.100e-3
-1.638, 2.124e-3
-1.639, 2.146e-3
-1.640, 2.168e-3
-1.641, 2.192e-3
-1.642, 2.217e-3
-1.643, 2.242e-3
-1.644, 2.266e-3
-1.645, 2.288e-3
-1.646, 2.316e-3
-1.647, 2.343e-3
-1.648, 2.368e-3
-1.649, 2.393e-3
-1.650, 2.417e-3
-1.651, 2.445e-3
-1.652, 2.473e-3
-1.653, 2.497e-3
-1.654, 2.522e-3
-1.655, 2.544e-3
-1.656, 2.575e-3
-1.657, 2.605e-3
-1.658, 2.630e-3
-1.659, 2.655e-3
-1.660, 2.679e-3
-1.661, 2.710e-3
-1.662, 2.744e-3
-1.663, 2.772e-3
-1.664, 2.797e-3
-1.665, 2.824e-3
-1.666, 2.858e-3
-1.667, 2.892e-3
-1.668, 2.923e-3
-1.669, 2.954e-3
-1.670, 2.982e-3
-1.671, 3.019e-3
-1.672, 3.052e-3
-1.673, 3.089e-3
-1.674, 3.120e-3
-1.675, 3.151e-3
-1.676, 3.191e-3
-1.677, 3.225e-3
-1.678, 3.265e-3
-1.679, 3.296e-3
-1.680, 3.327e-3
-1.681, 3.367e-3
-1.682, 3.404e-3
-1.683, 3.441e-3
-1.684, 3.475e-3
-1.685, 3.509e-3
-1.686, 3.546e-3
-1.687, 3.586e-3
-1.688, 3.626e-3
-1.689, 3.660e-3
-1.690, 3.697e-3
-1.691, 3.743e-3
-1.692, 3.783e-3
-1.693, 3.823e-3
-1.694, 3.860e-3
-1.695, 3.903e-3
-1.696, 3.947e-3
-1.697, 3.993e-3
-1.698, 4.039e-3
-1.699, 4.076e-3
-1.700, 4.095e-3
-1.699, 4.073e-3
-1.698, 4.045e-3
-1.697, 4.014e-3
-1.696, 3.984e-3
-1.695, 3.943e-3
-1.694, 3.910e-3
-1.693, 3.885e-3
-1.692, 3.848e-3
-1.691, 3.811e-3
-1.690, 3.771e-3
-1.689, 3.740e-3
-1.688, 3.709e-3
-1.687, 3.675e-3
-1.686, 3.638e-3
-1.685, 3.598e-3
-1.684, 3.564e-3
-1.683, 3.533e-3
-1.682, 3.499e-3
-1.681, 3.462e-3
-1.680, 3.422e-3
-1.679, 3.392e-3
-1.678, 3.358e-3
-1.677, 3.324e-3
-1.676, 3.287e-3
-1.675, 3.250e-3
-1.674, 3.216e-3
-1.673, 3.185e-3
-1.672, 3.151e-3
-1.671, 3.114e-3
-1.670, 3.077e-3
-1.669, 3.049e-3
-1.668, 3.015e-3
-1.667, 2.985e-3
-1.666, 2.954e-3
-1.665, 2.917e-3
-1.664, 2.886e-3
-1.663, 2.861e-3
-1.662, 2.830e-3
-1.661, 2.793e-3
-1.660, 2.763e-3
-1.659, 2.732e-3
-1.658, 2.704e-3
-1.657, 2.676e-3
-1.656, 2.642e-3
-1.655, 2.608e-3
-1.654, 2.581e-3
-1.653, 2.559e-3
-1.652, 2.528e-3
-1.651, 2.497e-3
-1.650, 2.467e-3
-1.649, 2.442e-3
-1.648, 2.417e-3
-1.647, 2.386e-3
-1.646, 2.356e-3
-1.645, 2.325e-3
-1.644, 2.300e-3
-1.643, 2.279e-3
-1.642, 2.251e-3
-1.641, 2.220e-3
-1.640, 2.192e-3
-1.639, 2.168e-3
-1.638, 2.143e-3
-1.637, 2.115e-3
-1.636, 2.087e-3
-1.635, 2.063e-3
-1.634, 2.038e-3
-1.633, 2.017e-3
-1.632, 1.992e-3
-1.631, 1.967e-3
-1.630, 1.943e-3
-1.629, 1.918e-3
-1.628, 1.899e-3
-1.627, 1.875e-3
-1.626, 1.850e-3
-1.625, 1.825e-3
-1.624, 1.807e-3
-1.623, 1.785e-3
-1.622, 1.761e-3
-1.621, 1.739e-3
-1.620, 1.717e-3
-1.619, 1.696e-3
-1.618, 1.677e-3
-1.617, 1.656e-3
-1.616, 1.634e-3
-1.615, 1.613e-3
-1.614, 1.594e-3
-1.613, 1.576e-3
-1.612, 1.557e-3
-1.611, 1.536e-3
-1.610, 1.514e-3
-1.609, 1.495e-3
-1.608, 1.483e-3
-1.607, 1.462e-3
-1.606, 1.443e-3
-1.605, 1.425e-3
-1.604, 1.409e-3
-1.603, 1.394e-3
-1.602, 1.375e-3
-1.601, 1.357e-3
-1.600, 1.338e-3
-1.599, 1.323e-3
-1.598, 1.307e-3
-1.597, 1.292e-3
-1.596, 1.273e-3
-1.595, 1.255e-3
-1.594, 1.243e-3
-1.593, 1.227e-3
-1.592, 1.212e-3
-1.591, 1.193e-3
-1.590, 1.178e-3
-1.589, 1.166e-3
-1.588, 1.153e-3
-1.587, 1.138e-3
-1.586, 1.122e-3
-1.585, 1.107e-3
-1.584, 1.095e-3
-1.583, 1.082e-3
-1.582, 1.070e-3
-1.581, 1.051e-3
-1.580, 1.039e-3
-1.579, 1.027e-3
-1.578, 1.014e-3
-1.577, 1.002e-3
-1.576, 9.868e-4
-1.575, 9.744e-4
-1.574, 9.621e-4
-1.573, 9.528e-4
-1.572, 9.405e-4
-1.571, 9.282e-4
-1.570, 9.128e-4
-1.569, 9.035e-4
-1.568, 8.912e-4
-1.567, 8.819e-4
-1.566, 8.696e-4
-1.565, 8.573e-4
-1.564, 8.480e-4
-1.563, 8.388e-4
-1.562, 8.264e-4
-1.561, 8.172e-4
-1.560, 8.048e-4
-1.559, 7.956e-4
-1.558, 7.863e-4
-1.557, 7.771e-4
-1.556, 7.648e-4
-1.555, 7.555e-4
-1.554, 7.463e-4
-1.553, 7.401e-4
-1.552, 7.309e-4
-1.551, 7.185e-4
-1.550, 7.093e-4
-1.549, 7.000e-4
-1.548, 6.939e-4
-1.547, 6.846e-4
-1.546, 6.754e-4
-1.545, 6.661e-4
-1.544, 6.569e-4
-1.543, 6.507e-4
-1.542, 6.414e-4
-1.541, 6.322e-4
-1.540, 6.229e-4
-1.539, 6.168e-4
-1.538, 6.106e-4
-1.537, 6.014e-4
-1.536, 5.921e-4
-1.535, 5.859e-4
-1.534, 5.798e-4
-1.533, 5.736e-4
-1.532, 5.674e-4
-1.531, 5.582e-4
-1.530, 5.520e-4
-1.529, 5.459e-4
-1.528, 5.397e-4
-1.527, 5.305e-4
-1.526, 5.212e-4
-1.525, 5.150e-4
-1.524, 5.089e-4
-1.523, 5.058e-4
-1.522, 4.996e-4
-1.521, 4.904e-4
-1.520, 4.842e-4
-1.519, 4.780e-4
-1.518, 4.750e-4
-1.517, 4.657e-4
-1.516, 4.595e-4
-1.515, 4.534e-4
-1.514, 4.503e-4
-1.513, 4.441e-4
-1.512, 4.380e-4
-1.511, 4.318e-4
-1.510, 4.256e-4
-1.509, 4.225e-4
-1.508, 4.164e-4
-1.507, 4.102e-4
-1.506, 4.040e-4
-1.505, 4.010e-4
-1.504, 3.979e-4
-1.503, 3.917e-4
-1.502, 3.855e-4
-1.501, 3.794e-4
-1.500, 3.732e-4
-1.499, 3.732e-4
-1.498, 3.670e-4
-1.497, 3.640e-4
-1.496, 3.578e-4
-1.495, 3.516e-4
-1.494, 3.485e-4
-1.493, 3.455e-4
-1.492, 3.393e-4
-1.491, 3.331e-4
-1.490, 3.300e-4
-1.489, 3.270e-4
-1.488, 3.239e-4
-1.487, 3.208e-4
-1.486, 3.146e-4
-1.485, 3.085e-4
-1.484, 3.054e-4
-1.483, 3.023e-4
-1.482, 2.992e-4
-1.481, 2.931e-4
-1.480, 2.900e-4
-1.479, 2.869e-4
-1.478, 2.838e-4
-1.477, 2.807e-4
-1.476, 2.746e-4
-1.475, 2.715e-4
-1.474, 2.684e-4
-1.473, 2.684e-4
-1.472, 2.622e-4
-1.471, 2.561e-4
-1.470, 2.530e-4
-1.469, 2.530e-4
-1.468, 2.499e-4
-1.467, 2.437e-4
-1.466, 2.406e-4
-1.465, 2.376e-4
-1.464, 2.376e-4
-1.463, 2.345e-4
-1.462, 2.283e-4
-1.461, 2.252e-4
-1.460, 2.221e-4
-1.459, 2.221e-4
-1.458, 2.191e-4
-1.457, 2.160e-4
-1.456, 2.129e-4
-1.455, 2.098e-4
-1.454, 2.067e-4
-1.453, 2.067e-4
-1.452, 2.006e-4
-1.451, 1.975e-4
-1.450, 1.944e-4
-1.449, 1.944e-4
-1.448, 1.913e-4
-1.447, 1.882e-4
-1.446, 1.851e-4
-1.445, 1.821e-4
-1.444, 1.790e-4
-1.443, 1.790e-4
-1.442, 1.759e-4
-1.441, 1.728e-4
-1.440, 1.697e-4
-1.439, 1.697e-4
-1.438, 1.666e-4
-1.437, 1.636e-4
-1.436, 1.605e-4
-1.435, 1.574e-4
-1.434, 1.574e-4
-1.433, 1.543e-4
-1.432, 1.543e-4
-1.431, 1.481e-4
-1.430, 1.451e-4
-1.429, 1.451e-4
-1.428, 1.451e-4
-1.427, 1.420e-4
-1.426, 1.389e-4
-1.425, 1.358e-4
-1.424, 1.358e-4
-1.423, 1.358e-4
-1.422, 1.327e-4
-1.421, 1.296e-4
-1.420, 1.266e-4
-1.419, 1.266e-4
-1.418, 1.266e-4
-1.417, 1.235e-4
-1.416, 1.204e-4
-1.415, 1.173e-4
-1.414, 1.173e-4
-1.413, 1.142e-4
-1.412, 1.142e-4
-1.411, 1.111e-4
-1.410, 1.081e-4
-1.409, 1.081e-4
-1.408, 1.081e-4
-1.407, 1.050e-4
-1.406, 1.019e-4
-1.405, 9.882e-5
-1.404, 9.882e-5
-1.403, 9.882e-5
-1.402, 9.573e-5
-1.401, 9.265e-5
-1.400, 9.265e-5
-1.399, 9.265e-5
-1.398, 9.265e-5
-1.397, 8.957e-5
-1.396, 8.648e-5
-1.395, 8.340e-5
-1.394, 8.340e-5
-1.393, 8.340e-5
-1.392, 8.032e-5
-1.391, 8.032e-5
-1.390, 7.723e-5
-1.389, 7.723e-5
-1.388, 7.723e-5
-1.387, 7.415e-5
-1.386, 7.107e-5
-1.385, 7.107e-5
-1.384, 7.107e-5
-1.383, 7.107e-5
-1.382, 6.798e-5
-1.381, 6.798e-5
-1.380, 6.490e-5
-1.379, 6.490e-5
-1.378, 6.490e-5
-1.377, 6.182e-5
-1.376, 5.873e-5
-1.375, 5.873e-5
-1.374, 5.873e-5
-1.373, 5.873e-5
-1.372, 5.873e-5
-1.371, 5.565e-5
-1.370, 5.257e-5
-1.369, 5.565e-5
-1.368, 5.565e-5
-1.367, 5.257e-5
-1.366, 4.949e-5
-1.365, 4.949e-5
-1.364, 4.949e-5
-1.363, 4.949e-5
-1.362, 4.640e-5
-1.361, 4.332e-5
-1.360, 4.332e-5
-1.359, 4.332e-5
-1.358, 4.332e-5
-1.357, 4.024e-5
-1.356, 4.024e-5
-1.355, 3.715e-5
-1.354, 4.024e-5
-1.353, 4.024e-5
-1.352, 3.715e-5
-1.351, 3.715e-5
-1.350, 3.407e-5
-1.349, 3.407e-5
-1.348, 3.407e-5
-1.347, 3.099e-5
-1.346, 3.099e-5
-1.345, 3.099e-5
-1.344, 3.099e-5
-1.343, 3.099e-5
-1.342, 3.099e-5
-1.341, 2.790e-5
-1.340, 2.482e-5
-1.339, 2.482e-5
-1.338, 2.482e-5
-1.337, 2.482e-5
-1.336, 2.482e-5
-1.335, 2.174e-5
-1.334, 2.174e-5
-1.333, 2.174e-5
-1.332, 2.174e-5
-1.331, 1.865e-5
-1.330, 1.865e-5
-1.329, 1.865e-5
-1.328, 1.865e-5
-1.327, 1.865e-5
-1.326, 1.557e-5
-1.325, 1.557e-5
-1.324, 1.557e-5
-1.323, 1.557e-5
-1.322, 1.557e-5
-1.321, 1.249e-5
-1.320, 1.249e-5
-1.319, 1.249e-5
-1.318, 1.249e-5
-1.317, 1.249e-5
-1.316, 9.405e-6
-1.315, 9.405e-6
-1.314, 9.405e-6
-1.313, 9.405e-6
-1.312, 9.405e-6
-1.311, 6.322e-6
-1.310, 6.322e-6
-1.309, 6.322e-6
-1.308, 6.322e-6
-1.307, 6.322e-6
-1.306, 3.239e-6
-1.305, 3.239e-6
-1.304, 6.322e-6
-1.303, 3.239e-6
-1.302, 3.239e-6
-1.301, 3.239e-6
-1.300, 1.559e-7
-1.299, 3.239e-6
-1.298, 3.239e-6
-1.297, 3.239e-6
-1.296, 1.559e-7
-1.295, 1.559e-7
-1.294, 1.559e-7
-1.293, 1.559e-7
-1.292, 1.559e-7
-1.291, -2.927e-6
-1.290, -2.927e-6
-1.289, -2.927e-6
-1.288, 1.559e-7
-1.287, -2.927e-6
-1.286, -2.927e-6
-1.285, -2.927e-6
-1.284, -2.927e-6
-1.283, -2.927e-6
-1.282, -2.927e-6
-1.281, -6.010e-6
-1.280, -6.010e-6
-1.279, -6.010e-6
-1.278, -6.010e-6
-1.277, -6.010e-6
-1.276, -6.010e-6
-1.275, -6.010e-6
-1.274, -6.010e-6
-1.273, -6.010e-6
-1.272, -9.093e-6
-1.271, -9.093e-6
-1.270, -9.093e-6
-1.269, -9.093e-6
-1.268, -6.010e-6
-1.267, -9.093e-6
-1.266, -9.093e-6
-1.265, -9.093e-6
-1.264, -9.093e-6
-1.263, -9.093e-6
-1.262, -9.093e-6
-1.261, -1.218e-5
-1.260, -1.218e-5
-1.259, -9.093e-6
-1.258, -9.093e-6
-1.257, -1.218e-5
-1.256, -1.218e-5
-1.255, -1.218e-5
-1.254, -1.218e-5
-1.253, -1.218e-5
-1.252, -1.218e-5
-1.251, -1.526e-5
-1.250, -1.526e-5
-1.249, -1.218e-5
-1.248, -1.218e-5
-1.247, -1.526e-5
-1.246, -1.526e-5
-1.245, -1.526e-5
-1.244, -1.526e-5
-1.243, -1.218e-5
-1.242, -1.526e-5
-1.241, -1.526e-5
-1.240, -1.526e-5
-1.239, -1.526e-5
-1.238, -1.526e-5
-1.237, -1.526e-5
-1.236, -1.526e-5
-1.235, -1.834e-5
-1.234, -1.526e-5
-1.233, -1.526e-5
-1.232, -1.526e-5
-1.231, -1.526e-5
-1.230, -1.834e-5
-1.229, -1.834e-5
-1.228, -1.526e-5
-1.227, -1.526e-5
-1.226, -1.834e-5
-1.225, -1.834e-5
-1.224, -1.834e-5
-1.223, -1.834e-5
-1.222, -1.834e-5
-1.221, -1.834e-5
-1.220, -1.834e-5
-1.219, -1.834e-5
-1.218, -1.834e-5
-1.217, -1.834e-5
-1.216, -1.834e-5
-1.215, -1.834e-5
-1.214, -1.834e-5
-1.213, -1.834e-5
-1.212, -1.834e-5
-1.211, -1.834e-5
-1.210, -1.834e-5
-1.209, -1.834e-5
-1.208, -1.834e-5
-1.207, -1.834e-5
-1.206, -2.143e-5
-1.205, -2.143e-5
-1.204, -2.143e-5
-1.203, -1.834e-5
-1.202, -1.834e-5
-1.201, -2.143e-5
-1.200, -2.143e-5
-1.199, -1.834e-5
-1.198, -1.834e-5
-1.197, -2.143e-5
-1.196, -2.143e-5
-1.195, -2.143e-5
-1.194, -2.143e-5
-1.193, -1.834e-5
-1.192, -2.143e-5
-1.191, -2.143e-5
-1.190, -2.143e-5
-1.189, -2.143e-5
-1.188, -1.834e-5
-1.187, -2.143e-5
-1.186, -2.143e-5
-1.185, -2.143e-5
-1.184, -2.143e-5
-1.183, -2.143e-5
-1.182, -2.143e-5
-1.181, -2.143e-5
-1.180, -2.143e-5
-1.179, -2.143e-5
-1.178, -2.143e-5
-1.177, -2.143e-5
-1.176, -2.143e-5
-1.175, -2.143e-5
-1.174, -2.143e-5
-1.173, -2.143e-5
-1.172, -2.143e-5
-1.171, -2.451e-5
-1.170, -2.451e-5
-1.169, -2.143e-5
-1.168, -2.143e-5
-1.167, -2.143e-5
-1.166, -2.143e-5
-1.165, -2.451e-5
-1.164, -2.143e-5
-1.163, -2.143e-5
-1.162, -2.143e-5
-1.161, -2.451e-5
-1.160, -2.451e-5
-1.159, -2.143e-5
-1.158, -2.143e-5
-1.157, -2.143e-5
-1.156, -2.451e-5
-1.155, -2.451e-5
-1.154, -2.143e-5
-1.153, -2.143e-5
-1.152, -2.143e-5
-1.151, -2.451e-5
-1.150, -2.451e-5
-1.149, -2.143e-5
-1.148, -2.143e-5
-1.147, -2.451e-5
-1.146, -2.451e-5
-1.145, -2.451e-5
-1.144, -2.451e-5
-1.143, -2.143e-5
-1.142, -2.143e-5
-1.141, -2.451e-5
-1.140, -2.451e-5
-1.139, -2.143e-5
-1.138, -2.143e-5
-1.137, -2.143e-5
-1.136, -2.451e-5
-1.135, -2.451e-5
-1.134, -2.143e-5
-1.133, -2.143e-5
-1.132, -2.451e-5
-1.131, -2.451e-5
-1.130, -2.451e-5
-1.129, -2.451e-5
-1.128, -2.143e-5
-1.127, -2.451e-5
-1.126, -2.451e-5
-1.125, -2.451e-5
-1.124, -2.451e-5
-1.123, -2.143e-5
-1.122, -2.451e-5
-1.121, -2.451e-5
-1.120, -2.451e-5
-1.119, -2.451e-5
-1.118, -2.451e-5
-1.117, -2.451e-5
-1.116, -2.451e-5
-1.115, -2.451e-5
-1.114, -2.451e-5
-1.113, -2.143e-5
-1.112, -2.451e-5
-1.111, -2.451e-5
-1.110, -2.451e-5
-1.109, -2.451e-5
-1.108, -2.143e-5
-1.107, -2.451e-5
-1.106, -2.451e-5
-1.105, -2.759e-5
-1.104, -2.451e-5
-1.103, -2.451e-5
-1.102, -2.451e-5
-1.101, -2.451e-5
-1.100, -2.451e-5
-1.099, -2.451e-5
-1.098, -2.451e-5
-1.097, -2.451e-5
-1.096, -2.451e-5
-1.095, -2.451e-5
-1.094, -2.451e-5
-1.093, -2.451e-5
-1.092, -2.451e-5
-1.091, -2.451e-5
-1.090, -2.759e-5
-1.089, -2.451e-5
-1.088, -2.451e-5
-1.087, -2.451e-5
-1.086, -2.759e-5
-1.085, -2.451e-5
-1.084, -2.451e-5
-1.083, -2.451e-5
-1.082, -2.451e-5
-1.081, -2.759e-5
-1.080, -2.759e-5
-1.079, -2.451e-5
-1.078, -2.451e-5
-1.077, -2.451e-5
-1.076, -2.759e-5
-1.075, -2.759e-5
-1.074, -2.451e-5
-1.073, -2.451e-5
-1.072, -2.451e-5
-1.071, -2.759e-5
-1.070, -2.759e-5
-1.069, -2.759e-5
-1.068, -2.451e-5
-1.067, -2.451e-5
-1.066, -2.759e-5
-1.065, -2.759e-5
-1.064, -2.451e-5
-1.063, -2.451e-5
-1.062, -2.759e-5
-1.061, -2.759e-5
-1.060, -2.759e-5
-1.059, -2.759e-5
-1.058, -2.451e-5
-1.057, -2.759e-5
-1.056, -2.759e-5
-1.055, -2.759e-5
-1.054, -2.759e-5
-1.053, -2.451e-5
-1.052, -2.451e-5
-1.051, -2.759e-5
-1.050, -2.759e-5
-1.049, -2.759e-5
-1.048, -2.759e-5
-1.047, -2.759e-5
-1.046, -2.759e-5
-1.045, -2.759e-5
-1.044, -2.759e-5
-1.043, -2.759e-5
-1.042, -2.759e-5
-1.041, -3.068e-5
-1.040, -2.759e-5
-1.039, -2.759e-5
-1.038, -2.759e-5
-1.037, -2.759e-5
-1.036, -2.759e-5
-1.035, -3.068e-5
-1.034, -2.759e-5
-1.033, -2.759e-5
-1.032, -2.759e-5
-1.031, -3.068e-5
-1.030, -3.068e-5
-1.029, -2.759e-5
-1.028, -2.759e-5
-1.027, -2.759e-5
-1.026, -3.068e-5
-1.025, -3.068e-5
-1.024, -3.068e-5
-1.023, -2.759e-5
-1.022, -2.759e-5
-1.021, -3.068e-5
-1.020, -3.068e-5
-1.019, -3.068e-5
-1.018, -3.068e-5
-1.017, -3.068e-5
-1.016, -3.068e-5
-1.015, -3.376e-5
-1.014, -3.068e-5
-1.013, -3.068e-5
-1.012, -3.068e-5
-1.011, -3.068e-5
-1.010, -3.376e-5
-1.009, -3.068e-5
-1.008, -3.068e-5
-1.007, -3.068e-5
-1.006, -3.376e-5
-1.005, -3.376e-5
-1.004, -3.376e-5
-1.003, -3.068e-5
-1.002, -3.068e-5
-1.001, -3.376e-5
