Potential V vs RHE, Current mA cm-2
0.013299999999999867,-0.3947044526623452
0.012299999999999978,-2.226755585987568
0.011299999999999866,-3.7970851288377587
0.010299999999999976,-5.191990470504685
0.009299999999999864,-6.37044498329226
0.008299999999999974,-7.461187395488204
0.007299999999999862,-8.4203616567967
0.006299999999999972,-9.24938247851761
0.00529999999999986,-9.902979099055257
0.0042999999999999705,-10.514134380596953
0.0032999999999998586,-10.993721511251199
0.0022999999999999687,-11.42945259160963
0.0012999999999998568,-11.86659838326793
0.00029999999999996696,-12.214617363034726
-0.000700000000000145,-12.56405105410139
-0.0017000000000000348,-12.955926084164007
-0.0027000000000001467,-13.261503724934855
-0.0037000000000000366,-13.567081365705702
-0.0047000000000001485,-13.784946905884919
-0.005700000000000038,-14.046668496359947
-0.00670000000000015,-14.217848563643619
-0.00770000000000004,-14.30273124163552
-0.008700000000000152,-14.444202371622024
-0.009700000000000042,-14.529085049613924
-0.010700000000000154,-14.65640906660178
-0.011700000000000044,-14.783733083589633
-0.012700000000000156,-14.868615761581536
-0.013700000000000045,-15.01008689156804
-0.014700000000000157,-15.179852247551842
-0.015700000000000047,-15.307176264539699
-0.01670000000000016,-15.3920589425316
-0.01770000000000005,-15.491088733522153
-0.01870000000000016,-15.533530072518102
-0.01970000000000005,-15.533530072518102
-0.020700000000000163,-15.533530072518102
-0.021700000000000053,-15.533530072518102
-0.022700000000000164,-15.575971411514052
-0.023700000000000054,-15.618412750510005
-0.024700000000000166,-15.70329542850191
-0.025700000000000056,-15.78817810649381
-0.026700000000000168,-15.87306078448571
-0.027700000000000058,-15.972090575476265
-0.02870000000000017,-16.014531914472215
-0.02970000000000006,-16.056973253468165
-0.03070000000000017,-16.056973253468165
-0.03170000000000006,-16.014531914472215
-0.03270000000000017,-15.972090575476265
-0.03370000000000006,-16.014531914472215
-0.034700000000000175,-16.014531914472215
-0.035700000000000065,-16.056973253468165
-0.03670000000000018,-16.099414592464115
-0.03770000000000007,-16.184297270456018
-0.03870000000000018,-16.269179948447924
-0.03970000000000007,-16.311621287443874
-0.04070000000000018,-16.311621287443874
-0.04170000000000007,-16.354062626439823
-0.04270000000000018,-16.311621287443874
-0.04370000000000007,-16.269179948447924
-0.044700000000000184,-16.22673860945197
-0.045700000000000074,-16.22673860945197
-0.046700000000000186,-16.22673860945197
-0.047700000000000076,-16.269179948447924
-0.04870000000000019,-16.311621287443874
-0.04970000000000008,-16.354062626439823
-0.05070000000000019,-16.438945304431726
-0.05170000000000008,-16.495533756426326
-0.05270000000000019,-16.438945304431726
-0.05370000000000008,-16.438945304431726
-0.05470000000000019,-16.396503965435777
-0.05570000000000008,-16.354062626439823
-0.056700000000000195,-16.354062626439823
-0.057700000000000085,-16.311621287443874
-0.058700000000000196,-16.311621287443874
-0.059700000000000086,-16.396503965435777
-0.0607000000000002,-16.438945304431726
-0.06170000000000009,-16.53797509542228
-0.0627000000000002,-16.580416434418233
-0.06370000000000009,-16.622857773414182
-0.0647000000000002,-16.622857773414182
-0.06570000000000009,-16.580416434418233
-0.0667000000000002,-16.53797509542228
-0.0677000000000001,-16.53797509542228
-0.0687000000000002,-16.53797509542228
-0.0697000000000001,-16.495533756426326
-0.07070000000000021,-16.53797509542228
-0.0717000000000001,-16.580416434418233
-0.07270000000000021,-16.622857773414182
-0.0737000000000001,-16.70774045140608
-0.07470000000000021,-16.750181790402035
-0.0757000000000001,-16.750181790402035
-0.07670000000000021,-16.750181790402035
-0.0777000000000001,-16.70774045140608
-0.07870000000000021,-16.665299112410132
-0.0797000000000001,-16.622857773414182
-0.08070000000000022,-16.622857773414182
-0.0817000000000001,-16.622857773414182
-0.08270000000000022,-16.622857773414182
-0.08370000000000011,-16.665299112410132
-0.08470000000000022,-16.750181790402035
-0.08570000000000011,-16.792623129397985
-0.08670000000000022,-16.835064468393938
-0.08770000000000011,-16.835064468393938
-0.08870000000000022,-16.835064468393938
-0.08970000000000011,-16.792623129397985
-0.09070000000000022,-16.70774045140608
-0.09170000000000011,-16.70774045140608
-0.09270000000000023,-16.665299112410132
-0.09370000000000012,-16.70774045140608
-0.09470000000000023,-16.750181790402035
-0.09570000000000012,-16.792623129397985
-0.09670000000000023,-16.835064468393938
-0.09770000000000012,-16.919947146385837
-0.09870000000000023,-16.919947146385837
-0.09970000000000012,-16.919947146385837
-0.10070000000000023,-16.877505807389888
-0.10170000000000012,-16.835064468393938
-0.10270000000000024,-16.792623129397985
-0.10370000000000013,-16.750181790402035
-0.10470000000000024,-16.70774045140608
-0.10570000000000013,-16.750181790402035
-0.10670000000000024,-16.792623129397985
-0.10770000000000013,-16.877505807389888
-0.10870000000000024,-16.919947146385837
-0.10970000000000013,-16.962388485381787
-0.11070000000000024,-16.962388485381787
-0.11170000000000013,-16.962388485381787
-0.11270000000000002,-16.962388485381787
-0.11370000000000013,-16.919947146385837
-0.11470000000000002,-16.877505807389888
-0.11570000000000014,-16.877505807389888
-0.11670000000000003,-16.877505807389888
-0.11770000000000014,-16.919947146385837
-0.11870000000000003,-16.962388485381787
-0.11970000000000014,-17.018976937376394
-0.12070000000000003,-17.103859615368293
-0.12170000000000014,-17.103859615368293
-0.12270000000000003,-17.103859615368293
-0.12370000000000014,-17.103859615368293
-0.12470000000000003,-17.103859615368293
-0.12570000000000014,-17.061418276372343
-0.12670000000000003,-17.018976937376394
-0.12770000000000015,-17.018976937376394
-0.12870000000000004,-17.061418276372343
-0.12970000000000015,-17.103859615368293
-0.13070000000000004,-17.103859615368293
-0.13170000000000015,-17.188742293360193
-0.13270000000000004,-17.231183632356142
-0.13370000000000015,-17.2736249713521
-0.13470000000000004,-17.316066310348052
-0.13570000000000015,-17.2736249713521
-0.13670000000000004,-17.2736249713521
-0.13770000000000016,-17.231183632356142
-0.13870000000000005,-17.188742293360193
-0.13970000000000016,-17.188742293360193
-0.14070000000000005,-17.188742293360193
-0.14170000000000016,-17.2736249713521
-0.14270000000000005,-17.316066310348052
-0.14370000000000016,-17.40094898833995
-0.14470000000000005,-17.40094898833995
-0.14570000000000016,-17.40094898833995
-0.14670000000000005,-17.40094898833995
-0.14770000000000016,-17.358507649344002
-0.14870000000000005,-17.358507649344002
-0.14970000000000017,-17.2736249713521
-0.15070000000000006,-17.2736249713521
-0.15170000000000017,-17.2736249713521
-0.15270000000000006,-17.316066310348052
-0.15370000000000017,-17.358507649344002
-0.15470000000000006,-17.40094898833995
-0.15570000000000017,-17.48583166633185
-0.15670000000000006,-17.48583166633185
-0.15770000000000017,-17.542420118326454
-0.15870000000000006,-17.48583166633185
-0.15970000000000018,-17.4433903273359
-0.16070000000000007,-17.4433903273359
-0.16170000000000018,-17.40094898833995
-0.16270000000000007,-17.40094898833995
-0.16370000000000018,-17.4433903273359
-0.16470000000000007,-17.48583166633185
-0.16570000000000018,-17.584861457322408
-0.16670000000000007,-17.669744135314307
-0.16770000000000018,-17.71218547431026
-0.16870000000000007,-17.75462681330621
-0.16970000000000018,-17.75462681330621
-0.17070000000000007,-17.71218547431026
-0.17170000000000019,-17.71218547431026
-0.17270000000000008,-17.669744135314307
-0.1737000000000002,-17.669744135314307
-0.17470000000000008,-17.669744135314307
-0.1757000000000002,-17.71218547431026
-0.17670000000000008,-17.797068152302163
-0.1777000000000002,-17.839509491298113
-0.17870000000000008,-17.924392169290012
-0.1797000000000002,-18.009274847281915
-0.18070000000000008,-18.009274847281915
-0.1817000000000002,-18.009274847281915
-0.18270000000000008,-18.009274847281915
-0.1837000000000002,-18.009274847281915
-0.1847000000000001,-17.966833508285966
-0.1857000000000002,-17.966833508285966
-0.1867000000000001,-17.966833508285966
-0.1877000000000002,-18.06586329927652
-0.1887000000000001,-18.10830463827247
-0.1897000000000002,-18.19318731626437
-0.1907000000000001,-18.27806999425627
-0.1917000000000001,-18.320511333252224
-0.19269999999999998,-18.362952672248177
-0.1937000000000001,-18.362952672248177
-0.19469999999999998,-18.320511333252224
-0.1957000000000001,-18.320511333252224
-0.19669999999999999,-18.27806999425627
-0.1977000000000001,-18.27806999425627
-0.1987,-18.320511333252224
-0.1997000000000001,-18.362952672248177
-0.2007,-18.44783535024008
-0.2017000000000001,-18.53271802823198
-0.2027,-18.631747819222536
-0.2037000000000001,-18.674189158218486
-0.2047,-18.716630497214435
-0.2057000000000001,-18.674189158218486
-0.2067,-18.716630497214435
-0.2077000000000001,-18.674189158218486
-0.2087,-18.674189158218486
-0.2097000000000001,-18.674189158218486
-0.2107,-18.759071836210385
-0.2117000000000001,-18.843954514202288
-0.2127,-18.88639585319824
-0.2137000000000001,-19.01371987018609
-0.2147,-19.056161209182044
-0.2157000000000001,-19.197632339168546
-0.2167,-19.2400736781645
-0.21770000000000012,-19.197632339168546
-0.2187,-19.197632339168546
-0.21970000000000012,-19.197632339168546
-0.2207,-19.2400736781645
-0.22170000000000012,-19.2400736781645
-0.2227,-19.3249563561564
-0.22370000000000012,-19.409839034148305
-0.2247,-19.49472171214021
-0.22570000000000012,-19.579604390132108
-0.2267,-19.678634181122664
-0.22770000000000012,-19.721075520118614
-0.22870000000000001,-19.721075520118614
-0.22970000000000013,-19.763516859114564
-0.23070000000000002,-19.763516859114564
-0.23170000000000013,-19.805958198110513
-0.23270000000000002,-19.848399537106463
-0.23370000000000013,-19.890840876102416
-0.23470000000000002,-20.01816489309027
-0.23570000000000013,-20.10304757108217
-0.23670000000000002,-20.202077362072725
-0.2376999999999999,-20.329401379060574
-0.23870000000000002,-20.414284057052477
-0.2396999999999999,-20.499166735044383
-0.24070000000000003,-20.499166735044383
-0.24169999999999991,-20.541608074040333
-0.24270000000000003,-20.541608074040333
-0.24369999999999992,-20.584049413036283
-0.24470000000000003,-20.626490752032236
-0.24569999999999992,-20.76796188201874
-0.24670000000000003,-20.89528589900659
-0.24769999999999992,-20.980168576998494
-0.24870000000000003,-21.149933932982297
-0.24969999999999992,-21.248963723972853
-0.25070000000000003,-21.333846401964752
-0.2516999999999999,-21.418729079956652
-0.25270000000000004,-21.461170418952605
-0.2536999999999999,-21.503611757948562
-0.25470000000000004,-21.54605309694451
-0.2556999999999999,-21.58849443594046
-0.25670000000000004,-21.67337711393236
-0.25769999999999993,-21.772406904922917
-0.25870000000000004,-21.899730921910766
-0.25969999999999993,-22.069496277894572
-0.26070000000000004,-22.196820294882425
-0.26169999999999993,-22.33829142486893
-0.26270000000000004,-22.46561544185678
-0.26369999999999993,-22.550498119848687
-0.26470000000000005,-22.63538079784059
-0.26569999999999994,-22.72026347583249
-0.26670000000000005,-22.861734605818995
-0.26769999999999994,-22.946617283810895
-0.26870000000000005,-23.1163826397947
-0.26969999999999994,-23.24370665678255
-0.27070000000000005,-23.427619125765005
-0.27169999999999994,-23.639825820744765
-0.27270000000000005,-23.823738289727217
-0.27369999999999994,-23.993503645711023
-0.27470000000000006,-24.120827662698876
-0.27569999999999995,-24.24815167968673
-0.27670000000000006,-24.34718147067728
-0.27769999999999995,-24.432064148669184
-0.27870000000000006,-24.601829504652986
-0.27969999999999995,-24.729153521640843
-0.28070000000000006,-24.95550732961925
-0.28169999999999995,-25.12527268560305
-0.28270000000000006,-25.337479380582806
-0.28369999999999995,-25.60627452755716
-0.28470000000000006,-25.81848122253692
-0.28569999999999995,-26.002393691519377
-0.28670000000000007,-26.21460038649913
-0.28769999999999996,-26.34192440348698
-0.28870000000000007,-26.525836872469437
-0.28969999999999996,-26.65316088945729
-0.29070000000000007,-26.822926245441096
-0.29169999999999996,-27.049280053419505
-0.29270000000000007,-27.261486748399253
-0.29369999999999996,-27.530281895373616
-0.2947000000000001,-27.78492992934932
-0.29569999999999996,-28.05372507632368
-0.2967000000000001,-28.308373110299385
-0.29769999999999996,-28.53472691827779
-0.2987000000000001,-28.746933613257543
-0.29969999999999997,-28.959140308237306
-0.3007000000000001,-29.14305277721976
-0.30169999999999997,-29.35525947219951
-0.3027000000000001,-29.62405461917387
-0.30369999999999997,-29.878702653149578
-0.3047000000000001,-30.189939139119886
-0.30569999999999997,-30.487028512091538
-0.3067000000000001,-30.79826499806185
-0.3077,-31.137795710029454
-0.3087000000000001,-31.40659085700382
-0.3097,-31.717827342974125
-0.3107000000000001,-31.930034037953877
-0.3117,-32.184682071929586
-0.3127000000000001,-32.41103587990799
-0.3137,-32.66568391388369
-0.3147000000000001,-32.97692039985401
-0.3157,-33.288156885824314
-0.3167000000000001,-33.627687597791926
-0.3177,-33.98136542275818
-0.3187000000000001,-34.377484586720385
-0.3197,-34.717015298688004
-0.3207000000000001,-35.07069312365426
-0.3217,-35.32534115762997
-0.3227000000000001,-35.679018982596226
-0.3237,-35.99025546856653
-0.3247000000000001,-36.244903502542236
-0.3257,-36.5985813275085
-0.3267000000000001,-36.95225915247476
-0.3277,-37.376672542434264
-0.3287000000000001,-37.81523304539243
-0.3297,-38.211352209354644
-0.3307000000000001,-38.6499127123128
-0.3317,-39.046031876275016
-0.3327000000000001,-39.42800392723857
-0.3337,-39.82412309120078
-0.3347000000000001,-40.177800916167044
-0.3357,-40.559772967130606
-0.3367000000000001,-40.95589213109281
-0.3377,-41.352011295055014
-0.3387000000000001,-41.74813045901723
-0.3397,-42.229132300971344
-0.3407000000000001,-42.653545690930855
-0.3417,-43.17698887188092
-0.3427000000000001,-43.657990713835034
-0.3437,-44.138992555789144
-0.3447000000000001,-44.619994397743255
-0.3457,-45.10099623969737
-0.3467000000000001,-45.53955674265553
-0.3477,-46.02055858460964
-0.3487000000000001,-46.544001765559706
-0.3497,-47.067444946509774
-0.3507000000000001,-47.633329466455784
-0.3517,-48.1992139864018
-0.3527000000000001,-48.76509850634781
-0.3537,-49.373424365289786
-0.3547000000000001,-49.89686754623985
-0.3557,-50.46275206618586
-0.35670000000000013,-50.943753908139975
-0.3577,-51.46719708909004
-0.35870000000000013,-51.948198931044146
-0.3597,-52.42920077299826
-0.36070000000000013,-52.995085292944275
-0.3617,-53.56096981289029
-0.3626999999999999,-54.16929567183226
-0.3637,-54.791768643772876
-0.3646999999999999,-55.442535841710786
-0.3657,-56.093303039648696
-0.3666999999999999,-56.74407023758662
-0.3677,-57.352396096528594
-0.3686999999999999,-57.974869068469204
-0.36970000000000003,-58.583194927411164
-0.3706999999999999,-59.14907944735718
-0.37170000000000003,-59.7149639673032
-0.3726999999999999,-60.36573116524111
-0.37370000000000003,-61.01649836317903
-0.3746999999999999,-61.72385401311155
-0.37570000000000003,-62.41706255004542
-0.3766999999999999,-63.251742216965795
-0.37770000000000004,-64.02983343189156
-0.3786999999999999,-64.82207175981598
-0.37970000000000004,-65.5577216357458
-0.3806999999999999,-66.25093017267966
-0.38170000000000004,-66.91584448361623
-0.38269999999999993,-67.52417034255821
-0.38370000000000004,-68.13249620150016
-0.38469999999999993,-68.78326339943808
-0.38570000000000004,-69.43403059737601
-0.38669999999999993,-70.14138624730852
-0.38770000000000004,-70.87703612323833
-0.38869999999999993,-71.6268331121668
-0.38970000000000005,-72.36248298809663
-0.39069999999999994,-73.15472131602105
-0.39170000000000005,-73.89037119195086
-0.39269999999999994,-74.62602106788069
-0.39370000000000005,-75.4182593958051
-0.39469999999999994,-76.15390927173492
-0.39570000000000005,-76.94614759965934
-0.39669999999999994,-77.76668015358106
-0.39770000000000005,-78.64380115949739
-0.39869999999999994,-79.52092216541372
-0.39970000000000006,-80.34145471933543
-0.40069999999999995,-81.26101706424771
-0.40170000000000006,-82.18057940915998
-0.40269999999999995,-83.0011119630817
-0.40370000000000006,-83.87823296899803
-0.40469999999999995,-84.7129126359184
-0.40570000000000006,-85.57588652883607
-0.40669999999999995,-86.45300753475239
-0.40770000000000006,-87.33012854066871
-0.40869999999999995,-88.19310243358639
-0.40970000000000006,-89.19754745649055
-0.41069999999999995,-90.15955114039879
-0.41170000000000007,-91.12155482430701
-0.41269999999999996,-92.04111716921928
-0.41370000000000007,-92.98897374012887
-0.41469999999999996,-93.86609474604518
-0.41570000000000007,-94.7432157519615
-0.41669999999999996,-95.60618964487918
-0.41770000000000007,-96.44086931179956
-0.41869999999999996,-97.36043165671182
-0.4197000000000001,-98.2234055496295
-0.42069999999999996,-99.14296789454177
-0.4217000000000001,-100.06253023945405
-0.42269999999999996,-101.02453392336226
-0.4237000000000001,-102.02897894626645
-0.42469999999999997,-103.01927685617197
-0.4257000000000001,-104.12275167006669
-0.42669999999999997,-105.16963803196683
-0.4277000000000001,-106.2589657328629
-0.42869999999999997,-107.34829343375898
-0.4297000000000001,-108.43762113465506
-0.43069999999999997,-109.56939017454708
-0.4317000000000001,-110.6162765364472
-0.4327,-111.7056042373433
-0.4337000000000001,-112.79493193823936
-0.4347,-113.84181830013951
-0.4357000000000001,-114.88870466203963
-0.4367,-115.8931496849438
-0.4377000000000001,-116.94003604684394
-0.4387,-117.94448106974811
-0.4397000000000001,-118.90648475365633
-0.4407,-119.9109297765605
-0.4417000000000001,-120.9153747994647
-0.4427,-121.90567270937021
-0.4437000000000001,-123.00914752326493
-0.4447,-124.14091656315696
-0.4457000000000001,-125.272685603049
-0.4467,-126.44689598193698
-0.4477000000000001,-127.57866502182902
-0.4487,-128.752875400717
-0.4497000000000001,-129.8563502146117
-0.4507,-130.98811925450374
-0.4517000000000001,-132.11988829439576
-0.4527,-133.2516573342878
-0.4537000000000001,-134.38342637417986
-0.4547,-135.6142252050624
-0.4557000000000001,-136.83087692294635
-0.4567,-138.04752864083028
-0.4577000000000001,-139.3207688107088
-0.4587,-140.4949791895968
-0.4597000000000001,-141.75407224647665
-0.4607,-142.8858412863687
-0.4617000000000001,-144.15908145624724
-0.4627,-145.29085049613926
-0.4637000000000001,-146.4226195360313
-0.4647,-147.55438857592333
-0.4657000000000001,-148.82762874580186
-0.4667,-149.95939778569388
-0.4677000000000001,-151.23263795557244
-0.4687,-152.50587812545095
-0.4697000000000001,-153.77911829532948
-0.4707,-155.05235846520802
-0.4717000000000001,-156.32559863508658
-0.4727,-157.59883880496508
-0.4737000000000001,-158.87207897484362
-0.4747,-160.14531914472215
-0.4757000000000001,-161.2770881846142
-0.4767,-162.40885722450622
-0.4777000000000001,-163.68209739438475
-0.4787,-164.9553375642633
-0.4797000000000001,-166.22857773414182
-0.4807,-167.6432890340068
-0.48170000000000013,-168.91652920388537
-0.4827,-170.18976937376394
-0.48370000000000013,-171.60448067362896
-0.4847,-172.87772084350746
-0.48570000000000013,-174.0094898833995
-0.4867,-173.86801875341303
-0.48570000000000013,-171.32153841365593
-0.4847,-169.19947146385837
-0.48370000000000013,-167.36034677403384
-0.4827,-165.6626932141958
-0.48170000000000013,-164.10651078434424
-0.4807,-162.5503283544927
-0.4797000000000001,-161.1356170546277
-0.4787,-159.72090575476264
-0.4777000000000001,-158.3061944548976
-0.4767,-156.75001202504606
-0.4757000000000001,-155.33530072518104
-0.4747,-153.920589425316
-0.4737000000000001,-152.50587812545095
-0.4727,-151.09116682558593
-0.4717000000000001,-149.6764555257209
-0.4707,-148.40321535584232
-0.4697000000000001,-147.1299751859638
-0.4687,-145.85673501608528
-0.4677000000000001,-144.44202371622026
-0.4667,-143.3102546763282
