Potential V vs RHE, Current mA cm-2
0.05339999999999995,-0.0386499127123128
0.05239999999999995,-0.03980997597820213
0.051399999999999946,-0.0403051249331549
0.050399999999999945,-0.04074368543611305
0.049399999999999944,-0.04113980460007527
0.04839999999999994,-0.04152177665103883
0.04739999999999994,-0.04193204292799969
0.04639999999999994,-0.04231401497896324
0.04539999999999994,-0.04269598702992681
0.04439999999999994,-0.04306381196789172
0.04339999999999994,-0.04344578401885528
0.04239999999999994,-0.043856050295816136
0.04139999999999994,-0.0442097281207824
0.040399999999999936,-0.044591700171745956
0.039399999999999935,-0.04500196644870682
0.038399999999999934,-0.04541223272566768
0.03739999999999993,-0.04578005766363259
0.03639999999999993,-0.046162029714596146
0.03539999999999993,-0.0465440017655597
0.03439999999999993,-0.04691182670352462
0.03339999999999993,-0.04732209298048548
0.03239999999999993,-0.04771821214444769
0.03139999999999993,-0.048086037082412596
0.030399999999999927,-0.04849630335937346
0.029399999999999926,-0.048892422523335664
0.028399999999999925,-0.049288541687297883
0.027399999999999924,-0.04968466085126009
0.026399999999999924,-0.05006663290222365
0.025399999999999923,-0.050476899179184506
0.024399999999999922,-0.05085887123014807
0.02339999999999992,-0.05126913750710893
0.02239999999999992,-0.051693550897068445
0.02139999999999992,-0.052075522948032
0.020399999999999918,-0.05249993633799151
0.019399999999999917,-0.052896055501953726
0.018399999999999916,-0.05329217466591593
0.017399999999999916,-0.053702440942876795
0.016399999999999915,-0.05409856010683901
0.015399999999999914,-0.05452297349679851
0.014399999999999913,-0.05493323977375937
0.013399999999999912,-0.05532935893772159
0.012399999999999911,-0.05576791944067974
0.01139999999999991,-0.056149891491643296
0.01039999999999991,-0.05657430488160282
0.009399999999999908,-0.05698457115856368
0.008399999999999908,-0.057380690322525886
0.007399999999999907,-0.0578051037124854
0.006399999999999906,-0.058215369989446264
0.005399999999999905,-0.05862563626640712
0.004399999999999904,-0.05902175543036933
0.003399999999999903,-0.05943202170733019
0.002399999999999902,-0.0598281408712924
0.0013999999999999013,-0.06021011292225596
0.00039999999999990044,-0.06066282053821278
-0.0006000000000001005,-0.061058939702174984
-0.0016000000000001013,-0.061483353092134506
-0.0026000000000001022,-0.061907766482094014
-0.003600000000000103,-0.06230388564605621
-0.004600000000000104,-0.06274244614901436
-0.005600000000000105,-0.06315271242597524
-0.006600000000000106,-0.06359127292893339
-0.007600000000000107,-0.06402983343189157
-0.008600000000000108,-0.06444009970885242
-0.009600000000000108,-0.06487866021181057
-0.01060000000000011,-0.06528892648877145
-0.01160000000000011,-0.0656991927657323
-0.012600000000000111,-0.06615190038168911
-0.013600000000000112,-0.06656216665864997
-0.014600000000000113,-0.06697243293561084
-0.015600000000000114,-0.0673826992125717
-0.016600000000000115,-0.06780711260253121
-0.017600000000000116,-0.06824567310548936
-0.018600000000000116,-0.06865593938245024
-0.019600000000000117,-0.06908035277240973
-0.020600000000000118,-0.06944817771037465
-0.02160000000000012,-0.06988673821333281
-0.02260000000000012,-0.07029700449029368
-0.02360000000000012,-0.07072141788025317
-0.024600000000000122,-0.07115997838321135
-0.025600000000000123,-0.07155609754717356
-0.026600000000000124,-0.07198051093713306
-0.027600000000000124,-0.07239077721409394
-0.028600000000000125,-0.0727727492650575
-0.029600000000000126,-0.07319716265501701
-0.030600000000000127,-0.07360742893197786
-0.03160000000000013,-0.07400354809594006
-0.03260000000000013,-0.07442796148589957
-0.03360000000000013,-0.07482408064986179
-0.03460000000000002,-0.07523434692682264
-0.03560000000000002,-0.07563046609078486
-0.03660000000000002,-0.07601243814174842
-0.03760000000000002,-0.07642270441870928
-0.03860000000000002,-0.07681882358267149
-0.039600000000000024,-0.0771866485206364
-0.040600000000000025,-0.07761106191059591
-0.041600000000000026,-0.07799303396155947
-0.04260000000000003,-0.0783891531255217
-0.04360000000000003,-0.07877112517648524
-0.04460000000000003,-0.0791530972274488
-0.04560000000000003,-0.07953506927841236
-0.04660000000000003,-0.07991704132937592
-0.04760000000000003,-0.08027071915434218
-0.04860000000000003,-0.08065269120530574
-0.04960000000000003,-0.08102051614327066
-0.050600000000000034,-0.08140248819423422
-0.051600000000000035,-0.08178446024519778
-0.052600000000000036,-0.08212399095716538
-0.053600000000000037,-0.08249181589513029
-0.05460000000000004,-0.08285964083309519
-0.05560000000000004,-0.08319917154506282
-0.05660000000000004,-0.08353870225703043
-0.05760000000000004,-0.08384993874300072
-0.05860000000000004,-0.08417532234196969
-0.05960000000000004,-0.08451485305393729
-0.06060000000000004,-0.08484023665290626
-0.061600000000000044,-0.08517976736487386
-0.06260000000000004,-0.08551929807684147
-0.06360000000000005,-0.08583053456281178
-0.06460000000000005,-0.08618421238777803
-0.06560000000000005,-0.08649544887374834
-0.06660000000000005,-0.08680668535971865
-0.06760000000000005,-0.0871037747326903
-0.06860000000000005,-0.08737256987966466
-0.06960000000000005,-0.08766965925263633
-0.07060000000000005,-0.08795260151260934
-0.07160000000000005,-0.08824969088558099
-0.07260000000000005,-0.0885043389195567
-0.07360000000000005,-0.08878728117952969
-0.07460000000000006,-0.08908437055250136
-0.07560000000000006,-0.08936731281247437
-0.07660000000000006,-0.08962196084645008
-0.07760000000000006,-0.08990490310642309
-0.07860000000000006,-0.09015955114039878
-0.07960000000000006,-0.09042834628737315
-0.08060000000000006,-0.09066884720835021
-0.08160000000000006,-0.09089520101632861
-0.08260000000000006,-0.09116399616330297
-0.08360000000000006,-0.09140449708428001
-0.08460000000000006,-0.09164499800525706
-0.08560000000000006,-0.09187135181323548
-0.08660000000000007,-0.09208355850821524
-0.08760000000000007,-0.09230991231619365
-0.08860000000000007,-0.0925221190111734
-0.08960000000000007,-0.09273432570615316
-0.09060000000000007,-0.09293238528813427
-0.09160000000000007,-0.09315873909611266
-0.09260000000000007,-0.09332850445209646
-0.09360000000000007,-0.09352656403407757
-0.09460000000000007,-0.09369632939006138
-0.09560000000000007,-0.09388024185904384
-0.09660000000000007,-0.09407830144102494
-0.09760000000000008,-0.09423391968401008
-0.09860000000000008,-0.09438953792699524
-0.09960000000000008,-0.09455930328297905
-0.10060000000000008,-0.09470077441296555
-0.10160000000000008,-0.09487053976894937
-0.10260000000000008,-0.0949978637859372
-0.10360000000000008,-0.09512518780292507
-0.10460000000000008,-0.09526665893291157
-0.10560000000000008,-0.09539398294989941
-0.10660000000000008,-0.09552130696688728
-0.10760000000000008,-0.09564863098387513
-0.10860000000000009,-0.09574766077486568
-0.10960000000000009,-0.0958608376788549
-0.11060000000000009,-0.09597401458284409
-0.11160000000000009,-0.0960871914868333
-0.11260000000000009,-0.09617207416482519
-0.11360000000000009,-0.09624280972981844
-0.11460000000000009,-0.09638428085980494
-0.11560000000000009,-0.09645501642479819
-0.11660000000000009,-0.09652575198979144
-0.1176000000000001,-0.0965964875547847
-0.1186000000000001,-0.09666722311977795
-0.1196000000000001,-0.09673795868477121
-0.1206000000000001,-0.0967945471367658
-0.1216000000000001,-0.09685113558876042
-0.1226000000000001,-0.09689357692775637
-0.1236000000000001,-0.09693601826675231
-0.1246000000000001,-0.09697845960574826
-0.1256000000000001,-0.09700675383174556
-0.1266000000000001,-0.09704919517074152
-0.1276000000000001,-0.09707748939673881
-0.1286000000000001,-0.09710578362273611
-0.1296000000000001,-0.09711993073573477
-0.1306000000000001,-0.09713407784873342
-0.1316000000000001,-0.09716237207473072
-0.1326000000000001,-0.09714822496173206
-0.1336000000000001,-0.09716237207473072
-0.1346000000000001,-0.09717651918772936
-0.1356000000000001,-0.09714822496173206
-0.1366000000000001,-0.09717651918772936
-0.1376000000000001,-0.09714822496173206
-0.1386000000000001,-0.09713407784873342
-0.1396000000000001,-0.09713407784873342
-0.1406000000000001,-0.09711993073573477
-0.14160000000000011,-0.09710578362273611
-0.14260000000000012,-0.09707748939673881
-0.14360000000000012,-0.0970209009447442
-0.14460000000000012,-0.09700675383174556
-0.14560000000000012,-0.09696431249274962
-0.14660000000000012,-0.09693601826675231
-0.14760000000000012,-0.09689357692775637
-0.14860000000000012,-0.09683698847576175
-0.14960000000000012,-0.09680869424976446
-0.15060000000000012,-0.0967662529107685
-0.15160000000000012,-0.09670966445877392
-0.15260000000000012,-0.09666722311977795
-0.15360000000000013,-0.09661063466778336
-0.15460000000000013,-0.09655404621578875
-0.15560000000000013,-0.0965116048767928
-0.15660000000000013,-0.09645501642479819
-0.15760000000000013,-0.09637013374680631
-0.15860000000000013,-0.09629939818181305
-0.15960000000000002,-0.09624280972981844
-0.16060000000000002,-0.09617207416482519
-0.16160000000000002,-0.0960871914868333
-0.16260000000000002,-0.09601645592184005
-0.16360000000000002,-0.09593157324384814
-0.16460000000000002,-0.09587498479185352
-0.16560000000000002,-0.09584669056585624
-0.16660000000000003,-0.09577595500086299
-0.16760000000000003,-0.09566277809687378
-0.16860000000000003,-0.09559204253188053
-0.16960000000000003,-0.09552130696688728
-0.17060000000000003,-0.09540813006289808
-0.17160000000000003,-0.09535154161090346
-0.17260000000000003,-0.09525251181991291
-0.17360000000000003,-0.09515348202892236
-0.17460000000000003,-0.09508274646392911
-0.17560000000000003,-0.09498371667293856
-0.17660000000000003,-0.09489883399494665
-0.17760000000000004,-0.09479980420395612
-0.17860000000000004,-0.09470077441296555
-0.17960000000000004,-0.0946300388479723
-0.18060000000000004,-0.09453100905698175
-0.18160000000000004,-0.09444612637898986
-0.18260000000000004,-0.0943470965879993
-0.18360000000000004,-0.09424806679700874
-0.18460000000000004,-0.09416318411901684
-0.18560000000000004,-0.09407830144102494
-0.18660000000000004,-0.09397927165003438
-0.18760000000000004,-0.09389438897204248
-0.18860000000000005,-0.09376706495505463
-0.18960000000000005,-0.09369632939006138
-0.19060000000000005,-0.09358315248607219
-0.19160000000000005,-0.09351241692107892
-0.19260000000000005,-0.09341338713008837
-0.19360000000000005,-0.09330021022609918
-0.19460000000000005,-0.09321532754810727
-0.19560000000000005,-0.09311629775711672
-0.19660000000000005,-0.09301726796612615
-0.19760000000000005,-0.09290409106213696
-0.19860000000000005,-0.09281920838414506
-0.19960000000000006,-0.09270603148015585
-0.20060000000000006,-0.09260700168916529
-0.20160000000000006,-0.09250797189817477
-0.20260000000000006,-0.09242308922018284
-0.20360000000000006,-0.09233820654219095
-0.20460000000000006,-0.09222502963820174
-0.20560000000000006,-0.09214014696020983
-0.20660000000000006,-0.09204111716921928
-0.20760000000000006,-0.09194208737822873
-0.20860000000000006,-0.09182891047423952
-0.20960000000000006,-0.09174402779624763
-0.21060000000000006,-0.09167329223125438
-0.21160000000000007,-0.09156011532726518
-0.21260000000000007,-0.09144693842327598
-0.21360000000000007,-0.09136205574528407
-0.21460000000000007,-0.09129132018029082
-0.21560000000000007,-0.09119229038930025
-0.21660000000000007,-0.091121554824307
-0.21760000000000007,-0.09103667214631511
-0.21860000000000007,-0.09093764235532456
-0.21960000000000007,-0.09085275967733265
-0.22060000000000007,-0.09075372988634212
-0.22160000000000007,-0.09068299432134884
-0.22260000000000008,-0.09056981741735964
-0.22360000000000008,-0.09048493473936775
-0.22460000000000008,-0.09042834628737315
-0.22560000000000008,-0.09030102227038528
-0.22660000000000008,-0.09023028670539203
-0.22760000000000008,-0.09014540402740015
-0.22860000000000008,-0.09004637423640958
-0.22960000000000008,-0.08998978578441498
-0.23060000000000008,-0.08989075599342443
-0.23160000000000008,-0.08979172620243389
-0.23260000000000008,-0.08973513775043927
-0.23360000000000009,-0.08963610795944872
-0.2346000000000001,-0.08955122528145683
-0.2356000000000001,-0.08948048971646357
-0.2366000000000001,-0.08939560703847166
-0.2376000000000001,-0.08931072436047977
-0.2386000000000001,-0.08922584168248787
-0.2396000000000001,-0.08915510611749461
-0.2406000000000001,-0.08907022343950272
-0.2416000000000001,-0.08899948787450947
-0.2426000000000001,-0.08894289942251486
-0.2436000000000001,-0.08887216385752161
-0.2446000000000001,-0.08877313406653106
-0.2456000000000001,-0.0887023985015378
-0.2466000000000001,-0.0886458100495432
-0.2476000000000001,-0.0885609273715513
-0.2486000000000001,-0.0885043389195567
-0.2496000000000001,-0.08843360335456343
-0.2506000000000001,-0.08836286778957018
-0.2516000000000001,-0.0883062793375756
-0.2526000000000001,-0.08822139665958369
-0.2536000000000001,-0.08816480820758908
-0.2546000000000001,-0.08809407264259583
-0.2556000000000001,-0.08803748419060124
-0.2566000000000001,-0.08799504285160528
-0.2576000000000001,-0.08791016017361337
-0.2586000000000001,-0.08783942460862013
-0.2596000000000001,-0.08779698326962418
-0.2606000000000001,-0.08771210059163227
-0.2616000000000001,-0.08768380636563497
-0.2626000000000001,-0.08761307080064172
-0.2636000000000001,-0.08754233523564847
-0.2646000000000001,-0.08749989389665253
-0.2656000000000001,-0.0874433054446579
-0.2666000000000001,-0.08738671699266332
-0.2676000000000001,-0.08733012854066871
-0.2686000000000001,-0.08728768720167276
-0.2696000000000001,-0.08724524586267682
-0.2706000000000001,-0.08718865741068221
-0.2716000000000001,-0.08713206895868761
-0.2726000000000001,-0.08708962761969166
-0.2736000000000001,-0.0870188920546984
-0.2746000000000001,-0.08697645071570247
-0.2756000000000001,-0.0869340093767065
-0.2766000000000001,-0.08689156803771056
-0.2776000000000001,-0.08682083247271731
-0.2786000000000001,-0.0867642440207227
-0.2796000000000001,-0.0867359497947254
-0.2806000000000001,-0.0866793613427308
-0.28160000000000013,-0.0866510671167335
-0.28260000000000013,-0.0865944786647389
-0.28360000000000013,-0.08655203732574294
-0.2846,-0.08649544887374834
-0.2856,-0.08645300753475238
-0.2866,-0.08641056619575643
-0.2876,-0.08635397774376184
-0.2886,-0.08632568351776454
-0.2896,-0.0862832421787686
-0.2906,-0.08624080083977263
-0.2916,-0.08619835950077669
-0.2926,-0.08614177104878207
-0.2936,-0.08609932970978613
-0.29460000000000003,-0.08608518259678749
-0.29560000000000003,-0.08602859414479287
-0.29660000000000003,-0.08601444703179424
-0.29760000000000003,-0.08595785857979962
-0.29860000000000003,-0.08591541724080368
-0.29960000000000003,-0.08587297590180773
-0.30060000000000003,-0.08585882878880907
-0.30160000000000003,-0.08583053456281178
-0.30260000000000004,-0.08577394611081718
-0.30360000000000004,-0.08574565188481988
-0.30460000000000004,-0.08570321054582393
-0.30560000000000004,-0.08567491631982663
-0.30660000000000004,-0.08566076920682797
-0.30760000000000004,-0.08561832786783201
-0.30860000000000004,-0.08560418075483338
-0.30960000000000004,-0.08556173941583743
-0.31060000000000004,-0.08551929807684147
-0.31160000000000004,-0.08550515096384281
-0.31260000000000004,-0.08546270962484687
-0.31360000000000005,-0.08546270962484687
-0.31460000000000005,-0.08543441539884956
-0.31560000000000005,-0.08539197405985362
-0.31660000000000005,-0.08537782694685496
-0.31760000000000005,-0.08533538560785901
-0.31860000000000005,-0.08533538560785901
-0.31960000000000005,-0.08532123849486037
-0.32060000000000005,-0.08530709138186171
-0.32160000000000005,-0.08526465004286575
-0.32260000000000005,-0.08525050292986712
-0.32360000000000005,-0.08525050292986712
-0.32460000000000006,-0.08520806159087116
-0.32560000000000006,-0.08520806159087116
-0.32660000000000006,-0.0851939144778725
-0.32760000000000006,-0.08515147313887655
-0.32860000000000006,-0.08515147313887655
-0.32960000000000006,-0.08515147313887655
-0.33060000000000006,-0.08512317891287925
-0.33160000000000006,-0.08512317891287925
-0.33260000000000006,-0.08510903179988061
-0.33360000000000006,-0.08510903179988061
-0.33460000000000006,-0.08509488468688196
-0.33560000000000006,-0.0850807375738833
-0.33660000000000007,-0.08509488468688196
-0.33760000000000007,-0.08506659046088466
-0.33860000000000007,-0.0850807375738833
-0.33960000000000007,-0.08509488468688196
-0.34060000000000007,-0.0850807375738833
-0.34160000000000007,-0.0850807375738833
-0.34260000000000007,-0.0850807375738833
-0.34360000000000007,-0.08506659046088466
-0.3446000000000001,-0.0850807375738833
-0.3456000000000001,-0.08509488468688196
-0.3466000000000001,-0.08509488468688196
-0.34759999999999996,-0.08509488468688196
-0.3486000000000001,-0.08510903179988061
-0.34959999999999997,-0.08509488468688196
-0.3506000000000001,-0.08509488468688196
-0.35159999999999997,-0.08512317891287925
-0.3526000000000001,-0.08513732602587791
-0.35359999999999997,-0.08515147313887655
-0.3546000000000001,-0.08515147313887655
-0.35559999999999997,-0.08516562025187521
-0.3566000000000001,-0.0851939144778725
-0.3576,-0.08520806159087116
-0.3586000000000001,-0.08523635581686846
-0.3596,-0.08523635581686846
-0.3606000000000001,-0.08527879715586441
-0.3616,-0.08529294426886307
-0.3626000000000001,-0.08529294426886307
-0.3636,-0.08533538560785901
-0.3646000000000001,-0.08533538560785901
-0.3656,-0.08536367983385632
-0.3666000000000001,-0.0854202682858509
-0.3676,-0.0854202682858509
-0.3686000000000001,-0.08546270962484687
-0.3696,-0.08549100385084417
-0.3706000000000001,-0.08553344518984012
-0.3716,-0.08560418075483338
-0.3726000000000001,-0.08560418075483338
-0.3736,-0.08567491631982663
-0.3746000000000001,-0.08567491631982663
-0.3756,-0.08571735765882257
-0.3766000000000001,-0.08578809322381582
-0.3776,-0.08581638744981313
-0.3786000000000001,-0.08587297590180773
-0.3796,-0.08591541724080368
-0.3806000000000001,-0.08595785857979962
-0.3816,-0.08601444703179424
-0.3826000000000001,-0.08605688837079019
-0.3836,-0.08612762393578344
-0.3846000000000001,-0.08618421238777803
-0.3856,-0.08626909506576994
-0.3866000000000001,-0.08632568351776454
-0.3876,-0.0863681248567605
-0.3886000000000001,-0.08643886042175375
-0.3896,-0.08649544887374834
-0.3906000000000001,-0.08658033155174025
-0.3916,-0.08666521422973215
-0.3926000000000001,-0.08672180268172675
-0.3936,-0.08679253824672
-0.3946000000000001,-0.0868774209247119
-0.3956,-0.08696230360270381
-0.3966000000000001,-0.08706133339369435
-0.3976,-0.08711792184568896
-0.3986000000000001,-0.08720280452368086
-0.3996,-0.08728768720167276
-0.4006000000000001,-0.08738671699266332
-0.4016,-0.08747159967065522
-0.4026000000000001,-0.08755648234864712
-0.4036,-0.08765551213963767
-0.4046000000000001,-0.08771210059163227
-0.4056,-0.08785357172161878
-0.40660000000000013,-0.08793845439961068
-0.4076,-0.08802333707760258
-0.40860000000000013,-0.08815066109459044
-0.4096,-0.08826383799857963
-0.41060000000000013,-0.08834872067657155
-0.4116,-0.08849019180655805
-0.41260000000000013,-0.0885892215975486
-0.4136,-0.08871654561453644
-0.41460000000000014,-0.088815575405527
-0.4156,-0.08894289942251486
-0.41660000000000014,-0.0890985176655
-0.4176,-0.08919754745649056
-0.41860000000000014,-0.08936731281247437
-0.41960000000000003,-0.08949463682946222
-0.42060000000000014,-0.08962196084645008
-0.42160000000000003,-0.08977757908943522
-0.42260000000000014,-0.08991905021942173
-0.42360000000000003,-0.09003222712341094
-0.42460000000000014,-0.09017369825339744
-0.42560000000000003,-0.0903293164963826
-0.42660000000000015,-0.09048493473936775
-0.42760000000000004,-0.09062640586935425
-0.42860000000000015,-0.09076787699934075
-0.42960000000000004,-0.0909234952423259
-0.43060000000000015,-0.09107911348531106
-0.43160000000000004,-0.09123473172829621
-0.43260000000000015,-0.09139034997128137
-0.43360000000000004,-0.09156011532726518
-0.43460000000000015,-0.09170158645725168
-0.43560000000000004,-0.09187135181323548
-0.43660000000000015,-0.092012822943222
