Potential V vs RHE, Current mA cm-2
0.013299999999999867,0.12863969849672777
0.012299999999999978,-1.0490084288499246
0.011299999999999866,-1.92117794521672
0.010299999999999976,-2.618630616050183
0.009299999999999864,-3.0119203574126634
0.008299999999999974,-3.1859298472960624
0.007299999999999862,-3.273641947887695
0.006299999999999972,-3.403795387475278
0.00529999999999986,-3.623075638954359
0.0042999999999999705,-3.884797229429391
0.0032999999999998586,-4.102662769608606
0.0022999999999999687,-4.1889601589003735
0.0012999999999998568,-4.146518819904423
0.00029999999999996696,-4.0588067193127895
-0.000700000000000145,-4.146518819904423
-0.0017000000000000348,-4.3205283097878215
-0.0027000000000001467,-4.538393849967037
-0.0037000000000000366,-4.626105950558669
-0.0047000000000001485,-4.626105950558669
-0.005700000000000038,-4.538393849967037
-0.00670000000000015,-4.494537799671222
-0.00770000000000004,-4.582249900262854
-0.008700000000000152,-4.756259390146253
-0.009700000000000042,-4.9302688800296535
-0.010700000000000154,-4.974124930325469
-0.011700000000000044,-4.887827541033701
-0.012700000000000156,-4.800115440442069
-0.013700000000000045,-4.800115440442069
-0.014700000000000157,-4.887827541033701
-0.015700000000000047,-5.0618370309171015
-0.01670000000000016,-5.191990470504685
-0.01770000000000005,-5.235846520800501
-0.01870000000000016,-5.149549131508733
-0.01970000000000005,-5.0618370309171015
-0.020700000000000163,-5.0618370309171015
-0.021700000000000053,-5.191990470504685
-0.022700000000000164,-5.367414671687949
-0.023700000000000054,-5.453712060979717
-0.024700000000000166,-5.411270721983764
-0.025700000000000056,-5.323558621392133
-0.026700000000000168,-5.279702571096316
-0.027700000000000058,-5.323558621392133
-0.02870000000000017,-5.497568111275533
-0.02970000000000006,-5.672992312458796
-0.03070000000000017,-5.715433651454749
-0.03170000000000006,-5.585280211867165
-0.03270000000000017,-5.497568111275533
-0.03370000000000006,-5.453712060979717
-0.034700000000000175,-5.585280211867165
-0.035700000000000065,-5.759289701750564
-0.03670000000000018,-5.847001802342197
-0.03770000000000007,-5.890857852638012
-0.03870000000000018,-5.759289701750564
-0.03970000000000007,-5.672992312458796
-0.04070000000000018,-5.672992312458796
-0.04170000000000007,-5.847001802342197
-0.04270000000000018,-5.977155241929781
-0.04370000000000007,-6.064867342521412
-0.044700000000000184,-6.021011292225596
-0.045700000000000074,-5.890857852638012
-0.046700000000000186,-5.847001802342197
-0.047700000000000076,-5.847001802342197
-0.04870000000000019,-6.021011292225596
-0.04970000000000008,-6.196435493408861
-0.05070000000000019,-6.196435493408861
-0.05170000000000008,-6.108723392817228
-0.05270000000000019,-5.977155241929781
-0.05370000000000008,-5.9347139029338285
-0.05470000000000019,-6.064867342521412
-0.05570000000000008,-6.196435493408861
-0.056700000000000195,-6.326588932996443
-0.057700000000000085,-6.282732882700628
-0.058700000000000196,-6.196435493408861
-0.059700000000000086,-6.064867342521412
-0.0607000000000002,-6.108723392817228
-0.06170000000000009,-6.238876832404812
-0.0627000000000002,-6.414301033588076
-0.06370000000000009,-6.458157083883892
-0.0647000000000002,-6.37044498329226
-0.06570000000000009,-6.238876832404812
-0.0667000000000002,-6.196435493408861
-0.0677000000000001,-6.196435493408861
-0.0687000000000002,-6.326588932996443
-0.0697000000000001,-6.458157083883892
-0.07070000000000021,-6.500598422879844
-0.0717000000000001,-6.37044498329226
-0.07270000000000021,-6.238876832404812
-0.0737000000000001,-6.196435493408861
-0.07470000000000021,-6.282732882700628
-0.0757000000000001,-6.414301033588076
-0.07670000000000021,-6.500598422879844
-0.0777000000000001,-6.458157083883892
-0.07870000000000021,-6.37044498329226
-0.0797000000000001,-6.196435493408861
-0.08070000000000022,-6.238876832404812
-0.0817000000000001,-6.326588932996443
-0.08270000000000022,-6.458157083883892
-0.08370000000000011,-6.500598422879844
-0.08470000000000022,-6.414301033588076
-0.08570000000000011,-6.282732882700628
-0.08670000000000022,-6.238876832404812
-0.08770000000000011,-6.238876832404812
-0.08870000000000022,-6.37044498329226
-0.08970000000000011,-6.500598422879844
-0.09070000000000022,-6.500598422879844
-0.09170000000000011,-6.37044498329226
-0.09270000000000023,-6.238876832404812
-0.09370000000000012,-6.196435493408861
-0.09470000000000023,-6.282732882700628
-0.09570000000000012,-6.414301033588076
-0.09670000000000023,-6.458157083883892
-0.09770000000000012,-6.458157083883892
-0.09870000000000023,-6.326588932996443
-0.09970000000000012,-6.152579443113044
-0.10070000000000023,-6.152579443113044
-0.10170000000000012,-6.282732882700628
-0.10270000000000024,-6.414301033588076
-0.10370000000000013,-6.458157083883892
-0.10470000000000024,-6.326588932996443
-0.10570000000000013,-6.196435493408861
-0.10670000000000024,-6.108723392817228
-0.10770000000000013,-6.152579443113044
-0.10870000000000024,-6.238876832404812
-0.10970000000000013,-6.37044498329226
-0.11070000000000024,-6.37044498329226
-0.11170000000000013,-6.238876832404812
-0.11270000000000002,-6.108723392817228
-0.11370000000000013,-6.064867342521412
-0.11470000000000002,-6.152579443113044
-0.11570000000000014,-6.282732882700628
-0.11670000000000003,-6.326588932996443
-0.11770000000000014,-6.282732882700628
-0.11870000000000003,-6.238876832404812
-0.11970000000000014,-6.064867342521412
-0.12070000000000003,-6.021011292225596
-0.12170000000000014,-6.196435493408861
-0.12270000000000003,-6.282732882700628
-0.12370000000000014,-6.37044498329226
-0.12470000000000003,-6.282732882700628
-0.12570000000000014,-6.108723392817228
-0.12670000000000003,-6.064867342521412
-0.12770000000000015,-6.108723392817228
-0.12870000000000004,-6.196435493408861
-0.12970000000000015,-6.326588932996443
-0.13070000000000004,-6.326588932996443
-0.13170000000000015,-6.238876832404812
-0.13270000000000004,-6.108723392817228
-0.13370000000000015,-6.064867342521412
-0.13470000000000004,-6.108723392817228
-0.13570000000000015,-6.282732882700628
-0.13670000000000004,-6.37044498329226
-0.13770000000000016,-6.326588932996443
-0.13870000000000005,-6.196435493408861
-0.13970000000000016,-6.108723392817228
-0.14070000000000005,-6.064867342521412
-0.14170000000000016,-6.196435493408861
-0.14270000000000005,-6.37044498329226
-0.14370000000000016,-6.414301033588076
-0.14470000000000005,-6.326588932996443
-0.14570000000000016,-6.196435493408861
-0.14670000000000005,-6.108723392817228
-0.14770000000000016,-6.196435493408861
-0.14870000000000005,-6.326588932996443
-0.14970000000000017,-6.458157083883892
-0.15070000000000006,-6.458157083883892
-0.15170000000000017,-6.37044498329226
-0.15270000000000006,-6.238876832404812
-0.15370000000000017,-6.196435493408861
-0.15470000000000006,-6.282732882700628
-0.15570000000000017,-6.458157083883892
-0.15670000000000006,-6.54445447317566
-0.15770000000000017,-6.500598422879844
-0.15870000000000006,-6.414301033588076
-0.15970000000000018,-6.282732882700628
-0.16070000000000007,-6.282732882700628
-0.16170000000000018,-6.414301033588076
-0.16270000000000007,-6.588310523471475
-0.16370000000000018,-6.632166573767292
-0.16470000000000007,-6.588310523471475
-0.16570000000000018,-6.458157083883892
-0.16670000000000007,-6.37044498329226
-0.16770000000000018,-6.414301033588076
-0.16870000000000007,-6.54445447317566
-0.16970000000000018,-6.719878674358924
-0.17070000000000007,-6.719878674358924
-0.17170000000000019,-6.6760226240631075
-0.17270000000000008,-6.54445447317566
-0.1737000000000002,-6.500598422879844
-0.17470000000000008,-6.588310523471475
-0.1757000000000002,-6.762320013354876
-0.17670000000000008,-6.850032113946507
-0.1777000000000002,-6.893888164242324
-0.17870000000000008,-6.762320013354876
-0.1797000000000002,-6.6760226240631075
-0.18070000000000008,-6.6760226240631075
-0.1817000000000002,-6.850032113946507
-0.18270000000000008,-7.024041603829907
-0.1837000000000002,-7.067897654125724
-0.1847000000000001,-7.024041603829907
-0.1857000000000002,-6.93774421453814
-0.1867000000000001,-6.850032113946507
-0.1877000000000002,-6.93774421453814
-0.1887000000000001,-7.067897654125724
-0.1897000000000002,-7.243321855308987
-0.1907000000000001,-7.28576319430494
-0.1917000000000001,-7.199465805013171
-0.19269999999999998,-7.067897654125724
-0.1937000000000001,-7.067897654125724
-0.19469999999999998,-7.155609754717355
-0.1957000000000001,-7.329619244600755
-0.19669999999999999,-7.461187395488204
-0.1977000000000001,-7.461187395488204
-0.1987,-7.37347529489657
-0.1997000000000001,-7.243321855308987
-0.2007,-7.329619244600755
-0.2017000000000001,-7.50504344578402
-0.2027,-7.635196885371603
-0.2037000000000001,-7.7653503249591855
-0.2047,-7.679052935667419
-0.2057000000000001,-7.591340835075788
-0.2067,-7.5474847847799715
-0.2077000000000001,-7.635196885371603
-0.2087,-7.809206375255003
-0.2097000000000001,-7.984630576438266
-0.2107,-8.027071915434218
-0.2117000000000001,-7.940774526142452
-0.2127,-7.896918475846635
-0.2137000000000001,-7.896918475846635
-0.2147,-8.027071915434218
-0.2157000000000001,-8.246352166913299
-0.2167,-8.376505606500881
-0.21770000000000012,-8.4203616567967
-0.2187,-8.332649556205066
-0.21970000000000012,-8.246352166913299
-0.2207,-8.288793505909249
-0.22170000000000012,-8.464217707092514
-0.2227,-8.68208324727173
-0.22370000000000012,-8.769795347863363
-0.2247,-8.769795347863363
-0.22570000000000012,-8.68208324727173
-0.2267,-8.638227196975913
-0.22770000000000012,-8.725939297567548
-0.22870000000000001,-8.943804837746763
-0.22970000000000013,-9.11781432763016
-0.23070000000000002,-9.205526428221793
-0.23170000000000013,-9.11781432763016
-0.23270000000000002,-9.031516938338395
-0.23370000000000013,-9.073958277334345
-0.23470000000000002,-9.24938247851761
-0.23570000000000013,-9.467248018696827
-0.23670000000000002,-9.59740145828441
-0.2376999999999999,-9.59740145828441
-0.23870000000000002,-9.59740145828441
-0.2396999999999999,-9.511104068992642
-0.24070000000000003,-9.59740145828441
-0.24169999999999991,-9.772825659467674
-0.24270000000000003,-9.99069119964689
-0.24369999999999992,-10.120844639234473
-0.24470000000000003,-10.120844639234473
-0.24569999999999992,-10.078403300238522
-0.24670000000000003,-10.078403300238522
-0.24769999999999992,-10.208556739826104
-0.24870000000000003,-10.42642228000532
-0.24969999999999992,-10.601846481188586
-0.25070000000000003,-10.731999920776168
-0.2516999999999999,-10.688143870480351
-0.25270000000000004,-10.644287820184536
-0.2536999999999999,-10.644287820184536
-0.25470000000000004,-10.819712021367803
-0.2556999999999999,-11.037577561547016
-0.25670000000000004,-11.211587051430415
-0.25769999999999993,-11.299299152022046
-0.25870000000000004,-11.255443101726232
-0.25969999999999993,-11.211587051430415
-0.26070000000000004,-11.255443101726232
-0.26169999999999993,-11.517164692201263
-0.26270000000000004,-11.778886282676295
-0.26369999999999993,-11.86659838326793
-0.26470000000000005,-11.909039722263879
-0.26569999999999994,-11.86659838326793
-0.26670000000000005,-11.909039722263879
-0.26769999999999994,-12.040607873151327
-0.26870000000000005,-12.258473413330542
-0.26969999999999994,-12.476338953509758
-0.27070000000000005,-12.607907104397206
-0.27169999999999994,-12.607907104397206
-0.27270000000000005,-12.56405105410139
-0.27369999999999994,-12.607907104397206
-0.27470000000000006,-12.825772644576423
-0.27569999999999995,-13.087494235051453
-0.27670000000000006,-13.261503724934855
-0.27769999999999995,-13.349215825526485
-0.27870000000000006,-13.349215825526485
-0.27969999999999995,-13.30535977523067
-0.28070000000000006,-13.436927926118118
-0.28169999999999995,-13.654793466297335
-0.28270000000000006,-13.872659006476551
-0.28369999999999995,-14.090524546655764
-0.28470000000000006,-14.090524546655764
-0.28569999999999995,-14.046668496359947
-0.28670000000000007,-14.090524546655764
-0.28769999999999996,-14.26028990263957
-0.28870000000000007,-14.529085049613924
-0.28969999999999996,-14.783733083589633
-0.29070000000000007,-14.925204213576137
-0.29169999999999996,-14.925204213576137
-0.29270000000000007,-14.925204213576137
-0.29369999999999996,-15.01008689156804
-0.2947000000000001,-15.179852247551842
-0.29569999999999996,-15.448647394526201
-0.2967000000000001,-15.660854089505953
-0.29769999999999996,-15.74573676749786
-0.2987000000000001,-15.74573676749786
-0.29969999999999997,-15.74573676749786
-0.3007000000000001,-15.87306078448571
-0.30169999999999997,-16.141855931460068
-0.3027000000000001,-16.438945304431726
-0.30369999999999997,-16.622857773414182
-0.3047000000000001,-16.665299112410132
-0.30569999999999997,-16.665299112410132
-0.3067000000000001,-16.750181790402035
-0.3077,-16.877505807389888
-0.3087000000000001,-17.188742293360193
-0.3097,-17.40094898833995
-0.3107000000000001,-17.584861457322408
-0.3117,-17.584861457322408
-0.3127000000000001,-17.584861457322408
-0.3137,-17.71218547431026
-0.3147000000000001,-17.924392169290012
-0.3157,-18.23562865526032
-0.3167000000000001,-18.44783535024008
-0.3177,-18.589306480226583
-0.3187000000000001,-18.631747819222536
-0.3197,-18.631747819222536
-0.3207000000000001,-18.759071836210385
-0.3217,-19.01371987018609
-0.3227000000000001,-19.3249563561564
-0.3237,-19.537163051136158
-0.3247000000000001,-19.636192842126707
-0.3257,-19.636192842126707
-0.3267000000000001,-19.721075520118614
-0.3277,-19.93328221509837
-0.3287000000000001,-20.244518701068674
-0.3297,-20.499166735044383
-0.3307000000000001,-20.72552054302279
-0.3317,-20.76796188201874
-0.3327000000000001,-20.810403221014692
-0.3337,-20.93772723800254
-0.3347000000000001,-21.2065223849769
-0.3357,-21.503611757948562
-0.3367000000000001,-21.772406904922917
-0.3377,-21.899730921910766
-0.3387000000000001,-21.94217226090672
-0.3397,-21.98461359990267
-0.3407000000000001,-22.15437895588647
-0.3417,-22.46561544185678
-0.3427000000000001,-22.776851927827092
-0.3437,-22.989058622806844
-0.3447000000000001,-23.1163826397947
-0.3457,-23.15882397879065
-0.3467000000000001,-23.24370665678255
-0.3477,-23.51250180375691
-0.3487000000000001,-23.823738289727217
-0.3497,-24.120827662698876
-0.3507000000000001,-24.34718147067728
-0.3517,-24.432064148669184
-0.3527000000000001,-24.474505487665134
-0.3537,-24.64427084364894
-0.3547000000000001,-24.95550732961925
-0.3557,-25.295038041586857
-0.35670000000000013,-25.60627452755716
-0.3577,-25.77603988354097
-0.35870000000000013,-25.91751101352747
-0.3597,-26.002393691519377
-0.36070000000000013,-26.21460038649913
-0.3617,-26.568278211465387
-0.3626999999999999,-26.9643973754276
-0.3637,-27.219045409403304
-0.3646999999999999,-27.34636942639116
-0.3657,-27.487840556377662
-0.3666999999999999,-27.615164573365515
-0.3677,-27.869812607341224
-0.3686999999999999,-28.265931771303435
-0.36970000000000003,-28.619609596269694
-0.3706999999999999,-28.8742576302454
-0.37170000000000003,-28.959140308237306
-0.3726999999999999,-29.100611438223805
-0.37370000000000003,-29.27037679420761
-0.3746999999999999,-29.62405461917387
-0.37570000000000003,-29.96358533114148
-0.3766999999999999,-30.317263156107735
-0.37770000000000004,-30.487028512091538
-0.3786999999999999,-30.670940981073993
-0.37970000000000004,-30.79826499806185
-0.3806999999999999,-31.010471693041605
-0.38170000000000004,-31.40659085700382
-0.38269999999999993,-31.802710020966025
-0.38370000000000004,-32.09979939393769
-0.38469999999999993,-32.283711862920136
-0.38570000000000004,-32.41103587990799
-0.38669999999999993,-32.62324257488775
-0.38770000000000004,-32.93447906085806
-0.38869999999999993,-33.330598224820264
-0.38970000000000005,-33.755011614779775
-0.39069999999999994,-34.06624810075008
-0.39170000000000005,-34.236013456733886
-0.39269999999999994,-34.41992592571634
-0.39370000000000005,-34.632132620696105
-0.39469999999999994,-35.02825178465831
-0.39570000000000005,-35.50925362661242
-0.39669999999999994,-35.848784338580025
-0.39770000000000005,-36.11757948555439
-0.39869999999999994,-36.28734484153819
-0.39970000000000006,-36.47125731052064
-0.40069999999999995,-36.768346683492304
-0.40170000000000006,-37.164465847454515
-0.40269999999999995,-37.645467689408626
-0.40370000000000006,-37.99914551437489
-0.40469999999999995,-38.211352209354644
-0.40570000000000006,-38.38111756533845
-0.40669999999999995,-38.607471373316855
-0.40770000000000006,-38.98944342428042
-0.40869999999999995,-39.42800392723857
-0.40970000000000006,-39.86656443019674
-0.41069999999999995,-40.220242255162994
-0.41170000000000007,-40.43244895014274
-0.41269999999999996,-40.616361419125205
-0.41370000000000007,-40.91345079209687
-0.41469999999999996,-41.352011295055014
-0.41570000000000007,-41.83301313700913
-0.41669999999999996,-42.2715736399673
-0.41770000000000007,-42.568663012938956
-0.41869999999999996,-42.837458159913304
-0.4197000000000001,-43.09210619388902
-0.42069999999999996,-43.44578401885527
-0.4217000000000001,-43.96922719980534
-0.42269999999999996,-44.4926703807554
-0.4237000000000001,-44.93123088371356
-0.42469999999999997,-45.27076159568118
-0.4257000000000001,-45.53955674265553
-0.42669999999999997,-45.79420477663124
-0.4277000000000001,-46.27520661858535
-0.42869999999999997,-46.75620846053947
-0.4297000000000001,-47.27965164148953
-0.43069999999999997,-47.71821214444768
-0.4317000000000001,-47.987007291422046
-0.4327,-48.1992139864018
-0.4337000000000001,-48.59533315036401
-0.4347,-49.076334992318124
-0.4357000000000001,-49.642219512264134
-0.4367,-50.0807800152223
-0.4377000000000001,-50.46275206618586
-0.4387,-50.77398855215617
-0.4397000000000001,-50.98619524713592
-0.4407,-51.424755750094086
-0.4417000000000001,-51.990640270040096
-0.4427,-52.55652478998611
-0.4437000000000001,-53.03752663194023
-0.4447,-53.348763117910536
-0.4457000000000001,-53.68829382987814
-0.4467,-54.08441299384035
-0.4477000000000001,-54.56541483579447
-0.4487,-55.13129935574048
-0.4497000000000001,-55.73962521468245
-0.4507,-56.26306839563251
-0.4517000000000001,-56.65918755959472
-0.4527,-56.97042404556503
-0.4537000000000001,-57.45142588751914
-0.4547,-58.017310407465146
-0.4557000000000001,-58.66807760540307
-0.4567,-59.23396212534908
-0.4577000000000001,-59.7149639673032
-0.4587,-60.11108313126541
-0.4597000000000001,-60.45061384323302
-0.4607,-60.974057024183075
-0.4617000000000001,-61.53994154412909
-0.4627,-62.16241451606972
-0.4637000000000001,-62.72829903601572
-0.4647,-63.15271242597524
-0.4657000000000001,-63.54883158993744
-0.4667,-64.02983343189156
-0.4677000000000001,-64.59571795183757
-0.4687,-65.20404381077954
-0.4697000000000001,-65.86895812171612
-0.4707,-66.43484264166212
-0.4717000000000001,-66.87340314462028
-0.4727,-67.2978165345798
-0.4737000000000001,-67.7788183765339
-0.4747,-68.38714423547587
-0.4757000000000001,-69.13694122440434
-0.4767,-69.74526708334632
-0.4777000000000001,-70.31115160329232
-0.4787,-70.74971210625048
-0.4797000000000001,-71.18827260920865
-0.4807,-71.7965984681506
-0.48170000000000013,-72.48980700508447
-0.4827,-73.23960399401295
-0.48370000000000013,-73.89037119195086
-0.4847,-74.41381437290093
-0.48570000000000013,-74.89481621485504
-0.4867,-74.24404901691713
-0.48570000000000013,-72.27760031010472
-0.4847,-71.0043601402262
-0.48370000000000013,-69.95747377832606
-0.4827,-68.91058741642594
-0.48170000000000013,-67.9202895065204
-0.4807,-66.87340314462028
-0.4797000000000001,-65.99628213870396
-0.4787,-65.20404381077954
-0.4777000000000001,-64.59571795183757
-0.4767,-63.902509414903705
-0.4757000000000001,-63.06782974798333
-0.4747,-62.20485585506566
-0.4737000000000001,-61.327734849149344
-0.4727,-60.59208497321952
-0.4717000000000001,-59.9696120012789
-0.4707,-59.403727481332886
-0.4697000000000001,-58.75296028339497
-0.4687,-57.974869068469204
-0.4677000000000001,-57.14018940154883
-0.4667,-56.404539525619015
-0.4657000000000001,-55.7820665536784
-0.4647,-55.31521182472294
-0.4637000000000001,-54.791768643772876
-0.4627,-54.16929567183226
-0.4617000000000001,-53.433645795902436
-0.4607,-52.69799591997262
