Dec. 25, 2024   20:08:56
Linear Sweep Voltammetry
File: c:/users/guazh/data/banditlqround7_x0exp136_r20/2024-12-24-exp740\post-regen1-2024-12-25t20_05_42-lsvinphos\post-regen1_lsv_50mvs_efin_-2300mv.bin
Data Source:  Experiment
Instrument Model:  CHI760E
Header: LSV ran at 50 mVs with Efin at -2300mV
Note: 

Init E (V) = -0.6
Final E (V) = -2.3
Scan Rate (V/s) = 0.05
Sample Interval (V) = 0.001
Quiet Time (sec) = 2
Sensitivity (A/V) = 1e-4
Comp R (ohm) = 9.4

Results:

Channel 1:
Ep = -1.823V
ip = 6.933e-4A
Ah = 9.122e-4C

Potential/V, Current/A

-0.600, 7.906e-6
-0.601, 8.059e-6
-0.602, 8.110e-6
-0.603, 8.162e-6
-0.604, 8.205e-6
-0.605, 8.244e-6
-0.606, 8.301e-6
-0.607, 8.348e-6
-0.608, 8.388e-6
-0.609, 8.433e-6
-0.610, 8.472e-6
-0.611, 8.531e-6
-0.612, 8.587e-6
-0.613, 8.657e-6
-0.614, 8.694e-6
-0.615, 8.750e-6
-0.616, 8.804e-6
-0.617, 8.853e-6
-0.618, 8.898e-6
-0.619, 8.950e-6
-0.620, 8.957e-6
-0.621, 8.983e-6
-0.622, 9.032e-6
-0.623, 9.079e-6
-0.624, 9.097e-6
-0.625, 9.136e-6
-0.626, 9.221e-6
-0.627, 9.294e-6
-0.628, 9.339e-6
-0.629, 9.364e-6
-0.630, 9.361e-6
-0.631, 9.387e-6
-0.632, 9.455e-6
-0.633, 9.526e-6
-0.634, 9.637e-6
-0.635, 9.759e-6
-0.636, 9.824e-6
-0.637, 9.837e-6
-0.638, 9.874e-6
-0.639, 9.926e-6
-0.640, 1.000e-5
-0.641, 1.006e-5
-0.642, 1.013e-5
-0.643, 1.018e-5
-0.644, 1.020e-5
-0.645, 1.023e-5
-0.646, 1.028e-5
-0.647, 1.040e-5
-0.648, 1.046e-5
-0.649, 1.051e-5
-0.650, 1.057e-5
-0.651, 1.059e-5
-0.652, 1.060e-5
-0.653, 1.061e-5
-0.654, 1.066e-5
-0.655, 1.070e-5
-0.656, 1.077e-5
-0.657, 1.086e-5
-0.658, 1.090e-5
-0.659, 1.093e-5
-0.660, 1.095e-5
-0.661, 1.098e-5
-0.662, 1.103e-5
-0.663, 1.104e-5
-0.664, 1.106e-5
-0.665, 1.109e-5
-0.666, 1.116e-5
-0.667, 1.118e-5
-0.668, 1.120e-5
-0.669, 1.122e-5
-0.670, 1.128e-5
-0.671, 1.127e-5
-0.672, 1.124e-5
-0.673, 1.123e-5
-0.674, 1.121e-5
-0.675, 1.132e-5
-0.676, 1.131e-5
-0.677, 1.130e-5
-0.678, 1.137e-5
-0.679, 1.144e-5
-0.680, 1.147e-5
-0.681, 1.150e-5
-0.682, 1.147e-5
-0.683, 1.153e-5
-0.684, 1.157e-5
-0.685, 1.163e-5
-0.686, 1.166e-5
-0.687, 1.168e-5
-0.688, 1.167e-5
-0.689, 1.172e-5
-0.690, 1.178e-5
-0.691, 1.184e-5
-0.692, 1.183e-5
-0.693, 1.184e-5
-0.694, 1.185e-5
-0.695, 1.188e-5
-0.696, 1.193e-5
-0.697, 1.196e-5
-0.698, 1.196e-5
-0.699, 1.200e-5
-0.700, 1.195e-5
-0.701, 1.199e-5
-0.702, 1.211e-5
-0.703, 1.213e-5
-0.704, 1.214e-5
-0.705, 1.213e-5
-0.706, 1.217e-5
-0.707, 1.222e-5
-0.708, 1.224e-5
-0.709, 1.218e-5
-0.710, 1.219e-5
-0.711, 1.226e-5
-0.712, 1.223e-5
-0.713, 1.223e-5
-0.714, 1.226e-5
-0.715, 1.226e-5
-0.716, 1.225e-5
-0.717, 1.219e-5
-0.718, 1.220e-5
-0.719, 1.222e-5
-0.720, 1.224e-5
-0.721, 1.230e-5
-0.722, 1.237e-5
-0.723, 1.236e-5
-0.724, 1.238e-5
-0.725, 1.249e-5
-0.726, 1.251e-5
-0.727, 1.245e-5
-0.728, 1.247e-5
-0.729, 1.257e-5
-0.730, 1.255e-5
-0.731, 1.258e-5
-0.732, 1.256e-5
-0.733, 1.257e-5
-0.734, 1.259e-5
-0.735, 1.262e-5
-0.736, 1.260e-5
-0.737, 1.259e-5
-0.738, 1.262e-5
-0.739, 1.265e-5
-0.740, 1.264e-5
-0.741, 1.261e-5
-0.742, 1.262e-5
-0.743, 1.263e-5
-0.744, 1.265e-5
-0.745, 1.265e-5
-0.746, 1.267e-5
-0.747, 1.272e-5
-0.748, 1.269e-5
-0.749, 1.270e-5
-0.750, 1.271e-5
-0.751, 1.271e-5
-0.752, 1.270e-5
-0.753, 1.272e-5
-0.754, 1.284e-5
-0.755, 1.282e-5
-0.756, 1.282e-5
-0.757, 1.280e-5
-0.758, 1.285e-5
-0.759, 1.282e-5
-0.760, 1.278e-5
-0.761, 1.279e-5
-0.762, 1.283e-5
-0.763, 1.283e-5
-0.764, 1.285e-5
-0.765, 1.284e-5
-0.766, 1.281e-5
-0.767, 1.277e-5
-0.768, 1.272e-5
-0.769, 1.267e-5
-0.770, 1.270e-5
-0.771, 1.275e-5
-0.772, 1.274e-5
-0.773, 1.273e-5
-0.774, 1.268e-5
-0.775, 1.269e-5
-0.776, 1.270e-5
-0.777, 1.268e-5
-0.778, 1.271e-5
-0.779, 1.271e-5
-0.780, 1.264e-5
-0.781, 1.265e-5
-0.782, 1.264e-5
-0.783, 1.261e-5
-0.784, 1.260e-5
-0.785, 1.261e-5
-0.786, 1.260e-5
-0.787, 1.258e-5
-0.788, 1.250e-5
-0.789, 1.245e-5
-0.790, 1.248e-5
-0.791, 1.251e-5
-0.792, 1.247e-5
-0.793, 1.248e-5
-0.794, 1.249e-5
-0.795, 1.251e-5
-0.796, 1.257e-5
-0.797, 1.250e-5
-0.798, 1.248e-5
-0.799, 1.249e-5
-0.800, 1.254e-5
-0.801, 1.258e-5
-0.802, 1.253e-5
-0.803, 1.256e-5
-0.804, 1.244e-5
-0.805, 1.239e-5
-0.806, 1.238e-5
-0.807, 1.236e-5
-0.808, 1.236e-5
-0.809, 1.238e-5
-0.810, 1.232e-5
-0.811, 1.227e-5
-0.812, 1.226e-5
-0.813, 1.224e-5
-0.814, 1.220e-5
-0.815, 1.219e-5
-0.816, 1.217e-5
-0.817, 1.218e-5
-0.818, 1.214e-5
-0.819, 1.214e-5
-0.820, 1.212e-5
-0.821, 1.210e-5
-0.822, 1.208e-5
-0.823, 1.205e-5
-0.824, 1.202e-5
-0.825, 1.202e-5
-0.826, 1.199e-5
-0.827, 1.199e-5
-0.828, 1.198e-5
-0.829, 1.200e-5
-0.830, 1.198e-5
-0.831, 1.194e-5
-0.832, 1.190e-5
-0.833, 1.188e-5
-0.834, 1.187e-5
-0.835, 1.182e-5
-0.836, 1.178e-5
-0.837, 1.175e-5
-0.838, 1.170e-5
-0.839, 1.167e-5
-0.840, 1.166e-5
-0.841, 1.172e-5
-0.842, 1.177e-5
-0.843, 1.178e-5
-0.844, 1.175e-5
-0.845, 1.169e-5
-0.846, 1.170e-5
-0.847, 1.171e-5
-0.848, 1.164e-5
-0.849, 1.161e-5
-0.850, 1.163e-5
-0.851, 1.162e-5
-0.852, 1.157e-5
-0.853, 1.158e-5
-0.854, 1.158e-5
-0.855, 1.154e-5
-0.856, 1.148e-5
-0.857, 1.140e-5
-0.858, 1.137e-5
-0.859, 1.137e-5
-0.860, 1.134e-5
-0.861, 1.135e-5
-0.862, 1.137e-5
-0.863, 1.134e-5
-0.864, 1.137e-5
-0.865, 1.138e-5
-0.866, 1.136e-5
-0.867, 1.135e-5
-0.868, 1.137e-5
-0.869, 1.132e-5
-0.870, 1.126e-5
-0.871, 1.128e-5
-0.872, 1.126e-5
-0.873, 1.122e-5
-0.874, 1.121e-5
-0.875, 1.112e-5
-0.876, 1.106e-5
-0.877, 1.103e-5
-0.878, 1.101e-5
-0.879, 1.105e-5
-0.880, 1.106e-5
-0.881, 1.106e-5
-0.882, 1.104e-5
-0.883, 1.102e-5
-0.884, 1.097e-5
-0.885, 1.096e-5
-0.886, 1.094e-5
-0.887, 1.088e-5
-0.888, 1.081e-5
-0.889, 1.082e-5
-0.890, 1.082e-5
-0.891, 1.088e-5
-0.892, 1.088e-5
-0.893, 1.080e-5
-0.894, 1.082e-5
-0.895, 1.083e-5
-0.896, 1.080e-5
-0.897, 1.073e-5
-0.898, 1.073e-5
-0.899, 1.077e-5
-0.900, 1.073e-5
-0.901, 1.069e-5
-0.902, 1.069e-5
-0.903, 1.067e-5
-0.904, 1.068e-5
-0.905, 1.066e-5
-0.906, 1.058e-5
-0.907, 1.055e-5
-0.908, 1.058e-5
-0.909, 1.061e-5
-0.910, 1.063e-5
-0.911, 1.065e-5
-0.912, 1.064e-5
-0.913, 1.059e-5
-0.914, 1.057e-5
-0.915, 1.060e-5
-0.916, 1.063e-5
-0.917, 1.063e-5
-0.918, 1.060e-5
-0.919, 1.059e-5
-0.920, 1.062e-5
-0.921, 1.061e-5
-0.922, 1.056e-5
-0.923, 1.051e-5
-0.924, 1.048e-5
-0.925, 1.050e-5
-0.926, 1.050e-5
-0.927, 1.049e-5
-0.928, 1.050e-5
-0.929, 1.050e-5
-0.930, 1.053e-5
-0.931, 1.058e-5
-0.932, 1.068e-5
-0.933, 1.070e-5
-0.934, 1.069e-5
-0.935, 1.069e-5
-0.936, 1.062e-5
-0.937, 1.061e-5
-0.938, 1.057e-5
-0.939, 1.053e-5
-0.940, 1.056e-5
-0.941, 1.052e-5
-0.942, 1.058e-5
-0.943, 1.066e-5
-0.944, 1.066e-5
-0.945, 1.065e-5
-0.946, 1.064e-5
-0.947, 1.064e-5
-0.948, 1.064e-5
-0.949, 1.069e-5
-0.950, 1.073e-5
-0.951, 1.072e-5
-0.952, 1.074e-5
-0.953, 1.077e-5
-0.954, 1.078e-5
-0.955, 1.078e-5
-0.956, 1.077e-5
-0.957, 1.074e-5
-0.958, 1.081e-5
-0.959, 1.083e-5
-0.960, 1.086e-5
-0.961, 1.086e-5
-0.962, 1.090e-5
-0.963, 1.094e-5
-0.964, 1.093e-5
-0.965, 1.093e-5
-0.966, 1.092e-5
-0.967, 1.094e-5
-0.968, 1.098e-5
-0.969, 1.099e-5
-0.970, 1.100e-5
-0.971, 1.102e-5
-0.972, 1.106e-5
-0.973, 1.111e-5
-0.974, 1.110e-5
-0.975, 1.117e-5
-0.976, 1.114e-5
-0.977, 1.116e-5
-0.978, 1.120e-5
-0.979, 1.120e-5
-0.980, 1.122e-5
-0.981, 1.127e-5
-0.982, 1.131e-5
-0.983, 1.131e-5
-0.984, 1.135e-5
-0.985, 1.139e-5
-0.986, 1.142e-5
-0.987, 1.145e-5
-0.988, 1.147e-5
-0.989, 1.149e-5
-0.990, 1.154e-5
-0.991, 1.157e-5
-0.992, 1.160e-5
-0.993, 1.165e-5
-0.994, 1.166e-5
-0.995, 1.170e-5
-0.996, 1.175e-5
-0.997, 1.179e-5
-0.998, 1.182e-5
-0.999, 1.186e-5
-1.000, 1.188e-5
-1.001, 1.191e-5
-1.002, 1.192e-5
-1.003, 1.199e-5
-1.004, 1.206e-5
-1.005, 1.209e-5
-1.006, 1.211e-5
-1.007, 1.212e-5
-1.008, 1.214e-5
-1.009, 1.216e-5
-1.010, 1.219e-5
-1.011, 1.224e-5
-1.012, 1.229e-5
-1.013, 1.235e-5
-1.014, 1.239e-5
-1.015, 1.243e-5
-1.016, 1.249e-5
-1.017, 1.253e-5
-1.018, 1.257e-5
-1.019, 1.261e-5
-1.020, 1.266e-5
-1.021, 1.269e-5
-1.022, 1.275e-5
-1.023, 1.277e-5
-1.024, 1.284e-5
-1.025, 1.284e-5
-1.026, 1.290e-5
-1.027, 1.293e-5
-1.028, 1.297e-5
-1.029, 1.297e-5
-1.030, 1.297e-5
-1.031, 1.303e-5
-1.032, 1.308e-5
-1.033, 1.315e-5
-1.034, 1.320e-5
-1.035, 1.328e-5
-1.036, 1.333e-5
-1.037, 1.338e-5
-1.038, 1.338e-5
-1.039, 1.341e-5
-1.040, 1.349e-5
-1.041, 1.352e-5
-1.042, 1.357e-5
-1.043, 1.363e-5
-1.044, 1.369e-5
-1.045, 1.378e-5
-1.046, 1.382e-5
-1.047, 1.381e-5
-1.048, 1.389e-5
-1.049, 1.393e-5
-1.050, 1.396e-5
-1.051, 1.402e-5
-1.052, 1.406e-5
-1.053, 1.411e-5
-1.054, 1.419e-5
-1.055, 1.424e-5
-1.056, 1.429e-5
-1.057, 1.433e-5
-1.058, 1.438e-5
-1.059, 1.444e-5
-1.060, 1.451e-5
-1.061, 1.455e-5
-1.062, 1.462e-5
-1.063, 1.470e-5
-1.064, 1.474e-5
-1.065, 1.482e-5
-1.066, 1.485e-5
-1.067, 1.492e-5
-1.068, 1.495e-5
-1.069, 1.501e-5
-1.070, 1.508e-5
-1.071, 1.514e-5
-1.072, 1.522e-5
-1.073, 1.528e-5
-1.074, 1.535e-5
-1.075, 1.544e-5
-1.076, 1.548e-5
-1.077, 1.553e-5
-1.078, 1.560e-5
-1.079, 1.570e-5
-1.080, 1.577e-5
-1.081, 1.586e-5
-1.082, 1.596e-5
-1.083, 1.601e-5
-1.084, 1.607e-5
-1.085, 1.614e-5
-1.086, 1.621e-5
-1.087, 1.630e-5
-1.088, 1.638e-5
-1.089, 1.645e-5
-1.090, 1.655e-5
-1.091, 1.662e-5
-1.092, 1.669e-5
-1.093, 1.679e-5
-1.094, 1.687e-5
-1.095, 1.695e-5
-1.096, 1.704e-5
-1.097, 1.711e-5
-1.098, 1.721e-5
-1.099, 1.731e-5
-1.100, 1.740e-5
-1.101, 1.751e-5
-1.102, 1.760e-5
-1.103, 1.768e-5
-1.104, 1.777e-5
-1.105, 1.788e-5
-1.106, 1.795e-5
-1.107, 1.805e-5
-1.108, 1.816e-5
-1.109, 1.825e-5
-1.110, 1.834e-5
-1.111, 1.844e-5
-1.112, 1.856e-5
-1.113, 1.866e-5
-1.114, 1.877e-5
-1.115, 1.889e-5
-1.116, 1.900e-5
-1.117, 1.910e-5
-1.118, 1.922e-5
-1.119, 1.931e-5
-1.120, 1.944e-5
-1.121, 1.955e-5
-1.122, 1.966e-5
-1.123, 1.978e-5
-1.124, 1.988e-5
-1.125, 2.000e-5
-1.126, 2.012e-5
-1.127, 2.023e-5
-1.128, 2.033e-5
-1.129, 2.044e-5
-1.130, 2.056e-5
-1.131, 2.066e-5
-1.132, 2.078e-5
-1.133, 2.091e-5
-1.134, 2.101e-5
-1.135, 2.113e-5
-1.136, 2.124e-5
-1.137, 2.133e-5
-1.138, 2.144e-5
-1.139, 2.154e-5
-1.140, 2.166e-5
-1.141, 2.177e-5
-1.142, 2.188e-5
-1.143, 2.201e-5
-1.144, 2.215e-5
-1.145, 2.226e-5
-1.146, 2.237e-5
-1.147, 2.249e-5
-1.148, 2.261e-5
-1.149, 2.273e-5
-1.150, 2.285e-5
-1.151, 2.295e-5
-1.152, 2.306e-5
-1.153, 2.317e-5
-1.154, 2.326e-5
-1.155, 2.338e-5
-1.156, 2.348e-5
-1.157, 2.355e-5
-1.158, 2.362e-5
-1.159, 2.371e-5
-1.160, 2.383e-5
-1.161, 2.389e-5
-1.162, 2.402e-5
-1.163, 2.412e-5
-1.164, 2.420e-5
-1.165, 2.429e-5
-1.166, 2.438e-5
-1.167, 2.446e-5
-1.168, 2.453e-5
-1.169, 2.462e-5
-1.170, 2.470e-5
-1.171, 2.482e-5
-1.172, 2.491e-5
-1.173, 2.498e-5
-1.174, 2.509e-5
-1.175, 2.519e-5
-1.176, 2.526e-5
-1.177, 2.535e-5
-1.178, 2.544e-5
-1.179, 2.555e-5
-1.180, 2.562e-5
-1.181, 2.570e-5
-1.182, 2.579e-5
-1.183, 2.588e-5
-1.184, 2.596e-5
-1.185, 2.607e-5
-1.186, 2.615e-5
-1.187, 2.622e-5
-1.188, 2.630e-5
-1.189, 2.638e-5
-1.190, 2.647e-5
-1.191, 2.658e-5
-1.192, 2.665e-5
-1.193, 2.674e-5
-1.194, 2.680e-5
-1.195, 2.687e-5
-1.196, 2.694e-5
-1.197, 2.700e-5
-1.198, 2.708e-5
-1.199, 2.718e-5
-1.200, 2.726e-5
-1.201, 2.731e-5
-1.202, 2.739e-5
-1.203, 2.746e-5
-1.204, 2.754e-5
-1.205, 2.762e-5
-1.206, 2.770e-5
-1.207, 2.778e-5
-1.208, 2.785e-5
-1.209, 2.790e-5
-1.210, 2.801e-5
-1.211, 2.807e-5
-1.212, 2.812e-5
-1.213, 2.821e-5
-1.214, 2.828e-5
-1.215, 2.837e-5
-1.216, 2.847e-5
-1.217, 2.857e-5
-1.218, 2.864e-5
-1.219, 2.868e-5
-1.220, 2.873e-5
-1.221, 2.878e-5
-1.222, 2.886e-5
-1.223, 2.893e-5
-1.224, 2.897e-5
-1.225, 2.902e-5
-1.226, 2.907e-5
-1.227, 2.913e-5
-1.228, 2.919e-5
-1.229, 2.927e-5
-1.230, 2.932e-5
-1.231, 2.939e-5
-1.232, 2.949e-5
-1.233, 2.953e-5
-1.234, 2.959e-5
-1.235, 2.968e-5
-1.236, 2.976e-5
-1.237, 2.984e-5
-1.238, 2.991e-5
-1.239, 2.997e-5
-1.240, 3.002e-5
-1.241, 3.009e-5
-1.242, 3.015e-5
-1.243, 3.022e-5
-1.244, 3.032e-5
-1.245, 3.041e-5
-1.246, 3.049e-5
-1.247, 3.054e-5
-1.248, 3.063e-5
-1.249, 3.069e-5
-1.250, 3.078e-5
-1.251, 3.085e-5
-1.252, 3.091e-5
-1.253, 3.094e-5
-1.254, 3.100e-5
-1.255, 3.108e-5
-1.256, 3.113e-5
-1.257, 3.119e-5
-1.258, 3.124e-5
-1.259, 3.130e-5
-1.260, 3.137e-5
-1.261, 3.145e-5
-1.262, 3.153e-5
-1.263, 3.163e-5
-1.264, 3.173e-5
-1.265, 3.182e-5
-1.266, 3.192e-5
-1.267, 3.197e-5
-1.268, 3.204e-5
-1.269, 3.213e-5
-1.270, 3.225e-5
-1.271, 3.236e-5
-1.272, 3.244e-5
-1.273, 3.254e-5
-1.274, 3.264e-5
-1.275, 3.274e-5
-1.276, 3.283e-5
-1.277, 3.295e-5
-1.278, 3.306e-5
-1.279, 3.317e-5
-1.280, 3.328e-5
-1.281, 3.338e-5
-1.282, 3.351e-5
-1.283, 3.365e-5
-1.284, 3.376e-5
-1.285, 3.387e-5
-1.286, 3.397e-5
-1.287, 3.408e-5
-1.288, 3.418e-5
-1.289, 3.426e-5
-1.290, 3.437e-5
-1.291, 3.446e-5
-1.292, 3.455e-5
-1.293, 3.465e-5
-1.294, 3.473e-5
-1.295, 3.485e-5
-1.296, 3.492e-5
-1.297, 3.499e-5
-1.298, 3.507e-5
-1.299, 3.518e-5
-1.300, 3.530e-5
-1.301, 3.537e-5
-1.302, 3.544e-5
-1.303, 3.553e-5
-1.304, 3.563e-5
-1.305, 3.573e-5
-1.306, 3.579e-5
-1.307, 3.585e-5
-1.308, 3.591e-5
-1.309, 3.597e-5
-1.310, 3.607e-5
-1.311, 3.612e-5
-1.312, 3.620e-5
-1.313, 3.629e-5
-1.314, 3.636e-5
-1.315, 3.643e-5
-1.316, 3.652e-5
-1.317, 3.658e-5
-1.318, 3.667e-5
-1.319, 3.677e-5
-1.320, 3.689e-5
-1.321, 3.697e-5
-1.322, 3.703e-5
-1.323, 3.707e-5
-1.324, 3.714e-5
-1.325, 3.719e-5
-1.326, 3.724e-5
-1.327, 3.732e-5
-1.328, 3.742e-5
-1.329, 3.749e-5
-1.330, 3.757e-5
-1.331, 3.763e-5
-1.332, 3.769e-5
-1.333, 3.774e-5
-1.334, 3.781e-5
-1.335, 3.787e-5
-1.336, 3.797e-5
-1.337, 3.805e-5
-1.338, 3.810e-5
-1.339, 3.820e-5
-1.340, 3.830e-5
-1.341, 3.839e-5
-1.342, 3.848e-5
-1.343, 3.856e-5
-1.344, 3.864e-5
-1.345, 3.872e-5
-1.346, 3.878e-5
-1.347, 3.887e-5
-1.348, 3.904e-5
-1.349, 3.924e-5
-1.350, 3.931e-5
-1.351, 3.937e-5
-1.352, 3.939e-5
-1.353, 3.943e-5
-1.354, 3.949e-5
-1.355, 3.958e-5
-1.356, 3.966e-5
-1.357, 3.974e-5
-1.358, 3.986e-5
-1.359, 3.992e-5
-1.360, 4.000e-5
-1.361, 4.011e-5
-1.362, 4.024e-5
-1.363, 4.038e-5
-1.364, 4.049e-5
-1.365, 4.060e-5
-1.366, 4.068e-5
-1.367, 4.078e-5
-1.368, 4.090e-5
-1.369, 4.103e-5
-1.370, 4.116e-5
-1.371, 4.127e-5
-1.372, 4.138e-5
-1.373, 4.149e-5
-1.374, 4.160e-5
-1.375, 4.172e-5
-1.376, 4.185e-5
-1.377, 4.196e-5
-1.378, 4.209e-5
-1.379, 4.225e-5
-1.380, 4.242e-5
-1.381, 4.256e-5
-1.382, 4.268e-5
-1.383, 4.282e-5
-1.384, 4.299e-5
-1.385, 4.315e-5
-1.386, 4.329e-5
-1.387, 4.344e-5
-1.388, 4.356e-5
-1.389, 4.367e-5
-1.390, 4.380e-5
-1.391, 4.393e-5
-1.392, 4.409e-5
-1.393, 4.418e-5
-1.394, 4.428e-5
-1.395, 4.439e-5
-1.396, 4.451e-5
-1.397, 4.462e-5
-1.398, 4.472e-5
-1.399, 4.483e-5
-1.400, 4.498e-5
-1.401, 4.510e-5
-1.402, 4.518e-5
-1.403, 4.531e-5
-1.404, 4.544e-5
-1.405, 4.559e-5
-1.406, 4.573e-5
-1.407, 4.588e-5
-1.408, 4.604e-5
-1.409, 4.620e-5
-1.410, 4.635e-5
-1.411, 4.647e-5
-1.412, 4.661e-5
-1.413, 4.673e-5
-1.414, 4.686e-5
-1.415, 4.701e-5
-1.416, 4.713e-5
-1.417, 4.726e-5
-1.418, 4.741e-5
-1.419, 4.758e-5
-1.420, 4.776e-5
-1.421, 4.791e-5
-1.422, 4.806e-5
-1.423, 4.818e-5
-1.424, 4.832e-5
-1.425, 4.848e-5
-1.426, 4.863e-5
-1.427, 4.878e-5
-1.428, 4.893e-5
-1.429, 4.910e-5
-1.430, 4.928e-5
-1.431, 4.944e-5
-1.432, 4.959e-5
-1.433, 4.976e-5
-1.434, 4.993e-5
-1.435, 5.012e-5
-1.436, 5.030e-5
-1.437, 5.049e-5
-1.438, 5.064e-5
-1.439, 5.086e-5
-1.440, 5.111e-5
-1.441, 5.136e-5
-1.442, 5.151e-5
-1.443, 5.162e-5
-1.444, 5.179e-5
-1.445, 5.201e-5
-1.446, 5.221e-5
-1.447, 5.243e-5
-1.448, 5.259e-5
-1.449, 5.279e-5
-1.450, 5.295e-5
-1.451, 5.311e-5
-1.452, 5.327e-5
-1.453, 5.344e-5
-1.454, 5.368e-5
-1.455, 5.390e-5
-1.456, 5.418e-5
-1.457, 5.437e-5
-1.458, 5.459e-5
-1.459, 5.477e-5
-1.460, 5.496e-5
-1.461, 5.514e-5
-1.462, 5.532e-5
-1.463, 5.549e-5
-1.464, 5.569e-5
-1.465, 5.591e-5
-1.466, 5.613e-5
-1.467, 5.636e-5
-1.468, 5.656e-5
-1.469, 5.684e-5
-1.470, 5.714e-5
-1.471, 5.736e-5
-1.472, 5.763e-5
-1.473, 5.783e-5
-1.474, 5.805e-5
-1.475, 5.831e-5
-1.476, 5.855e-5
-1.477, 5.874e-5
-1.478, 5.899e-5
-1.479, 5.922e-5
-1.480, 5.943e-5
-1.481, 5.976e-5
-1.482, 6.010e-5
-1.483, 6.031e-5
-1.484, 6.047e-5
-1.485, 6.068e-5
-1.486, 6.090e-5
-1.487, 6.117e-5
-1.488, 6.140e-5
-1.489, 6.167e-5
-1.490, 6.192e-5
-1.491, 6.216e-5
-1.492, 6.244e-5
-1.493, 6.273e-5
-1.494, 6.298e-5
-1.495, 6.326e-5
-1.496, 6.356e-5
-1.497, 6.384e-5
-1.498, 6.409e-5
-1.499, 6.440e-5
-1.500, 6.475e-5
-1.501, 6.502e-5
-1.502, 6.527e-5
-1.503, 6.559e-5
-1.504, 6.587e-5
-1.505, 6.617e-5
-1.506, 6.643e-5
-1.507, 6.676e-5
-1.508, 6.708e-5
-1.509, 6.739e-5
-1.510, 6.771e-5
-1.511, 6.803e-5
-1.512, 6.834e-5
-1.513, 6.861e-5
-1.514, 6.895e-5
-1.515, 6.933e-5
-1.516, 6.969e-5
-1.517, 6.998e-5
-1.518, 7.034e-5
-1.519, 7.069e-5
-1.520, 7.108e-5
-1.521, 7.145e-5
-1.522, 7.181e-5
-1.523, 7.221e-5
-1.524, 7.254e-5
-1.525, 7.295e-5
-1.526, 7.333e-5
-1.527, 7.374e-5
-1.528, 7.411e-5
-1.529, 7.450e-5
-1.530, 7.496e-5
-1.531, 7.535e-5
-1.532, 7.577e-5
-1.533, 7.620e-5
-1.534, 7.664e-5
-1.535, 7.704e-5
-1.536, 7.740e-5
-1.537, 7.783e-5
-1.538, 7.825e-5
-1.539, 7.867e-5
-1.540, 7.913e-5
-1.541, 7.960e-5
-1.542, 8.003e-5
-1.543, 8.047e-5
-1.544, 8.097e-5
-1.545, 8.146e-5
-1.546, 8.195e-5
-1.547, 8.240e-5
-1.548, 8.289e-5
-1.549, 8.338e-5
-1.550, 8.391e-5
-1.551, 8.449e-5
-1.552, 8.498e-5
-1.553, 8.549e-5
-1.554, 8.600e-5
-1.555, 8.656e-5
-1.556, 8.712e-5
-1.557, 8.765e-5
-1.558, 8.821e-5
-1.559, 8.870e-5
-1.560, 8.933e-5
-1.561, 9.018e-5
-1.562, 9.074e-5
-1.563, 9.125e-5
-1.564, 9.187e-5
-1.565, 9.250e-5
-1.566, 9.312e-5
-1.567, 9.372e-5
-1.568, 9.436e-5
-1.569, 9.501e-5
-1.570, 9.567e-5
-1.571, 9.635e-5
-1.572, 9.703e-5
-1.573, 9.769e-5
-1.574, 9.838e-5
-1.575, 9.910e-5
-1.576, 9.981e-5
-1.577, 1.005e-4
-1.578, 1.013e-4
-1.579, 1.020e-4
-1.580, 1.028e-4
-1.581, 1.035e-4
-1.582, 1.044e-4
-1.583, 1.051e-4
-1.584, 1.060e-4
-1.585, 1.068e-4
-1.586, 1.076e-4
-1.587, 1.084e-4
-1.588, 1.093e-4
-1.589, 1.101e-4
-1.590, 1.109e-4
-1.591, 1.117e-4
-1.592, 1.126e-4
-1.593, 1.135e-4
-1.594, 1.144e-4
-1.595, 1.153e-4
-1.596, 1.162e-4
-1.597, 1.172e-4
-1.598, 1.181e-4
-1.599, 1.190e-4
-1.600, 1.200e-4
-1.601, 1.210e-4
-1.602, 1.219e-4
-1.603, 1.229e-4
-1.604, 1.239e-4
-1.605, 1.250e-4
-1.606, 1.261e-4
-1.607, 1.272e-4
-1.608, 1.284e-4
-1.609, 1.295e-4
-1.610, 1.305e-4
-1.611, 1.316e-4
-1.612, 1.328e-4
-1.613, 1.339e-4
-1.614, 1.350e-4
-1.615, 1.362e-4
-1.616, 1.373e-4
-1.617, 1.385e-4
-1.618, 1.397e-4
-1.619, 1.409e-4
-1.620, 1.421e-4
-1.621, 1.433e-4
-1.622, 1.444e-4
-1.623, 1.456e-4
-1.624, 1.469e-4
-1.625, 1.482e-4
-1.626, 1.496e-4
-1.627, 1.509e-4
-1.628, 1.523e-4
-1.629, 1.537e-4
-1.630, 1.551e-4
-1.631, 1.565e-4
-1.632, 1.578e-4
-1.633, 1.593e-4
-1.634, 1.607e-4
-1.635, 1.622e-4
-1.636, 1.637e-4
-1.637, 1.652e-4
-1.638, 1.668e-4
-1.639, 1.683e-4
-1.640, 1.700e-4
-1.641, 1.715e-4
-1.642, 1.731e-4
-1.643, 1.748e-4
-1.644, 1.765e-4
-1.645, 1.781e-4
-1.646, 1.798e-4
-1.647, 1.815e-4
-1.648, 1.832e-4
-1.649, 1.850e-4
-1.650, 1.868e-4
-1.651, 1.886e-4
-1.652, 1.903e-4
-1.653, 1.921e-4
-1.654, 1.940e-4
-1.655, 1.959e-4
-1.656, 1.978e-4
-1.657, 1.997e-4
-1.658, 2.017e-4
-1.659, 2.037e-4
-1.660, 2.058e-4
-1.661, 2.079e-4
-1.662, 2.098e-4
-1.663, 2.118e-4
-1.664, 2.139e-4
-1.665, 2.160e-4
-1.666, 2.182e-4
-1.667, 2.205e-4
-1.668, 2.227e-4
-1.669, 2.248e-4
-1.670, 2.270e-4
-1.671, 2.292e-4
-1.672, 2.315e-4
-1.673, 2.338e-4
-1.674, 2.361e-4
-1.675, 2.385e-4
-1.676, 2.408e-4
-1.677, 2.432e-4
-1.678, 2.456e-4
-1.679, 2.481e-4
-1.680, 2.506e-4
-1.681, 2.532e-4
-1.682, 2.557e-4
-1.683, 2.582e-4
-1.684, 2.609e-4
-1.685, 2.636e-4
-1.686, 2.664e-4
-1.687, 2.692e-4
-1.688, 2.719e-4
-1.689, 2.748e-4
-1.690, 2.777e-4
-1.691, 2.805e-4
-1.692, 2.835e-4
-1.693, 2.864e-4
-1.694, 2.893e-4
-1.695, 2.922e-4
-1.696, 2.952e-4
-1.697, 2.981e-4
-1.698, 3.012e-4
-1.699, 3.044e-4
-1.700, 3.076e-4
-1.701, 3.108e-4
-1.702, 3.140e-4
-1.703, 3.173e-4
-1.704, 3.205e-4
-1.705, 3.239e-4
-1.706, 3.272e-4
-1.707, 3.306e-4
-1.708, 3.340e-4
-1.709, 3.375e-4
-1.710, 3.411e-4
-1.711, 3.446e-4
-1.712, 3.481e-4
-1.713, 3.518e-4
-1.714, 3.554e-4
-1.715, 3.592e-4
-1.716, 3.630e-4
-1.717, 3.669e-4
-1.718, 3.708e-4
-1.719, 3.747e-4
-1.720, 3.786e-4
-1.721, 3.827e-4
-1.722, 3.867e-4
-1.723, 3.907e-4
-1.724, 3.948e-4
-1.725, 3.989e-4
-1.726, 4.031e-4
-1.727, 4.073e-4
-1.728, 4.115e-4
-1.729, 4.158e-4
-1.730, 4.204e-4
-1.731, 4.248e-4
-1.732, 4.291e-4
-1.733, 4.336e-4
-1.734, 4.381e-4
-1.735, 4.425e-4
-1.736, 4.470e-4
-1.737, 4.516e-4
-1.738, 4.563e-4
-1.739, 4.609e-4
-1.740, 4.656e-4
-1.741, 4.704e-4
-1.742, 4.753e-4
-1.743, 4.801e-4
-1.744, 4.850e-4
-1.745, 4.899e-4
-1.746, 4.948e-4
-1.747, 4.998e-4
-1.748, 5.051e-4
-1.749, 5.103e-4
-1.750, 5.154e-4
-1.751, 5.205e-4
-1.752, 5.257e-4
-1.753, 5.308e-4
-1.754, 5.361e-4
-1.755, 5.414e-4
-1.756, 5.468e-4
-1.757, 5.522e-4
-1.758, 5.577e-4
-1.759, 5.633e-4
-1.760, 5.688e-4
-1.761, 5.744e-4
-1.762, 5.799e-4
-1.763, 5.856e-4
-1.764, 5.912e-4
-1.765, 5.971e-4
-1.766, 6.029e-4
-1.767, 6.087e-4
-1.768, 6.144e-4
-1.769, 6.203e-4
-1.770, 6.262e-4
-1.771, 6.322e-4
-1.772, 6.383e-4
-1.773, 6.445e-4
-1.774, 6.506e-4
-1.775, 6.569e-4
-1.776, 6.632e-4
-1.777, 6.694e-4
-1.778, 6.758e-4
-1.779, 6.823e-4
-1.780, 6.888e-4
-1.781, 6.954e-4
-1.782, 7.019e-4
-1.783, 7.085e-4
-1.784, 7.151e-4
-1.785, 7.221e-4
-1.786, 7.289e-4
-1.787, 7.358e-4
-1.788, 7.427e-4
-1.789, 7.496e-4
-1.790, 7.567e-4
-1.791, 7.638e-4
-1.792, 7.708e-4
-1.793, 7.780e-4
-1.794, 7.852e-4
-1.795, 7.925e-4
-1.796, 7.999e-4
-1.797, 8.072e-4
-1.798, 8.145e-4
-1.799, 8.220e-4
-1.800, 8.296e-4
-1.801, 8.372e-4
-1.802, 8.450e-4
-1.803, 8.528e-4
-1.804, 8.605e-4
-1.805, 8.682e-4
-1.806, 8.761e-4
-1.807, 8.839e-4
-1.808, 8.919e-4
-1.809, 8.998e-4
-1.810, 9.078e-4
-1.811, 9.159e-4
-1.812, 9.241e-4
-1.813, 9.322e-4
-1.814, 9.404e-4
-1.815, 9.488e-4
-1.816, 9.571e-4
-1.817, 9.653e-4
-1.818, 9.738e-4
-1.819, 9.825e-4
-1.820, 9.912e-4
-1.821, 9.998e-4
-1.822, 1.008e-3
-1.823, 1.011e-3
-1.824, 1.011e-3
-1.825, 1.011e-3
-1.826, 1.011e-3
-1.827, 1.011e-3
-1.828, 1.011e-3
-1.829, 1.011e-3
-1.830, 1.011e-3
-1.831, 1.011e-3
-1.832, 1.011e-3
-1.833, 1.011e-3
-1.834, 1.011e-3
-1.835, 1.011e-3
-1.836, 1.011e-3
-1.837, 1.011e-3
-1.838, 1.011e-3
-1.839, 1.011e-3
-1.840, 1.011e-3
-1.841, 1.011e-3
-1.842, 1.011e-3
-1.843, 1.011e-3
-1.844, 1.011e-3
-1.845, 1.011e-3
-1.846, 1.011e-3
-1.847, 1.011e-3
-1.848, 1.011e-3
-1.849, 1.011e-3
-1.850, 1.011e-3
-1.851, 1.011e-3
-1.852, 1.011e-3
-1.853, 1.011e-3
-1.854, 1.011e-3
-1.855, 1.011e-3
-1.856, 1.011e-3
-1.857, 1.011e-3
-1.858, 1.011e-3
-1.859, 1.011e-3
-1.860, 1.011e-3
-1.861, 1.011e-3
-1.862, 1.011e-3
-1.863, 1.011e-3
-1.864, 1.011e-3
-1.865, 1.011e-3
-1.866, 1.011e-3
-1.867, 1.011e-3
-1.868, 1.011e-3
-1.869, 1.011e-3
-1.870, 1.011e-3
-1.871, 1.011e-3
-1.872, 1.011e-3
-1.873, 1.011e-3
-1.874, 1.011e-3
-1.875, 1.011e-3
-1.876, 1.011e-3
-1.877, 1.011e-3
-1.878, 1.011e-3
-1.879, 1.011e-3
-1.880, 1.011e-3
-1.881, 1.011e-3
-1.882, 1.011e-3
-1.883, 1.011e-3
-1.884, 1.011e-3
-1.885, 1.011e-3
-1.886, 1.011e-3
-1.887, 1.011e-3
-1.888, 1.011e-3
-1.889, 1.011e-3
-1.890, 1.011e-3
-1.891, 1.011e-3
-1.892, 1.011e-3
-1.893, 1.011e-3
-1.894, 1.011e-3
-1.895, 1.011e-3
-1.896, 1.011e-3
-1.897, 1.011e-3
-1.898, 1.011e-3
-1.899, 1.011e-3
-1.900, 1.011e-3
-1.901, 1.011e-3
-1.902, 1.011e-3
-1.903, 1.011e-3
-1.904, 1.011e-3
-1.905, 1.011e-3
-1.906, 1.011e-3
-1.907, 1.011e-3
-1.908, 1.011e-3
-1.909, 1.011e-3
-1.910, 1.011e-3
-1.911, 1.011e-3
-1.912, 1.011e-3
-1.913, 1.011e-3
-1.914, 1.011e-3
-1.915, 1.011e-3
-1.916, 1.011e-3
-1.917, 1.011e-3
-1.918, 1.011e-3
-1.919, 1.011e-3
-1.920, 1.011e-3
-1.921, 1.011e-3
-1.922, 1.011e-3
-1.923, 1.011e-3
-1.924, 1.011e-3
-1.925, 1.011e-3
-1.926, 1.011e-3
-1.927, 1.011e-3
-1.928, 1.011e-3
-1.929, 1.011e-3
-1.930, 1.011e-3
-1.931, 1.011e-3
-1.932, 1.011e-3
-1.933, 1.011e-3
-1.934, 1.011e-3
-1.935, 1.011e-3
-1.936, 1.011e-3
-1.937, 1.011e-3
-1.938, 1.011e-3
-1.939, 1.011e-3
-1.940, 1.011e-3
-1.941, 1.011e-3
-1.942, 1.011e-3
-1.943, 1.011e-3
-1.944, 1.011e-3
-1.945, 1.011e-3
-1.946, 1.011e-3
-1.947, 1.011e-3
-1.948, 1.011e-3
-1.949, 1.011e-3
-1.950, 1.011e-3
-1.951, 1.011e-3
-1.952, 1.011e-3
-1.953, 1.011e-3
-1.954, 1.011e-3
-1.955, 1.011e-3
-1.956, 1.011e-3
-1.957, 1.011e-3
-1.958, 1.011e-3
-1.959, 1.011e-3
-1.960, 1.011e-3
-1.961, 1.011e-3
-1.962, 1.011e-3
-1.963, 1.011e-3
-1.964, 1.011e-3
-1.965, 1.011e-3
-1.966, 1.011e-3
-1.967, 1.011e-3
-1.968, 1.011e-3
-1.969, 1.011e-3
-1.970, 1.011e-3
-1.971, 1.011e-3
-1.972, 1.011e-3
-1.973, 1.011e-3
-1.974, 1.011e-3
-1.975, 1.011e-3
-1.976, 1.011e-3
-1.977, 1.011e-3
-1.978, 1.011e-3
-1.979, 1.011e-3
-1.980, 1.011e-3
-1.981, 1.011e-3
-1.982, 1.011e-3
-1.983, 1.011e-3
-1.984, 1.011e-3
-1.985, 1.011e-3
-1.986, 1.011e-3
-1.987, 1.011e-3
-1.988, 1.011e-3
-1.989, 1.011e-3
-1.990, 1.011e-3
-1.991, 1.011e-3
-1.992, 1.011e-3
-1.993, 1.011e-3
-1.994, 1.011e-3
-1.995, 1.011e-3
-1.996, 1.011e-3
-1.997, 1.011e-3
-1.998, 1.011e-3
-1.999, 1.011e-3
-2.000, 1.011e-3
-2.001, 1.011e-3
-2.002, 1.011e-3
-2.003, 1.011e-3
-2.004, 1.011e-3
-2.005, 1.011e-3
-2.006, 1.011e-3
-2.007, 1.011e-3
-2.008, 1.011e-3
-2.009, 1.011e-3
-2.010, 1.011e-3
-2.011, 1.011e-3
-2.012, 1.011e-3
-2.013, 1.011e-3
-2.014, 1.011e-3
-2.015, 1.011e-3
-2.016, 1.011e-3
-2.017, 1.011e-3
-2.018, 1.011e-3
-2.019, 1.011e-3
-2.020, 1.011e-3
-2.021, 1.011e-3
-2.022, 1.011e-3
-2.023, 1.011e-3
-2.024, 1.011e-3
-2.025, 1.011e-3
-2.026, 1.011e-3
-2.027, 1.011e-3
-2.028, 1.011e-3
-2.029, 1.011e-3
-2.030, 1.011e-3
-2.031, 1.011e-3
-2.032, 1.011e-3
-2.033, 1.011e-3
-2.034, 1.011e-3
-2.035, 1.011e-3
-2.036, 1.011e-3
-2.037, 1.011e-3
-2.038, 1.011e-3
-2.039, 1.011e-3
-2.040, 1.011e-3
-2.041, 1.011e-3
-2.042, 1.011e-3
-2.043, 1.011e-3
-2.044, 1.011e-3
-2.045, 1.011e-3
-2.046, 1.011e-3
-2.047, 1.011e-3
-2.048, 1.011e-3
-2.049, 1.011e-3
-2.050, 1.011e-3
-2.051, 1.011e-3
-2.052, 1.011e-3
-2.053, 1.011e-3
-2.054, 1.011e-3
-2.055, 1.011e-3
-2.056, 1.011e-3
-2.057, 1.011e-3
-2.058, 1.011e-3
-2.059, 1.011e-3
-2.060, 1.011e-3
-2.061, 1.011e-3
-2.062, 1.011e-3
-2.063, 1.011e-3
-2.064, 1.011e-3
-2.065, 1.011e-3
-2.066, 1.011e-3
-2.067, 1.011e-3
-2.068, 1.011e-3
-2.069, 1.011e-3
-2.070, 1.011e-3
-2.071, 1.011e-3
-2.072, 1.011e-3
-2.073, 1.011e-3
-2.074, 1.011e-3
-2.075, 1.011e-3
-2.076, 1.011e-3
-2.077, 1.011e-3
-2.078, 1.011e-3
-2.079, 1.011e-3
-2.080, 1.011e-3
-2.081, 1.011e-3
-2.082, 1.011e-3
-2.083, 1.011e-3
-2.084, 1.011e-3
-2.085, 1.011e-3
-2.086, 1.011e-3
-2.087, 1.011e-3
-2.088, 1.011e-3
-2.089, 1.011e-3
-2.090, 1.011e-3
-2.091, 1.011e-3
-2.092, 1.011e-3
-2.093, 1.011e-3
-2.094, 1.011e-3
-2.095, 1.011e-3
-2.096, 1.011e-3
-2.097, 1.011e-3
-2.098, 1.011e-3
-2.099, 1.011e-3
-2.100, 1.011e-3
-2.101, 1.011e-3
-2.102, 1.011e-3
-2.103, 1.011e-3
-2.104, 1.011e-3
-2.105, 1.011e-3
-2.106, 1.011e-3
-2.107, 1.011e-3
-2.108, 1.011e-3
-2.109, 1.011e-3
-2.110, 1.011e-3
-2.111, 1.011e-3
-2.112, 1.011e-3
-2.113, 1.011e-3
-2.114, 1.011e-3
-2.115, 1.011e-3
-2.116, 1.011e-3
-2.117, 1.011e-3
-2.118, 1.011e-3
-2.119, 1.011e-3
-2.120, 1.011e-3
-2.121, 1.011e-3
-2.122, 1.011e-3
-2.123, 1.011e-3
-2.124, 1.011e-3
-2.125, 1.011e-3
-2.126, 1.011e-3
-2.127, 1.011e-3
-2.128, 1.011e-3
-2.129, 1.011e-3
-2.130, 1.011e-3
-2.131, 1.011e-3
-2.132, 1.011e-3
-2.133, 1.011e-3
-2.134, 1.011e-3
-2.135, 1.011e-3
-2.136, 1.011e-3
-2.137, 1.011e-3
-2.138, 1.011e-3
-2.139, 1.011e-3
-2.140, 1.011e-3
-2.141, 1.011e-3
-2.142, 1.011e-3
-2.143, 1.011e-3
-2.144, 1.011e-3
-2.145, 1.011e-3
-2.146, 1.011e-3
-2.147, 1.011e-3
-2.148, 1.011e-3
-2.149, 1.011e-3
-2.150, 1.011e-3
-2.151, 1.011e-3
-2.152, 1.011e-3
-2.153, 1.011e-3
-2.154, 1.011e-3
-2.155, 1.011e-3
-2.156, 1.011e-3
-2.157, 1.011e-3
-2.158, 1.011e-3
-2.159, 1.011e-3
-2.160, 1.011e-3
-2.161, 1.011e-3
-2.162, 1.011e-3
-2.163, 1.011e-3
-2.164, 1.011e-3
-2.165, 1.011e-3
-2.166, 1.011e-3
-2.167, 1.011e-3
-2.168, 1.011e-3
-2.169, 1.011e-3
-2.170, 1.011e-3
-2.171, 1.011e-3
-2.172, 1.011e-3
-2.173, 1.011e-3
-2.174, 1.011e-3
-2.175, 1.011e-3
-2.176, 1.011e-3
-2.177, 1.011e-3
-2.178, 1.011e-3
-2.179, 1.011e-3
-2.180, 1.011e-3
-2.181, 1.011e-3
-2.182, 1.011e-3
-2.183, 1.011e-3
-2.184, 1.011e-3
-2.185, 1.011e-3
-2.186, 1.011e-3
-2.187, 1.011e-3
-2.188, 1.011e-3
-2.189, 1.011e-3
-2.190, 1.011e-3
-2.191, 1.011e-3
-2.192, 1.011e-3
-2.193, 1.011e-3
-2.194, 1.011e-3
-2.195, 1.011e-3
-2.196, 1.011e-3
-2.197, 1.011e-3
-2.198, 1.011e-3
-2.199, 1.011e-3
-2.200, 1.011e-3
-2.201, 1.011e-3
-2.202, 1.011e-3
-2.203, 1.011e-3
-2.204, 1.011e-3
-2.205, 1.011e-3
-2.206, 1.011e-3
-2.207, 1.011e-3
-2.208, 1.011e-3
-2.209, 1.011e-3
-2.210, 1.011e-3
-2.211, 1.011e-3
-2.212, 1.011e-3
-2.213, 1.011e-3
-2.214, 1.011e-3
-2.215, 1.011e-3
-2.216, 1.011e-3
-2.217, 1.011e-3
-2.218, 1.011e-3
-2.219, 1.011e-3
-2.220, 1.011e-3
-2.221, 1.011e-3
-2.222, 1.011e-3
-2.223, 1.011e-3
-2.224, 1.011e-3
-2.225, 1.011e-3
-2.226, 1.011e-3
-2.227, 1.011e-3
-2.228, 1.011e-3
-2.229, 1.011e-3
-2.230, 1.011e-3
-2.231, 1.011e-3
-2.232, 1.011e-3
-2.233, 1.011e-3
-2.234, 1.011e-3
-2.235, 1.011e-3
-2.236, 1.011e-3
-2.237, 1.011e-3
-2.238, 1.011e-3
-2.239, 1.011e-3
-2.240, 1.011e-3
-2.241, 1.011e-3
-2.242, 1.011e-3
-2.243, 1.011e-3
-2.244, 1.011e-3
-2.245, 1.011e-3
-2.246, 1.011e-3
-2.247, 1.011e-3
-2.248, 1.011e-3
-2.249, 1.011e-3
-2.250, 1.011e-3
-2.251, 1.011e-3
-2.252, 1.011e-3
-2.253, 1.011e-3
-2.254, 1.011e-3
-2.255, 1.011e-3
-2.256, 1.011e-3
-2.257, 1.011e-3
-2.258, 1.011e-3
-2.259, 1.011e-3
-2.260, 1.011e-3
-2.261, 1.011e-3
-2.262, 1.011e-3
-2.263, 1.011e-3
-2.264, 1.011e-3
-2.265, 1.011e-3
-2.266, 1.011e-3
-2.267, 1.011e-3
-2.268, 1.011e-3
-2.269, 1.011e-3
-2.270, 1.011e-3
-2.271, 1.011e-3
-2.272, 1.011e-3
-2.273, 1.011e-3
-2.274, 1.011e-3
-2.275, 1.011e-3
-2.276, 1.011e-3
-2.277, 1.011e-3
-2.278, 1.011e-3
-2.279, 1.011e-3
-2.280, 1.011e-3
-2.281, 1.011e-3
-2.282, 1.011e-3
-2.283, 1.011e-3
-2.284, 1.011e-3
-2.285, 1.011e-3
-2.286, 1.011e-3
-2.287, 1.011e-3
-2.288, 1.011e-3
-2.289, 1.011e-3
-2.290, 1.011e-3
-2.291, 1.011e-3
-2.292, 1.011e-3
-2.293, 1.011e-3
-2.294, 1.011e-3
-2.295, 1.011e-3
-2.296, 1.011e-3
-2.297, 1.011e-3
-2.298, 1.011e-3
-2.299, 1.011e-3
