Potential V vs RHE, Current mA cm-2
0.013299999999999867,-0.3511313446265021
0.012299999999999978,-2.052746096104168
0.011299999999999866,-3.317497998183511
0.010299999999999976,-4.3205283097878215
0.009299999999999864,-5.149549131508733
0.008299999999999974,-5.759289701750564
0.007299999999999862,-6.238876832404812
0.006299999999999972,-6.632166573767292
0.00529999999999986,-6.893888164242324
0.0042999999999999705,-7.155609754717355
0.0032999999999998586,-7.243321855308987
0.0022999999999999687,-7.28576319430494
0.0012999999999998568,-7.329619244600755
0.00029999999999996696,-7.28576319430494
-0.000700000000000145,-7.37347529489657
-0.0017000000000000348,-7.4173313451923875
-0.0027000000000001467,-7.50504344578402
-0.0037000000000000366,-7.635196885371603
-0.0047000000000001485,-7.722908985963235
-0.005700000000000038,-7.809206375255003
-0.00670000000000015,-7.940774526142452
-0.00770000000000004,-7.984630576438266
-0.008700000000000152,-8.070927965730034
-0.009700000000000042,-7.984630576438266
-0.010700000000000154,-7.940774526142452
-0.011700000000000044,-7.896918475846635
-0.012700000000000156,-7.853062425550818
-0.013700000000000045,-7.809206375255003
-0.014700000000000157,-7.809206375255003
-0.015700000000000047,-7.7653503249591855
-0.01670000000000016,-7.896918475846635
-0.01770000000000005,-7.984630576438266
-0.01870000000000016,-8.070927965730034
-0.01970000000000005,-8.158640066321666
-0.020700000000000163,-8.158640066321666
-0.021700000000000053,-8.202496116617484
-0.022700000000000164,-8.202496116617484
-0.023700000000000054,-8.158640066321666
-0.024700000000000166,-8.070927965730034
-0.025700000000000056,-8.027071915434218
-0.026700000000000168,-7.896918475846635
-0.027700000000000058,-7.984630576438266
-0.02870000000000017,-7.940774526142452
-0.02970000000000006,-7.984630576438266
-0.03070000000000017,-8.11478401602585
-0.03170000000000006,-8.158640066321666
-0.03270000000000017,-8.246352166913299
-0.03370000000000006,-8.288793505909249
-0.034700000000000175,-8.288793505909249
-0.035700000000000065,-8.376505606500881
-0.03670000000000018,-8.332649556205066
-0.03770000000000007,-8.246352166913299
-0.03870000000000018,-8.158640066321666
-0.03970000000000007,-8.027071915434218
-0.04070000000000018,-8.070927965730034
-0.04170000000000007,-8.070927965730034
-0.04270000000000018,-8.11478401602585
-0.04370000000000007,-8.158640066321666
-0.044700000000000184,-8.246352166913299
-0.045700000000000074,-8.288793505909249
-0.046700000000000186,-8.4203616567967
-0.047700000000000076,-8.4203616567967
-0.04870000000000019,-8.464217707092514
-0.04970000000000008,-8.376505606500881
-0.05070000000000019,-8.332649556205066
-0.05170000000000008,-8.246352166913299
-0.05270000000000019,-8.202496116617484
-0.05370000000000008,-8.158640066321666
-0.05470000000000019,-8.158640066321666
-0.05570000000000008,-8.158640066321666
-0.056700000000000195,-8.202496116617484
-0.057700000000000085,-8.288793505909249
-0.058700000000000196,-8.376505606500881
-0.059700000000000086,-8.508073757388331
-0.0607000000000002,-8.508073757388331
-0.06170000000000009,-8.508073757388331
-0.0627000000000002,-8.508073757388331
-0.06370000000000009,-8.464217707092514
-0.0647000000000002,-8.4203616567967
-0.06570000000000009,-8.332649556205066
-0.0667000000000002,-8.202496116617484
-0.0677000000000001,-8.246352166913299
-0.0687000000000002,-8.246352166913299
-0.0697000000000001,-8.332649556205066
-0.07070000000000021,-8.376505606500881
-0.0717000000000001,-8.464217707092514
-0.07270000000000021,-8.55051509638428
-0.0737000000000001,-8.594371146680096
-0.07470000000000021,-8.594371146680096
-0.0757000000000001,-8.594371146680096
-0.07670000000000021,-8.55051509638428
-0.0777000000000001,-8.508073757388331
-0.07870000000000021,-8.4203616567967
-0.0797000000000001,-8.332649556205066
-0.08070000000000022,-8.332649556205066
-0.0817000000000001,-8.332649556205066
-0.08270000000000022,-8.376505606500881
-0.08370000000000011,-8.464217707092514
-0.08470000000000022,-8.508073757388331
-0.08570000000000011,-8.594371146680096
-0.08670000000000022,-8.725939297567548
-0.08770000000000011,-8.725939297567548
-0.08870000000000022,-8.725939297567548
-0.08970000000000011,-8.638227196975913
-0.09070000000000022,-8.594371146680096
-0.09170000000000011,-8.55051509638428
-0.09270000000000023,-8.464217707092514
-0.09370000000000012,-8.4203616567967
-0.09470000000000023,-8.4203616567967
-0.09570000000000012,-8.4203616567967
-0.09670000000000023,-8.464217707092514
-0.09770000000000012,-8.55051509638428
-0.09870000000000023,-8.638227196975913
-0.09970000000000012,-8.769795347863363
-0.10070000000000023,-8.769795347863363
-0.10170000000000012,-8.812236686859313
-0.10270000000000024,-8.725939297567548
-0.10370000000000013,-8.68208324727173
-0.10470000000000024,-8.68208324727173
-0.10570000000000013,-8.638227196975913
-0.10670000000000024,-8.508073757388331
-0.10770000000000013,-8.508073757388331
-0.10870000000000024,-8.508073757388331
-0.10970000000000013,-8.594371146680096
-0.11070000000000024,-8.68208324727173
-0.11170000000000013,-8.725939297567548
-0.11270000000000002,-8.812236686859313
-0.11370000000000013,-8.85609273715513
-0.11470000000000002,-8.899948787450944
-0.11570000000000014,-8.899948787450944
-0.11670000000000003,-8.85609273715513
-0.11770000000000014,-8.812236686859313
-0.11870000000000003,-8.725939297567548
-0.11970000000000014,-8.638227196975913
-0.12070000000000003,-8.594371146680096
-0.12170000000000014,-8.638227196975913
-0.12270000000000003,-8.68208324727173
-0.12370000000000014,-8.769795347863363
-0.12470000000000003,-8.812236686859313
-0.12570000000000014,-8.85609273715513
-0.12670000000000003,-8.987660888042578
-0.12770000000000015,-8.987660888042578
-0.12870000000000004,-9.031516938338395
-0.12970000000000015,-8.987660888042578
-0.13070000000000004,-8.899948787450944
-0.13170000000000015,-8.85609273715513
-0.13270000000000004,-8.812236686859313
-0.13370000000000015,-8.769795347863363
-0.13470000000000004,-8.769795347863363
-0.13570000000000015,-8.725939297567548
-0.13670000000000004,-8.812236686859313
-0.13770000000000016,-8.899948787450944
-0.13870000000000005,-8.987660888042578
-0.13970000000000016,-9.11781432763016
-0.14070000000000005,-9.11781432763016
-0.14170000000000016,-9.161670377925978
-0.14270000000000005,-9.161670377925978
-0.14370000000000016,-9.073958277334345
-0.14470000000000005,-9.031516938338395
-0.14570000000000016,-8.987660888042578
-0.14670000000000005,-8.899948787450944
-0.14770000000000016,-8.899948787450944
-0.14870000000000005,-8.85609273715513
-0.14970000000000017,-8.943804837746763
-0.15070000000000006,-9.073958277334345
-0.15170000000000017,-9.11781432763016
-0.15270000000000006,-9.205526428221793
-0.15370000000000017,-9.293238528813426
-0.15470000000000006,-9.293238528813426
-0.15570000000000017,-9.335679867809377
-0.15670000000000006,-9.293238528813426
-0.15770000000000017,-9.205526428221793
-0.15870000000000006,-9.161670377925978
-0.15970000000000018,-9.073958277334345
-0.16070000000000007,-9.031516938338395
-0.16170000000000018,-9.073958277334345
-0.16270000000000007,-9.11781432763016
-0.16370000000000018,-9.205526428221793
-0.16470000000000007,-9.293238528813426
-0.16570000000000018,-9.379535918105192
-0.16670000000000007,-9.511104068992642
-0.16770000000000018,-9.511104068992642
-0.16870000000000007,-9.59740145828441
-0.16970000000000018,-9.511104068992642
-0.17070000000000007,-9.423391968401008
-0.17170000000000019,-9.379535918105192
-0.17270000000000008,-9.335679867809377
-0.1737000000000002,-9.293238528813426
-0.17470000000000008,-9.335679867809377
-0.1757000000000002,-9.293238528813426
-0.17670000000000008,-9.379535918105192
-0.1777000000000002,-9.467248018696827
-0.17870000000000008,-9.55496011928846
-0.1797000000000002,-9.685113558876042
-0.18070000000000008,-9.728969609171857
-0.1817000000000002,-9.772825659467674
-0.18270000000000008,-9.772825659467674
-0.1837000000000002,-9.685113558876042
-0.1847000000000001,-9.685113558876042
-0.1857000000000002,-9.641257508580225
-0.1867000000000001,-9.55496011928846
-0.1877000000000002,-9.55496011928846
-0.1887000000000001,-9.55496011928846
-0.1897000000000002,-9.685113558876042
-0.1907000000000001,-9.772825659467674
-0.1917000000000001,-9.85912304875944
-0.19269999999999998,-9.946835149351072
-0.1937000000000001,-10.034547249942705
-0.19469999999999998,-10.078403300238522
-0.1957000000000001,-10.120844639234473
-0.19669999999999999,-10.078403300238522
-0.1977000000000001,-10.034547249942705
-0.1987,-9.99069119964689
-0.1997000000000001,-9.902979099055257
-0.2007,-9.946835149351072
-0.2017000000000001,-9.946835149351072
-0.2027,-9.99069119964689
-0.2037000000000001,-10.120844639234473
-0.2047,-10.208556739826104
-0.2057000000000001,-10.340124890713554
-0.2067,-10.42642228000532
-0.2077000000000001,-10.470278330301136
-0.2087,-10.514134380596953
-0.2097000000000001,-10.470278330301136
-0.2107,-10.42642228000532
-0.2117000000000001,-10.42642228000532
-0.2127,-10.382566229709504
-0.2137000000000001,-10.382566229709504
-0.2147,-10.382566229709504
-0.2157000000000001,-10.470278330301136
-0.2167,-10.557990430892769
-0.21770000000000012,-10.644287820184536
-0.2187,-10.819712021367803
-0.21970000000000012,-10.906009410659568
-0.2207,-10.949865460955383
-0.22170000000000012,-10.993721511251199
-0.2227,-10.993721511251199
-0.22370000000000012,-10.993721511251199
-0.2247,-10.993721511251199
-0.22570000000000012,-10.949865460955383
-0.2267,-10.906009410659568
-0.22770000000000012,-10.949865460955383
-0.22870000000000001,-10.949865460955383
-0.22970000000000013,-11.081433611842833
-0.23070000000000002,-11.211587051430415
-0.23170000000000013,-11.343155202317865
-0.23270000000000002,-11.42945259160963
-0.23370000000000013,-11.56102074249708
-0.23470000000000002,-11.604876792792895
-0.23570000000000013,-11.647318131788847
-0.23670000000000002,-11.691174182084664
-0.2376999999999999,-11.647318131788847
-0.23870000000000002,-11.604876792792895
-0.2396999999999999,-11.56102074249708
-0.24070000000000003,-11.647318131788847
-0.24169999999999991,-11.691174182084664
-0.24270000000000003,-11.778886282676295
-0.24369999999999992,-11.909039722263879
-0.24470000000000003,-11.996751822855511
-0.24569999999999992,-12.12831997374296
-0.24670000000000003,-12.302329463626359
-0.24769999999999992,-12.346185513922174
-0.24870000000000003,-12.432482903213943
-0.24969999999999992,-12.432482903213943
-0.25070000000000003,-12.390041564217992
-0.2516999999999999,-12.390041564217992
-0.25270000000000004,-12.390041564217992
-0.2536999999999999,-12.390041564217992
-0.25470000000000004,-12.476338953509758
-0.2556999999999999,-12.520195003805576
-0.25670000000000004,-12.651763154693022
-0.25769999999999993,-12.781916594280606
-0.25870000000000004,-12.913484745168056
-0.25969999999999993,-13.13135028534727
-0.26070000000000004,-13.175206335643086
-0.26169999999999993,-13.261503724934855
-0.26270000000000004,-13.30535977523067
-0.26369999999999993,-13.30535977523067
-0.26470000000000005,-13.349215825526485
-0.26569999999999994,-13.349215825526485
-0.26670000000000005,-13.30535977523067
-0.26769999999999994,-13.3930718758223
-0.26870000000000005,-13.436927926118118
-0.26969999999999994,-13.610937416001518
-0.27070000000000005,-13.784946905884919
-0.27169999999999994,-13.916515056772363
-0.27270000000000005,-14.090524546655764
-0.27369999999999994,-14.217848563643619
-0.27470000000000006,-14.26028990263957
-0.27569999999999995,-14.345172580631472
-0.27670000000000006,-14.401761032626075
-0.27769999999999995,-14.401761032626075
-0.27870000000000006,-14.401761032626075
-0.27969999999999995,-14.401761032626075
-0.28070000000000006,-14.486643710617974
-0.28169999999999995,-14.529085049613924
-0.28270000000000006,-14.65640906660178
-0.28369999999999995,-14.826174422585586
-0.28470000000000006,-14.967645552572087
-0.28569999999999995,-15.094969569559943
-0.28670000000000007,-15.307176264539699
-0.28769999999999996,-15.3920589425316
-0.28870000000000007,-15.533530072518102
-0.28969999999999996,-15.533530072518102
-0.29070000000000007,-15.575971411514052
-0.29169999999999996,-15.575971411514052
-0.29270000000000007,-15.618412750510005
-0.29369999999999996,-15.660854089505953
-0.2947000000000001,-15.74573676749786
-0.29569999999999996,-15.830619445489761
-0.2967000000000001,-16.014531914472215
-0.29769999999999996,-16.184297270456018
-0.2987000000000001,-16.311621287443874
-0.29969999999999997,-16.580416434418233
-0.3007000000000001,-16.665299112410132
-0.30169999999999997,-16.792623129397985
-0.3027000000000001,-16.835064468393938
-0.30369999999999997,-16.877505807389888
-0.3047000000000001,-16.919947146385837
-0.30569999999999997,-16.962388485381787
-0.3067000000000001,-16.962388485381787
-0.3077,-17.061418276372343
-0.3087000000000001,-17.146300954364243
-0.3097,-17.316066310348052
-0.3107000000000001,-17.542420118326454
-0.3117,-17.71218547431026
-0.3127000000000001,-17.881950830294063
-0.3137,-18.06586329927652
-0.3147000000000001,-18.19318731626437
-0.3157,-18.27806999425627
-0.3167000000000001,-18.362952672248177
-0.3177,-18.40539401124413
-0.3187000000000001,-18.44783535024008
-0.3197,-18.49027668923603
-0.3207000000000001,-18.589306480226583
-0.3217,-18.674189158218486
-0.3227000000000001,-18.843954514202288
-0.3237,-19.056161209182044
-0.3247000000000001,-19.2400736781645
-0.3257,-19.367397695152352
-0.3267000000000001,-19.636192842126707
-0.3277,-19.763516859114564
-0.3287000000000001,-19.93328221509837
-0.3297,-19.97572355409432
-0.3307000000000001,-20.01816489309027
-0.3317,-20.10304757108217
-0.3327000000000001,-20.159636023076775
-0.3337,-20.244518701068674
-0.3347000000000001,-20.371842718056527
-0.3357,-20.456725396048434
-0.3367000000000001,-20.683079204026836
-0.3377,-20.89528589900659
-0.3387000000000001,-21.065051254990397
-0.3397,-21.291405062968803
-0.3407000000000001,-21.461170418952605
-0.3417,-21.63093577493641
-0.3427000000000001,-21.729965565926964
-0.3437,-21.814848243918867
-0.3447000000000001,-21.899730921910766
-0.3457,-21.98461359990267
-0.3467000000000001,-22.027054938898623
-0.3477,-22.15437895588647
-0.3487000000000001,-22.253408746877028
-0.3497,-22.508056780852733
-0.3507000000000001,-22.72026347583249
-0.3517,-22.946617283810895
-0.3527000000000001,-23.15882397879065
-0.3537,-23.385177786769056
-0.3547000000000001,-23.55494314275286
-0.3557,-23.682267159740714
-0.35670000000000013,-23.823738289727217
-0.3577,-23.908620967719123
-0.35870000000000013,-23.993503645711023
-0.3597,-24.035944984706973
-0.36070000000000013,-24.20571034069078
-0.3617,-24.34718147067728
-0.3626999999999999,-24.559388165657033
-0.3637,-24.771594860636792
-0.3646999999999999,-24.997948668615198
-0.3657,-25.210155363594954
-0.3666999999999999,-25.478950510569312
-0.3677,-25.691157205549064
-0.3686999999999999,-25.91751101352747
-0.36970000000000003,-26.002393691519377
-0.3706999999999999,-26.129717708507226
-0.37170000000000003,-26.21460038649913
-0.3726999999999999,-26.29948306449103
-0.37370000000000003,-26.483395533473487
-0.3746999999999999,-26.65316088945729
-0.37570000000000003,-26.822926245441096
-0.3766999999999999,-27.049280053419505
-0.37770000000000004,-27.303928087395207
-0.3786999999999999,-27.572723234369565
-0.37970000000000004,-27.869812607341224
-0.3806999999999999,-28.05372507632368
-0.38170000000000004,-28.265931771303435
-0.38269999999999993,-28.435697127287238
-0.38370000000000004,-28.577168257273744
-0.38469999999999993,-28.704492274261593
-0.38570000000000004,-28.831816291249446
-0.38669999999999993,-28.959140308237306
-0.38770000000000004,-29.14305277721976
-0.38869999999999993,-29.35525947219951
-0.38970000000000005,-29.62405461917387
-0.39069999999999994,-29.921143992145527
-0.39170000000000005,-30.232380478115836
-0.39269999999999994,-30.529469851087494
-0.39370000000000005,-30.7558236590659
-0.39469999999999994,-31.010471693041605
-0.39570000000000005,-31.19438416202406
-0.39669999999999994,-31.40659085700382
-0.39770000000000005,-31.57635621298762
-0.39869999999999994,-31.661238890979522
-0.39970000000000006,-31.802710020966025
-0.40069999999999995,-32.05735805494172
-0.40170000000000006,-32.283711862920136
-0.40269999999999995,-32.53835989689585
-0.40370000000000006,-32.84959638286615
-0.40469999999999995,-33.14668575583781
-0.40570000000000006,-33.45792224180811
-0.40669999999999995,-33.81160006677438
-0.40770000000000006,-34.06624810075008
-0.40869999999999995,-34.377484586720385
-0.40970000000000006,-34.5472499427042
-0.41069999999999995,-34.717015298688004
-0.41170000000000007,-34.94336910666641
-0.41269999999999996,-35.11313446265021
-0.41370000000000007,-35.32534115762997
-0.41469999999999996,-35.594136304604326
-0.41570000000000007,-35.848784338580025
-0.41669999999999996,-36.16002082455034
-0.41770000000000007,-36.5136986495166
-0.41869999999999996,-36.8532293614842
-0.4197000000000001,-37.249348525446415
-0.42069999999999996,-37.56058501141672
-0.4217000000000001,-37.85767438438838
-0.42269999999999996,-38.12646953136274
-0.4237000000000001,-38.29623488734655
-0.42469999999999997,-38.5650300343209
-0.4257000000000001,-38.81967806829661
-0.42669999999999997,-39.046031876275016
-0.4277000000000001,-39.34312124924667
-0.42869999999999997,-39.61191639622103
-0.4297000000000001,-39.99388844718459
-0.43069999999999997,-40.3900076111468
-0.4317000000000001,-40.743685436113054
-0.4327,-41.182245939071215
-0.4337000000000001,-41.52177665103883
-0.4347,-41.87545447600508
-0.4357000000000001,-42.186690961975394
-0.4367,-42.4413389959511
-0.4377000000000001,-42.752575481921404
-0.4387,-43.007223515897124
-0.4397000000000001,-43.23357732387552
-0.4407,-43.57310803584313
-0.4417000000000001,-43.92678586080939
-0.4427,-44.3229050247716
-0.4437000000000001,-44.74731841473111
-0.4447,-45.18587891768927
-0.4457000000000001,-45.624439420647434
-0.4467,-46.10544126260155
-0.4477000000000001,-46.501560426563756
-0.4487,-46.88353247752732
-0.4497000000000001,-47.19476896349763
-0.4507,-47.506005449467935
-0.4517000000000001,-47.84553616143554
-0.4527,-48.114331308409895
-0.4537000000000001,-48.51045047237211
-0.4547,-48.89242252333566
-0.4557000000000001,-49.28854168729788
-0.4567,-49.72710219025603
-0.4577000000000001,-50.20810403221015
-0.4587,-50.68910587416426
-0.4597000000000001,-51.25499039411028
-0.4607,-51.69355089706845
-0.4617000000000001,-52.17455273902255
-0.4627,-52.514083450990164
-0.4637000000000001,-52.91020261495237
-0.4647,-53.348763117910536
-0.4657000000000001,-53.74488228187274
-0.4667,-54.08441299384035
-0.4677000000000001,-54.56541483579447
-0.4687,-55.003975338752625
-0.4697000000000001,-55.527418519702685
-0.4707,-56.093303039648696
-0.4717000000000001,-56.65918755959472
-0.4727,-57.26751341853669
-0.4737000000000001,-57.79095659948675
-0.4747,-58.27195844144086
-0.4757000000000001,-58.79540162239092
-0.4767,-59.23396212534908
-0.4777000000000001,-59.67252262830725
-0.4787,-60.15352447026136
-0.4797000000000001,-60.54964363422357
-0.4807,-61.07308681517363
-0.48170000000000013,-61.5965299961237
-0.4827,-62.16241451606972
-0.48370000000000013,-62.77074037501168
-0.4847,-63.421507572949594
-0.48570000000000013,-64.02983343189156
-0.4867,-63.20930087796983
-0.48570000000000013,-60.23840714825326
-0.4847,-58.05975174646111
-0.48370000000000013,-56.22062705663656
-0.4827,-54.65029751378637
-0.48170000000000013,-53.348763117910536
-0.4807,-52.17455273902255
-0.4797000000000001,-51.127666377122424
-0.4787,-50.1656626932142
-0.4777000000000001,-49.28854168729788
-0.4767,-48.51045047237211
-0.4757000000000001,-47.76065348344364
-0.4747,-47.10988628550572
-0.4737000000000001,-46.45911908756781
-0.4727,-45.75176343763528
-0.4717000000000001,-45.05855490070142
-0.4707,-44.28046368577565
-0.4697000000000001,-43.53066669684718
-0.4687,-42.837458159913304
-0.4677000000000001,-42.130102509980794
-0.4667,-41.43689397304693
-0.4657000000000001,-40.78612677510901
-0.4647,-40.092918238175145
-0.4637000000000001,-39.56947505722508
-0.4627,-39.08847321527096
-0.4617000000000001,-38.5650300343209
