Aug. 26, 2024   18:24:54
Linear Sweep Voltammetry
File: c:/users/guazh/data/20240813_batch_181_500/2024-08-25-exp189\regeneratedgce-2024-08-26t18_20_13-lsvinkoh\regeneratedgce_lsv_50mvs_efin_-1900mv.bin
Data Source:  Experiment
Instrument Model:  CHI760E
Header: LSV ran at 50 mVs with Efin at -1900mV
Note: 

Init E (V) = -0.6
Final E (V) = -1.9
Scan Rate (V/s) = 0.05
Sample Interval (V) = 0.001
Quiet Time (sec) = 2
Sensitivity (A/V) = 1e-4
Comp R (ohm) = 3.1

Results:

Channel 1:
Ep = -1.716V
ip = 9.879e-4A
Ah = 5.782e-4C

Potential/V, Current/A

-0.600, 2.375e-6
-0.601, 2.541e-6
-0.602, 2.587e-6
-0.603, 2.606e-6
-0.604, 2.615e-6
-0.605, 2.624e-6
-0.606, 2.629e-6
-0.607, 2.629e-6
-0.608, 2.633e-6
-0.609, 2.635e-6
-0.610, 2.634e-6
-0.611, 2.635e-6
-0.612, 2.634e-6
-0.613, 2.633e-6
-0.614, 2.636e-6
-0.615, 2.635e-6
-0.616, 2.633e-6
-0.617, 2.632e-6
-0.618, 2.630e-6
-0.619, 2.629e-6
-0.620, 2.629e-6
-0.621, 2.626e-6
-0.622, 2.626e-6
-0.623, 2.623e-6
-0.624, 2.622e-6
-0.625, 2.621e-6
-0.626, 2.618e-6
-0.627, 2.616e-6
-0.628, 2.615e-6
-0.629, 2.612e-6
-0.630, 2.612e-6
-0.631, 2.610e-6
-0.632, 2.608e-6
-0.633, 2.606e-6
-0.634, 2.604e-6
-0.635, 2.603e-6
-0.636, 2.600e-6
-0.637, 2.598e-6
-0.638, 2.597e-6
-0.639, 2.595e-6
-0.640, 2.595e-6
-0.641, 2.593e-6
-0.642, 2.591e-6
-0.643, 2.589e-6
-0.644, 2.588e-6
-0.645, 2.586e-6
-0.646, 2.586e-6
-0.647, 2.582e-6
-0.648, 2.580e-6
-0.649, 2.579e-6
-0.650, 2.577e-6
-0.651, 2.576e-6
-0.652, 2.575e-6
-0.653, 2.574e-6
-0.654, 2.572e-6
-0.655, 2.571e-6
-0.656, 2.570e-6
-0.657, 2.567e-6
-0.658, 2.566e-6
-0.659, 2.565e-6
-0.660, 2.564e-6
-0.661, 2.561e-6
-0.662, 2.561e-6
-0.663, 2.559e-6
-0.664, 2.558e-6
-0.665, 2.559e-6
-0.666, 2.560e-6
-0.667, 2.554e-6
-0.668, 2.554e-6
-0.669, 2.553e-6
-0.670, 2.551e-6
-0.671, 2.552e-6
-0.672, 2.549e-6
-0.673, 2.549e-6
-0.674, 2.545e-6
-0.675, 2.546e-6
-0.676, 2.545e-6
-0.677, 2.543e-6
-0.678, 2.543e-6
-0.679, 2.543e-6
-0.680, 2.541e-6
-0.681, 2.541e-6
-0.682, 2.537e-6
-0.683, 2.538e-6
-0.684, 2.536e-6
-0.685, 2.535e-6
-0.686, 2.535e-6
-0.687, 2.532e-6
-0.688, 2.532e-6
-0.689, 2.533e-6
-0.690, 2.530e-6
-0.691, 2.531e-6
-0.692, 2.529e-6
-0.693, 2.527e-6
-0.694, 2.530e-6
-0.695, 2.528e-6
-0.696, 2.527e-6
-0.697, 2.524e-6
-0.698, 2.525e-6
-0.699, 2.525e-6
-0.700, 2.524e-6
-0.701, 2.523e-6
-0.702, 2.523e-6
-0.703, 2.522e-6
-0.704, 2.520e-6
-0.705, 2.521e-6
-0.706, 2.518e-6
-0.707, 2.519e-6
-0.708, 2.518e-6
-0.709, 2.517e-6
-0.710, 2.518e-6
-0.711, 2.517e-6
-0.712, 2.516e-6
-0.713, 2.516e-6
-0.714, 2.513e-6
-0.715, 2.515e-6
-0.716, 2.515e-6
-0.717, 2.514e-6
-0.718, 2.514e-6
-0.719, 2.513e-6
-0.720, 2.514e-6
-0.721, 2.514e-6
-0.722, 2.511e-6
-0.723, 2.512e-6
-0.724, 2.511e-6
-0.725, 2.510e-6
-0.726, 2.512e-6
-0.727, 2.509e-6
-0.728, 2.509e-6
-0.729, 2.510e-6
-0.730, 2.509e-6
-0.731, 2.510e-6
-0.732, 2.510e-6
-0.733, 2.508e-6
-0.734, 2.508e-6
-0.735, 2.508e-6
-0.736, 2.508e-6
-0.737, 2.509e-6
-0.738, 2.506e-6
-0.739, 2.508e-6
-0.740, 2.507e-6
-0.741, 2.507e-6
-0.742, 2.507e-6
-0.743, 2.507e-6
-0.744, 2.507e-6
-0.745, 2.508e-6
-0.746, 2.507e-6
-0.747, 2.506e-6
-0.748, 2.507e-6
-0.749, 2.506e-6
-0.750, 2.506e-6
-0.751, 2.506e-6
-0.752, 2.505e-6
-0.753, 2.506e-6
-0.754, 2.506e-6
-0.755, 2.507e-6
-0.756, 2.507e-6
-0.757, 2.505e-6
-0.758, 2.507e-6
-0.759, 2.506e-6
-0.760, 2.506e-6
-0.761, 2.509e-6
-0.762, 2.506e-6
-0.763, 2.507e-6
-0.764, 2.506e-6
-0.765, 2.507e-6
-0.766, 2.508e-6
-0.767, 2.506e-6
-0.768, 2.509e-6
-0.769, 2.509e-6
-0.770, 2.508e-6
-0.771, 2.509e-6
-0.772, 2.508e-6
-0.773, 2.507e-6
-0.774, 2.509e-6
-0.775, 2.507e-6
-0.776, 2.508e-6
-0.777, 2.509e-6
-0.778, 2.508e-6
-0.779, 2.510e-6
-0.780, 2.509e-6
-0.781, 2.510e-6
-0.782, 2.510e-6
-0.783, 2.509e-6
-0.784, 2.511e-6
-0.785, 2.511e-6
-0.786, 2.510e-6
-0.787, 2.510e-6
-0.788, 2.512e-6
-0.789, 2.510e-6
-0.790, 2.512e-6
-0.791, 2.513e-6
-0.792, 2.510e-6
-0.793, 2.513e-6
-0.794, 2.514e-6
-0.795, 2.514e-6
-0.796, 2.515e-6
-0.797, 2.515e-6
-0.798, 2.514e-6
-0.799, 2.515e-6
-0.800, 2.517e-6
-0.801, 2.519e-6
-0.802, 2.516e-6
-0.803, 2.516e-6
-0.804, 2.519e-6
-0.805, 2.519e-6
-0.806, 2.520e-6
-0.807, 2.519e-6
-0.808, 2.520e-6
-0.809, 2.521e-6
-0.810, 2.521e-6
-0.811, 2.522e-6
-0.812, 2.523e-6
-0.813, 2.522e-6
-0.814, 2.524e-6
-0.815, 2.523e-6
-0.816, 2.526e-6
-0.817, 2.526e-6
-0.818, 2.526e-6
-0.819, 2.533e-6
-0.820, 2.534e-6
-0.821, 2.531e-6
-0.822, 2.532e-6
-0.823, 2.532e-6
-0.824, 2.533e-6
-0.825, 2.534e-6
-0.826, 2.534e-6
-0.827, 2.536e-6
-0.828, 2.537e-6
-0.829, 2.537e-6
-0.830, 2.538e-6
-0.831, 2.539e-6
-0.832, 2.539e-6
-0.833, 2.541e-6
-0.834, 2.541e-6
-0.835, 2.544e-6
-0.836, 2.546e-6
-0.837, 2.544e-6
-0.838, 2.546e-6
-0.839, 2.548e-6
-0.840, 2.548e-6
-0.841, 2.551e-6
-0.842, 2.550e-6
-0.843, 2.552e-6
-0.844, 2.554e-6
-0.845, 2.555e-6
-0.846, 2.557e-6
-0.847, 2.557e-6
-0.848, 2.558e-6
-0.849, 2.560e-6
-0.850, 2.561e-6
-0.851, 2.563e-6
-0.852, 2.563e-6
-0.853, 2.563e-6
-0.854, 2.567e-6
-0.855, 2.568e-6
-0.856, 2.569e-6
-0.857, 2.570e-6
-0.858, 2.570e-6
-0.859, 2.572e-6
-0.860, 2.575e-6
-0.861, 2.575e-6
-0.862, 2.577e-6
-0.863, 2.577e-6
-0.864, 2.579e-6
-0.865, 2.581e-6
-0.866, 2.581e-6
-0.867, 2.583e-6
-0.868, 2.584e-6
-0.869, 2.585e-6
-0.870, 2.588e-6
-0.871, 2.592e-6
-0.872, 2.590e-6
-0.873, 2.591e-6
-0.874, 2.592e-6
-0.875, 2.595e-6
-0.876, 2.596e-6
-0.877, 2.595e-6
-0.878, 2.597e-6
-0.879, 2.598e-6
-0.880, 2.601e-6
-0.881, 2.603e-6
-0.882, 2.601e-6
-0.883, 2.604e-6
-0.884, 2.607e-6
-0.885, 2.608e-6
-0.886, 2.610e-6
-0.887, 2.610e-6
-0.888, 2.611e-6
-0.889, 2.614e-6
-0.890, 2.615e-6
-0.891, 2.618e-6
-0.892, 2.617e-6
-0.893, 2.617e-6
-0.894, 2.621e-6
-0.895, 2.620e-6
-0.896, 2.624e-6
-0.897, 2.624e-6
-0.898, 2.625e-6
-0.899, 2.627e-6
-0.900, 2.630e-6
-0.901, 2.631e-6
-0.902, 2.633e-6
-0.903, 2.633e-6
-0.904, 2.635e-6
-0.905, 2.637e-6
-0.906, 2.638e-6
-0.907, 2.641e-6
-0.908, 2.642e-6
-0.909, 2.645e-6
-0.910, 2.646e-6
-0.911, 2.647e-6
-0.912, 2.648e-6
-0.913, 2.650e-6
-0.914, 2.652e-6
-0.915, 2.654e-6
-0.916, 2.656e-6
-0.917, 2.657e-6
-0.918, 2.660e-6
-0.919, 2.660e-6
-0.920, 2.663e-6
-0.921, 2.666e-6
-0.922, 2.668e-6
-0.923, 2.669e-6
-0.924, 2.672e-6
-0.925, 2.673e-6
-0.926, 2.677e-6
-0.927, 2.676e-6
-0.928, 2.679e-6
-0.929, 2.683e-6
-0.930, 2.684e-6
-0.931, 2.688e-6
-0.932, 2.688e-6
-0.933, 2.689e-6
-0.934, 2.693e-6
-0.935, 2.695e-6
-0.936, 2.697e-6
-0.937, 2.700e-6
-0.938, 2.700e-6
-0.939, 2.705e-6
-0.940, 2.707e-6
-0.941, 2.709e-6
-0.942, 2.711e-6
-0.943, 2.712e-6
-0.944, 2.716e-6
-0.945, 2.719e-6
-0.946, 2.720e-6
-0.947, 2.724e-6
-0.948, 2.726e-6
-0.949, 2.728e-6
-0.950, 2.732e-6
-0.951, 2.735e-6
-0.952, 2.736e-6
-0.953, 2.741e-6
-0.954, 2.741e-6
-0.955, 2.745e-6
-0.956, 2.749e-6
-0.957, 2.750e-6
-0.958, 2.754e-6
-0.959, 2.756e-6
-0.960, 2.760e-6
-0.961, 2.766e-6
-0.962, 2.766e-6
-0.963, 2.769e-6
-0.964, 2.772e-6
-0.965, 2.775e-6
-0.966, 2.781e-6
-0.967, 2.783e-6
-0.968, 2.785e-6
-0.969, 2.790e-6
-0.970, 2.793e-6
-0.971, 2.797e-6
-0.972, 2.800e-6
-0.973, 2.805e-6
-0.974, 2.810e-6
-0.975, 2.811e-6
-0.976, 2.814e-6
-0.977, 2.819e-6
-0.978, 2.820e-6
-0.979, 2.826e-6
-0.980, 2.829e-6
-0.981, 2.832e-6
-0.982, 2.836e-6
-0.983, 2.839e-6
-0.984, 2.844e-6
-0.985, 2.848e-6
-0.986, 2.851e-6
-0.987, 2.856e-6
-0.988, 2.858e-6
-0.989, 2.862e-6
-0.990, 2.867e-6
-0.991, 2.870e-6
-0.992, 2.874e-6
-0.993, 2.879e-6
-0.994, 2.881e-6
-0.995, 2.886e-6
-0.996, 2.892e-6
-0.997, 2.893e-6
-0.998, 2.900e-6
-0.999, 2.904e-6
-1.000, 2.908e-6
-1.001, 2.915e-6
-1.002, 2.914e-6
-1.003, 2.920e-6
-1.004, 2.923e-6
-1.005, 2.928e-6
-1.006, 2.934e-6
-1.007, 2.936e-6
-1.008, 2.939e-6
-1.009, 2.945e-6
-1.010, 2.949e-6
-1.011, 2.955e-6
-1.012, 2.957e-6
-1.013, 2.961e-6
-1.014, 2.965e-6
-1.015, 2.969e-6
-1.016, 2.973e-6
-1.017, 2.977e-6
-1.018, 2.979e-6
-1.019, 2.985e-6
-1.020, 2.988e-6
-1.021, 2.992e-6
-1.022, 2.997e-6
-1.023, 2.999e-6
-1.024, 3.006e-6
-1.025, 3.009e-6
-1.026, 3.013e-6
-1.027, 3.017e-6
-1.028, 3.020e-6
-1.029, 3.023e-6
-1.030, 3.028e-6
-1.031, 3.032e-6
-1.032, 3.035e-6
-1.033, 3.039e-6
-1.034, 3.041e-6
-1.035, 3.047e-6
-1.036, 3.050e-6
-1.037, 3.053e-6
-1.038, 3.057e-6
-1.039, 3.061e-6
-1.040, 3.062e-6
-1.041, 3.069e-6
-1.042, 3.071e-6
-1.043, 3.073e-6
-1.044, 3.079e-6
-1.045, 3.083e-6
-1.046, 3.086e-6
-1.047, 3.089e-6
-1.048, 3.090e-6
-1.049, 3.097e-6
-1.050, 3.101e-6
-1.051, 3.105e-6
-1.052, 3.107e-6
-1.053, 3.109e-6
-1.054, 3.113e-6
-1.055, 3.116e-6
-1.056, 3.120e-6
-1.057, 3.123e-6
-1.058, 3.124e-6
-1.059, 3.130e-6
-1.060, 3.133e-6
-1.061, 3.136e-6
-1.062, 3.140e-6
-1.063, 3.142e-6
-1.064, 3.145e-6
-1.065, 3.150e-6
-1.066, 3.152e-6
-1.067, 3.155e-6
-1.068, 3.159e-6
-1.069, 3.162e-6
-1.070, 3.167e-6
-1.071, 3.167e-6
-1.072, 3.170e-6
-1.073, 3.174e-6
-1.074, 3.177e-6
-1.075, 3.182e-6
-1.076, 3.188e-6
-1.077, 3.187e-6
-1.078, 3.191e-6
-1.079, 3.194e-6
-1.080, 3.198e-6
-1.081, 3.200e-6
-1.082, 3.203e-6
-1.083, 3.206e-6
-1.084, 3.209e-6
-1.085, 3.213e-6
-1.086, 3.218e-6
-1.087, 3.218e-6
-1.088, 3.220e-6
-1.089, 3.225e-6
-1.090, 3.226e-6
-1.091, 3.231e-6
-1.092, 3.235e-6
-1.093, 3.234e-6
-1.094, 3.240e-6
-1.095, 3.242e-6
-1.096, 3.247e-6
-1.097, 3.251e-6
-1.098, 3.250e-6
-1.099, 3.254e-6
-1.100, 3.260e-6
-1.101, 3.263e-6
-1.102, 3.265e-6
-1.103, 3.268e-6
-1.104, 3.271e-6
-1.105, 3.275e-6
-1.106, 3.278e-6
-1.107, 3.283e-6
-1.108, 3.285e-6
-1.109, 3.287e-6
-1.110, 3.291e-6
-1.111, 3.294e-6
-1.112, 3.298e-6
-1.113, 3.302e-6
-1.114, 3.304e-6
-1.115, 3.308e-6
-1.116, 3.312e-6
-1.117, 3.314e-6
-1.118, 3.318e-6
-1.119, 3.320e-6
-1.120, 3.326e-6
-1.121, 3.330e-6
-1.122, 3.333e-6
-1.123, 3.335e-6
-1.124, 3.339e-6
-1.125, 3.341e-6
-1.126, 3.348e-6
-1.127, 3.352e-6
-1.128, 3.354e-6
-1.129, 3.359e-6
-1.130, 3.361e-6
-1.131, 3.365e-6
-1.132, 3.369e-6
-1.133, 3.371e-6
-1.134, 3.376e-6
-1.135, 3.379e-6
-1.136, 3.383e-6
-1.137, 3.388e-6
-1.138, 3.390e-6
-1.139, 3.395e-6
-1.140, 3.397e-6
-1.141, 3.400e-6
-1.142, 3.407e-6
-1.143, 3.409e-6
-1.144, 3.414e-6
-1.145, 3.416e-6
-1.146, 3.421e-6
-1.147, 3.426e-6
-1.148, 3.429e-6
-1.149, 3.432e-6
-1.150, 3.438e-6
-1.151, 3.441e-6
-1.152, 3.447e-6
-1.153, 3.449e-6
-1.154, 3.452e-6
-1.155, 3.458e-6
-1.156, 3.462e-6
-1.157, 3.464e-6
-1.158, 3.469e-6
-1.159, 3.472e-6
-1.160, 3.477e-6
-1.161, 3.483e-6
-1.162, 3.485e-6
-1.163, 3.490e-6
-1.164, 3.496e-6
-1.165, 3.498e-6
-1.166, 3.504e-6
-1.167, 3.506e-6
-1.168, 3.511e-6
-1.169, 3.516e-6
-1.170, 3.519e-6
-1.171, 3.525e-6
-1.172, 3.529e-6
-1.173, 3.533e-6
-1.174, 3.538e-6
-1.175, 3.541e-6
-1.176, 3.546e-6
-1.177, 3.552e-6
-1.178, 3.559e-6
-1.179, 3.562e-6
-1.180, 3.566e-6
-1.181, 3.571e-6
-1.182, 3.578e-6
-1.183, 3.580e-6
-1.184, 3.585e-6
-1.185, 3.591e-6
-1.186, 3.595e-6
-1.187, 3.602e-6
-1.188, 3.604e-6
-1.189, 3.609e-6
-1.190, 3.618e-6
-1.191, 3.622e-6
-1.192, 3.627e-6
-1.193, 3.631e-6
-1.194, 3.636e-6
-1.195, 3.642e-6
-1.196, 3.648e-6
-1.197, 3.653e-6
-1.198, 3.658e-6
-1.199, 3.664e-6
-1.200, 3.670e-6
-1.201, 3.676e-6
-1.202, 3.680e-6
-1.203, 3.687e-6
-1.204, 3.693e-6
-1.205, 3.698e-6
-1.206, 3.705e-6
-1.207, 3.711e-6
-1.208, 3.716e-6
-1.209, 3.723e-6
-1.210, 3.729e-6
-1.211, 3.741e-6
-1.212, 3.745e-6
-1.213, 3.748e-6
-1.214, 3.756e-6
-1.215, 3.761e-6
-1.216, 3.768e-6
-1.217, 3.776e-6
-1.218, 3.779e-6
-1.219, 3.787e-6
-1.220, 3.793e-6
-1.221, 3.800e-6
-1.222, 3.810e-6
-1.223, 3.813e-6
-1.224, 3.820e-6
-1.225, 3.828e-6
-1.226, 3.834e-6
-1.227, 3.844e-6
-1.228, 3.848e-6
-1.229, 3.863e-6
-1.230, 3.869e-6
-1.231, 3.872e-6
-1.232, 3.880e-6
-1.233, 3.887e-6
-1.234, 3.893e-6
-1.235, 3.901e-6
-1.236, 3.910e-6
-1.237, 3.915e-6
-1.238, 3.921e-6
-1.239, 3.929e-6
-1.240, 3.938e-6
-1.241, 3.945e-6
-1.242, 3.952e-6
-1.243, 3.961e-6
-1.244, 3.967e-6
-1.245, 3.974e-6
-1.246, 3.985e-6
-1.247, 3.991e-6
-1.248, 3.998e-6
-1.249, 4.007e-6
-1.250, 4.014e-6
-1.251, 4.023e-6
-1.252, 4.031e-6
-1.253, 4.037e-6
-1.254, 4.047e-6
-1.255, 4.054e-6
-1.256, 4.062e-6
-1.257, 4.072e-6
-1.258, 4.076e-6
-1.259, 4.085e-6
-1.260, 4.095e-6
-1.261, 4.102e-6
-1.262, 4.112e-6
-1.263, 4.116e-6
-1.264, 4.126e-6
-1.265, 4.135e-6
-1.266, 4.142e-6
-1.267, 4.152e-6
-1.268, 4.159e-6
-1.269, 4.166e-6
-1.270, 4.176e-6
-1.271, 4.182e-6
-1.272, 4.190e-6
-1.273, 4.198e-6
-1.274, 4.206e-6
-1.275, 4.216e-6
-1.276, 4.223e-6
-1.277, 4.231e-6
-1.278, 4.238e-6
-1.279, 4.246e-6
-1.280, 4.260e-6
-1.281, 4.267e-6
-1.282, 4.273e-6
-1.283, 4.282e-6
-1.284, 4.290e-6
-1.285, 4.297e-6
-1.286, 4.308e-6
-1.287, 4.317e-6
-1.288, 4.323e-6
-1.289, 4.331e-6
-1.290, 4.339e-6
-1.291, 4.349e-6
-1.292, 4.356e-6
-1.293, 4.363e-6
-1.294, 4.372e-6
-1.295, 4.379e-6
-1.296, 4.389e-6
-1.297, 4.398e-6
-1.298, 4.402e-6
-1.299, 4.412e-6
-1.300, 4.422e-6
-1.301, 4.430e-6
-1.302, 4.440e-6
-1.303, 4.445e-6
-1.304, 4.455e-6
-1.305, 4.465e-6
-1.306, 4.472e-6
-1.307, 4.480e-6
-1.308, 4.487e-6
-1.309, 4.494e-6
-1.310, 4.506e-6
-1.311, 4.514e-6
-1.312, 4.524e-6
-1.313, 4.531e-6
-1.314, 4.538e-6
-1.315, 4.548e-6
-1.316, 4.557e-6
-1.317, 4.566e-6
-1.318, 4.573e-6
-1.319, 4.582e-6
-1.320, 4.589e-6
-1.321, 4.599e-6
-1.322, 4.607e-6
-1.323, 4.616e-6
-1.324, 4.625e-6
-1.325, 4.633e-6
-1.326, 4.646e-6
-1.327, 4.653e-6
-1.328, 4.660e-6
-1.329, 4.671e-6
-1.330, 4.679e-6
-1.331, 4.692e-6
-1.332, 4.701e-6
-1.333, 4.708e-6
-1.334, 4.718e-6
-1.335, 4.729e-6
-1.336, 4.738e-6
-1.337, 4.748e-6
-1.338, 4.758e-6
-1.339, 4.768e-6
-1.340, 4.779e-6
-1.341, 4.789e-6
-1.342, 4.799e-6
-1.343, 4.810e-6
-1.344, 4.820e-6
-1.345, 4.832e-6
-1.346, 4.839e-6
-1.347, 4.852e-6
-1.348, 4.863e-6
-1.349, 4.872e-6
-1.350, 4.885e-6
-1.351, 4.893e-6
-1.352, 4.907e-6
-1.353, 4.919e-6
-1.354, 4.929e-6
-1.355, 4.942e-6
-1.356, 4.955e-6
-1.357, 4.967e-6
-1.358, 4.979e-6
-1.359, 4.991e-6
-1.360, 5.004e-6
-1.361, 5.020e-6
-1.362, 5.032e-6
-1.363, 5.044e-6
-1.364, 5.055e-6
-1.365, 5.070e-6
-1.366, 5.086e-6
-1.367, 5.099e-6
-1.368, 5.112e-6
-1.369, 5.127e-6
-1.370, 5.140e-6
-1.371, 5.157e-6
-1.372, 5.172e-6
-1.373, 5.185e-6
-1.374, 5.201e-6
-1.375, 5.217e-6
-1.376, 5.233e-6
-1.377, 5.249e-6
-1.378, 5.267e-6
-1.379, 5.282e-6
-1.380, 5.299e-6
-1.381, 5.316e-6
-1.382, 5.337e-6
-1.383, 5.355e-6
-1.384, 5.372e-6
-1.385, 5.388e-6
-1.386, 5.407e-6
-1.387, 5.426e-6
-1.388, 5.442e-6
-1.389, 5.461e-6
-1.390, 5.484e-6
-1.391, 5.503e-6
-1.392, 5.523e-6
-1.393, 5.544e-6
-1.394, 5.563e-6
-1.395, 5.586e-6
-1.396, 5.609e-6
-1.397, 5.627e-6
-1.398, 5.651e-6
-1.399, 5.671e-6
-1.400, 5.695e-6
-1.401, 5.718e-6
-1.402, 5.741e-6
-1.403, 5.767e-6
-1.404, 5.790e-6
-1.405, 5.813e-6
-1.406, 5.840e-6
-1.407, 5.864e-6
-1.408, 5.886e-6
-1.409, 5.911e-6
-1.410, 5.934e-6
-1.411, 5.960e-6
-1.412, 5.988e-6
-1.413, 6.012e-6
-1.414, 6.043e-6
-1.415, 6.069e-6
-1.416, 6.098e-6
-1.417, 6.127e-6
-1.418, 6.152e-6
-1.419, 6.181e-6
-1.420, 6.210e-6
-1.421, 6.237e-6
-1.422, 6.269e-6
-1.423, 6.299e-6
-1.424, 6.328e-6
-1.425, 6.361e-6
-1.426, 6.393e-6
-1.427, 6.427e-6
-1.428, 6.457e-6
-1.429, 6.488e-6
-1.430, 6.524e-6
-1.431, 6.556e-6
-1.432, 6.591e-6
-1.433, 6.626e-6
-1.434, 6.661e-6
-1.435, 6.696e-6
-1.436, 6.734e-6
-1.437, 6.768e-6
-1.438, 6.805e-6
-1.439, 6.841e-6
-1.440, 6.878e-6
-1.441, 6.917e-6
-1.442, 6.952e-6
-1.443, 6.993e-6
-1.444, 7.030e-6
-1.445, 7.068e-6
-1.446, 7.109e-6
-1.447, 7.151e-6
-1.448, 7.191e-6
-1.449, 7.232e-6
-1.450, 7.270e-6
-1.451, 7.312e-6
-1.452, 7.356e-6
-1.453, 7.395e-6
-1.454, 7.441e-6
-1.455, 7.485e-6
-1.456, 7.529e-6
-1.457, 7.574e-6
-1.458, 7.617e-6
-1.459, 7.664e-6
-1.460, 7.712e-6
-1.461, 7.758e-6
-1.462, 7.806e-6
-1.463, 7.851e-6
-1.464, 7.899e-6
-1.465, 7.951e-6
-1.466, 7.999e-6
-1.467, 8.048e-6
-1.468, 8.097e-6
-1.469, 8.147e-6
-1.470, 8.203e-6
-1.471, 8.256e-6
-1.472, 8.313e-6
-1.473, 8.363e-6
-1.474, 8.412e-6
-1.475, 8.472e-6
-1.476, 8.526e-6
-1.477, 8.581e-6
-1.478, 8.635e-6
-1.479, 8.688e-6
-1.480, 8.748e-6
-1.481, 8.806e-6
-1.482, 8.860e-6
-1.483, 8.919e-6
-1.484, 8.976e-6
-1.485, 9.042e-6
-1.486, 9.102e-6
-1.487, 9.161e-6
-1.488, 9.223e-6
-1.489, 9.287e-6
-1.490, 9.350e-6
-1.491, 9.411e-6
-1.492, 9.475e-6
-1.493, 9.539e-6
-1.494, 9.605e-6
-1.495, 9.669e-6
-1.496, 9.738e-6
-1.497, 9.809e-6
-1.498, 9.873e-6
-1.499, 9.943e-6
-1.500, 1.001e-5
-1.501, 1.008e-5
-1.502, 1.015e-5
-1.503, 1.022e-5
-1.504, 1.029e-5
-1.505, 1.037e-5
-1.506, 1.044e-5
-1.507, 1.052e-5
-1.508, 1.059e-5
-1.509, 1.067e-5
-1.510, 1.075e-5
-1.511, 1.082e-5
-1.512, 1.090e-5
-1.513, 1.098e-5
-1.514, 1.106e-5
-1.515, 1.115e-5
-1.516, 1.123e-5
-1.517, 1.131e-5
-1.518, 1.139e-5
-1.519, 1.148e-5
-1.520, 1.156e-5
-1.521, 1.165e-5
-1.522, 1.174e-5
-1.523, 1.183e-5
-1.524, 1.192e-5
-1.525, 1.200e-5
-1.526, 1.209e-5
-1.527, 1.217e-5
-1.528, 1.227e-5
-1.529, 1.236e-5
-1.530, 1.246e-5
-1.531, 1.256e-5
-1.532, 1.265e-5
-1.533, 1.275e-5
-1.534, 1.286e-5
-1.535, 1.296e-5
-1.536, 1.307e-5
-1.537, 1.317e-5
-1.538, 1.327e-5
-1.539, 1.338e-5
-1.540, 1.349e-5
-1.541, 1.360e-5
-1.542, 1.372e-5
-1.543, 1.383e-5
-1.544, 1.395e-5
-1.545, 1.406e-5
-1.546, 1.418e-5
-1.547, 1.430e-5
-1.548, 1.442e-5
-1.549, 1.454e-5
-1.550, 1.467e-5
-1.551, 1.480e-5
-1.552, 1.493e-5
-1.553, 1.506e-5
-1.554, 1.520e-5
-1.555, 1.534e-5
-1.556, 1.548e-5
-1.557, 1.561e-5
-1.558, 1.576e-5
-1.559, 1.590e-5
-1.560, 1.605e-5
-1.561, 1.621e-5
-1.562, 1.636e-5
-1.563, 1.652e-5
-1.564, 1.668e-5
-1.565, 1.685e-5
-1.566, 1.701e-5
-1.567, 1.719e-5
-1.568, 1.736e-5
-1.569, 1.753e-5
-1.570, 1.771e-5
-1.571, 1.790e-5
-1.572, 1.809e-5
-1.573, 1.828e-5
-1.574, 1.848e-5
-1.575, 1.869e-5
-1.576, 1.890e-5
-1.577, 1.911e-5
-1.578, 1.933e-5
-1.579, 1.955e-5
-1.580, 1.979e-5
-1.581, 2.002e-5
-1.582, 2.027e-5
-1.583, 2.052e-5
-1.584, 2.077e-5
-1.585, 2.104e-5
-1.586, 2.131e-5
-1.587, 2.160e-5
-1.588, 2.189e-5
-1.589, 2.218e-5
-1.590, 2.249e-5
-1.591, 2.281e-5
-1.592, 2.314e-5
-1.593, 2.348e-5
-1.594, 2.382e-5
-1.595, 2.419e-5
-1.596, 2.456e-5
-1.597, 2.495e-5
-1.598, 2.536e-5
-1.599, 2.577e-5
-1.600, 2.619e-5
-1.601, 2.664e-5
-1.602, 2.710e-5
-1.603, 2.758e-5
-1.604, 2.806e-5
-1.605, 2.858e-5
-1.606, 2.911e-5
-1.607, 2.966e-5
-1.608, 3.024e-5
-1.609, 3.082e-5
-1.610, 3.144e-5
-1.611, 3.210e-5
-1.612, 3.278e-5
-1.613, 3.348e-5
-1.614, 3.412e-5
-1.615, 3.484e-5
-1.616, 3.563e-5
-1.617, 3.646e-5
-1.618, 3.732e-5
-1.619, 3.821e-5
-1.620, 3.914e-5
-1.621, 4.013e-5
-1.622, 4.115e-5
-1.623, 4.220e-5
-1.624, 4.329e-5
-1.625, 4.443e-5
-1.626, 4.563e-5
-1.627, 4.689e-5
-1.628, 4.814e-5
-1.629, 4.920e-5
-1.630, 5.058e-5
-1.631, 5.206e-5
-1.632, 5.363e-5
-1.633, 5.528e-5
-1.634, 5.699e-5
-1.635, 5.879e-5
-1.636, 6.067e-5
-1.637, 6.264e-5
-1.638, 6.472e-5
-1.639, 6.691e-5
-1.640, 6.916e-5
-1.641, 7.151e-5
-1.642, 7.399e-5
-1.643, 7.657e-5
-1.644, 7.928e-5
-1.645, 8.211e-5
-1.646, 8.507e-5
-1.647, 8.817e-5
-1.648, 9.141e-5
-1.649, 9.479e-5
-1.650, 9.833e-5
-1.651, 1.020e-4
-1.652, 1.059e-4
-1.653, 1.099e-4
-1.654, 1.141e-4
-1.655, 1.185e-4
-1.656, 1.231e-4
-1.657, 1.279e-4
-1.658, 1.329e-4
-1.659, 1.381e-4
-1.660, 1.436e-4
-1.661, 1.492e-4
-1.662, 1.552e-4
-1.663, 1.613e-4
-1.664, 1.677e-4
-1.665, 1.744e-4
-1.666, 1.813e-4
-1.667, 1.885e-4
-1.668, 1.961e-4
-1.669, 2.039e-4
-1.670, 2.120e-4
-1.671, 2.204e-4
-1.672, 2.291e-4
-1.673, 2.382e-4
-1.674, 2.474e-4
-1.675, 2.570e-4
-1.676, 2.671e-4
-1.677, 2.775e-4
-1.678, 2.881e-4
-1.679, 2.993e-4
-1.680, 3.110e-4
-1.681, 3.231e-4
-1.682, 3.355e-4
-1.683, 3.484e-4
-1.684, 3.616e-4
-1.685, 3.753e-4
-1.686, 3.894e-4
-1.687, 4.040e-4
-1.688, 4.189e-4
-1.689, 4.344e-4
-1.690, 4.504e-4
-1.691, 4.668e-4
-1.692, 4.836e-4
-1.693, 5.009e-4
-1.694, 5.187e-4
-1.695, 5.370e-4
-1.696, 5.558e-4
-1.697, 5.750e-4
-1.698, 5.947e-4
-1.699, 6.150e-4
-1.700, 6.358e-4
-1.701, 6.572e-4
-1.702, 6.790e-4
-1.703, 7.013e-4
-1.704, 7.242e-4
-1.705, 7.475e-4
-1.706, 7.713e-4
-1.707, 7.957e-4
-1.708, 8.207e-4
-1.709, 8.462e-4
-1.710, 8.721e-4
-1.711, 8.987e-4
-1.712, 9.258e-4
-1.713, 9.535e-4
-1.714, 9.816e-4
-1.715, 1.007e-3
-1.716, 1.011e-3
-1.717, 1.011e-3
-1.718, 1.011e-3
-1.719, 1.011e-3
-1.720, 1.011e-3
-1.721, 1.011e-3
-1.722, 1.011e-3
-1.723, 1.011e-3
-1.724, 1.011e-3
-1.725, 1.011e-3
-1.726, 1.011e-3
-1.727, 1.011e-3
-1.728, 1.011e-3
-1.729, 1.011e-3
-1.730, 1.011e-3
-1.731, 1.011e-3
-1.732, 1.011e-3
-1.733, 1.011e-3
-1.734, 1.011e-3
-1.735, 1.011e-3
-1.736, 1.011e-3
-1.737, 1.011e-3
-1.738, 1.011e-3
-1.739, 1.011e-3
-1.740, 1.011e-3
-1.741, 1.011e-3
-1.742, 1.011e-3
-1.743, 1.011e-3
-1.744, 1.011e-3
-1.745, 1.011e-3
-1.746, 1.011e-3
-1.747, 1.011e-3
-1.748, 1.011e-3
-1.749, 1.011e-3
-1.750, 1.011e-3
-1.751, 1.011e-3
-1.752, 1.011e-3
-1.753, 1.011e-3
-1.754, 1.011e-3
-1.755, 1.011e-3
-1.756, 1.011e-3
-1.757, 1.011e-3
-1.758, 1.011e-3
-1.759, 1.011e-3
-1.760, 1.011e-3
-1.761, 1.011e-3
-1.762, 1.011e-3
-1.763, 1.011e-3
-1.764, 1.011e-3
-1.765, 1.011e-3
-1.766, 1.011e-3
-1.767, 1.011e-3
-1.768, 1.011e-3
-1.769, 1.011e-3
-1.770, 1.011e-3
-1.771, 1.011e-3
-1.772, 1.011e-3
-1.773, 1.011e-3
-1.774, 1.011e-3
-1.775, 1.011e-3
-1.776, 1.011e-3
-1.777, 1.011e-3
-1.778, 1.011e-3
-1.779, 1.011e-3
-1.780, 1.011e-3
-1.781, 1.011e-3
-1.782, 1.011e-3
-1.783, 1.011e-3
-1.784, 1.011e-3
-1.785, 1.011e-3
-1.786, 1.011e-3
-1.787, 1.011e-3
-1.788, 1.011e-3
-1.789, 1.011e-3
-1.790, 1.011e-3
-1.791, 1.011e-3
-1.792, 1.011e-3
-1.793, 1.011e-3
-1.794, 1.011e-3
-1.795, 1.011e-3
-1.796, 1.011e-3
-1.797, 1.011e-3
-1.798, 1.011e-3
-1.799, 1.011e-3
-1.800, 1.011e-3
-1.801, 1.011e-3
-1.802, 1.011e-3
-1.803, 1.011e-3
-1.804, 1.011e-3
-1.805, 1.011e-3
-1.806, 1.011e-3
-1.807, 1.011e-3
-1.808, 1.011e-3
-1.809, 1.011e-3
-1.810, 1.011e-3
-1.811, 1.011e-3
-1.812, 1.011e-3
-1.813, 1.011e-3
-1.814, 1.011e-3
-1.815, 1.011e-3
-1.816, 1.011e-3
-1.817, 1.011e-3
-1.818, 1.011e-3
-1.819, 1.011e-3
-1.820, 1.011e-3
-1.821, 1.011e-3
-1.822, 1.011e-3
-1.823, 1.011e-3
-1.824, 1.011e-3
-1.825, 1.011e-3
-1.826, 1.011e-3
-1.827, 1.011e-3
-1.828, 1.011e-3
-1.829, 1.011e-3
-1.830, 1.011e-3
-1.831, 1.011e-3
-1.832, 1.011e-3
-1.833, 1.011e-3
-1.834, 1.011e-3
-1.835, 1.011e-3
-1.836, 1.011e-3
-1.837, 1.011e-3
-1.838, 1.011e-3
-1.839, 1.011e-3
-1.840, 1.011e-3
-1.841, 1.011e-3
-1.842, 1.011e-3
-1.843, 1.011e-3
-1.844, 1.011e-3
-1.845, 1.011e-3
-1.846, 1.011e-3
-1.847, 1.011e-3
-1.848, 1.011e-3
-1.849, 1.011e-3
-1.850, 1.011e-3
-1.851, 1.011e-3
-1.852, 1.011e-3
-1.853, 1.011e-3
-1.854, 1.011e-3
-1.855, 1.011e-3
-1.856, 1.011e-3
-1.857, 1.011e-3
-1.858, 1.011e-3
-1.859, 1.011e-3
-1.860, 1.011e-3
-1.861, 1.011e-3
-1.862, 1.011e-3
-1.863, 1.011e-3
-1.864, 1.011e-3
-1.865, 1.011e-3
-1.866, 1.011e-3
-1.867, 1.011e-3
-1.868, 1.011e-3
-1.869, 1.011e-3
-1.870, 1.011e-3
-1.871, 1.011e-3
-1.872, 1.011e-3
-1.873, 1.011e-3
-1.874, 1.011e-3
-1.875, 1.011e-3
-1.876, 1.011e-3
-1.877, 1.011e-3
-1.878, 1.011e-3
-1.879, 1.011e-3
-1.880, 1.011e-3
-1.881, 1.011e-3
-1.882, 1.011e-3
-1.883, 1.011e-3
-1.884, 1.011e-3
-1.885, 1.011e-3
-1.886, 1.011e-3
-1.887, 1.011e-3
-1.888, 1.011e-3
-1.889, 1.011e-3
-1.890, 1.011e-3
-1.891, 1.011e-3
-1.892, 1.011e-3
-1.893, 1.011e-3
-1.894, 1.011e-3
-1.895, 1.011e-3
-1.896, 1.011e-3
-1.897, 1.011e-3
-1.898, 1.011e-3
-1.899, 1.011e-3
