Potential V vs RHE, Current mA cm-2
0.013299999999999867,-0.4384190318281749
0.012299999999999978,-2.095187435100119
0.011299999999999866,-3.317497998183511
0.010299999999999976,-4.23281620919619
0.009299999999999864,-4.974124930325469
0.008299999999999974,-5.497568111275533
0.007299999999999862,-5.9347139029338285
0.006299999999999972,-6.282732882700628
0.00529999999999986,-6.6760226240631075
0.0042999999999999705,-7.024041603829907
0.0032999999999998586,-7.37347529489657
0.0022999999999999687,-7.679052935667419
0.0012999999999998568,-7.984630576438266
0.00029999999999996696,-8.202496116617484
-0.000700000000000145,-8.4203616567967
-0.0017000000000000348,-8.55051509638428
-0.0027000000000001467,-8.68208324727173
-0.0037000000000000366,-8.725939297567548
-0.0047000000000001485,-8.85609273715513
-0.005700000000000038,-8.987660888042578
-0.00670000000000015,-9.161670377925978
-0.00770000000000004,-9.335679867809377
-0.008700000000000152,-9.55496011928846
-0.009700000000000042,-9.685113558876042
-0.010700000000000154,-9.772825659467674
-0.011700000000000044,-9.81668170976349
-0.012700000000000156,-9.85912304875944
-0.013700000000000045,-9.85912304875944
-0.014700000000000157,-9.902979099055257
-0.015700000000000047,-9.99069119964689
-0.01670000000000016,-10.164700689530287
-0.01770000000000005,-10.296268840417738
-0.01870000000000016,-10.470278330301136
-0.01970000000000005,-10.601846481188586
-0.020700000000000163,-10.644287820184536
-0.021700000000000053,-10.644287820184536
-0.022700000000000164,-10.688143870480351
-0.023700000000000054,-10.688143870480351
-0.024700000000000166,-10.731999920776168
-0.025700000000000056,-10.819712021367803
-0.026700000000000168,-10.949865460955383
-0.027700000000000058,-11.081433611842833
-0.02870000000000017,-11.211587051430415
-0.02970000000000006,-11.299299152022046
-0.03070000000000017,-11.343155202317865
-0.03170000000000006,-11.299299152022046
-0.03270000000000017,-11.299299152022046
-0.03370000000000006,-11.299299152022046
-0.034700000000000175,-11.299299152022046
-0.035700000000000065,-11.385596541313816
-0.03670000000000018,-11.473308641905447
-0.03770000000000007,-11.604876792792895
-0.03870000000000018,-11.73503023238048
-0.03970000000000007,-11.778886282676295
-0.04070000000000018,-11.82274233297211
-0.04170000000000007,-11.778886282676295
-0.04270000000000018,-11.73503023238048
-0.04370000000000007,-11.73503023238048
-0.044700000000000184,-11.73503023238048
-0.045700000000000074,-11.778886282676295
-0.046700000000000186,-11.86659838326793
-0.047700000000000076,-11.952895772559694
-0.04870000000000019,-12.084463923447142
-0.04970000000000008,-12.084463923447142
-0.05070000000000019,-12.12831997374296
-0.05170000000000008,-12.084463923447142
-0.05270000000000019,-12.040607873151327
-0.05370000000000008,-11.952895772559694
-0.05470000000000019,-11.952895772559694
-0.05570000000000008,-11.952895772559694
-0.056700000000000195,-12.040607873151327
-0.057700000000000085,-12.12831997374296
-0.058700000000000196,-12.214617363034726
-0.059700000000000086,-12.214617363034726
-0.0607000000000002,-12.214617363034726
-0.06170000000000009,-12.170761312738911
-0.0627000000000002,-12.084463923447142
-0.06370000000000009,-11.996751822855511
-0.0647000000000002,-11.996751822855511
-0.06570000000000009,-11.996751822855511
-0.0667000000000002,-12.084463923447142
-0.0677000000000001,-12.12831997374296
-0.0687000000000002,-12.170761312738911
-0.0697000000000001,-12.170761312738911
-0.07070000000000021,-12.12831997374296
-0.0717000000000001,-12.040607873151327
-0.07270000000000021,-11.952895772559694
-0.0737000000000001,-11.82274233297211
-0.07470000000000021,-11.778886282676295
-0.0757000000000001,-11.778886282676295
-0.07670000000000021,-11.82274233297211
-0.0777000000000001,-11.82274233297211
-0.07870000000000021,-11.909039722263879
-0.0797000000000001,-11.86659838326793
-0.08070000000000022,-11.82274233297211
-0.0817000000000001,-11.73503023238048
-0.08270000000000022,-11.604876792792895
-0.08370000000000011,-11.473308641905447
-0.08470000000000022,-11.473308641905447
-0.08570000000000011,-11.42945259160963
-0.08670000000000022,-11.517164692201263
-0.08770000000000011,-11.517164692201263
-0.08870000000000022,-11.604876792792895
-0.08970000000000011,-11.56102074249708
-0.09070000000000022,-11.473308641905447
-0.09170000000000011,-11.385596541313816
-0.09270000000000023,-11.299299152022046
-0.09370000000000012,-11.1677310011346
-0.09470000000000023,-11.123874950838783
-0.09570000000000012,-11.123874950838783
-0.09670000000000023,-11.123874950838783
-0.09770000000000012,-11.1677310011346
-0.09870000000000023,-11.1677310011346
-0.09970000000000012,-11.1677310011346
-0.10070000000000023,-11.081433611842833
-0.10170000000000012,-10.993721511251199
-0.10270000000000024,-10.906009410659568
-0.10370000000000013,-10.775855971071984
-0.10470000000000024,-10.775855971071984
-0.10570000000000013,-10.731999920776168
-0.10670000000000024,-10.731999920776168
-0.10770000000000013,-10.731999920776168
-0.10870000000000024,-10.731999920776168
-0.10970000000000013,-10.731999920776168
-0.11070000000000024,-10.644287820184536
-0.11170000000000013,-10.557990430892769
-0.11270000000000002,-10.470278330301136
-0.11370000000000013,-10.382566229709504
-0.11470000000000002,-10.340124890713554
-0.11570000000000014,-10.340124890713554
-0.11670000000000003,-10.340124890713554
-0.11770000000000014,-10.382566229709504
-0.11870000000000003,-10.42642228000532
-0.11970000000000014,-10.382566229709504
-0.12070000000000003,-10.382566229709504
-0.12170000000000014,-10.25241279012192
-0.12270000000000003,-10.164700689530287
-0.12370000000000014,-10.034547249942705
-0.12470000000000003,-9.99069119964689
-0.12570000000000014,-9.99069119964689
-0.12670000000000003,-9.99069119964689
-0.12770000000000015,-10.034547249942705
-0.12870000000000004,-10.078403300238522
-0.12970000000000015,-10.078403300238522
-0.13070000000000004,-10.034547249942705
-0.13170000000000015,-9.946835149351072
-0.13270000000000004,-9.85912304875944
-0.13370000000000015,-9.728969609171857
-0.13470000000000004,-9.728969609171857
-0.13570000000000015,-9.685113558876042
-0.13670000000000004,-9.728969609171857
-0.13770000000000016,-9.772825659467674
-0.13870000000000005,-9.85912304875944
-0.13970000000000016,-9.85912304875944
-0.14070000000000005,-9.772825659467674
-0.14170000000000016,-9.685113558876042
-0.14270000000000005,-9.641257508580225
-0.14370000000000016,-9.55496011928846
-0.14470000000000005,-9.511104068992642
-0.14570000000000016,-9.511104068992642
-0.14670000000000005,-9.55496011928846
-0.14770000000000016,-9.59740145828441
-0.14870000000000005,-9.641257508580225
-0.14970000000000017,-9.685113558876042
-0.15070000000000006,-9.641257508580225
-0.15170000000000017,-9.59740145828441
-0.15270000000000006,-9.511104068992642
-0.15370000000000017,-9.423391968401008
-0.15470000000000006,-9.423391968401008
-0.15570000000000017,-9.423391968401008
-0.15670000000000006,-9.423391968401008
-0.15770000000000017,-9.467248018696827
-0.15870000000000006,-9.55496011928846
-0.15970000000000018,-9.511104068992642
-0.16070000000000007,-9.511104068992642
-0.16170000000000018,-9.423391968401008
-0.16270000000000007,-9.335679867809377
-0.16370000000000018,-9.293238528813426
-0.16470000000000007,-9.293238528813426
-0.16570000000000018,-9.293238528813426
-0.16670000000000007,-9.335679867809377
-0.16770000000000018,-9.379535918105192
-0.16870000000000007,-9.467248018696827
-0.16970000000000018,-9.467248018696827
-0.17070000000000007,-9.423391968401008
-0.17170000000000019,-9.379535918105192
-0.17270000000000008,-9.293238528813426
-0.1737000000000002,-9.161670377925978
-0.17470000000000008,-9.161670377925978
-0.1757000000000002,-9.161670377925978
-0.17670000000000008,-9.205526428221793
-0.1777000000000002,-9.293238528813426
-0.17870000000000008,-9.335679867809377
-0.1797000000000002,-9.335679867809377
-0.18070000000000008,-9.335679867809377
-0.1817000000000002,-9.24938247851761
-0.18270000000000008,-9.205526428221793
-0.1837000000000002,-9.11781432763016
-0.1847000000000001,-9.073958277334345
-0.1857000000000002,-9.073958277334345
-0.1867000000000001,-9.11781432763016
-0.1877000000000002,-9.205526428221793
-0.1887000000000001,-9.24938247851761
-0.1897000000000002,-9.24938247851761
-0.1907000000000001,-9.205526428221793
-0.1917000000000001,-9.161670377925978
-0.19269999999999998,-9.073958277334345
-0.1937000000000001,-8.987660888042578
-0.19469999999999998,-8.987660888042578
-0.1957000000000001,-8.987660888042578
-0.19669999999999999,-8.987660888042578
-0.1977000000000001,-9.031516938338395
-0.1987,-9.073958277334345
-0.1997000000000001,-9.073958277334345
-0.2007,-9.031516938338395
-0.2017000000000001,-8.943804837746763
-0.2027,-8.899948787450944
-0.2037000000000001,-8.812236686859313
-0.2047,-8.769795347863363
-0.2057000000000001,-8.769795347863363
-0.2067,-8.85609273715513
-0.2077000000000001,-8.85609273715513
-0.2087,-8.943804837746763
-0.2097000000000001,-8.943804837746763
-0.2107,-8.943804837746763
-0.2117000000000001,-8.85609273715513
-0.2127,-8.812236686859313
-0.2137000000000001,-8.68208324727173
-0.2147,-8.68208324727173
-0.2157000000000001,-8.68208324727173
-0.2167,-8.68208324727173
-0.21770000000000012,-8.725939297567548
-0.2187,-8.725939297567548
-0.21970000000000012,-8.725939297567548
-0.2207,-8.68208324727173
-0.22170000000000012,-8.594371146680096
-0.2227,-8.508073757388331
-0.22370000000000012,-8.4203616567967
-0.2247,-8.4203616567967
-0.22570000000000012,-8.4203616567967
-0.2267,-8.4203616567967
-0.22770000000000012,-8.464217707092514
-0.22870000000000001,-8.508073757388331
-0.22970000000000013,-8.508073757388331
-0.23070000000000002,-8.464217707092514
-0.23170000000000013,-8.376505606500881
-0.23270000000000002,-8.288793505909249
-0.23370000000000013,-8.246352166913299
-0.23470000000000002,-8.202496116617484
-0.23570000000000013,-8.158640066321666
-0.23670000000000002,-8.202496116617484
-0.2376999999999999,-8.246352166913299
-0.23870000000000002,-8.288793505909249
-0.2396999999999999,-8.288793505909249
-0.24070000000000003,-8.246352166913299
-0.24169999999999991,-8.202496116617484
-0.24270000000000003,-8.070927965730034
-0.24369999999999992,-7.984630576438266
-0.24470000000000003,-7.940774526142452
-0.24569999999999992,-7.940774526142452
-0.24670000000000003,-7.984630576438266
-0.24769999999999992,-7.984630576438266
-0.24870000000000003,-8.070927965730034
-0.24969999999999992,-8.070927965730034
-0.25070000000000003,-8.027071915434218
-0.2516999999999999,-7.940774526142452
-0.25270000000000004,-7.853062425550818
-0.2536999999999999,-7.7653503249591855
-0.25470000000000004,-7.722908985963235
-0.2556999999999999,-7.722908985963235
-0.25670000000000004,-7.7653503249591855
-0.25769999999999993,-7.809206375255003
-0.25870000000000004,-7.853062425550818
-0.25969999999999993,-7.853062425550818
-0.26070000000000004,-7.809206375255003
-0.26169999999999993,-7.7653503249591855
-0.26270000000000004,-7.679052935667419
-0.26369999999999993,-7.591340835075788
-0.26470000000000005,-7.5474847847799715
-0.26569999999999994,-7.591340835075788
-0.26670000000000005,-7.635196885371603
-0.26769999999999994,-7.679052935667419
-0.26870000000000005,-7.722908985963235
-0.26969999999999994,-7.679052935667419
-0.27070000000000005,-7.679052935667419
-0.27169999999999994,-7.591340835075788
-0.27270000000000005,-7.5474847847799715
-0.27369999999999994,-7.461187395488204
-0.27470000000000006,-7.461187395488204
-0.27569999999999995,-7.461187395488204
-0.27670000000000006,-7.50504344578402
-0.27769999999999995,-7.50504344578402
-0.27870000000000006,-7.591340835075788
-0.27969999999999995,-7.591340835075788
-0.28070000000000006,-7.591340835075788
-0.28169999999999995,-7.5474847847799715
-0.28270000000000006,-7.461187395488204
-0.28369999999999995,-7.37347529489657
-0.28470000000000006,-7.4173313451923875
-0.28569999999999995,-7.4173313451923875
-0.28670000000000007,-7.461187395488204
-0.28769999999999996,-7.50504344578402
-0.28870000000000007,-7.5474847847799715
-0.28969999999999996,-7.5474847847799715
-0.29070000000000007,-7.5474847847799715
-0.29169999999999996,-7.50504344578402
-0.29270000000000007,-7.461187395488204
-0.29369999999999996,-7.37347529489657
-0.2947000000000001,-7.37347529489657
-0.29569999999999996,-7.37347529489657
-0.2967000000000001,-7.4173313451923875
-0.29769999999999996,-7.50504344578402
-0.2987000000000001,-7.5474847847799715
-0.29969999999999997,-7.591340835075788
-0.3007000000000001,-7.5474847847799715
-0.30169999999999997,-7.50504344578402
-0.3027000000000001,-7.461187395488204
-0.30369999999999997,-7.37347529489657
-0.3047000000000001,-7.37347529489657
-0.30569999999999997,-7.4173313451923875
-0.3067000000000001,-7.461187395488204
-0.3077,-7.5474847847799715
-0.3087000000000001,-7.591340835075788
-0.3097,-7.635196885371603
-0.3107000000000001,-7.591340835075788
-0.3117,-7.5474847847799715
-0.3127000000000001,-7.50504344578402
-0.3137,-7.4173313451923875
-0.3147000000000001,-7.4173313451923875
-0.3157,-7.461187395488204
-0.3167000000000001,-7.50504344578402
-0.3177,-7.591340835075788
-0.3187000000000001,-7.679052935667419
-0.3197,-7.679052935667419
-0.3207000000000001,-7.679052935667419
-0.3217,-7.679052935667419
-0.3227000000000001,-7.591340835075788
-0.3237,-7.5474847847799715
-0.3247000000000001,-7.591340835075788
-0.3257,-7.591340835075788
-0.3267000000000001,-7.679052935667419
-0.3277,-7.7653503249591855
-0.3287000000000001,-7.853062425550818
-0.3297,-7.853062425550818
-0.3307000000000001,-7.853062425550818
-0.3317,-7.853062425550818
-0.3327000000000001,-7.809206375255003
-0.3337,-7.722908985963235
-0.3347000000000001,-7.7653503249591855
-0.3357,-7.7653503249591855
-0.3367000000000001,-7.853062425550818
-0.3377,-7.940774526142452
-0.3387000000000001,-8.027071915434218
-0.3397,-8.027071915434218
-0.3407000000000001,-8.070927965730034
-0.3417,-8.027071915434218
-0.3427000000000001,-7.984630576438266
-0.3437,-7.940774526142452
-0.3447000000000001,-7.940774526142452
-0.3457,-7.984630576438266
-0.3467000000000001,-8.070927965730034
-0.3477,-8.158640066321666
-0.3487000000000001,-8.288793505909249
-0.3497,-8.332649556205066
-0.3507000000000001,-8.332649556205066
-0.3517,-8.288793505909249
-0.3527000000000001,-8.332649556205066
-0.3537,-8.246352166913299
-0.3547000000000001,-8.288793505909249
-0.3557,-8.332649556205066
-0.35670000000000013,-8.4203616567967
-0.3577,-8.55051509638428
-0.35870000000000013,-8.638227196975913
-0.3597,-8.725939297567548
-0.36070000000000013,-8.725939297567548
-0.3617,-8.725939297567548
-0.3626999999999999,-8.725939297567548
-0.3637,-8.68208324727173
-0.3646999999999999,-8.68208324727173
-0.3657,-8.769795347863363
-0.3666999999999999,-8.85609273715513
-0.3677,-8.987660888042578
-0.3686999999999999,-9.11781432763016
-0.36970000000000003,-9.205526428221793
-0.3706999999999999,-9.24938247851761
-0.37170000000000003,-9.24938247851761
-0.3726999999999999,-9.205526428221793
-0.37370000000000003,-9.205526428221793
-0.3746999999999999,-9.293238528813426
-0.37570000000000003,-9.293238528813426
-0.3766999999999999,-9.423391968401008
-0.37770000000000004,-9.511104068992642
-0.3786999999999999,-9.641257508580225
-0.37970000000000004,-9.728969609171857
-0.3806999999999999,-9.772825659467674
-0.38170000000000004,-9.728969609171857
-0.38269999999999993,-9.772825659467674
-0.38370000000000004,-9.772825659467674
-0.38469999999999993,-9.85912304875944
-0.38570000000000004,-9.946835149351072
-0.38669999999999993,-10.078403300238522
-0.38770000000000004,-10.208556739826104
-0.38869999999999993,-10.340124890713554
-0.38970000000000005,-10.470278330301136
-0.39069999999999994,-10.514134380596953
-0.39170000000000005,-10.557990430892769
-0.39269999999999994,-10.601846481188586
-0.39370000000000005,-10.601846481188586
-0.39469999999999994,-10.644287820184536
-0.39570000000000005,-10.731999920776168
-0.39669999999999994,-10.863568071663616
-0.39770000000000005,-10.993721511251199
-0.39869999999999994,-11.1677310011346
-0.39970000000000006,-11.299299152022046
-0.40069999999999995,-11.385596541313816
-0.40170000000000006,-11.42945259160963
-0.40269999999999995,-11.517164692201263
-0.40370000000000006,-11.517164692201263
-0.40469999999999995,-11.604876792792895
-0.40570000000000006,-11.73503023238048
-0.40669999999999995,-11.909039722263879
-0.40770000000000006,-12.084463923447142
-0.40869999999999995,-12.302329463626359
-0.40970000000000006,-12.432482903213943
-0.41069999999999995,-12.520195003805576
-0.41170000000000007,-12.607907104397206
-0.41269999999999996,-12.694204493688973
-0.41370000000000007,-12.781916594280606
-0.41469999999999996,-12.913484745168056
-0.41570000000000007,-12.99978213445982
-0.41669999999999996,-13.217647674639037
-0.41770000000000007,-13.436927926118118
-0.41869999999999996,-13.654793466297335
-0.4197000000000001,-13.784946905884919
-0.42069999999999996,-13.960371107068182
-0.4217000000000001,-14.046668496359947
-0.42269999999999996,-14.13438059695158
-0.4237000000000001,-14.175407224647667
-0.42469999999999997,-14.30273124163552
-0.4257000000000001,-14.486643710617974
-0.42669999999999997,-14.65640906660178
-0.4277000000000001,-14.925204213576137
-0.42869999999999997,-15.137410908555893
-0.4297000000000001,-15.349617603535648
-0.43069999999999997,-15.533530072518102
-0.4317000000000001,-15.70329542850191
-0.4327,-15.87306078448571
-0.4337000000000001,-16.014531914472215
-0.4347,-16.22673860945197
-0.4357000000000001,-16.438945304431726
-0.4367,-16.70774045140608
-0.4377000000000001,-16.962388485381787
-0.4387,-17.231183632356142
-0.4397000000000001,-17.40094898833995
-0.4407,-17.669744135314307
-0.4417000000000001,-17.797068152302163
-0.4427,-17.966833508285966
-0.4437000000000001,-18.15074597726842
-0.4447,-18.362952672248177
-0.4457000000000001,-18.589306480226583
-0.4467,-18.80151317520634
-0.4477000000000001,-19.056161209182044
-0.4487,-19.367397695152352
-0.4497000000000001,-19.636192842126707
-0.4507,-19.848399537106463
-0.4517000000000001,-20.10304757108217
-0.4527,-20.329401379060574
-0.4537000000000001,-20.541608074040333
-0.4547,-20.85284456001064
-0.4557000000000001,-21.107492593986347
-0.4567,-21.418729079956652
-0.4577000000000001,-21.772406904922917
-0.4587,-22.15437895588647
-0.4597000000000001,-22.550498119848687
-0.4607,-22.904175944814945
-0.4617000000000001,-23.2012653177866
-0.4627,-23.51250180375691
-0.4637000000000001,-23.767149837732617
-0.4647,-24.078386323702922
-0.4657000000000001,-24.432064148669184
-0.4667,-24.814036199632742
-0.4677000000000001,-25.210155363594954
-0.4687,-25.648715866553115
-0.4697000000000001,-26.087276369511276
-0.4707,-26.483395533473487
-0.4717000000000001,-26.822926245441096
-0.4727,-27.176604070407354
-0.4737000000000001,-27.487840556377662
-0.4747,-27.869812607341224
-0.4757000000000001,-28.265931771303435
-0.4767,-28.704492274261593
-0.4777000000000001,-29.18549411621571
-0.4787,-29.66649595816982
-0.4797000000000001,-30.10505646112798
-0.4807,-30.487028512091538
-0.48170000000000013,-30.88314767605375
-0.4827,-31.27926684001596
-0.48370000000000013,-31.717827342974125
-0.4847,-32.24127052392419
-0.48570000000000013,-32.807155043870196
-0.4867,-33.45792224180811
-0.4876999999999999,-34.10868943974604
-0.4887,-34.8018979766799
-0.4896999999999999,-35.46681228761647
-0.4907,-36.07513814655844
-0.4916999999999999,-36.6834640055004
-0.4927,-37.291789864442364
-0.4936999999999999,-37.90011572338433
-0.49470000000000003,-38.5650300343209
-0.4956999999999999,-39.21579723225882
-0.49670000000000003,-39.95144710818864
-0.4976999999999999,-40.701244097117105
-0.49870000000000003,-41.43689397304693
-0.4996999999999999,-42.087661170984845
-0.5007,-42.752575481921404
-0.5016999999999999,-43.36090134086337
-0.5027,-44.054109877797245
-0.5036999999999999,-44.66243573673921
-0.5047,-45.45467406466363
-0.5056999999999999,-46.27520661858535
-0.5067,-47.19476896349763
-0.5076999999999999,-48.071889969413945
-0.5087,-48.97730520132757
-0.5096999999999999,-49.89686754623985
-0.5107,-50.85887123014807
