Dec. 25, 2024   23:51:50
Cyclic Voltammetry
File: c:/users/guazh/data/banditlqround7_x0exp136_r20/2024-12-24-exp742\exp742-2024-12-25t23_35_48-h2koh\exp742_cv_sr_700mvs_efin_-1600mv.bin
Data Source:  Experiment
Instrument Model:  CHI760E
Header: CV ran at 700 mVs
Note: 

Init E (V) = -1
High E (V) = -1
Low E (V) = -1.6
Final E (V) = -1
Init P/N = N
Scan Rate (V/s) = 0.7
Segment = 3
Sample Interval (V) = 0.001
Quiet Time (sec) = 2
Sensitivity (A/V) = 0.01
Comp R (ohm) = 1.5

Results:

Channel 1:
Segment 1:

Segment 2:

Segment 3:

Potential/V, Current/A

-1.000, 3.407e-5
-1.001, 1.420e-4
-1.002, 2.283e-4
-1.003, 2.961e-4
-1.004, 3.578e-4
-1.005, 4.102e-4
-1.006, 4.534e-4
-1.007, 4.935e-4
-1.008, 5.243e-4
-1.009, 5.551e-4
-1.010, 5.736e-4
-1.011, 5.921e-4
-1.012, 6.075e-4
-1.013, 6.199e-4
-1.014, 6.384e-4
-1.015, 6.507e-4
-1.016, 6.661e-4
-1.017, 6.846e-4
-1.018, 6.969e-4
-1.019, 7.154e-4
-1.020, 7.247e-4
-1.021, 7.370e-4
-1.022, 7.401e-4
-1.023, 7.463e-4
-1.024, 7.524e-4
-1.025, 7.586e-4
-1.026, 7.648e-4
-1.027, 7.740e-4
-1.028, 7.863e-4
-1.029, 7.956e-4
-1.030, 8.079e-4
-1.031, 8.172e-4
-1.032, 8.233e-4
-1.033, 8.295e-4
-1.034, 8.326e-4
-1.035, 8.357e-4
-1.036, 8.357e-4
-1.037, 8.418e-4
-1.038, 8.449e-4
-1.039, 8.542e-4
-1.040, 8.634e-4
-1.041, 8.727e-4
-1.042, 8.819e-4
-1.043, 8.881e-4
-1.044, 8.943e-4
-1.045, 8.973e-4
-1.046, 8.973e-4
-1.047, 8.973e-4
-1.048, 8.943e-4
-1.049, 9.004e-4
-1.050, 9.004e-4
-1.051, 9.066e-4
-1.052, 9.158e-4
-1.053, 9.220e-4
-1.054, 9.282e-4
-1.055, 9.313e-4
-1.056, 9.343e-4
-1.057, 9.374e-4
-1.058, 9.343e-4
-1.059, 9.343e-4
-1.060, 9.343e-4
-1.061, 9.374e-4
-1.062, 9.436e-4
-1.063, 9.467e-4
-1.064, 9.528e-4
-1.065, 9.621e-4
-1.066, 9.652e-4
-1.067, 9.652e-4
-1.068, 9.652e-4
-1.069, 9.621e-4
-1.070, 9.590e-4
-1.071, 9.559e-4
-1.072, 9.559e-4
-1.073, 9.559e-4
-1.074, 9.559e-4
-1.075, 9.621e-4
-1.076, 9.652e-4
-1.077, 9.713e-4
-1.078, 9.713e-4
-1.079, 9.713e-4
-1.080, 9.683e-4
-1.081, 9.683e-4
-1.082, 9.621e-4
-1.083, 9.590e-4
-1.084, 9.590e-4
-1.085, 9.590e-4
-1.086, 9.621e-4
-1.087, 9.621e-4
-1.088, 9.652e-4
-1.089, 9.683e-4
-1.090, 9.652e-4
-1.091, 9.621e-4
-1.092, 9.590e-4
-1.093, 9.528e-4
-1.094, 9.467e-4
-1.095, 9.405e-4
-1.096, 9.374e-4
-1.097, 9.343e-4
-1.098, 9.374e-4
-1.099, 9.343e-4
-1.100, 9.374e-4
-1.101, 9.343e-4
-1.102, 9.374e-4
-1.103, 9.343e-4
-1.104, 9.282e-4
-1.105, 9.220e-4
-1.106, 9.158e-4
-1.107, 9.097e-4
-1.108, 9.066e-4
-1.109, 9.066e-4
-1.110, 9.066e-4
-1.111, 9.066e-4
-1.112, 9.066e-4
-1.113, 9.035e-4
-1.114, 9.004e-4
-1.115, 8.943e-4
-1.116, 8.881e-4
-1.117, 8.819e-4
-1.118, 8.727e-4
-1.119, 8.696e-4
-1.120, 8.665e-4
-1.121, 8.665e-4
-1.122, 8.665e-4
-1.123, 8.665e-4
-1.124, 8.696e-4
-1.125, 8.634e-4
-1.126, 8.634e-4
-1.127, 8.603e-4
-1.128, 8.511e-4
-1.129, 8.449e-4
-1.130, 8.388e-4
-1.131, 8.326e-4
-1.132, 8.326e-4
-1.133, 8.326e-4
-1.134, 8.326e-4
-1.135, 8.357e-4
-1.136, 8.357e-4
-1.137, 8.326e-4
-1.138, 8.264e-4
-1.139, 8.203e-4
-1.140, 8.172e-4
-1.141, 8.079e-4
-1.142, 8.048e-4
-1.143, 8.018e-4
-1.144, 8.018e-4
-1.145, 8.048e-4
-1.146, 8.079e-4
-1.147, 8.110e-4
-1.148, 8.110e-4
-1.149, 8.110e-4
-1.150, 8.048e-4
-1.151, 8.018e-4
-1.152, 7.956e-4
-1.153, 7.894e-4
-1.154, 7.863e-4
-1.155, 7.863e-4
-1.156, 7.894e-4
-1.157, 7.894e-4
-1.158, 7.894e-4
-1.159, 7.925e-4
-1.160, 7.894e-4
-1.161, 7.894e-4
-1.162, 7.833e-4
-1.163, 7.802e-4
-1.164, 7.771e-4
-1.165, 7.709e-4
-1.166, 7.709e-4
-1.167, 7.709e-4
-1.168, 7.709e-4
-1.169, 7.771e-4
-1.170, 7.771e-4
-1.171, 7.802e-4
-1.172, 7.802e-4
-1.173, 7.771e-4
-1.174, 7.740e-4
-1.175, 7.679e-4
-1.176, 7.617e-4
-1.177, 7.617e-4
-1.178, 7.586e-4
-1.179, 7.617e-4
-1.180, 7.648e-4
-1.181, 7.679e-4
-1.182, 7.740e-4
-1.183, 7.740e-4
-1.184, 7.740e-4
-1.185, 7.709e-4
-1.186, 7.679e-4
-1.187, 7.648e-4
-1.188, 7.586e-4
-1.189, 7.555e-4
-1.190, 7.524e-4
-1.191, 7.555e-4
-1.192, 7.586e-4
-1.193, 7.617e-4
-1.194, 7.648e-4
-1.195, 7.617e-4
-1.196, 7.586e-4
-1.197, 7.524e-4
-1.198, 7.463e-4
-1.199, 7.401e-4
-1.200, 7.370e-4
-1.201, 7.370e-4
-1.202, 7.370e-4
-1.203, 7.401e-4
-1.204, 7.432e-4
-1.205, 7.463e-4
-1.206, 7.463e-4
-1.207, 7.463e-4
-1.208, 7.432e-4
-1.209, 7.401e-4
-1.210, 7.370e-4
-1.211, 7.309e-4
-1.212, 7.278e-4
-1.213, 7.247e-4
-1.214, 7.278e-4
-1.215, 7.309e-4
-1.216, 7.339e-4
-1.217, 7.401e-4
-1.218, 7.370e-4
-1.219, 7.370e-4
-1.220, 7.339e-4
-1.221, 7.278e-4
-1.222, 7.247e-4
-1.223, 7.154e-4
-1.224, 7.154e-4
-1.225, 7.154e-4
-1.226, 7.154e-4
-1.227, 7.185e-4
-1.228, 7.216e-4
-1.229, 7.278e-4
-1.230, 7.247e-4
-1.231, 7.216e-4
-1.232, 7.154e-4
-1.233, 7.124e-4
-1.234, 7.062e-4
-1.235, 7.031e-4
-1.236, 7.000e-4
-1.237, 6.969e-4
-1.238, 7.000e-4
-1.239, 7.000e-4
-1.240, 7.031e-4
-1.241, 7.031e-4
-1.242, 7.000e-4
-1.243, 6.969e-4
-1.244, 6.939e-4
-1.245, 6.877e-4
-1.246, 6.815e-4
-1.247, 6.784e-4
-1.248, 6.754e-4
-1.249, 6.723e-4
-1.250, 6.784e-4
-1.251, 6.784e-4
-1.252, 6.815e-4
-1.253, 6.784e-4
-1.254, 6.784e-4
-1.255, 6.754e-4
-1.256, 6.661e-4
-1.257, 6.630e-4
-1.258, 6.538e-4
-1.259, 6.538e-4
-1.260, 6.507e-4
-1.261, 6.538e-4
-1.262, 6.538e-4
-1.263, 6.569e-4
-1.264, 6.599e-4
-1.265, 6.569e-4
-1.266, 6.538e-4
-1.267, 6.507e-4
-1.268, 6.445e-4
-1.269, 6.384e-4
-1.270, 6.353e-4
-1.271, 6.322e-4
-1.272, 6.322e-4
-1.273, 6.322e-4
-1.274, 6.322e-4
-1.275, 6.353e-4
-1.276, 6.353e-4
-1.277, 6.353e-4
-1.278, 6.322e-4
-1.279, 6.291e-4
-1.280, 6.229e-4
-1.281, 6.199e-4
-1.282, 6.168e-4
-1.283, 6.137e-4
-1.284, 6.168e-4
-1.285, 6.199e-4
-1.286, 6.229e-4
-1.287, 6.260e-4
-1.288, 6.260e-4
-1.289, 6.291e-4
-1.290, 6.229e-4
-1.291, 6.168e-4
-1.292, 6.137e-4
-1.293, 6.075e-4
-1.294, 6.044e-4
-1.295, 6.044e-4
-1.296, 6.044e-4
-1.297, 6.075e-4
-1.298, 6.106e-4
-1.299, 6.137e-4
-1.300, 6.137e-4
-1.301, 6.137e-4
-1.302, 6.106e-4
-1.303, 6.044e-4
-1.304, 6.014e-4
-1.305, 5.983e-4
-1.306, 5.983e-4
-1.307, 5.983e-4
-1.308, 6.044e-4
-1.309, 6.075e-4
-1.310, 6.106e-4
-1.311, 6.137e-4
-1.312, 6.137e-4
-1.313, 6.106e-4
-1.314, 6.075e-4
-1.315, 6.044e-4
-1.316, 6.014e-4
-1.317, 6.014e-4
-1.318, 6.014e-4
-1.319, 6.044e-4
-1.320, 6.075e-4
-1.321, 6.106e-4
-1.322, 6.137e-4
-1.323, 6.137e-4
-1.324, 6.137e-4
-1.325, 6.137e-4
-1.326, 6.106e-4
-1.327, 6.075e-4
-1.328, 6.014e-4
-1.329, 6.044e-4
-1.330, 6.014e-4
-1.331, 6.044e-4
-1.332, 6.106e-4
-1.333, 6.137e-4
-1.334, 6.199e-4
-1.335, 6.199e-4
-1.336, 6.199e-4
-1.337, 6.199e-4
-1.338, 6.168e-4
-1.339, 6.137e-4
-1.340, 6.106e-4
-1.341, 6.106e-4
-1.342, 6.168e-4
-1.343, 6.168e-4
-1.344, 6.229e-4
-1.345, 6.291e-4
-1.346, 6.322e-4
-1.347, 6.353e-4
-1.348, 6.322e-4
-1.349, 6.291e-4
-1.350, 6.291e-4
-1.351, 6.260e-4
-1.352, 6.260e-4
-1.353, 6.260e-4
-1.354, 6.291e-4
-1.355, 6.353e-4
-1.356, 6.414e-4
-1.357, 6.476e-4
-1.358, 6.507e-4
-1.359, 6.538e-4
-1.360, 6.538e-4
-1.361, 6.507e-4
-1.362, 6.476e-4
-1.363, 6.476e-4
-1.364, 6.476e-4
-1.365, 6.476e-4
-1.366, 6.569e-4
-1.367, 6.630e-4
-1.368, 6.692e-4
-1.369, 6.754e-4
-1.370, 6.784e-4
-1.371, 6.815e-4
-1.372, 6.815e-4
-1.373, 6.784e-4
-1.374, 6.784e-4
-1.375, 6.784e-4
-1.376, 6.815e-4
-1.377, 6.846e-4
-1.378, 6.908e-4
-1.379, 7.000e-4
-1.380, 7.062e-4
-1.381, 7.093e-4
-1.382, 7.154e-4
-1.383, 7.154e-4
-1.384, 7.185e-4
-1.385, 7.185e-4
-1.386, 7.185e-4
-1.387, 7.216e-4
-1.388, 7.247e-4
-1.389, 7.339e-4
-1.390, 7.401e-4
-1.391, 7.494e-4
-1.392, 7.555e-4
-1.393, 7.617e-4
-1.394, 7.648e-4
-1.395, 7.679e-4
-1.396, 7.709e-4
-1.397, 7.709e-4
-1.398, 7.709e-4
-1.399, 7.740e-4
-1.400, 7.771e-4
-1.401, 7.863e-4
-1.402, 7.956e-4
-1.403, 8.048e-4
-1.404, 8.172e-4
-1.405, 8.203e-4
-1.406, 8.295e-4
-1.407, 8.326e-4
-1.408, 8.357e-4
-1.409, 8.388e-4
-1.410, 8.418e-4
-1.411, 8.480e-4
-1.412, 8.542e-4
-1.413, 8.634e-4
-1.414, 8.758e-4
-1.415, 8.881e-4
-1.416, 8.973e-4
-1.417, 9.035e-4
-1.418, 9.097e-4
-1.419, 9.158e-4
-1.420, 9.189e-4
-1.421, 9.220e-4
-1.422, 9.282e-4
-1.423, 9.343e-4
-1.424, 9.467e-4
-1.425, 9.590e-4
-1.426, 9.744e-4
-1.427, 9.868e-4
-1.428, 9.991e-4
-1.429, 1.008e-3
-1.430, 1.014e-3
-1.431, 1.018e-3
-1.432, 1.024e-3
-1.433, 1.030e-3
-1.434, 1.042e-3
-1.435, 1.051e-3
-1.436, 1.067e-3
-1.437, 1.082e-3
-1.438, 1.095e-3
-1.439, 1.113e-3
-1.440, 1.122e-3
-1.441, 1.132e-3
-1.442, 1.141e-3
-1.443, 1.147e-3
-1.444, 1.156e-3
-1.445, 1.169e-3
-1.446, 1.181e-3
-1.447, 1.196e-3
-1.448, 1.212e-3
-1.449, 1.230e-3
-1.450, 1.246e-3
-1.451, 1.261e-3
-1.452, 1.277e-3
-1.453, 1.286e-3
-1.454, 1.298e-3
-1.455, 1.310e-3
-1.456, 1.323e-3
-1.457, 1.338e-3
-1.458, 1.354e-3
-1.459, 1.372e-3
-1.460, 1.394e-3
-1.461, 1.412e-3
-1.462, 1.437e-3
-1.463, 1.455e-3
-1.464, 1.474e-3
-1.465, 1.492e-3
-1.466, 1.508e-3
-1.467, 1.523e-3
-1.468, 1.539e-3
-1.469, 1.560e-3
-1.470, 1.579e-3
-1.471, 1.603e-3
-1.472, 1.625e-3
-1.473, 1.650e-3
-1.474, 1.671e-3
-1.475, 1.693e-3
-1.476, 1.714e-3
-1.477, 1.733e-3
-1.478, 1.754e-3
-1.479, 1.776e-3
-1.480, 1.798e-3
-1.481, 1.822e-3
-1.482, 1.847e-3
-1.483, 1.875e-3
-1.484, 1.902e-3
-1.485, 1.933e-3
-1.486, 1.961e-3
-1.487, 1.989e-3
-1.488, 2.010e-3
-1.489, 2.038e-3
-1.490, 2.063e-3
-1.491, 2.087e-3
-1.492, 2.115e-3
-1.493, 2.143e-3
-1.494, 2.174e-3
-1.495, 2.205e-3
-1.496, 2.238e-3
-1.497, 2.275e-3
-1.498, 2.309e-3
-1.499, 2.346e-3
-1.500, 2.380e-3
-1.501, 2.411e-3
-1.502, 2.442e-3
-1.503, 2.476e-3
-1.504, 2.513e-3
-1.505, 2.550e-3
-1.506, 2.593e-3
-1.507, 2.636e-3
-1.508, 2.686e-3
-1.509, 2.732e-3
-1.510, 2.775e-3
-1.511, 2.818e-3
-1.512, 2.861e-3
-1.513, 2.898e-3
-1.514, 2.941e-3
-1.515, 2.982e-3
-1.516, 3.031e-3
-1.517, 3.077e-3
-1.518, 3.130e-3
-1.519, 3.185e-3
-1.520, 3.244e-3
-1.521, 3.302e-3
-1.522, 3.361e-3
-1.523, 3.416e-3
-1.524, 3.472e-3
-1.525, 3.533e-3
-1.526, 3.589e-3
-1.527, 3.647e-3
-1.528, 3.706e-3
-1.529, 3.774e-3
-1.530, 3.845e-3
-1.531, 3.916e-3
-1.532, 3.993e-3
-1.533, 4.067e-3
-1.534, 4.141e-3
-1.535, 4.215e-3
-1.536, 4.289e-3
-1.537, 4.363e-3
-1.538, 4.440e-3
-1.539, 4.523e-3
-1.540, 4.609e-3
-1.541, 4.699e-3
-1.542, 4.797e-3
-1.543, 4.890e-3
-1.544, 4.986e-3
-1.545, 5.075e-3
-1.546, 5.164e-3
-1.547, 5.251e-3
-1.548, 5.337e-3
-1.549, 5.426e-3
-1.550, 5.519e-3
-1.551, 5.621e-3
-1.552, 5.722e-3
-1.553, 5.827e-3
-1.554, 5.929e-3
-1.555, 6.031e-3
-1.556, 6.136e-3
-1.557, 6.234e-3
-1.558, 6.339e-3
-1.559, 6.447e-3
-1.560, 6.558e-3
-1.561, 6.675e-3
-1.562, 6.792e-3
-1.563, 6.909e-3
-1.564, 7.030e-3
-1.565, 7.147e-3
-1.566, 7.261e-3
-1.567, 7.375e-3
-1.568, 7.492e-3
-1.569, 7.609e-3
-1.570, 7.733e-3
-1.571, 7.859e-3
-1.572, 7.988e-3
-1.573, 8.109e-3
-1.574, 8.232e-3
-1.575, 8.352e-3
-1.576, 8.476e-3
-1.577, 8.596e-3
-1.578, 8.722e-3
-1.579, 8.852e-3
-1.580, 8.981e-3
-1.581, 9.114e-3
-1.582, 9.240e-3
-1.583, 9.364e-3
-1.584, 9.481e-3
-1.585, 9.598e-3
-1.586, 9.715e-3
-1.587, 9.832e-3
-1.588, 9.956e-3
-1.589, 1.009e-2
-1.590, 1.022e-2
-1.591, 1.036e-2
-1.592, 1.050e-2
-1.593, 1.063e-2
-1.594, 1.076e-2
-1.595, 1.089e-2
-1.596, 1.102e-2
-1.597, 1.115e-2
-1.598, 1.129e-2
-1.599, 1.143e-2
-1.600, 1.149e-2
-1.599, 1.141e-2
-1.598, 1.136e-2
-1.597, 1.130e-2
-1.596, 1.124e-2
-1.595, 1.117e-2
-1.594, 1.110e-2
-1.593, 1.103e-2
-1.592, 1.095e-2
-1.591, 1.087e-2
-1.590, 1.079e-2
-1.589, 1.071e-2
-1.588, 1.063e-2
-1.587, 1.055e-2
-1.586, 1.047e-2
-1.585, 1.039e-2
-1.584, 1.031e-2
-1.583, 1.023e-2
-1.582, 1.014e-2
-1.581, 1.006e-2
-1.580, 9.980e-3
-1.579, 9.903e-3
-1.578, 9.832e-3
-1.577, 9.764e-3
-1.576, 9.700e-3
-1.575, 9.635e-3
-1.574, 9.570e-3
-1.573, 9.502e-3
-1.572, 9.434e-3
-1.571, 9.364e-3
-1.570, 9.286e-3
-1.569, 9.206e-3
-1.568, 9.126e-3
-1.567, 9.046e-3
-1.566, 8.966e-3
-1.565, 8.886e-3
-1.564, 8.802e-3
-1.563, 8.719e-3
-1.562, 8.630e-3
-1.561, 8.543e-3
-1.560, 8.454e-3
-1.559, 8.365e-3
-1.558, 8.278e-3
-1.557, 8.192e-3
-1.556, 8.112e-3
-1.555, 8.032e-3
-1.554, 7.958e-3
-1.553, 7.884e-3
-1.552, 7.813e-3
-1.551, 7.742e-3
-1.550, 7.668e-3
-1.549, 7.597e-3
-1.548, 7.520e-3
-1.547, 7.446e-3
-1.546, 7.372e-3
-1.545, 7.298e-3
-1.544, 7.233e-3
-1.543, 7.171e-3
-1.542, 7.107e-3
-1.541, 7.048e-3
-1.540, 6.983e-3
-1.539, 6.912e-3
-1.538, 6.835e-3
-1.537, 6.755e-3
-1.536, 6.666e-3
-1.535, 6.570e-3
-1.534, 6.475e-3
-1.533, 6.373e-3
-1.532, 6.274e-3
-1.531, 6.179e-3
-1.530, 6.089e-3
-1.529, 6.006e-3
-1.528, 5.932e-3
-1.527, 5.861e-3
-1.526, 5.799e-3
-1.525, 5.738e-3
-1.524, 5.676e-3
-1.523, 5.614e-3
-1.522, 5.556e-3
-1.521, 5.500e-3
-1.520, 5.451e-3
-1.519, 5.399e-3
-1.518, 5.349e-3
-1.517, 5.297e-3
-1.516, 5.245e-3
-1.515, 5.183e-3
-1.514, 5.118e-3
-1.513, 5.047e-3
-1.512, 4.976e-3
-1.511, 4.902e-3
-1.510, 4.828e-3
-1.509, 4.757e-3
-1.508, 4.690e-3
-1.507, 4.628e-3
-1.506, 4.563e-3
-1.505, 4.501e-3
-1.504, 4.440e-3
-1.503, 4.372e-3
-1.502, 4.307e-3
-1.501, 4.239e-3
-1.500, 4.175e-3
-1.499, 4.110e-3
-1.498, 4.051e-3
-1.497, 3.999e-3
-1.496, 3.950e-3
-1.495, 3.903e-3
-1.494, 3.854e-3
-1.493, 3.808e-3
-1.492, 3.755e-3
-1.491, 3.703e-3
-1.490, 3.651e-3
-1.489, 3.595e-3
-1.488, 3.543e-3
-1.487, 3.487e-3
-1.486, 3.438e-3
-1.485, 3.385e-3
-1.484, 3.339e-3
-1.483, 3.290e-3
-1.482, 3.241e-3
-1.481, 3.194e-3
-1.480, 3.142e-3
-1.479, 3.093e-3
-1.478, 3.043e-3
-1.477, 2.991e-3
-1.476, 2.941e-3
-1.475, 2.892e-3
-1.474, 2.843e-3
-1.473, 2.797e-3
-1.472, 2.753e-3
-1.471, 2.710e-3
-1.470, 2.670e-3
-1.469, 2.630e-3
-1.468, 2.590e-3
-1.467, 2.547e-3
-1.466, 2.504e-3
-1.465, 2.457e-3
-1.464, 2.411e-3
-1.463, 2.368e-3
-1.462, 2.325e-3
-1.461, 2.285e-3
-1.460, 2.248e-3
-1.459, 2.211e-3
-1.458, 2.174e-3
-1.457, 2.137e-3
-1.456, 2.097e-3
-1.455, 2.057e-3
-1.454, 2.017e-3
-1.453, 1.976e-3
-1.452, 1.936e-3
-1.451, 1.899e-3
-1.450, 1.862e-3
-1.449, 1.828e-3
-1.448, 1.798e-3
-1.447, 1.764e-3
-1.446, 1.733e-3
-1.445, 1.696e-3
-1.444, 1.662e-3
-1.443, 1.628e-3
-1.442, 1.591e-3
-1.441, 1.554e-3
-1.440, 1.520e-3
-1.439, 1.486e-3
-1.438, 1.452e-3
-1.437, 1.425e-3
-1.436, 1.394e-3
-1.435, 1.369e-3
-1.434, 1.338e-3
-1.433, 1.307e-3
-1.432, 1.277e-3
-1.431, 1.243e-3
-1.430, 1.212e-3
-1.429, 1.178e-3
-1.428, 1.150e-3
-1.427, 1.119e-3
-1.426, 1.095e-3
-1.425, 1.067e-3
-1.424, 1.042e-3
-1.423, 1.021e-3
-1.422, 9.929e-4
-1.421, 9.683e-4
-1.420, 9.405e-4
-1.419, 9.097e-4
-1.418, 8.819e-4
-1.417, 8.542e-4
-1.416, 8.295e-4
-1.415, 8.018e-4
-1.414, 7.802e-4
-1.413, 7.617e-4
-1.412, 7.401e-4
-1.411, 7.185e-4
-1.410, 6.969e-4
-1.409, 6.723e-4
-1.408, 6.476e-4
-1.407, 6.229e-4
-1.406, 5.983e-4
-1.405, 5.736e-4
-1.404, 5.520e-4
-1.403, 5.335e-4
-1.402, 5.150e-4
-1.401, 4.965e-4
-1.400, 4.811e-4
-1.399, 4.626e-4
-1.398, 4.441e-4
-1.397, 4.225e-4
-1.396, 4.010e-4
-1.395, 3.825e-4
-1.394, 3.609e-4
-1.393, 3.393e-4
-1.392, 3.239e-4
-1.391, 3.085e-4
-1.390, 2.931e-4
-1.389, 2.807e-4
-1.388, 2.684e-4
-1.387, 2.530e-4
-1.386, 2.376e-4
-1.385, 2.191e-4
-1.384, 2.006e-4
-1.383, 1.821e-4
-1.382, 1.636e-4
-1.381, 1.481e-4
-1.380, 1.327e-4
-1.379, 1.204e-4
-1.378, 1.111e-4
-1.377, 1.050e-4
-1.376, 9.265e-5
-1.375, 8.032e-5
-1.374, 6.798e-5
-1.373, 5.257e-5
-1.372, 3.715e-5
-1.371, 2.174e-5
-1.370, 6.322e-6
-1.369, -6.010e-6
-1.368, -1.526e-5
-1.367, -2.451e-5
-1.366, -3.376e-5
-1.365, -3.992e-5
-1.364, -4.917e-5
-1.363, -5.842e-5
-1.362, -7.076e-5
-1.361, -8.309e-5
-1.360, -9.542e-5
-1.359, -1.078e-4
-1.358, -1.201e-4
-1.357, -1.293e-4
-1.356, -1.386e-4
-1.355, -1.417e-4
-1.354, -1.478e-4
-1.353, -1.540e-4
-1.352, -1.602e-4
-1.351, -1.663e-4
-1.350, -1.787e-4
-1.349, -1.879e-4
-1.348, -2.002e-4
-1.347, -2.126e-4
-1.346, -2.218e-4
-1.345, -2.311e-4
-1.344, -2.311e-4
-1.343, -2.372e-4
-1.342, -2.403e-4
-1.341, -2.434e-4
-1.340, -2.496e-4
-1.339, -2.557e-4
-1.338, -2.650e-4
-1.337, -2.742e-4
-1.336, -2.866e-4
-1.335, -2.958e-4
-1.334, -3.020e-4
-1.333, -3.082e-4
-1.332, -3.112e-4
-1.331, -3.143e-4
-1.330, -3.143e-4
-1.329, -3.174e-4
-1.328, -3.205e-4
-1.327, -3.297e-4
-1.326, -3.390e-4
-1.325, -3.482e-4
-1.324, -3.575e-4
-1.323, -3.606e-4
-1.322, -3.667e-4
-1.321, -3.698e-4
-1.320, -3.729e-4
-1.319, -3.729e-4
-1.318, -3.760e-4
-1.317, -3.791e-4
-1.316, -3.821e-4
-1.315, -3.852e-4
-1.314, -3.945e-4
-1.313, -4.037e-4
-1.312, -4.099e-4
-1.311, -4.161e-4
-1.310, -4.222e-4
-1.309, -4.222e-4
-1.308, -4.222e-4
-1.307, -4.222e-4
-1.306, -4.222e-4
-1.305, -4.284e-4
-1.304, -4.315e-4
-1.303, -4.376e-4
-1.302, -4.438e-4
-1.301, -4.500e-4
-1.300, -4.592e-4
-1.299, -4.623e-4
-1.298, -4.654e-4
-1.297, -4.654e-4
-1.296, -4.654e-4
-1.295, -4.654e-4
-1.294, -4.623e-4
-1.293, -4.654e-4
-1.292, -4.716e-4
-1.291, -4.777e-4
-1.290, -4.839e-4
-1.289, -4.901e-4
-1.288, -4.931e-4
-1.287, -4.993e-4
-1.286, -4.993e-4
-1.285, -4.993e-4
-1.284, -4.993e-4
-1.283, -4.993e-4
-1.282, -4.993e-4
-1.281, -4.993e-4
-1.280, -5.055e-4
-1.279, -5.147e-4
-1.278, -5.178e-4
-1.277, -5.240e-4
-1.276, -5.301e-4
-1.275, -5.301e-4
-1.274, -5.301e-4
-1.273, -5.301e-4
-1.272, -5.271e-4
-1.271, -5.240e-4
-1.270, -5.271e-4
-1.269, -5.271e-4
-1.268, -5.332e-4
-1.267, -5.394e-4
-1.266, -5.425e-4
-1.265, -5.517e-4
-1.264, -5.517e-4
-1.263, -5.548e-4
-1.262, -5.548e-4
-1.261, -5.517e-4
-1.260, -5.486e-4
-1.259, -5.486e-4
-1.258, -5.486e-4
-1.257, -5.517e-4
-1.256, -5.579e-4
-1.255, -5.641e-4
-1.254, -5.702e-4
-1.253, -5.733e-4
-1.252, -5.795e-4
-1.251, -5.764e-4
-1.250, -5.764e-4
-1.249, -5.733e-4
-1.248, -5.702e-4
-1.247, -5.702e-4
-1.246, -5.702e-4
-1.245, -5.733e-4
-1.244, -5.795e-4
-1.243, -5.856e-4
-1.242, -5.918e-4
-1.241, -5.949e-4
-1.240, -5.949e-4
-1.239, -5.949e-4
-1.238, -5.949e-4
-1.237, -5.918e-4
-1.236, -5.887e-4
-1.235, -5.887e-4
-1.234, -5.887e-4
-1.233, -5.918e-4
-1.232, -5.980e-4
-1.231, -6.041e-4
-1.230, -6.072e-4
-1.229, -6.134e-4
-1.228, -6.134e-4
-1.227, -6.103e-4
-1.226, -6.072e-4
-1.225, -6.041e-4
-1.224, -6.011e-4
-1.223, -6.011e-4
-1.222, -6.041e-4
-1.221, -6.072e-4
-1.220, -6.165e-4
-1.219, -6.195e-4
-1.218, -6.226e-4
-1.217, -6.257e-4
-1.216, -6.257e-4
-1.215, -6.226e-4
-1.214, -6.195e-4
-1.213, -6.165e-4
-1.212, -6.134e-4
-1.211, -6.165e-4
-1.210, -6.195e-4
-1.209, -6.257e-4
-1.208, -6.257e-4
-1.207, -6.319e-4
-1.206, -6.350e-4
-1.205, -6.350e-4
-1.204, -6.350e-4
-1.203, -6.319e-4
-1.202, -6.288e-4
-1.201, -6.257e-4
-1.200, -6.257e-4
-1.199, -6.257e-4
-1.198, -6.288e-4
-1.197, -6.319e-4
-1.196, -6.380e-4
-1.195, -6.411e-4
-1.194, -6.411e-4
-1.193, -6.442e-4
-1.192, -6.380e-4
-1.191, -6.380e-4
-1.190, -6.350e-4
-1.189, -6.319e-4
-1.188, -6.319e-4
-1.187, -6.350e-4
-1.186, -6.350e-4
-1.185, -6.411e-4
-1.184, -6.442e-4
-1.183, -6.504e-4
-1.182, -6.504e-4
-1.181, -6.473e-4
-1.180, -6.504e-4
-1.179, -6.442e-4
-1.178, -6.411e-4
-1.177, -6.411e-4
-1.176, -6.411e-4
-1.175, -6.442e-4
-1.174, -6.473e-4
-1.173, -6.504e-4
-1.172, -6.565e-4
-1.171, -6.565e-4
-1.170, -6.596e-4
-1.169, -6.596e-4
-1.168, -6.535e-4
-1.167, -6.535e-4
-1.166, -6.504e-4
-1.165, -6.504e-4
-1.164, -6.504e-4
-1.163, -6.535e-4
-1.162, -6.596e-4
-1.161, -6.627e-4
-1.160, -6.689e-4
-1.159, -6.689e-4
-1.158, -6.720e-4
-1.157, -6.689e-4
-1.156, -6.658e-4
-1.155, -6.627e-4
-1.154, -6.596e-4
-1.153, -6.627e-4
-1.152, -6.627e-4
-1.151, -6.689e-4
-1.150, -6.720e-4
-1.149, -6.781e-4
-1.148, -6.843e-4
-1.147, -6.843e-4
-1.146, -6.843e-4
-1.145, -6.843e-4
-1.144, -6.781e-4
-1.143, -6.750e-4
-1.142, -6.750e-4
-1.141, -6.750e-4
-1.140, -6.812e-4
-1.139, -6.843e-4
-1.138, -6.905e-4
-1.137, -6.966e-4
-1.136, -6.966e-4
-1.135, -6.966e-4
-1.134, -6.966e-4
-1.133, -6.935e-4
-1.132, -6.905e-4
-1.131, -6.874e-4
-1.130, -6.874e-4
-1.129, -6.874e-4
-1.128, -6.905e-4
-1.127, -6.966e-4
-1.126, -6.997e-4
-1.125, -7.059e-4
-1.124, -7.090e-4
-1.123, -7.120e-4
-1.122, -7.090e-4
-1.121, -7.090e-4
-1.120, -7.059e-4
-1.119, -7.059e-4
-1.118, -7.028e-4
-1.117, -7.059e-4
-1.116, -7.120e-4
-1.115, -7.151e-4
-1.114, -7.213e-4
-1.113, -7.275e-4
-1.112, -7.275e-4
-1.111, -7.275e-4
-1.110, -7.275e-4
-1.109, -7.244e-4
-1.108, -7.213e-4
-1.107, -7.213e-4
-1.106, -7.213e-4
-1.105, -7.244e-4
-1.104, -7.305e-4
-1.103, -7.336e-4
-1.102, -7.398e-4
-1.101, -7.429e-4
-1.100, -7.460e-4
-1.099, -7.460e-4
-1.098, -7.429e-4
-1.097, -7.429e-4
-1.096, -7.398e-4
-1.095, -7.398e-4
-1.094, -7.429e-4
-1.093, -7.460e-4
-1.092, -7.521e-4
-1.091, -7.552e-4
-1.090, -7.645e-4
-1.089, -7.675e-4
-1.088, -7.675e-4
-1.087, -7.675e-4
-1.086, -7.675e-4
-1.085, -7.675e-4
-1.084, -7.645e-4
-1.083, -7.645e-4
-1.082, -7.675e-4
-1.081, -7.737e-4
-1.080, -7.799e-4
-1.079, -7.860e-4
-1.078, -7.922e-4
-1.077, -7.953e-4
-1.076, -7.984e-4
-1.075, -7.984e-4
-1.074, -7.984e-4
-1.073, -7.953e-4
-1.072, -7.953e-4
-1.071, -7.953e-4
-1.070, -8.015e-4
-1.069, -8.045e-4
-1.068, -8.138e-4
-1.067, -8.200e-4
-1.066, -8.230e-4
-1.065, -8.292e-4
-1.064, -8.292e-4
-1.063, -8.292e-4
-1.062, -8.292e-4
-1.061, -8.292e-4
-1.060, -8.323e-4
-1.059, -8.354e-4
-1.058, -8.415e-4
-1.057, -8.508e-4
-1.056, -8.569e-4
-1.055, -8.662e-4
-1.054, -8.693e-4
-1.053, -8.724e-4
-1.052, -8.754e-4
-1.051, -8.754e-4
-1.050, -8.785e-4
-1.049, -8.785e-4
-1.048, -8.816e-4
-1.047, -8.878e-4
-1.046, -8.939e-4
-1.045, -9.032e-4
-1.044, -9.124e-4
-1.043, -9.217e-4
-1.042, -9.279e-4
-1.041, -9.309e-4
-1.040, -9.340e-4
-1.039, -9.340e-4
-1.038, -9.340e-4
-1.037, -9.371e-4
-1.036, -9.402e-4
-1.035, -9.494e-4
-1.034, -9.587e-4
-1.033, -9.679e-4
-1.032, -9.803e-4
-1.031, -9.864e-4
-1.030, -9.957e-4
-1.029, -9.988e-4
-1.028, -1.005e-3
-1.027, -1.008e-3
-1.026, -1.008e-3
-1.025, -1.017e-3
-1.024, -1.023e-3
-1.023, -1.036e-3
-1.022, -1.048e-3
-1.021, -1.060e-3
-1.020, -1.073e-3
-1.019, -1.082e-3
-1.018, -1.088e-3
-1.017, -1.097e-3
-1.016, -1.101e-3
-1.015, -1.107e-3
-1.014, -1.113e-3
-1.013, -1.119e-3
-1.012, -1.131e-3
-1.011, -1.144e-3
-1.010, -1.156e-3
-1.009, -1.168e-3
-1.008, -1.181e-3
-1.007, -1.193e-3
-1.006, -1.202e-3
-1.005, -1.208e-3
-1.004, -1.218e-3
-1.003, -1.224e-3
-1.002, -1.230e-3
-1.001, -1.242e-3
