Apr. 24, 2025   12:31:04
Linear Sweep Voltammetry
File: c:/users/guazh/data/banditlqround7_x0exp590_r20/2025-04-16-exp1175\1acid_2ac-2025-04-24t12_27_51-lsvinphos\1acid_2ac_lsv_50mvs_efin_-2300mv.bin
Data Source:  Experiment
Instrument Model:  CHI760E
Header: LSV ran at 50 mVs with Efin at -2300mV
Note: 

Init E (V) = -0.6
Final E (V) = -2.3
Scan Rate (V/s) = 0.05
Sample Interval (V) = 0.001
Quiet Time (sec) = 2
Sensitivity (A/V) = 1e-4
Comp R (ohm) = 9.4

Results:

Channel 1:
Ep = -1.710V
ip = 5.787e-4A
Ah = 7.564e-4C

Potential/V, Current/A

-0.600, 1.806e-5
-0.601, 1.838e-5
-0.602, 1.849e-5
-0.603, 1.861e-5
-0.604, 1.848e-5
-0.605, 1.850e-5
-0.606, 1.859e-5
-0.607, 1.856e-5
-0.608, 1.849e-5
-0.609, 1.853e-5
-0.610, 1.875e-5
-0.611, 1.882e-5
-0.612, 1.874e-5
-0.613, 1.859e-5
-0.614, 1.865e-5
-0.615, 1.875e-5
-0.616, 1.871e-5
-0.617, 1.879e-5
-0.618, 1.885e-5
-0.619, 1.916e-5
-0.620, 1.908e-5
-0.621, 1.899e-5
-0.622, 1.887e-5
-0.623, 1.872e-5
-0.624, 1.879e-5
-0.625, 1.885e-5
-0.626, 1.896e-5
-0.627, 1.908e-5
-0.628, 1.921e-5
-0.629, 1.907e-5
-0.630, 1.903e-5
-0.631, 1.904e-5
-0.632, 1.888e-5
-0.633, 1.940e-5
-0.634, 1.996e-5
-0.635, 1.937e-5
-0.636, 1.880e-5
-0.637, 1.882e-5
-0.638, 1.885e-5
-0.639, 1.900e-5
-0.640, 1.879e-5
-0.641, 1.882e-5
-0.642, 1.882e-5
-0.643, 1.888e-5
-0.644, 1.932e-5
-0.645, 1.907e-5
-0.646, 1.894e-5
-0.647, 1.889e-5
-0.648, 1.893e-5
-0.649, 1.902e-5
-0.650, 1.900e-5
-0.651, 1.903e-5
-0.652, 1.906e-5
-0.653, 1.907e-5
-0.654, 1.918e-5
-0.655, 1.948e-5
-0.656, 1.941e-5
-0.657, 1.924e-5
-0.658, 1.968e-5
-0.659, 1.975e-5
-0.660, 1.975e-5
-0.661, 1.939e-5
-0.662, 1.921e-5
-0.663, 1.936e-5
-0.664, 1.929e-5
-0.665, 1.936e-5
-0.666, 1.940e-5
-0.667, 1.937e-5
-0.668, 1.937e-5
-0.669, 1.930e-5
-0.670, 1.927e-5
-0.671, 1.930e-5
-0.672, 1.932e-5
-0.673, 1.949e-5
-0.674, 1.938e-5
-0.675, 1.931e-5
-0.676, 1.930e-5
-0.677, 1.938e-5
-0.678, 1.937e-5
-0.679, 1.938e-5
-0.680, 1.936e-5
-0.681, 1.924e-5
-0.682, 1.912e-5
-0.683, 1.930e-5
-0.684, 1.941e-5
-0.685, 1.937e-5
-0.686, 1.941e-5
-0.687, 1.951e-5
-0.688, 1.954e-5
-0.689, 1.959e-5
-0.690, 1.951e-5
-0.691, 1.929e-5
-0.692, 1.934e-5
-0.693, 1.926e-5
-0.694, 1.923e-5
-0.695, 1.934e-5
-0.696, 1.931e-5
-0.697, 1.911e-5
-0.698, 1.902e-5
-0.699, 1.928e-5
-0.700, 1.932e-5
-0.701, 1.939e-5
-0.702, 1.940e-5
-0.703, 1.928e-5
-0.704, 1.921e-5
-0.705, 1.919e-5
-0.706, 1.921e-5
-0.707, 1.929e-5
-0.708, 1.931e-5
-0.709, 1.923e-5
-0.710, 1.886e-5
-0.711, 1.893e-5
-0.712, 1.903e-5
-0.713, 1.917e-5
-0.714, 1.899e-5
-0.715, 1.895e-5
-0.716, 1.886e-5
-0.717, 1.887e-5
-0.718, 1.898e-5
-0.719, 1.897e-5
-0.720, 1.901e-5
-0.721, 1.900e-5
-0.722, 1.906e-5
-0.723, 1.920e-5
-0.724, 1.911e-5
-0.725, 1.899e-5
-0.726, 1.894e-5
-0.727, 1.909e-5
-0.728, 1.917e-5
-0.729, 1.919e-5
-0.730, 1.916e-5
-0.731, 1.921e-5
-0.732, 1.918e-5
-0.733, 1.920e-5
-0.734, 1.927e-5
-0.735, 1.931e-5
-0.736, 1.919e-5
-0.737, 1.915e-5
-0.738, 1.931e-5
-0.739, 1.917e-5
-0.740, 1.915e-5
-0.741, 1.924e-5
-0.742, 1.920e-5
-0.743, 1.904e-5
-0.744, 1.905e-5
-0.745, 1.910e-5
-0.746, 1.905e-5
-0.747, 1.910e-5
-0.748, 1.900e-5
-0.749, 1.909e-5
-0.750, 1.908e-5
-0.751, 1.906e-5
-0.752, 1.924e-5
-0.753, 1.920e-5
-0.754, 1.919e-5
-0.755, 1.922e-5
-0.756, 1.922e-5
-0.757, 1.916e-5
-0.758, 1.915e-5
-0.759, 1.928e-5
-0.760, 1.928e-5
-0.761, 1.929e-5
-0.762, 1.928e-5
-0.763, 1.937e-5
-0.764, 1.935e-5
-0.765, 1.923e-5
-0.766, 1.918e-5
-0.767, 1.914e-5
-0.768, 1.922e-5
-0.769, 1.930e-5
-0.770, 1.936e-5
-0.771, 1.927e-5
-0.772, 1.935e-5
-0.773, 1.943e-5
-0.774, 1.942e-5
-0.775, 1.943e-5
-0.776, 1.947e-5
-0.777, 1.949e-5
-0.778, 1.949e-5
-0.779, 1.948e-5
-0.780, 1.944e-5
-0.781, 1.939e-5
-0.782, 1.942e-5
-0.783, 1.941e-5
-0.784, 1.931e-5
-0.785, 1.946e-5
-0.786, 1.951e-5
-0.787, 1.946e-5
-0.788, 1.955e-5
-0.789, 1.972e-5
-0.790, 1.953e-5
-0.791, 1.953e-5
-0.792, 1.964e-5
-0.793, 1.970e-5
-0.794, 1.962e-5
-0.795, 1.949e-5
-0.796, 1.951e-5
-0.797, 1.954e-5
-0.798, 1.955e-5
-0.799, 1.959e-5
-0.800, 1.958e-5
-0.801, 1.944e-5
-0.802, 1.935e-5
-0.803, 1.920e-5
-0.804, 1.924e-5
-0.805, 1.926e-5
-0.806, 1.925e-5
-0.807, 1.925e-5
-0.808, 1.926e-5
-0.809, 1.923e-5
-0.810, 1.920e-5
-0.811, 1.914e-5
-0.812, 1.920e-5
-0.813, 1.920e-5
-0.814, 1.925e-5
-0.815, 1.932e-5
-0.816, 1.941e-5
-0.817, 1.929e-5
-0.818, 1.944e-5
-0.819, 1.968e-5
-0.820, 1.977e-5
-0.821, 1.972e-5
-0.822, 1.973e-5
-0.823, 1.974e-5
-0.824, 1.975e-5
-0.825, 1.982e-5
-0.826, 1.979e-5
-0.827, 1.987e-5
-0.828, 1.987e-5
-0.829, 1.983e-5
-0.830, 1.981e-5
-0.831, 1.995e-5
-0.832, 1.997e-5
-0.833, 2.002e-5
-0.834, 1.999e-5
-0.835, 2.015e-5
-0.836, 2.017e-5
-0.837, 2.002e-5
-0.838, 2.000e-5
-0.839, 2.012e-5
-0.840, 2.013e-5
-0.841, 2.009e-5
-0.842, 2.008e-5
-0.843, 2.007e-5
-0.844, 2.007e-5
-0.845, 2.003e-5
-0.846, 2.011e-5
-0.847, 2.030e-5
-0.848, 2.022e-5
-0.849, 2.013e-5
-0.850, 2.026e-5
-0.851, 2.043e-5
-0.852, 2.047e-5
-0.853, 2.031e-5
-0.854, 2.042e-5
-0.855, 2.049e-5
-0.856, 2.058e-5
-0.857, 2.040e-5
-0.858, 2.045e-5
-0.859, 2.038e-5
-0.860, 2.043e-5
-0.861, 2.048e-5
-0.862, 2.051e-5
-0.863, 2.065e-5
-0.864, 2.082e-5
-0.865, 2.090e-5
-0.866, 2.099e-5
-0.867, 2.097e-5
-0.868, 2.086e-5
-0.869, 2.099e-5
-0.870, 2.110e-5
-0.871, 2.111e-5
-0.872, 2.099e-5
-0.873, 2.099e-5
-0.874, 2.084e-5
-0.875, 2.072e-5
-0.876, 2.109e-5
-0.877, 2.134e-5
-0.878, 2.146e-5
-0.879, 2.150e-5
-0.880, 2.157e-5
-0.881, 2.174e-5
-0.882, 2.187e-5
-0.883, 2.185e-5
-0.884, 2.196e-5
-0.885, 2.202e-5
-0.886, 2.197e-5
-0.887, 2.205e-5
-0.888, 2.225e-5
-0.889, 2.237e-5
-0.890, 2.241e-5
-0.891, 2.245e-5
-0.892, 2.241e-5
-0.893, 2.248e-5
-0.894, 2.263e-5
-0.895, 2.272e-5
-0.896, 2.284e-5
-0.897, 2.315e-5
-0.898, 2.323e-5
-0.899, 2.284e-5
-0.900, 2.281e-5
-0.901, 2.306e-5
-0.902, 2.347e-5
-0.903, 2.354e-5
-0.904, 2.365e-5
-0.905, 2.343e-5
-0.906, 2.349e-5
-0.907, 2.382e-5
-0.908, 2.429e-5
-0.909, 2.447e-5
-0.910, 2.486e-5
-0.911, 2.502e-5
-0.912, 2.525e-5
-0.913, 2.525e-5
-0.914, 2.531e-5
-0.915, 2.532e-5
-0.916, 2.527e-5
-0.917, 2.535e-5
-0.918, 2.550e-5
-0.919, 2.569e-5
-0.920, 2.577e-5
-0.921, 2.596e-5
-0.922, 2.615e-5
-0.923, 2.646e-5
-0.924, 2.653e-5
-0.925, 2.664e-5
-0.926, 2.680e-5
-0.927, 2.701e-5
-0.928, 2.719e-5
-0.929, 2.729e-5
-0.930, 2.750e-5
-0.931, 2.834e-5
-0.932, 2.984e-5
-0.933, 2.993e-5
-0.934, 2.954e-5
-0.935, 2.953e-5
-0.936, 2.977e-5
-0.937, 2.985e-5
-0.938, 2.969e-5
-0.939, 2.984e-5
-0.940, 2.995e-5
-0.941, 3.020e-5
-0.942, 3.038e-5
-0.943, 3.100e-5
-0.944, 3.136e-5
-0.945, 3.114e-5
-0.946, 3.135e-5
-0.947, 3.153e-5
-0.948, 3.167e-5
-0.949, 3.186e-5
-0.950, 3.217e-5
-0.951, 3.248e-5
-0.952, 3.255e-5
-0.953, 3.272e-5
-0.954, 3.306e-5
-0.955, 3.331e-5
-0.956, 3.356e-5
-0.957, 3.392e-5
-0.958, 3.425e-5
-0.959, 3.456e-5
-0.960, 3.491e-5
-0.961, 3.544e-5
-0.962, 3.601e-5
-0.963, 3.630e-5
-0.964, 3.657e-5
-0.965, 3.705e-5
-0.966, 3.757e-5
-0.967, 3.801e-5
-0.968, 3.834e-5
-0.969, 3.870e-5
-0.970, 3.902e-5
-0.971, 3.933e-5
-0.972, 3.976e-5
-0.973, 4.025e-5
-0.974, 4.066e-5
-0.975, 4.092e-5
-0.976, 4.150e-5
-0.977, 4.194e-5
-0.978, 4.241e-5
-0.979, 4.285e-5
-0.980, 4.322e-5
-0.981, 4.353e-5
-0.982, 4.413e-5
-0.983, 4.456e-5
-0.984, 4.497e-5
-0.985, 4.535e-5
-0.986, 4.582e-5
-0.987, 4.640e-5
-0.988, 4.686e-5
-0.989, 4.730e-5
-0.990, 4.734e-5
-0.991, 4.747e-5
-0.992, 4.790e-5
-0.993, 4.832e-5
-0.994, 4.883e-5
-0.995, 4.917e-5
-0.996, 4.953e-5
-0.997, 4.984e-5
-0.998, 5.011e-5
-0.999, 5.068e-5
-1.000, 5.107e-5
-1.001, 5.150e-5
-1.002, 5.194e-5
-1.003, 5.233e-5
-1.004, 5.269e-5
-1.005, 5.308e-5
-1.006, 5.349e-5
-1.007, 5.396e-5
-1.008, 5.428e-5
-1.009, 5.463e-5
-1.010, 5.509e-5
-1.011, 5.544e-5
-1.012, 5.582e-5
-1.013, 5.617e-5
-1.014, 5.660e-5
-1.015, 5.701e-5
-1.016, 5.747e-5
-1.017, 5.783e-5
-1.018, 5.812e-5
-1.019, 5.848e-5
-1.020, 5.887e-5
-1.021, 5.930e-5
-1.022, 5.983e-5
-1.023, 6.020e-5
-1.024, 6.069e-5
-1.025, 6.109e-5
-1.026, 6.153e-5
-1.027, 6.197e-5
-1.028, 6.242e-5
-1.029, 6.291e-5
-1.030, 6.334e-5
-1.031, 6.371e-5
-1.032, 6.457e-5
-1.033, 6.551e-5
-1.034, 6.652e-5
-1.035, 6.692e-5
-1.036, 6.709e-5
-1.037, 6.741e-5
-1.038, 6.777e-5
-1.039, 6.823e-5
-1.040, 6.862e-5
-1.041, 6.896e-5
-1.042, 6.938e-5
-1.043, 6.963e-5
-1.044, 7.008e-5
-1.045, 7.053e-5
-1.046, 7.098e-5
-1.047, 7.138e-5
-1.048, 7.178e-5
-1.049, 7.229e-5
-1.050, 7.278e-5
-1.051, 7.312e-5
-1.052, 7.360e-5
-1.053, 7.407e-5
-1.054, 7.449e-5
-1.055, 7.507e-5
-1.056, 7.545e-5
-1.057, 7.587e-5
-1.058, 7.627e-5
-1.059, 7.664e-5
-1.060, 7.701e-5
-1.061, 7.745e-5
-1.062, 7.807e-5
-1.063, 7.855e-5
-1.064, 7.884e-5
-1.065, 7.917e-5
-1.066, 7.953e-5
-1.067, 7.986e-5
-1.068, 8.026e-5
-1.069, 8.074e-5
-1.070, 8.131e-5
-1.071, 8.174e-5
-1.072, 8.211e-5
-1.073, 8.250e-5
-1.074, 8.287e-5
-1.075, 8.336e-5
-1.076, 8.379e-5
-1.077, 8.437e-5
-1.078, 8.478e-5
-1.079, 8.519e-5
-1.080, 8.556e-5
-1.081, 8.592e-5
-1.082, 8.630e-5
-1.083, 8.661e-5
-1.084, 8.701e-5
-1.085, 8.739e-5
-1.086, 8.761e-5
-1.087, 8.778e-5
-1.088, 8.827e-5
-1.089, 8.860e-5
-1.090, 8.892e-5
-1.091, 8.934e-5
-1.092, 8.971e-5
-1.093, 9.011e-5
-1.094, 9.043e-5
-1.095, 9.075e-5
-1.096, 9.110e-5
-1.097, 9.154e-5
-1.098, 9.187e-5
-1.099, 9.220e-5
-1.100, 9.252e-5
-1.101, 9.281e-5
-1.102, 9.316e-5
-1.103, 9.355e-5
-1.104, 9.399e-5
-1.105, 9.440e-5
-1.106, 9.466e-5
-1.107, 9.493e-5
-1.108, 9.514e-5
-1.109, 9.547e-5
-1.110, 9.605e-5
-1.111, 9.644e-5
-1.112, 9.687e-5
-1.113, 9.771e-5
-1.114, 9.781e-5
-1.115, 9.781e-5
-1.116, 9.745e-5
-1.117, 9.771e-5
-1.118, 9.833e-5
-1.119, 9.945e-5
-1.120, 9.950e-5
-1.121, 9.914e-5
-1.122, 9.930e-5
-1.123, 9.959e-5
-1.124, 9.993e-5
-1.125, 1.003e-4
-1.126, 1.006e-4
-1.127, 1.009e-4
-1.128, 1.014e-4
-1.129, 1.014e-4
-1.130, 1.017e-4
-1.131, 1.018e-4
-1.132, 1.020e-4
-1.133, 1.023e-4
-1.134, 1.026e-4
-1.135, 1.027e-4
-1.136, 1.026e-4
-1.137, 1.031e-4
-1.138, 1.034e-4
-1.139, 1.035e-4
-1.140, 1.039e-4
-1.141, 1.042e-4
-1.142, 1.046e-4
-1.143, 1.047e-4
-1.144, 1.048e-4
-1.145, 1.051e-4
-1.146, 1.053e-4
-1.147, 1.055e-4
-1.148, 1.057e-4
-1.149, 1.059e-4
-1.150, 1.065e-4
-1.151, 1.073e-4
-1.152, 1.075e-4
-1.153, 1.076e-4
-1.154, 1.080e-4
-1.155, 1.081e-4
-1.156, 1.082e-4
-1.157, 1.085e-4
-1.158, 1.089e-4
-1.159, 1.092e-4
-1.160, 1.092e-4
-1.161, 1.095e-4
-1.162, 1.099e-4
-1.163, 1.100e-4
-1.164, 1.102e-4
-1.165, 1.105e-4
-1.166, 1.107e-4
-1.167, 1.109e-4
-1.168, 1.113e-4
-1.169, 1.116e-4
-1.170, 1.118e-4
-1.171, 1.120e-4
-1.172, 1.122e-4
-1.173, 1.125e-4
-1.174, 1.127e-4
-1.175, 1.128e-4
-1.176, 1.132e-4
-1.177, 1.130e-4
-1.178, 1.135e-4
-1.179, 1.140e-4
-1.180, 1.141e-4
-1.181, 1.144e-4
-1.182, 1.146e-4
-1.183, 1.146e-4
-1.184, 1.149e-4
-1.185, 1.152e-4
-1.186, 1.153e-4
-1.187, 1.156e-4
-1.188, 1.159e-4
-1.189, 1.160e-4
-1.190, 1.164e-4
-1.191, 1.167e-4
-1.192, 1.170e-4
-1.193, 1.170e-4
-1.194, 1.171e-4
-1.195, 1.173e-4
-1.196, 1.175e-4
-1.197, 1.177e-4
-1.198, 1.179e-4
-1.199, 1.180e-4
-1.200, 1.180e-4
-1.201, 1.181e-4
-1.202, 1.184e-4
-1.203, 1.186e-4
-1.204, 1.187e-4
-1.205, 1.189e-4
-1.206, 1.190e-4
-1.207, 1.193e-4
-1.208, 1.194e-4
-1.209, 1.194e-4
-1.210, 1.196e-4
-1.211, 1.198e-4
-1.212, 1.199e-4
-1.213, 1.200e-4
-1.214, 1.201e-4
-1.215, 1.203e-4
-1.216, 1.206e-4
-1.217, 1.208e-4
-1.218, 1.209e-4
-1.219, 1.211e-4
-1.220, 1.213e-4
-1.221, 1.216e-4
-1.222, 1.217e-4
-1.223, 1.219e-4
-1.224, 1.221e-4
-1.225, 1.224e-4
-1.226, 1.229e-4
-1.227, 1.234e-4
-1.228, 1.235e-4
-1.229, 1.238e-4
-1.230, 1.240e-4
-1.231, 1.241e-4
-1.232, 1.245e-4
-1.233, 1.247e-4
-1.234, 1.248e-4
-1.235, 1.249e-4
-1.236, 1.251e-4
-1.237, 1.252e-4
-1.238, 1.254e-4
-1.239, 1.256e-4
-1.240, 1.258e-4
-1.241, 1.259e-4
-1.242, 1.260e-4
-1.243, 1.261e-4
-1.244, 1.262e-4
-1.245, 1.265e-4
-1.246, 1.267e-4
-1.247, 1.269e-4
-1.248, 1.269e-4
-1.249, 1.271e-4
-1.250, 1.271e-4
-1.251, 1.273e-4
-1.252, 1.276e-4
-1.253, 1.277e-4
-1.254, 1.277e-4
-1.255, 1.279e-4
-1.256, 1.281e-4
-1.257, 1.282e-4
-1.258, 1.285e-4
-1.259, 1.285e-4
-1.260, 1.287e-4
-1.261, 1.287e-4
-1.262, 1.289e-4
-1.263, 1.290e-4
-1.264, 1.289e-4
-1.265, 1.291e-4
-1.266, 1.292e-4
-1.267, 1.293e-4
-1.268, 1.293e-4
-1.269, 1.294e-4
-1.270, 1.293e-4
-1.271, 1.292e-4
-1.272, 1.294e-4
-1.273, 1.294e-4
-1.274, 1.294e-4
-1.275, 1.296e-4
-1.276, 1.297e-4
-1.277, 1.298e-4
-1.278, 1.299e-4
-1.279, 1.300e-4
-1.280, 1.301e-4
-1.281, 1.302e-4
-1.282, 1.303e-4
-1.283, 1.302e-4
-1.284, 1.306e-4
-1.285, 1.313e-4
-1.286, 1.314e-4
-1.287, 1.312e-4
-1.288, 1.313e-4
-1.289, 1.314e-4
-1.290, 1.317e-4
-1.291, 1.319e-4
-1.292, 1.319e-4
-1.293, 1.320e-4
-1.294, 1.320e-4
-1.295, 1.322e-4
-1.296, 1.322e-4
-1.297, 1.324e-4
-1.298, 1.324e-4
-1.299, 1.325e-4
-1.300, 1.326e-4
-1.301, 1.326e-4
-1.302, 1.327e-4
-1.303, 1.329e-4
-1.304, 1.330e-4
-1.305, 1.330e-4
-1.306, 1.332e-4
-1.307, 1.334e-4
-1.308, 1.335e-4
-1.309, 1.334e-4
-1.310, 1.334e-4
-1.311, 1.335e-4
-1.312, 1.336e-4
-1.313, 1.336e-4
-1.314, 1.336e-4
-1.315, 1.337e-4
-1.316, 1.339e-4
-1.317, 1.340e-4
-1.318, 1.340e-4
-1.319, 1.341e-4
-1.320, 1.343e-4
-1.321, 1.344e-4
-1.322, 1.345e-4
-1.323, 1.347e-4
-1.324, 1.349e-4
-1.325, 1.351e-4
-1.326, 1.352e-4
-1.327, 1.352e-4
-1.328, 1.353e-4
-1.329, 1.354e-4
-1.330, 1.355e-4
-1.331, 1.358e-4
-1.332, 1.360e-4
-1.333, 1.363e-4
-1.334, 1.363e-4
-1.335, 1.362e-4
-1.336, 1.363e-4
-1.337, 1.365e-4
-1.338, 1.365e-4
-1.339, 1.365e-4
-1.340, 1.364e-4
-1.341, 1.364e-4
-1.342, 1.366e-4
-1.343, 1.366e-4
-1.344, 1.368e-4
-1.345, 1.371e-4
-1.346, 1.373e-4
-1.347, 1.375e-4
-1.348, 1.378e-4
-1.349, 1.378e-4
-1.350, 1.380e-4
-1.351, 1.380e-4
-1.352, 1.380e-4
-1.353, 1.382e-4
-1.354, 1.383e-4
-1.355, 1.383e-4
-1.356, 1.386e-4
-1.357, 1.389e-4
-1.358, 1.392e-4
-1.359, 1.393e-4
-1.360, 1.392e-4
-1.361, 1.396e-4
-1.362, 1.400e-4
-1.363, 1.402e-4
-1.364, 1.402e-4
-1.365, 1.404e-4
-1.366, 1.407e-4
-1.367, 1.409e-4
-1.368, 1.410e-4
-1.369, 1.411e-4
-1.370, 1.412e-4
-1.371, 1.414e-4
-1.372, 1.415e-4
-1.373, 1.418e-4
-1.374, 1.420e-4
-1.375, 1.422e-4
-1.376, 1.425e-4
-1.377, 1.427e-4
-1.378, 1.428e-4
-1.379, 1.430e-4
-1.380, 1.431e-4
-1.381, 1.433e-4
-1.382, 1.434e-4
-1.383, 1.437e-4
-1.384, 1.438e-4
-1.385, 1.440e-4
-1.386, 1.442e-4
-1.387, 1.443e-4
-1.388, 1.444e-4
-1.389, 1.446e-4
-1.390, 1.448e-4
-1.391, 1.449e-4
-1.392, 1.451e-4
-1.393, 1.455e-4
-1.394, 1.457e-4
-1.395, 1.459e-4
-1.396, 1.455e-4
-1.397, 1.456e-4
-1.398, 1.459e-4
-1.399, 1.461e-4
-1.400, 1.462e-4
-1.401, 1.466e-4
-1.402, 1.468e-4
-1.403, 1.471e-4
-1.404, 1.474e-4
-1.405, 1.479e-4
-1.406, 1.481e-4
-1.407, 1.481e-4
-1.408, 1.482e-4
-1.409, 1.484e-4
-1.410, 1.488e-4
-1.411, 1.489e-4
-1.412, 1.491e-4
-1.413, 1.494e-4
-1.414, 1.497e-4
-1.415, 1.501e-4
-1.416, 1.504e-4
-1.417, 1.506e-4
-1.418, 1.511e-4
-1.419, 1.515e-4
-1.420, 1.519e-4
-1.421, 1.520e-4
-1.422, 1.524e-4
-1.423, 1.527e-4
-1.424, 1.532e-4
-1.425, 1.536e-4
-1.426, 1.541e-4
-1.427, 1.545e-4
-1.428, 1.551e-4
-1.429, 1.555e-4
-1.430, 1.559e-4
-1.431, 1.565e-4
-1.432, 1.573e-4
-1.433, 1.583e-4
-1.434, 1.588e-4
-1.435, 1.591e-4
-1.436, 1.598e-4
-1.437, 1.604e-4
-1.438, 1.611e-4
-1.439, 1.617e-4
-1.440, 1.622e-4
-1.441, 1.628e-4
-1.442, 1.634e-4
-1.443, 1.641e-4
-1.444, 1.652e-4
-1.445, 1.658e-4
-1.446, 1.663e-4
-1.447, 1.670e-4
-1.448, 1.684e-4
-1.449, 1.699e-4
-1.450, 1.702e-4
-1.451, 1.709e-4
-1.452, 1.718e-4
-1.453, 1.726e-4
-1.454, 1.734e-4
-1.455, 1.742e-4
-1.456, 1.750e-4
-1.457, 1.757e-4
-1.458, 1.767e-4
-1.459, 1.774e-4
-1.460, 1.782e-4
-1.461, 1.790e-4
-1.462, 1.798e-4
-1.463, 1.808e-4
-1.464, 1.817e-4
-1.465, 1.826e-4
-1.466, 1.835e-4
-1.467, 1.845e-4
-1.468, 1.853e-4
-1.469, 1.860e-4
-1.470, 1.868e-4
-1.471, 1.870e-4
-1.472, 1.876e-4
-1.473, 1.886e-4
-1.474, 1.897e-4
-1.475, 1.907e-4
-1.476, 1.918e-4
-1.477, 1.928e-4
-1.478, 1.938e-4
-1.479, 1.949e-4
-1.480, 1.960e-4
-1.481, 1.973e-4
-1.482, 1.984e-4
-1.483, 1.995e-4
-1.484, 2.005e-4
-1.485, 2.015e-4
-1.486, 2.027e-4
-1.487, 2.037e-4
-1.488, 2.050e-4
-1.489, 2.062e-4
-1.490, 2.074e-4
-1.491, 2.085e-4
-1.492, 2.099e-4
-1.493, 2.111e-4
-1.494, 2.126e-4
-1.495, 2.140e-4
-1.496, 2.149e-4
-1.497, 2.160e-4
-1.498, 2.172e-4
-1.499, 2.185e-4
-1.500, 2.198e-4
-1.501, 2.210e-4
-1.502, 2.223e-4
-1.503, 2.236e-4
-1.504, 2.249e-4
-1.505, 2.263e-4
-1.506, 2.273e-4
-1.507, 2.287e-4
-1.508, 2.299e-4
-1.509, 2.313e-4
-1.510, 2.327e-4
-1.511, 2.340e-4
-1.512, 2.354e-4
-1.513, 2.368e-4
-1.514, 2.382e-4
-1.515, 2.397e-4
-1.516, 2.412e-4
-1.517, 2.427e-4
-1.518, 2.440e-4
-1.519, 2.455e-4
-1.520, 2.471e-4
-1.521, 2.487e-4
-1.522, 2.501e-4
-1.523, 2.514e-4
-1.524, 2.529e-4
-1.525, 2.549e-4
-1.526, 2.563e-4
-1.527, 2.576e-4
-1.528, 2.590e-4
-1.529, 2.607e-4
-1.530, 2.626e-4
-1.531, 2.649e-4
-1.532, 2.677e-4
-1.533, 2.705e-4
-1.534, 2.721e-4
-1.535, 2.735e-4
-1.536, 2.751e-4
-1.537, 2.769e-4
-1.538, 2.786e-4
-1.539, 2.804e-4
-1.540, 2.821e-4
-1.541, 2.838e-4
-1.542, 2.854e-4
-1.543, 2.876e-4
-1.544, 2.900e-4
-1.545, 2.915e-4
-1.546, 2.934e-4
-1.547, 2.969e-4
-1.548, 2.994e-4
-1.549, 3.006e-4
-1.550, 3.020e-4
-1.551, 3.038e-4
-1.552, 3.057e-4
-1.553, 3.077e-4
-1.554, 3.095e-4
-1.555, 3.115e-4
-1.556, 3.137e-4
-1.557, 3.159e-4
-1.558, 3.179e-4
-1.559, 3.198e-4
-1.560, 3.217e-4
-1.561, 3.237e-4
-1.562, 3.258e-4
-1.563, 3.280e-4
-1.564, 3.296e-4
-1.565, 3.317e-4
-1.566, 3.339e-4
-1.567, 3.361e-4
-1.568, 3.385e-4
-1.569, 3.409e-4
-1.570, 3.432e-4
-1.571, 3.456e-4
-1.572, 3.480e-4
-1.573, 3.503e-4
-1.574, 3.531e-4
-1.575, 3.556e-4
-1.576, 3.579e-4
-1.577, 3.604e-4
-1.578, 3.628e-4
-1.579, 3.655e-4
-1.580, 3.682e-4
-1.581, 3.710e-4
-1.582, 3.736e-4
-1.583, 3.763e-4
-1.584, 3.792e-4
-1.585, 3.819e-4
-1.586, 3.847e-4
-1.587, 3.875e-4
-1.588, 3.903e-4
-1.589, 3.929e-4
-1.590, 3.958e-4
-1.591, 3.990e-4
-1.592, 4.022e-4
-1.593, 4.052e-4
-1.594, 4.077e-4
-1.595, 4.107e-4
-1.596, 4.138e-4
-1.597, 4.166e-4
-1.598, 4.194e-4
-1.599, 4.223e-4
-1.600, 4.256e-4
-1.601, 4.287e-4
-1.602, 4.318e-4
-1.603, 4.350e-4
-1.604, 4.382e-4
-1.605, 4.413e-4
-1.606, 4.448e-4
-1.607, 4.483e-4
-1.608, 4.518e-4
-1.609, 4.552e-4
-1.610, 4.587e-4
-1.611, 4.622e-4
-1.612, 4.660e-4
-1.613, 4.697e-4
-1.614, 4.733e-4
-1.615, 4.771e-4
-1.616, 4.809e-4
-1.617, 4.847e-4
-1.618, 4.885e-4
-1.619, 4.924e-4
-1.620, 4.963e-4
-1.621, 5.004e-4
-1.622, 5.042e-4
-1.623, 5.082e-4
-1.624, 5.124e-4
-1.625, 5.162e-4
-1.626, 5.203e-4
-1.627, 5.245e-4
-1.628, 5.286e-4
-1.629, 5.330e-4
-1.630, 5.379e-4
-1.631, 5.423e-4
-1.632, 5.467e-4
-1.633, 5.514e-4
-1.634, 5.561e-4
-1.635, 5.606e-4
-1.636, 5.649e-4
-1.637, 5.693e-4
-1.638, 5.732e-4
-1.639, 5.763e-4
-1.640, 5.809e-4
-1.641, 5.858e-4
-1.642, 5.907e-4
-1.643, 5.955e-4
-1.644, 6.003e-4
-1.645, 6.051e-4
-1.646, 6.101e-4
-1.647, 6.149e-4
-1.648, 6.199e-4
-1.649, 6.250e-4
-1.650, 6.301e-4
-1.651, 6.354e-4
-1.652, 6.407e-4
-1.653, 6.459e-4
-1.654, 6.512e-4
-1.655, 6.567e-4
-1.656, 6.622e-4
-1.657, 6.678e-4
-1.658, 6.737e-4
-1.659, 6.801e-4
-1.660, 6.859e-4
-1.661, 6.916e-4
-1.662, 6.971e-4
-1.663, 7.026e-4
-1.664, 7.085e-4
-1.665, 7.143e-4
-1.666, 7.201e-4
-1.667, 7.259e-4
-1.668, 7.320e-4
-1.669, 7.383e-4
-1.670, 7.448e-4
-1.671, 7.507e-4
-1.672, 7.569e-4
-1.673, 7.631e-4
-1.674, 7.691e-4
-1.675, 7.761e-4
-1.676, 7.832e-4
-1.677, 7.895e-4
-1.678, 7.957e-4
-1.679, 8.018e-4
-1.680, 8.081e-4
-1.681, 8.146e-4
-1.682, 8.211e-4
-1.683, 8.276e-4
-1.684, 8.341e-4
-1.685, 8.408e-4
-1.686, 8.476e-4
-1.687, 8.543e-4
-1.688, 8.610e-4
-1.689, 8.677e-4
-1.690, 8.745e-4
-1.691, 8.814e-4
-1.692, 8.884e-4
-1.693, 8.955e-4
-1.694, 9.027e-4
-1.695, 9.098e-4
-1.696, 9.170e-4
-1.697, 9.243e-4
-1.698, 9.316e-4
-1.699, 9.389e-4
-1.700, 9.461e-4
-1.701, 9.534e-4
-1.702, 9.610e-4
-1.703, 9.681e-4
-1.704, 9.758e-4
-1.705, 9.832e-4
-1.706, 9.906e-4
-1.707, 9.980e-4
-1.708, 1.005e-3
-1.709, 1.011e-3
-1.710, 1.011e-3
-1.711, 1.011e-3
-1.712, 1.011e-3
-1.713, 1.011e-3
-1.714, 1.011e-3
-1.715, 1.011e-3
-1.716, 1.011e-3
-1.717, 1.011e-3
-1.718, 1.011e-3
-1.719, 1.011e-3
-1.720, 1.011e-3
-1.721, 1.011e-3
-1.722, 1.011e-3
-1.723, 1.011e-3
-1.724, 1.011e-3
-1.725, 1.011e-3
-1.726, 1.011e-3
-1.727, 1.011e-3
-1.728, 1.011e-3
-1.729, 1.011e-3
-1.730, 1.011e-3
-1.731, 1.011e-3
-1.732, 1.011e-3
-1.733, 1.011e-3
-1.734, 1.011e-3
-1.735, 1.011e-3
-1.736, 1.011e-3
-1.737, 1.011e-3
-1.738, 1.011e-3
-1.739, 1.011e-3
-1.740, 1.011e-3
-1.741, 1.011e-3
-1.742, 1.011e-3
-1.743, 1.011e-3
-1.744, 1.011e-3
-1.745, 1.011e-3
-1.746, 1.011e-3
-1.747, 1.011e-3
-1.748, 1.011e-3
-1.749, 1.011e-3
-1.750, 1.011e-3
-1.751, 1.011e-3
-1.752, 1.011e-3
-1.753, 1.011e-3
-1.754, 1.011e-3
-1.755, 1.011e-3
-1.756, 1.011e-3
-1.757, 1.011e-3
-1.758, 1.011e-3
-1.759, 1.011e-3
-1.760, 1.011e-3
-1.761, 1.011e-3
-1.762, 1.011e-3
-1.763, 1.011e-3
-1.764, 1.011e-3
-1.765, 1.011e-3
-1.766, 1.011e-3
-1.767, 1.011e-3
-1.768, 1.011e-3
-1.769, 1.011e-3
-1.770, 1.011e-3
-1.771, 1.011e-3
-1.772, 1.011e-3
-1.773, 1.011e-3
-1.774, 1.011e-3
-1.775, 1.011e-3
-1.776, 1.011e-3
-1.777, 1.011e-3
-1.778, 1.011e-3
-1.779, 1.011e-3
-1.780, 1.011e-3
-1.781, 1.011e-3
-1.782, 1.011e-3
-1.783, 1.011e-3
-1.784, 1.011e-3
-1.785, 1.011e-3
-1.786, 1.011e-3
-1.787, 1.011e-3
-1.788, 1.011e-3
-1.789, 1.011e-3
-1.790, 1.011e-3
-1.791, 1.011e-3
-1.792, 1.011e-3
-1.793, 1.011e-3
-1.794, 1.011e-3
-1.795, 1.011e-3
-1.796, 1.011e-3
-1.797, 1.011e-3
-1.798, 1.011e-3
-1.799, 1.011e-3
-1.800, 1.011e-3
-1.801, 1.011e-3
-1.802, 1.011e-3
-1.803, 1.011e-3
-1.804, 1.011e-3
-1.805, 1.011e-3
-1.806, 1.011e-3
-1.807, 1.011e-3
-1.808, 1.011e-3
-1.809, 1.011e-3
-1.810, 1.011e-3
-1.811, 1.011e-3
-1.812, 1.011e-3
-1.813, 1.011e-3
-1.814, 1.011e-3
-1.815, 1.011e-3
-1.816, 1.011e-3
-1.817, 1.011e-3
-1.818, 1.011e-3
-1.819, 1.011e-3
-1.820, 1.011e-3
-1.821, 1.011e-3
-1.822, 1.011e-3
-1.823, 1.011e-3
-1.824, 1.011e-3
-1.825, 1.011e-3
-1.826, 1.011e-3
-1.827, 1.011e-3
-1.828, 1.011e-3
-1.829, 1.011e-3
-1.830, 1.011e-3
-1.831, 1.011e-3
-1.832, 1.011e-3
-1.833, 1.011e-3
-1.834, 1.011e-3
-1.835, 1.011e-3
-1.836, 1.011e-3
-1.837, 1.011e-3
-1.838, 1.011e-3
-1.839, 1.011e-3
-1.840, 1.011e-3
-1.841, 1.011e-3
-1.842, 1.011e-3
-1.843, 1.011e-3
-1.844, 1.011e-3
-1.845, 1.011e-3
-1.846, 1.011e-3
-1.847, 1.011e-3
-1.848, 1.011e-3
-1.849, 1.011e-3
-1.850, 1.011e-3
-1.851, 1.011e-3
-1.852, 1.011e-3
-1.853, 1.011e-3
-1.854, 1.011e-3
-1.855, 1.011e-3
-1.856, 1.011e-3
-1.857, 1.011e-3
-1.858, 1.011e-3
-1.859, 1.011e-3
-1.860, 1.011e-3
-1.861, 1.011e-3
-1.862, 1.011e-3
-1.863, 1.011e-3
-1.864, 1.011e-3
-1.865, 1.011e-3
-1.866, 1.011e-3
-1.867, 1.011e-3
-1.868, 1.011e-3
-1.869, 1.011e-3
-1.870, 1.011e-3
-1.871, 1.011e-3
-1.872, 1.011e-3
-1.873, 1.011e-3
-1.874, 1.011e-3
-1.875, 1.011e-3
-1.876, 1.011e-3
-1.877, 1.011e-3
-1.878, 1.011e-3
-1.879, 1.011e-3
-1.880, 1.011e-3
-1.881, 1.011e-3
-1.882, 1.011e-3
-1.883, 1.011e-3
-1.884, 1.011e-3
-1.885, 1.011e-3
-1.886, 1.011e-3
-1.887, 1.011e-3
-1.888, 1.011e-3
-1.889, 1.011e-3
-1.890, 1.011e-3
-1.891, 1.011e-3
-1.892, 1.011e-3
-1.893, 1.011e-3
-1.894, 1.011e-3
-1.895, 1.011e-3
-1.896, 1.011e-3
-1.897, 1.011e-3
-1.898, 1.011e-3
-1.899, 1.011e-3
-1.900, 1.011e-3
-1.901, 1.011e-3
-1.902, 1.011e-3
-1.903, 1.011e-3
-1.904, 1.011e-3
-1.905, 1.011e-3
-1.906, 1.011e-3
-1.907, 1.011e-3
-1.908, 1.011e-3
-1.909, 1.011e-3
-1.910, 1.011e-3
-1.911, 1.011e-3
-1.912, 1.011e-3
-1.913, 1.011e-3
-1.914, 1.011e-3
-1.915, 1.011e-3
-1.916, 1.011e-3
-1.917, 1.011e-3
-1.918, 1.011e-3
-1.919, 1.011e-3
-1.920, 1.011e-3
-1.921, 1.011e-3
-1.922, 1.011e-3
-1.923, 1.011e-3
-1.924, 1.011e-3
-1.925, 1.011e-3
-1.926, 1.011e-3
-1.927, 1.011e-3
-1.928, 1.011e-3
-1.929, 1.011e-3
-1.930, 1.011e-3
-1.931, 1.011e-3
-1.932, 1.011e-3
-1.933, 1.011e-3
-1.934, 1.011e-3
-1.935, 1.011e-3
-1.936, 1.011e-3
-1.937, 1.011e-3
-1.938, 1.011e-3
-1.939, 1.011e-3
-1.940, 1.011e-3
-1.941, 1.011e-3
-1.942, 1.011e-3
-1.943, 1.011e-3
-1.944, 1.011e-3
-1.945, 1.011e-3
-1.946, 1.011e-3
-1.947, 1.011e-3
-1.948, 1.011e-3
-1.949, 1.011e-3
-1.950, 1.011e-3
-1.951, 1.011e-3
-1.952, 1.011e-3
-1.953, 1.011e-3
-1.954, 1.011e-3
-1.955, 1.011e-3
-1.956, 1.011e-3
-1.957, 1.011e-3
-1.958, 1.011e-3
-1.959, 1.011e-3
-1.960, 1.011e-3
-1.961, 1.011e-3
-1.962, 1.011e-3
-1.963, 1.011e-3
-1.964, 1.011e-3
-1.965, 1.011e-3
-1.966, 1.011e-3
-1.967, 1.011e-3
-1.968, 1.011e-3
-1.969, 1.011e-3
-1.970, 1.011e-3
-1.971, 1.011e-3
-1.972, 1.011e-3
-1.973, 1.011e-3
-1.974, 1.011e-3
-1.975, 1.011e-3
-1.976, 1.011e-3
-1.977, 1.011e-3
-1.978, 1.011e-3
-1.979, 1.011e-3
-1.980, 1.011e-3
-1.981, 1.011e-3
-1.982, 1.011e-3
-1.983, 1.011e-3
-1.984, 1.011e-3
-1.985, 1.011e-3
-1.986, 1.011e-3
-1.987, 1.011e-3
-1.988, 1.011e-3
-1.989, 1.011e-3
-1.990, 1.011e-3
-1.991, 1.011e-3
-1.992, 1.011e-3
-1.993, 1.011e-3
-1.994, 1.011e-3
-1.995, 1.011e-3
-1.996, 1.011e-3
-1.997, 1.011e-3
-1.998, 1.011e-3
-1.999, 1.011e-3
-2.000, 1.011e-3
-2.001, 1.011e-3
-2.002, 1.011e-3
-2.003, 1.011e-3
-2.004, 1.011e-3
-2.005, 1.011e-3
-2.006, 1.011e-3
-2.007, 1.011e-3
-2.008, 1.011e-3
-2.009, 1.011e-3
-2.010, 1.011e-3
-2.011, 1.011e-3
-2.012, 1.011e-3
-2.013, 1.011e-3
-2.014, 1.011e-3
-2.015, 1.011e-3
-2.016, 1.011e-3
-2.017, 1.011e-3
-2.018, 1.011e-3
-2.019, 1.011e-3
-2.020, 1.011e-3
-2.021, 1.011e-3
-2.022, 1.011e-3
-2.023, 1.011e-3
-2.024, 1.011e-3
-2.025, 1.011e-3
-2.026, 1.011e-3
-2.027, 1.011e-3
-2.028, 1.011e-3
-2.029, 1.011e-3
-2.030, 1.011e-3
-2.031, 1.011e-3
-2.032, 1.011e-3
-2.033, 1.011e-3
-2.034, 1.011e-3
-2.035, 1.011e-3
-2.036, 1.011e-3
-2.037, 1.011e-3
-2.038, 1.011e-3
-2.039, 1.011e-3
-2.040, 1.011e-3
-2.041, 1.011e-3
-2.042, 1.011e-3
-2.043, 1.011e-3
-2.044, 1.011e-3
-2.045, 1.011e-3
-2.046, 1.011e-3
-2.047, 1.011e-3
-2.048, 1.011e-3
-2.049, 1.011e-3
-2.050, 1.011e-3
-2.051, 1.011e-3
-2.052, 1.011e-3
-2.053, 1.011e-3
-2.054, 1.011e-3
-2.055, 1.011e-3
-2.056, 1.011e-3
-2.057, 1.011e-3
-2.058, 1.011e-3
-2.059, 1.011e-3
-2.060, 1.011e-3
-2.061, 1.011e-3
-2.062, 1.011e-3
-2.063, 1.011e-3
-2.064, 1.011e-3
-2.065, 1.011e-3
-2.066, 1.011e-3
-2.067, 1.011e-3
-2.068, 1.011e-3
-2.069, 1.011e-3
-2.070, 1.011e-3
-2.071, 1.011e-3
-2.072, 1.011e-3
-2.073, 1.011e-3
-2.074, 1.011e-3
-2.075, 1.011e-3
-2.076, 1.011e-3
-2.077, 1.011e-3
-2.078, 1.011e-3
-2.079, 1.011e-3
-2.080, 1.011e-3
-2.081, 1.011e-3
-2.082, 1.011e-3
-2.083, 1.011e-3
-2.084, 1.011e-3
-2.085, 1.011e-3
-2.086, 1.011e-3
-2.087, 1.011e-3
-2.088, 1.011e-3
-2.089, 1.011e-3
-2.090, 1.011e-3
-2.091, 1.011e-3
-2.092, 1.011e-3
-2.093, 1.011e-3
-2.094, 1.011e-3
-2.095, 1.011e-3
-2.096, 1.011e-3
-2.097, 1.011e-3
-2.098, 1.011e-3
-2.099, 1.011e-3
-2.100, 1.011e-3
-2.101, 1.011e-3
-2.102, 1.011e-3
-2.103, 1.011e-3
-2.104, 1.011e-3
-2.105, 1.011e-3
-2.106, 1.011e-3
-2.107, 1.011e-3
-2.108, 1.011e-3
-2.109, 1.011e-3
-2.110, 1.011e-3
-2.111, 1.011e-3
-2.112, 1.011e-3
-2.113, 1.011e-3
-2.114, 1.011e-3
-2.115, 1.011e-3
-2.116, 1.011e-3
-2.117, 1.011e-3
-2.118, 1.011e-3
-2.119, 1.011e-3
-2.120, 1.011e-3
-2.121, 1.011e-3
-2.122, 1.011e-3
-2.123, 1.011e-3
-2.124, 1.011e-3
-2.125, 1.011e-3
-2.126, 1.011e-3
-2.127, 1.011e-3
-2.128, 1.011e-3
-2.129, 1.011e-3
-2.130, 1.011e-3
-2.131, 1.011e-3
-2.132, 1.011e-3
-2.133, 1.011e-3
-2.134, 1.011e-3
-2.135, 1.011e-3
-2.136, 1.011e-3
-2.137, 1.011e-3
-2.138, 1.011e-3
-2.139, 1.011e-3
-2.140, 1.011e-3
-2.141, 1.011e-3
-2.142, 1.011e-3
-2.143, 1.011e-3
-2.144, 1.011e-3
-2.145, 1.011e-3
-2.146, 1.011e-3
-2.147, 1.011e-3
-2.148, 1.011e-3
-2.149, 1.011e-3
-2.150, 1.011e-3
-2.151, 1.011e-3
-2.152, 1.011e-3
-2.153, 1.011e-3
-2.154, 1.011e-3
-2.155, 1.011e-3
-2.156, 1.011e-3
-2.157, 1.011e-3
-2.158, 1.011e-3
-2.159, 1.011e-3
-2.160, 1.011e-3
-2.161, 1.011e-3
-2.162, 1.011e-3
-2.163, 1.011e-3
-2.164, 1.011e-3
-2.165, 1.011e-3
-2.166, 1.011e-3
-2.167, 1.011e-3
-2.168, 1.011e-3
-2.169, 1.011e-3
-2.170, 1.011e-3
-2.171, 1.011e-3
-2.172, 1.011e-3
-2.173, 1.011e-3
-2.174, 1.011e-3
-2.175, 1.011e-3
-2.176, 1.011e-3
-2.177, 1.011e-3
-2.178, 1.011e-3
-2.179, 1.011e-3
-2.180, 1.011e-3
-2.181, 1.011e-3
-2.182, 1.011e-3
-2.183, 1.011e-3
-2.184, 1.011e-3
-2.185, 1.011e-3
-2.186, 1.011e-3
-2.187, 1.011e-3
-2.188, 1.011e-3
-2.189, 1.011e-3
-2.190, 1.011e-3
-2.191, 1.011e-3
-2.192, 1.011e-3
-2.193, 1.011e-3
-2.194, 1.011e-3
-2.195, 1.011e-3
-2.196, 1.011e-3
-2.197, 1.011e-3
-2.198, 1.011e-3
-2.199, 1.011e-3
-2.200, 1.011e-3
-2.201, 1.011e-3
-2.202, 1.011e-3
-2.203, 1.011e-3
-2.204, 1.011e-3
-2.205, 1.011e-3
-2.206, 1.011e-3
-2.207, 1.011e-3
-2.208, 1.011e-3
-2.209, 1.011e-3
-2.210, 1.011e-3
-2.211, 1.011e-3
-2.212, 1.011e-3
-2.213, 1.011e-3
-2.214, 1.011e-3
-2.215, 1.011e-3
-2.216, 1.011e-3
-2.217, 1.011e-3
-2.218, 1.011e-3
-2.219, 1.011e-3
-2.220, 1.011e-3
-2.221, 1.011e-3
-2.222, 1.011e-3
-2.223, 1.011e-3
-2.224, 1.011e-3
-2.225, 1.011e-3
-2.226, 1.011e-3
-2.227, 1.011e-3
-2.228, 1.011e-3
-2.229, 1.011e-3
-2.230, 1.011e-3
-2.231, 1.011e-3
-2.232, 1.011e-3
-2.233, 1.011e-3
-2.234, 1.011e-3
-2.235, 1.011e-3
-2.236, 1.011e-3
-2.237, 1.011e-3
-2.238, 1.011e-3
-2.239, 1.011e-3
-2.240, 1.011e-3
-2.241, 1.011e-3
-2.242, 1.011e-3
-2.243, 1.011e-3
-2.244, 1.011e-3
-2.245, 1.011e-3
-2.246, 1.011e-3
-2.247, 1.011e-3
-2.248, 1.011e-3
-2.249, 1.011e-3
-2.250, 1.011e-3
-2.251, 1.011e-3
-2.252, 1.011e-3
-2.253, 1.011e-3
-2.254, 1.011e-3
-2.255, 1.011e-3
-2.256, 1.011e-3
-2.257, 1.011e-3
-2.258, 1.011e-3
-2.259, 1.011e-3
-2.260, 1.011e-3
-2.261, 1.011e-3
-2.262, 1.011e-3
-2.263, 1.011e-3
-2.264, 1.011e-3
-2.265, 1.011e-3
-2.266, 1.011e-3
-2.267, 1.011e-3
-2.268, 1.011e-3
-2.269, 1.011e-3
-2.270, 1.011e-3
-2.271, 1.011e-3
-2.272, 1.011e-3
-2.273, 1.011e-3
-2.274, 1.011e-3
-2.275, 1.011e-3
-2.276, 1.011e-3
-2.277, 1.011e-3
-2.278, 1.011e-3
-2.279, 1.011e-3
-2.280, 1.011e-3
-2.281, 1.011e-3
-2.282, 1.011e-3
-2.283, 1.011e-3
-2.284, 1.011e-3
-2.285, 1.011e-3
-2.286, 1.011e-3
-2.287, 1.011e-3
-2.288, 1.011e-3
-2.289, 1.011e-3
-2.290, 1.011e-3
-2.291, 1.011e-3
-2.292, 1.011e-3
-2.293, 1.011e-3
-2.294, 1.011e-3
-2.295, 1.011e-3
-2.296, 1.011e-3
-2.297, 1.011e-3
-2.298, 1.011e-3
-2.299, 1.011e-3
