Potential V vs RHE, Current mA cm-2
0.05339999999999995,-0.011068701210144046
0.05239999999999995,-0.011477552775805042
0.051399999999999946,-0.011722297830681695
0.050399999999999945,-0.01194582221606037
0.049399999999999944,-0.012152370065840664
0.04839999999999994,-0.012343356091322444
0.04739999999999994,-0.012552733363702469
0.04639999999999994,-0.012715425163186949
0.04539999999999994,-0.012910655322568325
0.04439999999999994,-0.013115788461048756
0.04339999999999994,-0.013315262754329725
0.04239999999999994,-0.013494931089412587
0.04139999999999994,-0.013683087692294635
0.040399999999999936,-0.01387265900647655
0.039399999999999935,-0.014063645031958328
0.038399999999999934,-0.01427443701563822
0.03739999999999993,-0.014458349484620674
0.03639999999999993,-0.014628114840604478
0.03539999999999993,-0.014826174422585584
0.03439999999999993,-0.015024234004566688
0.03339999999999993,-0.015222293586547794
0.03239999999999993,-0.015406206055530251
0.03139999999999993,-0.015561824298515404
0.030399999999999927,-0.01575988388049651
0.029399999999999926,-0.015957943462477614
0.028399999999999925,-0.01614185593146007
0.027399999999999924,-0.016325768400442524
0.026399999999999924,-0.01652382798242363
0.025399999999999923,-0.016721887564404736
0.024399999999999922,-0.016891652920388536
0.02339999999999992,-0.017118006728366945
0.02239999999999992,-0.0173019191973494
0.02139999999999992,-0.01748583166633185
0.020399999999999918,-0.01769803836131161
0.019399999999999917,-0.017881950830294063
0.018399999999999916,-0.018094157525273817
0.017399999999999916,-0.018278069994256275
0.016399999999999915,-0.018461982463238727
0.015399999999999914,-0.018674189158218484
0.014399999999999913,-0.018886395853198238
0.013399999999999912,-0.019112749661176646
0.012399999999999911,-0.0192966621301591
0.01139999999999991,-0.01950886882513886
0.01039999999999991,-0.019721075520118612
0.009399999999999908,-0.019919135102099715
0.008399999999999908,-0.020103047571082173
0.007399999999999907,-0.020315254266061927
0.006399999999999906,-0.02052746096104168
0.005399999999999905,-0.02073966765602144
0.004399999999999904,-0.020937727238002544
0.003399999999999903,-0.021149933932982302
0.002399999999999902,-0.021362140627962056
0.0013999999999999013,-0.021560200209943158
0.00039999999999990044,-0.021800701130920214
-0.0006000000000001005,-0.02199876071290132
-0.0016000000000001013,-0.022225114520879725
-0.0026000000000001022,-0.02245146832885813
-0.003600000000000103,-0.02264952791083924
-0.004600000000000104,-0.022861734605818994
-0.005600000000000105,-0.023045647074801445
-0.006600000000000106,-0.023300295108777156
-0.007600000000000107,-0.023512501803756906
-0.008600000000000108,-0.023710561385738016
-0.009600000000000108,-0.02393691519371642
-0.01060000000000011,-0.024134974775697527
-0.01160000000000011,-0.024375475696674583
-0.012600000000000111,-0.024601829504652988
-0.013600000000000112,-0.024814036199632745
-0.014600000000000113,-0.025040390007611147
-0.015600000000000114,-0.025252596702590904
-0.016600000000000115,-0.02547895051056931
-0.017600000000000116,-0.025691157205549067
-0.018600000000000116,-0.02591751101352747
-0.019600000000000117,-0.02614386482150588
-0.020600000000000118,-0.026370218629484285
-0.02160000000000012,-0.02661071955046134
-0.02260000000000012,-0.026837073358439746
-0.02360000000000012,-0.02703513294042085
-0.024600000000000122,-0.02727563386139791
-0.025600000000000123,-0.027487840556377662
-0.026600000000000124,-0.02772834147735472
-0.027600000000000124,-0.027940548172334476
-0.028600000000000125,-0.028166901980312884
-0.029600000000000126,-0.028407402901289937
-0.030600000000000127,-0.028633756709268345
-0.03160000000000013,-0.028874257630245398
-0.03260000000000013,-0.029100611438223806
-0.03360000000000013,-0.029326965246202208
-0.03460000000000002,-0.029567466167179264
-0.03560000000000002,-0.02979381997515767
-0.03660000000000002,-0.03002017378313608
-0.03760000000000002,-0.030246527591114486
-0.03860000000000002,-0.030487028512091542
-0.039600000000000024,-0.030699235207071292
-0.040600000000000025,-0.0309255890150497
-0.041600000000000026,-0.031151942823028106
-0.04260000000000003,-0.03139244374400516
-0.04360000000000003,-0.03160465043898492
-0.04460000000000003,-0.03183100424696332
-0.04560000000000003,-0.032057358054941726
-0.04660000000000003,-0.03229785897591879
-0.04760000000000003,-0.032524212783897194
-0.04860000000000003,-0.032736419478876955
-0.04960000000000003,-0.032991067512852655
-0.050600000000000034,-0.03323156843382971
-0.051600000000000035,-0.03347206935480676
-0.052600000000000036,-0.033712570275783824
-0.053600000000000037,-0.03393892408376223
-0.05460000000000004,-0.034193572117737936
-0.05560000000000004,-0.03441992592571634
-0.05660000000000004,-0.0346604268466934
-0.05760000000000004,-0.03490092776767045
-0.05860000000000004,-0.03509898734965156
-0.05960000000000004,-0.03535363538362727
-0.06060000000000004,-0.035579989191605675
-0.061600000000000044,-0.03583463722558138
-0.06260000000000004,-0.03607513814655844
-0.06360000000000005,-0.03631563906753549
-0.06460000000000005,-0.03655613998851255
-0.06560000000000005,-0.036782493796490956
-0.06660000000000005,-0.03705128894346531
-0.06760000000000005,-0.037291789864442364
-0.06860000000000005,-0.03753229078541943
-0.06960000000000005,-0.03778693881939513
-0.07060000000000005,-0.03801329262737353
-0.07160000000000005,-0.03825379354835059
-0.07260000000000005,-0.03848014735632899
-0.07360000000000005,-0.03872064827730605
-0.07460000000000006,-0.038961149198283106
-0.07560000000000006,-0.03918750300626152
-0.07660000000000006,-0.039456298153235876
-0.07760000000000006,-0.03971094618721158
-0.07860000000000006,-0.03993729999518999
-0.07960000000000006,-0.04019194802916569
-0.08060000000000006,-0.040418301837144094
-0.08160000000000006,-0.0406729498711198
-0.08260000000000006,-0.040927597905095515
-0.08360000000000006,-0.04115395171307392
-0.08460000000000006,-0.04139445263405097
-0.08560000000000006,-0.04163495355502803
-0.08660000000000007,-0.04188960158900373
-0.08760000000000007,-0.04211595539698214
-0.08860000000000007,-0.0423564563179592
-0.08960000000000007,-0.04259695723893625
-0.09060000000000007,-0.042837458159913314
-0.09160000000000007,-0.04307795908089037
-0.09260000000000007,-0.04333260711486608
-0.09360000000000007,-0.04357310803584313
-0.09460000000000007,-0.043827756069818834
-0.09560000000000007,-0.04406825699079589
-0.09660000000000007,-0.0443229050247716
-0.09760000000000008,-0.04456340594574865
-0.09860000000000008,-0.04480390686672571
-0.09960000000000008,-0.045044407787702766
-0.10060000000000008,-0.04528490870867982
-0.10160000000000008,-0.04552540962965688
-0.10260000000000008,-0.045794204776631244
-0.10360000000000008,-0.04599226435861234
-0.10460000000000008,-0.04624691239258805
-0.10560000000000008,-0.0464874133135651
-0.10660000000000008,-0.04672791423454216
-0.10760000000000008,-0.046968415155519215
-0.10860000000000009,-0.04720891607649628
-0.10960000000000009,-0.04746356411047198
-0.11060000000000009,-0.04771821214444769
-0.11160000000000009,-0.04797286017842339
-0.11260000000000009,-0.04821336109940045
-0.11360000000000009,-0.04842556779438021
-0.11460000000000009,-0.04869436294135456
-0.11560000000000009,-0.04893486386233162
-0.11660000000000009,-0.049175364783308674
-0.1176000000000001,-0.04943001281728438
-0.1186000000000001,-0.04965636662526278
-0.1196000000000001,-0.0498827204332412
-0.1206000000000001,-0.0501090742412196
-0.1216000000000001,-0.050363722275195304
-0.1226000000000001,-0.050590076083173716
-0.1236000000000001,-0.05083057700415077
-0.1246000000000001,-0.05108522503812647
-0.1256000000000001,-0.05132572595910353
-0.1266000000000001,-0.051566226880080585
-0.1276000000000001,-0.05182087491405629
-0.1286000000000001,-0.0520472287220347
-0.1296000000000001,-0.05228772964301176
-0.1306000000000001,-0.05252823056398881
-0.1316000000000001,-0.05275458437196722
-0.1326000000000001,-0.05300923240594292
-0.1336000000000001,-0.05322143910092268
-0.1346000000000001,-0.05347608713489838
-0.1356000000000001,-0.053702440942876795
-0.1366000000000001,-0.053957088976852495
-0.1376000000000001,-0.05419758989782956
-0.1386000000000001,-0.05442394370580796
-0.1396000000000001,-0.05466444462678501
-0.1406000000000001,-0.05490494554776207
-0.14160000000000011,-0.055145446468739125
-0.14260000000000012,-0.05537180027671754
-0.14360000000000012,-0.055598154084695935
-0.14460000000000012,-0.05582450789267435
-0.14560000000000012,-0.0560367145876541
-0.14660000000000012,-0.056291362621629815
-0.14760000000000012,-0.056546010655605515
-0.14860000000000012,-0.05675821735058527
-0.14960000000000012,-0.05698457115856368
-0.15060000000000012,-0.05721092496654208
-0.15160000000000012,-0.05742313166152184
-0.15260000000000012,-0.05766363258249889
-0.15360000000000013,-0.057904133503475945
-0.15460000000000013,-0.05813048731145436
-0.15560000000000013,-0.05835684111943277
-0.15660000000000013,-0.05858319492741117
-0.15760000000000013,-0.05880954873538958
-0.15860000000000013,-0.05900760831737068
-0.15960000000000002,-0.059219815012350435
-0.16060000000000002,-0.05944616882032884
-0.16160000000000002,-0.05965837551530859
-0.16260000000000002,-0.05989887643628565
-0.16360000000000002,-0.06008278890526811
-0.16460000000000002,-0.06032328982624517
-0.16560000000000002,-0.06056379074722222
-0.16660000000000003,-0.06080429166819928
-0.16760000000000003,-0.06103064547617768
-0.16860000000000003,-0.06124285217115744
-0.16960000000000003,-0.06146920597913584
-0.17060000000000003,-0.06168141267411559
-0.17160000000000003,-0.06189361936909534
-0.17260000000000003,-0.062134120290072405
-0.17360000000000003,-0.062332179872053514
-0.17460000000000003,-0.06255853368003192
-0.17560000000000003,-0.06275659326201304
-0.17660000000000003,-0.06298294706999143
-0.17760000000000004,-0.06320930087796985
-0.17860000000000004,-0.0634215075729496
-0.17960000000000004,-0.063647861380928
-0.18060000000000004,-0.0638742151889064
-0.18160000000000004,-0.06407227477088752
-0.18260000000000004,-0.06431277569186457
-0.18360000000000004,-0.06452498238684433
-0.18460000000000004,-0.06475133619482273
-0.18560000000000004,-0.06493524866380519
-0.18660000000000004,-0.06514745535878494
-0.18760000000000004,-0.06534551494076604
-0.18860000000000005,-0.06554357452274716
-0.18960000000000005,-0.0657557812177269
-0.19060000000000005,-0.06596798791270667
-0.19160000000000005,-0.06619434172068506
-0.19260000000000005,-0.06639240130266617
-0.19360000000000005,-0.06660460799764592
-0.19460000000000005,-0.06680266757962702
-0.19560000000000005,-0.06700072716160814
-0.19660000000000005,-0.06719878674358926
-0.19760000000000005,-0.067410993438569
-0.19860000000000005,-0.06759490590755145
-0.19960000000000006,-0.06780711260253121
-0.20060000000000006,-0.06800517218451232
-0.20160000000000006,-0.06820323176649341
-0.20260000000000006,-0.06840129134847453
-0.20360000000000006,-0.06859935093045562
-0.20460000000000006,-0.06878326339943809
-0.20560000000000006,-0.06896717586842054
-0.20660000000000006,-0.06916523545040164
-0.20760000000000006,-0.06936329503238275
-0.20860000000000006,-0.0695472075013652
-0.20960000000000006,-0.06973111997034764
-0.21060000000000006,-0.06991503243933012
-0.21160000000000007,-0.07009894490831257
-0.21260000000000007,-0.07029700449029368
-0.21360000000000007,-0.07048091695927614
-0.21460000000000007,-0.07067897654125724
-0.21560000000000007,-0.07086288901023968
-0.21660000000000007,-0.07104680147922215
-0.21760000000000007,-0.07127315528720055
-0.21860000000000007,-0.07144292064318435
-0.21960000000000007,-0.0716268331121668
-0.22060000000000007,-0.07178245135515196
-0.22160000000000007,-0.07196636382413442
-0.22260000000000008,-0.07216442340611552
-0.22360000000000008,-0.07232004164910069
-0.22460000000000008,-0.07250395411808314
-0.22560000000000008,-0.07265957236106828
-0.22660000000000008,-0.07285763194304938
-0.22760000000000008,-0.07301325018603454
-0.22860000000000008,-0.07318301554201835
-0.22960000000000008,-0.0733669280110008
-0.23060000000000008,-0.07353669336698461
-0.23160000000000008,-0.07369231160996977
-0.23260000000000008,-0.07389037119195085
-0.23360000000000009,-0.07401769520893872
-0.2346000000000001,-0.07418746056492254
-0.2356000000000001,-0.07437137303390498
-0.2366000000000001,-0.07452699127689014
-0.2376000000000001,-0.07469675663287394
-0.2386000000000001,-0.07485237487585908
-0.2396000000000001,-0.07499384600584559
-0.2406000000000001,-0.07514946424883075
-0.2416000000000001,-0.07530508249181589
-0.2426000000000001,-0.07548899496079836
-0.2436000000000001,-0.0756446132037835
-0.2446000000000001,-0.07578608433377002
-0.2456000000000001,-0.07592755546375651
-0.2466000000000001,-0.07609732081974033
-0.2476000000000001,-0.07623879194972684
-0.2486000000000001,-0.07638026307971334
-0.2496000000000001,-0.07652173420969983
-0.2506000000000001,-0.07664905822668767
-0.2516000000000001,-0.07680467646967284
-0.2526000000000001,-0.07696029471265799
-0.2536000000000001,-0.0770734716166472
-0.2546000000000001,-0.07722908985963235
-0.2556000000000001,-0.0773564138766202
-0.2566000000000001,-0.07751203211960536
-0.2576000000000001,-0.07765350324959187
-0.2586000000000001,-0.07779497437957837
-0.2596000000000001,-0.07792229839656621
-0.2606000000000001,-0.07804962241355407
-0.2616000000000001,-0.07819109354354058
-0.2626000000000001,-0.07833256467352707
-0.2636000000000001,-0.07844574157751628
-0.2646000000000001,-0.07857306559450414
-0.2656000000000001,-0.07870038961149198
-0.2666000000000001,-0.07882771362847985
-0.2676000000000001,-0.0789550376454677
-0.2686000000000001,-0.07906821454945691
-0.2696000000000001,-0.07919553856644475
-0.2706000000000001,-0.0793228625834326
-0.2716000000000001,-0.0794360394874218
-0.2726000000000001,-0.07956336350440966
-0.2736000000000001,-0.07966239329540022
-0.2746000000000001,-0.07977557019938941
-0.2756000000000001,-0.07988874710337862
-0.2766000000000001,-0.07998777689436919
-0.2776000000000001,-0.08010095379835838
-0.2786000000000001,-0.08019998358934893
-0.2796000000000001,-0.08028486626734083
-0.2806000000000001,-0.0804121902843287
-0.28160000000000013,-0.08051122007531925
-0.28260000000000013,-0.08062439697930844
-0.28360000000000013,-0.08070927965730033
-0.2846,-0.08080830944829089
-0.2856,-0.08090733923928145
-0.2866,-0.081006369030272
-0.2876,-0.0811195459342612
-0.2886,-0.0812044286122531
-0.2896,-0.08128931129024501
-0.2906,-0.08138834108123556
-0.2916,-0.0814873708722261
-0.2926,-0.08157225355021802
-0.2936,-0.08165713622820991
-0.29460000000000003,-0.08172787179320316
-0.29560000000000003,-0.08181275447119508
-0.29660000000000003,-0.08191178426218561
-0.29760000000000003,-0.08199666694017753
-0.29860000000000003,-0.08206740250517078
-0.29960000000000003,-0.08215228518316267
-0.30060000000000003,-0.08220887363515728
-0.30160000000000003,-0.08230790342614784
-0.30260000000000004,-0.08239278610413973
-0.30360000000000004,-0.0824352274431357
-0.30460000000000004,-0.08250596300812894
-0.30560000000000004,-0.08256255146012353
-0.30660000000000004,-0.08264743413811544
-0.30760000000000004,-0.08271816970310869
-0.30860000000000004,-0.08277475815510331
-0.30960000000000004,-0.0828313466070979
-0.31060000000000004,-0.0828879350590925
-0.31160000000000004,-0.0829445235110871
-0.31260000000000004,-0.08301525907608036
-0.31360000000000005,-0.0830577004150763
-0.31460000000000005,-0.08310014175407225
-0.31560000000000005,-0.0831708773190655
-0.31660000000000005,-0.08321331865806145
-0.31760000000000005,-0.08325575999705741
-0.31860000000000005,-0.08329820133605337
-0.31960000000000005,-0.08335478978804794
-0.32060000000000005,-0.08341137824004256
-0.32160000000000005,-0.08343967246603987
-0.32260000000000005,-0.08349626091803447
-0.32360000000000005,-0.08352455514403176
-0.32460000000000006,-0.08355284937002906
-0.32560000000000006,-0.08359529070902501
-0.32660000000000006,-0.08362358493502231
-0.32760000000000006,-0.08366602627401826
-0.32860000000000006,-0.08368017338701693
-0.32960000000000006,-0.08372261472601288
-0.33060000000000006,-0.08375090895201018
-0.33160000000000006,-0.08377920317800747
-0.33260000000000006,-0.08380749740400478
-0.33360000000000006,-0.08383579163000207
-0.33460000000000006,-0.08384993874300072
-0.33560000000000006,-0.08386408585599937
-0.33660000000000007,-0.08390652719499532
-0.33760000000000007,-0.08393482142099262
-0.33860000000000007,-0.08393482142099262
-0.33960000000000007,-0.08396311564698994
-0.34060000000000007,-0.08396311564698994
-0.34160000000000007,-0.08399140987298723
-0.34260000000000007,-0.08401970409898453
-0.34360000000000007,-0.08401970409898453
-0.3446000000000001,-0.08404799832498183
-0.3456000000000001,-0.08406214543798048
-0.3466000000000001,-0.08406214543798048
-0.34759999999999996,-0.08407629255097913
-0.3486000000000001,-0.08407629255097913
-0.34959999999999997,-0.08406214543798048
-0.3506000000000001,-0.08407629255097913
-0.35159999999999997,-0.08407629255097913
-0.3526000000000001,-0.08410458677697644
-0.35359999999999997,-0.08407629255097913
-0.3546000000000001,-0.08410458677697644
-0.35559999999999997,-0.08409043966397778
-0.3566000000000001,-0.08409043966397778
-0.3576,-0.08409043966397778
-0.3586000000000001,-0.08409043966397778
-0.3596,-0.08407629255097913
-0.3606000000000001,-0.08407629255097913
-0.3616,-0.08406214543798048
-0.3626000000000001,-0.08407629255097913
-0.3636,-0.08406214543798048
-0.3646000000000001,-0.08403385121198319
-0.3656,-0.08403385121198319
-0.3666000000000001,-0.08403385121198319
-0.3676,-0.08401970409898453
-0.3686000000000001,-0.08400555698598587
-0.3696,-0.08399140987298723
-0.3706000000000001,-0.08397726275998857
-0.3716,-0.08396311564698994
-0.3726000000000001,-0.08396311564698994
-0.3736,-0.08393482142099262
-0.3746000000000001,-0.08389238008199668
-0.3756,-0.08387823296899803
-0.3766000000000001,-0.08386408585599937
-0.3776,-0.08384993874300072
-0.3786000000000001,-0.08380749740400478
-0.3796,-0.08377920317800747
-0.3806000000000001,-0.08376505606500882
-0.3816,-0.08373676183901152
-0.3826000000000001,-0.08372261472601288
-0.3836,-0.08369432050001557
-0.3846000000000001,-0.08365187916101963
-0.3856,-0.08363773204802097
-0.3866000000000001,-0.08360943782202368
-0.3876,-0.08358114359602638
-0.3886000000000001,-0.08355284937002906
-0.3896,-0.08351040803103311
-0.3906000000000001,-0.08346796669203715
-0.3916,-0.08343967246603987
-0.3926000000000001,-0.08342552535304121
-0.3936,-0.08338308401404526
-0.3946000000000001,-0.08332649556205066
-0.3956,-0.08329820133605337
-0.3966000000000001,-0.08325575999705741
-0.3976,-0.08322746577106012
-0.3986000000000001,-0.08318502443206416
-0.3996,-0.0831425830930682
-0.4006000000000001,-0.08311428886707091
-0.4016,-0.08307184752807495
-0.4026000000000001,-0.083029406189079
-0.4036,-0.08298696485008306
-0.4046000000000001,-0.0829445235110871
-0.4056,-0.08290208217209115
-0.40660000000000013,-0.08284549372009656
-0.4076,-0.0828030523811006
-0.40860000000000013,-0.08277475815510331
-0.4096,-0.08270402259011005
-0.41060000000000013,-0.08267572836411274
-0.4116,-0.08261913991211814
-0.41260000000000013,-0.08257669857312219
-0.4136,-0.08250596300812894
-0.41460000000000014,-0.08246352166913298
-0.4156,-0.08242108033013704
-0.41660000000000014,-0.08239278610413973
-0.4176,-0.08235034476514379
-0.41860000000000014,-0.08230790342614784
-0.41960000000000003,-0.08225131497415322
-0.42060000000000014,-0.08218057940915997
-0.42160000000000003,-0.08213813807016403
-0.42260000000000014,-0.08209569673116808
-0.42360000000000003,-0.08203910827917348
-0.42460000000000014,-0.08198251982717887
-0.42560000000000003,-0.08192593137518428
-0.42660000000000015,-0.08185519581019103
-0.42760000000000004,-0.08182690158419371
-0.42860000000000015,-0.08175616601920047
-0.42960000000000004,-0.08169957756720586
-0.43060000000000015,-0.08162884200221261
-0.43160000000000004,-0.08157225355021802
-0.43260000000000015,-0.08152981221122206
-0.43360000000000004,-0.08144492953323015
