Apr. 7, 2025   16:38:56
Linear Sweep Voltammetry
File: c:/users/guazh/data/banditlqround7_x0exp994_r5/2025-03-28-exp1010\1acid_2ac-2025-04-07t16_35_43-lsvinphos\1acid_2ac_lsv_50mvs_efin_-2300mv.bin
Data Source:  Experiment
Instrument Model:  CHI760E
Header: LSV ran at 50 mVs with Efin at -2300mV
Note: 

Init E (V) = -0.6
Final E (V) = -2.3
Scan Rate (V/s) = 0.05
Sample Interval (V) = 0.001
Quiet Time (sec) = 2
Sensitivity (A/V) = 1e-4
Comp R (ohm) = 8.5

Results:

Channel 1:
Ep = -2.122V
ip = 6.439e-4A
Ah = 1.033e-3C

Potential/V, Current/A

-0.600, 2.047e-6
-0.601, 2.138e-6
-0.602, 2.173e-6
-0.603, 2.199e-6
-0.604, 2.224e-6
-0.605, 2.249e-6
-0.606, 2.274e-6
-0.607, 2.298e-6
-0.608, 2.321e-6
-0.609, 2.346e-6
-0.610, 2.369e-6
-0.611, 2.397e-6
-0.612, 2.420e-6
-0.613, 2.443e-6
-0.614, 2.467e-6
-0.615, 2.492e-6
-0.616, 2.517e-6
-0.617, 2.542e-6
-0.618, 2.566e-6
-0.619, 2.591e-6
-0.620, 2.617e-6
-0.621, 2.644e-6
-0.622, 2.670e-6
-0.623, 2.693e-6
-0.624, 2.718e-6
-0.625, 2.744e-6
-0.626, 2.770e-6
-0.627, 2.796e-6
-0.628, 2.823e-6
-0.629, 2.847e-6
-0.630, 2.874e-6
-0.631, 2.902e-6
-0.632, 2.929e-6
-0.633, 2.955e-6
-0.634, 2.982e-6
-0.635, 3.009e-6
-0.636, 3.038e-6
-0.637, 3.065e-6
-0.638, 3.093e-6
-0.639, 3.120e-6
-0.640, 3.149e-6
-0.641, 3.179e-6
-0.642, 3.207e-6
-0.643, 3.234e-6
-0.644, 3.263e-6
-0.645, 3.289e-6
-0.646, 3.321e-6
-0.647, 3.350e-6
-0.648, 3.379e-6
-0.649, 3.410e-6
-0.650, 3.439e-6
-0.651, 3.470e-6
-0.652, 3.500e-6
-0.653, 3.528e-6
-0.654, 3.558e-6
-0.655, 3.588e-6
-0.656, 3.620e-6
-0.657, 3.651e-6
-0.658, 3.680e-6
-0.659, 3.711e-6
-0.660, 3.743e-6
-0.661, 3.774e-6
-0.662, 3.806e-6
-0.663, 3.837e-6
-0.664, 3.869e-6
-0.665, 3.901e-6
-0.666, 3.934e-6
-0.667, 3.964e-6
-0.668, 3.997e-6
-0.669, 4.027e-6
-0.670, 4.061e-6
-0.671, 4.092e-6
-0.672, 4.125e-6
-0.673, 4.157e-6
-0.674, 4.187e-6
-0.675, 4.218e-6
-0.676, 4.251e-6
-0.677, 4.284e-6
-0.678, 4.317e-6
-0.679, 4.350e-6
-0.680, 4.383e-6
-0.681, 4.417e-6
-0.682, 4.451e-6
-0.683, 4.484e-6
-0.684, 4.519e-6
-0.685, 4.553e-6
-0.686, 4.587e-6
-0.687, 4.620e-6
-0.688, 4.653e-6
-0.689, 4.686e-6
-0.690, 4.719e-6
-0.691, 4.755e-6
-0.692, 4.789e-6
-0.693, 4.822e-6
-0.694, 4.856e-6
-0.695, 4.889e-6
-0.696, 4.923e-6
-0.697, 4.957e-6
-0.698, 4.990e-6
-0.699, 5.024e-6
-0.700, 5.058e-6
-0.701, 5.094e-6
-0.702, 5.127e-6
-0.703, 5.160e-6
-0.704, 5.194e-6
-0.705, 5.228e-6
-0.706, 5.262e-6
-0.707, 5.296e-6
-0.708, 5.329e-6
-0.709, 5.363e-6
-0.710, 5.395e-6
-0.711, 5.429e-6
-0.712, 5.461e-6
-0.713, 5.495e-6
-0.714, 5.528e-6
-0.715, 5.560e-6
-0.716, 5.595e-6
-0.717, 5.627e-6
-0.718, 5.659e-6
-0.719, 5.689e-6
-0.720, 5.722e-6
-0.721, 5.756e-6
-0.722, 5.787e-6
-0.723, 5.821e-6
-0.724, 5.851e-6
-0.725, 5.880e-6
-0.726, 5.912e-6
-0.727, 5.940e-6
-0.728, 5.969e-6
-0.729, 6.001e-6
-0.730, 6.031e-6
-0.731, 6.063e-6
-0.732, 6.092e-6
-0.733, 6.121e-6
-0.734, 6.149e-6
-0.735, 6.177e-6
-0.736, 6.205e-6
-0.737, 6.233e-6
-0.738, 6.259e-6
-0.739, 6.288e-6
-0.740, 6.315e-6
-0.741, 6.344e-6
-0.742, 6.373e-6
-0.743, 6.399e-6
-0.744, 6.424e-6
-0.745, 6.449e-6
-0.746, 6.476e-6
-0.747, 6.502e-6
-0.748, 6.527e-6
-0.749, 6.552e-6
-0.750, 6.577e-6
-0.751, 6.602e-6
-0.752, 6.626e-6
-0.753, 6.648e-6
-0.754, 6.671e-6
-0.755, 6.694e-6
-0.756, 6.718e-6
-0.757, 6.739e-6
-0.758, 6.761e-6
-0.759, 6.782e-6
-0.760, 6.803e-6
-0.761, 6.825e-6
-0.762, 6.845e-6
-0.763, 6.863e-6
-0.764, 6.883e-6
-0.765, 6.901e-6
-0.766, 6.920e-6
-0.767, 6.939e-6
-0.768, 6.958e-6
-0.769, 6.975e-6
-0.770, 6.991e-6
-0.771, 7.009e-6
-0.772, 7.025e-6
-0.773, 7.039e-6
-0.774, 7.054e-6
-0.775, 7.068e-6
-0.776, 7.085e-6
-0.777, 7.099e-6
-0.778, 7.111e-6
-0.779, 7.125e-6
-0.780, 7.137e-6
-0.781, 7.150e-6
-0.782, 7.163e-6
-0.783, 7.173e-6
-0.784, 7.184e-6
-0.785, 7.194e-6
-0.786, 7.206e-6
-0.787, 7.218e-6
-0.788, 7.226e-6
-0.789, 7.234e-6
-0.790, 7.242e-6
-0.791, 7.252e-6
-0.792, 7.259e-6
-0.793, 7.266e-6
-0.794, 7.273e-6
-0.795, 7.279e-6
-0.796, 7.287e-6
-0.797, 7.293e-6
-0.798, 7.298e-6
-0.799, 7.303e-6
-0.800, 7.308e-6
-0.801, 7.314e-6
-0.802, 7.317e-6
-0.803, 7.320e-6
-0.804, 7.323e-6
-0.805, 7.326e-6
-0.806, 7.330e-6
-0.807, 7.332e-6
-0.808, 7.334e-6
-0.809, 7.334e-6
-0.810, 7.335e-6
-0.811, 7.338e-6
-0.812, 7.338e-6
-0.813, 7.337e-6
-0.814, 7.338e-6
-0.815, 7.337e-6
-0.816, 7.336e-6
-0.817, 7.337e-6
-0.818, 7.333e-6
-0.819, 7.336e-6
-0.820, 7.336e-6
-0.821, 7.333e-6
-0.822, 7.331e-6
-0.823, 7.327e-6
-0.824, 7.323e-6
-0.825, 7.319e-6
-0.826, 7.318e-6
-0.827, 7.314e-6
-0.828, 7.308e-6
-0.829, 7.303e-6
-0.830, 7.299e-6
-0.831, 7.294e-6
-0.832, 7.290e-6
-0.833, 7.286e-6
-0.834, 7.279e-6
-0.835, 7.273e-6
-0.836, 7.269e-6
-0.837, 7.263e-6
-0.838, 7.255e-6
-0.839, 7.249e-6
-0.840, 7.242e-6
-0.841, 7.237e-6
-0.842, 7.231e-6
-0.843, 7.224e-6
-0.844, 7.215e-6
-0.845, 7.207e-6
-0.846, 7.201e-6
-0.847, 7.194e-6
-0.848, 7.186e-6
-0.849, 7.176e-6
-0.850, 7.166e-6
-0.851, 7.160e-6
-0.852, 7.153e-6
-0.853, 7.142e-6
-0.854, 7.133e-6
-0.855, 7.125e-6
-0.856, 7.116e-6
-0.857, 7.108e-6
-0.858, 7.097e-6
-0.859, 7.089e-6
-0.860, 7.078e-6
-0.861, 7.069e-6
-0.862, 7.061e-6
-0.863, 7.049e-6
-0.864, 7.039e-6
-0.865, 7.029e-6
-0.866, 7.020e-6
-0.867, 7.013e-6
-0.868, 7.001e-6
-0.869, 6.991e-6
-0.870, 6.982e-6
-0.871, 6.974e-6
-0.872, 6.964e-6
-0.873, 6.952e-6
-0.874, 6.941e-6
-0.875, 6.931e-6
-0.876, 6.920e-6
-0.877, 6.911e-6
-0.878, 6.900e-6
-0.879, 6.890e-6
-0.880, 6.878e-6
-0.881, 6.870e-6
-0.882, 6.860e-6
-0.883, 6.850e-6
-0.884, 6.840e-6
-0.885, 6.828e-6
-0.886, 6.818e-6
-0.887, 6.808e-6
-0.888, 6.797e-6
-0.889, 6.787e-6
-0.890, 6.775e-6
-0.891, 6.764e-6
-0.892, 6.755e-6
-0.893, 6.743e-6
-0.894, 6.733e-6
-0.895, 6.722e-6
-0.896, 6.714e-6
-0.897, 6.705e-6
-0.898, 6.692e-6
-0.899, 6.682e-6
-0.900, 6.670e-6
-0.901, 6.661e-6
-0.902, 6.652e-6
-0.903, 6.640e-6
-0.904, 6.630e-6
-0.905, 6.619e-6
-0.906, 6.610e-6
-0.907, 6.601e-6
-0.908, 6.589e-6
-0.909, 6.579e-6
-0.910, 6.569e-6
-0.911, 6.560e-6
-0.912, 6.550e-6
-0.913, 6.539e-6
-0.914, 6.526e-6
-0.915, 6.518e-6
-0.916, 6.509e-6
-0.917, 6.499e-6
-0.918, 6.490e-6
-0.919, 6.479e-6
-0.920, 6.469e-6
-0.921, 6.461e-6
-0.922, 6.453e-6
-0.923, 6.442e-6
-0.924, 6.433e-6
-0.925, 6.423e-6
-0.926, 6.416e-6
-0.927, 6.406e-6
-0.928, 6.395e-6
-0.929, 6.386e-6
-0.930, 6.376e-6
-0.931, 6.368e-6
-0.932, 6.360e-6
-0.933, 6.349e-6
-0.934, 6.340e-6
-0.935, 6.331e-6
-0.936, 6.323e-6
-0.937, 6.315e-6
-0.938, 6.304e-6
-0.939, 6.295e-6
-0.940, 6.286e-6
-0.941, 6.280e-6
-0.942, 6.272e-6
-0.943, 6.261e-6
-0.944, 6.252e-6
-0.945, 6.243e-6
-0.946, 6.237e-6
-0.947, 6.231e-6
-0.948, 6.222e-6
-0.949, 6.212e-6
-0.950, 6.205e-6
-0.951, 6.199e-6
-0.952, 6.191e-6
-0.953, 6.182e-6
-0.954, 6.174e-6
-0.955, 6.168e-6
-0.956, 6.159e-6
-0.957, 6.153e-6
-0.958, 6.145e-6
-0.959, 6.137e-6
-0.960, 6.130e-6
-0.961, 6.125e-6
-0.962, 6.117e-6
-0.963, 6.108e-6
-0.964, 6.100e-6
-0.965, 6.092e-6
-0.966, 6.086e-6
-0.967, 6.080e-6
-0.968, 6.071e-6
-0.969, 6.063e-6
-0.970, 6.056e-6
-0.971, 6.050e-6
-0.972, 6.043e-6
-0.973, 6.037e-6
-0.974, 6.030e-6
-0.975, 6.021e-6
-0.976, 6.014e-6
-0.977, 6.009e-6
-0.978, 5.999e-6
-0.979, 5.994e-6
-0.980, 5.986e-6
-0.981, 5.981e-6
-0.982, 5.975e-6
-0.983, 5.968e-6
-0.984, 5.962e-6
-0.985, 5.954e-6
-0.986, 5.949e-6
-0.987, 5.944e-6
-0.988, 5.937e-6
-0.989, 5.930e-6
-0.990, 5.923e-6
-0.991, 5.919e-6
-0.992, 5.914e-6
-0.993, 5.908e-6
-0.994, 5.902e-6
-0.995, 5.896e-6
-0.996, 5.893e-6
-0.997, 5.891e-6
-0.998, 5.884e-6
-0.999, 5.879e-6
-1.000, 5.872e-6
-1.001, 5.869e-6
-1.002, 5.862e-6
-1.003, 5.856e-6
-1.004, 5.850e-6
-1.005, 5.845e-6
-1.006, 5.840e-6
-1.007, 5.836e-6
-1.008, 5.828e-6
-1.009, 5.823e-6
-1.010, 5.816e-6
-1.011, 5.814e-6
-1.012, 5.808e-6
-1.013, 5.802e-6
-1.014, 5.797e-6
-1.015, 5.791e-6
-1.016, 5.786e-6
-1.017, 5.781e-6
-1.018, 5.775e-6
-1.019, 5.769e-6
-1.020, 5.763e-6
-1.021, 5.759e-6
-1.022, 5.755e-6
-1.023, 5.751e-6
-1.024, 5.746e-6
-1.025, 5.741e-6
-1.026, 5.735e-6
-1.027, 5.733e-6
-1.028, 5.726e-6
-1.029, 5.721e-6
-1.030, 5.715e-6
-1.031, 5.711e-6
-1.032, 5.708e-6
-1.033, 5.702e-6
-1.034, 5.696e-6
-1.035, 5.691e-6
-1.036, 5.689e-6
-1.037, 5.685e-6
-1.038, 5.680e-6
-1.039, 5.674e-6
-1.040, 5.669e-6
-1.041, 5.666e-6
-1.042, 5.662e-6
-1.043, 5.657e-6
-1.044, 5.655e-6
-1.045, 5.648e-6
-1.046, 5.645e-6
-1.047, 5.642e-6
-1.048, 5.638e-6
-1.049, 5.634e-6
-1.050, 5.629e-6
-1.051, 5.625e-6
-1.052, 5.622e-6
-1.053, 5.618e-6
-1.054, 5.613e-6
-1.055, 5.608e-6
-1.056, 5.606e-6
-1.057, 5.603e-6
-1.058, 5.598e-6
-1.059, 5.593e-6
-1.060, 5.590e-6
-1.061, 5.587e-6
-1.062, 5.584e-6
-1.063, 5.579e-6
-1.064, 5.575e-6
-1.065, 5.573e-6
-1.066, 5.569e-6
-1.067, 5.566e-6
-1.068, 5.561e-6
-1.069, 5.557e-6
-1.070, 5.554e-6
-1.071, 5.551e-6
-1.072, 5.549e-6
-1.073, 5.545e-6
-1.074, 5.541e-6
-1.075, 5.538e-6
-1.076, 5.535e-6
-1.077, 5.532e-6
-1.078, 5.529e-6
-1.079, 5.524e-6
-1.080, 5.519e-6
-1.081, 5.518e-6
-1.082, 5.516e-6
-1.083, 5.512e-6
-1.084, 5.507e-6
-1.085, 5.504e-6
-1.086, 5.502e-6
-1.087, 5.499e-6
-1.088, 5.496e-6
-1.089, 5.493e-6
-1.090, 5.488e-6
-1.091, 5.487e-6
-1.092, 5.484e-6
-1.093, 5.481e-6
-1.094, 5.477e-6
-1.095, 5.475e-6
-1.096, 5.472e-6
-1.097, 5.471e-6
-1.098, 5.466e-6
-1.099, 5.464e-6
-1.100, 5.460e-6
-1.101, 5.458e-6
-1.102, 5.458e-6
-1.103, 5.454e-6
-1.104, 5.451e-6
-1.105, 5.447e-6
-1.106, 5.446e-6
-1.107, 5.445e-6
-1.108, 5.440e-6
-1.109, 5.438e-6
-1.110, 5.435e-6
-1.111, 5.433e-6
-1.112, 5.432e-6
-1.113, 5.429e-6
-1.114, 5.427e-6
-1.115, 5.423e-6
-1.116, 5.422e-6
-1.117, 5.421e-6
-1.118, 5.418e-6
-1.119, 5.415e-6
-1.120, 5.413e-6
-1.121, 5.412e-6
-1.122, 5.411e-6
-1.123, 5.408e-6
-1.124, 5.404e-6
-1.125, 5.402e-6
-1.126, 5.402e-6
-1.127, 5.400e-6
-1.128, 5.398e-6
-1.129, 5.397e-6
-1.130, 5.393e-6
-1.131, 5.392e-6
-1.132, 5.392e-6
-1.133, 5.388e-6
-1.134, 5.387e-6
-1.135, 5.384e-6
-1.136, 5.383e-6
-1.137, 5.382e-6
-1.138, 5.379e-6
-1.139, 5.378e-6
-1.140, 5.376e-6
-1.141, 5.375e-6
-1.142, 5.374e-6
-1.143, 5.371e-6
-1.144, 5.369e-6
-1.145, 5.368e-6
-1.146, 5.368e-6
-1.147, 5.366e-6
-1.148, 5.364e-6
-1.149, 5.362e-6
-1.150, 5.361e-6
-1.151, 5.359e-6
-1.152, 5.360e-6
-1.153, 5.357e-6
-1.154, 5.355e-6
-1.155, 5.354e-6
-1.156, 5.353e-6
-1.157, 5.352e-6
-1.158, 5.350e-6
-1.159, 5.348e-6
-1.160, 5.346e-6
-1.161, 5.346e-6
-1.162, 5.346e-6
-1.163, 5.344e-6
-1.164, 5.342e-6
-1.165, 5.340e-6
-1.166, 5.340e-6
-1.167, 5.340e-6
-1.168, 5.338e-6
-1.169, 5.337e-6
-1.170, 5.334e-6
-1.171, 5.335e-6
-1.172, 5.335e-6
-1.173, 5.332e-6
-1.174, 5.332e-6
-1.175, 5.331e-6
-1.176, 5.329e-6
-1.177, 5.330e-6
-1.178, 5.329e-6
-1.179, 5.327e-6
-1.180, 5.326e-6
-1.181, 5.326e-6
-1.182, 5.326e-6
-1.183, 5.324e-6
-1.184, 5.324e-6
-1.185, 5.322e-6
-1.186, 5.321e-6
-1.187, 5.323e-6
-1.188, 5.321e-6
-1.189, 5.319e-6
-1.190, 5.319e-6
-1.191, 5.318e-6
-1.192, 5.318e-6
-1.193, 5.317e-6
-1.194, 5.316e-6
-1.195, 5.315e-6
-1.196, 5.316e-6
-1.197, 5.316e-6
-1.198, 5.316e-6
-1.199, 5.314e-6
-1.200, 5.313e-6
-1.201, 5.314e-6
-1.202, 5.313e-6
-1.203, 5.313e-6
-1.204, 5.312e-6
-1.205, 5.312e-6
-1.206, 5.312e-6
-1.207, 5.312e-6
-1.208, 5.310e-6
-1.209, 5.311e-6
-1.210, 5.309e-6
-1.211, 5.310e-6
-1.212, 5.311e-6
-1.213, 5.310e-6
-1.214, 5.309e-6
-1.215, 5.308e-6
-1.216, 5.310e-6
-1.217, 5.311e-6
-1.218, 5.309e-6
-1.219, 5.309e-6
-1.220, 5.307e-6
-1.221, 5.308e-6
-1.222, 5.308e-6
-1.223, 5.308e-6
-1.224, 5.308e-6
-1.225, 5.308e-6
-1.226, 5.308e-6
-1.227, 5.310e-6
-1.228, 5.309e-6
-1.229, 5.312e-6
-1.230, 5.311e-6
-1.231, 5.310e-6
-1.232, 5.311e-6
-1.233, 5.311e-6
-1.234, 5.309e-6
-1.235, 5.310e-6
-1.236, 5.311e-6
-1.237, 5.311e-6
-1.238, 5.311e-6
-1.239, 5.310e-6
-1.240, 5.309e-6
-1.241, 5.311e-6
-1.242, 5.314e-6
-1.243, 5.313e-6
-1.244, 5.312e-6
-1.245, 5.312e-6
-1.246, 5.314e-6
-1.247, 5.313e-6
-1.248, 5.315e-6
-1.249, 5.314e-6
-1.250, 5.314e-6
-1.251, 5.315e-6
-1.252, 5.317e-6
-1.253, 5.316e-6
-1.254, 5.317e-6
-1.255, 5.317e-6
-1.256, 5.318e-6
-1.257, 5.319e-6
-1.258, 5.318e-6
-1.259, 5.319e-6
-1.260, 5.318e-6
-1.261, 5.320e-6
-1.262, 5.322e-6
-1.263, 5.321e-6
-1.264, 5.321e-6
-1.265, 5.321e-6
-1.266, 5.322e-6
-1.267, 5.324e-6
-1.268, 5.324e-6
-1.269, 5.324e-6
-1.270, 5.325e-6
-1.271, 5.326e-6
-1.272, 5.326e-6
-1.273, 5.328e-6
-1.274, 5.328e-6
-1.275, 5.329e-6
-1.276, 5.330e-6
-1.277, 5.331e-6
-1.278, 5.332e-6
-1.279, 5.332e-6
-1.280, 5.334e-6
-1.281, 5.336e-6
-1.282, 5.337e-6
-1.283, 5.337e-6
-1.284, 5.338e-6
-1.285, 5.337e-6
-1.286, 5.339e-6
-1.287, 5.342e-6
-1.288, 5.342e-6
-1.289, 5.343e-6
-1.290, 5.342e-6
-1.291, 5.344e-6
-1.292, 5.348e-6
-1.293, 5.349e-6
-1.294, 5.348e-6
-1.295, 5.348e-6
-1.296, 5.350e-6
-1.297, 5.353e-6
-1.298, 5.352e-6
-1.299, 5.354e-6
-1.300, 5.354e-6
-1.301, 5.356e-6
-1.302, 5.359e-6
-1.303, 5.359e-6
-1.304, 5.360e-6
-1.305, 5.362e-6
-1.306, 5.363e-6
-1.307, 5.366e-6
-1.308, 5.367e-6
-1.309, 5.367e-6
-1.310, 5.369e-6
-1.311, 5.370e-6
-1.312, 5.373e-6
-1.313, 5.373e-6
-1.314, 5.374e-6
-1.315, 5.375e-6
-1.316, 5.377e-6
-1.317, 5.379e-6
-1.318, 5.381e-6
-1.319, 5.383e-6
-1.320, 5.383e-6
-1.321, 5.386e-6
-1.322, 5.388e-6
-1.323, 5.389e-6
-1.324, 5.390e-6
-1.325, 5.392e-6
-1.326, 5.394e-6
-1.327, 5.396e-6
-1.328, 5.398e-6
-1.329, 5.400e-6
-1.330, 5.399e-6
-1.331, 5.403e-6
-1.332, 5.405e-6
-1.333, 5.407e-6
-1.334, 5.409e-6
-1.335, 5.409e-6
-1.336, 5.411e-6
-1.337, 5.415e-6
-1.338, 5.416e-6
-1.339, 5.418e-6
-1.340, 5.419e-6
-1.341, 5.421e-6
-1.342, 5.424e-6
-1.343, 5.426e-6
-1.344, 5.428e-6
-1.345, 5.430e-6
-1.346, 5.432e-6
-1.347, 5.436e-6
-1.348, 5.437e-6
-1.349, 5.440e-6
-1.350, 5.441e-6
-1.351, 5.443e-6
-1.352, 5.446e-6
-1.353, 5.449e-6
-1.354, 5.451e-6
-1.355, 5.452e-6
-1.356, 5.455e-6
-1.357, 5.459e-6
-1.358, 5.460e-6
-1.359, 5.460e-6
-1.360, 5.463e-6
-1.361, 5.467e-6
-1.362, 5.471e-6
-1.363, 5.474e-6
-1.364, 5.475e-6
-1.365, 5.476e-6
-1.366, 5.480e-6
-1.367, 5.483e-6
-1.368, 5.487e-6
-1.369, 5.488e-6
-1.370, 5.490e-6
-1.371, 5.495e-6
-1.372, 5.499e-6
-1.373, 5.500e-6
-1.374, 5.504e-6
-1.375, 5.505e-6
-1.376, 5.508e-6
-1.377, 5.513e-6
-1.378, 5.514e-6
-1.379, 5.516e-6
-1.380, 5.519e-6
-1.381, 5.522e-6
-1.382, 5.528e-6
-1.383, 5.532e-6
-1.384, 5.532e-6
-1.385, 5.536e-6
-1.386, 5.539e-6
-1.387, 5.544e-6
-1.388, 5.547e-6
-1.389, 5.548e-6
-1.390, 5.552e-6
-1.391, 5.555e-6
-1.392, 5.559e-6
-1.393, 5.562e-6
-1.394, 5.565e-6
-1.395, 5.569e-6
-1.396, 5.572e-6
-1.397, 5.577e-6
-1.398, 5.579e-6
-1.399, 5.583e-6
-1.400, 5.586e-6
-1.401, 5.590e-6
-1.402, 5.594e-6
-1.403, 5.599e-6
-1.404, 5.600e-6
-1.405, 5.604e-6
-1.406, 5.608e-6
-1.407, 5.613e-6
-1.408, 5.617e-6
-1.409, 5.621e-6
-1.410, 5.623e-6
-1.411, 5.628e-6
-1.412, 5.633e-6
-1.413, 5.636e-6
-1.414, 5.639e-6
-1.415, 5.643e-6
-1.416, 5.647e-6
-1.417, 5.653e-6
-1.418, 5.656e-6
-1.419, 5.659e-6
-1.420, 5.661e-6
-1.421, 5.667e-6
-1.422, 5.674e-6
-1.423, 5.678e-6
-1.424, 5.681e-6
-1.425, 5.683e-6
-1.426, 5.688e-6
-1.427, 5.695e-6
-1.428, 5.699e-6
-1.429, 5.702e-6
-1.430, 5.706e-6
-1.431, 5.713e-6
-1.432, 5.718e-6
-1.433, 5.723e-6
-1.434, 5.729e-6
-1.435, 5.732e-6
-1.436, 5.737e-6
-1.437, 5.742e-6
-1.438, 5.747e-6
-1.439, 5.751e-6
-1.440, 5.756e-6
-1.441, 5.761e-6
-1.442, 5.768e-6
-1.443, 5.772e-6
-1.444, 5.776e-6
-1.445, 5.781e-6
-1.446, 5.787e-6
-1.447, 5.794e-6
-1.448, 5.798e-6
-1.449, 5.804e-6
-1.450, 5.807e-6
-1.451, 5.814e-6
-1.452, 5.822e-6
-1.453, 5.825e-6
-1.454, 5.830e-6
-1.455, 5.834e-6
-1.456, 5.840e-6
-1.457, 5.848e-6
-1.458, 5.852e-6
-1.459, 5.858e-6
-1.460, 5.864e-6
-1.461, 5.867e-6
-1.462, 5.877e-6
-1.463, 5.881e-6
-1.464, 5.885e-6
-1.465, 5.891e-6
-1.466, 5.896e-6
-1.467, 5.903e-6
-1.468, 5.908e-6
-1.469, 5.913e-6
-1.470, 5.918e-6
-1.471, 5.924e-6
-1.472, 5.931e-6
-1.473, 5.937e-6
-1.474, 5.941e-6
-1.475, 5.948e-6
-1.476, 5.955e-6
-1.477, 5.961e-6
-1.478, 5.968e-6
-1.479, 5.973e-6
-1.480, 5.980e-6
-1.481, 5.986e-6
-1.482, 5.994e-6
-1.483, 6.001e-6
-1.484, 6.007e-6
-1.485, 6.015e-6
-1.486, 6.023e-6
-1.487, 6.029e-6
-1.488, 6.036e-6
-1.489, 6.043e-6
-1.490, 6.048e-6
-1.491, 6.055e-6
-1.492, 6.065e-6
-1.493, 6.071e-6
-1.494, 6.078e-6
-1.495, 6.082e-6
-1.496, 6.090e-6
-1.497, 6.099e-6
-1.498, 6.107e-6
-1.499, 6.114e-6
-1.500, 6.120e-6
-1.501, 6.127e-6
-1.502, 6.137e-6
-1.503, 6.144e-6
-1.504, 6.150e-6
-1.505, 6.158e-6
-1.506, 6.165e-6
-1.507, 6.175e-6
-1.508, 6.182e-6
-1.509, 6.189e-6
-1.510, 6.196e-6
-1.511, 6.204e-6
-1.512, 6.214e-6
-1.513, 6.221e-6
-1.514, 6.227e-6
-1.515, 6.235e-6
-1.516, 6.244e-6
-1.517, 6.254e-6
-1.518, 6.262e-6
-1.519, 6.270e-6
-1.520, 6.278e-6
-1.521, 6.288e-6
-1.522, 6.299e-6
-1.523, 6.308e-6
-1.524, 6.317e-6
-1.525, 6.325e-6
-1.526, 6.334e-6
-1.527, 6.345e-6
-1.528, 6.355e-6
-1.529, 6.364e-6
-1.530, 6.372e-6
-1.531, 6.383e-6
-1.532, 6.395e-6
-1.533, 6.405e-6
-1.534, 6.415e-6
-1.535, 6.424e-6
-1.536, 6.436e-6
-1.537, 6.447e-6
-1.538, 6.457e-6
-1.539, 6.466e-6
-1.540, 6.476e-6
-1.541, 6.487e-6
-1.542, 6.501e-6
-1.543, 6.511e-6
-1.544, 6.521e-6
-1.545, 6.533e-6
-1.546, 6.543e-6
-1.547, 6.558e-6
-1.548, 6.570e-6
-1.549, 6.581e-6
-1.550, 6.593e-6
-1.551, 6.605e-6
-1.552, 6.619e-6
-1.553, 6.632e-6
-1.554, 6.643e-6
-1.555, 6.656e-6
-1.556, 6.668e-6
-1.557, 6.683e-6
-1.558, 6.696e-6
-1.559, 6.708e-6
-1.560, 6.721e-6
-1.561, 6.735e-6
-1.562, 6.750e-6
-1.563, 6.763e-6
-1.564, 6.778e-6
-1.565, 6.790e-6
-1.566, 6.806e-6
-1.567, 6.821e-6
-1.568, 6.836e-6
-1.569, 6.849e-6
-1.570, 6.860e-6
-1.571, 6.876e-6
-1.572, 6.893e-6
-1.573, 6.905e-6
-1.574, 6.920e-6
-1.575, 6.933e-6
-1.576, 6.949e-6
-1.577, 6.967e-6
-1.578, 6.981e-6
-1.579, 6.996e-6
-1.580, 7.010e-6
-1.581, 7.026e-6
-1.582, 7.045e-6
-1.583, 7.059e-6
-1.584, 7.074e-6
-1.585, 7.089e-6
-1.586, 7.105e-6
-1.587, 7.126e-6
-1.588, 7.143e-6
-1.589, 7.157e-6
-1.590, 7.173e-6
-1.591, 7.188e-6
-1.592, 7.207e-6
-1.593, 7.224e-6
-1.594, 7.239e-6
-1.595, 7.256e-6
-1.596, 7.270e-6
-1.597, 7.289e-6
-1.598, 7.307e-6
-1.599, 7.322e-6
-1.600, 7.339e-6
-1.601, 7.357e-6
-1.602, 7.375e-6
-1.603, 7.392e-6
-1.604, 7.409e-6
-1.605, 7.424e-6
-1.606, 7.445e-6
-1.607, 7.465e-6
-1.608, 7.482e-6
-1.609, 7.501e-6
-1.610, 7.517e-6
-1.611, 7.536e-6
-1.612, 7.556e-6
-1.613, 7.574e-6
-1.614, 7.594e-6
-1.615, 7.610e-6
-1.616, 7.632e-6
-1.617, 7.653e-6
-1.618, 7.671e-6
-1.619, 7.691e-6
-1.620, 7.710e-6
-1.621, 7.730e-6
-1.622, 7.752e-6
-1.623, 7.771e-6
-1.624, 7.791e-6
-1.625, 7.810e-6
-1.626, 7.830e-6
-1.627, 7.853e-6
-1.628, 7.874e-6
-1.629, 7.892e-6
-1.630, 7.912e-6
-1.631, 7.934e-6
-1.632, 7.957e-6
-1.633, 7.980e-6
-1.634, 7.998e-6
-1.635, 8.018e-6
-1.636, 8.040e-6
-1.637, 8.064e-6
-1.638, 8.090e-6
-1.639, 8.116e-6
-1.640, 8.132e-6
-1.641, 8.156e-6
-1.642, 8.181e-6
-1.643, 8.205e-6
-1.644, 8.228e-6
-1.645, 8.253e-6
-1.646, 8.279e-6
-1.647, 8.302e-6
-1.648, 8.326e-6
-1.649, 8.348e-6
-1.650, 8.370e-6
-1.651, 8.396e-6
-1.652, 8.422e-6
-1.653, 8.446e-6
-1.654, 8.470e-6
-1.655, 8.495e-6
-1.656, 8.524e-6
-1.657, 8.551e-6
-1.658, 8.575e-6
-1.659, 8.599e-6
-1.660, 8.624e-6
-1.661, 8.650e-6
-1.662, 8.680e-6
-1.663, 8.707e-6
-1.664, 8.735e-6
-1.665, 8.763e-6
-1.666, 8.790e-6
-1.667, 8.823e-6
-1.668, 8.850e-6
-1.669, 8.875e-6
-1.670, 8.904e-6
-1.671, 8.934e-6
-1.672, 8.966e-6
-1.673, 8.998e-6
-1.674, 9.027e-6
-1.675, 9.056e-6
-1.676, 9.089e-6
-1.677, 9.122e-6
-1.678, 9.153e-6
-1.679, 9.185e-6
-1.680, 9.218e-6
-1.681, 9.253e-6
-1.682, 9.288e-6
-1.683, 9.323e-6
-1.684, 9.357e-6
-1.685, 9.387e-6
-1.686, 9.423e-6
-1.687, 9.462e-6
-1.688, 9.497e-6
-1.689, 9.535e-6
-1.690, 9.575e-6
-1.691, 9.613e-6
-1.692, 9.651e-6
-1.693, 9.689e-6
-1.694, 9.727e-6
-1.695, 9.764e-6
-1.696, 9.808e-6
-1.697, 9.850e-6
-1.698, 9.889e-6
-1.699, 9.929e-6
-1.700, 9.971e-6
-1.701, 1.001e-5
-1.702, 1.006e-5
-1.703, 1.010e-5
-1.704, 1.015e-5
-1.705, 1.019e-5
-1.706, 1.023e-5
-1.707, 1.028e-5
-1.708, 1.033e-5
-1.709, 1.037e-5
-1.710, 1.042e-5
-1.711, 1.047e-5
-1.712, 1.052e-5
-1.713, 1.057e-5
-1.714, 1.062e-5
-1.715, 1.067e-5
-1.716, 1.073e-5
-1.717, 1.078e-5
-1.718, 1.084e-5
-1.719, 1.089e-5
-1.720, 1.094e-5
-1.721, 1.100e-5
-1.722, 1.106e-5
-1.723, 1.112e-5
-1.724, 1.117e-5
-1.725, 1.123e-5
-1.726, 1.129e-5
-1.727, 1.136e-5
-1.728, 1.142e-5
-1.729, 1.148e-5
-1.730, 1.154e-5
-1.731, 1.161e-5
-1.732, 1.168e-5
-1.733, 1.175e-5
-1.734, 1.181e-5
-1.735, 1.188e-5
-1.736, 1.195e-5
-1.737, 1.202e-5
-1.738, 1.209e-5
-1.739, 1.216e-5
-1.740, 1.224e-5
-1.741, 1.232e-5
-1.742, 1.240e-5
-1.743, 1.248e-5
-1.744, 1.256e-5
-1.745, 1.264e-5
-1.746, 1.272e-5
-1.747, 1.281e-5
-1.748, 1.290e-5
-1.749, 1.299e-5
-1.750, 1.308e-5
-1.751, 1.316e-5
-1.752, 1.326e-5
-1.753, 1.335e-5
-1.754, 1.344e-5
-1.755, 1.354e-5
-1.756, 1.364e-5
-1.757, 1.374e-5
-1.758, 1.384e-5
-1.759, 1.395e-5
-1.760, 1.405e-5
-1.761, 1.416e-5
-1.762, 1.427e-5
-1.763, 1.438e-5
-1.764, 1.449e-5
-1.765, 1.460e-5
-1.766, 1.472e-5
-1.767, 1.484e-5
-1.768, 1.496e-5
-1.769, 1.508e-5
-1.770, 1.521e-5
-1.771, 1.533e-5
-1.772, 1.546e-5
-1.773, 1.559e-5
-1.774, 1.573e-5
-1.775, 1.586e-5
-1.776, 1.601e-5
-1.777, 1.616e-5
-1.778, 1.630e-5
-1.779, 1.645e-5
-1.780, 1.660e-5
-1.781, 1.675e-5
-1.782, 1.691e-5
-1.783, 1.706e-5
-1.784, 1.723e-5
-1.785, 1.739e-5
-1.786, 1.755e-5
-1.787, 1.773e-5
-1.788, 1.790e-5
-1.789, 1.807e-5
-1.790, 1.824e-5
-1.791, 1.842e-5
-1.792, 1.862e-5
-1.793, 1.881e-5
-1.794, 1.900e-5
-1.795, 1.920e-5
-1.796, 1.940e-5
-1.797, 1.961e-5
-1.798, 1.982e-5
-1.799, 2.003e-5
-1.800, 2.024e-5
-1.801, 2.046e-5
-1.802, 2.068e-5
-1.803, 2.091e-5
-1.804, 2.114e-5
-1.805, 2.137e-5
-1.806, 2.161e-5
-1.807, 2.186e-5
-1.808, 2.212e-5
-1.809, 2.237e-5
-1.810, 2.263e-5
-1.811, 2.290e-5
-1.812, 2.316e-5
-1.813, 2.343e-5
-1.814, 2.368e-5
-1.815, 2.396e-5
-1.816, 2.426e-5
-1.817, 2.456e-5
-1.818, 2.487e-5
-1.819, 2.518e-5
-1.820, 2.549e-5
-1.821, 2.581e-5
-1.822, 2.611e-5
-1.823, 2.641e-5
-1.824, 2.674e-5
-1.825, 2.709e-5
-1.826, 2.744e-5
-1.827, 2.781e-5
-1.828, 2.817e-5
-1.829, 2.855e-5
-1.830, 2.893e-5
-1.831, 2.932e-5
-1.832, 2.972e-5
-1.833, 3.013e-5
-1.834, 3.054e-5
-1.835, 3.096e-5
-1.836, 3.139e-5
-1.837, 3.184e-5
-1.838, 3.229e-5
-1.839, 3.275e-5
-1.840, 3.322e-5
-1.841, 3.370e-5
-1.842, 3.420e-5
-1.843, 3.470e-5
-1.844, 3.522e-5
-1.845, 3.573e-5
-1.846, 3.626e-5
-1.847, 3.681e-5
-1.848, 3.738e-5
-1.849, 3.793e-5
-1.850, 3.850e-5
-1.851, 3.906e-5
-1.852, 3.963e-5
-1.853, 4.022e-5
-1.854, 4.080e-5
-1.855, 4.143e-5
-1.856, 4.209e-5
-1.857, 4.274e-5
-1.858, 4.341e-5
-1.859, 4.407e-5
-1.860, 4.477e-5
-1.861, 4.549e-5
-1.862, 4.621e-5
-1.863, 4.695e-5
-1.864, 4.770e-5
-1.865, 4.847e-5
-1.866, 4.924e-5
-1.867, 5.003e-5
-1.868, 5.086e-5
-1.869, 5.167e-5
-1.870, 5.251e-5
-1.871, 5.336e-5
-1.872, 5.424e-5
-1.873, 5.517e-5
-1.874, 5.603e-5
-1.875, 5.691e-5
-1.876, 5.785e-5
-1.877, 5.881e-5
-1.878, 5.978e-5
-1.879, 6.076e-5
-1.880, 6.180e-5
-1.881, 6.283e-5
-1.882, 6.390e-5
-1.883, 6.498e-5
-1.884, 6.610e-5
-1.885, 6.722e-5
-1.886, 6.837e-5
-1.887, 6.953e-5
-1.888, 7.074e-5
-1.889, 7.192e-5
-1.890, 7.310e-5
-1.891, 7.437e-5
-1.892, 7.564e-5
-1.893, 7.696e-5
-1.894, 7.825e-5
-1.895, 7.958e-5
-1.896, 8.097e-5
-1.897, 8.233e-5
-1.898, 8.372e-5
-1.899, 8.513e-5
-1.900, 8.660e-5
-1.901, 8.813e-5
-1.902, 8.963e-5
-1.903, 9.115e-5
-1.904, 9.265e-5
-1.905, 9.423e-5
-1.906, 9.584e-5
-1.907, 9.746e-5
-1.908, 9.916e-5
-1.909, 1.008e-4
-1.910, 1.025e-4
-1.911, 1.043e-4
-1.912, 1.061e-4
-1.913, 1.079e-4
-1.914, 1.098e-4
-1.915, 1.116e-4
-1.916, 1.135e-4
-1.917, 1.154e-4
-1.918, 1.174e-4
-1.919, 1.192e-4
-1.920, 1.212e-4
-1.921, 1.232e-4
-1.922, 1.253e-4
-1.923, 1.275e-4
-1.924, 1.295e-4
-1.925, 1.317e-4
-1.926, 1.339e-4
-1.927, 1.362e-4
-1.928, 1.384e-4
-1.929, 1.407e-4
-1.930, 1.431e-4
-1.931, 1.454e-4
-1.932, 1.478e-4
-1.933, 1.502e-4
-1.934, 1.526e-4
-1.935, 1.551e-4
-1.936, 1.577e-4
-1.937, 1.602e-4
-1.938, 1.628e-4
-1.939, 1.654e-4
-1.940, 1.681e-4
-1.941, 1.707e-4
-1.942, 1.733e-4
-1.943, 1.761e-4
-1.944, 1.788e-4
-1.945, 1.817e-4
-1.946, 1.845e-4
-1.947, 1.874e-4
-1.948, 1.904e-4
-1.949, 1.933e-4
-1.950, 1.963e-4
-1.951, 1.993e-4
-1.952, 2.023e-4
-1.953, 2.054e-4
-1.954, 2.086e-4
-1.955, 2.118e-4
-1.956, 2.148e-4
-1.957, 2.179e-4
-1.958, 2.211e-4
-1.959, 2.243e-4
-1.960, 2.275e-4
-1.961, 2.308e-4
-1.962, 2.340e-4
-1.963, 2.374e-4
-1.964, 2.408e-4
-1.965, 2.442e-4
-1.966, 2.476e-4
-1.967, 2.510e-4
-1.968, 2.545e-4
-1.969, 2.580e-4
-1.970, 2.614e-4
-1.971, 2.649e-4
-1.972, 2.683e-4
-1.973, 2.717e-4
-1.974, 2.752e-4
-1.975, 2.787e-4
-1.976, 2.821e-4
-1.977, 2.856e-4
-1.978, 2.891e-4
-1.979, 2.926e-4
-1.980, 2.961e-4
-1.981, 2.996e-4
-1.982, 3.031e-4
-1.983, 3.064e-4
-1.984, 3.098e-4
-1.985, 3.133e-4
-1.986, 3.168e-4
-1.987, 3.203e-4
-1.988, 3.239e-4
-1.989, 3.273e-4
-1.990, 3.308e-4
-1.991, 3.342e-4
-1.992, 3.377e-4
-1.993, 3.412e-4
-1.994, 3.449e-4
-1.995, 3.486e-4
-1.996, 3.522e-4
-1.997, 3.559e-4
-1.998, 3.595e-4
-1.999, 3.633e-4
-2.000, 3.672e-4
-2.001, 3.712e-4
-2.002, 3.751e-4
-2.003, 3.791e-4
-2.004, 3.828e-4
-2.005, 3.866e-4
-2.006, 3.906e-4
-2.007, 3.946e-4
-2.008, 3.986e-4
-2.009, 4.027e-4
-2.010, 4.067e-4
-2.011, 4.107e-4
-2.012, 4.146e-4
-2.013, 4.187e-4
-2.014, 4.230e-4
-2.015, 4.273e-4
-2.016, 4.314e-4
-2.017, 4.355e-4
-2.018, 4.398e-4
-2.019, 4.439e-4
-2.020, 4.483e-4
-2.021, 4.527e-4
-2.022, 4.568e-4
-2.023, 4.613e-4
-2.024, 4.657e-4
-2.025, 4.700e-4
-2.026, 4.745e-4
-2.027, 4.789e-4
-2.028, 4.835e-4
-2.029, 4.880e-4
-2.030, 4.926e-4
-2.031, 4.970e-4
-2.032, 5.015e-4
-2.033, 5.062e-4
-2.034, 5.109e-4
-2.035, 5.155e-4
-2.036, 5.202e-4
-2.037, 5.248e-4
-2.038, 5.297e-4
-2.039, 5.345e-4
-2.040, 5.395e-4
-2.041, 5.444e-4
-2.042, 5.492e-4
-2.043, 5.542e-4
-2.044, 5.592e-4
-2.045, 5.641e-4
-2.046, 5.691e-4
-2.047, 5.740e-4
-2.048, 5.792e-4
-2.049, 5.843e-4
-2.050, 5.892e-4
-2.051, 5.944e-4
-2.052, 5.995e-4
-2.053, 6.046e-4
-2.054, 6.098e-4
-2.055, 6.150e-4
-2.056, 6.203e-4
-2.057, 6.255e-4
-2.058, 6.309e-4
-2.059, 6.362e-4
-2.060, 6.416e-4
-2.061, 6.472e-4
-2.062, 6.528e-4
-2.063, 6.582e-4
-2.064, 6.638e-4
-2.065, 6.695e-4
-2.066, 6.750e-4
-2.067, 6.804e-4
-2.068, 6.861e-4
-2.069, 6.917e-4
-2.070, 6.973e-4
-2.071, 7.030e-4
-2.072, 7.086e-4
-2.073, 7.143e-4
-2.074, 7.203e-4
-2.075, 7.261e-4
-2.076, 7.317e-4
-2.077, 7.374e-4
-2.078, 7.429e-4
-2.079, 7.486e-4
-2.080, 7.543e-4
-2.081, 7.603e-4
-2.082, 7.663e-4
-2.083, 7.723e-4
-2.084, 7.784e-4
-2.085, 7.845e-4
-2.086, 7.905e-4
-2.087, 7.964e-4
-2.088, 8.023e-4
-2.089, 8.080e-4
-2.090, 8.139e-4
-2.091, 8.200e-4
-2.092, 8.264e-4
-2.093, 8.327e-4
-2.094, 8.392e-4
-2.095, 8.456e-4
-2.096, 8.519e-4
-2.097, 8.580e-4
-2.098, 8.642e-4
-2.099, 8.705e-4
-2.100, 8.768e-4
-2.101, 8.831e-4
-2.102, 8.892e-4
-2.103, 8.956e-4
-2.104, 9.020e-4
-2.105, 9.082e-4
-2.106, 9.149e-4
-2.107, 9.215e-4
-2.108, 9.276e-4
-2.109, 9.340e-4
-2.110, 9.405e-4
-2.111, 9.469e-4
-2.112, 9.532e-4
-2.113, 9.599e-4
-2.114, 9.665e-4
-2.115, 9.729e-4
-2.116, 9.794e-4
-2.117, 9.859e-4
-2.118, 9.928e-4
-2.119, 9.994e-4
-2.120, 1.006e-3
-2.121, 1.011e-3
-2.122, 1.011e-3
-2.123, 1.011e-3
-2.124, 1.011e-3
-2.125, 1.011e-3
-2.126, 1.011e-3
-2.127, 1.011e-3
-2.128, 1.011e-3
-2.129, 1.011e-3
-2.130, 1.011e-3
-2.131, 1.011e-3
-2.132, 1.011e-3
-2.133, 1.011e-3
-2.134, 1.011e-3
-2.135, 1.011e-3
-2.136, 1.011e-3
-2.137, 1.011e-3
-2.138, 1.011e-3
-2.139, 1.011e-3
-2.140, 1.011e-3
-2.141, 1.011e-3
-2.142, 1.011e-3
-2.143, 1.011e-3
-2.144, 1.011e-3
-2.145, 1.011e-3
-2.146, 1.011e-3
-2.147, 1.011e-3
-2.148, 1.011e-3
-2.149, 1.011e-3
-2.150, 1.011e-3
-2.151, 1.011e-3
-2.152, 1.011e-3
-2.153, 1.011e-3
-2.154, 1.011e-3
-2.155, 1.011e-3
-2.156, 1.011e-3
-2.157, 1.011e-3
-2.158, 1.011e-3
-2.159, 1.011e-3
-2.160, 1.011e-3
-2.161, 1.011e-3
-2.162, 1.011e-3
-2.163, 1.011e-3
-2.164, 1.011e-3
-2.165, 1.011e-3
-2.166, 1.011e-3
-2.167, 1.011e-3
-2.168, 1.011e-3
-2.169, 1.011e-3
-2.170, 1.011e-3
-2.171, 1.011e-3
-2.172, 1.011e-3
-2.173, 1.011e-3
-2.174, 1.011e-3
-2.175, 1.011e-3
-2.176, 1.011e-3
-2.177, 1.011e-3
-2.178, 1.011e-3
-2.179, 1.011e-3
-2.180, 1.011e-3
-2.181, 1.011e-3
-2.182, 1.011e-3
-2.183, 1.011e-3
-2.184, 1.011e-3
-2.185, 1.011e-3
-2.186, 1.011e-3
-2.187, 1.011e-3
-2.188, 1.011e-3
-2.189, 1.011e-3
-2.190, 1.011e-3
-2.191, 1.011e-3
-2.192, 1.011e-3
-2.193, 1.011e-3
-2.194, 1.011e-3
-2.195, 1.011e-3
-2.196, 1.011e-3
-2.197, 1.011e-3
-2.198, 1.011e-3
-2.199, 1.011e-3
-2.200, 1.011e-3
-2.201, 1.011e-3
-2.202, 1.011e-3
-2.203, 1.011e-3
-2.204, 1.011e-3
-2.205, 1.011e-3
-2.206, 1.011e-3
-2.207, 1.011e-3
-2.208, 1.011e-3
-2.209, 1.011e-3
-2.210, 1.011e-3
-2.211, 1.011e-3
-2.212, 1.011e-3
-2.213, 1.011e-3
-2.214, 1.011e-3
-2.215, 1.011e-3
-2.216, 1.011e-3
-2.217, 1.011e-3
-2.218, 1.011e-3
-2.219, 1.011e-3
-2.220, 1.011e-3
-2.221, 1.011e-3
-2.222, 1.011e-3
-2.223, 1.011e-3
-2.224, 1.011e-3
-2.225, 1.011e-3
-2.226, 1.011e-3
-2.227, 1.011e-3
-2.228, 1.011e-3
-2.229, 1.011e-3
-2.230, 1.011e-3
-2.231, 1.011e-3
-2.232, 1.011e-3
-2.233, 1.011e-3
-2.234, 1.011e-3
-2.235, 1.011e-3
-2.236, 1.011e-3
-2.237, 1.011e-3
-2.238, 1.011e-3
-2.239, 1.011e-3
-2.240, 1.011e-3
-2.241, 1.011e-3
-2.242, 1.011e-3
-2.243, 1.011e-3
-2.244, 1.011e-3
-2.245, 1.011e-3
-2.246, 1.011e-3
-2.247, 1.011e-3
-2.248, 1.011e-3
-2.249, 1.011e-3
-2.250, 1.011e-3
-2.251, 1.011e-3
-2.252, 1.011e-3
-2.253, 1.011e-3
-2.254, 1.011e-3
-2.255, 1.011e-3
-2.256, 1.011e-3
-2.257, 1.011e-3
-2.258, 1.011e-3
-2.259, 1.011e-3
-2.260, 1.011e-3
-2.261, 1.011e-3
-2.262, 1.011e-3
-2.263, 1.011e-3
-2.264, 1.011e-3
-2.265, 1.011e-3
-2.266, 1.011e-3
-2.267, 1.011e-3
-2.268, 1.011e-3
-2.269, 1.011e-3
-2.270, 1.011e-3
-2.271, 1.011e-3
-2.272, 1.011e-3
-2.273, 1.011e-3
-2.274, 1.011e-3
-2.275, 1.011e-3
-2.276, 1.011e-3
-2.277, 1.011e-3
-2.278, 1.011e-3
-2.279, 1.011e-3
-2.280, 1.011e-3
-2.281, 1.011e-3
-2.282, 1.011e-3
-2.283, 1.011e-3
-2.284, 1.011e-3
-2.285, 1.011e-3
-2.286, 1.011e-3
-2.287, 1.011e-3
-2.288, 1.011e-3
-2.289, 1.011e-3
-2.290, 1.011e-3
-2.291, 1.011e-3
-2.292, 1.011e-3
-2.293, 1.011e-3
-2.294, 1.011e-3
-2.295, 1.011e-3
-2.296, 1.011e-3
-2.297, 1.011e-3
-2.298, 1.011e-3
-2.299, 1.011e-3
