Oct. 19, 2024   04:32:31
Cyclic Voltammetry
File: c:/users/guazh/data/banditlqround2/2024-10-18-exp573\exp573-2024-10-19t04_21_22-h2koh\exp573_cv_sr_500mvs_efin_-1500mv.bin
Data Source:  Experiment
Instrument Model:  CHI760E
Header: CV ran at 500 mVs
Note: 

Init E (V) = -1
High E (V) = -1
Low E (V) = -1.5
Final E (V) = -1
Init P/N = N
Scan Rate (V/s) = 0.5
Segment = 3
Sample Interval (V) = 0.001
Quiet Time (sec) = 2
Sensitivity (A/V) = 0.01
Comp R (ohm) = 0.9

Results:

Channel 1:
Segment 1:

Segment 2:

Segment 3:

Potential/V, Current/A

-1.000, 3.407e-5
-1.001, 9.882e-5
-1.002, 1.327e-4
-1.003, 1.512e-4
-1.004, 1.605e-4
-1.005, 1.666e-4
-1.006, 1.697e-4
-1.007, 1.759e-4
-1.008, 1.821e-4
-1.009, 1.882e-4
-1.010, 1.913e-4
-1.011, 1.913e-4
-1.012, 1.913e-4
-1.013, 1.882e-4
-1.014, 1.851e-4
-1.015, 1.851e-4
-1.016, 1.882e-4
-1.017, 1.944e-4
-1.018, 1.944e-4
-1.019, 1.944e-4
-1.020, 1.913e-4
-1.021, 1.882e-4
-1.022, 1.851e-4
-1.023, 1.851e-4
-1.024, 1.851e-4
-1.025, 1.913e-4
-1.026, 1.975e-4
-1.027, 1.944e-4
-1.028, 1.944e-4
-1.029, 1.913e-4
-1.030, 1.882e-4
-1.031, 1.882e-4
-1.032, 1.882e-4
-1.033, 1.944e-4
-1.034, 1.975e-4
-1.035, 2.006e-4
-1.036, 2.006e-4
-1.037, 1.975e-4
-1.038, 1.944e-4
-1.039, 1.882e-4
-1.040, 1.882e-4
-1.041, 1.913e-4
-1.042, 1.944e-4
-1.043, 1.975e-4
-1.044, 1.944e-4
-1.045, 1.944e-4
-1.046, 1.882e-4
-1.047, 1.882e-4
-1.048, 1.882e-4
-1.049, 1.882e-4
-1.050, 1.944e-4
-1.051, 1.975e-4
-1.052, 2.006e-4
-1.053, 1.975e-4
-1.054, 1.944e-4
-1.055, 1.882e-4
-1.056, 1.882e-4
-1.057, 1.882e-4
-1.058, 1.944e-4
-1.059, 1.975e-4
-1.060, 2.006e-4
-1.061, 1.975e-4
-1.062, 1.944e-4
-1.063, 1.882e-4
-1.064, 1.851e-4
-1.065, 1.882e-4
-1.066, 1.913e-4
-1.067, 1.944e-4
-1.068, 1.975e-4
-1.069, 1.975e-4
-1.070, 1.944e-4
-1.071, 1.913e-4
-1.072, 1.882e-4
-1.073, 1.882e-4
-1.074, 1.913e-4
-1.075, 1.975e-4
-1.076, 2.036e-4
-1.077, 2.036e-4
-1.078, 2.006e-4
-1.079, 1.975e-4
-1.080, 1.913e-4
-1.081, 1.913e-4
-1.082, 1.882e-4
-1.083, 1.913e-4
-1.084, 1.975e-4
-1.085, 2.006e-4
-1.086, 2.006e-4
-1.087, 1.944e-4
-1.088, 1.913e-4
-1.089, 1.882e-4
-1.090, 1.882e-4
-1.091, 1.913e-4
-1.092, 1.944e-4
-1.093, 2.006e-4
-1.094, 2.006e-4
-1.095, 1.975e-4
-1.096, 1.944e-4
-1.097, 1.913e-4
-1.098, 1.913e-4
-1.099, 1.944e-4
-1.100, 1.975e-4
-1.101, 2.006e-4
-1.102, 2.006e-4
-1.103, 1.975e-4
-1.104, 1.944e-4
-1.105, 1.882e-4
-1.106, 1.913e-4
-1.107, 1.882e-4
-1.108, 1.944e-4
-1.109, 1.975e-4
-1.110, 2.006e-4
-1.111, 2.006e-4
-1.112, 1.975e-4
-1.113, 1.944e-4
-1.114, 1.913e-4
-1.115, 1.913e-4
-1.116, 1.975e-4
-1.117, 2.006e-4
-1.118, 2.036e-4
-1.119, 2.036e-4
-1.120, 2.006e-4
-1.121, 1.975e-4
-1.122, 1.913e-4
-1.123, 1.913e-4
-1.124, 1.944e-4
-1.125, 1.944e-4
-1.126, 2.006e-4
-1.127, 2.006e-4
-1.128, 2.006e-4
-1.129, 1.975e-4
-1.130, 1.944e-4
-1.131, 1.913e-4
-1.132, 1.944e-4
-1.133, 1.975e-4
-1.134, 2.006e-4
-1.135, 2.036e-4
-1.136, 2.036e-4
-1.137, 2.006e-4
-1.138, 1.975e-4
-1.139, 1.944e-4
-1.140, 1.975e-4
-1.141, 2.006e-4
-1.142, 2.036e-4
-1.143, 2.067e-4
-1.144, 2.067e-4
-1.145, 2.036e-4
-1.146, 1.975e-4
-1.147, 1.913e-4
-1.148, 1.944e-4
-1.149, 1.944e-4
-1.150, 2.006e-4
-1.151, 2.036e-4
-1.152, 2.036e-4
-1.153, 2.036e-4
-1.154, 2.006e-4
-1.155, 1.975e-4
-1.156, 1.975e-4
-1.157, 1.975e-4
-1.158, 2.036e-4
-1.159, 2.098e-4
-1.160, 2.098e-4
-1.161, 2.098e-4
-1.162, 2.067e-4
-1.163, 2.036e-4
-1.164, 2.006e-4
-1.165, 2.006e-4
-1.166, 2.036e-4
-1.167, 2.067e-4
-1.168, 2.067e-4
-1.169, 2.098e-4
-1.170, 2.067e-4
-1.171, 2.036e-4
-1.172, 2.006e-4
-1.173, 2.006e-4
-1.174, 2.036e-4
-1.175, 2.067e-4
-1.176, 2.129e-4
-1.177, 2.129e-4
-1.178, 2.129e-4
-1.179, 2.098e-4
-1.180, 2.067e-4
-1.181, 2.067e-4
-1.182, 2.067e-4
-1.183, 2.129e-4
-1.184, 2.160e-4
-1.185, 2.191e-4
-1.186, 2.160e-4
-1.187, 2.129e-4
-1.188, 2.098e-4
-1.189, 2.036e-4
-1.190, 2.067e-4
-1.191, 2.129e-4
-1.192, 2.160e-4
-1.193, 2.221e-4
-1.194, 2.221e-4
-1.195, 2.191e-4
-1.196, 2.160e-4
-1.197, 2.129e-4
-1.198, 2.129e-4
-1.199, 2.160e-4
-1.200, 2.191e-4
-1.201, 2.283e-4
-1.202, 2.283e-4
-1.203, 2.283e-4
-1.204, 2.252e-4
-1.205, 2.221e-4
-1.206, 2.221e-4
-1.207, 2.221e-4
-1.208, 2.252e-4
-1.209, 2.314e-4
-1.210, 2.314e-4
-1.211, 2.314e-4
-1.212, 2.283e-4
-1.213, 2.283e-4
-1.214, 2.252e-4
-1.215, 2.283e-4
-1.216, 2.314e-4
-1.217, 2.376e-4
-1.218, 2.406e-4
-1.219, 2.437e-4
-1.220, 2.406e-4
-1.221, 2.376e-4
-1.222, 2.376e-4
-1.223, 2.376e-4
-1.224, 2.406e-4
-1.225, 2.468e-4
-1.226, 2.530e-4
-1.227, 2.561e-4
-1.228, 2.561e-4
-1.229, 2.561e-4
-1.230, 2.499e-4
-1.231, 2.499e-4
-1.232, 2.499e-4
-1.233, 2.561e-4
-1.234, 2.622e-4
-1.235, 2.684e-4
-1.236, 2.684e-4
-1.237, 2.653e-4
-1.238, 2.653e-4
-1.239, 2.622e-4
-1.240, 2.653e-4
-1.241, 2.715e-4
-1.242, 2.776e-4
-1.243, 2.838e-4
-1.244, 2.869e-4
-1.245, 2.869e-4
-1.246, 2.869e-4
-1.247, 2.838e-4
-1.248, 2.869e-4
-1.249, 2.931e-4
-1.250, 2.961e-4
-1.251, 3.054e-4
-1.252, 3.054e-4
-1.253, 3.054e-4
-1.254, 3.023e-4
-1.255, 3.054e-4
-1.256, 3.054e-4
-1.257, 3.085e-4
-1.258, 3.177e-4
-1.259, 3.239e-4
-1.260, 3.300e-4
-1.261, 3.331e-4
-1.262, 3.331e-4
-1.263, 3.331e-4
-1.264, 3.331e-4
-1.265, 3.393e-4
-1.266, 3.485e-4
-1.267, 3.578e-4
-1.268, 3.670e-4
-1.269, 3.701e-4
-1.270, 3.701e-4
-1.271, 3.732e-4
-1.272, 3.701e-4
-1.273, 3.732e-4
-1.274, 3.794e-4
-1.275, 3.855e-4
-1.276, 3.917e-4
-1.277, 3.979e-4
-1.278, 4.040e-4
-1.279, 4.071e-4
-1.280, 4.102e-4
-1.281, 4.133e-4
-1.282, 4.195e-4
-1.283, 4.287e-4
-1.284, 4.380e-4
-1.285, 4.472e-4
-1.286, 4.534e-4
-1.287, 4.565e-4
-1.288, 4.626e-4
-1.289, 4.688e-4
-1.290, 4.750e-4
-1.291, 4.842e-4
-1.292, 4.935e-4
-1.293, 5.027e-4
-1.294, 5.089e-4
-1.295, 5.120e-4
-1.296, 5.120e-4
-1.297, 5.150e-4
-1.298, 5.243e-4
-1.299, 5.335e-4
-1.300, 5.489e-4
-1.301, 5.613e-4
-1.302, 5.705e-4
-1.303, 5.798e-4
-1.304, 5.829e-4
-1.305, 5.890e-4
-1.306, 5.952e-4
-1.307, 6.044e-4
-1.308, 6.199e-4
-1.309, 6.353e-4
-1.310, 6.507e-4
-1.311, 6.599e-4
-1.312, 6.692e-4
-1.313, 6.754e-4
-1.314, 6.815e-4
-1.315, 6.908e-4
-1.316, 7.031e-4
-1.317, 7.185e-4
-1.318, 7.309e-4
-1.319, 7.401e-4
-1.320, 7.494e-4
-1.321, 7.586e-4
-1.322, 7.679e-4
-1.323, 7.802e-4
-1.324, 7.925e-4
-1.325, 8.079e-4
-1.326, 8.295e-4
-1.327, 8.449e-4
-1.328, 8.573e-4
-1.329, 8.696e-4
-1.330, 8.819e-4
-1.331, 8.943e-4
-1.332, 9.128e-4
-1.333, 9.313e-4
-1.334, 9.528e-4
-1.335, 9.683e-4
-1.336, 9.806e-4
-1.337, 9.929e-4
-1.338, 1.002e-3
-1.339, 1.008e-3
-1.340, 1.024e-3
-1.341, 1.045e-3
-1.342, 1.067e-3
-1.343, 1.088e-3
-1.344, 1.104e-3
-1.345, 1.116e-3
-1.346, 1.132e-3
-1.347, 1.144e-3
-1.348, 1.162e-3
-1.349, 1.184e-3
-1.350, 1.206e-3
-1.351, 1.233e-3
-1.352, 1.258e-3
-1.353, 1.280e-3
-1.354, 1.298e-3
-1.355, 1.317e-3
-1.356, 1.335e-3
-1.357, 1.357e-3
-1.358, 1.381e-3
-1.359, 1.406e-3
-1.360, 1.421e-3
-1.361, 1.437e-3
-1.362, 1.449e-3
-1.363, 1.468e-3
-1.364, 1.486e-3
-1.365, 1.511e-3
-1.366, 1.536e-3
-1.367, 1.563e-3
-1.368, 1.591e-3
-1.369, 1.616e-3
-1.370, 1.637e-3
-1.371, 1.659e-3
-1.372, 1.680e-3
-1.373, 1.708e-3
-1.374, 1.739e-3
-1.375, 1.776e-3
-1.376, 1.807e-3
-1.377, 1.832e-3
-1.378, 1.856e-3
-1.379, 1.881e-3
-1.380, 1.902e-3
-1.381, 1.924e-3
-1.382, 1.946e-3
-1.383, 1.967e-3
-1.384, 1.992e-3
-1.385, 2.023e-3
-1.386, 2.050e-3
-1.387, 2.075e-3
-1.388, 2.100e-3
-1.389, 2.124e-3
-1.390, 2.152e-3
-1.391, 2.186e-3
-1.392, 2.217e-3
-1.393, 2.251e-3
-1.394, 2.282e-3
-1.395, 2.319e-3
-1.396, 2.356e-3
-1.397, 2.390e-3
-1.398, 2.430e-3
-1.399, 2.467e-3
-1.400, 2.504e-3
-1.401, 2.541e-3
-1.402, 2.575e-3
-1.403, 2.599e-3
-1.404, 2.612e-3
-1.405, 2.624e-3
-1.406, 2.649e-3
-1.407, 2.682e-3
-1.408, 2.723e-3
-1.409, 2.756e-3
-1.410, 2.793e-3
-1.411, 2.827e-3
-1.412, 2.855e-3
-1.413, 2.886e-3
-1.414, 2.920e-3
-1.415, 2.957e-3
-1.416, 2.997e-3
-1.417, 3.046e-3
-1.418, 3.096e-3
-1.419, 3.139e-3
-1.420, 3.182e-3
-1.421, 3.219e-3
-1.422, 3.250e-3
-1.423, 3.290e-3
-1.424, 3.330e-3
-1.425, 3.367e-3
-1.426, 3.395e-3
-1.427, 3.416e-3
-1.428, 3.447e-3
-1.429, 3.478e-3
-1.430, 3.515e-3
-1.431, 3.552e-3
-1.432, 3.586e-3
-1.433, 3.629e-3
-1.434, 3.669e-3
-1.435, 3.715e-3
-1.436, 3.758e-3
-1.437, 3.795e-3
-1.438, 3.839e-3
-1.439, 3.885e-3
-1.440, 3.937e-3
-1.441, 3.996e-3
-1.442, 4.051e-3
-1.443, 4.107e-3
-1.444, 4.153e-3
-1.445, 4.193e-3
-1.446, 4.233e-3
-1.447, 4.264e-3
-1.448, 4.286e-3
-1.449, 4.313e-3
-1.450, 4.350e-3
-1.451, 4.397e-3
-1.452, 4.440e-3
-1.453, 4.480e-3
-1.454, 4.517e-3
-1.455, 4.557e-3
-1.456, 4.597e-3
-1.457, 4.643e-3
-1.458, 4.696e-3
-1.459, 4.745e-3
-1.460, 4.797e-3
-1.461, 4.856e-3
-1.462, 4.918e-3
-1.463, 4.976e-3
-1.464, 5.035e-3
-1.465, 5.093e-3
-1.466, 5.155e-3
-1.467, 5.217e-3
-1.468, 5.278e-3
-1.469, 5.322e-3
-1.470, 5.340e-3
-1.471, 5.356e-3
-1.472, 5.380e-3
-1.473, 5.423e-3
-1.474, 5.476e-3
-1.475, 5.528e-3
-1.476, 5.581e-3
-1.477, 5.621e-3
-1.478, 5.661e-3
-1.479, 5.704e-3
-1.480, 5.753e-3
-1.481, 5.799e-3
-1.482, 5.858e-3
-1.483, 5.929e-3
-1.484, 6.003e-3
-1.485, 6.074e-3
-1.486, 6.139e-3
-1.487, 6.194e-3
-1.488, 6.243e-3
-1.489, 6.296e-3
-1.490, 6.354e-3
-1.491, 6.401e-3
-1.492, 6.438e-3
-1.493, 6.475e-3
-1.494, 6.524e-3
-1.495, 6.573e-3
-1.496, 6.629e-3
-1.497, 6.675e-3
-1.498, 6.718e-3
-1.499, 6.752e-3
-1.500, 6.728e-3
-1.499, 6.623e-3
-1.498, 6.549e-3
-1.497, 6.484e-3
-1.496, 6.432e-3
-1.495, 6.382e-3
-1.494, 6.330e-3
-1.493, 6.277e-3
-1.492, 6.228e-3
-1.491, 6.179e-3
-1.490, 6.136e-3
-1.489, 6.083e-3
-1.488, 6.018e-3
-1.487, 5.929e-3
-1.486, 5.836e-3
-1.485, 5.762e-3
-1.484, 5.701e-3
-1.483, 5.651e-3
-1.482, 5.596e-3
-1.481, 5.537e-3
-1.480, 5.473e-3
-1.479, 5.405e-3
-1.478, 5.337e-3
-1.477, 5.278e-3
-1.476, 5.220e-3
-1.475, 5.171e-3
-1.474, 5.130e-3
-1.473, 5.093e-3
-1.472, 5.056e-3
-1.471, 5.013e-3
-1.470, 4.961e-3
-1.469, 4.905e-3
-1.468, 4.850e-3
-1.467, 4.807e-3
-1.466, 4.748e-3
-1.465, 4.683e-3
-1.464, 4.616e-3
-1.463, 4.551e-3
-1.462, 4.495e-3
-1.461, 4.443e-3
-1.460, 4.394e-3
-1.459, 4.347e-3
-1.458, 4.298e-3
-1.457, 4.246e-3
-1.456, 4.190e-3
-1.455, 4.144e-3
-1.454, 4.095e-3
-1.453, 4.054e-3
-1.452, 4.024e-3
-1.451, 3.987e-3
-1.450, 3.953e-3
-1.449, 3.916e-3
-1.448, 3.876e-3
-1.447, 3.839e-3
-1.446, 3.795e-3
-1.445, 3.749e-3
-1.444, 3.697e-3
-1.443, 3.629e-3
-1.442, 3.567e-3
-1.441, 3.521e-3
-1.440, 3.481e-3
-1.439, 3.444e-3
-1.438, 3.401e-3
-1.437, 3.351e-3
-1.436, 3.305e-3
-1.435, 3.265e-3
-1.434, 3.225e-3
-1.433, 3.185e-3
-1.432, 3.148e-3
-1.431, 3.114e-3
-1.430, 3.080e-3
-1.429, 3.046e-3
-1.428, 3.009e-3
-1.427, 2.972e-3
-1.426, 2.935e-3
-1.425, 2.901e-3
-1.424, 2.871e-3
-1.423, 2.837e-3
-1.422, 2.790e-3
-1.421, 2.735e-3
-1.420, 2.686e-3
-1.419, 2.642e-3
-1.418, 2.608e-3
-1.417, 2.581e-3
-1.416, 2.547e-3
-1.415, 2.513e-3
-1.414, 2.476e-3
-1.413, 2.436e-3
-1.412, 2.399e-3
-1.411, 2.362e-3
-1.410, 2.331e-3
-1.409, 2.306e-3
-1.408, 2.285e-3
-1.407, 2.260e-3
-1.406, 2.235e-3
-1.405, 2.205e-3
-1.404, 2.171e-3
-1.403, 2.137e-3
-1.402, 2.106e-3
-1.401, 2.069e-3
-1.400, 2.029e-3
-1.399, 1.992e-3
-1.398, 1.955e-3
-1.397, 1.924e-3
-1.396, 1.896e-3
-1.395, 1.862e-3
-1.394, 1.828e-3
-1.393, 1.801e-3
-1.392, 1.776e-3
-1.391, 1.754e-3
-1.390, 1.730e-3
-1.389, 1.702e-3
-1.388, 1.671e-3
-1.387, 1.647e-3
-1.386, 1.619e-3
-1.385, 1.597e-3
-1.384, 1.576e-3
-1.383, 1.554e-3
-1.382, 1.529e-3
-1.381, 1.508e-3
-1.380, 1.477e-3
-1.379, 1.443e-3
-1.378, 1.406e-3
-1.377, 1.375e-3
-1.376, 1.347e-3
-1.375, 1.329e-3
-1.374, 1.310e-3
-1.373, 1.289e-3
-1.372, 1.264e-3
-1.371, 1.240e-3
-1.370, 1.212e-3
-1.369, 1.190e-3
-1.368, 1.169e-3
-1.367, 1.153e-3
-1.366, 1.135e-3
-1.365, 1.119e-3
-1.364, 1.098e-3
-1.363, 1.076e-3
-1.362, 1.055e-3
-1.361, 1.027e-3
-1.360, 1.005e-3
-1.359, 9.868e-4
-1.358, 9.713e-4
-1.357, 9.528e-4
-1.356, 9.282e-4
-1.355, 9.035e-4
-1.354, 8.788e-4
-1.353, 8.573e-4
-1.352, 8.388e-4
-1.351, 8.203e-4
-1.350, 8.079e-4
-1.349, 7.925e-4
-1.348, 7.771e-4
-1.347, 7.555e-4
-1.346, 7.370e-4
-1.345, 7.154e-4
-1.344, 6.969e-4
-1.343, 6.815e-4
-1.342, 6.723e-4
-1.341, 6.599e-4
-1.340, 6.476e-4
-1.339, 6.322e-4
-1.338, 6.137e-4
-1.337, 5.921e-4
-1.336, 5.736e-4
-1.335, 5.551e-4
-1.334, 5.397e-4
-1.333, 5.274e-4
-1.332, 5.150e-4
-1.331, 5.027e-4
-1.330, 4.873e-4
-1.329, 4.719e-4
-1.328, 4.534e-4
-1.327, 4.380e-4
-1.326, 4.256e-4
-1.325, 4.164e-4
-1.324, 4.102e-4
-1.323, 3.979e-4
-1.322, 3.855e-4
-1.321, 3.701e-4
-1.320, 3.547e-4
-1.319, 3.424e-4
-1.318, 3.300e-4
-1.317, 3.208e-4
-1.316, 3.115e-4
-1.315, 3.054e-4
-1.314, 2.900e-4
-1.313, 2.776e-4
-1.312, 2.591e-4
-1.311, 2.468e-4
-1.310, 2.345e-4
-1.309, 2.283e-4
-1.308, 2.221e-4
-1.307, 2.160e-4
-1.306, 2.067e-4
-1.305, 1.944e-4
-1.304, 1.821e-4
-1.303, 1.697e-4
-1.302, 1.574e-4
-1.301, 1.512e-4
-1.300, 1.451e-4
-1.299, 1.420e-4
-1.298, 1.327e-4
-1.297, 1.266e-4
-1.296, 1.142e-4
-1.295, 9.882e-5
-1.294, 8.957e-5
-1.293, 8.032e-5
-1.292, 7.723e-5
-1.291, 7.415e-5
-1.290, 6.798e-5
-1.289, 5.873e-5
-1.288, 4.949e-5
-1.287, 4.024e-5
-1.286, 2.790e-5
-1.285, 2.174e-5
-1.284, 1.865e-5
-1.283, 1.557e-5
-1.282, 1.249e-5
-1.281, 6.322e-6
-1.280, -2.927e-6
-1.279, -1.218e-5
-1.278, -2.451e-5
-1.277, -2.759e-5
-1.276, -3.376e-5
-1.275, -3.684e-5
-1.274, -3.684e-5
-1.273, -4.301e-5
-1.272, -4.609e-5
-1.271, -5.842e-5
-1.270, -6.459e-5
-1.269, -7.384e-5
-1.268, -7.692e-5
-1.267, -7.692e-5
-1.266, -8.000e-5
-1.265, -8.000e-5
-1.264, -8.617e-5
-1.263, -9.234e-5
-1.262, -1.016e-4
-1.261, -1.108e-4
-1.260, -1.139e-4
-1.259, -1.139e-4
-1.258, -1.139e-4
-1.257, -1.170e-4
-1.256, -1.201e-4
-1.255, -1.263e-4
-1.254, -1.355e-4
-1.253, -1.417e-4
-1.252, -1.448e-4
-1.251, -1.478e-4
-1.250, -1.478e-4
-1.249, -1.478e-4
-1.248, -1.478e-4
-1.247, -1.509e-4
-1.246, -1.571e-4
-1.245, -1.632e-4
-1.244, -1.694e-4
-1.243, -1.694e-4
-1.242, -1.694e-4
-1.241, -1.694e-4
-1.240, -1.694e-4
-1.239, -1.725e-4
-1.238, -1.787e-4
-1.237, -1.848e-4
-1.236, -1.910e-4
-1.235, -1.941e-4
-1.234, -1.941e-4
-1.233, -1.941e-4
-1.232, -1.910e-4
-1.231, -1.941e-4
-1.230, -2.002e-4
-1.229, -2.064e-4
-1.228, -2.126e-4
-1.227, -2.126e-4
-1.226, -2.126e-4
-1.225, -2.095e-4
-1.224, -2.064e-4
-1.223, -2.064e-4
-1.222, -2.095e-4
-1.221, -2.157e-4
-1.220, -2.187e-4
-1.219, -2.249e-4
-1.218, -2.249e-4
-1.217, -2.249e-4
-1.216, -2.218e-4
-1.215, -2.187e-4
-1.214, -2.218e-4
-1.213, -2.280e-4
-1.212, -2.342e-4
-1.211, -2.372e-4
-1.210, -2.403e-4
-1.209, -2.372e-4
-1.208, -2.342e-4
-1.207, -2.311e-4
-1.206, -2.342e-4
-1.205, -2.342e-4
-1.204, -2.372e-4
-1.203, -2.434e-4
-1.202, -2.465e-4
-1.201, -2.465e-4
-1.200, -2.434e-4
-1.199, -2.403e-4
-1.198, -2.403e-4
-1.197, -2.403e-4
-1.196, -2.465e-4
-1.195, -2.496e-4
-1.194, -2.527e-4
-1.193, -2.557e-4
-1.192, -2.527e-4
-1.191, -2.527e-4
-1.190, -2.496e-4
-1.189, -2.527e-4
-1.188, -2.557e-4
-1.187, -2.588e-4
-1.186, -2.619e-4
-1.185, -2.619e-4
-1.184, -2.588e-4
-1.183, -2.557e-4
-1.182, -2.496e-4
-1.181, -2.496e-4
-1.180, -2.527e-4
-1.179, -2.588e-4
-1.178, -2.650e-4
-1.177, -2.650e-4
-1.176, -2.650e-4
-1.175, -2.619e-4
-1.174, -2.588e-4
-1.173, -2.557e-4
-1.172, -2.588e-4
-1.171, -2.619e-4
-1.170, -2.681e-4
-1.169, -2.712e-4
-1.168, -2.742e-4
-1.167, -2.681e-4
-1.166, -2.650e-4
-1.165, -2.619e-4
-1.164, -2.650e-4
-1.163, -2.681e-4
-1.162, -2.681e-4
-1.161, -2.712e-4
-1.160, -2.681e-4
-1.159, -2.681e-4
-1.158, -2.650e-4
-1.157, -2.619e-4
-1.156, -2.619e-4
-1.155, -2.650e-4
-1.154, -2.681e-4
-1.153, -2.742e-4
-1.152, -2.742e-4
-1.151, -2.742e-4
-1.150, -2.712e-4
-1.149, -2.650e-4
-1.148, -2.650e-4
-1.147, -2.681e-4
-1.146, -2.712e-4
-1.145, -2.773e-4
-1.144, -2.773e-4
-1.143, -2.773e-4
-1.142, -2.742e-4
-1.141, -2.712e-4
-1.140, -2.681e-4
-1.139, -2.650e-4
-1.138, -2.681e-4
-1.137, -2.712e-4
-1.136, -2.742e-4
-1.135, -2.773e-4
-1.134, -2.742e-4
-1.133, -2.712e-4
-1.132, -2.681e-4
-1.131, -2.681e-4
-1.130, -2.712e-4
-1.129, -2.742e-4
-1.128, -2.773e-4
-1.127, -2.804e-4
-1.126, -2.804e-4
-1.125, -2.773e-4
-1.124, -2.742e-4
-1.123, -2.712e-4
-1.122, -2.712e-4
-1.121, -2.742e-4
-1.120, -2.773e-4
-1.119, -2.804e-4
-1.118, -2.773e-4
-1.117, -2.712e-4
-1.116, -2.681e-4
-1.115, -2.650e-4
-1.114, -2.681e-4
-1.113, -2.712e-4
-1.112, -2.742e-4
-1.111, -2.804e-4
-1.110, -2.804e-4
-1.109, -2.773e-4
-1.108, -2.742e-4
-1.107, -2.681e-4
-1.106, -2.681e-4
-1.105, -2.712e-4
-1.104, -2.773e-4
-1.103, -2.835e-4
-1.102, -2.866e-4
-1.101, -2.835e-4
-1.100, -2.804e-4
-1.099, -2.742e-4
-1.098, -2.742e-4
-1.097, -2.712e-4
-1.096, -2.742e-4
-1.095, -2.742e-4
-1.094, -2.773e-4
-1.093, -2.773e-4
-1.092, -2.742e-4
-1.091, -2.681e-4
-1.090, -2.681e-4
-1.089, -2.681e-4
-1.088, -2.712e-4
-1.087, -2.773e-4
-1.086, -2.804e-4
-1.085, -2.804e-4
-1.084, -2.773e-4
-1.083, -2.742e-4
-1.082, -2.712e-4
-1.081, -2.712e-4
-1.080, -2.742e-4
-1.079, -2.773e-4
-1.078, -2.804e-4
-1.077, -2.804e-4
-1.076, -2.773e-4
-1.075, -2.742e-4
-1.074, -2.681e-4
-1.073, -2.681e-4
-1.072, -2.681e-4
-1.071, -2.742e-4
-1.070, -2.773e-4
-1.069, -2.804e-4
-1.068, -2.804e-4
-1.067, -2.742e-4
-1.066, -2.712e-4
-1.065, -2.681e-4
-1.064, -2.681e-4
-1.063, -2.742e-4
-1.062, -2.773e-4
-1.061, -2.835e-4
-1.060, -2.835e-4
-1.059, -2.804e-4
-1.058, -2.773e-4
-1.057, -2.712e-4
-1.056, -2.712e-4
-1.055, -2.742e-4
-1.054, -2.742e-4
-1.053, -2.742e-4
-1.052, -2.773e-4
-1.051, -2.742e-4
-1.050, -2.712e-4
-1.049, -2.712e-4
-1.048, -2.681e-4
-1.047, -2.712e-4
-1.046, -2.742e-4
-1.045, -2.773e-4
-1.044, -2.804e-4
-1.043, -2.804e-4
-1.042, -2.742e-4
-1.041, -2.742e-4
-1.040, -2.712e-4
-1.039, -2.712e-4
-1.038, -2.773e-4
-1.037, -2.804e-4
-1.036, -2.835e-4
-1.035, -2.835e-4
-1.034, -2.804e-4
-1.033, -2.742e-4
-1.032, -2.681e-4
-1.031, -2.681e-4
-1.030, -2.712e-4
-1.029, -2.712e-4
-1.028, -2.773e-4
-1.027, -2.773e-4
-1.026, -2.773e-4
-1.025, -2.742e-4
-1.024, -2.712e-4
-1.023, -2.712e-4
-1.022, -2.712e-4
-1.021, -2.742e-4
-1.020, -2.773e-4
-1.019, -2.835e-4
-1.018, -2.835e-4
-1.017, -2.804e-4
-1.016, -2.773e-4
-1.015, -2.742e-4
-1.014, -2.742e-4
-1.013, -2.742e-4
-1.012, -2.804e-4
-1.011, -2.804e-4
-1.010, -2.773e-4
-1.009, -2.742e-4
-1.008, -2.712e-4
-1.007, -2.681e-4
-1.006, -2.681e-4
-1.005, -2.712e-4
-1.004, -2.773e-4
-1.003, -2.804e-4
-1.002, -2.804e-4
-1.001, -2.804e-4
