June 28, 2026   19:18:21
Cyclic Voltammetry
File: c:/users/guazh/data/20260623_doe_duplica2/2026-06-24-exp35\exp35-2026-06-28t19_09_49-h2koh\exp35_cv_50mvs_efin_-1500mv.bin
Data Source:  Experiment
Instrument Model:  CHI760E
Header: CV ran at 50 mVs
Note: 

Init E (V) = -1
High E (V) = -1
Low E (V) = -1.5
Final E (V) = -1
Init P/N = N
Scan Rate (V/s) = 0.05
Segment = 7
Sample Interval (V) = 0.001
Quiet Time (sec) = 60
Sensitivity (A/V) = 0.001
Comp R (ohm) = 1.8

Results:

Channel 1:
Segment 1:

Segment 2:

Segment 3:

Segment 4:

Segment 5:

Segment 6:

Segment 7:

Potential/V, Current/A

-1.000, 6.196e-6
-1.001, 1.104e-5
-1.002, 1.245e-5
-1.003, 1.318e-5
-1.004, 1.383e-5
-1.005, 1.421e-5
-1.006, 1.456e-5
-1.007, 1.500e-5
-1.008, 1.515e-5
-1.009, 1.547e-5
-1.010, 1.571e-5
-1.011, 1.591e-5
-1.012, 1.617e-5
-1.013, 1.631e-5
-1.014, 1.649e-5
-1.015, 1.673e-5
-1.016, 1.670e-5
-1.017, 1.699e-5
-1.018, 1.719e-5
-1.019, 1.722e-5
-1.020, 1.737e-5
-1.021, 1.747e-5
-1.022, 1.760e-5
-1.023, 1.777e-5
-1.024, 1.794e-5
-1.025, 1.797e-5
-1.026, 1.808e-5
-1.027, 1.812e-5
-1.028, 1.832e-5
-1.029, 1.836e-5
-1.030, 1.840e-5
-1.031, 1.857e-5
-1.032, 1.857e-5
-1.033, 1.875e-5
-1.034, 1.890e-5
-1.035, 1.887e-5
-1.036, 1.900e-5
-1.037, 1.906e-5
-1.038, 1.922e-5
-1.039, 1.932e-5
-1.040, 1.933e-5
-1.041, 1.937e-5
-1.042, 1.951e-5
-1.043, 1.964e-5
-1.044, 1.974e-5
-1.045, 1.977e-5
-1.046, 1.983e-5
-1.047, 1.998e-5
-1.048, 2.002e-5
-1.049, 2.018e-5
-1.050, 2.024e-5
-1.051, 2.018e-5
-1.052, 2.042e-5
-1.053, 2.047e-5
-1.054, 2.052e-5
-1.055, 2.069e-5
-1.056, 2.066e-5
-1.057, 2.075e-5
-1.058, 2.089e-5
-1.059, 2.092e-5
-1.060, 2.109e-5
-1.061, 2.103e-5
-1.062, 2.122e-5
-1.063, 2.132e-5
-1.064, 2.140e-5
-1.065, 2.146e-5
-1.066, 2.157e-5
-1.067, 2.159e-5
-1.068, 2.175e-5
-1.069, 2.184e-5
-1.070, 2.187e-5
-1.071, 2.201e-5
-1.072, 2.204e-5
-1.073, 2.221e-5
-1.074, 2.232e-5
-1.075, 2.242e-5
-1.076, 2.246e-5
-1.077, 2.250e-5
-1.078, 2.261e-5
-1.079, 2.278e-5
-1.080, 2.273e-5
-1.081, 2.281e-5
-1.082, 2.303e-5
-1.083, 2.306e-5
-1.084, 2.322e-5
-1.085, 2.321e-5
-1.086, 2.329e-5
-1.087, 2.348e-5
-1.088, 2.351e-5
-1.089, 2.361e-5
-1.090, 2.368e-5
-1.091, 2.374e-5
-1.092, 2.390e-5
-1.093, 2.396e-5
-1.094, 2.405e-5
-1.095, 2.415e-5
-1.096, 2.414e-5
-1.097, 2.430e-5
-1.098, 2.446e-5
-1.099, 2.453e-5
-1.100, 2.460e-5
-1.101, 2.464e-5
-1.102, 2.476e-5
-1.103, 2.493e-5
-1.104, 2.495e-5
-1.105, 2.501e-5
-1.106, 2.515e-5
-1.107, 2.521e-5
-1.108, 2.535e-5
-1.109, 2.539e-5
-1.110, 2.547e-5
-1.111, 2.560e-5
-1.112, 2.561e-5
-1.113, 2.575e-5
-1.114, 2.588e-5
-1.115, 2.586e-5
-1.116, 2.603e-5
-1.117, 2.607e-5
-1.118, 2.614e-5
-1.119, 2.632e-5
-1.120, 2.629e-5
-1.121, 2.638e-5
-1.122, 2.655e-5
-1.123, 2.658e-5
-1.124, 2.677e-5
-1.125, 2.670e-5
-1.126, 2.679e-5
-1.127, 2.700e-5
-1.128, 2.696e-5
-1.129, 2.709e-5
-1.130, 2.718e-5
-1.131, 2.716e-5
-1.132, 2.735e-5
-1.133, 2.746e-5
-1.134, 2.750e-5
-1.135, 2.760e-5
-1.136, 2.759e-5
-1.137, 2.776e-5
-1.138, 2.784e-5
-1.139, 2.790e-5
-1.140, 2.794e-5
-1.141, 2.801e-5
-1.142, 2.810e-5
-1.143, 2.830e-5
-1.144, 2.827e-5
-1.145, 2.831e-5
-1.146, 2.842e-5
-1.147, 2.841e-5
-1.148, 2.867e-5
-1.149, 2.866e-5
-1.150, 2.878e-5
-1.151, 2.885e-5
-1.152, 2.892e-5
-1.153, 2.901e-5
-1.154, 2.911e-5
-1.155, 2.905e-5
-1.156, 2.922e-5
-1.157, 2.931e-5
-1.158, 2.937e-5
-1.159, 2.953e-5
-1.160, 2.954e-5
-1.161, 2.958e-5
-1.162, 2.974e-5
-1.163, 2.976e-5
-1.164, 2.994e-5
-1.165, 2.997e-5
-1.166, 2.995e-5
-1.167, 3.019e-5
-1.168, 3.023e-5
-1.169, 3.031e-5
-1.170, 3.044e-5
-1.171, 3.041e-5
-1.172, 3.057e-5
-1.173, 3.067e-5
-1.174, 3.073e-5
-1.175, 3.090e-5
-1.176, 3.086e-5
-1.177, 3.111e-5
-1.178, 3.125e-5
-1.179, 3.119e-5
-1.180, 3.134e-5
-1.181, 3.136e-5
-1.182, 3.143e-5
-1.183, 3.169e-5
-1.184, 3.170e-5
-1.185, 3.187e-5
-1.186, 3.192e-5
-1.187, 3.200e-5
-1.188, 3.213e-5
-1.189, 3.229e-5
-1.190, 3.245e-5
-1.191, 3.248e-5
-1.192, 3.258e-5
-1.193, 3.275e-5
-1.194, 3.289e-5
-1.195, 3.299e-5
-1.196, 3.311e-5
-1.197, 3.321e-5
-1.198, 3.339e-5
-1.199, 3.361e-5
-1.200, 3.357e-5
-1.201, 3.380e-5
-1.202, 3.403e-5
-1.203, 3.414e-5
-1.204, 3.432e-5
-1.205, 3.442e-5
-1.206, 3.452e-5
-1.207, 3.484e-5
-1.208, 3.487e-5
-1.209, 3.509e-5
-1.210, 3.532e-5
-1.211, 3.539e-5
-1.212, 3.564e-5
-1.213, 3.577e-5
-1.214, 3.596e-5
-1.215, 3.620e-5
-1.216, 3.631e-5
-1.217, 3.657e-5
-1.218, 3.681e-5
-1.219, 3.699e-5
-1.220, 3.721e-5
-1.221, 3.730e-5
-1.222, 3.755e-5
-1.223, 3.792e-5
-1.224, 3.799e-5
-1.225, 3.836e-5
-1.226, 3.854e-5
-1.227, 3.872e-5
-1.228, 3.911e-5
-1.229, 3.953e-5
-1.230, 3.961e-5
-1.231, 3.989e-5
-1.232, 4.011e-5
-1.233, 4.035e-5
-1.234, 4.077e-5
-1.235, 4.086e-5
-1.236, 4.123e-5
-1.237, 4.151e-5
-1.238, 4.184e-5
-1.239, 4.218e-5
-1.240, 4.240e-5
-1.241, 4.273e-5
-1.242, 4.317e-5
-1.243, 4.342e-5
-1.244, 4.386e-5
-1.245, 4.416e-5
-1.246, 4.452e-5
-1.247, 4.493e-5
-1.248, 4.534e-5
-1.249, 4.576e-5
-1.250, 4.611e-5
-1.251, 4.643e-5
-1.252, 4.687e-5
-1.253, 4.724e-5
-1.254, 4.776e-5
-1.255, 4.829e-5
-1.256, 4.856e-5
-1.257, 4.908e-5
-1.258, 4.956e-5
-1.259, 4.997e-5
-1.260, 5.052e-5
-1.261, 5.096e-5
-1.262, 5.144e-5
-1.263, 5.206e-5
-1.264, 5.249e-5
-1.265, 5.306e-5
-1.266, 5.360e-5
-1.267, 5.411e-5
-1.268, 5.482e-5
-1.269, 5.536e-5
-1.270, 5.592e-5
-1.271, 5.657e-5
-1.272, 5.721e-5
-1.273, 5.788e-5
-1.274, 5.851e-5
-1.275, 5.914e-5
-1.276, 5.994e-5
-1.277, 6.061e-5
-1.278, 6.132e-5
-1.279, 6.219e-5
-1.280, 6.299e-5
-1.281, 6.368e-5
-1.282, 6.449e-5
-1.283, 6.529e-5
-1.284, 6.621e-5
-1.285, 6.699e-5
-1.286, 6.784e-5
-1.287, 6.871e-5
-1.288, 6.954e-5
-1.289, 7.045e-5
-1.290, 7.149e-5
-1.291, 7.232e-5
-1.292, 7.338e-5
-1.293, 7.434e-5
-1.294, 7.534e-5
-1.295, 7.639e-5
-1.296, 7.733e-5
-1.297, 7.843e-5
-1.298, 7.963e-5
-1.299, 8.072e-5
-1.300, 8.185e-5
-1.301, 8.279e-5
-1.302, 8.411e-5
-1.303, 8.530e-5
-1.304, 8.657e-5
-1.305, 8.771e-5
-1.306, 8.901e-5
-1.307, 9.011e-5
-1.308, 9.142e-5
-1.309, 9.267e-5
-1.310, 9.410e-5
-1.311, 9.540e-5
-1.312, 9.676e-5
-1.313, 9.820e-5
-1.314, 9.970e-5
-1.315, 1.010e-4
-1.316, 1.025e-4
-1.317, 1.039e-4
-1.318, 1.055e-4
-1.319, 1.072e-4
-1.320, 1.088e-4
-1.321, 1.104e-4
-1.322, 1.121e-4
-1.323, 1.137e-4
-1.324, 1.155e-4
-1.325, 1.172e-4
-1.326, 1.190e-4
-1.327, 1.208e-4
-1.328, 1.225e-4
-1.329, 1.245e-4
-1.330, 1.267e-4
-1.331, 1.286e-4
-1.332, 1.306e-4
-1.333, 1.327e-4
-1.334, 1.348e-4
-1.335, 1.370e-4
-1.336, 1.393e-4
-1.337, 1.417e-4
-1.338, 1.440e-4
-1.339, 1.462e-4
-1.340, 1.488e-4
-1.341, 1.513e-4
-1.342, 1.538e-4
-1.343, 1.563e-4
-1.344, 1.588e-4
-1.345, 1.616e-4
-1.346, 1.643e-4
-1.347, 1.668e-4
-1.348, 1.699e-4
-1.349, 1.726e-4
-1.350, 1.756e-4
-1.351, 1.786e-4
-1.352, 1.815e-4
-1.353, 1.848e-4
-1.354, 1.879e-4
-1.355, 1.910e-4
-1.356, 1.944e-4
-1.357, 1.977e-4
-1.358, 2.010e-4
-1.359, 2.045e-4
-1.360, 2.078e-4
-1.361, 2.113e-4
-1.362, 2.150e-4
-1.363, 2.187e-4
-1.364, 2.225e-4
-1.365, 2.263e-4
-1.366, 2.300e-4
-1.367, 2.340e-4
-1.368, 2.380e-4
-1.369, 2.420e-4
-1.370, 2.462e-4
-1.371, 2.504e-4
-1.372, 2.548e-4
-1.373, 2.591e-4
-1.374, 2.634e-4
-1.375, 2.678e-4
-1.376, 2.723e-4
-1.377, 2.770e-4
-1.378, 2.820e-4
-1.379, 2.867e-4
-1.380, 2.915e-4
-1.381, 2.964e-4
-1.382, 3.015e-4
-1.383, 3.068e-4
-1.384, 3.121e-4
-1.385, 3.175e-4
-1.386, 3.229e-4
-1.387, 3.285e-4
-1.388, 3.343e-4
-1.389, 3.402e-4
-1.390, 3.458e-4
-1.391, 3.519e-4
-1.392, 3.581e-4
-1.393, 3.640e-4
-1.394, 3.703e-4
-1.395, 3.768e-4
-1.396, 3.835e-4
-1.397, 3.900e-4
-1.398, 3.969e-4
-1.399, 4.036e-4
-1.400, 4.104e-4
-1.401, 4.176e-4
-1.402, 4.250e-4
-1.403, 4.324e-4
-1.404, 4.396e-4
-1.405, 4.468e-4
-1.406, 4.543e-4
-1.407, 4.621e-4
-1.408, 4.699e-4
-1.409, 4.779e-4
-1.410, 4.862e-4
-1.411, 4.942e-4
-1.412, 5.025e-4
-1.413, 5.104e-4
-1.414, 5.192e-4
-1.415, 5.280e-4
-1.416, 5.364e-4
-1.417, 5.454e-4
-1.418, 5.542e-4
-1.419, 5.639e-4
-1.420, 5.734e-4
-1.421, 5.826e-4
-1.422, 5.924e-4
-1.423, 6.016e-4
-1.424, 6.119e-4
-1.425, 6.218e-4
-1.426, 6.322e-4
-1.427, 6.424e-4
-1.428, 6.532e-4
-1.429, 6.643e-4
-1.430, 6.748e-4
-1.431, 6.851e-4
-1.432, 6.957e-4
-1.433, 7.073e-4
-1.434, 7.183e-4
-1.435, 7.302e-4
-1.436, 7.418e-4
-1.437, 7.535e-4
-1.438, 7.648e-4
-1.439, 7.773e-4
-1.440, 7.891e-4
-1.441, 8.008e-4
-1.442, 8.136e-4
-1.443, 8.259e-4
-1.444, 8.385e-4
-1.445, 8.507e-4
-1.446, 8.644e-4
-1.447, 8.765e-4
-1.448, 8.900e-4
-1.449, 9.031e-4
-1.450, 9.108e-4
-1.451, 9.091e-4
-1.452, 9.233e-4
-1.453, 9.369e-4
-1.454, 9.514e-4
-1.455, 9.651e-4
-1.456, 9.792e-4
-1.457, 9.938e-4
-1.458, 1.007e-3
-1.459, 1.021e-3
-1.460, 1.036e-3
-1.461, 1.052e-3
-1.462, 1.066e-3
-1.463, 1.081e-3
-1.464, 1.097e-3
-1.465, 1.111e-3
-1.466, 1.127e-3
-1.467, 1.143e-3
-1.468, 1.159e-3
-1.469, 1.174e-3
-1.470, 1.189e-3
-1.471, 1.204e-3
-1.472, 1.222e-3
-1.473, 1.241e-3
-1.474, 1.257e-3
-1.475, 1.274e-3
-1.476, 1.290e-3
-1.477, 1.306e-3
-1.478, 1.324e-3
-1.479, 1.341e-3
-1.480, 1.359e-3
-1.481, 1.374e-3
-1.482, 1.392e-3
-1.483, 1.411e-3
-1.484, 1.431e-3
-1.485, 1.448e-3
-1.486, 1.467e-3
-1.487, 1.481e-3
-1.488, 1.496e-3
-1.489, 1.516e-3
-1.490, 1.536e-3
-1.491, 1.550e-3
-1.492, 1.570e-3
-1.493, 1.587e-3
-1.494, 1.598e-3
-1.495, 1.613e-3
-1.496, 1.629e-3
-1.497, 1.645e-3
-1.498, 1.665e-3
-1.499, 1.679e-3
-1.500, 1.672e-3
-1.499, 1.652e-3
-1.498, 1.637e-3
-1.497, 1.617e-3
-1.496, 1.598e-3
-1.495, 1.581e-3
-1.494, 1.561e-3
-1.493, 1.540e-3
-1.492, 1.517e-3
-1.491, 1.499e-3
-1.490, 1.481e-3
-1.489, 1.462e-3
-1.488, 1.442e-3
-1.487, 1.423e-3
-1.486, 1.404e-3
-1.485, 1.385e-3
-1.484, 1.367e-3
-1.483, 1.349e-3
-1.482, 1.330e-3
-1.481, 1.312e-3
-1.480, 1.294e-3
-1.479, 1.277e-3
-1.478, 1.262e-3
-1.477, 1.245e-3
-1.476, 1.230e-3
-1.475, 1.213e-3
-1.474, 1.195e-3
-1.473, 1.177e-3
-1.472, 1.162e-3
-1.471, 1.144e-3
-1.470, 1.130e-3
-1.469, 1.113e-3
-1.468, 1.098e-3
-1.467, 1.079e-3
-1.466, 1.064e-3
-1.465, 1.048e-3
-1.464, 1.035e-3
-1.463, 1.020e-3
-1.462, 1.006e-3
-1.461, 9.928e-4
-1.460, 9.767e-4
-1.459, 9.623e-4
-1.458, 9.495e-4
-1.457, 9.369e-4
-1.456, 9.222e-4
-1.455, 9.090e-4
-1.454, 8.934e-4
-1.453, 8.812e-4
-1.452, 8.710e-4
-1.451, 8.579e-4
-1.450, 8.441e-4
-1.449, 8.307e-4
-1.448, 8.165e-4
-1.447, 8.042e-4
-1.446, 7.923e-4
-1.445, 7.796e-4
-1.444, 7.665e-4
-1.443, 7.557e-4
-1.442, 7.449e-4
-1.441, 7.344e-4
-1.440, 7.229e-4
-1.439, 7.120e-4
-1.438, 7.018e-4
-1.437, 6.907e-4
-1.436, 6.800e-4
-1.435, 6.701e-4
-1.434, 6.601e-4
-1.433, 6.477e-4
-1.432, 6.379e-4
-1.431, 6.284e-4
-1.430, 6.198e-4
-1.429, 6.090e-4
-1.428, 5.958e-4
-1.427, 5.873e-4
-1.426, 5.765e-4
-1.425, 5.661e-4
-1.424, 5.577e-4
-1.423, 5.475e-4
-1.422, 5.390e-4
-1.421, 5.295e-4
-1.420, 5.219e-4
-1.419, 5.130e-4
-1.418, 5.057e-4
-1.417, 4.962e-4
-1.416, 4.887e-4
-1.415, 4.807e-4
-1.414, 4.721e-4
-1.413, 4.643e-4
-1.412, 4.569e-4
-1.411, 4.490e-4
-1.410, 4.414e-4
-1.409, 4.337e-4
-1.408, 4.261e-4
-1.407, 4.190e-4
-1.406, 4.129e-4
-1.405, 4.051e-4
-1.404, 3.986e-4
-1.403, 3.914e-4
-1.402, 3.844e-4
-1.401, 3.781e-4
-1.400, 3.720e-4
-1.399, 3.651e-4
-1.398, 3.584e-4
-1.397, 3.520e-4
-1.396, 3.462e-4
-1.395, 3.404e-4
-1.394, 3.349e-4
-1.393, 3.277e-4
-1.392, 3.221e-4
-1.391, 3.157e-4
-1.390, 3.108e-4
-1.389, 3.050e-4
-1.388, 2.988e-4
-1.387, 2.937e-4
-1.386, 2.881e-4
-1.385, 2.830e-4
-1.384, 2.779e-4
-1.383, 2.720e-4
-1.382, 2.672e-4
-1.381, 2.618e-4
-1.380, 2.572e-4
-1.379, 2.523e-4
-1.378, 2.465e-4
-1.377, 2.416e-4
-1.376, 2.369e-4
-1.375, 2.325e-4
-1.374, 2.281e-4
-1.373, 2.236e-4
-1.372, 2.189e-4
-1.371, 2.145e-4
-1.370, 2.101e-4
-1.369, 2.061e-4
-1.368, 2.021e-4
-1.367, 1.974e-4
-1.366, 1.934e-4
-1.365, 1.898e-4
-1.364, 1.858e-4
-1.363, 1.816e-4
-1.362, 1.777e-4
-1.361, 1.739e-4
-1.360, 1.705e-4
-1.359, 1.667e-4
-1.358, 1.633e-4
-1.357, 1.595e-4
-1.356, 1.557e-4
-1.355, 1.521e-4
-1.354, 1.490e-4
-1.353, 1.457e-4
-1.352, 1.425e-4
-1.351, 1.393e-4
-1.350, 1.357e-4
-1.349, 1.326e-4
-1.348, 1.295e-4
-1.347, 1.266e-4
-1.346, 1.238e-4
-1.345, 1.209e-4
-1.344, 1.179e-4
-1.343, 1.151e-4
-1.342, 1.120e-4
-1.341, 1.095e-4
-1.340, 1.070e-4
-1.339, 1.041e-4
-1.338, 1.014e-4
-1.337, 9.848e-5
-1.336, 9.604e-5
-1.335, 9.348e-5
-1.334, 9.104e-5
-1.333, 8.857e-5
-1.332, 8.642e-5
-1.331, 8.382e-5
-1.330, 8.179e-5
-1.329, 7.950e-5
-1.328, 7.679e-5
-1.327, 7.479e-5
-1.326, 7.257e-5
-1.325, 7.063e-5
-1.324, 6.845e-5
-1.323, 6.629e-5
-1.322, 6.444e-5
-1.321, 6.231e-5
-1.320, 6.048e-5
-1.319, 5.850e-5
-1.318, 5.646e-5
-1.317, 5.474e-5
-1.316, 5.289e-5
-1.315, 5.119e-5
-1.314, 4.933e-5
-1.313, 4.768e-5
-1.312, 4.617e-5
-1.311, 4.450e-5
-1.310, 4.281e-5
-1.309, 4.126e-5
-1.308, 3.967e-5
-1.307, 3.814e-5
-1.306, 3.668e-5
-1.305, 3.520e-5
-1.304, 3.385e-5
-1.303, 3.235e-5
-1.302, 3.095e-5
-1.301, 2.970e-5
-1.300, 2.837e-5
-1.299, 2.703e-5
-1.298, 2.578e-5
-1.297, 2.445e-5
-1.296, 2.328e-5
-1.295, 2.201e-5
-1.294, 2.077e-5
-1.293, 1.970e-5
-1.292, 1.853e-5
-1.291, 1.744e-5
-1.290, 1.636e-5
-1.289, 1.523e-5
-1.288, 1.425e-5
-1.287, 1.323e-5
-1.286, 1.217e-5
-1.285, 1.122e-5
-1.284, 1.025e-5
-1.283, 9.233e-6
-1.282, 8.345e-6
-1.281, 7.475e-6
-1.280, 6.559e-6
-1.279, 5.708e-6
-1.278, 4.848e-6
-1.277, 4.105e-6
-1.276, 3.267e-6
-1.275, 2.537e-6
-1.274, 1.708e-6
-1.273, 8.907e-7
-1.272, 2.198e-7
-1.271, -5.122e-7
-1.270, -1.217e-6
-1.269, -1.845e-6
-1.268, -2.551e-6
-1.267, -3.204e-6
-1.266, -3.761e-6
-1.265, -4.400e-6
-1.264, -4.970e-6
-1.263, -5.572e-6
-1.262, -6.199e-6
-1.261, -6.660e-6
-1.260, -7.191e-6
-1.259, -7.784e-6
-1.258, -8.306e-6
-1.257, -8.936e-6
-1.256, -9.258e-6
-1.255, -9.785e-6
-1.254, -1.034e-5
-1.253, -1.075e-5
-1.252, -1.115e-5
-1.251, -1.162e-5
-1.250, -1.203e-5
-1.249, -1.248e-5
-1.248, -1.281e-5
-1.247, -1.317e-5
-1.246, -1.360e-5
-1.245, -1.389e-5
-1.244, -1.435e-5
-1.243, -1.469e-5
-1.242, -1.499e-5
-1.241, -1.534e-5
-1.240, -1.568e-5
-1.239, -1.596e-5
-1.238, -1.633e-5
-1.237, -1.656e-5
-1.236, -1.680e-5
-1.235, -1.719e-5
-1.234, -1.740e-5
-1.233, -1.771e-5
-1.232, -1.791e-5
-1.231, -1.809e-5
-1.230, -1.841e-5
-1.229, -1.881e-5
-1.228, -1.902e-5
-1.227, -1.926e-5
-1.226, -1.934e-5
-1.225, -1.961e-5
-1.224, -1.971e-5
-1.223, -1.992e-5
-1.222, -2.018e-5
-1.221, -2.030e-5
-1.220, -2.041e-5
-1.219, -2.062e-5
-1.218, -2.082e-5
-1.217, -2.108e-5
-1.216, -2.110e-5
-1.215, -2.125e-5
-1.214, -2.150e-5
-1.213, -2.156e-5
-1.212, -2.173e-5
-1.211, -2.182e-5
-1.210, -2.195e-5
-1.209, -2.212e-5
-1.208, -2.220e-5
-1.207, -2.234e-5
-1.206, -2.248e-5
-1.205, -2.254e-5
-1.204, -2.262e-5
-1.203, -2.285e-5
-1.202, -2.295e-5
-1.201, -2.310e-5
-1.200, -2.314e-5
-1.199, -2.332e-5
-1.198, -2.338e-5
-1.197, -2.342e-5
-1.196, -2.345e-5
-1.195, -2.356e-5
-1.194, -2.356e-5
-1.193, -2.370e-5
-1.192, -2.380e-5
-1.191, -2.395e-5
-1.190, -2.397e-5
-1.189, -2.405e-5
-1.188, -2.410e-5
-1.187, -2.416e-5
-1.186, -2.426e-5
-1.185, -2.435e-5
-1.184, -2.440e-5
-1.183, -2.451e-5
-1.182, -2.462e-5
-1.181, -2.447e-5
-1.180, -2.451e-5
-1.179, -2.464e-5
-1.178, -2.470e-5
-1.177, -2.477e-5
-1.176, -2.480e-5
-1.175, -2.486e-5
-1.174, -2.495e-5
-1.173, -2.492e-5
-1.172, -2.504e-5
-1.171, -2.510e-5
-1.170, -2.509e-5
-1.169, -2.517e-5
-1.168, -2.511e-5
-1.167, -2.517e-5
-1.166, -2.510e-5
-1.165, -2.495e-5
-1.164, -2.518e-5
-1.163, -2.546e-5
-1.162, -2.544e-5
-1.161, -2.548e-5
-1.160, -2.544e-5
-1.159, -2.545e-5
-1.158, -2.557e-5
-1.157, -2.555e-5
-1.156, -2.566e-5
-1.155, -2.572e-5
-1.154, -2.569e-5
-1.153, -2.584e-5
-1.152, -2.582e-5
-1.151, -2.584e-5
-1.150, -2.593e-5
-1.149, -2.585e-5
-1.148, -2.594e-5
-1.147, -2.600e-5
-1.146, -2.599e-5
-1.145, -2.617e-5
-1.144, -2.608e-5
-1.143, -2.613e-5
-1.142, -2.629e-5
-1.141, -2.626e-5
-1.140, -2.631e-5
-1.139, -2.643e-5
-1.138, -2.641e-5
-1.137, -2.656e-5
-1.136, -2.645e-5
-1.135, -2.651e-5
-1.134, -2.666e-5
-1.133, -2.678e-5
-1.132, -2.677e-5
-1.131, -2.682e-5
-1.130, -2.684e-5
-1.129, -2.698e-5
-1.128, -2.702e-5
-1.127, -2.710e-5
-1.126, -2.725e-5
-1.125, -2.719e-5
-1.124, -2.737e-5
-1.123, -2.749e-5
-1.122, -2.756e-5
-1.121, -2.762e-5
-1.120, -2.770e-5
-1.119, -2.786e-5
-1.118, -2.789e-5
-1.117, -2.793e-5
-1.116, -2.807e-5
-1.115, -2.822e-5
-1.114, -2.832e-5
-1.113, -2.845e-5
-1.112, -2.848e-5
-1.111, -2.856e-5
-1.110, -2.878e-5
-1.109, -2.880e-5
-1.108, -2.900e-5
-1.107, -2.920e-5
-1.106, -2.914e-5
-1.105, -2.936e-5
-1.104, -2.940e-5
-1.103, -2.962e-5
-1.102, -2.973e-5
-1.101, -2.982e-5
-1.100, -2.996e-5
-1.099, -3.019e-5
-1.098, -3.026e-5
-1.097, -3.050e-5
-1.096, -3.045e-5
-1.095, -3.073e-5
-1.094, -3.090e-5
-1.093, -3.107e-5
-1.092, -3.122e-5
-1.091, -3.135e-5
-1.090, -3.146e-5
-1.089, -3.171e-5
-1.088, -3.187e-5
-1.087, -3.208e-5
-1.086, -3.233e-5
-1.085, -3.239e-5
-1.084, -3.265e-5
-1.083, -3.285e-5
-1.082, -3.314e-5
-1.081, -3.329e-5
-1.080, -3.336e-5
-1.079, -3.363e-5
-1.078, -3.402e-5
-1.077, -3.416e-5
-1.076, -3.439e-5
-1.075, -3.469e-5
-1.074, -3.493e-5
-1.073, -3.533e-5
-1.072, -3.553e-5
-1.071, -3.584e-5
-1.070, -3.609e-5
-1.069, -3.628e-5
-1.068, -3.662e-5
-1.067, -3.706e-5
-1.066, -3.718e-5
-1.065, -3.763e-5
-1.064, -3.787e-5
-1.063, -3.826e-5
-1.062, -3.860e-5
-1.061, -3.895e-5
-1.060, -3.940e-5
-1.059, -3.978e-5
-1.058, -4.012e-5
-1.057, -4.061e-5
-1.056, -4.073e-5
-1.055, -4.110e-5
-1.054, -4.157e-5
-1.053, -4.203e-5
-1.052, -4.257e-5
-1.051, -4.305e-5
-1.050, -4.346e-5
-1.049, -4.404e-5
-1.048, -4.447e-5
-1.047, -4.500e-5
-1.046, -4.550e-5
-1.045, -4.594e-5
-1.044, -4.658e-5
-1.043, -4.721e-5
-1.042, -4.771e-5
-1.041, -4.833e-5
-1.040, -4.879e-5
-1.039, -4.947e-5
-1.038, -5.010e-5
-1.037, -5.064e-5
-1.036, -5.134e-5
-1.035, -5.192e-5
-1.034, -5.258e-5
-1.033, -5.331e-5
-1.032, -5.392e-5
-1.031, -5.454e-5
-1.030, -5.545e-5
-1.029, -5.604e-5
-1.028, -5.680e-5
-1.027, -5.754e-5
-1.026, -5.815e-5
-1.025, -5.902e-5
-1.024, -5.986e-5
-1.023, -6.050e-5
-1.022, -6.128e-5
-1.021, -6.190e-5
-1.020, -6.254e-5
-1.019, -6.338e-5
-1.018, -6.419e-5
-1.017, -6.501e-5
-1.016, -6.578e-5
-1.015, -6.679e-5
-1.014, -6.782e-5
-1.013, -6.853e-5
-1.012, -6.929e-5
-1.011, -7.019e-5
-1.010, -7.083e-5
-1.009, -7.180e-5
-1.008, -7.274e-5
-1.007, -7.360e-5
-1.006, -7.433e-5
-1.005, -7.533e-5
-1.004, -7.617e-5
-1.003, -7.717e-5
-1.002, -7.809e-5
-1.001, -7.901e-5
-1.000, -6.763e-5
-1.001, -5.654e-5
-1.002, -5.053e-5
-1.003, -4.594e-5
-1.004, -4.188e-5
-1.005, -3.870e-5
-1.006, -3.544e-5
-1.007, -3.263e-5
-1.008, -3.006e-5
-1.009, -2.758e-5
-1.010, -2.534e-5
-1.011, -2.329e-5
-1.012, -2.121e-5
-1.013, -1.939e-5
-1.014, -1.763e-5
-1.015, -1.593e-5
-1.016, -1.436e-5
-1.017, -1.294e-5
-1.018, -1.149e-5
-1.019, -1.018e-5
-1.020, -8.866e-6
-1.021, -7.679e-6
-1.022, -6.538e-6
-1.023, -5.429e-6
-1.024, -4.332e-6
-1.025, -3.426e-6
-1.026, -2.417e-6
-1.027, -1.615e-6
-1.028, -7.086e-7
-1.029, 8.169e-8
-1.030, 8.325e-7
-1.031, 1.662e-6
-1.032, 2.260e-6
-1.033, 2.950e-6
-1.034, 3.594e-6
-1.035, 4.169e-6
-1.036, 4.830e-6
-1.037, 5.295e-6
-1.038, 5.819e-6
-1.039, 6.368e-6
-1.040, 6.809e-6
-1.041, 7.273e-6
-1.042, 7.756e-6
-1.043, 8.110e-6
-1.044, 8.595e-6
-1.045, 8.945e-6
-1.046, 9.276e-6
-1.047, 9.649e-6
-1.048, 9.939e-6
-1.049, 1.036e-5
-1.050, 1.072e-5
-1.051, 1.094e-5
-1.052, 1.122e-5
-1.053, 1.147e-5
-1.054, 1.177e-5
-1.055, 1.204e-5
-1.056, 1.227e-5
-1.057, 1.246e-5
-1.058, 1.273e-5
-1.059, 1.294e-5
-1.060, 1.316e-5
-1.061, 1.337e-5
-1.062, 1.354e-5
-1.063, 1.375e-5
-1.064, 1.393e-5
-1.065, 1.408e-5
-1.066, 1.425e-5
-1.067, 1.439e-5
-1.068, 1.456e-5
-1.069, 1.468e-5
-1.070, 1.485e-5
-1.071, 1.501e-5
-1.072, 1.511e-5
-1.073, 1.522e-5
-1.074, 1.539e-5
-1.075, 1.559e-5
-1.076, 1.566e-5
-1.077, 1.573e-5
-1.078, 1.577e-5
-1.079, 1.595e-5
-1.080, 1.599e-5
-1.081, 1.615e-5
-1.082, 1.625e-5
-1.083, 1.625e-5
-1.084, 1.643e-5
-1.085, 1.652e-5
-1.086, 1.661e-5
-1.087, 1.669e-5
-1.088, 1.671e-5
-1.089, 1.686e-5
-1.090, 1.698e-5
-1.091, 1.700e-5
-1.092, 1.709e-5
-1.093, 1.716e-5
-1.094, 1.724e-5
-1.095, 1.736e-5
-1.096, 1.739e-5
-1.097, 1.743e-5
-1.098, 1.755e-5
-1.099, 1.756e-5
-1.100, 1.772e-5
-1.101, 1.778e-5
-1.102, 1.778e-5
-1.103, 1.792e-5
-1.104, 1.789e-5
-1.105, 1.802e-5
-1.106, 1.807e-5
-1.107, 1.809e-5
-1.108, 1.817e-5
-1.109, 1.820e-5
-1.110, 1.828e-5
-1.111, 1.839e-5
-1.112, 1.839e-5
-1.113, 1.846e-5
-1.114, 1.854e-5
-1.115, 1.857e-5
-1.116, 1.866e-5
-1.117, 1.866e-5
-1.118, 1.871e-5
-1.119, 1.881e-5
-1.120, 1.882e-5
-1.121, 1.891e-5
-1.122, 1.894e-5
-1.123, 1.895e-5
-1.124, 1.904e-5
-1.125, 1.907e-5
-1.126, 1.917e-5
-1.127, 1.922e-5
-1.128, 1.921e-5
-1.129, 1.928e-5
-1.130, 1.934e-5
-1.131, 1.936e-5
-1.132, 1.943e-5
-1.133, 1.945e-5
-1.134, 1.950e-5
-1.135, 1.958e-5
-1.136, 1.957e-5
-1.137, 1.962e-5
-1.138, 1.967e-5
-1.139, 1.968e-5
-1.140, 1.975e-5
-1.141, 1.981e-5
-1.142, 1.982e-5
-1.143, 1.986e-5
-1.144, 1.990e-5
-1.145, 1.993e-5
-1.146, 2.005e-5
-1.147, 2.001e-5
-1.148, 2.004e-5
-1.149, 2.009e-5
-1.150, 2.012e-5
-1.151, 2.023e-5
-1.152, 2.026e-5
-1.153, 2.022e-5
-1.154, 2.034e-5
-1.155, 2.036e-5
-1.156, 2.043e-5
-1.157, 2.039e-5
-1.158, 2.042e-5
-1.159, 2.054e-5
-1.160, 2.052e-5
-1.161, 2.059e-5
-1.162, 2.064e-5
-1.163, 2.062e-5
-1.164, 2.071e-5
-1.165, 2.074e-5
-1.166, 2.080e-5
-1.167, 2.087e-5
-1.168, 2.082e-5
-1.169, 2.093e-5
-1.170, 2.098e-5
-1.171, 2.101e-5
-1.172, 2.109e-5
-1.173, 2.107e-5
-1.174, 2.111e-5
-1.175, 2.125e-5
-1.176, 2.125e-5
-1.177, 2.134e-5
-1.178, 2.138e-5
-1.179, 2.142e-5
-1.180, 2.148e-5
-1.181, 2.152e-5
-1.182, 2.161e-5
-1.183, 2.165e-5
-1.184, 2.173e-5
-1.185, 2.179e-5
-1.186, 2.186e-5
-1.187, 2.187e-5
-1.188, 2.194e-5
-1.189, 2.201e-5
-1.190, 2.210e-5
-1.191, 2.221e-5
-1.192, 2.221e-5
-1.193, 2.228e-5
-1.194, 2.246e-5
-1.195, 2.249e-5
-1.196, 2.255e-5
-1.197, 2.261e-5
-1.198, 2.266e-5
-1.199, 2.282e-5
-1.200, 2.291e-5
-1.201, 2.298e-5
-1.202, 2.312e-5
-1.203, 2.314e-5
-1.204, 2.331e-5
-1.205, 2.332e-5
-1.206, 2.343e-5
-1.207, 2.360e-5
-1.208, 2.363e-5
-1.209, 2.379e-5
-1.210, 2.392e-5
-1.211, 2.398e-5
-1.212, 2.416e-5
-1.213, 2.420e-5
-1.214, 2.436e-5
-1.215, 2.448e-5
-1.216, 2.455e-5
-1.217, 2.469e-5
-1.218, 2.482e-5
-1.219, 2.494e-5
-1.220, 2.518e-5
-1.221, 2.526e-5
-1.222, 2.534e-5
-1.223, 2.556e-5
-1.224, 2.565e-5
-1.225, 2.583e-5
-1.226, 2.592e-5
-1.227, 2.609e-5
-1.228, 2.635e-5
-1.229, 2.662e-5
-1.230, 2.670e-5
-1.231, 2.690e-5
-1.232, 2.701e-5
-1.233, 2.716e-5
-1.234, 2.740e-5
-1.235, 2.757e-5
-1.236, 2.780e-5
-1.237, 2.792e-5
-1.238, 2.817e-5
-1.239, 2.842e-5
-1.240, 2.864e-5
-1.241, 2.883e-5
-1.242, 2.912e-5
-1.243, 2.926e-5
-1.244, 2.955e-5
-1.245, 2.982e-5
-1.246, 3.008e-5
-1.247, 3.039e-5
-1.248, 3.065e-5
-1.249, 3.090e-5
-1.250, 3.121e-5
-1.251, 3.152e-5
-1.252, 3.177e-5
-1.253, 3.200e-5
-1.254, 3.243e-5
-1.255, 3.276e-5
-1.256, 3.306e-5
-1.257, 3.341e-5
-1.258, 3.378e-5
-1.259, 3.410e-5
-1.260, 3.450e-5
-1.261, 3.483e-5
-1.262, 3.525e-5
-1.263, 3.565e-5
-1.264, 3.605e-5
-1.265, 3.653e-5
-1.266, 3.694e-5
-1.267, 3.732e-5
-1.268, 3.781e-5
-1.269, 3.822e-5
-1.270, 3.872e-5
-1.271, 3.927e-5
-1.272, 3.968e-5
-1.273, 4.022e-5
-1.274, 4.078e-5
-1.275, 4.122e-5
-1.276, 4.181e-5
-1.277, 4.238e-5
-1.278, 4.294e-5
-1.279, 4.361e-5
-1.280, 4.431e-5
-1.281, 4.481e-5
-1.282, 4.537e-5
-1.283, 4.594e-5
-1.284, 4.670e-5
-1.285, 4.745e-5
-1.286, 4.810e-5
-1.287, 4.883e-5
-1.288, 4.946e-5
-1.289, 5.024e-5
-1.290, 5.095e-5
-1.291, 5.177e-5
-1.292, 5.266e-5
-1.293, 5.339e-5
-1.294, 5.430e-5
-1.295, 5.515e-5
-1.296, 5.591e-5
-1.297, 5.675e-5
-1.298, 5.774e-5
-1.299, 5.863e-5
-1.300, 5.958e-5
-1.301, 6.055e-5
-1.302, 6.149e-5
-1.303, 6.256e-5
-1.304, 6.350e-5
-1.305, 6.460e-5
-1.306, 6.552e-5
-1.307, 6.665e-5
-1.308, 6.782e-5
-1.309, 6.889e-5
-1.310, 6.998e-5
-1.311, 7.129e-5
-1.312, 7.236e-5
-1.313, 7.353e-5
-1.314, 7.478e-5
-1.315, 7.610e-5
-1.316, 7.740e-5
-1.317, 7.862e-5
-1.318, 7.999e-5
-1.319, 8.141e-5
-1.320, 8.284e-5
-1.321, 8.425e-5
-1.322, 8.564e-5
-1.323, 8.699e-5
-1.324, 8.859e-5
-1.325, 9.020e-5
-1.326, 9.172e-5
-1.327, 9.323e-5
-1.328, 9.479e-5
-1.329, 9.631e-5
-1.330, 9.800e-5
-1.331, 9.976e-5
-1.332, 1.016e-4
-1.333, 1.033e-4
-1.334, 1.052e-4
-1.335, 1.070e-4
-1.336, 1.087e-4
-1.337, 1.106e-4
-1.338, 1.125e-4
-1.339, 1.144e-4
-1.340, 1.164e-4
-1.341, 1.184e-4
-1.342, 1.204e-4
-1.343, 1.224e-4
-1.344, 1.245e-4
-1.345, 1.267e-4
-1.346, 1.286e-4
-1.347, 1.306e-4
-1.348, 1.330e-4
-1.349, 1.355e-4
-1.350, 1.376e-4
-1.351, 1.400e-4
-1.352, 1.423e-4
-1.353, 1.448e-4
-1.354, 1.472e-4
-1.355, 1.498e-4
-1.356, 1.523e-4
-1.357, 1.549e-4
-1.358, 1.575e-4
-1.359, 1.605e-4
-1.360, 1.634e-4
-1.361, 1.661e-4
-1.362, 1.687e-4
-1.363, 1.714e-4
-1.364, 1.745e-4
-1.365, 1.774e-4
-1.366, 1.802e-4
-1.367, 1.832e-4
-1.368, 1.862e-4
-1.369, 1.895e-4
-1.370, 1.927e-4
-1.371, 1.958e-4
-1.372, 1.991e-4
-1.373, 2.023e-4
-1.374, 2.057e-4
-1.375, 2.093e-4
-1.376, 2.128e-4
-1.377, 2.158e-4
-1.378, 2.194e-4
-1.379, 2.226e-4
-1.380, 2.261e-4
-1.381, 2.301e-4
-1.382, 2.343e-4
-1.383, 2.383e-4
-1.384, 2.420e-4
-1.385, 2.456e-4
-1.386, 2.478e-4
-1.387, 2.524e-4
-1.388, 2.566e-4
-1.389, 2.606e-4
-1.390, 2.644e-4
-1.391, 2.684e-4
-1.392, 2.726e-4
-1.393, 2.770e-4
-1.394, 2.811e-4
-1.395, 2.858e-4
-1.396, 2.900e-4
-1.397, 2.943e-4
-1.398, 2.989e-4
-1.399, 3.038e-4
-1.400, 3.079e-4
-1.401, 3.127e-4
-1.402, 3.178e-4
-1.403, 3.220e-4
-1.404, 3.269e-4
-1.405, 3.316e-4
-1.406, 3.362e-4
-1.407, 3.415e-4
-1.408, 3.463e-4
-1.409, 3.511e-4
-1.410, 3.562e-4
-1.411, 3.614e-4
-1.412, 3.666e-4
-1.413, 3.726e-4
-1.414, 3.780e-4
-1.415, 3.829e-4
-1.416, 3.883e-4
-1.417, 3.939e-4
-1.418, 4.003e-4
-1.419, 4.058e-4
-1.420, 4.116e-4
-1.421, 4.176e-4
-1.422, 4.244e-4
-1.423, 4.306e-4
-1.424, 4.368e-4
-1.425, 4.428e-4
-1.426, 4.486e-4
-1.427, 4.552e-4
-1.428, 4.592e-4
-1.429, 4.664e-4
-1.430, 4.732e-4
-1.431, 4.797e-4
-1.432, 4.860e-4
-1.433, 4.942e-4
-1.434, 5.009e-4
-1.435, 5.080e-4
-1.436, 5.149e-4
-1.437, 5.217e-4
-1.438, 5.285e-4
-1.439, 5.350e-4
-1.440, 5.416e-4
-1.441, 5.489e-4
-1.442, 5.566e-4
-1.443, 5.636e-4
-1.444, 5.711e-4
-1.445, 5.795e-4
-1.446, 5.860e-4
-1.447, 5.943e-4
-1.448, 6.024e-4
-1.449, 6.088e-4
-1.450, 6.164e-4
-1.451, 6.243e-4
-1.452, 6.334e-4
-1.453, 6.426e-4
-1.454, 6.519e-4
-1.455, 6.567e-4
-1.456, 6.645e-4
-1.457, 6.724e-4
-1.458, 6.794e-4
-1.459, 6.864e-4
-1.460, 6.968e-4
-1.461, 7.059e-4
-1.462, 7.138e-4
-1.463, 7.226e-4
-1.464, 7.302e-4
-1.465, 7.397e-4
-1.466, 7.483e-4
-1.467, 7.562e-4
-1.468, 7.659e-4
-1.469, 7.765e-4
-1.470, 7.858e-4
-1.471, 7.944e-4
-1.472, 8.048e-4
-1.473, 8.136e-4
-1.474, 8.243e-4
-1.475, 8.351e-4
-1.476, 8.432e-4
-1.477, 8.540e-4
-1.478, 8.662e-4
-1.479, 8.737e-4
-1.480, 8.821e-4
-1.481, 8.911e-4
-1.482, 9.007e-4
-1.483, 9.109e-4
-1.484, 9.208e-4
-1.485, 9.290e-4
-1.486, 9.380e-4
-1.487, 9.462e-4
-1.488, 9.556e-4
-1.489, 9.653e-4
-1.490, 9.785e-4
-1.491, 9.887e-4
-1.492, 9.966e-4
-1.493, 1.005e-3
-1.494, 1.016e-3
-1.495, 1.025e-3
-1.496, 1.035e-3
-1.497, 1.046e-3
-1.498, 1.061e-3
-1.499, 1.071e-3
-1.500, 1.065e-3
-1.499, 1.049e-3
-1.498, 1.038e-3
-1.497, 1.027e-3
-1.496, 1.016e-3
-1.495, 1.000e-3
-1.494, 9.832e-4
-1.493, 9.739e-4
-1.492, 9.613e-4
-1.491, 9.534e-4
-1.490, 9.437e-4
-1.489, 9.331e-4
-1.488, 9.220e-4
-1.487, 9.115e-4
-1.486, 9.005e-4
-1.485, 8.901e-4
-1.484, 8.767e-4
-1.483, 8.649e-4
-1.482, 8.523e-4
-1.481, 8.462e-4
-1.480, 8.372e-4
-1.479, 8.276e-4
-1.478, 8.178e-4
-1.477, 8.085e-4
-1.476, 7.999e-4
-1.475, 7.918e-4
-1.474, 7.825e-4
-1.473, 7.695e-4
-1.472, 7.605e-4
-1.471, 7.531e-4
-1.470, 7.426e-4
-1.469, 7.353e-4
-1.468, 7.253e-4
-1.467, 7.150e-4
-1.466, 7.060e-4
-1.465, 6.985e-4
-1.464, 6.889e-4
-1.463, 6.801e-4
-1.462, 6.697e-4
-1.461, 6.635e-4
-1.460, 6.554e-4
-1.459, 6.471e-4
-1.458, 6.401e-4
-1.457, 6.304e-4
-1.456, 6.225e-4
-1.455, 6.171e-4
-1.454, 6.053e-4
-1.453, 6.000e-4
-1.452, 5.924e-4
-1.451, 5.849e-4
-1.450, 5.776e-4
-1.449, 5.705e-4
-1.448, 5.614e-4
-1.447, 5.547e-4
-1.446, 5.492e-4
-1.445, 5.393e-4
-1.444, 5.330e-4
-1.443, 5.258e-4
-1.442, 5.198e-4
-1.441, 5.130e-4
-1.440, 5.055e-4
-1.439, 5.001e-4
-1.438, 4.938e-4
-1.437, 4.888e-4
-1.436, 4.786e-4
-1.435, 4.733e-4
-1.434, 4.659e-4
-1.433, 4.591e-4
-1.432, 4.536e-4
-1.431, 4.465e-4
-1.430, 4.406e-4
-1.429, 4.341e-4
-1.428, 4.297e-4
-1.427, 4.217e-4
-1.426, 4.147e-4
-1.425, 4.082e-4
-1.424, 4.043e-4
-1.423, 3.976e-4
-1.422, 3.919e-4
-1.421, 3.873e-4
-1.420, 3.830e-4
-1.419, 3.783e-4
-1.418, 3.698e-4
-1.417, 3.645e-4
-1.416, 3.596e-4
-1.415, 3.542e-4
-1.414, 3.495e-4
-1.413, 3.443e-4
-1.412, 3.407e-4
-1.411, 3.349e-4
-1.410, 3.310e-4
-1.409, 3.268e-4
-1.408, 3.183e-4
-1.407, 3.141e-4
-1.406, 3.100e-4
-1.405, 3.051e-4
-1.404, 3.011e-4
-1.403, 2.959e-4
-1.402, 2.911e-4
-1.401, 2.869e-4
-1.400, 2.830e-4
-1.399, 2.767e-4
-1.398, 2.734e-4
-1.397, 2.688e-4
-1.396, 2.639e-4
-1.395, 2.600e-4
-1.394, 2.551e-4
-1.393, 2.512e-4
-1.392, 2.481e-4
-1.391, 2.450e-4
-1.390, 2.387e-4
-1.389, 2.348e-4
-1.388, 2.317e-4
-1.387, 2.282e-4
-1.386, 2.243e-4
-1.385, 2.198e-4
-1.384, 2.166e-4
-1.383, 2.129e-4
-1.382, 2.095e-4
-1.381, 2.061e-4
-1.380, 2.024e-4
-1.379, 1.979e-4
-1.378, 1.940e-4
-1.377, 1.906e-4
-1.376, 1.874e-4
-1.375, 1.835e-4
-1.374, 1.804e-4
-1.373, 1.772e-4
-1.372, 1.741e-4
-1.371, 1.712e-4
-1.370, 1.683e-4
-1.369, 1.642e-4
-1.368, 1.604e-4
-1.367, 1.571e-4
-1.366, 1.543e-4
-1.365, 1.514e-4
-1.364, 1.491e-4
-1.363, 1.467e-4
-1.362, 1.437e-4
-1.361, 1.406e-4
-1.360, 1.381e-4
-1.359, 1.356e-4
-1.358, 1.315e-4
-1.357, 1.294e-4
-1.356, 1.268e-4
-1.355, 1.243e-4
-1.354, 1.218e-4
-1.353, 1.192e-4
-1.352, 1.169e-4
-1.351, 1.147e-4
-1.350, 1.122e-4
-1.349, 1.099e-4
-1.348, 1.075e-4
-1.347, 1.047e-4
-1.346, 1.019e-4
-1.345, 9.992e-5
-1.344, 9.799e-5
-1.343, 9.558e-5
-1.342, 9.350e-5
-1.341, 9.135e-5
-1.340, 8.927e-5
-1.339, 8.724e-5
-1.338, 8.493e-5
-1.337, 8.298e-5
-1.336, 8.114e-5
-1.335, 7.917e-5
-1.334, 7.699e-5
-1.333, 7.497e-5
-1.332, 7.237e-5
-1.331, 7.077e-5
-1.330, 6.926e-5
-1.329, 6.746e-5
-1.328, 6.582e-5
-1.327, 6.393e-5
-1.326, 6.249e-5
-1.325, 6.094e-5
-1.324, 5.915e-5
-1.323, 5.735e-5
-1.322, 5.556e-5
-1.321, 5.394e-5
-1.320, 5.262e-5
-1.319, 5.109e-5
-1.318, 4.956e-5
-1.317, 4.816e-5
-1.316, 4.659e-5
-1.315, 4.505e-5
-1.314, 4.365e-5
-1.313, 4.234e-5
-1.312, 4.113e-5
-1.311, 3.970e-5
-1.310, 3.831e-5
-1.309, 3.696e-5
-1.308, 3.577e-5
-1.307, 3.447e-5
-1.306, 3.317e-5
-1.305, 3.170e-5
-1.304, 3.075e-5
-1.303, 2.965e-5
-1.302, 2.846e-5
-1.301, 2.741e-5
-1.300, 2.626e-5
-1.299, 2.512e-5
-1.298, 2.411e-5
-1.297, 2.291e-5
-1.296, 2.196e-5
-1.295, 2.096e-5
-1.294, 1.995e-5
-1.293, 1.901e-5
-1.292, 1.803e-5
-1.291, 1.714e-5
-1.290, 1.628e-5
-1.289, 1.526e-5
-1.288, 1.442e-5
-1.287, 1.359e-5
-1.286, 1.268e-5
-1.285, 1.189e-5
-1.284, 1.105e-5
-1.283, 1.028e-5
-1.282, 9.538e-6
-1.281, 8.772e-6
-1.280, 7.967e-6
-1.279, 7.296e-6
-1.278, 6.549e-6
-1.277, 5.859e-6
-1.276, 5.176e-6
-1.275, 4.510e-6
-1.274, 3.900e-6
-1.273, 3.213e-6
-1.272, 2.628e-6
-1.271, 2.023e-6
-1.270, 1.401e-6
-1.269, 8.868e-7
-1.268, 2.731e-7
-1.267, -2.903e-7
-1.266, -8.191e-7
-1.265, -1.394e-6
-1.264, -1.830e-6
-1.263, -2.351e-6
-1.262, -2.891e-6
-1.261, -3.316e-6
-1.260, -3.766e-6
-1.259, -4.249e-6
-1.258, -4.666e-6
-1.257, -5.174e-6
-1.256, -5.577e-6
-1.255, -6.023e-6
-1.254, -6.457e-6
-1.253, -6.767e-6
-1.252, -7.158e-6
-1.251, -7.584e-6
-1.250, -7.943e-6
-1.249, -8.345e-6
-1.248, -8.663e-6
-1.247, -9.015e-6
-1.246, -9.427e-6
-1.245, -9.670e-6
-1.244, -9.973e-6
-1.243, -1.027e-5
-1.242, -1.058e-5
-1.241, -1.096e-5
-1.240, -1.118e-5
-1.239, -1.145e-5
-1.238, -1.178e-5
-1.237, -1.203e-5
-1.236, -1.229e-5
-1.235, -1.248e-5
-1.234, -1.275e-5
-1.233, -1.302e-5
-1.232, -1.326e-5
-1.231, -1.351e-5
-1.230, -1.373e-5
-1.229, -1.408e-5
-1.228, -1.415e-5
-1.227, -1.436e-5
-1.226, -1.452e-5
-1.225, -1.474e-5
-1.224, -1.486e-5
-1.223, -1.498e-5
-1.222, -1.521e-5
-1.221, -1.543e-5
-1.220, -1.563e-5
-1.219, -1.573e-5
-1.218, -1.577e-5
-1.217, -1.595e-5
-1.216, -1.617e-5
-1.215, -1.629e-5
-1.214, -1.650e-5
-1.213, -1.663e-5
-1.212, -1.671e-5
-1.211, -1.690e-5
-1.210, -1.697e-5
-1.209, -1.718e-5
-1.208, -1.727e-5
-1.207, -1.738e-5
-1.206, -1.751e-5
-1.205, -1.760e-5
-1.204, -1.770e-5
-1.203, -1.780e-5
-1.202, -1.790e-5
-1.201, -1.802e-5
-1.200, -1.808e-5
-1.199, -1.819e-5
-1.198, -1.832e-5
-1.197, -1.837e-5
-1.196, -1.847e-5
-1.195, -1.854e-5
-1.194, -1.855e-5
-1.193, -1.875e-5
-1.192, -1.876e-5
-1.191, -1.886e-5
-1.190, -1.895e-5
-1.189, -1.907e-5
-1.188, -1.915e-5
-1.187, -1.918e-5
-1.186, -1.922e-5
-1.185, -1.926e-5
-1.184, -1.937e-5
-1.183, -1.935e-5
-1.182, -1.946e-5
-1.181, -1.948e-5
-1.180, -1.954e-5
-1.179, -1.964e-5
-1.178, -1.965e-5
-1.177, -1.978e-5
-1.176, -1.977e-5
-1.175, -1.981e-5
-1.174, -1.985e-5
-1.173, -1.978e-5
-1.172, -1.994e-5
-1.171, -2.002e-5
-1.170, -2.003e-5
-1.169, -2.011e-5
-1.168, -2.012e-5
-1.167, -2.009e-5
-1.166, -2.022e-5
-1.165, -2.013e-5
-1.164, -2.029e-5
-1.163, -2.036e-5
-1.162, -2.036e-5
-1.161, -2.038e-5
-1.160, -2.037e-5
-1.159, -2.044e-5
-1.158, -2.041e-5
-1.157, -2.046e-5
-1.156, -2.068e-5
-1.155, -2.080e-5
-1.154, -2.076e-5
-1.153, -2.086e-5
-1.152, -2.083e-5
-1.151, -2.087e-5
-1.150, -2.099e-5
-1.149, -2.107e-5
-1.148, -2.109e-5
-1.147, -2.114e-5
-1.146, -2.124e-5
-1.145, -2.123e-5
-1.144, -2.125e-5
-1.143, -2.129e-5
-1.142, -2.139e-5
-1.141, -2.139e-5
-1.140, -2.143e-5
-1.139, -2.150e-5
-1.138, -2.151e-5
-1.137, -2.163e-5
-1.136, -2.163e-5
-1.135, -2.171e-5
-1.134, -2.174e-5
-1.133, -2.184e-5
-1.132, -2.189e-5
-1.131, -2.198e-5
-1.130, -2.205e-5
-1.129, -2.216e-5
-1.128, -2.204e-5
-1.127, -2.225e-5
-1.126, -2.242e-5
-1.125, -2.244e-5
-1.124, -2.250e-5
-1.123, -2.257e-5
-1.122, -2.260e-5
-1.121, -2.274e-5
-1.120, -2.270e-5
-1.119, -2.279e-5
-1.118, -2.290e-5
-1.117, -2.296e-5
-1.116, -2.309e-5
-1.115, -2.319e-5
-1.114, -2.321e-5
-1.113, -2.328e-5
-1.112, -2.337e-5
-1.111, -2.337e-5
-1.110, -2.352e-5
-1.109, -2.366e-5
-1.108, -2.373e-5
-1.107, -2.390e-5
-1.106, -2.399e-5
-1.105, -2.404e-5
-1.104, -2.413e-5
-1.103, -2.422e-5
-1.102, -2.441e-5
-1.101, -2.457e-5
-1.100, -2.467e-5
-1.099, -2.482e-5
-1.098, -2.479e-5
-1.097, -2.510e-5
-1.096, -2.516e-5
-1.095, -2.524e-5
-1.094, -2.539e-5
-1.093, -2.551e-5
-1.092, -2.567e-5
-1.091, -2.585e-5
-1.090, -2.599e-5
-1.089, -2.611e-5
-1.088, -2.629e-5
-1.087, -2.638e-5
-1.086, -2.664e-5
-1.085, -2.679e-5
-1.084, -2.700e-5
-1.083, -2.716e-5
-1.082, -2.731e-5
-1.081, -2.755e-5
-1.080, -2.759e-5
-1.079, -2.794e-5
-1.078, -2.813e-5
-1.077, -2.828e-5
-1.076, -2.852e-5
-1.075, -2.888e-5
-1.074, -2.905e-5
-1.073, -2.931e-5
-1.072, -2.948e-5
-1.071, -2.967e-5
-1.070, -3.001e-5
-1.069, -3.010e-5
-1.068, -3.020e-5
-1.067, -3.063e-5
-1.066, -3.095e-5
-1.065, -3.125e-5
-1.064, -3.156e-5
-1.063, -3.176e-5
-1.062, -3.205e-5
-1.061, -3.244e-5
-1.060, -3.284e-5
-1.059, -3.319e-5
-1.058, -3.345e-5
-1.057, -3.384e-5
-1.056, -3.421e-5
-1.055, -3.465e-5
-1.054, -3.488e-5
-1.053, -3.527e-5
-1.052, -3.570e-5
-1.051, -3.616e-5
-1.050, -3.668e-5
-1.049, -3.718e-5
-1.048, -3.743e-5
-1.047, -3.789e-5
-1.046, -3.856e-5
-1.045, -3.897e-5
-1.044, -3.939e-5
-1.043, -3.994e-5
-1.042, -4.036e-5
-1.041, -4.096e-5
-1.040, -4.140e-5
-1.039, -4.207e-5
-1.038, -4.259e-5
-1.037, -4.314e-5
-1.036, -4.368e-5
-1.035, -4.421e-5
-1.034, -4.477e-5
-1.033, -4.527e-5
-1.032, -4.592e-5
-1.031, -4.675e-5
-1.030, -4.726e-5
-1.029, -4.781e-5
-1.028, -4.844e-5
-1.027, -4.909e-5
-1.026, -4.972e-5
-1.025, -5.039e-5
-1.024, -5.102e-5
-1.023, -5.113e-5
-1.022, -5.178e-5
-1.021, -5.259e-5
-1.020, -5.327e-5
-1.019, -5.395e-5
-1.018, -5.462e-5
-1.017, -5.533e-5
-1.016, -5.612e-5
-1.015, -5.668e-5
-1.014, -5.720e-5
-1.013, -5.795e-5
-1.012, -5.873e-5
-1.011, -5.953e-5
-1.010, -5.994e-5
-1.009, -6.077e-5
-1.008, -6.140e-5
-1.007, -6.207e-5
-1.006, -6.305e-5
-1.005, -6.359e-5
-1.004, -6.450e-5
-1.003, -6.539e-5
-1.002, -6.605e-5
-1.001, -6.686e-5
-1.000, -5.781e-5
-1.001, -4.787e-5
-1.002, -4.213e-5
-1.003, -3.785e-5
-1.004, -3.437e-5
-1.005, -3.132e-5
-1.006, -2.852e-5
-1.007, -2.598e-5
-1.008, -2.377e-5
-1.009, -2.162e-5
-1.010, -1.961e-5
-1.011, -1.786e-5
-1.012, -1.610e-5
-1.013, -1.452e-5
-1.014, -1.300e-5
-1.015, -1.156e-5
-1.016, -1.021e-5
-1.017, -8.945e-6
-1.018, -7.678e-6
-1.019, -6.620e-6
-1.020, -5.461e-6
-1.021, -4.426e-6
-1.022, -3.475e-6
-1.023, -2.492e-6
-1.024, -1.583e-6
-1.025, -7.668e-7
-1.026, 9.057e-8
-1.027, 8.147e-7
-1.028, 1.590e-6
-1.029, 2.237e-6
-1.030, 2.889e-6
-1.031, 3.564e-6
-1.032, 4.122e-6
-1.033, 4.717e-6
-1.034, 5.244e-6
-1.035, 5.779e-6
-1.036, 6.318e-6
-1.037, 6.769e-6
-1.038, 7.244e-6
-1.039, 7.659e-6
-1.040, 8.019e-6
-1.041, 8.461e-6
-1.042, 8.852e-6
-1.043, 9.188e-6
-1.044, 9.550e-6
-1.045, 9.849e-6
-1.046, 1.014e-5
-1.047, 1.049e-5
-1.048, 1.074e-5
-1.049, 1.097e-5
-1.050, 1.126e-5
-1.051, 1.148e-5
-1.052, 1.179e-5
-1.053, 1.196e-5
-1.054, 1.221e-5
-1.055, 1.243e-5
-1.056, 1.261e-5
-1.057, 1.273e-5
-1.058, 1.298e-5
-1.059, 1.308e-5
-1.060, 1.328e-5
-1.061, 1.344e-5
-1.062, 1.358e-5
-1.063, 1.379e-5
-1.064, 1.387e-5
-1.065, 1.403e-5
-1.066, 1.416e-5
-1.067, 1.423e-5
-1.068, 1.439e-5
-1.069, 1.452e-5
-1.070, 1.457e-5
-1.071, 1.471e-5
-1.072, 1.477e-5
-1.073, 1.488e-5
-1.074, 1.498e-5
-1.075, 1.509e-5
-1.076, 1.516e-5
-1.077, 1.524e-5
-1.078, 1.532e-5
-1.079, 1.544e-5
-1.080, 1.541e-5
-1.081, 1.551e-5
-1.082, 1.560e-5
-1.083, 1.562e-5
-1.084, 1.567e-5
-1.085, 1.576e-5
-1.086, 1.586e-5
-1.087, 1.593e-5
-1.088, 1.591e-5
-1.089, 1.596e-5
-1.090, 1.604e-5
-1.091, 1.608e-5
-1.092, 1.619e-5
-1.093, 1.623e-5
-1.094, 1.624e-5
-1.095, 1.632e-5
-1.096, 1.635e-5
-1.097, 1.640e-5
-1.098, 1.641e-5
-1.099, 1.641e-5
-1.100, 1.655e-5
-1.101, 1.660e-5
-1.102, 1.663e-5
-1.103, 1.666e-5
-1.104, 1.667e-5
-1.105, 1.673e-5
-1.106, 1.677e-5
-1.107, 1.679e-5
-1.108, 1.686e-5
-1.109, 1.691e-5
-1.110, 1.690e-5
-1.111, 1.695e-5
-1.112, 1.694e-5
-1.113, 1.694e-5
-1.114, 1.705e-5
-1.115, 1.706e-5
-1.116, 1.711e-5
-1.117, 1.713e-5
-1.118, 1.713e-5
-1.119, 1.716e-5
-1.120, 1.716e-5
-1.121, 1.722e-5
-1.122, 1.732e-5
-1.123, 1.729e-5
-1.124, 1.731e-5
-1.125, 1.733e-5
-1.126, 1.741e-5
-1.127, 1.743e-5
-1.128, 1.742e-5
-1.129, 1.744e-5
-1.130, 1.746e-5
-1.131, 1.748e-5
-1.132, 1.755e-5
-1.133, 1.754e-5
-1.134, 1.753e-5
-1.135, 1.758e-5
-1.136, 1.760e-5
-1.137, 1.763e-5
-1.138, 1.771e-5
-1.139, 1.768e-5
-1.140, 1.765e-5
-1.141, 1.772e-5
-1.142, 1.772e-5
-1.143, 1.779e-5
-1.144, 1.778e-5
-1.145, 1.776e-5
-1.146, 1.783e-5
-1.147, 1.786e-5
-1.148, 1.789e-5
-1.149, 1.789e-5
-1.150, 1.791e-5
-1.151, 1.798e-5
-1.152, 1.798e-5
-1.153, 1.801e-5
-1.154, 1.802e-5
-1.155, 1.802e-5
-1.156, 1.808e-5
-1.157, 1.805e-5
-1.158, 1.811e-5
-1.159, 1.818e-5
-1.160, 1.815e-5
-1.161, 1.822e-5
-1.162, 1.826e-5
-1.163, 1.824e-5
-1.164, 1.826e-5
-1.165, 1.831e-5
-1.166, 1.834e-5
-1.167, 1.839e-5
-1.168, 1.837e-5
-1.169, 1.838e-5
-1.170, 1.849e-5
-1.171, 1.846e-5
-1.172, 1.858e-5
-1.173, 1.855e-5
-1.174, 1.859e-5
-1.175, 1.867e-5
-1.176, 1.872e-5
-1.177, 1.883e-5
-1.178, 1.885e-5
-1.179, 1.883e-5
-1.180, 1.891e-5
-1.181, 1.896e-5
-1.182, 1.902e-5
-1.183, 1.906e-5
-1.184, 1.908e-5
-1.185, 1.913e-5
-1.186, 1.920e-5
-1.187, 1.928e-5
-1.188, 1.932e-5
-1.189, 1.938e-5
-1.190, 1.944e-5
-1.191, 1.955e-5
-1.192, 1.959e-5
-1.193, 1.965e-5
-1.194, 1.970e-5
-1.195, 1.972e-5
-1.196, 1.987e-5
-1.197, 1.992e-5
-1.198, 2.000e-5
-1.199, 2.008e-5
-1.200, 2.009e-5
-1.201, 2.018e-5
-1.202, 2.030e-5
-1.203, 2.039e-5
-1.204, 2.047e-5
-1.205, 2.055e-5
-1.206, 2.063e-5
-1.207, 2.076e-5
-1.208, 2.079e-5
-1.209, 2.088e-5
-1.210, 2.104e-5
-1.211, 2.109e-5
-1.212, 2.121e-5
-1.213, 2.128e-5
-1.214, 2.136e-5
-1.215, 2.155e-5
-1.216, 2.167e-5
-1.217, 2.174e-5
-1.218, 2.183e-5
-1.219, 2.193e-5
-1.220, 2.210e-5
-1.221, 2.220e-5
-1.222, 2.231e-5
-1.223, 2.248e-5
-1.224, 2.255e-5
-1.225, 2.273e-5
-1.226, 2.288e-5
-1.227, 2.299e-5
-1.228, 2.324e-5
-1.229, 2.341e-5
-1.230, 2.350e-5
-1.231, 2.366e-5
-1.232, 2.374e-5
-1.233, 2.389e-5
-1.234, 2.416e-5
-1.235, 2.428e-5
-1.236, 2.449e-5
-1.237, 2.468e-5
-1.238, 2.482e-5
-1.239, 2.506e-5
-1.240, 2.519e-5
-1.241, 2.543e-5
-1.242, 2.568e-5
-1.243, 2.583e-5
-1.244, 2.609e-5
-1.245, 2.629e-5
-1.246, 2.656e-5
-1.247, 2.681e-5
-1.248, 2.704e-5
-1.249, 2.723e-5
-1.250, 2.753e-5
-1.251, 2.778e-5
-1.252, 2.811e-5
-1.253, 2.834e-5
-1.254, 2.867e-5
-1.255, 2.899e-5
-1.256, 2.930e-5
-1.257, 2.963e-5
-1.258, 2.997e-5
-1.259, 3.027e-5
-1.260, 3.062e-5
-1.261, 3.095e-5
-1.262, 3.137e-5
-1.263, 3.171e-5
-1.264, 3.174e-5
-1.265, 3.218e-5
-1.266, 3.264e-5
-1.267, 3.315e-5
-1.268, 3.357e-5
-1.269, 3.391e-5
-1.270, 3.451e-5
-1.271, 3.500e-5
-1.272, 3.537e-5
-1.273, 3.580e-5
-1.274, 3.626e-5
-1.275, 3.677e-5
-1.276, 3.731e-5
-1.277, 3.786e-5
-1.278, 3.836e-5
-1.279, 3.892e-5
-1.280, 3.953e-5
-1.281, 4.006e-5
-1.282, 4.070e-5
-1.283, 4.116e-5
-1.284, 4.181e-5
-1.285, 4.251e-5
-1.286, 4.312e-5
-1.287, 4.373e-5
-1.288, 4.428e-5
-1.289, 4.493e-5
-1.290, 4.575e-5
-1.291, 4.644e-5
-1.292, 4.727e-5
-1.293, 4.802e-5
-1.294, 4.861e-5
-1.295, 4.940e-5
-1.296, 5.011e-5
-1.297, 5.090e-5
-1.298, 5.169e-5
-1.299, 5.255e-5
-1.300, 5.337e-5
-1.301, 5.434e-5
-1.302, 5.538e-5
-1.303, 5.618e-5
-1.304, 5.705e-5
-1.305, 5.808e-5
-1.306, 5.914e-5
-1.307, 6.002e-5
-1.308, 6.103e-5
-1.309, 6.197e-5
-1.310, 6.306e-5
-1.311, 6.413e-5
-1.312, 6.521e-5
-1.313, 6.633e-5
-1.314, 6.716e-5
-1.315, 6.822e-5
-1.316, 6.956e-5
-1.317, 7.085e-5
-1.318, 7.208e-5
-1.319, 7.317e-5
-1.320, 7.439e-5
-1.321, 7.578e-5
-1.322, 7.721e-5
-1.323, 7.841e-5
-1.324, 7.962e-5
-1.325, 8.094e-5
-1.326, 8.229e-5
-1.327, 8.385e-5
-1.328, 8.512e-5
-1.329, 8.670e-5
-1.330, 8.817e-5
-1.331, 8.969e-5
-1.332, 9.133e-5
-1.333, 9.264e-5
-1.334, 9.422e-5
-1.335, 9.585e-5
-1.336, 9.727e-5
-1.337, 9.896e-5
-1.338, 1.007e-4
-1.339, 1.026e-4
-1.340, 1.042e-4
-1.341, 1.058e-4
-1.342, 1.077e-4
-1.343, 1.094e-4
-1.344, 1.111e-4
-1.345, 1.129e-4
-1.346, 1.150e-4
-1.347, 1.165e-4
-1.348, 1.187e-4
-1.349, 1.208e-4
-1.350, 1.228e-4
-1.351, 1.247e-4
-1.352, 1.266e-4
-1.353, 1.287e-4
-1.354, 1.308e-4
-1.355, 1.331e-4
-1.356, 1.352e-4
-1.357, 1.374e-4
-1.358, 1.398e-4
-1.359, 1.422e-4
-1.360, 1.446e-4
-1.361, 1.468e-4
-1.362, 1.492e-4
-1.363, 1.515e-4
-1.364, 1.536e-4
-1.365, 1.562e-4
-1.366, 1.583e-4
-1.367, 1.612e-4
-1.368, 1.639e-4
-1.369, 1.669e-4
-1.370, 1.692e-4
-1.371, 1.717e-4
-1.372, 1.746e-4
-1.373, 1.772e-4
-1.374, 1.802e-4
-1.375, 1.827e-4
-1.376, 1.860e-4
-1.377, 1.888e-4
-1.378, 1.918e-4
-1.379, 1.945e-4
-1.380, 1.974e-4
-1.381, 1.985e-4
-1.382, 2.013e-4
-1.383, 2.050e-4
-1.384, 2.079e-4
-1.385, 2.113e-4
-1.386, 2.149e-4
-1.387, 2.173e-4
-1.388, 2.209e-4
-1.389, 2.243e-4
-1.390, 2.273e-4
-1.391, 2.299e-4
-1.392, 2.332e-4
-1.393, 2.371e-4
-1.394, 2.405e-4
-1.395, 2.439e-4
-1.396, 2.474e-4
-1.397, 2.508e-4
-1.398, 2.542e-4
-1.399, 2.584e-4
-1.400, 2.616e-4
-1.401, 2.652e-4
-1.402, 2.693e-4
-1.403, 2.721e-4
-1.404, 2.762e-4
-1.405, 2.802e-4
-1.406, 2.833e-4
-1.407, 2.878e-4
-1.408, 2.919e-4
-1.409, 2.955e-4
-1.410, 2.991e-4
-1.411, 3.029e-4
-1.412, 3.066e-4
-1.413, 3.111e-4
-1.414, 3.164e-4
-1.415, 3.200e-4
-1.416, 3.256e-4
-1.417, 3.298e-4
-1.418, 3.336e-4
-1.419, 3.384e-4
-1.420, 3.431e-4
-1.421, 3.488e-4
-1.422, 3.524e-4
-1.423, 3.534e-4
-1.424, 3.582e-4
-1.425, 3.629e-4
-1.426, 3.679e-4
-1.427, 3.729e-4
-1.428, 3.780e-4
-1.429, 3.828e-4
-1.430, 3.872e-4
-1.431, 3.912e-4
-1.432, 3.971e-4
-1.433, 4.001e-4
-1.434, 4.066e-4
-1.435, 4.115e-4
-1.436, 4.167e-4
-1.437, 4.208e-4
-1.438, 4.268e-4
-1.439, 4.318e-4
-1.440, 4.361e-4
-1.441, 4.414e-4
-1.442, 4.475e-4
-1.443, 4.519e-4
-1.444, 4.556e-4
-1.445, 4.612e-4
-1.446, 4.676e-4
-1.447, 4.737e-4
-1.448, 4.788e-4
-1.449, 4.843e-4
-1.450, 4.907e-4
-1.451, 4.966e-4
-1.452, 5.021e-4
-1.453, 5.094e-4
-1.454, 5.155e-4
-1.455, 5.232e-4
-1.456, 5.256e-4
-1.457, 5.298e-4
-1.458, 5.349e-4
-1.459, 5.406e-4
-1.460, 5.477e-4
-1.461, 5.553e-4
-1.462, 5.622e-4
-1.463, 5.701e-4
-1.464, 5.744e-4
-1.465, 5.799e-4
-1.466, 5.868e-4
-1.467, 5.941e-4
-1.468, 6.002e-4
-1.469, 6.039e-4
-1.470, 6.081e-4
-1.471, 6.150e-4
-1.472, 6.219e-4
-1.473, 6.281e-4
-1.474, 6.350e-4
-1.475, 6.440e-4
-1.476, 6.535e-4
-1.477, 6.649e-4
-1.478, 6.611e-4
-1.479, 6.701e-4
-1.480, 6.787e-4
-1.481, 6.852e-4
-1.482, 6.952e-4
-1.483, 7.033e-4
-1.484, 7.096e-4
-1.485, 7.152e-4
-1.486, 7.249e-4
-1.487, 7.323e-4
-1.488, 7.383e-4
-1.489, 7.450e-4
-1.490, 7.529e-4
-1.491, 7.628e-4
-1.492, 7.693e-4
-1.493, 7.782e-4
-1.494, 7.911e-4
-1.495, 7.941e-4
-1.496, 7.979e-4
-1.497, 8.093e-4
-1.498, 8.179e-4
-1.499, 8.268e-4
-1.500, 8.239e-4
-1.499, 8.140e-4
-1.498, 8.062e-4
-1.497, 7.977e-4
-1.496, 7.886e-4
-1.495, 7.777e-4
-1.494, 7.704e-4
-1.493, 7.610e-4
-1.492, 7.559e-4
-1.491, 7.526e-4
-1.490, 7.379e-4
-1.489, 7.287e-4
-1.488, 7.189e-4
-1.487, 7.106e-4
-1.486, 7.033e-4
-1.485, 6.956e-4
-1.484, 6.880e-4
-1.483, 6.821e-4
-1.482, 6.749e-4
-1.481, 6.677e-4
-1.480, 6.595e-4
-1.479, 6.546e-4
-1.478, 6.486e-4
-1.477, 6.344e-4
-1.476, 6.295e-4
-1.475, 6.219e-4
-1.474, 6.150e-4
-1.473, 6.078e-4
-1.472, 6.009e-4
-1.471, 5.977e-4
-1.470, 5.894e-4
-1.469, 5.819e-4
-1.468, 5.717e-4
-1.467, 5.681e-4
-1.466, 5.617e-4
-1.465, 5.514e-4
-1.464, 5.468e-4
-1.463, 5.405e-4
-1.462, 5.338e-4
-1.461, 5.269e-4
-1.460, 5.204e-4
-1.459, 5.137e-4
-1.458, 5.093e-4
-1.457, 5.050e-4
-1.456, 4.990e-4
-1.455, 4.948e-4
-1.454, 4.823e-4
-1.453, 4.775e-4
-1.452, 4.728e-4
-1.451, 4.671e-4
-1.450, 4.629e-4
-1.449, 4.564e-4
-1.448, 4.491e-4
-1.447, 4.427e-4
-1.446, 4.394e-4
-1.445, 4.364e-4
-1.444, 4.302e-4
-1.443, 4.180e-4
-1.442, 4.151e-4
-1.441, 4.107e-4
-1.440, 4.060e-4
-1.439, 4.012e-4
-1.438, 3.953e-4
-1.437, 3.905e-4
-1.436, 3.851e-4
-1.435, 3.821e-4
-1.434, 3.780e-4
-1.433, 3.754e-4
-1.432, 3.662e-4
-1.431, 3.613e-4
-1.430, 3.550e-4
-1.429, 3.523e-4
-1.428, 3.469e-4
-1.427, 3.435e-4
-1.426, 3.392e-4
-1.425, 3.358e-4
-1.424, 3.322e-4
-1.423, 3.274e-4
-1.422, 3.237e-4
-1.421, 3.172e-4
-1.420, 3.089e-4
-1.419, 3.054e-4
-1.418, 3.023e-4
-1.417, 2.983e-4
-1.416, 2.949e-4
-1.415, 2.915e-4
-1.414, 2.882e-4
-1.413, 2.854e-4
-1.412, 2.822e-4
-1.411, 2.775e-4
-1.410, 2.705e-4
-1.409, 2.664e-4
-1.408, 2.627e-4
-1.407, 2.599e-4
-1.406, 2.561e-4
-1.405, 2.526e-4
-1.404, 2.500e-4
-1.403, 2.460e-4
-1.402, 2.428e-4
-1.401, 2.395e-4
-1.400, 2.366e-4
-1.399, 2.334e-4
-1.398, 2.280e-4
-1.397, 2.234e-4
-1.396, 2.206e-4
-1.395, 2.170e-4
-1.394, 2.132e-4
-1.393, 2.104e-4
-1.392, 2.076e-4
-1.391, 2.051e-4
-1.390, 2.019e-4
-1.389, 1.984e-4
-1.388, 1.950e-4
-1.387, 1.922e-4
-1.386, 1.899e-4
-1.385, 1.868e-4
-1.384, 1.804e-4
-1.383, 1.756e-4
-1.382, 1.734e-4
-1.381, 1.713e-4
-1.380, 1.686e-4
-1.379, 1.662e-4
-1.378, 1.632e-4
-1.377, 1.605e-4
-1.376, 1.580e-4
-1.375, 1.556e-4
-1.374, 1.527e-4
-1.373, 1.505e-4
-1.372, 1.477e-4
-1.371, 1.442e-4
-1.370, 1.407e-4
-1.369, 1.391e-4
-1.368, 1.369e-4
-1.367, 1.345e-4
-1.366, 1.320e-4
-1.365, 1.296e-4
-1.364, 1.275e-4
-1.363, 1.252e-4
-1.362, 1.230e-4
-1.361, 1.206e-4
-1.360, 1.184e-4
-1.359, 1.166e-4
-1.358, 1.142e-4
-1.357, 1.105e-4
-1.356, 1.088e-4
-1.355, 1.066e-4
-1.354, 1.047e-4
-1.353, 1.025e-4
-1.352, 1.004e-4
-1.351, 9.843e-5
-1.350, 9.685e-5
-1.349, 9.495e-5
-1.348, 9.289e-5
-1.347, 9.105e-5
-1.346, 8.895e-5
-1.345, 8.692e-5
-1.344, 8.511e-5
-1.343, 8.301e-5
-1.342, 8.062e-5
-1.341, 7.868e-5
-1.340, 7.723e-5
-1.339, 7.562e-5
-1.338, 7.407e-5
-1.337, 7.232e-5
-1.336, 7.031e-5
-1.335, 6.852e-5
-1.334, 6.704e-5
-1.333, 6.556e-5
-1.332, 6.392e-5
-1.331, 6.226e-5
-1.330, 6.082e-5
-1.329, 5.952e-5
-1.328, 5.787e-5
-1.327, 5.632e-5
-1.326, 5.490e-5
-1.325, 5.374e-5
-1.324, 5.239e-5
-1.323, 5.083e-5
-1.322, 4.939e-5
-1.321, 4.803e-5
-1.320, 4.676e-5
-1.319, 4.546e-5
-1.318, 4.397e-5
-1.317, 4.289e-5
-1.316, 4.164e-5
-1.315, 4.038e-5
-1.314, 3.928e-5
-1.313, 3.813e-5
-1.312, 3.670e-5
-1.311, 3.523e-5
-1.310, 3.312e-5
-1.309, 3.172e-5
-1.308, 3.063e-5
-1.307, 2.959e-5
-1.306, 2.865e-5
-1.305, 2.757e-5
-1.304, 2.679e-5
-1.303, 2.578e-5
-1.302, 2.482e-5
-1.301, 2.393e-5
-1.300, 2.304e-5
-1.299, 2.216e-5
-1.298, 2.127e-5
-1.297, 2.038e-5
-1.296, 1.957e-5
-1.295, 1.874e-5
-1.294, 1.795e-5
-1.293, 1.716e-5
-1.292, 1.631e-5
-1.291, 1.551e-5
-1.290, 1.488e-5
-1.289, 1.418e-5
-1.288, 1.345e-5
-1.287, 1.278e-5
-1.286, 1.193e-5
-1.285, 1.131e-5
-1.284, 1.063e-5
-1.283, 1.002e-5
-1.282, 9.378e-6
-1.281, 8.693e-6
-1.280, 8.050e-6
-1.279, 7.465e-6
-1.278, 6.853e-6
-1.277, 6.291e-6
-1.276, 5.687e-6
-1.275, 5.155e-6
-1.274, 4.574e-6
-1.273, 4.031e-6
-1.272, 3.580e-6
-1.271, 3.080e-6
-1.270, 2.561e-6
-1.269, 2.081e-6
-1.268, 1.629e-6
-1.267, 1.170e-6
-1.266, 7.220e-7
-1.265, 2.543e-7
-1.264, -1.531e-7
-1.263, -5.714e-7
-1.262, -1.023e-6
-1.261, -1.381e-6
-1.260, -1.803e-6
-1.259, -2.174e-6
-1.258, -2.518e-6
-1.257, -2.939e-6
-1.256, -3.239e-6
-1.255, -3.656e-6
-1.254, -4.027e-6
-1.253, -4.295e-6
-1.252, -4.642e-6
-1.251, -4.926e-6
-1.250, -5.238e-6
-1.249, -5.578e-6
-1.248, -5.843e-6
-1.247, -6.160e-6
-1.246, -6.442e-6
-1.245, -6.692e-6
-1.244, -6.940e-6
-1.243, -7.234e-6
-1.242, -7.467e-6
-1.241, -7.753e-6
-1.240, -7.980e-6
-1.239, -8.251e-6
-1.238, -8.462e-6
-1.237, -8.668e-6
-1.236, -8.862e-6
-1.235, -9.124e-6
-1.234, -9.381e-6
-1.233, -9.550e-6
-1.232, -9.697e-6
-1.231, -9.875e-6
-1.230, -1.013e-5
-1.229, -1.038e-5
-1.228, -1.046e-5
-1.227, -1.072e-5
-1.226, -1.091e-5
-1.225, -1.101e-5
-1.224, -1.112e-5
-1.223, -1.131e-5
-1.222, -1.147e-5
-1.221, -1.158e-5
-1.220, -1.174e-5
-1.219, -1.191e-5
-1.218, -1.206e-5
-1.217, -1.224e-5
-1.216, -1.236e-5
-1.215, -1.245e-5
-1.214, -1.265e-5
-1.213, -1.270e-5
-1.212, -1.286e-5
-1.211, -1.300e-5
-1.210, -1.302e-5
-1.209, -1.306e-5
-1.208, -1.322e-5
-1.207, -1.332e-5
-1.206, -1.343e-5
-1.205, -1.355e-5
-1.204, -1.362e-5
-1.203, -1.369e-5
-1.202, -1.378e-5
-1.201, -1.385e-5
-1.200, -1.395e-5
-1.199, -1.407e-5
-1.198, -1.413e-5
-1.197, -1.421e-5
-1.196, -1.429e-5
-1.195, -1.435e-5
-1.194, -1.437e-5
-1.193, -1.458e-5
-1.192, -1.452e-5
-1.191, -1.461e-5
-1.190, -1.471e-5
-1.189, -1.479e-5
-1.188, -1.481e-5
-1.187, -1.489e-5
-1.186, -1.492e-5
-1.185, -1.492e-5
-1.184, -1.494e-5
-1.183, -1.502e-5
-1.182, -1.506e-5
-1.181, -1.508e-5
-1.180, -1.518e-5
-1.179, -1.524e-5
-1.178, -1.532e-5
-1.177, -1.538e-5
-1.176, -1.541e-5
-1.175, -1.542e-5
-1.174, -1.539e-5
-1.173, -1.540e-5
-1.172, -1.547e-5
-1.171, -1.553e-5
-1.170, -1.557e-5
-1.169, -1.562e-5
-1.168, -1.565e-5
-1.167, -1.561e-5
-1.166, -1.573e-5
-1.165, -1.572e-5
-1.164, -1.572e-5
-1.163, -1.584e-5
-1.162, -1.589e-5
-1.161, -1.592e-5
-1.160, -1.598e-5
-1.159, -1.591e-5
-1.158, -1.600e-5
-1.157, -1.602e-5
-1.156, -1.607e-5
-1.155, -1.613e-5
-1.154, -1.617e-5
-1.153, -1.619e-5
-1.152, -1.621e-5
-1.151, -1.625e-5
-1.150, -1.632e-5
-1.149, -1.623e-5
-1.148, -1.633e-5
-1.147, -1.645e-5
-1.146, -1.646e-5
-1.145, -1.655e-5
-1.144, -1.653e-5
-1.143, -1.656e-5
-1.142, -1.664e-5
-1.141, -1.667e-5
-1.140, -1.672e-5
-1.139, -1.676e-5
-1.138, -1.678e-5
-1.137, -1.683e-5
-1.136, -1.681e-5
-1.135, -1.687e-5
-1.134, -1.706e-5
-1.133, -1.709e-5
-1.132, -1.707e-5
-1.131, -1.687e-5
-1.130, -1.704e-5
-1.129, -1.715e-5
-1.128, -1.723e-5
-1.127, -1.733e-5
-1.126, -1.740e-5
-1.125, -1.746e-5
-1.124, -1.749e-5
-1.123, -1.756e-5
-1.122, -1.750e-5
-1.121, -1.760e-5
-1.120, -1.768e-5
-1.119, -1.775e-5
-1.118, -1.793e-5
-1.117, -1.790e-5
-1.116, -1.797e-5
-1.115, -1.803e-5
-1.114, -1.806e-5
-1.113, -1.821e-5
-1.112, -1.822e-5
-1.111, -1.826e-5
-1.110, -1.837e-5
-1.109, -1.840e-5
-1.108, -1.852e-5
-1.107, -1.857e-5
-1.106, -1.876e-5
-1.105, -1.896e-5
-1.104, -1.895e-5
-1.103, -1.899e-5
-1.102, -1.905e-5
-1.101, -1.907e-5
-1.100, -1.923e-5
-1.099, -1.939e-5
-1.098, -1.949e-5
-1.097, -1.960e-5
-1.096, -1.969e-5
-1.095, -1.976e-5
-1.094, -1.992e-5
-1.093, -2.004e-5
-1.092, -2.008e-5
-1.091, -2.028e-5
-1.090, -2.028e-5
-1.089, -2.059e-5
-1.088, -2.068e-5
-1.087, -2.076e-5
-1.086, -2.092e-5
-1.085, -2.095e-5
-1.084, -2.115e-5
-1.083, -2.133e-5
-1.082, -2.136e-5
-1.081, -2.163e-5
-1.080, -2.171e-5
-1.079, -2.183e-5
-1.078, -2.200e-5
-1.077, -2.222e-5
-1.076, -2.239e-5
-1.075, -2.260e-5
-1.074, -2.268e-5
-1.073, -2.288e-5
-1.072, -2.305e-5
-1.071, -2.334e-5
-1.070, -2.356e-5
-1.069, -2.365e-5
-1.068, -2.397e-5
-1.067, -2.415e-5
-1.066, -2.429e-5
-1.065, -2.460e-5
-1.064, -2.476e-5
-1.063, -2.501e-5
-1.062, -2.526e-5
-1.061, -2.550e-5
-1.060, -2.578e-5
-1.059, -2.613e-5
-1.058, -2.642e-5
-1.057, -2.655e-5
-1.056, -2.688e-5
-1.055, -2.715e-5
-1.054, -2.745e-5
-1.053, -2.774e-5
-1.052, -2.795e-5
-1.051, -2.827e-5
-1.050, -2.873e-5
-1.049, -2.914e-5
-1.048, -2.930e-5
-1.047, -2.976e-5
-1.046, -3.005e-5
-1.045, -3.056e-5
-1.044, -3.076e-5
-1.043, -3.141e-5
-1.042, -3.174e-5
-1.041, -3.220e-5
-1.040, -3.253e-5
-1.039, -3.307e-5
-1.038, -3.359e-5
-1.037, -3.406e-5
-1.036, -3.451e-5
-1.035, -3.501e-5
-1.034, -3.541e-5
-1.033, -3.587e-5
-1.032, -3.626e-5
-1.031, -3.698e-5
-1.030, -3.740e-5
-1.029, -3.780e-5
-1.028, -3.829e-5
-1.027, -3.900e-5
-1.026, -3.954e-5
-1.025, -3.988e-5
-1.024, -4.018e-5
-1.023, -4.074e-5
-1.022, -4.140e-5
-1.021, -4.198e-5
-1.020, -4.245e-5
-1.019, -4.300e-5
-1.018, -4.343e-5
-1.017, -4.407e-5
-1.016, -4.457e-5
-1.015, -4.513e-5
-1.014, -4.542e-5
-1.013, -4.588e-5
-1.012, -4.651e-5
-1.011, -4.715e-5
-1.010, -4.795e-5
-1.009, -4.855e-5
-1.008, -4.885e-5
-1.007, -4.953e-5
-1.006, -5.015e-5
-1.005, -5.072e-5
-1.004, -5.139e-5
-1.003, -5.201e-5
-1.002, -5.266e-5
-1.001, -5.330e-5
