Potential V vs RHE, Current mA cm-2
0.013299999999999867,-0.04582249900262853
0.012299999999999978,-0.2202705493889862
0.011299999999999866,-0.3947044526623452
0.010299999999999976,-0.48199213986401795
0.009299999999999864,-0.6128529351015338
0.008299999999999974,-0.7001406223032067
0.007299999999999862,-0.8308599464107361
0.006299999999999972,-0.8745745255765657
0.00529999999999986,-0.9617207416482519
0.0042999999999999705,-1.0490084288499246
0.0032999999999998586,-1.0925815368857679
0.0022999999999999687,-1.1362961160515976
0.0012999999999998568,-1.2234423321232837
0.00029999999999996696,-1.2671569112891135
-0.000700000000000145,-1.3107300193249565
-0.0017000000000000348,-1.3543031273607997
-0.0027000000000001467,-1.3980177065266295
-0.0037000000000000366,-1.4415908145624723
-0.0047000000000001485,-1.4854468648582886
-0.005700000000000038,-1.4854468648582886
-0.00670000000000015,-1.5293029151541047
-0.00770000000000004,-1.5717442541500557
-0.008700000000000152,-1.6156003044458718
-0.009700000000000042,-1.6594563547416883
-0.010700000000000154,-1.6594563547416883
-0.011700000000000044,-1.7033124050375041
-0.012700000000000156,-1.7033124050375041
-0.013700000000000045,-1.7471684553333202
-0.014700000000000157,-1.7471684553333202
-0.015700000000000047,-1.7910245056291363
-0.01670000000000016,-1.7910245056291363
-0.01770000000000005,-1.7910245056291363
-0.01870000000000016,-1.8334658446250875
-0.01970000000000005,-1.8334658446250875
-0.020700000000000163,-1.8773218949209036
-0.021700000000000053,-1.8334658446250875
-0.022700000000000164,-1.8773218949209036
-0.023700000000000054,-1.92117794521672
-0.024700000000000166,-1.92117794521672
-0.025700000000000056,-1.9650339955125358
-0.026700000000000168,-1.9650339955125358
-0.027700000000000058,-1.9650339955125358
-0.02870000000000017,-1.9650339955125358
-0.02970000000000006,-2.008890045808352
-0.03070000000000017,-2.008890045808352
-0.03170000000000006,-2.008890045808352
-0.03270000000000017,-2.008890045808352
-0.03370000000000006,-2.008890045808352
-0.034700000000000175,-2.008890045808352
-0.035700000000000065,-2.008890045808352
-0.03670000000000018,-2.052746096104168
-0.03770000000000007,-2.052746096104168
-0.03870000000000018,-2.052746096104168
-0.03970000000000007,-2.095187435100119
-0.04070000000000018,-2.095187435100119
-0.04170000000000007,-2.095187435100119
-0.04270000000000018,-2.095187435100119
-0.04370000000000007,-2.095187435100119
-0.044700000000000184,-2.095187435100119
-0.045700000000000074,-2.1390434853959355
-0.046700000000000186,-2.095187435100119
-0.047700000000000076,-2.095187435100119
-0.04870000000000019,-2.1390434853959355
-0.04970000000000008,-2.1390434853959355
-0.05070000000000019,-2.1390434853959355
-0.05170000000000008,-2.1390434853959355
-0.05270000000000019,-2.1390434853959355
-0.05370000000000008,-2.1828995356917518
-0.05470000000000019,-2.1390434853959355
-0.05570000000000008,-2.1828995356917518
-0.056700000000000195,-2.1828995356917518
-0.057700000000000085,-2.1828995356917518
-0.058700000000000196,-2.1828995356917518
-0.059700000000000086,-2.1828995356917518
-0.0607000000000002,-2.1828995356917518
-0.06170000000000009,-2.1828995356917518
-0.0627000000000002,-2.1828995356917518
-0.06370000000000009,-2.1828995356917518
-0.0647000000000002,-2.1828995356917518
-0.06570000000000009,-2.1828995356917518
-0.0667000000000002,-2.1828995356917518
-0.0677000000000001,-2.1828995356917518
-0.0687000000000002,-2.1828995356917518
-0.0697000000000001,-2.1828995356917518
-0.07070000000000021,-2.1828995356917518
-0.0717000000000001,-2.226755585987568
-0.07270000000000021,-2.1828995356917518
-0.0737000000000001,-2.226755585987568
-0.07470000000000021,-2.1828995356917518
-0.0757000000000001,-2.1828995356917518
-0.07670000000000021,-2.1828995356917518
-0.0777000000000001,-2.1828995356917518
-0.07870000000000021,-2.1828995356917518
-0.0797000000000001,-2.1828995356917518
-0.08070000000000022,-2.1828995356917518
-0.0817000000000001,-2.1828995356917518
-0.08270000000000022,-2.1828995356917518
-0.08370000000000011,-2.226755585987568
-0.08470000000000022,-2.1828995356917518
-0.08570000000000011,-2.1828995356917518
-0.08670000000000022,-2.1828995356917518
-0.08770000000000011,-2.1828995356917518
-0.08870000000000022,-2.1828995356917518
-0.08970000000000011,-2.1828995356917518
-0.09070000000000022,-2.1828995356917518
-0.09170000000000011,-2.1828995356917518
-0.09270000000000023,-2.1828995356917518
-0.09370000000000012,-2.1828995356917518
-0.09470000000000023,-2.1828995356917518
-0.09570000000000012,-2.1828995356917518
-0.09670000000000023,-2.1828995356917518
-0.09770000000000012,-2.1828995356917518
-0.09870000000000023,-2.1828995356917518
-0.09970000000000012,-2.1828995356917518
-0.10070000000000023,-2.1828995356917518
-0.10170000000000012,-2.1828995356917518
-0.10270000000000024,-2.1828995356917518
-0.10370000000000013,-2.1828995356917518
-0.10470000000000024,-2.1828995356917518
-0.10570000000000013,-2.1390434853959355
-0.10670000000000024,-2.1390434853959355
-0.10770000000000013,-2.1390434853959355
-0.10870000000000024,-2.1390434853959355
-0.10970000000000013,-2.1390434853959355
-0.11070000000000024,-2.1390434853959355
-0.11170000000000013,-2.095187435100119
-0.11270000000000002,-2.1390434853959355
-0.11370000000000013,-2.1390434853959355
-0.11470000000000002,-2.1390434853959355
-0.11570000000000014,-2.1390434853959355
-0.11670000000000003,-2.1390434853959355
-0.11770000000000014,-2.1390434853959355
-0.11870000000000003,-2.095187435100119
-0.11970000000000014,-2.095187435100119
-0.12070000000000003,-2.095187435100119
-0.12170000000000014,-2.095187435100119
-0.12270000000000003,-2.095187435100119
-0.12370000000000014,-2.095187435100119
-0.12470000000000003,-2.095187435100119
-0.12570000000000014,-2.095187435100119
-0.12670000000000003,-2.095187435100119
-0.12770000000000015,-2.052746096104168
-0.12870000000000004,-2.052746096104168
-0.12970000000000015,-2.095187435100119
-0.13070000000000004,-2.052746096104168
-0.13170000000000015,-2.052746096104168
-0.13270000000000004,-2.052746096104168
-0.13370000000000015,-2.052746096104168
-0.13470000000000004,-2.052746096104168
-0.13570000000000015,-2.008890045808352
-0.13670000000000004,-2.008890045808352
-0.13770000000000016,-2.008890045808352
-0.13870000000000005,-2.008890045808352
-0.13970000000000016,-2.008890045808352
-0.14070000000000005,-2.008890045808352
-0.14170000000000016,-2.008890045808352
-0.14270000000000005,-2.008890045808352
-0.14370000000000016,-2.008890045808352
-0.14470000000000005,-2.008890045808352
-0.14570000000000016,-2.008890045808352
-0.14670000000000005,-2.008890045808352
-0.14770000000000016,-2.008890045808352
-0.14870000000000005,-2.008890045808352
-0.14970000000000017,-1.9650339955125358
-0.15070000000000006,-1.9650339955125358
-0.15170000000000017,-1.9650339955125358
-0.15270000000000006,-1.9650339955125358
-0.15370000000000017,-1.9650339955125358
-0.15470000000000006,-1.9650339955125358
-0.15570000000000017,-1.9650339955125358
-0.15670000000000006,-1.9650339955125358
-0.15770000000000017,-1.9650339955125358
-0.15870000000000006,-1.9650339955125358
-0.15970000000000018,-1.9650339955125358
-0.16070000000000007,-1.92117794521672
-0.16170000000000018,-1.92117794521672
-0.16270000000000007,-1.92117794521672
-0.16370000000000018,-1.92117794521672
-0.16470000000000007,-1.92117794521672
-0.16570000000000018,-1.92117794521672
-0.16670000000000007,-1.92117794521672
-0.16770000000000018,-1.92117794521672
-0.16870000000000007,-1.8773218949209036
-0.16970000000000018,-1.92117794521672
-0.17070000000000007,-1.8773218949209036
-0.17170000000000019,-1.92117794521672
-0.17270000000000008,-1.8773218949209036
-0.1737000000000002,-1.92117794521672
-0.17470000000000008,-1.92117794521672
-0.1757000000000002,-1.8773218949209036
-0.17670000000000008,-1.8773218949209036
-0.1777000000000002,-1.8773218949209036
-0.17870000000000008,-1.8773218949209036
-0.1797000000000002,-1.8773218949209036
-0.18070000000000008,-1.8773218949209036
-0.1817000000000002,-1.8773218949209036
-0.18270000000000008,-1.8773218949209036
-0.1837000000000002,-1.8773218949209036
-0.1847000000000001,-1.8334658446250875
-0.1857000000000002,-1.8773218949209036
-0.1867000000000001,-1.8773218949209036
-0.1877000000000002,-1.8773218949209036
-0.1887000000000001,-1.8334658446250875
-0.1897000000000002,-1.8773218949209036
-0.1907000000000001,-1.8773218949209036
-0.1917000000000001,-1.8334658446250875
-0.19269999999999998,-1.8334658446250875
-0.1937000000000001,-1.8334658446250875
-0.19469999999999998,-1.8334658446250875
-0.1957000000000001,-1.8334658446250875
-0.19669999999999999,-1.8334658446250875
-0.1977000000000001,-1.8334658446250875
-0.1987,-1.8334658446250875
-0.1997000000000001,-1.8334658446250875
-0.2007,-1.8334658446250875
-0.2017000000000001,-1.8334658446250875
-0.2027,-1.8334658446250875
-0.2037000000000001,-1.8334658446250875
-0.2047,-1.8334658446250875
-0.2057000000000001,-1.8334658446250875
-0.2067,-1.8334658446250875
-0.2077000000000001,-1.8334658446250875
-0.2087,-1.8334658446250875
-0.2097000000000001,-1.8334658446250875
-0.2107,-1.8334658446250875
-0.2117000000000001,-1.8334658446250875
-0.2127,-1.7910245056291363
-0.2137000000000001,-1.7910245056291363
-0.2147,-1.7910245056291363
-0.2157000000000001,-1.8334658446250875
-0.2167,-1.8334658446250875
-0.21770000000000012,-1.8334658446250875
-0.2187,-1.8334658446250875
-0.21970000000000012,-1.8334658446250875
-0.2207,-1.8334658446250875
-0.22170000000000012,-1.8334658446250875
-0.2227,-1.8334658446250875
-0.22370000000000012,-1.7910245056291363
-0.2247,-1.7910245056291363
-0.22570000000000012,-1.7910245056291363
-0.2267,-1.7910245056291363
-0.22770000000000012,-1.7910245056291363
-0.22870000000000001,-1.7910245056291363
-0.22970000000000013,-1.7910245056291363
-0.23070000000000002,-1.7910245056291363
-0.23170000000000013,-1.7910245056291363
-0.23270000000000002,-1.7910245056291363
-0.23370000000000013,-1.7910245056291363
-0.23470000000000002,-1.7910245056291363
-0.23570000000000013,-1.7910245056291363
-0.23670000000000002,-1.8334658446250875
-0.2376999999999999,-1.7910245056291363
-0.23870000000000002,-1.7910245056291363
-0.2396999999999999,-1.7910245056291363
-0.24070000000000003,-1.7910245056291363
-0.24169999999999991,-1.7910245056291363
-0.24270000000000003,-1.7910245056291363
-0.24369999999999992,-1.7910245056291363
-0.24470000000000003,-1.7910245056291363
-0.24569999999999992,-1.7910245056291363
-0.24670000000000003,-1.7910245056291363
-0.24769999999999992,-1.7910245056291363
-0.24870000000000003,-1.7910245056291363
-0.24969999999999992,-1.7910245056291363
-0.25070000000000003,-1.7910245056291363
-0.2516999999999999,-1.7910245056291363
-0.25270000000000004,-1.7910245056291363
-0.2536999999999999,-1.7910245056291363
-0.25470000000000004,-1.7910245056291363
-0.2556999999999999,-1.7910245056291363
-0.25670000000000004,-1.7910245056291363
-0.25769999999999993,-1.7910245056291363
-0.25870000000000004,-1.7910245056291363
-0.25969999999999993,-1.7910245056291363
-0.26070000000000004,-1.7910245056291363
-0.26169999999999993,-1.7910245056291363
-0.26270000000000004,-1.7910245056291363
-0.26369999999999993,-1.7910245056291363
-0.26470000000000005,-1.7910245056291363
-0.26569999999999994,-1.7910245056291363
-0.26670000000000005,-1.7910245056291363
-0.26769999999999994,-1.7910245056291363
-0.26870000000000005,-1.7910245056291363
-0.26969999999999994,-1.7910245056291363
-0.27070000000000005,-1.7910245056291363
-0.27169999999999994,-1.7910245056291363
-0.27270000000000005,-1.7910245056291363
-0.27369999999999994,-1.7471684553333202
-0.27470000000000006,-1.7471684553333202
-0.27569999999999995,-1.7910245056291363
-0.27670000000000006,-1.7471684553333202
-0.27769999999999995,-1.7471684553333202
-0.27870000000000006,-1.7910245056291363
-0.27969999999999995,-1.7910245056291363
-0.28070000000000006,-1.7910245056291363
-0.28169999999999995,-1.7910245056291363
-0.28270000000000006,-1.7910245056291363
-0.28369999999999995,-1.7910245056291363
-0.28470000000000006,-1.7910245056291363
-0.28569999999999995,-1.7471684553333202
-0.28670000000000007,-1.7471684553333202
-0.28769999999999996,-1.7471684553333202
-0.28870000000000007,-1.7471684553333202
-0.28969999999999996,-1.7471684553333202
-0.29070000000000007,-1.7471684553333202
-0.29169999999999996,-1.7471684553333202
-0.29270000000000007,-1.7910245056291363
-0.29369999999999996,-1.7471684553333202
-0.2947000000000001,-1.7910245056291363
-0.29569999999999996,-1.7471684553333202
-0.2967000000000001,-1.7910245056291363
-0.29769999999999996,-1.7471684553333202
-0.2987000000000001,-1.7471684553333202
-0.29969999999999997,-1.7910245056291363
-0.3007000000000001,-1.7471684553333202
-0.30169999999999997,-1.7471684553333202
-0.3027000000000001,-1.7471684553333202
-0.30369999999999997,-1.7471684553333202
-0.3047000000000001,-1.7471684553333202
-0.30569999999999997,-1.7471684553333202
-0.3067000000000001,-1.7471684553333202
-0.3077,-1.7471684553333202
-0.3087000000000001,-1.7471684553333202
-0.3097,-1.7471684553333202
-0.3107000000000001,-1.7471684553333202
-0.3117,-1.7471684553333202
-0.3127000000000001,-1.7471684553333202
-0.3137,-1.7471684553333202
-0.3147000000000001,-1.7471684553333202
-0.3157,-1.7471684553333202
-0.3167000000000001,-1.7471684553333202
-0.3177,-1.7471684553333202
-0.3187000000000001,-1.7471684553333202
-0.3197,-1.7471684553333202
-0.3207000000000001,-1.7471684553333202
-0.3217,-1.7471684553333202
-0.3227000000000001,-1.7910245056291363
-0.3237,-1.7471684553333202
-0.3247000000000001,-1.7910245056291363
-0.3257,-1.7471684553333202
-0.3267000000000001,-1.7471684553333202
-0.3277,-1.7910245056291363
-0.3287000000000001,-1.7471684553333202
-0.3297,-1.7471684553333202
-0.3307000000000001,-1.7471684553333202
-0.3317,-1.7471684553333202
-0.3327000000000001,-1.7471684553333202
-0.3337,-1.7471684553333202
-0.3347000000000001,-1.7910245056291363
-0.3357,-1.7471684553333202
-0.3367000000000001,-1.7910245056291363
-0.3377,-1.7910245056291363
-0.3387000000000001,-1.7910245056291363
-0.3397,-1.7910245056291363
-0.3407000000000001,-1.7910245056291363
-0.3417,-1.7910245056291363
-0.3427000000000001,-1.7910245056291363
-0.3437,-1.7910245056291363
-0.3447000000000001,-1.7910245056291363
-0.3457,-1.8334658446250875
-0.3467000000000001,-1.7910245056291363
-0.3477,-1.7910245056291363
-0.3487000000000001,-1.8334658446250875
-0.3497,-1.8334658446250875
-0.3507000000000001,-1.8334658446250875
-0.3517,-1.8334658446250875
-0.3527000000000001,-1.8334658446250875
-0.3537,-1.8773218949209036
-0.3547000000000001,-1.8773218949209036
-0.3557,-1.8773218949209036
-0.35670000000000013,-1.8773218949209036
-0.3577,-1.8773218949209036
-0.35870000000000013,-1.8773218949209036
-0.3597,-1.8773218949209036
-0.36070000000000013,-1.8773218949209036
-0.3617,-1.8773218949209036
-0.3626999999999999,-1.8773218949209036
-0.3637,-1.8773218949209036
-0.3646999999999999,-1.92117794521672
-0.3657,-1.92117794521672
-0.3666999999999999,-1.92117794521672
-0.3677,-1.9650339955125358
-0.3686999999999999,-1.9650339955125358
-0.36970000000000003,-1.9650339955125358
-0.3706999999999999,-1.9650339955125358
-0.37170000000000003,-2.008890045808352
-0.3726999999999999,-2.008890045808352
-0.37370000000000003,-2.008890045808352
-0.3746999999999999,-2.008890045808352
-0.37570000000000003,-2.008890045808352
-0.3766999999999999,-2.052746096104168
-0.37770000000000004,-2.052746096104168
-0.3786999999999999,-2.052746096104168
-0.37970000000000004,-2.052746096104168
-0.3806999999999999,-2.095187435100119
-0.38170000000000004,-2.095187435100119
-0.38269999999999993,-2.1390434853959355
-0.38370000000000004,-2.1390434853959355
-0.38469999999999993,-2.1390434853959355
-0.38570000000000004,-2.1828995356917518
-0.38669999999999993,-2.1828995356917518
-0.38770000000000004,-2.1828995356917518
-0.38869999999999993,-2.1828995356917518
-0.38970000000000005,-2.226755585987568
-0.39069999999999994,-2.226755585987568
-0.39170000000000005,-2.226755585987568
-0.39269999999999994,-2.2706116362833835
-0.39370000000000005,-2.2706116362833835
-0.39469999999999994,-2.3144676865791998
-0.39570000000000005,-2.3569090255751513
-0.39669999999999994,-2.3569090255751513
-0.39770000000000005,-2.4007650758709675
-0.39869999999999994,-2.4007650758709675
-0.39970000000000006,-2.4446211261667834
-0.40069999999999995,-2.4446211261667834
-0.40170000000000006,-2.532333226758415
-0.40269999999999995,-2.532333226758415
-0.40370000000000006,-2.532333226758415
-0.40469999999999995,-2.576189277054232
-0.40570000000000006,-2.576189277054232
-0.40669999999999995,-2.618630616050183
-0.40770000000000006,-2.662486666345999
-0.40869999999999995,-2.706342716641815
-0.40970000000000006,-2.706342716641815
-0.41069999999999995,-2.7501987669376318
-0.41170000000000007,-2.794054817233447
-0.41269999999999996,-2.8379108675292635
-0.41370000000000007,-2.8803522065252145
-0.41469999999999996,-2.924208256821031
-0.41570000000000007,-3.0119203574126634
-0.41669999999999996,-3.0119203574126634
-0.41770000000000007,-3.055776407708479
-0.41869999999999996,-3.0996324580042955
-0.4197000000000001,-3.1420737970002466
-0.42069999999999996,-3.2297858975918787
-0.4217000000000001,-3.273641947887695
-0.42269999999999996,-3.361354048479327
-0.4237000000000001,-3.447651437771094
-0.42469999999999997,-3.4915074880669104
-0.4257000000000001,-3.579219588658543
-0.42669999999999997,-3.6655169779503103
-0.4277000000000001,-3.7970851288377587
-0.42869999999999997,-3.884797229429391
-0.4297000000000001,-4.014950669016974
-0.43069999999999997,-4.146518819904423
-0.4317000000000001,-4.23281620919619
-0.4327,-4.364384360083638
-0.4337000000000001,-4.494537799671222
-0.4347,-4.668547289554621
-0.4357000000000001,-4.843971490737885
-0.4367,-5.017980980621284
-0.4377000000000001,-5.191990470504685
-0.4387,-5.411270721983764
-0.4397000000000001,-5.629136262162981
-0.4407,-5.890857852638012
-0.4417000000000001,-6.196435493408861
-0.4427,-6.500598422879844
-0.4437000000000001,-6.893888164242324
-0.4447,-7.28576319430494
-0.4457000000000001,-7.722908985963235
-0.4467,-8.202496116617484
-0.4477000000000001,-8.68208324727173
-0.4487,-9.205526428221793
-0.4497000000000001,-9.685113558876042
-0.4507,-10.25241279012192
-0.4517000000000001,-10.819712021367803
-0.4527,-11.42945259160963
-0.4537000000000001,-11.996751822855511
-0.4547,-12.607907104397206
-0.4557000000000001,-13.217647674639037
-0.4567,-13.784946905884919
-0.4577000000000001,-14.401761032626075
-0.4587,-14.967645552572087
-0.4597000000000001,-15.575971411514052
-0.4607,-16.141855931460068
-0.4617000000000001,-16.70774045140608
-0.4627,-17.231183632356142
-0.4637000000000001,-17.797068152302163
-0.4647,-18.362952672248177
-0.4657000000000001,-18.843954514202288
-0.4667,-19.367397695152352
-0.4677000000000001,-19.890840876102416
-0.4687,-20.371842718056527
-0.4697000000000001,-20.85284456001064
-0.4707,-21.333846401964752
-0.4717000000000001,-21.857289582914817
-0.4727,-22.295850085872978
-0.4737000000000001,-22.72026347583249
-0.4747,-23.15882397879065
-0.4757000000000001,-23.597384481748815
-0.4767,-23.993503645711023
-0.4777000000000001,-24.389622809673234
-0.4787,-24.814036199632742
-0.4797000000000001,-25.167714024599
-0.4807,-25.563833188561212
-0.48170000000000013,-25.91751101352747
-0.4827,-26.257041725495082
-0.48370000000000013,-26.61071955046134
-0.4847,-26.9643973754276
-0.48570000000000013,-27.303928087395207
-0.4867,-27.615164573365515
-0.4876999999999999,-27.954695285333123
-0.4887,-28.265931771303435
-0.4896999999999999,-28.619609596269694
-0.4907,-28.959140308237306
-0.4916999999999999,-29.27037679420761
-0.4927,-29.66649595816982
-0.4936999999999999,-29.751378636161718
-0.49470000000000003,-29.751378636161718
-0.4956999999999999,-29.708937297165768
-0.49670000000000003,-30.7558236590659
-0.4976999999999999,-30.925589015049702
-0.49870000000000003,-30.88314767605375
-0.4996999999999999,-31.052913032037555
-0.5007,-31.19438416202406
-0.5016999999999999,-31.449032195999767
-0.5027,-32.41103587990799
