Potential V vs RHE, Current mA cm-2
0.013299999999999867,13.169547490443627
0.012299999999999978,11.643073997889251
0.011299999999999866,10.20431260592651
0.010299999999999976,8.80799255295972
0.009299999999999864,7.456943261588608
0.008299999999999974,6.14833530921345
0.007299999999999862,4.883583407134107
0.006299999999999972,3.6174167937548987
0.00529999999999986,2.352664891675556
0.0042999999999999705,1.0010497157844997
0.0032999999999998586,-0.26384365742482935
0.0022999999999999687,-1.5293029151541047
0.0012999999999998568,-2.794054817233447
0.00029999999999996696,-3.971094618721158
-0.000700000000000145,-5.149549131508733
-0.0017000000000000348,-6.238876832404812
-0.0027000000000001467,-7.329619244600755
-0.0037000000000000366,-8.332649556205066
-0.0047000000000001485,-9.335679867809377
-0.005700000000000038,-10.296268840417738
-0.00670000000000015,-11.255443101726232
-0.00770000000000004,-12.214617363034726
-0.008700000000000152,-13.13135028534727
-0.009700000000000042,-14.13438059695158
-0.010700000000000154,-15.179852247551842
-0.011700000000000044,-16.141855931460068
-0.012700000000000156,-17.146300954364243
-0.013700000000000045,-18.15074597726842
-0.014700000000000157,-19.056161209182044
-0.015700000000000047,-19.97572355409432
-0.01670000000000016,-20.85284456001064
-0.01770000000000005,-21.63093577493641
-0.01870000000000016,-22.46561544185678
-0.01970000000000005,-23.2012653177866
-0.020700000000000163,-23.951062306715073
-0.021700000000000053,-24.686712182644893
-0.022700000000000164,-25.43650917157336
-0.023700000000000054,-26.129717708507226
-0.024700000000000166,-26.907808923433
-0.025700000000000056,-27.742488590353368
-0.026700000000000168,-28.53472691827779
-0.027700000000000058,-29.35525947219951
-0.02870000000000017,-30.232380478115836
-0.02970000000000006,-31.052913032037555
-0.03070000000000017,-31.84515135996197
-0.03170000000000006,-32.58080123589179
-0.03270000000000017,-33.330598224820264
-0.03370000000000006,-33.98136542275818
-0.034700000000000175,-34.632132620696105
-0.035700000000000065,-35.198017140642115
-0.03670000000000018,-35.806342999584075
-0.03770000000000007,-36.4288159715247
-0.03870000000000018,-36.99470049147071
-0.03970000000000007,-37.60302635041268
-0.04070000000000018,-38.29623488734655
-0.04170000000000007,-38.90456074628851
-0.04270000000000018,-39.51288660523048
-0.04370000000000007,-40.220242255162994
-0.044700000000000184,-40.78612677510901
-0.045700000000000074,-41.39445263405098
-0.046700000000000186,-41.91789581500104
-0.047700000000000076,-42.4413389959511
-0.04870000000000019,-42.92234083790521
-0.04970000000000008,-43.44578401885527
-0.05070000000000019,-43.88434452181344
-0.05170000000000008,-44.36534636376755
-0.05270000000000019,-44.84634820572166
-0.05370000000000008,-45.36979138667173
-0.05470000000000019,-45.93567590661774
-0.05570000000000008,-46.501560426563756
-0.056700000000000195,-47.067444946509774
-0.057700000000000085,-47.67577080545174
-0.058700000000000196,-48.32653800338966
-0.059700000000000086,-48.93486386233162
-0.0607000000000002,-49.557336834272235
-0.06170000000000009,-50.12322135421825
-0.0627000000000002,-50.64666453516831
-0.06370000000000009,-51.127666377122424
-0.0647000000000002,-51.594521106077885
-0.06570000000000009,-51.990640270040096
-0.0667000000000002,-52.386759434002315
-0.0677000000000001,-52.78287859796452
-0.0687000000000002,-53.16485064892808
-0.0697000000000001,-53.603411151886235
-0.07070000000000021,-54.1268543328363
-0.0717000000000001,-54.60785617479041
-0.07270000000000021,-55.13129935574048
-0.0737000000000001,-55.6971838756865
-0.07470000000000021,-56.22062705663656
-0.0757000000000001,-56.70162889859067
-0.07670000000000021,-57.14018940154883
-0.0777000000000001,-57.53630856551105
-0.07870000000000021,-57.87583927747865
-0.0797000000000001,-58.18707576344896
-0.08070000000000022,-58.45587091042332
-0.0817000000000001,-58.71051894439902
-0.08270000000000022,-59.06419676936528
-0.08370000000000011,-59.403727481332886
-0.08470000000000022,-59.842287984291055
-0.08570000000000011,-60.32328982624517
-0.08670000000000022,-60.761850329203334
-0.08770000000000011,-61.20041083216149
-0.08870000000000022,-61.72385401311155
-0.08970000000000011,-62.11997317707376
-0.09070000000000022,-62.544386567033264
-0.09170000000000011,-62.94050573099548
-0.09270000000000023,-63.3366248949577
-0.09370000000000012,-63.732744058919906
-0.09470000000000023,-64.0722747708875
-0.09570000000000012,-64.42595259585376
-0.09670000000000023,-64.82207175981598
-0.09770000000000012,-65.20404381077954
-0.09870000000000023,-65.64260431373769
-0.09970000000000012,-66.12360615569182
-0.10070000000000023,-66.60460799764593
-0.10170000000000012,-67.17049251759194
-0.10270000000000024,-67.693935698542
-0.10370000000000013,-68.25982021848802
-0.10470000000000024,-68.78326339943808
-0.10570000000000013,-69.3491479193841
-0.10670000000000024,-69.78770842234226
-0.10770000000000013,-70.26871026429637
-0.10870000000000024,-70.70727076725453
-0.10970000000000013,-71.10338993121674
-0.11070000000000024,-71.44292064318435
-0.11170000000000013,-71.7965984681506
-0.11270000000000002,-72.15027629311687
-0.11370000000000013,-72.48980700508447
-0.11470000000000002,-72.84348483005074
-0.11570000000000014,-73.23960399401295
-0.11670000000000003,-73.6781644969711
-0.11770000000000014,-74.06013654793468
-0.11870000000000003,-74.54113838988879
-0.11970000000000014,-74.97969889284694
-0.12070000000000003,-75.4182593958051
-0.12170000000000014,-75.77193722077136
-0.12270000000000003,-76.11146793273898
-0.12370000000000014,-76.46514575770523
-0.12470000000000003,-76.7622351306769
-0.12570000000000014,-77.03103027765125
-0.12670000000000003,-77.28567831162695
-0.12770000000000015,-77.55447345860131
-0.12870000000000004,-77.80912149257702
-0.12970000000000015,-78.16279931754329
-0.13070000000000004,-78.60135982050144
-0.13170000000000015,-79.0399203234596
-0.13270000000000004,-79.47848082641775
-0.13370000000000015,-80.04436534636378
-0.13470000000000004,-80.46877873632329
-0.13570000000000015,-80.90733923928146
-0.13670000000000004,-81.26101706424771
-0.13770000000000016,-81.47322375922747
-0.13870000000000005,-81.74201890620182
-0.13970000000000016,-81.95422560118158
-0.14070000000000005,-82.13813807016405
-0.14170000000000016,-82.39278610413973
-0.14270000000000005,-82.61913991211814
-0.14370000000000016,-82.9162292850898
-0.14470000000000005,-83.31234844905201
-0.14570000000000016,-83.83579163000208
-0.14670000000000005,-84.27435213296022
-0.14770000000000016,-84.84023665290624
-0.14870000000000005,-85.40612117285227
-0.14970000000000017,-86.01444703179425
-0.15070000000000006,-86.7076555687281
-0.15170000000000017,-87.27354008867411
-0.15270000000000006,-87.89601306061473
-0.15370000000000017,-88.5043389195567
-0.15470000000000006,-89.07022343950271
-0.15570000000000017,-89.67854929844468
-0.15670000000000006,-90.28687515738663
-0.15770000000000017,-90.93764235532454
-0.15870000000000006,-91.56011532726518
-0.15970000000000018,-92.08355850821525
-0.16070000000000007,-92.64944302816124
-0.16170000000000018,-93.13044487011537
-0.16270000000000007,-93.61144671206948
-0.16370000000000018,-94.03586010202899
-0.16470000000000007,-94.4319792659912
-0.16570000000000018,-94.7432157519615
-0.16670000000000007,-95.04030512493317
-0.16770000000000018,-95.30910027190752
-0.16870000000000007,-95.56374830588322
-0.16970000000000018,-95.83254345285758
-0.17070000000000007,-96.00230880884139
-0.17170000000000019,-96.31354529481169
-0.17270000000000008,-96.52575198979144
-0.1737000000000002,-96.79454713676581
-0.17470000000000008,-97.09163650973747
-0.1757000000000002,-97.44531433470372
-0.17670000000000008,-97.88387483766188
-0.1777000000000002,-98.40731801861195
-0.17870000000000008,-99.01564387755391
-0.1797000000000002,-99.62396973649588
-0.18070000000000008,-100.2747369344338
-0.1817000000000002,-100.98209258436633
-0.18270000000000008,-101.63285978230424
-0.1837000000000002,-102.28362698024215
-0.1847000000000001,-102.93439417818009
-0.1857000000000002,-103.54272003712204
-0.1867000000000001,-104.16519300906265
-0.1877000000000002,-104.77351886800463
-0.1887000000000001,-105.38184472694657
-0.1897000000000002,-106.0326119248845
-0.1907000000000001,-106.68337912282242
-0.1917000000000001,-107.34829343375898
-0.19269999999999998,-107.99906063169689
-0.1937000000000001,-108.60738649063886
-0.19469999999999998,-109.21571234958083
-0.1957000000000001,-109.78159686952685
-0.19669999999999999,-110.17771603348905
-0.1977000000000001,-110.6162765364472
-0.1987,-110.87092457042293
-0.1997000000000001,-111.13971971739728
-0.2007,-111.26704373438514
-0.2017000000000001,-111.49339754236355
-0.2027,-111.66316289834735
-0.2037000000000001,-111.91781093232305
-0.2047,-112.27148875728932
-0.2057000000000001,-112.66760792125153
-0.2067,-113.10616842420968
-0.2077000000000001,-113.62961160515974
-0.2087,-114.19549612510575
-0.2097000000000001,-114.76138064505177
-0.2107,-115.28482382600184
-0.2117000000000001,-115.76582566795594
-0.2127,-116.24682750991008
-0.2137000000000001,-116.72782935186417
-0.2147,-117.19468408081964
-0.2157000000000001,-117.71812726176971
-0.2167,-118.24157044271978
-0.21770000000000012,-118.86404341466037
-0.2187,-119.51481061259831
-0.21970000000000012,-120.25046048852812
-0.2207,-121.00025747745659
-0.22170000000000012,-121.77834869238235
-0.2227,-122.57058702030677
-0.22370000000000012,-123.3062368962366
-0.2247,-124.05603388516508
-0.22570000000000012,-124.74924242209892
-0.2267,-125.35756828104091
-0.22770000000000012,-125.96589413998288
-0.22870000000000001,-126.48933732093293
-0.22970000000000013,-127.012780501883
-0.23070000000000002,-127.4937823438371
-0.23170000000000013,-127.97478418579122
-0.23270000000000002,-128.45578602774532
-0.23370000000000013,-128.89434653070347
-0.23470000000000002,-129.27631858166706
-0.23570000000000013,-129.7148790846252
-0.23670000000000002,-130.1534395875834
-0.2376999999999999,-130.5495587515456
-0.23870000000000002,-130.9456779155078
-0.2396999999999999,-131.37009130546733
-0.24070000000000003,-131.76621046942952
-0.24169999999999991,-132.16232963339172
-0.24270000000000003,-132.55844879735392
-0.24369999999999992,-132.99700930031207
-0.24470000000000003,-133.4214226902716
-0.24569999999999992,-133.8599831932298
-0.24670000000000003,-134.42586771317576
-0.24769999999999992,-134.94931089412586
-0.24870000000000003,-135.6142252050624
-0.24969999999999992,-136.30743374199628
-0.25070000000000003,-137.04308361792607
-0.2516999999999999,-137.79288060685457
-0.25270000000000004,-138.57097182178035
-0.2536999999999999,-139.36321014970477
-0.25470000000000004,-140.05641868663866
-0.2556999999999999,-140.70718588457655
-0.25670000000000004,-141.27307040452254
-0.25769999999999993,-141.89554337646317
-0.25870000000000004,-142.31995676642268
-0.25969999999999993,-142.7443701563822
-0.26070000000000004,-143.16878354634173
-0.26169999999999993,-143.5931969363012
-0.26270000000000004,-144.15908145624724
-0.26369999999999993,-144.58349484620675
-0.26470000000000005,-145.14937936615277
-0.26569999999999994,-145.57379275611228
-0.26670000000000005,-146.1396772760583
-0.26769999999999994,-146.7055617960043
-0.26870000000000005,-147.4129174459368
-0.26969999999999994,-147.83733083589632
-0.27070000000000005,-148.40321535584232
-0.27169999999999994,-148.96909987578834
-0.27270000000000005,-149.53498439573437
-0.27369999999999994,-150.1008689156804
-0.27470000000000006,-150.5252823056399
-0.27569999999999995,-151.09116682558593
-0.27670000000000006,-151.65705134553193
-0.27769999999999995,-152.22293586547795
-0.27870000000000006,-152.78882038542397
-0.27969999999999995,-153.49617603535648
-0.28070000000000006,-154.203531685289
-0.28169999999999995,-154.9108873352215
-0.28270000000000006,-155.47677185516753
-0.28369999999999995,-156.32559863508658
-0.28470000000000006,-157.03295428501906
-0.28569999999999995,-157.7403099349516
-0.28670000000000007,-158.4476655848841
-0.28769999999999996,-159.15502123481662
-0.28870000000000007,-159.86237688474912
-0.28969999999999996,-160.42826140469515
-0.29070000000000007,-160.99414592464117
-0.29169999999999996,-161.5600304445872
-0.29270000000000007,-162.12591496453322
-0.29369999999999996,-162.6917994844792
-0.2947000000000001,-163.11621287443873
-0.29569999999999996,-163.68209739438475
-0.2967000000000001,-164.24798191433075
-0.29769999999999996,-164.81386643427678
-0.2987000000000001,-165.5212220842093
-0.29969999999999997,-166.22857773414182
-0.3007000000000001,-166.93593338407433
-0.30169999999999997,-167.6432890340068
-0.3027000000000001,-168.20917355395284
-0.30369999999999997,-168.77505807389886
-0.3047000000000001,-169.3409425938449
-0.30569999999999997,-169.6238848538179
-0.3067000000000001,-170.0482982437774
-0.3077,-170.47271163373694
-0.3087000000000001,-170.89712502369645
-0.3097,-171.46300954364247
-0.3107000000000001,-172.0288940635885
-0.3117,-172.87772084350746
-0.3127000000000001,-173.58507649344
-0.3137,-174.43390327335902
-0.3147000000000001,-175.28273005327804
-0.3157,-176.13155683319707
-0.3167000000000001,-176.8389124831296
-0.3177,-177.54626813306209
-0.3187000000000001,-178.3950949129811
-0.3197,-179.10245056291362
-0.3207000000000001,-179.80980621284618
-0.3217,-180.8001041227517
-0.3227000000000001,-181.64893090267074
-0.3237,-182.49775768258974
-0.3247000000000001,-183.34658446250873
-0.3257,-184.33688237241427
-0.3267000000000001,-185.1857091523333
-0.3277,-186.03453593225234
-0.3287000000000001,-186.88336271217133
-0.3297,-187.44924723211736
-0.3307000000000001,-188.15660288204987
-0.3317,-189.0054296619689
-0.3327000000000001,-189.71278531190143
-0.3337,-190.42014096183394
-0.3347000000000001,-191.12749661176645
-0.3357,-191.9763233916855
-0.3367000000000001,-192.54220791163152
-0.3377,-193.249563561564
-0.3387000000000001,-193.81544808151003
-0.3397,-194.52280373144254
-0.3407000000000001,-195.37163051136156
-0.3417,-196.0789861612941
-0.3427000000000001,-197.0692840711996
-0.3437,-197.91811085111863
-0.3447000000000001,-198.90840876102413
-0.3457,-199.89870667092967
-0.3467000000000001,-200.7475334508487
-0.3477,-201.73783136075423
-0.3487000000000001,-202.58665814067325
-0.3497,-203.29401379060576
-0.3507000000000001,-203.85989831055176
-0.3517,-204.5672539604843
-0.3527000000000001,-205.13313848043032
-0.3537,-205.69902300037634
-0.3547000000000001,-206.40637865030885
-0.3557,-207.1137343002414
-0.35670000000000013,-207.96256108016038
-0.3577,-208.95285899006592
-0.35870000000000013,-209.94315689997146
-0.3597,-210.93345480987696
-0.36070000000000013,-211.782281589796
-0.3617,-212.631108369715
-0.3626999999999999,-213.47993514963403
-0.3637,-214.18729079956654
-0.3646999999999999,-214.89464644949908
-0.3657,-215.7434732294181
-0.3666999999999999,-216.4508288793506
-0.3677,-217.44112678925615
-0.3686999999999999,-218.14848243918865
-0.36970000000000003,-219.13878034909416
-0.3706999999999999,-220.1290782589997
-0.37170000000000003,-221.26084729889175
-0.3726999999999999,-222.25114520879725
-0.37370000000000003,-223.2414431187028
-0.3746999999999999,-224.2317410286083
-0.37570000000000003,-225.08056780852735
-0.3766999999999999,-225.92939458844637
-0.37770000000000004,-226.77822136836537
-0.3786999999999999,-227.4855770182979
-0.37970000000000004,-228.1929326682304
-0.3806999999999999,-229.04175944814943
-0.38170000000000004,-229.89058622806846
-0.38269999999999993,-230.59794187800094
-0.38370000000000004,-231.5882397879065
-0.38469999999999993,-232.57853769781204
-0.38570000000000004,-233.4273644777311
-0.38669999999999993,-234.4176623876366
-0.38770000000000004,-235.40796029754208
-0.38869999999999993,-236.53972933743412
-0.38970000000000005,-237.38855611735315
-0.39069999999999994,-238.37885402725868
-0.39170000000000005,-239.36915193716422
-0.39269999999999994,-240.21797871708318
-0.39370000000000005,-241.06680549700224
-0.39469999999999994,-241.9156322769213
-0.39570000000000005,-242.76445905684034
-0.39669999999999994,-243.47181470677282
-0.39770000000000005,-244.17917035670533
-0.39869999999999994,-244.8865260066378
-0.39970000000000006,-245.45241052658386
-0.40069999999999995,-246.30123730650286
-0.40170000000000006,-247.0085929564354
-0.40269999999999995,-247.85741973635444
-0.40370000000000006,-248.84771764625998
-0.40469999999999995,-249.69654442617897
-0.40570000000000006,-250.545371206098
-0.40669999999999995,-251.39419798601702
-0.40770000000000006,-252.10155363594956
-0.40869999999999995,-252.80890928588207
-0.40970000000000006,-253.37479380582806
-0.41069999999999995,-253.79920719578757
-0.41170000000000007,-254.36509171573357
-0.41269999999999996,-254.78950510569314
-0.41370000000000007,-255.49686075562562
-0.41469999999999996,-256.20421640555816
-0.41570000000000007,-257.0530431854772
-0.41669999999999996,-257.90186996539614
-0.41770000000000007,-258.8921678753017
-0.41869999999999996,-260.02393691519376
-0.4197000000000001,-261.1557059550858
-0.42069999999999996,-262.1460038649913
-0.4217000000000001,-263.13630177489676
-0.42269999999999996,-264.2680708147888
-0.4237000000000001,-265.2583687246944
-0.42469999999999997,-266.3901377645864
-0.4257000000000001,-267.5219068044785
-0.42669999999999997,-268.512204714384
-0.4277000000000001,-269.64397375427603
-0.42869999999999997,-270.63427166418154
-0.4297000000000001,-271.7660407040736
-0.43069999999999997,-272.8978097439656
-0.4317000000000001,-273.8881076538711
-0.4327,-274.87840556377665
-0.4337000000000001,-275.86870347368216
-0.4347,-276.8590013835877
-0.4357000000000001,-277.84929929349323
-0.4367,-278.6981260734122
-0.4377000000000001,-279.5469528533313
-0.4387,-280.25430850326376
-0.4397000000000001,-280.9616641531963
-0.4407,-281.52754867314235
-0.4417000000000001,-282.09343319308834
-0.4427,-282.65931771303434
-0.4437000000000001,-283.3666733629668
-0.4447,-284.07402901289936
-0.4457000000000001,-284.9228557928184
-0.4467,-285.6302114427509
-0.4477000000000001,-286.196095962697
-0.4487,-286.76198048264297
-0.4497000000000001,-287.327865002589
-0.4507,-287.893749522535
-0.4517000000000001,-288.45963404248096
-0.4527,-289.1669896924135
-0.4537000000000001,-289.87434534234603
-0.4547,-290.723172122265
-0.4557000000000001,-291.4305277721976
-0.4567,-292.2793545521166
-0.4577000000000001,-293.1281813320356
-0.4587,-293.9770081119546
-0.4597000000000001,-294.96730602186017
-0.4607,-295.8161328017792
-0.4617000000000001,-296.6649595816982
-0.4627,-297.51378636161724
-0.4637000000000001,-298.50408427152274
-0.4647,-299.49438218142825
-0.4657000000000001,-300.3432089613473
-0.4667,-301.33350687125284
-0.4677000000000001,-302.4652759111449
-0.4687,-303.31410269106385
-0.4697000000000001,-304.1629294709828
-0.4707,-305.0117562509019
-0.4717000000000001,-305.71911190083443
-0.4727,-306.1435252907939
-0.4737000000000001,-306.56793868075346
-0.4747,-306.99235207071297
-0.4757000000000001,-307.4167654606725
-0.4767,-307.841178850632
-0.4777000000000001,-308.407063370578
-0.4787,-309.1144190205105
-0.4797000000000001,-309.821774670443
-0.4807,-310.52913032037554
-0.48170000000000013,-311.2364859703081
-0.4827,-311.80237049025413
-0.48370000000000013,-312.65119727017316
-0.4847,-313.5000240500921
-0.48570000000000013,-314.34885083001114
-0.4867,-314.0659085700381
-0.48570000000000013,-311.80237049025413
-0.4847,-309.6803035404565
-0.48370000000000013,-307.841178850632
-0.4827,-305.8605830308209
-0.48170000000000013,-303.87998721100985
-0.4807,-302.0408625211853
-0.4797000000000001,-300.2017378313608
-0.4787,-298.2211420115498
-0.4777000000000001,-296.3820173217252
-0.4767,-294.4014215019141
-0.4757000000000001,-292.4208256821031
-0.4747,-290.157287602319
-0.4737000000000001,-287.893749522535
-0.4727,-285.6302114427509
-0.4717000000000001,-283.22520223298034
-0.4707,-280.82019302320975
-0.4697000000000001,-278.4151838134392
-0.4687,-276.01017460366864
-0.4677000000000001,-273.7466365238846
-0.4667,-271.62456957408705
-0.4657000000000001,-269.361031494303
-0.4647,-267.38043567449193
