Dec. 28, 2024   09:39:35
Cyclic Voltammetry
File: c:/users/guazh/data/banditlqround7_x0exp136_r20/2024-12-24-exp766\exp766-2024-12-28t09_29_56-arkoh\exp766_cv_sr_100mvs_efin_-1500mv.bin
Data Source:  Experiment
Instrument Model:  CHI760E
Header: CV ran at 100 mVs
Note: 

Init E (V) = -1
High E (V) = -1
Low E (V) = -1.5
Final E (V) = -1
Init P/N = N
Scan Rate (V/s) = 0.1
Segment = 3
Sample Interval (V) = 0.001
Quiet Time (sec) = 2
Sensitivity (A/V) = 0.01
Comp R (ohm) = 1.4

Results:

Channel 1:
Segment 1:
Ep = -1.328V
ip = 2.690e-3A
Ah = 2.307e-3C

Segment 2:

Segment 3:

Potential/V, Current/A

-1.000, -7.248e-4
-1.001, -6.300e-4
-1.002, -5.512e-4
-1.003, -4.728e-4
-1.004, -4.214e-4
-1.005, -3.542e-4
-1.006, -3.082e-4
-1.007, -2.594e-4
-1.008, -2.067e-4
-1.009, -1.797e-4
-1.010, -1.266e-4
-1.011, -9.659e-5
-1.012, -6.252e-5
-1.013, -1.903e-5
-1.014, -7.814e-7
-1.015, 4.448e-5
-1.016, 6.641e-5
-1.017, 9.440e-5
-1.018, 1.319e-4
-1.019, 1.436e-4
-1.020, 1.829e-4
-1.021, 2.004e-4
-1.022, 2.237e-4
-1.023, 2.561e-4
-1.024, 2.653e-4
-1.025, 3.001e-4
-1.026, 3.151e-4
-1.027, 3.306e-4
-1.028, 3.621e-4
-1.029, 3.700e-4
-1.030, 3.990e-4
-1.031, 4.077e-4
-1.032, 4.272e-4
-1.033, 4.536e-4
-1.034, 4.559e-4
-1.035, 4.871e-4
-1.036, 4.932e-4
-1.037, 5.068e-4
-1.038, 5.355e-4
-1.039, 5.364e-4
-1.040, 5.590e-4
-1.041, 5.658e-4
-1.042, 5.831e-4
-1.043, 6.060e-4
-1.044, 6.021e-4
-1.045, 6.261e-4
-1.046, 6.304e-4
-1.047, 6.444e-4
-1.048, 6.681e-4
-1.049, 6.618e-4
-1.050, 6.847e-4
-1.051, 6.931e-4
-1.052, 7.051e-4
-1.053, 7.202e-4
-1.054, 7.172e-4
-1.055, 7.453e-4
-1.056, 7.482e-4
-1.057, 7.566e-4
-1.058, 7.739e-4
-1.059, 7.687e-4
-1.060, 7.978e-4
-1.061, 8.005e-4
-1.062, 8.089e-4
-1.063, 8.312e-4
-1.064, 8.216e-4
-1.065, 8.407e-4
-1.066, 8.477e-4
-1.067, 8.574e-4
-1.068, 8.728e-4
-1.069, 8.667e-4
-1.070, 8.907e-4
-1.071, 8.925e-4
-1.072, 9.007e-4
-1.073, 9.232e-4
-1.074, 9.172e-4
-1.075, 9.368e-4
-1.076, 9.372e-4
-1.077, 9.421e-4
-1.078, 9.669e-4
-1.079, 9.665e-4
-1.080, 9.848e-4
-1.081, 9.825e-4
-1.082, 9.896e-4
-1.083, 1.012e-3
-1.084, 1.013e-3
-1.085, 1.030e-3
-1.086, 1.019e-3
-1.087, 1.034e-3
-1.088, 1.060e-3
-1.089, 1.047e-3
-1.090, 1.068e-3
-1.091, 1.073e-3
-1.092, 1.079e-3
-1.093, 1.103e-3
-1.094, 1.098e-3
-1.095, 1.115e-3
-1.096, 1.119e-3
-1.097, 1.131e-3
-1.098, 1.149e-3
-1.099, 1.150e-3
-1.100, 1.166e-3
-1.101, 1.160e-3
-1.102, 1.176e-3
-1.103, 1.198e-3
-1.104, 1.192e-3
-1.105, 1.212e-3
-1.106, 1.219e-3
-1.107, 1.229e-3
-1.108, 1.242e-3
-1.109, 1.240e-3
-1.110, 1.265e-3
-1.111, 1.265e-3
-1.112, 1.282e-3
-1.113, 1.290e-3
-1.114, 1.291e-3
-1.115, 1.320e-3
-1.116, 1.322e-3
-1.117, 1.325e-3
-1.118, 1.347e-3
-1.119, 1.343e-3
-1.120, 1.369e-3
-1.121, 1.378e-3
-1.122, 1.392e-3
-1.123, 1.405e-3
-1.124, 1.398e-3
-1.125, 1.425e-3
-1.126, 1.428e-3
-1.127, 1.439e-3
-1.128, 1.454e-3
-1.129, 1.462e-3
-1.130, 1.486e-3
-1.131, 1.470e-3
-1.132, 1.485e-3
-1.133, 1.518e-3
-1.134, 1.513e-3
-1.135, 1.531e-3
-1.136, 1.534e-3
-1.137, 1.556e-3
-1.138, 1.563e-3
-1.139, 1.550e-3
-1.140, 1.592e-3
-1.141, 1.602e-3
-1.142, 1.597e-3
-1.143, 1.612e-3
-1.144, 1.625e-3
-1.145, 1.655e-3
-1.146, 1.653e-3
-1.147, 1.661e-3
-1.148, 1.684e-3
-1.149, 1.684e-3
-1.150, 1.703e-3
-1.151, 1.701e-3
-1.152, 1.727e-3
-1.153, 1.749e-3
-1.154, 1.740e-3
-1.155, 1.771e-3
-1.156, 1.770e-3
-1.157, 1.779e-3
-1.158, 1.816e-3
-1.159, 1.822e-3
-1.160, 1.823e-3
-1.161, 1.842e-3
-1.162, 1.861e-3
-1.163, 1.866e-3
-1.164, 1.882e-3
-1.165, 1.907e-3
-1.166, 1.880e-3
-1.167, 1.892e-3
-1.168, 1.947e-3
-1.169, 1.960e-3
-1.170, 1.982e-3
-1.171, 1.979e-3
-1.172, 1.999e-3
-1.173, 2.021e-3
-1.174, 2.018e-3
-1.175, 2.055e-3
-1.176, 2.066e-3
-1.177, 2.073e-3
-1.178, 2.097e-3
-1.179, 2.110e-3
-1.180, 2.137e-3
-1.181, 2.142e-3
-1.182, 2.169e-3
-1.183, 2.192e-3
-1.184, 2.189e-3
-1.185, 2.224e-3
-1.186, 2.243e-3
-1.187, 2.265e-3
-1.188, 2.282e-3
-1.189, 2.279e-3
-1.190, 2.316e-3
-1.191, 2.341e-3
-1.192, 2.367e-3
-1.193, 2.384e-3
-1.194, 2.367e-3
-1.195, 2.403e-3
-1.196, 2.442e-3
-1.197, 2.464e-3
-1.198, 2.472e-3
-1.199, 2.474e-3
-1.200, 2.530e-3
-1.201, 2.552e-3
-1.202, 2.555e-3
-1.203, 2.574e-3
-1.204, 2.600e-3
-1.205, 2.645e-3
-1.206, 2.648e-3
-1.207, 2.666e-3
-1.208, 2.704e-3
-1.209, 2.718e-3
-1.210, 2.746e-3
-1.211, 2.772e-3
-1.212, 2.787e-3
-1.213, 2.810e-3
-1.214, 2.833e-3
-1.215, 2.865e-3
-1.216, 2.884e-3
-1.217, 2.927e-3
-1.218, 2.951e-3
-1.219, 2.944e-3
-1.220, 3.000e-3
-1.221, 3.031e-3
-1.222, 3.036e-3
-1.223, 3.087e-3
-1.224, 3.103e-3
-1.225, 3.114e-3
-1.226, 3.146e-3
-1.227, 3.191e-3
-1.228, 3.202e-3
-1.229, 3.217e-3
-1.230, 3.280e-3
-1.231, 3.292e-3
-1.232, 3.310e-3
-1.233, 3.351e-3
-1.234, 3.376e-3
-1.235, 3.418e-3
-1.236, 3.429e-3
-1.237, 3.456e-3
-1.238, 3.497e-3
-1.239, 3.518e-3
-1.240, 3.568e-3
-1.241, 3.589e-3
-1.242, 3.604e-3
-1.243, 3.627e-3
-1.244, 3.681e-3
-1.245, 3.732e-3
-1.246, 3.704e-3
-1.247, 3.738e-3
-1.248, 3.830e-3
-1.249, 3.842e-3
-1.250, 3.851e-3
-1.251, 3.866e-3
-1.252, 3.925e-3
-1.253, 3.973e-3
-1.254, 3.984e-3
-1.255, 4.023e-3
-1.256, 4.052e-3
-1.257, 4.090e-3
-1.258, 4.135e-3
-1.259, 4.150e-3
-1.260, 4.189e-3
-1.261, 4.228e-3
-1.262, 4.261e-3
-1.263, 4.307e-3
-1.264, 4.314e-3
-1.265, 4.336e-3
-1.266, 4.381e-3
-1.267, 4.447e-3
-1.268, 4.457e-3
-1.269, 4.445e-3
-1.270, 4.509e-3
-1.271, 4.574e-3
-1.272, 4.636e-3
-1.273, 4.639e-3
-1.274, 4.636e-3
-1.275, 4.723e-3
-1.276, 4.744e-3
-1.277, 4.770e-3
-1.278, 4.829e-3
-1.279, 4.824e-3
-1.280, 4.860e-3
-1.281, 4.928e-3
-1.282, 4.934e-3
-1.283, 4.947e-3
-1.284, 5.034e-3
-1.285, 5.069e-3
-1.286, 5.032e-3
-1.287, 5.077e-3
-1.288, 5.173e-3
-1.289, 5.192e-3
-1.290, 5.190e-3
-1.291, 5.209e-3
-1.292, 5.278e-3
-1.293, 5.324e-3
-1.294, 5.316e-3
-1.295, 5.364e-3
-1.296, 5.399e-3
-1.297, 5.411e-3
-1.298, 5.437e-3
-1.299, 5.503e-3
-1.300, 5.593e-3
-1.301, 5.544e-3
-1.302, 5.502e-3
-1.303, 5.607e-3
-1.304, 5.641e-3
-1.305, 5.643e-3
-1.306, 5.602e-3
-1.307, 5.692e-3
-1.308, 5.759e-3
-1.309, 5.703e-3
-1.310, 5.712e-3
-1.311, 5.769e-3
-1.312, 5.809e-3
-1.313, 5.808e-3
-1.314, 5.806e-3
-1.315, 5.846e-3
-1.316, 5.863e-3
-1.317, 5.873e-3
-1.318, 5.883e-3
-1.319, 5.869e-3
-1.320, 5.898e-3
-1.321, 5.908e-3
-1.322, 5.908e-3
-1.323, 5.912e-3
-1.324, 5.905e-3
-1.325, 5.909e-3
-1.326, 5.878e-3
-1.327, 5.880e-3
-1.328, 5.916e-3
-1.329, 5.880e-3
-1.330, 5.839e-3
-1.331, 5.824e-3
-1.332, 5.839e-3
-1.333, 5.802e-3
-1.334, 5.741e-3
-1.335, 5.743e-3
-1.336, 5.734e-3
-1.337, 5.697e-3
-1.338, 5.661e-3
-1.339, 5.586e-3
-1.340, 5.523e-3
-1.341, 5.485e-3
-1.342, 5.475e-3
-1.343, 5.403e-3
-1.344, 5.292e-3
-1.345, 5.261e-3
-1.346, 5.240e-3
-1.347, 5.171e-3
-1.348, 5.047e-3
-1.349, 4.982e-3
-1.350, 4.949e-3
-1.351, 4.842e-3
-1.352, 4.753e-3
-1.353, 4.664e-3
-1.354, 4.577e-3
-1.355, 4.521e-3
-1.356, 4.404e-3
-1.357, 4.304e-3
-1.358, 4.252e-3
-1.359, 4.158e-3
-1.360, 4.063e-3
-1.361, 3.973e-3
-1.362, 3.895e-3
-1.363, 3.837e-3
-1.364, 3.779e-3
-1.365, 3.718e-3
-1.366, 3.630e-3
-1.367, 3.589e-3
-1.368, 3.561e-3
-1.369, 3.495e-3
-1.370, 3.466e-3
-1.371, 3.441e-3
-1.372, 3.414e-3
-1.373, 3.388e-3
-1.374, 3.364e-3
-1.375, 3.370e-3
-1.376, 3.361e-3
-1.377, 3.363e-3
-1.378, 3.365e-3
-1.379, 3.357e-3
-1.380, 3.396e-3
-1.381, 3.384e-3
-1.382, 3.382e-3
-1.383, 3.432e-3
-1.384, 3.463e-3
-1.385, 3.486e-3
-1.386, 3.483e-3
-1.387, 3.522e-3
-1.388, 3.562e-3
-1.389, 3.569e-3
-1.390, 3.609e-3
-1.391, 3.630e-3
-1.392, 3.672e-3
-1.393, 3.716e-3
-1.394, 3.717e-3
-1.395, 3.760e-3
-1.396, 3.827e-3
-1.397, 3.876e-3
-1.398, 3.901e-3
-1.399, 3.907e-3
-1.400, 3.957e-3
-1.401, 4.010e-3
-1.402, 4.061e-3
-1.403, 4.101e-3
-1.404, 4.147e-3
-1.405, 4.216e-3
-1.406, 4.215e-3
-1.407, 4.255e-3
-1.408, 4.328e-3
-1.409, 4.369e-3
-1.410, 4.431e-3
-1.411, 4.442e-3
-1.412, 4.470e-3
-1.413, 4.544e-3
-1.414, 4.632e-3
-1.415, 4.679e-3
-1.416, 4.698e-3
-1.417, 4.749e-3
-1.418, 4.845e-3
-1.419, 4.908e-3
-1.420, 4.945e-3
-1.421, 4.950e-3
-1.422, 5.045e-3
-1.423, 5.118e-3
-1.424, 5.143e-3
-1.425, 5.213e-3
-1.426, 5.242e-3
-1.427, 5.314e-3
-1.428, 5.394e-3
-1.429, 5.411e-3
-1.430, 5.473e-3
-1.431, 5.531e-3
-1.432, 5.609e-3
-1.433, 5.668e-3
-1.434, 5.703e-3
-1.435, 5.781e-3
-1.436, 5.869e-3
-1.437, 5.918e-3
-1.438, 5.995e-3
-1.439, 6.052e-3
-1.440, 6.091e-3
-1.441, 6.130e-3
-1.442, 6.207e-3
-1.443, 6.273e-3
-1.444, 6.321e-3
-1.445, 6.395e-3
-1.446, 6.450e-3
-1.447, 6.495e-3
-1.448, 6.562e-3
-1.449, 6.617e-3
-1.450, 6.714e-3
-1.451, 6.766e-3
-1.452, 6.797e-3
-1.453, 6.871e-3
-1.454, 6.935e-3
-1.455, 6.999e-3
-1.456, 7.063e-3
-1.457, 7.140e-3
-1.458, 7.193e-3
-1.459, 7.219e-3
-1.460, 7.287e-3
-1.461, 7.377e-3
-1.462, 7.445e-3
-1.463, 7.470e-3
-1.464, 7.500e-3
-1.465, 7.611e-3
-1.466, 7.678e-3
-1.467, 7.734e-3
-1.468, 7.785e-3
-1.469, 7.821e-3
-1.470, 7.888e-3
-1.471, 7.951e-3
-1.472, 8.020e-3
-1.473, 8.049e-3
-1.474, 8.126e-3
-1.475, 8.232e-3
-1.476, 8.273e-3
-1.477, 8.333e-3
-1.478, 8.406e-3
-1.479, 8.437e-3
-1.480, 8.519e-3
-1.481, 8.588e-3
-1.482, 8.660e-3
-1.483, 8.701e-3
-1.484, 8.728e-3
-1.485, 8.802e-3
-1.486, 8.855e-3
-1.487, 8.910e-3
-1.488, 8.984e-3
-1.489, 9.038e-3
-1.490, 9.113e-3
-1.491, 9.138e-3
-1.492, 9.179e-3
-1.493, 9.277e-3
-1.494, 9.327e-3
-1.495, 9.355e-3
-1.496, 9.371e-3
-1.497, 9.447e-3
-1.498, 9.564e-3
-1.499, 9.621e-3
-1.500, 9.586e-3
-1.499, 9.404e-3
-1.498, 9.337e-3
-1.497, 9.258e-3
-1.496, 9.108e-3
-1.495, 9.061e-3
-1.494, 8.949e-3
-1.493, 8.825e-3
-1.492, 8.788e-3
-1.491, 8.722e-3
-1.490, 8.648e-3
-1.489, 8.566e-3
-1.488, 8.499e-3
-1.487, 8.427e-3
-1.486, 8.326e-3
-1.485, 8.180e-3
-1.484, 8.141e-3
-1.483, 8.083e-3
-1.482, 7.988e-3
-1.481, 7.860e-3
-1.480, 7.813e-3
-1.479, 7.732e-3
-1.478, 7.646e-3
-1.477, 7.595e-3
-1.476, 7.526e-3
-1.475, 7.453e-3
-1.474, 7.335e-3
-1.473, 7.267e-3
-1.472, 7.205e-3
-1.471, 7.079e-3
-1.470, 7.073e-3
-1.469, 7.027e-3
-1.468, 6.875e-3
-1.467, 6.813e-3
-1.466, 6.808e-3
-1.465, 6.772e-3
-1.464, 6.641e-3
-1.463, 6.598e-3
-1.462, 6.604e-3
-1.461, 6.469e-3
-1.460, 6.421e-3
-1.459, 6.356e-3
-1.458, 6.281e-3
-1.457, 6.212e-3
-1.456, 6.176e-3
-1.455, 6.120e-3
-1.454, 5.960e-3
-1.453, 5.949e-3
-1.452, 5.931e-3
-1.451, 5.803e-3
-1.450, 5.776e-3
-1.449, 5.694e-3
-1.448, 5.609e-3
-1.447, 5.571e-3
-1.446, 5.509e-3
-1.445, 5.474e-3
-1.444, 5.359e-3
-1.443, 5.265e-3
-1.442, 5.274e-3
-1.441, 5.243e-3
-1.440, 5.148e-3
-1.439, 5.048e-3
-1.438, 5.024e-3
-1.437, 5.029e-3
-1.436, 4.928e-3
-1.435, 4.822e-3
-1.434, 4.765e-3
-1.433, 4.743e-3
-1.432, 4.704e-3
-1.431, 4.612e-3
-1.430, 4.553e-3
-1.429, 4.521e-3
-1.428, 4.468e-3
-1.427, 4.433e-3
-1.426, 4.351e-3
-1.425, 4.304e-3
-1.424, 4.262e-3
-1.423, 4.185e-3
-1.422, 4.130e-3
-1.421, 4.093e-3
-1.420, 4.032e-3
-1.419, 3.942e-3
-1.418, 3.903e-3
-1.417, 3.876e-3
-1.416, 3.805e-3
-1.415, 3.750e-3
-1.414, 3.736e-3
-1.413, 3.675e-3
-1.412, 3.597e-3
-1.411, 3.585e-3
-1.410, 3.552e-3
-1.409, 3.473e-3
-1.408, 3.420e-3
-1.407, 3.412e-3
-1.406, 3.336e-3
-1.405, 3.295e-3
-1.404, 3.241e-3
-1.403, 3.185e-3
-1.402, 3.150e-3
-1.401, 3.106e-3
-1.400, 3.058e-3
-1.399, 2.998e-3
-1.398, 2.955e-3
-1.397, 2.934e-3
-1.396, 2.918e-3
-1.395, 2.858e-3
-1.394, 2.782e-3
-1.393, 2.758e-3
-1.392, 2.732e-3
-1.391, 2.672e-3
-1.390, 2.637e-3
-1.389, 2.587e-3
-1.388, 2.553e-3
-1.387, 2.518e-3
-1.386, 2.458e-3
-1.385, 2.417e-3
-1.384, 2.383e-3
-1.383, 2.364e-3
-1.382, 2.322e-3
-1.381, 2.257e-3
-1.380, 2.231e-3
-1.379, 2.207e-3
-1.378, 2.156e-3
-1.377, 2.108e-3
-1.376, 2.049e-3
-1.375, 2.024e-3
-1.374, 1.989e-3
-1.373, 1.954e-3
-1.372, 1.911e-3
-1.371, 1.871e-3
-1.370, 1.852e-3
-1.369, 1.804e-3
-1.368, 1.771e-3
-1.367, 1.755e-3
-1.366, 1.707e-3
-1.365, 1.674e-3
-1.364, 1.630e-3
-1.363, 1.605e-3
-1.362, 1.569e-3
-1.361, 1.511e-3
-1.360, 1.496e-3
-1.359, 1.460e-3
-1.358, 1.429e-3
-1.357, 1.395e-3
-1.356, 1.354e-3
-1.355, 1.334e-3
-1.354, 1.291e-3
-1.353, 1.261e-3
-1.352, 1.249e-3
-1.351, 1.206e-3
-1.350, 1.190e-3
-1.349, 1.152e-3
-1.348, 1.122e-3
-1.347, 1.090e-3
-1.346, 1.051e-3
-1.345, 1.039e-3
-1.344, 1.012e-3
-1.343, 9.815e-4
-1.342, 9.609e-4
-1.341, 9.220e-4
-1.340, 9.031e-4
-1.339, 8.642e-4
-1.338, 8.420e-4
-1.337, 8.261e-4
-1.336, 7.909e-4
-1.335, 7.641e-4
-1.334, 7.252e-4
-1.333, 7.041e-4
-1.332, 6.918e-4
-1.331, 6.651e-4
-1.330, 6.482e-4
-1.329, 6.114e-4
-1.328, 5.929e-4
-1.327, 5.720e-4
-1.326, 5.393e-4
-1.325, 5.295e-4
-1.324, 4.945e-4
-1.323, 4.790e-4
-1.322, 4.616e-4
-1.321, 4.271e-4
-1.320, 4.184e-4
-1.319, 3.907e-4
-1.318, 3.732e-4
-1.317, 3.568e-4
-1.316, 3.285e-4
-1.315, 3.207e-4
-1.314, 2.913e-4
-1.313, 2.763e-4
-1.312, 2.633e-4
-1.311, 2.362e-4
-1.310, 2.288e-4
-1.309, 2.001e-4
-1.308, 1.888e-4
-1.307, 1.778e-4
-1.306, 1.489e-4
-1.305, 1.436e-4
-1.304, 1.175e-4
-1.303, 1.058e-4
-1.302, 9.356e-5
-1.301, 6.725e-5
-1.300, 6.468e-5
-1.299, 4.045e-5
-1.298, 2.953e-5
-1.297, 1.898e-5
-1.296, -5.626e-6
-1.295, -8.033e-6
-1.294, -3.238e-5
-1.293, -4.156e-5
-1.292, -5.107e-5
-1.291, -7.527e-5
-1.290, -7.598e-5
-1.289, -9.819e-5
-1.288, -1.040e-4
-1.287, -1.129e-4
-1.286, -1.382e-4
-1.285, -1.371e-4
-1.284, -1.564e-4
-1.283, -1.637e-4
-1.282, -1.729e-4
-1.281, -1.940e-4
-1.280, -1.919e-4
-1.279, -2.134e-4
-1.278, -2.204e-4
-1.277, -2.243e-4
-1.276, -2.427e-4
-1.275, -2.433e-4
-1.274, -2.655e-4
-1.273, -2.689e-4
-1.272, -2.705e-4
-1.271, -2.892e-4
-1.270, -2.886e-4
-1.269, -3.082e-4
-1.268, -3.110e-4
-1.267, -3.172e-4
-1.266, -3.357e-4
-1.265, -3.292e-4
-1.264, -3.472e-4
-1.263, -3.523e-4
-1.262, -3.560e-4
-1.261, -3.734e-4
-1.260, -3.685e-4
-1.259, -3.853e-4
-1.258, -3.864e-4
-1.257, -3.895e-4
-1.256, -4.077e-4
-1.255, -4.022e-4
-1.254, -4.185e-4
-1.253, -4.187e-4
-1.252, -4.218e-4
-1.251, -4.389e-4
-1.250, -4.337e-4
-1.249, -4.517e-4
-1.248, -4.511e-4
-1.247, -4.516e-4
-1.246, -4.701e-4
-1.245, -4.665e-4
-1.244, -4.833e-4
-1.243, -4.854e-4
-1.242, -4.836e-4
-1.241, -4.947e-4
-1.240, -4.895e-4
-1.239, -5.101e-4
-1.238, -5.090e-4
-1.237, -5.084e-4
-1.236, -5.274e-4
-1.235, -5.168e-4
-1.234, -5.299e-4
-1.233, -5.303e-4
-1.232, -5.304e-4
-1.231, -5.473e-4
-1.230, -5.392e-4
-1.229, -5.539e-4
-1.228, -5.533e-4
-1.227, -5.575e-4
-1.226, -5.771e-4
-1.225, -5.666e-4
-1.224, -5.742e-4
-1.223, -5.722e-4
-1.222, -5.795e-4
-1.221, -5.983e-4
-1.220, -5.859e-4
-1.219, -5.941e-4
-1.218, -5.933e-4
-1.217, -5.979e-4
-1.216, -6.108e-4
-1.215, -5.958e-4
-1.214, -6.142e-4
-1.213, -6.119e-4
-1.212, -6.128e-4
-1.211, -6.286e-4
-1.210, -6.244e-4
-1.209, -6.357e-4
-1.208, -6.305e-4
-1.207, -6.373e-4
-1.206, -6.517e-4
-1.205, -6.367e-4
-1.204, -6.519e-4
-1.203, -6.555e-4
-1.202, -6.544e-4
-1.201, -6.652e-4
-1.200, -6.522e-4
-1.199, -6.670e-4
-1.198, -6.674e-4
-1.197, -6.658e-4
-1.196, -6.766e-4
-1.195, -6.686e-4
-1.194, -6.889e-4
-1.193, -6.885e-4
-1.192, -6.872e-4
-1.191, -7.116e-4
-1.190, -7.118e-4
-1.189, -7.128e-4
-1.188, -6.931e-4
-1.187, -7.055e-4
-1.186, -7.304e-4
-1.185, -7.140e-4
-1.184, -7.204e-4
-1.183, -7.228e-4
-1.182, -7.298e-4
-1.181, -7.436e-4
-1.180, -7.310e-4
-1.179, -7.429e-4
-1.178, -7.453e-4
-1.177, -7.485e-4
-1.176, -7.576e-4
-1.175, -7.474e-4
-1.174, -7.639e-4
-1.173, -7.638e-4
-1.172, -7.652e-4
-1.171, -7.812e-4
-1.170, -7.702e-4
-1.169, -7.846e-4
-1.168, -7.882e-4
-1.167, -7.882e-4
-1.166, -7.946e-4
-1.165, -7.917e-4
-1.164, -8.046e-4
-1.163, -8.058e-4
-1.162, -8.068e-4
-1.161, -8.208e-4
-1.160, -8.137e-4
-1.159, -8.319e-4
-1.158, -8.310e-4
-1.157, -8.285e-4
-1.156, -8.426e-4
-1.155, -8.421e-4
-1.154, -8.566e-4
-1.153, -8.536e-4
-1.152, -8.575e-4
-1.151, -8.713e-4
-1.150, -8.670e-4
-1.149, -8.799e-4
-1.148, -8.799e-4
-1.147, -8.843e-4
-1.146, -8.972e-4
-1.145, -8.973e-4
-1.144, -9.215e-4
-1.143, -9.132e-4
-1.142, -9.144e-4
-1.141, -9.235e-4
-1.140, -9.301e-4
-1.139, -9.470e-4
-1.138, -9.483e-4
-1.137, -9.468e-4
-1.136, -9.624e-4
-1.135, -9.640e-4
-1.134, -9.915e-4
-1.133, -9.964e-4
-1.132, -1.002e-3
-1.131, -1.024e-3
-1.130, -1.035e-3
-1.129, -1.070e-3
-1.128, -1.054e-3
-1.127, -1.057e-3
-1.126, -1.110e-3
-1.125, -1.126e-3
-1.124, -1.147e-3
-1.123, -1.160e-3
-1.122, -1.178e-3
-1.121, -1.211e-3
-1.120, -1.226e-3
-1.119, -1.266e-3
-1.118, -1.295e-3
-1.117, -1.326e-3
-1.116, -1.359e-3
-1.115, -1.371e-3
-1.114, -1.414e-3
-1.113, -1.447e-3
-1.112, -1.476e-3
-1.111, -1.515e-3
-1.110, -1.535e-3
-1.109, -1.585e-3
-1.108, -1.619e-3
-1.107, -1.649e-3
-1.106, -1.683e-3
-1.105, -1.696e-3
-1.104, -1.748e-3
-1.103, -1.779e-3
-1.102, -1.813e-3
-1.101, -1.847e-3
-1.100, -1.873e-3
-1.099, -1.924e-3
-1.098, -1.949e-3
-1.097, -1.971e-3
-1.096, -2.009e-3
-1.095, -2.045e-3
-1.094, -2.119e-3
-1.093, -2.125e-3
-1.092, -2.133e-3
-1.091, -2.184e-3
-1.090, -2.212e-3
-1.089, -2.249e-3
-1.088, -2.277e-3
-1.087, -2.311e-3
-1.086, -2.347e-3
-1.085, -2.360e-3
-1.084, -2.405e-3
-1.083, -2.442e-3
-1.082, -2.472e-3
-1.081, -2.486e-3
-1.080, -2.492e-3
-1.079, -2.565e-3
-1.078, -2.626e-3
-1.077, -2.639e-3
-1.076, -2.648e-3
-1.075, -2.656e-3
-1.074, -2.718e-3
-1.073, -2.737e-3
-1.072, -2.777e-3
-1.071, -2.820e-3
-1.070, -2.837e-3
-1.069, -2.869e-3
-1.068, -2.887e-3
-1.067, -2.916e-3
-1.066, -2.970e-3
-1.065, -2.981e-3
-1.064, -3.025e-3
-1.063, -3.054e-3
-1.062, -3.063e-3
-1.061, -3.102e-3
-1.060, -3.143e-3
-1.059, -3.185e-3
-1.058, -3.193e-3
-1.057, -3.205e-3
-1.056, -3.232e-3
-1.055, -3.245e-3
-1.054, -3.313e-3
-1.053, -3.335e-3
-1.052, -3.346e-3
-1.051, -3.381e-3
-1.050, -3.406e-3
-1.049, -3.464e-3
-1.048, -3.516e-3
-1.047, -3.539e-3
-1.046, -3.576e-3
-1.045, -3.576e-3
-1.044, -3.619e-3
-1.043, -3.637e-3
-1.042, -3.660e-3
-1.041, -3.718e-3
-1.040, -3.728e-3
-1.039, -3.744e-3
-1.038, -3.746e-3
-1.037, -3.788e-3
-1.036, -3.824e-3
-1.035, -3.821e-3
-1.034, -3.874e-3
-1.033, -3.911e-3
-1.032, -3.909e-3
-1.031, -3.965e-3
-1.030, -4.006e-3
-1.029, -4.007e-3
-1.028, -4.004e-3
-1.027, -4.058e-3
-1.026, -4.110e-3
-1.025, -4.110e-3
-1.024, -4.117e-3
-1.023, -4.115e-3
-1.022, -4.147e-3
-1.021, -4.241e-3
-1.020, -4.251e-3
-1.019, -4.207e-3
-1.018, -4.200e-3
-1.017, -4.282e-3
-1.016, -4.353e-3
-1.015, -4.348e-3
-1.014, -4.342e-3
-1.013, -4.354e-3
-1.012, -4.404e-3
-1.011, -4.419e-3
-1.010, -4.415e-3
-1.009, -4.471e-3
-1.008, -4.493e-3
-1.007, -4.495e-3
-1.006, -4.495e-3
-1.005, -4.517e-3
-1.004, -4.574e-3
-1.003, -4.584e-3
-1.002, -4.576e-3
-1.001, -4.611e-3
