Potential V vs RHE, Current mA cm-2
0.013299999999999867,13.824558822281137
0.012299999999999978,12.384382719018532
0.011299999999999866,11.119630816939189
0.010299999999999976,9.811022864564029
0.009299999999999864,8.459973573192919
0.008299999999999974,7.063653520226129
0.007299999999999862,5.7111895175551535
0.006299999999999972,4.402581565179994
0.00529999999999986,3.313253864283916
0.0042999999999999705,2.2663675023837886
0.0032999999999998586,1.3934906303670611
0.0022999999999999687,0.43403342679859325
0.0012999999999998568,-0.6128529351015338
0.00029999999999996696,-1.6594563547416883
-0.000700000000000145,-2.7501987669376318
-0.0017000000000000348,-3.7970851288377587
-0.0027000000000001467,-4.712403339850438
-0.0037000000000000366,-5.5414241615713475
-0.0047000000000001485,-6.238876832404812
-0.005700000000000038,-6.981600264833956
-0.00670000000000015,-7.7653503249591855
-0.00770000000000004,-8.638227196975913
-0.008700000000000152,-9.55496011928846
-0.009700000000000042,-10.42642228000532
-0.010700000000000154,-11.255443101726232
-0.011700000000000044,-11.952895772559694
-0.012700000000000156,-12.520195003805576
-0.013700000000000045,-13.087494235051453
-0.014700000000000157,-13.698649516593148
-0.015700000000000047,-14.401761032626075
-0.01670000000000016,-15.222293586547794
-0.01770000000000005,-16.014531914472215
-0.01870000000000016,-16.792623129397985
-0.01970000000000005,-17.4433903273359
-0.020700000000000163,-17.966833508285966
-0.021700000000000053,-18.44783535024008
-0.022700000000000164,-18.97127853119014
-0.023700000000000054,-19.579604390132108
-0.024700000000000166,-20.286960040064624
-0.025700000000000056,-20.980168576998494
-0.026700000000000168,-21.58849443594046
-0.027700000000000058,-22.15437895588647
-0.02870000000000017,-22.550498119848687
-0.02970000000000006,-22.904175944814945
-0.03070000000000017,-23.300295108777156
-0.03170000000000006,-23.724708498736668
-0.03270000000000017,-24.24815167968673
-0.03370000000000006,-24.870624651627345
-0.034700000000000175,-25.478950510569312
-0.035700000000000065,-26.002393691519377
-0.03670000000000018,-26.440954194477534
-0.03770000000000007,-26.822926245441096
-0.03870000000000018,-27.176604070407354
-0.03970000000000007,-27.615164573365515
-0.04070000000000018,-28.18104909331153
-0.04170000000000007,-28.789374952253496
-0.04270000000000018,-29.39770081119546
-0.04370000000000007,-29.96358533114148
-0.044700000000000184,-30.359704495103685
-0.045700000000000074,-30.670940981073993
-0.046700000000000186,-30.925589015049702
-0.047700000000000076,-31.19438416202406
-0.04870000000000019,-31.533914873991666
-0.04970000000000008,-31.972475376949827
-0.05070000000000019,-32.45347721890394
-0.05170000000000008,-32.97692039985401
-0.05270000000000019,-33.41548090281216
-0.05370000000000008,-33.712570275783825
-0.05470000000000019,-33.98136542275818
-0.05570000000000008,-34.193572117737936
-0.056700000000000195,-34.5472499427042
-0.057700000000000085,-34.94336910666641
-0.058700000000000196,-35.46681228761647
-0.059700000000000086,-35.94781412957058
-0.0607000000000002,-36.329786180534136
-0.06170000000000009,-36.64102266650445
-0.0627000000000002,-36.8532293614842
-0.06370000000000009,-37.037141830466666
-0.0647000000000002,-37.291789864442364
-0.06570000000000009,-37.645467689408626
-0.0667000000000002,-38.12646953136274
-0.0677000000000001,-38.607471373316855
-0.0687000000000002,-38.98944342428042
-0.0697000000000001,-39.30067991025072
-0.07070000000000021,-39.56947505722508
-0.0717000000000001,-39.78168175220483
-0.07270000000000021,-40.135359577171094
-0.0737000000000001,-40.4748902891387
-0.07470000000000021,-40.95589213109281
-0.0757000000000001,-41.47933531204288
-0.07670000000000021,-41.91789581500104
-0.0777000000000001,-42.186690961975394
-0.07870000000000021,-42.4413389959511
-0.0797000000000001,-42.568663012938956
-0.08070000000000022,-42.837458159913304
-0.0817000000000001,-42.96478217690117
-0.08270000000000022,-43.134547532884966
-0.08370000000000011,-43.44578401885527
-0.08470000000000022,-43.75702050482558
-0.08570000000000011,-44.138992555789144
-0.08670000000000022,-44.4077877027635
-0.08770000000000011,-44.619994397743255
-0.08870000000000022,-44.74731841473111
-0.08970000000000011,-45.01611356170547
-0.09070000000000022,-45.412232725667685
-0.09170000000000011,-45.89323456762179
-0.09270000000000023,-46.41667774857186
-0.09370000000000012,-46.79864979953541
-0.09470000000000023,-47.02500360751382
-0.09570000000000012,-47.15232762450167
-0.09670000000000023,-47.23721030249357
-0.09770000000000012,-47.46356411047198
-0.09870000000000023,-47.76065348344364
-0.09970000000000012,-48.1992139864018
-0.10070000000000023,-48.63777448935996
-0.10170000000000012,-49.076334992318124
-0.10270000000000024,-49.458307043281685
-0.10370000000000013,-49.72710219025603
-0.10470000000000024,-49.98175022423175
-0.10570000000000013,-50.2505453712061
-0.10670000000000024,-50.64666453516831
-0.10770000000000013,-51.028636586131874
-0.10870000000000024,-51.46719708909004
-0.10970000000000013,-51.77843357506035
-0.11070000000000024,-52.033081609036046
-0.11170000000000013,-52.2169940780185
-0.11270000000000002,-52.386759434002315
-0.11370000000000013,-52.59896612898206
-0.11470000000000002,-52.82531993696047
-0.11570000000000014,-53.16485064892808
-0.11670000000000003,-53.56096981289029
-0.11770000000000014,-54.0419716548444
-0.11870000000000003,-54.480532157802564
-0.11970000000000014,-54.876651321764776
-0.12070000000000003,-55.17374069473642
-0.12170000000000014,-55.31521182472294
-0.12270000000000003,-55.484977180706736
-0.12370000000000014,-55.7820665536784
-0.12470000000000003,-56.1781857176406
-0.12570000000000014,-56.70162889859067
-0.12670000000000003,-57.26751341853669
-0.12770000000000015,-57.70607392149485
-0.12870000000000004,-58.10219308545706
-0.12970000000000015,-58.45587091042332
-0.13070000000000004,-58.83784296138688
-0.13170000000000015,-59.31884480334099
-0.13270000000000004,-59.842287984291055
-0.13370000000000015,-60.32328982624517
-0.13470000000000004,-60.761850329203334
-0.13570000000000015,-61.01649836317903
-0.13670000000000004,-61.20041083216149
-0.13770000000000016,-61.242852171157445
-0.13870000000000005,-61.242852171157445
-0.13970000000000016,-61.28529351015339
-0.14070000000000005,-61.455058866137186
-0.14170000000000016,-61.72385401311155
-0.14270000000000005,-62.06338472507916
-0.14370000000000016,-62.459503889041365
-0.14470000000000005,-62.855623053003576
-0.14570000000000016,-63.29418355596174
-0.14670000000000005,-63.77518539791585
-0.14770000000000016,-64.34106991786187
-0.14870000000000005,-64.99183711579978
-0.14970000000000017,-65.64260431373769
-0.15070000000000006,-66.39240130266617
-0.15170000000000017,-66.9582858226122
-0.15270000000000006,-67.43928766456631
-0.15370000000000017,-67.73637703753796
-0.15470000000000006,-67.86370105452582
-0.15570000000000017,-68.0900548625042
-0.15670000000000006,-68.25982021848802
-0.15770000000000017,-68.57105670445833
-0.15870000000000006,-68.96717586842054
-0.15970000000000018,-69.30670658038814
-0.16070000000000007,-69.78770842234226
-0.16170000000000018,-70.09894490831257
-0.16270000000000007,-70.35359294228827
-0.16370000000000018,-70.57994675026669
-0.16470000000000007,-70.96191880123024
-0.16570000000000018,-71.44292064318435
-0.16670000000000007,-72.00880516313036
-0.16770000000000018,-72.53224834408043
-0.16870000000000007,-72.97080884703858
-0.16970000000000018,-73.32448667200485
-0.17070000000000007,-73.6781644969711
-0.17170000000000019,-74.10257788693062
-0.17270000000000008,-74.58357972888473
-0.1737000000000002,-75.14946424883075
-0.17470000000000008,-75.77193722077136
-0.1757000000000002,-76.50758709670117
-0.17670000000000008,-77.1583542946391
-0.1777000000000002,-77.68179747558916
-0.17870000000000008,-78.07791663955136
-0.1797000000000002,-78.33256467352709
-0.18070000000000008,-78.55891848150549
-0.1817000000000002,-78.8135665154812
-0.18270000000000008,-79.08236166245555
-0.1837000000000002,-79.42189237442317
-0.1847000000000001,-79.73312886039348
-0.1857000000000002,-80.00192400736783
-0.1867000000000001,-80.17168936335163
-0.1877000000000002,-80.42633739732734
-0.1887000000000001,-80.73757388329766
-0.1897000000000002,-81.04881036926795
-0.1907000000000001,-81.51566509822342
-0.1917000000000001,-82.13813807016405
-0.19269999999999998,-82.87378794609386
-0.1937000000000001,-83.66602627401826
-0.19469999999999998,-84.23191079396429
-0.1957000000000001,-84.6563241839238
-0.19669999999999999,-84.96756066989411
-0.1977000000000001,-85.27879715586442
-0.1987,-85.70321054582392
-0.1997000000000001,-86.22665372677399
-0.2007,-86.80668535971866
-0.2017000000000001,-87.23109874967815
-0.2027,-87.49989389665252
-0.2037000000000001,-87.71210059163228
-0.2047,-87.85357172161878
-0.2057000000000001,-88.10821975559449
-0.2067,-88.5043389195567
-0.2077000000000001,-88.94289942251486
-0.2087,-89.46634260346492
-0.2097000000000001,-89.94734444541903
-0.2107,-90.41419917437449
-0.2117000000000001,-90.85275967733266
-0.2127,-91.29132018029082
-0.2137000000000001,-91.72988068324898
-0.2147,-92.2108825252031
-0.2157000000000001,-92.7767670451491
-0.2167,-93.34265156509512
-0.21770000000000012,-93.90853608504113
-0.2187,-94.4319792659912
-0.21970000000000012,-94.87053976894937
-0.2207,-95.30910027190752
-0.22170000000000012,-95.60618964487918
-0.2227,-95.95986746984543
-0.22370000000000012,-96.3984279728036
-0.2247,-96.87942981475771
-0.22570000000000012,-97.4877556736997
-0.2267,-98.09608153264163
-0.22770000000000012,-98.66196605258766
-0.22870000000000001,-99.14296789454177
-0.22970000000000013,-99.53908705850398
-0.23070000000000002,-99.83617643147564
-0.23170000000000013,-100.23229559543785
-0.23270000000000002,-100.71329743739196
-0.23370000000000013,-101.19429927934607
-0.23470000000000002,-101.76018379929208
-0.23570000000000013,-102.28362698024215
-0.23670000000000002,-102.67974614420436
-0.2376999999999999,-102.93439417818009
-0.23870000000000002,-103.24563066415038
-0.2396999999999999,-103.64174982811258
-0.24070000000000003,-104.2076343480586
-0.24169999999999991,-104.90084288499246
-0.24270000000000003,-105.59405142192634
-0.24369999999999992,-106.11749460287639
-0.24470000000000003,-106.51361376683862
-0.24569999999999992,-106.95217426979677
-0.24670000000000003,-107.4331761117509
-0.24769999999999992,-108.0839433096888
-0.24870000000000003,-108.83374029861727
-0.24969999999999992,-109.56939017454708
-0.25070000000000003,-110.17771603348905
-0.2516999999999999,-110.70115921443913
-0.25270000000000004,-111.26704373438514
-0.2536999999999999,-111.83292825433115
-0.25470000000000004,-112.44125411327312
-0.2556999999999999,-113.10616842420968
-0.25670000000000004,-113.67205294415571
-0.25769999999999993,-114.36526148108955
-0.25870000000000004,-115.15749980901398
-0.25969999999999993,-115.8931496849438
-0.26070000000000004,-116.58635822187767
-0.26169999999999993,-117.10980140282774
-0.26270000000000004,-117.50592056678994
-0.26369999999999993,-117.77471571376431
-0.26470000000000005,-118.15668776472786
-0.26569999999999994,-118.63768960668197
-0.26670000000000005,-119.38748659561045
-0.26769999999999994,-120.25046048852812
-0.26870000000000005,-121.12758149444444
-0.26969999999999994,-121.69346601439047
-0.27070000000000005,-122.00470250036076
-0.27169999999999994,-122.0471438393567
-0.27270000000000005,-122.08958517835266
-0.27369999999999994,-122.34423321232836
-0.27470000000000006,-122.82523505428249
-0.27569999999999995,-123.532590704215
-0.27670000000000006,-124.22579924114888
-0.27769999999999995,-124.87656643908679
-0.27870000000000006,-125.44245095903281
-0.27969999999999995,-126.09321815697072
-0.28070000000000006,-126.80057380690324
-0.28169999999999995,-127.57866502182902
-0.28270000000000006,-128.37090334975343
-0.28369999999999995,-129.2338772426711
-0.28470000000000006,-130.1534395875834
-0.28569999999999995,-131.1154432714916
-0.28670000000000007,-132.11988829439576
-0.28769999999999996,-132.99700930031207
-0.28870000000000007,-133.73265917624192
-0.28969999999999996,-134.46830905217172
-0.29070000000000007,-135.17566470210423
-0.29169999999999996,-135.82643190004217
-0.29270000000000007,-136.43475775898415
-0.29369999999999996,-136.83087692294635
-0.2947000000000001,-137.00064227893017
-0.29569999999999996,-137.04308361792607
-0.2967000000000001,-137.22699608690854
-0.29769999999999996,-137.6089681378721
-0.2987000000000001,-138.23144110981272
-0.29969999999999997,-139.05197366373446
-0.3007000000000001,-139.8866533306548
-0.30169999999999997,-140.70718588457655
-0.3027000000000001,-141.61260111649017
-0.30369999999999997,-142.7443701563822
-0.3047000000000001,-143.73466806628772
-0.30569999999999997,-144.72496597619326
-0.3067000000000001,-145.57379275611228
-0.3077,-146.4226195360313
-0.3087000000000001,-147.1299751859638
-0.3097,-147.6958597059098
-0.3107000000000001,-148.26174422585584
-0.3117,-148.54468648582886
-0.3127000000000001,-148.68615761581535
-0.3137,-148.82762874580186
-0.3147000000000001,-149.25204213576137
-0.3157,-149.95939778569388
-0.3167000000000001,-150.8082245656129
-0.3177,-151.7985224755184
-0.3187000000000001,-152.50587812545095
-0.3197,-153.21323377538346
-0.3207000000000001,-153.920589425316
-0.3217,-154.6279450752485
-0.3227000000000001,-155.61824298515404
-0.3237,-156.89148315503257
-0.3247000000000001,-158.3061944548976
-0.3257,-159.57943462477613
-0.3267000000000001,-160.71120366466818
-0.3277,-161.5600304445872
-0.3287000000000001,-162.12591496453322
-0.3297,-162.5503283544927
-0.3307000000000001,-162.97474174445222
-0.3317,-163.39915513441173
-0.3327000000000001,-163.96503965435775
-0.3337,-164.38945304431726
-0.3347000000000001,-164.9553375642633
-0.3357,-165.3797509542228
-0.3367000000000001,-165.6626932141958
-0.3377,-166.0871066041553
-0.3387000000000001,-166.51151999411482
-0.3397,-167.21887564404733
-0.3407000000000001,-168.06770242396635
-0.3417,-169.19947146385837
-0.3427000000000001,-170.47271163373694
-0.3437,-171.60448067362896
-0.3447000000000001,-172.59477858353446
-0.3457,-173.44360536345349
-0.3467000000000001,-174.43390327335902
-0.3477,-175.56567231325104
-0.3487000000000001,-176.8389124831296
-0.3497,-178.1121526530081
-0.3507000000000001,-179.10245056291362
-0.3517,-179.80980621284618
-0.3527000000000001,-180.37569073279218
-0.3537,-180.94157525273818
-0.3547000000000001,-181.5074597726842
-0.3557,-182.21481542261674
-0.35670000000000013,-182.78069994256273
-0.3577,-183.48805559249527
-0.35870000000000013,-184.19541124242778
-0.3597,-184.9027668923603
-0.36070000000000013,-185.7515936722793
-0.3617,-186.74189158218485
-0.3626999999999999,-187.59071836210387
-0.3637,-188.58101627200938
-0.3646999999999999,-189.42984305192843
-0.3657,-190.27866983184742
-0.3666999999999999,-191.41043887173947
-0.3677,-192.54220791163152
-0.3686999999999999,-193.6739769515235
-0.36970000000000003,-194.52280373144254
-0.3706999999999999,-195.23015938137505
-0.37170000000000003,-195.79604390132107
-0.3726999999999999,-196.3619284212671
-0.37370000000000003,-197.0692840711996
-0.3746999999999999,-197.91811085111863
-0.37570000000000003,-198.76693763103765
-0.3766999999999999,-199.75723554094319
-0.37770000000000004,-200.6060623208622
-0.3786999999999999,-201.31341797079472
-0.37970000000000004,-202.02077362072723
-0.3806999999999999,-202.86960040064628
-0.38170000000000004,-203.85989831055176
-0.38269999999999993,-204.9916673504438
-0.38370000000000004,-206.12343639033585
-0.38469999999999993,-206.97226317025488
-0.38570000000000004,-207.5381476902009
-0.38669999999999993,-207.96256108016038
-0.38770000000000004,-208.24550334013338
-0.38869999999999993,-208.6699167300929
-0.38970000000000005,-209.0943301200524
-0.39069999999999994,-209.8016857699849
-0.39170000000000005,-210.36757028993094
-0.39269999999999994,-211.21639706985
-0.39370000000000005,-211.9237527197825
-0.39469999999999994,-212.631108369715
-0.39570000000000005,-213.19699288966103
-0.39669999999999994,-213.62140627962054
-0.39770000000000005,-214.18729079956654
-0.39869999999999994,-214.75317531951256
-0.39970000000000006,-215.6020020994316
-0.40069999999999995,-216.59230000933712
-0.40170000000000006,-217.58259791924263
-0.40269999999999995,-218.14848243918865
-0.40370000000000006,-218.71436695913465
-0.40469999999999995,-218.99730921910768
-0.40570000000000006,-219.42172260906716
-0.40669999999999995,-219.98760712901318
-0.40770000000000006,-220.83643390893224
-0.40869999999999995,-221.68526068885126
-0.40970000000000006,-222.25114520879725
-0.41069999999999995,-222.81702972874328
-0.41170000000000007,-223.2414431187028
-0.41269999999999996,-223.80732763864881
-0.41370000000000007,-224.2317410286083
-0.41469999999999996,-224.93909667854084
-0.41570000000000007,-225.50498119848683
-0.41669999999999996,-226.07086571843288
-0.41770000000000007,-226.63675023837888
-0.41869999999999996,-227.06116362833836
-0.4197000000000001,-227.4855770182979
-0.42069999999999996,-227.7685192782709
-0.4217000000000001,-227.9099904082574
-0.42269999999999996,-228.33440379821695
-0.4237000000000001,-228.61734605818995
-0.42469999999999997,-229.18323057813595
-0.4257000000000001,-229.74911509808197
-0.42669999999999997,-230.31499961802797
-0.4277000000000001,-230.7394130079875
-0.42869999999999997,-231.163826397947
-0.4297000000000001,-231.44676865792
-0.43069999999999997,-231.729710917893
-0.4317000000000001,-232.01265317786604
-0.4327,-232.57853769781204
-0.4337000000000001,-233.28589334774458
-0.4347,-234.13472012766357
-0.4357000000000001,-234.7006046476096
-0.4367,-234.84207577759608
-0.4377000000000001,-234.9835469075826
-0.4387,-234.84207577759608
-0.4397000000000001,-234.84207577759608
-0.4407,-235.12501803756908
-0.4417000000000001,-235.54943142752862
-0.4427,-235.83237368750162
-0.4437000000000001,-236.25678707746113
-0.4447,-236.53972933743412
-0.4457000000000001,-236.96414272739366
-0.4467,-237.24708498736666
-0.4477000000000001,-237.53002724733966
-0.4487,-237.67149837732615
-0.4497000000000001,-237.67149837732615
-0.4507,-237.67149837732615
-0.4517000000000001,-237.53002724733966
-0.4527,-237.38855611735315
-0.4537000000000001,-236.96414272739366
-0.4547,-236.3982582074476
-0.4557000000000001,-235.83237368750162
-0.4567,-235.40796029754208
-0.4577000000000001,-235.26648916755556
-0.4587,-235.40796029754208
-0.4597000000000001,-235.54943142752862
-0.4607,-235.69090255751513
-0.4617000000000001,-235.54943142752862
-0.4627,-235.26648916755556
-0.4637000000000001,-235.12501803756908
-0.4647,-235.12501803756908
-0.4657000000000001,-234.9835469075826
-0.4667,-234.55913351762308
-0.4677000000000001,-233.99324899767706
-0.4687,-233.1444222177581
-0.4697000000000001,-232.01265317786604
-0.4707,-230.880884137974
-0.4717000000000001,-229.74911509808197
-0.4727,-228.61734605818995
-0.4737000000000001,-227.62704814828442
-0.4747,-226.77822136836537
-0.4757000000000001,-225.92939458844637
-0.4767,-225.22203893851383
-0.4777000000000001,-224.5146832885813
-0.4787,-223.80732763864881
-0.4797000000000001,-223.09997198871628
-0.4807,-222.3926163387838
-0.48170000000000013,-221.82673181883774
-0.4827,-221.26084729889175
-0.48370000000000013,-220.83643390893224
-0.4847,-220.2705493889862
-0.48570000000000013,-219.8461359990267
-0.4867,-218.14848243918865
-0.48570000000000013,-214.47023305953954
-0.4847,-210.65051254990397
-0.48370000000000013,-207.1137343002414
-0.4827,-203.71842718056527
-0.48170000000000013,-200.4645911908757
-0.4807,-197.0692840711996
-0.4797000000000001,-193.6739769515235
-0.4787,-189.8542564418879
-0.4777000000000001,-185.89306480226583
-0.4767,-181.93187316264374
-0.4757000000000001,-178.1121526530081
-0.4747,-174.57537440334553
-0.4737000000000001,-171.60448067362896
-0.4727,-168.63358694391238
-0.4717000000000001,-165.8041643441823
-0.4707,-163.11621287443873
-0.4697000000000001,-160.71120366466818
-0.4687,-158.3061944548976
-0.4677000000000001,-156.18412750510007
-0.4667,-154.203531685289
-0.4657000000000001,-152.36440699546444
-0.4647,-150.5252823056399
