Dec. 28, 2024   09:38:30
Cyclic Voltammetry
File: c:/users/guazh/data/banditlqround7_x0exp136_r20/2024-12-24-exp766\exp766-2024-12-28t09_29_56-arkoh\exp766_cv_50mvs_efin_-1500mv.bin
Data Source:  Experiment
Instrument Model:  CHI760E
Header: CV ran at 50 mVs
Note: 

Init E (V) = -1
High E (V) = -1
Low E (V) = -1.5
Final E (V) = -1
Init P/N = N
Scan Rate (V/s) = 0.05
Segment = 7
Sample Interval (V) = 0.001
Quiet Time (sec) = 60
Sensitivity (A/V) = 0.001
Comp R (ohm) = 1.4

Results:

Channel 1:
Segment 1:
Ep = -1.322V
ip = 3.381e-3A
Ah = 5.857e-3C

Segment 2:

Segment 3:
Ep = -1.280V
ip = 1.062e-3A
Ah = 1.299e-3C

Segment 4:

Segment 5:
Ep = -1.270V
ip = 8.814e-4A
Ah = 9.482e-4C

Segment 6:

Segment 7:

Potential/V, Current/A

-1.000, -1.165e-5
-1.001, 6.945e-5
-1.002, 1.251e-4
-1.003, 1.630e-4
-1.004, 1.901e-4
-1.005, 2.108e-4
-1.006, 2.318e-4
-1.007, 2.515e-4
-1.008, 2.644e-4
-1.009, 2.756e-4
-1.010, 2.818e-4
-1.011, 2.992e-4
-1.012, 3.029e-4
-1.013, 3.189e-4
-1.014, 3.191e-4
-1.015, 3.286e-4
-1.016, 3.335e-4
-1.017, 3.458e-4
-1.018, 3.511e-4
-1.019, 3.561e-4
-1.020, 3.597e-4
-1.021, 3.673e-4
-1.022, 3.744e-4
-1.023, 3.808e-4
-1.024, 3.815e-4
-1.025, 3.853e-4
-1.026, 3.908e-4
-1.027, 4.001e-4
-1.028, 4.051e-4
-1.029, 4.082e-4
-1.030, 4.099e-4
-1.031, 4.147e-4
-1.032, 4.229e-4
-1.033, 4.265e-4
-1.034, 4.299e-4
-1.035, 4.320e-4
-1.036, 4.380e-4
-1.037, 4.460e-4
-1.038, 4.501e-4
-1.039, 4.542e-4
-1.040, 4.541e-4
-1.041, 4.620e-4
-1.042, 4.660e-4
-1.043, 4.725e-4
-1.044, 4.736e-4
-1.045, 4.760e-4
-1.046, 4.808e-4
-1.047, 4.930e-4
-1.048, 4.959e-4
-1.049, 5.003e-4
-1.050, 5.012e-4
-1.051, 5.064e-4
-1.052, 5.154e-4
-1.053, 5.180e-4
-1.054, 5.219e-4
-1.055, 5.248e-4
-1.056, 5.312e-4
-1.057, 5.404e-4
-1.058, 5.456e-4
-1.059, 5.499e-4
-1.060, 5.458e-4
-1.061, 5.603e-4
-1.062, 5.635e-4
-1.063, 5.763e-4
-1.064, 5.742e-4
-1.065, 5.793e-4
-1.066, 5.838e-4
-1.067, 5.931e-4
-1.068, 5.992e-4
-1.069, 6.034e-4
-1.070, 6.077e-4
-1.071, 6.149e-4
-1.072, 6.233e-4
-1.073, 6.297e-4
-1.074, 6.326e-4
-1.075, 6.391e-4
-1.076, 6.455e-4
-1.077, 6.548e-4
-1.078, 6.624e-4
-1.079, 6.657e-4
-1.080, 6.711e-4
-1.081, 6.746e-4
-1.082, 6.881e-4
-1.083, 6.970e-4
-1.084, 7.028e-4
-1.085, 7.069e-4
-1.086, 7.136e-4
-1.087, 7.236e-4
-1.088, 7.322e-4
-1.089, 7.375e-4
-1.090, 7.435e-4
-1.091, 7.519e-4
-1.092, 7.598e-4
-1.093, 7.704e-4
-1.094, 7.777e-4
-1.095, 7.817e-4
-1.096, 7.920e-4
-1.097, 8.005e-4
-1.098, 8.116e-4
-1.099, 8.200e-4
-1.100, 8.230e-4
-1.101, 8.369e-4
-1.102, 8.466e-4
-1.103, 8.557e-4
-1.104, 8.622e-4
-1.105, 8.672e-4
-1.106, 8.777e-4
-1.107, 8.872e-4
-1.108, 9.034e-4
-1.109, 9.086e-4
-1.110, 9.148e-4
-1.111, 9.287e-4
-1.112, 9.370e-4
-1.113, 9.499e-4
-1.114, 9.516e-4
-1.115, 9.646e-4
-1.116, 9.761e-4
-1.117, 9.881e-4
-1.118, 9.970e-4
-1.119, 1.007e-3
-1.120, 1.016e-3
-1.121, 1.023e-3
-1.122, 1.038e-3
-1.123, 1.056e-3
-1.124, 1.051e-3
-1.125, 1.075e-3
-1.126, 1.078e-3
-1.127, 1.094e-3
-1.128, 1.109e-3
-1.129, 1.114e-3
-1.130, 1.124e-3
-1.131, 1.135e-3
-1.132, 1.151e-3
-1.133, 1.156e-3
-1.134, 1.176e-3
-1.135, 1.173e-3
-1.136, 1.193e-3
-1.137, 1.200e-3
-1.138, 1.220e-3
-1.139, 1.230e-3
-1.140, 1.239e-3
-1.141, 1.250e-3
-1.142, 1.261e-3
-1.143, 1.277e-3
-1.144, 1.287e-3
-1.145, 1.300e-3
-1.146, 1.306e-3
-1.147, 1.325e-3
-1.148, 1.336e-3
-1.149, 1.341e-3
-1.150, 1.354e-3
-1.151, 1.368e-3
-1.152, 1.384e-3
-1.153, 1.399e-3
-1.154, 1.408e-3
-1.155, 1.424e-3
-1.156, 1.430e-3
-1.157, 1.449e-3
-1.158, 1.464e-3
-1.159, 1.469e-3
-1.160, 1.484e-3
-1.161, 1.497e-3
-1.162, 1.514e-3
-1.163, 1.528e-3
-1.164, 1.538e-3
-1.165, 1.550e-3
-1.166, 1.565e-3
-1.167, 1.574e-3
-1.168, 1.599e-3
-1.169, 1.612e-3
-1.170, 1.627e-3
-1.171, 1.635e-3
-1.172, 1.647e-3
-1.173, 1.664e-3
-1.174, 1.671e-3
-1.175, 1.688e-3
-1.176, 1.702e-3
-1.177, 1.723e-3
-1.178, 1.742e-3
-1.179, 1.753e-3
-1.180, 1.769e-3
-1.181, 1.780e-3
-1.182, 1.798e-3
-1.183, 1.812e-3
-1.184, 1.828e-3
-1.185, 1.846e-3
-1.186, 1.856e-3
-1.187, 1.878e-3
-1.188, 1.897e-3
-1.189, 1.909e-3
-1.190, 1.929e-3
-1.191, 1.933e-3
-1.192, 1.964e-3
-1.193, 1.975e-3
-1.194, 1.999e-3
-1.195, 2.005e-3
-1.196, 2.038e-3
-1.197, 2.045e-3
-1.198, 2.071e-3
-1.199, 2.089e-3
-1.200, 2.090e-3
-1.201, 2.127e-3
-1.202, 2.127e-3
-1.203, 2.165e-3
-1.204, 2.179e-3
-1.205, 2.208e-3
-1.206, 2.221e-3
-1.207, 2.246e-3
-1.208, 2.262e-3
-1.209, 2.278e-3
-1.210, 2.306e-3
-1.211, 2.319e-3
-1.212, 2.351e-3
-1.213, 2.364e-3
-1.214, 2.408e-3
-1.215, 2.406e-3
-1.216, 2.442e-3
-1.217, 2.454e-3
-1.218, 2.497e-3
-1.219, 2.501e-3
-1.220, 2.542e-3
-1.221, 2.546e-3
-1.222, 2.584e-3
-1.223, 2.596e-3
-1.224, 2.634e-3
-1.225, 2.648e-3
-1.226, 2.687e-3
-1.227, 2.693e-3
-1.228, 2.767e-3
-1.229, 2.743e-3
-1.230, 2.797e-3
-1.231, 2.795e-3
-1.232, 2.847e-3
-1.233, 2.867e-3
-1.234, 2.899e-3
-1.235, 2.925e-3
-1.236, 2.952e-3
-1.237, 2.990e-3
-1.238, 3.016e-3
-1.239, 3.045e-3
-1.240, 3.085e-3
-1.241, 3.073e-3
-1.242, 3.154e-3
-1.243, 3.147e-3
-1.244, 3.196e-3
-1.245, 3.222e-3
-1.246, 3.260e-3
-1.247, 3.302e-3
-1.248, 3.330e-3
-1.249, 3.373e-3
-1.250, 3.381e-3
-1.251, 3.420e-3
-1.252, 3.448e-3
-1.253, 3.509e-3
-1.254, 3.511e-3
-1.255, 3.568e-3
-1.256, 3.588e-3
-1.257, 3.621e-3
-1.258, 3.650e-3
-1.259, 3.679e-3
-1.260, 3.739e-3
-1.261, 3.761e-3
-1.262, 3.809e-3
-1.263, 3.834e-3
-1.264, 3.886e-3
-1.265, 3.898e-3
-1.266, 3.950e-3
-1.267, 3.987e-3
-1.268, 3.990e-3
-1.269, 4.077e-3
-1.270, 4.060e-3
-1.271, 4.131e-3
-1.272, 4.162e-3
-1.273, 4.192e-3
-1.274, 4.231e-3
-1.275, 4.284e-3
-1.276, 4.310e-3
-1.277, 4.353e-3
-1.278, 4.373e-3
-1.279, 4.437e-3
-1.280, 4.435e-3
-1.281, 4.489e-3
-1.282, 4.540e-3
-1.283, 4.582e-3
-1.284, 4.610e-3
-1.285, 4.638e-3
-1.286, 4.677e-3
-1.287, 4.711e-3
-1.288, 4.747e-3
-1.289, 4.784e-3
-1.290, 4.812e-3
-1.291, 4.844e-3
-1.292, 4.890e-3
-1.293, 4.925e-3
-1.294, 4.943e-3
-1.295, 4.980e-3
-1.296, 5.009e-3
-1.297, 5.041e-3
-1.298, 5.073e-3
-1.299, 5.092e-3
-1.300, 5.120e-3
-1.301, 5.135e-3
-1.302, 5.200e-3
-1.303, 5.186e-3
-1.304, 5.238e-3
-1.305, 5.245e-3
-1.306, 5.288e-3
-1.307, 5.284e-3
-1.308, 5.342e-3
-1.309, 5.294e-3
-1.310, 5.368e-3
-1.311, 5.324e-3
-1.312, 5.375e-3
-1.313, 5.369e-3
-1.314, 5.396e-3
-1.315, 5.393e-3
-1.316, 5.405e-3
-1.317, 5.384e-3
-1.318, 5.387e-3
-1.319, 5.389e-3
-1.320, 5.380e-3
-1.321, 5.347e-3
-1.322, 5.427e-3
-1.323, 5.266e-3
-1.324, 5.356e-3
-1.325, 5.259e-3
-1.326, 5.286e-3
-1.327, 5.230e-3
-1.328, 5.217e-3
-1.329, 5.180e-3
-1.330, 5.135e-3
-1.331, 5.090e-3
-1.332, 5.049e-3
-1.333, 5.003e-3
-1.334, 4.946e-3
-1.335, 4.880e-3
-1.336, 4.833e-3
-1.337, 4.783e-3
-1.338, 4.733e-3
-1.339, 4.653e-3
-1.340, 4.594e-3
-1.341, 4.507e-3
-1.342, 4.453e-3
-1.343, 4.361e-3
-1.344, 4.303e-3
-1.345, 4.204e-3
-1.346, 4.131e-3
-1.347, 4.049e-3
-1.348, 3.966e-3
-1.349, 3.888e-3
-1.350, 3.798e-3
-1.351, 3.725e-3
-1.352, 3.649e-3
-1.353, 3.575e-3
-1.354, 3.497e-3
-1.355, 3.421e-3
-1.356, 3.360e-3
-1.357, 3.284e-3
-1.358, 3.246e-3
-1.359, 3.184e-3
-1.360, 3.138e-3
-1.361, 3.096e-3
-1.362, 3.066e-3
-1.363, 3.030e-3
-1.364, 3.007e-3
-1.365, 2.992e-3
-1.366, 2.978e-3
-1.367, 2.984e-3
-1.368, 2.975e-3
-1.369, 2.979e-3
-1.370, 2.973e-3
-1.371, 2.995e-3
-1.372, 3.011e-3
-1.373, 3.038e-3
-1.374, 3.038e-3
-1.375, 3.069e-3
-1.376, 3.084e-3
-1.377, 3.120e-3
-1.378, 3.157e-3
-1.379, 3.179e-3
-1.380, 3.215e-3
-1.381, 3.249e-3
-1.382, 3.294e-3
-1.383, 3.322e-3
-1.384, 3.369e-3
-1.385, 3.410e-3
-1.386, 3.464e-3
-1.387, 3.473e-3
-1.388, 3.561e-3
-1.389, 3.569e-3
-1.390, 3.640e-3
-1.391, 3.663e-3
-1.392, 3.723e-3
-1.393, 3.772e-3
-1.394, 3.813e-3
-1.395, 3.865e-3
-1.396, 3.920e-3
-1.397, 3.962e-3
-1.398, 4.030e-3
-1.399, 4.071e-3
-1.400, 4.124e-3
-1.401, 4.179e-3
-1.402, 4.221e-3
-1.403, 4.293e-3
-1.404, 4.330e-3
-1.405, 4.408e-3
-1.406, 4.447e-3
-1.407, 4.529e-3
-1.408, 4.547e-3
-1.409, 4.623e-3
-1.410, 4.637e-3
-1.411, 4.717e-3
-1.412, 4.763e-3
-1.413, 4.829e-3
-1.414, 4.875e-3
-1.415, 4.964e-3
-1.416, 5.005e-3
-1.417, 5.074e-3
-1.418, 5.120e-3
-1.419, 5.184e-3
-1.420, 5.222e-3
-1.421, 5.280e-3
-1.422, 5.366e-3
-1.423, 5.444e-3
-1.424, 5.427e-3
-1.425, 5.531e-3
-1.426, 5.571e-3
-1.427, 5.635e-3
-1.428, 5.714e-3
-1.429, 5.747e-3
-1.430, 5.760e-3
-1.431, 5.884e-3
-1.432, 5.891e-3
-1.433, 5.983e-3
-1.434, 6.025e-3
-1.435, 6.115e-3
-1.436, 6.153e-3
-1.437, 6.208e-3
-1.438, 6.288e-3
-1.439, 6.329e-3
-1.440, 6.394e-3
-1.441, 6.443e-3
-1.442, 6.475e-3
-1.443, 6.548e-3
-1.444, 6.577e-3
-1.445, 6.674e-3
-1.446, 6.706e-3
-1.447, 6.798e-3
-1.448, 6.848e-3
-1.449, 6.909e-3
-1.450, 6.942e-3
-1.451, 7.014e-3
-1.452, 7.056e-3
-1.453, 7.075e-3
-1.454, 7.134e-3
-1.455, 7.191e-3
-1.456, 7.257e-3
-1.457, 7.286e-3
-1.458, 7.383e-3
-1.459, 7.394e-3
-1.460, 7.490e-3
-1.461, 7.503e-3
-1.462, 7.577e-3
-1.463, 7.643e-3
-1.464, 7.706e-3
-1.465, 7.723e-3
-1.466, 7.787e-3
-1.467, 7.813e-3
-1.468, 7.891e-3
-1.469, 7.921e-3
-1.470, 7.988e-3
-1.471, 8.019e-3
-1.472, 8.097e-3
-1.473, 8.130e-3
-1.474, 8.213e-3
-1.475, 8.215e-3
-1.476, 8.284e-3
-1.477, 8.320e-3
-1.478, 8.391e-3
-1.479, 8.399e-3
-1.480, 8.477e-3
-1.481, 8.518e-3
-1.482, 8.545e-3
-1.483, 8.607e-3
-1.484, 8.654e-3
-1.485, 8.692e-3
-1.486, 8.771e-3
-1.487, 8.803e-3
-1.488, 8.906e-3
-1.489, 8.917e-3
-1.490, 8.955e-3
-1.491, 8.974e-3
-1.492, 9.006e-3
-1.493, 9.141e-3
-1.494, 9.106e-3
-1.495, 9.208e-3
-1.496, 9.232e-3
-1.497, 9.275e-3
-1.498, 9.351e-3
-1.499, 9.388e-3
-1.500, 9.373e-3
-1.499, 9.234e-3
-1.498, 9.125e-3
-1.497, 9.038e-3
-1.496, 8.954e-3
-1.495, 8.954e-3
-1.494, 8.827e-3
-1.493, 8.858e-3
-1.492, 8.609e-3
-1.491, 8.593e-3
-1.490, 8.529e-3
-1.489, 8.557e-3
-1.488, 8.402e-3
-1.487, 8.331e-3
-1.486, 8.254e-3
-1.485, 8.243e-3
-1.484, 8.114e-3
-1.483, 8.049e-3
-1.482, 8.019e-3
-1.481, 7.863e-3
-1.480, 7.807e-3
-1.479, 7.701e-3
-1.478, 7.616e-3
-1.477, 7.611e-3
-1.476, 7.372e-3
-1.475, 7.436e-3
-1.474, 7.301e-3
-1.473, 7.284e-3
-1.472, 7.169e-3
-1.471, 7.088e-3
-1.470, 7.024e-3
-1.469, 6.916e-3
-1.468, 6.821e-3
-1.467, 6.803e-3
-1.466, 6.727e-3
-1.465, 6.636e-3
-1.464, 6.552e-3
-1.463, 6.537e-3
-1.462, 6.471e-3
-1.461, 6.424e-3
-1.460, 6.474e-3
-1.459, 6.452e-3
-1.458, 6.333e-3
-1.457, 6.264e-3
-1.456, 6.165e-3
-1.455, 6.096e-3
-1.454, 6.036e-3
-1.453, 5.991e-3
-1.452, 5.909e-3
-1.451, 5.854e-3
-1.450, 5.893e-3
-1.449, 5.773e-3
-1.448, 5.709e-3
-1.447, 5.642e-3
-1.446, 5.598e-3
-1.445, 5.500e-3
-1.444, 5.445e-3
-1.443, 5.401e-3
-1.442, 5.337e-3
-1.441, 5.255e-3
-1.440, 5.214e-3
-1.439, 5.161e-3
-1.438, 5.075e-3
-1.437, 5.053e-3
-1.436, 4.973e-3
-1.435, 4.918e-3
-1.434, 4.854e-3
-1.433, 4.832e-3
-1.432, 4.728e-3
-1.431, 4.709e-3
-1.430, 4.647e-3
-1.429, 4.579e-3
-1.428, 4.517e-3
-1.427, 4.470e-3
-1.426, 4.401e-3
-1.425, 4.368e-3
-1.424, 4.350e-3
-1.423, 4.325e-3
-1.422, 4.243e-3
-1.421, 4.185e-3
-1.420, 4.175e-3
-1.419, 4.090e-3
-1.418, 4.032e-3
-1.417, 3.962e-3
-1.416, 3.921e-3
-1.415, 3.860e-3
-1.414, 3.813e-3
-1.413, 3.765e-3
-1.412, 3.703e-3
-1.411, 3.661e-3
-1.410, 3.609e-3
-1.409, 3.593e-3
-1.408, 3.507e-3
-1.407, 3.465e-3
-1.406, 3.416e-3
-1.405, 3.441e-3
-1.404, 3.358e-3
-1.403, 3.305e-3
-1.402, 3.329e-3
-1.401, 3.244e-3
-1.400, 3.195e-3
-1.399, 3.135e-3
-1.398, 3.096e-3
-1.397, 3.046e-3
-1.396, 3.020e-3
-1.395, 2.947e-3
-1.394, 2.921e-3
-1.393, 2.879e-3
-1.392, 2.834e-3
-1.391, 2.802e-3
-1.390, 2.747e-3
-1.389, 2.709e-3
-1.388, 2.671e-3
-1.387, 2.634e-3
-1.386, 2.554e-3
-1.385, 2.523e-3
-1.384, 2.491e-3
-1.383, 2.467e-3
-1.382, 2.420e-3
-1.381, 2.390e-3
-1.380, 2.341e-3
-1.379, 2.307e-3
-1.378, 2.274e-3
-1.377, 2.240e-3
-1.376, 2.169e-3
-1.375, 2.146e-3
-1.374, 2.099e-3
-1.373, 2.079e-3
-1.372, 2.044e-3
-1.371, 2.017e-3
-1.370, 1.976e-3
-1.369, 1.929e-3
-1.368, 1.929e-3
-1.367, 1.899e-3
-1.366, 1.862e-3
-1.365, 1.840e-3
-1.364, 1.787e-3
-1.363, 1.762e-3
-1.362, 1.722e-3
-1.361, 1.689e-3
-1.360, 1.650e-3
-1.359, 1.615e-3
-1.358, 1.587e-3
-1.357, 1.554e-3
-1.356, 1.550e-3
-1.355, 1.495e-3
-1.354, 1.470e-3
-1.353, 1.434e-3
-1.352, 1.414e-3
-1.351, 1.385e-3
-1.350, 1.341e-3
-1.349, 1.323e-3
-1.348, 1.302e-3
-1.347, 1.257e-3
-1.346, 1.244e-3
-1.345, 1.198e-3
-1.344, 1.182e-3
-1.343, 1.148e-3
-1.342, 1.127e-3
-1.341, 1.105e-3
-1.340, 1.070e-3
-1.339, 1.048e-3
-1.338, 1.025e-3
-1.337, 1.007e-3
-1.336, 9.811e-4
-1.335, 9.827e-4
-1.334, 9.306e-4
-1.333, 9.069e-4
-1.332, 8.878e-4
-1.331, 8.630e-4
-1.330, 8.376e-4
-1.329, 8.136e-4
-1.328, 7.941e-4
-1.327, 7.717e-4
-1.326, 7.503e-4
-1.325, 7.275e-4
-1.324, 7.059e-4
-1.323, 6.848e-4
-1.322, 6.698e-4
-1.321, 6.497e-4
-1.320, 6.365e-4
-1.319, 6.176e-4
-1.318, 5.957e-4
-1.317, 5.813e-4
-1.316, 5.602e-4
-1.315, 5.400e-4
-1.314, 5.196e-4
-1.313, 4.959e-4
-1.312, 4.829e-4
-1.311, 4.677e-4
-1.310, 4.481e-4
-1.309, 4.311e-4
-1.308, 4.141e-4
-1.307, 3.998e-4
-1.306, 3.843e-4
-1.305, 3.658e-4
-1.304, 3.482e-4
-1.303, 3.324e-4
-1.302, 3.204e-4
-1.301, 3.059e-4
-1.300, 2.924e-4
-1.299, 2.795e-4
-1.298, 2.669e-4
-1.297, 2.543e-4
-1.296, 2.380e-4
-1.295, 2.218e-4
-1.294, 2.137e-4
-1.293, 1.983e-4
-1.292, 1.857e-4
-1.291, 1.746e-4
-1.290, 1.597e-4
-1.289, 1.454e-4
-1.288, 1.379e-4
-1.287, 1.287e-4
-1.286, 1.186e-4
-1.285, 1.042e-4
-1.284, 8.810e-5
-1.283, 7.757e-5
-1.282, 6.843e-5
-1.281, 5.743e-5
-1.280, 4.328e-5
-1.279, 3.174e-5
-1.278, 2.345e-5
-1.277, 1.650e-5
-1.276, 6.331e-6
-1.275, -5.759e-6
-1.274, -1.642e-5
-1.273, -2.436e-5
-1.272, -3.012e-5
-1.271, -3.911e-5
-1.270, -5.012e-5
-1.269, -5.955e-5
-1.268, -6.671e-5
-1.267, -7.166e-5
-1.266, -7.996e-5
-1.265, -9.030e-5
-1.264, -9.900e-5
-1.263, -1.050e-4
-1.262, -1.103e-4
-1.261, -1.182e-4
-1.260, -1.277e-4
-1.259, -1.370e-4
-1.258, -1.414e-4
-1.257, -1.457e-4
-1.256, -1.514e-4
-1.255, -1.607e-4
-1.254, -1.682e-4
-1.253, -1.730e-4
-1.252, -1.762e-4
-1.251, -1.822e-4
-1.250, -1.890e-4
-1.249, -1.970e-4
-1.248, -2.005e-4
-1.247, -2.038e-4
-1.246, -2.081e-4
-1.245, -2.161e-4
-1.244, -2.216e-4
-1.243, -2.253e-4
-1.242, -2.282e-4
-1.241, -2.323e-4
-1.240, -2.397e-4
-1.239, -2.465e-4
-1.238, -2.481e-4
-1.237, -2.490e-4
-1.236, -2.536e-4
-1.235, -2.608e-4
-1.234, -2.662e-4
-1.233, -2.696e-4
-1.232, -2.704e-4
-1.231, -2.741e-4
-1.230, -2.808e-4
-1.229, -2.874e-4
-1.228, -2.903e-4
-1.227, -2.887e-4
-1.226, -2.939e-4
-1.225, -2.986e-4
-1.224, -3.037e-4
-1.223, -3.055e-4
-1.222, -3.065e-4
-1.221, -3.107e-4
-1.220, -3.143e-4
-1.219, -3.223e-4
-1.218, -3.231e-4
-1.217, -3.210e-4
-1.216, -3.229e-4
-1.215, -3.297e-4
-1.214, -3.346e-4
-1.213, -3.363e-4
-1.212, -3.393e-4
-1.211, -3.405e-4
-1.210, -3.448e-4
-1.209, -3.496e-4
-1.208, -3.477e-4
-1.207, -3.484e-4
-1.206, -3.536e-4
-1.205, -3.590e-4
-1.204, -3.642e-4
-1.203, -3.651e-4
-1.202, -3.636e-4
-1.201, -3.677e-4
-1.200, -3.698e-4
-1.199, -3.776e-4
-1.198, -3.756e-4
-1.197, -3.769e-4
-1.196, -3.795e-4
-1.195, -3.858e-4
-1.194, -3.916e-4
-1.193, -3.888e-4
-1.192, -3.893e-4
-1.191, -3.897e-4
-1.190, -3.984e-4
-1.189, -4.012e-4
-1.188, -4.034e-4
-1.187, -4.034e-4
-1.186, -4.180e-4
-1.185, -4.180e-4
-1.184, -4.256e-4
-1.183, -4.520e-4
-1.182, -4.373e-4
-1.181, -4.339e-4
-1.180, -4.378e-4
-1.179, -4.355e-4
-1.178, -4.412e-4
-1.177, -4.374e-4
-1.176, -4.409e-4
-1.175, -4.452e-4
-1.174, -4.486e-4
-1.173, -4.512e-4
-1.172, -4.475e-4
-1.171, -4.539e-4
-1.170, -4.573e-4
-1.169, -4.633e-4
-1.168, -4.637e-4
-1.167, -4.643e-4
-1.166, -4.688e-4
-1.165, -4.725e-4
-1.164, -4.786e-4
-1.163, -4.789e-4
-1.162, -4.809e-4
-1.161, -4.848e-4
-1.160, -4.875e-4
-1.159, -4.950e-4
-1.158, -4.960e-4
-1.157, -4.989e-4
-1.156, -4.982e-4
-1.155, -5.079e-4
-1.154, -5.105e-4
-1.153, -5.160e-4
-1.152, -5.118e-4
-1.151, -5.187e-4
-1.150, -5.297e-4
-1.149, -5.287e-4
-1.148, -5.413e-4
-1.147, -5.221e-4
-1.146, -5.450e-4
-1.145, -5.428e-4
-1.144, -5.559e-4
-1.143, -5.581e-4
-1.142, -5.566e-4
-1.141, -5.674e-4
-1.140, -5.692e-4
-1.139, -5.812e-4
-1.138, -5.877e-4
-1.137, -5.925e-4
-1.136, -5.996e-4
-1.135, -6.152e-4
-1.134, -6.264e-4
-1.133, -6.390e-4
-1.132, -6.484e-4
-1.131, -6.597e-4
-1.130, -6.786e-4
-1.129, -6.965e-4
-1.128, -7.144e-4
-1.127, -7.315e-4
-1.126, -7.502e-4
-1.125, -7.767e-4
-1.124, -7.994e-4
-1.123, -8.245e-4
-1.122, -8.448e-4
-1.121, -8.691e-4
-1.120, -9.073e-4
-1.119, -9.296e-4
-1.118, -9.525e-4
-1.117, -9.798e-4
-1.116, -1.009e-3
-1.115, -1.042e-3
-1.114, -1.065e-3
-1.113, -1.098e-3
-1.112, -1.128e-3
-1.111, -1.142e-3
-1.110, -1.188e-3
-1.109, -1.203e-3
-1.108, -1.236e-3
-1.107, -1.259e-3
-1.106, -1.283e-3
-1.105, -1.319e-3
-1.104, -1.346e-3
-1.103, -1.374e-3
-1.102, -1.400e-3
-1.101, -1.425e-3
-1.100, -1.455e-3
-1.099, -1.471e-3
-1.098, -1.501e-3
-1.097, -1.530e-3
-1.096, -1.553e-3
-1.095, -1.594e-3
-1.094, -1.608e-3
-1.093, -1.662e-3
-1.092, -1.661e-3
-1.091, -1.679e-3
-1.090, -1.721e-3
-1.089, -1.743e-3
-1.088, -1.767e-3
-1.087, -1.795e-3
-1.086, -1.824e-3
-1.085, -1.854e-3
-1.084, -1.892e-3
-1.083, -1.905e-3
-1.082, -1.926e-3
-1.081, -1.961e-3
-1.080, -1.982e-3
-1.079, -2.007e-3
-1.078, -2.036e-3
-1.077, -2.051e-3
-1.076, -2.083e-3
-1.075, -2.105e-3
-1.074, -2.134e-3
-1.073, -2.164e-3
-1.072, -2.191e-3
-1.071, -2.219e-3
-1.070, -2.229e-3
-1.069, -2.273e-3
-1.068, -2.283e-3
-1.067, -2.314e-3
-1.066, -2.337e-3
-1.065, -2.365e-3
-1.064, -2.386e-3
-1.063, -2.403e-3
-1.062, -2.430e-3
-1.061, -2.451e-3
-1.060, -2.478e-3
-1.059, -2.519e-3
-1.058, -2.512e-3
-1.057, -2.549e-3
-1.056, -2.565e-3
-1.055, -2.583e-3
-1.054, -2.633e-3
-1.053, -2.648e-3
-1.052, -2.649e-3
-1.051, -2.676e-3
-1.050, -2.704e-3
-1.049, -2.734e-3
-1.048, -2.754e-3
-1.047, -2.760e-3
-1.046, -2.779e-3
-1.045, -2.769e-3
-1.044, -2.833e-3
-1.043, -2.872e-3
-1.042, -2.867e-3
-1.041, -2.898e-3
-1.040, -2.899e-3
-1.039, -2.933e-3
-1.038, -2.948e-3
-1.037, -2.950e-3
-1.036, -2.970e-3
-1.035, -2.992e-3
-1.034, -3.020e-3
-1.033, -3.039e-3
-1.032, -3.056e-3
-1.031, -3.066e-3
-1.030, -3.083e-3
-1.029, -3.110e-3
-1.028, -3.102e-3
-1.027, -3.132e-3
-1.026, -3.144e-3
-1.025, -3.147e-3
-1.024, -3.204e-3
-1.023, -3.196e-3
-1.022, -3.211e-3
-1.021, -3.219e-3
-1.020, -3.222e-3
-1.019, -3.257e-3
-1.018, -3.249e-3
-1.017, -3.285e-3
-1.016, -3.279e-3
-1.015, -3.304e-3
-1.014, -3.332e-3
-1.013, -3.304e-3
-1.012, -3.338e-3
-1.011, -3.350e-3
-1.010, -3.343e-3
-1.009, -3.379e-3
-1.008, -3.356e-3
-1.007, -3.382e-3
-1.006, -3.396e-3
-1.005, -3.387e-3
-1.004, -3.449e-3
-1.003, -3.440e-3
-1.002, -3.426e-3
-1.001, -3.436e-3
-1.000, -3.365e-3
-1.001, -3.176e-3
-1.002, -3.061e-3
-1.003, -2.914e-3
-1.004, -2.800e-3
-1.005, -2.686e-3
-1.006, -2.582e-3
-1.007, -2.476e-3
-1.008, -2.382e-3
-1.009, -2.288e-3
-1.010, -2.191e-3
-1.011, -2.108e-3
-1.012, -2.026e-3
-1.013, -1.932e-3
-1.014, -1.859e-3
-1.015, -1.778e-3
-1.016, -1.703e-3
-1.017, -1.637e-3
-1.018, -1.567e-3
-1.019, -1.488e-3
-1.020, -1.425e-3
-1.021, -1.368e-3
-1.022, -1.296e-3
-1.023, -1.231e-3
-1.024, -1.187e-3
-1.025, -1.118e-3
-1.026, -1.074e-3
-1.027, -1.017e-3
-1.028, -9.687e-4
-1.029, -9.111e-4
-1.030, -8.708e-4
-1.031, -8.214e-4
-1.032, -7.756e-4
-1.033, -7.332e-4
-1.034, -6.872e-4
-1.035, -6.536e-4
-1.036, -6.097e-4
-1.037, -5.708e-4
-1.038, -5.314e-4
-1.039, -4.943e-4
-1.040, -4.640e-4
-1.041, -4.334e-4
-1.042, -4.000e-4
-1.043, -3.636e-4
-1.044, -3.326e-4
-1.045, -3.055e-4
-1.046, -2.763e-4
-1.047, -2.477e-4
-1.048, -2.173e-4
-1.049, -1.915e-4
-1.050, -1.682e-4
-1.051, -1.456e-4
-1.052, -1.201e-4
-1.053, -9.450e-5
-1.054, -7.159e-5
-1.055, -5.206e-5
-1.056, -3.334e-5
-1.057, -1.134e-5
-1.058, 1.134e-5
-1.059, 3.064e-5
-1.060, 4.745e-5
-1.061, 6.341e-5
-1.062, 8.254e-5
-1.063, 1.021e-4
-1.064, 1.192e-4
-1.065, 1.325e-4
-1.066, 1.467e-4
-1.067, 1.621e-4
-1.068, 1.839e-4
-1.069, 1.955e-4
-1.070, 2.055e-4
-1.071, 2.197e-4
-1.072, 2.318e-4
-1.073, 2.497e-4
-1.074, 2.612e-4
-1.075, 2.735e-4
-1.076, 2.859e-4
-1.077, 2.971e-4
-1.078, 3.106e-4
-1.079, 3.203e-4
-1.080, 3.299e-4
-1.081, 3.374e-4
-1.082, 3.492e-4
-1.083, 3.645e-4
-1.084, 3.723e-4
-1.085, 3.835e-4
-1.086, 3.900e-4
-1.087, 4.010e-4
-1.088, 4.133e-4
-1.089, 4.206e-4
-1.090, 4.306e-4
-1.091, 4.345e-4
-1.092, 4.439e-4
-1.093, 4.569e-4
-1.094, 4.660e-4
-1.095, 4.725e-4
-1.096, 4.785e-4
-1.097, 4.900e-4
-1.098, 4.980e-4
-1.099, 5.053e-4
-1.100, 5.159e-4
-1.101, 5.231e-4
-1.102, 5.276e-4
-1.103, 5.420e-4
-1.104, 5.485e-4
-1.105, 5.514e-4
-1.106, 5.587e-4
-1.107, 5.654e-4
-1.108, 5.790e-4
-1.109, 5.877e-4
-1.110, 5.885e-4
-1.111, 5.982e-4
-1.112, 6.059e-4
-1.113, 6.147e-4
-1.114, 6.276e-4
-1.115, 6.253e-4
-1.116, 6.389e-4
-1.117, 6.459e-4
-1.118, 6.554e-4
-1.119, 6.634e-4
-1.120, 6.681e-4
-1.121, 6.759e-4
-1.122, 6.825e-4
-1.123, 6.898e-4
-1.124, 7.025e-4
-1.125, 7.062e-4
-1.126, 7.236e-4
-1.127, 7.168e-4
-1.128, 7.358e-4
-1.129, 7.404e-4
-1.130, 7.426e-4
-1.131, 7.566e-4
-1.132, 7.633e-4
-1.133, 7.764e-4
-1.134, 7.835e-4
-1.135, 7.875e-4
-1.136, 7.946e-4
-1.137, 8.051e-4
-1.138, 8.169e-4
-1.139, 8.266e-4
-1.140, 8.346e-4
-1.141, 8.393e-4
-1.142, 8.526e-4
-1.143, 8.612e-4
-1.144, 8.722e-4
-1.145, 8.778e-4
-1.146, 8.867e-4
-1.147, 8.969e-4
-1.148, 9.124e-4
-1.149, 9.193e-4
-1.150, 9.273e-4
-1.151, 9.375e-4
-1.152, 9.443e-4
-1.153, 9.572e-4
-1.154, 9.727e-4
-1.155, 9.796e-4
-1.156, 9.879e-4
-1.157, 1.002e-3
-1.158, 1.011e-3
-1.159, 1.023e-3
-1.160, 1.030e-3
-1.161, 1.037e-3
-1.162, 1.050e-3
-1.163, 1.064e-3
-1.164, 1.072e-3
-1.165, 1.092e-3
-1.166, 1.093e-3
-1.167, 1.110e-3
-1.168, 1.125e-3
-1.169, 1.140e-3
-1.170, 1.144e-3
-1.171, 1.157e-3
-1.172, 1.169e-3
-1.173, 1.187e-3
-1.174, 1.200e-3
-1.175, 1.207e-3
-1.176, 1.225e-3
-1.177, 1.226e-3
-1.178, 1.259e-3
-1.179, 1.264e-3
-1.180, 1.277e-3
-1.181, 1.277e-3
-1.182, 1.305e-3
-1.183, 1.324e-3
-1.184, 1.342e-3
-1.185, 1.345e-3
-1.186, 1.355e-3
-1.187, 1.377e-3
-1.188, 1.390e-3
-1.189, 1.401e-3
-1.190, 1.420e-3
-1.191, 1.431e-3
-1.192, 1.450e-3
-1.193, 1.468e-3
-1.194, 1.487e-3
-1.195, 1.493e-3
-1.196, 1.514e-3
-1.197, 1.520e-3
-1.198, 1.542e-3
-1.199, 1.560e-3
-1.200, 1.584e-3
-1.201, 1.596e-3
-1.202, 1.603e-3
-1.203, 1.635e-3
-1.204, 1.640e-3
-1.205, 1.657e-3
-1.206, 1.672e-3
-1.207, 1.694e-3
-1.208, 1.719e-3
-1.209, 1.734e-3
-1.210, 1.746e-3
-1.211, 1.757e-3
-1.212, 1.791e-3
-1.213, 1.795e-3
-1.214, 1.819e-3
-1.215, 1.836e-3
-1.216, 1.865e-3
-1.217, 1.885e-3
-1.218, 1.903e-3
-1.219, 1.901e-3
-1.220, 1.932e-3
-1.221, 1.943e-3
-1.222, 1.965e-3
-1.223, 2.007e-3
-1.224, 2.008e-3
-1.225, 2.039e-3
-1.226, 2.054e-3
-1.227, 2.070e-3
-1.228, 2.097e-3
-1.229, 2.109e-3
-1.230, 2.121e-3
-1.231, 2.146e-3
-1.232, 2.173e-3
-1.233, 2.215e-3
-1.234, 2.229e-3
-1.235, 2.241e-3
-1.236, 2.250e-3
-1.237, 2.278e-3
-1.238, 2.304e-3
-1.239, 2.320e-3
-1.240, 2.336e-3
-1.241, 2.368e-3
-1.242, 2.375e-3
-1.243, 2.409e-3
-1.244, 2.429e-3
-1.245, 2.449e-3
-1.246, 2.466e-3
-1.247, 2.479e-3
-1.248, 2.512e-3
-1.249, 2.541e-3
-1.250, 2.553e-3
-1.251, 2.543e-3
-1.252, 2.597e-3
-1.253, 2.595e-3
-1.254, 2.625e-3
-1.255, 2.643e-3
-1.256, 2.640e-3
-1.257, 2.700e-3
-1.258, 2.707e-3
-1.259, 2.749e-3
-1.260, 2.749e-3
-1.261, 2.758e-3
-1.262, 2.785e-3
-1.263, 2.790e-3
-1.264, 2.799e-3
-1.265, 2.815e-3
-1.266, 2.846e-3
-1.267, 2.857e-3
-1.268, 2.875e-3
-1.269, 2.890e-3
-1.270, 2.885e-3
-1.271, 2.889e-3
-1.272, 2.916e-3
-1.273, 2.926e-3
-1.274, 2.948e-3
-1.275, 2.945e-3
-1.276, 2.942e-3
-1.277, 2.950e-3
-1.278, 2.953e-3
-1.279, 2.966e-3
-1.280, 2.978e-3
-1.281, 2.937e-3
-1.282, 2.961e-3
-1.283, 2.950e-3
-1.284, 2.953e-3
-1.285, 2.945e-3
-1.286, 2.953e-3
-1.287, 2.912e-3
-1.288, 2.926e-3
-1.289, 2.874e-3
-1.290, 2.867e-3
-1.291, 2.835e-3
-1.292, 2.815e-3
-1.293, 2.800e-3
-1.294, 2.773e-3
-1.295, 2.742e-3
-1.296, 2.697e-3
-1.297, 2.671e-3
-1.298, 2.631e-3
-1.299, 2.588e-3
-1.300, 2.528e-3
-1.301, 2.483e-3
-1.302, 2.430e-3
-1.303, 2.389e-3
-1.304, 2.329e-3
-1.305, 2.262e-3
-1.306, 2.218e-3
-1.307, 2.152e-3
-1.308, 2.091e-3
-1.309, 2.028e-3
-1.310, 1.971e-3
-1.311, 1.905e-3
-1.312, 1.843e-3
-1.313, 1.793e-3
-1.314, 1.740e-3
-1.315, 1.688e-3
-1.316, 1.627e-3
-1.317, 1.589e-3
-1.318, 1.548e-3
-1.319, 1.522e-3
-1.320, 1.468e-3
-1.321, 1.454e-3
-1.322, 1.426e-3
-1.323, 1.409e-3
-1.324, 1.407e-3
-1.325, 1.382e-3
-1.326, 1.373e-3
-1.327, 1.371e-3
-1.328, 1.380e-3
-1.329, 1.369e-3
-1.330, 1.381e-3
-1.331, 1.371e-3
-1.332, 1.385e-3
-1.333, 1.389e-3
-1.334, 1.400e-3
-1.335, 1.415e-3
-1.336, 1.426e-3
-1.337, 1.438e-3
-1.338, 1.468e-3
-1.339, 1.479e-3
-1.340, 1.479e-3
-1.341, 1.495e-3
-1.342, 1.529e-3
-1.343, 1.537e-3
-1.344, 1.574e-3
-1.345, 1.572e-3
-1.346, 1.596e-3
-1.347, 1.628e-3
-1.348, 1.646e-3
-1.349, 1.679e-3
-1.350, 1.697e-3
-1.351, 1.712e-3
-1.352, 1.743e-3
-1.353, 1.759e-3
-1.354, 1.812e-3
-1.355, 1.811e-3
-1.356, 1.849e-3
-1.357, 1.883e-3
-1.358, 1.901e-3
-1.359, 1.944e-3
-1.360, 1.978e-3
-1.361, 1.985e-3
-1.362, 2.008e-3
-1.363, 2.081e-3
-1.364, 2.079e-3
-1.365, 2.145e-3
-1.366, 2.138e-3
-1.367, 2.200e-3
-1.368, 2.209e-3
-1.369, 2.253e-3
-1.370, 2.281e-3
-1.371, 2.313e-3
-1.372, 2.361e-3
-1.373, 2.418e-3
-1.374, 2.409e-3
-1.375, 2.486e-3
-1.376, 2.505e-3
-1.377, 2.556e-3
-1.378, 2.569e-3
-1.379, 2.650e-3
-1.380, 2.651e-3
-1.381, 2.714e-3
-1.382, 2.740e-3
-1.383, 2.797e-3
-1.384, 2.831e-3
-1.385, 2.856e-3
-1.386, 2.918e-3
-1.387, 2.950e-3
-1.388, 3.018e-3
-1.389, 3.033e-3
-1.390, 3.115e-3
-1.391, 3.125e-3
-1.392, 3.156e-3
-1.393, 3.247e-3
-1.394, 3.241e-3
-1.395, 3.325e-3
-1.396, 3.346e-3
-1.397, 3.428e-3
-1.398, 3.462e-3
-1.399, 3.496e-3
-1.400, 3.581e-3
-1.401, 3.597e-3
-1.402, 3.626e-3
-1.403, 3.705e-3
-1.404, 3.731e-3
-1.405, 3.794e-3
-1.406, 3.836e-3
-1.407, 3.883e-3
-1.408, 3.944e-3
-1.409, 4.056e-3
-1.410, 3.970e-3
-1.411, 4.129e-3
-1.412, 4.113e-3
-1.413, 4.183e-3
-1.414, 4.263e-3
-1.415, 4.290e-3
-1.416, 4.383e-3
-1.417, 4.415e-3
-1.418, 4.466e-3
-1.419, 4.563e-3
-1.420, 4.504e-3
-1.421, 4.633e-3
-1.422, 4.661e-3
-1.423, 4.722e-3
-1.424, 4.832e-3
-1.425, 4.855e-3
-1.426, 4.897e-3
-1.427, 4.949e-3
-1.428, 4.992e-3
-1.429, 5.063e-3
-1.430, 5.108e-3
-1.431, 5.168e-3
-1.432, 5.229e-3
-1.433, 5.258e-3
-1.434, 5.330e-3
-1.435, 5.387e-3
-1.436, 5.458e-3
-1.437, 5.473e-3
-1.438, 5.596e-3
-1.439, 5.618e-3
-1.440, 5.678e-3
-1.441, 5.730e-3
-1.442, 5.777e-3
-1.443, 5.820e-3
-1.444, 5.895e-3
-1.445, 5.950e-3
-1.446, 5.993e-3
-1.447, 6.062e-3
-1.448, 6.091e-3
-1.449, 6.168e-3
-1.450, 6.204e-3
-1.451, 6.269e-3
-1.452, 6.333e-3
-1.453, 6.380e-3
-1.454, 6.447e-3
-1.455, 6.498e-3
-1.456, 6.547e-3
-1.457, 6.634e-3
-1.458, 6.672e-3
-1.459, 6.704e-3
-1.460, 6.789e-3
-1.461, 6.824e-3
-1.462, 6.871e-3
-1.463, 6.942e-3
-1.464, 7.004e-3
-1.465, 7.048e-3
-1.466, 7.125e-3
-1.467, 7.149e-3
-1.468, 7.232e-3
-1.469, 7.265e-3
-1.470, 7.309e-3
-1.471, 7.309e-3
-1.472, 7.356e-3
-1.473, 7.420e-3
-1.474, 7.489e-3
-1.475, 7.557e-3
-1.476, 7.615e-3
-1.477, 7.639e-3
-1.478, 7.725e-3
-1.479, 7.694e-3
-1.480, 7.772e-3
-1.481, 7.817e-3
-1.482, 7.869e-3
-1.483, 7.942e-3
-1.484, 7.946e-3
-1.485, 8.083e-3
-1.486, 7.943e-3
-1.487, 8.125e-3
-1.488, 8.194e-3
-1.489, 8.230e-3
-1.490, 8.251e-3
-1.491, 8.255e-3
-1.492, 8.317e-3
-1.493, 8.343e-3
-1.494, 8.397e-3
-1.495, 8.483e-3
-1.496, 8.417e-3
-1.497, 8.541e-3
-1.498, 8.525e-3
-1.499, 8.715e-3
-1.500, 8.605e-3
-1.499, 8.499e-3
-1.498, 8.437e-3
-1.497, 8.335e-3
-1.496, 8.244e-3
-1.495, 8.194e-3
-1.494, 8.074e-3
-1.493, 8.003e-3
-1.492, 7.966e-3
-1.491, 7.807e-3
-1.490, 7.823e-3
-1.489, 7.650e-3
-1.488, 7.638e-3
-1.487, 7.613e-3
-1.486, 7.468e-3
-1.485, 7.382e-3
-1.484, 7.346e-3
-1.483, 7.308e-3
-1.482, 7.152e-3
-1.481, 7.086e-3
-1.480, 6.968e-3
-1.479, 6.877e-3
-1.478, 6.883e-3
-1.477, 6.810e-3
-1.476, 6.764e-3
-1.475, 6.848e-3
-1.474, 6.829e-3
-1.473, 6.705e-3
-1.472, 6.654e-3
-1.471, 6.569e-3
-1.470, 6.493e-3
-1.469, 6.399e-3
-1.468, 6.350e-3
-1.467, 6.341e-3
-1.466, 6.369e-3
-1.465, 6.215e-3
-1.464, 6.129e-3
-1.463, 6.096e-3
-1.462, 5.947e-3
-1.461, 5.942e-3
-1.460, 5.839e-3
-1.459, 5.790e-3
-1.458, 5.722e-3
-1.457, 5.637e-3
-1.456, 5.596e-3
-1.455, 5.530e-3
-1.454, 5.468e-3
-1.453, 5.399e-3
-1.452, 5.316e-3
-1.451, 5.311e-3
-1.450, 5.277e-3
-1.449, 5.235e-3
-1.448, 5.242e-3
-1.447, 5.224e-3
-1.446, 5.171e-3
-1.445, 5.160e-3
-1.444, 5.170e-3
-1.443, 5.185e-3
-1.442, 5.029e-3
-1.441, 4.976e-3
-1.440, 5.017e-3
-1.439, 4.981e-3
-1.438, 4.984e-3
-1.437, 4.933e-3
-1.436, 4.911e-3
-1.435, 4.885e-3
-1.434, 4.839e-3
-1.433, 4.868e-3
-1.432, 4.736e-3
-1.431, 4.784e-3
-1.430, 4.696e-3
-1.429, 4.649e-3
-1.428, 4.588e-3
-1.427, 4.494e-3
-1.426, 4.472e-3
-1.425, 4.409e-3
-1.424, 4.386e-3
-1.423, 4.309e-3
-1.422, 4.251e-3
-1.421, 4.201e-3
-1.420, 4.141e-3
-1.419, 4.066e-3
-1.418, 4.023e-3
-1.417, 3.987e-3
-1.416, 3.947e-3
-1.415, 3.864e-3
-1.414, 3.814e-3
-1.413, 3.767e-3
-1.412, 3.718e-3
-1.411, 3.683e-3
-1.410, 3.622e-3
-1.409, 3.586e-3
-1.408, 3.549e-3
-1.407, 3.463e-3
-1.406, 3.447e-3
-1.405, 3.371e-3
-1.404, 3.334e-3
-1.403, 3.283e-3
-1.402, 3.236e-3
-1.401, 3.179e-3
-1.400, 3.108e-3
-1.399, 3.070e-3
-1.398, 3.029e-3
-1.397, 2.966e-3
-1.396, 2.941e-3
-1.395, 2.887e-3
-1.394, 2.844e-3
-1.393, 2.806e-3
-1.392, 2.765e-3
-1.391, 2.730e-3
-1.390, 2.657e-3
-1.389, 2.622e-3
-1.388, 2.571e-3
-1.387, 2.535e-3
-1.386, 2.492e-3
-1.385, 2.463e-3
-1.384, 2.416e-3
-1.383, 2.358e-3
-1.382, 2.327e-3
-1.381, 2.303e-3
-1.380, 2.265e-3
-1.379, 2.220e-3
-1.378, 2.171e-3
-1.377, 2.151e-3
-1.376, 2.095e-3
-1.375, 2.082e-3
-1.374, 2.009e-3
-1.373, 2.001e-3
-1.372, 1.952e-3
-1.371, 1.931e-3
-1.370, 1.870e-3
-1.369, 1.857e-3
-1.368, 1.822e-3
-1.367, 1.762e-3
-1.366, 1.732e-3
-1.365, 1.703e-3
-1.364, 1.682e-3
-1.363, 1.644e-3
-1.362, 1.591e-3
-1.361, 1.575e-3
-1.360, 1.552e-3
-1.359, 1.516e-3
-1.358, 1.485e-3
-1.357, 1.477e-3
-1.356, 1.418e-3
-1.355, 1.422e-3
-1.354, 1.374e-3
-1.353, 1.334e-3
-1.352, 1.306e-3
-1.351, 1.300e-3
-1.350, 1.272e-3
-1.349, 1.223e-3
-1.348, 1.203e-3
-1.347, 1.181e-3
-1.346, 1.156e-3
-1.345, 1.124e-3
-1.344, 1.104e-3
-1.343, 1.066e-3
-1.342, 1.047e-3
-1.341, 1.005e-3
-1.340, 9.875e-4
-1.339, 9.641e-4
-1.338, 9.309e-4
-1.337, 9.223e-4
-1.336, 8.843e-4
-1.335, 8.659e-4
-1.334, 8.360e-4
-1.333, 8.219e-4
-1.332, 7.946e-4
-1.331, 7.733e-4
-1.330, 7.541e-4
-1.329, 7.274e-4
-1.328, 7.101e-4
-1.327, 6.871e-4
-1.326, 6.688e-4
-1.325, 6.482e-4
-1.324, 6.251e-4
-1.323, 6.056e-4
-1.322, 5.858e-4
-1.321, 5.708e-4
-1.320, 5.507e-4
-1.319, 5.299e-4
-1.318, 5.116e-4
-1.317, 4.923e-4
-1.316, 4.827e-4
-1.315, 4.596e-4
-1.314, 4.386e-4
-1.313, 4.239e-4
-1.312, 4.049e-4
-1.311, 3.948e-4
-1.310, 3.767e-4
-1.309, 3.599e-4
-1.308, 3.439e-4
-1.307, 3.322e-4
-1.306, 3.174e-4
-1.305, 2.998e-4
-1.304, 2.839e-4
-1.303, 2.685e-4
-1.302, 2.579e-4
-1.301, 2.456e-4
-1.300, 2.293e-4
-1.299, 2.152e-4
-1.298, 2.008e-4
-1.297, 1.904e-4
-1.296, 1.795e-4
-1.295, 1.680e-4
-1.294, 1.537e-4
-1.293, 1.418e-4
-1.292, 1.315e-4
-1.291, 1.207e-4
-1.290, 1.079e-4
-1.289, 9.444e-5
-1.288, 8.476e-5
-1.287, 7.613e-5
-1.286, 6.692e-5
-1.285, 5.715e-5
-1.284, 4.412e-5
-1.283, 3.414e-5
-1.282, 2.668e-5
-1.281, 1.806e-5
-1.280, 6.676e-6
-1.279, -4.095e-6
-1.278, -1.312e-5
-1.277, -1.883e-5
-1.276, -2.572e-5
-1.275, -3.545e-5
-1.274, -4.550e-5
-1.273, -5.419e-5
-1.272, -5.884e-5
-1.271, -6.449e-5
-1.270, -7.395e-5
-1.269, -8.257e-5
-1.268, -9.118e-5
-1.267, -9.541e-5
-1.266, -9.986e-5
-1.265, -1.086e-4
-1.264, -1.168e-4
-1.263, -1.244e-4
-1.262, -1.279e-4
-1.261, -1.321e-4
-1.260, -1.400e-4
-1.259, -1.488e-4
-1.258, -1.554e-4
-1.257, -1.593e-4
-1.256, -1.598e-4
-1.255, -1.685e-4
-1.254, -1.764e-4
-1.253, -1.802e-4
-1.252, -1.858e-4
-1.251, -1.858e-4
-1.250, -1.937e-4
-1.249, -2.010e-4
-1.248, -2.036e-4
-1.247, -2.077e-4
-1.246, -2.141e-4
-1.245, -2.160e-4
-1.244, -2.210e-4
-1.243, -2.289e-4
-1.242, -2.285e-4
-1.241, -2.315e-4
-1.240, -2.361e-4
-1.239, -2.440e-4
-1.238, -2.469e-4
-1.237, -2.486e-4
-1.236, -2.497e-4
-1.235, -2.544e-4
-1.234, -2.621e-4
-1.233, -2.646e-4
-1.232, -2.656e-4
-1.231, -2.673e-4
-1.230, -2.716e-4
-1.229, -2.802e-4
-1.228, -2.792e-4
-1.227, -2.835e-4
-1.226, -2.834e-4
-1.225, -2.875e-4
-1.224, -2.938e-4
-1.223, -2.953e-4
-1.222, -2.957e-4
-1.221, -2.991e-4
-1.220, -2.989e-4
-1.219, -3.092e-4
-1.218, -3.092e-4
-1.217, -3.104e-4
-1.216, -3.103e-4
-1.215, -3.132e-4
-1.214, -3.217e-4
-1.213, -3.231e-4
-1.212, -3.219e-4
-1.211, -3.224e-4
-1.210, -3.276e-4
-1.209, -3.336e-4
-1.208, -3.348e-4
-1.207, -3.343e-4
-1.206, -3.355e-4
-1.205, -3.426e-4
-1.204, -3.475e-4
-1.203, -3.475e-4
-1.202, -3.468e-4
-1.201, -3.470e-4
-1.200, -3.520e-4
-1.199, -3.579e-4
-1.198, -3.657e-4
-1.197, -3.626e-4
-1.196, -3.640e-4
-1.195, -3.660e-4
-1.194, -3.679e-4
-1.193, -3.729e-4
-1.192, -3.709e-4
-1.191, -3.699e-4
-1.190, -3.752e-4
-1.189, -3.795e-4
-1.188, -3.825e-4
-1.187, -3.815e-4
-1.186, -3.820e-4
-1.185, -3.858e-4
-1.184, -3.909e-4
-1.183, -3.938e-4
-1.182, -3.919e-4
-1.181, -3.929e-4
-1.180, -3.999e-4
-1.179, -4.057e-4
-1.178, -4.080e-4
-1.177, -4.068e-4
-1.176, -4.091e-4
-1.175, -4.111e-4
-1.174, -4.134e-4
-1.173, -4.171e-4
-1.172, -4.203e-4
-1.171, -4.206e-4
-1.170, -4.257e-4
-1.169, -4.313e-4
-1.168, -4.342e-4
-1.167, -4.323e-4
-1.166, -4.347e-4
-1.165, -4.365e-4
-1.164, -4.409e-4
-1.163, -4.472e-4
-1.162, -4.483e-4
-1.161, -4.493e-4
-1.160, -4.512e-4
-1.159, -4.602e-4
-1.158, -4.629e-4
-1.157, -4.592e-4
-1.156, -4.623e-4
-1.155, -4.663e-4
-1.154, -4.756e-4
-1.153, -4.793e-4
-1.152, -4.792e-4
-1.151, -4.800e-4
-1.150, -4.864e-4
-1.149, -4.897e-4
-1.148, -4.957e-4
-1.147, -4.963e-4
-1.146, -4.981e-4
-1.145, -5.027e-4
-1.144, -5.082e-4
-1.143, -5.167e-4
-1.142, -5.181e-4
-1.141, -5.211e-4
-1.140, -5.296e-4
-1.139, -5.392e-4
-1.138, -5.455e-4
-1.137, -5.510e-4
-1.136, -5.563e-4
-1.135, -5.675e-4
-1.134, -5.740e-4
-1.133, -5.908e-4
-1.132, -5.977e-4
-1.131, -6.062e-4
-1.130, -6.214e-4
-1.129, -6.415e-4
-1.128, -6.574e-4
-1.127, -6.683e-4
-1.126, -6.872e-4
-1.125, -7.065e-4
-1.124, -7.310e-4
-1.123, -7.493e-4
-1.122, -7.704e-4
-1.121, -7.837e-4
-1.120, -8.086e-4
-1.119, -8.330e-4
-1.118, -8.603e-4
-1.117, -8.804e-4
-1.116, -9.025e-4
-1.115, -9.294e-4
-1.114, -9.552e-4
-1.113, -9.784e-4
-1.112, -1.000e-3
-1.111, -1.018e-3
-1.110, -1.047e-3
-1.109, -1.076e-3
-1.108, -1.104e-3
-1.107, -1.171e-3
-1.106, -1.245e-3
-1.105, -1.221e-3
-1.104, -1.248e-3
-1.103, -1.281e-3
-1.102, -1.278e-3
-1.101, -1.318e-3
-1.100, -1.342e-3
-1.099, -1.389e-3
-1.098, -1.374e-3
-1.097, -1.413e-3
-1.096, -1.435e-3
-1.095, -1.443e-3
-1.094, -1.500e-3
-1.093, -1.496e-3
-1.092, -1.513e-3
-1.091, -1.552e-3
-1.090, -1.564e-3
-1.089, -1.588e-3
-1.088, -1.644e-3
-1.087, -1.661e-3
-1.086, -1.653e-3
-1.085, -1.695e-3
-1.084, -1.710e-3
-1.083, -1.719e-3
-1.082, -1.757e-3
-1.081, -1.777e-3
-1.080, -1.792e-3
-1.079, -1.828e-3
-1.078, -1.846e-3
-1.077, -1.865e-3
-1.076, -1.900e-3
-1.075, -1.898e-3
-1.074, -1.934e-3
-1.073, -1.968e-3
-1.072, -1.954e-3
-1.071, -1.998e-3
-1.070, -2.013e-3
-1.069, -2.044e-3
-1.068, -2.085e-3
-1.067, -2.077e-3
-1.066, -2.100e-3
-1.065, -2.135e-3
-1.064, -2.129e-3
-1.063, -2.168e-3
-1.062, -2.195e-3
-1.061, -2.211e-3
-1.060, -2.222e-3
-1.059, -2.268e-3
-1.058, -2.297e-3
-1.057, -2.294e-3
-1.056, -2.294e-3
-1.055, -2.320e-3
-1.054, -2.335e-3
-1.053, -2.370e-3
-1.052, -2.417e-3
-1.051, -2.413e-3
-1.050, -2.433e-3
-1.049, -2.449e-3
-1.048, -2.468e-3
-1.047, -2.487e-3
-1.046, -2.492e-3
-1.045, -2.539e-3
-1.044, -2.556e-3
-1.043, -2.566e-3
-1.042, -2.582e-3
-1.041, -2.587e-3
-1.040, -2.614e-3
-1.039, -2.657e-3
-1.038, -2.660e-3
-1.037, -2.666e-3
-1.036, -2.684e-3
-1.035, -2.706e-3
-1.034, -2.719e-3
-1.033, -2.745e-3
-1.032, -2.771e-3
-1.031, -2.790e-3
-1.030, -2.800e-3
-1.029, -2.803e-3
-1.028, -2.828e-3
-1.027, -2.842e-3
-1.026, -2.860e-3
-1.025, -2.888e-3
-1.024, -2.902e-3
-1.023, -2.915e-3
-1.022, -2.953e-3
-1.021, -2.910e-3
-1.020, -2.957e-3
-1.019, -2.981e-3
-1.018, -2.981e-3
-1.017, -3.027e-3
-1.016, -3.005e-3
-1.015, -3.032e-3
-1.014, -3.038e-3
-1.013, -3.050e-3
-1.012, -3.083e-3
-1.011, -3.090e-3
-1.010, -3.117e-3
-1.009, -3.120e-3
-1.008, -3.142e-3
-1.007, -3.162e-3
-1.006, -3.164e-3
-1.005, -3.190e-3
-1.004, -3.169e-3
-1.003, -3.178e-3
-1.002, -3.240e-3
-1.001, -3.206e-3
-1.000, -3.159e-3
-1.001, -3.003e-3
-1.002, -2.844e-3
-1.003, -2.737e-3
-1.004, -2.613e-3
-1.005, -2.519e-3
-1.006, -2.427e-3
-1.007, -2.314e-3
-1.008, -2.231e-3
-1.009, -2.128e-3
-1.010, -2.044e-3
-1.011, -1.982e-3
-1.012, -1.876e-3
-1.013, -1.796e-3
-1.014, -1.726e-3
-1.015, -1.653e-3
-1.016, -1.591e-3
-1.017, -1.518e-3
-1.018, -1.453e-3
-1.019, -1.380e-3
-1.020, -1.314e-3
-1.021, -1.263e-3
-1.022, -1.209e-3
-1.023, -1.138e-3
-1.024, -1.095e-3
-1.025, -1.045e-3
-1.026, -9.817e-4
-1.027, -9.382e-4
-1.028, -8.670e-4
-1.029, -8.355e-4
-1.030, -7.963e-4
-1.031, -7.434e-4
-1.032, -7.084e-4
-1.033, -6.639e-4
-1.034, -6.176e-4
-1.035, -5.801e-4
-1.036, -5.426e-4
-1.037, -5.090e-4
-1.038, -4.695e-4
-1.039, -4.300e-4
-1.040, -4.006e-4
-1.041, -3.745e-4
-1.042, -3.413e-4
-1.043, -3.095e-4
-1.044, -2.764e-4
-1.045, -2.493e-4
-1.046, -2.230e-4
-1.047, -1.972e-4
-1.048, -1.703e-4
-1.049, -1.437e-4
-1.050, -1.200e-4
-1.051, -9.841e-5
-1.052, -7.715e-5
-1.053, -5.376e-5
-1.054, -3.002e-5
-1.055, -9.308e-6
-1.056, 7.769e-6
-1.057, 2.615e-5
-1.058, 4.665e-5
-1.059, 6.696e-5
-1.060, 8.453e-5
-1.061, 9.871e-5
-1.062, 1.145e-4
-1.063, 1.318e-4
-1.064, 1.490e-4
-1.065, 1.669e-4
-1.066, 1.753e-4
-1.067, 1.901e-4
-1.068, 2.061e-4
-1.069, 2.199e-4
-1.070, 2.337e-4
-1.071, 2.448e-4
-1.072, 2.554e-4
-1.073, 2.691e-4
-1.074, 2.829e-4
-1.075, 2.961e-4
-1.076, 3.036e-4
-1.077, 3.122e-4
-1.078, 3.260e-4
-1.079, 3.365e-4
-1.080, 3.476e-4
-1.081, 3.558e-4
-1.082, 3.628e-4
-1.083, 3.763e-4
-1.084, 3.869e-4
-1.085, 3.949e-4
-1.086, 4.003e-4
-1.087, 4.087e-4
-1.088, 4.194e-4
-1.089, 4.263e-4
-1.090, 4.419e-4
-1.091, 4.443e-4
-1.092, 4.512e-4
-1.093, 4.641e-4
-1.094, 4.688e-4
-1.095, 4.805e-4
-1.096, 4.831e-4
-1.097, 4.878e-4
-1.098, 5.003e-4
-1.099, 5.049e-4
-1.100, 5.209e-4
-1.101, 5.250e-4
-1.102, 5.206e-4
-1.103, 5.375e-4
-1.104, 5.443e-4
-1.105, 5.529e-4
-1.106, 5.585e-4
-1.107, 5.672e-4
-1.108, 5.631e-4
-1.109, 5.894e-4
-1.110, 5.819e-4
-1.111, 5.888e-4
-1.112, 6.062e-4
-1.113, 6.085e-4
-1.114, 6.215e-4
-1.115, 6.278e-4
-1.116, 6.203e-4
-1.117, 6.354e-4
-1.118, 6.451e-4
-1.119, 6.531e-4
-1.120, 6.656e-4
-1.121, 6.682e-4
-1.122, 6.736e-4
-1.123, 6.793e-4
-1.124, 6.892e-4
-1.125, 7.011e-4
-1.126, 7.028e-4
-1.127, 7.030e-4
-1.128, 7.211e-4
-1.129, 7.280e-4
-1.130, 7.370e-4
-1.131, 7.431e-4
-1.132, 7.462e-4
-1.133, 7.567e-4
-1.134, 7.676e-4
-1.135, 7.775e-4
-1.136, 7.810e-4
-1.137, 7.891e-4
-1.138, 8.021e-4
-1.139, 8.109e-4
-1.140, 8.150e-4
-1.141, 8.236e-4
-1.142, 8.287e-4
-1.143, 8.398e-4
-1.144, 8.565e-4
-1.145, 8.636e-4
-1.146, 8.663e-4
-1.147, 8.780e-4
-1.148, 8.817e-4
-1.149, 8.965e-4
-1.150, 9.072e-4
-1.151, 9.106e-4
-1.152, 9.240e-4
-1.153, 9.325e-4
-1.154, 9.456e-4
-1.155, 9.553e-4
-1.156, 9.656e-4
-1.157, 9.663e-4
-1.158, 9.827e-4
-1.159, 9.991e-4
-1.160, 1.008e-3
-1.161, 1.008e-3
-1.162, 1.020e-3
-1.163, 1.030e-3
-1.164, 1.054e-3
-1.165, 1.064e-3
-1.166, 1.077e-3
-1.167, 1.074e-3
-1.168, 1.095e-3
-1.169, 1.104e-3
-1.170, 1.098e-3
-1.171, 1.134e-3
-1.172, 1.135e-3
-1.173, 1.148e-3
-1.174, 1.171e-3
-1.175, 1.169e-3
-1.176, 1.190e-3
-1.177, 1.201e-3
-1.178, 1.201e-3
-1.179, 1.233e-3
-1.180, 1.223e-3
-1.181, 1.240e-3
-1.182, 1.267e-3
-1.183, 1.269e-3
-1.184, 1.294e-3
-1.185, 1.310e-3
-1.186, 1.309e-3
-1.187, 1.328e-3
-1.188, 1.341e-3
-1.189, 1.349e-3
-1.190, 1.376e-3
-1.191, 1.385e-3
-1.192, 1.393e-3
-1.193, 1.414e-3
-1.194, 1.428e-3
-1.195, 1.442e-3
-1.196, 1.453e-3
-1.197, 1.453e-3
-1.198, 1.487e-3
-1.199, 1.499e-3
-1.200, 1.508e-3
-1.201, 1.544e-3
-1.202, 1.559e-3
-1.203, 1.552e-3
-1.204, 1.567e-3
-1.205, 1.599e-3
-1.206, 1.618e-3
-1.207, 1.613e-3
-1.208, 1.630e-3
-1.209, 1.662e-3
-1.210, 1.671e-3
-1.211, 1.682e-3
-1.212, 1.708e-3
-1.213, 1.723e-3
-1.214, 1.734e-3
-1.215, 1.752e-3
-1.216, 1.766e-3
-1.217, 1.801e-3
-1.218, 1.816e-3
-1.219, 1.815e-3
-1.220, 1.828e-3
-1.221, 1.855e-3
-1.222, 1.869e-3
-1.223, 1.890e-3
-1.224, 1.915e-3
-1.225, 1.933e-3
-1.226, 1.938e-3
-1.227, 1.957e-3
-1.228, 1.980e-3
-1.229, 2.006e-3
-1.230, 2.017e-3
-1.231, 2.037e-3
-1.232, 2.044e-3
-1.233, 2.075e-3
-1.234, 2.081e-3
-1.235, 2.108e-3
-1.236, 2.128e-3
-1.237, 2.145e-3
-1.238, 2.166e-3
-1.239, 2.184e-3
-1.240, 2.198e-3
-1.241, 2.206e-3
-1.242, 2.235e-3
-1.243, 2.247e-3
-1.244, 2.264e-3
-1.245, 2.290e-3
-1.246, 2.304e-3
-1.247, 2.309e-3
-1.248, 2.339e-3
-1.249, 2.341e-3
-1.250, 2.372e-3
-1.251, 2.416e-3
-1.252, 2.391e-3
-1.253, 2.438e-3
-1.254, 2.463e-3
-1.255, 2.419e-3
-1.256, 2.474e-3
-1.257, 2.485e-3
-1.258, 2.469e-3
-1.259, 2.519e-3
-1.260, 2.535e-3
-1.261, 2.525e-3
-1.262, 2.558e-3
-1.263, 2.561e-3
-1.264, 2.563e-3
-1.265, 2.631e-3
-1.266, 2.546e-3
-1.267, 2.599e-3
-1.268, 2.614e-3
-1.269, 2.611e-3
-1.270, 2.648e-3
-1.271, 2.628e-3
-1.272, 2.636e-3
-1.273, 2.644e-3
-1.274, 2.630e-3
-1.275, 2.645e-3
-1.276, 2.645e-3
-1.277, 2.632e-3
-1.278, 2.644e-3
-1.279, 2.631e-3
-1.280, 2.623e-3
-1.281, 2.625e-3
-1.282, 2.589e-3
-1.283, 2.606e-3
-1.284, 2.587e-3
-1.285, 2.532e-3
-1.286, 2.558e-3
-1.287, 2.514e-3
-1.288, 2.496e-3
-1.289, 2.492e-3
-1.290, 2.464e-3
-1.291, 2.427e-3
-1.292, 2.386e-3
-1.293, 2.355e-3
-1.294, 2.309e-3
-1.295, 2.287e-3
-1.296, 2.218e-3
-1.297, 2.191e-3
-1.298, 2.149e-3
-1.299, 2.110e-3
-1.300, 2.058e-3
-1.301, 2.002e-3
-1.302, 1.939e-3
-1.303, 1.894e-3
-1.304, 1.846e-3
-1.305, 1.792e-3
-1.306, 1.736e-3
-1.307, 1.693e-3
-1.308, 1.642e-3
-1.309, 1.584e-3
-1.310, 1.550e-3
-1.311, 1.490e-3
-1.312, 1.454e-3
-1.313, 1.422e-3
-1.314, 1.370e-3
-1.315, 1.365e-3
-1.316, 1.328e-3
-1.317, 1.298e-3
-1.318, 1.284e-3
-1.319, 1.269e-3
-1.320, 1.265e-3
-1.321, 1.239e-3
-1.322, 1.242e-3
-1.323, 1.219e-3
-1.324, 1.232e-3
-1.325, 1.238e-3
-1.326, 1.230e-3
-1.327, 1.245e-3
-1.328, 1.220e-3
-1.329, 1.246e-3
-1.330, 1.265e-3
-1.331, 1.254e-3
-1.332, 1.279e-3
-1.333, 1.286e-3
-1.334, 1.300e-3
-1.335, 1.316e-3
-1.336, 1.321e-3
-1.337, 1.338e-3
-1.338, 1.353e-3
-1.339, 1.375e-3
-1.340, 1.395e-3
-1.341, 1.411e-3
-1.342, 1.423e-3
-1.343, 1.440e-3
-1.344, 1.457e-3
-1.345, 1.501e-3
-1.346, 1.519e-3
-1.347, 1.524e-3
-1.348, 1.540e-3
-1.349, 1.567e-3
-1.350, 1.611e-3
-1.351, 1.609e-3
-1.352, 1.637e-3
-1.353, 1.687e-3
-1.354, 1.699e-3
-1.355, 1.716e-3
-1.356, 1.757e-3
-1.357, 1.774e-3
-1.358, 1.807e-3
-1.359, 1.829e-3
-1.360, 1.859e-3
-1.361, 1.890e-3
-1.362, 1.923e-3
-1.363, 1.943e-3
-1.364, 1.983e-3
-1.365, 2.012e-3
-1.366, 2.042e-3
-1.367, 2.076e-3
-1.368, 2.112e-3
-1.369, 2.141e-3
-1.370, 2.171e-3
-1.371, 2.225e-3
-1.372, 2.242e-3
-1.373, 2.282e-3
-1.374, 2.326e-3
-1.375, 2.343e-3
-1.376, 2.381e-3
-1.377, 2.439e-3
-1.378, 2.451e-3
-1.379, 2.503e-3
-1.380, 2.544e-3
-1.381, 2.579e-3
-1.382, 2.627e-3
-1.383, 2.644e-3
-1.384, 2.689e-3
-1.385, 2.740e-3
-1.386, 2.777e-3
-1.387, 2.830e-3
-1.388, 2.858e-3
-1.389, 2.889e-3
-1.390, 2.949e-3
-1.391, 2.980e-3
-1.392, 3.030e-3
-1.393, 3.071e-3
-1.394, 3.098e-3
-1.395, 3.183e-3
-1.396, 3.219e-3
-1.397, 3.227e-3
-1.398, 3.292e-3
-1.399, 3.338e-3
-1.400, 3.376e-3
-1.401, 3.458e-3
-1.402, 3.473e-3
-1.403, 3.545e-3
-1.404, 3.559e-3
-1.405, 3.611e-3
-1.406, 3.689e-3
-1.407, 3.706e-3
-1.408, 3.763e-3
-1.409, 3.855e-3
-1.410, 3.831e-3
-1.411, 3.954e-3
-1.412, 3.986e-3
-1.413, 3.995e-3
-1.414, 4.071e-3
-1.415, 4.090e-3
-1.416, 4.157e-3
-1.417, 4.244e-3
-1.418, 4.272e-3
-1.419, 4.347e-3
-1.420, 4.381e-3
-1.421, 4.422e-3
-1.422, 4.493e-3
-1.423, 4.531e-3
-1.424, 4.622e-3
-1.425, 4.624e-3
-1.426, 4.692e-3
-1.427, 4.736e-3
-1.428, 4.801e-3
-1.429, 4.846e-3
-1.430, 4.907e-3
-1.431, 4.956e-3
-1.432, 5.035e-3
-1.433, 5.100e-3
-1.434, 5.136e-3
-1.435, 5.191e-3
-1.436, 5.218e-3
-1.437, 5.291e-3
-1.438, 5.357e-3
-1.439, 5.401e-3
-1.440, 5.471e-3
-1.441, 5.498e-3
-1.442, 5.546e-3
-1.443, 5.635e-3
-1.444, 5.699e-3
-1.445, 5.738e-3
-1.446, 5.830e-3
-1.447, 5.895e-3
-1.448, 5.820e-3
-1.449, 5.930e-3
-1.450, 5.982e-3
-1.451, 6.045e-3
-1.452, 6.171e-3
-1.453, 6.112e-3
-1.454, 6.140e-3
-1.455, 6.405e-3
-1.456, 6.272e-3
-1.457, 6.290e-3
-1.458, 6.468e-3
-1.459, 6.403e-3
-1.460, 6.534e-3
-1.461, 6.602e-3
-1.462, 6.593e-3
-1.463, 6.661e-3
-1.464, 6.715e-3
-1.465, 6.819e-3
-1.466, 6.898e-3
-1.467, 6.839e-3
-1.468, 7.033e-3
-1.469, 6.939e-3
-1.470, 7.045e-3
-1.471, 7.111e-3
-1.472, 7.110e-3
-1.473, 7.255e-3
-1.474, 7.220e-3
-1.475, 7.289e-3
-1.476, 7.397e-3
-1.477, 7.448e-3
-1.478, 7.455e-3
-1.479, 7.537e-3
-1.480, 7.614e-3
-1.481, 7.615e-3
-1.482, 7.714e-3
-1.483, 7.723e-3
-1.484, 7.796e-3
-1.485, 7.871e-3
-1.486, 7.861e-3
-1.487, 7.961e-3
-1.488, 8.030e-3
-1.489, 8.032e-3
-1.490, 8.095e-3
-1.491, 8.079e-3
-1.492, 8.092e-3
-1.493, 8.263e-3
-1.494, 8.289e-3
-1.495, 8.283e-3
-1.496, 8.386e-3
-1.497, 8.429e-3
-1.498, 8.442e-3
-1.499, 8.473e-3
-1.500, 8.409e-3
-1.499, 8.331e-3
-1.498, 8.314e-3
-1.497, 8.157e-3
-1.496, 8.128e-3
-1.495, 7.970e-3
-1.494, 7.885e-3
-1.493, 7.812e-3
-1.492, 7.729e-3
-1.491, 7.624e-3
-1.490, 7.701e-3
-1.489, 7.549e-3
-1.488, 7.340e-3
-1.487, 7.372e-3
-1.486, 7.184e-3
-1.485, 7.182e-3
-1.484, 7.096e-3
-1.483, 7.080e-3
-1.482, 7.026e-3
-1.481, 6.901e-3
-1.480, 6.949e-3
-1.479, 6.778e-3
-1.478, 6.743e-3
-1.477, 6.658e-3
-1.476, 6.624e-3
-1.475, 6.569e-3
-1.474, 6.521e-3
-1.473, 6.442e-3
-1.472, 6.418e-3
-1.471, 6.297e-3
-1.470, 6.201e-3
-1.469, 6.154e-3
-1.468, 6.073e-3
-1.467, 6.058e-3
-1.466, 5.992e-3
-1.465, 5.938e-3
-1.464, 5.833e-3
-1.463, 5.820e-3
-1.462, 5.846e-3
-1.461, 5.760e-3
-1.460, 5.690e-3
-1.459, 5.654e-3
-1.458, 5.568e-3
-1.457, 5.456e-3
-1.456, 5.481e-3
-1.455, 5.358e-3
-1.454, 5.345e-3
-1.453, 5.275e-3
-1.452, 5.180e-3
-1.451, 5.125e-3
-1.450, 5.070e-3
-1.449, 5.010e-3
-1.448, 4.963e-3
-1.447, 4.906e-3
-1.446, 4.850e-3
-1.445, 4.863e-3
-1.444, 4.701e-3
-1.443, 4.733e-3
-1.442, 4.619e-3
-1.441, 4.562e-3
-1.440, 4.538e-3
-1.439, 4.479e-3
-1.438, 4.392e-3
-1.437, 4.352e-3
-1.436, 4.287e-3
-1.435, 4.404e-3
-1.434, 4.271e-3
-1.433, 4.226e-3
-1.432, 4.216e-3
-1.431, 4.123e-3
-1.430, 4.036e-3
-1.429, 3.985e-3
-1.428, 3.973e-3
-1.427, 3.861e-3
-1.426, 3.857e-3
-1.425, 3.839e-3
-1.424, 3.780e-3
-1.423, 3.725e-3
-1.422, 3.683e-3
-1.421, 3.620e-3
-1.420, 3.563e-3
-1.419, 3.514e-3
-1.418, 3.483e-3
-1.417, 3.415e-3
-1.416, 3.506e-3
-1.415, 3.428e-3
-1.414, 3.338e-3
-1.413, 3.302e-3
-1.412, 3.355e-3
-1.411, 3.208e-3
-1.410, 3.178e-3
-1.409, 3.142e-3
-1.408, 3.101e-3
-1.407, 3.043e-3
-1.406, 3.009e-3
-1.405, 2.951e-3
-1.404, 2.923e-3
-1.403, 2.871e-3
-1.402, 2.825e-3
-1.401, 2.802e-3
-1.400, 2.768e-3
-1.399, 2.709e-3
-1.398, 2.683e-3
-1.397, 2.622e-3
-1.396, 2.580e-3
-1.395, 2.559e-3
-1.394, 2.519e-3
-1.393, 2.494e-3
-1.392, 2.444e-3
-1.391, 2.402e-3
-1.390, 2.373e-3
-1.389, 2.327e-3
-1.388, 2.303e-3
-1.387, 2.234e-3
-1.386, 2.199e-3
-1.385, 2.164e-3
-1.384, 2.156e-3
-1.383, 2.082e-3
-1.382, 2.073e-3
-1.381, 2.047e-3
-1.380, 2.080e-3
-1.379, 2.231e-3
-1.378, 2.169e-3
-1.377, 2.000e-3
-1.376, 1.976e-3
-1.375, 1.961e-3
-1.374, 1.919e-3
-1.373, 1.886e-3
-1.372, 1.837e-3
-1.371, 1.824e-3
-1.370, 1.759e-3
-1.369, 1.744e-3
-1.368, 1.704e-3
-1.367, 1.681e-3
-1.366, 1.621e-3
-1.365, 1.613e-3
-1.364, 1.561e-3
-1.363, 1.536e-3
-1.362, 1.506e-3
-1.361, 1.469e-3
-1.360, 1.449e-3
-1.359, 1.457e-3
-1.358, 1.411e-3
-1.357, 1.361e-3
-1.356, 1.338e-3
-1.355, 1.302e-3
-1.354, 1.272e-3
-1.353, 1.250e-3
-1.352, 1.215e-3
-1.351, 1.193e-3
-1.350, 1.165e-3
-1.349, 1.143e-3
-1.348, 1.115e-3
-1.347, 1.090e-3
-1.346, 1.067e-3
-1.345, 1.030e-3
-1.344, 1.005e-3
-1.343, 9.924e-4
-1.342, 9.607e-4
-1.341, 9.394e-4
-1.340, 9.237e-4
-1.339, 8.921e-4
-1.338, 8.728e-4
-1.337, 8.608e-4
-1.336, 8.024e-4
-1.335, 8.039e-4
-1.334, 7.779e-4
-1.333, 7.562e-4
-1.332, 7.341e-4
-1.331, 7.103e-4
-1.330, 6.991e-4
-1.329, 6.810e-4
-1.328, 6.665e-4
-1.327, 6.379e-4
-1.326, 6.161e-4
-1.325, 6.031e-4
-1.324, 5.845e-4
-1.323, 5.608e-4
-1.322, 5.354e-4
-1.321, 5.172e-4
-1.320, 5.010e-4
-1.319, 4.959e-4
-1.318, 4.736e-4
-1.317, 4.537e-4
-1.316, 4.322e-4
-1.315, 4.155e-4
-1.314, 4.034e-4
-1.313, 3.872e-4
-1.312, 3.709e-4
-1.311, 3.521e-4
-1.310, 3.403e-4
-1.309, 3.278e-4
-1.308, 3.136e-4
-1.307, 2.950e-4
-1.306, 2.814e-4
-1.305, 2.697e-4
-1.304, 2.555e-4
-1.303, 2.423e-4
-1.302, 2.288e-4
-1.301, 2.137e-4
-1.300, 2.042e-4
-1.299, 1.937e-4
-1.298, 1.808e-4
-1.297, 1.678e-4
-1.296, 1.539e-4
-1.295, 1.445e-4
-1.294, 1.337e-4
-1.293, 1.240e-4
-1.292, 1.104e-4
-1.291, 9.808e-5
-1.290, 8.982e-5
-1.289, 8.164e-5
-1.288, 7.133e-5
-1.287, 5.973e-5
-1.286, 4.864e-5
-1.285, 4.057e-5
-1.284, 3.295e-5
-1.283, 2.431e-5
-1.282, 1.220e-5
-1.281, 2.565e-6
-1.280, -4.357e-6
-1.279, -1.081e-5
-1.278, -1.960e-5
-1.277, -2.926e-5
-1.276, -3.837e-5
-1.275, -4.389e-5
-1.274, -4.976e-5
-1.273, -5.780e-5
-1.272, -6.715e-5
-1.271, -7.524e-5
-1.270, -8.057e-5
-1.269, -8.517e-5
-1.268, -9.297e-5
-1.267, -1.010e-4
-1.266, -1.082e-4
-1.265, -1.132e-4
-1.264, -1.171e-4
-1.263, -1.229e-4
-1.262, -1.319e-4
-1.261, -1.387e-4
-1.260, -1.418e-4
-1.259, -1.458e-4
-1.258, -1.519e-4
-1.257, -1.590e-4
-1.256, -1.651e-4
-1.255, -1.679e-4
-1.254, -1.715e-4
-1.253, -1.774e-4
-1.252, -1.827e-4
-1.251, -1.891e-4
-1.250, -1.926e-4
-1.249, -1.945e-4
-1.248, -1.991e-4
-1.247, -2.055e-4
-1.246, -2.112e-4
-1.245, -2.151e-4
-1.244, -2.173e-4
-1.243, -2.191e-4
-1.242, -2.255e-4
-1.241, -2.323e-4
-1.240, -2.344e-4
-1.239, -2.359e-4
-1.238, -2.387e-4
-1.237, -2.462e-4
-1.236, -2.470e-4
-1.235, -2.490e-4
-1.234, -2.532e-4
-1.233, -2.541e-4
-1.232, -2.621e-4
-1.231, -2.661e-4
-1.230, -2.656e-4
-1.229, -2.696e-4
-1.228, -2.723e-4
-1.227, -2.784e-4
-1.226, -2.791e-4
-1.225, -2.832e-4
-1.224, -2.842e-4
-1.223, -2.846e-4
-1.222, -2.912e-4
-1.221, -2.938e-4
-1.220, -2.960e-4
-1.219, -2.978e-4
-1.218, -2.973e-4
-1.217, -3.029e-4
-1.216, -3.050e-4
-1.215, -3.070e-4
-1.214, -3.084e-4
-1.213, -3.088e-4
-1.212, -3.169e-4
-1.211, -3.162e-4
-1.210, -3.178e-4
-1.209, -3.235e-4
-1.208, -3.247e-4
-1.207, -3.265e-4
-1.206, -3.307e-4
-1.205, -3.316e-4
-1.204, -3.313e-4
-1.203, -3.350e-4
-1.202, -3.398e-4
-1.201, -3.468e-4
-1.200, -3.525e-4
-1.199, -3.504e-4
-1.198, -3.456e-4
-1.197, -3.515e-4
-1.196, -3.567e-4
-1.195, -3.551e-4
-1.194, -3.569e-4
-1.193, -3.594e-4
-1.192, -3.616e-4
-1.191, -3.626e-4
-1.190, -3.659e-4
-1.189, -3.662e-4
-1.188, -3.629e-4
-1.187, -3.709e-4
-1.186, -3.766e-4
-1.185, -3.742e-4
-1.184, -3.778e-4
-1.183, -3.792e-4
-1.182, -3.780e-4
-1.181, -3.883e-4
-1.180, -3.899e-4
-1.179, -3.857e-4
-1.178, -3.917e-4
-1.177, -3.936e-4
-1.176, -3.979e-4
-1.175, -3.989e-4
-1.174, -3.977e-4
-1.173, -4.032e-4
-1.172, -4.052e-4
-1.171, -4.101e-4
-1.170, -4.096e-4
-1.169, -4.128e-4
-1.168, -4.151e-4
-1.167, -4.203e-4
-1.166, -4.219e-4
-1.165, -4.243e-4
-1.164, -4.493e-4
-1.163, -4.591e-4
-1.162, -4.517e-4
-1.161, -4.479e-4
-1.160, -4.524e-4
-1.159, -4.470e-4
-1.158, -4.476e-4
-1.157, -4.536e-4
-1.156, -4.562e-4
-1.155, -4.601e-4
-1.154, -4.591e-4
-1.153, -4.600e-4
-1.152, -4.665e-4
-1.151, -4.693e-4
-1.150, -4.742e-4
-1.149, -4.761e-4
-1.148, -4.790e-4
-1.147, -4.833e-4
-1.146, -4.882e-4
-1.145, -4.929e-4
-1.144, -4.942e-4
-1.143, -4.956e-4
-1.142, -5.023e-4
-1.141, -5.082e-4
-1.140, -5.179e-4
-1.139, -5.197e-4
-1.138, -5.255e-4
-1.137, -5.382e-4
-1.136, -5.447e-4
-1.135, -5.542e-4
-1.134, -5.602e-4
-1.133, -5.668e-4
-1.132, -5.874e-4
-1.131, -5.971e-4
-1.130, -6.039e-4
-1.129, -6.215e-4
-1.128, -6.361e-4
-1.127, -6.499e-4
-1.126, -6.727e-4
-1.125, -6.845e-4
-1.124, -6.972e-4
-1.123, -7.234e-4
-1.122, -7.458e-4
-1.121, -7.614e-4
-1.120, -7.852e-4
-1.119, -8.124e-4
-1.118, -8.128e-4
-1.117, -8.459e-4
-1.116, -8.768e-4
-1.115, -8.875e-4
-1.114, -9.224e-4
-1.113, -9.428e-4
-1.112, -9.593e-4
-1.111, -9.918e-4
-1.110, -1.004e-3
-1.109, -1.026e-3
-1.108, -1.046e-3
-1.107, -1.075e-3
-1.106, -1.093e-3
-1.105, -1.126e-3
-1.104, -1.137e-3
-1.103, -1.160e-3
-1.102, -1.188e-3
-1.101, -1.206e-3
-1.100, -1.225e-3
-1.099, -1.259e-3
-1.098, -1.255e-3
-1.097, -1.279e-3
-1.096, -1.322e-3
-1.095, -1.336e-3
-1.094, -1.366e-3
-1.093, -1.381e-3
-1.092, -1.409e-3
-1.091, -1.422e-3
-1.090, -1.454e-3
-1.089, -1.630e-3
-1.088, -1.592e-3
-1.087, -1.588e-3
-1.086, -1.628e-3
-1.085, -1.651e-3
-1.084, -1.666e-3
-1.083, -1.696e-3
-1.082, -1.710e-3
-1.081, -1.728e-3
-1.080, -1.749e-3
-1.079, -1.755e-3
-1.078, -1.770e-3
-1.077, -1.814e-3
-1.076, -1.811e-3
-1.075, -1.818e-3
-1.074, -1.881e-3
-1.073, -1.885e-3
-1.072, -1.888e-3
-1.071, -1.929e-3
-1.070, -1.936e-3
-1.069, -1.934e-3
-1.068, -1.961e-3
-1.067, -2.010e-3
-1.066, -2.038e-3
-1.065, -2.044e-3
-1.064, -2.068e-3
-1.063, -2.080e-3
-1.062, -2.111e-3
-1.061, -2.113e-3
-1.060, -2.133e-3
-1.059, -2.150e-3
-1.058, -2.153e-3
-1.057, -2.192e-3
-1.056, -2.227e-3
-1.055, -2.248e-3
-1.054, -2.237e-3
-1.053, -2.253e-3
-1.052, -2.299e-3
-1.051, -2.295e-3
-1.050, -2.314e-3
-1.049, -2.316e-3
-1.048, -2.342e-3
-1.047, -2.389e-3
-1.046, -2.408e-3
-1.045, -2.430e-3
-1.044, -2.430e-3
-1.043, -2.436e-3
-1.042, -2.465e-3
-1.041, -2.510e-3
-1.040, -2.514e-3
-1.039, -2.534e-3
-1.038, -2.549e-3
-1.037, -2.547e-3
-1.036, -2.581e-3
-1.035, -2.601e-3
-1.034, -2.600e-3
-1.033, -2.636e-3
-1.032, -2.635e-3
-1.031, -2.648e-3
-1.030, -2.662e-3
-1.029, -2.681e-3
-1.028, -2.703e-3
-1.027, -2.707e-3
-1.026, -2.747e-3
-1.025, -2.753e-3
-1.024, -2.750e-3
-1.023, -2.775e-3
-1.022, -2.800e-3
-1.021, -2.809e-3
-1.020, -2.830e-3
-1.019, -2.854e-3
-1.018, -2.865e-3
-1.017, -2.827e-3
-1.016, -2.894e-3
-1.015, -2.924e-3
-1.014, -2.881e-3
-1.013, -2.906e-3
-1.012, -2.962e-3
-1.011, -2.961e-3
-1.010, -2.968e-3
-1.009, -2.993e-3
-1.008, -2.993e-3
-1.007, -3.017e-3
-1.006, -3.052e-3
-1.005, -3.028e-3
-1.004, -3.055e-3
-1.003, -3.081e-3
-1.002, -3.060e-3
-1.001, -3.116e-3
