Potential V vs RHE, Current mA cm-2
0.013299999999999867,10.253827501421785
0.012299999999999978,8.912681189149732
0.011299999999999866,7.7978886848560816
0.010299999999999976,6.6887550257618935
0.009299999999999864,5.961593417631265
0.008299999999999974,5.01090742412196
0.007299999999999862,4.360140226184043
0.006299999999999972,3.669761111849905
0.00529999999999986,2.924208256821031
0.0042999999999999705,2.542236205857471
0.0032999999999998586,1.7910245056291363
0.0022999999999999687,1.366469644539639
0.0012999999999998568,0.884477504675621
0.00029999999999996696,0.2692195603643165
-0.000700000000000145,0.011054554097145397
-0.0017000000000000348,-0.6292635861799682
-0.0027000000000001467,-0.9395097742403707
-0.0037000000000000366,-1.3354874670725945
-0.0047000000000001485,-1.8660042045219833
-0.005700000000000038,-2.0315254266061924
-0.00670000000000015,-2.587506967453152
-0.00770000000000004,-2.8350814449295334
-0.008700000000000152,-3.164709177798087
-0.009700000000000042,-3.623075638954359
-0.010700000000000154,-3.7532290785419424
-0.011700000000000044,-4.245548610894974
-0.012700000000000156,-4.457755305874731
-0.013700000000000045,-4.677035557353811
-0.014700000000000157,-5.122669616811298
-0.015700000000000047,-5.234431809500635
-0.01670000000000016,-5.644698086461496
-0.01770000000000005,-5.767777969549755
-0.01870000000000016,-6.043646673023436
-0.01970000000000005,-6.417130456187806
-0.020700000000000163,-6.449668816084703
-0.021700000000000053,-6.891058741642594
-0.022700000000000164,-6.977356130934361
-0.023700000000000054,-7.169756867716005
-0.024700000000000166,-7.575779010777271
-0.025700000000000056,-7.588511412476056
-0.026700000000000168,-7.9082361662455565
-0.027700000000000058,-8.004436534636376
-0.02870000000000017,-8.24918158951303
-0.02970000000000006,-8.573150477182121
-0.03070000000000017,-8.517976736487388
-0.03170000000000006,-8.857507448454994
-0.03270000000000017,-8.918340034349193
-0.03370000000000006,-9.116399616330296
-0.034700000000000175,-9.451686194398311
-0.035700000000000065,-9.362559382506815
-0.03670000000000018,-9.686528270175906
-0.03770000000000007,-9.80536401936457
-0.03870000000000018,-9.975129375348374
-0.03970000000000007,-10.188750781627995
-0.04070000000000018,-10.146309442632043
-0.04170000000000007,-10.543843317894117
-0.04270000000000018,-10.584869945590203
-0.04370000000000007,-10.703705694778867
-0.044700000000000184,-10.94845074965552
-0.045700000000000074,-10.874885762062537
-0.046700000000000186,-11.286566750323264
-0.047700000000000076,-11.324763955419618
-0.04870000000000019,-11.443599704608282
-0.04970000000000008,-11.759080324478186
-0.05070000000000019,-11.623268039691142
-0.05170000000000008,-11.893477897965363
-0.05270000000000019,-11.992507688955916
-0.05370000000000008,-12.129734685042823
-0.05470000000000019,-12.34760022522204
-0.05570000000000008,-12.261302835930273
-0.056700000000000195,-12.600833547897881
-0.057700000000000085,-12.626298351295452
-0.058700000000000196,-12.742304677884386
-0.059700000000000086,-13.06061472035402
-0.0607000000000002,-12.975732042362116
-0.06170000000000009,-13.253015457135664
-0.0627000000000002,-13.258674302335123
-0.06370000000000009,-13.32799515602851
-0.0647000000000002,-13.67884355839504
-0.06570000000000009,-13.67318471319558
-0.0667000000000002,-13.932076881070882
-0.0677000000000001,-13.899538521173987
-0.0687000000000002,-13.999983023464402
-0.0697000000000001,-14.316878354634172
-0.07070000000000021,-14.331025467632822
-0.0717000000000001,-14.57152638860988
-0.07270000000000021,-14.415908145624723
-0.0737000000000001,-14.62811484060448
-0.07470000000000021,-14.995939778569388
-0.0757000000000001,-14.812027309586934
-0.07670000000000021,-15.10911668255859
-0.0777000000000001,-15.179852247551842
-0.07870000000000021,-15.264734925543747
-0.0797000000000001,-15.604265637511356
-0.08070000000000022,-15.533530072518102
-0.0817000000000001,-15.77403099349516
-0.08270000000000022,-15.830619445489761
-0.08370000000000011,-16.000384801473565
-0.08470000000000022,-16.25503283544927
-0.08570000000000011,-16.269179948447924
-0.08670000000000022,-16.495533756426326
-0.08770000000000011,-16.410651078434423
-0.08870000000000022,-16.637004886412832
-0.08970000000000011,-16.94824137238314
-0.09070000000000022,-16.863358694391238
-0.09170000000000011,-17.146300954364243
-0.09270000000000023,-17.2453307453548
-0.09370000000000012,-17.386801875341302
-0.09470000000000023,-17.570714344323754
-0.09570000000000012,-17.542420118326454
-0.09670000000000023,-17.896097943292716
-0.09770000000000012,-17.896097943292716
-0.09870000000000023,-18.13659886426977
-0.09970000000000012,-18.249775768258974
-0.10070000000000023,-18.263922881257624
-0.10170000000000012,-18.674189158218486
-0.10270000000000024,-18.702483384215785
-0.10370000000000013,-18.744924723211735
-0.10470000000000024,-19.056161209182044
-0.10570000000000013,-18.999572757187444
-0.10670000000000024,-19.367397695152352
-0.10770000000000013,-19.49472171214021
-0.10870000000000024,-19.69278129412131
-0.10970000000000013,-19.876693763103766
-0.11070000000000024,-19.77766397211321
-0.11170000000000013,-20.159636023076775
-0.11270000000000002,-20.202077362072725
-0.11370000000000013,-20.357695605057877
-0.11470000000000002,-20.569902300037633
-0.11570000000000014,-20.683079204026836
-0.11670000000000003,-21.022609915994444
-0.11770000000000014,-20.79625610801604
-0.11870000000000003,-21.008462802995794
-0.11970000000000014,-21.47531753195126
-0.12070000000000003,-21.404581966958006
-0.12170000000000014,-21.659230000933714
-0.12270000000000003,-21.701671339929664
-0.12370000000000014,-22.012907825899973
-0.12470000000000003,-22.111937616890522
-0.12570000000000014,-21.92802514790807
-0.12670000000000003,-22.522203893851387
-0.12770000000000015,-22.66367502383789
-0.12870000000000004,-22.592939458844636
-0.12970000000000015,-22.80514615382439
-0.13070000000000004,-22.989058622806844
-0.13170000000000015,-23.41347201276636
-0.13270000000000004,-23.385177786769056
-0.13370000000000015,-23.49835469075826
-0.13470000000000004,-23.823738289727217
-0.13570000000000015,-23.823738289727217
-0.13670000000000004,-24.092533436701576
-0.13770000000000016,-24.064239210704276
-0.13870000000000005,-24.432064148669184
-0.13970000000000016,-24.74330063463949
-0.14070000000000005,-24.61597661765164
-0.14170000000000016,-25.054537120609798
-0.14270000000000005,-25.04039000761115
-0.14370000000000016,-25.167714024599
-0.14470000000000005,-25.691157205549064
-0.14570000000000016,-25.77603988354097
-0.14670000000000005,-25.790186996539617
-0.14770000000000016,-26.058982143513976
-0.14870000000000005,-26.32777729048833
-0.14970000000000017,-26.398512855481584
-0.15070000000000006,-26.62486666345999
-0.15170000000000017,-26.97854448842625
-0.15270000000000006,-26.59657243746269
-0.15370000000000017,-26.766337793446493
-0.15470000000000006,-27.544429008372262
-0.15570000000000017,-27.728341477354718
-0.15670000000000006,-28.039577963325023
-0.15770000000000017,-27.997136624329073
-0.15870000000000006,-28.280078884302082
-0.15970000000000018,-28.591315370272387
-0.16070000000000007,-28.548874031276437
-0.16170000000000018,-29.072317212226505
-0.16270000000000007,-29.22793545521166
-0.16370000000000018,-29.32696524620221
-0.16470000000000007,-29.66649595816982
-0.16570000000000018,-29.850408427152274
-0.16670000000000007,-30.232380478115836
-0.16770000000000018,-30.303116043109085
-0.16870000000000007,-30.685088094072643
-0.16970000000000018,-31.010471693041605
-0.17070000000000007,-30.968030354045652
-0.17170000000000019,-31.46317930899841
-0.17270000000000008,-31.731974455972775
-0.1737000000000002,-32.04321094194308
-0.17470000000000008,-32.283711862920136
-0.1757000000000002,-32.24127052392419
-0.17670000000000008,-32.764713704874254
-0.1777000000000002,-33.11839152984051
-0.17870000000000008,-33.48621646780542
-0.1797000000000002,-33.726717388782475
-0.18070000000000008,-33.48621646780542
-0.1817000000000002,-33.99551253575683
-0.18270000000000008,-34.5472499427042
-0.1837000000000002,-34.85848642867451
-0.1847000000000001,-34.9716633326637
-0.1857000000000002,-34.99995755866101
-0.1867000000000001,-35.79219588658543
-0.1877000000000002,-36.10343237255574
-0.1887000000000001,-36.14587371155169
-0.1897000000000002,-36.41466885852605
-0.1907000000000001,-36.78249379649095
-0.1917000000000001,-37.41911388143023
-0.19269999999999998,-37.46155522042617
-0.1937000000000001,-37.716203254401876
-0.19469999999999998,-38.253793548350586
-0.1957000000000001,-38.4518531303317
-0.19669999999999999,-38.84797229429391
-0.1977000000000001,-39.21579723225882
-0.1987,-39.42800392723857
-0.1997000000000001,-39.75338752620753
-0.2007,-40.07877112517649
-0.2017000000000001,-40.531478741133306
-0.2027,-40.800273888107654
-0.2037000000000001,-41.40859974704962
-0.2047,-41.74813045901723
-0.2057000000000001,-41.649100668026676
-0.2067,-42.4413389959511
-0.2077000000000001,-42.87989949890926
-0.2087,-42.95063506390252
-0.2097000000000001,-43.672137826833676
-0.2107,-43.89849163481209
-0.2117000000000001,-44.054109877797245
-0.2127,-44.506817493754056
-0.2137000000000001,-45.143437578693316
-0.2147,-45.29905582167847
-0.2157000000000001,-45.51126251665823
-0.2167,-46.4025306355732
-0.21770000000000012,-46.572295991557006
-0.2187,-46.82694402553272
-0.21970000000000012,-47.40697565847737
-0.2207,-47.76065348344364
-0.22170000000000012,-48.35483222938696
-0.2227,-48.51045047237211
-0.22370000000000012,-48.89242252333566
-0.2247,-49.472454156280335
-0.22570000000000012,-49.76954352925199
-0.2267,-50.47689917918451
-0.22770000000000012,-50.77398855215617
-0.22870000000000001,-50.98619524713592
-0.22970000000000013,-51.31157884610488
-0.23070000000000002,-52.075522948032
-0.23170000000000013,-52.79702571096317
-0.23270000000000002,-52.40090654700096
-0.23370000000000013,-52.88190838895507
-0.23470000000000002,-54.18344278483091
-0.23570000000000013,-54.35320814081471
-0.23670000000000002,-54.480532157802564
-0.2376999999999999,-54.69273885278232
-0.23870000000000002,-55.527418519702685
-0.2396999999999999,-56.20647994363791
-0.24070000000000003,-56.36209818662306
-0.24169999999999991,-56.91383559357042
-0.24270000000000003,-57.32410187053129
-0.24369999999999992,-57.86169216448
-0.24470000000000003,-58.498312249419264
-0.24569999999999992,-58.71051894439902
-0.24670000000000003,-59.26225635134639
-0.24769999999999992,-59.81399375829375
-0.24870000000000003,-60.28084848724921
-0.24969999999999992,-60.93161568518713
-0.25070000000000003,-61.03064547617768
-0.2516999999999999,-61.34188196214799
-0.25270000000000004,-61.97850204708726
-0.2536999999999999,-62.91221150499819
-0.25470000000000004,-63.05368263498469
-0.2556999999999999,-62.88391727900089
-0.25670000000000004,-63.78933251091451
-0.25769999999999993,-64.70889485582677
-0.25870000000000004,-65.5860158617431
-0.25969999999999993,-65.62845720073905
-0.26070000000000004,-65.5860158617431
-0.26169999999999993,-66.81681469262568
-0.26270000000000004,-67.11390406559734
-0.26369999999999993,-67.48172900356225
-0.26470000000000005,-68.31640867048262
-0.26569999999999994,-68.24567310548937
-0.26670000000000005,-68.75496917344077
-0.26769999999999994,-69.71697285734902
-0.26870000000000005,-69.8018555353409
-0.26969999999999994,-69.98576800432336
-0.27070000000000005,-71.21656683520595
-0.27169999999999994,-71.7117157901587
-0.27270000000000005,-71.18827260920865
-0.27369999999999994,-71.8248926941479
-0.27470000000000006,-73.18301554201834
-0.27569999999999995,-73.45181068899271
-0.27670000000000006,-73.4235164629954
-0.27769999999999995,-73.69231160996976
-0.27870000000000006,-74.66846240687663
-0.27969999999999995,-75.31922960481455
-0.28070000000000006,-75.20605270082535
-0.28169999999999995,-75.88511412476056
-0.28270000000000006,-76.38026307971333
-0.28369999999999995,-76.55002843569714
-0.28470000000000006,-76.91785337366204
-0.28569999999999995,-77.85156283157298
-0.28670000000000007,-79.1248030014515
-0.28769999999999996,-78.43159446451764
-0.28870000000000007,-77.83741571857432
-0.28969999999999996,-79.3228625834326
-0.29070000000000007,-79.80386442538673
-0.29169999999999996,-79.83215865138402
-0.29270000000000007,-79.25212701843935
-0.29369999999999996,-80.52536718831789
-0.2947000000000001,-81.47322375922747
-0.29569999999999996,-80.68098543130303
-0.2967000000000001,-80.8083094482909
-0.29769999999999996,-81.61469488921396
-0.2987000000000001,-82.18057940915998
-0.29969999999999997,-82.16643229616133
-0.3007000000000001,-82.13813807016405
-0.30169999999999997,-82.70402259011003
-0.3027000000000001,-82.94452351108711
-0.30369999999999997,-83.08599464107361
-0.3047000000000001,-83.22746577106011
-0.30569999999999997,-83.029406189079
-0.3067000000000001,-83.43967246603985
-0.3077,-83.58114359602637
-0.3087000000000001,-83.58114359602637
-0.3097,-83.63773204802096
-0.3107000000000001,-83.53870225703042
-0.3117,-83.59529070902502
-0.3127000000000001,-83.15673020606685
-0.3137,-83.18502443206415
-0.3147000000000001,-83.69432050001558
-0.3157,-83.18502443206415
-0.3167000000000001,-82.60499279911949
-0.3177,-82.39278610413973
-0.3187000000000001,-82.60499279911949
-0.3197,-82.08154961816942
-0.3207000000000001,-81.21857572525175
-0.3217,-81.24686995124905
-0.3227000000000001,-81.11954593426121
-0.3237,-80.59610275331114
-0.3247000000000001,-80.08680668535972
-0.3257,-79.02577321046095
-0.3267000000000001,-78.13450509154598
-0.3277,-77.59691479759726
-0.3287000000000001,-77.45544366761075
-0.3297,-76.43685153170793
-0.3307000000000001,-74.86652198885774
-0.3317,-74.42796148589959
-0.3327000000000001,-74.13087211292792
-0.3337,-73.15472131602105
-0.3347000000000001,-71.4004793041884
-0.3357,-70.48091695927613
-0.3367000000000001,-70.01406223032066
-0.3377,-68.50032113946509
-0.3387000000000001,-67.24122808258521
-0.3397,-65.9821350257053
-0.3407000000000001,-64.75133619482273
-0.3417,-63.95909786689831
-0.3427000000000001,-62.30388564605621
-0.3437,-60.889174346191176
-0.3447000000000001,-60.15352447026136
-0.3457,-58.82369584838823
-0.3467000000000001,-57.479720113516436
-0.3477,-56.20647994363791
-0.3487000000000001,-55.10300512974318
-0.3497,-54.28247257582146
-0.3507000000000001,-53.46194002189973
-0.3517,-52.59896612898206
-0.3527000000000001,-51.35402018510083
-0.3537,-50.77398855215617
-0.3547000000000001,-50.37786938819396
-0.3557,-49.444159930283035
-0.35670000000000013,-49.03389365332217
-0.3577,-48.68021582835591
-0.35870000000000013,-48.29824377739235
-0.3597,-47.93041883942744
-0.36070000000000013,-47.590888127459834
-0.3617,-47.67577080545174
-0.3626999999999999,-47.54844678846388
-0.3637,-47.57674101446119
-0.3646999999999999,-47.605035240458484
-0.3657,-47.49185833646928
-0.3666999999999999,-48.04359574341665
-0.3677,-47.87383038743284
-0.3686999999999999,-47.84553616143554
-0.36970000000000003,-48.55289181136806
-0.3706999999999999,-48.991452314326224
-0.37170000000000003,-49.31683591329518
-0.3726999999999999,-49.27439457429922
-0.37370000000000003,-49.8261319812466
-0.3746999999999999,-50.39201650119261
-0.37570000000000003,-50.491046292183164
-0.3766999999999999,-51.05693081212917
-0.37770000000000004,-51.35402018510083
-0.3786999999999999,-51.948198931044146
-0.37970000000000004,-52.57067190298476
-0.3806999999999999,-52.58481901598341
-0.38170000000000004,-53.19314487492538
-0.38269999999999993,-54.14100144583495
-0.38370000000000004,-54.834209982768826
-0.38469999999999993,-55.18788780773508
-0.38570000000000004,-55.27277048572698
-0.38669999999999993,-55.980126135659496
-0.38770000000000004,-56.72992312458797
-0.38869999999999993,-57.45142588751914
-0.38970000000000005,-58.017310407465146
-0.39069999999999994,-58.66807760540307
-0.39170000000000005,-59.64422840230995
-0.39269999999999994,-59.6300812893113
-0.39370000000000005,-60.19596580925731
-0.39469999999999994,-61.228705058158795
-0.39570000000000005,-61.80873669110345
-0.39669999999999994,-62.68585769701977
-0.39770000000000005,-62.841475940004926
-0.39869999999999994,-63.23759510396713
-0.39970000000000006,-64.28448146586726
-0.40069999999999995,-65.52942740974851
-0.40170000000000006,-66.19434172068507
-0.40269999999999995,-66.46313686765943
-0.40370000000000006,-67.18463963059058
-0.40469999999999995,-68.54276247846103
-0.40570000000000006,-69.43403059737601
-0.40669999999999995,-69.95747377832606
-0.40770000000000006,-70.02820934331933
-0.40869999999999995,-71.3721850781911
-0.40970000000000006,-72.40492432709259
-0.41069999999999995,-72.75860215205884
-0.41170000000000007,-73.74890006196436
-0.41269999999999996,-74.15916633892522
-0.41370000000000007,-75.17775847482805
-0.41469999999999996,-76.30952751472009
-0.41570000000000007,-76.55002843569714
-0.41669999999999996,-77.42714944161345
-0.41770000000000007,-78.24768199553519
-0.41869999999999996,-79.35115680942992
-0.4197000000000001,-80.18583647635029
-0.42069999999999996,-80.68098543130303
-0.4217000000000001,-81.78446024519776
-0.42269999999999996,-83.029406189079
-0.4237000000000001,-83.72261472601286
-0.42469999999999997,-84.81194242690896
-0.4257000000000001,-85.61832786783202
-0.42669999999999997,-86.17006527477939
-0.4277000000000001,-86.72180268172674
-0.42869999999999997,-87.81113038262282
-0.4297000000000001,-88.74483984053374
-0.43069999999999997,-89.42390126446898
-0.4317000000000001,-90.47078762636909
-0.4327,-91.24887884129487
-0.4337000000000001,-91.88549892623412
-0.4347,-92.83335549714371
-0.4357000000000001,-93.61144671206948
-0.4367,-94.98371667293856
-0.4377000000000001,-95.71936654886838
-0.4387,-96.15792705182655
-0.4397000000000001,-97.20481341372668
-0.4407,-98.1102286456403
-0.4417000000000001,-99.01564387755391
-0.4427,-99.92105910946754
-0.4437000000000001,-101.01038681036361
-0.4447,-101.76018379929208
-0.4457000000000001,-102.12800873725699
-0.4467,-103.09001242116523
-0.4477000000000001,-104.36325259104376
-0.4487,-105.32525627495198
-0.4497000000000001,-105.67893409991824
-0.4507,-106.10334748987775
-0.4517000000000001,-107.67367703272794
-0.4527,-108.62153360363752
-0.4537000000000001,-109.41377193156194
-0.4547,-110.1352746944931
-0.4557000000000001,-110.64457076244452
-0.4567,-111.5924273333541
-0.4577000000000001,-112.48369545226906
-0.4587,-113.45984624917594
-0.4597000000000001,-113.87011252613681
-0.4607,-114.95944022703287
-0.4617000000000001,-116.45903420488982
-0.4627,-117.0390658378345
-0.4637000000000001,-117.88789261775351
-0.4647,-118.92063186665499
-0.4657000000000001,-119.35919236961315
-0.4667,-120.51925563550247
-0.4677000000000001,-121.49540643240935
-0.4687,-122.51399856831216
-0.4697000000000001,-123.09403020125686
-0.4707,-123.4760022522204
-0.4717000000000001,-124.52288861412055
-0.4727,-125.272685603049
-0.4737000000000001,-126.05077681797478
-0.4747,-127.09766317987489
-0.4757000000000001,-127.86160728180201
-0.4767,-128.9226407567008
-0.4777000000000001,-129.27631858166706
-0.4787,-129.8563502146117
-0.4797000000000001,-131.24276728847948
-0.4807,-131.95012293841197
-0.48170000000000013,-132.3462421023742
-0.4827,-132.5725959103526
-0.48370000000000013,-133.64777649825
-0.4847,-135.3029887190921
-0.48570000000000013,-136.10937416001516
-0.4867,-135.6142252050624
-0.48570000000000013,-133.03945063930803
-0.4847,-132.09159406839845
-0.48370000000000013,-130.9739721415051
-0.4827,-128.85190519170752
-0.48170000000000013,-128.18699088077096
-0.4807,-126.60251422492213
-0.4797000000000001,-124.84827221308949
-0.4787,-124.32482903213943
-0.4777000000000001,-123.39111957422851
-0.4767,-122.34423321232836
-0.4757000000000001,-121.18416994643904
-0.4747,-120.23631337552946
-0.4737000000000001,-119.21772123962666
-0.4727,-117.78886282676295
-0.4717000000000001,-115.72338432896
-0.4707,-115.17164692201266
-0.4697000000000001,-114.3511143680909
-0.4687,-113.00713863321914
-0.4677000000000001,-111.1963081693919
-0.4667,-110.53139385845533
-0.4657000000000001,-109.38547770556464
-0.4647,-108.1688259876807
-0.4637000000000001,-107.44732322474954
-0.4627,-106.47117242784265
