Jan. 13, 2025   18:25:24
Linear Sweep Voltammetry
File: c:/users/guazh/data/banditlqround7_x0exp772_r5/2025-01-10-exp835\1acid_1ac-2025-01-13t18_22_12-lsvinphos\1acid_1ac_lsv_50mvs_efin_-2100mv.bin
Data Source:  Experiment
Instrument Model:  CHI760E
Header: LSV ran at 50 mVs with Efin at -2100mV
Note: 

Init E (V) = -0.6
Final E (V) = -2.1
Scan Rate (V/s) = 0.05
Sample Interval (V) = 0.001
Quiet Time (sec) = 2
Sensitivity (A/V) = 1e-4
Comp R (ohm) = 9.8

Results:

Channel 1:
Ep = -1.988V
ip = 9.018e-4A
Ah = 1.308e-3C

Potential/V, Current/A

-0.600, 2.394e-6
-0.601, 2.490e-6
-0.602, 2.526e-6
-0.603, 2.558e-6
-0.604, 2.590e-6
-0.605, 2.619e-6
-0.606, 2.647e-6
-0.607, 2.673e-6
-0.608, 2.699e-6
-0.609, 2.729e-6
-0.610, 2.758e-6
-0.611, 2.785e-6
-0.612, 2.809e-6
-0.613, 2.838e-6
-0.614, 2.868e-6
-0.615, 2.899e-6
-0.616, 2.925e-6
-0.617, 2.951e-6
-0.618, 2.978e-6
-0.619, 3.008e-6
-0.620, 3.039e-6
-0.621, 3.066e-6
-0.622, 3.093e-6
-0.623, 3.121e-6
-0.624, 3.152e-6
-0.625, 3.186e-6
-0.626, 3.212e-6
-0.627, 3.240e-6
-0.628, 3.267e-6
-0.629, 3.299e-6
-0.630, 3.334e-6
-0.631, 3.361e-6
-0.632, 3.390e-6
-0.633, 3.421e-6
-0.634, 3.453e-6
-0.635, 3.486e-6
-0.636, 3.515e-6
-0.637, 3.544e-6
-0.638, 3.574e-6
-0.639, 3.609e-6
-0.640, 3.644e-6
-0.641, 3.675e-6
-0.642, 3.704e-6
-0.643, 3.736e-6
-0.644, 3.771e-6
-0.645, 3.805e-6
-0.646, 3.837e-6
-0.647, 3.868e-6
-0.648, 3.899e-6
-0.649, 3.934e-6
-0.650, 3.968e-6
-0.651, 4.000e-6
-0.652, 4.033e-6
-0.653, 4.064e-6
-0.654, 4.101e-6
-0.655, 4.136e-6
-0.656, 4.167e-6
-0.657, 4.198e-6
-0.658, 4.229e-6
-0.659, 4.266e-6
-0.660, 4.301e-6
-0.661, 4.334e-6
-0.662, 4.368e-6
-0.663, 4.401e-6
-0.664, 4.438e-6
-0.665, 4.476e-6
-0.666, 4.512e-6
-0.667, 4.545e-6
-0.668, 4.578e-6
-0.669, 4.615e-6
-0.670, 4.653e-6
-0.671, 4.686e-6
-0.672, 4.719e-6
-0.673, 4.754e-6
-0.674, 4.790e-6
-0.675, 4.831e-6
-0.676, 4.863e-6
-0.677, 4.896e-6
-0.678, 4.930e-6
-0.679, 4.969e-6
-0.680, 5.008e-6
-0.681, 5.042e-6
-0.682, 5.076e-6
-0.683, 5.110e-6
-0.684, 5.147e-6
-0.685, 5.186e-6
-0.686, 5.219e-6
-0.687, 5.253e-6
-0.688, 5.289e-6
-0.689, 5.327e-6
-0.690, 5.363e-6
-0.691, 5.398e-6
-0.692, 5.431e-6
-0.693, 5.465e-6
-0.694, 5.503e-6
-0.695, 5.541e-6
-0.696, 5.575e-6
-0.697, 5.609e-6
-0.698, 5.643e-6
-0.699, 5.679e-6
-0.700, 5.717e-6
-0.701, 5.749e-6
-0.702, 5.782e-6
-0.703, 5.817e-6
-0.704, 5.854e-6
-0.705, 5.889e-6
-0.706, 5.918e-6
-0.707, 5.948e-6
-0.708, 5.981e-6
-0.709, 6.016e-6
-0.710, 6.053e-6
-0.711, 6.085e-6
-0.712, 6.114e-6
-0.713, 6.147e-6
-0.714, 6.179e-6
-0.715, 6.212e-6
-0.716, 6.241e-6
-0.717, 6.271e-6
-0.718, 6.301e-6
-0.719, 6.334e-6
-0.720, 6.368e-6
-0.721, 6.397e-6
-0.722, 6.425e-6
-0.723, 6.455e-6
-0.724, 6.486e-6
-0.725, 6.517e-6
-0.726, 6.546e-6
-0.727, 6.572e-6
-0.728, 6.600e-6
-0.729, 6.631e-6
-0.730, 6.660e-6
-0.731, 6.686e-6
-0.732, 6.711e-6
-0.733, 6.736e-6
-0.734, 6.765e-6
-0.735, 6.794e-6
-0.736, 6.819e-6
-0.737, 6.843e-6
-0.738, 6.866e-6
-0.739, 6.891e-6
-0.740, 6.917e-6
-0.741, 6.939e-6
-0.742, 6.961e-6
-0.743, 6.983e-6
-0.744, 7.007e-6
-0.745, 7.031e-6
-0.746, 7.050e-6
-0.747, 7.070e-6
-0.748, 7.090e-6
-0.749, 7.113e-6
-0.750, 7.136e-6
-0.751, 7.152e-6
-0.752, 7.170e-6
-0.753, 7.187e-6
-0.754, 7.207e-6
-0.755, 7.228e-6
-0.756, 7.242e-6
-0.757, 7.257e-6
-0.758, 7.272e-6
-0.759, 7.289e-6
-0.760, 7.307e-6
-0.761, 7.320e-6
-0.762, 7.332e-6
-0.763, 7.345e-6
-0.764, 7.361e-6
-0.765, 7.375e-6
-0.766, 7.385e-6
-0.767, 7.396e-6
-0.768, 7.408e-6
-0.769, 7.423e-6
-0.770, 7.434e-6
-0.771, 7.442e-6
-0.772, 7.451e-6
-0.773, 7.458e-6
-0.774, 7.471e-6
-0.775, 7.481e-6
-0.776, 7.488e-6
-0.777, 7.494e-6
-0.778, 7.498e-6
-0.779, 7.508e-6
-0.780, 7.517e-6
-0.781, 7.521e-6
-0.782, 7.524e-6
-0.783, 7.528e-6
-0.784, 7.535e-6
-0.785, 7.541e-6
-0.786, 7.543e-6
-0.787, 7.545e-6
-0.788, 7.547e-6
-0.789, 7.552e-6
-0.790, 7.555e-6
-0.791, 7.555e-6
-0.792, 7.555e-6
-0.793, 7.556e-6
-0.794, 7.558e-6
-0.795, 7.561e-6
-0.796, 7.558e-6
-0.797, 7.555e-6
-0.798, 7.554e-6
-0.799, 7.556e-6
-0.800, 7.555e-6
-0.801, 7.552e-6
-0.802, 7.546e-6
-0.803, 7.545e-6
-0.804, 7.543e-6
-0.805, 7.543e-6
-0.806, 7.538e-6
-0.807, 7.532e-6
-0.808, 7.528e-6
-0.809, 7.525e-6
-0.810, 7.522e-6
-0.811, 7.515e-6
-0.812, 7.509e-6
-0.813, 7.501e-6
-0.814, 7.499e-6
-0.815, 7.494e-6
-0.816, 7.487e-6
-0.817, 7.478e-6
-0.818, 7.469e-6
-0.819, 7.469e-6
-0.820, 7.466e-6
-0.821, 7.453e-6
-0.822, 7.444e-6
-0.823, 7.433e-6
-0.824, 7.428e-6
-0.825, 7.421e-6
-0.826, 7.411e-6
-0.827, 7.401e-6
-0.828, 7.391e-6
-0.829, 7.384e-6
-0.830, 7.377e-6
-0.831, 7.365e-6
-0.832, 7.355e-6
-0.833, 7.346e-6
-0.834, 7.337e-6
-0.835, 7.329e-6
-0.836, 7.317e-6
-0.837, 7.304e-6
-0.838, 7.294e-6
-0.839, 7.285e-6
-0.840, 7.277e-6
-0.841, 7.264e-6
-0.842, 7.251e-6
-0.843, 7.240e-6
-0.844, 7.234e-6
-0.845, 7.224e-6
-0.846, 7.211e-6
-0.847, 7.196e-6
-0.848, 7.185e-6
-0.849, 7.177e-6
-0.850, 7.166e-6
-0.851, 7.152e-6
-0.852, 7.139e-6
-0.853, 7.127e-6
-0.854, 7.118e-6
-0.855, 7.106e-6
-0.856, 7.093e-6
-0.857, 7.079e-6
-0.858, 7.067e-6
-0.859, 7.059e-6
-0.860, 7.047e-6
-0.861, 7.033e-6
-0.862, 7.021e-6
-0.863, 7.006e-6
-0.864, 6.998e-6
-0.865, 6.986e-6
-0.866, 6.973e-6
-0.867, 6.958e-6
-0.868, 6.945e-6
-0.869, 6.936e-6
-0.870, 6.926e-6
-0.871, 6.912e-6
-0.872, 6.898e-6
-0.873, 6.886e-6
-0.874, 6.876e-6
-0.875, 6.865e-6
-0.876, 6.852e-6
-0.877, 6.838e-6
-0.878, 6.826e-6
-0.879, 6.816e-6
-0.880, 6.804e-6
-0.881, 6.790e-6
-0.882, 6.776e-6
-0.883, 6.764e-6
-0.884, 6.755e-6
-0.885, 6.743e-6
-0.886, 6.729e-6
-0.887, 6.715e-6
-0.888, 6.704e-6
-0.889, 6.696e-6
-0.890, 6.685e-6
-0.891, 6.670e-6
-0.892, 6.658e-6
-0.893, 6.646e-6
-0.894, 6.637e-6
-0.895, 6.627e-6
-0.896, 6.612e-6
-0.897, 6.600e-6
-0.898, 6.586e-6
-0.899, 6.578e-6
-0.900, 6.568e-6
-0.901, 6.554e-6
-0.902, 6.542e-6
-0.903, 6.530e-6
-0.904, 6.521e-6
-0.905, 6.512e-6
-0.906, 6.498e-6
-0.907, 6.485e-6
-0.908, 6.474e-6
-0.909, 6.467e-6
-0.910, 6.458e-6
-0.911, 6.445e-6
-0.912, 6.432e-6
-0.913, 6.421e-6
-0.914, 6.413e-6
-0.915, 6.402e-6
-0.916, 6.390e-6
-0.917, 6.378e-6
-0.918, 6.369e-6
-0.919, 6.361e-6
-0.920, 6.351e-6
-0.921, 6.340e-6
-0.922, 6.327e-6
-0.923, 6.317e-6
-0.924, 6.309e-6
-0.925, 6.299e-6
-0.926, 6.288e-6
-0.927, 6.275e-6
-0.928, 6.265e-6
-0.929, 6.258e-6
-0.930, 6.249e-6
-0.931, 6.240e-6
-0.932, 6.228e-6
-0.933, 6.219e-6
-0.934, 6.213e-6
-0.935, 6.205e-6
-0.936, 6.194e-6
-0.937, 6.184e-6
-0.938, 6.175e-6
-0.939, 6.169e-6
-0.940, 6.161e-6
-0.941, 6.150e-6
-0.942, 6.141e-6
-0.943, 6.132e-6
-0.944, 6.125e-6
-0.945, 6.119e-6
-0.946, 6.106e-6
-0.947, 6.098e-6
-0.948, 6.088e-6
-0.949, 6.081e-6
-0.950, 6.074e-6
-0.951, 6.062e-6
-0.952, 6.053e-6
-0.953, 6.045e-6
-0.954, 6.037e-6
-0.955, 6.031e-6
-0.956, 6.022e-6
-0.957, 6.010e-6
-0.958, 6.002e-6
-0.959, 5.996e-6
-0.960, 5.990e-6
-0.961, 5.980e-6
-0.962, 5.971e-6
-0.963, 5.964e-6
-0.964, 5.959e-6
-0.965, 5.951e-6
-0.966, 5.942e-6
-0.967, 5.934e-6
-0.968, 5.927e-6
-0.969, 5.922e-6
-0.970, 5.916e-6
-0.971, 5.906e-6
-0.972, 5.900e-6
-0.973, 5.894e-6
-0.974, 5.890e-6
-0.975, 5.882e-6
-0.976, 5.873e-6
-0.977, 5.867e-6
-0.978, 5.857e-6
-0.979, 5.854e-6
-0.980, 5.846e-6
-0.981, 5.837e-6
-0.982, 5.830e-6
-0.983, 5.823e-6
-0.984, 5.818e-6
-0.985, 5.812e-6
-0.986, 5.804e-6
-0.987, 5.796e-6
-0.988, 5.790e-6
-0.989, 5.784e-6
-0.990, 5.780e-6
-0.991, 5.769e-6
-0.992, 5.762e-6
-0.993, 5.758e-6
-0.994, 5.752e-6
-0.995, 5.746e-6
-0.996, 5.737e-6
-0.997, 5.730e-6
-0.998, 5.725e-6
-0.999, 5.720e-6
-1.000, 5.715e-6
-1.001, 5.707e-6
-1.002, 5.699e-6
-1.003, 5.694e-6
-1.004, 5.690e-6
-1.005, 5.684e-6
-1.006, 5.677e-6
-1.007, 5.669e-6
-1.008, 5.664e-6
-1.009, 5.662e-6
-1.010, 5.655e-6
-1.011, 5.649e-6
-1.012, 5.643e-6
-1.013, 5.636e-6
-1.014, 5.635e-6
-1.015, 5.629e-6
-1.016, 5.621e-6
-1.017, 5.616e-6
-1.018, 5.611e-6
-1.019, 5.607e-6
-1.020, 5.602e-6
-1.021, 5.593e-6
-1.022, 5.588e-6
-1.023, 5.582e-6
-1.024, 5.582e-6
-1.025, 5.577e-6
-1.026, 5.568e-6
-1.027, 5.563e-6
-1.028, 5.557e-6
-1.029, 5.554e-6
-1.030, 5.550e-6
-1.031, 5.543e-6
-1.032, 5.536e-6
-1.033, 5.532e-6
-1.034, 5.529e-6
-1.035, 5.526e-6
-1.036, 5.519e-6
-1.037, 5.513e-6
-1.038, 5.510e-6
-1.039, 5.507e-6
-1.040, 5.502e-6
-1.041, 5.496e-6
-1.042, 5.488e-6
-1.043, 5.485e-6
-1.044, 5.483e-6
-1.045, 5.478e-6
-1.046, 5.472e-6
-1.047, 5.466e-6
-1.048, 5.461e-6
-1.049, 5.460e-6
-1.050, 5.455e-6
-1.051, 5.449e-6
-1.052, 5.444e-6
-1.053, 5.440e-6
-1.054, 5.438e-6
-1.055, 5.435e-6
-1.056, 5.430e-6
-1.057, 5.423e-6
-1.058, 5.418e-6
-1.059, 5.418e-6
-1.060, 5.415e-6
-1.061, 5.408e-6
-1.062, 5.404e-6
-1.063, 5.400e-6
-1.064, 5.399e-6
-1.065, 5.396e-6
-1.066, 5.388e-6
-1.067, 5.384e-6
-1.068, 5.380e-6
-1.069, 5.379e-6
-1.070, 5.375e-6
-1.071, 5.368e-6
-1.072, 5.364e-6
-1.073, 5.361e-6
-1.074, 5.359e-6
-1.075, 5.357e-6
-1.076, 5.352e-6
-1.077, 5.347e-6
-1.078, 5.343e-6
-1.079, 5.341e-6
-1.080, 5.339e-6
-1.081, 5.333e-6
-1.082, 5.327e-6
-1.083, 5.324e-6
-1.084, 5.323e-6
-1.085, 5.319e-6
-1.086, 5.315e-6
-1.087, 5.309e-6
-1.088, 5.306e-6
-1.089, 5.306e-6
-1.090, 5.301e-6
-1.091, 5.297e-6
-1.092, 5.292e-6
-1.093, 5.289e-6
-1.094, 5.288e-6
-1.095, 5.285e-6
-1.096, 5.280e-6
-1.097, 5.275e-6
-1.098, 5.273e-6
-1.099, 5.273e-6
-1.100, 5.270e-6
-1.101, 5.265e-6
-1.102, 5.262e-6
-1.103, 5.257e-6
-1.104, 5.257e-6
-1.105, 5.254e-6
-1.106, 5.247e-6
-1.107, 5.244e-6
-1.108, 5.242e-6
-1.109, 5.240e-6
-1.110, 5.237e-6
-1.111, 5.231e-6
-1.112, 5.228e-6
-1.113, 5.226e-6
-1.114, 5.224e-6
-1.115, 5.222e-6
-1.116, 5.217e-6
-1.117, 5.212e-6
-1.118, 5.210e-6
-1.119, 5.210e-6
-1.120, 5.208e-6
-1.121, 5.202e-6
-1.122, 5.198e-6
-1.123, 5.196e-6
-1.124, 5.196e-6
-1.125, 5.194e-6
-1.126, 5.189e-6
-1.127, 5.186e-6
-1.128, 5.183e-6
-1.129, 5.183e-6
-1.130, 5.180e-6
-1.131, 5.174e-6
-1.132, 5.172e-6
-1.133, 5.170e-6
-1.134, 5.170e-6
-1.135, 5.167e-6
-1.136, 5.162e-6
-1.137, 5.159e-6
-1.138, 5.156e-6
-1.139, 5.156e-6
-1.140, 5.155e-6
-1.141, 5.152e-6
-1.142, 5.148e-6
-1.143, 5.146e-6
-1.144, 5.146e-6
-1.145, 5.144e-6
-1.146, 5.140e-6
-1.147, 5.136e-6
-1.148, 5.134e-6
-1.149, 5.135e-6
-1.150, 5.133e-6
-1.151, 5.129e-6
-1.152, 5.126e-6
-1.153, 5.124e-6
-1.154, 5.124e-6
-1.155, 5.122e-6
-1.156, 5.119e-6
-1.157, 5.116e-6
-1.158, 5.115e-6
-1.159, 5.115e-6
-1.160, 5.112e-6
-1.161, 5.109e-6
-1.162, 5.105e-6
-1.163, 5.103e-6
-1.164, 5.105e-6
-1.165, 5.102e-6
-1.166, 5.100e-6
-1.167, 5.096e-6
-1.168, 5.095e-6
-1.169, 5.095e-6
-1.170, 5.094e-6
-1.171, 5.091e-6
-1.172, 5.087e-6
-1.173, 5.086e-6
-1.174, 5.087e-6
-1.175, 5.084e-6
-1.176, 5.081e-6
-1.177, 5.078e-6
-1.178, 5.080e-6
-1.179, 5.078e-6
-1.180, 5.077e-6
-1.181, 5.073e-6
-1.182, 5.071e-6
-1.183, 5.069e-6
-1.184, 5.070e-6
-1.185, 5.069e-6
-1.186, 5.064e-6
-1.187, 5.063e-6
-1.188, 5.061e-6
-1.189, 5.062e-6
-1.190, 5.061e-6
-1.191, 5.057e-6
-1.192, 5.057e-6
-1.193, 5.056e-6
-1.194, 5.056e-6
-1.195, 5.055e-6
-1.196, 5.051e-6
-1.197, 5.049e-6
-1.198, 5.048e-6
-1.199, 5.048e-6
-1.200, 5.048e-6
-1.201, 5.045e-6
-1.202, 5.042e-6
-1.203, 5.041e-6
-1.204, 5.044e-6
-1.205, 5.042e-6
-1.206, 5.040e-6
-1.207, 5.038e-6
-1.208, 5.035e-6
-1.209, 5.037e-6
-1.210, 5.035e-6
-1.211, 5.032e-6
-1.212, 5.030e-6
-1.213, 5.030e-6
-1.214, 5.031e-6
-1.215, 5.030e-6
-1.216, 5.027e-6
-1.217, 5.026e-6
-1.218, 5.025e-6
-1.219, 5.026e-6
-1.220, 5.025e-6
-1.221, 5.023e-6
-1.222, 5.020e-6
-1.223, 5.021e-6
-1.224, 5.021e-6
-1.225, 5.022e-6
-1.226, 5.018e-6
-1.227, 5.016e-6
-1.228, 5.017e-6
-1.229, 5.021e-6
-1.230, 5.020e-6
-1.231, 5.016e-6
-1.232, 5.013e-6
-1.233, 5.014e-6
-1.234, 5.014e-6
-1.235, 5.015e-6
-1.236, 5.010e-6
-1.237, 5.008e-6
-1.238, 5.010e-6
-1.239, 5.011e-6
-1.240, 5.009e-6
-1.241, 5.007e-6
-1.242, 5.007e-6
-1.243, 5.007e-6
-1.244, 5.008e-6
-1.245, 5.008e-6
-1.246, 5.005e-6
-1.247, 5.003e-6
-1.248, 5.004e-6
-1.249, 5.005e-6
-1.250, 5.004e-6
-1.251, 5.001e-6
-1.252, 5.000e-6
-1.253, 5.000e-6
-1.254, 5.003e-6
-1.255, 5.003e-6
-1.256, 5.001e-6
-1.257, 4.998e-6
-1.258, 4.999e-6
-1.259, 5.001e-6
-1.260, 5.000e-6
-1.261, 4.998e-6
-1.262, 4.999e-6
-1.263, 4.997e-6
-1.264, 4.999e-6
-1.265, 5.000e-6
-1.266, 4.996e-6
-1.267, 4.995e-6
-1.268, 4.996e-6
-1.269, 4.998e-6
-1.270, 4.998e-6
-1.271, 4.995e-6
-1.272, 4.993e-6
-1.273, 4.995e-6
-1.274, 4.997e-6
-1.275, 4.997e-6
-1.276, 4.995e-6
-1.277, 4.993e-6
-1.278, 4.993e-6
-1.279, 4.995e-6
-1.280, 4.997e-6
-1.281, 4.996e-6
-1.282, 4.994e-6
-1.283, 4.993e-6
-1.284, 4.997e-6
-1.285, 4.996e-6
-1.286, 4.993e-6
-1.287, 4.994e-6
-1.288, 4.993e-6
-1.289, 4.996e-6
-1.290, 4.996e-6
-1.291, 4.993e-6
-1.292, 4.993e-6
-1.293, 4.992e-6
-1.294, 4.997e-6
-1.295, 4.997e-6
-1.296, 4.994e-6
-1.297, 4.995e-6
-1.298, 4.994e-6
-1.299, 4.999e-6
-1.300, 4.998e-6
-1.301, 4.994e-6
-1.302, 4.995e-6
-1.303, 4.995e-6
-1.304, 4.998e-6
-1.305, 4.999e-6
-1.306, 4.997e-6
-1.307, 4.996e-6
-1.308, 4.996e-6
-1.309, 5.000e-6
-1.310, 5.002e-6
-1.311, 4.998e-6
-1.312, 4.997e-6
-1.313, 5.000e-6
-1.314, 5.001e-6
-1.315, 5.002e-6
-1.316, 5.000e-6
-1.317, 4.998e-6
-1.318, 5.000e-6
-1.319, 5.002e-6
-1.320, 5.004e-6
-1.321, 5.004e-6
-1.322, 5.002e-6
-1.323, 5.004e-6
-1.324, 5.008e-6
-1.325, 5.009e-6
-1.326, 5.005e-6
-1.327, 5.003e-6
-1.328, 5.005e-6
-1.329, 5.009e-6
-1.330, 5.009e-6
-1.331, 5.008e-6
-1.332, 5.007e-6
-1.333, 5.007e-6
-1.334, 5.011e-6
-1.335, 5.012e-6
-1.336, 5.011e-6
-1.337, 5.011e-6
-1.338, 5.011e-6
-1.339, 5.015e-6
-1.340, 5.016e-6
-1.341, 5.014e-6
-1.342, 5.014e-6
-1.343, 5.014e-6
-1.344, 5.019e-6
-1.345, 5.021e-6
-1.346, 5.018e-6
-1.347, 5.019e-6
-1.348, 5.019e-6
-1.349, 5.022e-6
-1.350, 5.023e-6
-1.351, 5.022e-6
-1.352, 5.021e-6
-1.353, 5.022e-6
-1.354, 5.027e-6
-1.355, 5.028e-6
-1.356, 5.027e-6
-1.357, 5.027e-6
-1.358, 5.029e-6
-1.359, 5.033e-6
-1.360, 5.034e-6
-1.361, 5.034e-6
-1.362, 5.033e-6
-1.363, 5.034e-6
-1.364, 5.038e-6
-1.365, 5.038e-6
-1.366, 5.038e-6
-1.367, 5.038e-6
-1.368, 5.040e-6
-1.369, 5.044e-6
-1.370, 5.045e-6
-1.371, 5.045e-6
-1.372, 5.045e-6
-1.373, 5.047e-6
-1.374, 5.051e-6
-1.375, 5.053e-6
-1.376, 5.052e-6
-1.377, 5.052e-6
-1.378, 5.053e-6
-1.379, 5.060e-6
-1.380, 5.061e-6
-1.381, 5.060e-6
-1.382, 5.062e-6
-1.383, 5.063e-6
-1.384, 5.067e-6
-1.385, 5.071e-6
-1.386, 5.070e-6
-1.387, 5.070e-6
-1.388, 5.072e-6
-1.389, 5.077e-6
-1.390, 5.079e-6
-1.391, 5.079e-6
-1.392, 5.080e-6
-1.393, 5.082e-6
-1.394, 5.086e-6
-1.395, 5.089e-6
-1.396, 5.088e-6
-1.397, 5.090e-6
-1.398, 5.092e-6
-1.399, 5.097e-6
-1.400, 5.098e-6
-1.401, 5.099e-6
-1.402, 5.099e-6
-1.403, 5.103e-6
-1.404, 5.107e-6
-1.405, 5.110e-6
-1.406, 5.111e-6
-1.407, 5.111e-6
-1.408, 5.113e-6
-1.409, 5.118e-6
-1.410, 5.121e-6
-1.411, 5.121e-6
-1.412, 5.122e-6
-1.413, 5.125e-6
-1.414, 5.131e-6
-1.415, 5.135e-6
-1.416, 5.134e-6
-1.417, 5.136e-6
-1.418, 5.137e-6
-1.419, 5.143e-6
-1.420, 5.146e-6
-1.421, 5.145e-6
-1.422, 5.149e-6
-1.423, 5.151e-6
-1.424, 5.156e-6
-1.425, 5.161e-6
-1.426, 5.160e-6
-1.427, 5.161e-6
-1.428, 5.165e-6
-1.429, 5.168e-6
-1.430, 5.174e-6
-1.431, 5.174e-6
-1.432, 5.177e-6
-1.433, 5.181e-6
-1.434, 5.188e-6
-1.435, 5.193e-6
-1.436, 5.193e-6
-1.437, 5.195e-6
-1.438, 5.199e-6
-1.439, 5.204e-6
-1.440, 5.208e-6
-1.441, 5.209e-6
-1.442, 5.210e-6
-1.443, 5.215e-6
-1.444, 5.221e-6
-1.445, 5.225e-6
-1.446, 5.228e-6
-1.447, 5.230e-6
-1.448, 5.236e-6
-1.449, 5.243e-6
-1.450, 5.246e-6
-1.451, 5.248e-6
-1.452, 5.251e-6
-1.453, 5.255e-6
-1.454, 5.263e-6
-1.455, 5.267e-6
-1.456, 5.269e-6
-1.457, 5.273e-6
-1.458, 5.276e-6
-1.459, 5.285e-6
-1.460, 5.291e-6
-1.461, 5.291e-6
-1.462, 5.293e-6
-1.463, 5.298e-6
-1.464, 5.305e-6
-1.465, 5.311e-6
-1.466, 5.314e-6
-1.467, 5.317e-6
-1.468, 5.321e-6
-1.469, 5.329e-6
-1.470, 5.337e-6
-1.471, 5.338e-6
-1.472, 5.342e-6
-1.473, 5.349e-6
-1.474, 5.358e-6
-1.475, 5.364e-6
-1.476, 5.366e-6
-1.477, 5.370e-6
-1.478, 5.376e-6
-1.479, 5.386e-6
-1.480, 5.392e-6
-1.481, 5.394e-6
-1.482, 5.398e-6
-1.483, 5.404e-6
-1.484, 5.414e-6
-1.485, 5.421e-6
-1.486, 5.426e-6
-1.487, 5.430e-6
-1.488, 5.437e-6
-1.489, 5.448e-6
-1.490, 5.452e-6
-1.491, 5.457e-6
-1.492, 5.462e-6
-1.493, 5.469e-6
-1.494, 5.481e-6
-1.495, 5.488e-6
-1.496, 5.491e-6
-1.497, 5.498e-6
-1.498, 5.507e-6
-1.499, 5.518e-6
-1.500, 5.523e-6
-1.501, 5.529e-6
-1.502, 5.535e-6
-1.503, 5.542e-6
-1.504, 5.555e-6
-1.505, 5.563e-6
-1.506, 5.567e-6
-1.507, 5.573e-6
-1.508, 5.582e-6
-1.509, 5.594e-6
-1.510, 5.605e-6
-1.511, 5.609e-6
-1.512, 5.616e-6
-1.513, 5.626e-6
-1.514, 5.638e-6
-1.515, 5.647e-6
-1.516, 5.652e-6
-1.517, 5.658e-6
-1.518, 5.669e-6
-1.519, 5.681e-6
-1.520, 5.691e-6
-1.521, 5.698e-6
-1.522, 5.706e-6
-1.523, 5.716e-6
-1.524, 5.731e-6
-1.525, 5.741e-6
-1.526, 5.748e-6
-1.527, 5.757e-6
-1.528, 5.768e-6
-1.529, 5.782e-6
-1.530, 5.794e-6
-1.531, 5.801e-6
-1.532, 5.810e-6
-1.533, 5.821e-6
-1.534, 5.837e-6
-1.535, 5.849e-6
-1.536, 5.857e-6
-1.537, 5.868e-6
-1.538, 5.877e-6
-1.539, 5.893e-6
-1.540, 5.904e-6
-1.541, 5.912e-6
-1.542, 5.922e-6
-1.543, 5.934e-6
-1.544, 5.948e-6
-1.545, 5.963e-6
-1.546, 5.971e-6
-1.547, 5.982e-6
-1.548, 5.995e-6
-1.549, 6.014e-6
-1.550, 6.028e-6
-1.551, 6.037e-6
-1.552, 6.048e-6
-1.553, 6.062e-6
-1.554, 6.079e-6
-1.555, 6.096e-6
-1.556, 6.107e-6
-1.557, 6.117e-6
-1.558, 6.132e-6
-1.559, 6.151e-6
-1.560, 6.166e-6
-1.561, 6.177e-6
-1.562, 6.189e-6
-1.563, 6.206e-6
-1.564, 6.224e-6
-1.565, 6.239e-6
-1.566, 6.255e-6
-1.567, 6.269e-6
-1.568, 6.290e-6
-1.569, 6.312e-6
-1.570, 6.327e-6
-1.571, 6.343e-6
-1.572, 6.360e-6
-1.573, 6.377e-6
-1.574, 6.402e-6
-1.575, 6.421e-6
-1.576, 6.438e-6
-1.577, 6.456e-6
-1.578, 6.471e-6
-1.579, 6.495e-6
-1.580, 6.514e-6
-1.581, 6.530e-6
-1.582, 6.547e-6
-1.583, 6.567e-6
-1.584, 6.590e-6
-1.585, 6.609e-6
-1.586, 6.627e-6
-1.587, 6.646e-6
-1.588, 6.668e-6
-1.589, 6.690e-6
-1.590, 6.712e-6
-1.591, 6.726e-6
-1.592, 6.747e-6
-1.593, 6.770e-6
-1.594, 6.795e-6
-1.595, 6.820e-6
-1.596, 6.839e-6
-1.597, 6.857e-6
-1.598, 6.880e-6
-1.599, 6.907e-6
-1.600, 6.933e-6
-1.601, 6.954e-6
-1.602, 6.972e-6
-1.603, 6.996e-6
-1.604, 7.023e-6
-1.605, 7.049e-6
-1.606, 7.071e-6
-1.607, 7.096e-6
-1.608, 7.122e-6
-1.609, 7.153e-6
-1.610, 7.180e-6
-1.611, 7.203e-6
-1.612, 7.226e-6
-1.613, 7.253e-6
-1.614, 7.285e-6
-1.615, 7.312e-6
-1.616, 7.338e-6
-1.617, 7.364e-6
-1.618, 7.391e-6
-1.619, 7.424e-6
-1.620, 7.455e-6
-1.621, 7.481e-6
-1.622, 7.511e-6
-1.623, 7.539e-6
-1.624, 7.575e-6
-1.625, 7.609e-6
-1.626, 7.636e-6
-1.627, 7.669e-6
-1.628, 7.702e-6
-1.629, 7.740e-6
-1.630, 7.776e-6
-1.631, 7.806e-6
-1.632, 7.841e-6
-1.633, 7.874e-6
-1.634, 7.914e-6
-1.635, 7.951e-6
-1.636, 7.987e-6
-1.637, 8.019e-6
-1.638, 8.062e-6
-1.639, 8.112e-6
-1.640, 8.148e-6
-1.641, 8.186e-6
-1.642, 8.223e-6
-1.643, 8.267e-6
-1.644, 8.312e-6
-1.645, 8.353e-6
-1.646, 8.393e-6
-1.647, 8.433e-6
-1.648, 8.482e-6
-1.649, 8.534e-6
-1.650, 8.579e-6
-1.651, 8.622e-6
-1.652, 8.667e-6
-1.653, 8.716e-6
-1.654, 8.772e-6
-1.655, 8.824e-6
-1.656, 8.869e-6
-1.657, 8.915e-6
-1.658, 8.970e-6
-1.659, 9.032e-6
-1.660, 9.090e-6
-1.661, 9.142e-6
-1.662, 9.193e-6
-1.663, 9.253e-6
-1.664, 9.318e-6
-1.665, 9.379e-6
-1.666, 9.435e-6
-1.667, 9.497e-6
-1.668, 9.564e-6
-1.669, 9.630e-6
-1.670, 9.696e-6
-1.671, 9.758e-6
-1.672, 9.822e-6
-1.673, 9.890e-6
-1.674, 9.963e-6
-1.675, 1.004e-5
-1.676, 1.011e-5
-1.677, 1.017e-5
-1.678, 1.025e-5
-1.679, 1.033e-5
-1.680, 1.041e-5
-1.681, 1.049e-5
-1.682, 1.057e-5
-1.683, 1.066e-5
-1.684, 1.075e-5
-1.685, 1.083e-5
-1.686, 1.092e-5
-1.687, 1.100e-5
-1.688, 1.109e-5
-1.689, 1.119e-5
-1.690, 1.129e-5
-1.691, 1.138e-5
-1.692, 1.148e-5
-1.693, 1.158e-5
-1.694, 1.168e-5
-1.695, 1.179e-5
-1.696, 1.189e-5
-1.697, 1.200e-5
-1.698, 1.209e-5
-1.699, 1.221e-5
-1.700, 1.233e-5
-1.701, 1.244e-5
-1.702, 1.256e-5
-1.703, 1.268e-5
-1.704, 1.280e-5
-1.705, 1.293e-5
-1.706, 1.305e-5
-1.707, 1.318e-5
-1.708, 1.331e-5
-1.709, 1.346e-5
-1.710, 1.360e-5
-1.711, 1.373e-5
-1.712, 1.387e-5
-1.713, 1.402e-5
-1.714, 1.417e-5
-1.715, 1.432e-5
-1.716, 1.447e-5
-1.717, 1.462e-5
-1.718, 1.478e-5
-1.719, 1.495e-5
-1.720, 1.512e-5
-1.721, 1.529e-5
-1.722, 1.546e-5
-1.723, 1.564e-5
-1.724, 1.582e-5
-1.725, 1.601e-5
-1.726, 1.620e-5
-1.727, 1.640e-5
-1.728, 1.659e-5
-1.729, 1.680e-5
-1.730, 1.700e-5
-1.731, 1.721e-5
-1.732, 1.742e-5
-1.733, 1.765e-5
-1.734, 1.788e-5
-1.735, 1.811e-5
-1.736, 1.833e-5
-1.737, 1.853e-5
-1.738, 1.875e-5
-1.739, 1.900e-5
-1.740, 1.925e-5
-1.741, 1.950e-5
-1.742, 1.976e-5
-1.743, 2.003e-5
-1.744, 2.030e-5
-1.745, 2.057e-5
-1.746, 2.085e-5
-1.747, 2.114e-5
-1.748, 2.144e-5
-1.749, 2.175e-5
-1.750, 2.206e-5
-1.751, 2.237e-5
-1.752, 2.269e-5
-1.753, 2.302e-5
-1.754, 2.338e-5
-1.755, 2.366e-5
-1.756, 2.393e-5
-1.757, 2.428e-5
-1.758, 2.464e-5
-1.759, 2.503e-5
-1.760, 2.543e-5
-1.761, 2.582e-5
-1.762, 2.620e-5
-1.763, 2.660e-5
-1.764, 2.703e-5
-1.765, 2.746e-5
-1.766, 2.788e-5
-1.767, 2.832e-5
-1.768, 2.879e-5
-1.769, 2.928e-5
-1.770, 2.977e-5
-1.771, 3.027e-5
-1.772, 3.078e-5
-1.773, 3.131e-5
-1.774, 3.186e-5
-1.775, 3.242e-5
-1.776, 3.297e-5
-1.777, 3.350e-5
-1.778, 3.403e-5
-1.779, 3.461e-5
-1.780, 3.521e-5
-1.781, 3.583e-5
-1.782, 3.648e-5
-1.783, 3.716e-5
-1.784, 3.785e-5
-1.785, 3.856e-5
-1.786, 3.930e-5
-1.787, 4.005e-5
-1.788, 4.084e-5
-1.789, 4.164e-5
-1.790, 4.243e-5
-1.791, 4.319e-5
-1.792, 4.400e-5
-1.793, 4.487e-5
-1.794, 4.579e-5
-1.795, 4.671e-5
-1.796, 4.767e-5
-1.797, 4.867e-5
-1.798, 4.970e-5
-1.799, 5.076e-5
-1.800, 5.183e-5
-1.801, 5.293e-5
-1.802, 5.405e-5
-1.803, 5.522e-5
-1.804, 5.641e-5
-1.805, 5.762e-5
-1.806, 5.888e-5
-1.807, 6.015e-5
-1.808, 6.147e-5
-1.809, 6.283e-5
-1.810, 6.425e-5
-1.811, 6.570e-5
-1.812, 6.718e-5
-1.813, 6.871e-5
-1.814, 7.029e-5
-1.815, 7.191e-5
-1.816, 7.357e-5
-1.817, 7.527e-5
-1.818, 7.702e-5
-1.819, 7.884e-5
-1.820, 8.071e-5
-1.821, 8.257e-5
-1.822, 8.449e-5
-1.823, 8.649e-5
-1.824, 8.857e-5
-1.825, 9.066e-5
-1.826, 9.278e-5
-1.827, 9.498e-5
-1.828, 9.724e-5
-1.829, 9.957e-5
-1.830, 1.020e-4
-1.831, 1.044e-4
-1.832, 1.069e-4
-1.833, 1.095e-4
-1.834, 1.122e-4
-1.835, 1.149e-4
-1.836, 1.177e-4
-1.837, 1.205e-4
-1.838, 1.234e-4
-1.839, 1.264e-4
-1.840, 1.294e-4
-1.841, 1.325e-4
-1.842, 1.357e-4
-1.843, 1.390e-4
-1.844, 1.423e-4
-1.845, 1.457e-4
-1.846, 1.492e-4
-1.847, 1.527e-4
-1.848, 1.564e-4
-1.849, 1.601e-4
-1.850, 1.640e-4
-1.851, 1.679e-4
-1.852, 1.718e-4
-1.853, 1.758e-4
-1.854, 1.799e-4
-1.855, 1.842e-4
-1.856, 1.884e-4
-1.857, 1.928e-4
-1.858, 1.972e-4
-1.859, 2.017e-4
-1.860, 2.063e-4
-1.861, 2.109e-4
-1.862, 2.156e-4
-1.863, 2.203e-4
-1.864, 2.252e-4
-1.865, 2.300e-4
-1.866, 2.349e-4
-1.867, 2.399e-4
-1.868, 2.450e-4
-1.869, 2.501e-4
-1.870, 2.552e-4
-1.871, 2.604e-4
-1.872, 2.655e-4
-1.873, 2.706e-4
-1.874, 2.757e-4
-1.875, 2.809e-4
-1.876, 2.860e-4
-1.877, 2.910e-4
-1.878, 2.960e-4
-1.879, 3.010e-4
-1.880, 3.059e-4
-1.881, 3.108e-4
-1.882, 3.157e-4
-1.883, 3.205e-4
-1.884, 3.253e-4
-1.885, 3.300e-4
-1.886, 3.347e-4
-1.887, 3.392e-4
-1.888, 3.439e-4
-1.889, 3.487e-4
-1.890, 3.533e-4
-1.891, 3.581e-4
-1.892, 3.628e-4
-1.893, 3.676e-4
-1.894, 3.723e-4
-1.895, 3.771e-4
-1.896, 3.820e-4
-1.897, 3.869e-4
-1.898, 3.918e-4
-1.899, 3.968e-4
-1.900, 4.018e-4
-1.901, 4.069e-4
-1.902, 4.120e-4
-1.903, 4.171e-4
-1.904, 4.222e-4
-1.905, 4.274e-4
-1.906, 4.326e-4
-1.907, 4.379e-4
-1.908, 4.432e-4
-1.909, 4.487e-4
-1.910, 4.541e-4
-1.911, 4.596e-4
-1.912, 4.651e-4
-1.913, 4.706e-4
-1.914, 4.763e-4
-1.915, 4.820e-4
-1.916, 4.878e-4
-1.917, 4.937e-4
-1.918, 4.995e-4
-1.919, 5.054e-4
-1.920, 5.113e-4
-1.921, 5.172e-4
-1.922, 5.233e-4
-1.923, 5.293e-4
-1.924, 5.354e-4
-1.925, 5.416e-4
-1.926, 5.478e-4
-1.927, 5.541e-4
-1.928, 5.603e-4
-1.929, 5.667e-4
-1.930, 5.731e-4
-1.931, 5.795e-4
-1.932, 5.859e-4
-1.933, 5.924e-4
-1.934, 5.989e-4
-1.935, 6.054e-4
-1.936, 6.119e-4
-1.937, 6.186e-4
-1.938, 6.254e-4
-1.939, 6.321e-4
-1.940, 6.389e-4
-1.941, 6.457e-4
-1.942, 6.524e-4
-1.943, 6.593e-4
-1.944, 6.664e-4
-1.945, 6.733e-4
-1.946, 6.803e-4
-1.947, 6.874e-4
-1.948, 6.946e-4
-1.949, 7.020e-4
-1.950, 7.092e-4
-1.951, 7.165e-4
-1.952, 7.239e-4
-1.953, 7.313e-4
-1.954, 7.387e-4
-1.955, 7.463e-4
-1.956, 7.538e-4
-1.957, 7.613e-4
-1.958, 7.689e-4
-1.959, 7.767e-4
-1.960, 7.845e-4
-1.961, 7.925e-4
-1.962, 8.004e-4
-1.963, 8.084e-4
-1.964, 8.165e-4
-1.965, 8.245e-4
-1.966, 8.325e-4
-1.967, 8.406e-4
-1.968, 8.487e-4
-1.969, 8.570e-4
-1.970, 8.653e-4
-1.971, 8.735e-4
-1.972, 8.819e-4
-1.973, 8.903e-4
-1.974, 8.987e-4
-1.975, 9.070e-4
-1.976, 9.153e-4
-1.977, 9.239e-4
-1.978, 9.325e-4
-1.979, 9.411e-4
-1.980, 9.498e-4
-1.981, 9.585e-4
-1.982, 9.671e-4
-1.983, 9.758e-4
-1.984, 9.848e-4
-1.985, 9.937e-4
-1.986, 1.003e-3
-1.987, 1.010e-3
-1.988, 1.011e-3
-1.989, 1.011e-3
-1.990, 1.011e-3
-1.991, 1.011e-3
-1.992, 1.011e-3
-1.993, 1.011e-3
-1.994, 1.011e-3
-1.995, 1.011e-3
-1.996, 1.011e-3
-1.997, 1.011e-3
-1.998, 1.011e-3
-1.999, 1.011e-3
-2.000, 1.011e-3
-2.001, 1.011e-3
-2.002, 1.011e-3
-2.003, 1.011e-3
-2.004, 1.011e-3
-2.005, 1.011e-3
-2.006, 1.011e-3
-2.007, 1.011e-3
-2.008, 1.011e-3
-2.009, 1.011e-3
-2.010, 1.011e-3
-2.011, 1.011e-3
-2.012, 1.011e-3
-2.013, 1.011e-3
-2.014, 1.011e-3
-2.015, 1.011e-3
-2.016, 1.011e-3
-2.017, 1.011e-3
-2.018, 1.011e-3
-2.019, 1.011e-3
-2.020, 1.011e-3
-2.021, 1.011e-3
-2.022, 1.011e-3
-2.023, 1.011e-3
-2.024, 1.011e-3
-2.025, 1.011e-3
-2.026, 1.011e-3
-2.027, 1.011e-3
-2.028, 1.011e-3
-2.029, 1.011e-3
-2.030, 1.011e-3
-2.031, 1.011e-3
-2.032, 1.011e-3
-2.033, 1.011e-3
-2.034, 1.011e-3
-2.035, 1.011e-3
-2.036, 1.011e-3
-2.037, 1.011e-3
-2.038, 1.011e-3
-2.039, 1.011e-3
-2.040, 1.011e-3
-2.041, 1.011e-3
-2.042, 1.011e-3
-2.043, 1.011e-3
-2.044, 1.011e-3
-2.045, 1.011e-3
-2.046, 1.011e-3
-2.047, 1.011e-3
-2.048, 1.011e-3
-2.049, 1.011e-3
-2.050, 1.011e-3
-2.051, 1.011e-3
-2.052, 1.011e-3
-2.053, 1.011e-3
-2.054, 1.011e-3
-2.055, 1.011e-3
-2.056, 1.011e-3
-2.057, 1.011e-3
-2.058, 1.011e-3
-2.059, 1.011e-3
-2.060, 1.011e-3
-2.061, 1.011e-3
-2.062, 1.011e-3
-2.063, 1.011e-3
-2.064, 1.011e-3
-2.065, 1.011e-3
-2.066, 1.011e-3
-2.067, 1.011e-3
-2.068, 1.011e-3
-2.069, 1.011e-3
-2.070, 1.011e-3
-2.071, 1.011e-3
-2.072, 1.011e-3
-2.073, 1.011e-3
-2.074, 1.011e-3
-2.075, 1.011e-3
-2.076, 1.011e-3
-2.077, 1.011e-3
-2.078, 1.011e-3
-2.079, 1.011e-3
-2.080, 1.011e-3
-2.081, 1.011e-3
-2.082, 1.011e-3
-2.083, 1.011e-3
-2.084, 1.011e-3
-2.085, 1.011e-3
-2.086, 1.011e-3
-2.087, 1.011e-3
-2.088, 1.011e-3
-2.089, 1.011e-3
-2.090, 1.011e-3
-2.091, 1.011e-3
-2.092, 1.011e-3
-2.093, 1.011e-3
-2.094, 1.011e-3
-2.095, 1.011e-3
-2.096, 1.011e-3
-2.097, 1.011e-3
-2.098, 1.011e-3
-2.099, 1.011e-3
