Dec. 27, 2024   04:33:48
Linear Sweep Voltammetry
File: c:/users/guazh/data/banditlqround7_x0exp136_r20/2024-12-24-exp754\pre-regen-2024-12-27t04_30_42-lsvinphos\pre-regen_lsv_50mvs_efin_-1900mv.bin
Data Source:  Experiment
Instrument Model:  CHI760E
Header: LSV ran at 50 mVs with Efin at -1900mV
Note: 

Init E (V) = -0.6
Final E (V) = -1.9
Scan Rate (V/s) = 0.05
Sample Interval (V) = 0.001
Quiet Time (sec) = 2
Sensitivity (A/V) = 1e-4
Comp R (ohm) = 9.3

Results:

Channel 1:
Ep = -1.413V
ip = 3.530e-4A
Ah = 2.469e-4C

Potential/V, Current/A

-0.600, -3.470e-6
-0.601, -1.922e-6
-0.602, -1.088e-6
-0.603, -5.791e-7
-0.604, -1.629e-7
-0.605, 2.349e-7
-0.606, 5.992e-7
-0.607, 8.958e-7
-0.608, 1.177e-6
-0.609, 1.457e-6
-0.610, 1.733e-6
-0.611, 2.012e-6
-0.612, 2.244e-6
-0.613, 2.461e-6
-0.614, 2.694e-6
-0.615, 2.944e-6
-0.616, 3.167e-6
-0.617, 3.367e-6
-0.618, 3.560e-6
-0.619, 3.766e-6
-0.620, 3.980e-6
-0.621, 4.184e-6
-0.622, 4.376e-6
-0.623, 4.542e-6
-0.624, 4.727e-6
-0.625, 4.935e-6
-0.626, 5.128e-6
-0.627, 5.311e-6
-0.628, 5.466e-6
-0.629, 5.637e-6
-0.630, 5.841e-6
-0.631, 6.019e-6
-0.632, 6.191e-6
-0.633, 6.347e-6
-0.634, 6.512e-6
-0.635, 6.705e-6
-0.636, 6.893e-6
-0.637, 7.051e-6
-0.638, 7.214e-6
-0.639, 7.376e-6
-0.640, 7.566e-6
-0.641, 7.756e-6
-0.642, 7.909e-6
-0.643, 8.067e-6
-0.644, 8.238e-6
-0.645, 8.420e-6
-0.646, 8.616e-6
-0.647, 8.780e-6
-0.648, 8.941e-6
-0.649, 9.107e-6
-0.650, 9.293e-6
-0.651, 9.488e-6
-0.652, 9.654e-6
-0.653, 9.818e-6
-0.654, 1.000e-5
-0.655, 1.019e-5
-0.656, 1.038e-5
-0.657, 1.056e-5
-0.658, 1.073e-5
-0.659, 1.092e-5
-0.660, 1.112e-5
-0.661, 1.132e-5
-0.662, 1.152e-5
-0.663, 1.168e-5
-0.664, 1.188e-5
-0.665, 1.209e-5
-0.666, 1.230e-5
-0.667, 1.250e-5
-0.668, 1.268e-5
-0.669, 1.288e-5
-0.670, 1.311e-5
-0.671, 1.333e-5
-0.672, 1.355e-5
-0.673, 1.374e-5
-0.674, 1.395e-5
-0.675, 1.419e-5
-0.676, 1.443e-5
-0.677, 1.464e-5
-0.678, 1.487e-5
-0.679, 1.509e-5
-0.680, 1.534e-5
-0.681, 1.560e-5
-0.682, 1.582e-5
-0.683, 1.606e-5
-0.684, 1.630e-5
-0.685, 1.657e-5
-0.686, 1.684e-5
-0.687, 1.708e-5
-0.688, 1.732e-5
-0.689, 1.758e-5
-0.690, 1.785e-5
-0.691, 1.814e-5
-0.692, 1.840e-5
-0.693, 1.864e-5
-0.694, 1.892e-5
-0.695, 1.921e-5
-0.696, 1.950e-5
-0.697, 1.978e-5
-0.698, 2.004e-5
-0.699, 2.032e-5
-0.700, 2.063e-5
-0.701, 2.093e-5
-0.702, 2.123e-5
-0.703, 2.150e-5
-0.704, 2.180e-5
-0.705, 2.211e-5
-0.706, 2.242e-5
-0.707, 2.274e-5
-0.708, 2.302e-5
-0.709, 2.333e-5
-0.710, 2.366e-5
-0.711, 2.398e-5
-0.712, 2.431e-5
-0.713, 2.461e-5
-0.714, 2.493e-5
-0.715, 2.527e-5
-0.716, 2.561e-5
-0.717, 2.593e-5
-0.718, 2.625e-5
-0.719, 2.656e-5
-0.720, 2.692e-5
-0.721, 2.726e-5
-0.722, 2.760e-5
-0.723, 2.793e-5
-0.724, 2.825e-5
-0.725, 2.860e-5
-0.726, 2.896e-5
-0.727, 2.930e-5
-0.728, 2.964e-5
-0.729, 2.998e-5
-0.730, 3.034e-5
-0.731, 3.072e-5
-0.732, 3.106e-5
-0.733, 3.139e-5
-0.734, 3.175e-5
-0.735, 3.212e-5
-0.736, 3.249e-5
-0.737, 3.285e-5
-0.738, 3.319e-5
-0.739, 3.355e-5
-0.740, 3.393e-5
-0.741, 3.430e-5
-0.742, 3.467e-5
-0.743, 3.501e-5
-0.744, 3.538e-5
-0.745, 3.575e-5
-0.746, 3.612e-5
-0.747, 3.649e-5
-0.748, 3.684e-5
-0.749, 3.720e-5
-0.750, 3.759e-5
-0.751, 3.797e-5
-0.752, 3.834e-5
-0.753, 3.869e-5
-0.754, 3.904e-5
-0.755, 3.944e-5
-0.756, 3.983e-5
-0.757, 4.019e-5
-0.758, 4.055e-5
-0.759, 4.091e-5
-0.760, 4.130e-5
-0.761, 4.169e-5
-0.762, 4.204e-5
-0.763, 4.240e-5
-0.764, 4.277e-5
-0.765, 4.315e-5
-0.766, 4.354e-5
-0.767, 4.389e-5
-0.768, 4.426e-5
-0.769, 4.464e-5
-0.770, 4.500e-5
-0.771, 4.539e-5
-0.772, 4.575e-5
-0.773, 4.611e-5
-0.774, 4.647e-5
-0.775, 4.684e-5
-0.776, 4.722e-5
-0.777, 4.759e-5
-0.778, 4.795e-5
-0.779, 4.831e-5
-0.780, 4.868e-5
-0.781, 4.906e-5
-0.782, 4.943e-5
-0.783, 4.976e-5
-0.784, 5.012e-5
-0.785, 5.049e-5
-0.786, 5.087e-5
-0.787, 5.123e-5
-0.788, 5.157e-5
-0.789, 5.191e-5
-0.790, 5.228e-5
-0.791, 5.265e-5
-0.792, 5.301e-5
-0.793, 5.335e-5
-0.794, 5.369e-5
-0.795, 5.406e-5
-0.796, 5.442e-5
-0.797, 5.477e-5
-0.798, 5.510e-5
-0.799, 5.543e-5
-0.800, 5.580e-5
-0.801, 5.617e-5
-0.802, 5.650e-5
-0.803, 5.684e-5
-0.804, 5.716e-5
-0.805, 5.752e-5
-0.806, 5.788e-5
-0.807, 5.821e-5
-0.808, 5.853e-5
-0.809, 5.886e-5
-0.810, 5.920e-5
-0.811, 5.955e-5
-0.812, 5.987e-5
-0.813, 6.018e-5
-0.814, 6.051e-5
-0.815, 6.084e-5
-0.816, 6.119e-5
-0.817, 6.151e-5
-0.818, 6.182e-5
-0.819, 6.217e-5
-0.820, 6.257e-5
-0.821, 6.288e-5
-0.822, 6.319e-5
-0.823, 6.348e-5
-0.824, 6.379e-5
-0.825, 6.411e-5
-0.826, 6.444e-5
-0.827, 6.476e-5
-0.828, 6.505e-5
-0.829, 6.534e-5
-0.830, 6.567e-5
-0.831, 6.599e-5
-0.832, 6.630e-5
-0.833, 6.659e-5
-0.834, 6.688e-5
-0.835, 6.720e-5
-0.836, 6.751e-5
-0.837, 6.781e-5
-0.838, 6.810e-5
-0.839, 6.838e-5
-0.840, 6.869e-5
-0.841, 6.901e-5
-0.842, 6.929e-5
-0.843, 6.957e-5
-0.844, 6.985e-5
-0.845, 7.016e-5
-0.846, 7.047e-5
-0.847, 7.075e-5
-0.848, 7.102e-5
-0.849, 7.130e-5
-0.850, 7.159e-5
-0.851, 7.190e-5
-0.852, 7.217e-5
-0.853, 7.243e-5
-0.854, 7.271e-5
-0.855, 7.299e-5
-0.856, 7.330e-5
-0.857, 7.357e-5
-0.858, 7.382e-5
-0.859, 7.409e-5
-0.860, 7.437e-5
-0.861, 7.466e-5
-0.862, 7.494e-5
-0.863, 7.517e-5
-0.864, 7.541e-5
-0.865, 7.570e-5
-0.866, 7.596e-5
-0.867, 7.624e-5
-0.868, 7.648e-5
-0.869, 7.673e-5
-0.870, 7.702e-5
-0.871, 7.732e-5
-0.872, 7.757e-5
-0.873, 7.781e-5
-0.874, 7.804e-5
-0.875, 7.831e-5
-0.876, 7.856e-5
-0.877, 7.882e-5
-0.878, 7.906e-5
-0.879, 7.930e-5
-0.880, 7.957e-5
-0.881, 7.983e-5
-0.882, 8.007e-5
-0.883, 8.031e-5
-0.884, 8.054e-5
-0.885, 8.080e-5
-0.886, 8.106e-5
-0.887, 8.128e-5
-0.888, 8.151e-5
-0.889, 8.173e-5
-0.890, 8.198e-5
-0.891, 8.225e-5
-0.892, 8.248e-5
-0.893, 8.269e-5
-0.894, 8.292e-5
-0.895, 8.315e-5
-0.896, 8.341e-5
-0.897, 8.365e-5
-0.898, 8.384e-5
-0.899, 8.407e-5
-0.900, 8.430e-5
-0.901, 8.456e-5
-0.902, 8.478e-5
-0.903, 8.498e-5
-0.904, 8.520e-5
-0.905, 8.543e-5
-0.906, 8.566e-5
-0.907, 8.590e-5
-0.908, 8.610e-5
-0.909, 8.631e-5
-0.910, 8.654e-5
-0.911, 8.677e-5
-0.912, 8.700e-5
-0.913, 8.720e-5
-0.914, 8.740e-5
-0.915, 8.763e-5
-0.916, 8.786e-5
-0.917, 8.808e-5
-0.918, 8.829e-5
-0.919, 8.848e-5
-0.920, 8.870e-5
-0.921, 8.893e-5
-0.922, 8.913e-5
-0.923, 8.934e-5
-0.924, 8.954e-5
-0.925, 8.975e-5
-0.926, 8.999e-5
-0.927, 9.019e-5
-0.928, 9.039e-5
-0.929, 9.060e-5
-0.930, 9.081e-5
-0.931, 9.104e-5
-0.932, 9.122e-5
-0.933, 9.143e-5
-0.934, 9.164e-5
-0.935, 9.186e-5
-0.936, 9.210e-5
-0.937, 9.230e-5
-0.938, 9.250e-5
-0.939, 9.269e-5
-0.940, 9.292e-5
-0.941, 9.315e-5
-0.942, 9.337e-5
-0.943, 9.355e-5
-0.944, 9.377e-5
-0.945, 9.401e-5
-0.946, 9.424e-5
-0.947, 9.447e-5
-0.948, 9.467e-5
-0.949, 9.488e-5
-0.950, 9.513e-5
-0.951, 9.536e-5
-0.952, 9.560e-5
-0.953, 9.580e-5
-0.954, 9.603e-5
-0.955, 9.628e-5
-0.956, 9.653e-5
-0.957, 9.676e-5
-0.958, 9.698e-5
-0.959, 9.721e-5
-0.960, 9.747e-5
-0.961, 9.773e-5
-0.962, 9.798e-5
-0.963, 9.822e-5
-0.964, 9.845e-5
-0.965, 9.872e-5
-0.966, 9.900e-5
-0.967, 9.925e-5
-0.968, 9.950e-5
-0.969, 9.975e-5
-0.970, 1.000e-4
-0.971, 1.003e-4
-0.972, 1.006e-4
-0.973, 1.009e-4
-0.974, 1.012e-4
-0.975, 1.015e-4
-0.976, 1.018e-4
-0.977, 1.021e-4
-0.978, 1.023e-4
-0.979, 1.027e-4
-0.980, 1.030e-4
-0.981, 1.033e-4
-0.982, 1.036e-4
-0.983, 1.039e-4
-0.984, 1.042e-4
-0.985, 1.046e-4
-0.986, 1.049e-4
-0.987, 1.053e-4
-0.988, 1.056e-4
-0.989, 1.059e-4
-0.990, 1.063e-4
-0.991, 1.067e-4
-0.992, 1.070e-4
-0.993, 1.074e-4
-0.994, 1.077e-4
-0.995, 1.081e-4
-0.996, 1.085e-4
-0.997, 1.089e-4
-0.998, 1.093e-4
-0.999, 1.097e-4
-1.000, 1.101e-4
-1.001, 1.106e-4
-1.002, 1.110e-4
-1.003, 1.115e-4
-1.004, 1.119e-4
-1.005, 1.124e-4
-1.006, 1.128e-4
-1.007, 1.133e-4
-1.008, 1.138e-4
-1.009, 1.142e-4
-1.010, 1.147e-4
-1.011, 1.152e-4
-1.012, 1.157e-4
-1.013, 1.162e-4
-1.014, 1.168e-4
-1.015, 1.173e-4
-1.016, 1.179e-4
-1.017, 1.184e-4
-1.018, 1.189e-4
-1.019, 1.195e-4
-1.020, 1.201e-4
-1.021, 1.207e-4
-1.022, 1.213e-4
-1.023, 1.219e-4
-1.024, 1.225e-4
-1.025, 1.231e-4
-1.026, 1.238e-4
-1.027, 1.244e-4
-1.028, 1.250e-4
-1.029, 1.257e-4
-1.030, 1.264e-4
-1.031, 1.271e-4
-1.032, 1.278e-4
-1.033, 1.285e-4
-1.034, 1.292e-4
-1.035, 1.299e-4
-1.036, 1.307e-4
-1.037, 1.314e-4
-1.038, 1.322e-4
-1.039, 1.329e-4
-1.040, 1.337e-4
-1.041, 1.345e-4
-1.042, 1.354e-4
-1.043, 1.362e-4
-1.044, 1.370e-4
-1.045, 1.378e-4
-1.046, 1.387e-4
-1.047, 1.396e-4
-1.048, 1.404e-4
-1.049, 1.413e-4
-1.050, 1.422e-4
-1.051, 1.432e-4
-1.052, 1.441e-4
-1.053, 1.451e-4
-1.054, 1.460e-4
-1.055, 1.470e-4
-1.056, 1.480e-4
-1.057, 1.490e-4
-1.058, 1.500e-4
-1.059, 1.511e-4
-1.060, 1.521e-4
-1.061, 1.532e-4
-1.062, 1.543e-4
-1.063, 1.553e-4
-1.064, 1.564e-4
-1.065, 1.576e-4
-1.066, 1.587e-4
-1.067, 1.599e-4
-1.068, 1.610e-4
-1.069, 1.622e-4
-1.070, 1.634e-4
-1.071, 1.647e-4
-1.072, 1.659e-4
-1.073, 1.672e-4
-1.074, 1.684e-4
-1.075, 1.697e-4
-1.076, 1.711e-4
-1.077, 1.724e-4
-1.078, 1.737e-4
-1.079, 1.750e-4
-1.080, 1.764e-4
-1.081, 1.778e-4
-1.082, 1.792e-4
-1.083, 1.806e-4
-1.084, 1.821e-4
-1.085, 1.835e-4
-1.086, 1.850e-4
-1.087, 1.865e-4
-1.088, 1.880e-4
-1.089, 1.895e-4
-1.090, 1.911e-4
-1.091, 1.927e-4
-1.092, 1.943e-4
-1.093, 1.958e-4
-1.094, 1.975e-4
-1.095, 1.991e-4
-1.096, 2.008e-4
-1.097, 2.024e-4
-1.098, 2.041e-4
-1.099, 2.058e-4
-1.100, 2.075e-4
-1.101, 2.093e-4
-1.102, 2.111e-4
-1.103, 2.129e-4
-1.104, 2.146e-4
-1.105, 2.165e-4
-1.106, 2.183e-4
-1.107, 2.202e-4
-1.108, 2.220e-4
-1.109, 2.238e-4
-1.110, 2.257e-4
-1.111, 2.277e-4
-1.112, 2.296e-4
-1.113, 2.315e-4
-1.114, 2.335e-4
-1.115, 2.355e-4
-1.116, 2.375e-4
-1.117, 2.395e-4
-1.118, 2.414e-4
-1.119, 2.434e-4
-1.120, 2.455e-4
-1.121, 2.476e-4
-1.122, 2.496e-4
-1.123, 2.517e-4
-1.124, 2.537e-4
-1.125, 2.559e-4
-1.126, 2.580e-4
-1.127, 2.601e-4
-1.128, 2.622e-4
-1.129, 2.643e-4
-1.130, 2.665e-4
-1.131, 2.687e-4
-1.132, 2.708e-4
-1.133, 2.730e-4
-1.134, 2.751e-4
-1.135, 2.773e-4
-1.136, 2.795e-4
-1.137, 2.817e-4
-1.138, 2.839e-4
-1.139, 2.861e-4
-1.140, 2.883e-4
-1.141, 2.905e-4
-1.142, 2.928e-4
-1.143, 2.949e-4
-1.144, 2.971e-4
-1.145, 2.994e-4
-1.146, 3.017e-4
-1.147, 3.039e-4
-1.148, 3.061e-4
-1.149, 3.083e-4
-1.150, 3.105e-4
-1.151, 3.128e-4
-1.152, 3.150e-4
-1.153, 3.172e-4
-1.154, 3.194e-4
-1.155, 3.216e-4
-1.156, 3.239e-4
-1.157, 3.261e-4
-1.158, 3.283e-4
-1.159, 3.304e-4
-1.160, 3.327e-4
-1.161, 3.349e-4
-1.162, 3.371e-4
-1.163, 3.393e-4
-1.164, 3.414e-4
-1.165, 3.436e-4
-1.166, 3.458e-4
-1.167, 3.480e-4
-1.168, 3.501e-4
-1.169, 3.522e-4
-1.170, 3.544e-4
-1.171, 3.566e-4
-1.172, 3.587e-4
-1.173, 3.608e-4
-1.174, 3.629e-4
-1.175, 3.650e-4
-1.176, 3.672e-4
-1.177, 3.693e-4
-1.178, 3.714e-4
-1.179, 3.735e-4
-1.180, 3.755e-4
-1.181, 3.776e-4
-1.182, 3.797e-4
-1.183, 3.817e-4
-1.184, 3.837e-4
-1.185, 3.858e-4
-1.186, 3.878e-4
-1.187, 3.898e-4
-1.188, 3.918e-4
-1.189, 3.938e-4
-1.190, 3.958e-4
-1.191, 3.978e-4
-1.192, 3.998e-4
-1.193, 4.017e-4
-1.194, 4.036e-4
-1.195, 4.056e-4
-1.196, 4.075e-4
-1.197, 4.095e-4
-1.198, 4.114e-4
-1.199, 4.132e-4
-1.200, 4.151e-4
-1.201, 4.170e-4
-1.202, 4.189e-4
-1.203, 4.207e-4
-1.204, 4.225e-4
-1.205, 4.243e-4
-1.206, 4.261e-4
-1.207, 4.279e-4
-1.208, 4.297e-4
-1.209, 4.314e-4
-1.210, 4.331e-4
-1.211, 4.348e-4
-1.212, 4.365e-4
-1.213, 4.382e-4
-1.214, 4.398e-4
-1.215, 4.414e-4
-1.216, 4.431e-4
-1.217, 4.447e-4
-1.218, 4.463e-4
-1.219, 4.478e-4
-1.220, 4.494e-4
-1.221, 4.510e-4
-1.222, 4.525e-4
-1.223, 4.540e-4
-1.224, 4.554e-4
-1.225, 4.569e-4
-1.226, 4.584e-4
-1.227, 4.599e-4
-1.228, 4.613e-4
-1.229, 4.628e-4
-1.230, 4.643e-4
-1.231, 4.656e-4
-1.232, 4.670e-4
-1.233, 4.683e-4
-1.234, 4.696e-4
-1.235, 4.710e-4
-1.236, 4.723e-4
-1.237, 4.736e-4
-1.238, 4.748e-4
-1.239, 4.760e-4
-1.240, 4.773e-4
-1.241, 4.786e-4
-1.242, 4.798e-4
-1.243, 4.810e-4
-1.244, 4.821e-4
-1.245, 4.833e-4
-1.246, 4.844e-4
-1.247, 4.855e-4
-1.248, 4.866e-4
-1.249, 4.877e-4
-1.250, 4.888e-4
-1.251, 4.899e-4
-1.252, 4.909e-4
-1.253, 4.919e-4
-1.254, 4.929e-4
-1.255, 4.940e-4
-1.256, 4.950e-4
-1.257, 4.960e-4
-1.258, 4.970e-4
-1.259, 4.980e-4
-1.260, 4.990e-4
-1.261, 5.000e-4
-1.262, 5.010e-4
-1.263, 5.020e-4
-1.264, 5.030e-4
-1.265, 5.040e-4
-1.266, 5.050e-4
-1.267, 5.061e-4
-1.268, 5.071e-4
-1.269, 5.081e-4
-1.270, 5.091e-4
-1.271, 5.102e-4
-1.272, 5.112e-4
-1.273, 5.123e-4
-1.274, 5.134e-4
-1.275, 5.145e-4
-1.276, 5.156e-4
-1.277, 5.167e-4
-1.278, 5.178e-4
-1.279, 5.189e-4
-1.280, 5.201e-4
-1.281, 5.213e-4
-1.282, 5.225e-4
-1.283, 5.236e-4
-1.284, 5.248e-4
-1.285, 5.260e-4
-1.286, 5.272e-4
-1.287, 5.284e-4
-1.288, 5.296e-4
-1.289, 5.308e-4
-1.290, 5.321e-4
-1.291, 5.333e-4
-1.292, 5.346e-4
-1.293, 5.358e-4
-1.294, 5.371e-4
-1.295, 5.384e-4
-1.296, 5.398e-4
-1.297, 5.411e-4
-1.298, 5.424e-4
-1.299, 5.437e-4
-1.300, 5.451e-4
-1.301, 5.465e-4
-1.302, 5.479e-4
-1.303, 5.492e-4
-1.304, 5.506e-4
-1.305, 5.520e-4
-1.306, 5.535e-4
-1.307, 5.550e-4
-1.308, 5.564e-4
-1.309, 5.579e-4
-1.310, 5.594e-4
-1.311, 5.609e-4
-1.312, 5.625e-4
-1.313, 5.640e-4
-1.314, 5.655e-4
-1.315, 5.671e-4
-1.316, 5.687e-4
-1.317, 5.704e-4
-1.318, 5.720e-4
-1.319, 5.737e-4
-1.320, 5.754e-4
-1.321, 5.772e-4
-1.322, 5.789e-4
-1.323, 5.807e-4
-1.324, 5.825e-4
-1.325, 5.844e-4
-1.326, 5.863e-4
-1.327, 5.882e-4
-1.328, 5.902e-4
-1.329, 5.921e-4
-1.330, 5.941e-4
-1.331, 5.963e-4
-1.332, 5.984e-4
-1.333, 6.005e-4
-1.334, 6.027e-4
-1.335, 6.049e-4
-1.336, 6.072e-4
-1.337, 6.096e-4
-1.338, 6.119e-4
-1.339, 6.144e-4
-1.340, 6.168e-4
-1.341, 6.194e-4
-1.342, 6.221e-4
-1.343, 6.247e-4
-1.344, 6.275e-4
-1.345, 6.303e-4
-1.346, 6.332e-4
-1.347, 6.361e-4
-1.348, 6.391e-4
-1.349, 6.421e-4
-1.350, 6.452e-4
-1.351, 6.484e-4
-1.352, 6.516e-4
-1.353, 6.549e-4
-1.354, 6.583e-4
-1.355, 6.617e-4
-1.356, 6.652e-4
-1.357, 6.688e-4
-1.358, 6.724e-4
-1.359, 6.761e-4
-1.360, 6.799e-4
-1.361, 6.838e-4
-1.362, 6.878e-4
-1.363, 6.918e-4
-1.364, 6.959e-4
-1.365, 7.001e-4
-1.366, 7.045e-4
-1.367, 7.089e-4
-1.368, 7.134e-4
-1.369, 7.179e-4
-1.370, 7.227e-4
-1.371, 7.275e-4
-1.372, 7.324e-4
-1.373, 7.374e-4
-1.374, 7.425e-4
-1.375, 7.477e-4
-1.376, 7.531e-4
-1.377, 7.586e-4
-1.378, 7.641e-4
-1.379, 7.697e-4
-1.380, 7.755e-4
-1.381, 7.814e-4
-1.382, 7.875e-4
-1.383, 7.936e-4
-1.384, 7.999e-4
-1.385, 8.062e-4
-1.386, 8.126e-4
-1.387, 8.192e-4
-1.388, 8.257e-4
-1.389, 8.324e-4
-1.390, 8.392e-4
-1.391, 8.461e-4
-1.392, 8.531e-4
-1.393, 8.601e-4
-1.394, 8.672e-4
-1.395, 8.744e-4
-1.396, 8.817e-4
-1.397, 8.890e-4
-1.398, 8.964e-4
-1.399, 9.039e-4
-1.400, 9.115e-4
-1.401, 9.192e-4
-1.402, 9.269e-4
-1.403, 9.346e-4
-1.404, 9.424e-4
-1.405, 9.504e-4
-1.406, 9.584e-4
-1.407, 9.665e-4
-1.408, 9.746e-4
-1.409, 9.828e-4
-1.410, 9.910e-4
-1.411, 9.994e-4
-1.412, 1.008e-3
-1.413, 1.011e-3
-1.414, 1.011e-3
-1.415, 1.011e-3
-1.416, 1.011e-3
-1.417, 1.011e-3
-1.418, 1.011e-3
-1.419, 1.011e-3
-1.420, 1.011e-3
-1.421, 1.011e-3
-1.422, 1.011e-3
-1.423, 1.011e-3
-1.424, 1.011e-3
-1.425, 1.011e-3
-1.426, 1.011e-3
-1.427, 1.011e-3
-1.428, 1.011e-3
-1.429, 1.011e-3
-1.430, 1.011e-3
-1.431, 1.011e-3
-1.432, 1.011e-3
-1.433, 1.011e-3
-1.434, 1.011e-3
-1.435, 1.011e-3
-1.436, 1.011e-3
-1.437, 1.011e-3
-1.438, 1.011e-3
-1.439, 1.011e-3
-1.440, 1.011e-3
-1.441, 1.011e-3
-1.442, 1.011e-3
-1.443, 1.011e-3
-1.444, 1.011e-3
-1.445, 1.011e-3
-1.446, 1.011e-3
-1.447, 1.011e-3
-1.448, 1.011e-3
-1.449, 1.011e-3
-1.450, 1.011e-3
-1.451, 1.011e-3
-1.452, 1.011e-3
-1.453, 1.011e-3
-1.454, 1.011e-3
-1.455, 1.011e-3
-1.456, 1.011e-3
-1.457, 1.011e-3
-1.458, 1.011e-3
-1.459, 1.011e-3
-1.460, 1.011e-3
-1.461, 1.011e-3
-1.462, 1.011e-3
-1.463, 1.011e-3
-1.464, 1.011e-3
-1.465, 1.011e-3
-1.466, 1.011e-3
-1.467, 1.011e-3
-1.468, 1.011e-3
-1.469, 1.011e-3
-1.470, 1.011e-3
-1.471, 1.011e-3
-1.472, 1.011e-3
-1.473, 1.011e-3
-1.474, 1.011e-3
-1.475, 1.011e-3
-1.476, 1.011e-3
-1.477, 1.011e-3
-1.478, 1.011e-3
-1.479, 1.011e-3
-1.480, 1.011e-3
-1.481, 1.011e-3
-1.482, 1.011e-3
-1.483, 1.011e-3
-1.484, 1.011e-3
-1.485, 1.011e-3
-1.486, 1.011e-3
-1.487, 1.011e-3
-1.488, 1.011e-3
-1.489, 1.011e-3
-1.490, 1.011e-3
-1.491, 1.011e-3
-1.492, 1.011e-3
-1.493, 1.011e-3
-1.494, 1.011e-3
-1.495, 1.011e-3
-1.496, 1.011e-3
-1.497, 1.011e-3
-1.498, 1.011e-3
-1.499, 1.011e-3
-1.500, 1.011e-3
-1.501, 1.011e-3
-1.502, 1.011e-3
-1.503, 1.011e-3
-1.504, 1.011e-3
-1.505, 1.011e-3
-1.506, 1.011e-3
-1.507, 1.011e-3
-1.508, 1.011e-3
-1.509, 1.011e-3
-1.510, 1.011e-3
-1.511, 1.011e-3
-1.512, 1.011e-3
-1.513, 1.011e-3
-1.514, 1.011e-3
-1.515, 1.011e-3
-1.516, 1.011e-3
-1.517, 1.011e-3
-1.518, 1.011e-3
-1.519, 1.011e-3
-1.520, 1.011e-3
-1.521, 1.011e-3
-1.522, 1.011e-3
-1.523, 1.011e-3
-1.524, 1.011e-3
-1.525, 1.011e-3
-1.526, 1.011e-3
-1.527, 1.011e-3
-1.528, 1.011e-3
-1.529, 1.011e-3
-1.530, 1.011e-3
-1.531, 1.011e-3
-1.532, 1.011e-3
-1.533, 1.011e-3
-1.534, 1.011e-3
-1.535, 1.011e-3
-1.536, 1.011e-3
-1.537, 1.011e-3
-1.538, 1.011e-3
-1.539, 1.011e-3
-1.540, 1.011e-3
-1.541, 1.011e-3
-1.542, 1.011e-3
-1.543, 1.011e-3
-1.544, 1.011e-3
-1.545, 1.011e-3
-1.546, 1.011e-3
-1.547, 1.011e-3
-1.548, 1.011e-3
-1.549, 1.011e-3
-1.550, 1.011e-3
-1.551, 1.011e-3
-1.552, 1.011e-3
-1.553, 1.011e-3
-1.554, 1.011e-3
-1.555, 1.011e-3
-1.556, 1.011e-3
-1.557, 1.011e-3
-1.558, 1.011e-3
-1.559, 1.011e-3
-1.560, 1.011e-3
-1.561, 1.011e-3
-1.562, 1.011e-3
-1.563, 1.011e-3
-1.564, 1.011e-3
-1.565, 1.011e-3
-1.566, 1.011e-3
-1.567, 1.011e-3
-1.568, 1.011e-3
-1.569, 1.011e-3
-1.570, 1.011e-3
-1.571, 1.011e-3
-1.572, 1.011e-3
-1.573, 1.011e-3
-1.574, 1.011e-3
-1.575, 1.011e-3
-1.576, 1.011e-3
-1.577, 1.011e-3
-1.578, 1.011e-3
-1.579, 1.011e-3
-1.580, 1.011e-3
-1.581, 1.011e-3
-1.582, 1.011e-3
-1.583, 1.011e-3
-1.584, 1.011e-3
-1.585, 1.011e-3
-1.586, 1.011e-3
-1.587, 1.011e-3
-1.588, 1.011e-3
-1.589, 1.011e-3
-1.590, 1.011e-3
-1.591, 1.011e-3
-1.592, 1.011e-3
-1.593, 1.011e-3
-1.594, 1.011e-3
-1.595, 1.011e-3
-1.596, 1.011e-3
-1.597, 1.011e-3
-1.598, 1.011e-3
-1.599, 1.011e-3
-1.600, 1.011e-3
-1.601, 1.011e-3
-1.602, 1.011e-3
-1.603, 1.011e-3
-1.604, 1.011e-3
-1.605, 1.011e-3
-1.606, 1.011e-3
-1.607, 1.011e-3
-1.608, 1.011e-3
-1.609, 1.011e-3
-1.610, 1.011e-3
-1.611, 1.011e-3
-1.612, 1.011e-3
-1.613, 1.011e-3
-1.614, 1.011e-3
-1.615, 1.011e-3
-1.616, 1.011e-3
-1.617, 1.011e-3
-1.618, 1.011e-3
-1.619, 1.011e-3
-1.620, 1.011e-3
-1.621, 1.011e-3
-1.622, 1.011e-3
-1.623, 1.011e-3
-1.624, 1.011e-3
-1.625, 1.011e-3
-1.626, 1.011e-3
-1.627, 1.011e-3
-1.628, 1.011e-3
-1.629, 1.011e-3
-1.630, 1.011e-3
-1.631, 1.011e-3
-1.632, 1.011e-3
-1.633, 1.011e-3
-1.634, 1.011e-3
-1.635, 1.011e-3
-1.636, 1.011e-3
-1.637, 1.011e-3
-1.638, 1.011e-3
-1.639, 1.011e-3
-1.640, 1.011e-3
-1.641, 1.011e-3
-1.642, 1.011e-3
-1.643, 1.011e-3
-1.644, 1.011e-3
-1.645, 1.011e-3
-1.646, 1.011e-3
-1.647, 1.011e-3
-1.648, 1.011e-3
-1.649, 1.011e-3
-1.650, 1.011e-3
-1.651, 1.011e-3
-1.652, 1.011e-3
-1.653, 1.011e-3
-1.654, 1.011e-3
-1.655, 1.011e-3
-1.656, 1.011e-3
-1.657, 1.011e-3
-1.658, 1.011e-3
-1.659, 1.011e-3
-1.660, 1.011e-3
-1.661, 1.011e-3
-1.662, 1.011e-3
-1.663, 1.011e-3
-1.664, 1.011e-3
-1.665, 1.011e-3
-1.666, 1.011e-3
-1.667, 1.011e-3
-1.668, 1.011e-3
-1.669, 1.011e-3
-1.670, 1.011e-3
-1.671, 1.011e-3
-1.672, 1.011e-3
-1.673, 1.011e-3
-1.674, 1.011e-3
-1.675, 1.011e-3
-1.676, 1.011e-3
-1.677, 1.011e-3
-1.678, 1.011e-3
-1.679, 1.011e-3
-1.680, 1.011e-3
-1.681, 1.011e-3
-1.682, 1.011e-3
-1.683, 1.011e-3
-1.684, 1.011e-3
-1.685, 1.011e-3
-1.686, 1.011e-3
-1.687, 1.011e-3
-1.688, 1.011e-3
-1.689, 1.011e-3
-1.690, 1.011e-3
-1.691, 1.011e-3
-1.692, 1.011e-3
-1.693, 1.011e-3
-1.694, 1.011e-3
-1.695, 1.011e-3
-1.696, 1.011e-3
-1.697, 1.011e-3
-1.698, 1.011e-3
-1.699, 1.011e-3
-1.700, 1.011e-3
-1.701, 1.011e-3
-1.702, 1.011e-3
-1.703, 1.011e-3
-1.704, 1.011e-3
-1.705, 1.011e-3
-1.706, 1.011e-3
-1.707, 1.011e-3
-1.708, 1.011e-3
-1.709, 1.011e-3
-1.710, 1.011e-3
-1.711, 1.011e-3
-1.712, 1.011e-3
-1.713, 1.011e-3
-1.714, 1.011e-3
-1.715, 1.011e-3
-1.716, 1.011e-3
-1.717, 1.011e-3
-1.718, 1.011e-3
-1.719, 1.011e-3
-1.720, 1.011e-3
-1.721, 1.011e-3
-1.722, 1.011e-3
-1.723, 1.011e-3
-1.724, 1.011e-3
-1.725, 1.011e-3
-1.726, 1.011e-3
-1.727, 1.011e-3
-1.728, 1.011e-3
-1.729, 1.011e-3
-1.730, 1.011e-3
-1.731, 1.011e-3
-1.732, 1.011e-3
-1.733, 1.011e-3
-1.734, 1.011e-3
-1.735, 1.011e-3
-1.736, 1.011e-3
-1.737, 1.011e-3
-1.738, 1.011e-3
-1.739, 1.011e-3
-1.740, 1.011e-3
-1.741, 1.011e-3
-1.742, 1.011e-3
-1.743, 1.011e-3
-1.744, 1.011e-3
-1.745, 1.011e-3
-1.746, 1.011e-3
-1.747, 1.011e-3
-1.748, 1.011e-3
-1.749, 1.011e-3
-1.750, 1.011e-3
-1.751, 1.011e-3
-1.752, 1.011e-3
-1.753, 1.011e-3
-1.754, 1.011e-3
-1.755, 1.011e-3
-1.756, 1.011e-3
-1.757, 1.011e-3
-1.758, 1.011e-3
-1.759, 1.011e-3
-1.760, 1.011e-3
-1.761, 1.011e-3
-1.762, 1.011e-3
-1.763, 1.011e-3
-1.764, 1.011e-3
-1.765, 1.011e-3
-1.766, 1.011e-3
-1.767, 1.011e-3
-1.768, 1.011e-3
-1.769, 1.011e-3
-1.770, 1.011e-3
-1.771, 1.011e-3
-1.772, 1.011e-3
-1.773, 1.011e-3
-1.774, 1.011e-3
-1.775, 1.011e-3
-1.776, 1.011e-3
-1.777, 1.011e-3
-1.778, 1.011e-3
-1.779, 1.011e-3
-1.780, 1.011e-3
-1.781, 1.011e-3
-1.782, 1.011e-3
-1.783, 1.011e-3
-1.784, 1.011e-3
-1.785, 1.011e-3
-1.786, 1.011e-3
-1.787, 1.011e-3
-1.788, 1.011e-3
-1.789, 1.011e-3
-1.790, 1.011e-3
-1.791, 1.011e-3
-1.792, 1.011e-3
-1.793, 1.011e-3
-1.794, 1.011e-3
-1.795, 1.011e-3
-1.796, 1.011e-3
-1.797, 1.011e-3
-1.798, 1.011e-3
-1.799, 1.011e-3
-1.800, 1.011e-3
-1.801, 1.011e-3
-1.802, 1.011e-3
-1.803, 1.011e-3
-1.804, 1.011e-3
-1.805, 1.011e-3
-1.806, 1.011e-3
-1.807, 1.011e-3
-1.808, 1.011e-3
-1.809, 1.011e-3
-1.810, 1.011e-3
-1.811, 1.011e-3
-1.812, 1.011e-3
-1.813, 1.011e-3
-1.814, 1.011e-3
-1.815, 1.011e-3
-1.816, 1.011e-3
-1.817, 1.011e-3
-1.818, 1.011e-3
-1.819, 1.011e-3
-1.820, 1.011e-3
-1.821, 1.011e-3
-1.822, 1.011e-3
-1.823, 1.011e-3
-1.824, 1.011e-3
-1.825, 1.011e-3
-1.826, 1.011e-3
-1.827, 1.011e-3
-1.828, 1.011e-3
-1.829, 1.011e-3
-1.830, 1.011e-3
-1.831, 1.011e-3
-1.832, 1.011e-3
-1.833, 1.011e-3
-1.834, 1.011e-3
-1.835, 1.011e-3
-1.836, 1.011e-3
-1.837, 1.011e-3
-1.838, 1.011e-3
-1.839, 1.011e-3
-1.840, 1.011e-3
-1.841, 1.011e-3
-1.842, 1.011e-3
-1.843, 1.011e-3
-1.844, 1.011e-3
-1.845, 1.011e-3
-1.846, 1.011e-3
-1.847, 1.011e-3
-1.848, 1.011e-3
-1.849, 1.011e-3
-1.850, 1.011e-3
-1.851, 1.011e-3
-1.852, 1.011e-3
-1.853, 1.011e-3
-1.854, 1.011e-3
-1.855, 1.011e-3
-1.856, 1.011e-3
-1.857, 1.011e-3
-1.858, 1.011e-3
-1.859, 1.011e-3
-1.860, 1.011e-3
-1.861, 1.011e-3
-1.862, 1.011e-3
-1.863, 1.011e-3
-1.864, 1.011e-3
-1.865, 1.011e-3
-1.866, 1.011e-3
-1.867, 1.011e-3
-1.868, 1.011e-3
-1.869, 1.011e-3
-1.870, 1.011e-3
-1.871, 1.011e-3
-1.872, 1.011e-3
-1.873, 1.011e-3
-1.874, 1.011e-3
-1.875, 1.011e-3
-1.876, 1.011e-3
-1.877, 1.011e-3
-1.878, 1.011e-3
-1.879, 1.011e-3
-1.880, 1.011e-3
-1.881, 1.011e-3
-1.882, 1.011e-3
-1.883, 1.011e-3
-1.884, 1.011e-3
-1.885, 1.011e-3
-1.886, 1.011e-3
-1.887, 1.011e-3
-1.888, 1.011e-3
-1.889, 1.011e-3
-1.890, 1.011e-3
-1.891, 1.011e-3
-1.892, 1.011e-3
-1.893, 1.011e-3
-1.894, 1.011e-3
-1.895, 1.011e-3
-1.896, 1.011e-3
-1.897, 1.011e-3
-1.898, 1.011e-3
-1.899, 1.011e-3
