Apr. 22, 2025   20:07:06
Cyclic Voltammetry
File: c:/users/guazh/data/banditlqround7_x0exp590_r20/2025-04-16-exp1159\exp1159-2025-04-22t19_45_42-arkoh\exp1159_cv_sr_800mvs_efin_-1900mv.bin
Data Source:  Experiment
Instrument Model:  CHI760E
Header: CV ran at 800 mVs
Note: 

Init E (V) = -1
High E (V) = -1
Low E (V) = -1.9
Final E (V) = -1
Init P/N = N
Scan Rate (V/s) = 0.8
Segment = 3
Sample Interval (V) = 0.001
Quiet Time (sec) = 2
Sensitivity (A/V) = 0.01
Comp R (ohm) = 1.5

Results:

Channel 1:
Segment 1:

Segment 2:

Segment 3:

Potential/V, Current/A

-1.000, 3.239e-6
-1.001, 3.239e-6
-1.002, 3.239e-6
-1.003, 3.239e-6
-1.004, 3.239e-6
-1.005, 3.239e-6
-1.006, 3.239e-6
-1.007, 3.239e-6
-1.008, 3.239e-6
-1.009, 3.239e-6
-1.010, 3.239e-6
-1.011, 3.239e-6
-1.012, 3.239e-6
-1.013, 3.239e-6
-1.014, 3.239e-6
-1.015, 3.239e-6
-1.016, 3.239e-6
-1.017, 3.239e-6
-1.018, 3.239e-6
-1.019, 3.239e-6
-1.020, 6.322e-6
-1.021, 6.322e-6
-1.022, 6.322e-6
-1.023, 3.239e-6
-1.024, 3.239e-6
-1.025, 3.239e-6
-1.026, 3.239e-6
-1.027, 3.239e-6
-1.028, 3.239e-6
-1.029, 3.239e-6
-1.030, 3.239e-6
-1.031, 6.322e-6
-1.032, 3.239e-6
-1.033, 6.322e-6
-1.034, 3.239e-6
-1.035, 3.239e-6
-1.036, 3.239e-6
-1.037, 3.239e-6
-1.038, 6.322e-6
-1.039, 6.322e-6
-1.040, 6.322e-6
-1.041, 6.322e-6
-1.042, 3.239e-6
-1.043, 6.322e-6
-1.044, 3.239e-6
-1.045, 6.322e-6
-1.046, 3.239e-6
-1.047, 6.322e-6
-1.048, 6.322e-6
-1.049, 6.322e-6
-1.050, 6.322e-6
-1.051, 3.239e-6
-1.052, 6.322e-6
-1.053, 6.322e-6
-1.054, 6.322e-6
-1.055, 6.322e-6
-1.056, 6.322e-6
-1.057, 6.322e-6
-1.058, 6.322e-6
-1.059, 6.322e-6
-1.060, 6.322e-6
-1.061, 6.322e-6
-1.062, 3.239e-6
-1.063, 3.239e-6
-1.064, 6.322e-6
-1.065, 6.322e-6
-1.066, 6.322e-6
-1.067, 6.322e-6
-1.068, 6.322e-6
-1.069, 6.322e-6
-1.070, 6.322e-6
-1.071, 6.322e-6
-1.072, 6.322e-6
-1.073, 6.322e-6
-1.074, 6.322e-6
-1.075, 6.322e-6
-1.076, 6.322e-6
-1.077, 6.322e-6
-1.078, 6.322e-6
-1.079, 6.322e-6
-1.080, 6.322e-6
-1.081, 6.322e-6
-1.082, 6.322e-6
-1.083, 6.322e-6
-1.084, 6.322e-6
-1.085, 6.322e-6
-1.086, 6.322e-6
-1.087, 6.322e-6
-1.088, 6.322e-6
-1.089, 6.322e-6
-1.090, 6.322e-6
-1.091, 6.322e-6
-1.092, 6.322e-6
-1.093, 6.322e-6
-1.094, 6.322e-6
-1.095, 6.322e-6
-1.096, 6.322e-6
-1.097, 6.322e-6
-1.098, 6.322e-6
-1.099, 6.322e-6
-1.100, 6.322e-6
-1.101, 6.322e-6
-1.102, 6.322e-6
-1.103, 6.322e-6
-1.104, 6.322e-6
-1.105, 6.322e-6
-1.106, 6.322e-6
-1.107, 6.322e-6
-1.108, 6.322e-6
-1.109, 6.322e-6
-1.110, 6.322e-6
-1.111, 6.322e-6
-1.112, 6.322e-6
-1.113, 6.322e-6
-1.114, 6.322e-6
-1.115, 6.322e-6
-1.116, 6.322e-6
-1.117, 6.322e-6
-1.118, 6.322e-6
-1.119, 6.322e-6
-1.120, 6.322e-6
-1.121, 6.322e-6
-1.122, 6.322e-6
-1.123, 6.322e-6
-1.124, 6.322e-6
-1.125, 6.322e-6
-1.126, 6.322e-6
-1.127, 6.322e-6
-1.128, 6.322e-6
-1.129, 6.322e-6
-1.130, 6.322e-6
-1.131, 6.322e-6
-1.132, 6.322e-6
-1.133, 6.322e-6
-1.134, 6.322e-6
-1.135, 6.322e-6
-1.136, 6.322e-6
-1.137, 6.322e-6
-1.138, 6.322e-6
-1.139, 6.322e-6
-1.140, 6.322e-6
-1.141, 6.322e-6
-1.142, 6.322e-6
-1.143, 6.322e-6
-1.144, 6.322e-6
-1.145, 6.322e-6
-1.146, 6.322e-6
-1.147, 6.322e-6
-1.148, 6.322e-6
-1.149, 6.322e-6
-1.150, 9.405e-6
-1.151, 6.322e-6
-1.152, 9.405e-6
-1.153, 6.322e-6
-1.154, 6.322e-6
-1.155, 6.322e-6
-1.156, 6.322e-6
-1.157, 6.322e-6
-1.158, 6.322e-6
-1.159, 6.322e-6
-1.160, 6.322e-6
-1.161, 6.322e-6
-1.162, 6.322e-6
-1.163, 6.322e-6
-1.164, 6.322e-6
-1.165, 6.322e-6
-1.166, 6.322e-6
-1.167, 9.405e-6
-1.168, 6.322e-6
-1.169, 9.405e-6
-1.170, 6.322e-6
-1.171, 9.405e-6
-1.172, 6.322e-6
-1.173, 9.405e-6
-1.174, 9.405e-6
-1.175, 6.322e-6
-1.176, 6.322e-6
-1.177, 6.322e-6
-1.178, 6.322e-6
-1.179, 9.405e-6
-1.180, 6.322e-6
-1.181, 9.405e-6
-1.182, 6.322e-6
-1.183, 6.322e-6
-1.184, 6.322e-6
-1.185, 9.405e-6
-1.186, 9.405e-6
-1.187, 6.322e-6
-1.188, 9.405e-6
-1.189, 6.322e-6
-1.190, 6.322e-6
-1.191, 9.405e-6
-1.192, 9.405e-6
-1.193, 6.322e-6
-1.194, 6.322e-6
-1.195, 6.322e-6
-1.196, 9.405e-6
-1.197, 9.405e-6
-1.198, 9.405e-6
-1.199, 6.322e-6
-1.200, 9.405e-6
-1.201, 9.405e-6
-1.202, 9.405e-6
-1.203, 6.322e-6
-1.204, 9.405e-6
-1.205, 9.405e-6
-1.206, 9.405e-6
-1.207, 9.405e-6
-1.208, 9.405e-6
-1.209, 6.322e-6
-1.210, 9.405e-6
-1.211, 6.322e-6
-1.212, 9.405e-6
-1.213, 9.405e-6
-1.214, 9.405e-6
-1.215, 6.322e-6
-1.216, 9.405e-6
-1.217, 9.405e-6
-1.218, 9.405e-6
-1.219, 9.405e-6
-1.220, 9.405e-6
-1.221, 9.405e-6
-1.222, 9.405e-6
-1.223, 9.405e-6
-1.224, 9.405e-6
-1.225, 9.405e-6
-1.226, 9.405e-6
-1.227, 9.405e-6
-1.228, 9.405e-6
-1.229, 9.405e-6
-1.230, 6.322e-6
-1.231, 9.405e-6
-1.232, 9.405e-6
-1.233, 9.405e-6
-1.234, 9.405e-6
-1.235, 9.405e-6
-1.236, 9.405e-6
-1.237, 9.405e-6
-1.238, 9.405e-6
-1.239, 9.405e-6
-1.240, 9.405e-6
-1.241, 9.405e-6
-1.242, 9.405e-6
-1.243, 9.405e-6
-1.244, 9.405e-6
-1.245, 9.405e-6
-1.246, 9.405e-6
-1.247, 9.405e-6
-1.248, 9.405e-6
-1.249, 9.405e-6
-1.250, 9.405e-6
-1.251, 9.405e-6
-1.252, 9.405e-6
-1.253, 9.405e-6
-1.254, 9.405e-6
-1.255, 9.405e-6
-1.256, 9.405e-6
-1.257, 9.405e-6
-1.258, 9.405e-6
-1.259, 9.405e-6
-1.260, 9.405e-6
-1.261, 9.405e-6
-1.262, 9.405e-6
-1.263, 9.405e-6
-1.264, 9.405e-6
-1.265, 9.405e-6
-1.266, 9.405e-6
-1.267, 9.405e-6
-1.268, 9.405e-6
-1.269, 9.405e-6
-1.270, 9.405e-6
-1.271, 9.405e-6
-1.272, 9.405e-6
-1.273, 9.405e-6
-1.274, 9.405e-6
-1.275, 9.405e-6
-1.276, 9.405e-6
-1.277, 9.405e-6
-1.278, 9.405e-6
-1.279, 9.405e-6
-1.280, 9.405e-6
-1.281, 9.405e-6
-1.282, 9.405e-6
-1.283, 9.405e-6
-1.284, 9.405e-6
-1.285, 9.405e-6
-1.286, 9.405e-6
-1.287, 9.405e-6
-1.288, 9.405e-6
-1.289, 9.405e-6
-1.290, 9.405e-6
-1.291, 9.405e-6
-1.292, 9.405e-6
-1.293, 9.405e-6
-1.294, 1.249e-5
-1.295, 9.405e-6
-1.296, 9.405e-6
-1.297, 9.405e-6
-1.298, 9.405e-6
-1.299, 9.405e-6
-1.300, 9.405e-6
-1.301, 1.249e-5
-1.302, 9.405e-6
-1.303, 9.405e-6
-1.304, 9.405e-6
-1.305, 1.249e-5
-1.306, 9.405e-6
-1.307, 9.405e-6
-1.308, 9.405e-6
-1.309, 9.405e-6
-1.310, 1.249e-5
-1.311, 9.405e-6
-1.312, 9.405e-6
-1.313, 9.405e-6
-1.314, 9.405e-6
-1.315, 9.405e-6
-1.316, 9.405e-6
-1.317, 1.249e-5
-1.318, 9.405e-6
-1.319, 9.405e-6
-1.320, 1.249e-5
-1.321, 9.405e-6
-1.322, 9.405e-6
-1.323, 9.405e-6
-1.324, 9.405e-6
-1.325, 9.405e-6
-1.326, 1.249e-5
-1.327, 9.405e-6
-1.328, 9.405e-6
-1.329, 9.405e-6
-1.330, 9.405e-6
-1.331, 1.249e-5
-1.332, 9.405e-6
-1.333, 9.405e-6
-1.334, 1.249e-5
-1.335, 9.405e-6
-1.336, 1.249e-5
-1.337, 9.405e-6
-1.338, 1.249e-5
-1.339, 9.405e-6
-1.340, 1.249e-5
-1.341, 9.405e-6
-1.342, 1.249e-5
-1.343, 9.405e-6
-1.344, 1.249e-5
-1.345, 9.405e-6
-1.346, 1.249e-5
-1.347, 9.405e-6
-1.348, 1.249e-5
-1.349, 9.405e-6
-1.350, 9.405e-6
-1.351, 9.405e-6
-1.352, 1.249e-5
-1.353, 9.405e-6
-1.354, 1.249e-5
-1.355, 9.405e-6
-1.356, 9.405e-6
-1.357, 9.405e-6
-1.358, 9.405e-6
-1.359, 9.405e-6
-1.360, 1.249e-5
-1.361, 1.249e-5
-1.362, 9.405e-6
-1.363, 1.249e-5
-1.364, 1.249e-5
-1.365, 1.249e-5
-1.366, 1.249e-5
-1.367, 1.249e-5
-1.368, 9.405e-6
-1.369, 1.249e-5
-1.370, 9.405e-6
-1.371, 1.249e-5
-1.372, 1.249e-5
-1.373, 1.249e-5
-1.374, 1.249e-5
-1.375, 1.249e-5
-1.376, 1.249e-5
-1.377, 1.249e-5
-1.378, 1.249e-5
-1.379, 1.249e-5
-1.380, 1.249e-5
-1.381, 1.249e-5
-1.382, 1.249e-5
-1.383, 1.249e-5
-1.384, 1.249e-5
-1.385, 1.249e-5
-1.386, 1.249e-5
-1.387, 1.249e-5
-1.388, 1.249e-5
-1.389, 1.249e-5
-1.390, 1.249e-5
-1.391, 1.249e-5
-1.392, 1.249e-5
-1.393, 1.249e-5
-1.394, 1.249e-5
-1.395, 1.249e-5
-1.396, 1.249e-5
-1.397, 1.249e-5
-1.398, 1.249e-5
-1.399, 1.249e-5
-1.400, 1.249e-5
-1.401, 1.249e-5
-1.402, 1.249e-5
-1.403, 1.249e-5
-1.404, 1.249e-5
-1.405, 1.249e-5
-1.406, 1.249e-5
-1.407, 1.249e-5
-1.408, 1.249e-5
-1.409, 1.249e-5
-1.410, 1.249e-5
-1.411, 1.249e-5
-1.412, 1.249e-5
-1.413, 1.249e-5
-1.414, 1.249e-5
-1.415, 1.249e-5
-1.416, 1.249e-5
-1.417, 1.249e-5
-1.418, 1.249e-5
-1.419, 1.249e-5
-1.420, 1.249e-5
-1.421, 1.249e-5
-1.422, 1.557e-5
-1.423, 1.249e-5
-1.424, 1.249e-5
-1.425, 1.249e-5
-1.426, 1.249e-5
-1.427, 1.557e-5
-1.428, 1.249e-5
-1.429, 1.557e-5
-1.430, 1.249e-5
-1.431, 1.249e-5
-1.432, 1.249e-5
-1.433, 1.249e-5
-1.434, 1.557e-5
-1.435, 1.557e-5
-1.436, 1.249e-5
-1.437, 1.557e-5
-1.438, 1.249e-5
-1.439, 1.249e-5
-1.440, 1.249e-5
-1.441, 1.557e-5
-1.442, 1.249e-5
-1.443, 1.557e-5
-1.444, 1.249e-5
-1.445, 1.557e-5
-1.446, 1.249e-5
-1.447, 1.249e-5
-1.448, 1.249e-5
-1.449, 1.557e-5
-1.450, 1.249e-5
-1.451, 1.557e-5
-1.452, 1.249e-5
-1.453, 1.557e-5
-1.454, 1.557e-5
-1.455, 1.557e-5
-1.456, 1.557e-5
-1.457, 1.557e-5
-1.458, 1.557e-5
-1.459, 1.557e-5
-1.460, 1.557e-5
-1.461, 1.249e-5
-1.462, 1.557e-5
-1.463, 1.557e-5
-1.464, 1.557e-5
-1.465, 1.557e-5
-1.466, 1.557e-5
-1.467, 1.557e-5
-1.468, 1.557e-5
-1.469, 1.557e-5
-1.470, 1.557e-5
-1.471, 1.557e-5
-1.472, 1.557e-5
-1.473, 1.557e-5
-1.474, 1.557e-5
-1.475, 1.557e-5
-1.476, 1.557e-5
-1.477, 1.557e-5
-1.478, 1.557e-5
-1.479, 1.557e-5
-1.480, 1.557e-5
-1.481, 1.557e-5
-1.482, 1.557e-5
-1.483, 1.557e-5
-1.484, 1.557e-5
-1.485, 1.557e-5
-1.486, 1.557e-5
-1.487, 1.557e-5
-1.488, 1.557e-5
-1.489, 1.557e-5
-1.490, 1.557e-5
-1.491, 1.557e-5
-1.492, 1.557e-5
-1.493, 1.557e-5
-1.494, 1.557e-5
-1.495, 1.557e-5
-1.496, 1.557e-5
-1.497, 1.865e-5
-1.498, 1.557e-5
-1.499, 1.557e-5
-1.500, 1.557e-5
-1.501, 1.865e-5
-1.502, 1.557e-5
-1.503, 1.557e-5
-1.504, 1.557e-5
-1.505, 1.557e-5
-1.506, 1.865e-5
-1.507, 1.557e-5
-1.508, 1.865e-5
-1.509, 1.865e-5
-1.510, 1.557e-5
-1.511, 1.865e-5
-1.512, 1.557e-5
-1.513, 1.557e-5
-1.514, 1.557e-5
-1.515, 1.865e-5
-1.516, 1.865e-5
-1.517, 1.557e-5
-1.518, 1.557e-5
-1.519, 1.865e-5
-1.520, 1.865e-5
-1.521, 1.865e-5
-1.522, 1.865e-5
-1.523, 1.865e-5
-1.524, 1.865e-5
-1.525, 1.865e-5
-1.526, 1.865e-5
-1.527, 1.865e-5
-1.528, 1.865e-5
-1.529, 1.865e-5
-1.530, 1.865e-5
-1.531, 1.865e-5
-1.532, 1.865e-5
-1.533, 1.865e-5
-1.534, 1.865e-5
-1.535, 1.865e-5
-1.536, 1.865e-5
-1.537, 1.865e-5
-1.538, 1.865e-5
-1.539, 1.865e-5
-1.540, 1.865e-5
-1.541, 1.865e-5
-1.542, 1.865e-5
-1.543, 1.865e-5
-1.544, 1.865e-5
-1.545, 1.865e-5
-1.546, 1.865e-5
-1.547, 2.174e-5
-1.548, 1.865e-5
-1.549, 1.865e-5
-1.550, 1.865e-5
-1.551, 1.865e-5
-1.552, 1.865e-5
-1.553, 1.865e-5
-1.554, 2.174e-5
-1.555, 2.174e-5
-1.556, 1.865e-5
-1.557, 1.865e-5
-1.558, 1.865e-5
-1.559, 1.865e-5
-1.560, 2.174e-5
-1.561, 2.174e-5
-1.562, 2.174e-5
-1.563, 2.174e-5
-1.564, 2.174e-5
-1.565, 2.174e-5
-1.566, 2.174e-5
-1.567, 2.174e-5
-1.568, 2.174e-5
-1.569, 2.174e-5
-1.570, 2.174e-5
-1.571, 2.174e-5
-1.572, 2.174e-5
-1.573, 2.174e-5
-1.574, 2.174e-5
-1.575, 2.174e-5
-1.576, 2.174e-5
-1.577, 2.174e-5
-1.578, 2.174e-5
-1.579, 2.174e-5
-1.580, 2.174e-5
-1.581, 2.174e-5
-1.582, 2.174e-5
-1.583, 2.482e-5
-1.584, 2.174e-5
-1.585, 2.482e-5
-1.586, 2.482e-5
-1.587, 2.174e-5
-1.588, 2.174e-5
-1.589, 2.482e-5
-1.590, 2.482e-5
-1.591, 2.482e-5
-1.592, 2.482e-5
-1.593, 2.482e-5
-1.594, 2.482e-5
-1.595, 2.482e-5
-1.596, 2.482e-5
-1.597, 2.482e-5
-1.598, 2.482e-5
-1.599, 2.482e-5
-1.600, 2.482e-5
-1.601, 2.482e-5
-1.602, 2.482e-5
-1.603, 2.790e-5
-1.604, 2.790e-5
-1.605, 2.482e-5
-1.606, 2.482e-5
-1.607, 2.790e-5
-1.608, 2.790e-5
-1.609, 2.790e-5
-1.610, 2.790e-5
-1.611, 2.790e-5
-1.612, 2.790e-5
-1.613, 2.790e-5
-1.614, 2.790e-5
-1.615, 2.790e-5
-1.616, 2.790e-5
-1.617, 2.790e-5
-1.618, 3.099e-5
-1.619, 3.099e-5
-1.620, 3.099e-5
-1.621, 3.099e-5
-1.622, 3.099e-5
-1.623, 3.099e-5
-1.624, 3.099e-5
-1.625, 3.099e-5
-1.626, 3.099e-5
-1.627, 3.099e-5
-1.628, 3.099e-5
-1.629, 3.099e-5
-1.630, 3.407e-5
-1.631, 3.407e-5
-1.632, 3.407e-5
-1.633, 3.407e-5
-1.634, 3.407e-5
-1.635, 3.407e-5
-1.636, 3.407e-5
-1.637, 3.715e-5
-1.638, 3.407e-5
-1.639, 3.715e-5
-1.640, 3.715e-5
-1.641, 3.715e-5
-1.642, 3.715e-5
-1.643, 3.715e-5
-1.644, 3.715e-5
-1.645, 3.715e-5
-1.646, 4.024e-5
-1.647, 4.024e-5
-1.648, 4.024e-5
-1.649, 4.024e-5
-1.650, 4.024e-5
-1.651, 4.332e-5
-1.652, 4.332e-5
-1.653, 4.332e-5
-1.654, 4.332e-5
-1.655, 4.332e-5
-1.656, 4.332e-5
-1.657, 4.640e-5
-1.658, 4.640e-5
-1.659, 4.640e-5
-1.660, 4.640e-5
-1.661, 4.640e-5
-1.662, 4.949e-5
-1.663, 4.949e-5
-1.664, 4.949e-5
-1.665, 5.257e-5
-1.666, 4.949e-5
-1.667, 5.257e-5
-1.668, 5.257e-5
-1.669, 5.257e-5
-1.670, 5.565e-5
-1.671, 5.565e-5
-1.672, 5.565e-5
-1.673, 5.565e-5
-1.674, 5.873e-5
-1.675, 5.873e-5
-1.676, 6.182e-5
-1.677, 5.873e-5
-1.678, 6.182e-5
-1.679, 6.182e-5
-1.680, 6.490e-5
-1.681, 6.490e-5
-1.682, 6.490e-5
-1.683, 6.798e-5
-1.684, 6.798e-5
-1.685, 6.798e-5
-1.686, 7.107e-5
-1.687, 7.107e-5
-1.688, 7.415e-5
-1.689, 7.415e-5
-1.690, 7.723e-5
-1.691, 7.723e-5
-1.692, 7.723e-5
-1.693, 8.032e-5
-1.694, 8.032e-5
-1.695, 8.032e-5
-1.696, 8.340e-5
-1.697, 8.648e-5
-1.698, 8.648e-5
-1.699, 8.957e-5
-1.700, 9.265e-5
-1.701, 9.265e-5
-1.702, 9.265e-5
-1.703, 9.573e-5
-1.704, 9.882e-5
-1.705, 9.882e-5
-1.706, 1.019e-4
-1.707, 1.019e-4
-1.708, 1.050e-4
-1.709, 1.081e-4
-1.710, 1.081e-4
-1.711, 1.111e-4
-1.712, 1.111e-4
-1.713, 1.142e-4
-1.714, 1.142e-4
-1.715, 1.173e-4
-1.716, 1.204e-4
-1.717, 1.235e-4
-1.718, 1.266e-4
-1.719, 1.266e-4
-1.720, 1.296e-4
-1.721, 1.327e-4
-1.722, 1.358e-4
-1.723, 1.389e-4
-1.724, 1.389e-4
-1.725, 1.451e-4
-1.726, 1.451e-4
-1.727, 1.512e-4
-1.728, 1.512e-4
-1.729, 1.543e-4
-1.730, 1.574e-4
-1.731, 1.605e-4
-1.732, 1.636e-4
-1.733, 1.666e-4
-1.734, 1.697e-4
-1.735, 1.728e-4
-1.736, 1.759e-4
-1.737, 1.821e-4
-1.738, 1.821e-4
-1.739, 1.851e-4
-1.740, 1.882e-4
-1.741, 1.944e-4
-1.742, 1.944e-4
-1.743, 2.006e-4
-1.744, 2.036e-4
-1.745, 2.067e-4
-1.746, 2.098e-4
-1.747, 2.160e-4
-1.748, 2.191e-4
-1.749, 2.221e-4
-1.750, 2.283e-4
-1.751, 2.314e-4
-1.752, 2.345e-4
-1.753, 2.406e-4
-1.754, 2.437e-4
-1.755, 2.468e-4
-1.756, 2.530e-4
-1.757, 2.561e-4
-1.758, 2.622e-4
-1.759, 2.653e-4
-1.760, 2.715e-4
-1.761, 2.776e-4
-1.762, 2.807e-4
-1.763, 2.869e-4
-1.764, 2.900e-4
-1.765, 2.961e-4
-1.766, 3.023e-4
-1.767, 3.054e-4
-1.768, 3.146e-4
-1.769, 3.177e-4
-1.770, 3.239e-4
-1.771, 3.300e-4
-1.772, 3.362e-4
-1.773, 3.393e-4
-1.774, 3.485e-4
-1.775, 3.516e-4
-1.776, 3.609e-4
-1.777, 3.670e-4
-1.778, 3.732e-4
-1.779, 3.794e-4
-1.780, 3.855e-4
-1.781, 3.917e-4
-1.782, 3.979e-4
-1.783, 4.040e-4
-1.784, 4.102e-4
-1.785, 4.195e-4
-1.786, 4.256e-4
-1.787, 4.349e-4
-1.788, 4.410e-4
-1.789, 4.503e-4
-1.790, 4.565e-4
-1.791, 4.657e-4
-1.792, 4.719e-4
-1.793, 4.811e-4
-1.794, 4.904e-4
-1.795, 4.996e-4
-1.796, 5.058e-4
-1.797, 5.150e-4
-1.798, 5.243e-4
-1.799, 5.335e-4
-1.800, 5.428e-4
-1.801, 5.520e-4
-1.802, 5.613e-4
-1.803, 5.705e-4
-1.804, 5.798e-4
-1.805, 5.921e-4
-1.806, 6.014e-4
-1.807, 6.106e-4
-1.808, 6.199e-4
-1.809, 6.322e-4
-1.810, 6.414e-4
-1.811, 6.538e-4
-1.812, 6.630e-4
-1.813, 6.754e-4
-1.814, 6.877e-4
-1.815, 7.000e-4
-1.816, 7.093e-4
-1.817, 7.216e-4
-1.818, 7.339e-4
-1.819, 7.463e-4
-1.820, 7.586e-4
-1.821, 7.709e-4
-1.822, 7.833e-4
-1.823, 7.987e-4
-1.824, 8.110e-4
-1.825, 8.233e-4
-1.826, 8.418e-4
-1.827, 8.542e-4
-1.828, 8.665e-4
-1.829, 8.819e-4
-1.830, 8.973e-4
-1.831, 9.128e-4
-1.832, 9.282e-4
-1.833, 9.436e-4
-1.834, 9.590e-4
-1.835, 9.744e-4
-1.836, 9.898e-4
-1.837, 1.005e-3
-1.838, 1.024e-3
-1.839, 1.039e-3
-1.840, 1.058e-3
-1.841, 1.073e-3
-1.842, 1.092e-3
-1.843, 1.110e-3
-1.844, 1.129e-3
-1.845, 1.147e-3
-1.846, 1.166e-3
-1.847, 1.184e-3
-1.848, 1.206e-3
-1.849, 1.221e-3
-1.850, 1.243e-3
-1.851, 1.261e-3
-1.852, 1.283e-3
-1.853, 1.301e-3
-1.854, 1.326e-3
-1.855, 1.347e-3
-1.856, 1.369e-3
-1.857, 1.391e-3
-1.858, 1.412e-3
-1.859, 1.434e-3
-1.860, 1.458e-3
-1.861, 1.483e-3
-1.862, 1.505e-3
-1.863, 1.529e-3
-1.864, 1.554e-3
-1.865, 1.579e-3
-1.866, 1.603e-3
-1.867, 1.631e-3
-1.868, 1.656e-3
-1.869, 1.680e-3
-1.870, 1.708e-3
-1.871, 1.736e-3
-1.872, 1.764e-3
-1.873, 1.791e-3
-1.874, 1.819e-3
-1.875, 1.847e-3
-1.876, 1.875e-3
-1.877, 1.906e-3
-1.878, 1.933e-3
-1.879, 1.964e-3
-1.880, 1.995e-3
-1.881, 2.026e-3
-1.882, 2.057e-3
-1.883, 2.091e-3
-1.884, 2.124e-3
-1.885, 2.155e-3
-1.886, 2.189e-3
-1.887, 2.223e-3
-1.888, 2.254e-3
-1.889, 2.288e-3
-1.890, 2.322e-3
-1.891, 2.359e-3
-1.892, 2.396e-3
-1.893, 2.433e-3
-1.894, 2.470e-3
-1.895, 2.507e-3
-1.896, 2.544e-3
-1.897, 2.584e-3
-1.898, 2.621e-3
-1.899, 2.661e-3
-1.900, 2.676e-3
-1.899, 2.655e-3
-1.898, 2.636e-3
-1.897, 2.618e-3
-1.896, 2.599e-3
-1.895, 2.578e-3
-1.894, 2.559e-3
-1.893, 2.538e-3
-1.892, 2.519e-3
-1.891, 2.497e-3
-1.890, 2.476e-3
-1.889, 2.454e-3
-1.888, 2.433e-3
-1.887, 2.411e-3
-1.886, 2.390e-3
-1.885, 2.365e-3
-1.884, 2.343e-3
-1.883, 2.319e-3
-1.882, 2.297e-3
-1.881, 2.275e-3
-1.880, 2.254e-3
-1.879, 2.232e-3
-1.878, 2.208e-3
-1.877, 2.186e-3
-1.876, 2.164e-3
-1.875, 2.143e-3
-1.874, 2.121e-3
-1.873, 2.097e-3
-1.872, 2.075e-3
-1.871, 2.054e-3
-1.870, 2.032e-3
-1.869, 2.007e-3
-1.868, 1.989e-3
-1.867, 1.964e-3
-1.866, 1.946e-3
-1.865, 1.924e-3
-1.864, 1.902e-3
-1.863, 1.881e-3
-1.862, 1.859e-3
-1.861, 1.838e-3
-1.860, 1.816e-3
-1.859, 1.798e-3
-1.858, 1.776e-3
-1.857, 1.754e-3
-1.856, 1.736e-3
-1.855, 1.714e-3
-1.854, 1.693e-3
-1.853, 1.674e-3
-1.852, 1.656e-3
-1.851, 1.637e-3
-1.850, 1.616e-3
-1.849, 1.597e-3
-1.848, 1.576e-3
-1.847, 1.557e-3
-1.846, 1.539e-3
-1.845, 1.520e-3
-1.844, 1.499e-3
-1.843, 1.480e-3
-1.842, 1.465e-3
-1.841, 1.446e-3
-1.840, 1.428e-3
-1.839, 1.412e-3
-1.838, 1.391e-3
-1.837, 1.375e-3
-1.836, 1.357e-3
-1.835, 1.341e-3
-1.834, 1.323e-3
-1.833, 1.307e-3
-1.832, 1.289e-3
-1.831, 1.273e-3
-1.830, 1.255e-3
-1.829, 1.240e-3
-1.828, 1.224e-3
-1.827, 1.209e-3
-1.826, 1.196e-3
-1.825, 1.178e-3
-1.824, 1.162e-3
-1.823, 1.147e-3
-1.822, 1.135e-3
-1.821, 1.119e-3
-1.820, 1.104e-3
-1.819, 1.088e-3
-1.818, 1.073e-3
-1.817, 1.061e-3
-1.816, 1.045e-3
-1.815, 1.030e-3
-1.814, 1.018e-3
-1.813, 1.005e-3
-1.812, 9.929e-4
-1.811, 9.775e-4
-1.810, 9.652e-4
-1.809, 9.498e-4
-1.808, 9.374e-4
-1.807, 9.251e-4
-1.806, 9.128e-4
-1.805, 9.004e-4
-1.804, 8.881e-4
-1.803, 8.727e-4
-1.802, 8.634e-4
-1.801, 8.511e-4
-1.800, 8.388e-4
-1.799, 8.264e-4
-1.798, 8.141e-4
-1.797, 8.048e-4
-1.796, 7.925e-4
-1.795, 7.833e-4
-1.794, 7.709e-4
-1.793, 7.586e-4
-1.792, 7.494e-4
-1.791, 7.370e-4
-1.790, 7.278e-4
-1.789, 7.185e-4
-1.788, 7.062e-4
-1.787, 6.969e-4
-1.786, 6.877e-4
-1.785, 6.784e-4
-1.784, 6.692e-4
-1.783, 6.569e-4
-1.782, 6.507e-4
-1.781, 6.384e-4
-1.780, 6.291e-4
-1.779, 6.199e-4
-1.778, 6.106e-4
-1.777, 6.014e-4
-1.776, 5.952e-4
-1.775, 5.859e-4
-1.774, 5.767e-4
-1.773, 5.674e-4
-1.772, 5.613e-4
-1.771, 5.520e-4
-1.770, 5.428e-4
-1.769, 5.366e-4
-1.768, 5.274e-4
-1.767, 5.212e-4
-1.766, 5.120e-4
-1.765, 5.058e-4
-1.764, 4.965e-4
-1.763, 4.904e-4
-1.762, 4.842e-4
-1.761, 4.750e-4
-1.760, 4.688e-4
-1.759, 4.626e-4
-1.758, 4.565e-4
-1.757, 4.503e-4
-1.756, 4.410e-4
-1.755, 4.349e-4
-1.754, 4.287e-4
-1.753, 4.225e-4
-1.752, 4.164e-4
-1.751, 4.102e-4
-1.750, 4.010e-4
-1.749, 3.979e-4
-1.748, 3.917e-4
-1.747, 3.855e-4
-1.746, 3.794e-4
-1.745, 3.732e-4
-1.744, 3.701e-4
-1.743, 3.609e-4
-1.742, 3.578e-4
-1.741, 3.516e-4
-1.740, 3.455e-4
-1.739, 3.393e-4
-1.738, 3.362e-4
-1.737, 3.300e-4
-1.736, 3.239e-4
-1.735, 3.208e-4
-1.734, 3.146e-4
-1.733, 3.115e-4
-1.732, 3.054e-4
-1.731, 2.992e-4
-1.730, 2.961e-4
-1.729, 2.900e-4
-1.728, 2.869e-4
-1.727, 2.838e-4
-1.726, 2.776e-4
-1.725, 2.746e-4
-1.724, 2.715e-4
-1.723, 2.653e-4
-1.722, 2.622e-4
-1.721, 2.561e-4
-1.720, 2.530e-4
-1.719, 2.499e-4
-1.718, 2.437e-4
-1.717, 2.406e-4
-1.716, 2.376e-4
-1.715, 2.345e-4
-1.714, 2.314e-4
-1.713, 2.283e-4
-1.712, 2.221e-4
-1.711, 2.191e-4
-1.710, 2.160e-4
-1.709, 2.129e-4
-1.708, 2.098e-4
-1.707, 2.067e-4
-1.706, 2.006e-4
-1.705, 1.975e-4
-1.704, 1.944e-4
-1.703, 1.944e-4
-1.702, 1.882e-4
-1.701, 1.851e-4
-1.700, 1.821e-4
-1.699, 1.821e-4
-1.698, 1.790e-4
-1.697, 1.759e-4
-1.696, 1.697e-4
-1.695, 1.697e-4
-1.694, 1.666e-4
-1.693, 1.636e-4
-1.692, 1.605e-4
-1.691, 1.574e-4
-1.690, 1.543e-4
-1.689, 1.512e-4
-1.688, 1.481e-4
-1.687, 1.481e-4
-1.686, 1.451e-4
-1.685, 1.420e-4
-1.684, 1.389e-4
-1.683, 1.389e-4
-1.682, 1.358e-4
-1.681, 1.327e-4
-1.680, 1.296e-4
-1.679, 1.296e-4
-1.678, 1.266e-4
-1.677, 1.235e-4
-1.676, 1.235e-4
-1.675, 1.204e-4
-1.674, 1.173e-4
-1.673, 1.173e-4
-1.672, 1.142e-4
-1.671, 1.111e-4
-1.670, 1.111e-4
-1.669, 1.081e-4
-1.668, 1.050e-4
-1.667, 1.050e-4
-1.666, 1.019e-4
-1.665, 1.019e-4
-1.664, 9.882e-5
-1.663, 9.882e-5
-1.662, 9.573e-5
-1.661, 9.265e-5
-1.660, 9.265e-5
-1.659, 8.957e-5
-1.658, 8.957e-5
-1.657, 8.648e-5
-1.656, 8.648e-5
-1.655, 8.340e-5
-1.654, 8.340e-5
-1.653, 8.032e-5
-1.652, 8.032e-5
-1.651, 7.723e-5
-1.650, 7.723e-5
-1.649, 7.415e-5
-1.648, 7.415e-5
-1.647, 7.107e-5
-1.646, 7.107e-5
-1.645, 7.107e-5
-1.644, 6.798e-5
-1.643, 6.490e-5
-1.642, 6.798e-5
-1.641, 6.490e-5
-1.640, 6.490e-5
-1.639, 6.182e-5
-1.638, 6.182e-5
-1.637, 5.873e-5
-1.636, 5.873e-5
-1.635, 5.565e-5
-1.634, 5.565e-5
-1.633, 5.565e-5
-1.632, 5.565e-5
-1.631, 5.257e-5
-1.630, 5.257e-5
-1.629, 5.257e-5
-1.628, 4.949e-5
-1.627, 4.640e-5
-1.626, 4.640e-5
-1.625, 4.640e-5
-1.624, 4.640e-5
-1.623, 4.640e-5
-1.622, 4.332e-5
-1.621, 4.332e-5
-1.620, 4.024e-5
-1.619, 4.024e-5
-1.618, 4.024e-5
-1.617, 4.024e-5
-1.616, 3.715e-5
-1.615, 3.715e-5
-1.614, 3.715e-5
-1.613, 3.715e-5
-1.612, 3.407e-5
-1.611, 3.715e-5
-1.610, 3.407e-5
-1.609, 3.407e-5
-1.608, 3.099e-5
-1.607, 3.099e-5
-1.606, 3.099e-5
-1.605, 3.099e-5
-1.604, 2.790e-5
-1.603, 2.790e-5
-1.602, 2.790e-5
-1.601, 2.790e-5
-1.600, 2.482e-5
-1.599, 2.790e-5
-1.598, 2.482e-5
-1.597, 2.482e-5
-1.596, 2.482e-5
-1.595, 2.482e-5
-1.594, 2.482e-5
-1.593, 2.174e-5
-1.592, 2.174e-5
-1.591, 2.174e-5
-1.590, 2.174e-5
-1.589, 2.174e-5
-1.588, 2.174e-5
-1.587, 1.865e-5
-1.586, 1.865e-5
-1.585, 1.865e-5
-1.584, 1.865e-5
-1.583, 1.865e-5
-1.582, 1.557e-5
-1.581, 1.557e-5
-1.580, 1.557e-5
-1.579, 1.557e-5
-1.578, 1.557e-5
-1.577, 1.249e-5
-1.576, 1.557e-5
-1.575, 1.249e-5
-1.574, 1.249e-5
-1.573, 1.249e-5
-1.572, 1.557e-5
-1.571, 1.249e-5
-1.570, 1.249e-5
-1.569, 1.249e-5
-1.568, 1.249e-5
-1.567, 9.405e-6
-1.566, 1.249e-5
-1.565, 9.405e-6
-1.564, 9.405e-6
-1.563, 9.405e-6
-1.562, 9.405e-6
-1.561, 9.405e-6
-1.560, 9.405e-6
-1.559, 9.405e-6
-1.558, 9.405e-6
-1.557, 9.405e-6
-1.556, 9.405e-6
-1.555, 9.405e-6
-1.554, 6.322e-6
-1.553, 6.322e-6
-1.552, 6.322e-6
-1.551, 6.322e-6
-1.550, 6.322e-6
-1.549, 6.322e-6
-1.548, 6.322e-6
-1.547, 6.322e-6
-1.546, 6.322e-6
-1.545, 6.322e-6
-1.544, 6.322e-6
-1.543, 6.322e-6
-1.542, 3.239e-6
-1.541, 6.322e-6
-1.540, 6.322e-6
-1.539, 3.239e-6
-1.538, 3.239e-6
-1.537, 3.239e-6
-1.536, 3.239e-6
-1.535, 3.239e-6
-1.534, 3.239e-6
-1.533, 3.239e-6
-1.532, 3.239e-6
-1.531, 3.239e-6
-1.530, 3.239e-6
-1.529, 3.239e-6
-1.528, 3.239e-6
-1.527, 3.239e-6
-1.526, 3.239e-6
-1.525, 3.239e-6
-1.524, 3.239e-6
-1.523, 1.559e-7
-1.522, 3.239e-6
-1.521, 3.239e-6
-1.520, 3.239e-6
-1.519, 3.239e-6
-1.518, 1.559e-7
-1.517, 1.559e-7
-1.516, 1.559e-7
-1.515, 1.559e-7
-1.514, 3.239e-6
-1.513, 1.559e-7
-1.512, 1.559e-7
-1.511, 1.559e-7
-1.510, 1.559e-7
-1.509, 1.559e-7
-1.508, 1.559e-7
-1.507, 1.559e-7
-1.506, 1.559e-7
-1.505, 1.559e-7
-1.504, 1.559e-7
-1.503, 1.559e-7
-1.502, 1.559e-7
-1.501, 1.559e-7
-1.500, 1.559e-7
-1.499, 1.559e-7
-1.498, 1.559e-7
-1.497, 1.559e-7
-1.496, 1.559e-7
-1.495, -2.927e-6
-1.494, 1.559e-7
-1.493, 1.559e-7
-1.492, 1.559e-7
-1.491, 1.559e-7
-1.490, 1.559e-7
-1.489, 1.559e-7
-1.488, 1.559e-7
-1.487, -2.927e-6
-1.486, 1.559e-7
-1.485, -2.927e-6
-1.484, 1.559e-7
-1.483, -2.927e-6
-1.482, -2.927e-6
-1.481, -2.927e-6
-1.480, 1.559e-7
-1.479, -2.927e-6
-1.478, -2.927e-6
-1.477, -2.927e-6
-1.476, -2.927e-6
-1.475, -2.927e-6
-1.474, -2.927e-6
-1.473, -2.927e-6
-1.472, -2.927e-6
-1.471, -2.927e-6
-1.470, -2.927e-6
-1.469, -2.927e-6
-1.468, -2.927e-6
-1.467, -2.927e-6
-1.466, -2.927e-6
-1.465, -2.927e-6
-1.464, -2.927e-6
-1.463, -2.927e-6
-1.462, -2.927e-6
-1.461, -2.927e-6
-1.460, -2.927e-6
-1.459, -2.927e-6
-1.458, -2.927e-6
-1.457, -2.927e-6
-1.456, -2.927e-6
-1.455, -2.927e-6
-1.454, -2.927e-6
-1.453, -2.927e-6
-1.452, -2.927e-6
-1.451, -2.927e-6
-1.450, -2.927e-6
-1.449, -2.927e-6
-1.448, -2.927e-6
-1.447, -2.927e-6
-1.446, -2.927e-6
-1.445, -2.927e-6
-1.444, -2.927e-6
-1.443, -2.927e-6
-1.442, -2.927e-6
-1.441, -2.927e-6
-1.440, -2.927e-6
-1.439, -2.927e-6
-1.438, -2.927e-6
-1.437, -2.927e-6
-1.436, -2.927e-6
-1.435, -2.927e-6
-1.434, -2.927e-6
-1.433, -2.927e-6
-1.432, -2.927e-6
-1.431, -2.927e-6
-1.430, -2.927e-6
-1.429, -2.927e-6
-1.428, -2.927e-6
-1.427, -2.927e-6
-1.426, -2.927e-6
-1.425, -2.927e-6
-1.424, -2.927e-6
-1.423, -2.927e-6
-1.422, -2.927e-6
-1.421, -2.927e-6
-1.420, -2.927e-6
-1.419, -2.927e-6
-1.418, -2.927e-6
-1.417, -2.927e-6
-1.416, -2.927e-6
-1.415, -2.927e-6
-1.414, -2.927e-6
-1.413, -2.927e-6
-1.412, -2.927e-6
-1.411, -6.010e-6
-1.410, -2.927e-6
-1.409, -2.927e-6
-1.408, -2.927e-6
-1.407, -2.927e-6
-1.406, -2.927e-6
-1.405, -2.927e-6
-1.404, -2.927e-6
-1.403, -2.927e-6
-1.402, -2.927e-6
-1.401, -2.927e-6
-1.400, -2.927e-6
-1.399, -2.927e-6
-1.398, -6.010e-6
-1.397, -2.927e-6
-1.396, -2.927e-6
-1.395, -2.927e-6
-1.394, -2.927e-6
-1.393, -2.927e-6
-1.392, -2.927e-6
-1.391, -2.927e-6
-1.390, -2.927e-6
-1.389, -2.927e-6
-1.388, -2.927e-6
-1.387, -2.927e-6
-1.386, -2.927e-6
-1.385, -6.010e-6
-1.384, -2.927e-6
-1.383, -2.927e-6
-1.382, -2.927e-6
-1.381, -2.927e-6
-1.380, -2.927e-6
-1.379, -2.927e-6
-1.378, -6.010e-6
-1.377, -6.010e-6
-1.376, -2.927e-6
-1.375, -2.927e-6
-1.374, -2.927e-6
-1.373, -2.927e-6
-1.372, -6.010e-6
-1.371, -2.927e-6
-1.370, -6.010e-6
-1.369, -2.927e-6
-1.368, -2.927e-6
-1.367, -6.010e-6
-1.366, -2.927e-6
-1.365, -2.927e-6
-1.364, -2.927e-6
-1.363, -6.010e-6
-1.362, -2.927e-6
-1.361, -2.927e-6
-1.360, -2.927e-6
-1.359, -2.927e-6
-1.358, -6.010e-6
-1.357, -6.010e-6
-1.356, -6.010e-6
-1.355, -6.010e-6
-1.354, -2.927e-6
-1.353, -6.010e-6
-1.352, -2.927e-6
-1.351, -2.927e-6
-1.350, -2.927e-6
-1.349, -2.927e-6
-1.348, -2.927e-6
-1.347, -6.010e-6
-1.346, -2.927e-6
-1.345, -6.010e-6
-1.344, -6.010e-6
-1.343, -6.010e-6
-1.342, -2.927e-6
-1.341, -6.010e-6
-1.340, -2.927e-6
-1.339, -2.927e-6
-1.338, -6.010e-6
-1.337, -6.010e-6
-1.336, -6.010e-6
-1.335, -6.010e-6
-1.334, -6.010e-6
-1.333, -2.927e-6
-1.332, -2.927e-6
-1.331, -6.010e-6
-1.330, -6.010e-6
-1.329, -2.927e-6
-1.328, -6.010e-6
-1.327, -2.927e-6
-1.326, -2.927e-6
-1.325, -2.927e-6
-1.324, -2.927e-6
-1.323, -2.927e-6
-1.322, -6.010e-6
-1.321, -2.927e-6
-1.320, -2.927e-6
-1.319, -2.927e-6
-1.318, -6.010e-6
-1.317, -2.927e-6
-1.316, -6.010e-6
-1.315, -6.010e-6
-1.314, -6.010e-6
-1.313, -2.927e-6
-1.312, -6.010e-6
-1.311, -2.927e-6
-1.310, -6.010e-6
-1.309, -6.010e-6
-1.308, -6.010e-6
-1.307, -6.010e-6
-1.306, -2.927e-6
-1.305, -6.010e-6
-1.304, -6.010e-6
-1.303, -2.927e-6
-1.302, -6.010e-6
-1.301, -6.010e-6
-1.300, -2.927e-6
-1.299, -6.010e-6
-1.298, -6.010e-6
-1.297, -6.010e-6
-1.296, -6.010e-6
-1.295, -6.010e-6
-1.294, -2.927e-6
-1.293, -6.010e-6
-1.292, -2.927e-6
-1.291, -6.010e-6
-1.290, -2.927e-6
-1.289, -6.010e-6
-1.288, -2.927e-6
-1.287, -6.010e-6
-1.286, -2.927e-6
-1.285, -6.010e-6
-1.284, -2.927e-6
-1.283, -6.010e-6
-1.282, -6.010e-6
-1.281, -6.010e-6
-1.280, -6.010e-6
-1.279, -6.010e-6
-1.278, -6.010e-6
-1.277, -6.010e-6
-1.276, -2.927e-6
-1.275, -6.010e-6
-1.274, -6.010e-6
-1.273, -6.010e-6
-1.272, -2.927e-6
-1.271, -6.010e-6
-1.270, -6.010e-6
-1.269, -6.010e-6
-1.268, -6.010e-6
-1.267, -6.010e-6
-1.266, -6.010e-6
-1.265, -6.010e-6
-1.264, -6.010e-6
-1.263, -6.010e-6
-1.262, -6.010e-6
-1.261, -6.010e-6
-1.260, -6.010e-6
-1.259, -6.010e-6
-1.258, -6.010e-6
-1.257, -6.010e-6
-1.256, -6.010e-6
-1.255, -6.010e-6
-1.254, -6.010e-6
-1.253, -2.927e-6
-1.252, -6.010e-6
-1.251, -6.010e-6
-1.250, -6.010e-6
-1.249, -6.010e-6
-1.248, -6.010e-6
-1.247, -2.927e-6
-1.246, -6.010e-6
-1.245, -6.010e-6
-1.244, -6.010e-6
-1.243, -6.010e-6
-1.242, -6.010e-6
-1.241, -6.010e-6
-1.240, -6.010e-6
-1.239, -2.927e-6
-1.238, -6.010e-6
-1.237, -2.927e-6
-1.236, -6.010e-6
-1.235, -6.010e-6
-1.234, -6.010e-6
-1.233, -2.927e-6
-1.232, -6.010e-6
-1.231, -6.010e-6
-1.230, -6.010e-6
-1.229, -6.010e-6
-1.228, -6.010e-6
-1.227, -6.010e-6
-1.226, -2.927e-6
-1.225, -6.010e-6
-1.224, -6.010e-6
-1.223, -6.010e-6
-1.222, -2.927e-6
-1.221, -6.010e-6
-1.220, -2.927e-6
-1.219, -6.010e-6
-1.218, -6.010e-6
-1.217, -6.010e-6
-1.216, -6.010e-6
-1.215, -6.010e-6
-1.214, -6.010e-6
-1.213, -6.010e-6
-1.212, -6.010e-6
-1.211, -6.010e-6
-1.210, -6.010e-6
-1.209, -6.010e-6
-1.208, -6.010e-6
-1.207, -6.010e-6
-1.206, -6.010e-6
-1.205, -6.010e-6
-1.204, -6.010e-6
-1.203, -6.010e-6
-1.202, -6.010e-6
-1.201, -6.010e-6
-1.200, -6.010e-6
-1.199, -6.010e-6
-1.198, -6.010e-6
-1.197, -6.010e-6
-1.196, -6.010e-6
-1.195, -6.010e-6
-1.194, -6.010e-6
-1.193, -6.010e-6
-1.192, -6.010e-6
-1.191, -6.010e-6
-1.190, -6.010e-6
-1.189, -6.010e-6
-1.188, -6.010e-6
-1.187, -6.010e-6
-1.186, -6.010e-6
-1.185, -6.010e-6
-1.184, -6.010e-6
-1.183, -6.010e-6
-1.182, -6.010e-6
-1.181, -6.010e-6
-1.180, -6.010e-6
-1.179, -6.010e-6
-1.178, -6.010e-6
-1.177, -6.010e-6
-1.176, -6.010e-6
-1.175, -6.010e-6
-1.174, -6.010e-6
-1.173, -2.927e-6
-1.172, -6.010e-6
-1.171, -6.010e-6
-1.170, -6.010e-6
-1.169, -6.010e-6
-1.168, -6.010e-6
-1.167, -6.010e-6
-1.166, -6.010e-6
-1.165, -6.010e-6
-1.164, -6.010e-6
-1.163, -6.010e-6
-1.162, -6.010e-6
-1.161, -6.010e-6
-1.160, -6.010e-6
-1.159, -6.010e-6
-1.158, -6.010e-6
-1.157, -6.010e-6
-1.156, -6.010e-6
-1.155, -6.010e-6
-1.154, -6.010e-6
-1.153, -6.010e-6
-1.152, -6.010e-6
-1.151, -6.010e-6
-1.150, -6.010e-6
-1.149, -6.010e-6
-1.148, -6.010e-6
-1.147, -6.010e-6
-1.146, -6.010e-6
-1.145, -6.010e-6
-1.144, -6.010e-6
-1.143, -6.010e-6
-1.142, -6.010e-6
-1.141, -6.010e-6
-1.140, -6.010e-6
-1.139, -6.010e-6
-1.138, -6.010e-6
-1.137, -6.010e-6
-1.136, -6.010e-6
-1.135, -6.010e-6
-1.134, -6.010e-6
-1.133, -6.010e-6
-1.132, -6.010e-6
-1.131, -6.010e-6
-1.130, -6.010e-6
-1.129, -6.010e-6
-1.128, -6.010e-6
-1.127, -6.010e-6
-1.126, -6.010e-6
-1.125, -6.010e-6
-1.124, -6.010e-6
-1.123, -6.010e-6
-1.122, -6.010e-6
-1.121, -6.010e-6
-1.120, -6.010e-6
-1.119, -6.010e-6
-1.118, -6.010e-6
-1.117, -6.010e-6
-1.116, -6.010e-6
-1.115, -6.010e-6
-1.114, -6.010e-6
-1.113, -6.010e-6
-1.112, -6.010e-6
-1.111, -6.010e-6
-1.110, -6.010e-6
-1.109, -6.010e-6
-1.108, -6.010e-6
-1.107, -6.010e-6
-1.106, -6.010e-6
-1.105, -6.010e-6
-1.104, -6.010e-6
-1.103, -6.010e-6
-1.102, -6.010e-6
-1.101, -6.010e-6
-1.100, -6.010e-6
-1.099, -6.010e-6
-1.098, -6.010e-6
-1.097, -6.010e-6
-1.096, -6.010e-6
-1.095, -6.010e-6
-1.094, -6.010e-6
-1.093, -6.010e-6
-1.092, -6.010e-6
-1.091, -6.010e-6
-1.090, -6.010e-6
-1.089, -6.010e-6
-1.088, -6.010e-6
-1.087, -6.010e-6
-1.086, -6.010e-6
-1.085, -6.010e-6
-1.084, -6.010e-6
-1.083, -6.010e-6
-1.082, -6.010e-6
-1.081, -6.010e-6
-1.080, -6.010e-6
-1.079, -6.010e-6
-1.078, -6.010e-6
-1.077, -6.010e-6
-1.076, -6.010e-6
-1.075, -6.010e-6
-1.074, -6.010e-6
-1.073, -6.010e-6
-1.072, -6.010e-6
-1.071, -6.010e-6
-1.070, -6.010e-6
-1.069, -6.010e-6
-1.068, -6.010e-6
-1.067, -6.010e-6
-1.066, -6.010e-6
-1.065, -6.010e-6
-1.064, -6.010e-6
-1.063, -6.010e-6
-1.062, -6.010e-6
-1.061, -6.010e-6
-1.060, -6.010e-6
-1.059, -6.010e-6
-1.058, -6.010e-6
-1.057, -6.010e-6
-1.056, -6.010e-6
-1.055, -6.010e-6
-1.054, -6.010e-6
-1.053, -6.010e-6
-1.052, -6.010e-6
-1.051, -6.010e-6
-1.050, -6.010e-6
-1.049, -6.010e-6
-1.048, -6.010e-6
-1.047, -6.010e-6
-1.046, -6.010e-6
-1.045, -6.010e-6
-1.044, -6.010e-6
-1.043, -6.010e-6
-1.042, -6.010e-6
-1.041, -6.010e-6
-1.040, -6.010e-6
-1.039, -6.010e-6
-1.038, -6.010e-6
-1.037, -6.010e-6
-1.036, -6.010e-6
-1.035, -6.010e-6
-1.034, -6.010e-6
-1.033, -6.010e-6
-1.032, -6.010e-6
-1.031, -6.010e-6
-1.030, -6.010e-6
-1.029, -6.010e-6
-1.028, -6.010e-6
-1.027, -6.010e-6
-1.026, -6.010e-6
-1.025, -2.927e-6
-1.024, -6.010e-6
-1.023, -6.010e-6
-1.022, -6.010e-6
-1.021, -6.010e-6
-1.020, -6.010e-6
-1.019, -6.010e-6
-1.018, -6.010e-6
-1.017, -6.010e-6
-1.016, -6.010e-6
-1.015, -6.010e-6
-1.014, -6.010e-6
-1.013, -6.010e-6
-1.012, -6.010e-6
-1.011, -9.093e-6
-1.010, -6.010e-6
-1.009, -6.010e-6
-1.008, -6.010e-6
-1.007, -6.010e-6
-1.006, -6.010e-6
-1.005, -6.010e-6
-1.004, -6.010e-6
-1.003, -6.010e-6
-1.002, -6.010e-6
-1.001, -6.010e-6
