Potential V vs RHE, Current mA cm-2
0.05339999999999995,-0.23201265317786599
0.05239999999999995,-0.24488652600663782
0.051399999999999946,-0.251111255726044
0.050399999999999945,-0.25450656284572004
0.049399999999999944,-0.25691157205549064
0.04839999999999994,-0.2588921678753017
0.04739999999999994,-0.2607312925651262
0.04639999999999994,-0.2622874749949778
0.04539999999999994,-0.26384365742482935
0.04439999999999994,-0.2651168975947079
0.04339999999999994,-0.2663901377645864
0.04239999999999994,-0.26766337793446493
0.04139999999999994,-0.268795146974357
0.040399999999999936,-0.2697854448842625
0.039399999999999935,-0.2709172139241546
0.038399999999999934,-0.27204898296404656
0.03739999999999993,-0.27303928087395213
0.03639999999999993,-0.2740295787838576
0.03539999999999993,-0.27487840556377663
0.03439999999999993,-0.27586870347368214
0.03339999999999993,-0.2767175302536012
0.03239999999999993,-0.2775663570335202
0.03139999999999993,-0.27855665494342574
0.030399999999999927,-0.27926401059335826
0.029399999999999926,-0.2801128373732773
0.028399999999999925,-0.2809616641531963
0.027399999999999924,-0.2816690198031288
0.026399999999999924,-0.2826593177130343
0.025399999999999923,-0.28336667336296684
0.024399999999999922,-0.2840740290128994
0.02339999999999992,-0.2849228557928184
0.02239999999999992,-0.2856302114427509
0.02139999999999992,-0.28647903822266996
0.020399999999999918,-0.2871863938726024
0.019399999999999917,-0.287893749522535
0.018399999999999916,-0.288742576302454
0.017399999999999916,-0.2894499319523865
0.016399999999999915,-0.290157287602319
0.015399999999999914,-0.29086464325225153
0.014399999999999913,-0.2915719989021841
0.013399999999999912,-0.29227935455211657
0.012399999999999911,-0.2929867102020491
0.01139999999999991,-0.29369406585198166
0.01039999999999991,-0.29454289263190064
0.009399999999999908,-0.29510877715184664
0.008399999999999908,-0.2958161328017792
0.007399999999999907,-0.29652348845171167
0.006399999999999906,-0.29708937297165766
0.005399999999999905,-0.29779672862159023
0.004399999999999904,-0.29850408427152275
0.003399999999999903,-0.2992114399214552
0.002399999999999902,-0.2999187955713878
0.0013999999999999013,-0.3006261512213203
0.00039999999999990044,-0.3011920357412663
-0.0006000000000001005,-0.3018993913911988
-0.0016000000000001013,-0.3024652759111448
-0.0026000000000001022,-0.3031726315610774
-0.003600000000000103,-0.3038799872110099
-0.004600000000000104,-0.30458734286094236
-0.005600000000000105,-0.30529469851087493
-0.006600000000000106,-0.30600205416080745
-0.007600000000000107,-0.30656793868075344
-0.008600000000000108,-0.3071338232006995
-0.009600000000000108,-0.3076997077206455
-0.01060000000000011,-0.308407063370578
-0.01160000000000011,-0.3091144190205105
-0.012600000000000111,-0.30982177467044303
-0.013600000000000112,-0.310387659190389
-0.014600000000000113,-0.31095354371033507
-0.015600000000000114,-0.31151942823028106
-0.016600000000000115,-0.3122267838802136
-0.017600000000000116,-0.3127926684001596
-0.018600000000000116,-0.31350002405009214
-0.019600000000000117,-0.3142073797000246
-0.020600000000000118,-0.31477326421997065
-0.02160000000000012,-0.31533914873991664
-0.02260000000000012,-0.31604650438984916
-0.02360000000000012,-0.3166123889097952
-0.024600000000000122,-0.3171782734297412
-0.025600000000000123,-0.3177441579496872
-0.026600000000000124,-0.3184515135996197
-0.027600000000000124,-0.31901739811956575
-0.028600000000000125,-0.31958328263951175
-0.029600000000000126,-0.32029063828944426
-0.030600000000000127,-0.3208565228093903
-0.03160000000000013,-0.3214224073293363
-0.03260000000000013,-0.3219882918492823
-0.03360000000000013,-0.32269564749921487
-0.03460000000000002,-0.3231200608891744
-0.03560000000000002,-0.32382741653910685
-0.03660000000000002,-0.3243933010590529
-0.03760000000000002,-0.3251006567089854
-0.03860000000000002,-0.3256665412289314
-0.039600000000000024,-0.3260909546188909
-0.040600000000000025,-0.32679831026882344
-0.041600000000000026,-0.32722272365878297
-0.04260000000000003,-0.32778860817872896
-0.04360000000000003,-0.328354492698675
-0.04460000000000003,-0.328920377218621
-0.04560000000000003,-0.3296277328685535
-0.04660000000000003,-0.3300521462585131
-0.04760000000000003,-0.33075950190844555
-0.04860000000000003,-0.3313253864283916
-0.04960000000000003,-0.3318912709483376
-0.050600000000000034,-0.33245715546828364
-0.051600000000000035,-0.33288156885824316
-0.052600000000000036,-0.33344745337818915
-0.053600000000000037,-0.3340133378981352
-0.05460000000000004,-0.3345792224180812
-0.05560000000000004,-0.3351451069380272
-0.05660000000000004,-0.33571099145797323
-0.05760000000000004,-0.33613540484793275
-0.05860000000000004,-0.33670128936787874
-0.05960000000000004,-0.33726717388782473
-0.06060000000000004,-0.33769158727778426
-0.061600000000000044,-0.3382574717977303
-0.06260000000000004,-0.3388233563176763
-0.06360000000000005,-0.3393892408376223
-0.06460000000000005,-0.33995512535756833
-0.06560000000000005,-0.34037953874752785
-0.06660000000000005,-0.34094542326747385
-0.06760000000000005,-0.34151130778741984
-0.06860000000000005,-0.3419357211773794
-0.06960000000000005,-0.3423601345673389
-0.07060000000000005,-0.3427845479572984
-0.07160000000000005,-0.3433504324772444
-0.07260000000000005,-0.34377484586720397
-0.07360000000000005,-0.34419925925716344
-0.07460000000000006,-0.34476514377710943
-0.07560000000000006,-0.34518955716706895
-0.07660000000000006,-0.3456139705570285
-0.07760000000000006,-0.346038383946988
-0.07860000000000006,-0.3464627973369475
-0.07960000000000006,-0.346887210726907
-0.08060000000000006,-0.347453095246853
-0.08160000000000006,-0.347736037506826
-0.08260000000000006,-0.34830192202677207
-0.08360000000000006,-0.34872633541673154
-0.08460000000000006,-0.34900927767670453
-0.08560000000000006,-0.3494336910666641
-0.08660000000000007,-0.3498581044566236
-0.08760000000000007,-0.3502825178465831
-0.08860000000000007,-0.3507069312365426
-0.08960000000000007,-0.3509898734965156
-0.09060000000000007,-0.35141428688647514
-0.09160000000000007,-0.35183870027643466
-0.09260000000000007,-0.35212164253640765
-0.09360000000000007,-0.3525460559263671
-0.09460000000000007,-0.35297046931632664
-0.09560000000000007,-0.3532534115762997
-0.09660000000000007,-0.3536778249662592
-0.09760000000000008,-0.3539607672262322
-0.09860000000000008,-0.3542437094862052
-0.09960000000000008,-0.35466812287616467
-0.10060000000000008,-0.35495106513613767
-0.10160000000000008,-0.3552340073961107
-0.10260000000000008,-0.35565842078607024
-0.10360000000000008,-0.35594136304604324
-0.10460000000000008,-0.35636577643600276
-0.10560000000000008,-0.3565072475659892
-0.10660000000000008,-0.3567901898259622
-0.10760000000000008,-0.3570731320859353
-0.10860000000000009,-0.3574975454758948
-0.10960000000000009,-0.3577804877358678
-0.11060000000000009,-0.3580634299958408
-0.11160000000000009,-0.3583463722558138
-0.11260000000000009,-0.3586293145157868
-0.11360000000000009,-0.3587707856457733
-0.11460000000000009,-0.3591951990357328
-0.11560000000000009,-0.35961961242569235
-0.11660000000000009,-0.35961961242569235
-0.1176000000000001,-0.36018549694563834
-0.1186000000000001,-0.3603269680756248
-0.1196000000000001,-0.36046843920561134
-0.1206000000000001,-0.36075138146558433
-0.1216000000000001,-0.3608928525955709
-0.1226000000000001,-0.3611757948555439
-0.1236000000000001,-0.3614587371155169
-0.1246000000000001,-0.3616002082455034
-0.1256000000000001,-0.3617416793754899
-0.1266000000000001,-0.3620246216354629
-0.1276000000000001,-0.3623075638954359
-0.1286000000000001,-0.3625905061554089
-0.1296000000000001,-0.3625905061554089
-0.1306000000000001,-0.36301491954536846
-0.1316000000000001,-0.36343933293532793
-0.1326000000000001,-0.36358080406531446
-0.1336000000000001,-0.3637222751953009
-0.1346000000000001,-0.3640052174552739
-0.1356000000000001,-0.3642881597152469
-0.1366000000000001,-0.3645711019752199
-0.1376000000000001,-0.3645711019752199
-0.1386000000000001,-0.36485404423519296
-0.1396000000000001,-0.3649955153651795
-0.1406000000000001,-0.36513698649516596
-0.14160000000000011,-0.36541992875513896
-0.14260000000000012,-0.3655613998851255
-0.14360000000000012,-0.365702871015112
-0.14460000000000012,-0.365985813275085
-0.14560000000000012,-0.3661272844050715
-0.14660000000000012,-0.36641022666504447
-0.14760000000000012,-0.3666931689250175
-0.14860000000000012,-0.3666931689250175
-0.14960000000000012,-0.3669761111849905
-0.15060000000000012,-0.36711758231497704
-0.15160000000000012,-0.3672590534449635
-0.15260000000000012,-0.3678249379649095
-0.15360000000000013,-0.3689567070048016
-0.15460000000000013,-0.36938112039476106
-0.15560000000000013,-0.3695225915247476
-0.15660000000000013,-0.3692396492647746
-0.15760000000000013,-0.36938112039476106
-0.15860000000000013,-0.3695225915247476
-0.15960000000000002,-0.36966406265473406
-0.16060000000000002,-0.3698055337847206
-0.16160000000000002,-0.3700884760446936
-0.16260000000000002,-0.37022994717468005
-0.16360000000000002,-0.37051288943465316
-0.16460000000000002,-0.37065436056463963
-0.16560000000000002,-0.3712202450845856
-0.16660000000000003,-0.37164465847454514
-0.16760000000000003,-0.37164465847454514
-0.16860000000000003,-0.3717861296045316
-0.16960000000000003,-0.37192760073451814
-0.17060000000000003,-0.37221054299449113
-0.17160000000000003,-0.3724934852544642
-0.17260000000000003,-0.37263495638445066
-0.17360000000000003,-0.37291789864442365
-0.17460000000000003,-0.3732008409043967
-0.17560000000000003,-0.3734837831643697
-0.17660000000000003,-0.3737667254243427
-0.17760000000000004,-0.3740496676843157
-0.17860000000000004,-0.37433260994428874
-0.17960000000000004,-0.37461555220426174
-0.18060000000000004,-0.3747570233342482
-0.18160000000000004,-0.3750399655942212
-0.18260000000000004,-0.3753229078541942
-0.18360000000000004,-0.37560585011416725
-0.18460000000000004,-0.37588879237414025
-0.18560000000000004,-0.3760302635041267
-0.18660000000000004,-0.3764546768940863
-0.18760000000000004,-0.3767376191540593
-0.18860000000000005,-0.3770205614140323
-0.18960000000000005,-0.37744497480399175
-0.19060000000000005,-0.37772791706396475
-0.19160000000000005,-0.37786938819395127
-0.19260000000000005,-0.37815233045392427
-0.19360000000000005,-0.3784352727138973
-0.19460000000000005,-0.37885968610385684
-0.19560000000000005,-0.37914262836382984
-0.19660000000000005,-0.37942557062380283
-0.19760000000000005,-0.3798499840137623
-0.19860000000000005,-0.3802743974037219
-0.19960000000000006,-0.38055733966369487
-0.20060000000000006,-0.38084028192366787
-0.20160000000000006,-0.38112322418364086
-0.20260000000000006,-0.3815476375736004
-0.20360000000000006,-0.3818305798335734
-0.20460000000000006,-0.3822549932235329
-0.20560000000000006,-0.3826794066134924
-0.20660000000000006,-0.3829623488734654
-0.20760000000000006,-0.3832452911334384
-0.20860000000000006,-0.3838111756533844
-0.20960000000000006,-0.38409411791335746
-0.21060000000000006,-0.384518531303317
-0.21160000000000007,-0.38494294469327645
-0.21260000000000007,-0.38536735808323597
-0.21360000000000007,-0.3857917714731955
-0.21460000000000007,-0.386216184863155
-0.21560000000000007,-0.38664059825311453
-0.21660000000000007,-0.387065011643074
-0.21760000000000007,-0.38763089616302
-0.21860000000000007,-0.38791383842299304
-0.21960000000000007,-0.38833825181295256
-0.22060000000000007,-0.3887626652029121
-0.22160000000000007,-0.3893285497228581
-0.22260000000000008,-0.38961149198283107
-0.22360000000000008,-0.3900359053727906
-0.22460000000000008,-0.39060178989273664
-0.22560000000000008,-0.3910262032826961
-0.22660000000000008,-0.3915920878026421
-0.22760000000000008,-0.39215797232258814
-0.22860000000000008,-0.39244091458256114
-0.22960000000000008,-0.3930067991025072
-0.23060000000000008,-0.39343121249246665
-0.23160000000000008,-0.39385562588242623
-0.23260000000000008,-0.3944215104023722
-0.23360000000000009,-0.3948459237923317
-0.2346000000000001,-0.3954118083122777
-0.2356000000000001,-0.3959776928322238
-0.2366000000000001,-0.3965435773521698
-0.2376000000000001,-0.39725093300210224
-0.2386000000000001,-0.3978168175220483
-0.2396000000000001,-0.3982412309120078
-0.2406000000000001,-0.3988071154319538
-0.2416000000000001,-0.39951447108188637
-0.2426000000000001,-0.40022182673181883
-0.2436000000000001,-0.4007877112517649
-0.2446000000000001,-0.40121212464172434
-0.2456000000000001,-0.4020609514216434
-0.2466000000000001,-0.40262683594158943
-0.2476000000000001,-0.40333419159152195
-0.2486000000000001,-0.40390007611146794
-0.2496000000000001,-0.404465960631414
-0.2506000000000001,-0.4051733162813465
-0.2516000000000001,-0.405880671931279
-0.2526000000000001,-0.406446556451225
-0.2536000000000001,-0.4072953832311441
-0.2546000000000001,-0.4080027388810766
-0.2556000000000001,-0.4087100945310091
-0.2566000000000001,-0.40941745018094167
-0.2576000000000001,-0.41012480583087413
-0.2586000000000001,-0.4109736326107932
-0.2596000000000001,-0.4116809882607257
-0.2606000000000001,-0.4123883439106582
-0.2616000000000001,-0.41323717069057725
-0.2626000000000001,-0.41394452634050977
-0.2636000000000001,-0.41465188199044223
-0.2646000000000001,-0.41550070877036127
-0.2656000000000001,-0.4162080644202938
-0.2666000000000001,-0.41705689120021283
-0.2676000000000001,-0.4179057179801318
-0.2686000000000001,-0.4186130736300644
-0.2696000000000001,-0.4196033715399699
-0.2706000000000001,-0.42031072718990237
-0.2716000000000001,-0.42115955396982147
-0.2726000000000001,-0.4221498518797269
-0.2736000000000001,-0.4228572075296595
-0.2746000000000001,-0.4237060343095785
-0.2756000000000001,-0.42469633221948405
-0.2766000000000001,-0.42554515899940304
-0.2776000000000001,-0.4265354569093086
-0.2786000000000001,-0.4273842836892276
-0.2796000000000001,-0.42823311046914664
-0.2806000000000001,-0.4290819372490656
-0.28160000000000013,-0.43021370628895766
-0.28260000000000013,-0.4310625330688767
-0.28360000000000013,-0.4319113598487957
-0.2846,-0.4329016577587012
-0.2856,-0.43403342679859325
-0.2866,-0.4348822535785123
-0.2876,-0.43587255148841775
-0.2886,-0.43686284939832337
-0.2896,-0.4378531473082289
-0.2906,-0.43884344521813434
-0.2916,-0.4399752142580264
-0.2926,-0.4411069832979185
-0.2936,-0.4422387523378105
-0.29460000000000003,-0.44308757911772945
-0.29560000000000003,-0.4442193481576215
-0.29660000000000003,-0.44535111719751347
-0.29760000000000003,-0.4463414151074191
-0.29860000000000003,-0.44733171301732455
-0.29960000000000003,-0.4486049531872031
-0.30060000000000003,-0.44959525109710863
-0.30160000000000003,-0.45086849126698714
-0.30260000000000004,-0.4520002603068792
-0.30360000000000004,-0.45313202934677127
-0.30460000000000004,-0.4544052695166497
-0.30560000000000004,-0.45553703855654176
-0.30660000000000004,-0.45666880759643386
-0.30760000000000004,-0.4579420477663123
-0.30860000000000004,-0.45907381680620446
-0.30960000000000004,-0.46034705697608286
-0.31060000000000004,-0.461478826015975
-0.31160000000000004,-0.462610595055867
-0.31260000000000004,-0.4641667774857185
-0.31360000000000005,-0.46529854652561053
-0.31460000000000005,-0.4664303155655025
-0.31560000000000005,-0.4678450268653676
-0.31660000000000005,-0.4691182670352462
-0.31760000000000005,-0.47053297833511115
-0.31860000000000005,-0.47180621850498966
-0.31960000000000005,-0.47322092980485475
-0.32060000000000005,-0.4744941699747333
-0.32160000000000005,-0.4757674101446118
-0.32260000000000005,-0.4770406503144904
-0.32360000000000005,-0.4784553616143554
-0.32460000000000006,-0.47972860178423393
-0.32560000000000006,-0.4810018419541125
-0.32660000000000006,-0.48241655325397753
-0.32760000000000006,-0.4838312645538425
-0.32860000000000006,-0.4851045047237211
-0.32960000000000006,-0.48637774489359964
-0.33060000000000006,-0.48793392732345114
-0.33160000000000006,-0.4893486386233161
-0.33260000000000006,-0.4906218787931947
-0.33360000000000006,-0.49189511896307325
-0.33460000000000006,-0.4933098302629383
-0.33560000000000006,-0.49472454156280327
-0.33660000000000007,-0.49599778173268183
-0.33760000000000007,-0.49741249303254687
-0.33860000000000007,-0.49868573320242543
-0.33960000000000007,-0.5001004445022904
-0.34060000000000007,-0.5013736846721689
-0.34160000000000007,-0.5027883959720341
-0.34260000000000007,-0.504203107271899
-0.34360000000000007,-0.5054763474417775
-0.3446000000000001,-0.5068910587416426
-0.3456000000000001,-0.5081642989115212
-0.3466000000000001,-0.5094375390813997
-0.34759999999999996,-0.5108522503812647
-0.3486000000000001,-0.5121254905511432
-0.34959999999999997,-0.5135402018510082
-0.3506000000000001,-0.5148134420208869
-0.35159999999999997,-0.5162281533207519
-0.3526000000000001,-0.5176428646206169
-0.35359999999999997,-0.518774633660509
-0.3546000000000001,-0.520189344960374
-0.35559999999999997,-0.5216040562602391
-0.3566000000000001,-0.5227358253001311
-0.3576,-0.5241505365999961
-0.3586000000000001,-0.5255652478998613
-0.3596,-0.5268384880697398
-0.3606000000000001,-0.5281117282396182
-0.3616,-0.5293849684094968
-0.3626000000000001,-0.5307996797093618
-0.3636,-0.5320729198792403
-0.3646000000000001,-0.533346160049119
-0.3656,-0.5347608713489839
-0.3666000000000001,-0.5360341115188624
-0.3676,-0.537307351688741
-0.3686000000000001,-0.538722062988606
-0.3696,-0.5399953031584845
-0.3706000000000001,-0.5414100144583496
-0.3716,-0.5428247257582146
-0.3726000000000001,-0.5440979659280931
-0.3736,-0.5455126772279582
-0.3746000000000001,-0.5467859173978367
-0.3756,-0.5482006286977017
-0.3766000000000001,-0.5496153399975668
-0.3776,-0.5508885801674454
-0.3786000000000001,-0.5523032914673103
-0.3796,-0.5537180027671754
-0.3806000000000001,-0.5549912429370539
-0.3816,-0.5565474253669055
-0.3826000000000001,-0.557820665536784
-0.3836,-0.559235376836649
-0.3846000000000001,-0.5606500881365141
-0.3856,-0.5620647994363791
-0.3866000000000001,-0.5634795107362441
-0.3876,-0.5648942220361092
-0.3886000000000001,-0.5661674622059877
-0.3896,-0.5675821735058527
-0.3906000000000001,-0.5689968848057178
-0.3916,-0.5704115961055828
-0.3926000000000001,-0.5719677785354343
-0.3936,-0.5732410187053129
-0.3946000000000001,-0.5747972011351644
-0.3956,-0.576353383565016
-0.3966000000000001,-0.577768094864881
-0.3976,-0.5793242772947326
-0.3986000000000001,-0.5807389885945976
-0.3996,-0.5824366421544356
-0.4006000000000001,-0.5839928245842871
-0.4016,-0.5854075358841522
-0.4026000000000001,-0.5869637183140037
-0.4036,-0.5886613718738418
-0.4046000000000001,-0.5902175543036933
-0.4056,-0.5916322656035584
-0.40660000000000013,-0.5931884480334099
-0.4076,-0.594886101593248
-0.40860000000000013,-0.5965837551530859
-0.4096,-0.598281408712924
-0.41060000000000013,-0.5999790622727621
-0.4116,-0.6018181869625866
-0.41260000000000013,-0.6035158405224247
-0.4136,-0.6053549652122492
-0.41460000000000014,-0.6070526187720873
-0.4156,-0.6088917434619118
-0.41660000000000014,-0.6108723392817229
-0.4176,-0.6125699928415609
-0.41860000000000014,-0.6145505886613719
-0.41960000000000003,-0.6165311844811829
-0.42060000000000014,-0.6183703091710075
-0.42160000000000003,-0.6206338472507915
-0.42260000000000014,-0.6228973853305756
-0.42360000000000003,-0.6248779811503866
-0.42460000000000014,-0.6270000481001843
-0.42560000000000003,-0.6291221150499817
-0.42660000000000015,-0.6313856531297658
-0.42760000000000004,-0.6337906623395364
-0.42860000000000015,-0.6360542004193205
-0.42960000000000004,-0.6384592096290911
-0.43060000000000015,-0.6408642188388616
-0.43160000000000004,-0.6434106991786186
-0.43260000000000015,-0.6459571795183757
-0.43360000000000004,-0.6483621887281462
-0.43460000000000015,-0.6510501401978899
-0.43560000000000004,-0.6535966205376469
-0.43660000000000015,-0.6561431008774039
-0.43760000000000004,-0.6589725234771341
-0.43860000000000016,-0.6616604749468776
-0.43960000000000005,-0.6646313686765942
-0.44060000000000016,-0.6674607912763243
-0.44160000000000005,-0.6704316850060409
-0.44260000000000016,-0.6738269921257171
-0.44360000000000005,-0.6769393569854201
