Mar. 5, 2025   17:21:11
Linear Sweep Voltammetry
File: c:/users/guazh/data/banditlqround7_x0exp169_r20_3/2025-03-03-exp879\1acid_1ac-2025-03-05t17_18_02-lsvinphos\1acid_1ac_lsv_50mvs_efin_-2100mv.bin
Data Source:  Experiment
Instrument Model:  CHI760E
Header: LSV ran at 50 mVs with Efin at -2100mV
Note: 

Init E (V) = -0.6
Final E (V) = -2.1
Scan Rate (V/s) = 0.05
Sample Interval (V) = 0.001
Quiet Time (sec) = 2
Sensitivity (A/V) = 1e-4
Comp R (ohm) = 10.0

Results:

Channel 1:
Ep = -1.613V
ip = 6.265e-4A
Ah = 8.695e-4C

Potential/V, Current/A

-0.600, 1.073e-5
-0.601, 1.089e-5
-0.602, 1.095e-5
-0.603, 1.097e-5
-0.604, 1.101e-5
-0.605, 1.103e-5
-0.606, 1.105e-5
-0.607, 1.107e-5
-0.608, 1.113e-5
-0.609, 1.122e-5
-0.610, 1.124e-5
-0.611, 1.125e-5
-0.612, 1.126e-5
-0.613, 1.124e-5
-0.614, 1.126e-5
-0.615, 1.127e-5
-0.616, 1.129e-5
-0.617, 1.130e-5
-0.618, 1.132e-5
-0.619, 1.135e-5
-0.620, 1.136e-5
-0.621, 1.138e-5
-0.622, 1.140e-5
-0.623, 1.142e-5
-0.624, 1.145e-5
-0.625, 1.149e-5
-0.626, 1.151e-5
-0.627, 1.151e-5
-0.628, 1.153e-5
-0.629, 1.155e-5
-0.630, 1.158e-5
-0.631, 1.159e-5
-0.632, 1.160e-5
-0.633, 1.162e-5
-0.634, 1.165e-5
-0.635, 1.167e-5
-0.636, 1.169e-5
-0.637, 1.172e-5
-0.638, 1.172e-5
-0.639, 1.175e-5
-0.640, 1.176e-5
-0.641, 1.178e-5
-0.642, 1.180e-5
-0.643, 1.180e-5
-0.644, 1.181e-5
-0.645, 1.182e-5
-0.646, 1.184e-5
-0.647, 1.187e-5
-0.648, 1.190e-5
-0.649, 1.191e-5
-0.650, 1.195e-5
-0.651, 1.197e-5
-0.652, 1.198e-5
-0.653, 1.201e-5
-0.654, 1.203e-5
-0.655, 1.205e-5
-0.656, 1.205e-5
-0.657, 1.207e-5
-0.658, 1.212e-5
-0.659, 1.215e-5
-0.660, 1.218e-5
-0.661, 1.222e-5
-0.662, 1.225e-5
-0.663, 1.228e-5
-0.664, 1.232e-5
-0.665, 1.234e-5
-0.666, 1.241e-5
-0.667, 1.245e-5
-0.668, 1.241e-5
-0.669, 1.242e-5
-0.670, 1.244e-5
-0.671, 1.245e-5
-0.672, 1.245e-5
-0.673, 1.249e-5
-0.674, 1.261e-5
-0.675, 1.259e-5
-0.676, 1.259e-5
-0.677, 1.260e-5
-0.678, 1.262e-5
-0.679, 1.264e-5
-0.680, 1.263e-5
-0.681, 1.265e-5
-0.682, 1.266e-5
-0.683, 1.269e-5
-0.684, 1.270e-5
-0.685, 1.271e-5
-0.686, 1.272e-5
-0.687, 1.275e-5
-0.688, 1.278e-5
-0.689, 1.284e-5
-0.690, 1.285e-5
-0.691, 1.285e-5
-0.692, 1.288e-5
-0.693, 1.289e-5
-0.694, 1.290e-5
-0.695, 1.292e-5
-0.696, 1.296e-5
-0.697, 1.297e-5
-0.698, 1.295e-5
-0.699, 1.296e-5
-0.700, 1.298e-5
-0.701, 1.298e-5
-0.702, 1.300e-5
-0.703, 1.302e-5
-0.704, 1.303e-5
-0.705, 1.303e-5
-0.706, 1.305e-5
-0.707, 1.307e-5
-0.708, 1.309e-5
-0.709, 1.310e-5
-0.710, 1.310e-5
-0.711, 1.315e-5
-0.712, 1.318e-5
-0.713, 1.320e-5
-0.714, 1.323e-5
-0.715, 1.324e-5
-0.716, 1.324e-5
-0.717, 1.325e-5
-0.718, 1.326e-5
-0.719, 1.326e-5
-0.720, 1.328e-5
-0.721, 1.332e-5
-0.722, 1.332e-5
-0.723, 1.333e-5
-0.724, 1.337e-5
-0.725, 1.337e-5
-0.726, 1.337e-5
-0.727, 1.339e-5
-0.728, 1.339e-5
-0.729, 1.342e-5
-0.730, 1.344e-5
-0.731, 1.344e-5
-0.732, 1.347e-5
-0.733, 1.349e-5
-0.734, 1.352e-5
-0.735, 1.352e-5
-0.736, 1.354e-5
-0.737, 1.357e-5
-0.738, 1.359e-5
-0.739, 1.362e-5
-0.740, 1.364e-5
-0.741, 1.364e-5
-0.742, 1.365e-5
-0.743, 1.367e-5
-0.744, 1.369e-5
-0.745, 1.370e-5
-0.746, 1.374e-5
-0.747, 1.381e-5
-0.748, 1.375e-5
-0.749, 1.377e-5
-0.750, 1.379e-5
-0.751, 1.380e-5
-0.752, 1.381e-5
-0.753, 1.382e-5
-0.754, 1.384e-5
-0.755, 1.385e-5
-0.756, 1.386e-5
-0.757, 1.386e-5
-0.758, 1.386e-5
-0.759, 1.387e-5
-0.760, 1.389e-5
-0.761, 1.391e-5
-0.762, 1.392e-5
-0.763, 1.394e-5
-0.764, 1.396e-5
-0.765, 1.397e-5
-0.766, 1.398e-5
-0.767, 1.398e-5
-0.768, 1.400e-5
-0.769, 1.402e-5
-0.770, 1.404e-5
-0.771, 1.406e-5
-0.772, 1.406e-5
-0.773, 1.407e-5
-0.774, 1.408e-5
-0.775, 1.409e-5
-0.776, 1.409e-5
-0.777, 1.410e-5
-0.778, 1.411e-5
-0.779, 1.412e-5
-0.780, 1.415e-5
-0.781, 1.417e-5
-0.782, 1.419e-5
-0.783, 1.419e-5
-0.784, 1.420e-5
-0.785, 1.422e-5
-0.786, 1.423e-5
-0.787, 1.425e-5
-0.788, 1.428e-5
-0.789, 1.427e-5
-0.790, 1.428e-5
-0.791, 1.429e-5
-0.792, 1.430e-5
-0.793, 1.432e-5
-0.794, 1.434e-5
-0.795, 1.435e-5
-0.796, 1.437e-5
-0.797, 1.438e-5
-0.798, 1.440e-5
-0.799, 1.442e-5
-0.800, 1.444e-5
-0.801, 1.446e-5
-0.802, 1.447e-5
-0.803, 1.449e-5
-0.804, 1.450e-5
-0.805, 1.453e-5
-0.806, 1.455e-5
-0.807, 1.457e-5
-0.808, 1.458e-5
-0.809, 1.461e-5
-0.810, 1.462e-5
-0.811, 1.464e-5
-0.812, 1.465e-5
-0.813, 1.466e-5
-0.814, 1.468e-5
-0.815, 1.470e-5
-0.816, 1.472e-5
-0.817, 1.474e-5
-0.818, 1.478e-5
-0.819, 1.479e-5
-0.820, 1.480e-5
-0.821, 1.482e-5
-0.822, 1.485e-5
-0.823, 1.486e-5
-0.824, 1.488e-5
-0.825, 1.489e-5
-0.826, 1.492e-5
-0.827, 1.493e-5
-0.828, 1.494e-5
-0.829, 1.497e-5
-0.830, 1.500e-5
-0.831, 1.500e-5
-0.832, 1.503e-5
-0.833, 1.505e-5
-0.834, 1.507e-5
-0.835, 1.507e-5
-0.836, 1.512e-5
-0.837, 1.516e-5
-0.838, 1.516e-5
-0.839, 1.518e-5
-0.840, 1.520e-5
-0.841, 1.522e-5
-0.842, 1.525e-5
-0.843, 1.528e-5
-0.844, 1.530e-5
-0.845, 1.533e-5
-0.846, 1.536e-5
-0.847, 1.540e-5
-0.848, 1.546e-5
-0.849, 1.549e-5
-0.850, 1.555e-5
-0.851, 1.560e-5
-0.852, 1.564e-5
-0.853, 1.568e-5
-0.854, 1.573e-5
-0.855, 1.575e-5
-0.856, 1.576e-5
-0.857, 1.581e-5
-0.858, 1.588e-5
-0.859, 1.593e-5
-0.860, 1.595e-5
-0.861, 1.601e-5
-0.862, 1.604e-5
-0.863, 1.605e-5
-0.864, 1.608e-5
-0.865, 1.613e-5
-0.866, 1.615e-5
-0.867, 1.620e-5
-0.868, 1.622e-5
-0.869, 1.628e-5
-0.870, 1.633e-5
-0.871, 1.642e-5
-0.872, 1.642e-5
-0.873, 1.645e-5
-0.874, 1.649e-5
-0.875, 1.655e-5
-0.876, 1.661e-5
-0.877, 1.668e-5
-0.878, 1.674e-5
-0.879, 1.677e-5
-0.880, 1.682e-5
-0.881, 1.685e-5
-0.882, 1.689e-5
-0.883, 1.693e-5
-0.884, 1.699e-5
-0.885, 1.704e-5
-0.886, 1.707e-5
-0.887, 1.712e-5
-0.888, 1.721e-5
-0.889, 1.728e-5
-0.890, 1.731e-5
-0.891, 1.736e-5
-0.892, 1.741e-5
-0.893, 1.748e-5
-0.894, 1.755e-5
-0.895, 1.762e-5
-0.896, 1.768e-5
-0.897, 1.778e-5
-0.898, 1.784e-5
-0.899, 1.790e-5
-0.900, 1.796e-5
-0.901, 1.804e-5
-0.902, 1.810e-5
-0.903, 1.817e-5
-0.904, 1.822e-5
-0.905, 1.831e-5
-0.906, 1.842e-5
-0.907, 1.850e-5
-0.908, 1.859e-5
-0.909, 1.868e-5
-0.910, 1.875e-5
-0.911, 1.882e-5
-0.912, 1.892e-5
-0.913, 1.899e-5
-0.914, 1.908e-5
-0.915, 1.918e-5
-0.916, 1.933e-5
-0.917, 1.944e-5
-0.918, 1.953e-5
-0.919, 1.964e-5
-0.920, 1.973e-5
-0.921, 1.981e-5
-0.922, 1.988e-5
-0.923, 1.999e-5
-0.924, 2.011e-5
-0.925, 2.021e-5
-0.926, 2.033e-5
-0.927, 2.043e-5
-0.928, 2.055e-5
-0.929, 2.064e-5
-0.930, 2.073e-5
-0.931, 2.083e-5
-0.932, 2.093e-5
-0.933, 2.106e-5
-0.934, 2.114e-5
-0.935, 2.125e-5
-0.936, 2.136e-5
-0.937, 2.147e-5
-0.938, 2.159e-5
-0.939, 2.170e-5
-0.940, 2.184e-5
-0.941, 2.198e-5
-0.942, 2.210e-5
-0.943, 2.224e-5
-0.944, 2.236e-5
-0.945, 2.246e-5
-0.946, 2.262e-5
-0.947, 2.273e-5
-0.948, 2.285e-5
-0.949, 2.297e-5
-0.950, 2.311e-5
-0.951, 2.326e-5
-0.952, 2.342e-5
-0.953, 2.351e-5
-0.954, 2.364e-5
-0.955, 2.377e-5
-0.956, 2.392e-5
-0.957, 2.406e-5
-0.958, 2.423e-5
-0.959, 2.440e-5
-0.960, 2.453e-5
-0.961, 2.469e-5
-0.962, 2.484e-5
-0.963, 2.498e-5
-0.964, 2.513e-5
-0.965, 2.528e-5
-0.966, 2.548e-5
-0.967, 2.560e-5
-0.968, 2.572e-5
-0.969, 2.588e-5
-0.970, 2.599e-5
-0.971, 2.613e-5
-0.972, 2.626e-5
-0.973, 2.643e-5
-0.974, 2.661e-5
-0.975, 2.678e-5
-0.976, 2.690e-5
-0.977, 2.703e-5
-0.978, 2.722e-5
-0.979, 2.742e-5
-0.980, 2.758e-5
-0.981, 2.770e-5
-0.982, 2.783e-5
-0.983, 2.800e-5
-0.984, 2.817e-5
-0.985, 2.834e-5
-0.986, 2.850e-5
-0.987, 2.866e-5
-0.988, 2.885e-5
-0.989, 2.902e-5
-0.990, 2.919e-5
-0.991, 2.934e-5
-0.992, 2.954e-5
-0.993, 2.972e-5
-0.994, 2.988e-5
-0.995, 3.005e-5
-0.996, 3.025e-5
-0.997, 3.041e-5
-0.998, 3.059e-5
-0.999, 3.079e-5
-1.000, 3.096e-5
-1.001, 3.115e-5
-1.002, 3.133e-5
-1.003, 3.152e-5
-1.004, 3.170e-5
-1.005, 3.190e-5
-1.006, 3.210e-5
-1.007, 3.226e-5
-1.008, 3.247e-5
-1.009, 3.265e-5
-1.010, 3.284e-5
-1.011, 3.309e-5
-1.012, 3.329e-5
-1.013, 3.348e-5
-1.014, 3.368e-5
-1.015, 3.384e-5
-1.016, 3.404e-5
-1.017, 3.426e-5
-1.018, 3.445e-5
-1.019, 3.467e-5
-1.020, 3.488e-5
-1.021, 3.508e-5
-1.022, 3.529e-5
-1.023, 3.553e-5
-1.024, 3.575e-5
-1.025, 3.600e-5
-1.026, 3.632e-5
-1.027, 3.660e-5
-1.028, 3.667e-5
-1.029, 3.690e-5
-1.030, 3.715e-5
-1.031, 3.735e-5
-1.032, 3.756e-5
-1.033, 3.780e-5
-1.034, 3.801e-5
-1.035, 3.824e-5
-1.036, 3.854e-5
-1.037, 3.878e-5
-1.038, 3.901e-5
-1.039, 3.926e-5
-1.040, 3.950e-5
-1.041, 3.977e-5
-1.042, 4.009e-5
-1.043, 4.029e-5
-1.044, 4.048e-5
-1.045, 4.068e-5
-1.046, 4.103e-5
-1.047, 4.130e-5
-1.048, 4.148e-5
-1.049, 4.155e-5
-1.050, 4.174e-5
-1.051, 4.199e-5
-1.052, 4.224e-5
-1.053, 4.253e-5
-1.054, 4.280e-5
-1.055, 4.298e-5
-1.056, 4.312e-5
-1.057, 4.339e-5
-1.058, 4.366e-5
-1.059, 4.398e-5
-1.060, 4.421e-5
-1.061, 4.442e-5
-1.062, 4.471e-5
-1.063, 4.492e-5
-1.064, 4.508e-5
-1.065, 4.532e-5
-1.066, 4.556e-5
-1.067, 4.578e-5
-1.068, 4.606e-5
-1.069, 4.629e-5
-1.070, 4.654e-5
-1.071, 4.684e-5
-1.072, 4.714e-5
-1.073, 4.741e-5
-1.074, 4.769e-5
-1.075, 4.797e-5
-1.076, 4.836e-5
-1.077, 4.860e-5
-1.078, 4.888e-5
-1.079, 4.912e-5
-1.080, 4.934e-5
-1.081, 4.960e-5
-1.082, 4.990e-5
-1.083, 5.026e-5
-1.084, 5.054e-5
-1.085, 5.081e-5
-1.086, 5.109e-5
-1.087, 5.132e-5
-1.088, 5.160e-5
-1.089, 5.186e-5
-1.090, 5.210e-5
-1.091, 5.236e-5
-1.092, 5.267e-5
-1.093, 5.297e-5
-1.094, 5.325e-5
-1.095, 5.352e-5
-1.096, 5.387e-5
-1.097, 5.417e-5
-1.098, 5.445e-5
-1.099, 5.474e-5
-1.100, 5.503e-5
-1.101, 5.531e-5
-1.102, 5.560e-5
-1.103, 5.598e-5
-1.104, 5.640e-5
-1.105, 5.673e-5
-1.106, 5.696e-5
-1.107, 5.724e-5
-1.108, 5.775e-5
-1.109, 5.803e-5
-1.110, 5.826e-5
-1.111, 5.855e-5
-1.112, 5.890e-5
-1.113, 5.919e-5
-1.114, 5.947e-5
-1.115, 5.986e-5
-1.116, 6.042e-5
-1.117, 6.072e-5
-1.118, 6.096e-5
-1.119, 6.131e-5
-1.120, 6.176e-5
-1.121, 6.224e-5
-1.122, 6.250e-5
-1.123, 6.279e-5
-1.124, 6.314e-5
-1.125, 6.346e-5
-1.126, 6.371e-5
-1.127, 6.402e-5
-1.128, 6.433e-5
-1.129, 6.458e-5
-1.130, 6.484e-5
-1.131, 6.513e-5
-1.132, 6.541e-5
-1.133, 6.565e-5
-1.134, 6.594e-5
-1.135, 6.621e-5
-1.136, 6.652e-5
-1.137, 6.682e-5
-1.138, 6.716e-5
-1.139, 6.750e-5
-1.140, 6.777e-5
-1.141, 6.808e-5
-1.142, 6.844e-5
-1.143, 6.897e-5
-1.144, 6.918e-5
-1.145, 6.943e-5
-1.146, 6.990e-5
-1.147, 7.025e-5
-1.148, 7.059e-5
-1.149, 7.102e-5
-1.150, 7.137e-5
-1.151, 7.171e-5
-1.152, 7.206e-5
-1.153, 7.234e-5
-1.154, 7.275e-5
-1.155, 7.328e-5
-1.156, 7.383e-5
-1.157, 7.435e-5
-1.158, 7.509e-5
-1.159, 7.530e-5
-1.160, 7.548e-5
-1.161, 7.572e-5
-1.162, 7.604e-5
-1.163, 7.644e-5
-1.164, 7.677e-5
-1.165, 7.707e-5
-1.166, 7.729e-5
-1.167, 7.768e-5
-1.168, 7.800e-5
-1.169, 7.840e-5
-1.170, 7.870e-5
-1.171, 7.893e-5
-1.172, 7.938e-5
-1.173, 7.969e-5
-1.174, 8.013e-5
-1.175, 8.062e-5
-1.176, 8.085e-5
-1.177, 8.122e-5
-1.178, 8.165e-5
-1.179, 8.225e-5
-1.180, 8.257e-5
-1.181, 8.278e-5
-1.182, 8.307e-5
-1.183, 8.345e-5
-1.184, 8.377e-5
-1.185, 8.418e-5
-1.186, 8.473e-5
-1.187, 8.510e-5
-1.188, 8.537e-5
-1.189, 8.573e-5
-1.190, 8.603e-5
-1.191, 8.611e-5
-1.192, 8.653e-5
-1.193, 8.685e-5
-1.194, 8.712e-5
-1.195, 8.744e-5
-1.196, 8.791e-5
-1.197, 8.829e-5
-1.198, 8.849e-5
-1.199, 8.867e-5
-1.200, 8.903e-5
-1.201, 8.942e-5
-1.202, 8.969e-5
-1.203, 9.018e-5
-1.204, 9.063e-5
-1.205, 9.092e-5
-1.206, 9.117e-5
-1.207, 9.146e-5
-1.208, 9.172e-5
-1.209, 9.203e-5
-1.210, 9.226e-5
-1.211, 9.256e-5
-1.212, 9.285e-5
-1.213, 9.317e-5
-1.214, 9.346e-5
-1.215, 9.375e-5
-1.216, 9.424e-5
-1.217, 9.461e-5
-1.218, 9.500e-5
-1.219, 9.537e-5
-1.220, 9.581e-5
-1.221, 9.611e-5
-1.222, 9.650e-5
-1.223, 9.693e-5
-1.224, 9.728e-5
-1.225, 9.773e-5
-1.226, 9.813e-5
-1.227, 9.851e-5
-1.228, 9.889e-5
-1.229, 9.928e-5
-1.230, 9.964e-5
-1.231, 9.994e-5
-1.232, 1.004e-4
-1.233, 1.008e-4
-1.234, 1.012e-4
-1.235, 1.015e-4
-1.236, 1.017e-4
-1.237, 1.020e-4
-1.238, 1.027e-4
-1.239, 1.029e-4
-1.240, 1.032e-4
-1.241, 1.035e-4
-1.242, 1.039e-4
-1.243, 1.042e-4
-1.244, 1.045e-4
-1.245, 1.049e-4
-1.246, 1.053e-4
-1.247, 1.058e-4
-1.248, 1.061e-4
-1.249, 1.064e-4
-1.250, 1.067e-4
-1.251, 1.070e-4
-1.252, 1.073e-4
-1.253, 1.076e-4
-1.254, 1.081e-4
-1.255, 1.085e-4
-1.256, 1.091e-4
-1.257, 1.096e-4
-1.258, 1.098e-4
-1.259, 1.101e-4
-1.260, 1.105e-4
-1.261, 1.108e-4
-1.262, 1.110e-4
-1.263, 1.113e-4
-1.264, 1.116e-4
-1.265, 1.120e-4
-1.266, 1.125e-4
-1.267, 1.128e-4
-1.268, 1.130e-4
-1.269, 1.132e-4
-1.270, 1.134e-4
-1.271, 1.138e-4
-1.272, 1.142e-4
-1.273, 1.146e-4
-1.274, 1.149e-4
-1.275, 1.152e-4
-1.276, 1.155e-4
-1.277, 1.158e-4
-1.278, 1.160e-4
-1.279, 1.163e-4
-1.280, 1.167e-4
-1.281, 1.170e-4
-1.282, 1.173e-4
-1.283, 1.176e-4
-1.284, 1.179e-4
-1.285, 1.180e-4
-1.286, 1.183e-4
-1.287, 1.188e-4
-1.288, 1.191e-4
-1.289, 1.193e-4
-1.290, 1.198e-4
-1.291, 1.199e-4
-1.292, 1.202e-4
-1.293, 1.206e-4
-1.294, 1.209e-4
-1.295, 1.213e-4
-1.296, 1.216e-4
-1.297, 1.220e-4
-1.298, 1.224e-4
-1.299, 1.226e-4
-1.300, 1.229e-4
-1.301, 1.233e-4
-1.302, 1.236e-4
-1.303, 1.239e-4
-1.304, 1.243e-4
-1.305, 1.249e-4
-1.306, 1.256e-4
-1.307, 1.258e-4
-1.308, 1.261e-4
-1.309, 1.264e-4
-1.310, 1.268e-4
-1.311, 1.272e-4
-1.312, 1.275e-4
-1.313, 1.278e-4
-1.314, 1.282e-4
-1.315, 1.289e-4
-1.316, 1.294e-4
-1.317, 1.298e-4
-1.318, 1.301e-4
-1.319, 1.303e-4
-1.320, 1.307e-4
-1.321, 1.312e-4
-1.322, 1.317e-4
-1.323, 1.320e-4
-1.324, 1.324e-4
-1.325, 1.328e-4
-1.326, 1.335e-4
-1.327, 1.343e-4
-1.328, 1.346e-4
-1.329, 1.349e-4
-1.330, 1.352e-4
-1.331, 1.356e-4
-1.332, 1.362e-4
-1.333, 1.366e-4
-1.334, 1.371e-4
-1.335, 1.376e-4
-1.336, 1.382e-4
-1.337, 1.388e-4
-1.338, 1.390e-4
-1.339, 1.393e-4
-1.340, 1.397e-4
-1.341, 1.404e-4
-1.342, 1.408e-4
-1.343, 1.413e-4
-1.344, 1.418e-4
-1.345, 1.424e-4
-1.346, 1.428e-4
-1.347, 1.434e-4
-1.348, 1.441e-4
-1.349, 1.448e-4
-1.350, 1.454e-4
-1.351, 1.460e-4
-1.352, 1.467e-4
-1.353, 1.472e-4
-1.354, 1.475e-4
-1.355, 1.482e-4
-1.356, 1.488e-4
-1.357, 1.494e-4
-1.358, 1.502e-4
-1.359, 1.512e-4
-1.360, 1.521e-4
-1.361, 1.529e-4
-1.362, 1.537e-4
-1.363, 1.542e-4
-1.364, 1.553e-4
-1.365, 1.567e-4
-1.366, 1.577e-4
-1.367, 1.583e-4
-1.368, 1.590e-4
-1.369, 1.599e-4
-1.370, 1.606e-4
-1.371, 1.611e-4
-1.372, 1.618e-4
-1.373, 1.627e-4
-1.374, 1.636e-4
-1.375, 1.644e-4
-1.376, 1.652e-4
-1.377, 1.663e-4
-1.378, 1.672e-4
-1.379, 1.683e-4
-1.380, 1.696e-4
-1.381, 1.705e-4
-1.382, 1.712e-4
-1.383, 1.718e-4
-1.384, 1.726e-4
-1.385, 1.736e-4
-1.386, 1.747e-4
-1.387, 1.755e-4
-1.388, 1.765e-4
-1.389, 1.773e-4
-1.390, 1.783e-4
-1.391, 1.792e-4
-1.392, 1.803e-4
-1.393, 1.813e-4
-1.394, 1.823e-4
-1.395, 1.832e-4
-1.396, 1.844e-4
-1.397, 1.855e-4
-1.398, 1.868e-4
-1.399, 1.880e-4
-1.400, 1.892e-4
-1.401, 1.907e-4
-1.402, 1.922e-4
-1.403, 1.935e-4
-1.404, 1.944e-4
-1.405, 1.953e-4
-1.406, 1.968e-4
-1.407, 1.981e-4
-1.408, 1.995e-4
-1.409, 2.008e-4
-1.410, 2.019e-4
-1.411, 2.032e-4
-1.412, 2.045e-4
-1.413, 2.059e-4
-1.414, 2.072e-4
-1.415, 2.086e-4
-1.416, 2.100e-4
-1.417, 2.113e-4
-1.418, 2.126e-4
-1.419, 2.142e-4
-1.420, 2.158e-4
-1.421, 2.171e-4
-1.422, 2.185e-4
-1.423, 2.200e-4
-1.424, 2.217e-4
-1.425, 2.235e-4
-1.426, 2.250e-4
-1.427, 2.265e-4
-1.428, 2.279e-4
-1.429, 2.294e-4
-1.430, 2.310e-4
-1.431, 2.326e-4
-1.432, 2.344e-4
-1.433, 2.362e-4
-1.434, 2.380e-4
-1.435, 2.398e-4
-1.436, 2.419e-4
-1.437, 2.439e-4
-1.438, 2.457e-4
-1.439, 2.475e-4
-1.440, 2.494e-4
-1.441, 2.514e-4
-1.442, 2.535e-4
-1.443, 2.553e-4
-1.444, 2.574e-4
-1.445, 2.597e-4
-1.446, 2.615e-4
-1.447, 2.634e-4
-1.448, 2.654e-4
-1.449, 2.674e-4
-1.450, 2.695e-4
-1.451, 2.715e-4
-1.452, 2.736e-4
-1.453, 2.756e-4
-1.454, 2.776e-4
-1.455, 2.797e-4
-1.456, 2.818e-4
-1.457, 2.840e-4
-1.458, 2.862e-4
-1.459, 2.885e-4
-1.460, 2.908e-4
-1.461, 2.932e-4
-1.462, 2.956e-4
-1.463, 2.978e-4
-1.464, 3.003e-4
-1.465, 3.028e-4
-1.466, 3.053e-4
-1.467, 3.079e-4
-1.468, 3.105e-4
-1.469, 3.130e-4
-1.470, 3.156e-4
-1.471, 3.182e-4
-1.472, 3.208e-4
-1.473, 3.235e-4
-1.474, 3.262e-4
-1.475, 3.289e-4
-1.476, 3.317e-4
-1.477, 3.346e-4
-1.478, 3.373e-4
-1.479, 3.402e-4
-1.480, 3.429e-4
-1.481, 3.457e-4
-1.482, 3.487e-4
-1.483, 3.518e-4
-1.484, 3.548e-4
-1.485, 3.577e-4
-1.486, 3.608e-4
-1.487, 3.641e-4
-1.488, 3.670e-4
-1.489, 3.701e-4
-1.490, 3.732e-4
-1.491, 3.762e-4
-1.492, 3.796e-4
-1.493, 3.832e-4
-1.494, 3.862e-4
-1.495, 3.891e-4
-1.496, 3.922e-4
-1.497, 3.956e-4
-1.498, 3.990e-4
-1.499, 4.024e-4
-1.500, 4.057e-4
-1.501, 4.091e-4
-1.502, 4.125e-4
-1.503, 4.160e-4
-1.504, 4.195e-4
-1.505, 4.232e-4
-1.506, 4.266e-4
-1.507, 4.302e-4
-1.508, 4.339e-4
-1.509, 4.375e-4
-1.510, 4.413e-4
-1.511, 4.451e-4
-1.512, 4.499e-4
-1.513, 4.530e-4
-1.514, 4.565e-4
-1.515, 4.605e-4
-1.516, 4.644e-4
-1.517, 4.684e-4
-1.518, 4.724e-4
-1.519, 4.764e-4
-1.520, 4.803e-4
-1.521, 4.843e-4
-1.522, 4.881e-4
-1.523, 4.923e-4
-1.524, 4.962e-4
-1.525, 5.001e-4
-1.526, 5.046e-4
-1.527, 5.089e-4
-1.528, 5.133e-4
-1.529, 5.177e-4
-1.530, 5.220e-4
-1.531, 5.266e-4
-1.532, 5.311e-4
-1.533, 5.355e-4
-1.534, 5.409e-4
-1.535, 5.465e-4
-1.536, 5.511e-4
-1.537, 5.555e-4
-1.538, 5.602e-4
-1.539, 5.647e-4
-1.540, 5.694e-4
-1.541, 5.746e-4
-1.542, 5.801e-4
-1.543, 5.849e-4
-1.544, 5.904e-4
-1.545, 5.954e-4
-1.546, 6.012e-4
-1.547, 6.074e-4
-1.548, 6.126e-4
-1.549, 6.176e-4
-1.550, 6.231e-4
-1.551, 6.286e-4
-1.552, 6.343e-4
-1.553, 6.395e-4
-1.554, 6.445e-4
-1.555, 6.494e-4
-1.556, 6.545e-4
-1.557, 6.598e-4
-1.558, 6.654e-4
-1.559, 6.710e-4
-1.560, 6.763e-4
-1.561, 6.818e-4
-1.562, 6.874e-4
-1.563, 6.928e-4
-1.564, 6.984e-4
-1.565, 7.048e-4
-1.566, 7.111e-4
-1.567, 7.167e-4
-1.568, 7.224e-4
-1.569, 7.279e-4
-1.570, 7.335e-4
-1.571, 7.394e-4
-1.572, 7.453e-4
-1.573, 7.514e-4
-1.574, 7.584e-4
-1.575, 7.641e-4
-1.576, 7.696e-4
-1.577, 7.756e-4
-1.578, 7.817e-4
-1.579, 7.878e-4
-1.580, 7.941e-4
-1.581, 8.002e-4
-1.582, 8.062e-4
-1.583, 8.122e-4
-1.584, 8.184e-4
-1.585, 8.249e-4
-1.586, 8.313e-4
-1.587, 8.377e-4
-1.588, 8.443e-4
-1.589, 8.508e-4
-1.590, 8.573e-4
-1.591, 8.635e-4
-1.592, 8.703e-4
-1.593, 8.770e-4
-1.594, 8.836e-4
-1.595, 8.900e-4
-1.596, 8.967e-4
-1.597, 9.034e-4
-1.598, 9.106e-4
-1.599, 9.171e-4
-1.600, 9.242e-4
-1.601, 9.311e-4
-1.602, 9.385e-4
-1.603, 9.460e-4
-1.604, 9.533e-4
-1.605, 9.609e-4
-1.606, 9.680e-4
-1.607, 9.754e-4
-1.608, 9.831e-4
-1.609, 9.901e-4
-1.610, 9.980e-4
-1.611, 1.005e-3
-1.612, 1.011e-3
-1.613, 1.011e-3
-1.614, 1.011e-3
-1.615, 1.011e-3
-1.616, 1.011e-3
-1.617, 1.011e-3
-1.618, 1.011e-3
-1.619, 1.011e-3
-1.620, 1.011e-3
-1.621, 1.011e-3
-1.622, 1.011e-3
-1.623, 1.011e-3
-1.624, 1.011e-3
-1.625, 1.011e-3
-1.626, 1.011e-3
-1.627, 1.011e-3
-1.628, 1.011e-3
-1.629, 1.011e-3
-1.630, 1.011e-3
-1.631, 1.011e-3
-1.632, 1.011e-3
-1.633, 1.011e-3
-1.634, 1.011e-3
-1.635, 1.011e-3
-1.636, 1.011e-3
-1.637, 1.011e-3
-1.638, 1.011e-3
-1.639, 1.011e-3
-1.640, 1.011e-3
-1.641, 1.011e-3
-1.642, 1.011e-3
-1.643, 1.011e-3
-1.644, 1.011e-3
-1.645, 1.011e-3
-1.646, 1.011e-3
-1.647, 1.011e-3
-1.648, 1.011e-3
-1.649, 1.011e-3
-1.650, 1.011e-3
-1.651, 1.011e-3
-1.652, 1.011e-3
-1.653, 1.011e-3
-1.654, 1.011e-3
-1.655, 1.011e-3
-1.656, 1.011e-3
-1.657, 1.011e-3
-1.658, 1.011e-3
-1.659, 1.011e-3
-1.660, 1.011e-3
-1.661, 1.011e-3
-1.662, 1.011e-3
-1.663, 1.011e-3
-1.664, 1.011e-3
-1.665, 1.011e-3
-1.666, 1.011e-3
-1.667, 1.011e-3
-1.668, 1.011e-3
-1.669, 1.011e-3
-1.670, 1.011e-3
-1.671, 1.011e-3
-1.672, 1.011e-3
-1.673, 1.011e-3
-1.674, 1.011e-3
-1.675, 1.011e-3
-1.676, 1.011e-3
-1.677, 1.011e-3
-1.678, 1.011e-3
-1.679, 1.011e-3
-1.680, 1.011e-3
-1.681, 1.011e-3
-1.682, 1.011e-3
-1.683, 1.011e-3
-1.684, 1.011e-3
-1.685, 1.011e-3
-1.686, 1.011e-3
-1.687, 1.011e-3
-1.688, 1.011e-3
-1.689, 1.011e-3
-1.690, 1.011e-3
-1.691, 1.011e-3
-1.692, 1.011e-3
-1.693, 1.011e-3
-1.694, 1.011e-3
-1.695, 1.011e-3
-1.696, 1.011e-3
-1.697, 1.011e-3
-1.698, 1.011e-3
-1.699, 1.011e-3
-1.700, 1.011e-3
-1.701, 1.011e-3
-1.702, 1.011e-3
-1.703, 1.011e-3
-1.704, 1.011e-3
-1.705, 1.011e-3
-1.706, 1.011e-3
-1.707, 1.011e-3
-1.708, 1.011e-3
-1.709, 1.011e-3
-1.710, 1.011e-3
-1.711, 1.011e-3
-1.712, 1.011e-3
-1.713, 1.011e-3
-1.714, 1.011e-3
-1.715, 1.011e-3
-1.716, 1.011e-3
-1.717, 1.011e-3
-1.718, 1.011e-3
-1.719, 1.011e-3
-1.720, 1.011e-3
-1.721, 1.011e-3
-1.722, 1.011e-3
-1.723, 1.011e-3
-1.724, 1.011e-3
-1.725, 1.011e-3
-1.726, 1.011e-3
-1.727, 1.011e-3
-1.728, 1.011e-3
-1.729, 1.011e-3
-1.730, 1.011e-3
-1.731, 1.011e-3
-1.732, 1.011e-3
-1.733, 1.011e-3
-1.734, 1.011e-3
-1.735, 1.011e-3
-1.736, 1.011e-3
-1.737, 1.011e-3
-1.738, 1.011e-3
-1.739, 1.011e-3
-1.740, 1.011e-3
-1.741, 1.011e-3
-1.742, 1.011e-3
-1.743, 1.011e-3
-1.744, 1.011e-3
-1.745, 1.011e-3
-1.746, 1.011e-3
-1.747, 1.011e-3
-1.748, 1.011e-3
-1.749, 1.011e-3
-1.750, 1.011e-3
-1.751, 1.011e-3
-1.752, 1.011e-3
-1.753, 1.011e-3
-1.754, 1.011e-3
-1.755, 1.011e-3
-1.756, 1.011e-3
-1.757, 1.011e-3
-1.758, 1.011e-3
-1.759, 1.011e-3
-1.760, 1.011e-3
-1.761, 1.011e-3
-1.762, 1.011e-3
-1.763, 1.011e-3
-1.764, 1.011e-3
-1.765, 1.011e-3
-1.766, 1.011e-3
-1.767, 1.011e-3
-1.768, 1.011e-3
-1.769, 1.011e-3
-1.770, 1.011e-3
-1.771, 1.011e-3
-1.772, 1.011e-3
-1.773, 1.011e-3
-1.774, 1.011e-3
-1.775, 1.011e-3
-1.776, 1.011e-3
-1.777, 1.011e-3
-1.778, 1.011e-3
-1.779, 1.011e-3
-1.780, 1.011e-3
-1.781, 1.011e-3
-1.782, 1.011e-3
-1.783, 1.011e-3
-1.784, 1.011e-3
-1.785, 1.011e-3
-1.786, 1.011e-3
-1.787, 1.011e-3
-1.788, 1.011e-3
-1.789, 1.011e-3
-1.790, 1.011e-3
-1.791, 1.011e-3
-1.792, 1.011e-3
-1.793, 1.011e-3
-1.794, 1.011e-3
-1.795, 1.011e-3
-1.796, 1.011e-3
-1.797, 1.011e-3
-1.798, 1.011e-3
-1.799, 1.011e-3
-1.800, 1.011e-3
-1.801, 1.011e-3
-1.802, 1.011e-3
-1.803, 1.011e-3
-1.804, 1.011e-3
-1.805, 1.011e-3
-1.806, 1.011e-3
-1.807, 1.011e-3
-1.808, 1.011e-3
-1.809, 1.011e-3
-1.810, 1.011e-3
-1.811, 1.011e-3
-1.812, 1.011e-3
-1.813, 1.011e-3
-1.814, 1.011e-3
-1.815, 1.011e-3
-1.816, 1.011e-3
-1.817, 1.011e-3
-1.818, 1.011e-3
-1.819, 1.011e-3
-1.820, 1.011e-3
-1.821, 1.011e-3
-1.822, 1.011e-3
-1.823, 1.011e-3
-1.824, 1.011e-3
-1.825, 1.011e-3
-1.826, 1.011e-3
-1.827, 1.011e-3
-1.828, 1.011e-3
-1.829, 1.011e-3
-1.830, 1.011e-3
-1.831, 1.011e-3
-1.832, 1.011e-3
-1.833, 1.011e-3
-1.834, 1.011e-3
-1.835, 1.011e-3
-1.836, 1.011e-3
-1.837, 1.011e-3
-1.838, 1.011e-3
-1.839, 1.011e-3
-1.840, 1.011e-3
-1.841, 1.011e-3
-1.842, 1.011e-3
-1.843, 1.011e-3
-1.844, 1.011e-3
-1.845, 1.011e-3
-1.846, 1.011e-3
-1.847, 1.011e-3
-1.848, 1.011e-3
-1.849, 1.011e-3
-1.850, 1.011e-3
-1.851, 1.011e-3
-1.852, 1.011e-3
-1.853, 1.011e-3
-1.854, 1.011e-3
-1.855, 1.011e-3
-1.856, 1.011e-3
-1.857, 1.011e-3
-1.858, 1.011e-3
-1.859, 1.011e-3
-1.860, 1.011e-3
-1.861, 1.011e-3
-1.862, 1.011e-3
-1.863, 1.011e-3
-1.864, 1.011e-3
-1.865, 1.011e-3
-1.866, 1.011e-3
-1.867, 1.011e-3
-1.868, 1.011e-3
-1.869, 1.011e-3
-1.870, 1.011e-3
-1.871, 1.011e-3
-1.872, 1.011e-3
-1.873, 1.011e-3
-1.874, 1.011e-3
-1.875, 1.011e-3
-1.876, 1.011e-3
-1.877, 1.011e-3
-1.878, 1.011e-3
-1.879, 1.011e-3
-1.880, 1.011e-3
-1.881, 1.011e-3
-1.882, 1.011e-3
-1.883, 1.011e-3
-1.884, 1.011e-3
-1.885, 1.011e-3
-1.886, 1.011e-3
-1.887, 1.011e-3
-1.888, 1.011e-3
-1.889, 1.011e-3
-1.890, 1.011e-3
-1.891, 1.011e-3
-1.892, 1.011e-3
-1.893, 1.011e-3
-1.894, 1.011e-3
-1.895, 1.011e-3
-1.896, 1.011e-3
-1.897, 1.011e-3
-1.898, 1.011e-3
-1.899, 1.011e-3
-1.900, 1.011e-3
-1.901, 1.011e-3
-1.902, 1.011e-3
-1.903, 1.011e-3
-1.904, 1.011e-3
-1.905, 1.011e-3
-1.906, 1.011e-3
-1.907, 1.011e-3
-1.908, 1.011e-3
-1.909, 1.011e-3
-1.910, 1.011e-3
-1.911, 1.011e-3
-1.912, 1.011e-3
-1.913, 1.011e-3
-1.914, 1.011e-3
-1.915, 1.011e-3
-1.916, 1.011e-3
-1.917, 1.011e-3
-1.918, 1.011e-3
-1.919, 1.011e-3
-1.920, 1.011e-3
-1.921, 1.011e-3
-1.922, 1.011e-3
-1.923, 1.011e-3
-1.924, 1.011e-3
-1.925, 1.011e-3
-1.926, 1.011e-3
-1.927, 1.011e-3
-1.928, 1.011e-3
-1.929, 1.011e-3
-1.930, 1.011e-3
-1.931, 1.011e-3
-1.932, 1.011e-3
-1.933, 1.011e-3
-1.934, 1.011e-3
-1.935, 1.011e-3
-1.936, 1.011e-3
-1.937, 1.011e-3
-1.938, 1.011e-3
-1.939, 1.011e-3
-1.940, 1.011e-3
-1.941, 1.011e-3
-1.942, 1.011e-3
-1.943, 1.011e-3
-1.944, 1.011e-3
-1.945, 1.011e-3
-1.946, 1.011e-3
-1.947, 1.011e-3
-1.948, 1.011e-3
-1.949, 1.011e-3
-1.950, 1.011e-3
-1.951, 1.011e-3
-1.952, 1.011e-3
-1.953, 1.011e-3
-1.954, 1.011e-3
-1.955, 1.011e-3
-1.956, 1.011e-3
-1.957, 1.011e-3
-1.958, 1.011e-3
-1.959, 1.011e-3
-1.960, 1.011e-3
-1.961, 1.011e-3
-1.962, 1.011e-3
-1.963, 1.011e-3
-1.964, 1.011e-3
-1.965, 1.011e-3
-1.966, 1.011e-3
-1.967, 1.011e-3
-1.968, 1.011e-3
-1.969, 1.011e-3
-1.970, 1.011e-3
-1.971, 1.011e-3
-1.972, 1.011e-3
-1.973, 1.011e-3
-1.974, 1.011e-3
-1.975, 1.011e-3
-1.976, 1.011e-3
-1.977, 1.011e-3
-1.978, 1.011e-3
-1.979, 1.011e-3
-1.980, 1.011e-3
-1.981, 1.011e-3
-1.982, 1.011e-3
-1.983, 1.011e-3
-1.984, 1.011e-3
-1.985, 1.011e-3
-1.986, 1.011e-3
-1.987, 1.011e-3
-1.988, 1.011e-3
-1.989, 1.011e-3
-1.990, 1.011e-3
-1.991, 1.011e-3
-1.992, 1.011e-3
-1.993, 1.011e-3
-1.994, 1.011e-3
-1.995, 1.011e-3
-1.996, 1.011e-3
-1.997, 1.011e-3
-1.998, 1.011e-3
-1.999, 1.011e-3
-2.000, 1.011e-3
-2.001, 1.011e-3
-2.002, 1.011e-3
-2.003, 1.011e-3
-2.004, 1.011e-3
-2.005, 1.011e-3
-2.006, 1.011e-3
-2.007, 1.011e-3
-2.008, 1.011e-3
-2.009, 1.011e-3
-2.010, 1.011e-3
-2.011, 1.011e-3
-2.012, 1.011e-3
-2.013, 1.011e-3
-2.014, 1.011e-3
-2.015, 1.011e-3
-2.016, 1.011e-3
-2.017, 1.011e-3
-2.018, 1.011e-3
-2.019, 1.011e-3
-2.020, 1.011e-3
-2.021, 1.011e-3
-2.022, 1.011e-3
-2.023, 1.011e-3
-2.024, 1.011e-3
-2.025, 1.011e-3
-2.026, 1.011e-3
-2.027, 1.011e-3
-2.028, 1.011e-3
-2.029, 1.011e-3
-2.030, 1.011e-3
-2.031, 1.011e-3
-2.032, 1.011e-3
-2.033, 1.011e-3
-2.034, 1.011e-3
-2.035, 1.011e-3
-2.036, 1.011e-3
-2.037, 1.011e-3
-2.038, 1.011e-3
-2.039, 1.011e-3
-2.040, 1.011e-3
-2.041, 1.011e-3
-2.042, 1.011e-3
-2.043, 1.011e-3
-2.044, 1.011e-3
-2.045, 1.011e-3
-2.046, 1.011e-3
-2.047, 1.011e-3
-2.048, 1.011e-3
-2.049, 1.011e-3
-2.050, 1.011e-3
-2.051, 1.011e-3
-2.052, 1.011e-3
-2.053, 1.011e-3
-2.054, 1.011e-3
-2.055, 1.011e-3
-2.056, 1.011e-3
-2.057, 1.011e-3
-2.058, 1.011e-3
-2.059, 1.011e-3
-2.060, 1.011e-3
-2.061, 1.011e-3
-2.062, 1.011e-3
-2.063, 1.011e-3
-2.064, 1.011e-3
-2.065, 1.011e-3
-2.066, 1.011e-3
-2.067, 1.011e-3
-2.068, 1.011e-3
-2.069, 1.011e-3
-2.070, 1.011e-3
-2.071, 1.011e-3
-2.072, 1.011e-3
-2.073, 1.011e-3
-2.074, 1.011e-3
-2.075, 1.011e-3
-2.076, 1.011e-3
-2.077, 1.011e-3
-2.078, 1.011e-3
-2.079, 1.011e-3
-2.080, 1.011e-3
-2.081, 1.011e-3
-2.082, 1.011e-3
-2.083, 1.011e-3
-2.084, 1.011e-3
-2.085, 1.011e-3
-2.086, 1.011e-3
-2.087, 1.011e-3
-2.088, 1.011e-3
-2.089, 1.011e-3
-2.090, 1.011e-3
-2.091, 1.011e-3
-2.092, 1.011e-3
-2.093, 1.011e-3
-2.094, 1.011e-3
-2.095, 1.011e-3
-2.096, 1.011e-3
-2.097, 1.011e-3
-2.098, 1.011e-3
-2.099, 1.011e-3
