Sept. 20, 2024   17:26:28
Cyclic Voltammetry
File: c:/users/guazh/data/20240903_batch_400_500/2024-09-20-exp401\exp401-2024-09-20t17_06_34-h2koh\exp401_cv_sr_500mvs_efin_-1700mv.bin
Data Source:  Experiment
Instrument Model:  CHI760E
Header: CV ran at 500 mVs
Note: 

Init E (V) = -1
High E (V) = -1
Low E (V) = -1.7
Final E (V) = -1
Init P/N = N
Scan Rate (V/s) = 0.5
Segment = 3
Sample Interval (V) = 0.001
Quiet Time (sec) = 2
Sensitivity (A/V) = 0.01
Comp R (ohm) = 2.3

Results:

Channel 1:
Segment 1:

Segment 2:

Segment 3:

Potential/V, Current/A

-1.000, 1.249e-5
-1.001, 2.174e-5
-1.002, 2.482e-5
-1.003, 2.790e-5
-1.004, 3.099e-5
-1.005, 3.099e-5
-1.006, 3.099e-5
-1.007, 3.407e-5
-1.008, 3.407e-5
-1.009, 3.407e-5
-1.010, 3.407e-5
-1.011, 3.407e-5
-1.012, 3.407e-5
-1.013, 3.715e-5
-1.014, 3.407e-5
-1.015, 3.715e-5
-1.016, 3.715e-5
-1.017, 3.715e-5
-1.018, 3.715e-5
-1.019, 3.715e-5
-1.020, 3.715e-5
-1.021, 3.715e-5
-1.022, 3.715e-5
-1.023, 3.715e-5
-1.024, 3.715e-5
-1.025, 3.715e-5
-1.026, 4.024e-5
-1.027, 3.715e-5
-1.028, 4.024e-5
-1.029, 3.715e-5
-1.030, 4.024e-5
-1.031, 4.024e-5
-1.032, 3.715e-5
-1.033, 4.024e-5
-1.034, 4.024e-5
-1.035, 4.024e-5
-1.036, 4.024e-5
-1.037, 4.024e-5
-1.038, 4.024e-5
-1.039, 4.024e-5
-1.040, 4.024e-5
-1.041, 4.024e-5
-1.042, 4.024e-5
-1.043, 4.024e-5
-1.044, 4.024e-5
-1.045, 4.024e-5
-1.046, 4.024e-5
-1.047, 4.024e-5
-1.048, 4.024e-5
-1.049, 4.024e-5
-1.050, 4.024e-5
-1.051, 4.024e-5
-1.052, 4.024e-5
-1.053, 4.024e-5
-1.054, 4.024e-5
-1.055, 4.024e-5
-1.056, 4.024e-5
-1.057, 4.024e-5
-1.058, 4.024e-5
-1.059, 4.024e-5
-1.060, 4.024e-5
-1.061, 4.024e-5
-1.062, 4.024e-5
-1.063, 4.332e-5
-1.064, 4.332e-5
-1.065, 4.332e-5
-1.066, 4.332e-5
-1.067, 4.024e-5
-1.068, 4.024e-5
-1.069, 4.024e-5
-1.070, 4.332e-5
-1.071, 4.332e-5
-1.072, 4.332e-5
-1.073, 4.332e-5
-1.074, 4.332e-5
-1.075, 4.332e-5
-1.076, 4.332e-5
-1.077, 4.332e-5
-1.078, 4.332e-5
-1.079, 4.332e-5
-1.080, 4.332e-5
-1.081, 4.332e-5
-1.082, 4.332e-5
-1.083, 4.332e-5
-1.084, 4.332e-5
-1.085, 4.332e-5
-1.086, 4.332e-5
-1.087, 4.332e-5
-1.088, 4.332e-5
-1.089, 4.332e-5
-1.090, 4.332e-5
-1.091, 4.332e-5
-1.092, 4.332e-5
-1.093, 4.332e-5
-1.094, 4.332e-5
-1.095, 4.332e-5
-1.096, 4.332e-5
-1.097, 4.332e-5
-1.098, 4.332e-5
-1.099, 4.332e-5
-1.100, 4.332e-5
-1.101, 4.332e-5
-1.102, 4.332e-5
-1.103, 4.332e-5
-1.104, 4.332e-5
-1.105, 4.332e-5
-1.106, 4.332e-5
-1.107, 4.332e-5
-1.108, 4.332e-5
-1.109, 4.332e-5
-1.110, 4.332e-5
-1.111, 4.332e-5
-1.112, 4.332e-5
-1.113, 4.640e-5
-1.114, 4.640e-5
-1.115, 4.332e-5
-1.116, 4.332e-5
-1.117, 4.332e-5
-1.118, 4.640e-5
-1.119, 4.332e-5
-1.120, 4.332e-5
-1.121, 4.640e-5
-1.122, 4.640e-5
-1.123, 4.640e-5
-1.124, 4.640e-5
-1.125, 4.640e-5
-1.126, 4.640e-5
-1.127, 4.640e-5
-1.128, 4.640e-5
-1.129, 4.640e-5
-1.130, 4.640e-5
-1.131, 4.640e-5
-1.132, 4.640e-5
-1.133, 4.640e-5
-1.134, 4.640e-5
-1.135, 4.640e-5
-1.136, 4.640e-5
-1.137, 4.640e-5
-1.138, 4.640e-5
-1.139, 4.640e-5
-1.140, 4.640e-5
-1.141, 4.640e-5
-1.142, 4.640e-5
-1.143, 4.640e-5
-1.144, 4.640e-5
-1.145, 4.640e-5
-1.146, 4.640e-5
-1.147, 4.640e-5
-1.148, 4.640e-5
-1.149, 4.640e-5
-1.150, 4.640e-5
-1.151, 4.949e-5
-1.152, 4.640e-5
-1.153, 4.949e-5
-1.154, 4.640e-5
-1.155, 4.949e-5
-1.156, 4.949e-5
-1.157, 4.949e-5
-1.158, 4.949e-5
-1.159, 4.949e-5
-1.160, 4.949e-5
-1.161, 4.949e-5
-1.162, 4.949e-5
-1.163, 4.949e-5
-1.164, 4.949e-5
-1.165, 4.949e-5
-1.166, 4.949e-5
-1.167, 4.949e-5
-1.168, 4.949e-5
-1.169, 4.949e-5
-1.170, 4.949e-5
-1.171, 4.949e-5
-1.172, 4.949e-5
-1.173, 4.949e-5
-1.174, 4.949e-5
-1.175, 4.949e-5
-1.176, 4.949e-5
-1.177, 4.949e-5
-1.178, 5.257e-5
-1.179, 4.949e-5
-1.180, 5.257e-5
-1.181, 4.949e-5
-1.182, 4.949e-5
-1.183, 5.257e-5
-1.184, 4.949e-5
-1.185, 5.257e-5
-1.186, 5.257e-5
-1.187, 5.257e-5
-1.188, 5.257e-5
-1.189, 5.257e-5
-1.190, 5.257e-5
-1.191, 5.257e-5
-1.192, 5.257e-5
-1.193, 5.257e-5
-1.194, 5.257e-5
-1.195, 5.257e-5
-1.196, 5.257e-5
-1.197, 5.257e-5
-1.198, 5.257e-5
-1.199, 5.565e-5
-1.200, 5.257e-5
-1.201, 5.565e-5
-1.202, 5.565e-5
-1.203, 5.565e-5
-1.204, 5.565e-5
-1.205, 5.565e-5
-1.206, 5.565e-5
-1.207, 5.565e-5
-1.208, 5.565e-5
-1.209, 5.565e-5
-1.210, 5.565e-5
-1.211, 5.565e-5
-1.212, 5.565e-5
-1.213, 5.873e-5
-1.214, 5.565e-5
-1.215, 5.565e-5
-1.216, 5.565e-5
-1.217, 5.873e-5
-1.218, 5.873e-5
-1.219, 5.873e-5
-1.220, 5.873e-5
-1.221, 5.873e-5
-1.222, 5.873e-5
-1.223, 5.873e-5
-1.224, 5.873e-5
-1.225, 5.873e-5
-1.226, 5.873e-5
-1.227, 5.873e-5
-1.228, 6.182e-5
-1.229, 5.873e-5
-1.230, 6.182e-5
-1.231, 6.182e-5
-1.232, 6.182e-5
-1.233, 6.182e-5
-1.234, 6.182e-5
-1.235, 6.182e-5
-1.236, 6.490e-5
-1.237, 6.182e-5
-1.238, 6.490e-5
-1.239, 6.490e-5
-1.240, 6.490e-5
-1.241, 6.490e-5
-1.242, 6.490e-5
-1.243, 6.490e-5
-1.244, 6.490e-5
-1.245, 6.798e-5
-1.246, 6.798e-5
-1.247, 6.798e-5
-1.248, 6.798e-5
-1.249, 6.798e-5
-1.250, 6.798e-5
-1.251, 6.798e-5
-1.252, 6.798e-5
-1.253, 6.798e-5
-1.254, 6.798e-5
-1.255, 7.107e-5
-1.256, 7.107e-5
-1.257, 7.107e-5
-1.258, 7.107e-5
-1.259, 7.107e-5
-1.260, 7.415e-5
-1.261, 7.415e-5
-1.262, 7.415e-5
-1.263, 7.415e-5
-1.264, 7.415e-5
-1.265, 7.415e-5
-1.266, 7.415e-5
-1.267, 7.723e-5
-1.268, 7.723e-5
-1.269, 7.723e-5
-1.270, 7.723e-5
-1.271, 7.723e-5
-1.272, 7.723e-5
-1.273, 8.032e-5
-1.274, 8.032e-5
-1.275, 8.032e-5
-1.276, 8.032e-5
-1.277, 8.340e-5
-1.278, 8.340e-5
-1.279, 8.340e-5
-1.280, 8.340e-5
-1.281, 8.648e-5
-1.282, 8.648e-5
-1.283, 8.648e-5
-1.284, 8.648e-5
-1.285, 8.648e-5
-1.286, 8.648e-5
-1.287, 8.957e-5
-1.288, 8.957e-5
-1.289, 8.957e-5
-1.290, 9.265e-5
-1.291, 9.265e-5
-1.292, 9.265e-5
-1.293, 9.573e-5
-1.294, 9.573e-5
-1.295, 9.573e-5
-1.296, 9.573e-5
-1.297, 9.882e-5
-1.298, 9.882e-5
-1.299, 9.882e-5
-1.300, 9.882e-5
-1.301, 1.019e-4
-1.302, 1.019e-4
-1.303, 1.050e-4
-1.304, 1.019e-4
-1.305, 1.050e-4
-1.306, 1.081e-4
-1.307, 1.081e-4
-1.308, 1.081e-4
-1.309, 1.081e-4
-1.310, 1.111e-4
-1.311, 1.111e-4
-1.312, 1.142e-4
-1.313, 1.142e-4
-1.314, 1.142e-4
-1.315, 1.173e-4
-1.316, 1.173e-4
-1.317, 1.204e-4
-1.318, 1.204e-4
-1.319, 1.204e-4
-1.320, 1.235e-4
-1.321, 1.235e-4
-1.322, 1.235e-4
-1.323, 1.266e-4
-1.324, 1.296e-4
-1.325, 1.296e-4
-1.326, 1.296e-4
-1.327, 1.327e-4
-1.328, 1.327e-4
-1.329, 1.358e-4
-1.330, 1.389e-4
-1.331, 1.389e-4
-1.332, 1.420e-4
-1.333, 1.420e-4
-1.334, 1.420e-4
-1.335, 1.451e-4
-1.336, 1.451e-4
-1.337, 1.481e-4
-1.338, 1.512e-4
-1.339, 1.512e-4
-1.340, 1.543e-4
-1.341, 1.543e-4
-1.342, 1.574e-4
-1.343, 1.605e-4
-1.344, 1.605e-4
-1.345, 1.636e-4
-1.346, 1.636e-4
-1.347, 1.666e-4
-1.348, 1.697e-4
-1.349, 1.697e-4
-1.350, 1.728e-4
-1.351, 1.759e-4
-1.352, 1.759e-4
-1.353, 1.790e-4
-1.354, 1.821e-4
-1.355, 1.851e-4
-1.356, 1.851e-4
-1.357, 1.851e-4
-1.358, 1.882e-4
-1.359, 1.913e-4
-1.360, 1.944e-4
-1.361, 1.975e-4
-1.362, 2.006e-4
-1.363, 2.006e-4
-1.364, 2.036e-4
-1.365, 2.067e-4
-1.366, 2.067e-4
-1.367, 2.098e-4
-1.368, 2.129e-4
-1.369, 2.160e-4
-1.370, 2.191e-4
-1.371, 2.191e-4
-1.372, 2.252e-4
-1.373, 2.252e-4
-1.374, 2.283e-4
-1.375, 2.314e-4
-1.376, 2.345e-4
-1.377, 2.376e-4
-1.378, 2.406e-4
-1.379, 2.406e-4
-1.380, 2.437e-4
-1.381, 2.468e-4
-1.382, 2.499e-4
-1.383, 2.530e-4
-1.384, 2.561e-4
-1.385, 2.591e-4
-1.386, 2.622e-4
-1.387, 2.653e-4
-1.388, 2.684e-4
-1.389, 2.715e-4
-1.390, 2.746e-4
-1.391, 2.776e-4
-1.392, 2.807e-4
-1.393, 2.838e-4
-1.394, 2.869e-4
-1.395, 2.900e-4
-1.396, 2.961e-4
-1.397, 2.961e-4
-1.398, 2.992e-4
-1.399, 3.054e-4
-1.400, 3.085e-4
-1.401, 3.115e-4
-1.402, 3.146e-4
-1.403, 3.177e-4
-1.404, 3.208e-4
-1.405, 3.270e-4
-1.406, 3.270e-4
-1.407, 3.300e-4
-1.408, 3.362e-4
-1.409, 3.393e-4
-1.410, 3.424e-4
-1.411, 3.455e-4
-1.412, 3.516e-4
-1.413, 3.547e-4
-1.414, 3.578e-4
-1.415, 3.609e-4
-1.416, 3.640e-4
-1.417, 3.701e-4
-1.418, 3.732e-4
-1.419, 3.763e-4
-1.420, 3.794e-4
-1.421, 3.855e-4
-1.422, 3.886e-4
-1.423, 3.917e-4
-1.424, 3.948e-4
-1.425, 4.010e-4
-1.426, 4.040e-4
-1.427, 4.071e-4
-1.428, 4.102e-4
-1.429, 4.164e-4
-1.430, 4.225e-4
-1.431, 4.256e-4
-1.432, 4.287e-4
-1.433, 4.318e-4
-1.434, 4.380e-4
-1.435, 4.410e-4
-1.436, 4.472e-4
-1.437, 4.503e-4
-1.438, 4.534e-4
-1.439, 4.595e-4
-1.440, 4.626e-4
-1.441, 4.688e-4
-1.442, 4.719e-4
-1.443, 4.780e-4
-1.444, 4.811e-4
-1.445, 4.873e-4
-1.446, 4.904e-4
-1.447, 4.965e-4
-1.448, 4.996e-4
-1.449, 5.058e-4
-1.450, 5.089e-4
-1.451, 5.150e-4
-1.452, 5.181e-4
-1.453, 5.243e-4
-1.454, 5.305e-4
-1.455, 5.335e-4
-1.456, 5.397e-4
-1.457, 5.459e-4
-1.458, 5.489e-4
-1.459, 5.551e-4
-1.460, 5.613e-4
-1.461, 5.644e-4
-1.462, 5.705e-4
-1.463, 5.767e-4
-1.464, 5.798e-4
-1.465, 5.859e-4
-1.466, 5.921e-4
-1.467, 5.983e-4
-1.468, 6.014e-4
-1.469, 6.075e-4
-1.470, 6.137e-4
-1.471, 6.199e-4
-1.472, 6.260e-4
-1.473, 6.291e-4
-1.474, 6.353e-4
-1.475, 6.414e-4
-1.476, 6.476e-4
-1.477, 6.507e-4
-1.478, 6.569e-4
-1.479, 6.630e-4
-1.480, 6.692e-4
-1.481, 6.754e-4
-1.482, 6.815e-4
-1.483, 6.877e-4
-1.484, 6.939e-4
-1.485, 7.000e-4
-1.486, 7.062e-4
-1.487, 7.124e-4
-1.488, 7.185e-4
-1.489, 7.278e-4
-1.490, 7.309e-4
-1.491, 7.401e-4
-1.492, 7.463e-4
-1.493, 7.524e-4
-1.494, 7.586e-4
-1.495, 7.648e-4
-1.496, 7.709e-4
-1.497, 7.802e-4
-1.498, 7.863e-4
-1.499, 7.925e-4
-1.500, 7.987e-4
-1.501, 8.079e-4
-1.502, 8.141e-4
-1.503, 8.233e-4
-1.504, 8.295e-4
-1.505, 8.388e-4
-1.506, 8.449e-4
-1.507, 8.511e-4
-1.508, 8.573e-4
-1.509, 8.665e-4
-1.510, 8.758e-4
-1.511, 8.819e-4
-1.512, 8.881e-4
-1.513, 8.973e-4
-1.514, 9.035e-4
-1.515, 9.128e-4
-1.516, 9.220e-4
-1.517, 9.313e-4
-1.518, 9.374e-4
-1.519, 9.467e-4
-1.520, 9.559e-4
-1.521, 9.652e-4
-1.522, 9.744e-4
-1.523, 9.837e-4
-1.524, 9.898e-4
-1.525, 9.991e-4
-1.526, 1.008e-3
-1.527, 1.018e-3
-1.528, 1.027e-3
-1.529, 1.039e-3
-1.530, 1.048e-3
-1.531, 1.058e-3
-1.532, 1.067e-3
-1.533, 1.076e-3
-1.534, 1.085e-3
-1.535, 1.095e-3
-1.536, 1.104e-3
-1.537, 1.113e-3
-1.538, 1.125e-3
-1.539, 1.135e-3
-1.540, 1.144e-3
-1.541, 1.153e-3
-1.542, 1.166e-3
-1.543, 1.175e-3
-1.544, 1.184e-3
-1.545, 1.196e-3
-1.546, 1.206e-3
-1.547, 1.218e-3
-1.548, 1.227e-3
-1.549, 1.240e-3
-1.550, 1.249e-3
-1.551, 1.261e-3
-1.552, 1.273e-3
-1.553, 1.286e-3
-1.554, 1.298e-3
-1.555, 1.310e-3
-1.556, 1.323e-3
-1.557, 1.335e-3
-1.558, 1.347e-3
-1.559, 1.360e-3
-1.560, 1.372e-3
-1.561, 1.384e-3
-1.562, 1.397e-3
-1.563, 1.409e-3
-1.564, 1.425e-3
-1.565, 1.437e-3
-1.566, 1.449e-3
-1.567, 1.462e-3
-1.568, 1.474e-3
-1.569, 1.489e-3
-1.570, 1.505e-3
-1.571, 1.520e-3
-1.572, 1.532e-3
-1.573, 1.548e-3
-1.574, 1.560e-3
-1.575, 1.576e-3
-1.576, 1.588e-3
-1.577, 1.603e-3
-1.578, 1.616e-3
-1.579, 1.631e-3
-1.580, 1.647e-3
-1.581, 1.659e-3
-1.582, 1.674e-3
-1.583, 1.690e-3
-1.584, 1.705e-3
-1.585, 1.721e-3
-1.586, 1.739e-3
-1.587, 1.754e-3
-1.588, 1.770e-3
-1.589, 1.788e-3
-1.590, 1.804e-3
-1.591, 1.819e-3
-1.592, 1.835e-3
-1.593, 1.853e-3
-1.594, 1.869e-3
-1.595, 1.887e-3
-1.596, 1.906e-3
-1.597, 1.924e-3
-1.598, 1.943e-3
-1.599, 1.961e-3
-1.600, 1.976e-3
-1.601, 1.995e-3
-1.602, 2.013e-3
-1.603, 2.035e-3
-1.604, 2.054e-3
-1.605, 2.072e-3
-1.606, 2.091e-3
-1.607, 2.112e-3
-1.608, 2.131e-3
-1.609, 2.152e-3
-1.610, 2.171e-3
-1.611, 2.189e-3
-1.612, 2.211e-3
-1.613, 2.229e-3
-1.614, 2.251e-3
-1.615, 2.269e-3
-1.616, 2.291e-3
-1.617, 2.312e-3
-1.618, 2.331e-3
-1.619, 2.353e-3
-1.620, 2.374e-3
-1.621, 2.399e-3
-1.622, 2.420e-3
-1.623, 2.442e-3
-1.624, 2.467e-3
-1.625, 2.488e-3
-1.626, 2.513e-3
-1.627, 2.534e-3
-1.628, 2.559e-3
-1.629, 2.584e-3
-1.630, 2.608e-3
-1.631, 2.630e-3
-1.632, 2.655e-3
-1.633, 2.679e-3
-1.634, 2.704e-3
-1.635, 2.729e-3
-1.636, 2.753e-3
-1.637, 2.778e-3
-1.638, 2.806e-3
-1.639, 2.834e-3
-1.640, 2.858e-3
-1.641, 2.886e-3
-1.642, 2.911e-3
-1.643, 2.938e-3
-1.644, 2.966e-3
-1.645, 2.991e-3
-1.646, 3.019e-3
-1.647, 3.043e-3
-1.648, 3.071e-3
-1.649, 3.096e-3
-1.650, 3.126e-3
-1.651, 3.154e-3
-1.652, 3.185e-3
-1.653, 3.213e-3
-1.654, 3.241e-3
-1.655, 3.271e-3
-1.656, 3.302e-3
-1.657, 3.333e-3
-1.658, 3.361e-3
-1.659, 3.392e-3
-1.660, 3.419e-3
-1.661, 3.450e-3
-1.662, 3.484e-3
-1.663, 3.515e-3
-1.664, 3.549e-3
-1.665, 3.580e-3
-1.666, 3.610e-3
-1.667, 3.641e-3
-1.668, 3.672e-3
-1.669, 3.706e-3
-1.670, 3.737e-3
-1.671, 3.771e-3
-1.672, 3.802e-3
-1.673, 3.832e-3
-1.674, 3.863e-3
-1.675, 3.897e-3
-1.676, 3.931e-3
-1.677, 3.962e-3
-1.678, 3.996e-3
-1.679, 4.030e-3
-1.680, 4.064e-3
-1.681, 4.098e-3
-1.682, 4.135e-3
-1.683, 4.169e-3
-1.684, 4.202e-3
-1.685, 4.233e-3
-1.686, 4.270e-3
-1.687, 4.307e-3
-1.688, 4.341e-3
-1.689, 4.378e-3
-1.690, 4.412e-3
-1.691, 4.449e-3
-1.692, 4.486e-3
-1.693, 4.523e-3
-1.694, 4.563e-3
-1.695, 4.600e-3
-1.696, 4.640e-3
-1.697, 4.677e-3
-1.698, 4.714e-3
-1.699, 4.754e-3
-1.700, 4.760e-3
-1.699, 4.727e-3
-1.698, 4.690e-3
-1.697, 4.656e-3
-1.696, 4.625e-3
-1.695, 4.591e-3
-1.694, 4.554e-3
-1.693, 4.514e-3
-1.692, 4.477e-3
-1.691, 4.440e-3
-1.690, 4.403e-3
-1.689, 4.366e-3
-1.688, 4.326e-3
-1.687, 4.295e-3
-1.686, 4.261e-3
-1.685, 4.227e-3
-1.684, 4.190e-3
-1.683, 4.150e-3
-1.682, 4.113e-3
-1.681, 4.079e-3
-1.680, 4.042e-3
-1.679, 4.005e-3
-1.678, 3.968e-3
-1.677, 3.934e-3
-1.676, 3.900e-3
-1.675, 3.863e-3
-1.674, 3.829e-3
-1.673, 3.795e-3
-1.672, 3.758e-3
-1.671, 3.725e-3
-1.670, 3.691e-3
-1.669, 3.657e-3
-1.668, 3.623e-3
-1.667, 3.589e-3
-1.666, 3.561e-3
-1.665, 3.527e-3
-1.664, 3.493e-3
-1.663, 3.462e-3
-1.662, 3.429e-3
-1.661, 3.398e-3
-1.660, 3.364e-3
-1.659, 3.330e-3
-1.658, 3.299e-3
-1.657, 3.268e-3
-1.656, 3.234e-3
-1.655, 3.207e-3
-1.654, 3.185e-3
-1.653, 3.167e-3
-1.652, 3.142e-3
-1.651, 3.114e-3
-1.650, 3.077e-3
-1.649, 3.037e-3
-1.648, 2.994e-3
-1.647, 2.954e-3
-1.646, 2.917e-3
-1.645, 2.880e-3
-1.644, 2.846e-3
-1.643, 2.818e-3
-1.642, 2.800e-3
-1.641, 2.781e-3
-1.640, 2.756e-3
-1.639, 2.732e-3
-1.638, 2.707e-3
-1.637, 2.679e-3
-1.636, 2.649e-3
-1.635, 2.615e-3
-1.634, 2.584e-3
-1.633, 2.553e-3
-1.632, 2.522e-3
-1.631, 2.491e-3
-1.630, 2.467e-3
-1.629, 2.445e-3
-1.628, 2.427e-3
-1.627, 2.405e-3
-1.626, 2.377e-3
-1.625, 2.353e-3
-1.624, 2.328e-3
-1.623, 2.300e-3
-1.622, 2.275e-3
-1.621, 2.248e-3
-1.620, 2.220e-3
-1.619, 2.195e-3
-1.618, 2.171e-3
-1.617, 2.146e-3
-1.616, 2.128e-3
-1.615, 2.106e-3
-1.614, 2.084e-3
-1.613, 2.063e-3
-1.612, 2.041e-3
-1.611, 2.020e-3
-1.610, 1.995e-3
-1.609, 1.970e-3
-1.608, 1.949e-3
-1.607, 1.924e-3
-1.606, 1.906e-3
-1.605, 1.884e-3
-1.604, 1.862e-3
-1.603, 1.841e-3
-1.602, 1.822e-3
-1.601, 1.801e-3
-1.600, 1.779e-3
-1.599, 1.761e-3
-1.598, 1.739e-3
-1.597, 1.717e-3
-1.596, 1.696e-3
-1.595, 1.677e-3
-1.594, 1.656e-3
-1.593, 1.634e-3
-1.592, 1.616e-3
-1.591, 1.597e-3
-1.590, 1.576e-3
-1.589, 1.560e-3
-1.588, 1.542e-3
-1.587, 1.523e-3
-1.586, 1.505e-3
-1.585, 1.486e-3
-1.584, 1.468e-3
-1.583, 1.449e-3
-1.582, 1.434e-3
-1.581, 1.412e-3
-1.580, 1.397e-3
-1.579, 1.381e-3
-1.578, 1.363e-3
-1.577, 1.344e-3
-1.576, 1.326e-3
-1.575, 1.310e-3
-1.574, 1.295e-3
-1.573, 1.277e-3
-1.572, 1.261e-3
-1.571, 1.246e-3
-1.570, 1.230e-3
-1.569, 1.215e-3
-1.568, 1.199e-3
-1.567, 1.184e-3
-1.566, 1.169e-3
-1.565, 1.153e-3
-1.564, 1.138e-3
-1.563, 1.122e-3
-1.562, 1.107e-3
-1.561, 1.095e-3
-1.560, 1.079e-3
-1.559, 1.064e-3
-1.558, 1.048e-3
-1.557, 1.036e-3
-1.556, 1.024e-3
-1.555, 1.011e-3
-1.554, 9.991e-4
-1.553, 9.837e-4
-1.552, 9.713e-4
-1.551, 9.590e-4
-1.550, 9.436e-4
-1.549, 9.313e-4
-1.548, 9.189e-4
-1.547, 9.066e-4
-1.546, 8.943e-4
-1.545, 8.819e-4
-1.544, 8.696e-4
-1.543, 8.603e-4
-1.542, 8.480e-4
-1.541, 8.357e-4
-1.540, 8.233e-4
-1.539, 8.141e-4
-1.538, 8.018e-4
-1.537, 7.925e-4
-1.536, 7.802e-4
-1.535, 7.679e-4
-1.534, 7.586e-4
-1.533, 7.463e-4
-1.532, 7.370e-4
-1.531, 7.278e-4
-1.530, 7.154e-4
-1.529, 7.062e-4
-1.528, 6.969e-4
-1.527, 6.877e-4
-1.526, 6.784e-4
-1.525, 6.692e-4
-1.524, 6.569e-4
-1.523, 6.476e-4
-1.522, 6.384e-4
-1.521, 6.322e-4
-1.520, 6.229e-4
-1.519, 6.137e-4
-1.518, 6.044e-4
-1.517, 5.952e-4
-1.516, 5.890e-4
-1.515, 5.798e-4
-1.514, 5.705e-4
-1.513, 5.644e-4
-1.512, 5.551e-4
-1.511, 5.459e-4
-1.510, 5.397e-4
-1.509, 5.305e-4
-1.508, 5.243e-4
-1.507, 5.150e-4
-1.506, 5.089e-4
-1.505, 5.027e-4
-1.504, 4.965e-4
-1.503, 4.873e-4
-1.502, 4.780e-4
-1.501, 4.719e-4
-1.500, 4.657e-4
-1.499, 4.595e-4
-1.498, 4.534e-4
-1.497, 4.441e-4
-1.496, 4.380e-4
-1.495, 4.318e-4
-1.494, 4.256e-4
-1.493, 4.195e-4
-1.492, 4.133e-4
-1.491, 4.071e-4
-1.490, 4.010e-4
-1.489, 3.948e-4
-1.488, 3.886e-4
-1.487, 3.855e-4
-1.486, 3.794e-4
-1.485, 3.732e-4
-1.484, 3.670e-4
-1.483, 3.609e-4
-1.482, 3.547e-4
-1.481, 3.516e-4
-1.480, 3.455e-4
-1.479, 3.393e-4
-1.478, 3.362e-4
-1.477, 3.300e-4
-1.476, 3.239e-4
-1.475, 3.208e-4
-1.474, 3.146e-4
-1.473, 3.115e-4
-1.472, 3.054e-4
-1.471, 2.992e-4
-1.470, 2.961e-4
-1.469, 2.931e-4
-1.468, 2.869e-4
-1.467, 2.838e-4
-1.466, 2.776e-4
-1.465, 2.746e-4
-1.464, 2.715e-4
-1.463, 2.653e-4
-1.462, 2.622e-4
-1.461, 2.561e-4
-1.460, 2.530e-4
-1.459, 2.499e-4
-1.458, 2.437e-4
-1.457, 2.406e-4
-1.456, 2.376e-4
-1.455, 2.345e-4
-1.454, 2.314e-4
-1.453, 2.283e-4
-1.452, 2.252e-4
-1.451, 2.191e-4
-1.450, 2.160e-4
-1.449, 2.129e-4
-1.448, 2.098e-4
-1.447, 2.067e-4
-1.446, 2.036e-4
-1.445, 2.006e-4
-1.444, 1.975e-4
-1.443, 1.944e-4
-1.442, 1.913e-4
-1.441, 1.882e-4
-1.440, 1.851e-4
-1.439, 1.821e-4
-1.438, 1.790e-4
-1.437, 1.759e-4
-1.436, 1.728e-4
-1.435, 1.697e-4
-1.434, 1.666e-4
-1.433, 1.636e-4
-1.432, 1.605e-4
-1.431, 1.574e-4
-1.430, 1.543e-4
-1.429, 1.543e-4
-1.428, 1.481e-4
-1.427, 1.481e-4
-1.426, 1.451e-4
-1.425, 1.420e-4
-1.424, 1.420e-4
-1.423, 1.389e-4
-1.422, 1.358e-4
-1.421, 1.327e-4
-1.420, 1.327e-4
-1.419, 1.266e-4
-1.418, 1.266e-4
-1.417, 1.235e-4
-1.416, 1.235e-4
-1.415, 1.204e-4
-1.414, 1.173e-4
-1.413, 1.142e-4
-1.412, 1.142e-4
-1.411, 1.111e-4
-1.410, 1.081e-4
-1.409, 1.050e-4
-1.408, 1.050e-4
-1.407, 1.019e-4
-1.406, 1.019e-4
-1.405, 9.882e-5
-1.404, 9.573e-5
-1.403, 9.573e-5
-1.402, 9.265e-5
-1.401, 8.957e-5
-1.400, 8.957e-5
-1.399, 8.648e-5
-1.398, 8.648e-5
-1.397, 8.340e-5
-1.396, 8.032e-5
-1.395, 8.032e-5
-1.394, 7.723e-5
-1.393, 7.723e-5
-1.392, 7.415e-5
-1.391, 7.415e-5
-1.390, 7.107e-5
-1.389, 7.107e-5
-1.388, 6.798e-5
-1.387, 6.798e-5
-1.386, 6.490e-5
-1.385, 6.490e-5
-1.384, 6.182e-5
-1.383, 6.182e-5
-1.382, 5.873e-5
-1.381, 5.873e-5
-1.380, 5.873e-5
-1.379, 5.565e-5
-1.378, 5.257e-5
-1.377, 5.257e-5
-1.376, 4.949e-5
-1.375, 4.949e-5
-1.374, 4.949e-5
-1.373, 4.640e-5
-1.372, 4.640e-5
-1.371, 4.332e-5
-1.370, 4.332e-5
-1.369, 4.024e-5
-1.368, 4.024e-5
-1.367, 4.024e-5
-1.366, 3.715e-5
-1.365, 3.715e-5
-1.364, 3.407e-5
-1.363, 3.407e-5
-1.362, 3.407e-5
-1.361, 3.099e-5
-1.360, 3.099e-5
-1.359, 2.790e-5
-1.358, 2.790e-5
-1.357, 2.790e-5
-1.356, 2.482e-5
-1.355, 2.482e-5
-1.354, 2.482e-5
-1.353, 2.174e-5
-1.352, 2.174e-5
-1.351, 1.865e-5
-1.350, 1.865e-5
-1.349, 1.865e-5
-1.348, 1.557e-5
-1.347, 1.557e-5
-1.346, 1.557e-5
-1.345, 1.557e-5
-1.344, 1.249e-5
-1.343, 1.249e-5
-1.342, 9.405e-6
-1.341, 9.405e-6
-1.340, 9.405e-6
-1.339, 9.405e-6
-1.338, 6.322e-6
-1.337, 6.322e-6
-1.336, 6.322e-6
-1.335, 6.322e-6
-1.334, 3.239e-6
-1.333, 3.239e-6
-1.332, 3.239e-6
-1.331, 1.559e-7
-1.330, 1.559e-7
-1.329, 1.559e-7
-1.328, 1.559e-7
-1.327, -2.927e-6
-1.326, -2.927e-6
-1.325, -2.927e-6
-1.324, -6.010e-6
-1.323, -6.010e-6
-1.322, -6.010e-6
-1.321, -6.010e-6
-1.320, -6.010e-6
-1.319, -9.093e-6
-1.318, -9.093e-6
-1.317, -9.093e-6
-1.316, -1.218e-5
-1.315, -1.218e-5
-1.314, -1.218e-5
-1.313, -1.218e-5
-1.312, -1.218e-5
-1.311, -1.526e-5
-1.310, -1.526e-5
-1.309, -1.526e-5
-1.308, -1.834e-5
-1.307, -1.526e-5
-1.306, -1.834e-5
-1.305, -1.834e-5
-1.304, -1.834e-5
-1.303, -1.834e-5
-1.302, -2.143e-5
-1.301, -2.143e-5
-1.300, -2.143e-5
-1.299, -2.143e-5
-1.298, -2.143e-5
-1.297, -2.143e-5
-1.296, -2.451e-5
-1.295, -2.451e-5
-1.294, -2.451e-5
-1.293, -2.451e-5
-1.292, -2.451e-5
-1.291, -2.759e-5
-1.290, -2.759e-5
-1.289, -2.759e-5
-1.288, -2.759e-5
-1.287, -2.759e-5
-1.286, -2.759e-5
-1.285, -3.068e-5
-1.284, -3.068e-5
-1.283, -3.068e-5
-1.282, -3.068e-5
-1.281, -3.068e-5
-1.280, -3.376e-5
-1.279, -3.068e-5
-1.278, -3.376e-5
-1.277, -3.376e-5
-1.276, -3.376e-5
-1.275, -3.376e-5
-1.274, -3.376e-5
-1.273, -3.684e-5
-1.272, -3.376e-5
-1.271, -3.684e-5
-1.270, -3.684e-5
-1.269, -3.684e-5
-1.268, -3.684e-5
-1.267, -3.684e-5
-1.266, -3.684e-5
-1.265, -3.684e-5
-1.264, -3.992e-5
-1.263, -3.992e-5
-1.262, -3.992e-5
-1.261, -3.992e-5
-1.260, -3.992e-5
-1.259, -3.992e-5
-1.258, -3.992e-5
-1.257, -4.301e-5
-1.256, -4.301e-5
-1.255, -4.301e-5
-1.254, -4.301e-5
-1.253, -4.301e-5
-1.252, -4.301e-5
-1.251, -4.301e-5
-1.250, -4.301e-5
-1.249, -4.609e-5
-1.248, -4.301e-5
-1.247, -4.301e-5
-1.246, -4.609e-5
-1.245, -4.301e-5
-1.244, -4.609e-5
-1.243, -4.609e-5
-1.242, -4.609e-5
-1.241, -4.609e-5
-1.240, -4.609e-5
-1.239, -4.609e-5
-1.238, -4.917e-5
-1.237, -4.609e-5
-1.236, -4.917e-5
-1.235, -4.917e-5
-1.234, -4.917e-5
-1.233, -4.917e-5
-1.232, -4.917e-5
-1.231, -4.917e-5
-1.230, -4.917e-5
-1.229, -4.917e-5
-1.228, -4.917e-5
-1.227, -5.226e-5
-1.226, -5.226e-5
-1.225, -4.917e-5
-1.224, -5.226e-5
-1.223, -5.226e-5
-1.222, -5.226e-5
-1.221, -5.226e-5
-1.220, -5.226e-5
-1.219, -5.226e-5
-1.218, -5.226e-5
-1.217, -5.226e-5
-1.216, -5.226e-5
-1.215, -5.226e-5
-1.214, -5.226e-5
-1.213, -5.226e-5
-1.212, -5.226e-5
-1.211, -5.534e-5
-1.210, -5.226e-5
-1.209, -5.534e-5
-1.208, -5.534e-5
-1.207, -5.534e-5
-1.206, -5.534e-5
-1.205, -5.226e-5
-1.204, -5.534e-5
-1.203, -5.226e-5
-1.202, -5.534e-5
-1.201, -5.534e-5
-1.200, -5.534e-5
-1.199, -5.534e-5
-1.198, -5.534e-5
-1.197, -5.534e-5
-1.196, -5.534e-5
-1.195, -5.534e-5
-1.194, -5.534e-5
-1.193, -5.534e-5
-1.192, -5.842e-5
-1.191, -5.534e-5
-1.190, -5.534e-5
-1.189, -5.534e-5
-1.188, -5.842e-5
-1.187, -5.534e-5
-1.186, -5.842e-5
-1.185, -5.842e-5
-1.184, -5.842e-5
-1.183, -5.842e-5
-1.182, -5.842e-5
-1.181, -5.842e-5
-1.180, -5.842e-5
-1.179, -5.842e-5
-1.178, -5.842e-5
-1.177, -5.842e-5
-1.176, -5.842e-5
-1.175, -5.842e-5
-1.174, -5.842e-5
-1.173, -5.842e-5
-1.172, -5.842e-5
-1.171, -5.842e-5
-1.170, -5.842e-5
-1.169, -5.842e-5
-1.168, -5.842e-5
-1.167, -5.842e-5
-1.166, -5.842e-5
-1.165, -5.842e-5
-1.164, -5.842e-5
-1.163, -5.842e-5
-1.162, -5.842e-5
-1.161, -6.151e-5
-1.160, -5.842e-5
-1.159, -6.151e-5
-1.158, -6.151e-5
-1.157, -6.151e-5
-1.156, -6.151e-5
-1.155, -6.151e-5
-1.154, -6.151e-5
-1.153, -6.151e-5
-1.152, -6.151e-5
-1.151, -6.151e-5
-1.150, -6.151e-5
-1.149, -6.151e-5
-1.148, -6.151e-5
-1.147, -6.151e-5
-1.146, -6.151e-5
-1.145, -6.151e-5
-1.144, -6.151e-5
-1.143, -6.151e-5
-1.142, -6.151e-5
-1.141, -6.151e-5
-1.140, -6.151e-5
-1.139, -6.151e-5
-1.138, -6.151e-5
-1.137, -6.151e-5
-1.136, -6.151e-5
-1.135, -6.151e-5
-1.134, -6.459e-5
-1.133, -6.151e-5
-1.132, -6.151e-5
-1.131, -6.151e-5
-1.130, -6.151e-5
-1.129, -6.151e-5
-1.128, -6.151e-5
-1.127, -6.151e-5
-1.126, -6.459e-5
-1.125, -6.459e-5
-1.124, -6.151e-5
-1.123, -6.151e-5
-1.122, -6.459e-5
-1.121, -6.459e-5
-1.120, -6.151e-5
-1.119, -6.459e-5
-1.118, -6.459e-5
-1.117, -6.459e-5
-1.116, -6.459e-5
-1.115, -6.459e-5
-1.114, -6.459e-5
-1.113, -6.459e-5
-1.112, -6.459e-5
-1.111, -6.459e-5
-1.110, -6.459e-5
-1.109, -6.459e-5
-1.108, -6.459e-5
-1.107, -6.459e-5
-1.106, -6.459e-5
-1.105, -6.459e-5
-1.104, -6.459e-5
-1.103, -6.459e-5
-1.102, -6.459e-5
-1.101, -6.459e-5
-1.100, -6.767e-5
-1.099, -6.459e-5
-1.098, -6.459e-5
-1.097, -6.459e-5
-1.096, -6.459e-5
-1.095, -6.459e-5
-1.094, -6.767e-5
-1.093, -6.459e-5
-1.092, -6.767e-5
-1.091, -6.767e-5
-1.090, -6.767e-5
-1.089, -6.767e-5
-1.088, -6.767e-5
-1.087, -6.459e-5
-1.086, -6.767e-5
-1.085, -6.767e-5
-1.084, -6.767e-5
-1.083, -6.767e-5
-1.082, -6.767e-5
-1.081, -6.767e-5
-1.080, -6.459e-5
-1.079, -6.767e-5
-1.078, -6.767e-5
-1.077, -6.767e-5
-1.076, -6.767e-5
-1.075, -6.767e-5
-1.074, -6.767e-5
-1.073, -6.767e-5
-1.072, -6.767e-5
-1.071, -6.767e-5
-1.070, -6.767e-5
-1.069, -6.767e-5
-1.068, -7.076e-5
-1.067, -7.076e-5
-1.066, -6.767e-5
-1.065, -6.767e-5
-1.064, -6.767e-5
-1.063, -7.076e-5
-1.062, -6.767e-5
-1.061, -7.076e-5
-1.060, -7.076e-5
-1.059, -7.076e-5
-1.058, -7.076e-5
-1.057, -7.076e-5
-1.056, -7.076e-5
-1.055, -7.076e-5
-1.054, -7.076e-5
-1.053, -7.076e-5
-1.052, -7.076e-5
-1.051, -7.076e-5
-1.050, -7.076e-5
-1.049, -7.076e-5
-1.048, -7.076e-5
-1.047, -7.076e-5
-1.046, -7.076e-5
-1.045, -7.076e-5
-1.044, -7.076e-5
-1.043, -7.076e-5
-1.042, -7.384e-5
-1.041, -7.076e-5
-1.040, -7.076e-5
-1.039, -7.076e-5
-1.038, -7.384e-5
-1.037, -7.384e-5
-1.036, -7.384e-5
-1.035, -7.384e-5
-1.034, -7.384e-5
-1.033, -7.384e-5
-1.032, -7.384e-5
-1.031, -7.384e-5
-1.030, -7.384e-5
-1.029, -7.384e-5
-1.028, -7.384e-5
-1.027, -7.384e-5
-1.026, -7.384e-5
-1.025, -7.384e-5
-1.024, -7.692e-5
-1.023, -7.384e-5
-1.022, -7.692e-5
-1.021, -7.384e-5
-1.020, -7.692e-5
-1.019, -7.692e-5
-1.018, -7.384e-5
-1.017, -7.692e-5
-1.016, -7.692e-5
-1.015, -7.692e-5
-1.014, -7.692e-5
-1.013, -7.692e-5
-1.012, -7.692e-5
-1.011, -7.692e-5
-1.010, -7.692e-5
-1.009, -7.692e-5
-1.008, -7.692e-5
-1.007, -7.692e-5
-1.006, -7.692e-5
-1.005, -7.692e-5
-1.004, -7.692e-5
-1.003, -7.692e-5
-1.002, -8.000e-5
-1.001, -8.000e-5
