Potential V vs RHE, Current mA cm-2
0.4132999999999999,0.002925622968120896
0.4122999999999999,0.0012787575439480066
0.4112999999999999,0.0007790815128356758
0.4102999999999999,0.0004957148394727089
0.4092999999999999,0.00029341112359200863
0.4082999999999999,0.00010914497678458758
0.4072999999999999,-5.2754584371967215e-05
0.4062999999999999,-0.00020909433012005242
0.4052999999999999,-0.00037235201412447763
0.4042999999999999,-0.0005105693081212917
0.4032999999999999,-0.0006124285217115744
0.4022999999999999,-0.0007352254625398597
0.4012999999999999,-0.0008734427565366736
0.4002999999999999,-0.0010004838312645539
0.3992999999999999,-0.0011387011252613681
0.3982999999999999,-0.0012489071355208544
0.3972999999999999,-0.0013381754185423382
0.3962999999999999,-0.0014571526388609877
0.3952999999999999,-0.0015547677185516753
0.3942999999999999,-0.0016566269321419578
0.39329999999999987,-0.0017471684553333202
0.39229999999999987,-0.0018278069994256273
0.39129999999999987,-0.0019310809243157753
0.39029999999999987,-0.0020612343639033583
0.38929999999999987,-0.002133384640196475
0.38829999999999987,-0.0022182673181883775
0.38729999999999987,-0.0022890028831816294
0.38629999999999987,-0.0023823738289727218
0.38529999999999986,-0.0024743300634639492
0.38429999999999986,-0.0025493097623567967
0.38329999999999986,-0.002621460038649913
0.38229999999999986,-0.00270492800534195
0.38129999999999986,-0.002779907704234797
0.38029999999999986,-0.0029100611438223805
0.37929999999999986,-0.0029567466167179264
0.37829999999999986,-0.003018993913911988
0.37729999999999986,-0.003093973612804835
0.37629999999999986,-0.003180271002096602
0.37529999999999986,-0.0032863743495864807
0.37429999999999986,-0.0033330598224820263
0.37329999999999985,-0.003410868943974604
0.37229999999999985,-0.0034816045089678554
0.37129999999999985,-0.003556584207860702
0.37029999999999985,-0.0036584434214509847
0.36929999999999985,-0.003722105429944912
0.36829999999999985,-0.0037730350367400534
0.36729999999999985,-0.0038550882921322242
0.36629999999999985,-0.003921579723225882
0.36529999999999985,-0.004003632978618054
0.36429999999999985,-0.004068709698411846
0.36329999999999985,-0.004129542284306042
0.36229999999999984,-0.0041988631379994285
0.36129999999999984,-0.0042851605272911965
0.36029999999999984,-0.004372872627882828
0.35929999999999984,-0.00442380223467797
0.35829999999999984,-0.004461999439774325
0.35729999999999984,-0.004529905582167848
0.35629999999999984,-0.004607714703660425
0.35529999999999984,-0.004668547289554621
0.35429999999999984,-0.004746356411047198
0.35329999999999984,-0.004795871306542475
0.35229999999999984,-0.004855289181136806
0.35129999999999983,-0.004928854168729789
0.35029999999999983,-0.00499393088852358
0.34929999999999983,-0.00504203107271899
0.34829999999999983,-0.0050773988552156165
0.34729999999999983,-0.005148134420208869
0.34629999999999983,-0.0052061375835033355
0.34529999999999983,-0.005296679106694698
0.34429999999999983,-0.005330632177891458
0.3432999999999998,-0.005380147073386734
0.3422999999999998,-0.0054240031236825505
0.3412999999999998,-0.005493323977375938
0.3402999999999998,-0.005572547810168379
0.3392999999999998,-0.005605086170065276
0.3382999999999998,-0.005643283375161631
0.3372999999999998,-0.005701286538456097
0.3362999999999998,-0.005777680948648809
0.3352999999999998,-0.005855490070141387
0.3342999999999998,-0.005909249099536258
0.3332999999999998,-0.005940372748133289
0.3322999999999998,-0.005995546488828026
0.3312999999999998,-0.0060493055182228965
0.3302999999999998,-0.006121455794516013
0.3292999999999998,-0.006163897133511965
0.3282999999999998,-0.0062162414516069705
0.3272999999999998,-0.006281318171400763
0.3262999999999998,-0.006335077200795635
0.3252999999999999,-0.00639873920928956
0.3242999999999999,-0.006458157083883892
0.3232999999999999,-0.006477963042082003
0.3222999999999999,-0.006545869184475524
0.3212999999999999,-0.006602457636470126
0.3202999999999999,-0.0066491431093656725
0.3192999999999999,-0.006695828582261218
0.3182999999999999,-0.00673261107605771
0.3172999999999999,-0.00677505241505366
0.3162999999999999,-0.006834470289647992
0.3152999999999999,-0.006896717586842053
0.3142999999999999,-0.00693774421453814
0.3132999999999999,-0.006987259110033417
0.3122999999999999,-0.0070297004490293665
0.3112999999999999,-0.007093362457523294
0.3102999999999999,-0.007141462641718705
0.3092999999999999,-0.007179659846815061
0.3082999999999999,-0.007224930608410743
0.3072999999999999,-0.007267371947406693
0.3062999999999999,-0.007345181068899271
0.3052999999999999,-0.007414501922592657
0.3042999999999999,-0.0074328931694909025
0.3032999999999999,-0.007496555177984829
0.3022999999999999,-0.00753050824918159
0.3012999999999999,-0.007585681989876327
0.3002999999999999,-0.007671979379168093
0.2992999999999999,-0.007691785337366205
0.2982999999999999,-0.007731397253762425
0.2972999999999999,-0.007780912149257702
0.2962999999999999,-0.007831841756052843
0.2952999999999999,-0.007905406743645824
0.2942999999999999,-0.00791248030014515
0.2932999999999999,-0.00796058048434056
0.2922999999999999,-0.008014339513735431
0.2912999999999999,-0.008055366141431519
0.2902999999999999,-0.00812044286122531
0.2892999999999999,-0.008147322375922745
0.2882999999999999,-0.008171372468020452
0.2872999999999999,-0.00824352274431357
0.2862999999999999,-0.0082746463929106
0.2852999999999999,-0.008334064267504932
0.2842999999999999,-0.008386408585599936
0.2832999999999999,-0.008431679347195619
0.2822999999999999,-0.008465632418392379
0.2812999999999999,-0.008519391447787251
0.2802999999999999,-0.008568906343282527
0.2792999999999999,-0.008598615280579694
0.2782999999999999,-0.008646715464775103
0.2772999999999999,-0.008680668535971865
0.2762999999999999,-0.008757062946164578
0.2752999999999999,-0.008778283615662552
0.2742999999999999,-0.008843360335456343
0.2732999999999999,-0.008868825138853915
0.2722999999999999,-0.008899948787450946
0.2712999999999999,-0.008972099063744063
0.2702999999999999,-0.009041419917437449
0.2692999999999999,-0.00905839645303583
0.26829999999999987,-0.009100837792031781
0.26729999999999987,-0.009133376151928677
0.26629999999999987,-0.009172988068324898
0.26529999999999987,-0.00924938247851761
0.26429999999999987,-0.00928050612711464
0.26329999999999987,-0.009303141507912482
0.26229999999999987,-0.009341338713008837
0.26129999999999987,-0.00940641543280263
0.26029999999999986,-0.009468662729996689
0.25929999999999986,-0.009495542244694125
0.25829999999999986,-0.009545057140189403
0.25729999999999986,-0.009583254345285758
0.25629999999999986,-0.0096341839520809
0.25529999999999986,-0.00970491951707415
0.25429999999999986,-0.009727554897871993
0.25329999999999986,-0.009764337391668482
0.25229999999999986,-0.009812437575863895
0.25129999999999986,-0.00984497593576079
0.25029999999999986,-0.009917126212053907
0.24929999999999986,-0.009942591015451478
0.24829999999999985,-0.009956738128450129
0.24729999999999985,-0.01001615600304446
0.24629999999999985,-0.010061426764640141
0.24529999999999985,-0.010146309442632043
0.24429999999999985,-0.01019582433812732
0.24329999999999985,-0.010194409626827456
0.24229999999999985,-0.010239680388423135
0.24129999999999985,-0.010290609995218277
0.24029999999999985,-0.010340124890713552
0.23929999999999985,-0.010382566229709504
0.23829999999999985,-0.01040095747660775
0.23729999999999984,-0.010444813526903567
0.23629999999999984,-0.010515549091896819
0.23529999999999984,-0.010582040522990473
0.23429999999999984,-0.01059477292468926
0.23329999999999984,-0.010630140707185886
0.23229999999999984,-0.01065702022188332
0.23129999999999984,-0.010729170498176437
0.23029999999999984,-0.010788588372770769
0.22929999999999984,-0.010822541443967531
0.22829999999999984,-0.010866397494263347
0.22729999999999984,-0.010893277008960783
0.22629999999999983,-0.010958353728754575
0.22529999999999983,-0.01101635689204904
0.22429999999999983,-0.011055968808445261
0.22329999999999983,-0.011104068992640673
0.22229999999999983,-0.011115386683039593
0.22129999999999983,-0.011180463402833385
0.22029999999999983,-0.011265346080825288
0.21929999999999983,-0.011295055018122453
0.21829999999999983,-0.011326178666719484
0.21729999999999983,-0.011371449428315167
0.21629999999999983,-0.01143794085940882
0.21529999999999982,-0.011500188156602883
0.21429999999999982,-0.01151009113570194
0.21329999999999982,-0.011549703052098159
0.21229999999999982,-0.011604876792792897
0.21129999999999982,-0.011641659286589386
0.21029999999999982,-0.011715224274182368
0.20929999999999982,-0.011742103788879804
0.20829999999999982,-0.01177747157137643
0.20729999999999982,-0.011821327621672246
0.20629999999999982,-0.011872257228467388
0.20529999999999982,-0.01192884568046199
0.20429999999999982,-0.011988263555056321
0.20329999999999981,-0.01201938720365335
0.2022999999999998,-0.012050510852250384
0.2012999999999998,-0.01211134343814458
0.20029999999999992,-0.012167931890139181
0.19929999999999992,-0.012208958517835267
0.19829999999999992,-0.012227349764733513
0.19729999999999992,-0.012272620526329192
0.19629999999999992,-0.01234477080262231
0.19529999999999992,-0.012381553296418801
0.19429999999999992,-0.012473509530910027
0.19329999999999992,-0.01253009798290463
0.19229999999999992,-0.012517365581205843
0.19129999999999991,-0.012603662970497611
0.1902999999999999,-0.012643274886893834
0.1892999999999999,-0.012674398535490863
0.1882999999999999,-0.012723913430986139
0.1872999999999999,-0.012750792945683573
0.1862999999999999,-0.012828602067176153
0.1852999999999999,-0.012882361096571024
0.1842999999999999,-0.012900752343469268
0.1832999999999999,-0.012941778971165356
0.1822999999999999,-0.012987049732761036
0.1812999999999999,-0.013057785297754289
0.1802999999999999,-0.01312569144014781
0.1792999999999999,-0.013148326820945652
0.1782999999999999,-0.013203500561640389
0.1772999999999999,-0.013245941900636339
0.1762999999999999,-0.013295456796131614
0.1752999999999999,-0.013376095340223921
0.1742999999999999,-0.013407218988820954
0.1732999999999999,-0.013428439658318927
0.1722999999999999,-0.013476539842514339
0.1712999999999999,-0.01351332233631083
0.1702999999999999,-0.01357839905610462
0.1692999999999999,-0.013626499240300034
0.1682999999999999,-0.013660452311496792
0.1672999999999999,-0.01370996720699207
0.1662999999999999,-0.013766555658986672
0.1652999999999999,-0.01383304709008033
0.1642999999999999,-0.01387548842907628
0.1632999999999999,-0.013910856211572904
0.1622999999999999,-0.013956126973168587
0.1612999999999999,-0.014019788981662512
0.1602999999999999,-0.01406930387715779
0.1592999999999999,-0.014093353969255496
0.15829999999999989,-0.014145698287350501
0.15729999999999988,-0.014189554337646317
0.15629999999999988,-0.01424614278964092
0.15529999999999988,-0.014316878354634173
0.15429999999999988,-0.014359319693630123
0.15329999999999988,-0.014401761032626074
0.15229999999999988,-0.014458349484620674
0.15129999999999988,-0.014529085049613928
0.15029999999999988,-0.014571526388609878
0.14929999999999988,-0.01461396772760583
0.14829999999999988,-0.01465640906660178
0.14729999999999988,-0.01469885040559773
0.14629999999999987,-0.014755438857592333
0.14529999999999987,-0.014826174422585584
0.14429999999999987,-0.014854468648582884
0.14329999999999987,-0.014911057100577486
0.14229999999999987,-0.014981792665570736
0.14129999999999987,-0.015024234004566688
0.14029999999999987,-0.015109116682558592
0.13929999999999987,-0.015123263795557243
0.13829999999999987,-0.015179852247551842
0.13729999999999987,-0.015222293586547794
0.13629999999999987,-0.015278882038542396
0.13529999999999986,-0.015349617603535646
0.13429999999999986,-0.0153637647165343
0.13329999999999986,-0.015406206055530251
0.13229999999999986,-0.01546279450752485
0.13129999999999986,-0.015505235846520802
0.13029999999999986,-0.015604265637511355
0.12929999999999986,-0.015632559863508654
0.12829999999999986,-0.015660854089505957
0.12729999999999986,-0.015717442541500558
0.12629999999999986,-0.015774030993495156
0.12529999999999986,-0.01581647233249111
0.12429999999999986,-0.015873060784485714
0.12329999999999985,-0.015901355010483013
0.12229999999999985,-0.015957943462477614
0.12129999999999985,-0.016028679027470863
0.12029999999999985,-0.016071120366466816
0.11929999999999985,-0.016127708818461418
0.11829999999999985,-0.016170150157457368
0.11729999999999985,-0.016226738609451972
0.11629999999999985,-0.016283327061446574
0.11529999999999985,-0.016339915513441175
0.11429999999999985,-0.016396503965435776
0.11329999999999985,-0.016424798191433075
0.11229999999999984,-0.01648138664342768
0.11129999999999984,-0.01656626932141958
0.11029999999999984,-0.01662285777341418
0.10929999999999984,-0.01666529911241013
0.10829999999999984,-0.016721887564404736
0.10729999999999984,-0.016764328903400686
0.10629999999999984,-0.016820917355395284
0.10529999999999984,-0.01690580003338719
0.10429999999999984,-0.01693409425938449
0.10329999999999984,-0.01699068271137909
0.10229999999999984,-0.01703312405037504
0.10129999999999983,-0.017103859615368294
0.10029999999999983,-0.017174595180361543
0.09929999999999983,-0.017217036519357496
0.09829999999999983,-0.017273624971352097
0.09729999999999983,-0.01731606631034805
0.09629999999999983,-0.017372654762342652
0.09529999999999983,-0.017457537440334552
0.09429999999999983,-0.017471684553333203
0.09329999999999983,-0.0175282730053278
0.09229999999999983,-0.017599008570321057
0.09129999999999983,-0.01766974413531431
0.09029999999999982,-0.01771218547431026
0.08929999999999982,-0.017754626813306213
0.08829999999999982,-0.01781121526530081
0.08729999999999982,-0.017881950830294063
0.08629999999999982,-0.017938539282288665
0.08529999999999982,-0.018009274847281917
0.08429999999999982,-0.018051716186277867
0.08329999999999982,-0.018108304638272472
0.08229999999999982,-0.01816489309026707
0.08129999999999982,-0.018235628655260322
0.08029999999999982,-0.018292217107254923
0.07929999999999982,-0.018362952672248176
0.07829999999999981,-0.018405394011244126
0.07729999999999981,-0.018447835350240076
0.07629999999999981,-0.01853271802823198
0.07529999999999992,-0.01858930648022658
0.07429999999999992,-0.018631747819222534
0.07329999999999992,-0.018702483384215783
0.07229999999999992,-0.018744924723211737
0.07129999999999992,-0.01882980740120364
0.07029999999999992,-0.018886395853198238
0.06929999999999992,-0.01892883719219419
0.06829999999999992,-0.018999572757187444
0.06729999999999992,-0.019027866983184743
0.06629999999999991,-0.019141043887173945
0.06529999999999991,-0.019211779452167198
0.06429999999999991,-0.019254220791163148
0.06329999999999991,-0.0193249563561564
0.06229999999999991,-0.019367397695152354
0.06129999999999991,-0.019423986147146955
0.06029999999999991,-0.019537163051136158
0.05929999999999991,-0.019579604390132108
0.05829999999999991,-0.01963619284212671
0.05729999999999991,-0.019664487068124008
0.056299999999999906,-0.01973522263311726
0.055299999999999905,-0.019820105311109164
0.054299999999999904,-0.019848399537106463
0.0532999999999999,-0.019947429328097017
0.0522999999999999,-0.02000401778009162
0.0512999999999999,-0.02006060623208622
0.0502999999999999,-0.02015963602307677
0.0492999999999999,-0.02020207736207272
0.0482999999999999,-0.020272812927065977
0.0472999999999999,-0.02032940137906058
0.0462999999999999,-0.020400136944053827
0.045299999999999896,-0.02048501962204573
0.044299999999999895,-0.020541608074040336
0.043299999999999894,-0.02055575518703898
0.04229999999999989,-0.020612343639033585
0.04129999999999989,-0.02071137343002414
0.04029999999999989,-0.020810403221014687
0.03929999999999989,-0.02086699167300929
0.03829999999999989,-0.020923580125003893
0.03729999999999989,-0.021008462802995797
0.03629999999999989,-0.021065051254990398
0.03529999999999989,-0.021121639706984996
0.034299999999999886,-0.02119237527197825
0.033299999999999885,-0.0212631108369715
0.032299999999999884,-0.021291405062968803
0.031299999999999883,-0.021390434853959358
0.030299999999999883,-0.021475317531951258
0.02929999999999988,-0.021546053096944507
0.02829999999999988,-0.021602641548939108
0.02729999999999988,-0.02165923000093371
0.02629999999999988,-0.021772406904922915
0.025299999999999878,-0.02185728958291482
0.024299999999999877,-0.021885583808912118
0.023299999999999876,-0.02197046648690402
0.022299999999999875,-0.022027054938898623
0.021299999999999875,-0.022140231842887825
0.020299999999999874,-0.022225114520879725
0.019299999999999873,-0.02226755585987568
0.018299999999999872,-0.02232414431187028
0.01729999999999987,-0.02239487987686353
0.01629999999999987,-0.022479762554855433
0.01529999999999987,-0.022564645232847336
0.014299999999999868,-0.022635380797840585
0.013299999999999867,-0.022691969249835187
0.012299999999999978,-0.02274855770182979
0.011299999999999866,-0.022847587492820343
0.010299999999999976,-0.022932470170812246
0.009299999999999864,-0.0230032057358055
0.008299999999999974,-0.023073941300798748
0.007299999999999862,-0.02313052975279335
0.006299999999999972,-0.02324370665678255
0.00529999999999986,-0.023314442221775804
0.0042999999999999705,-0.023356883560771757
0.0032999999999998586,-0.02341347201276636
0.0022999999999999687,-0.023498354690758262
0.0012999999999998568,-0.023625678707746112
0.00029999999999996696,-0.023710561385738016
-0.000700000000000145,-0.023767149837732617
-0.0017000000000000348,-0.023823738289727222
-0.0027000000000001467,-0.02392276808071777
-0.0037000000000000366,-0.024021797871708325
-0.0047000000000001485,-0.024078386323702922
-0.005700000000000038,-0.024149121888696175
-0.00670000000000015,-0.024219857453689427
-0.00770000000000004,-0.02427644590568403
-0.008700000000000152,-0.024403769922671882
-0.009700000000000042,-0.02447450548766513
-0.010700000000000154,-0.024587682391654337
-0.011700000000000044,-0.024644270843648942
-0.012700000000000156,-0.02468671218264489
-0.013700000000000045,-0.024814036199632745
-0.014700000000000157,-0.024884771764625994
-0.015700000000000047,-0.024955507329619247
-0.01670000000000016,-0.025040390007611147
-0.01770000000000005,-0.02509697845960575
-0.01870000000000016,-0.025196008250596303
-0.01970000000000005,-0.025295038041586858
-0.020700000000000163,-0.025323332267584157
-0.021700000000000053,-0.02543650917157336
-0.022700000000000164,-0.025507244736566608
-0.023700000000000054,-0.025634568753554465
-0.024700000000000166,-0.025719451431546365
-0.025700000000000056,-0.02577603988354097
-0.026700000000000168,-0.025832628335535568
-0.027700000000000058,-0.02590336390052882
-0.02870000000000017,-0.02600239369151937
-0.02970000000000006,-0.026115570595508578
-0.03070000000000017,-0.026186306160501827
-0.03170000000000006,-0.026257041725495082
-0.03270000000000017,-0.026341924403486983
-0.03370000000000006,-0.026440954194477534
-0.034700000000000175,-0.026539983985468085
-0.035700000000000065,-0.02661071955046134
-0.03670000000000018,-0.02668145511545459
-0.03770000000000007,-0.026766337793446494
-0.03870000000000018,-0.026879514697435696
-0.03970000000000007,-0.026978544488426247
-0.04070000000000018,-0.027049280053419503
-0.04170000000000007,-0.027120015618412752
-0.04270000000000018,-0.027204898296404656
-0.04370000000000007,-0.027332222313392506
-0.044700000000000184,-0.02741710499138441
-0.045700000000000074,-0.027487840556377662
-0.046700000000000186,-0.02755857612137091
-0.047700000000000076,-0.027615164573365516
-0.04870000000000019,-0.02772834147735472
-0.04970000000000008,-0.027813224155346622
-0.05070000000000019,-0.027869812607341227
-0.05170000000000008,-0.027954695285333123
-0.05270000000000019,-0.028039577963325023
-0.05370000000000008,-0.02813860775431558
-0.05470000000000019,-0.028251784658304784
-0.05570000000000008,-0.028308373110299385
-0.056700000000000195,-0.028407402901289937
-0.057700000000000085,-0.02849228557928184
-0.058700000000000196,-0.028577168257273744
-0.059700000000000086,-0.028676198048264292
-0.0607000000000002,-0.028746933613257548
-0.06170000000000009,-0.028860110517246747
-0.0627000000000002,-0.0289591403082373
