Potential V vs RHE, Current mA cm-2
0.013299999999999867,-0.1330535977523067
0.012299999999999978,-1.0490084288499246
0.011299999999999866,-1.7033124050375041
0.010299999999999976,-2.2706116362833835
0.009299999999999864,-2.794054817233447
0.008299999999999974,-3.273641947887695
0.007299999999999862,-3.579219588658543
0.006299999999999972,-3.7532290785419424
0.00529999999999986,-3.7970851288377587
0.0042999999999999705,-3.7970851288377587
0.0032999999999998586,-3.884797229429391
0.0022999999999999687,-4.014950669016974
0.0012999999999998568,-4.276672259492005
0.00029999999999996696,-4.538393849967037
-0.000700000000000145,-4.712403339850438
-0.0017000000000000348,-4.843971490737885
-0.0027000000000001467,-4.800115440442069
-0.0037000000000000366,-4.756259390146253
-0.0047000000000001485,-4.756259390146253
-0.005700000000000038,-4.800115440442069
-0.00670000000000015,-4.974124930325469
-0.00770000000000004,-5.191990470504685
-0.008700000000000152,-5.453712060979717
-0.009700000000000042,-5.585280211867165
-0.010700000000000154,-5.585280211867165
-0.011700000000000044,-5.5414241615713475
-0.012700000000000156,-5.497568111275533
-0.013700000000000045,-5.497568111275533
-0.014700000000000157,-5.672992312458796
-0.015700000000000047,-5.890857852638012
-0.01670000000000016,-6.152579443113044
-0.01770000000000005,-6.282732882700628
-0.01870000000000016,-6.37044498329226
-0.01970000000000005,-6.282732882700628
-0.020700000000000163,-6.238876832404812
-0.021700000000000053,-6.282732882700628
-0.022700000000000164,-6.37044498329226
-0.023700000000000054,-6.588310523471475
-0.024700000000000166,-6.806176063650692
-0.025700000000000056,-7.024041603829907
-0.026700000000000168,-7.155609754717355
-0.027700000000000058,-7.155609754717355
-0.02870000000000017,-7.111753704421539
-0.02970000000000006,-7.067897654125724
-0.03070000000000017,-7.111753704421539
-0.03170000000000006,-7.28576319430494
-0.03270000000000017,-7.5474847847799715
-0.03370000000000006,-7.809206375255003
-0.034700000000000175,-7.984630576438266
-0.035700000000000065,-8.027071915434218
-0.03670000000000018,-7.984630576438266
-0.03770000000000007,-7.940774526142452
-0.03870000000000018,-7.984630576438266
-0.03970000000000007,-8.158640066321666
-0.04070000000000018,-8.376505606500881
-0.04170000000000007,-8.68208324727173
-0.04270000000000018,-8.85609273715513
-0.04370000000000007,-8.943804837746763
-0.044700000000000184,-8.943804837746763
-0.045700000000000074,-8.899948787450944
-0.046700000000000186,-8.943804837746763
-0.047700000000000076,-9.031516938338395
-0.04870000000000019,-9.293238528813426
-0.04970000000000008,-9.59740145828441
-0.05070000000000019,-9.81668170976349
-0.05170000000000008,-9.946835149351072
-0.05270000000000019,-9.99069119964689
-0.05370000000000008,-9.946835149351072
-0.05470000000000019,-9.902979099055257
-0.05570000000000008,-9.99069119964689
-0.056700000000000195,-10.164700689530287
-0.057700000000000085,-10.42642228000532
-0.058700000000000196,-10.731999920776168
-0.059700000000000086,-10.863568071663616
-0.0607000000000002,-10.949865460955383
-0.06170000000000009,-10.906009410659568
-0.0627000000000002,-10.863568071663616
-0.06370000000000009,-10.906009410659568
-0.0647000000000002,-11.123874950838783
-0.06570000000000009,-11.385596541313816
-0.0667000000000002,-11.647318131788847
-0.0677000000000001,-11.86659838326793
-0.0687000000000002,-11.952895772559694
-0.0697000000000001,-11.952895772559694
-0.07070000000000021,-11.909039722263879
-0.0717000000000001,-11.952895772559694
-0.07270000000000021,-12.040607873151327
-0.0737000000000001,-12.302329463626359
-0.07470000000000021,-12.56405105410139
-0.0757000000000001,-12.781916594280606
-0.07670000000000021,-12.913484745168056
-0.0777000000000001,-12.913484745168056
-0.07870000000000021,-12.913484745168056
-0.0797000000000001,-12.913484745168056
-0.08070000000000022,-12.955926084164007
-0.0817000000000001,-13.13135028534727
-0.08270000000000022,-13.3930718758223
-0.08370000000000011,-13.698649516593148
-0.08470000000000022,-13.872659006476551
-0.08570000000000011,-13.916515056772363
-0.08670000000000022,-13.916515056772363
-0.08770000000000011,-13.828802956180734
-0.08870000000000022,-13.828802956180734
-0.08970000000000011,-14.046668496359947
-0.09070000000000022,-14.26028990263957
-0.09170000000000011,-14.529085049613924
-0.09270000000000023,-14.741291744593681
-0.09370000000000012,-14.826174422585586
-0.09470000000000023,-14.826174422585586
-0.09570000000000012,-14.741291744593681
-0.09670000000000023,-14.783733083589633
-0.09770000000000012,-14.868615761581536
-0.09870000000000023,-15.094969569559943
-0.09970000000000012,-15.3920589425316
-0.10070000000000023,-15.618412750510005
-0.10170000000000012,-15.74573676749786
-0.10270000000000024,-15.78817810649381
-0.10370000000000013,-15.74573676749786
-0.10470000000000024,-15.70329542850191
-0.10570000000000013,-15.78817810649381
-0.10670000000000024,-16.014531914472215
-0.10770000000000013,-16.269179948447924
-0.10870000000000024,-16.53797509542228
-0.10970000000000013,-16.70774045140608
-0.11070000000000024,-16.792623129397985
-0.11170000000000013,-16.750181790402035
-0.11270000000000002,-16.70774045140608
-0.11370000000000013,-16.70774045140608
-0.11470000000000002,-16.877505807389888
-0.11570000000000014,-17.146300954364243
-0.11670000000000003,-17.4433903273359
-0.11770000000000014,-17.669744135314307
-0.11870000000000003,-17.797068152302163
-0.11970000000000014,-17.75462681330621
-0.12070000000000003,-17.71218547431026
-0.12170000000000014,-17.75462681330621
-0.12270000000000003,-17.839509491298113
-0.12370000000000014,-18.10830463827247
-0.12470000000000003,-18.362952672248177
-0.12570000000000014,-18.631747819222536
-0.12670000000000003,-18.80151317520634
-0.12770000000000015,-18.843954514202288
-0.12870000000000004,-18.843954514202288
-0.12970000000000015,-18.843954514202288
-0.13070000000000004,-18.88639585319824
-0.13170000000000015,-19.155191000172596
-0.13270000000000004,-19.49472171214021
-0.13370000000000015,-19.805958198110513
-0.13470000000000004,-20.01816489309027
-0.13570000000000015,-20.06060623208622
-0.13670000000000004,-20.06060623208622
-0.13770000000000016,-20.06060623208622
-0.13870000000000005,-20.10304757108217
-0.13970000000000016,-20.286960040064624
-0.14070000000000005,-20.584049413036283
-0.14170000000000016,-20.89528589900659
-0.14270000000000005,-21.149933932982297
-0.14370000000000016,-21.333846401964752
-0.14470000000000005,-21.376287740960702
-0.14570000000000016,-21.376287740960702
-0.14670000000000005,-21.461170418952605
-0.14770000000000016,-21.63093577493641
-0.14870000000000005,-21.899730921910766
-0.14970000000000017,-22.253408746877028
-0.15070000000000006,-22.550498119848687
-0.15170000000000017,-22.776851927827092
-0.15270000000000006,-22.861734605818995
-0.15370000000000017,-22.904175944814945
-0.15470000000000006,-22.946617283810895
-0.15570000000000017,-23.073941300798747
-0.15670000000000006,-23.300295108777156
-0.15770000000000017,-23.639825820744765
-0.15870000000000006,-23.993503645711023
-0.15970000000000018,-24.24815167968673
-0.16070000000000007,-24.389622809673234
-0.16170000000000018,-24.432064148669184
-0.16270000000000007,-24.432064148669184
-0.16370000000000018,-24.559388165657033
-0.16470000000000007,-24.814036199632742
-0.16570000000000018,-25.12527268560305
-0.16670000000000007,-25.563833188561212
-0.16770000000000018,-25.91751101352747
-0.16870000000000007,-26.087276369511276
-0.16970000000000018,-26.21460038649913
-0.17070000000000007,-26.257041725495082
-0.17170000000000019,-26.34192440348698
-0.17270000000000008,-26.568278211465387
-0.1737000000000002,-26.86536758443705
-0.17470000000000008,-27.219045409403304
-0.1757000000000002,-27.572723234369565
-0.17670000000000008,-27.827371268345274
-0.1777000000000002,-27.954695285333123
-0.17870000000000008,-28.011283737327723
-0.1797000000000002,-28.011283737327723
-0.18070000000000008,-28.13860775431558
-0.1817000000000002,-28.393255788291288
-0.18270000000000008,-28.746933613257543
-0.1837000000000002,-29.14305277721976
-0.1847000000000001,-29.440142150191413
-0.1857000000000002,-29.62405461917387
-0.1867000000000001,-29.66649595816982
-0.1877000000000002,-29.751378636161718
-0.1887000000000001,-29.878702653149578
-0.1897000000000002,-30.232380478115836
-0.1907000000000001,-30.614352529079397
-0.1917000000000001,-31.010471693041605
-0.19269999999999998,-31.40659085700382
-0.1937000000000001,-31.618797551983565
-0.19469999999999998,-31.717827342974125
-0.1957000000000001,-31.802710020966025
-0.19669999999999999,-31.887592698957924
-0.1977000000000001,-32.01491671594578
-0.1987,-32.32615320191609
-0.1997000000000001,-32.66568391388369
-0.2007,-33.01936173884996
-0.2017000000000001,-33.288156885824314
-0.2027,-33.373039563816214
-0.2037000000000001,-33.45792224180811
-0.2047,-33.50036358080407
-0.2057000000000001,-33.627687597791926
-0.2067,-33.98136542275818
-0.2077000000000001,-34.377484586720385
-0.2087,-34.75945663768395
-0.2097000000000001,-35.07069312365426
-0.2107,-35.240458479638065
-0.2117000000000001,-35.38192960962457
-0.2127,-35.42437094862052
-0.2137000000000001,-35.55169496560837
-0.2147,-35.763901660588125
-0.2157000000000001,-36.11757948555439
-0.2167,-36.5136986495166
-0.21770000000000012,-36.81078802248826
-0.2187,-36.95225915247476
-0.21970000000000012,-37.07958316946261
-0.2207,-37.07958316946261
-0.22170000000000012,-37.164465847454515
-0.2227,-37.376672542434264
-0.22370000000000012,-37.645467689408626
-0.2247,-37.94255706238028
-0.22570000000000012,-38.211352209354644
-0.2267,-38.38111756533845
-0.22770000000000012,-38.46600024333035
-0.22870000000000001,-38.46600024333035
-0.22970000000000013,-38.42355890433439
-0.23070000000000002,-38.522588695324956
-0.23170000000000013,-38.734795390304704
-0.23270000000000002,-39.046031876275016
-0.23370000000000013,-39.42800392723857
-0.23470000000000002,-39.654357735216976
-0.23570000000000013,-39.78168175220483
-0.23670000000000002,-39.78168175220483
-0.2376999999999999,-39.739240413208876
-0.23870000000000002,-39.82412309120078
-0.2396999999999999,-39.99388844718459
-0.24070000000000003,-40.30512493315489
-0.24169999999999991,-40.616361419125205
-0.24270000000000003,-40.828568114104954
-0.24369999999999992,-40.95589213109281
-0.24470000000000003,-40.91345079209687
-0.24569999999999992,-40.78612677510901
-0.24670000000000003,-40.743685436113054
-0.24769999999999992,-40.701244097117105
-0.24870000000000003,-40.828568114104954
-0.24969999999999992,-41.04077480908471
-0.25070000000000003,-41.139804600075266
-0.2516999999999999,-41.267128617063115
-0.25270000000000004,-41.182245939071215
-0.2536999999999999,-41.083216148080666
-0.25470000000000004,-40.99833347008877
-0.2556999999999999,-40.99833347008877
-0.25670000000000004,-41.182245939071215
-0.25769999999999993,-41.39445263405098
-0.25870000000000004,-41.66324778102533
-0.25969999999999993,-41.79057179801318
-0.26070000000000004,-41.74813045901723
-0.26169999999999993,-41.606659329030734
-0.26270000000000004,-41.43689397304693
-0.26369999999999993,-41.30956995605907
-0.26470000000000005,-41.30956995605907
-0.26569999999999994,-41.352011295055014
-0.26670000000000005,-41.43689397304693
-0.26769999999999994,-41.47933531204288
-0.26870000000000005,-41.30956995605907
-0.26969999999999994,-41.083216148080666
-0.27070000000000005,-40.828568114104954
-0.27169999999999994,-40.65880275812115
-0.27270000000000005,-40.559772967130606
-0.27369999999999994,-40.616361419125205
-0.27470000000000006,-40.743685436113054
-0.27569999999999995,-40.78612677510901
-0.27670000000000006,-40.701244097117105
-0.27769999999999995,-40.4748902891387
-0.27870000000000006,-40.220242255162994
-0.27969999999999995,-39.86656443019674
-0.28070000000000006,-39.654357735216976
-0.28169999999999995,-39.56947505722508
-0.28270000000000006,-39.56947505722508
-0.28369999999999995,-39.61191639622103
-0.28470000000000006,-39.56947505722508
-0.28569999999999995,-39.34312124924667
-0.28670000000000007,-39.08847321527096
-0.28769999999999996,-38.734795390304704
-0.28870000000000007,-38.46600024333035
-0.28969999999999996,-38.33867622634249
-0.29070000000000007,-38.253793548350586
-0.29169999999999996,-38.211352209354644
-0.29270000000000007,-38.08402819236679
-0.29369999999999996,-37.81523304539243
-0.2947000000000001,-37.47570233342482
-0.29569999999999996,-37.037141830466666
-0.2967000000000001,-36.725905344496354
-0.29769999999999996,-36.5136986495166
-0.2987000000000001,-36.37222751953009
-0.29969999999999997,-36.329786180534136
-0.3007000000000001,-36.20246216354629
-0.30169999999999997,-36.03269680756248
-0.3027000000000001,-35.679018982596226
-0.30369999999999997,-35.240458479638065
-0.3047000000000001,-34.85848642867451
-0.30569999999999997,-34.5472499427042
-0.3067000000000001,-34.33504324772444
-0.3077,-34.236013456733886
-0.3087000000000001,-34.193572117737936
-0.3097,-34.02380676175414
-0.3107000000000001,-33.712570275783825
-0.3117,-33.330598224820264
-0.3127000000000001,-32.93447906085806
-0.3137,-32.58080123589179
-0.3147000000000001,-32.368594540912035
-0.3157,-32.24127052392419
-0.3167000000000001,-32.14224073293363
-0.3177,-31.972475376949827
-0.3187000000000001,-31.717827342974125
-0.3197,-31.27926684001596
-0.3207000000000001,-30.88314767605375
-0.3217,-30.487028512091538
-0.3227000000000001,-30.274821817111786
-0.3237,-30.147497800123933
-0.3247000000000001,-30.10505646112798
-0.3257,-29.96358533114148
-0.3267000000000001,-29.836261314153624
-0.3277,-29.482583489187363
-0.3287000000000001,-29.14305277721976
-0.3297,-28.789374952253496
-0.3307000000000001,-28.53472691827779
-0.3317,-28.435697127287238
-0.3327000000000001,-28.350814449295335
-0.3337,-28.393255788291288
-0.3347000000000001,-28.308373110299385
-0.3357,-28.05372507632368
-0.3367000000000001,-27.742488590353368
-0.3377,-27.38881076538711
-0.3387000000000001,-27.134162731411404
-0.3397,-27.091721392415455
-0.3407000000000001,-27.049280053419505
-0.3417,-27.134162731411404
-0.3427000000000001,-27.134162731411404
-0.3437,-27.00683871442355
-0.3447000000000001,-26.780484906445146
-0.3457,-26.483395533473487
-0.3467000000000001,-26.29948306449103
-0.3477,-26.21460038649913
-0.3487000000000001,-26.29948306449103
-0.3497,-26.440954194477534
-0.3507000000000001,-26.483395533473487
-0.3517,-26.440954194477534
-0.3527000000000001,-26.34192440348698
-0.3537,-26.129717708507226
-0.3547000000000001,-26.002393691519377
-0.3557,-25.91751101352747
-0.35670000000000013,-26.002393691519377
-0.3577,-26.17215904750318
-0.35870000000000013,-26.38436574248293
-0.3597,-26.440954194477534
-0.36070000000000013,-26.440954194477534
-0.3617,-26.34192440348698
-0.3626999999999999,-26.21460038649913
-0.3637,-26.17215904750318
-0.3646999999999999,-26.257041725495082
-0.3657,-26.483395533473487
-0.3666999999999999,-26.738043567449193
-0.3677,-26.907808923433
-0.3686999999999999,-26.9643973754276
-0.36970000000000003,-26.9643973754276
-0.3706999999999999,-26.86536758443705
-0.37170000000000003,-26.907808923433
-0.3726999999999999,-27.049280053419505
-0.37370000000000003,-27.303928087395207
-0.3746999999999999,-27.615164573365515
-0.37570000000000003,-27.869812607341224
-0.3766999999999999,-28.05372507632368
-0.37770000000000004,-28.09616641531963
-0.3786999999999999,-28.09616641531963
-0.37970000000000004,-28.09616641531963
-0.3806999999999999,-28.18104909331153
-0.38170000000000004,-28.435697127287238
-0.38269999999999993,-28.746933613257543
-0.38370000000000004,-29.058170099227848
-0.38469999999999993,-29.31281813320356
-0.38570000000000004,-29.440142150191413
-0.38669999999999993,-29.581613280177915
-0.38770000000000004,-29.62405461917387
-0.38869999999999993,-29.751378636161718
-0.38970000000000005,-30.10505646112798
-0.39069999999999994,-30.444587173095588
-0.39170000000000005,-30.8407063370578
-0.39269999999999994,-31.19438416202406
-0.39370000000000005,-31.321708179011907
-0.39469999999999994,-31.40659085700382
-0.39570000000000005,-31.36414951800786
-0.39669999999999994,-31.449032195999767
-0.39770000000000005,-31.661238890979522
-0.39869999999999994,-32.05735805494172
-0.39970000000000006,-32.45347721890394
-0.40069999999999995,-32.807155043870196
-0.40170000000000006,-33.01936173884996
-0.40269999999999995,-33.14668575583781
-0.40370000000000006,-33.288156885824314
-0.40469999999999995,-33.373039563816214
-0.40570000000000006,-33.627687597791926
-0.40669999999999995,-34.02380676175414
-0.40770000000000006,-34.41992592571634
-0.40869999999999995,-34.85848642867451
-0.40970000000000006,-35.15557580164616
-0.41069999999999995,-35.32534115762997
-0.41170000000000007,-35.42437094862052
-0.41269999999999996,-35.46681228761647
-0.41370000000000007,-35.636577643600276
-0.41469999999999996,-35.94781412957058
-0.41570000000000007,-36.28734484153819
-0.41669999999999996,-36.6834640055004
-0.41770000000000007,-36.99470049147071
-0.41869999999999996,-37.164465847454515
-0.4197000000000001,-37.334231203438314
-0.42069999999999996,-37.376672542434264
-0.4217000000000001,-37.51814367242077
-0.42269999999999996,-37.77279170639648
-0.4237000000000001,-38.08402819236679
-0.42469999999999997,-38.522588695324956
-0.4257000000000001,-38.86211940729255
-0.42669999999999997,-39.08847321527096
-0.4277000000000001,-39.173355893262865
-0.42869999999999997,-39.21579723225882
-0.4297000000000001,-39.258238571254765
-0.43069999999999997,-39.42800392723857
-0.4317000000000001,-39.739240413208876
-0.4327,-40.092918238175145
-0.4337000000000001,-40.43244895014274
-0.4347,-40.701244097117105
-0.4357000000000001,-40.828568114104954
-0.4367,-40.87100945310091
-0.4377000000000001,-40.95589213109281
-0.4387,-41.083216148080666
-0.4397000000000001,-41.39445263405098
-0.4407,-41.79057179801318
-0.4417000000000001,-42.130102509980794
-0.4427,-42.483780334947056
-0.4437000000000001,-42.653545690930855
-0.4447,-42.752575481921404
-0.4457000000000001,-42.837458159913304
-0.4467,-43.007223515897124
-0.4477000000000001,-43.27601866287147
-0.4487,-43.657990713835034
-0.4497000000000001,-44.138992555789144
-0.4507,-44.4926703807554
-0.4517000000000001,-44.80390686672572
-0.4527,-44.97367222270952
-0.4537000000000001,-45.22832025668522
-0.4547,-45.45467406466363
-0.4557000000000001,-45.85079322862584
-0.4567,-46.37423640957591
-0.4577000000000001,-46.982562268517874
-0.4587,-47.71821214444768
-0.4597000000000001,-48.36897934238561
-0.4607,-48.97730520132757
-0.4617000000000001,-49.557336834272235
-0.4627,-50.20810403221015
-0.4637000000000001,-50.943753908139975
-0.4647,-51.90575759204819
-0.4657000000000001,-52.95264395394832
-0.4667,-54.1268543328363
-0.4677000000000001,-55.25862337272834
-0.4687,-56.36209818662306
-0.4697000000000001,-57.45142588751914
-0.4707,-58.498312249419264
-0.4717000000000001,-59.7149639673032
-0.4727,-61.11552815416958
-0.4737000000000001,-62.64341635802381
-0.4747,-64.38351125685783
-0.4757000000000001,-66.08116481669586
-0.4767,-67.7788183765339
-0.4777000000000001,-69.43403059737601
-0.4787,-71.10338993121674
-0.4797000000000001,-72.80104349105478
-0.4807,-74.62602106788069
-0.48170000000000013,-76.5924697746931
-0.4827,-78.68624249849334
-0.48370000000000013,-80.7800152222936
-0.4847,-82.746463929106
-0.48570000000000013,-84.61388284492786
-0.4867,-85.32123849486035
-0.48570000000000013,-84.57144150593189
-0.4847,-84.13288100297372
-0.48370000000000013,-83.96311564698992
-0.4827,-83.79335029100612
-0.48170000000000013,-83.60943782202366
-0.4807,-83.35478978804795
-0.4797000000000001,-82.9162292850898
-0.4787,-82.30790342614785
-0.4777000000000001,-81.69957756720586
-0.4767,-81.04881036926795
-0.4757000000000001,-80.38389605833139
-0.4747,-79.90289421637728
-0.4737000000000001,-79.37945103542721
-0.4727,-78.8135665154812
-0.4717000000000001,-78.16279931754329
-0.4707,-77.38470810261751
-0.4697000000000001,-76.5924697746931
-0.4687,-75.81437855976732
-0.4677000000000001,-75.02214023184291
-0.4667,-74.45625571189689
-0.4657000000000001,-73.80548851395896
-0.4647,-73.15472131602105
