Jan. 9, 2025   12:08:25
Cyclic Voltammetry
File: c:/users/guazh/data/banditlqround7_x0exp772_r5/2025-01-08-exp808\exp808-2025-01-09t11_57_37-arkoh\exp808_cv_sr_400mvs_efin_-1500mv.bin
Data Source:  Experiment
Instrument Model:  CHI760E
Header: CV ran at 400 mVs
Note: 

Init E (V) = -1
High E (V) = -1
Low E (V) = -1.5
Final E (V) = -1
Init P/N = N
Scan Rate (V/s) = 0.4
Segment = 3
Sample Interval (V) = 0.001
Quiet Time (sec) = 2
Sensitivity (A/V) = 0.01
Comp R (ohm) = 1.5

Results:

Channel 1:
Segment 1:
Ep = -1.257V
ip = 7.919e-4A
Ah = 1.580e-4C

Segment 2:

Segment 3:

Potential/V, Current/A

-1.000, -2.927e-6
-1.001, 6.490e-5
-1.002, 1.204e-4
-1.003, 1.636e-4
-1.004, 1.913e-4
-1.005, 1.975e-4
-1.006, 1.975e-4
-1.007, 2.036e-4
-1.008, 2.160e-4
-1.009, 2.376e-4
-1.010, 2.561e-4
-1.011, 2.653e-4
-1.012, 2.622e-4
-1.013, 2.530e-4
-1.014, 2.530e-4
-1.015, 2.684e-4
-1.016, 2.869e-4
-1.017, 3.023e-4
-1.018, 3.023e-4
-1.019, 2.961e-4
-1.020, 2.900e-4
-1.021, 2.931e-4
-1.022, 3.115e-4
-1.023, 3.300e-4
-1.024, 3.393e-4
-1.025, 3.393e-4
-1.026, 3.300e-4
-1.027, 3.270e-4
-1.028, 3.362e-4
-1.029, 3.516e-4
-1.030, 3.732e-4
-1.031, 3.794e-4
-1.032, 3.732e-4
-1.033, 3.640e-4
-1.034, 3.640e-4
-1.035, 3.794e-4
-1.036, 3.979e-4
-1.037, 4.102e-4
-1.038, 4.164e-4
-1.039, 4.102e-4
-1.040, 4.040e-4
-1.041, 4.071e-4
-1.042, 4.256e-4
-1.043, 4.441e-4
-1.044, 4.595e-4
-1.045, 4.595e-4
-1.046, 4.503e-4
-1.047, 4.472e-4
-1.048, 4.565e-4
-1.049, 4.750e-4
-1.050, 4.935e-4
-1.051, 4.996e-4
-1.052, 4.965e-4
-1.053, 4.873e-4
-1.054, 4.904e-4
-1.055, 5.058e-4
-1.056, 5.274e-4
-1.057, 5.459e-4
-1.058, 5.489e-4
-1.059, 5.428e-4
-1.060, 5.366e-4
-1.061, 5.397e-4
-1.062, 5.582e-4
-1.063, 5.767e-4
-1.064, 5.890e-4
-1.065, 5.890e-4
-1.066, 5.829e-4
-1.067, 5.829e-4
-1.068, 5.952e-4
-1.069, 6.137e-4
-1.070, 6.353e-4
-1.071, 6.445e-4
-1.072, 6.384e-4
-1.073, 6.322e-4
-1.074, 6.291e-4
-1.075, 6.445e-4
-1.076, 6.661e-4
-1.077, 6.846e-4
-1.078, 6.877e-4
-1.079, 6.846e-4
-1.080, 6.784e-4
-1.081, 6.846e-4
-1.082, 7.000e-4
-1.083, 7.216e-4
-1.084, 7.370e-4
-1.085, 7.339e-4
-1.086, 7.278e-4
-1.087, 7.247e-4
-1.088, 7.339e-4
-1.089, 7.524e-4
-1.090, 7.740e-4
-1.091, 7.802e-4
-1.092, 7.771e-4
-1.093, 7.709e-4
-1.094, 7.709e-4
-1.095, 7.833e-4
-1.096, 8.048e-4
-1.097, 8.233e-4
-1.098, 8.264e-4
-1.099, 8.203e-4
-1.100, 8.141e-4
-1.101, 8.172e-4
-1.102, 8.357e-4
-1.103, 8.542e-4
-1.104, 8.696e-4
-1.105, 8.665e-4
-1.106, 8.634e-4
-1.107, 8.603e-4
-1.108, 8.696e-4
-1.109, 8.850e-4
-1.110, 9.066e-4
-1.111, 9.189e-4
-1.112, 9.128e-4
-1.113, 9.035e-4
-1.114, 9.035e-4
-1.115, 9.189e-4
-1.116, 9.405e-4
-1.117, 9.559e-4
-1.118, 9.590e-4
-1.119, 9.559e-4
-1.120, 9.498e-4
-1.121, 9.528e-4
-1.122, 9.683e-4
-1.123, 9.898e-4
-1.124, 1.005e-3
-1.125, 1.005e-3
-1.126, 9.991e-4
-1.127, 9.960e-4
-1.128, 1.008e-3
-1.129, 1.027e-3
-1.130, 1.048e-3
-1.131, 1.058e-3
-1.132, 1.058e-3
-1.133, 1.048e-3
-1.134, 1.051e-3
-1.135, 1.061e-3
-1.136, 1.085e-3
-1.137, 1.104e-3
-1.138, 1.104e-3
-1.139, 1.101e-3
-1.140, 1.098e-3
-1.141, 1.107e-3
-1.142, 1.129e-3
-1.143, 1.153e-3
-1.144, 1.169e-3
-1.145, 1.172e-3
-1.146, 1.166e-3
-1.147, 1.166e-3
-1.148, 1.175e-3
-1.149, 1.193e-3
-1.150, 1.215e-3
-1.151, 1.227e-3
-1.152, 1.227e-3
-1.153, 1.221e-3
-1.154, 1.224e-3
-1.155, 1.243e-3
-1.156, 1.270e-3
-1.157, 1.292e-3
-1.158, 1.298e-3
-1.159, 1.298e-3
-1.160, 1.295e-3
-1.161, 1.304e-3
-1.162, 1.323e-3
-1.163, 1.347e-3
-1.164, 1.366e-3
-1.165, 1.369e-3
-1.166, 1.366e-3
-1.167, 1.366e-3
-1.168, 1.378e-3
-1.169, 1.403e-3
-1.170, 1.431e-3
-1.171, 1.446e-3
-1.172, 1.452e-3
-1.173, 1.446e-3
-1.174, 1.455e-3
-1.175, 1.474e-3
-1.176, 1.502e-3
-1.177, 1.523e-3
-1.178, 1.536e-3
-1.179, 1.536e-3
-1.180, 1.536e-3
-1.181, 1.545e-3
-1.182, 1.566e-3
-1.183, 1.597e-3
-1.184, 1.616e-3
-1.185, 1.625e-3
-1.186, 1.622e-3
-1.187, 1.625e-3
-1.188, 1.640e-3
-1.189, 1.668e-3
-1.190, 1.696e-3
-1.191, 1.714e-3
-1.192, 1.717e-3
-1.193, 1.717e-3
-1.194, 1.724e-3
-1.195, 1.742e-3
-1.196, 1.770e-3
-1.197, 1.795e-3
-1.198, 1.804e-3
-1.199, 1.807e-3
-1.200, 1.807e-3
-1.201, 1.819e-3
-1.202, 1.844e-3
-1.203, 1.875e-3
-1.204, 1.896e-3
-1.205, 1.906e-3
-1.206, 1.906e-3
-1.207, 1.909e-3
-1.208, 1.921e-3
-1.209, 1.949e-3
-1.210, 1.976e-3
-1.211, 1.992e-3
-1.212, 1.998e-3
-1.213, 1.995e-3
-1.214, 2.004e-3
-1.215, 2.026e-3
-1.216, 2.050e-3
-1.217, 2.078e-3
-1.218, 2.087e-3
-1.219, 2.091e-3
-1.220, 2.084e-3
-1.221, 2.091e-3
-1.222, 2.112e-3
-1.223, 2.140e-3
-1.224, 2.158e-3
-1.225, 2.164e-3
-1.226, 2.161e-3
-1.227, 2.164e-3
-1.228, 2.180e-3
-1.229, 2.208e-3
-1.230, 2.232e-3
-1.231, 2.251e-3
-1.232, 2.248e-3
-1.233, 2.242e-3
-1.234, 2.242e-3
-1.235, 2.251e-3
-1.236, 2.275e-3
-1.237, 2.294e-3
-1.238, 2.303e-3
-1.239, 2.300e-3
-1.240, 2.294e-3
-1.241, 2.300e-3
-1.242, 2.322e-3
-1.243, 2.346e-3
-1.244, 2.362e-3
-1.245, 2.359e-3
-1.246, 2.353e-3
-1.247, 2.343e-3
-1.248, 2.346e-3
-1.249, 2.359e-3
-1.250, 2.374e-3
-1.251, 2.383e-3
-1.252, 2.380e-3
-1.253, 2.371e-3
-1.254, 2.374e-3
-1.255, 2.390e-3
-1.256, 2.411e-3
-1.257, 2.433e-3
-1.258, 2.433e-3
-1.259, 2.423e-3
-1.260, 2.408e-3
-1.261, 2.402e-3
-1.262, 2.411e-3
-1.263, 2.427e-3
-1.264, 2.433e-3
-1.265, 2.427e-3
-1.266, 2.411e-3
-1.267, 2.402e-3
-1.268, 2.408e-3
-1.269, 2.417e-3
-1.270, 2.430e-3
-1.271, 2.430e-3
-1.272, 2.411e-3
-1.273, 2.390e-3
-1.274, 2.374e-3
-1.275, 2.371e-3
-1.276, 2.377e-3
-1.277, 2.380e-3
-1.278, 2.374e-3
-1.279, 2.359e-3
-1.280, 2.340e-3
-1.281, 2.331e-3
-1.282, 2.340e-3
-1.283, 2.349e-3
-1.284, 2.349e-3
-1.285, 2.334e-3
-1.286, 2.306e-3
-1.287, 2.285e-3
-1.288, 2.272e-3
-1.289, 2.275e-3
-1.290, 2.272e-3
-1.291, 2.263e-3
-1.292, 2.238e-3
-1.293, 2.211e-3
-1.294, 2.192e-3
-1.295, 2.186e-3
-1.296, 2.189e-3
-1.297, 2.189e-3
-1.298, 2.177e-3
-1.299, 2.152e-3
-1.300, 2.128e-3
-1.301, 2.112e-3
-1.302, 2.109e-3
-1.303, 2.109e-3
-1.304, 2.100e-3
-1.305, 2.075e-3
-1.306, 2.044e-3
-1.307, 2.017e-3
-1.308, 2.004e-3
-1.309, 1.998e-3
-1.310, 1.998e-3
-1.311, 1.986e-3
-1.312, 1.961e-3
-1.313, 1.933e-3
-1.314, 1.912e-3
-1.315, 1.906e-3
-1.316, 1.906e-3
-1.317, 1.899e-3
-1.318, 1.881e-3
-1.319, 1.853e-3
-1.320, 1.822e-3
-1.321, 1.804e-3
-1.322, 1.798e-3
-1.323, 1.801e-3
-1.324, 1.795e-3
-1.325, 1.773e-3
-1.326, 1.745e-3
-1.327, 1.724e-3
-1.328, 1.714e-3
-1.329, 1.714e-3
-1.330, 1.714e-3
-1.331, 1.702e-3
-1.332, 1.680e-3
-1.333, 1.653e-3
-1.334, 1.634e-3
-1.335, 1.631e-3
-1.336, 1.637e-3
-1.337, 1.637e-3
-1.338, 1.622e-3
-1.339, 1.600e-3
-1.340, 1.576e-3
-1.341, 1.566e-3
-1.342, 1.569e-3
-1.343, 1.579e-3
-1.344, 1.579e-3
-1.345, 1.566e-3
-1.346, 1.545e-3
-1.347, 1.526e-3
-1.348, 1.526e-3
-1.349, 1.532e-3
-1.350, 1.542e-3
-1.351, 1.542e-3
-1.352, 1.526e-3
-1.353, 1.508e-3
-1.354, 1.499e-3
-1.355, 1.505e-3
-1.356, 1.520e-3
-1.357, 1.529e-3
-1.358, 1.523e-3
-1.359, 1.514e-3
-1.360, 1.499e-3
-1.361, 1.499e-3
-1.362, 1.514e-3
-1.363, 1.532e-3
-1.364, 1.542e-3
-1.365, 1.539e-3
-1.366, 1.523e-3
-1.367, 1.517e-3
-1.368, 1.529e-3
-1.369, 1.548e-3
-1.370, 1.569e-3
-1.371, 1.579e-3
-1.372, 1.573e-3
-1.373, 1.563e-3
-1.374, 1.563e-3
-1.375, 1.579e-3
-1.376, 1.603e-3
-1.377, 1.619e-3
-1.378, 1.625e-3
-1.379, 1.619e-3
-1.380, 1.616e-3
-1.381, 1.622e-3
-1.382, 1.643e-3
-1.383, 1.671e-3
-1.384, 1.687e-3
-1.385, 1.690e-3
-1.386, 1.687e-3
-1.387, 1.690e-3
-1.388, 1.705e-3
-1.389, 1.733e-3
-1.390, 1.761e-3
-1.391, 1.776e-3
-1.392, 1.776e-3
-1.393, 1.776e-3
-1.394, 1.782e-3
-1.395, 1.807e-3
-1.396, 1.832e-3
-1.397, 1.853e-3
-1.398, 1.862e-3
-1.399, 1.862e-3
-1.400, 1.865e-3
-1.401, 1.878e-3
-1.402, 1.906e-3
-1.403, 1.936e-3
-1.404, 1.958e-3
-1.405, 1.967e-3
-1.406, 1.970e-3
-1.407, 1.976e-3
-1.408, 1.995e-3
-1.409, 2.023e-3
-1.410, 2.050e-3
-1.411, 2.066e-3
-1.412, 2.072e-3
-1.413, 2.069e-3
-1.414, 2.081e-3
-1.415, 2.106e-3
-1.416, 2.140e-3
-1.417, 2.164e-3
-1.418, 2.174e-3
-1.419, 2.174e-3
-1.420, 2.177e-3
-1.421, 2.192e-3
-1.422, 2.217e-3
-1.423, 2.248e-3
-1.424, 2.266e-3
-1.425, 2.272e-3
-1.426, 2.269e-3
-1.427, 2.272e-3
-1.428, 2.294e-3
-1.429, 2.322e-3
-1.430, 2.346e-3
-1.431, 2.365e-3
-1.432, 2.365e-3
-1.433, 2.368e-3
-1.434, 2.377e-3
-1.435, 2.399e-3
-1.436, 2.423e-3
-1.437, 2.442e-3
-1.438, 2.451e-3
-1.439, 2.451e-3
-1.440, 2.451e-3
-1.441, 2.467e-3
-1.442, 2.494e-3
-1.443, 2.528e-3
-1.444, 2.547e-3
-1.445, 2.556e-3
-1.446, 2.556e-3
-1.447, 2.562e-3
-1.448, 2.581e-3
-1.449, 2.605e-3
-1.450, 2.630e-3
-1.451, 2.645e-3
-1.452, 2.652e-3
-1.453, 2.661e-3
-1.454, 2.679e-3
-1.455, 2.716e-3
-1.456, 2.760e-3
-1.457, 2.800e-3
-1.458, 2.827e-3
-1.459, 2.849e-3
-1.460, 2.874e-3
-1.461, 2.911e-3
-1.462, 2.966e-3
-1.463, 3.025e-3
-1.464, 3.077e-3
-1.465, 3.126e-3
-1.466, 3.173e-3
-1.467, 3.231e-3
-1.468, 3.305e-3
-1.469, 3.395e-3
-1.470, 3.490e-3
-1.471, 3.577e-3
-1.472, 3.657e-3
-1.473, 3.737e-3
-1.474, 3.826e-3
-1.475, 3.934e-3
-1.476, 4.054e-3
-1.477, 4.172e-3
-1.478, 4.280e-3
-1.479, 4.387e-3
-1.480, 4.498e-3
-1.481, 4.625e-3
-1.482, 4.767e-3
-1.483, 4.915e-3
-1.484, 5.053e-3
-1.485, 5.180e-3
-1.486, 5.300e-3
-1.487, 5.420e-3
-1.488, 5.550e-3
-1.489, 5.688e-3
-1.490, 5.824e-3
-1.491, 5.954e-3
-1.492, 6.071e-3
-1.493, 6.185e-3
-1.494, 6.305e-3
-1.495, 6.428e-3
-1.496, 6.564e-3
-1.497, 6.691e-3
-1.498, 6.805e-3
-1.499, 6.912e-3
-1.500, 6.940e-3
-1.499, 6.869e-3
-1.498, 6.820e-3
-1.497, 6.780e-3
-1.496, 6.734e-3
-1.495, 6.678e-3
-1.494, 6.610e-3
-1.493, 6.546e-3
-1.492, 6.487e-3
-1.491, 6.432e-3
-1.490, 6.370e-3
-1.489, 6.296e-3
-1.488, 6.216e-3
-1.487, 6.123e-3
-1.486, 6.040e-3
-1.485, 5.972e-3
-1.484, 5.920e-3
-1.483, 5.867e-3
-1.482, 5.806e-3
-1.481, 5.732e-3
-1.480, 5.655e-3
-1.479, 5.584e-3
-1.478, 5.525e-3
-1.477, 5.467e-3
-1.476, 5.396e-3
-1.475, 5.312e-3
-1.474, 5.226e-3
-1.473, 5.146e-3
-1.472, 5.078e-3
-1.471, 5.016e-3
-1.470, 4.958e-3
-1.469, 4.890e-3
-1.468, 4.816e-3
-1.467, 4.736e-3
-1.466, 4.668e-3
-1.465, 4.606e-3
-1.464, 4.551e-3
-1.463, 4.492e-3
-1.462, 4.424e-3
-1.461, 4.347e-3
-1.460, 4.267e-3
-1.459, 4.202e-3
-1.458, 4.147e-3
-1.457, 4.095e-3
-1.456, 4.036e-3
-1.455, 3.968e-3
-1.454, 3.891e-3
-1.453, 3.823e-3
-1.452, 3.762e-3
-1.451, 3.706e-3
-1.450, 3.654e-3
-1.449, 3.592e-3
-1.448, 3.521e-3
-1.447, 3.438e-3
-1.446, 3.373e-3
-1.445, 3.321e-3
-1.444, 3.274e-3
-1.443, 3.228e-3
-1.442, 3.163e-3
-1.441, 3.093e-3
-1.440, 3.028e-3
-1.439, 2.969e-3
-1.438, 2.923e-3
-1.437, 2.877e-3
-1.436, 2.821e-3
-1.435, 2.756e-3
-1.434, 2.686e-3
-1.433, 2.618e-3
-1.432, 2.571e-3
-1.431, 2.534e-3
-1.430, 2.488e-3
-1.429, 2.439e-3
-1.428, 2.377e-3
-1.427, 2.312e-3
-1.426, 2.260e-3
-1.425, 2.217e-3
-1.424, 2.180e-3
-1.423, 2.137e-3
-1.422, 2.081e-3
-1.421, 2.023e-3
-1.420, 1.961e-3
-1.419, 1.915e-3
-1.418, 1.878e-3
-1.417, 1.844e-3
-1.416, 1.801e-3
-1.415, 1.748e-3
-1.414, 1.693e-3
-1.413, 1.643e-3
-1.412, 1.603e-3
-1.411, 1.573e-3
-1.410, 1.542e-3
-1.409, 1.495e-3
-1.408, 1.443e-3
-1.407, 1.391e-3
-1.406, 1.347e-3
-1.405, 1.320e-3
-1.404, 1.292e-3
-1.403, 1.258e-3
-1.402, 1.215e-3
-1.401, 1.169e-3
-1.400, 1.125e-3
-1.399, 1.092e-3
-1.398, 1.067e-3
-1.397, 1.045e-3
-1.396, 1.014e-3
-1.395, 9.713e-4
-1.394, 9.251e-4
-1.393, 8.881e-4
-1.392, 8.634e-4
-1.391, 8.480e-4
-1.390, 8.233e-4
-1.389, 7.925e-4
-1.388, 7.524e-4
-1.387, 7.093e-4
-1.386, 6.815e-4
-1.385, 6.630e-4
-1.384, 6.476e-4
-1.383, 6.291e-4
-1.382, 5.952e-4
-1.381, 5.582e-4
-1.380, 5.274e-4
-1.379, 5.027e-4
-1.378, 4.904e-4
-1.377, 4.811e-4
-1.376, 4.595e-4
-1.375, 4.256e-4
-1.374, 3.917e-4
-1.373, 3.640e-4
-1.372, 3.485e-4
-1.371, 3.393e-4
-1.370, 3.270e-4
-1.369, 3.054e-4
-1.368, 2.776e-4
-1.367, 2.437e-4
-1.366, 2.252e-4
-1.365, 2.191e-4
-1.364, 2.160e-4
-1.363, 2.067e-4
-1.362, 1.821e-4
-1.361, 1.543e-4
-1.360, 1.266e-4
-1.359, 1.142e-4
-1.358, 1.081e-4
-1.357, 1.081e-4
-1.356, 9.265e-5
-1.355, 7.107e-5
-1.354, 4.332e-5
-1.353, 2.174e-5
-1.352, 1.249e-5
-1.351, 1.557e-5
-1.350, 9.405e-6
-1.349, -2.927e-6
-1.348, -2.759e-5
-1.347, -5.226e-5
-1.346, -6.767e-5
-1.345, -6.767e-5
-1.344, -6.767e-5
-1.343, -7.076e-5
-1.342, -8.925e-5
-1.341, -1.139e-4
-1.340, -1.355e-4
-1.339, -1.417e-4
-1.338, -1.386e-4
-1.337, -1.386e-4
-1.336, -1.448e-4
-1.335, -1.663e-4
-1.334, -1.879e-4
-1.333, -2.033e-4
-1.332, -2.064e-4
-1.331, -2.002e-4
-1.330, -2.033e-4
-1.329, -2.126e-4
-1.328, -2.311e-4
-1.327, -2.557e-4
-1.326, -2.650e-4
-1.325, -2.650e-4
-1.324, -2.588e-4
-1.323, -2.588e-4
-1.322, -2.742e-4
-1.321, -2.958e-4
-1.320, -3.112e-4
-1.319, -3.174e-4
-1.318, -3.174e-4
-1.317, -3.112e-4
-1.316, -3.174e-4
-1.315, -3.328e-4
-1.314, -3.575e-4
-1.313, -3.698e-4
-1.312, -3.698e-4
-1.311, -3.637e-4
-1.310, -3.606e-4
-1.309, -3.698e-4
-1.308, -3.852e-4
-1.307, -4.068e-4
-1.306, -4.161e-4
-1.305, -4.130e-4
-1.304, -4.068e-4
-1.303, -4.068e-4
-1.302, -4.222e-4
-1.301, -4.407e-4
-1.300, -4.592e-4
-1.299, -4.654e-4
-1.298, -4.623e-4
-1.297, -4.531e-4
-1.296, -4.561e-4
-1.295, -4.746e-4
-1.294, -4.931e-4
-1.293, -5.086e-4
-1.292, -5.086e-4
-1.291, -4.993e-4
-1.290, -4.993e-4
-1.289, -5.055e-4
-1.288, -5.271e-4
-1.287, -5.456e-4
-1.286, -5.579e-4
-1.285, -5.517e-4
-1.284, -5.456e-4
-1.283, -5.456e-4
-1.282, -5.548e-4
-1.281, -5.764e-4
-1.280, -5.949e-4
-1.279, -5.980e-4
-1.278, -5.949e-4
-1.277, -5.856e-4
-1.276, -5.887e-4
-1.275, -6.072e-4
-1.274, -6.257e-4
-1.273, -6.411e-4
-1.272, -6.411e-4
-1.271, -6.350e-4
-1.270, -6.288e-4
-1.269, -6.380e-4
-1.268, -6.565e-4
-1.267, -6.750e-4
-1.266, -6.843e-4
-1.265, -6.812e-4
-1.264, -6.689e-4
-1.263, -6.720e-4
-1.262, -6.812e-4
-1.261, -7.028e-4
-1.260, -7.182e-4
-1.259, -7.244e-4
-1.258, -7.182e-4
-1.257, -7.120e-4
-1.256, -7.151e-4
-1.255, -7.367e-4
-1.254, -7.552e-4
-1.253, -7.706e-4
-1.252, -7.706e-4
-1.251, -7.614e-4
-1.250, -7.583e-4
-1.249, -7.645e-4
-1.248, -7.830e-4
-1.247, -8.045e-4
-1.246, -8.138e-4
-1.245, -8.107e-4
-1.244, -8.076e-4
-1.243, -8.076e-4
-1.242, -8.200e-4
-1.241, -8.415e-4
-1.240, -8.569e-4
-1.239, -8.631e-4
-1.238, -8.569e-4
-1.237, -8.477e-4
-1.236, -8.508e-4
-1.235, -8.693e-4
-1.234, -8.909e-4
-1.233, -9.063e-4
-1.232, -9.063e-4
-1.231, -9.001e-4
-1.230, -8.970e-4
-1.229, -9.094e-4
-1.228, -9.279e-4
-1.227, -9.464e-4
-1.226, -9.556e-4
-1.225, -9.556e-4
-1.224, -9.464e-4
-1.223, -9.464e-4
-1.222, -9.556e-4
-1.221, -9.803e-4
-1.220, -9.988e-4
-1.219, -1.005e-3
-1.218, -1.002e-3
-1.217, -9.926e-4
-1.216, -9.988e-4
-1.215, -1.017e-3
-1.214, -1.039e-3
-1.213, -1.054e-3
-1.212, -1.057e-3
-1.211, -1.048e-3
-1.210, -1.045e-3
-1.209, -1.054e-3
-1.208, -1.073e-3
-1.207, -1.097e-3
-1.206, -1.110e-3
-1.205, -1.107e-3
-1.204, -1.104e-3
-1.203, -1.104e-3
-1.202, -1.119e-3
-1.201, -1.141e-3
-1.200, -1.156e-3
-1.199, -1.165e-3
-1.198, -1.162e-3
-1.197, -1.156e-3
-1.196, -1.162e-3
-1.195, -1.181e-3
-1.194, -1.205e-3
-1.193, -1.224e-3
-1.192, -1.227e-3
-1.191, -1.224e-3
-1.190, -1.221e-3
-1.189, -1.230e-3
-1.188, -1.252e-3
-1.187, -1.276e-3
-1.186, -1.292e-3
-1.185, -1.292e-3
-1.184, -1.289e-3
-1.183, -1.292e-3
-1.182, -1.310e-3
-1.181, -1.335e-3
-1.180, -1.356e-3
-1.179, -1.363e-3
-1.178, -1.363e-3
-1.177, -1.359e-3
-1.176, -1.366e-3
-1.175, -1.384e-3
-1.174, -1.412e-3
-1.173, -1.427e-3
-1.172, -1.433e-3
-1.171, -1.430e-3
-1.170, -1.430e-3
-1.169, -1.443e-3
-1.168, -1.464e-3
-1.167, -1.489e-3
-1.166, -1.507e-3
-1.165, -1.507e-3
-1.164, -1.504e-3
-1.163, -1.511e-3
-1.162, -1.526e-3
-1.161, -1.554e-3
-1.160, -1.575e-3
-1.159, -1.585e-3
-1.158, -1.585e-3
-1.157, -1.581e-3
-1.156, -1.588e-3
-1.155, -1.603e-3
-1.154, -1.625e-3
-1.153, -1.643e-3
-1.152, -1.649e-3
-1.151, -1.646e-3
-1.150, -1.646e-3
-1.149, -1.659e-3
-1.148, -1.683e-3
-1.147, -1.711e-3
-1.146, -1.729e-3
-1.145, -1.729e-3
-1.144, -1.726e-3
-1.143, -1.729e-3
-1.142, -1.745e-3
-1.141, -1.766e-3
-1.140, -1.785e-3
-1.139, -1.791e-3
-1.138, -1.788e-3
-1.137, -1.782e-3
-1.136, -1.785e-3
-1.135, -1.803e-3
-1.134, -1.828e-3
-1.133, -1.847e-3
-1.132, -1.856e-3
-1.131, -1.850e-3
-1.130, -1.847e-3
-1.129, -1.859e-3
-1.128, -1.874e-3
-1.127, -1.893e-3
-1.126, -1.902e-3
-1.125, -1.899e-3
-1.124, -1.893e-3
-1.123, -1.893e-3
-1.122, -1.902e-3
-1.121, -1.927e-3
-1.120, -1.945e-3
-1.119, -1.955e-3
-1.118, -1.955e-3
-1.117, -1.945e-3
-1.116, -1.948e-3
-1.115, -1.964e-3
-1.114, -1.982e-3
-1.113, -1.995e-3
-1.112, -1.995e-3
-1.111, -1.985e-3
-1.110, -1.979e-3
-1.109, -1.982e-3
-1.108, -1.998e-3
-1.107, -2.019e-3
-1.106, -2.032e-3
-1.105, -2.029e-3
-1.104, -2.019e-3
-1.103, -2.013e-3
-1.102, -2.025e-3
-1.101, -2.041e-3
-1.100, -2.053e-3
-1.099, -2.056e-3
-1.098, -2.047e-3
-1.097, -2.032e-3
-1.096, -2.029e-3
-1.095, -2.041e-3
-1.094, -2.059e-3
-1.093, -2.069e-3
-1.092, -2.072e-3
-1.091, -2.062e-3
-1.090, -2.056e-3
-1.089, -2.059e-3
-1.088, -2.072e-3
-1.087, -2.090e-3
-1.086, -2.096e-3
-1.085, -2.087e-3
-1.084, -2.075e-3
-1.083, -2.069e-3
-1.082, -2.078e-3
-1.081, -2.093e-3
-1.080, -2.106e-3
-1.079, -2.106e-3
-1.078, -2.099e-3
-1.077, -2.087e-3
-1.076, -2.084e-3
-1.075, -2.093e-3
-1.074, -2.106e-3
-1.073, -2.115e-3
-1.072, -2.109e-3
-1.071, -2.096e-3
-1.070, -2.087e-3
-1.069, -2.087e-3
-1.068, -2.099e-3
-1.067, -2.115e-3
-1.066, -2.115e-3
-1.065, -2.103e-3
-1.064, -2.090e-3
-1.063, -2.084e-3
-1.062, -2.090e-3
-1.061, -2.106e-3
-1.060, -2.118e-3
-1.059, -2.115e-3
-1.058, -2.099e-3
-1.057, -2.084e-3
-1.056, -2.075e-3
-1.055, -2.081e-3
-1.054, -2.087e-3
-1.053, -2.090e-3
-1.052, -2.087e-3
-1.051, -2.069e-3
-1.050, -2.059e-3
-1.049, -2.062e-3
-1.048, -2.075e-3
-1.047, -2.087e-3
-1.046, -2.090e-3
-1.045, -2.078e-3
-1.044, -2.062e-3
-1.043, -2.053e-3
-1.042, -2.056e-3
-1.041, -2.069e-3
-1.040, -2.081e-3
-1.039, -2.078e-3
-1.038, -2.066e-3
-1.037, -2.050e-3
-1.036, -2.047e-3
-1.035, -2.053e-3
-1.034, -2.066e-3
-1.033, -2.072e-3
-1.032, -2.062e-3
-1.031, -2.047e-3
-1.030, -2.044e-3
-1.029, -2.044e-3
-1.028, -2.050e-3
-1.027, -2.062e-3
-1.026, -2.062e-3
-1.025, -2.050e-3
-1.024, -2.032e-3
-1.023, -2.022e-3
-1.022, -2.025e-3
-1.021, -2.035e-3
-1.020, -2.041e-3
-1.019, -2.038e-3
-1.018, -2.022e-3
-1.017, -2.010e-3
-1.016, -2.004e-3
-1.015, -2.013e-3
-1.014, -2.022e-3
-1.013, -2.029e-3
-1.012, -2.022e-3
-1.011, -2.004e-3
-1.010, -1.992e-3
-1.009, -1.992e-3
-1.008, -1.995e-3
-1.007, -2.004e-3
-1.006, -2.004e-3
-1.005, -1.992e-3
-1.004, -1.973e-3
-1.003, -1.964e-3
-1.002, -1.967e-3
-1.001, -1.976e-3
