Jan. 9, 2025   12:07:15
Cyclic Voltammetry
File: c:/users/guazh/data/banditlqround7_x0exp772_r5/2025-01-08-exp808\exp808-2025-01-09t11_57_37-arkoh\exp808_cv_sr_100mvs_efin_-1500mv.bin
Data Source:  Experiment
Instrument Model:  CHI760E
Header: CV ran at 100 mVs
Note: 

Init E (V) = -1
High E (V) = -1
Low E (V) = -1.5
Final E (V) = -1
Init P/N = N
Scan Rate (V/s) = 0.1
Segment = 3
Sample Interval (V) = 0.001
Quiet Time (sec) = 2
Sensitivity (A/V) = 0.01
Comp R (ohm) = 1.5

Results:

Channel 1:
Segment 1:
Ep = -1.229V
ip = 2.752e-4A
Ah = 2.121e-4C

Segment 2:

Segment 3:

Potential/V, Current/A

-1.000, 4.519e-7
-1.001, 3.484e-5
-1.002, 4.883e-5
-1.003, 4.325e-5
-1.004, 6.395e-5
-1.005, 5.437e-5
-1.006, 6.365e-5
-1.007, 7.074e-5
-1.008, 6.129e-5
-1.009, 8.015e-5
-1.010, 6.907e-5
-1.011, 7.716e-5
-1.012, 8.369e-5
-1.013, 7.341e-5
-1.014, 9.146e-5
-1.015, 8.025e-5
-1.016, 8.774e-5
-1.017, 9.375e-5
-1.018, 8.368e-5
-1.019, 1.009e-4
-1.020, 8.966e-5
-1.021, 9.753e-5
-1.022, 1.032e-4
-1.023, 9.305e-5
-1.024, 1.105e-4
-1.025, 9.875e-5
-1.026, 1.063e-4
-1.027, 1.117e-4
-1.028, 1.017e-4
-1.029, 1.191e-4
-1.030, 1.071e-4
-1.031, 1.148e-4
-1.032, 1.203e-4
-1.033, 1.101e-4
-1.034, 1.274e-4
-1.035, 1.154e-4
-1.036, 1.236e-4
-1.037, 1.285e-4
-1.038, 1.185e-4
-1.039, 1.361e-4
-1.040, 1.237e-4
-1.041, 1.317e-4
-1.042, 1.371e-4
-1.043, 1.266e-4
-1.044, 1.446e-4
-1.045, 1.320e-4
-1.046, 1.398e-4
-1.047, 1.454e-4
-1.048, 1.346e-4
-1.049, 1.522e-4
-1.050, 1.404e-4
-1.051, 1.480e-4
-1.052, 1.536e-4
-1.053, 1.428e-4
-1.054, 1.602e-4
-1.055, 1.487e-4
-1.056, 1.562e-4
-1.057, 1.611e-4
-1.058, 1.509e-4
-1.059, 1.682e-4
-1.060, 1.563e-4
-1.061, 1.639e-4
-1.062, 1.689e-4
-1.063, 1.586e-4
-1.064, 1.767e-4
-1.065, 1.643e-4
-1.066, 1.718e-4
-1.067, 1.769e-4
-1.068, 1.672e-4
-1.069, 1.842e-4
-1.070, 1.718e-4
-1.071, 1.805e-4
-1.072, 1.852e-4
-1.073, 1.750e-4
-1.074, 1.927e-4
-1.075, 1.808e-4
-1.076, 1.893e-4
-1.077, 1.938e-4
-1.078, 1.837e-4
-1.079, 2.018e-4
-1.080, 1.891e-4
-1.081, 1.978e-4
-1.082, 2.031e-4
-1.083, 1.928e-4
-1.084, 2.112e-4
-1.085, 1.987e-4
-1.086, 2.075e-4
-1.087, 2.126e-4
-1.088, 2.031e-4
-1.089, 2.215e-4
-1.090, 2.095e-4
-1.091, 2.184e-4
-1.092, 2.240e-4
-1.093, 2.139e-4
-1.094, 2.324e-4
-1.095, 2.214e-4
-1.096, 2.299e-4
-1.097, 2.354e-4
-1.098, 2.266e-4
-1.099, 2.454e-4
-1.100, 2.331e-4
-1.101, 2.428e-4
-1.102, 2.491e-4
-1.103, 2.397e-4
-1.104, 2.583e-4
-1.105, 2.476e-4
-1.106, 2.580e-4
-1.107, 2.633e-4
-1.108, 2.548e-4
-1.109, 2.744e-4
-1.110, 2.626e-4
-1.111, 2.729e-4
-1.112, 2.789e-4
-1.113, 2.706e-4
-1.114, 2.913e-4
-1.115, 2.788e-4
-1.116, 2.907e-4
-1.117, 2.968e-4
-1.118, 2.880e-4
-1.119, 3.090e-4
-1.120, 2.976e-4
-1.121, 3.085e-4
-1.122, 3.152e-4
-1.123, 3.072e-4
-1.124, 3.279e-4
-1.125, 3.162e-4
-1.126, 3.274e-4
-1.127, 3.343e-4
-1.128, 3.258e-4
-1.129, 3.473e-4
-1.130, 3.363e-4
-1.131, 3.481e-4
-1.132, 3.550e-4
-1.133, 3.472e-4
-1.134, 3.674e-4
-1.135, 3.565e-4
-1.136, 3.686e-4
-1.137, 3.744e-4
-1.138, 3.683e-4
-1.139, 3.884e-4
-1.140, 3.778e-4
-1.141, 3.904e-4
-1.142, 3.973e-4
-1.143, 3.893e-4
-1.144, 4.102e-4
-1.145, 4.000e-4
-1.146, 4.122e-4
-1.147, 4.194e-4
-1.148, 4.126e-4
-1.149, 4.335e-4
-1.150, 4.230e-4
-1.151, 4.350e-4
-1.152, 4.415e-4
-1.153, 4.349e-4
-1.154, 4.553e-4
-1.155, 4.442e-4
-1.156, 4.586e-4
-1.157, 4.653e-4
-1.158, 4.575e-4
-1.159, 4.797e-4
-1.160, 4.688e-4
-1.161, 4.806e-4
-1.162, 4.874e-4
-1.163, 4.818e-4
-1.164, 5.035e-4
-1.165, 4.922e-4
-1.166, 5.052e-4
-1.167, 5.130e-4
-1.168, 5.063e-4
-1.169, 5.271e-4
-1.170, 5.162e-4
-1.171, 5.295e-4
-1.172, 5.369e-4
-1.173, 5.293e-4
-1.174, 5.509e-4
-1.175, 5.399e-4
-1.176, 5.542e-4
-1.177, 5.640e-4
-1.178, 5.540e-4
-1.179, 5.733e-4
-1.180, 5.651e-4
-1.181, 5.779e-4
-1.182, 5.822e-4
-1.183, 5.769e-4
-1.184, 5.990e-4
-1.185, 5.856e-4
-1.186, 6.009e-4
-1.187, 6.075e-4
-1.188, 5.994e-4
-1.189, 6.192e-4
-1.190, 6.065e-4
-1.191, 6.209e-4
-1.192, 6.280e-4
-1.193, 6.191e-4
-1.194, 6.402e-4
-1.195, 6.295e-4
-1.196, 6.417e-4
-1.197, 6.473e-4
-1.198, 6.379e-4
-1.199, 6.587e-4
-1.200, 6.476e-4
-1.201, 6.589e-4
-1.202, 6.654e-4
-1.203, 6.570e-4
-1.204, 6.766e-4
-1.205, 6.627e-4
-1.206, 6.742e-4
-1.207, 6.794e-4
-1.208, 6.697e-4
-1.209, 6.903e-4
-1.210, 6.773e-4
-1.211, 6.841e-4
-1.212, 6.893e-4
-1.213, 6.821e-4
-1.214, 6.974e-4
-1.215, 6.829e-4
-1.216, 6.960e-4
-1.217, 6.969e-4
-1.218, 6.850e-4
-1.219, 7.056e-4
-1.220, 6.901e-4
-1.221, 6.972e-4
-1.222, 7.011e-4
-1.223, 6.902e-4
-1.224, 7.060e-4
-1.225, 6.901e-4
-1.226, 6.984e-4
-1.227, 6.991e-4
-1.228, 6.881e-4
-1.229, 7.084e-4
-1.230, 6.897e-4
-1.231, 6.969e-4
-1.232, 6.971e-4
-1.233, 6.847e-4
-1.234, 7.011e-4
-1.235, 6.821e-4
-1.236, 6.888e-4
-1.237, 6.881e-4
-1.238, 6.727e-4
-1.239, 6.881e-4
-1.240, 6.705e-4
-1.241, 6.763e-4
-1.242, 6.758e-4
-1.243, 6.619e-4
-1.244, 6.761e-4
-1.245, 6.561e-4
-1.246, 6.625e-4
-1.247, 6.611e-4
-1.248, 6.452e-4
-1.249, 6.606e-4
-1.250, 6.410e-4
-1.251, 6.453e-4
-1.252, 6.440e-4
-1.253, 6.281e-4
-1.254, 6.429e-4
-1.255, 6.227e-4
-1.256, 6.270e-4
-1.257, 6.259e-4
-1.258, 6.076e-4
-1.259, 6.226e-4
-1.260, 6.028e-4
-1.261, 6.048e-4
-1.262, 6.051e-4
-1.263, 5.905e-4
-1.264, 6.020e-4
-1.265, 5.816e-4
-1.266, 5.862e-4
-1.267, 5.838e-4
-1.268, 5.676e-4
-1.269, 5.817e-4
-1.270, 5.611e-4
-1.271, 5.643e-4
-1.272, 5.630e-4
-1.273, 5.478e-4
-1.274, 5.604e-4
-1.275, 5.415e-4
-1.276, 5.452e-4
-1.277, 5.441e-4
-1.278, 5.286e-4
-1.279, 5.420e-4
-1.280, 5.238e-4
-1.281, 5.288e-4
-1.282, 5.257e-4
-1.283, 5.114e-4
-1.284, 5.272e-4
-1.285, 5.058e-4
-1.286, 5.128e-4
-1.287, 5.128e-4
-1.288, 4.961e-4
-1.289, 5.116e-4
-1.290, 4.931e-4
-1.291, 4.986e-4
-1.292, 4.995e-4
-1.293, 4.850e-4
-1.294, 5.007e-4
-1.295, 4.822e-4
-1.296, 4.882e-4
-1.297, 4.906e-4
-1.298, 4.763e-4
-1.299, 4.917e-4
-1.300, 4.750e-4
-1.301, 4.827e-4
-1.302, 4.848e-4
-1.303, 4.707e-4
-1.304, 4.887e-4
-1.305, 4.732e-4
-1.306, 4.811e-4
-1.307, 4.828e-4
-1.308, 4.704e-4
-1.309, 4.882e-4
-1.310, 4.735e-4
-1.311, 4.820e-4
-1.312, 4.851e-4
-1.313, 4.738e-4
-1.314, 4.925e-4
-1.315, 4.776e-4
-1.316, 4.866e-4
-1.317, 4.906e-4
-1.318, 4.807e-4
-1.319, 4.995e-4
-1.320, 4.857e-4
-1.321, 4.962e-4
-1.322, 5.018e-4
-1.323, 4.916e-4
-1.324, 5.114e-4
-1.325, 4.978e-4
-1.326, 5.095e-4
-1.327, 5.154e-4
-1.328, 5.045e-4
-1.329, 5.268e-4
-1.330, 5.150e-4
-1.331, 5.258e-4
-1.332, 5.333e-4
-1.333, 5.247e-4
-1.334, 5.465e-4
-1.335, 5.347e-4
-1.336, 5.465e-4
-1.337, 5.553e-4
-1.338, 5.462e-4
-1.339, 5.691e-4
-1.340, 5.592e-4
-1.341, 5.717e-4
-1.342, 5.793e-4
-1.343, 5.716e-4
-1.344, 5.949e-4
-1.345, 5.852e-4
-1.346, 5.976e-4
-1.347, 6.083e-4
-1.348, 6.013e-4
-1.349, 6.248e-4
-1.350, 6.141e-4
-1.351, 6.295e-4
-1.352, 6.392e-4
-1.353, 6.313e-4
-1.354, 6.576e-4
-1.355, 6.477e-4
-1.356, 6.609e-4
-1.357, 6.722e-4
-1.358, 6.641e-4
-1.359, 6.874e-4
-1.360, 6.818e-4
-1.361, 6.954e-4
-1.362, 7.050e-4
-1.363, 6.999e-4
-1.364, 7.260e-4
-1.365, 7.159e-4
-1.366, 7.310e-4
-1.367, 7.436e-4
-1.368, 7.344e-4
-1.369, 7.593e-4
-1.370, 7.507e-4
-1.371, 7.650e-4
-1.372, 7.773e-4
-1.373, 7.697e-4
-1.374, 7.943e-4
-1.375, 7.871e-4
-1.376, 7.998e-4
-1.377, 8.113e-4
-1.378, 8.058e-4
-1.379, 8.304e-4
-1.380, 8.203e-4
-1.381, 8.342e-4
-1.382, 8.483e-4
-1.383, 8.412e-4
-1.384, 8.641e-4
-1.385, 8.592e-4
-1.386, 8.716e-4
-1.387, 8.822e-4
-1.388, 8.790e-4
-1.389, 9.048e-4
-1.390, 8.975e-4
-1.391, 9.159e-4
-1.392, 9.304e-4
-1.393, 9.244e-4
-1.394, 9.553e-4
-1.395, 9.555e-4
-1.396, 9.710e-4
-1.397, 9.895e-4
-1.398, 9.956e-4
-1.399, 1.027e-3
-1.400, 1.032e-3
-1.401, 1.059e-3
-1.402, 1.088e-3
-1.403, 1.100e-3
-1.404, 1.143e-3
-1.405, 1.160e-3
-1.406, 1.196e-3
-1.407, 1.234e-3
-1.408, 1.260e-3
-1.409, 1.315e-3
-1.410, 1.342e-3
-1.411, 1.391e-3
-1.412, 1.445e-3
-1.413, 1.480e-3
-1.414, 1.545e-3
-1.415, 1.588e-3
-1.416, 1.646e-3
-1.417, 1.705e-3
-1.418, 1.754e-3
-1.419, 1.828e-3
-1.420, 1.874e-3
-1.421, 1.938e-3
-1.422, 2.004e-3
-1.423, 2.059e-3
-1.424, 2.138e-3
-1.425, 2.182e-3
-1.426, 2.251e-3
-1.427, 2.324e-3
-1.428, 2.373e-3
-1.429, 2.450e-3
-1.430, 2.510e-3
-1.431, 2.579e-3
-1.432, 2.646e-3
-1.433, 2.708e-3
-1.434, 2.791e-3
-1.435, 2.840e-3
-1.436, 2.914e-3
-1.437, 2.990e-3
-1.438, 3.041e-3
-1.439, 3.119e-3
-1.440, 3.185e-3
-1.441, 3.257e-3
-1.442, 3.322e-3
-1.443, 3.388e-3
-1.444, 3.476e-3
-1.445, 3.531e-3
-1.446, 3.604e-3
-1.447, 3.675e-3
-1.448, 3.735e-3
-1.449, 3.829e-3
-1.450, 3.884e-3
-1.451, 3.958e-3
-1.452, 4.035e-3
-1.453, 4.088e-3
-1.454, 4.176e-3
-1.455, 4.237e-3
-1.456, 4.303e-3
-1.457, 4.370e-3
-1.458, 4.427e-3
-1.459, 4.503e-3
-1.460, 4.566e-3
-1.461, 4.638e-3
-1.462, 4.702e-3
-1.463, 4.760e-3
-1.464, 4.842e-3
-1.465, 4.895e-3
-1.466, 4.957e-3
-1.467, 5.034e-3
-1.468, 5.095e-3
-1.469, 5.170e-3
-1.470, 5.224e-3
-1.471, 5.292e-3
-1.472, 5.353e-3
-1.473, 5.408e-3
-1.474, 5.483e-3
-1.475, 5.531e-3
-1.476, 5.605e-3
-1.477, 5.673e-3
-1.478, 5.723e-3
-1.479, 5.794e-3
-1.480, 5.838e-3
-1.481, 5.903e-3
-1.482, 5.964e-3
-1.483, 6.030e-3
-1.484, 6.101e-3
-1.485, 6.162e-3
-1.486, 6.232e-3
-1.487, 6.284e-3
-1.488, 6.351e-3
-1.489, 6.423e-3
-1.490, 6.487e-3
-1.491, 6.577e-3
-1.492, 6.625e-3
-1.493, 6.664e-3
-1.494, 6.766e-3
-1.495, 6.822e-3
-1.496, 6.899e-3
-1.497, 6.947e-3
-1.498, 6.973e-3
-1.499, 7.045e-3
-1.500, 7.023e-3
-1.499, 6.945e-3
-1.498, 6.853e-3
-1.497, 6.763e-3
-1.496, 6.700e-3
-1.495, 6.596e-3
-1.494, 6.514e-3
-1.493, 6.431e-3
-1.492, 6.357e-3
-1.491, 6.287e-3
-1.490, 6.196e-3
-1.489, 6.136e-3
-1.488, 6.065e-3
-1.487, 5.971e-3
-1.486, 5.915e-3
-1.485, 5.836e-3
-1.484, 5.755e-3
-1.483, 5.684e-3
-1.482, 5.601e-3
-1.481, 5.535e-3
-1.480, 5.444e-3
-1.479, 5.378e-3
-1.478, 5.292e-3
-1.477, 5.211e-3
-1.476, 5.158e-3
-1.475, 5.072e-3
-1.474, 5.018e-3
-1.473, 4.958e-3
-1.472, 4.872e-3
-1.471, 4.814e-3
-1.470, 4.745e-3
-1.469, 4.716e-3
-1.468, 4.633e-3
-1.467, 4.550e-3
-1.466, 4.497e-3
-1.465, 4.409e-3
-1.464, 4.351e-3
-1.463, 4.299e-3
-1.462, 4.223e-3
-1.461, 4.169e-3
-1.460, 4.098e-3
-1.459, 4.053e-3
-1.458, 3.988e-3
-1.457, 3.904e-3
-1.456, 3.875e-3
-1.455, 3.800e-3
-1.454, 3.728e-3
-1.453, 3.672e-3
-1.452, 3.602e-3
-1.451, 3.551e-3
-1.450, 3.479e-3
-1.449, 3.421e-3
-1.448, 3.373e-3
-1.447, 3.303e-3
-1.446, 3.260e-3
-1.445, 3.185e-3
-1.444, 3.136e-3
-1.443, 3.085e-3
-1.442, 3.016e-3
-1.441, 2.991e-3
-1.440, 2.924e-3
-1.439, 2.873e-3
-1.438, 2.818e-3
-1.437, 2.750e-3
-1.436, 2.711e-3
-1.435, 2.653e-3
-1.434, 2.607e-3
-1.433, 2.556e-3
-1.432, 2.492e-3
-1.431, 2.453e-3
-1.430, 2.389e-3
-1.429, 2.344e-3
-1.428, 2.295e-3
-1.427, 2.235e-3
-1.426, 2.206e-3
-1.425, 2.149e-3
-1.424, 2.103e-3
-1.423, 2.056e-3
-1.422, 2.007e-3
-1.421, 1.969e-3
-1.420, 1.910e-3
-1.419, 1.873e-3
-1.418, 1.831e-3
-1.417, 1.778e-3
-1.416, 1.750e-3
-1.415, 1.697e-3
-1.414, 1.659e-3
-1.413, 1.629e-3
-1.412, 1.573e-3
-1.411, 1.546e-3
-1.410, 1.502e-3
-1.409, 1.461e-3
-1.408, 1.429e-3
-1.407, 1.383e-3
-1.406, 1.357e-3
-1.405, 1.310e-3
-1.404, 1.277e-3
-1.403, 1.246e-3
-1.402, 1.205e-3
-1.401, 1.182e-3
-1.400, 1.143e-3
-1.399, 1.113e-3
-1.398, 1.080e-3
-1.397, 1.041e-3
-1.396, 1.024e-3
-1.395, 9.832e-4
-1.394, 9.569e-4
-1.393, 9.332e-4
-1.392, 8.945e-4
-1.391, 8.778e-4
-1.390, 8.412e-4
-1.389, 8.196e-4
-1.388, 7.980e-4
-1.387, 7.576e-4
-1.386, 7.484e-4
-1.385, 7.160e-4
-1.384, 6.962e-4
-1.383, 6.767e-4
-1.382, 6.430e-4
-1.381, 6.423e-4
-1.380, 6.061e-4
-1.379, 5.847e-4
-1.378, 5.698e-4
-1.377, 5.403e-4
-1.376, 5.330e-4
-1.375, 5.026e-4
-1.374, 4.889e-4
-1.373, 4.767e-4
-1.372, 4.476e-4
-1.371, 4.438e-4
-1.370, 4.169e-4
-1.369, 4.040e-4
-1.368, 3.940e-4
-1.367, 3.678e-4
-1.366, 3.676e-4
-1.365, 3.424e-4
-1.364, 3.318e-4
-1.363, 3.240e-4
-1.362, 2.984e-4
-1.361, 2.994e-4
-1.360, 2.778e-4
-1.359, 2.696e-4
-1.358, 2.621e-4
-1.357, 2.397e-4
-1.356, 2.430e-4
-1.355, 2.214e-4
-1.354, 2.146e-4
-1.353, 2.093e-4
-1.352, 1.885e-4
-1.351, 1.926e-4
-1.350, 1.717e-4
-1.349, 1.668e-4
-1.348, 1.626e-4
-1.347, 1.418e-4
-1.346, 1.488e-4
-1.345, 1.286e-4
-1.344, 1.248e-4
-1.343, 1.227e-4
-1.342, 1.029e-4
-1.341, 1.104e-4
-1.340, 9.148e-5
-1.339, 8.816e-5
-1.338, 8.605e-5
-1.337, 6.720e-5
-1.336, 7.646e-5
-1.335, 5.756e-5
-1.334, 5.487e-5
-1.333, 5.456e-5
-1.332, 3.647e-5
-1.331, 4.503e-5
-1.330, 2.756e-5
-1.329, 2.622e-5
-1.328, 2.591e-5
-1.327, 8.424e-6
-1.326, 1.812e-5
-1.325, 9.649e-7
-1.324, 5.505e-7
-1.323, 5.998e-7
-1.322, -1.647e-5
-1.321, -6.671e-6
-1.320, -2.280e-5
-1.319, -2.312e-5
-1.318, -2.241e-5
-1.317, -3.821e-5
-1.316, -2.807e-5
-1.315, -4.427e-5
-1.314, -4.337e-5
-1.313, -4.265e-5
-1.312, -5.863e-5
-1.311, -4.765e-5
-1.310, -6.421e-5
-1.309, -6.292e-5
-1.308, -6.264e-5
-1.307, -7.835e-5
-1.306, -6.651e-5
-1.305, -8.305e-5
-1.304, -8.136e-5
-1.303, -8.038e-5
-1.302, -9.676e-5
-1.301, -8.478e-5
-1.300, -1.012e-4
-1.299, -9.902e-5
-1.298, -9.761e-5
-1.297, -1.133e-4
-1.296, -1.006e-4
-1.295, -1.168e-4
-1.294, -1.150e-4
-1.293, -1.132e-4
-1.292, -1.285e-4
-1.291, -1.167e-4
-1.290, -1.327e-4
-1.289, -1.303e-4
-1.288, -1.292e-4
-1.287, -1.449e-4
-1.286, -1.323e-4
-1.285, -1.479e-4
-1.284, -1.453e-4
-1.283, -1.442e-4
-1.282, -1.589e-4
-1.281, -1.466e-4
-1.280, -1.630e-4
-1.279, -1.597e-4
-1.278, -1.581e-4
-1.277, -1.730e-4
-1.276, -1.609e-4
-1.275, -1.776e-4
-1.274, -1.752e-4
-1.273, -1.739e-4
-1.272, -1.881e-4
-1.271, -1.754e-4
-1.270, -1.915e-4
-1.269, -1.880e-4
-1.268, -1.865e-4
-1.267, -2.018e-4
-1.266, -1.890e-4
-1.265, -2.048e-4
-1.264, -2.019e-4
-1.263, -2.006e-4
-1.262, -2.155e-4
-1.261, -2.025e-4
-1.260, -2.187e-4
-1.259, -2.151e-4
-1.258, -2.137e-4
-1.257, -2.293e-4
-1.256, -2.159e-4
-1.255, -2.332e-4
-1.254, -2.285e-4
-1.253, -2.254e-4
-1.252, -2.419e-4
-1.251, -2.306e-4
-1.250, -2.447e-4
-1.249, -2.410e-4
-1.248, -2.409e-4
-1.247, -2.549e-4
-1.246, -2.418e-4
-1.245, -2.588e-4
-1.244, -2.551e-4
-1.243, -2.535e-4
-1.242, -2.687e-4
-1.241, -2.554e-4
-1.240, -2.710e-4
-1.239, -2.681e-4
-1.238, -2.674e-4
-1.237, -2.812e-4
-1.236, -2.675e-4
-1.235, -2.840e-4
-1.234, -2.802e-4
-1.233, -2.797e-4
-1.232, -2.933e-4
-1.231, -2.814e-4
-1.230, -2.985e-4
-1.229, -2.956e-4
-1.228, -2.948e-4
-1.227, -3.089e-4
-1.226, -2.955e-4
-1.225, -3.127e-4
-1.224, -3.090e-4
-1.223, -3.087e-4
-1.222, -3.240e-4
-1.221, -3.104e-4
-1.220, -3.274e-4
-1.219, -3.240e-4
-1.218, -3.243e-4
-1.217, -3.403e-4
-1.216, -3.247e-4
-1.215, -3.422e-4
-1.214, -3.392e-4
-1.213, -3.355e-4
-1.212, -3.516e-4
-1.211, -3.419e-4
-1.210, -3.577e-4
-1.209, -3.539e-4
-1.208, -3.567e-4
-1.207, -3.705e-4
-1.206, -3.565e-4
-1.205, -3.751e-4
-1.204, -3.724e-4
-1.203, -3.704e-4
-1.202, -3.862e-4
-1.201, -3.752e-4
-1.200, -3.906e-4
-1.199, -3.889e-4
-1.198, -3.900e-4
-1.197, -4.032e-4
-1.196, -3.919e-4
-1.195, -4.109e-4
-1.194, -4.056e-4
-1.193, -4.060e-4
-1.192, -4.238e-4
-1.191, -4.104e-4
-1.190, -4.262e-4
-1.189, -4.245e-4
-1.188, -4.270e-4
-1.187, -4.408e-4
-1.186, -4.287e-4
-1.185, -4.492e-4
-1.184, -4.450e-4
-1.183, -4.450e-4
-1.182, -4.615e-4
-1.181, -4.490e-4
-1.180, -4.660e-4
-1.179, -4.628e-4
-1.178, -4.650e-4
-1.177, -4.818e-4
-1.176, -4.688e-4
-1.175, -4.856e-4
-1.174, -4.826e-4
-1.173, -4.835e-4
-1.172, -4.985e-4
-1.171, -4.855e-4
-1.170, -5.028e-4
-1.169, -4.995e-4
-1.168, -4.988e-4
-1.167, -5.142e-4
-1.166, -5.026e-4
-1.165, -5.189e-4
-1.164, -5.137e-4
-1.163, -5.140e-4
-1.162, -5.296e-4
-1.161, -5.160e-4
-1.160, -5.324e-4
-1.159, -5.285e-4
-1.158, -5.286e-4
-1.157, -5.449e-4
-1.156, -5.310e-4
-1.155, -5.458e-4
-1.154, -5.400e-4
-1.153, -5.433e-4
-1.152, -5.539e-4
-1.151, -5.389e-4
-1.150, -5.587e-4
-1.149, -5.504e-4
-1.148, -5.481e-4
-1.147, -5.641e-4
-1.146, -5.521e-4
-1.145, -5.636e-4
-1.144, -5.574e-4
-1.143, -5.569e-4
-1.142, -5.687e-4
-1.141, -5.535e-4
-1.140, -5.690e-4
-1.139, -5.636e-4
-1.138, -5.607e-4
-1.137, -5.742e-4
-1.136, -5.587e-4
-1.135, -5.729e-4
-1.134, -5.681e-4
-1.133, -5.648e-4
-1.132, -5.760e-4
-1.131, -5.618e-4
-1.130, -5.766e-4
-1.129, -5.702e-4
-1.128, -5.676e-4
-1.127, -5.786e-4
-1.126, -5.653e-4
-1.125, -5.777e-4
-1.124, -5.704e-4
-1.123, -5.667e-4
-1.122, -5.775e-4
-1.121, -5.625e-4
-1.120, -5.771e-4
-1.119, -5.713e-4
-1.118, -5.667e-4
-1.117, -5.766e-4
-1.116, -5.619e-4
-1.115, -5.752e-4
-1.114, -5.681e-4
-1.113, -5.659e-4
-1.112, -5.764e-4
-1.111, -5.585e-4
-1.110, -5.719e-4
-1.109, -5.671e-4
-1.108, -5.628e-4
-1.107, -5.741e-4
-1.106, -5.585e-4
-1.105, -5.719e-4
-1.104, -5.638e-4
-1.103, -5.602e-4
-1.102, -5.715e-4
-1.101, -5.551e-4
-1.100, -5.685e-4
-1.099, -5.624e-4
-1.098, -5.572e-4
-1.097, -5.693e-4
-1.096, -5.536e-4
-1.095, -5.650e-4
-1.094, -5.576e-4
-1.093, -5.533e-4
-1.092, -5.666e-4
-1.091, -5.500e-4
-1.090, -5.593e-4
-1.089, -5.560e-4
-1.088, -5.519e-4
-1.087, -5.612e-4
-1.086, -5.481e-4
-1.085, -5.603e-4
-1.084, -5.487e-4
-1.083, -5.459e-4
-1.082, -5.585e-4
-1.081, -5.400e-4
-1.080, -5.524e-4
-1.079, -5.497e-4
-1.078, -5.432e-4
-1.077, -5.522e-4
-1.076, -5.391e-4
-1.075, -5.524e-4
-1.074, -5.431e-4
-1.073, -5.405e-4
-1.072, -5.519e-4
-1.071, -5.332e-4
-1.070, -5.474e-4
-1.069, -5.396e-4
-1.068, -5.355e-4
-1.067, -5.471e-4
-1.066, -5.311e-4
-1.065, -5.429e-4
-1.064, -5.368e-4
-1.063, -5.326e-4
-1.062, -5.434e-4
-1.061, -5.265e-4
-1.060, -5.378e-4
-1.059, -5.328e-4
-1.058, -5.284e-4
-1.057, -5.392e-4
-1.056, -5.241e-4
-1.055, -5.364e-4
-1.054, -5.291e-4
-1.053, -5.237e-4
-1.052, -5.349e-4
-1.051, -5.182e-4
-1.050, -5.295e-4
-1.049, -5.287e-4
-1.048, -5.323e-4
-1.047, -5.430e-4
-1.046, -5.207e-4
-1.045, -5.298e-4
-1.044, -5.271e-4
-1.043, -5.214e-4
-1.042, -5.294e-4
-1.041, -5.149e-4
-1.040, -5.273e-4
-1.039, -5.199e-4
-1.038, -5.150e-4
-1.037, -5.274e-4
-1.036, -5.110e-4
-1.035, -5.215e-4
-1.034, -5.159e-4
-1.033, -5.113e-4
-1.032, -5.219e-4
-1.031, -5.063e-4
-1.030, -5.190e-4
-1.029, -5.128e-4
-1.028, -5.076e-4
-1.027, -5.201e-4
-1.026, -5.045e-4
-1.025, -5.152e-4
-1.024, -5.109e-4
-1.023, -5.065e-4
-1.022, -5.162e-4
-1.021, -5.021e-4
-1.020, -5.147e-4
-1.019, -5.074e-4
-1.018, -5.027e-4
-1.017, -5.161e-4
-1.016, -4.998e-4
-1.015, -5.119e-4
-1.014, -5.084e-4
-1.013, -5.031e-4
-1.012, -5.139e-4
-1.011, -4.995e-4
-1.010, -5.115e-4
-1.009, -5.061e-4
-1.008, -5.013e-4
-1.007, -5.128e-4
-1.006, -4.990e-4
-1.005, -5.105e-4
-1.004, -5.059e-4
-1.003, -5.013e-4
-1.002, -5.118e-4
-1.001, -4.977e-4
