Potential V vs RHE, Current mA cm-2
0.013299999999999867,0.9573351366186703
0.012299999999999978,-0.8745745255765657
0.011299999999999866,-2.4007650758709675
0.010299999999999976,-3.7093730282461257
0.009299999999999864,-4.9302688800296535
0.008299999999999974,-5.977155241929781
0.007299999999999862,-7.024041603829907
0.006299999999999972,-7.984630576438266
0.00529999999999986,-8.899948787450944
0.0042999999999999705,-9.685113558876042
0.0032999999999998586,-10.382566229709504
0.0022999999999999687,-11.081433611842833
0.0012999999999998568,-11.691174182084664
0.00029999999999996696,-12.302329463626359
-0.000700000000000145,-12.913484745168056
-0.0017000000000000348,-13.523225315409885
-0.0027000000000001467,-14.090524546655764
-0.0037000000000000366,-14.65640906660178
-0.0047000000000001485,-15.094969569559943
-0.005700000000000038,-15.533530072518102
-0.00670000000000015,-16.014531914472215
-0.00770000000000004,-16.396503965435777
-0.008700000000000152,-16.792623129397985
-0.009700000000000042,-17.188742293360193
-0.010700000000000154,-17.627302796318357
-0.011700000000000044,-17.966833508285966
-0.012700000000000156,-18.362952672248177
-0.013700000000000045,-18.674189158218486
-0.014700000000000157,-18.92883719219419
-0.015700000000000047,-19.2400736781645
-0.01670000000000016,-19.49472171214021
-0.01770000000000005,-19.805958198110513
-0.01870000000000016,-20.10304757108217
-0.01970000000000005,-20.456725396048434
-0.020700000000000163,-20.72552054302279
-0.021700000000000053,-20.980168576998494
-0.022700000000000164,-21.2065223849769
-0.023700000000000054,-21.376287740960702
-0.024700000000000166,-21.58849443594046
-0.025700000000000056,-21.857289582914817
-0.026700000000000168,-22.069496277894572
-0.027700000000000058,-22.38073276386488
-0.02870000000000017,-22.592939458844636
-0.02970000000000006,-22.776851927827092
-0.03070000000000017,-22.989058622806844
-0.03170000000000006,-23.1163826397947
-0.03270000000000017,-23.300295108777156
-0.03370000000000006,-23.47006046476096
-0.034700000000000175,-23.639825820744765
-0.035700000000000065,-23.86617962872317
-0.03670000000000018,-24.078386323702922
-0.03770000000000007,-24.24815167968673
-0.03870000000000018,-24.389622809673234
-0.03970000000000007,-24.474505487665134
-0.04070000000000018,-24.559388165657033
-0.04170000000000007,-24.729153521640843
-0.04270000000000018,-24.9130659906233
-0.04370000000000007,-25.12527268560305
-0.044700000000000184,-25.295038041586857
-0.045700000000000074,-25.478950510569312
-0.046700000000000186,-25.60627452755716
-0.047700000000000076,-25.691157205549064
-0.04870000000000019,-25.81848122253692
-0.04970000000000008,-25.91751101352747
-0.05070000000000019,-26.044835030515326
-0.05170000000000008,-26.17215904750318
-0.05270000000000019,-26.34192440348698
-0.05370000000000008,-26.483395533473487
-0.05470000000000019,-26.568278211465387
-0.05570000000000008,-26.69560222845324
-0.056700000000000195,-26.738043567449193
-0.057700000000000085,-26.822926245441096
-0.058700000000000196,-26.907808923433
-0.059700000000000086,-27.00683871442355
-0.0607000000000002,-27.176604070407354
-0.06170000000000009,-27.303928087395207
-0.0627000000000002,-27.487840556377662
-0.06370000000000009,-27.572723234369565
-0.0647000000000002,-27.615164573365515
-0.06570000000000009,-27.700047251357418
-0.0667000000000002,-27.78492992934932
-0.0677000000000001,-27.912253946337174
-0.0687000000000002,-28.011283737327723
-0.0697000000000001,-28.13860775431558
-0.07070000000000021,-28.265931771303435
-0.0717000000000001,-28.308373110299385
-0.07270000000000021,-28.393255788291288
-0.0737000000000001,-28.435697127287238
-0.07470000000000021,-28.53472691827779
-0.0757000000000001,-28.619609596269694
-0.07670000000000021,-28.746933613257543
-0.0777000000000001,-28.8742576302454
-0.07870000000000021,-29.001581647233255
-0.0797000000000001,-29.100611438223805
-0.08070000000000022,-29.18549411621571
-0.0817000000000001,-29.22793545521166
-0.08270000000000022,-29.27037679420761
-0.08370000000000011,-29.39770081119546
-0.08470000000000022,-29.482583489187363
-0.08570000000000011,-29.62405461917387
-0.08670000000000022,-29.708937297165768
-0.08770000000000011,-29.836261314153624
-0.08870000000000022,-29.878702653149578
-0.08970000000000011,-29.921143992145527
-0.09070000000000022,-29.96358533114148
-0.09170000000000011,-30.04846800913338
-0.09270000000000023,-30.147497800123933
-0.09370000000000012,-30.274821817111786
-0.09470000000000023,-30.402145834099635
-0.09570000000000012,-30.487028512091538
-0.09670000000000023,-30.571911190083444
-0.09770000000000012,-30.614352529079397
-0.09870000000000023,-30.71338232006995
-0.09970000000000012,-30.79826499806185
-0.10070000000000023,-30.88314767605375
-0.10170000000000012,-31.010471693041605
-0.10270000000000024,-31.137795710029454
-0.10370000000000013,-31.23682550102001
-0.10470000000000024,-31.321708179011907
-0.10570000000000013,-31.321708179011907
-0.10670000000000024,-31.321708179011907
-0.10770000000000013,-31.36414951800786
-0.10870000000000024,-31.449032195999767
-0.10970000000000013,-31.533914873991666
-0.11070000000000024,-31.717827342974125
-0.11170000000000013,-31.802710020966025
-0.11270000000000002,-31.887592698957924
-0.11370000000000013,-31.930034037953877
-0.11470000000000002,-31.972475376949827
-0.11570000000000014,-32.05735805494172
-0.11670000000000003,-32.09979939393769
-0.11770000000000014,-32.14224073293363
-0.11870000000000003,-32.24127052392419
-0.11970000000000014,-32.368594540912035
-0.12070000000000003,-32.41103587990799
-0.12170000000000014,-32.49591855789989
-0.12270000000000003,-32.53835989689585
-0.12370000000000014,-32.58080123589179
-0.12470000000000003,-32.66568391388369
-0.12570000000000014,-32.764713704874254
-0.12670000000000003,-32.84959638286615
-0.12770000000000015,-32.93447906085806
-0.12870000000000004,-33.06180307784591
-0.12970000000000015,-33.14668575583781
-0.13070000000000004,-33.18912709483376
-0.13170000000000015,-33.231568433829715
-0.13270000000000004,-33.330598224820264
-0.13370000000000015,-33.41548090281216
-0.13470000000000004,-33.50036358080407
-0.13570000000000015,-33.627687597791926
-0.13670000000000004,-33.712570275783825
-0.13770000000000016,-33.81160006677438
-0.13870000000000005,-33.89648274476628
-0.13970000000000016,-33.98136542275818
-0.14070000000000005,-34.06624810075008
-0.14170000000000016,-34.10868943974604
-0.14270000000000005,-34.193572117737936
-0.14370000000000016,-34.278454795729836
-0.14470000000000005,-34.41992592571634
-0.14570000000000016,-34.50480860370825
-0.14670000000000005,-34.58969128170015
-0.14770000000000016,-34.67457395969205
-0.14870000000000005,-34.717015298688004
-0.14970000000000017,-34.75945663768395
-0.15070000000000006,-34.85848642867451
-0.15170000000000017,-34.94336910666641
-0.15270000000000006,-35.02825178465831
-0.15370000000000017,-35.15557580164616
-0.15470000000000006,-35.198017140642115
-0.15570000000000017,-35.282899818634014
-0.15670000000000006,-35.32534115762997
-0.15770000000000017,-35.38192960962457
-0.15870000000000006,-35.46681228761647
-0.15970000000000018,-35.55169496560837
-0.16070000000000007,-35.594136304604326
-0.16170000000000018,-35.679018982596226
-0.16270000000000007,-35.763901660588125
-0.16370000000000018,-35.806342999584075
-0.16470000000000007,-35.90537279057463
-0.16570000000000018,-35.94781412957058
-0.16670000000000007,-35.99025546856653
-0.16770000000000018,-36.07513814655844
-0.16870000000000007,-36.20246216354629
-0.16970000000000018,-36.37222751953009
-0.17070000000000007,-36.47125731052064
-0.17170000000000019,-36.55613998851254
-0.17270000000000008,-36.64102266650445
-0.1737000000000002,-36.725905344496354
-0.17470000000000008,-36.81078802248826
-0.1757000000000002,-36.89567070048016
-0.17670000000000008,-36.95225915247476
-0.1777000000000002,-37.07958316946261
-0.17870000000000008,-37.164465847454515
-0.1797000000000002,-37.249348525446415
-0.18070000000000008,-37.291789864442364
-0.1817000000000002,-37.334231203438314
-0.18270000000000008,-37.376672542434264
-0.1837000000000002,-37.47570233342482
-0.1847000000000001,-37.60302635041268
-0.1857000000000002,-37.73035036740053
-0.1867000000000001,-37.81523304539243
-0.1877000000000002,-37.90011572338433
-0.1887000000000001,-37.99914551437489
-0.1897000000000002,-38.04158685337084
-0.1907000000000001,-38.12646953136274
-0.1917000000000001,-38.12646953136274
-0.19269999999999998,-38.253793548350586
-0.1937000000000001,-38.33867622634249
-0.19469999999999998,-38.522588695324956
-0.1957000000000001,-38.607471373316855
-0.19669999999999999,-38.692354051308754
-0.1977000000000001,-38.777236729300654
-0.1987,-38.86211940729255
-0.1997000000000001,-38.94700208528445
-0.2007,-39.046031876275016
-0.2017000000000001,-39.173355893262865
-0.2027,-39.30067991025072
-0.2037000000000001,-39.42800392723857
-0.2047,-39.51288660523048
-0.2057000000000001,-39.654357735216976
-0.2067,-39.696799074212926
-0.2077000000000001,-39.78168175220483
-0.2087,-39.86656443019674
-0.2097000000000001,-39.95144710818864
-0.2107,-40.03632978618054
-0.2117000000000001,-40.177800916167044
-0.2127,-40.30512493315489
-0.2137000000000001,-40.3900076111468
-0.2147,-40.51733162813464
-0.2157000000000001,-40.65880275812115
-0.2167,-40.743685436113054
-0.21770000000000012,-40.91345079209687
-0.2187,-41.04077480908471
-0.21970000000000012,-41.139804600075266
-0.2207,-41.22468727806717
-0.22170000000000012,-41.30956995605907
-0.2227,-41.39445263405098
-0.22370000000000012,-41.43689397304693
-0.2247,-41.56421799003478
-0.22570000000000012,-41.70568912002128
-0.2267,-41.83301313700913
-0.22770000000000012,-42.04521983198889
-0.22870000000000001,-42.130102509980794
-0.22970000000000013,-42.229132300971344
-0.23070000000000002,-42.3564563179592
-0.23170000000000013,-42.3564563179592
-0.23270000000000002,-42.4413389959511
-0.23370000000000013,-42.526221673943
-0.23470000000000002,-42.653545690930855
-0.23570000000000013,-42.79501682091736
-0.23670000000000002,-42.96478217690117
-0.2376999999999999,-43.09210619388902
-0.23870000000000002,-43.23357732387552
-0.2396999999999999,-43.31846000186743
-0.24070000000000003,-43.44578401885527
-0.24169999999999991,-43.57310803584313
-0.24270000000000003,-43.75702050482558
-0.24369999999999992,-43.96922719980534
-0.24470000000000003,-44.138992555789144
-0.24569999999999992,-44.28046368577565
-0.24670000000000003,-44.4077877027635
-0.24769999999999992,-44.4926703807554
-0.24870000000000003,-44.66243573673921
-0.24969999999999992,-44.84634820572166
-0.25070000000000003,-45.05855490070142
-0.2516999999999999,-45.27076159568118
-0.25270000000000004,-45.497115403659585
-0.2536999999999999,-45.70932209863933
-0.25470000000000004,-45.89323456762179
-0.2556999999999999,-46.02055858460964
-0.25670000000000004,-46.147882601597495
-0.25769999999999993,-46.27520661858535
-0.25870000000000004,-46.45911908756781
-0.25969999999999993,-46.67132578254756
-0.26070000000000004,-46.88353247752732
-0.26169999999999993,-47.15232762450167
-0.26270000000000004,-47.40697565847737
-0.26369999999999993,-47.54844678846388
-0.26470000000000005,-47.67577080545174
-0.26569999999999994,-47.84553616143554
-0.26670000000000005,-48.114331308409895
-0.26769999999999994,-48.41142068138156
-0.26870000000000005,-48.68021582835591
-0.26969999999999994,-48.97730520132757
-0.27070000000000005,-49.28854168729788
-0.27169999999999994,-49.41586570428573
-0.27270000000000005,-49.557336834272235
-0.27369999999999994,-49.642219512264134
-0.27470000000000006,-49.72710219025603
-0.27569999999999995,-49.85442620724389
-0.27670000000000006,-50.0807800152223
-0.27769999999999995,-50.50519340518181
-0.27870000000000006,-51.028636586131874
-0.27969999999999995,-51.46719708909004
-0.28070000000000006,-51.82087491405629
-0.28169999999999995,-52.11796428702795
-0.28270000000000006,-52.42920077299826
-0.28369999999999995,-52.78287859796452
-0.28470000000000006,-53.16485064892808
-0.28569999999999995,-53.518528473894335
-0.28670000000000007,-53.91464763785655
-0.28769999999999996,-54.31076680181876
-0.28870000000000007,-54.69273885278232
-0.28969999999999996,-55.088858016744524
-0.29070000000000007,-55.484977180706736
-0.29169999999999996,-55.9235376836649
-0.29270000000000007,-56.44698086461496
-0.29369999999999996,-57.05530672355693
-0.2947000000000001,-57.7485152604908
-0.29569999999999996,-58.31439978043681
-0.2967000000000001,-58.83784296138688
-0.29769999999999996,-59.27640346434504
-0.2987000000000001,-59.757405306299155
-0.29969999999999997,-60.36573116524111
-0.3007000000000001,-61.01649836317903
-0.30169999999999997,-61.7662953521075
-0.3027000000000001,-62.459503889041365
-0.30369999999999997,-63.15271242597524
-0.3047000000000001,-63.81762673691181
-0.30569999999999997,-64.55327661284163
-0.3067000000000001,-65.16160247178358
-0.3077,-65.86895812171612
-0.3087000000000001,-66.56216665864997
-0.3097,-67.39684632557035
-0.3107000000000001,-68.30226155748396
-0.3117,-69.1793825634003
-0.3127000000000001,-70.18382758630447
-0.3137,-71.10338993121674
-0.3147000000000001,-72.05124650212633
-0.3157,-73.09813286402644
-0.3167000000000001,-74.24404901691713
-0.3177,-75.4182593958051
-0.3187000000000001,-76.5924697746931
-0.3197,-77.80912149257702
-0.3207000000000001,-79.08236166245555
-0.3217,-80.38389605833139
-0.3227000000000001,-81.74201890620182
-0.3237,-83.18502443206415
-0.3247000000000001,-84.57144150593189
-0.3257,-86.14177104878208
-0.3267000000000001,-87.75454193062824
-0.3277,-89.36731281247435
-0.3287000000000001,-91.07911348531105
-0.3297,-92.81920838414506
-0.3307000000000001,-94.601744621975
-0.3317,-96.52575198979144
-0.3327000000000001,-98.5346420355998
-0.3337,-100.62841475940007
-0.3347000000000001,-102.84951150018817
-0.3357,-105.11304957997223
-0.3367000000000001,-107.51805878974278
-0.3377,-109.9655093385093
-0.3387000000000001,-112.44125411327312
-0.3397,-114.93114600103557
-0.3407000000000001,-117.50592056678994
-0.3417,-120.16557781053622
-0.3427000000000001,-122.95255907127036
-0.3437,-125.83857012299501
-0.3447000000000001,-128.8094638527116
-0.3457,-131.80865180842545
-0.3467000000000001,-134.94931089412586
-0.3477,-138.17485265781812
-0.3487000000000001,-141.47112998650366
-0.3497,-144.86643710617977
-0.3507000000000001,-148.26174422585584
-0.3517,-151.65705134553193
-0.3527000000000001,-155.19382959519453
-0.3537,-158.5891367148706
-0.3547000000000001,-162.12591496453322
-0.3557,-165.6626932141958
-0.35670000000000013,-169.0580003338719
-0.3577,-172.45330745354798
-0.35870000000000013,-175.84861457322407
-0.3597,-179.24392169290016
-0.36070000000000013,-182.49775768258974
-0.3617,-185.89306480226583
-0.3626999999999999,-189.1469007919554
-0.3637,-192.40073678164498
-0.3646999999999999,-195.65457277133459
-0.3657,-199.04987989101065
-0.3666999999999999,-202.16224475071377
-0.3677,-205.41608074040332
-0.3686999999999999,-208.52844560010638
-0.36970000000000003,-211.782281589796
-0.3706999999999999,-214.89464644949908
-0.37170000000000003,-218.14848243918865
-0.3726999999999999,-221.11937616890526
-0.37370000000000003,-224.09026989862178
-0.3746999999999999,-226.77822136836537
-0.37570000000000003,-229.60764396809546
-0.3766999999999999,-232.29559543783904
-0.37770000000000004,-235.12501803756908
-0.3786999999999999,-237.81296950731266
-0.37970000000000004,-240.35944984706975
-0.3806999999999999,-243.04740131681334
-0.38170000000000004,-245.59388165657037
-0.38269999999999993,-248.14036199632744
-0.38370000000000004,-250.4039000761115
-0.38469999999999993,-252.95038041586852
-0.38570000000000004,-255.35538962563913
-0.38669999999999993,-256.34568753554464
-0.38570000000000004,-254.78950510569314
-0.38469999999999993,-253.51626493581452
-0.38370000000000004,-252.243024765936
-0.38269999999999993,-250.9697845960575
-0.38170000000000004,-249.69654442617897
-0.3806999999999999,-248.42330425630044
-0.37970000000000004,-246.8671218264489
-0.3786999999999999,-245.31093939659738
-0.37770000000000004,-243.75475696674582
-0.3766999999999999,-242.19857453689428
-0.37570000000000003,-240.50092097705624
-0.3746999999999999,-238.66179628723168
-0.37370000000000003,-236.82267159740715
-0.3726999999999999,-235.26648916755556
-0.37170000000000003,-234.27619125765005
-0.3706999999999999,-233.56883560771757
-0.36970000000000003,-232.57853769781204
-0.3686999999999999,-231.3052975279335
-0.3677,-229.74911509808197
-0.3666999999999999,-228.1929326682304
-0.3657,-226.91969249835188
-0.3646999999999999,-225.64645232847332
-0.3637,-223.80732763864881
-0.3626999999999999,-222.10967407881074
-0.3617,-220.41202051897272
-0.36070000000000013,-218.85583808912116
-0.3597,-217.44112678925615
-0.35870000000000013,-216.0264154893911
-0.3577,-214.75317531951256
-0.35670000000000013,-213.33846401964755
-0.3557,-211.9237527197825
-0.3547000000000001,-210.36757028993094
-0.3537,-208.8113878600794
-0.3527000000000001,-207.25520543022787
-0.3517,-205.55755187038983
-0.3507000000000001,-204.2843117005113
-0.3497,-202.44518701068677
-0.3487000000000001,-200.7475334508487
-0.3477,-199.19135102099716
-0.3467000000000001,-197.63516859114563
-0.3457,-196.2204572912806
-0.3447000000000001,-194.80574599141553
-0.3437,-193.249563561564
-0.3427000000000001,-191.83485226169896
-0.3417,-190.27866983184742
-0.3407000000000001,-188.8639585319824
-0.3397,-187.16630497214436
-0.3387000000000001,-185.6101225422928
-0.3377,-184.05394011244127
-0.3367000000000001,-182.63922881257625
-0.3357,-181.64893090267074
-0.3347000000000001,-181.5074597726842
-0.3337,-179.80980621284618
-0.3327000000000001,-178.1121526530081
-0.3317,-176.55597022315658
-0.3307000000000001,-174.99978779330505
-0.3297,-173.44360536345349
-0.3287000000000001,-171.88742293360195
-0.3277,-170.33124050375042
-0.3267000000000001,-168.63358694391238
-0.3257,-166.93593338407433
-0.3247000000000001,-165.2382798242363
-0.3237,-163.68209739438475
-0.3227000000000001,-162.12591496453322
-0.3217,-160.42826140469515
-0.3207000000000001,-158.87207897484362
-0.3197,-157.17442541500557
-0.3187000000000001,-155.61824298515404
-0.3177,-154.0620605553025
-0.3167000000000001,-152.64734925543743
-0.3157,-151.23263795557244
-0.3147000000000001,-149.6764555257209
-0.3137,-148.26174422585584
-0.3127000000000001,-146.8470329259908
-0.3117,-145.43232162612577
-0.3107000000000001,-143.87613919627424
-0.3097,-142.17848563643616
-0.3087000000000001,-140.66474454558062
-0.3077,-139.09441500273041
-0.3067000000000001,-137.6089681378721
-0.30569999999999997,-136.13766838601245
-0.3047000000000001,-134.5107503911677
-0.30369999999999997,-132.89797950932152
-0.3027000000000001,-131.32764996647134
-0.30169999999999997,-129.8563502146117
-0.3007000000000001,-128.37090334975343
-0.29969999999999997,-126.84301514589919
-0.2987000000000001,-125.35756828104091
-0.29769999999999996,-123.87212141618261
-0.2967000000000001,-122.48570434231489
-0.29569999999999996,-121.12758149444444
-0.2947000000000001,-119.68457596858211
-0.29369999999999996,-118.15668776472786
-0.29270000000000007,-116.62879956087362
-0.29169999999999996,-115.01602867902749
-0.29070000000000007,-113.48814047517324
-0.28969999999999996,-112.05928206230955
-0.28870000000000007,-110.70115921443913
-0.28769999999999996,-109.35718347956733
-0.28670000000000007,-107.95661929270095
-0.28569999999999995,-106.59849644483052
-0.28470000000000006,-105.16963803196683
-0.28369999999999995,-103.76907384510045
-0.28270000000000006,-102.45339233622596
-0.28169999999999995,-101.10941660135417
-0.28070000000000006,-99.7937350924797
-0.27969999999999995,-98.49220069660386
-0.27870000000000006,-97.17651918772938
-0.27769999999999995,-95.87498479185354
-0.27670000000000006,-94.5168619439831
-0.27569999999999995,-93.13044487011537
-0.27470000000000006,-91.77232202224494
-0.27369999999999994,-90.32931649638259
-0.27270000000000005,-88.8438696315243
-0.27169999999999994,-87.45745255765657
-0.27070000000000005,-86.05688837079018
-0.26969999999999994,-84.7129126359184
-0.26870000000000005,-83.48211380503581
-0.26769999999999994,-82.26546208715187
