Apr. 6, 2025   02:09:41
Cyclic Voltammetry
File: c:/users/guazh/data/banditlqround7_x0exp994_r5/2025-03-28-exp995\exp995-2025-04-06t02_01_33-h2koh\exp995_cv_sr_700mvs_efin_-1400mv.bin
Data Source:  Experiment
Instrument Model:  CHI760E
Header: CV ran at 700 mVs
Note: 

Init E (V) = -1
High E (V) = -1
Low E (V) = -1.4
Final E (V) = -1
Init P/N = N
Scan Rate (V/s) = 0.7
Segment = 3
Sample Interval (V) = 0.001
Quiet Time (sec) = 2
Sensitivity (A/V) = 0.01
Comp R (ohm) = 2.0

Results:

Channel 1:
Segment 1:

Segment 2:

Segment 3:

Potential/V, Current/A

-1.000, -1.175e-3
-1.001, -1.020e-3
-1.002, -8.754e-4
-1.003, -7.275e-4
-1.004, -5.826e-4
-1.005, -4.438e-4
-1.006, -3.051e-4
-1.007, -1.694e-4
-1.008, -3.684e-5
-1.009, 9.573e-5
-1.010, 2.221e-4
-1.011, 3.485e-4
-1.012, 4.688e-4
-1.013, 5.921e-4
-1.014, 7.124e-4
-1.015, 8.357e-4
-1.016, 9.559e-4
-1.017, 1.073e-3
-1.018, 1.193e-3
-1.019, 1.307e-3
-1.020, 1.425e-3
-1.021, 1.532e-3
-1.022, 1.643e-3
-1.023, 1.751e-3
-1.024, 1.859e-3
-1.025, 1.967e-3
-1.026, 2.075e-3
-1.027, 2.183e-3
-1.028, 2.288e-3
-1.029, 2.396e-3
-1.030, 2.501e-3
-1.031, 2.602e-3
-1.032, 2.701e-3
-1.033, 2.800e-3
-1.034, 2.895e-3
-1.035, 2.991e-3
-1.036, 3.086e-3
-1.037, 3.182e-3
-1.038, 3.284e-3
-1.039, 3.382e-3
-1.040, 3.478e-3
-1.041, 3.577e-3
-1.042, 3.672e-3
-1.043, 3.765e-3
-1.044, 3.857e-3
-1.045, 3.947e-3
-1.046, 4.033e-3
-1.047, 4.119e-3
-1.048, 4.206e-3
-1.049, 4.298e-3
-1.050, 4.387e-3
-1.051, 4.483e-3
-1.052, 4.582e-3
-1.053, 4.677e-3
-1.054, 4.770e-3
-1.055, 4.859e-3
-1.056, 4.942e-3
-1.057, 5.026e-3
-1.058, 5.103e-3
-1.059, 5.180e-3
-1.060, 5.257e-3
-1.061, 5.337e-3
-1.062, 5.420e-3
-1.063, 5.507e-3
-1.064, 5.596e-3
-1.065, 5.688e-3
-1.066, 5.778e-3
-1.067, 5.864e-3
-1.068, 5.954e-3
-1.069, 6.037e-3
-1.070, 6.120e-3
-1.071, 6.197e-3
-1.072, 6.271e-3
-1.073, 6.351e-3
-1.074, 6.425e-3
-1.075, 6.499e-3
-1.076, 6.576e-3
-1.077, 6.650e-3
-1.078, 6.728e-3
-1.079, 6.801e-3
-1.080, 6.875e-3
-1.081, 6.953e-3
-1.082, 7.030e-3
-1.083, 7.107e-3
-1.084, 7.181e-3
-1.085, 7.258e-3
-1.086, 7.332e-3
-1.087, 7.409e-3
-1.088, 7.480e-3
-1.089, 7.551e-3
-1.090, 7.619e-3
-1.091, 7.686e-3
-1.092, 7.754e-3
-1.093, 7.822e-3
-1.094, 7.890e-3
-1.095, 7.964e-3
-1.096, 8.038e-3
-1.097, 8.118e-3
-1.098, 8.192e-3
-1.099, 8.266e-3
-1.100, 8.340e-3
-1.101, 8.414e-3
-1.102, 8.488e-3
-1.103, 8.562e-3
-1.104, 8.636e-3
-1.105, 8.710e-3
-1.106, 8.784e-3
-1.107, 8.855e-3
-1.108, 8.926e-3
-1.109, 8.997e-3
-1.110, 9.064e-3
-1.111, 9.135e-3
-1.112, 9.203e-3
-1.113, 9.277e-3
-1.114, 9.348e-3
-1.115, 9.419e-3
-1.116, 9.487e-3
-1.117, 9.558e-3
-1.118, 9.635e-3
-1.119, 9.715e-3
-1.120, 9.792e-3
-1.121, 9.872e-3
-1.122, 9.949e-3
-1.123, 1.003e-2
-1.124, 1.010e-2
-1.125, 1.017e-2
-1.126, 1.024e-2
-1.127, 1.031e-2
-1.128, 1.037e-2
-1.129, 1.044e-2
-1.130, 1.050e-2
-1.131, 1.057e-2
-1.132, 1.064e-2
-1.133, 1.071e-2
-1.134, 1.078e-2
-1.135, 1.086e-2
-1.136, 1.093e-2
-1.137, 1.100e-2
-1.138, 1.107e-2
-1.139, 1.115e-2
-1.140, 1.122e-2
-1.141, 1.129e-2
-1.142, 1.136e-2
-1.143, 1.144e-2
-1.144, 1.152e-2
-1.145, 1.159e-2
-1.146, 1.166e-2
-1.147, 1.173e-2
-1.148, 1.181e-2
-1.149, 1.188e-2
-1.150, 1.196e-2
-1.151, 1.204e-2
-1.152, 1.212e-2
-1.153, 1.219e-2
-1.154, 1.227e-2
-1.155, 1.235e-2
-1.156, 1.243e-2
-1.157, 1.251e-2
-1.158, 1.259e-2
-1.159, 1.268e-2
-1.160, 1.276e-2
-1.161, 1.283e-2
-1.162, 1.290e-2
-1.163, 1.296e-2
-1.164, 1.303e-2
-1.165, 1.308e-2
-1.166, 1.316e-2
-1.167, 1.323e-2
-1.168, 1.331e-2
-1.169, 1.339e-2
-1.170, 1.348e-2
-1.171, 1.356e-2
-1.172, 1.365e-2
-1.173, 1.374e-2
-1.174, 1.383e-2
-1.175, 1.392e-2
-1.176, 1.400e-2
-1.177, 1.409e-2
-1.178, 1.417e-2
-1.179, 1.426e-2
-1.180, 1.434e-2
-1.181, 1.441e-2
-1.182, 1.449e-2
-1.183, 1.456e-2
-1.184, 1.464e-2
-1.185, 1.473e-2
-1.186, 1.482e-2
-1.187, 1.490e-2
-1.188, 1.497e-2
-1.189, 1.504e-2
-1.190, 1.510e-2
-1.191, 1.515e-2
-1.192, 1.521e-2
-1.193, 1.527e-2
-1.194, 1.534e-2
-1.195, 1.541e-2
-1.196, 1.548e-2
-1.197, 1.556e-2
-1.198, 1.563e-2
-1.199, 1.571e-2
-1.200, 1.579e-2
-1.201, 1.587e-2
-1.202, 1.595e-2
-1.203, 1.603e-2
-1.204, 1.611e-2
-1.205, 1.619e-2
-1.206, 1.627e-2
-1.207, 1.633e-2
-1.208, 1.640e-2
-1.209, 1.647e-2
-1.210, 1.654e-2
-1.211, 1.662e-2
-1.212, 1.669e-2
-1.213, 1.676e-2
-1.214, 1.684e-2
-1.215, 1.692e-2
-1.216, 1.700e-2
-1.217, 1.708e-2
-1.218, 1.715e-2
-1.219, 1.721e-2
-1.220, 1.728e-2
-1.221, 1.735e-2
-1.222, 1.741e-2
-1.223, 1.748e-2
-1.224, 1.754e-2
-1.225, 1.760e-2
-1.226, 1.767e-2
-1.227, 1.774e-2
-1.228, 1.781e-2
-1.229, 1.789e-2
-1.230, 1.795e-2
-1.231, 1.802e-2
-1.232, 1.810e-2
-1.233, 1.818e-2
-1.234, 1.826e-2
-1.235, 1.833e-2
-1.236, 1.841e-2
-1.237, 1.848e-2
-1.238, 1.856e-2
-1.239, 1.863e-2
-1.240, 1.870e-2
-1.241, 1.877e-2
-1.242, 1.883e-2
-1.243, 1.890e-2
-1.244, 1.896e-2
-1.245, 1.903e-2
-1.246, 1.910e-2
-1.247, 1.917e-2
-1.248, 1.924e-2
-1.249, 1.932e-2
-1.250, 1.939e-2
-1.251, 1.947e-2
-1.252, 1.954e-2
-1.253, 1.961e-2
-1.254, 1.969e-2
-1.255, 1.976e-2
-1.256, 1.982e-2
-1.257, 1.990e-2
-1.258, 1.997e-2
-1.259, 2.004e-2
-1.260, 2.012e-2
-1.261, 2.019e-2
-1.262, 2.027e-2
-1.263, 2.035e-2
-1.264, 2.043e-2
-1.265, 2.051e-2
-1.266, 2.056e-2
-1.267, 2.062e-2
-1.268, 2.068e-2
-1.269, 2.074e-2
-1.270, 2.080e-2
-1.271, 2.086e-2
-1.272, 2.093e-2
-1.273, 2.100e-2
-1.274, 2.108e-2
-1.275, 2.116e-2
-1.276, 2.125e-2
-1.277, 2.134e-2
-1.278, 2.142e-2
-1.279, 2.151e-2
-1.280, 2.159e-2
-1.281, 2.168e-2
-1.282, 2.175e-2
-1.283, 2.183e-2
-1.284, 2.190e-2
-1.285, 2.197e-2
-1.286, 2.205e-2
-1.287, 2.212e-2
-1.288, 2.219e-2
-1.289, 2.225e-2
-1.290, 2.231e-2
-1.291, 2.237e-2
-1.292, 2.243e-2
-1.293, 2.249e-2
-1.294, 2.257e-2
-1.295, 2.265e-2
-1.296, 2.275e-2
-1.297, 2.284e-2
-1.298, 2.294e-2
-1.299, 2.304e-2
-1.300, 2.312e-2
-1.301, 2.319e-2
-1.302, 2.325e-2
-1.303, 2.331e-2
-1.304, 2.336e-2
-1.305, 2.342e-2
-1.306, 2.348e-2
-1.307, 2.354e-2
-1.308, 2.361e-2
-1.309, 2.368e-2
-1.310, 2.375e-2
-1.311, 2.382e-2
-1.312, 2.390e-2
-1.313, 2.397e-2
-1.314, 2.404e-2
-1.315, 2.412e-2
-1.316, 2.420e-2
-1.317, 2.428e-2
-1.318, 2.437e-2
-1.319, 2.445e-2
-1.320, 2.452e-2
-1.321, 2.459e-2
-1.322, 2.465e-2
-1.323, 2.471e-2
-1.324, 2.476e-2
-1.325, 2.481e-2
-1.326, 2.485e-2
-1.327, 2.489e-2
-1.328, 2.494e-2
-1.329, 2.500e-2
-1.330, 2.505e-2
-1.331, 2.511e-2
-1.332, 2.517e-2
-1.333, 2.523e-2
-1.334, 2.530e-2
-1.335, 2.536e-2
-1.336, 2.543e-2
-1.337, 2.550e-2
-1.338, 2.556e-2
-1.339, 2.561e-2
-1.340, 2.568e-2
-1.341, 2.573e-2
-1.342, 2.579e-2
-1.343, 2.585e-2
-1.344, 2.590e-2
-1.345, 2.596e-2
-1.346, 2.602e-2
-1.347, 2.608e-2
-1.348, 2.615e-2
-1.349, 2.623e-2
-1.350, 2.629e-2
-1.351, 2.636e-2
-1.352, 2.643e-2
-1.353, 2.651e-2
-1.354, 2.658e-2
-1.355, 2.664e-2
-1.356, 2.670e-2
-1.357, 2.676e-2
-1.358, 2.683e-2
-1.359, 2.691e-2
-1.360, 2.698e-2
-1.361, 2.705e-2
-1.362, 2.712e-2
-1.363, 2.719e-2
-1.364, 2.727e-2
-1.365, 2.735e-2
-1.366, 2.743e-2
-1.367, 2.750e-2
-1.368, 2.758e-2
-1.369, 2.764e-2
-1.370, 2.769e-2
-1.371, 2.775e-2
-1.372, 2.781e-2
-1.373, 2.786e-2
-1.374, 2.791e-2
-1.375, 2.796e-2
-1.376, 2.803e-2
-1.377, 2.811e-2
-1.378, 2.820e-2
-1.379, 2.828e-2
-1.380, 2.836e-2
-1.381, 2.844e-2
-1.382, 2.851e-2
-1.383, 2.857e-2
-1.384, 2.863e-2
-1.385, 2.869e-2
-1.386, 2.875e-2
-1.387, 2.881e-2
-1.388, 2.888e-2
-1.389, 2.894e-2
-1.390, 2.901e-2
-1.391, 2.909e-2
-1.392, 2.916e-2
-1.393, 2.923e-2
-1.394, 2.930e-2
-1.395, 2.936e-2
-1.396, 2.943e-2
-1.397, 2.948e-2
-1.398, 2.952e-2
-1.399, 2.957e-2
-1.400, 2.950e-2
-1.399, 2.923e-2
-1.398, 2.897e-2
-1.397, 2.872e-2
-1.396, 2.848e-2
-1.395, 2.825e-2
-1.394, 2.802e-2
-1.393, 2.779e-2
-1.392, 2.757e-2
-1.391, 2.735e-2
-1.390, 2.714e-2
-1.389, 2.692e-2
-1.388, 2.670e-2
-1.387, 2.649e-2
-1.386, 2.627e-2
-1.385, 2.603e-2
-1.384, 2.581e-2
-1.383, 2.557e-2
-1.382, 2.534e-2
-1.381, 2.512e-2
-1.380, 2.489e-2
-1.379, 2.467e-2
-1.378, 2.445e-2
-1.377, 2.423e-2
-1.376, 2.402e-2
-1.375, 2.380e-2
-1.374, 2.359e-2
-1.373, 2.338e-2
-1.372, 2.317e-2
-1.371, 2.296e-2
-1.370, 2.275e-2
-1.369, 2.254e-2
-1.368, 2.233e-2
-1.367, 2.212e-2
-1.366, 2.192e-2
-1.365, 2.172e-2
-1.364, 2.151e-2
-1.363, 2.131e-2
-1.362, 2.111e-2
-1.361, 2.091e-2
-1.360, 2.071e-2
-1.359, 2.051e-2
-1.358, 2.031e-2
-1.357, 2.011e-2
-1.356, 1.992e-2
-1.355, 1.973e-2
-1.354, 1.953e-2
-1.353, 1.935e-2
-1.352, 1.916e-2
-1.351, 1.897e-2
-1.350, 1.879e-2
-1.349, 1.860e-2
-1.348, 1.840e-2
-1.347, 1.821e-2
-1.346, 1.802e-2
-1.345, 1.783e-2
-1.344, 1.764e-2
-1.343, 1.746e-2
-1.342, 1.728e-2
-1.341, 1.710e-2
-1.340, 1.693e-2
-1.339, 1.676e-2
-1.338, 1.658e-2
-1.337, 1.641e-2
-1.336, 1.624e-2
-1.335, 1.606e-2
-1.334, 1.588e-2
-1.333, 1.571e-2
-1.332, 1.553e-2
-1.331, 1.534e-2
-1.330, 1.517e-2
-1.329, 1.498e-2
-1.328, 1.481e-2
-1.327, 1.463e-2
-1.326, 1.445e-2
-1.325, 1.427e-2
-1.324, 1.409e-2
-1.323, 1.391e-2
-1.322, 1.373e-2
-1.321, 1.355e-2
-1.320, 1.338e-2
-1.319, 1.321e-2
-1.318, 1.305e-2
-1.317, 1.289e-2
-1.316, 1.273e-2
-1.315, 1.258e-2
-1.314, 1.243e-2
-1.313, 1.228e-2
-1.312, 1.214e-2
-1.311, 1.200e-2
-1.310, 1.185e-2
-1.309, 1.171e-2
-1.308, 1.156e-2
-1.307, 1.141e-2
-1.306, 1.125e-2
-1.305, 1.110e-2
-1.304, 1.094e-2
-1.303, 1.078e-2
-1.302, 1.063e-2
-1.301, 1.047e-2
-1.300, 1.030e-2
-1.299, 1.014e-2
-1.298, 9.980e-3
-1.297, 9.817e-3
-1.296, 9.663e-3
-1.295, 9.512e-3
-1.294, 9.360e-3
-1.293, 9.212e-3
-1.292, 9.064e-3
-1.291, 8.917e-3
-1.290, 8.762e-3
-1.289, 8.602e-3
-1.288, 8.445e-3
-1.287, 8.284e-3
-1.286, 8.121e-3
-1.285, 7.961e-3
-1.284, 7.804e-3
-1.283, 7.646e-3
-1.282, 7.492e-3
-1.281, 7.341e-3
-1.280, 7.193e-3
-1.279, 7.045e-3
-1.278, 6.897e-3
-1.277, 6.749e-3
-1.276, 6.598e-3
-1.275, 6.447e-3
-1.274, 6.293e-3
-1.273, 6.142e-3
-1.272, 5.994e-3
-1.271, 5.846e-3
-1.270, 5.698e-3
-1.269, 5.553e-3
-1.268, 5.408e-3
-1.267, 5.263e-3
-1.266, 5.121e-3
-1.265, 4.976e-3
-1.264, 4.838e-3
-1.263, 4.690e-3
-1.262, 4.551e-3
-1.261, 4.415e-3
-1.260, 4.280e-3
-1.259, 4.150e-3
-1.258, 4.017e-3
-1.257, 3.882e-3
-1.256, 3.752e-3
-1.255, 3.617e-3
-1.254, 3.481e-3
-1.253, 3.348e-3
-1.252, 3.210e-3
-1.251, 3.077e-3
-1.250, 2.945e-3
-1.249, 2.815e-3
-1.248, 2.689e-3
-1.247, 2.562e-3
-1.246, 2.439e-3
-1.245, 2.312e-3
-1.244, 2.189e-3
-1.243, 2.066e-3
-1.242, 1.936e-3
-1.241, 1.813e-3
-1.240, 1.687e-3
-1.239, 1.560e-3
-1.238, 1.437e-3
-1.237, 1.314e-3
-1.236, 1.196e-3
-1.235, 1.076e-3
-1.234, 9.590e-4
-1.233, 8.388e-4
-1.232, 7.185e-4
-1.231, 5.983e-4
-1.230, 4.780e-4
-1.229, 3.547e-4
-1.228, 2.345e-4
-1.227, 1.142e-4
-1.226, -2.927e-6
-1.225, -1.201e-4
-1.224, -2.342e-4
-1.223, -3.482e-4
-1.222, -4.592e-4
-1.221, -5.733e-4
-1.220, -6.874e-4
-1.219, -8.015e-4
-1.218, -9.155e-4
-1.217, -1.033e-3
-1.216, -1.144e-3
-1.215, -1.258e-3
-1.214, -1.369e-3
-1.213, -1.480e-3
-1.212, -1.588e-3
-1.211, -1.692e-3
-1.210, -1.803e-3
-1.209, -1.908e-3
-1.208, -2.016e-3
-1.207, -2.127e-3
-1.206, -2.235e-3
-1.205, -2.343e-3
-1.204, -2.454e-3
-1.203, -2.559e-3
-1.202, -2.667e-3
-1.201, -2.768e-3
-1.200, -2.870e-3
-1.199, -2.972e-3
-1.198, -3.074e-3
-1.197, -3.179e-3
-1.196, -3.286e-3
-1.195, -3.391e-3
-1.194, -3.496e-3
-1.193, -3.598e-3
-1.192, -3.703e-3
-1.191, -3.804e-3
-1.190, -3.906e-3
-1.189, -4.005e-3
-1.188, -4.103e-3
-1.187, -4.196e-3
-1.186, -4.295e-3
-1.185, -4.393e-3
-1.184, -4.492e-3
-1.183, -4.591e-3
-1.182, -4.689e-3
-1.181, -4.791e-3
-1.180, -4.890e-3
-1.179, -4.988e-3
-1.178, -5.084e-3
-1.177, -5.183e-3
-1.176, -5.278e-3
-1.175, -5.374e-3
-1.174, -5.466e-3
-1.173, -5.562e-3
-1.172, -5.657e-3
-1.171, -5.750e-3
-1.170, -5.842e-3
-1.169, -5.935e-3
-1.168, -6.027e-3
-1.167, -6.120e-3
-1.166, -6.212e-3
-1.165, -6.305e-3
-1.164, -6.394e-3
-1.163, -6.484e-3
-1.162, -6.576e-3
-1.161, -6.669e-3
-1.160, -6.758e-3
-1.159, -6.847e-3
-1.158, -6.940e-3
-1.157, -7.029e-3
-1.156, -7.119e-3
-1.155, -7.202e-3
-1.154, -7.282e-3
-1.153, -7.365e-3
-1.152, -7.449e-3
-1.151, -7.532e-3
-1.150, -7.615e-3
-1.149, -7.701e-3
-1.148, -7.788e-3
-1.147, -7.877e-3
-1.146, -7.964e-3
-1.145, -8.056e-3
-1.144, -8.145e-3
-1.143, -8.232e-3
-1.142, -8.318e-3
-1.141, -8.401e-3
-1.140, -8.491e-3
-1.139, -8.577e-3
-1.138, -8.666e-3
-1.137, -8.759e-3
-1.136, -8.848e-3
-1.135, -8.938e-3
-1.134, -9.027e-3
-1.133, -9.107e-3
-1.132, -9.188e-3
-1.131, -9.265e-3
-1.130, -9.342e-3
-1.129, -9.422e-3
-1.128, -9.502e-3
-1.127, -9.582e-3
-1.126, -9.662e-3
-1.125, -9.742e-3
-1.124, -9.823e-3
-1.123, -9.903e-3
-1.122, -9.986e-3
-1.121, -1.007e-2
-1.120, -1.014e-2
-1.119, -1.022e-2
-1.118, -1.030e-2
-1.117, -1.038e-2
-1.116, -1.046e-2
-1.115, -1.054e-2
-1.114, -1.063e-2
-1.113, -1.071e-2
-1.112, -1.080e-2
-1.111, -1.088e-2
-1.110, -1.097e-2
-1.109, -1.105e-2
-1.108, -1.112e-2
-1.107, -1.120e-2
-1.106, -1.127e-2
-1.105, -1.135e-2
-1.104, -1.142e-2
-1.103, -1.149e-2
-1.102, -1.156e-2
-1.101, -1.164e-2
-1.100, -1.172e-2
-1.099, -1.180e-2
-1.098, -1.189e-2
-1.097, -1.197e-2
-1.096, -1.204e-2
-1.095, -1.212e-2
-1.094, -1.219e-2
-1.093, -1.226e-2
-1.092, -1.234e-2
-1.091, -1.241e-2
-1.090, -1.248e-2
-1.089, -1.255e-2
-1.088, -1.261e-2
-1.087, -1.266e-2
-1.086, -1.270e-2
-1.085, -1.274e-2
-1.084, -1.279e-2
-1.083, -1.286e-2
-1.082, -1.296e-2
-1.081, -1.306e-2
-1.080, -1.318e-2
-1.079, -1.329e-2
-1.078, -1.338e-2
-1.077, -1.345e-2
-1.076, -1.350e-2
-1.075, -1.354e-2
-1.074, -1.358e-2
-1.073, -1.362e-2
-1.072, -1.369e-2
-1.071, -1.377e-2
-1.070, -1.387e-2
-1.069, -1.398e-2
-1.068, -1.409e-2
-1.067, -1.419e-2
-1.066, -1.429e-2
-1.065, -1.438e-2
-1.064, -1.447e-2
-1.063, -1.455e-2
-1.062, -1.462e-2
-1.061, -1.468e-2
-1.060, -1.473e-2
-1.059, -1.478e-2
-1.058, -1.483e-2
-1.057, -1.488e-2
-1.056, -1.493e-2
-1.055, -1.500e-2
-1.054, -1.507e-2
-1.053, -1.514e-2
-1.052, -1.521e-2
-1.051, -1.528e-2
-1.050, -1.535e-2
-1.049, -1.543e-2
-1.048, -1.550e-2
-1.047, -1.558e-2
-1.046, -1.564e-2
-1.045, -1.571e-2
-1.044, -1.577e-2
-1.043, -1.583e-2
-1.042, -1.589e-2
-1.041, -1.595e-2
-1.040, -1.602e-2
-1.039, -1.609e-2
-1.038, -1.615e-2
-1.037, -1.619e-2
-1.036, -1.621e-2
-1.035, -1.624e-2
-1.034, -1.630e-2
-1.033, -1.638e-2
-1.032, -1.647e-2
-1.031, -1.660e-2
-1.030, -1.673e-2
-1.029, -1.685e-2
-1.028, -1.695e-2
-1.027, -1.703e-2
-1.026, -1.708e-2
-1.025, -1.712e-2
-1.024, -1.715e-2
-1.023, -1.719e-2
-1.022, -1.724e-2
-1.021, -1.730e-2
-1.020, -1.737e-2
-1.019, -1.743e-2
-1.018, -1.750e-2
-1.017, -1.756e-2
-1.016, -1.762e-2
-1.015, -1.768e-2
-1.014, -1.774e-2
-1.013, -1.780e-2
-1.012, -1.786e-2
-1.011, -1.792e-2
-1.010, -1.797e-2
-1.009, -1.803e-2
-1.008, -1.808e-2
-1.007, -1.815e-2
-1.006, -1.821e-2
-1.005, -1.827e-2
-1.004, -1.833e-2
-1.003, -1.839e-2
-1.002, -1.844e-2
-1.001, -1.849e-2
