Potential V vs RHE, Current mA cm-2
0.013299999999999867,21.347993514963402
0.012299999999999978,19.1834852261699
0.011299999999999866,17.231183632356142
0.010299999999999976,15.491088733522153
0.009299999999999864,13.649134621097875
0.008299999999999974,11.913283856163474
0.007299999999999862,10.367004405410988
0.006299999999999972,8.800918996460393
0.00529999999999986,7.219271763211282
0.0042999999999999705,5.79465748424719
0.0032999999999998586,4.416728678178644
0.0022999999999999687,2.9298671020204905
0.0012999999999998568,1.5731589654499207
0.00029999999999996696,0.33259862659827016
-0.000700000000000145,-1.015904184433083
-0.0017000000000000348,-2.3201265317786604
-0.0027000000000001467,-3.4660426846693397
-0.0037000000000000366,-4.681279691253407
-0.0047000000000001485,-5.931884480334099
-0.005700000000000038,-7.045262273327882
-0.00670000000000015,-8.157225355021803
-0.00770000000000004,-9.332850445209647
-0.008700000000000152,-10.420763434805862
-0.009700000000000042,-11.416720189910846
-0.010700000000000154,-12.537171539403955
-0.011700000000000044,-13.620840395100572
-0.012700000000000156,-14.529085049613924
-0.013700000000000045,-15.519382959519453
-0.014700000000000157,-16.580416434418233
-0.015700000000000047,-17.4433903273359
-0.01670000000000016,-18.362952672248177
-0.01770000000000005,-19.381544808151002
-0.01870000000000016,-20.244518701068674
-0.01970000000000005,-20.994315689997144
-0.020700000000000163,-21.94217226090672
-0.021700000000000053,-22.904175944814945
-0.022700000000000164,-23.653972933743415
-0.023700000000000054,-24.432064148669184
-0.024700000000000166,-25.309185154585506
-0.025700000000000056,-26.17215904750318
-0.026700000000000168,-27.049280053419505
-0.027700000000000058,-27.940548172334477
-0.02870000000000017,-28.690345161262943
-0.02970000000000006,-29.411847924194117
-0.03070000000000017,-30.402145834099635
-0.03170000000000006,-31.321708179011907
-0.03270000000000017,-31.95832826395118
-0.03370000000000006,-32.693978139881004
-0.034700000000000175,-33.55695203279867
-0.035700000000000065,-34.33504324772444
-0.03670000000000018,-35.04239889765696
-0.03770000000000007,-35.862931451578675
-0.03870000000000018,-36.6268755535058
-0.03970000000000007,-37.27764275144372
-0.04070000000000018,-38.02743974037218
-0.04170000000000007,-38.74894250330336
-0.04270000000000018,-39.328974136248014
-0.04370000000000007,-39.99388844718459
-0.044700000000000184,-40.800273888107654
-0.045700000000000074,-41.52177665103883
-0.046700000000000186,-42.25742652696865
-0.047700000000000076,-43.120400419886316
-0.04870000000000019,-43.89849163481209
-0.04970000000000008,-44.506817493754056
-0.05070000000000019,-45.18587891768927
-0.05170000000000008,-45.92152879361909
-0.05270000000000019,-46.515707539562406
-0.05370000000000008,-47.19476896349763
-0.05470000000000019,-47.902124613430146
-0.05570000000000008,-48.4255677943802
-0.056700000000000195,-48.991452314326224
-0.057700000000000085,-49.71295507725739
-0.058700000000000196,-50.335428049198
-0.059700000000000086,-50.88716545614537
-0.0607000000000002,-51.62281533207519
-0.06170000000000009,-52.34431809500636
-0.0627000000000002,-52.938496840949675
-0.06370000000000009,-53.57511692588894
-0.0647000000000002,-54.2966196888201
-0.06570000000000009,-54.904945547762075
-0.0667000000000002,-55.470830067708086
-0.0677000000000001,-56.1781857176406
-0.0687000000000002,-56.88554136757313
-0.0697000000000001,-57.53630856551105
-0.07070000000000021,-58.41342957142736
-0.0717000000000001,-59.19152078635314
-0.07270000000000021,-59.78569953229645
-0.0737000000000001,-60.50720229522762
-0.07470000000000021,-61.27114639715474
-0.0757000000000001,-61.83703091710075
-0.07670000000000021,-62.36047409805081
-0.0777000000000001,-62.95465284399414
-0.07870000000000021,-63.49224313794284
-0.0797000000000001,-64.10056899688482
-0.08070000000000022,-64.83621887281464
-0.0817000000000001,-65.52942740974851
-0.08270000000000022,-66.05287059069857
-0.08370000000000011,-66.76022624063107
-0.08470000000000022,-67.6090530205501
-0.08570000000000011,-68.34470289647993
-0.08670000000000022,-68.82570473843404
-0.08770000000000011,-69.53306038836655
-0.08870000000000022,-70.32529871629096
-0.08970000000000011,-71.2307139482046
-0.09070000000000022,-72.26345319710607
-0.09170000000000011,-72.87177905604804
-0.09270000000000023,-73.04154441203184
-0.09370000000000012,-73.74890006196436
-0.09470000000000023,-74.78163931086584
-0.09570000000000012,-75.37581805680915
-0.09670000000000023,-75.78608433377002
-0.09770000000000012,-76.46514575770523
-0.09870000000000023,-77.08761872964584
-0.09970000000000012,-77.48373789360807
-0.10070000000000023,-78.16279931754329
-0.10170000000000012,-79.08236166245555
-0.10270000000000024,-79.7472759733921
-0.10370000000000013,-80.25657204134353
-0.10470000000000024,-80.76586810929494
-0.10570000000000013,-81.20442861225311
-0.10670000000000024,-81.69957756720586
-0.10770000000000013,-82.30790342614785
-0.10870000000000024,-82.84549372009654
-0.10970000000000013,-83.35478978804795
-0.11070000000000024,-84.17532234196969
-0.11170000000000013,-84.99585489589141
-0.11270000000000002,-85.60418075483337
-0.11370000000000013,-86.22665372677399
-0.11470000000000002,-86.89156803771054
-0.11570000000000014,-87.59892368764307
-0.11670000000000003,-88.36286778957019
-0.11770000000000014,-89.22584168248785
-0.11870000000000003,-89.87660888042578
-0.11970000000000014,-90.28687515738663
-0.12070000000000003,-90.85275967733266
-0.12170000000000014,-91.50352687527057
-0.12270000000000003,-92.14014696020983
-0.12370000000000014,-92.9748266271302
-0.12470000000000003,-93.76706495505464
-0.12570000000000014,-94.30465524900335
-0.12670000000000003,-94.67248018696824
-0.12770000000000015,-95.13933491592371
-0.12870000000000004,-95.66277809687378
-0.12970000000000015,-96.31354529481169
-0.13070000000000004,-97.07748939673881
-0.13170000000000015,-97.69996236867944
-0.13270000000000004,-98.364876679616
-0.13370000000000015,-99.11467366854447
-0.13470000000000004,-99.9635004484635
-0.13570000000000015,-100.51523785541086
-0.13670000000000004,-101.08112237535688
-0.13770000000000016,-101.6753011213002
-0.13870000000000005,-102.46753944922462
-0.13970000000000016,-103.50027869812607
-0.14070000000000005,-104.22178146105726
-0.14170000000000016,-104.75937175500596
-0.14270000000000005,-105.22622648396143
-0.14370000000000016,-105.7779638909088
-0.14470000000000005,-106.48531954084132
-0.14570000000000016,-107.03705694778867
-0.14670000000000005,-107.56050012873874
-0.14770000000000016,-108.26785577867126
-0.14870000000000005,-108.76300473362402
-0.14970000000000017,-109.10253544559163
-0.15070000000000006,-109.654272852539
-0.15170000000000017,-110.2484515984823
-0.15270000000000006,-110.68701210144046
-0.15370000000000017,-111.28119084738378
-0.15470000000000006,-112.04513494931089
-0.15570000000000017,-112.75249059924342
-0.15670000000000006,-113.38911068418268
-0.15770000000000017,-114.08231922111656
-0.15870000000000006,-114.81796909704637
-0.15970000000000018,-115.2140882610086
-0.16070000000000007,-115.4970305209816
-0.16170000000000018,-115.8931496849438
-0.16270000000000007,-116.57221110887905
-0.16370000000000018,-117.60495035778048
-0.16470000000000007,-118.63768960668197
-0.16570000000000018,-119.38748659561045
-0.16670000000000007,-120.00995956755105
-0.16770000000000018,-120.71731521748359
-0.16870000000000007,-121.41052375441744
-0.16970000000000018,-122.03299672635806
-0.17070000000000007,-122.65546969829869
-0.17170000000000019,-123.20720710524604
-0.17270000000000008,-123.57503204321095
-0.1737000000000002,-123.85797430318398
-0.17470000000000008,-124.22579924114888
-0.1757000000000002,-124.76338953509759
-0.17670000000000008,-125.64051054101391
-0.1777000000000002,-126.56007288592619
-0.17870000000000008,-127.23913430986138
-0.1797000000000002,-127.62110636082497
-0.18070000000000008,-128.07381397678176
-0.1817000000000002,-128.76702251371566
-0.18270000000000008,-129.78561464961845
-0.1837000000000002,-130.8607952375159
-0.1847000000000001,-131.90768159941604
-0.1857000000000002,-132.37453632837148
-0.1867000000000001,-132.5443016843553
-0.1877000000000002,-133.0253035263094
-0.1887000000000001,-133.5345995942608
-0.1897000000000002,-133.73265917624192
-0.1907000000000001,-134.17121967920008
-0.1917000000000001,-135.1332233631083
-0.19269999999999998,-135.72740210905164
-0.1937000000000001,-136.12352127301384
-0.19469999999999998,-136.60452311496792
-0.1957000000000001,-137.08552495692206
-0.19669999999999999,-137.76458638085728
-0.1977000000000001,-138.62756027377495
-0.1987,-139.29247458471153
-0.1997000000000001,-139.83006487866024
-0.2007,-140.7213329975752
-0.2017000000000001,-141.75407224647665
-0.2027,-142.6028990263957
-0.2037000000000001,-143.0273124163552
-0.2047,-143.4517258063147
-0.2057000000000001,-143.87613919627424
-0.2067,-144.30055258623375
-0.2077000000000001,-144.58349484620675
-0.2087,-145.00790823616626
-0.2097000000000001,-145.29085049613926
-0.2107,-145.85673501608528
-0.2117000000000001,-146.28114840604482
-0.2127,-146.8470329259908
-0.2137000000000001,-147.27144631595033
-0.2147,-147.83733083589632
-0.2157000000000001,-148.26174422585584
-0.2167,-148.82762874580186
-0.21770000000000012,-149.8179266557074
-0.2187,-150.38381117565342
-0.21970000000000012,-150.8082245656129
-0.2207,-151.5155802155454
-0.22170000000000012,-152.36440699546444
-0.2227,-152.64734925543743
-0.22370000000000012,-153.07176264539694
-0.2247,-153.77911829532948
-0.22570000000000012,-154.6279450752485
-0.2267,-155.47677185516753
-0.22770000000000012,-156.04265637511355
-0.22870000000000001,-156.60854089505958
-0.22970000000000013,-156.89148315503257
-0.23070000000000002,-157.59883880496508
-0.23170000000000013,-158.1647233249111
-0.23270000000000002,-158.73060784485713
-0.23370000000000013,-159.86237688474912
-0.23470000000000002,-161.2770881846142
-0.23570000000000013,-162.12591496453322
-0.23670000000000002,-162.2673860945197
-0.2376999999999999,-162.6917994844792
-0.23870000000000002,-163.68209739438475
-0.2396999999999999,-164.38945304431726
-0.24070000000000003,-164.53092417430375
-0.24169999999999991,-164.67239530429026
-0.24270000000000003,-165.2382798242363
-0.24369999999999992,-165.94563547416882
-0.24470000000000003,-166.79446225408785
-0.24569999999999992,-167.07740451406085
-0.24670000000000003,-167.50181790402033
-0.24769999999999992,-168.20917355395284
-0.24870000000000003,-168.49211581392586
-0.24969999999999992,-168.77505807389886
-0.25070000000000003,-169.48241372383137
-0.2516999999999999,-170.33124050375042
-0.25270000000000004,-171.03859615368293
-0.2536999999999999,-171.60448067362896
-0.25470000000000004,-172.17036519357498
-0.2556999999999999,-172.73624971352098
-0.25670000000000004,-173.302134233467
-0.25769999999999993,-173.72654762342648
-0.25870000000000004,-173.86801875341303
-0.25969999999999993,-174.150961013386
-0.26070000000000004,-174.99978779330505
-0.26169999999999993,-175.84861457322407
-0.26270000000000004,-176.4144990931701
-0.26369999999999993,-176.8389124831296
-0.26470000000000005,-177.82921039303508
-0.26569999999999994,-178.81950830294062
-0.26670000000000005,-179.38539282288664
-0.26769999999999994,-179.66833508285964
-0.26870000000000005,-179.80980621284618
-0.26969999999999994,-180.37569073279218
-0.27070000000000005,-181.64893090267074
-0.27169999999999994,-182.35628655260325
-0.27270000000000005,-183.20511333252225
-0.27369999999999994,-184.47835350240078
-0.27470000000000006,-185.46865141230631
-0.27569999999999995,-186.17600706223882
-0.27670000000000006,-186.74189158218485
-0.27769999999999995,-187.44924723211736
-0.27870000000000006,-187.59071836210387
-0.27969999999999995,-188.01513175206335
-0.28070000000000006,-188.72248740199586
-0.28169999999999995,-189.57131418191491
-0.28270000000000006,-189.8542564418879
-0.28369999999999995,-190.13719870186094
-0.28470000000000006,-190.27866983184742
-0.28569999999999995,-189.42984305192843
-0.28670000000000007,-189.99572757187443
-0.28769999999999996,-190.84455435179345
-0.28870000000000007,-190.13719870186094
-0.28969999999999996,-190.13719870186094
-0.29070000000000007,-190.98602548177996
-0.29169999999999996,-191.69338113171247
-0.29270000000000007,-192.40073678164498
-0.29369999999999996,-193.10809243157752
-0.2947000000000001,-194.52280373144254
-0.29569999999999996,-195.65457277133459
-0.2967000000000001,-196.6448706812401
-0.29769999999999996,-197.0692840711996
-0.2987000000000001,-197.49369746115914
-0.29969999999999997,-198.05958198110514
-0.3007000000000001,-199.04987989101065
-0.30169999999999997,-199.75723554094319
-0.3027000000000001,-200.18164893090267
-0.30369999999999997,-200.4645911908757
-0.3047000000000001,-201.17194684080823
-0.30569999999999997,-201.87930249074074
-0.3067000000000001,-202.44518701068677
-0.3077,-203.15254266061928
-0.3087000000000001,-203.57695605057876
-0.3097,-204.0013694405383
-0.3107000000000001,-204.7087250904708
-0.3117,-205.41608074040332
-0.3127000000000001,-206.40637865030885
-0.3137,-207.3966765602144
-0.3147000000000001,-207.5381476902009
-0.3157,-207.67961882018741
-0.3167000000000001,-207.96256108016038
-0.3177,-208.52844560010638
-0.3187000000000001,-208.8113878600794
-0.3197,-209.0943301200524
-0.3207000000000001,-209.51874351001192
-0.3217,-210.08462802995794
-0.3227000000000001,-210.65051254990397
-0.3237,-210.93345480987696
-0.3247000000000001,-211.499339329823
-0.3257,-211.782281589796
-0.3267000000000001,-211.9237527197825
-0.3277,-212.2066949797555
-0.3287000000000001,-212.2066949797555
-0.3297,-212.48963723972852
-0.3307000000000001,-213.05552175967455
-0.3317,-213.62140627962054
-0.3327000000000001,-214.04581966958003
-0.3337,-214.32876192955305
-0.3347000000000001,-214.47023305953954
-0.3357,-214.75317531951256
-0.3367000000000001,-215.03611757948556
-0.3377,-216.3093577493641
-0.3387000000000001,-217.72406904922914
-0.3397,-216.87524226931012
-0.3407000000000001,-216.73377113932364
-0.3417,-217.86554017921566
-0.3427000000000001,-218.14848243918865
-0.3437,-218.00701130920217
-0.3447000000000001,-218.14848243918865
-0.3457,-219.13878034909416
-0.3467000000000001,-219.98760712901318
-0.3477,-220.6949627789457
-0.3487000000000001,-221.54378955886475
-0.3497,-221.54378955886475
-0.3507000000000001,-221.54378955886475
-0.3517,-221.96820294882426
-0.3527000000000001,-222.81702972874328
-0.3537,-223.6658565086623
-0.3547000000000001,-224.5146832885813
-0.3557,-224.65615441856778
-0.35670000000000013,-224.93909667854084
-0.3577,-225.50498119848683
-0.35870000000000013,-225.78792345845983
-0.3597,-226.07086571843288
-0.36070000000000013,-226.49527910839237
-0.3617,-226.91969249835188
-0.3626999999999999,-227.2026347583249
-0.3637,-227.4855770182979
-0.3646999999999999,-227.4855770182979
-0.3657,-227.7685192782709
-0.3666999999999999,-227.9099904082574
-0.3677,-228.0514615382439
-0.3686999999999999,-227.7685192782709
-0.36970000000000003,-228.1929326682304
-0.3706999999999999,-228.90028831816295
-0.37170000000000003,-229.60764396809546
-0.3726999999999999,-230.31499961802797
-0.37370000000000003,-230.7394130079875
-0.3746999999999999,-231.3052975279335
-0.37570000000000003,-231.5882397879065
-0.3766999999999999,-231.5882397879065
-0.37770000000000004,-231.729710917893
-0.3786999999999999,-232.01265317786604
-0.37970000000000004,-232.72000882779852
-0.3806999999999999,-233.28589334774458
-0.38170000000000004,-233.56883560771757
-0.38269999999999993,-233.4273644777311
-0.38370000000000004,-233.4273644777311
-0.38469999999999993,-233.4273644777311
-0.38570000000000004,-233.4273644777311
-0.38669999999999993,-231.8711820478795
-0.38570000000000004,-228.33440379821695
-0.38469999999999993,-224.79762554855435
-0.38370000000000004,-221.26084729889175
-0.38269999999999993,-217.01671339929663
-0.38170000000000004,-212.77257949970152
-0.3806999999999999,-209.37727238002543
-0.37970000000000004,-206.40637865030885
-0.3786999999999999,-203.57695605057876
-0.37770000000000004,-200.4645911908757
-0.3766999999999999,-197.49369746115914
-0.37570000000000003,-195.23015938137505
-0.3746999999999999,-192.683679041618
-0.37370000000000003,-189.1469007919554
-0.3726999999999999,-185.89306480226583
-0.37170000000000003,-182.78069994256273
-0.3706999999999999,-179.10245056291362
-0.36970000000000003,-176.13155683319707
-0.3686999999999999,-173.58507649344
-0.3677,-171.18006728366944
-0.3666999999999999,-168.63358694391238
-0.3657,-165.8041643441823
-0.3646999999999999,-162.8332706144657
-0.3637,-160.00384801473567
-0.3626999999999999,-157.7403099349516
-0.3617,-155.47677185516753
-0.36070000000000013,-153.07176264539694
-0.3597,-150.94969569559944
-0.35870000000000013,-148.54468648582886
-0.3577,-145.85673501608528
-0.35670000000000013,-143.3102546763282
-0.3557,-140.65059743258192
-0.3547000000000001,-138.13241131882216
-0.3537,-135.8405790130408
-0.3527000000000001,-133.3365400122797
-0.3517,-130.5778529775429
-0.3507000000000001,-128.17284376777232
-0.3497,-126.16395372196398
-0.3487000000000001,-123.97115120717316
-0.3477,-121.58028911040124
-0.3467000000000001,-119.2601625786226
-0.3457,-116.98247738583989
-0.3447000000000001,-114.67649796705987
-0.3437,-112.45540122627176
-0.3427000000000001,-110.4748054064607
-0.3417,-108.48006247365102
-0.3407000000000001,-106.2306715068656
-0.3397,-104.12275167006669
-0.3387000000000001,-102.17045007625295
-0.3377,-100.02008890045809
-0.3367000000000001,-97.94046328965649
-0.3357,-95.97401458284409
-0.3347000000000001,-93.95097742403709
-0.3337,-92.05526428221793
-0.3327000000000001,-90.42834628737315
-0.3317,-88.7023985015378
-0.3307000000000001,-86.8774209247119
-0.3297,-85.09488468688197
-0.3287000000000001,-83.41137824004257
-0.3277,-81.57225355021802
-0.3267000000000001,-79.7472759733921
-0.3257,-78.03547530055542
-0.3247000000000001,-76.32367462771872
-0.3237,-74.62602106788069
-0.3227000000000001,-73.0556915250305
-0.3217,-71.35803796519245
-0.3207000000000001,-69.54720750136521
-0.3197,-67.9485837325177
-0.3187000000000001,-66.39240130266617
-0.3177,-64.65230640383218
-0.3167000000000001,-62.89806439199953
-0.3157,-61.27114639715474
-0.3147000000000001,-59.5734928373167
-0.3137,-57.91828061647461
-0.3127000000000001,-56.489422203610914
-0.3117,-55.003975338752625
-0.3107000000000001,-53.348763117910536
-0.3097,-51.8491691400536
-0.3087000000000001,-50.491046292183164
-0.3077,-48.991452314326224
-0.3067000000000001,-47.534299675465235
-0.30569999999999997,-46.19032394059345
-0.3047000000000001,-44.78975975372706
-0.30369999999999997,-43.37504845386202
-0.3027000000000001,-42.073514057986195
-0.30169999999999997,-40.743685436113054
-0.3007000000000001,-39.272385684253415
-0.29969999999999997,-37.92840994938163
-0.2987000000000001,-36.7117582314977
-0.29769999999999996,-35.353635383627264
-0.2967000000000001,-34.03795387475279
-0.29569999999999996,-32.807155043870196
-0.2947000000000001,-31.505620647994366
-0.29369999999999996,-30.232380478115836
-0.29270000000000007,-29.044022986229205
-0.29169999999999996,-27.841518381343924
-0.29070000000000007,-26.55413109846674
-0.28969999999999996,-25.351626493581456
-0.28870000000000007,-24.23400456668808
-0.28769999999999996,-22.932470170812245
-0.28670000000000007,-21.67337711393236
-0.28569999999999995,-20.569902300037633
-0.28470000000000006,-19.381544808151002
-0.28369999999999995,-18.15074597726842
-0.28270000000000006,-17.146300954364243
-0.28169999999999995,-16.099414592464115
-0.28070000000000006,-14.882762874580186
-0.27969999999999995,-13.784946905884919
-0.27870000000000006,-12.723913430986139
-0.27769999999999995,-11.559606031197214
-0.27670000000000006,-10.425007568705455
-0.27569999999999995,-9.429050813600469
-0.27470000000000006,-8.348211380503582
-0.27369999999999994,-7.223515897110879
-0.27270000000000005,-6.2558533680031925
-0.27169999999999994,-5.271214303297127
-0.27070000000000005,-4.142274686004828
-0.26969999999999994,-3.1321708179011907
-0.26870000000000005,-2.178655401792157
-0.26769999999999994,-1.1085677745742428
