Potential V vs RHE, Current mA cm-2
0.013299999999999867,-0.04307795908089037
0.012299999999999978,-0.10821126732667666
0.011299999999999866,-0.14387613919627423
0.010299999999999976,-0.17018976937376393
0.009299999999999864,-0.1890054296619689
0.008299999999999974,-0.20428431170051128
0.007299999999999862,-0.2195631937390537
0.006299999999999972,-0.23003205735805496
0.00529999999999986,-0.23498354690758255
0.0042999999999999705,-0.24177416114693479
0.0032999999999998586,-0.2521015536359495
0.0022999999999999687,-0.2607312925651262
0.0012999999999998568,-0.2648339553347349
0.00029999999999996696,-0.26837073358439745
-0.000700000000000145,-0.268795146974357
-0.0017000000000000348,-0.2736051653938981
-0.0027000000000001467,-0.27982989511330425
-0.0037000000000000366,-0.2952502482818331
-0.0047000000000001485,-0.29793819975157676
-0.005700000000000038,-0.29822114201154976
-0.00670000000000015,-0.3028896893011043
-0.00770000000000004,-0.3096803035404565
-0.008700000000000152,-0.31533914873991664
-0.009700000000000042,-0.3218468207192958
-0.010700000000000154,-0.32948626173856704
-0.011700000000000044,-0.3345792224180812
-0.012700000000000156,-0.3427845479572984
-0.013700000000000045,-0.347453095246853
-0.014700000000000157,-0.3519801714064211
-0.015700000000000047,-0.35297046931632664
-0.01670000000000016,-0.3580634299958408
-0.01770000000000005,-0.37829380158391085
-0.01870000000000016,-0.38862119407292556
-0.01970000000000005,-0.3884797229429391
-0.020700000000000163,-0.39258238571254767
-0.021700000000000053,-0.39710946187211577
-0.022700000000000164,-0.40602214306126555
-0.023700000000000054,-0.4147933531204288
-0.024700000000000166,-0.4293648795090386
-0.025700000000000056,-0.42894046611907916
-0.026700000000000168,-0.43615549374839085
-0.027700000000000058,-0.4429461079877429
-0.02870000000000017,-0.4500196644870682
-0.02970000000000006,-0.4501611356170546
-0.03070000000000017,-0.4578005766363259
-0.03170000000000006,-0.4740697565847738
-0.03270000000000017,-0.47859683274434195
-0.03370000000000006,-0.4845386202037751
-0.034700000000000175,-0.4826994955139505
-0.035700000000000065,-0.4841142068138156
-0.03670000000000018,-0.4873680428035051
-0.03770000000000007,-0.49727102190256034
-0.03870000000000018,-0.5183502202705494
-0.03970000000000007,-0.5139646152409678
-0.04070000000000018,-0.5131157884610488
-0.04170000000000007,-0.51792580688059
-0.04270000000000018,-0.5208967006103065
-0.04370000000000007,-0.5244334788599692
-0.044700000000000184,-0.5310826219693349
-0.045700000000000074,-0.5418344278483092
-0.046700000000000186,-0.5408441299384036
-0.047700000000000076,-0.5459370906179177
-0.04870000000000019,-0.5490494554776209
-0.04970000000000008,-0.5487665132176478
-0.05070000000000019,-0.5462200328778907
-0.05170000000000008,-0.5571133098868515
-0.05270000000000019,-0.5697042404556503
-0.05370000000000008,-0.5685724714157583
-0.05470000000000019,-0.5667333467259337
-0.05570000000000008,-0.5626306839563251
-0.056700000000000195,-0.5639039241262036
-0.057700000000000085,-0.5670162889859067
-0.058700000000000196,-0.5820122287644761
-0.059700000000000086,-0.5866807760540307
-0.0607000000000002,-0.5830025266743816
-0.06170000000000009,-0.5825781132844221
-0.0627000000000002,-0.5854075358841522
-0.06370000000000009,-0.5862563626640712
-0.0647000000000002,-0.5845587091042331
-0.06570000000000009,-0.5989887643628565
-0.0667000000000002,-0.5971496396730319
-0.0677000000000001,-0.600827889052681
-0.0687000000000002,-0.6033743693924382
-0.0697000000000001,-0.599130235492843
-0.07070000000000021,-0.598281408712924
-0.0717000000000001,-0.6059208497321952
-0.07270000000000021,-0.6203509049908186
-0.0737000000000001,-0.6214826740307106
-0.07470000000000021,-0.6165311844811829
-0.0757000000000001,-0.614833530921345
-0.07670000000000021,-0.6121455794516013
-0.0777000000000001,-0.6151164731813179
-0.07870000000000021,-0.6302538840898738
-0.0797000000000001,-0.6429862857886591
-0.08070000000000022,-0.6346394891194554
-0.0817000000000001,-0.6367615560692529
-0.08270000000000022,-0.6384592096290911
-0.08370000000000011,-0.6410056899688481
-0.08470000000000022,-0.6411471610988346
-0.08570000000000011,-0.6511916113278763
-0.08670000000000022,-0.6548698607075254
-0.08770000000000011,-0.6574163410472825
-0.08870000000000022,-0.659821350257053
-0.08970000000000011,-0.6629337151167561
-0.09070000000000022,-0.6609531192969451
-0.09170000000000011,-0.6626507728567832
-0.09270000000000023,-0.6656216665864998
-0.09370000000000012,-0.6660460799764593
-0.09470000000000023,-0.6685925603162164
-0.09570000000000012,-0.6850032113946508
-0.09670000000000023,-0.6852861536546238
-0.09770000000000012,-0.6878326339943809
-0.09870000000000023,-0.69151088337403
-0.09970000000000012,-0.6899547009441784
-0.10070000000000023,-0.6876911628643944
-0.10170000000000012,-0.6900961720741648
-0.10270000000000024,-0.7011309202131122
-0.10370000000000013,-0.7138633219118975
-0.10470000000000024,-0.7086288901023969
-0.10570000000000013,-0.7082044767124374
-0.10670000000000024,-0.7067897654125724
-0.10770000000000013,-0.7113168415721405
-0.10870000000000024,-0.7124486106120325
-0.10970000000000013,-0.7232004164910067
-0.11070000000000024,-0.7352254625398595
-0.11170000000000013,-0.7301325018603455
-0.11270000000000002,-0.7360742893197786
-0.11370000000000013,-0.7374890006196436
-0.11470000000000002,-0.7321130976801564
-0.11570000000000014,-0.7348010491499001
-0.11670000000000003,-0.7507872868383749
-0.11770000000000014,-0.7623879194972683
-0.11870000000000003,-0.7608317370674167
-0.11970000000000014,-0.7570120165577812
-0.12070000000000003,-0.7526264115281995
-0.12170000000000014,-0.756163189777862
-0.12270000000000003,-0.7616805638473357
-0.12370000000000014,-0.7870038961149198
-0.12470000000000003,-0.7854477136850683
-0.12570000000000014,-0.7796473973556217
-0.12670000000000003,-0.7819109354354057
-0.12770000000000015,-0.7844574157751628
-0.12870000000000004,-0.7814865220454462
-0.12970000000000015,-0.7819109354354057
-0.13070000000000004,-0.8048292584932193
-0.13170000000000015,-0.8189763714918699
-0.13270000000000004,-0.8177031313219912
-0.13370000000000015,-0.8178446024519777
-0.13470000000000004,-0.8165713622820991
-0.13570000000000015,-0.8113369304725986
-0.13670000000000004,-0.8161469488921397
-0.13770000000000016,-0.8433094058495484
-0.13870000000000005,-0.84769501087913
-0.13970000000000016,-0.8437338192395079
-0.14070000000000005,-0.8421776368096564
-0.14170000000000016,-0.8431679347195619
-0.14270000000000005,-0.8484023665290624
-0.14370000000000016,-0.8577394611081718
-0.14470000000000005,-0.8728768720167276
-0.14570000000000016,-0.8703303916769705
-0.14670000000000005,-0.8700474494169976
-0.14770000000000016,-0.8751404100965116
-0.14870000000000005,-0.8782527749562148
-0.14970000000000017,-0.8802333707760258
-0.15070000000000006,-0.8931072436047977
-0.15170000000000017,-0.8970684352444198
-0.15270000000000006,-0.9025858093138934
-0.15370000000000017,-0.906405529823529
-0.15470000000000006,-0.8986246176742713
-0.15570000000000017,-0.8932487147347841
-0.15670000000000006,-0.8946634260346491
-0.15770000000000017,-0.9362559382506813
-0.15870000000000006,-0.947149215259642
-0.15970000000000018,-0.9395097742403707
-0.16070000000000007,-0.9371047650306003
-0.16170000000000018,-0.9366803516406408
-0.16270000000000007,-0.9375291784205598
-0.16370000000000018,-0.9393683031103843
-0.16470000000000007,-0.9673795868477121
-0.16570000000000018,-0.9772825659467672
-0.16670000000000007,-0.9757263835169159
-0.16770000000000018,-0.9767166814268213
-0.16870000000000007,-0.9772825659467672
-0.16970000000000018,-0.9714822496173208
-0.17070000000000007,-0.9743116722170507
-0.17170000000000019,-1.005010907424122
-0.17270000000000008,-1.0184506647728397
-0.1737000000000002,-1.0167530112130019
-0.17470000000000008,-1.0171774246029612
-0.1757000000000002,-1.020148318332678
-0.17670000000000008,-1.0228362698024216
-0.1777000000000002,-1.0265145191820706
-0.17870000000000008,-1.0304757108216926
-0.1797000000000002,-1.0334466045514092
-0.18070000000000008,-1.0546672740493848
-0.1817000000000002,-1.0621652439386697
-0.18270000000000008,-1.0682485025280892
-0.1837000000000002,-1.0679655602681162
-0.1847000000000001,-1.0671167334881972
-0.1857000000000002,-1.0712193962578058
-0.1867000000000001,-1.0879129895962132
-0.1877000000000002,-1.108426303444256
-0.1887000000000001,-1.1108313126540268
-0.1897000000000002,-1.1111142549139998
-0.1907000000000001,-1.1091336590941887
-0.1917000000000001,-1.1119630816939188
-0.19269999999999998,-1.115358388813595
-0.1937000000000001,-1.1528482382600183
-0.19469999999999998,-1.1685515336885204
-0.1957000000000001,-1.1672782935186419
-0.19669999999999999,-1.1691174182084663
-0.1977000000000001,-1.1718053696782098
-0.1987,-1.1636000441389927
-0.1997000000000001,-1.1510091135701939
-0.2007,-1.1730786098480883
-0.2017000000000001,-1.2518780292505711
-0.2027,-1.2654592577292754
-0.2037000000000001,-1.2571124610600715
-0.2047,-1.2523024426405305
-0.2057000000000001,-1.2493315489108139
-0.2067,-1.256688047670112
-0.2077000000000001,-1.2715425163186949
-0.2087,-1.3101641348050104
-0.2097000000000001,-1.3135594419246865
-0.2107,-1.3175206335643086
-0.2117000000000001,-1.3247356611936203
-0.2127,-1.33081891978304
-0.2137000000000001,-1.3393071875822302
-0.2147,-1.3748164412088428
-0.2157000000000001,-1.3988665333065484
-0.2167,-1.4056571475459005
-0.21770000000000012,-1.4124477617852527
-0.2187,-1.4110330504853876
-0.21970000000000012,-1.410042752575482
-0.2207,-1.4028277249461705
-0.22170000000000012,-1.4401761032626073
-0.2227,-1.5590118524512704
-0.22370000000000012,-1.5519382959519452
-0.2247,-1.543450028152755
-0.22570000000000012,-1.55052358465208
-0.2267,-1.5646706976507305
-0.22770000000000012,-1.5731589654499207
-0.22870000000000001,-1.584476655848841
-0.22970000000000013,-1.583061944548976
-0.23070000000000002,-1.6071120366466816
-0.23170000000000013,-1.6990682711379093
-0.23270000000000002,-1.7188742293360195
-0.23370000000000013,-1.7245330745354797
-0.23470000000000002,-1.7245330745354797
-0.23570000000000013,-1.7358507649344
-0.23670000000000002,-1.7485831666331852
-0.2376999999999999,-1.7627302796318356
-0.23870000000000002,-1.8306364220253575
-0.2396999999999999,-1.9084455435179344
-0.24070000000000003,-1.9042014096183393
-0.24169999999999991,-1.9169338113171246
-0.24270000000000003,-1.9310809243157752
-0.24369999999999992,-1.9508868825138854
-0.24470000000000003,-1.9735222633117262
-0.24569999999999992,-2.042843117005113
-0.24670000000000003,-2.081040322101469
-0.24769999999999992,-2.0980168576998492
-0.24870000000000003,-2.1121639706984996
-0.24969999999999992,-2.1305552175967453
-0.25070000000000003,-2.1418729079956655
-0.2516999999999999,-2.1857289582914814
-0.25270000000000004,-2.3116382639794697
-0.2536999999999999,-2.348420757775961
-0.25470000000000004,-2.354079602975421
-0.2556999999999999,-2.3696414272739363
-0.25670000000000004,-2.3936915193716417
-0.25769999999999993,-2.427644590568403
-0.25870000000000004,-2.4913065990623298
-0.25969999999999993,-2.5733598544545018
-0.26070000000000004,-2.6030687917516673
-0.26169999999999993,-2.6257041725495083
-0.26270000000000004,-2.6525836872469437
-0.26369999999999993,-2.6752190680447843
-0.26470000000000005,-2.706342716641815
-0.26569999999999994,-2.811031352831828
-0.26670000000000005,-2.9468436376188714
-0.26769999999999994,-2.9609907506175217
-0.26870000000000005,-2.977967286215902
-0.26969999999999994,-3.002017378313608
-0.27070000000000005,-3.044458717309559
-0.27169999999999994,-3.1038765919038904
-0.27270000000000005,-3.217053495893093
-0.27369999999999994,-3.2906184834860754
-0.27470000000000006,-3.3203274207832414
-0.27569999999999995,-3.3542804919800018
-0.27670000000000006,-3.386818851876898
-0.27769999999999995,-3.436333747372174
-0.27870000000000006,-3.5297046931632665
-0.27969999999999995,-3.6923964926477457
-0.28070000000000006,-3.730593697744102
-0.28169999999999995,-3.7702056141403233
-0.28270000000000006,-3.811232241836409
-0.28369999999999995,-3.8480147356329
-0.28470000000000006,-3.8763089616302007
-0.28569999999999995,-3.9894858656194034
-0.28670000000000007,-4.222913230097134
-0.28769999999999996,-4.276672259492005
-0.28870000000000007,-4.302137062889576
-0.28969999999999996,-4.343163690585662
-0.29070000000000007,-4.396922719980535
-0.29169999999999996,-4.473317130173245
-0.29270000000000007,-4.590738168062044
-0.29369999999999996,-4.778894770944094
-0.2947000000000001,-4.8312390890391
-0.29569999999999996,-4.875095139334916
-0.2967000000000001,-4.920365900930598
-0.29769999999999996,-4.978369064225063
-0.2987000000000001,-5.01939569192115
-0.29969999999999997,-5.18208749140563
-0.3007000000000001,-5.538594738971618
-0.30169999999999997,-5.503226956474993
-0.3027000000000001,-5.582450789267434
-0.30369999999999997,-5.688554136757313
-0.3047000000000001,-5.77768094864881
-0.30569999999999997,-5.8427576684426015
-0.3067000000000001,-5.910663810836123
-0.3077,-6.012523024426406
-0.3087000000000001,-6.213412029007241
-0.3097,-6.445424682185107
-0.3107000000000001,-6.475133619482273
-0.3117,-6.589725234771341
-0.3127000000000001,-6.7085609839600036
-0.3137,-6.837299712247723
-0.3147000000000001,-6.9250118128393545
-0.3157,-6.980185553534091
-0.3167000000000001,-7.066482942825859
-0.3177,-7.190977537213982
-0.3187000000000001,-7.468260951987529
-0.3197,-7.734226676362156
-0.3207000000000001,-7.7851562831572965
-0.3217,-7.865794827249602
-0.3227000000000001,-7.92096856794434
-0.3237,-8.015754225035298
-0.3247000000000001,-8.179860735819641
-0.3257,-8.51656202518752
-0.3267000000000001,-8.711792184568896
-0.3277,-8.79384543996107
-0.3287000000000001,-8.85892215975486
-0.3297,-8.936731281247436
-0.3307000000000001,-8.980587331543253
-0.3317,-9.051322896536504
-0.3327000000000001,-9.506859935093045
-0.3337,-9.97654408664824
-0.3347000000000001,-9.99917946744608
-0.3357,-10.074159166338926
-0.3367000000000001,-10.166115400830154
-0.3377,-10.296268840417738
-0.3387000000000001,-10.481596020700055
-0.3397,-10.839517979565912
-0.3407000000000001,-11.051724674545666
-0.3417,-11.180463402833384
-0.3427000000000001,-11.395499520412871
-0.3437,-11.511505847001803
-0.3447000000000001,-11.576582566795595
-0.3457,-11.684100625585337
-0.3467000000000001,-11.890648475365632
-0.3477,-12.2966706184269
-0.3487000000000001,-12.660251422492214
-0.3497,-12.77767246038101
-0.3507000000000001,-12.895093498269809
-0.3517,-12.977146753661982
-0.3527000000000001,-13.115788461048757
-0.3537,-13.350630536826351
-0.3547000000000001,-13.837291223979923
-0.3557,-14.1456982873505
-0.35670000000000013,-14.288584128636872
-0.3577,-14.373466806628771
-0.35870000000000013,-14.458349484620674
-0.3597,-14.599820614607177
-0.36070000000000013,-14.896909987578834
-0.3617,-15.547677185516752
-0.3626999999999999,-15.802325219492458
-0.3637,-15.901355010483012
-0.3646999999999999,-15.943796349478962
-0.3657,-15.972090575476265
-0.3666999999999999,-16.000384801473565
-0.3677,-16.311621287443874
-0.3686999999999999,-17.160448067362896
-0.36970000000000003,-17.641449909317007
-0.3706999999999999,-17.797068152302163
-0.37170000000000003,-17.867803717295413
-0.3726999999999999,-17.966833508285966
-0.37370000000000003,-18.09415752527382
-0.3746999999999999,-18.377099785246827
-0.37570000000000003,-19.141043887173947
-0.3766999999999999,-19.508868825138855
-0.37770000000000004,-19.65033995512536
-0.3786999999999999,-19.73522263311726
-0.37970000000000004,-19.848399537106463
-0.3806999999999999,-19.93328221509837
-0.38170000000000004,-20.357695605057877
-0.38269999999999993,-21.2065223849769
-0.38370000000000004,-21.560200209943158
-0.38469999999999993,-21.71581845292831
-0.38570000000000004,-21.758259791924264
-0.38669999999999993,-21.786554017921564
-0.38770000000000004,-21.800701130920213
-0.38869999999999993,-22.267555859875678
-0.38970000000000005,-23.385177786769056
-0.39069999999999994,-23.852032515724517
-0.39170000000000005,-23.97935653271237
-0.39269999999999994,-23.993503645711023
-0.39370000000000005,-24.050092097705623
-0.39469999999999994,-24.021797871708326
-0.39570000000000005,-24.37547569667458
-0.39669999999999994,-25.507244736566612
-0.39770000000000005,-26.28533595149238
-0.39869999999999994,-26.440954194477534
-0.39970000000000006,-26.511689759470787
-0.40069999999999995,-26.539983985468087
-0.40170000000000006,-26.851220471438396
-0.40269999999999995,-27.615164573365515
-0.40370000000000006,-28.280078884302082
-0.40469999999999995,-28.52057980527914
-0.40570000000000006,-28.52057980527914
-0.40669999999999995,-28.52057980527914
-0.40770000000000006,-29.015728760231898
-0.40869999999999995,-29.708937297165768
-0.40970000000000006,-30.487028512091538
-0.41069999999999995,-30.854853450056453
-0.41170000000000007,-30.925589015049702
-0.41269999999999996,-30.99632458004295
-0.41370000000000007,-30.99632458004295
-0.41469999999999996,-31.180237049025404
-0.41570000000000007,-32.297858975918786
-0.41669999999999996,-33.40133378981351
-0.41770000000000007,-33.712570275783825
-0.41869999999999996,-33.85404140577033
-0.4197000000000001,-33.88233563176763
-0.42069999999999996,-34.05210098775143
-0.4217000000000001,-34.5472499427042
-0.42269999999999996,-35.679018982596226
-0.4237000000000001,-36.28734484153819
-0.42469999999999997,-36.37222751953009
-0.4257000000000001,-36.244903502542236
-0.42669999999999997,-36.07513814655844
-0.4277000000000001,-35.79219588658543
-0.42869999999999997,-36.570287101511205
-0.4297000000000001,-38.5367358083236
-0.43069999999999997,-39.45629815323587
-0.4317000000000001,-39.696799074212926
-0.4327,-40.05047689917919
-0.4337000000000001,-40.559772967130606
-0.4347,-40.715391210115754
-0.4357000000000001,-40.545625854131956
-0.4367,-40.4748902891387
-0.4377000000000001,-40.602214306126555
-0.4387,-41.63495355502803
-0.4397000000000001,-43.134547532884966
-0.4407,-43.82775606981884
-0.4417000000000001,-43.88434452181344
-0.4427,-43.643843600836384
-0.4437000000000001,-43.81360895682018
-0.4447,-44.054109877797245
-0.4457000000000001,-45.482968290660935
-0.4467,-46.79864979953541
-0.4477000000000001,-47.10988628550572
-0.4487,-46.95426804252057
-0.4497000000000001,-46.69962000854486
-0.4507,-46.4874133135651
-0.4517000000000001,-46.89767959052597
-0.4527,-48.79339273234511
-0.4537000000000001,-50.448604953187214
-0.4547,-50.88716545614537
-0.4557000000000001,-51.410608637095436
-0.4567,-51.679403784069784
-0.4577000000000001,-51.481344202088685
-0.4587,-51.028636586131874
-0.4597000000000001,-50.335428049198
-0.4607,-50.32128093619935
-0.4617000000000001,-52.54237767698746
-0.4627,-54.989828225753975
-0.4637000000000001,-55.484977180706736
-0.4647,-55.30106471172429
-0.4657000000000001,-54.919092660760725
-0.4667,-54.66444462678501
-0.4677000000000001,-55.31521182472294
-0.4687,-57.33824898352994
-0.4697000000000001,-58.76710739639362
-0.4707,-58.97931409137338
-0.4717000000000001,-58.52660647541657
-0.4727,-58.22951710244491
-0.4737000000000001,-58.031457520463796
-0.4747,-58.86613718738417
-0.4757000000000001,-61.455058866137186
-0.4767,-62.629269245025185
-0.4777000000000001,-62.92635861799682
-0.4787,-62.40291543704677
-0.4797000000000001,-61.87947225609671
-0.4807,-61.61067710912235
-0.48170000000000013,-62.88391727900089
-0.4827,-65.5577216357458
-0.48370000000000013,-66.53387243265267
-0.4847,-66.70363778863647
-0.48570000000000013,-65.9821350257053
-0.4867,-64.52498238684433
-0.48570000000000013,-62.28973853305756
-0.4847,-61.5965299961237
-0.48370000000000013,-63.944950753899654
-0.4827,-65.14745535878494
-0.48170000000000013,-64.39765836985646
-0.4807,-63.03953552198603
-0.4797000000000001,-61.25699928415608
-0.4787,-59.6583755153086
-0.4777000000000001,-58.72466605739767
-0.4767,-59.757405306299155
-0.4757000000000001,-60.32328982624517
-0.4747,-59.44616882032884
-0.4737000000000001,-57.87583927747865
-0.4727,-56.34795107362442
-0.4717000000000001,-55.13129935574048
-0.4707,-55.20203492073373
-0.4697000000000001,-55.980126135659496
-0.4687,-55.56985985869864
