Potential V vs RHE, Current mA cm-2
0.4132999999999999,0.00521321114000266
0.4122999999999999,0.00346038383946988
0.4112999999999999,0.0029751378636161717
0.4102999999999999,0.00269361031494303
0.4092999999999999,0.002389447385472047
0.4082999999999999,0.0021744112678925617
0.4072999999999999,0.0020103047571082173
0.4062999999999999,0.001890054296619689
0.4052999999999999,0.0017089712502369643
0.4042999999999999,0.0014854468648582886
0.4032999999999999,0.0013318092176929453
0.4022999999999999,0.001229950004102663
0.4012999999999999,0.0011154998599435812
0.4002999999999999,0.0009758678546469022
0.3992999999999999,0.000772149427466337
0.3982999999999999,0.0006227559142005892
0.3972999999999999,0.0005375902939487139
0.3962999999999999,0.00046643031556550254
0.3952999999999999,0.0003548095940061512
0.3942999999999999,0.0001775462681330621
0.39329999999999987,4.494537799671222e-05
0.39229999999999987,-1.508082245656129e-05
0.39129999999999987,-0.00011138022063837435
0.39029999999999987,-0.00021050904141991746
0.38929999999999987,-0.0003597610835556788
0.38829999999999987,-0.0004812847842140855
0.38729999999999987,-0.0005482006286977017
0.38629999999999987,-0.0006083258589419658
0.38529999999999986,-0.0007268786658706558
0.38429999999999986,-0.0008427435213296023
0.38329999999999986,-0.0009767166814268213
0.38229999999999986,-0.0010283536438718951
0.38129999999999986,-0.0010842347402165642
0.38029999999999986,-0.0011720883119381831
0.37929999999999986,-0.0013172376913043356
0.37829999999999986,-0.0014246142789640919
0.37729999999999986,-0.0014840321535584235
0.37629999999999986,-0.0015137410908555892
0.37529999999999986,-0.0016269179948447921
0.37429999999999986,-0.00173302134233467
0.37329999999999985,-0.0018631747819222533
0.37229999999999985,-0.0019183485226169897
0.37129999999999985,-0.0019466427486142905
0.37029999999999985,-0.0020258665814067325
0.36929999999999985,-0.0021659230000933708
0.36829999999999985,-0.002259293945884464
0.36729999999999985,-0.0023003205735805496
0.36629999999999985,-0.002359738448174881
0.36529999999999985,-0.002424815167968673
0.36429999999999985,-0.0025648715866553114
0.36329999999999985,-0.0026370218629484287
0.36229999999999984,-0.00269361031494303
0.36129999999999984,-0.002727563386139791
0.36029999999999984,-0.002805372507632368
0.35929999999999984,-0.002929867102020491
0.35829999999999984,-0.003006261512213203
0.35729999999999984,-0.0030260674704113135
0.35629999999999984,-0.0030982177467044304
0.35529999999999984,-0.0031618797551983572
0.35429999999999984,-0.0032821302156868853
0.35329999999999984,-0.0033769158727778425
0.35229999999999984,-0.0033938924083762234
0.35129999999999983,-0.0034518955716706895
0.35029999999999983,-0.0035042398897656953
0.34929999999999983,-0.003621660927654494
0.34829999999999983,-0.0037348378316436966
0.34729999999999983,-0.003794255706238028
0.34629999999999983,-0.0038140616644361386
0.34529999999999983,-0.0038791383842299307
0.34429999999999983,-0.003983827020419943
0.3432999999999998,-0.004088515656609956
0.3422999999999998,-0.004087100945310091
0.3412999999999998,-0.0041521776651038825
0.3402999999999998,-0.004193204292799968
0.3392999999999998,-0.004304966485489306
0.3382999999999998,-0.004408240410379454
0.3372999999999998,-0.004419558100778375
0.3362999999999998,-0.0044393640589764855
0.3352999999999998,-0.004522832025668522
0.3342999999999998,-0.004620447105359211
0.3332999999999998,-0.004712403339850436
0.3322999999999998,-0.0047562593901462535
0.3312999999999998,-0.004783138904843689
0.3302999999999998,-0.004814262553440719
0.3292999999999998,-0.004933098302629383
0.3282999999999998,-0.005019395691921149
0.3272999999999998,-0.005043445784018856
0.3262999999999998,-0.005078813566515482
0.3252999999999999,-0.005122669616811297
0.3242999999999999,-0.005225943541701445
0.3232999999999999,-0.005302337951894158
0.3222999999999999,-0.005323558621392133
0.3212999999999999,-0.0053476087134898395
0.3202999999999999,-0.005402782454184575
0.3192999999999999,-0.005521618203373238
0.3182999999999999,-0.00558952434576676
0.3172999999999999,-0.0056079155926650045
0.3162999999999999,-0.005631965684762711
0.3152999999999999,-0.005687139425457448
0.3142999999999999,-0.005770607392149484
0.3132999999999999,-0.005854075358841523
0.3122999999999999,-0.005863978337940577
0.3112999999999999,-0.005906419676936528
0.3102999999999999,-0.005951690438532209
0.3092999999999999,-0.006054964363422357
0.3082999999999999,-0.006148335309213449
0.3072999999999999,-0.006146920597913584
0.3062999999999999,-0.006163897133511965
0.3052999999999999,-0.006226144430706026
0.3042999999999999,-0.006303953552198604
0.3032999999999999,-0.006402983343189157
0.3022999999999999,-0.006404398054489021
0.3012999999999999,-0.006442595259585377
0.3002999999999999,-0.006486451309881193
0.2992999999999999,-0.006564260431373771
0.2982999999999999,-0.0066618755110644575
0.2972999999999999,-0.0066661196449640525
0.2962999999999999,-0.006690169737061759
0.2952999999999999,-0.006751002322955954
0.2942999999999999,-0.006841543846147317
0.2932999999999999,-0.006916523545040165
0.2922999999999999,-0.006925011812839355
0.2912999999999999,-0.006956135461436385
0.2902999999999999,-0.006998576800432336
0.2892999999999999,-0.007104680147922215
0.2882999999999999,-0.007161268599916816
0.2872999999999999,-0.007190977537213981
0.2862999999999999,-0.007181074558114927
0.2852999999999999,-0.007237663010109528
0.2842999999999999,-0.00732537511070116
0.2832999999999999,-0.007414501922592657
0.2822999999999999,-0.007441381437290093
0.2812999999999999,-0.007441381437290093
0.2802999999999999,-0.00749938460058456
0.2792999999999999,-0.007589926123775921
0.2782999999999999,-0.007657832266169444
0.2772999999999999,-0.00767905293566742
0.2762999999999999,-0.007697444182565665
0.2752999999999999,-0.007735641387662021
0.2742999999999999,-0.007831841756052843
0.2732999999999999,-0.00791530972274488
0.2722999999999999,-0.007905406743645824
0.2712999999999999,-0.007950677505241506
0.2702999999999999,-0.007981801153838538
0.2692999999999999,-0.008068098543130304
0.26829999999999987,-0.008158640066321667
0.26729999999999987,-0.008154395932422072
0.26629999999999987,-0.008167128334120857
0.26529999999999987,-0.008201081405317619
0.26429999999999987,-0.00829728177370844
0.26329999999999987,-0.008387823296899802
0.26229999999999987,-0.008404799832498182
0.26129999999999987,-0.008404799832498182
0.26029999999999986,-0.00844299703759454
0.25929999999999986,-0.0085335385607859
0.25829999999999986,-0.008618421238777804
0.25729999999999986,-0.008626909506576994
0.25629999999999986,-0.008641056619575645
0.25529999999999986,-0.00867642440207227
0.25429999999999986,-0.008772624770463092
0.25329999999999986,-0.008861751582354591
0.25229999999999986,-0.008868825138853915
0.25129999999999986,-0.00887306927275351
0.25029999999999986,-0.008902778210050675
0.24929999999999986,-0.009013125691440148
0.24829999999999985,-0.009073958277334345
0.24729999999999985,-0.009088105390332994
0.24629999999999985,-0.009095178946832322
0.24529999999999985,-0.009165914511825572
0.24429999999999985,-0.00926635901411599
0.24329999999999985,-0.009307385641812075
0.24229999999999985,-0.009327191600010186
0.24129999999999985,-0.009352656403407758
0.24029999999999985,-0.009371047650306004
0.23929999999999985,-0.009481395131695474
0.23829999999999985,-0.009550715985388864
0.23729999999999984,-0.009571936654886837
0.23629999999999984,-0.009573351366186703
0.23529999999999984,-0.009595986746984544
0.23429999999999984,-0.009714822496173206
0.23329999999999984,-0.009768581525568079
0.23229999999999984,-0.009785558061166459
0.23129999999999984,-0.009811022864564029
0.23029999999999984,-0.009830828822762141
0.22929999999999984,-0.009935517458952152
0.22829999999999984,-0.010024644270843649
0.22729999999999984,-0.010006253023945404
0.22629999999999983,-0.010028888404743246
0.22529999999999983,-0.010065670898539736
0.22429999999999983,-0.010154797710431233
0.22329999999999983,-0.010245339233622594
0.22229999999999983,-0.010236850965823406
0.22129999999999983,-0.010242509811022866
0.22029999999999983,-0.010292024706518141
0.21929999999999983,-0.010379736807109774
0.21829999999999983,-0.010461790062501947
0.21729999999999983,-0.010480181309400191
0.21629999999999983,-0.010470278330301137
0.21529999999999982,-0.010519793225796412
0.21429999999999982,-0.01060609061508818
0.21329999999999982,-0.010700876272179137
0.21229999999999982,-0.010709364539978328
0.21129999999999982,-0.010695217426979679
0.21029999999999982,-0.01075180587897428
0.20929999999999982,-0.010840932690865775
0.20829999999999982,-0.010911668255859028
0.20729999999999982,-0.010924400657557813
0.20629999999999982,-0.010941377193156193
0.20529999999999982,-0.010980989109552414
0.20429999999999982,-0.011077189477943237
0.20329999999999981,-0.011145095620336758
0.2022999999999998,-0.011157828022035543
0.2012999999999998,-0.01117621926893379
0.20029999999999992,-0.011214416474030146
0.19929999999999992,-0.011295055018122453
0.19829999999999992,-0.011368620005715436
0.19729999999999992,-0.01138418183001395
0.19629999999999992,-0.01141813490121071
0.19529999999999992,-0.011432282014209361
0.19429999999999992,-0.01159214439109411
0.19329999999999992,-0.011701077161183718
0.19229999999999992,-0.011658635822187766
0.19129999999999991,-0.011675612357786148
0.1902999999999999,-0.011701077161183718
0.1892999999999999,-0.01178878926177535
0.1882999999999999,-0.011896307320565094
0.1872999999999999,-0.011897722031864958
0.1862999999999999,-0.011903380877064417
0.1852999999999999,-0.011938748659561044
0.1842999999999999,-0.012010898935854162
0.1832999999999999,-0.012105684592945119
0.1822999999999999,-0.012115587572044175
0.1812999999999999,-0.01213114939634269
0.1802999999999999,-0.0121792495805381
0.1792999999999999,-0.012248570434231488
0.1782999999999999,-0.012334867823523254
0.1772999999999999,-0.01237023560601988
0.1762999999999999,-0.012349014936521905
0.1752999999999999,-0.012404188677216642
0.1742999999999999,-0.012493315489108139
0.1732999999999999,-0.012576783455800175
0.1722999999999999,-0.012603662970497611
0.1712999999999999,-0.012596589413998287
0.1702999999999999,-0.012641860175593968
0.1692999999999999,-0.01272674285358587
0.1682999999999999,-0.012834260912375613
0.1672999999999999,-0.012858311004473318
0.1662999999999999,-0.012858311004473318
0.1652999999999999,-0.012878116962671429
0.1642999999999999,-0.012970073197162656
0.1632999999999999,-0.013063444142953748
0.1622999999999999,-0.013090323657651183
0.1612999999999999,-0.013115788461048756
0.1602999999999999,-0.01314266797574619
0.1592999999999999,-0.013240283055436878
0.15829999999999989,-0.013294042084831748
0.15729999999999988,-0.013326580444728646
0.15629999999999988,-0.013352045248126216
0.15529999999999988,-0.01337326591762419
0.15429999999999988,-0.013466636863415286
0.15329999999999988,-0.013564251943105973
0.15229999999999988,-0.013575569633504894
0.15129999999999988,-0.013605278570802059
0.15029999999999988,-0.013625084529000167
0.14929999999999988,-0.01371845547479126
0.14829999999999988,-0.013811826420582355
0.14729999999999988,-0.013814655843182085
0.14629999999999987,-0.013837291223979923
0.14529999999999987,-0.013868414872576954
0.14429999999999987,-0.01395471226186872
0.14329999999999987,-0.014082036278856576
0.14229999999999987,-0.014123062906552662
0.14129999999999987,-0.014115989350053336
0.14029999999999987,-0.014175407224647668
0.13929999999999987,-0.014231995676642267
0.13829999999999987,-0.014331025467632824
0.13729999999999987,-0.014345172580631472
0.13629999999999987,-0.014359319693630123
0.13529999999999986,-0.014401761032626074
0.13429999999999986,-0.014514937936615275
0.13329999999999986,-0.014585673501608528
0.13229999999999986,-0.014628114840604478
0.13129999999999986,-0.014628114840604478
0.13029999999999986,-0.014670556179600431
0.12929999999999986,-0.014769585970590984
0.12829999999999986,-0.014854468648582884
0.12729999999999986,-0.014882762874580187
0.12629999999999986,-0.014896909987578835
0.12529999999999986,-0.014925204213576137
0.12429999999999986,-0.01503838111756534
0.12329999999999985,-0.015123263795557243
0.12229999999999985,-0.015165705134553195
0.12129999999999985,-0.015165705134553195
0.12029999999999985,-0.015193999360550494
0.11929999999999985,-0.015278882038542396
0.11829999999999985,-0.0153637647165343
0.11729999999999985,-0.015406206055530251
0.11629999999999985,-0.01543450028152755
0.11529999999999985,-0.015476941620523503
0.11429999999999985,-0.015547677185516754
0.11329999999999985,-0.015660854089505957
0.11229999999999984,-0.015660854089505957
0.11129999999999984,-0.015675001202504608
0.11029999999999984,-0.015717442541500558
0.10929999999999984,-0.01578817810649381
0.10829999999999984,-0.015901355010483013
0.10729999999999984,-0.015943796349478963
0.10629999999999984,-0.015957943462477614
0.10529999999999984,-0.01597209057547626
0.10429999999999984,-0.016056973253468165
0.10329999999999984,-0.01615600304445872
0.10229999999999984,-0.01618429727045602
0.10129999999999983,-0.01619844438345467
0.10029999999999983,-0.01625503283544927
0.09929999999999983,-0.016311621287443873
0.09829999999999983,-0.016424798191433075
0.09729999999999983,-0.01646723953042903
0.09629999999999983,-0.01648138664342768
0.09529999999999983,-0.016537975095422278
0.09429999999999983,-0.01662285777341418
0.09329999999999983,-0.01670774045140608
0.09229999999999983,-0.01673603467740338
0.09129999999999983,-0.016750181790402035
0.09029999999999982,-0.016806770242396636
0.08929999999999982,-0.016891652920388536
0.08829999999999982,-0.01697653559838044
0.08729999999999982,-0.017018976937376393
0.08629999999999982,-0.017018976937376393
0.08529999999999982,-0.017075565389370995
0.08429999999999982,-0.017188742293360197
0.08329999999999982,-0.017259477858353446
0.08229999999999982,-0.01731606631034805
0.08129999999999982,-0.0173302134233467
0.08029999999999982,-0.017372654762342652
0.07929999999999982,-0.017457537440334552
0.07829999999999981,-0.017570714344323755
0.07729999999999981,-0.017584861457322406
0.07629999999999981,-0.017627302796318356
0.07529999999999992,-0.01766974413531431
0.07429999999999992,-0.017754626813306213
0.07329999999999992,-0.017867803717295416
0.07229999999999992,-0.017881950830294063
0.07129999999999992,-0.017924392169290013
0.07029999999999992,-0.017952686395287316
0.06929999999999992,-0.01803756907327922
0.06829999999999992,-0.018150745977268422
0.06729999999999992,-0.018193187316264375
0.06629999999999991,-0.018221481542261674
0.06529999999999991,-0.018278069994256275
0.06429999999999991,-0.018334658446250877
0.06329999999999991,-0.01847612957623738
0.06229999999999991,-0.01850442380223468
0.06129999999999991,-0.01850442380223468
0.06029999999999991,-0.01858930648022658
0.05929999999999991,-0.018674189158218484
0.05829999999999991,-0.018787366062207687
0.05729999999999991,-0.018815660288204986
0.056299999999999906,-0.018843954514202284
0.055299999999999905,-0.01891469007919554
0.054299999999999904,-0.018985425644188793
0.0532999999999999,-0.019112749661176646
0.0522999999999999,-0.019141043887173945
0.0512999999999999,-0.0191551910001726
0.0502999999999999,-0.019211779452167198
0.0492999999999999,-0.0193249563561564
0.0482999999999999,-0.019423986147146955
0.0472999999999999,-0.019466427486142905
0.0462999999999999,-0.019480574599141553
0.045299999999999896,-0.019523015938137503
0.044299999999999895,-0.01963619284212671
0.043299999999999894,-0.01973522263311726
0.04229999999999989,-0.019791811085111865
0.04129999999999989,-0.019820105311109164
0.04029999999999989,-0.019890840876102416
0.03929999999999989,-0.01997572355409432
0.03829999999999989,-0.02008890045808352
0.03729999999999989,-0.020131341797079472
0.03629999999999989,-0.02015963602307677
0.03529999999999989,-0.020216224475071376
0.034299999999999886,-0.020315254266061927
0.033299999999999885,-0.02042843117005113
0.032299999999999884,-0.02048501962204573
0.031299999999999883,-0.020513313848043033
0.030299999999999883,-0.020541608074040336
0.02929999999999988,-0.020668932091028186
0.02829999999999988,-0.02078210899501739
0.02729999999999988,-0.020824550334013342
0.02629999999999988,-0.02085284456001064
0.025299999999999878,-0.020895285899006594
0.024299999999999877,-0.020980168576998495
0.023299999999999876,-0.021121639706984996
0.022299999999999875,-0.021164081045980946
0.021299999999999875,-0.0212065223849769
0.020299999999999874,-0.0212631108369715
0.019299999999999873,-0.021347993514963404
0.018299999999999872,-0.02150361175794856
0.01729999999999987,-0.021546053096944507
0.01629999999999987,-0.021560200209943158
0.01529999999999987,-0.02163093577493641
0.014299999999999868,-0.021729965565926962
0.013299999999999867,-0.02185728958291482
0.012299999999999978,-0.02194217226090672
0.011299999999999866,-0.021956319373905367
0.010299999999999976,-0.022012907825899968
0.009299999999999864,-0.022126084729889174
0.008299999999999974,-0.022253408746877028
0.007299999999999862,-0.02230999719887163
0.006299999999999972,-0.022338291424868928
0.00529999999999986,-0.02239487987686353
0.0042999999999999705,-0.022508056780852735
0.0032999999999998586,-0.022621233684841938
0.0022999999999999687,-0.02270611636283384
0.0012999999999998568,-0.02274855770182979
0.00029999999999996696,-0.02277685192782709
-0.000700000000000145,-0.022918323057813595
-0.0017000000000000348,-0.023031499961802798
-0.0027000000000001467,-0.0230880884137974
-0.0037000000000000366,-0.02313052975279335
-0.0047000000000001485,-0.023172971091789302
-0.005700000000000038,-0.02327200088277985
-0.00670000000000015,-0.02341347201276636
-0.00770000000000004,-0.02345591335176231
-0.008700000000000152,-0.023512501803756906
-0.009700000000000042,-0.02355494314275286
-0.010700000000000154,-0.023682267159740714
-0.011700000000000044,-0.023823738289727222
-0.012700000000000156,-0.02388032674172182
-0.013700000000000045,-0.02393691519371642
-0.014700000000000157,-0.023993503645711022
-0.015700000000000047,-0.024092533436701577
-0.01670000000000016,-0.02423400456668808
-0.01770000000000005,-0.024304740131681327
-0.01870000000000016,-0.02433303435767863
-0.01970000000000005,-0.024375475696674583
-0.020700000000000163,-0.02447450548766513
-0.021700000000000053,-0.02461597661765164
-0.022700000000000164,-0.02471500640864219
-0.023700000000000054,-0.02474330063463949
-0.024700000000000166,-0.024814036199632745
-0.025700000000000056,-0.024898918877624646
-0.026700000000000168,-0.0250262428946125
-0.027700000000000058,-0.0251111255726044
-0.02870000000000017,-0.0251111255726044
-0.02970000000000006,-0.025196008250596303
-0.03070000000000017,-0.025295038041586858
-0.03170000000000006,-0.025422362058574708
-0.03270000000000017,-0.02553553896256391
-0.03370000000000006,-0.02553553896256391
-0.034700000000000175,-0.025606274527557166
-0.035700000000000065,-0.025705304318547718
-0.03670000000000018,-0.025846775448534223
-0.03770000000000007,-0.02591751101352747
-0.03870000000000018,-0.025974099465522073
-0.03970000000000007,-0.026016540804518026
-0.04070000000000018,-0.026115570595508578
-0.04170000000000007,-0.026257041725495082
-0.04270000000000018,-0.026356071516485634
-0.04370000000000007,-0.026426807081478886
-0.044700000000000184,-0.026426807081478886
-0.045700000000000074,-0.02655413109846674
-0.046700000000000186,-0.02668145511545459
-0.047700000000000076,-0.026752190680447843
-0.04870000000000019,-0.02682292624544109
-0.04970000000000008,-0.026865367584437045
-0.05070000000000019,-0.026978544488426247
-0.05170000000000008,-0.027105868505414105
-0.05270000000000019,-0.027190751183406005
-0.05370000000000008,-0.027219045409403307
-0.05470000000000019,-0.02727563386139791
-0.05570000000000008,-0.02736051653938981
-0.056700000000000195,-0.027516134782374965
-0.057700000000000085,-0.027615164573365516
-0.058700000000000196,-0.02764345879936281
-0.059700000000000086,-0.027714194364356067
-0.0607000000000002,-0.027799077042347967
-0.06170000000000009,-0.027940548172334476
-0.0627000000000002,-0.02806787218932233
