Mar. 15, 2025   20:33:46
Linear Sweep Voltammetry
File: c:/users/guazh/data/banditlqround7_x0exp891_r5/2025-03-03-exp905\1acid_1ac-2025-03-15t20_30_37-lsvinphos\1acid_1ac_lsv_50mvs_efin_-2100mv.bin
Data Source:  Experiment
Instrument Model:  CHI760E
Header: LSV ran at 50 mVs with Efin at -2100mV
Note: 

Init E (V) = -0.6
Final E (V) = -2.1
Scan Rate (V/s) = 0.05
Sample Interval (V) = 0.001
Quiet Time (sec) = 2
Sensitivity (A/V) = 1e-4
Comp R (ohm) = 8.7

Results:

Channel 1:
Ep = -1.897V
ip = 9.229e-4A
Ah = 1.139e-3C

Potential/V, Current/A

-0.600, 3.668e-6
-0.601, 3.797e-6
-0.602, 3.850e-6
-0.603, 3.892e-6
-0.604, 3.932e-6
-0.605, 3.976e-6
-0.606, 4.017e-6
-0.607, 4.050e-6
-0.608, 4.088e-6
-0.609, 4.125e-6
-0.610, 4.166e-6
-0.611, 4.205e-6
-0.612, 4.236e-6
-0.613, 4.270e-6
-0.614, 4.311e-6
-0.615, 4.352e-6
-0.616, 4.388e-6
-0.617, 4.425e-6
-0.618, 4.457e-6
-0.619, 4.497e-6
-0.620, 4.540e-6
-0.621, 4.575e-6
-0.622, 4.610e-6
-0.623, 4.644e-6
-0.624, 4.683e-6
-0.625, 4.724e-6
-0.626, 4.759e-6
-0.627, 4.794e-6
-0.628, 4.828e-6
-0.629, 4.865e-6
-0.630, 4.906e-6
-0.631, 4.941e-6
-0.632, 4.976e-6
-0.633, 5.011e-6
-0.634, 5.049e-6
-0.635, 5.090e-6
-0.636, 5.124e-6
-0.637, 5.156e-6
-0.638, 5.190e-6
-0.639, 5.228e-6
-0.640, 5.268e-6
-0.641, 5.305e-6
-0.642, 5.336e-6
-0.643, 5.370e-6
-0.644, 5.407e-6
-0.645, 5.445e-6
-0.646, 5.481e-6
-0.647, 5.511e-6
-0.648, 5.545e-6
-0.649, 5.581e-6
-0.650, 5.619e-6
-0.651, 5.653e-6
-0.652, 5.683e-6
-0.653, 5.715e-6
-0.654, 5.751e-6
-0.655, 5.789e-6
-0.656, 5.821e-6
-0.657, 5.851e-6
-0.658, 5.881e-6
-0.659, 5.912e-6
-0.660, 5.946e-6
-0.661, 5.978e-6
-0.662, 6.007e-6
-0.663, 6.037e-6
-0.664, 6.069e-6
-0.665, 6.105e-6
-0.666, 6.138e-6
-0.667, 6.164e-6
-0.668, 6.189e-6
-0.669, 6.218e-6
-0.670, 6.251e-6
-0.671, 6.279e-6
-0.672, 6.305e-6
-0.673, 6.334e-6
-0.674, 6.363e-6
-0.675, 6.394e-6
-0.676, 6.423e-6
-0.677, 6.445e-6
-0.678, 6.471e-6
-0.679, 6.498e-6
-0.680, 6.530e-6
-0.681, 6.555e-6
-0.682, 6.578e-6
-0.683, 6.601e-6
-0.684, 6.626e-6
-0.685, 6.656e-6
-0.686, 6.679e-6
-0.687, 6.699e-6
-0.688, 6.721e-6
-0.689, 6.746e-6
-0.690, 6.771e-6
-0.691, 6.792e-6
-0.692, 6.813e-6
-0.693, 6.831e-6
-0.694, 6.854e-6
-0.695, 6.878e-6
-0.696, 6.898e-6
-0.697, 6.914e-6
-0.698, 6.931e-6
-0.699, 6.951e-6
-0.700, 6.974e-6
-0.701, 6.989e-6
-0.702, 7.004e-6
-0.703, 7.019e-6
-0.704, 7.037e-6
-0.705, 7.058e-6
-0.706, 7.071e-6
-0.707, 7.084e-6
-0.708, 7.099e-6
-0.709, 7.114e-6
-0.710, 7.133e-6
-0.711, 7.145e-6
-0.712, 7.155e-6
-0.713, 7.165e-6
-0.714, 7.179e-6
-0.715, 7.195e-6
-0.716, 7.206e-6
-0.717, 7.214e-6
-0.718, 7.224e-6
-0.719, 7.230e-6
-0.720, 7.244e-6
-0.721, 7.254e-6
-0.722, 7.258e-6
-0.723, 7.265e-6
-0.724, 7.275e-6
-0.725, 7.286e-6
-0.726, 7.293e-6
-0.727, 7.296e-6
-0.728, 7.300e-6
-0.729, 7.308e-6
-0.730, 7.317e-6
-0.731, 7.323e-6
-0.732, 7.324e-6
-0.733, 7.325e-6
-0.734, 7.332e-6
-0.735, 7.338e-6
-0.736, 7.342e-6
-0.737, 7.341e-6
-0.738, 7.340e-6
-0.739, 7.344e-6
-0.740, 7.349e-6
-0.741, 7.349e-6
-0.742, 7.349e-6
-0.743, 7.347e-6
-0.744, 7.347e-6
-0.745, 7.353e-6
-0.746, 7.351e-6
-0.747, 7.345e-6
-0.748, 7.341e-6
-0.749, 7.343e-6
-0.750, 7.348e-6
-0.751, 7.343e-6
-0.752, 7.337e-6
-0.753, 7.332e-6
-0.754, 7.330e-6
-0.755, 7.332e-6
-0.756, 7.329e-6
-0.757, 7.321e-6
-0.758, 7.317e-6
-0.759, 7.312e-6
-0.760, 7.309e-6
-0.761, 7.305e-6
-0.762, 7.295e-6
-0.763, 7.289e-6
-0.764, 7.286e-6
-0.765, 7.283e-6
-0.766, 7.277e-6
-0.767, 7.267e-6
-0.768, 7.261e-6
-0.769, 7.258e-6
-0.770, 7.252e-6
-0.771, 7.244e-6
-0.772, 7.235e-6
-0.773, 7.225e-6
-0.774, 7.220e-6
-0.775, 7.216e-6
-0.776, 7.207e-6
-0.777, 7.196e-6
-0.778, 7.187e-6
-0.779, 7.179e-6
-0.780, 7.173e-6
-0.781, 7.166e-6
-0.782, 7.155e-6
-0.783, 7.142e-6
-0.784, 7.135e-6
-0.785, 7.128e-6
-0.786, 7.117e-6
-0.787, 7.107e-6
-0.788, 7.093e-6
-0.789, 7.086e-6
-0.790, 7.082e-6
-0.791, 7.069e-6
-0.792, 7.055e-6
-0.793, 7.044e-6
-0.794, 7.035e-6
-0.795, 7.029e-6
-0.796, 7.020e-6
-0.797, 7.006e-6
-0.798, 6.993e-6
-0.799, 6.983e-6
-0.800, 6.977e-6
-0.801, 6.966e-6
-0.802, 6.951e-6
-0.803, 6.938e-6
-0.804, 6.929e-6
-0.805, 6.922e-6
-0.806, 6.911e-6
-0.807, 6.897e-6
-0.808, 6.885e-6
-0.809, 6.876e-6
-0.810, 6.868e-6
-0.811, 6.856e-6
-0.812, 6.843e-6
-0.813, 6.830e-6
-0.814, 6.820e-6
-0.815, 6.812e-6
-0.816, 6.801e-6
-0.817, 6.787e-6
-0.818, 6.774e-6
-0.819, 6.767e-6
-0.820, 6.762e-6
-0.821, 6.745e-6
-0.822, 6.732e-6
-0.823, 6.719e-6
-0.824, 6.709e-6
-0.825, 6.702e-6
-0.826, 6.689e-6
-0.827, 6.676e-6
-0.828, 6.664e-6
-0.829, 6.652e-6
-0.830, 6.645e-6
-0.831, 6.632e-6
-0.832, 6.621e-6
-0.833, 6.610e-6
-0.834, 6.596e-6
-0.835, 6.588e-6
-0.836, 6.578e-6
-0.837, 6.563e-6
-0.838, 6.549e-6
-0.839, 6.539e-6
-0.840, 6.532e-6
-0.841, 6.523e-6
-0.842, 6.508e-6
-0.843, 6.496e-6
-0.844, 6.486e-6
-0.845, 6.481e-6
-0.846, 6.470e-6
-0.847, 6.455e-6
-0.848, 6.443e-6
-0.849, 6.434e-6
-0.850, 6.425e-6
-0.851, 6.416e-6
-0.852, 6.402e-6
-0.853, 6.388e-6
-0.854, 6.381e-6
-0.855, 6.375e-6
-0.856, 6.363e-6
-0.857, 6.350e-6
-0.858, 6.338e-6
-0.859, 6.330e-6
-0.860, 6.324e-6
-0.861, 6.312e-6
-0.862, 6.298e-6
-0.863, 6.289e-6
-0.864, 6.279e-6
-0.865, 6.271e-6
-0.866, 6.260e-6
-0.867, 6.250e-6
-0.868, 6.238e-6
-0.869, 6.230e-6
-0.870, 6.226e-6
-0.871, 6.219e-6
-0.872, 6.204e-6
-0.873, 6.193e-6
-0.874, 6.185e-6
-0.875, 6.182e-6
-0.876, 6.172e-6
-0.877, 6.160e-6
-0.878, 6.150e-6
-0.879, 6.142e-6
-0.880, 6.138e-6
-0.881, 6.129e-6
-0.882, 6.116e-6
-0.883, 6.105e-6
-0.884, 6.099e-6
-0.885, 6.092e-6
-0.886, 6.085e-6
-0.887, 6.071e-6
-0.888, 6.061e-6
-0.889, 6.055e-6
-0.890, 6.051e-6
-0.891, 6.042e-6
-0.892, 6.031e-6
-0.893, 6.019e-6
-0.894, 6.013e-6
-0.895, 6.007e-6
-0.896, 5.999e-6
-0.897, 5.989e-6
-0.898, 5.978e-6
-0.899, 5.972e-6
-0.900, 5.969e-6
-0.901, 5.959e-6
-0.902, 5.949e-6
-0.903, 5.940e-6
-0.904, 5.935e-6
-0.905, 5.931e-6
-0.906, 5.921e-6
-0.907, 5.912e-6
-0.908, 5.905e-6
-0.909, 5.899e-6
-0.910, 5.895e-6
-0.911, 5.889e-6
-0.912, 5.878e-6
-0.913, 5.869e-6
-0.914, 5.866e-6
-0.915, 5.861e-6
-0.916, 5.854e-6
-0.917, 5.844e-6
-0.918, 5.834e-6
-0.919, 5.829e-6
-0.920, 5.826e-6
-0.921, 5.819e-6
-0.922, 5.808e-6
-0.923, 5.800e-6
-0.924, 5.793e-6
-0.925, 5.790e-6
-0.926, 5.785e-6
-0.927, 5.773e-6
-0.928, 5.765e-6
-0.929, 5.761e-6
-0.930, 5.758e-6
-0.931, 5.751e-6
-0.932, 5.741e-6
-0.933, 5.732e-6
-0.934, 5.727e-6
-0.935, 5.725e-6
-0.936, 5.719e-6
-0.937, 5.708e-6
-0.938, 5.700e-6
-0.939, 5.696e-6
-0.940, 5.695e-6
-0.941, 5.687e-6
-0.942, 5.679e-6
-0.943, 5.672e-6
-0.944, 5.669e-6
-0.945, 5.666e-6
-0.946, 5.657e-6
-0.947, 5.649e-6
-0.948, 5.644e-6
-0.949, 5.639e-6
-0.950, 5.636e-6
-0.951, 5.630e-6
-0.952, 5.622e-6
-0.953, 5.615e-6
-0.954, 5.612e-6
-0.955, 5.611e-6
-0.956, 5.605e-6
-0.957, 5.595e-6
-0.958, 5.589e-6
-0.959, 5.584e-6
-0.960, 5.583e-6
-0.961, 5.580e-6
-0.962, 5.569e-6
-0.963, 5.563e-6
-0.964, 5.559e-6
-0.965, 5.555e-6
-0.966, 5.551e-6
-0.967, 5.543e-6
-0.968, 5.536e-6
-0.969, 5.534e-6
-0.970, 5.530e-6
-0.971, 5.526e-6
-0.972, 5.517e-6
-0.973, 5.512e-6
-0.974, 5.510e-6
-0.975, 5.507e-6
-0.976, 5.500e-6
-0.977, 5.492e-6
-0.978, 5.486e-6
-0.979, 5.483e-6
-0.980, 5.483e-6
-0.981, 5.475e-6
-0.982, 5.468e-6
-0.983, 5.462e-6
-0.984, 5.457e-6
-0.985, 5.457e-6
-0.986, 5.453e-6
-0.987, 5.444e-6
-0.988, 5.439e-6
-0.989, 5.434e-6
-0.990, 5.435e-6
-0.991, 5.429e-6
-0.992, 5.422e-6
-0.993, 5.415e-6
-0.994, 5.413e-6
-0.995, 5.412e-6
-0.996, 5.408e-6
-0.997, 5.400e-6
-0.998, 5.395e-6
-0.999, 5.392e-6
-1.000, 5.392e-6
-1.001, 5.389e-6
-1.002, 5.379e-6
-1.003, 5.374e-6
-1.004, 5.372e-6
-1.005, 5.371e-6
-1.006, 5.366e-6
-1.007, 5.361e-6
-1.008, 5.355e-6
-1.009, 5.352e-6
-1.010, 5.349e-6
-1.011, 5.347e-6
-1.012, 5.339e-6
-1.013, 5.333e-6
-1.014, 5.332e-6
-1.015, 5.330e-6
-1.016, 5.325e-6
-1.017, 5.319e-6
-1.018, 5.313e-6
-1.019, 5.311e-6
-1.020, 5.312e-6
-1.021, 5.304e-6
-1.022, 5.299e-6
-1.023, 5.293e-6
-1.024, 5.294e-6
-1.025, 5.292e-6
-1.026, 5.287e-6
-1.027, 5.281e-6
-1.028, 5.276e-6
-1.029, 5.273e-6
-1.030, 5.275e-6
-1.031, 5.269e-6
-1.032, 5.263e-6
-1.033, 5.258e-6
-1.034, 5.254e-6
-1.035, 5.255e-6
-1.036, 5.250e-6
-1.037, 5.246e-6
-1.038, 5.240e-6
-1.039, 5.233e-6
-1.040, 5.235e-6
-1.041, 5.232e-6
-1.042, 5.225e-6
-1.043, 5.220e-6
-1.044, 5.219e-6
-1.045, 5.218e-6
-1.046, 5.214e-6
-1.047, 5.207e-6
-1.048, 5.203e-6
-1.049, 5.202e-6
-1.050, 5.202e-6
-1.051, 5.197e-6
-1.052, 5.190e-6
-1.053, 5.185e-6
-1.054, 5.187e-6
-1.055, 5.186e-6
-1.056, 5.181e-6
-1.057, 5.175e-6
-1.058, 5.170e-6
-1.059, 5.171e-6
-1.060, 5.170e-6
-1.061, 5.164e-6
-1.062, 5.159e-6
-1.063, 5.155e-6
-1.064, 5.154e-6
-1.065, 5.154e-6
-1.066, 5.150e-6
-1.067, 5.144e-6
-1.068, 5.139e-6
-1.069, 5.139e-6
-1.070, 5.140e-6
-1.071, 5.136e-6
-1.072, 5.129e-6
-1.073, 5.126e-6
-1.074, 5.125e-6
-1.075, 5.126e-6
-1.076, 5.125e-6
-1.077, 5.116e-6
-1.078, 5.113e-6
-1.079, 5.112e-6
-1.080, 5.111e-6
-1.081, 5.108e-6
-1.082, 5.102e-6
-1.083, 5.098e-6
-1.084, 5.098e-6
-1.085, 5.098e-6
-1.086, 5.094e-6
-1.087, 5.089e-6
-1.088, 5.085e-6
-1.089, 5.086e-6
-1.090, 5.084e-6
-1.091, 5.082e-6
-1.092, 5.077e-6
-1.093, 5.077e-6
-1.094, 5.074e-6
-1.095, 5.070e-6
-1.096, 5.069e-6
-1.097, 5.066e-6
-1.098, 5.060e-6
-1.099, 5.060e-6
-1.100, 5.061e-6
-1.101, 5.059e-6
-1.102, 5.053e-6
-1.103, 5.050e-6
-1.104, 5.048e-6
-1.105, 5.050e-6
-1.106, 5.047e-6
-1.107, 5.043e-6
-1.108, 5.039e-6
-1.109, 5.037e-6
-1.110, 5.040e-6
-1.111, 5.037e-6
-1.112, 5.032e-6
-1.113, 5.028e-6
-1.114, 5.027e-6
-1.115, 5.029e-6
-1.116, 5.026e-6
-1.117, 5.022e-6
-1.118, 5.018e-6
-1.119, 5.018e-6
-1.120, 5.020e-6
-1.121, 5.018e-6
-1.122, 5.012e-6
-1.123, 5.009e-6
-1.124, 5.009e-6
-1.125, 5.009e-6
-1.126, 5.009e-6
-1.127, 5.005e-6
-1.128, 5.000e-6
-1.129, 5.000e-6
-1.130, 5.000e-6
-1.131, 4.998e-6
-1.132, 4.993e-6
-1.133, 4.990e-6
-1.134, 4.991e-6
-1.135, 4.993e-6
-1.136, 4.989e-6
-1.137, 4.987e-6
-1.138, 4.984e-6
-1.139, 4.984e-6
-1.140, 4.986e-6
-1.141, 4.983e-6
-1.142, 4.979e-6
-1.143, 4.976e-6
-1.144, 4.977e-6
-1.145, 4.980e-6
-1.146, 4.976e-6
-1.147, 4.973e-6
-1.148, 4.970e-6
-1.149, 4.969e-6
-1.150, 4.972e-6
-1.151, 4.969e-6
-1.152, 4.966e-6
-1.153, 4.964e-6
-1.154, 4.965e-6
-1.155, 4.967e-6
-1.156, 4.964e-6
-1.157, 4.961e-6
-1.158, 4.960e-6
-1.159, 4.959e-6
-1.160, 4.961e-6
-1.161, 4.959e-6
-1.162, 4.954e-6
-1.163, 4.953e-6
-1.164, 4.955e-6
-1.165, 4.957e-6
-1.166, 4.956e-6
-1.167, 4.950e-6
-1.168, 4.948e-6
-1.169, 4.949e-6
-1.170, 4.951e-6
-1.171, 4.949e-6
-1.172, 4.946e-6
-1.173, 4.945e-6
-1.174, 4.946e-6
-1.175, 4.947e-6
-1.176, 4.946e-6
-1.177, 4.944e-6
-1.178, 4.944e-6
-1.179, 4.943e-6
-1.180, 4.947e-6
-1.181, 4.944e-6
-1.182, 4.942e-6
-1.183, 4.937e-6
-1.184, 4.940e-6
-1.185, 4.945e-6
-1.186, 4.940e-6
-1.187, 4.937e-6
-1.188, 4.934e-6
-1.189, 4.935e-6
-1.190, 4.939e-6
-1.191, 4.939e-6
-1.192, 4.935e-6
-1.193, 4.933e-6
-1.194, 4.934e-6
-1.195, 4.938e-6
-1.196, 4.937e-6
-1.197, 4.934e-6
-1.198, 4.932e-6
-1.199, 4.933e-6
-1.200, 4.936e-6
-1.201, 4.933e-6
-1.202, 4.931e-6
-1.203, 4.932e-6
-1.204, 4.933e-6
-1.205, 4.936e-6
-1.206, 4.934e-6
-1.207, 4.930e-6
-1.208, 4.928e-6
-1.209, 4.931e-6
-1.210, 4.933e-6
-1.211, 4.934e-6
-1.212, 4.932e-6
-1.213, 4.930e-6
-1.214, 4.932e-6
-1.215, 4.934e-6
-1.216, 4.934e-6
-1.217, 4.933e-6
-1.218, 4.928e-6
-1.219, 4.933e-6
-1.220, 4.936e-6
-1.221, 4.933e-6
-1.222, 4.932e-6
-1.223, 4.930e-6
-1.224, 4.932e-6
-1.225, 4.935e-6
-1.226, 4.933e-6
-1.227, 4.931e-6
-1.228, 4.930e-6
-1.229, 4.938e-6
-1.230, 4.941e-6
-1.231, 4.937e-6
-1.232, 4.935e-6
-1.233, 4.933e-6
-1.234, 4.935e-6
-1.235, 4.940e-6
-1.236, 4.938e-6
-1.237, 4.936e-6
-1.238, 4.936e-6
-1.239, 4.938e-6
-1.240, 4.942e-6
-1.241, 4.941e-6
-1.242, 4.939e-6
-1.243, 4.939e-6
-1.244, 4.940e-6
-1.245, 4.944e-6
-1.246, 4.944e-6
-1.247, 4.943e-6
-1.248, 4.943e-6
-1.249, 4.946e-6
-1.250, 4.949e-6
-1.251, 4.949e-6
-1.252, 4.945e-6
-1.253, 4.945e-6
-1.254, 4.951e-6
-1.255, 4.953e-6
-1.256, 4.954e-6
-1.257, 4.952e-6
-1.258, 4.951e-6
-1.259, 4.955e-6
-1.260, 4.960e-6
-1.261, 4.959e-6
-1.262, 4.958e-6
-1.263, 4.956e-6
-1.264, 4.960e-6
-1.265, 4.966e-6
-1.266, 4.965e-6
-1.267, 4.965e-6
-1.268, 4.962e-6
-1.269, 4.966e-6
-1.270, 4.972e-6
-1.271, 4.971e-6
-1.272, 4.971e-6
-1.273, 4.970e-6
-1.274, 4.975e-6
-1.275, 4.980e-6
-1.276, 4.981e-6
-1.277, 4.980e-6
-1.278, 4.979e-6
-1.279, 4.983e-6
-1.280, 4.991e-6
-1.281, 4.992e-6
-1.282, 4.989e-6
-1.283, 4.988e-6
-1.284, 4.994e-6
-1.285, 4.998e-6
-1.286, 5.000e-6
-1.287, 4.998e-6
-1.288, 4.998e-6
-1.289, 5.004e-6
-1.290, 5.009e-6
-1.291, 5.010e-6
-1.292, 5.009e-6
-1.293, 5.008e-6
-1.294, 5.014e-6
-1.295, 5.020e-6
-1.296, 5.020e-6
-1.297, 5.020e-6
-1.298, 5.020e-6
-1.299, 5.025e-6
-1.300, 5.030e-6
-1.301, 5.030e-6
-1.302, 5.030e-6
-1.303, 5.033e-6
-1.304, 5.038e-6
-1.305, 5.042e-6
-1.306, 5.043e-6
-1.307, 5.044e-6
-1.308, 5.045e-6
-1.309, 5.049e-6
-1.310, 5.056e-6
-1.311, 5.057e-6
-1.312, 5.059e-6
-1.313, 5.060e-6
-1.314, 5.063e-6
-1.315, 5.071e-6
-1.316, 5.073e-6
-1.317, 5.073e-6
-1.318, 5.075e-6
-1.319, 5.082e-6
-1.320, 5.087e-6
-1.321, 5.088e-6
-1.322, 5.089e-6
-1.323, 5.090e-6
-1.324, 5.097e-6
-1.325, 5.105e-6
-1.326, 5.110e-6
-1.327, 5.108e-6
-1.328, 5.110e-6
-1.329, 5.117e-6
-1.330, 5.123e-6
-1.331, 5.127e-6
-1.332, 5.129e-6
-1.333, 5.131e-6
-1.334, 5.138e-6
-1.335, 5.145e-6
-1.336, 5.147e-6
-1.337, 5.147e-6
-1.338, 5.150e-6
-1.339, 5.159e-6
-1.340, 5.166e-6
-1.341, 5.169e-6
-1.342, 5.172e-6
-1.343, 5.173e-6
-1.344, 5.181e-6
-1.345, 5.189e-6
-1.346, 5.192e-6
-1.347, 5.194e-6
-1.348, 5.196e-6
-1.349, 5.203e-6
-1.350, 5.214e-6
-1.351, 5.218e-6
-1.352, 5.219e-6
-1.353, 5.222e-6
-1.354, 5.231e-6
-1.355, 5.239e-6
-1.356, 5.242e-6
-1.357, 5.248e-6
-1.358, 5.254e-6
-1.359, 5.261e-6
-1.360, 5.270e-6
-1.361, 5.274e-6
-1.362, 5.278e-6
-1.363, 5.282e-6
-1.364, 5.291e-6
-1.365, 5.300e-6
-1.366, 5.305e-6
-1.367, 5.308e-6
-1.368, 5.312e-6
-1.369, 5.323e-6
-1.370, 5.333e-6
-1.371, 5.339e-6
-1.372, 5.342e-6
-1.373, 5.347e-6
-1.374, 5.356e-6
-1.375, 5.367e-6
-1.376, 5.373e-6
-1.377, 5.377e-6
-1.378, 5.381e-6
-1.379, 5.392e-6
-1.380, 5.402e-6
-1.381, 5.408e-6
-1.382, 5.412e-6
-1.383, 5.421e-6
-1.384, 5.430e-6
-1.385, 5.442e-6
-1.386, 5.447e-6
-1.387, 5.452e-6
-1.388, 5.462e-6
-1.389, 5.473e-6
-1.390, 5.486e-6
-1.391, 5.492e-6
-1.392, 5.498e-6
-1.393, 5.505e-6
-1.394, 5.518e-6
-1.395, 5.533e-6
-1.396, 5.539e-6
-1.397, 5.545e-6
-1.398, 5.554e-6
-1.399, 5.566e-6
-1.400, 5.579e-6
-1.401, 5.590e-6
-1.402, 5.595e-6
-1.403, 5.605e-6
-1.404, 5.617e-6
-1.405, 5.630e-6
-1.406, 5.639e-6
-1.407, 5.647e-6
-1.408, 5.657e-6
-1.409, 5.671e-6
-1.410, 5.683e-6
-1.411, 5.693e-6
-1.412, 5.702e-6
-1.413, 5.712e-6
-1.414, 5.728e-6
-1.415, 5.744e-6
-1.416, 5.755e-6
-1.417, 5.766e-6
-1.418, 5.774e-6
-1.419, 5.792e-6
-1.420, 5.809e-6
-1.421, 5.820e-6
-1.422, 5.831e-6
-1.423, 5.841e-6
-1.424, 5.858e-6
-1.425, 5.876e-6
-1.426, 5.888e-6
-1.427, 5.898e-6
-1.428, 5.909e-6
-1.429, 5.924e-6
-1.430, 5.943e-6
-1.431, 5.954e-6
-1.432, 5.967e-6
-1.433, 5.981e-6
-1.434, 6.002e-6
-1.435, 6.019e-6
-1.436, 6.033e-6
-1.437, 6.044e-6
-1.438, 6.056e-6
-1.439, 6.075e-6
-1.440, 6.098e-6
-1.441, 6.112e-6
-1.442, 6.124e-6
-1.443, 6.139e-6
-1.444, 6.159e-6
-1.445, 6.179e-6
-1.446, 6.195e-6
-1.447, 6.209e-6
-1.448, 6.223e-6
-1.449, 6.245e-6
-1.450, 6.269e-6
-1.451, 6.286e-6
-1.452, 6.301e-6
-1.453, 6.317e-6
-1.454, 6.340e-6
-1.455, 6.364e-6
-1.456, 6.381e-6
-1.457, 6.400e-6
-1.458, 6.420e-6
-1.459, 6.444e-6
-1.460, 6.468e-6
-1.461, 6.485e-6
-1.462, 6.500e-6
-1.463, 6.517e-6
-1.464, 6.546e-6
-1.465, 6.573e-6
-1.466, 6.590e-6
-1.467, 6.609e-6
-1.468, 6.629e-6
-1.469, 6.653e-6
-1.470, 6.679e-6
-1.471, 6.700e-6
-1.472, 6.718e-6
-1.473, 6.742e-6
-1.474, 6.766e-6
-1.475, 6.792e-6
-1.476, 6.815e-6
-1.477, 6.837e-6
-1.478, 6.859e-6
-1.479, 6.886e-6
-1.480, 6.914e-6
-1.481, 6.938e-6
-1.482, 6.958e-6
-1.483, 6.982e-6
-1.484, 7.013e-6
-1.485, 7.044e-6
-1.486, 7.067e-6
-1.487, 7.088e-6
-1.488, 7.114e-6
-1.489, 7.145e-6
-1.490, 7.175e-6
-1.491, 7.200e-6
-1.492, 7.225e-6
-1.493, 7.249e-6
-1.494, 7.284e-6
-1.495, 7.314e-6
-1.496, 7.343e-6
-1.497, 7.367e-6
-1.498, 7.394e-6
-1.499, 7.428e-6
-1.500, 7.461e-6
-1.501, 7.489e-6
-1.502, 7.517e-6
-1.503, 7.544e-6
-1.504, 7.579e-6
-1.505, 7.614e-6
-1.506, 7.643e-6
-1.507, 7.670e-6
-1.508, 7.700e-6
-1.509, 7.736e-6
-1.510, 7.775e-6
-1.511, 7.805e-6
-1.512, 7.834e-6
-1.513, 7.866e-6
-1.514, 7.899e-6
-1.515, 7.937e-6
-1.516, 7.972e-6
-1.517, 8.002e-6
-1.518, 8.034e-6
-1.519, 8.070e-6
-1.520, 8.110e-6
-1.521, 8.146e-6
-1.522, 8.178e-6
-1.523, 8.215e-6
-1.524, 8.256e-6
-1.525, 8.294e-6
-1.526, 8.334e-6
-1.527, 8.363e-6
-1.528, 8.398e-6
-1.529, 8.441e-6
-1.530, 8.482e-6
-1.531, 8.518e-6
-1.532, 8.553e-6
-1.533, 8.585e-6
-1.534, 8.630e-6
-1.535, 8.670e-6
-1.536, 8.704e-6
-1.537, 8.742e-6
-1.538, 8.775e-6
-1.539, 8.823e-6
-1.540, 8.868e-6
-1.541, 8.909e-6
-1.542, 8.943e-6
-1.543, 8.977e-6
-1.544, 9.023e-6
-1.545, 9.072e-6
-1.546, 9.113e-6
-1.547, 9.153e-6
-1.548, 9.192e-6
-1.549, 9.242e-6
-1.550, 9.293e-6
-1.551, 9.336e-6
-1.552, 9.372e-6
-1.553, 9.415e-6
-1.554, 9.464e-6
-1.555, 9.515e-6
-1.556, 9.558e-6
-1.557, 9.601e-6
-1.558, 9.646e-6
-1.559, 9.692e-6
-1.560, 9.748e-6
-1.561, 9.796e-6
-1.562, 9.840e-6
-1.563, 9.889e-6
-1.564, 9.940e-6
-1.565, 9.997e-6
-1.566, 1.004e-5
-1.567, 1.009e-5
-1.568, 1.014e-5
-1.569, 1.019e-5
-1.570, 1.025e-5
-1.571, 1.030e-5
-1.572, 1.035e-5
-1.573, 1.040e-5
-1.574, 1.046e-5
-1.575, 1.052e-5
-1.576, 1.057e-5
-1.577, 1.063e-5
-1.578, 1.068e-5
-1.579, 1.075e-5
-1.580, 1.081e-5
-1.581, 1.087e-5
-1.582, 1.092e-5
-1.583, 1.098e-5
-1.584, 1.104e-5
-1.585, 1.111e-5
-1.586, 1.117e-5
-1.587, 1.123e-5
-1.588, 1.130e-5
-1.589, 1.136e-5
-1.590, 1.144e-5
-1.591, 1.150e-5
-1.592, 1.156e-5
-1.593, 1.163e-5
-1.594, 1.171e-5
-1.595, 1.178e-5
-1.596, 1.185e-5
-1.597, 1.192e-5
-1.598, 1.199e-5
-1.599, 1.206e-5
-1.600, 1.213e-5
-1.601, 1.221e-5
-1.602, 1.228e-5
-1.603, 1.236e-5
-1.604, 1.244e-5
-1.605, 1.253e-5
-1.606, 1.261e-5
-1.607, 1.269e-5
-1.608, 1.278e-5
-1.609, 1.287e-5
-1.610, 1.296e-5
-1.611, 1.305e-5
-1.612, 1.314e-5
-1.613, 1.323e-5
-1.614, 1.333e-5
-1.615, 1.343e-5
-1.616, 1.353e-5
-1.617, 1.363e-5
-1.618, 1.372e-5
-1.619, 1.383e-5
-1.620, 1.394e-5
-1.621, 1.405e-5
-1.622, 1.415e-5
-1.623, 1.426e-5
-1.624, 1.438e-5
-1.625, 1.450e-5
-1.626, 1.462e-5
-1.627, 1.473e-5
-1.628, 1.485e-5
-1.629, 1.498e-5
-1.630, 1.511e-5
-1.631, 1.524e-5
-1.632, 1.537e-5
-1.633, 1.550e-5
-1.634, 1.563e-5
-1.635, 1.578e-5
-1.636, 1.592e-5
-1.637, 1.606e-5
-1.638, 1.621e-5
-1.639, 1.639e-5
-1.640, 1.654e-5
-1.641, 1.670e-5
-1.642, 1.685e-5
-1.643, 1.701e-5
-1.644, 1.718e-5
-1.645, 1.736e-5
-1.646, 1.754e-5
-1.647, 1.771e-5
-1.648, 1.789e-5
-1.649, 1.808e-5
-1.650, 1.828e-5
-1.651, 1.847e-5
-1.652, 1.867e-5
-1.653, 1.887e-5
-1.654, 1.909e-5
-1.655, 1.930e-5
-1.656, 1.952e-5
-1.657, 1.974e-5
-1.658, 1.996e-5
-1.659, 2.020e-5
-1.660, 2.044e-5
-1.661, 2.069e-5
-1.662, 2.093e-5
-1.663, 2.119e-5
-1.664, 2.146e-5
-1.665, 2.173e-5
-1.666, 2.200e-5
-1.667, 2.228e-5
-1.668, 2.256e-5
-1.669, 2.286e-5
-1.670, 2.317e-5
-1.671, 2.348e-5
-1.672, 2.379e-5
-1.673, 2.412e-5
-1.674, 2.446e-5
-1.675, 2.481e-5
-1.676, 2.515e-5
-1.677, 2.551e-5
-1.678, 2.587e-5
-1.679, 2.625e-5
-1.680, 2.664e-5
-1.681, 2.703e-5
-1.682, 2.743e-5
-1.683, 2.783e-5
-1.684, 2.826e-5
-1.685, 2.870e-5
-1.686, 2.914e-5
-1.687, 2.959e-5
-1.688, 3.005e-5
-1.689, 3.054e-5
-1.690, 3.105e-5
-1.691, 3.155e-5
-1.692, 3.207e-5
-1.693, 3.260e-5
-1.694, 3.315e-5
-1.695, 3.370e-5
-1.696, 3.428e-5
-1.697, 3.486e-5
-1.698, 3.546e-5
-1.699, 3.607e-5
-1.700, 3.671e-5
-1.701, 3.736e-5
-1.702, 3.802e-5
-1.703, 3.869e-5
-1.704, 3.939e-5
-1.705, 4.012e-5
-1.706, 4.085e-5
-1.707, 4.161e-5
-1.708, 4.237e-5
-1.709, 4.316e-5
-1.710, 4.396e-5
-1.711, 4.479e-5
-1.712, 4.563e-5
-1.713, 4.650e-5
-1.714, 4.739e-5
-1.715, 4.833e-5
-1.716, 4.927e-5
-1.717, 5.021e-5
-1.718, 5.119e-5
-1.719, 5.220e-5
-1.720, 5.325e-5
-1.721, 5.430e-5
-1.722, 5.538e-5
-1.723, 5.650e-5
-1.724, 5.763e-5
-1.725, 5.880e-5
-1.726, 5.998e-5
-1.727, 6.120e-5
-1.728, 6.244e-5
-1.729, 6.373e-5
-1.730, 6.505e-5
-1.731, 6.639e-5
-1.732, 6.776e-5
-1.733, 6.916e-5
-1.734, 7.060e-5
-1.735, 7.208e-5
-1.736, 7.357e-5
-1.737, 7.510e-5
-1.738, 7.665e-5
-1.739, 7.827e-5
-1.740, 7.992e-5
-1.741, 8.159e-5
-1.742, 8.329e-5
-1.743, 8.502e-5
-1.744, 8.682e-5
-1.745, 8.865e-5
-1.746, 9.050e-5
-1.747, 9.238e-5
-1.748, 9.430e-5
-1.749, 9.628e-5
-1.750, 9.830e-5
-1.751, 1.003e-4
-1.752, 1.024e-4
-1.753, 1.045e-4
-1.754, 1.067e-4
-1.755, 1.089e-4
-1.756, 1.112e-4
-1.757, 1.135e-4
-1.758, 1.158e-4
-1.759, 1.182e-4
-1.760, 1.206e-4
-1.761, 1.230e-4
-1.762, 1.255e-4
-1.763, 1.280e-4
-1.764, 1.306e-4
-1.765, 1.332e-4
-1.766, 1.359e-4
-1.767, 1.385e-4
-1.768, 1.413e-4
-1.769, 1.440e-4
-1.770, 1.469e-4
-1.771, 1.497e-4
-1.772, 1.526e-4
-1.773, 1.556e-4
-1.774, 1.586e-4
-1.775, 1.616e-4
-1.776, 1.647e-4
-1.777, 1.678e-4
-1.778, 1.710e-4
-1.779, 1.742e-4
-1.780, 1.775e-4
-1.781, 1.808e-4
-1.782, 1.841e-4
-1.783, 1.875e-4
-1.784, 1.910e-4
-1.785, 1.945e-4
-1.786, 1.981e-4
-1.787, 2.017e-4
-1.788, 2.054e-4
-1.789, 2.091e-4
-1.790, 2.129e-4
-1.791, 2.167e-4
-1.792, 2.206e-4
-1.793, 2.246e-4
-1.794, 2.286e-4
-1.795, 2.327e-4
-1.796, 2.368e-4
-1.797, 2.410e-4
-1.798, 2.452e-4
-1.799, 2.495e-4
-1.800, 2.539e-4
-1.801, 2.584e-4
-1.802, 2.629e-4
-1.803, 2.674e-4
-1.804, 2.720e-4
-1.805, 2.768e-4
-1.806, 2.816e-4
-1.807, 2.864e-4
-1.808, 2.913e-4
-1.809, 2.963e-4
-1.810, 3.014e-4
-1.811, 3.066e-4
-1.812, 3.118e-4
-1.813, 3.171e-4
-1.814, 3.225e-4
-1.815, 3.280e-4
-1.816, 3.336e-4
-1.817, 3.392e-4
-1.818, 3.449e-4
-1.819, 3.507e-4
-1.820, 3.566e-4
-1.821, 3.626e-4
-1.822, 3.686e-4
-1.823, 3.748e-4
-1.824, 3.810e-4
-1.825, 3.874e-4
-1.826, 3.938e-4
-1.827, 4.003e-4
-1.828, 4.068e-4
-1.829, 4.135e-4
-1.830, 4.202e-4
-1.831, 4.271e-4
-1.832, 4.340e-4
-1.833, 4.409e-4
-1.834, 4.480e-4
-1.835, 4.551e-4
-1.836, 4.624e-4
-1.837, 4.697e-4
-1.838, 4.771e-4
-1.839, 4.845e-4
-1.840, 4.921e-4
-1.841, 4.997e-4
-1.842, 5.074e-4
-1.843, 5.152e-4
-1.844, 5.230e-4
-1.845, 5.310e-4
-1.846, 5.390e-4
-1.847, 5.470e-4
-1.848, 5.551e-4
-1.849, 5.633e-4
-1.850, 5.715e-4
-1.851, 5.798e-4
-1.852, 5.882e-4
-1.853, 5.967e-4
-1.854, 6.052e-4
-1.855, 6.138e-4
-1.856, 6.224e-4
-1.857, 6.311e-4
-1.858, 6.398e-4
-1.859, 6.487e-4
-1.860, 6.576e-4
-1.861, 6.666e-4
-1.862, 6.756e-4
-1.863, 6.846e-4
-1.864, 6.938e-4
-1.865, 7.029e-4
-1.866, 7.122e-4
-1.867, 7.215e-4
-1.868, 7.309e-4
-1.869, 7.403e-4
-1.870, 7.498e-4
-1.871, 7.593e-4
-1.872, 7.688e-4
-1.873, 7.784e-4
-1.874, 7.881e-4
-1.875, 7.978e-4
-1.876, 8.076e-4
-1.877, 8.174e-4
-1.878, 8.272e-4
-1.879, 8.371e-4
-1.880, 8.470e-4
-1.881, 8.571e-4
-1.882, 8.671e-4
-1.883, 8.772e-4
-1.884, 8.873e-4
-1.885, 8.976e-4
-1.886, 9.078e-4
-1.887, 9.181e-4
-1.888, 9.284e-4
-1.889, 9.388e-4
-1.890, 9.492e-4
-1.891, 9.597e-4
-1.892, 9.701e-4
-1.893, 9.807e-4
-1.894, 9.912e-4
-1.895, 1.002e-3
-1.896, 1.010e-3
-1.897, 1.011e-3
-1.898, 1.011e-3
-1.899, 1.011e-3
-1.900, 1.011e-3
-1.901, 1.011e-3
-1.902, 1.011e-3
-1.903, 1.011e-3
-1.904, 1.011e-3
-1.905, 1.011e-3
-1.906, 1.011e-3
-1.907, 1.011e-3
-1.908, 1.011e-3
-1.909, 1.011e-3
-1.910, 1.011e-3
-1.911, 1.011e-3
-1.912, 1.011e-3
-1.913, 1.011e-3
-1.914, 1.011e-3
-1.915, 1.011e-3
-1.916, 1.011e-3
-1.917, 1.011e-3
-1.918, 1.011e-3
-1.919, 1.011e-3
-1.920, 1.011e-3
-1.921, 1.011e-3
-1.922, 1.011e-3
-1.923, 1.011e-3
-1.924, 1.011e-3
-1.925, 1.011e-3
-1.926, 1.011e-3
-1.927, 1.011e-3
-1.928, 1.011e-3
-1.929, 1.011e-3
-1.930, 1.011e-3
-1.931, 1.011e-3
-1.932, 1.011e-3
-1.933, 1.011e-3
-1.934, 1.011e-3
-1.935, 1.011e-3
-1.936, 1.011e-3
-1.937, 1.011e-3
-1.938, 1.011e-3
-1.939, 1.011e-3
-1.940, 1.011e-3
-1.941, 1.011e-3
-1.942, 1.011e-3
-1.943, 1.011e-3
-1.944, 1.011e-3
-1.945, 1.011e-3
-1.946, 1.011e-3
-1.947, 1.011e-3
-1.948, 1.011e-3
-1.949, 1.011e-3
-1.950, 1.011e-3
-1.951, 1.011e-3
-1.952, 1.011e-3
-1.953, 1.011e-3
-1.954, 1.011e-3
-1.955, 1.011e-3
-1.956, 1.011e-3
-1.957, 1.011e-3
-1.958, 1.011e-3
-1.959, 1.011e-3
-1.960, 1.011e-3
-1.961, 1.011e-3
-1.962, 1.011e-3
-1.963, 1.011e-3
-1.964, 1.011e-3
-1.965, 1.011e-3
-1.966, 1.011e-3
-1.967, 1.011e-3
-1.968, 1.011e-3
-1.969, 1.011e-3
-1.970, 1.011e-3
-1.971, 1.011e-3
-1.972, 1.011e-3
-1.973, 1.011e-3
-1.974, 1.011e-3
-1.975, 1.011e-3
-1.976, 1.011e-3
-1.977, 1.011e-3
-1.978, 1.011e-3
-1.979, 1.011e-3
-1.980, 1.011e-3
-1.981, 1.011e-3
-1.982, 1.011e-3
-1.983, 1.011e-3
-1.984, 1.011e-3
-1.985, 1.011e-3
-1.986, 1.011e-3
-1.987, 1.011e-3
-1.988, 1.011e-3
-1.989, 1.011e-3
-1.990, 1.011e-3
-1.991, 1.011e-3
-1.992, 1.011e-3
-1.993, 1.011e-3
-1.994, 1.011e-3
-1.995, 1.011e-3
-1.996, 1.011e-3
-1.997, 1.011e-3
-1.998, 1.011e-3
-1.999, 1.011e-3
-2.000, 1.011e-3
-2.001, 1.011e-3
-2.002, 1.011e-3
-2.003, 1.011e-3
-2.004, 1.011e-3
-2.005, 1.011e-3
-2.006, 1.011e-3
-2.007, 1.011e-3
-2.008, 1.011e-3
-2.009, 1.011e-3
-2.010, 1.011e-3
-2.011, 1.011e-3
-2.012, 1.011e-3
-2.013, 1.011e-3
-2.014, 1.011e-3
-2.015, 1.011e-3
-2.016, 1.011e-3
-2.017, 1.011e-3
-2.018, 1.011e-3
-2.019, 1.011e-3
-2.020, 1.011e-3
-2.021, 1.011e-3
-2.022, 1.011e-3
-2.023, 1.011e-3
-2.024, 1.011e-3
-2.025, 1.011e-3
-2.026, 1.011e-3
-2.027, 1.011e-3
-2.028, 1.011e-3
-2.029, 1.011e-3
-2.030, 1.011e-3
-2.031, 1.011e-3
-2.032, 1.011e-3
-2.033, 1.011e-3
-2.034, 1.011e-3
-2.035, 1.011e-3
-2.036, 1.011e-3
-2.037, 1.011e-3
-2.038, 1.011e-3
-2.039, 1.011e-3
-2.040, 1.011e-3
-2.041, 1.011e-3
-2.042, 1.011e-3
-2.043, 1.011e-3
-2.044, 1.011e-3
-2.045, 1.011e-3
-2.046, 1.011e-3
-2.047, 1.011e-3
-2.048, 1.011e-3
-2.049, 1.011e-3
-2.050, 1.011e-3
-2.051, 1.011e-3
-2.052, 1.011e-3
-2.053, 1.011e-3
-2.054, 1.011e-3
-2.055, 1.011e-3
-2.056, 1.011e-3
-2.057, 1.011e-3
-2.058, 1.011e-3
-2.059, 1.011e-3
-2.060, 1.011e-3
-2.061, 1.011e-3
-2.062, 1.011e-3
-2.063, 1.011e-3
-2.064, 1.011e-3
-2.065, 1.011e-3
-2.066, 1.011e-3
-2.067, 1.011e-3
-2.068, 1.011e-3
-2.069, 1.011e-3
-2.070, 1.011e-3
-2.071, 1.011e-3
-2.072, 1.011e-3
-2.073, 1.011e-3
-2.074, 1.011e-3
-2.075, 1.011e-3
-2.076, 1.011e-3
-2.077, 1.011e-3
-2.078, 1.011e-3
-2.079, 1.011e-3
-2.080, 1.011e-3
-2.081, 1.011e-3
-2.082, 1.011e-3
-2.083, 1.011e-3
-2.084, 1.011e-3
-2.085, 1.011e-3
-2.086, 1.011e-3
-2.087, 1.011e-3
-2.088, 1.011e-3
-2.089, 1.011e-3
-2.090, 1.011e-3
-2.091, 1.011e-3
-2.092, 1.011e-3
-2.093, 1.011e-3
-2.094, 1.011e-3
-2.095, 1.011e-3
-2.096, 1.011e-3
-2.097, 1.011e-3
-2.098, 1.011e-3
-2.099, 1.011e-3
