Aug. 26, 2024   07:39:01
Linear Sweep Voltammetry
File: c:/users/guazh/data/20240813_batch_181_500/2024-08-25-exp185\1acid_3ac-2024-08-26t07_35_49-lsvinphos\1acid_3ac_lsv_50mvs_efin_-2300mv.bin
Data Source:  Experiment
Instrument Model:  CHI760E
Header: LSV ran at 50 mVs with Efin at -2300mV
Note: 

Init E (V) = -0.6
Final E (V) = -2.3
Scan Rate (V/s) = 0.05
Sample Interval (V) = 0.001
Quiet Time (sec) = 2
Sensitivity (A/V) = 1e-4
Comp R (ohm) = 10.4

Results:

Channel 1:
Ep = -1.911V
ip = 9.077e-4A
Ah = 1.353e-3C

Potential/V, Current/A

-0.600, 2.530e-6
-0.601, 2.637e-6
-0.602, 2.688e-6
-0.603, 2.728e-6
-0.604, 2.761e-6
-0.605, 2.795e-6
-0.606, 2.828e-6
-0.607, 2.858e-6
-0.608, 2.891e-6
-0.609, 2.922e-6
-0.610, 2.952e-6
-0.611, 2.982e-6
-0.612, 3.011e-6
-0.613, 3.043e-6
-0.614, 3.073e-6
-0.615, 3.105e-6
-0.616, 3.134e-6
-0.617, 3.165e-6
-0.618, 3.195e-6
-0.619, 3.225e-6
-0.620, 3.253e-6
-0.621, 3.283e-6
-0.622, 3.313e-6
-0.623, 3.345e-6
-0.624, 3.376e-6
-0.625, 3.408e-6
-0.626, 3.438e-6
-0.627, 3.469e-6
-0.628, 3.502e-6
-0.629, 3.531e-6
-0.630, 3.562e-6
-0.631, 3.594e-6
-0.632, 3.624e-6
-0.633, 3.659e-6
-0.634, 3.690e-6
-0.635, 3.722e-6
-0.636, 3.754e-6
-0.637, 3.785e-6
-0.638, 3.819e-6
-0.639, 3.853e-6
-0.640, 3.886e-6
-0.641, 3.919e-6
-0.642, 3.950e-6
-0.643, 3.984e-6
-0.644, 4.017e-6
-0.645, 4.050e-6
-0.646, 4.084e-6
-0.647, 4.116e-6
-0.648, 4.150e-6
-0.649, 4.182e-6
-0.650, 4.216e-6
-0.651, 4.248e-6
-0.652, 4.281e-6
-0.653, 4.316e-6
-0.654, 4.351e-6
-0.655, 4.385e-6
-0.656, 4.421e-6
-0.657, 4.454e-6
-0.658, 4.490e-6
-0.659, 4.527e-6
-0.660, 4.563e-6
-0.661, 4.597e-6
-0.662, 4.631e-6
-0.663, 4.666e-6
-0.664, 4.702e-6
-0.665, 4.739e-6
-0.666, 4.775e-6
-0.667, 4.810e-6
-0.668, 4.846e-6
-0.669, 4.880e-6
-0.670, 4.916e-6
-0.671, 4.950e-6
-0.672, 4.987e-6
-0.673, 5.024e-6
-0.674, 5.059e-6
-0.675, 5.096e-6
-0.676, 5.130e-6
-0.677, 5.165e-6
-0.678, 5.203e-6
-0.679, 5.239e-6
-0.680, 5.275e-6
-0.681, 5.311e-6
-0.682, 5.345e-6
-0.683, 5.383e-6
-0.684, 5.417e-6
-0.685, 5.454e-6
-0.686, 5.489e-6
-0.687, 5.524e-6
-0.688, 5.562e-6
-0.689, 5.598e-6
-0.690, 5.634e-6
-0.691, 5.668e-6
-0.692, 5.703e-6
-0.693, 5.738e-6
-0.694, 5.775e-6
-0.695, 5.809e-6
-0.696, 5.846e-6
-0.697, 5.879e-6
-0.698, 5.912e-6
-0.699, 5.946e-6
-0.700, 5.979e-6
-0.701, 6.013e-6
-0.702, 6.048e-6
-0.703, 6.082e-6
-0.704, 6.117e-6
-0.705, 6.150e-6
-0.706, 6.181e-6
-0.707, 6.214e-6
-0.708, 6.245e-6
-0.709, 6.278e-6
-0.710, 6.312e-6
-0.711, 6.343e-6
-0.712, 6.377e-6
-0.713, 6.409e-6
-0.714, 6.441e-6
-0.715, 6.472e-6
-0.716, 6.503e-6
-0.717, 6.536e-6
-0.718, 6.568e-6
-0.719, 6.598e-6
-0.720, 6.629e-6
-0.721, 6.659e-6
-0.722, 6.687e-6
-0.723, 6.717e-6
-0.724, 6.746e-6
-0.725, 6.776e-6
-0.726, 6.804e-6
-0.727, 6.833e-6
-0.728, 6.860e-6
-0.729, 6.889e-6
-0.730, 6.915e-6
-0.731, 6.942e-6
-0.732, 6.968e-6
-0.733, 6.994e-6
-0.734, 7.020e-6
-0.735, 7.046e-6
-0.736, 7.070e-6
-0.737, 7.095e-6
-0.738, 7.120e-6
-0.739, 7.143e-6
-0.740, 7.168e-6
-0.741, 7.189e-6
-0.742, 7.214e-6
-0.743, 7.236e-6
-0.744, 7.257e-6
-0.745, 7.278e-6
-0.746, 7.298e-6
-0.747, 7.320e-6
-0.748, 7.340e-6
-0.749, 7.360e-6
-0.750, 7.379e-6
-0.751, 7.397e-6
-0.752, 7.415e-6
-0.753, 7.433e-6
-0.754, 7.452e-6
-0.755, 7.471e-6
-0.756, 7.487e-6
-0.757, 7.504e-6
-0.758, 7.519e-6
-0.759, 7.534e-6
-0.760, 7.550e-6
-0.761, 7.564e-6
-0.762, 7.578e-6
-0.763, 7.593e-6
-0.764, 7.607e-6
-0.765, 7.619e-6
-0.766, 7.631e-6
-0.767, 7.643e-6
-0.768, 7.656e-6
-0.769, 7.668e-6
-0.770, 7.678e-6
-0.771, 7.688e-6
-0.772, 7.697e-6
-0.773, 7.708e-6
-0.774, 7.717e-6
-0.775, 7.726e-6
-0.776, 7.733e-6
-0.777, 7.742e-6
-0.778, 7.747e-6
-0.779, 7.755e-6
-0.780, 7.761e-6
-0.781, 7.767e-6
-0.782, 7.773e-6
-0.783, 7.776e-6
-0.784, 7.781e-6
-0.785, 7.787e-6
-0.786, 7.789e-6
-0.787, 7.793e-6
-0.788, 7.797e-6
-0.789, 7.798e-6
-0.790, 7.801e-6
-0.791, 7.802e-6
-0.792, 7.804e-6
-0.793, 7.806e-6
-0.794, 7.807e-6
-0.795, 7.807e-6
-0.796, 7.808e-6
-0.797, 7.806e-6
-0.798, 7.807e-6
-0.799, 7.805e-6
-0.800, 7.804e-6
-0.801, 7.802e-6
-0.802, 7.800e-6
-0.803, 7.798e-6
-0.804, 7.796e-6
-0.805, 7.792e-6
-0.806, 7.789e-6
-0.807, 7.785e-6
-0.808, 7.782e-6
-0.809, 7.778e-6
-0.810, 7.774e-6
-0.811, 7.769e-6
-0.812, 7.764e-6
-0.813, 7.759e-6
-0.814, 7.754e-6
-0.815, 7.748e-6
-0.816, 7.742e-6
-0.817, 7.736e-6
-0.818, 7.729e-6
-0.819, 7.726e-6
-0.820, 7.723e-6
-0.821, 7.712e-6
-0.822, 7.708e-6
-0.823, 7.700e-6
-0.824, 7.693e-6
-0.825, 7.685e-6
-0.826, 7.675e-6
-0.827, 7.666e-6
-0.828, 7.657e-6
-0.829, 7.649e-6
-0.830, 7.641e-6
-0.831, 7.631e-6
-0.832, 7.623e-6
-0.833, 7.614e-6
-0.834, 7.603e-6
-0.835, 7.595e-6
-0.836, 7.584e-6
-0.837, 7.574e-6
-0.838, 7.563e-6
-0.839, 7.555e-6
-0.840, 7.544e-6
-0.841, 7.534e-6
-0.842, 7.525e-6
-0.843, 7.514e-6
-0.844, 7.505e-6
-0.845, 7.495e-6
-0.846, 7.483e-6
-0.847, 7.473e-6
-0.848, 7.460e-6
-0.849, 7.450e-6
-0.850, 7.438e-6
-0.851, 7.428e-6
-0.852, 7.417e-6
-0.853, 7.407e-6
-0.854, 7.395e-6
-0.855, 7.384e-6
-0.856, 7.373e-6
-0.857, 7.363e-6
-0.858, 7.352e-6
-0.859, 7.342e-6
-0.860, 7.331e-6
-0.861, 7.317e-6
-0.862, 7.307e-6
-0.863, 7.295e-6
-0.864, 7.284e-6
-0.865, 7.274e-6
-0.866, 7.261e-6
-0.867, 7.251e-6
-0.868, 7.239e-6
-0.869, 7.228e-6
-0.870, 7.218e-6
-0.871, 7.207e-6
-0.872, 7.196e-6
-0.873, 7.185e-6
-0.874, 7.173e-6
-0.875, 7.161e-6
-0.876, 7.149e-6
-0.877, 7.139e-6
-0.878, 7.127e-6
-0.879, 7.116e-6
-0.880, 7.104e-6
-0.881, 7.094e-6
-0.882, 7.083e-6
-0.883, 7.071e-6
-0.884, 7.060e-6
-0.885, 7.048e-6
-0.886, 7.037e-6
-0.887, 7.026e-6
-0.888, 7.015e-6
-0.889, 7.005e-6
-0.890, 6.993e-6
-0.891, 6.983e-6
-0.892, 6.973e-6
-0.893, 6.962e-6
-0.894, 6.952e-6
-0.895, 6.940e-6
-0.896, 6.929e-6
-0.897, 6.920e-6
-0.898, 6.908e-6
-0.899, 6.899e-6
-0.900, 6.888e-6
-0.901, 6.877e-6
-0.902, 6.868e-6
-0.903, 6.856e-6
-0.904, 6.847e-6
-0.905, 6.837e-6
-0.906, 6.826e-6
-0.907, 6.817e-6
-0.908, 6.807e-6
-0.909, 6.797e-6
-0.910, 6.787e-6
-0.911, 6.775e-6
-0.912, 6.767e-6
-0.913, 6.757e-6
-0.914, 6.747e-6
-0.915, 6.737e-6
-0.916, 6.727e-6
-0.917, 6.719e-6
-0.918, 6.709e-6
-0.919, 6.699e-6
-0.920, 6.689e-6
-0.921, 6.679e-6
-0.922, 6.672e-6
-0.923, 6.662e-6
-0.924, 6.653e-6
-0.925, 6.644e-6
-0.926, 6.635e-6
-0.927, 6.626e-6
-0.928, 6.617e-6
-0.929, 6.609e-6
-0.930, 6.599e-6
-0.931, 6.590e-6
-0.932, 6.582e-6
-0.933, 6.573e-6
-0.934, 6.565e-6
-0.935, 6.556e-6
-0.936, 6.548e-6
-0.937, 6.541e-6
-0.938, 6.531e-6
-0.939, 6.522e-6
-0.940, 6.515e-6
-0.941, 6.508e-6
-0.942, 6.501e-6
-0.943, 6.491e-6
-0.944, 6.485e-6
-0.945, 6.477e-6
-0.946, 6.467e-6
-0.947, 6.461e-6
-0.948, 6.454e-6
-0.949, 6.447e-6
-0.950, 6.439e-6
-0.951, 6.430e-6
-0.952, 6.424e-6
-0.953, 6.418e-6
-0.954, 6.410e-6
-0.955, 6.401e-6
-0.956, 6.394e-6
-0.957, 6.388e-6
-0.958, 6.382e-6
-0.959, 6.375e-6
-0.960, 6.368e-6
-0.961, 6.361e-6
-0.962, 6.354e-6
-0.963, 6.348e-6
-0.964, 6.340e-6
-0.965, 6.334e-6
-0.966, 6.328e-6
-0.967, 6.320e-6
-0.968, 6.313e-6
-0.969, 6.310e-6
-0.970, 6.301e-6
-0.971, 6.295e-6
-0.972, 6.290e-6
-0.973, 6.285e-6
-0.974, 6.279e-6
-0.975, 6.271e-6
-0.976, 6.266e-6
-0.977, 6.261e-6
-0.978, 6.254e-6
-0.979, 6.250e-6
-0.980, 6.244e-6
-0.981, 6.237e-6
-0.982, 6.234e-6
-0.983, 6.227e-6
-0.984, 6.223e-6
-0.985, 6.219e-6
-0.986, 6.213e-6
-0.987, 6.208e-6
-0.988, 6.203e-6
-0.989, 6.199e-6
-0.990, 6.193e-6
-0.991, 6.187e-6
-0.992, 6.184e-6
-0.993, 6.179e-6
-0.994, 6.175e-6
-0.995, 6.170e-6
-0.996, 6.165e-6
-0.997, 6.160e-6
-0.998, 6.157e-6
-0.999, 6.153e-6
-1.000, 6.147e-6
-1.001, 6.143e-6
-1.002, 6.139e-6
-1.003, 6.134e-6
-1.004, 6.130e-6
-1.005, 6.125e-6
-1.006, 6.120e-6
-1.007, 6.117e-6
-1.008, 6.113e-6
-1.009, 6.110e-6
-1.010, 6.105e-6
-1.011, 6.102e-6
-1.012, 6.098e-6
-1.013, 6.094e-6
-1.014, 6.090e-6
-1.015, 6.085e-6
-1.016, 6.081e-6
-1.017, 6.078e-6
-1.018, 6.074e-6
-1.019, 6.072e-6
-1.020, 6.067e-6
-1.021, 6.063e-6
-1.022, 6.060e-6
-1.023, 6.056e-6
-1.024, 6.055e-6
-1.025, 6.052e-6
-1.026, 6.046e-6
-1.027, 6.044e-6
-1.028, 6.041e-6
-1.029, 6.037e-6
-1.030, 6.034e-6
-1.031, 6.031e-6
-1.032, 6.028e-6
-1.033, 6.025e-6
-1.034, 6.022e-6
-1.035, 6.019e-6
-1.036, 6.016e-6
-1.037, 6.014e-6
-1.038, 6.012e-6
-1.039, 6.008e-6
-1.040, 6.006e-6
-1.041, 6.003e-6
-1.042, 6.000e-6
-1.043, 5.997e-6
-1.044, 5.996e-6
-1.045, 5.991e-6
-1.046, 5.990e-6
-1.047, 5.989e-6
-1.048, 5.985e-6
-1.049, 5.984e-6
-1.050, 5.981e-6
-1.051, 5.981e-6
-1.052, 5.977e-6
-1.053, 5.975e-6
-1.054, 5.973e-6
-1.055, 5.971e-6
-1.056, 5.968e-6
-1.057, 5.967e-6
-1.058, 5.965e-6
-1.059, 5.963e-6
-1.060, 5.962e-6
-1.061, 5.959e-6
-1.062, 5.959e-6
-1.063, 5.956e-6
-1.064, 5.955e-6
-1.065, 5.953e-6
-1.066, 5.951e-6
-1.067, 5.950e-6
-1.068, 5.950e-6
-1.069, 5.949e-6
-1.070, 5.947e-6
-1.071, 5.946e-6
-1.072, 5.945e-6
-1.073, 5.944e-6
-1.074, 5.943e-6
-1.075, 5.944e-6
-1.076, 5.943e-6
-1.077, 5.941e-6
-1.078, 5.941e-6
-1.079, 5.941e-6
-1.080, 5.938e-6
-1.081, 5.939e-6
-1.082, 5.938e-6
-1.083, 5.938e-6
-1.084, 5.938e-6
-1.085, 5.937e-6
-1.086, 5.938e-6
-1.087, 5.937e-6
-1.088, 5.937e-6
-1.089, 5.937e-6
-1.090, 5.936e-6
-1.091, 5.936e-6
-1.092, 5.937e-6
-1.093, 5.938e-6
-1.094, 5.938e-6
-1.095, 5.937e-6
-1.096, 5.938e-6
-1.097, 5.939e-6
-1.098, 5.939e-6
-1.099, 5.940e-6
-1.100, 5.939e-6
-1.101, 5.942e-6
-1.102, 5.942e-6
-1.103, 5.943e-6
-1.104, 5.943e-6
-1.105, 5.944e-6
-1.106, 5.944e-6
-1.107, 5.946e-6
-1.108, 5.946e-6
-1.109, 5.947e-6
-1.110, 5.948e-6
-1.111, 5.948e-6
-1.112, 5.949e-6
-1.113, 5.952e-6
-1.114, 5.954e-6
-1.115, 5.954e-6
-1.116, 5.956e-6
-1.117, 5.956e-6
-1.118, 5.957e-6
-1.119, 5.959e-6
-1.120, 5.959e-6
-1.121, 5.961e-6
-1.122, 5.962e-6
-1.123, 5.964e-6
-1.124, 5.965e-6
-1.125, 5.966e-6
-1.126, 5.968e-6
-1.127, 5.969e-6
-1.128, 5.971e-6
-1.129, 5.973e-6
-1.130, 5.972e-6
-1.131, 5.975e-6
-1.132, 5.976e-6
-1.133, 5.977e-6
-1.134, 5.980e-6
-1.135, 5.981e-6
-1.136, 5.983e-6
-1.137, 5.984e-6
-1.138, 5.985e-6
-1.139, 5.988e-6
-1.140, 5.988e-6
-1.141, 5.991e-6
-1.142, 5.992e-6
-1.143, 5.994e-6
-1.144, 5.996e-6
-1.145, 5.997e-6
-1.146, 6.000e-6
-1.147, 6.001e-6
-1.148, 6.002e-6
-1.149, 6.004e-6
-1.150, 6.006e-6
-1.151, 6.007e-6
-1.152, 6.010e-6
-1.153, 6.013e-6
-1.154, 6.015e-6
-1.155, 6.016e-6
-1.156, 6.019e-6
-1.157, 6.019e-6
-1.158, 6.023e-6
-1.159, 6.024e-6
-1.160, 6.025e-6
-1.161, 6.029e-6
-1.162, 6.030e-6
-1.163, 6.033e-6
-1.164, 6.035e-6
-1.165, 6.038e-6
-1.166, 6.039e-6
-1.167, 6.042e-6
-1.168, 6.045e-6
-1.169, 6.047e-6
-1.170, 6.048e-6
-1.171, 6.051e-6
-1.172, 6.054e-6
-1.173, 6.056e-6
-1.174, 6.060e-6
-1.175, 6.061e-6
-1.176, 6.064e-6
-1.177, 6.065e-6
-1.178, 6.071e-6
-1.179, 6.074e-6
-1.180, 6.075e-6
-1.181, 6.078e-6
-1.182, 6.080e-6
-1.183, 6.083e-6
-1.184, 6.085e-6
-1.185, 6.089e-6
-1.186, 6.090e-6
-1.187, 6.093e-6
-1.188, 6.095e-6
-1.189, 6.097e-6
-1.190, 6.102e-6
-1.191, 6.105e-6
-1.192, 6.107e-6
-1.193, 6.111e-6
-1.194, 6.114e-6
-1.195, 6.115e-6
-1.196, 6.119e-6
-1.197, 6.120e-6
-1.198, 6.125e-6
-1.199, 6.128e-6
-1.200, 6.131e-6
-1.201, 6.134e-6
-1.202, 6.137e-6
-1.203, 6.142e-6
-1.204, 6.145e-6
-1.205, 6.147e-6
-1.206, 6.151e-6
-1.207, 6.155e-6
-1.208, 6.158e-6
-1.209, 6.161e-6
-1.210, 6.163e-6
-1.211, 6.168e-6
-1.212, 6.171e-6
-1.213, 6.174e-6
-1.214, 6.178e-6
-1.215, 6.180e-6
-1.216, 6.185e-6
-1.217, 6.188e-6
-1.218, 6.191e-6
-1.219, 6.196e-6
-1.220, 6.198e-6
-1.221, 6.202e-6
-1.222, 6.206e-6
-1.223, 6.210e-6
-1.224, 6.213e-6
-1.225, 6.218e-6
-1.226, 6.221e-6
-1.227, 6.225e-6
-1.228, 6.230e-6
-1.229, 6.238e-6
-1.230, 6.240e-6
-1.231, 6.243e-6
-1.232, 6.247e-6
-1.233, 6.252e-6
-1.234, 6.256e-6
-1.235, 6.263e-6
-1.236, 6.267e-6
-1.237, 6.271e-6
-1.238, 6.276e-6
-1.239, 6.280e-6
-1.240, 6.284e-6
-1.241, 6.289e-6
-1.242, 6.295e-6
-1.243, 6.300e-6
-1.244, 6.305e-6
-1.245, 6.308e-6
-1.246, 6.314e-6
-1.247, 6.318e-6
-1.248, 6.325e-6
-1.249, 6.331e-6
-1.250, 6.334e-6
-1.251, 6.339e-6
-1.252, 6.344e-6
-1.253, 6.350e-6
-1.254, 6.355e-6
-1.255, 6.361e-6
-1.256, 6.368e-6
-1.257, 6.373e-6
-1.258, 6.379e-6
-1.259, 6.385e-6
-1.260, 6.389e-6
-1.261, 6.395e-6
-1.262, 6.401e-6
-1.263, 6.407e-6
-1.264, 6.413e-6
-1.265, 6.419e-6
-1.266, 6.425e-6
-1.267, 6.432e-6
-1.268, 6.438e-6
-1.269, 6.443e-6
-1.270, 6.449e-6
-1.271, 6.456e-6
-1.272, 6.461e-6
-1.273, 6.469e-6
-1.274, 6.474e-6
-1.275, 6.480e-6
-1.276, 6.487e-6
-1.277, 6.493e-6
-1.278, 6.500e-6
-1.279, 6.506e-6
-1.280, 6.514e-6
-1.281, 6.523e-6
-1.282, 6.528e-6
-1.283, 6.535e-6
-1.284, 6.543e-6
-1.285, 6.550e-6
-1.286, 6.559e-6
-1.287, 6.564e-6
-1.288, 6.573e-6
-1.289, 6.579e-6
-1.290, 6.587e-6
-1.291, 6.596e-6
-1.292, 6.603e-6
-1.293, 6.612e-6
-1.294, 6.618e-6
-1.295, 6.626e-6
-1.296, 6.635e-6
-1.297, 6.643e-6
-1.298, 6.651e-6
-1.299, 6.660e-6
-1.300, 6.669e-6
-1.301, 6.678e-6
-1.302, 6.686e-6
-1.303, 6.694e-6
-1.304, 6.702e-6
-1.305, 6.711e-6
-1.306, 6.720e-6
-1.307, 6.730e-6
-1.308, 6.739e-6
-1.309, 6.748e-6
-1.310, 6.756e-6
-1.311, 6.766e-6
-1.312, 6.775e-6
-1.313, 6.786e-6
-1.314, 6.796e-6
-1.315, 6.805e-6
-1.316, 6.814e-6
-1.317, 6.823e-6
-1.318, 6.836e-6
-1.319, 6.845e-6
-1.320, 6.856e-6
-1.321, 6.865e-6
-1.322, 6.875e-6
-1.323, 6.885e-6
-1.324, 6.896e-6
-1.325, 6.905e-6
-1.326, 6.917e-6
-1.327, 6.926e-6
-1.328, 6.938e-6
-1.329, 6.948e-6
-1.330, 6.959e-6
-1.331, 6.972e-6
-1.332, 6.983e-6
-1.333, 6.996e-6
-1.334, 7.007e-6
-1.335, 7.017e-6
-1.336, 7.029e-6
-1.337, 7.041e-6
-1.338, 7.052e-6
-1.339, 7.064e-6
-1.340, 7.076e-6
-1.341, 7.090e-6
-1.342, 7.102e-6
-1.343, 7.116e-6
-1.344, 7.129e-6
-1.345, 7.141e-6
-1.346, 7.154e-6
-1.347, 7.168e-6
-1.348, 7.181e-6
-1.349, 7.193e-6
-1.350, 7.209e-6
-1.351, 7.223e-6
-1.352, 7.235e-6
-1.353, 7.250e-6
-1.354, 7.263e-6
-1.355, 7.278e-6
-1.356, 7.292e-6
-1.357, 7.307e-6
-1.358, 7.322e-6
-1.359, 7.336e-6
-1.360, 7.351e-6
-1.361, 7.366e-6
-1.362, 7.381e-6
-1.363, 7.398e-6
-1.364, 7.411e-6
-1.365, 7.427e-6
-1.366, 7.444e-6
-1.367, 7.460e-6
-1.368, 7.478e-6
-1.369, 7.494e-6
-1.370, 7.511e-6
-1.371, 7.528e-6
-1.372, 7.544e-6
-1.373, 7.561e-6
-1.374, 7.577e-6
-1.375, 7.594e-6
-1.376, 7.614e-6
-1.377, 7.632e-6
-1.378, 7.649e-6
-1.379, 7.666e-6
-1.380, 7.686e-6
-1.381, 7.705e-6
-1.382, 7.725e-6
-1.383, 7.746e-6
-1.384, 7.762e-6
-1.385, 7.780e-6
-1.386, 7.799e-6
-1.387, 7.819e-6
-1.388, 7.839e-6
-1.389, 7.858e-6
-1.390, 7.879e-6
-1.391, 7.899e-6
-1.392, 7.919e-6
-1.393, 7.940e-6
-1.394, 7.959e-6
-1.395, 7.981e-6
-1.396, 8.002e-6
-1.397, 8.023e-6
-1.398, 8.045e-6
-1.399, 8.064e-6
-1.400, 8.086e-6
-1.401, 8.108e-6
-1.402, 8.130e-6
-1.403, 8.152e-6
-1.404, 8.174e-6
-1.405, 8.198e-6
-1.406, 8.223e-6
-1.407, 8.245e-6
-1.408, 8.269e-6
-1.409, 8.292e-6
-1.410, 8.315e-6
-1.411, 8.337e-6
-1.412, 8.360e-6
-1.413, 8.381e-6
-1.414, 8.403e-6
-1.415, 8.426e-6
-1.416, 8.450e-6
-1.417, 8.476e-6
-1.418, 8.499e-6
-1.419, 8.523e-6
-1.420, 8.547e-6
-1.421, 8.572e-6
-1.422, 8.597e-6
-1.423, 8.620e-6
-1.424, 8.644e-6
-1.425, 8.669e-6
-1.426, 8.694e-6
-1.427, 8.720e-6
-1.428, 8.746e-6
-1.429, 8.770e-6
-1.430, 8.796e-6
-1.431, 8.820e-6
-1.432, 8.845e-6
-1.433, 8.869e-6
-1.434, 8.896e-6
-1.435, 8.921e-6
-1.436, 8.946e-6
-1.437, 8.971e-6
-1.438, 8.997e-6
-1.439, 9.023e-6
-1.440, 9.050e-6
-1.441, 9.076e-6
-1.442, 9.101e-6
-1.443, 9.127e-6
-1.444, 9.151e-6
-1.445, 9.178e-6
-1.446, 9.207e-6
-1.447, 9.235e-6
-1.448, 9.262e-6
-1.449, 9.288e-6
-1.450, 9.314e-6
-1.451, 9.339e-6
-1.452, 9.364e-6
-1.453, 9.389e-6
-1.454, 9.414e-6
-1.455, 9.439e-6
-1.456, 9.465e-6
-1.457, 9.492e-6
-1.458, 9.518e-6
-1.459, 9.545e-6
-1.460, 9.572e-6
-1.461, 9.596e-6
-1.462, 9.624e-6
-1.463, 9.649e-6
-1.464, 9.672e-6
-1.465, 9.699e-6
-1.466, 9.725e-6
-1.467, 9.753e-6
-1.468, 9.779e-6
-1.469, 9.804e-6
-1.470, 9.830e-6
-1.471, 9.856e-6
-1.472, 9.883e-6
-1.473, 9.909e-6
-1.474, 9.934e-6
-1.475, 9.961e-6
-1.476, 9.986e-6
-1.477, 1.001e-5
-1.478, 1.004e-5
-1.479, 1.006e-5
-1.480, 1.009e-5
-1.481, 1.012e-5
-1.482, 1.014e-5
-1.483, 1.017e-5
-1.484, 1.019e-5
-1.485, 1.022e-5
-1.486, 1.025e-5
-1.487, 1.027e-5
-1.488, 1.030e-5
-1.489, 1.032e-5
-1.490, 1.035e-5
-1.491, 1.038e-5
-1.492, 1.040e-5
-1.493, 1.043e-5
-1.494, 1.046e-5
-1.495, 1.048e-5
-1.496, 1.051e-5
-1.497, 1.054e-5
-1.498, 1.057e-5
-1.499, 1.059e-5
-1.500, 1.062e-5
-1.501, 1.065e-5
-1.502, 1.068e-5
-1.503, 1.071e-5
-1.504, 1.073e-5
-1.505, 1.076e-5
-1.506, 1.079e-5
-1.507, 1.082e-5
-1.508, 1.085e-5
-1.509, 1.088e-5
-1.510, 1.091e-5
-1.511, 1.094e-5
-1.512, 1.097e-5
-1.513, 1.100e-5
-1.514, 1.102e-5
-1.515, 1.105e-5
-1.516, 1.108e-5
-1.517, 1.111e-5
-1.518, 1.115e-5
-1.519, 1.118e-5
-1.520, 1.121e-5
-1.521, 1.124e-5
-1.522, 1.127e-5
-1.523, 1.130e-5
-1.524, 1.134e-5
-1.525, 1.137e-5
-1.526, 1.140e-5
-1.527, 1.144e-5
-1.528, 1.147e-5
-1.529, 1.150e-5
-1.530, 1.153e-5
-1.531, 1.157e-5
-1.532, 1.160e-5
-1.533, 1.164e-5
-1.534, 1.167e-5
-1.535, 1.171e-5
-1.536, 1.174e-5
-1.537, 1.178e-5
-1.538, 1.181e-5
-1.539, 1.185e-5
-1.540, 1.189e-5
-1.541, 1.192e-5
-1.542, 1.196e-5
-1.543, 1.200e-5
-1.544, 1.203e-5
-1.545, 1.206e-5
-1.546, 1.209e-5
-1.547, 1.213e-5
-1.548, 1.217e-5
-1.549, 1.221e-5
-1.550, 1.225e-5
-1.551, 1.228e-5
-1.552, 1.233e-5
-1.553, 1.237e-5
-1.554, 1.241e-5
-1.555, 1.245e-5
-1.556, 1.249e-5
-1.557, 1.254e-5
-1.558, 1.258e-5
-1.559, 1.262e-5
-1.560, 1.266e-5
-1.561, 1.271e-5
-1.562, 1.275e-5
-1.563, 1.280e-5
-1.564, 1.284e-5
-1.565, 1.289e-5
-1.566, 1.293e-5
-1.567, 1.298e-5
-1.568, 1.303e-5
-1.569, 1.307e-5
-1.570, 1.312e-5
-1.571, 1.317e-5
-1.572, 1.322e-5
-1.573, 1.327e-5
-1.574, 1.332e-5
-1.575, 1.337e-5
-1.576, 1.342e-5
-1.577, 1.347e-5
-1.578, 1.352e-5
-1.579, 1.357e-5
-1.580, 1.363e-5
-1.581, 1.368e-5
-1.582, 1.373e-5
-1.583, 1.379e-5
-1.584, 1.384e-5
-1.585, 1.390e-5
-1.586, 1.396e-5
-1.587, 1.402e-5
-1.588, 1.407e-5
-1.589, 1.412e-5
-1.590, 1.418e-5
-1.591, 1.424e-5
-1.592, 1.430e-5
-1.593, 1.437e-5
-1.594, 1.443e-5
-1.595, 1.449e-5
-1.596, 1.455e-5
-1.597, 1.462e-5
-1.598, 1.469e-5
-1.599, 1.475e-5
-1.600, 1.481e-5
-1.601, 1.488e-5
-1.602, 1.495e-5
-1.603, 1.502e-5
-1.604, 1.509e-5
-1.605, 1.516e-5
-1.606, 1.524e-5
-1.607, 1.531e-5
-1.608, 1.538e-5
-1.609, 1.546e-5
-1.610, 1.553e-5
-1.611, 1.561e-5
-1.612, 1.569e-5
-1.613, 1.577e-5
-1.614, 1.585e-5
-1.615, 1.593e-5
-1.616, 1.602e-5
-1.617, 1.610e-5
-1.618, 1.619e-5
-1.619, 1.628e-5
-1.620, 1.637e-5
-1.621, 1.646e-5
-1.622, 1.655e-5
-1.623, 1.665e-5
-1.624, 1.674e-5
-1.625, 1.684e-5
-1.626, 1.693e-5
-1.627, 1.703e-5
-1.628, 1.713e-5
-1.629, 1.723e-5
-1.630, 1.734e-5
-1.631, 1.745e-5
-1.632, 1.756e-5
-1.633, 1.767e-5
-1.634, 1.778e-5
-1.635, 1.790e-5
-1.636, 1.801e-5
-1.637, 1.813e-5
-1.638, 1.825e-5
-1.639, 1.838e-5
-1.640, 1.851e-5
-1.641, 1.864e-5
-1.642, 1.877e-5
-1.643, 1.891e-5
-1.644, 1.904e-5
-1.645, 1.918e-5
-1.646, 1.933e-5
-1.647, 1.947e-5
-1.648, 1.962e-5
-1.649, 1.977e-5
-1.650, 1.993e-5
-1.651, 2.008e-5
-1.652, 2.025e-5
-1.653, 2.041e-5
-1.654, 2.058e-5
-1.655, 2.076e-5
-1.656, 2.093e-5
-1.657, 2.112e-5
-1.658, 2.130e-5
-1.659, 2.149e-5
-1.660, 2.169e-5
-1.661, 2.188e-5
-1.662, 2.209e-5
-1.663, 2.230e-5
-1.664, 2.251e-5
-1.665, 2.273e-5
-1.666, 2.296e-5
-1.667, 2.319e-5
-1.668, 2.342e-5
-1.669, 2.366e-5
-1.670, 2.391e-5
-1.671, 2.417e-5
-1.672, 2.443e-5
-1.673, 2.470e-5
-1.674, 2.497e-5
-1.675, 2.525e-5
-1.676, 2.554e-5
-1.677, 2.583e-5
-1.678, 2.613e-5
-1.679, 2.644e-5
-1.680, 2.676e-5
-1.681, 2.709e-5
-1.682, 2.742e-5
-1.683, 2.776e-5
-1.684, 2.810e-5
-1.685, 2.846e-5
-1.686, 2.883e-5
-1.687, 2.921e-5
-1.688, 2.960e-5
-1.689, 3.000e-5
-1.690, 3.042e-5
-1.691, 3.085e-5
-1.692, 3.127e-5
-1.693, 3.172e-5
-1.694, 3.218e-5
-1.695, 3.265e-5
-1.696, 3.313e-5
-1.697, 3.363e-5
-1.698, 3.413e-5
-1.699, 3.465e-5
-1.700, 3.519e-5
-1.701, 3.573e-5
-1.702, 3.630e-5
-1.703, 3.688e-5
-1.704, 3.747e-5
-1.705, 3.807e-5
-1.706, 3.870e-5
-1.707, 3.934e-5
-1.708, 4.001e-5
-1.709, 4.068e-5
-1.710, 4.138e-5
-1.711, 4.209e-5
-1.712, 4.283e-5
-1.713, 4.358e-5
-1.714, 4.434e-5
-1.715, 4.514e-5
-1.716, 4.595e-5
-1.717, 4.679e-5
-1.718, 4.765e-5
-1.719, 4.853e-5
-1.720, 4.944e-5
-1.721, 5.036e-5
-1.722, 5.132e-5
-1.723, 5.230e-5
-1.724, 5.330e-5
-1.725, 5.432e-5
-1.726, 5.539e-5
-1.727, 5.647e-5
-1.728, 5.759e-5
-1.729, 5.873e-5
-1.730, 5.989e-5
-1.731, 6.110e-5
-1.732, 6.233e-5
-1.733, 6.359e-5
-1.734, 6.489e-5
-1.735, 6.621e-5
-1.736, 6.756e-5
-1.737, 6.897e-5
-1.738, 7.039e-5
-1.739, 7.186e-5
-1.740, 7.336e-5
-1.741, 7.490e-5
-1.742, 7.646e-5
-1.743, 7.807e-5
-1.744, 7.972e-5
-1.745, 8.141e-5
-1.746, 8.314e-5
-1.747, 8.492e-5
-1.748, 8.673e-5
-1.749, 8.859e-5
-1.750, 9.048e-5
-1.751, 9.241e-5
-1.752, 9.439e-5
-1.753, 9.642e-5
-1.754, 9.849e-5
-1.755, 1.006e-4
-1.756, 1.028e-4
-1.757, 1.050e-4
-1.758, 1.072e-4
-1.759, 1.095e-4
-1.760, 1.119e-4
-1.761, 1.143e-4
-1.762, 1.168e-4
-1.763, 1.193e-4
-1.764, 1.219e-4
-1.765, 1.245e-4
-1.766, 1.272e-4
-1.767, 1.299e-4
-1.768, 1.327e-4
-1.769, 1.356e-4
-1.770, 1.385e-4
-1.771, 1.415e-4
-1.772, 1.445e-4
-1.773, 1.476e-4
-1.774, 1.508e-4
-1.775, 1.540e-4
-1.776, 1.573e-4
-1.777, 1.607e-4
-1.778, 1.642e-4
-1.779, 1.678e-4
-1.780, 1.714e-4
-1.781, 1.751e-4
-1.782, 1.790e-4
-1.783, 1.829e-4
-1.784, 1.868e-4
-1.785, 1.909e-4
-1.786, 1.951e-4
-1.787, 1.994e-4
-1.788, 2.038e-4
-1.789, 2.083e-4
-1.790, 2.129e-4
-1.791, 2.177e-4
-1.792, 2.226e-4
-1.793, 2.277e-4
-1.794, 2.329e-4
-1.795, 2.382e-4
-1.796, 2.436e-4
-1.797, 2.493e-4
-1.798, 2.550e-4
-1.799, 2.609e-4
-1.800, 2.670e-4
-1.801, 2.732e-4
-1.802, 2.796e-4
-1.803, 2.861e-4
-1.804, 2.928e-4
-1.805, 2.996e-4
-1.806, 3.065e-4
-1.807, 3.136e-4
-1.808, 3.208e-4
-1.809, 3.281e-4
-1.810, 3.354e-4
-1.811, 3.428e-4
-1.812, 3.501e-4
-1.813, 3.575e-4
-1.814, 3.648e-4
-1.815, 3.721e-4
-1.816, 3.793e-4
-1.817, 3.865e-4
-1.818, 3.935e-4
-1.819, 4.004e-4
-1.820, 4.073e-4
-1.821, 4.141e-4
-1.822, 4.208e-4
-1.823, 4.275e-4
-1.824, 4.341e-4
-1.825, 4.406e-4
-1.826, 4.471e-4
-1.827, 4.535e-4
-1.828, 4.598e-4
-1.829, 4.661e-4
-1.830, 4.724e-4
-1.831, 4.787e-4
-1.832, 4.850e-4
-1.833, 4.912e-4
-1.834, 4.974e-4
-1.835, 5.036e-4
-1.836, 5.098e-4
-1.837, 5.160e-4
-1.838, 5.221e-4
-1.839, 5.283e-4
-1.840, 5.345e-4
-1.841, 5.407e-4
-1.842, 5.468e-4
-1.843, 5.530e-4
-1.844, 5.592e-4
-1.845, 5.653e-4
-1.846, 5.715e-4
-1.847, 5.777e-4
-1.848, 5.839e-4
-1.849, 5.902e-4
-1.850, 5.964e-4
-1.851, 6.027e-4
-1.852, 6.089e-4
-1.853, 6.152e-4
-1.854, 6.215e-4
-1.855, 6.278e-4
-1.856, 6.341e-4
-1.857, 6.405e-4
-1.858, 6.469e-4
-1.859, 6.534e-4
-1.860, 6.598e-4
-1.861, 6.663e-4
-1.862, 6.728e-4
-1.863, 6.793e-4
-1.864, 6.858e-4
-1.865, 6.923e-4
-1.866, 6.990e-4
-1.867, 7.056e-4
-1.868, 7.122e-4
-1.869, 7.188e-4
-1.870, 7.254e-4
-1.871, 7.321e-4
-1.872, 7.389e-4
-1.873, 7.457e-4
-1.874, 7.525e-4
-1.875, 7.592e-4
-1.876, 7.659e-4
-1.877, 7.728e-4
-1.878, 7.797e-4
-1.879, 7.866e-4
-1.880, 7.935e-4
-1.881, 8.004e-4
-1.882, 8.072e-4
-1.883, 8.143e-4
-1.884, 8.213e-4
-1.885, 8.283e-4
-1.886, 8.353e-4
-1.887, 8.423e-4
-1.888, 8.494e-4
-1.889, 8.565e-4
-1.890, 8.637e-4
-1.891, 8.708e-4
-1.892, 8.779e-4
-1.893, 8.851e-4
-1.894, 8.923e-4
-1.895, 8.995e-4
-1.896, 9.068e-4
-1.897, 9.141e-4
-1.898, 9.213e-4
-1.899, 9.286e-4
-1.900, 9.359e-4
-1.901, 9.432e-4
-1.902, 9.505e-4
-1.903, 9.578e-4
-1.904, 9.653e-4
-1.905, 9.728e-4
-1.906, 9.802e-4
-1.907, 9.876e-4
-1.908, 9.952e-4
-1.909, 1.003e-3
-1.910, 1.010e-3
-1.911, 1.011e-3
-1.912, 1.011e-3
-1.913, 1.011e-3
-1.914, 1.011e-3
-1.915, 1.011e-3
-1.916, 1.011e-3
-1.917, 1.011e-3
-1.918, 1.011e-3
-1.919, 1.011e-3
-1.920, 1.011e-3
-1.921, 1.011e-3
-1.922, 1.011e-3
-1.923, 1.011e-3
-1.924, 1.011e-3
-1.925, 1.011e-3
-1.926, 1.011e-3
-1.927, 1.011e-3
-1.928, 1.011e-3
-1.929, 1.011e-3
-1.930, 1.011e-3
-1.931, 1.011e-3
-1.932, 1.011e-3
-1.933, 1.011e-3
-1.934, 1.011e-3
-1.935, 1.011e-3
-1.936, 1.011e-3
-1.937, 1.011e-3
-1.938, 1.011e-3
-1.939, 1.011e-3
-1.940, 1.011e-3
-1.941, 1.011e-3
-1.942, 1.011e-3
-1.943, 1.011e-3
-1.944, 1.011e-3
-1.945, 1.011e-3
-1.946, 1.011e-3
-1.947, 1.011e-3
-1.948, 1.011e-3
-1.949, 1.011e-3
-1.950, 1.011e-3
-1.951, 1.011e-3
-1.952, 1.011e-3
-1.953, 1.011e-3
-1.954, 1.011e-3
-1.955, 1.011e-3
-1.956, 1.011e-3
-1.957, 1.011e-3
-1.958, 1.011e-3
-1.959, 1.011e-3
-1.960, 1.011e-3
-1.961, 1.011e-3
-1.962, 1.011e-3
-1.963, 1.011e-3
-1.964, 1.011e-3
-1.965, 1.011e-3
-1.966, 1.011e-3
-1.967, 1.011e-3
-1.968, 1.011e-3
-1.969, 1.011e-3
-1.970, 1.011e-3
-1.971, 1.011e-3
-1.972, 1.011e-3
-1.973, 1.011e-3
-1.974, 1.011e-3
-1.975, 1.011e-3
-1.976, 1.011e-3
-1.977, 1.011e-3
-1.978, 1.011e-3
-1.979, 1.011e-3
-1.980, 1.011e-3
-1.981, 1.011e-3
-1.982, 1.011e-3
-1.983, 1.011e-3
-1.984, 1.011e-3
-1.985, 1.011e-3
-1.986, 1.011e-3
-1.987, 1.011e-3
-1.988, 1.011e-3
-1.989, 1.011e-3
-1.990, 1.011e-3
-1.991, 1.011e-3
-1.992, 1.011e-3
-1.993, 1.011e-3
-1.994, 1.011e-3
-1.995, 1.011e-3
-1.996, 1.011e-3
-1.997, 1.011e-3
-1.998, 1.011e-3
-1.999, 1.011e-3
-2.000, 1.011e-3
-2.001, 1.011e-3
-2.002, 1.011e-3
-2.003, 1.011e-3
-2.004, 1.011e-3
-2.005, 1.011e-3
-2.006, 1.011e-3
-2.007, 1.011e-3
-2.008, 1.011e-3
-2.009, 1.011e-3
-2.010, 1.011e-3
-2.011, 1.011e-3
-2.012, 1.011e-3
-2.013, 1.011e-3
-2.014, 1.011e-3
-2.015, 1.011e-3
-2.016, 1.011e-3
-2.017, 1.011e-3
-2.018, 1.011e-3
-2.019, 1.011e-3
-2.020, 1.011e-3
-2.021, 1.011e-3
-2.022, 1.011e-3
-2.023, 1.011e-3
-2.024, 1.011e-3
-2.025, 1.011e-3
-2.026, 1.011e-3
-2.027, 1.011e-3
-2.028, 1.011e-3
-2.029, 1.011e-3
-2.030, 1.011e-3
-2.031, 1.011e-3
-2.032, 1.011e-3
-2.033, 1.011e-3
-2.034, 1.011e-3
-2.035, 1.011e-3
-2.036, 1.011e-3
-2.037, 1.011e-3
-2.038, 1.011e-3
-2.039, 1.011e-3
-2.040, 1.011e-3
-2.041, 1.011e-3
-2.042, 1.011e-3
-2.043, 1.011e-3
-2.044, 1.011e-3
-2.045, 1.011e-3
-2.046, 1.011e-3
-2.047, 1.011e-3
-2.048, 1.011e-3
-2.049, 1.011e-3
-2.050, 1.011e-3
-2.051, 1.011e-3
-2.052, 1.011e-3
-2.053, 1.011e-3
-2.054, 1.011e-3
-2.055, 1.011e-3
-2.056, 1.011e-3
-2.057, 1.011e-3
-2.058, 1.011e-3
-2.059, 1.011e-3
-2.060, 1.011e-3
-2.061, 1.011e-3
-2.062, 1.011e-3
-2.063, 1.011e-3
-2.064, 1.011e-3
-2.065, 1.011e-3
-2.066, 1.011e-3
-2.067, 1.011e-3
-2.068, 1.011e-3
-2.069, 1.011e-3
-2.070, 1.011e-3
-2.071, 1.011e-3
-2.072, 1.011e-3
-2.073, 1.011e-3
-2.074, 1.011e-3
-2.075, 1.011e-3
-2.076, 1.011e-3
-2.077, 1.011e-3
-2.078, 1.011e-3
-2.079, 1.011e-3
-2.080, 1.011e-3
-2.081, 1.011e-3
-2.082, 1.011e-3
-2.083, 1.011e-3
-2.084, 1.011e-3
-2.085, 1.011e-3
-2.086, 1.011e-3
-2.087, 1.011e-3
-2.088, 1.011e-3
-2.089, 1.011e-3
-2.090, 1.011e-3
-2.091, 1.011e-3
-2.092, 1.011e-3
-2.093, 1.011e-3
-2.094, 1.011e-3
-2.095, 1.011e-3
-2.096, 1.011e-3
-2.097, 1.011e-3
-2.098, 1.011e-3
-2.099, 1.011e-3
-2.100, 1.011e-3
-2.101, 1.011e-3
-2.102, 1.011e-3
-2.103, 1.011e-3
-2.104, 1.011e-3
-2.105, 1.011e-3
-2.106, 1.011e-3
-2.107, 1.011e-3
-2.108, 1.011e-3
-2.109, 1.011e-3
-2.110, 1.011e-3
-2.111, 1.011e-3
-2.112, 1.011e-3
-2.113, 1.011e-3
-2.114, 1.011e-3
-2.115, 1.011e-3
-2.116, 1.011e-3
-2.117, 1.011e-3
-2.118, 1.011e-3
-2.119, 1.011e-3
-2.120, 1.011e-3
-2.121, 1.011e-3
-2.122, 1.011e-3
-2.123, 1.011e-3
-2.124, 1.011e-3
-2.125, 1.011e-3
-2.126, 1.011e-3
-2.127, 1.011e-3
-2.128, 1.011e-3
-2.129, 1.011e-3
-2.130, 1.011e-3
-2.131, 1.011e-3
-2.132, 1.011e-3
-2.133, 1.011e-3
-2.134, 1.011e-3
-2.135, 1.011e-3
-2.136, 1.011e-3
-2.137, 1.011e-3
-2.138, 1.011e-3
-2.139, 1.011e-3
-2.140, 1.011e-3
-2.141, 1.011e-3
-2.142, 1.011e-3
-2.143, 1.011e-3
-2.144, 1.011e-3
-2.145, 1.011e-3
-2.146, 1.011e-3
-2.147, 1.011e-3
-2.148, 1.011e-3
-2.149, 1.011e-3
-2.150, 1.011e-3
-2.151, 1.011e-3
-2.152, 1.011e-3
-2.153, 1.011e-3
-2.154, 1.011e-3
-2.155, 1.011e-3
-2.156, 1.011e-3
-2.157, 1.011e-3
-2.158, 1.011e-3
-2.159, 1.011e-3
-2.160, 1.011e-3
-2.161, 1.011e-3
-2.162, 1.011e-3
-2.163, 1.011e-3
-2.164, 1.011e-3
-2.165, 1.011e-3
-2.166, 1.011e-3
-2.167, 1.011e-3
-2.168, 1.011e-3
-2.169, 1.011e-3
-2.170, 1.011e-3
-2.171, 1.011e-3
-2.172, 1.011e-3
-2.173, 1.011e-3
-2.174, 1.011e-3
-2.175, 1.011e-3
-2.176, 1.011e-3
-2.177, 1.011e-3
-2.178, 1.011e-3
-2.179, 1.011e-3
-2.180, 1.011e-3
-2.181, 1.011e-3
-2.182, 1.011e-3
-2.183, 1.011e-3
-2.184, 1.011e-3
-2.185, 1.011e-3
-2.186, 1.011e-3
-2.187, 1.011e-3
-2.188, 1.011e-3
-2.189, 1.011e-3
-2.190, 1.011e-3
-2.191, 1.011e-3
-2.192, 1.011e-3
-2.193, 1.011e-3
-2.194, 1.011e-3
-2.195, 1.011e-3
-2.196, 1.011e-3
-2.197, 1.011e-3
-2.198, 1.011e-3
-2.199, 1.011e-3
-2.200, 1.011e-3
-2.201, 1.011e-3
-2.202, 1.011e-3
-2.203, 1.011e-3
-2.204, 1.011e-3
-2.205, 1.011e-3
-2.206, 1.011e-3
-2.207, 1.011e-3
-2.208, 1.011e-3
-2.209, 1.011e-3
-2.210, 1.011e-3
-2.211, 1.011e-3
-2.212, 1.011e-3
-2.213, 1.011e-3
-2.214, 1.011e-3
-2.215, 1.011e-3
-2.216, 1.011e-3
-2.217, 1.011e-3
-2.218, 1.011e-3
-2.219, 1.011e-3
-2.220, 1.011e-3
-2.221, 1.011e-3
-2.222, 1.011e-3
-2.223, 1.011e-3
-2.224, 1.011e-3
-2.225, 1.011e-3
-2.226, 1.011e-3
-2.227, 1.011e-3
-2.228, 1.011e-3
-2.229, 1.011e-3
-2.230, 1.011e-3
-2.231, 1.011e-3
-2.232, 1.011e-3
-2.233, 1.011e-3
-2.234, 1.011e-3
-2.235, 1.011e-3
-2.236, 1.011e-3
-2.237, 1.011e-3
-2.238, 1.011e-3
-2.239, 1.011e-3
-2.240, 1.011e-3
-2.241, 1.011e-3
-2.242, 1.011e-3
-2.243, 1.011e-3
-2.244, 1.011e-3
-2.245, 1.011e-3
-2.246, 1.011e-3
-2.247, 1.011e-3
-2.248, 1.011e-3
-2.249, 1.011e-3
-2.250, 1.011e-3
-2.251, 1.011e-3
-2.252, 1.011e-3
-2.253, 1.011e-3
-2.254, 1.011e-3
-2.255, 1.011e-3
-2.256, 1.011e-3
-2.257, 1.011e-3
-2.258, 1.011e-3
-2.259, 1.011e-3
-2.260, 1.011e-3
-2.261, 1.011e-3
-2.262, 1.011e-3
-2.263, 1.011e-3
-2.264, 1.011e-3
-2.265, 1.011e-3
-2.266, 1.011e-3
-2.267, 1.011e-3
-2.268, 1.011e-3
-2.269, 1.011e-3
-2.270, 1.011e-3
-2.271, 1.011e-3
-2.272, 1.011e-3
-2.273, 1.011e-3
-2.274, 1.011e-3
-2.275, 1.011e-3
-2.276, 1.011e-3
-2.277, 1.011e-3
-2.278, 1.011e-3
-2.279, 1.011e-3
-2.280, 1.011e-3
-2.281, 1.011e-3
-2.282, 1.011e-3
-2.283, 1.011e-3
-2.284, 1.011e-3
-2.285, 1.011e-3
-2.286, 1.011e-3
-2.287, 1.011e-3
-2.288, 1.011e-3
-2.289, 1.011e-3
-2.290, 1.011e-3
-2.291, 1.011e-3
-2.292, 1.011e-3
-2.293, 1.011e-3
-2.294, 1.011e-3
-2.295, 1.011e-3
-2.296, 1.011e-3
-2.297, 1.011e-3
-2.298, 1.011e-3
-2.299, 1.011e-3
