Sept. 27, 2024   13:20:30
Cyclic Voltammetry
File: c:/users/guazh/data/20240922_batch_417_500/2024-09-22-exp463\exp463-2024-09-27t13_03_59-h2koh\exp463_cv_sr_700mvs_efin_-1700mv.bin
Data Source:  Experiment
Instrument Model:  CHI760E
Header: CV ran at 700 mVs
Note: 

Init E (V) = -1
High E (V) = -1
Low E (V) = -1.7
Final E (V) = -1
Init P/N = N
Scan Rate (V/s) = 0.7
Segment = 3
Sample Interval (V) = 0.001
Quiet Time (sec) = 2
Sensitivity (A/V) = 0.01
Comp R (ohm) = 2.9

Results:

Channel 1:
Segment 1:

Segment 2:

Segment 3:

Potential/V, Current/A

-1.000, 1.557e-5
-1.001, 2.790e-5
-1.002, 2.790e-5
-1.003, 3.099e-5
-1.004, 3.099e-5
-1.005, 3.099e-5
-1.006, 3.099e-5
-1.007, 3.099e-5
-1.008, 3.099e-5
-1.009, 3.407e-5
-1.010, 3.407e-5
-1.011, 3.407e-5
-1.012, 3.407e-5
-1.013, 3.407e-5
-1.014, 3.407e-5
-1.015, 3.407e-5
-1.016, 3.099e-5
-1.017, 3.407e-5
-1.018, 3.099e-5
-1.019, 3.099e-5
-1.020, 3.099e-5
-1.021, 3.407e-5
-1.022, 3.715e-5
-1.023, 3.407e-5
-1.024, 3.407e-5
-1.025, 3.407e-5
-1.026, 3.407e-5
-1.027, 3.407e-5
-1.028, 3.407e-5
-1.029, 3.407e-5
-1.030, 3.407e-5
-1.031, 3.407e-5
-1.032, 3.407e-5
-1.033, 3.407e-5
-1.034, 3.407e-5
-1.035, 3.407e-5
-1.036, 3.407e-5
-1.037, 3.407e-5
-1.038, 3.407e-5
-1.039, 3.407e-5
-1.040, 3.407e-5
-1.041, 3.407e-5
-1.042, 3.407e-5
-1.043, 3.407e-5
-1.044, 3.407e-5
-1.045, 3.407e-5
-1.046, 3.715e-5
-1.047, 3.715e-5
-1.048, 3.715e-5
-1.049, 3.715e-5
-1.050, 3.715e-5
-1.051, 3.407e-5
-1.052, 3.407e-5
-1.053, 3.407e-5
-1.054, 3.407e-5
-1.055, 3.407e-5
-1.056, 3.407e-5
-1.057, 3.715e-5
-1.058, 3.407e-5
-1.059, 3.715e-5
-1.060, 3.715e-5
-1.061, 3.715e-5
-1.062, 3.715e-5
-1.063, 3.407e-5
-1.064, 3.715e-5
-1.065, 3.715e-5
-1.066, 3.407e-5
-1.067, 3.407e-5
-1.068, 3.407e-5
-1.069, 3.715e-5
-1.070, 3.407e-5
-1.071, 3.715e-5
-1.072, 3.715e-5
-1.073, 3.715e-5
-1.074, 3.715e-5
-1.075, 3.715e-5
-1.076, 3.715e-5
-1.077, 3.715e-5
-1.078, 3.715e-5
-1.079, 3.715e-5
-1.080, 3.715e-5
-1.081, 3.715e-5
-1.082, 3.715e-5
-1.083, 3.715e-5
-1.084, 3.715e-5
-1.085, 3.715e-5
-1.086, 3.715e-5
-1.087, 3.715e-5
-1.088, 3.407e-5
-1.089, 3.407e-5
-1.090, 3.407e-5
-1.091, 3.715e-5
-1.092, 3.715e-5
-1.093, 3.715e-5
-1.094, 4.024e-5
-1.095, 3.715e-5
-1.096, 3.715e-5
-1.097, 4.024e-5
-1.098, 3.715e-5
-1.099, 3.715e-5
-1.100, 3.715e-5
-1.101, 3.715e-5
-1.102, 3.715e-5
-1.103, 3.715e-5
-1.104, 3.715e-5
-1.105, 3.715e-5
-1.106, 3.715e-5
-1.107, 3.715e-5
-1.108, 3.715e-5
-1.109, 4.024e-5
-1.110, 3.715e-5
-1.111, 3.715e-5
-1.112, 3.715e-5
-1.113, 4.024e-5
-1.114, 3.715e-5
-1.115, 3.715e-5
-1.116, 3.715e-5
-1.117, 3.715e-5
-1.118, 4.024e-5
-1.119, 3.715e-5
-1.120, 3.715e-5
-1.121, 3.715e-5
-1.122, 3.715e-5
-1.123, 3.715e-5
-1.124, 3.715e-5
-1.125, 3.715e-5
-1.126, 3.715e-5
-1.127, 4.024e-5
-1.128, 3.715e-5
-1.129, 4.024e-5
-1.130, 4.024e-5
-1.131, 4.024e-5
-1.132, 4.024e-5
-1.133, 3.715e-5
-1.134, 4.024e-5
-1.135, 3.715e-5
-1.136, 3.715e-5
-1.137, 4.024e-5
-1.138, 3.715e-5
-1.139, 3.715e-5
-1.140, 3.715e-5
-1.141, 4.024e-5
-1.142, 4.024e-5
-1.143, 4.024e-5
-1.144, 4.024e-5
-1.145, 4.024e-5
-1.146, 4.024e-5
-1.147, 4.024e-5
-1.148, 4.024e-5
-1.149, 3.715e-5
-1.150, 4.024e-5
-1.151, 4.024e-5
-1.152, 4.024e-5
-1.153, 4.024e-5
-1.154, 4.024e-5
-1.155, 4.024e-5
-1.156, 3.715e-5
-1.157, 4.024e-5
-1.158, 3.715e-5
-1.159, 3.715e-5
-1.160, 3.715e-5
-1.161, 4.024e-5
-1.162, 4.024e-5
-1.163, 4.024e-5
-1.164, 4.332e-5
-1.165, 4.024e-5
-1.166, 4.332e-5
-1.167, 4.024e-5
-1.168, 4.024e-5
-1.169, 4.024e-5
-1.170, 4.024e-5
-1.171, 4.024e-5
-1.172, 4.024e-5
-1.173, 4.024e-5
-1.174, 4.024e-5
-1.175, 4.024e-5
-1.176, 4.024e-5
-1.177, 4.332e-5
-1.178, 4.332e-5
-1.179, 4.332e-5
-1.180, 4.024e-5
-1.181, 4.024e-5
-1.182, 4.024e-5
-1.183, 4.024e-5
-1.184, 4.024e-5
-1.185, 4.024e-5
-1.186, 4.024e-5
-1.187, 4.024e-5
-1.188, 4.332e-5
-1.189, 4.332e-5
-1.190, 4.332e-5
-1.191, 4.332e-5
-1.192, 4.024e-5
-1.193, 4.024e-5
-1.194, 4.024e-5
-1.195, 4.024e-5
-1.196, 4.024e-5
-1.197, 4.332e-5
-1.198, 4.332e-5
-1.199, 4.332e-5
-1.200, 4.024e-5
-1.201, 4.332e-5
-1.202, 4.332e-5
-1.203, 4.024e-5
-1.204, 4.332e-5
-1.205, 4.024e-5
-1.206, 4.024e-5
-1.207, 4.332e-5
-1.208, 4.024e-5
-1.209, 4.332e-5
-1.210, 4.332e-5
-1.211, 4.332e-5
-1.212, 4.332e-5
-1.213, 4.332e-5
-1.214, 4.332e-5
-1.215, 4.332e-5
-1.216, 4.332e-5
-1.217, 4.332e-5
-1.218, 4.332e-5
-1.219, 4.332e-5
-1.220, 4.024e-5
-1.221, 4.332e-5
-1.222, 4.332e-5
-1.223, 4.332e-5
-1.224, 4.332e-5
-1.225, 4.332e-5
-1.226, 4.332e-5
-1.227, 4.332e-5
-1.228, 4.332e-5
-1.229, 4.332e-5
-1.230, 4.332e-5
-1.231, 4.332e-5
-1.232, 4.332e-5
-1.233, 4.332e-5
-1.234, 4.640e-5
-1.235, 4.640e-5
-1.236, 4.640e-5
-1.237, 4.332e-5
-1.238, 4.332e-5
-1.239, 4.332e-5
-1.240, 4.332e-5
-1.241, 4.332e-5
-1.242, 4.332e-5
-1.243, 4.332e-5
-1.244, 4.332e-5
-1.245, 4.332e-5
-1.246, 4.332e-5
-1.247, 4.640e-5
-1.248, 4.640e-5
-1.249, 4.640e-5
-1.250, 4.332e-5
-1.251, 4.332e-5
-1.252, 4.332e-5
-1.253, 4.640e-5
-1.254, 4.640e-5
-1.255, 4.332e-5
-1.256, 4.640e-5
-1.257, 4.332e-5
-1.258, 4.640e-5
-1.259, 4.640e-5
-1.260, 4.640e-5
-1.261, 4.640e-5
-1.262, 4.640e-5
-1.263, 4.332e-5
-1.264, 4.332e-5
-1.265, 4.640e-5
-1.266, 4.640e-5
-1.267, 4.640e-5
-1.268, 4.640e-5
-1.269, 4.640e-5
-1.270, 4.640e-5
-1.271, 4.949e-5
-1.272, 4.640e-5
-1.273, 4.640e-5
-1.274, 4.640e-5
-1.275, 4.640e-5
-1.276, 4.640e-5
-1.277, 4.640e-5
-1.278, 4.332e-5
-1.279, 4.640e-5
-1.280, 4.640e-5
-1.281, 4.949e-5
-1.282, 4.640e-5
-1.283, 4.640e-5
-1.284, 4.949e-5
-1.285, 4.640e-5
-1.286, 4.949e-5
-1.287, 4.949e-5
-1.288, 4.640e-5
-1.289, 4.949e-5
-1.290, 4.640e-5
-1.291, 4.949e-5
-1.292, 4.949e-5
-1.293, 4.949e-5
-1.294, 4.949e-5
-1.295, 4.949e-5
-1.296, 4.949e-5
-1.297, 4.949e-5
-1.298, 4.640e-5
-1.299, 4.640e-5
-1.300, 4.949e-5
-1.301, 4.949e-5
-1.302, 4.949e-5
-1.303, 4.949e-5
-1.304, 4.949e-5
-1.305, 5.257e-5
-1.306, 5.257e-5
-1.307, 5.257e-5
-1.308, 4.949e-5
-1.309, 4.949e-5
-1.310, 4.949e-5
-1.311, 4.949e-5
-1.312, 4.949e-5
-1.313, 4.949e-5
-1.314, 5.257e-5
-1.315, 4.949e-5
-1.316, 5.257e-5
-1.317, 5.257e-5
-1.318, 5.257e-5
-1.319, 5.257e-5
-1.320, 5.257e-5
-1.321, 5.257e-5
-1.322, 5.257e-5
-1.323, 5.257e-5
-1.324, 5.257e-5
-1.325, 5.257e-5
-1.326, 5.257e-5
-1.327, 5.257e-5
-1.328, 5.257e-5
-1.329, 5.257e-5
-1.330, 5.257e-5
-1.331, 5.257e-5
-1.332, 5.257e-5
-1.333, 5.257e-5
-1.334, 5.257e-5
-1.335, 5.257e-5
-1.336, 5.565e-5
-1.337, 5.565e-5
-1.338, 5.565e-5
-1.339, 5.873e-5
-1.340, 5.565e-5
-1.341, 5.565e-5
-1.342, 5.565e-5
-1.343, 5.565e-5
-1.344, 5.565e-5
-1.345, 5.565e-5
-1.346, 5.565e-5
-1.347, 5.565e-5
-1.348, 5.565e-5
-1.349, 5.565e-5
-1.350, 5.873e-5
-1.351, 5.873e-5
-1.352, 5.873e-5
-1.353, 5.873e-5
-1.354, 5.873e-5
-1.355, 5.873e-5
-1.356, 5.873e-5
-1.357, 5.873e-5
-1.358, 6.182e-5
-1.359, 5.873e-5
-1.360, 5.873e-5
-1.361, 5.873e-5
-1.362, 5.873e-5
-1.363, 6.182e-5
-1.364, 6.182e-5
-1.365, 6.182e-5
-1.366, 6.182e-5
-1.367, 6.182e-5
-1.368, 6.182e-5
-1.369, 6.182e-5
-1.370, 6.182e-5
-1.371, 6.490e-5
-1.372, 6.490e-5
-1.373, 6.490e-5
-1.374, 6.798e-5
-1.375, 6.798e-5
-1.376, 6.798e-5
-1.377, 6.798e-5
-1.378, 6.490e-5
-1.379, 6.490e-5
-1.380, 6.490e-5
-1.381, 6.490e-5
-1.382, 6.798e-5
-1.383, 6.798e-5
-1.384, 6.798e-5
-1.385, 6.798e-5
-1.386, 7.107e-5
-1.387, 7.107e-5
-1.388, 7.107e-5
-1.389, 7.415e-5
-1.390, 7.107e-5
-1.391, 7.415e-5
-1.392, 7.107e-5
-1.393, 7.107e-5
-1.394, 7.415e-5
-1.395, 7.415e-5
-1.396, 7.415e-5
-1.397, 7.415e-5
-1.398, 7.415e-5
-1.399, 7.723e-5
-1.400, 7.415e-5
-1.401, 7.723e-5
-1.402, 7.723e-5
-1.403, 7.723e-5
-1.404, 7.723e-5
-1.405, 7.723e-5
-1.406, 8.032e-5
-1.407, 8.032e-5
-1.408, 8.032e-5
-1.409, 8.340e-5
-1.410, 8.340e-5
-1.411, 8.340e-5
-1.412, 8.340e-5
-1.413, 8.340e-5
-1.414, 8.648e-5
-1.415, 8.648e-5
-1.416, 8.648e-5
-1.417, 8.648e-5
-1.418, 8.648e-5
-1.419, 8.957e-5
-1.420, 8.957e-5
-1.421, 8.957e-5
-1.422, 9.265e-5
-1.423, 9.265e-5
-1.424, 9.573e-5
-1.425, 9.265e-5
-1.426, 9.265e-5
-1.427, 9.573e-5
-1.428, 9.573e-5
-1.429, 9.573e-5
-1.430, 9.573e-5
-1.431, 9.882e-5
-1.432, 9.882e-5
-1.433, 1.019e-4
-1.434, 1.019e-4
-1.435, 1.019e-4
-1.436, 1.050e-4
-1.437, 1.019e-4
-1.438, 1.050e-4
-1.439, 1.050e-4
-1.440, 1.081e-4
-1.441, 1.081e-4
-1.442, 1.111e-4
-1.443, 1.111e-4
-1.444, 1.142e-4
-1.445, 1.142e-4
-1.446, 1.142e-4
-1.447, 1.173e-4
-1.448, 1.142e-4
-1.449, 1.173e-4
-1.450, 1.173e-4
-1.451, 1.204e-4
-1.452, 1.204e-4
-1.453, 1.204e-4
-1.454, 1.266e-4
-1.455, 1.266e-4
-1.456, 1.266e-4
-1.457, 1.296e-4
-1.458, 1.296e-4
-1.459, 1.327e-4
-1.460, 1.327e-4
-1.461, 1.358e-4
-1.462, 1.358e-4
-1.463, 1.389e-4
-1.464, 1.389e-4
-1.465, 1.420e-4
-1.466, 1.451e-4
-1.467, 1.451e-4
-1.468, 1.481e-4
-1.469, 1.481e-4
-1.470, 1.512e-4
-1.471, 1.512e-4
-1.472, 1.543e-4
-1.473, 1.574e-4
-1.474, 1.574e-4
-1.475, 1.605e-4
-1.476, 1.636e-4
-1.477, 1.666e-4
-1.478, 1.666e-4
-1.479, 1.728e-4
-1.480, 1.728e-4
-1.481, 1.759e-4
-1.482, 1.759e-4
-1.483, 1.790e-4
-1.484, 1.821e-4
-1.485, 1.821e-4
-1.486, 1.851e-4
-1.487, 1.882e-4
-1.488, 1.882e-4
-1.489, 1.944e-4
-1.490, 1.944e-4
-1.491, 2.006e-4
-1.492, 2.036e-4
-1.493, 2.067e-4
-1.494, 2.098e-4
-1.495, 2.129e-4
-1.496, 2.129e-4
-1.497, 2.191e-4
-1.498, 2.221e-4
-1.499, 2.252e-4
-1.500, 2.283e-4
-1.501, 2.314e-4
-1.502, 2.345e-4
-1.503, 2.376e-4
-1.504, 2.406e-4
-1.505, 2.468e-4
-1.506, 2.499e-4
-1.507, 2.530e-4
-1.508, 2.561e-4
-1.509, 2.591e-4
-1.510, 2.653e-4
-1.511, 2.684e-4
-1.512, 2.715e-4
-1.513, 2.776e-4
-1.514, 2.838e-4
-1.515, 2.869e-4
-1.516, 2.931e-4
-1.517, 2.961e-4
-1.518, 2.992e-4
-1.519, 3.054e-4
-1.520, 3.085e-4
-1.521, 3.146e-4
-1.522, 3.177e-4
-1.523, 3.239e-4
-1.524, 3.300e-4
-1.525, 3.362e-4
-1.526, 3.424e-4
-1.527, 3.455e-4
-1.528, 3.547e-4
-1.529, 3.609e-4
-1.530, 3.640e-4
-1.531, 3.701e-4
-1.532, 3.763e-4
-1.533, 3.825e-4
-1.534, 3.886e-4
-1.535, 3.948e-4
-1.536, 4.010e-4
-1.537, 4.071e-4
-1.538, 4.164e-4
-1.539, 4.225e-4
-1.540, 4.287e-4
-1.541, 4.380e-4
-1.542, 4.441e-4
-1.543, 4.503e-4
-1.544, 4.595e-4
-1.545, 4.688e-4
-1.546, 4.750e-4
-1.547, 4.811e-4
-1.548, 4.904e-4
-1.549, 4.996e-4
-1.550, 5.089e-4
-1.551, 5.181e-4
-1.552, 5.274e-4
-1.553, 5.335e-4
-1.554, 5.459e-4
-1.555, 5.520e-4
-1.556, 5.613e-4
-1.557, 5.705e-4
-1.558, 5.829e-4
-1.559, 5.921e-4
-1.560, 6.014e-4
-1.561, 6.137e-4
-1.562, 6.260e-4
-1.563, 6.353e-4
-1.564, 6.507e-4
-1.565, 6.569e-4
-1.566, 6.692e-4
-1.567, 6.815e-4
-1.568, 6.908e-4
-1.569, 7.031e-4
-1.570, 7.154e-4
-1.571, 7.278e-4
-1.572, 7.401e-4
-1.573, 7.524e-4
-1.574, 7.679e-4
-1.575, 7.802e-4
-1.576, 7.956e-4
-1.577, 8.079e-4
-1.578, 8.233e-4
-1.579, 8.357e-4
-1.580, 8.511e-4
-1.581, 8.665e-4
-1.582, 8.788e-4
-1.583, 8.973e-4
-1.584, 9.128e-4
-1.585, 9.282e-4
-1.586, 9.436e-4
-1.587, 9.590e-4
-1.588, 9.744e-4
-1.589, 9.898e-4
-1.590, 1.005e-3
-1.591, 1.024e-3
-1.592, 1.039e-3
-1.593, 1.058e-3
-1.594, 1.076e-3
-1.595, 1.095e-3
-1.596, 1.113e-3
-1.597, 1.132e-3
-1.598, 1.153e-3
-1.599, 1.172e-3
-1.600, 1.190e-3
-1.601, 1.209e-3
-1.602, 1.227e-3
-1.603, 1.246e-3
-1.604, 1.267e-3
-1.605, 1.286e-3
-1.606, 1.310e-3
-1.607, 1.332e-3
-1.608, 1.354e-3
-1.609, 1.375e-3
-1.610, 1.400e-3
-1.611, 1.421e-3
-1.612, 1.443e-3
-1.613, 1.465e-3
-1.614, 1.486e-3
-1.615, 1.511e-3
-1.616, 1.536e-3
-1.617, 1.557e-3
-1.618, 1.582e-3
-1.619, 1.610e-3
-1.620, 1.637e-3
-1.621, 1.665e-3
-1.622, 1.690e-3
-1.623, 1.714e-3
-1.624, 1.742e-3
-1.625, 1.767e-3
-1.626, 1.795e-3
-1.627, 1.819e-3
-1.628, 1.847e-3
-1.629, 1.875e-3
-1.630, 1.902e-3
-1.631, 1.933e-3
-1.632, 1.961e-3
-1.633, 1.992e-3
-1.634, 2.023e-3
-1.635, 2.054e-3
-1.636, 2.084e-3
-1.637, 2.115e-3
-1.638, 2.146e-3
-1.639, 2.177e-3
-1.640, 2.208e-3
-1.641, 2.238e-3
-1.642, 2.269e-3
-1.643, 2.303e-3
-1.644, 2.337e-3
-1.645, 2.371e-3
-1.646, 2.408e-3
-1.647, 2.442e-3
-1.648, 2.479e-3
-1.649, 2.510e-3
-1.650, 2.544e-3
-1.651, 2.575e-3
-1.652, 2.608e-3
-1.653, 2.642e-3
-1.654, 2.679e-3
-1.655, 2.716e-3
-1.656, 2.756e-3
-1.657, 2.797e-3
-1.658, 2.837e-3
-1.659, 2.880e-3
-1.660, 2.920e-3
-1.661, 2.957e-3
-1.662, 2.994e-3
-1.663, 3.031e-3
-1.664, 3.068e-3
-1.665, 3.102e-3
-1.666, 3.142e-3
-1.667, 3.179e-3
-1.668, 3.222e-3
-1.669, 3.265e-3
-1.670, 3.311e-3
-1.671, 3.358e-3
-1.672, 3.401e-3
-1.673, 3.444e-3
-1.674, 3.484e-3
-1.675, 3.524e-3
-1.676, 3.564e-3
-1.677, 3.601e-3
-1.678, 3.644e-3
-1.679, 3.684e-3
-1.680, 3.731e-3
-1.681, 3.777e-3
-1.682, 3.820e-3
-1.683, 3.869e-3
-1.684, 3.919e-3
-1.685, 3.965e-3
-1.686, 4.014e-3
-1.687, 4.061e-3
-1.688, 4.107e-3
-1.689, 4.153e-3
-1.690, 4.199e-3
-1.691, 4.249e-3
-1.692, 4.295e-3
-1.693, 4.341e-3
-1.694, 4.387e-3
-1.695, 4.437e-3
-1.696, 4.486e-3
-1.697, 4.535e-3
-1.698, 4.588e-3
-1.699, 4.640e-3
-1.700, 4.656e-3
-1.699, 4.628e-3
-1.698, 4.600e-3
-1.697, 4.572e-3
-1.696, 4.545e-3
-1.695, 4.514e-3
-1.694, 4.483e-3
-1.693, 4.449e-3
-1.692, 4.418e-3
-1.691, 4.387e-3
-1.690, 4.360e-3
-1.689, 4.332e-3
-1.688, 4.301e-3
-1.687, 4.270e-3
-1.686, 4.239e-3
-1.685, 4.206e-3
-1.684, 4.172e-3
-1.683, 4.138e-3
-1.682, 4.107e-3
-1.681, 4.070e-3
-1.680, 4.039e-3
-1.679, 4.005e-3
-1.678, 3.971e-3
-1.677, 3.943e-3
-1.676, 3.910e-3
-1.675, 3.879e-3
-1.674, 3.845e-3
-1.673, 3.814e-3
-1.672, 3.780e-3
-1.671, 3.746e-3
-1.670, 3.712e-3
-1.669, 3.675e-3
-1.668, 3.644e-3
-1.667, 3.610e-3
-1.666, 3.580e-3
-1.665, 3.546e-3
-1.664, 3.518e-3
-1.663, 3.487e-3
-1.662, 3.453e-3
-1.661, 3.422e-3
-1.660, 3.388e-3
-1.659, 3.355e-3
-1.658, 3.321e-3
-1.657, 3.287e-3
-1.656, 3.253e-3
-1.655, 3.219e-3
-1.654, 3.188e-3
-1.653, 3.157e-3
-1.652, 3.130e-3
-1.651, 3.099e-3
-1.650, 3.071e-3
-1.649, 3.043e-3
-1.648, 3.012e-3
-1.647, 2.982e-3
-1.646, 2.951e-3
-1.645, 2.920e-3
-1.644, 2.886e-3
-1.643, 2.855e-3
-1.642, 2.824e-3
-1.641, 2.793e-3
-1.640, 2.766e-3
-1.639, 2.738e-3
-1.638, 2.707e-3
-1.637, 2.679e-3
-1.636, 2.652e-3
-1.635, 2.621e-3
-1.634, 2.593e-3
-1.633, 2.562e-3
-1.632, 2.531e-3
-1.631, 2.504e-3
-1.630, 2.473e-3
-1.629, 2.445e-3
-1.628, 2.417e-3
-1.627, 2.390e-3
-1.626, 2.365e-3
-1.625, 2.334e-3
-1.624, 2.309e-3
-1.623, 2.279e-3
-1.622, 2.251e-3
-1.621, 2.226e-3
-1.620, 2.195e-3
-1.619, 2.174e-3
-1.618, 2.146e-3
-1.617, 2.121e-3
-1.616, 2.094e-3
-1.615, 2.069e-3
-1.614, 2.044e-3
-1.613, 2.017e-3
-1.612, 1.992e-3
-1.611, 1.967e-3
-1.610, 1.943e-3
-1.609, 1.918e-3
-1.608, 1.893e-3
-1.607, 1.869e-3
-1.606, 1.847e-3
-1.605, 1.822e-3
-1.604, 1.798e-3
-1.603, 1.776e-3
-1.602, 1.751e-3
-1.601, 1.730e-3
-1.600, 1.705e-3
-1.599, 1.680e-3
-1.598, 1.659e-3
-1.597, 1.637e-3
-1.596, 1.616e-3
-1.595, 1.594e-3
-1.594, 1.573e-3
-1.593, 1.551e-3
-1.592, 1.532e-3
-1.591, 1.511e-3
-1.590, 1.486e-3
-1.589, 1.468e-3
-1.588, 1.443e-3
-1.587, 1.425e-3
-1.586, 1.403e-3
-1.585, 1.381e-3
-1.584, 1.363e-3
-1.583, 1.341e-3
-1.582, 1.326e-3
-1.581, 1.304e-3
-1.580, 1.286e-3
-1.579, 1.270e-3
-1.578, 1.249e-3
-1.577, 1.233e-3
-1.576, 1.212e-3
-1.575, 1.193e-3
-1.574, 1.175e-3
-1.573, 1.156e-3
-1.572, 1.141e-3
-1.571, 1.122e-3
-1.570, 1.107e-3
-1.569, 1.088e-3
-1.568, 1.073e-3
-1.567, 1.055e-3
-1.566, 1.039e-3
-1.565, 1.024e-3
-1.564, 1.005e-3
-1.563, 9.898e-4
-1.562, 9.744e-4
-1.561, 9.590e-4
-1.560, 9.436e-4
-1.559, 9.313e-4
-1.558, 9.158e-4
-1.557, 9.004e-4
-1.556, 8.850e-4
-1.555, 8.696e-4
-1.554, 8.573e-4
-1.553, 8.418e-4
-1.552, 8.264e-4
-1.551, 8.110e-4
-1.550, 7.987e-4
-1.549, 7.863e-4
-1.548, 7.709e-4
-1.547, 7.586e-4
-1.546, 7.463e-4
-1.545, 7.339e-4
-1.544, 7.216e-4
-1.543, 7.062e-4
-1.542, 6.969e-4
-1.541, 6.846e-4
-1.540, 6.692e-4
-1.539, 6.569e-4
-1.538, 6.445e-4
-1.537, 6.353e-4
-1.536, 6.229e-4
-1.535, 6.137e-4
-1.534, 6.014e-4
-1.533, 5.890e-4
-1.532, 5.798e-4
-1.531, 5.674e-4
-1.530, 5.551e-4
-1.529, 5.459e-4
-1.528, 5.366e-4
-1.527, 5.243e-4
-1.526, 5.150e-4
-1.525, 5.058e-4
-1.524, 4.965e-4
-1.523, 4.873e-4
-1.522, 4.780e-4
-1.521, 4.688e-4
-1.520, 4.565e-4
-1.519, 4.472e-4
-1.518, 4.380e-4
-1.517, 4.287e-4
-1.516, 4.195e-4
-1.515, 4.102e-4
-1.514, 4.040e-4
-1.513, 3.948e-4
-1.512, 3.886e-4
-1.511, 3.794e-4
-1.510, 3.732e-4
-1.509, 3.640e-4
-1.508, 3.547e-4
-1.507, 3.485e-4
-1.506, 3.393e-4
-1.505, 3.331e-4
-1.504, 3.239e-4
-1.503, 3.177e-4
-1.502, 3.115e-4
-1.501, 3.023e-4
-1.500, 2.961e-4
-1.499, 2.900e-4
-1.498, 2.838e-4
-1.497, 2.746e-4
-1.496, 2.684e-4
-1.495, 2.591e-4
-1.494, 2.561e-4
-1.493, 2.499e-4
-1.492, 2.437e-4
-1.491, 2.376e-4
-1.490, 2.314e-4
-1.489, 2.283e-4
-1.488, 2.191e-4
-1.487, 2.160e-4
-1.486, 2.098e-4
-1.485, 2.006e-4
-1.484, 1.975e-4
-1.483, 1.913e-4
-1.482, 1.851e-4
-1.481, 1.790e-4
-1.480, 1.759e-4
-1.479, 1.697e-4
-1.478, 1.636e-4
-1.477, 1.605e-4
-1.476, 1.574e-4
-1.475, 1.543e-4
-1.474, 1.481e-4
-1.473, 1.420e-4
-1.472, 1.389e-4
-1.471, 1.327e-4
-1.470, 1.296e-4
-1.469, 1.235e-4
-1.468, 1.173e-4
-1.467, 1.173e-4
-1.466, 1.111e-4
-1.465, 1.081e-4
-1.464, 1.050e-4
-1.463, 1.019e-4
-1.462, 9.573e-5
-1.461, 9.265e-5
-1.460, 8.648e-5
-1.459, 8.340e-5
-1.458, 8.032e-5
-1.457, 7.723e-5
-1.456, 7.723e-5
-1.455, 7.107e-5
-1.454, 7.107e-5
-1.453, 6.490e-5
-1.452, 6.182e-5
-1.451, 6.182e-5
-1.450, 5.565e-5
-1.449, 5.257e-5
-1.448, 4.949e-5
-1.447, 4.640e-5
-1.446, 4.332e-5
-1.445, 4.024e-5
-1.444, 3.715e-5
-1.443, 3.407e-5
-1.442, 3.099e-5
-1.441, 2.790e-5
-1.440, 2.790e-5
-1.439, 2.482e-5
-1.438, 2.174e-5
-1.437, 2.174e-5
-1.436, 1.557e-5
-1.435, 1.557e-5
-1.434, 1.249e-5
-1.433, 9.405e-6
-1.432, 9.405e-6
-1.431, 6.322e-6
-1.430, 3.239e-6
-1.429, 1.559e-7
-1.428, 1.559e-7
-1.427, -2.927e-6
-1.426, -6.010e-6
-1.425, -9.093e-6
-1.424, -9.093e-6
-1.423, -1.218e-5
-1.422, -1.218e-5
-1.421, -1.218e-5
-1.420, -1.526e-5
-1.419, -1.526e-5
-1.418, -1.834e-5
-1.417, -1.834e-5
-1.416, -2.143e-5
-1.415, -2.451e-5
-1.414, -2.451e-5
-1.413, -2.759e-5
-1.412, -3.068e-5
-1.411, -3.068e-5
-1.410, -3.068e-5
-1.409, -3.376e-5
-1.408, -3.376e-5
-1.407, -3.684e-5
-1.406, -3.684e-5
-1.405, -3.684e-5
-1.404, -3.992e-5
-1.403, -3.992e-5
-1.402, -4.301e-5
-1.401, -4.301e-5
-1.400, -4.301e-5
-1.399, -4.609e-5
-1.398, -4.609e-5
-1.397, -4.609e-5
-1.396, -4.917e-5
-1.395, -4.917e-5
-1.394, -4.917e-5
-1.393, -4.917e-5
-1.392, -5.226e-5
-1.391, -5.226e-5
-1.390, -5.534e-5
-1.389, -5.534e-5
-1.388, -5.534e-5
-1.387, -5.534e-5
-1.386, -5.534e-5
-1.385, -5.842e-5
-1.384, -5.534e-5
-1.383, -5.842e-5
-1.382, -5.842e-5
-1.381, -5.842e-5
-1.380, -6.151e-5
-1.379, -6.151e-5
-1.378, -6.151e-5
-1.377, -6.459e-5
-1.376, -6.459e-5
-1.375, -6.767e-5
-1.374, -6.459e-5
-1.373, -6.459e-5
-1.372, -6.459e-5
-1.371, -6.459e-5
-1.370, -6.767e-5
-1.369, -6.767e-5
-1.368, -6.767e-5
-1.367, -6.767e-5
-1.366, -6.767e-5
-1.365, -7.076e-5
-1.364, -7.076e-5
-1.363, -7.076e-5
-1.362, -7.076e-5
-1.361, -7.076e-5
-1.360, -7.076e-5
-1.359, -7.076e-5
-1.358, -7.076e-5
-1.357, -7.076e-5
-1.356, -7.384e-5
-1.355, -7.384e-5
-1.354, -7.384e-5
-1.353, -7.384e-5
-1.352, -7.384e-5
-1.351, -7.384e-5
-1.350, -7.384e-5
-1.349, -7.076e-5
-1.348, -7.384e-5
-1.347, -7.384e-5
-1.346, -7.384e-5
-1.345, -7.692e-5
-1.344, -7.384e-5
-1.343, -7.384e-5
-1.342, -7.692e-5
-1.341, -7.384e-5
-1.340, -7.692e-5
-1.339, -7.384e-5
-1.338, -7.692e-5
-1.337, -7.384e-5
-1.336, -7.384e-5
-1.335, -7.384e-5
-1.334, -7.384e-5
-1.333, -7.692e-5
-1.332, -7.384e-5
-1.331, -7.692e-5
-1.330, -7.384e-5
-1.329, -7.692e-5
-1.328, -7.692e-5
-1.327, -7.384e-5
-1.326, -7.692e-5
-1.325, -7.692e-5
-1.324, -7.692e-5
-1.323, -7.692e-5
-1.322, -7.384e-5
-1.321, -7.692e-5
-1.320, -7.692e-5
-1.319, -7.692e-5
-1.318, -7.692e-5
-1.317, -7.692e-5
-1.316, -7.384e-5
-1.315, -7.692e-5
-1.314, -7.384e-5
-1.313, -7.384e-5
-1.312, -7.384e-5
-1.311, -7.384e-5
-1.310, -7.692e-5
-1.309, -7.384e-5
-1.308, -7.692e-5
-1.307, -7.692e-5
-1.306, -7.692e-5
-1.305, -7.692e-5
-1.304, -7.384e-5
-1.303, -7.692e-5
-1.302, -7.384e-5
-1.301, -7.384e-5
-1.300, -7.384e-5
-1.299, -7.384e-5
-1.298, -7.384e-5
-1.297, -7.384e-5
-1.296, -7.384e-5
-1.295, -7.384e-5
-1.294, -7.384e-5
-1.293, -7.384e-5
-1.292, -7.384e-5
-1.291, -7.384e-5
-1.290, -7.384e-5
-1.289, -7.384e-5
-1.288, -7.384e-5
-1.287, -7.384e-5
-1.286, -7.384e-5
-1.285, -7.384e-5
-1.284, -7.384e-5
-1.283, -7.076e-5
-1.282, -7.076e-5
-1.281, -7.076e-5
-1.280, -7.384e-5
-1.279, -7.076e-5
-1.278, -7.076e-5
-1.277, -7.076e-5
-1.276, -7.076e-5
-1.275, -7.076e-5
-1.274, -7.076e-5
-1.273, -7.384e-5
-1.272, -7.076e-5
-1.271, -7.076e-5
-1.270, -7.076e-5
-1.269, -7.076e-5
-1.268, -7.076e-5
-1.267, -7.076e-5
-1.266, -7.076e-5
-1.265, -6.767e-5
-1.264, -6.767e-5
-1.263, -7.076e-5
-1.262, -7.076e-5
-1.261, -7.076e-5
-1.260, -7.076e-5
-1.259, -7.076e-5
-1.258, -6.767e-5
-1.257, -6.767e-5
-1.256, -6.767e-5
-1.255, -6.767e-5
-1.254, -6.767e-5
-1.253, -6.767e-5
-1.252, -6.767e-5
-1.251, -6.767e-5
-1.250, -6.767e-5
-1.249, -7.076e-5
-1.248, -6.767e-5
-1.247, -6.767e-5
-1.246, -6.767e-5
-1.245, -6.767e-5
-1.244, -6.459e-5
-1.243, -6.767e-5
-1.242, -6.459e-5
-1.241, -6.767e-5
-1.240, -6.767e-5
-1.239, -6.767e-5
-1.238, -6.767e-5
-1.237, -6.767e-5
-1.236, -6.767e-5
-1.235, -6.767e-5
-1.234, -6.459e-5
-1.233, -6.767e-5
-1.232, -6.459e-5
-1.231, -6.459e-5
-1.230, -6.459e-5
-1.229, -6.459e-5
-1.228, -6.459e-5
-1.227, -6.459e-5
-1.226, -6.459e-5
-1.225, -6.459e-5
-1.224, -6.459e-5
-1.223, -6.767e-5
-1.222, -6.767e-5
-1.221, -6.459e-5
-1.220, -6.459e-5
-1.219, -6.459e-5
-1.218, -6.459e-5
-1.217, -6.459e-5
-1.216, -6.767e-5
-1.215, -6.459e-5
-1.214, -6.459e-5
-1.213, -6.459e-5
-1.212, -6.459e-5
-1.211, -6.459e-5
-1.210, -6.459e-5
-1.209, -6.151e-5
-1.208, -6.151e-5
-1.207, -6.151e-5
-1.206, -6.151e-5
-1.205, -6.459e-5
-1.204, -6.459e-5
-1.203, -6.459e-5
-1.202, -6.459e-5
-1.201, -6.459e-5
-1.200, -6.459e-5
-1.199, -6.151e-5
-1.198, -6.459e-5
-1.197, -6.151e-5
-1.196, -6.151e-5
-1.195, -6.151e-5
-1.194, -6.151e-5
-1.193, -6.151e-5
-1.192, -6.151e-5
-1.191, -6.459e-5
-1.190, -6.151e-5
-1.189, -6.151e-5
-1.188, -6.459e-5
-1.187, -6.151e-5
-1.186, -6.151e-5
-1.185, -6.151e-5
-1.184, -6.151e-5
-1.183, -6.151e-5
-1.182, -6.151e-5
-1.181, -6.151e-5
-1.180, -6.151e-5
-1.179, -6.151e-5
-1.178, -6.151e-5
-1.177, -6.151e-5
-1.176, -6.151e-5
-1.175, -6.151e-5
-1.174, -5.842e-5
-1.173, -5.842e-5
-1.172, -6.151e-5
-1.171, -6.151e-5
-1.170, -6.151e-5
-1.169, -6.151e-5
-1.168, -6.151e-5
-1.167, -6.151e-5
-1.166, -6.151e-5
-1.165, -6.151e-5
-1.164, -5.842e-5
-1.163, -6.151e-5
-1.162, -5.842e-5
-1.161, -6.151e-5
-1.160, -5.842e-5
-1.159, -5.842e-5
-1.158, -6.151e-5
-1.157, -5.842e-5
-1.156, -6.151e-5
-1.155, -6.151e-5
-1.154, -6.151e-5
-1.153, -6.151e-5
-1.152, -6.151e-5
-1.151, -6.151e-5
-1.150, -5.842e-5
-1.149, -6.151e-5
-1.148, -5.842e-5
-1.147, -5.842e-5
-1.146, -6.151e-5
-1.145, -6.151e-5
-1.144, -6.151e-5
-1.143, -5.842e-5
-1.142, -5.842e-5
-1.141, -5.842e-5
-1.140, -6.151e-5
-1.139, -5.842e-5
-1.138, -5.842e-5
-1.137, -5.842e-5
-1.136, -5.842e-5
-1.135, -6.151e-5
-1.134, -5.842e-5
-1.133, -6.151e-5
-1.132, -6.151e-5
-1.131, -6.151e-5
-1.130, -6.151e-5
-1.129, -5.842e-5
-1.128, -6.151e-5
-1.127, -5.842e-5
-1.126, -6.151e-5
-1.125, -5.842e-5
-1.124, -5.842e-5
-1.123, -5.842e-5
-1.122, -5.842e-5
-1.121, -6.151e-5
-1.120, -6.151e-5
-1.119, -6.151e-5
-1.118, -6.151e-5
-1.117, -6.151e-5
-1.116, -6.151e-5
-1.115, -6.151e-5
-1.114, -6.151e-5
-1.113, -6.151e-5
-1.112, -6.151e-5
-1.111, -6.151e-5
-1.110, -6.151e-5
-1.109, -6.151e-5
-1.108, -6.151e-5
-1.107, -6.151e-5
-1.106, -5.842e-5
-1.105, -6.151e-5
-1.104, -5.842e-5
-1.103, -5.842e-5
-1.102, -5.842e-5
-1.101, -5.842e-5
-1.100, -6.151e-5
-1.099, -6.151e-5
-1.098, -6.151e-5
-1.097, -6.151e-5
-1.096, -6.151e-5
-1.095, -6.151e-5
-1.094, -6.151e-5
-1.093, -6.151e-5
-1.092, -5.842e-5
-1.091, -5.842e-5
-1.090, -5.842e-5
-1.089, -5.842e-5
-1.088, -6.151e-5
-1.087, -6.151e-5
-1.086, -6.151e-5
-1.085, -6.151e-5
-1.084, -6.151e-5
-1.083, -6.151e-5
-1.082, -6.151e-5
-1.081, -6.151e-5
-1.080, -6.151e-5
-1.079, -6.151e-5
-1.078, -6.151e-5
-1.077, -6.151e-5
-1.076, -6.151e-5
-1.075, -6.459e-5
-1.074, -6.151e-5
-1.073, -6.151e-5
-1.072, -6.151e-5
-1.071, -6.151e-5
-1.070, -6.151e-5
-1.069, -6.151e-5
-1.068, -6.151e-5
-1.067, -6.151e-5
-1.066, -6.151e-5
-1.065, -6.459e-5
-1.064, -6.151e-5
-1.063, -6.459e-5
-1.062, -6.459e-5
-1.061, -6.459e-5
-1.060, -6.459e-5
-1.059, -6.151e-5
-1.058, -6.151e-5
-1.057, -6.459e-5
-1.056, -6.459e-5
-1.055, -6.459e-5
-1.054, -6.151e-5
-1.053, -6.459e-5
-1.052, -6.459e-5
-1.051, -6.459e-5
-1.050, -6.459e-5
-1.049, -6.459e-5
-1.048, -6.767e-5
-1.047, -6.459e-5
-1.046, -6.767e-5
-1.045, -6.459e-5
-1.044, -6.767e-5
-1.043, -6.459e-5
-1.042, -6.459e-5
-1.041, -6.767e-5
-1.040, -6.459e-5
-1.039, -6.767e-5
-1.038, -6.459e-5
-1.037, -6.767e-5
-1.036, -6.767e-5
-1.035, -6.767e-5
-1.034, -6.459e-5
-1.033, -6.767e-5
-1.032, -6.767e-5
-1.031, -6.767e-5
-1.030, -7.076e-5
-1.029, -6.767e-5
-1.028, -7.076e-5
-1.027, -7.076e-5
-1.026, -6.767e-5
-1.025, -7.076e-5
-1.024, -6.767e-5
-1.023, -7.076e-5
-1.022, -6.767e-5
-1.021, -6.767e-5
-1.020, -6.767e-5
-1.019, -6.767e-5
-1.018, -7.076e-5
-1.017, -7.076e-5
-1.016, -7.076e-5
-1.015, -7.076e-5
-1.014, -7.076e-5
-1.013, -7.076e-5
-1.012, -7.076e-5
-1.011, -7.384e-5
-1.010, -7.076e-5
-1.009, -7.384e-5
-1.008, -7.076e-5
-1.007, -7.076e-5
-1.006, -7.384e-5
-1.005, -7.384e-5
-1.004, -7.384e-5
-1.003, -7.384e-5
-1.002, -7.384e-5
-1.001, -7.384e-5
