Potential V vs RHE, Current mA cm-2
0.05339999999999995,-0.10068500321139465
0.05239999999999995,-0.10345783735913014
0.051399999999999946,-0.10460375351202081
0.050399999999999945,-0.10536769761394793
0.049399999999999944,-0.10606090615088182
0.04839999999999994,-0.10662679067082782
0.04739999999999994,-0.10727755786876574
0.04639999999999994,-0.10784344238871174
0.04539999999999994,-0.10833859134366451
0.04439999999999994,-0.10887618163761323
0.04339999999999994,-0.10935718347956734
0.04239999999999994,-0.10986647954751874
0.04139999999999994,-0.11034748138947285
0.040399999999999936,-0.11078604189243102
0.039399999999999935,-0.11126704373438513
0.038399999999999934,-0.1117056042373433
0.03739999999999993,-0.11214416474030146
0.03639999999999993,-0.11262516658225558
0.03539999999999993,-0.11302128574621777
0.03439999999999993,-0.1134456991361773
0.03339999999999993,-0.1138418183001395
0.03239999999999993,-0.11426623169009903
0.03139999999999993,-0.11470479219305717
0.030399999999999927,-0.11505847001802343
0.029399999999999926,-0.11548288340798295
0.028399999999999925,-0.11589314968494381
0.027399999999999924,-0.11631756307490332
0.026399999999999924,-0.11675612357786147
0.025399999999999923,-0.11713809562882503
0.024399999999999922,-0.11752006767978859
0.02339999999999992,-0.11788789261775351
0.02239999999999992,-0.11828401178171571
0.02139999999999992,-0.11868013094567793
0.020399999999999918,-0.11904795588364282
0.019399999999999917,-0.11941578082160774
0.018399999999999916,-0.11978360575957266
0.017399999999999916,-0.12016557781053622
0.016399999999999915,-0.12054754986149978
0.015399999999999914,-0.12091537479946468
0.014399999999999913,-0.12124075839843364
0.013399999999999912,-0.12159443622339991
0.012399999999999911,-0.12197640827436346
0.01139999999999991,-0.12231593898633109
0.01039999999999991,-0.12266961681129733
0.009399999999999908,-0.12302329463626359
0.008399999999999908,-0.12336282534823118
0.007399999999999907,-0.12377309162519207
0.006399999999999906,-0.12409847522416102
0.005399999999999905,-0.12446630016212593
0.004399999999999904,-0.12480583087409354
0.003399999999999903,-0.12513121447306247
0.002399999999999902,-0.1254990394110274
0.0013999999999999013,-0.12582442300999636
0.00039999999999990044,-0.12617810083496261
-0.0006000000000001005,-0.12651763154693024
-0.0016000000000001013,-0.12687130937189647
-0.0026000000000001022,-0.1272108400838641
-0.003600000000000103,-0.12756451790883036
-0.004600000000000104,-0.127904048620798
-0.005600000000000105,-0.12825772644576422
-0.006600000000000106,-0.1285831100447332
-0.007600000000000107,-0.1288943465307035
-0.008600000000000108,-0.12924802435566976
-0.009600000000000108,-0.12954511372864141
-0.01060000000000011,-0.12989879155360767
-0.01160000000000011,-0.13023832226557527
-0.012600000000000111,-0.13063444142953748
-0.013600000000000112,-0.13094567791550782
-0.014600000000000113,-0.1312569144014781
-0.015600000000000114,-0.13158229800044707
-0.016600000000000115,-0.13189353448641736
-0.017600000000000116,-0.13223306519838499
-0.018600000000000116,-0.13258674302335122
-0.019600000000000117,-0.13289797950932153
-0.020600000000000118,-0.1331667746562959
-0.02160000000000012,-0.1335063053682635
-0.02260000000000012,-0.13385998319322978
-0.02360000000000012,-0.13417121967920007
-0.024600000000000122,-0.13449660327816904
-0.025600000000000123,-0.13480783976413932
-0.026600000000000124,-0.13514737047610695
-0.027600000000000124,-0.1355010483010732
-0.028600000000000125,-0.13578399056104623
-0.029600000000000126,-0.13610937416001517
-0.030600000000000127,-0.13640646353298683
-0.03160000000000013,-0.13668940579295985
-0.03260000000000013,-0.13705723073092474
-0.03360000000000013,-0.13734017299089774
-0.03460000000000002,-0.13763726236386942
-0.03560000000000002,-0.13801923441483296
-0.03660000000000002,-0.13831632378780462
-0.03760000000000002,-0.1386700016127709
-0.03860000000000002,-0.1390095323247385
-0.039600000000000024,-0.13927832747171287
-0.040600000000000025,-0.1396037110706818
-0.041600000000000026,-0.1399008004436535
-0.04260000000000003,-0.14025447826861975
-0.04360000000000003,-0.1405798618675887
-0.04460000000000003,-0.14084865701456303
-0.04560000000000003,-0.14117404061353203
-0.04660000000000003,-0.14147112998650369
-0.04760000000000003,-0.14175407224647668
-0.04860000000000003,-0.1421784856364362
-0.04960000000000003,-0.1424614278964092
-0.050600000000000034,-0.1427443701563822
-0.051600000000000035,-0.14302731241635522
-0.052600000000000036,-0.1433102546763282
-0.053600000000000037,-0.1435931969363012
-0.05460000000000004,-0.14387613919627423
-0.05560000000000004,-0.14415908145624726
-0.05660000000000004,-0.14458349484620675
-0.05760000000000004,-0.14486643710617977
-0.05860000000000004,-0.14514937936615277
-0.05960000000000004,-0.14557379275611226
-0.06060000000000004,-0.14571526388609876
-0.061600000000000044,-0.14613967727605828
-0.06260000000000004,-0.14642261953603128
-0.06360000000000005,-0.1467055617960043
-0.06460000000000005,-0.14712997518596382
-0.06560000000000005,-0.14741291744593682
-0.06660000000000005,-0.14769585970590982
-0.06760000000000005,-0.14797880196588284
-0.06860000000000005,-0.14826174422585583
-0.06960000000000005,-0.14868615761581536
-0.07060000000000005,-0.14896909987578838
-0.07160000000000005,-0.14925204213576138
-0.07260000000000005,-0.14953498439573437
-0.07360000000000005,-0.1499593977856939
-0.07460000000000006,-0.1502423400456669
-0.07560000000000006,-0.15052528230563988
-0.07660000000000006,-0.1508082245656129
-0.07760000000000006,-0.1512326379555724
-0.07860000000000006,-0.15151558021554543
-0.07960000000000006,-0.15179852247551845
-0.08060000000000006,-0.15222293586547794
-0.08160000000000006,-0.15250587812545094
-0.08260000000000006,-0.15278882038542396
-0.08360000000000006,-0.15321323377538346
-0.08460000000000006,-0.15349617603535648
-0.08560000000000006,-0.15377911829532948
-0.08660000000000007,-0.1540620605553025
-0.08760000000000007,-0.15448647394526202
-0.08860000000000007,-0.15476941620523502
-0.08960000000000007,-0.155052358465208
-0.09060000000000007,-0.155335300725181
-0.09160000000000007,-0.15575971411514053
-0.09260000000000007,-0.15604265637511353
-0.09360000000000007,-0.15632559863508652
-0.09460000000000007,-0.15660854089505957
-0.09560000000000007,-0.15703295428501907
-0.09660000000000007,-0.15731589654499206
-0.09760000000000008,-0.15759883880496509
-0.09860000000000008,-0.15802325219492458
-0.09960000000000008,-0.1583061944548976
-0.10060000000000008,-0.1587306078448571
-0.10160000000000008,-0.15901355010483012
-0.10260000000000008,-0.15943796349478964
-0.10360000000000008,-0.15972090575476264
-0.10460000000000008,-0.16000384801473563
-0.10560000000000008,-0.16042826140469515
-0.10660000000000008,-0.16071120366466815
-0.10760000000000008,-0.16113561705462764
-0.10860000000000009,-0.16141855931460067
-0.10960000000000009,-0.1617015015745737
-0.11060000000000009,-0.16212591496453319
-0.11160000000000009,-0.1624088572245062
-0.11260000000000009,-0.1628332706144657
-0.11360000000000009,-0.16311621287443873
-0.11460000000000009,-0.16354062626439822
-0.11560000000000009,-0.16382356852437122
-0.11660000000000009,-0.16410651078434427
-0.1176000000000001,-0.16453092417430376
-0.1186000000000001,-0.16481386643427676
-0.1196000000000001,-0.16523827982423628
-0.1206000000000001,-0.1656626932141958
-0.1216000000000001,-0.1659456354741688
-0.1226000000000001,-0.16637004886412832
-0.1236000000000001,-0.1666529911241013
-0.1246000000000001,-0.16707740451406086
-0.1256000000000001,-0.16736034677403386
-0.1266000000000001,-0.16778476016399335
-0.1276000000000001,-0.16820917355395287
-0.1286000000000001,-0.16849211581392587
-0.1296000000000001,-0.1689165292038854
-0.1306000000000001,-0.16919947146385841
-0.1316000000000001,-0.1696238848538179
-0.1326000000000001,-0.16990682711379093
-0.1336000000000001,-0.17033124050375043
-0.1346000000000001,-0.17061418276372342
-0.1356000000000001,-0.17089712502369644
-0.1366000000000001,-0.17118006728366944
-0.1376000000000001,-0.17160448067362896
-0.1386000000000001,-0.17188742293360199
-0.1396000000000001,-0.17231183632356148
-0.1406000000000001,-0.172736249713521
-0.14160000000000011,-0.173019191973494
-0.14260000000000012,-0.1734436053634535
-0.14360000000000012,-0.173868018753413
-0.14460000000000012,-0.17429243214337253
-0.14560000000000012,-0.17457537440334553
-0.14660000000000012,-0.17499978779330505
-0.14760000000000012,-0.17542420118326454
-0.14860000000000012,-0.17584861457322407
-0.14960000000000012,-0.17613155683319706
-0.15060000000000012,-0.17655597022315658
-0.15160000000000012,-0.1769803836131161
-0.15260000000000012,-0.1774047970030756
-0.15360000000000013,-0.17782921039303512
-0.15460000000000013,-0.17811215265300812
-0.15560000000000013,-0.17853656604296764
-0.15660000000000013,-0.17896097943292713
-0.15760000000000013,-0.17938539282288665
-0.15860000000000013,-0.17966833508285968
-0.15960000000000002,-0.18009274847281917
-0.16060000000000002,-0.1805171618627787
-0.16160000000000002,-0.18094157525273818
-0.16260000000000002,-0.18136598864269768
-0.16360000000000002,-0.18179040203265723
-0.16460000000000002,-0.18207334429263022
-0.16560000000000002,-0.18263922881257624
-0.16660000000000003,-0.18306364220253574
-0.16760000000000003,-0.18348805559249526
-0.16860000000000003,-0.18391246898245475
-0.16960000000000003,-0.18419541124242778
-0.17060000000000003,-0.1846198246323873
-0.17160000000000003,-0.1850442380223468
-0.17260000000000003,-0.1854686514123063
-0.17360000000000003,-0.1858930648022658
-0.17460000000000003,-0.1861760070622388
-0.17560000000000003,-0.18660042045219835
-0.17660000000000003,-0.18702483384215784
-0.17760000000000004,-0.18759071836210386
-0.17860000000000004,-0.18787366062207686
-0.17960000000000004,-0.18829807401203638
-0.18060000000000004,-0.18872248740199588
-0.18160000000000004,-0.18914690079195542
-0.18260000000000004,-0.18957131418191492
-0.18360000000000004,-0.1899957275718744
-0.18460000000000004,-0.19042014096183393
-0.18560000000000004,-0.19084455435179343
-0.18660000000000004,-0.19126896774175295
-0.18760000000000004,-0.19169338113171247
-0.18860000000000005,-0.192117794521672
-0.18960000000000005,-0.19254220791163149
-0.19060000000000005,-0.192966621301591
-0.19160000000000005,-0.1933910346915505
-0.19260000000000005,-0.19381544808151
-0.19360000000000005,-0.19423986147146954
-0.19460000000000005,-0.19466427486142904
-0.19560000000000005,-0.19508868825138856
-0.19660000000000005,-0.19551310164134805
-0.19760000000000005,-0.19593751503130757
-0.19860000000000005,-0.19636192842126707
-0.19960000000000006,-0.19678634181122662
-0.20060000000000006,-0.1972107552011861
-0.20160000000000006,-0.1976351685911456
-0.20260000000000006,-0.19820105311109162
-0.20360000000000006,-0.19862546650105112
-0.20460000000000006,-0.19890840876102414
-0.20560000000000006,-0.19947429328097016
-0.20660000000000006,-0.19975723554094318
-0.20760000000000006,-0.20032312006088918
-0.20860000000000006,-0.2007475334508487
-0.20960000000000006,-0.2011719468408082
-0.21060000000000006,-0.20159636023076774
-0.21160000000000007,-0.20202077362072723
-0.21260000000000007,-0.20244518701068673
-0.21360000000000007,-0.20301107153063278
-0.21460000000000007,-0.20343548492059227
-0.21560000000000007,-0.2038598983105518
-0.21660000000000007,-0.20428431170051128
-0.21760000000000007,-0.20485019622045733
-0.21860000000000007,-0.20527460961041682
-0.21960000000000007,-0.20569902300037635
-0.22060000000000007,-0.20612343639033584
-0.22160000000000007,-0.2066893209102819
-0.22260000000000008,-0.20711373430024138
-0.22360000000000008,-0.2075381476902009
-0.22460000000000008,-0.2081040322101469
-0.22560000000000008,-0.20852844560010642
-0.22660000000000008,-0.2089528589900659
-0.22760000000000008,-0.20951874351001196
-0.22860000000000008,-0.20994315689997145
-0.22960000000000008,-0.21050904141991747
-0.23060000000000008,-0.21107492593986346
-0.23160000000000008,-0.21149933932982298
-0.23260000000000008,-0.212065223849769
-0.23360000000000009,-0.21248963723972852
-0.2346000000000001,-0.21291405062968802
-0.2356000000000001,-0.21347993514963404
-0.2366000000000001,-0.21404581966958006
-0.2376000000000001,-0.21447023305953958
-0.2386000000000001,-0.21503611757948557
-0.2396000000000001,-0.2154605309694451
-0.2406000000000001,-0.2160264154893911
-0.2416000000000001,-0.2164508288793506
-0.2426000000000001,-0.21701671339929662
-0.2436000000000001,-0.21758259791924262
-0.2446000000000001,-0.21800701130920216
-0.2456000000000001,-0.21857289582914816
-0.2466000000000001,-0.2189973092191077
-0.2476000000000001,-0.2195631937390537
-0.2486000000000001,-0.2199876071290132
-0.2496000000000001,-0.22055349164895924
-0.2506000000000001,-0.22111937616890526
-0.2516000000000001,-0.22154378955886472
-0.2526000000000001,-0.22210967407881074
-0.2536000000000001,-0.22267555859875673
-0.2546000000000001,-0.22309997198871628
-0.2556000000000001,-0.22366585650866228
-0.2566000000000001,-0.2242317410286083
-0.2576000000000001,-0.22479762554855431
-0.2586000000000001,-0.22536351006850036
-0.2596000000000001,-0.22592939458844638
-0.2606000000000001,-0.22635380797840585
-0.2616000000000001,-0.22691969249835187
-0.2626000000000001,-0.2276270481482844
-0.2636000000000001,-0.22805146153824393
-0.2646000000000001,-0.22875881718817642
-0.2656000000000001,-0.22918323057813594
-0.2666000000000001,-0.22974911509808196
-0.2676000000000001,-0.23045647074801448
-0.2686000000000001,-0.23088088413797397
-0.2696000000000001,-0.23158823978790652
-0.2706000000000001,-0.2321541243078525
-0.2716000000000001,-0.23272000882779853
-0.2726000000000001,-0.23328589334774452
-0.2736000000000001,-0.23385177786769054
-0.2746000000000001,-0.23441766238763656
-0.2756000000000001,-0.23498354690758255
-0.2766000000000001,-0.23554943142752863
-0.2776000000000001,-0.23625678707746112
-0.2786000000000001,-0.2368226715974071
-0.2796000000000001,-0.23738855611735316
-0.2806000000000001,-0.23795444063729917
-0.28160000000000013,-0.2386617962872317
-0.28260000000000013,-0.2392276808071777
-0.28360000000000013,-0.2397935653271237
-0.2846,-0.24050092097705625
-0.2856,-0.24106680549700227
-0.2866,-0.24177416114693479
-0.2876,-0.2423400456668808
-0.2886,-0.2429059301868268
-0.2896,-0.24361328583675934
-0.2906,-0.24417917035670533
-0.2916,-0.24488652600663782
-0.2926,-0.24559388165657034
-0.2936,-0.24630123730650288
-0.29460000000000003,-0.24700859295643537
-0.29560000000000003,-0.24757447747638137
-0.29660000000000003,-0.2482818331263139
-0.29760000000000003,-0.24898918877624646
-0.29860000000000003,-0.24969654442617895
-0.29960000000000003,-0.25040390007611146
-0.30060000000000003,-0.251111255726044
-0.30160000000000003,-0.2518186113759765
-0.30260000000000004,-0.252525967025909
-0.30360000000000004,-0.2532333226758416
-0.30460000000000004,-0.25394067832577405
-0.30560000000000004,-0.25464803397570657
-0.30660000000000004,-0.25535538962563914
-0.30760000000000004,-0.2562042164055581
-0.30860000000000004,-0.25691157205549064
-0.30960000000000004,-0.25761892770542316
-0.31060000000000004,-0.2583262833553557
-0.31160000000000004,-0.2591751101352747
-0.31260000000000004,-0.26002393691519377
-0.31360000000000005,-0.2607312925651262
-0.31460000000000005,-0.2614386482150588
-0.31560000000000005,-0.2622874749949778
-0.31660000000000005,-0.2631363017748969
-0.31760000000000005,-0.2639851285548159
-0.31860000000000005,-0.2648339553347349
-0.31960000000000005,-0.26582425324464043
-0.32060000000000005,-0.2666730800245595
-0.32160000000000005,-0.26752190680447846
-0.32260000000000005,-0.26837073358439745
-0.32360000000000005,-0.269361031494303
-0.32460000000000006,-0.27035132940420853
-0.32560000000000006,-0.27120015618412757
-0.32660000000000006,-0.2723319252240196
-0.32760000000000006,-0.2731807520039386
-0.32860000000000006,-0.2741710499138441
-0.32960000000000006,-0.27501987669376315
-0.33060000000000006,-0.27601017460366867
-0.33160000000000006,-0.2770004725135742
-0.33260000000000006,-0.2781322415534663
-0.33360000000000006,-0.27912253946337173
-0.33460000000000006,-0.2801128373732773
-0.33560000000000006,-0.2811031352831828
-0.33660000000000007,-0.28223490432307485
-0.33760000000000007,-0.28322520223298037
-0.33860000000000007,-0.2843569712728724
-0.33960000000000007,-0.2854887403127644
-0.34060000000000007,-0.28647903822266996
-0.34160000000000007,-0.28775227839254847
-0.34260000000000007,-0.2888840474324405
-0.34360000000000007,-0.29001581647233254
-0.3446000000000001,-0.2911475855122245
-0.3456000000000001,-0.29227935455211657
-0.3466000000000001,-0.29355259472199513
-0.34759999999999996,-0.29482583489187364
-0.3486000000000001,-0.2958161328017792
-0.34959999999999997,-0.29708937297165766
-0.3506000000000001,-0.2983626131415362
-0.35159999999999997,-0.2996358533114148
-0.3526000000000001,-0.3009090934812933
-0.35359999999999997,-0.3021823336511718
-0.3546000000000001,-0.3034555738210504
-0.35559999999999997,-0.30487028512091535
-0.3566000000000001,-0.3061435252907939
-0.3576,-0.30755823659065895
-0.3586000000000001,-0.30897294789052404
-0.3596,-0.310387659190389
-0.3606000000000001,-0.3116608993602676
-0.3616,-0.31321708179011915
-0.3626000000000001,-0.3146317930899841
-0.3636,-0.31604650438984916
-0.3646000000000001,-0.3176026868197007
-0.3656,-0.31901739811956575
-0.3666000000000001,-0.3205735805494173
-0.3676,-0.3221297629792688
-0.3686000000000001,-0.3236859454091204
-0.3696,-0.3252421278389719
-0.3706000000000001,-0.32679831026882344
-0.3716,-0.328354492698675
-0.3726000000000001,-0.3300521462585131
-0.3736,-0.3316083286883646
-0.3746000000000001,-0.3333059822482026
-0.3756,-0.3348621646780542
-0.3766000000000001,-0.33655981823789227
-0.3776,-0.33839894292771683
-0.3786000000000001,-0.34009659648755486
-0.3796,-0.3419357211773794
-0.3806000000000001,-0.34363337473721745
-0.3816,-0.3453310282970554
-0.3826000000000001,-0.34717015298688
-0.3836,-0.34900927767670453
-0.3846000000000001,-0.3508484023665291
-0.3856,-0.35268752705635364
-0.3866000000000001,-0.3545266517461782
-0.3876,-0.3565072475659892
-0.3886000000000001,-0.3583463722558138
-0.3896,-0.36018549694563834
-0.3906000000000001,-0.36216609276544937
-0.3916,-0.36414668858526045
-0.3926000000000001,-0.3661272844050715
-0.3936,-0.36796640909489603
-0.3946000000000001,-0.36994700491470706
-0.3956,-0.37192760073451814
-0.3966000000000001,-0.3740496676843157
-0.3976,-0.37617173463411324
-0.3986000000000001,-0.37815233045392427
-0.3996,-0.3802743974037219
-0.4006000000000001,-0.3823964643535194
-0.4016,-0.384518531303317
-0.4026000000000001,-0.38664059825311453
-0.4036,-0.3887626652029121
-0.4046000000000001,-0.3910262032826961
-0.4056,-0.39314827023249366
-0.40660000000000013,-0.3952703371822912
-0.4076,-0.39739240413208876
-0.40860000000000013,-0.39965594221187284
-0.4096,-0.4019194802916569
-0.41060000000000013,-0.40432448950142746
-0.4116,-0.40658802758121154
-0.41260000000000013,-0.40899303679098215
-0.4136,-0.4112565748707662
-0.41460000000000014,-0.41366158408053677
-0.4156,-0.4160665932903073
-0.41660000000000014,-0.41847160250007787
-0.4176,-0.42101808283983494
-0.41860000000000014,-0.4234230920496055
-0.41960000000000003,-0.42582810125937604
-0.42060000000000014,-0.42823311046914664
-0.42160000000000003,-0.4307795908089037
-0.42260000000000014,-0.4334675422786472
-0.42360000000000003,-0.43601402261840433
-0.42460000000000014,-0.4385605029581614
-0.42560000000000003,-0.4411069832979185
-0.42660000000000015,-0.4436534636376755
-0.42760000000000004,-0.4463414151074191
-0.42860000000000015,-0.44888789544717617
-0.42960000000000004,-0.4515758469169197
-0.43060000000000015,-0.4542637983866633
-0.43160000000000004,-0.4570932209863934
-0.43260000000000015,-0.4599226435861234
-0.43360000000000004,-0.46246912392588047
-0.43460000000000015,-0.46529854652561053
-0.43560000000000004,-0.46798649799535413
-0.43660000000000015,-0.4708159205950842
-0.43760000000000004,-0.4736453431948142
-0.43860000000000016,-0.4764747657945444
-0.43960000000000005,-0.47916271726428794
