Potential V vs RHE, Current mA cm-2
0.4132999999999999,0.020937727238002544
0.4122999999999999,0.014288584128636872
0.4112999999999999,0.011317690398920293
0.4102999999999999,0.00881931024335864
0.4092999999999999,0.006592554657371071
0.4082999999999999,0.004944415993028303
0.4072999999999999,0.0037249348525446413
0.4062999999999999,0.002521015536359495
0.4052999999999999,0.0010191580204227725
0.4042999999999999,-0.00041564217990034774
0.4032999999999999,-0.0012363162049520557
0.4022999999999999,-0.001809415752527382
0.4012999999999999,-0.002550724473656661
0.4002999999999999,-0.003765961480240728
0.3992999999999999,-0.005006663290222365
0.3982999999999999,-0.0056984571158563676
0.3972999999999999,-0.0060026200453273506
0.3962999999999999,-0.006472304196882543
0.3952999999999999,-0.007314057420302239
0.3942999999999999,-0.008208154961816943
0.39329999999999987,-0.008691986226370785
0.39229999999999987,-0.008775454193062823
0.39129999999999987,-0.00894380483774676
0.39029999999999987,-0.009570521943586973
0.38929999999999987,-0.010306171819516792
0.38829999999999987,-0.010741902899875222
0.38729999999999987,-0.010840932690865775
0.38629999999999987,-0.011132363218637975
0.38529999999999986,-0.011841133579870357
0.38429999999999986,-0.012554148075002335
0.38329999999999986,-0.012904996477368865
0.38229999999999986,-0.012832846201075748
0.38129999999999986,-0.012950267238964546
0.38029999999999986,-0.013582643190004217
0.37929999999999986,-0.014231995676642267
0.37829999999999986,-0.014543232162612576
0.37729999999999986,-0.014500790823616624
0.37629999999999986,-0.01461396772760583
0.37529999999999986,-0.015250587812545097
0.37429999999999986,-0.01588720789748436
0.37329999999999985,-0.01611356170546277
0.37229999999999985,-0.016028679027470863
0.37129999999999985,-0.016014531914472215
0.37029999999999985,-0.016552122208420932
0.36929999999999985,-0.017217036519357496
0.36829999999999985,-0.017443390327335904
0.36729999999999985,-0.0173868018753413
0.36629999999999985,-0.017429243214337253
0.36529999999999985,-0.017910245056291362
0.36429999999999985,-0.018575159367227933
0.36329999999999985,-0.018759071836210388
0.36229999999999984,-0.018631747819222534
0.36129999999999984,-0.018660042045219833
0.36029999999999984,-0.019126896774175294
0.35929999999999984,-0.019820105311109164
0.35829999999999984,-0.02004645911908757
0.35729999999999984,-0.019947429328097017
0.35629999999999984,-0.02000401778009162
0.35529999999999984,-0.02042843117005113
0.35429999999999984,-0.0212065223849769
0.35329999999999984,-0.021447023305953956
0.35229999999999984,-0.02124896372397285
0.35129999999999983,-0.021291405062968803
0.35029999999999983,-0.021729965565926962
0.34929999999999983,-0.02232414431187028
0.34829999999999983,-0.02264952791083924
0.34729999999999983,-0.022635380797840585
0.34629999999999983,-0.02264952791083924
0.34529999999999983,-0.0230880884137974
0.34429999999999983,-0.023682267159740714
0.3432999999999998,-0.023993503645711022
0.3422999999999998,-0.02390862096771912
0.3412999999999998,-0.02390862096771912
0.3402999999999998,-0.024403769922671882
0.3392999999999998,-0.0250262428946125
0.3382999999999998,-0.025365773606580107
0.3372999999999998,-0.025309185154585506
0.3362999999999998,-0.025280890928588207
0.3352999999999998,-0.025747745657543668
0.3342999999999998,-0.026370218629484285
0.3332999999999998,-0.02665316088945729
0.3322999999999998,-0.02658242532446404
0.3312999999999998,-0.02652583687246944
0.3302999999999998,-0.02692195603643165
0.3292999999999998,-0.02755857612137091
0.3282999999999998,-0.02788395972033987
0.3272999999999998,-0.02782737126834527
0.3262999999999998,-0.02772834147735472
0.3252999999999999,-0.028124460641316927
0.3242999999999999,-0.02880352206525215
0.3232999999999999,-0.02927037679420761
0.3222999999999999,-0.029242082568210308
0.3212999999999999,-0.029058170099227856
0.3202999999999999,-0.02931281813320356
0.3192999999999999,-0.029878702653149573
0.3182999999999999,-0.030034320896134725
0.3172999999999999,-0.02986455554015093
0.3162999999999999,-0.02969479018416712
0.3152999999999999,-0.029949438218142825
0.3142999999999999,-0.030543616964086147
0.3132999999999999,-0.030840706337057794
0.3122999999999999,-0.030614352529079396
0.3112999999999999,-0.030487028512091542
0.3102999999999999,-0.030685088094072648
0.3092999999999999,-0.031095354371033508
0.3082999999999999,-0.031250972614018664
0.3072999999999999,-0.0309255890150497
0.3062999999999999,-0.0307275294330686
0.3052999999999999,-0.030982177467044306
0.3042999999999999,-0.031350002405009215
0.3032999999999999,-0.031434885083001116
0.3022999999999999,-0.031123648597030807
0.3012999999999999,-0.030769970772064545
0.3002999999999999,-0.030812412111060502
0.2992999999999999,-0.031081207258034853
0.2982999999999999,-0.031180237049025412
0.2972999999999999,-0.030883147676053754
0.2962999999999999,-0.030501175625090193
0.2952999999999999,-0.030571911190083446
0.2942999999999999,-0.030812412111060502
0.2932999999999999,-0.03082655922405915
0.2922999999999999,-0.030501175625090193
0.2912999999999999,-0.030034320896134725
0.2902999999999999,-0.03002017378313608
0.2892999999999999,-0.030232380478115835
0.2882999999999999,-0.03018993913911988
0.2872999999999999,-0.029963585331141473
0.2862999999999999,-0.029567466167179264
0.2852999999999999,-0.02949673060218601
0.2842999999999999,-0.02972308441016442
0.2832999999999999,-0.029638201732172516
0.2822999999999999,-0.029185494116215707
0.2812999999999999,-0.028718639387260245
0.2802999999999999,-0.02860546248327104
0.2792999999999999,-0.028874257630245398
0.2782999999999999,-0.028874257630245398
0.2772999999999999,-0.02849228557928184
0.2762999999999999,-0.028053725076323675
0.2752999999999999,-0.027898106833338522
0.2742999999999999,-0.028011283737327728
0.2732999999999999,-0.027912253946337173
0.2722999999999999,-0.02743125210438306
0.2712999999999999,-0.026992691601424906
0.2702999999999999,-0.02692195603643165
0.2692999999999999,-0.027148309844410055
0.26829999999999987,-0.027162456957408702
0.26729999999999987,-0.026639013776458643
0.26629999999999987,-0.026115570595508578
0.26529999999999987,-0.025974099465522073
0.26429999999999987,-0.026115570595508578
0.26329999999999987,-0.026115570595508578
0.26229999999999987,-0.02577603988354097
0.26129999999999987,-0.025365773606580107
0.26029999999999986,-0.025280890928588207
0.25929999999999986,-0.025422362058574708
0.25829999999999986,-0.02543650917157336
0.25729999999999986,-0.0250262428946125
0.25629999999999986,-0.024502799713662437
0.25529999999999986,-0.024446211261667832
0.25429999999999986,-0.024700859295643543
0.25329999999999986,-0.024842330425630044
0.25229999999999986,-0.024502799713662437
0.25129999999999986,-0.024050092097705623
0.25029999999999986,-0.02393691519371642
0.24929999999999986,-0.024106680549700225
0.24829999999999985,-0.024149121888696175
0.24729999999999985,-0.02385203251572452
0.24629999999999985,-0.023441766238763657
0.24529999999999985,-0.023441766238763657
0.24429999999999985,-0.023682267159740714
0.24329999999999985,-0.023753002724733966
0.24229999999999985,-0.023441766238763657
0.24129999999999985,-0.023045647074801445
0.24029999999999985,-0.022974911509808196
0.23929999999999985,-0.0232012653177866
0.23829999999999985,-0.023286147995778505
0.23729999999999984,-0.0230032057358055
0.23629999999999984,-0.022663675023837888
0.23529999999999984,-0.022564645232847336
0.23429999999999984,-0.022833440379821688
0.23329999999999984,-0.022974911509808196
0.23229999999999984,-0.02272026347583249
0.23129999999999984,-0.02238073276386488
0.23029999999999984,-0.02230999719887163
0.22929999999999984,-0.022564645232847336
0.22829999999999984,-0.02272026347583249
0.22729999999999984,-0.022465615441856785
0.22629999999999983,-0.022111937616890523
0.22529999999999983,-0.02205534916489592
0.22429999999999983,-0.02235243853786758
0.22329999999999983,-0.022536351006850038
0.22229999999999983,-0.02230999719887163
0.22129999999999983,-0.02199876071290132
0.22029999999999983,-0.02198461359990267
0.21929999999999983,-0.02226755585987568
0.21829999999999983,-0.02245146832885813
0.21729999999999983,-0.022239261633878377
0.21629999999999983,-0.021913878034909417
0.21529999999999982,-0.021885583808912118
0.21429999999999982,-0.022196820294882423
0.21329999999999982,-0.022437321215859483
0.21229999999999982,-0.022338291424868928
0.21129999999999982,-0.02198461359990267
0.21029999999999982,-0.02198461359990267
0.20929999999999982,-0.022281702972874327
0.20829999999999982,-0.022465615441856785
0.20729999999999982,-0.022338291424868928
0.20629999999999982,-0.02204120205189727
0.20529999999999982,-0.02199876071290132
0.20429999999999982,-0.02230999719887163
0.20329999999999981,-0.022536351006850038
0.2022999999999998,-0.022437321215859483
0.2012999999999998,-0.022168526068885124
0.20029999999999992,-0.022097790503891875
0.19929999999999992,-0.022437321215859483
0.19829999999999992,-0.02270611636283384
0.19729999999999992,-0.022621233684841938
0.19629999999999992,-0.022366585650866227
0.19529999999999992,-0.022281702972874327
0.19429999999999992,-0.02273441058883114
0.19329999999999992,-0.023031499961802798
0.19229999999999992,-0.022833440379821688
0.19129999999999991,-0.022607086571843286
0.1902999999999999,-0.022493909667854084
0.1892999999999999,-0.022890028831816296
0.1882999999999999,-0.023215412430785252
0.1872999999999999,-0.0230597941878001
0.1862999999999999,-0.02279099904082574
0.1852999999999999,-0.02274855770182979
0.1842999999999999,-0.023073941300798748
0.1832999999999999,-0.023356883560771757
0.1822999999999999,-0.023314442221775804
0.1812999999999999,-0.023073941300798748
0.1802999999999999,-0.023031499961802798
0.1792999999999999,-0.023356883560771757
0.1782999999999999,-0.02365397293374341
0.1772999999999999,-0.023583237368750162
0.1762999999999999,-0.023314442221775804
0.1752999999999999,-0.023286147995778505
0.1742999999999999,-0.02359738448174881
0.1732999999999999,-0.023866179628723165
0.1722999999999999,-0.02385203251572452
0.1712999999999999,-0.02359738448174881
0.1702999999999999,-0.02356909025575151
0.1692999999999999,-0.02388032674172182
0.1682999999999999,-0.02417741611469348
0.1672999999999999,-0.02417741611469348
0.1662999999999999,-0.02392276808071777
0.1652999999999999,-0.02385203251572452
0.1642999999999999,-0.024219857453689427
0.1632999999999999,-0.024559388165657038
0.1622999999999999,-0.024630123730650287
0.1612999999999999,-0.024417917035670533
0.1602999999999999,-0.024304740131681327
0.1592999999999999,-0.024630123730650287
0.15829999999999989,-0.024969654442617898
0.15729999999999988,-0.0249413602166206
0.15629999999999988,-0.02474330063463949
0.15529999999999988,-0.024700859295643543
0.15429999999999988,-0.0250262428946125
0.15329999999999988,-0.02535162649358146
0.15229999999999988,-0.025309185154585506
0.15129999999999988,-0.0251111255726044
0.15029999999999988,-0.025012095781613848
0.14929999999999988,-0.025365773606580107
0.14829999999999988,-0.02576189277054232
0.14729999999999988,-0.025705304318547718
0.14629999999999987,-0.025507244736566608
0.14529999999999987,-0.02543650917157336
0.14429999999999987,-0.025719451431546365
0.14329999999999987,-0.02614386482150588
0.14229999999999987,-0.02614386482150588
0.14129999999999987,-0.02590336390052882
0.14029999999999987,-0.025818481222536924
0.13929999999999987,-0.026044835030515325
0.13829999999999987,-0.026412659968480235
0.13729999999999987,-0.02645510130747619
0.13629999999999987,-0.02622874749949778
0.13529999999999986,-0.026115570595508578
0.13429999999999986,-0.026398512855481584
0.13329999999999986,-0.026752190680447843
0.13229999999999986,-0.026865367584437045
0.13129999999999986,-0.02662486666345999
0.13029999999999986,-0.026539983985468085
0.12929999999999986,-0.026808779132442447
0.12829999999999986,-0.027120015618412752
0.12729999999999986,-0.027176604070407354
0.12629999999999986,-0.02695025026242895
0.12529999999999986,-0.026851220471438397
0.12429999999999986,-0.027120015618412752
0.12329999999999985,-0.027487840556377662
0.12229999999999985,-0.02755857612137091
0.12129999999999985,-0.02736051653938981
0.12029999999999985,-0.027190751183406005
0.11929999999999985,-0.027459546330380363
0.11829999999999985,-0.027784929929349323
0.11729999999999985,-0.027869812607341227
0.11629999999999985,-0.027671753025360117
0.11529999999999985,-0.027544429008372267
0.11429999999999985,-0.027784929929349323
0.11329999999999985,-0.02813860775431558
0.11229999999999984,-0.028166901980312884
0.11129999999999984,-0.02796884239833177
0.11029999999999984,-0.027799077042347967
0.10929999999999984,-0.027997136624329073
0.10829999999999984,-0.028379108675292634
0.10729999999999984,-0.028393255788291286
0.10629999999999984,-0.028223490432307482
0.10529999999999984,-0.028039577963325023
0.10429999999999984,-0.028251784658304784
0.10329999999999984,-0.02861960959626969
0.10229999999999984,-0.028633756709268345
0.10129999999999983,-0.028435697127287232
0.10029999999999983,-0.028280078884302083
0.09929999999999983,-0.028421550014288588
0.09829999999999983,-0.028817669178250797
0.09729999999999983,-0.02888840474324405
0.09629999999999983,-0.028647903822266993
0.09529999999999983,-0.02850643269228049
0.09429999999999983,-0.028662050935265648
0.09329999999999983,-0.029015728760231903
0.09229999999999983,-0.029114758551222454
0.09129999999999983,-0.028845963404248096
0.09029999999999982,-0.028775227839254847
0.08929999999999982,-0.028973287421235953
0.08829999999999982,-0.02931281813320356
0.08729999999999982,-0.029425995037192763
0.08629999999999982,-0.02912890566422111
0.08529999999999982,-0.028916698969241348
0.08429999999999982,-0.029086464325225152
0.08329999999999982,-0.029369406585198165
0.08229999999999982,-0.029482583489187364
0.08129999999999982,-0.029256229681208955
0.08029999999999982,-0.029058170099227856
0.07929999999999982,-0.029284523907206258
0.07829999999999981,-0.029624054619173872
0.07729999999999981,-0.02970893729716577
0.07629999999999981,-0.029482583489187364
0.07529999999999992,-0.029242082568210308
0.07429999999999992,-0.029383553698196813
0.07329999999999992,-0.029751378636161722
0.07229999999999992,-0.02986455554015093
0.07129999999999992,-0.02968064307116847
0.07029999999999992,-0.02949673060218601
0.06929999999999992,-0.029638201732172516
0.06829999999999992,-0.029991879557138775
0.06729999999999992,-0.030034320896134725
0.06629999999999991,-0.02986455554015093
0.06529999999999991,-0.029652348845171168
0.06429999999999991,-0.02973723152316307
0.06329999999999991,-0.030090909348129333
0.06229999999999991,-0.03018993913911988
0.06129999999999991,-0.03000602667013743
0.06029999999999991,-0.02979381997515767
0.05929999999999991,-0.029850408427152274
0.05829999999999991,-0.03018993913911988
0.05729999999999991,-0.03033141026910639
0.056299999999999906,-0.030133350687125283
0.055299999999999905,-0.029921143992145526
0.054299999999999904,-0.029991879557138775
0.0532999999999999,-0.03044458717309559
0.0522999999999999,-0.030642646755076695
0.0512999999999999,-0.030416292947098293
0.0502999999999999,-0.030218233365117184
0.0492999999999999,-0.030303116043109087
0.0482999999999999,-0.030614352529079396
0.0472999999999999,-0.030784117885063196
0.0462999999999999,-0.030600205416080745
0.045299999999999896,-0.030387998721100987
0.044299999999999895,-0.030501175625090193
0.043299999999999894,-0.03079826499806185
0.04229999999999989,-0.030953883241047007
0.04129999999999989,-0.030769970772064545
0.04029999999999989,-0.03058605830308209
0.03929999999999989,-0.03065679386807535
0.03829999999999989,-0.0309255890150497
0.03729999999999989,-0.031067060145036202
0.03629999999999989,-0.030911441902051046
0.03529999999999989,-0.030699235207071292
0.034299999999999886,-0.030883147676053754
0.033299999999999885,-0.031222678388021355
0.032299999999999884,-0.03137829663100652
0.031299999999999883,-0.031194384162024056
0.030299999999999883,-0.030953883241047007
0.02929999999999988,-0.03103876591903891
0.02829999999999988,-0.03136414951800787
0.02729999999999988,-0.03151976776099302
0.02629999999999988,-0.03133585529201056
0.025299999999999878,-0.031123648597030807
0.024299999999999877,-0.031194384162024056
0.023299999999999876,-0.03151976776099302
0.022299999999999875,-0.03168953311697682
0.021299999999999875,-0.03157635621298762
0.020299999999999874,-0.031350002405009215
0.019299999999999873,-0.03137829663100652
0.018299999999999872,-0.03168953311697682
0.01729999999999987,-0.03191588692495523
0.01629999999999987,-0.03170368022997547
0.01529999999999987,-0.03154806198699031
0.014299999999999868,-0.03156220909998896
0.013299999999999867,-0.03190173981195658
0.012299999999999978,-0.03211394650693633
0.011299999999999866,-0.03193003403795388
0.010299999999999976,-0.03170368022997547
0.009299999999999864,-0.03176026868197007
0.008299999999999974,-0.03209979939393768
0.007299999999999862,-0.03235444742791339
0.006299999999999972,-0.03222712341092554
0.00529999999999986,-0.032014916715945786
0.0042999999999999705,-0.03204321094194308
0.0032999999999998586,-0.03236859454091204
0.0022999999999999687,-0.032637389687886396
0.0012999999999998568,-0.0326090954618891
0.00029999999999996696,-0.032453477218903945
-0.000700000000000145,-0.032538359896895845
-0.0017000000000000348,-0.0328354492698675
-0.0027000000000001467,-0.03303350885184861
-0.0037000000000000366,-0.03293447906085806
-0.0047000000000001485,-0.032693978139880994
-0.005700000000000038,-0.032736419478876955
-0.00670000000000015,-0.033061803077845904
-0.00770000000000004,-0.033288156885824316
-0.008700000000000152,-0.033274009772825665
-0.009700000000000042,-0.033061803077845904
-0.010700000000000154,-0.033104244416841865
-0.011700000000000044,-0.03344377512880947
-0.012700000000000156,-0.03361354048479327
-0.013700000000000045,-0.03352865780680137
-0.014700000000000157,-0.03325986265982701
-0.015700000000000047,-0.03325986265982701
-0.01670000000000016,-0.03364183471079057
-0.01770000000000005,-0.033896482744766275
-0.01870000000000016,-0.03385404140577032
-0.01970000000000005,-0.03364183471079057
-0.020700000000000163,-0.03358524625879597
-0.021700000000000053,-0.033924776970763584
-0.022700000000000164,-0.03416527789174064
-0.023700000000000054,-0.034094542326747385
-0.024700000000000166,-0.033910629857764926
-0.025700000000000056,-0.03388233563176763
-0.026700000000000168,-0.034193572117737936
-0.027700000000000058,-0.034462367264712294
-0.02870000000000017,-0.03436333747372174
-0.02970000000000006,-0.034179425004739285
-0.03070000000000017,-0.034179425004739285
-0.03170000000000006,-0.0344906614907096
-0.03270000000000017,-0.03478775086368125
-0.03370000000000006,-0.03470286818568935
-0.034700000000000175,-0.0344906614907096
-0.035700000000000065,-0.03450480860370824
-0.03670000000000018,-0.03480189797667991
-0.03770000000000007,-0.03515557580164616
-0.03870000000000018,-0.03518387002764346
-0.03970000000000007,-0.034999957558661005
-0.04070000000000018,-0.03501410467165966
-0.04170000000000007,-0.035282899818634014
-0.04270000000000018,-0.035594136304604326
-0.04370000000000007,-0.03552340073961108
-0.044700000000000184,-0.03526875270563536
-0.045700000000000074,-0.03526875270563536
-0.046700000000000186,-0.035579989191605675
-0.047700000000000076,-0.035820490112582724
-0.04870000000000019,-0.03584878433858003
-0.04970000000000008,-0.03560828341760297
-0.05070000000000019,-0.035594136304604326
-0.05170000000000008,-0.03590537279057463
-0.05270000000000019,-0.036160020824550346
-0.05370000000000008,-0.036160020824550346
-0.05470000000000019,-0.03593366701657193
-0.05570000000000008,-0.03587707856457733
-0.056700000000000195,-0.036188315050547634
-0.057700000000000085,-0.036471257310520644
-0.058700000000000196,-0.036457110197522
-0.059700000000000086,-0.036301491954536844
-0.0607000000000002,-0.036216609276544943
-0.06170000000000009,-0.036570287101511195
-0.0627000000000002,-0.03689567070048015
-0.06370000000000009,-0.036853229361484205
-0.0647000000000002,-0.036740052457495
-0.06570000000000009,-0.03679664090948961
