Mar. 5, 2025   03:09:23
Linear Sweep Voltammetry
File: c:/users/guazh/data/banditlqround7_x0exp169_r20_3/2025-03-03-exp873\1acid_2ac-2025-03-05t03_06_09-lsvinphos\1acid_2ac_lsv_50mvs_efin_-2300mv.bin
Data Source:  Experiment
Instrument Model:  CHI760E
Header: LSV ran at 50 mVs with Efin at -2300mV
Note: 

Init E (V) = -0.6
Final E (V) = -2.3
Scan Rate (V/s) = 0.05
Sample Interval (V) = 0.001
Quiet Time (sec) = 2
Sensitivity (A/V) = 1e-4
Comp R (ohm) = 8.7

Results:

Channel 1:
Ep = -1.917V
ip = 8.712e-4A
Ah = 1.092e-3C

Potential/V, Current/A

-0.600, 4.423e-6
-0.601, 4.579e-6
-0.602, 4.645e-6
-0.603, 4.693e-6
-0.604, 4.732e-6
-0.605, 4.774e-6
-0.606, 4.817e-6
-0.607, 4.856e-6
-0.608, 4.892e-6
-0.609, 4.931e-6
-0.610, 4.969e-6
-0.611, 5.009e-6
-0.612, 5.048e-6
-0.613, 5.081e-6
-0.614, 5.120e-6
-0.615, 5.155e-6
-0.616, 5.192e-6
-0.617, 5.228e-6
-0.618, 5.263e-6
-0.619, 5.298e-6
-0.620, 5.332e-6
-0.621, 5.369e-6
-0.622, 5.403e-6
-0.623, 5.436e-6
-0.624, 5.471e-6
-0.625, 5.506e-6
-0.626, 5.539e-6
-0.627, 5.575e-6
-0.628, 5.605e-6
-0.629, 5.635e-6
-0.630, 5.668e-6
-0.631, 5.700e-6
-0.632, 5.734e-6
-0.633, 5.766e-6
-0.634, 5.798e-6
-0.635, 5.830e-6
-0.636, 5.863e-6
-0.637, 5.895e-6
-0.638, 5.924e-6
-0.639, 5.952e-6
-0.640, 5.982e-6
-0.641, 6.016e-6
-0.642, 6.047e-6
-0.643, 6.077e-6
-0.644, 6.103e-6
-0.645, 6.136e-6
-0.646, 6.168e-6
-0.647, 6.193e-6
-0.648, 6.217e-6
-0.649, 6.245e-6
-0.650, 6.273e-6
-0.651, 6.307e-6
-0.652, 6.338e-6
-0.653, 6.364e-6
-0.654, 6.390e-6
-0.655, 6.418e-6
-0.656, 6.451e-6
-0.657, 6.478e-6
-0.658, 6.499e-6
-0.659, 6.525e-6
-0.660, 6.550e-6
-0.661, 6.576e-6
-0.662, 6.604e-6
-0.663, 6.628e-6
-0.664, 6.649e-6
-0.665, 6.677e-6
-0.666, 6.705e-6
-0.667, 6.725e-6
-0.668, 6.747e-6
-0.669, 6.774e-6
-0.670, 6.801e-6
-0.671, 6.823e-6
-0.672, 6.845e-6
-0.673, 6.867e-6
-0.674, 6.886e-6
-0.675, 6.908e-6
-0.676, 6.932e-6
-0.677, 6.949e-6
-0.678, 6.968e-6
-0.679, 6.984e-6
-0.680, 7.005e-6
-0.681, 7.027e-6
-0.682, 7.047e-6
-0.683, 7.064e-6
-0.684, 7.083e-6
-0.685, 7.099e-6
-0.686, 7.118e-6
-0.687, 7.139e-6
-0.688, 7.157e-6
-0.689, 7.168e-6
-0.690, 7.181e-6
-0.691, 7.199e-6
-0.692, 7.216e-6
-0.693, 7.231e-6
-0.694, 7.245e-6
-0.695, 7.262e-6
-0.696, 7.278e-6
-0.697, 7.293e-6
-0.698, 7.305e-6
-0.699, 7.318e-6
-0.700, 7.331e-6
-0.701, 7.345e-6
-0.702, 7.358e-6
-0.703, 7.367e-6
-0.704, 7.381e-6
-0.705, 7.392e-6
-0.706, 7.403e-6
-0.707, 7.416e-6
-0.708, 7.425e-6
-0.709, 7.436e-6
-0.710, 7.448e-6
-0.711, 7.458e-6
-0.712, 7.469e-6
-0.713, 7.478e-6
-0.714, 7.484e-6
-0.715, 7.493e-6
-0.716, 7.503e-6
-0.717, 7.512e-6
-0.718, 7.519e-6
-0.719, 7.525e-6
-0.720, 7.532e-6
-0.721, 7.538e-6
-0.722, 7.546e-6
-0.723, 7.553e-6
-0.724, 7.557e-6
-0.725, 7.559e-6
-0.726, 7.567e-6
-0.727, 7.570e-6
-0.728, 7.575e-6
-0.729, 7.578e-6
-0.730, 7.582e-6
-0.731, 7.588e-6
-0.732, 7.593e-6
-0.733, 7.593e-6
-0.734, 7.595e-6
-0.735, 7.598e-6
-0.736, 7.602e-6
-0.737, 7.607e-6
-0.738, 7.604e-6
-0.739, 7.607e-6
-0.740, 7.604e-6
-0.741, 7.604e-6
-0.742, 7.609e-6
-0.743, 7.608e-6
-0.744, 7.608e-6
-0.745, 7.608e-6
-0.746, 7.609e-6
-0.747, 7.608e-6
-0.748, 7.605e-6
-0.749, 7.603e-6
-0.750, 7.601e-6
-0.751, 7.598e-6
-0.752, 7.597e-6
-0.753, 7.597e-6
-0.754, 7.590e-6
-0.755, 7.590e-6
-0.756, 7.591e-6
-0.757, 7.588e-6
-0.758, 7.585e-6
-0.759, 7.579e-6
-0.760, 7.577e-6
-0.761, 7.572e-6
-0.762, 7.569e-6
-0.763, 7.565e-6
-0.764, 7.559e-6
-0.765, 7.554e-6
-0.766, 7.554e-6
-0.767, 7.547e-6
-0.768, 7.543e-6
-0.769, 7.538e-6
-0.770, 7.529e-6
-0.771, 7.526e-6
-0.772, 7.519e-6
-0.773, 7.512e-6
-0.774, 7.505e-6
-0.775, 7.499e-6
-0.776, 7.493e-6
-0.777, 7.489e-6
-0.778, 7.481e-6
-0.779, 7.474e-6
-0.780, 7.467e-6
-0.781, 7.461e-6
-0.782, 7.454e-6
-0.783, 7.444e-6
-0.784, 7.436e-6
-0.785, 7.430e-6
-0.786, 7.421e-6
-0.787, 7.416e-6
-0.788, 7.406e-6
-0.789, 7.399e-6
-0.790, 7.396e-6
-0.791, 7.387e-6
-0.792, 7.378e-6
-0.793, 7.370e-6
-0.794, 7.362e-6
-0.795, 7.354e-6
-0.796, 7.345e-6
-0.797, 7.340e-6
-0.798, 7.334e-6
-0.799, 7.322e-6
-0.800, 7.312e-6
-0.801, 7.305e-6
-0.802, 7.300e-6
-0.803, 7.289e-6
-0.804, 7.277e-6
-0.805, 7.269e-6
-0.806, 7.261e-6
-0.807, 7.256e-6
-0.808, 7.247e-6
-0.809, 7.239e-6
-0.810, 7.226e-6
-0.811, 7.220e-6
-0.812, 7.211e-6
-0.813, 7.203e-6
-0.814, 7.196e-6
-0.815, 7.184e-6
-0.816, 7.176e-6
-0.817, 7.171e-6
-0.818, 7.160e-6
-0.819, 7.154e-6
-0.820, 7.148e-6
-0.821, 7.136e-6
-0.822, 7.130e-6
-0.823, 7.119e-6
-0.824, 7.109e-6
-0.825, 7.100e-6
-0.826, 7.093e-6
-0.827, 7.085e-6
-0.828, 7.074e-6
-0.829, 7.065e-6
-0.830, 7.054e-6
-0.831, 7.049e-6
-0.832, 7.043e-6
-0.833, 7.034e-6
-0.834, 7.024e-6
-0.835, 7.016e-6
-0.836, 7.014e-6
-0.837, 7.002e-6
-0.838, 6.995e-6
-0.839, 6.987e-6
-0.840, 6.978e-6
-0.841, 6.970e-6
-0.842, 6.961e-6
-0.843, 6.953e-6
-0.844, 6.944e-6
-0.845, 6.937e-6
-0.846, 6.931e-6
-0.847, 6.924e-6
-0.848, 6.913e-6
-0.849, 6.912e-6
-0.850, 6.900e-6
-0.851, 6.892e-6
-0.852, 6.885e-6
-0.853, 6.877e-6
-0.854, 6.869e-6
-0.855, 6.861e-6
-0.856, 6.856e-6
-0.857, 6.851e-6
-0.858, 6.844e-6
-0.859, 6.837e-6
-0.860, 6.828e-6
-0.861, 6.814e-6
-0.862, 6.808e-6
-0.863, 6.802e-6
-0.864, 6.795e-6
-0.865, 6.784e-6
-0.866, 6.777e-6
-0.867, 6.771e-6
-0.868, 6.764e-6
-0.869, 6.754e-6
-0.870, 6.747e-6
-0.871, 6.742e-6
-0.872, 6.733e-6
-0.873, 6.729e-6
-0.874, 6.724e-6
-0.875, 6.714e-6
-0.876, 6.713e-6
-0.877, 6.703e-6
-0.878, 6.692e-6
-0.879, 6.685e-6
-0.880, 6.683e-6
-0.881, 6.680e-6
-0.882, 6.672e-6
-0.883, 6.665e-6
-0.884, 6.659e-6
-0.885, 6.655e-6
-0.886, 6.654e-6
-0.887, 6.652e-6
-0.888, 6.639e-6
-0.889, 6.636e-6
-0.890, 6.628e-6
-0.891, 6.623e-6
-0.892, 6.616e-6
-0.893, 6.609e-6
-0.894, 6.608e-6
-0.895, 6.602e-6
-0.896, 6.597e-6
-0.897, 6.592e-6
-0.898, 6.589e-6
-0.899, 6.580e-6
-0.900, 6.572e-6
-0.901, 6.570e-6
-0.902, 6.568e-6
-0.903, 6.559e-6
-0.904, 6.546e-6
-0.905, 6.543e-6
-0.906, 6.539e-6
-0.907, 6.533e-6
-0.908, 6.526e-6
-0.909, 6.520e-6
-0.910, 6.521e-6
-0.911, 6.518e-6
-0.912, 6.517e-6
-0.913, 6.507e-6
-0.914, 6.502e-6
-0.915, 6.499e-6
-0.916, 6.496e-6
-0.917, 6.488e-6
-0.918, 6.479e-6
-0.919, 6.482e-6
-0.920, 6.478e-6
-0.921, 6.474e-6
-0.922, 6.472e-6
-0.923, 6.461e-6
-0.924, 6.457e-6
-0.925, 6.450e-6
-0.926, 6.447e-6
-0.927, 6.444e-6
-0.928, 6.439e-6
-0.929, 6.440e-6
-0.930, 6.437e-6
-0.931, 6.435e-6
-0.932, 6.431e-6
-0.933, 6.423e-6
-0.934, 6.419e-6
-0.935, 6.415e-6
-0.936, 6.415e-6
-0.937, 6.411e-6
-0.938, 6.403e-6
-0.939, 6.400e-6
-0.940, 6.397e-6
-0.941, 6.394e-6
-0.942, 6.394e-6
-0.943, 6.394e-6
-0.944, 6.384e-6
-0.945, 6.376e-6
-0.946, 6.372e-6
-0.947, 6.370e-6
-0.948, 6.363e-6
-0.949, 6.358e-6
-0.950, 6.356e-6
-0.951, 6.354e-6
-0.952, 6.349e-6
-0.953, 6.343e-6
-0.954, 6.335e-6
-0.955, 6.332e-6
-0.956, 6.330e-6
-0.957, 6.328e-6
-0.958, 6.325e-6
-0.959, 6.319e-6
-0.960, 6.319e-6
-0.961, 6.320e-6
-0.962, 6.316e-6
-0.963, 6.312e-6
-0.964, 6.307e-6
-0.965, 6.303e-6
-0.966, 6.301e-6
-0.967, 6.298e-6
-0.968, 6.302e-6
-0.969, 6.302e-6
-0.970, 6.296e-6
-0.971, 6.296e-6
-0.972, 6.289e-6
-0.973, 6.286e-6
-0.974, 6.286e-6
-0.975, 6.279e-6
-0.976, 6.277e-6
-0.977, 6.273e-6
-0.978, 6.266e-6
-0.979, 6.259e-6
-0.980, 6.256e-6
-0.981, 6.255e-6
-0.982, 6.256e-6
-0.983, 6.251e-6
-0.984, 6.247e-6
-0.985, 6.246e-6
-0.986, 6.245e-6
-0.987, 6.242e-6
-0.988, 6.238e-6
-0.989, 6.234e-6
-0.990, 6.232e-6
-0.991, 6.232e-6
-0.992, 6.229e-6
-0.993, 6.229e-6
-0.994, 6.225e-6
-0.995, 6.226e-6
-0.996, 6.226e-6
-0.997, 6.223e-6
-0.998, 6.217e-6
-0.999, 6.215e-6
-1.000, 6.209e-6
-1.001, 6.212e-6
-1.002, 6.214e-6
-1.003, 6.211e-6
-1.004, 6.211e-6
-1.005, 6.209e-6
-1.006, 6.210e-6
-1.007, 6.209e-6
-1.008, 6.204e-6
-1.009, 6.203e-6
-1.010, 6.199e-6
-1.011, 6.199e-6
-1.012, 6.197e-6
-1.013, 6.190e-6
-1.014, 6.190e-6
-1.015, 6.185e-6
-1.016, 6.184e-6
-1.017, 6.180e-6
-1.018, 6.177e-6
-1.019, 6.176e-6
-1.020, 6.171e-6
-1.021, 6.172e-6
-1.022, 6.178e-6
-1.023, 6.174e-6
-1.024, 6.173e-6
-1.025, 6.169e-6
-1.026, 6.169e-6
-1.027, 6.168e-6
-1.028, 6.166e-6
-1.029, 6.160e-6
-1.030, 6.158e-6
-1.031, 6.160e-6
-1.032, 6.157e-6
-1.033, 6.157e-6
-1.034, 6.155e-6
-1.035, 6.153e-6
-1.036, 6.159e-6
-1.037, 6.159e-6
-1.038, 6.158e-6
-1.039, 6.153e-6
-1.040, 6.149e-6
-1.041, 6.150e-6
-1.042, 6.149e-6
-1.043, 6.147e-6
-1.044, 6.146e-6
-1.045, 6.147e-6
-1.046, 6.148e-6
-1.047, 6.149e-6
-1.048, 6.147e-6
-1.049, 6.146e-6
-1.050, 6.144e-6
-1.051, 6.143e-6
-1.052, 6.142e-6
-1.053, 6.139e-6
-1.054, 6.141e-6
-1.055, 6.143e-6
-1.056, 6.144e-6
-1.057, 6.142e-6
-1.058, 6.139e-6
-1.059, 6.139e-6
-1.060, 6.138e-6
-1.061, 6.140e-6
-1.062, 6.141e-6
-1.063, 6.141e-6
-1.064, 6.139e-6
-1.065, 6.138e-6
-1.066, 6.140e-6
-1.067, 6.144e-6
-1.068, 6.148e-6
-1.069, 6.147e-6
-1.070, 6.142e-6
-1.071, 6.143e-6
-1.072, 6.142e-6
-1.073, 6.142e-6
-1.074, 6.139e-6
-1.075, 6.141e-6
-1.076, 6.143e-6
-1.077, 6.142e-6
-1.078, 6.142e-6
-1.079, 6.140e-6
-1.080, 6.140e-6
-1.081, 6.144e-6
-1.082, 6.147e-6
-1.083, 6.146e-6
-1.084, 6.144e-6
-1.085, 6.141e-6
-1.086, 6.143e-6
-1.087, 6.142e-6
-1.088, 6.143e-6
-1.089, 6.142e-6
-1.090, 6.137e-6
-1.091, 6.138e-6
-1.092, 6.140e-6
-1.093, 6.140e-6
-1.094, 6.144e-6
-1.095, 6.148e-6
-1.096, 6.151e-6
-1.097, 6.153e-6
-1.098, 6.150e-6
-1.099, 6.154e-6
-1.100, 6.165e-6
-1.101, 6.176e-6
-1.102, 6.186e-6
-1.103, 6.187e-6
-1.104, 6.189e-6
-1.105, 6.194e-6
-1.106, 6.197e-6
-1.107, 6.206e-6
-1.108, 6.202e-6
-1.109, 6.201e-6
-1.110, 6.199e-6
-1.111, 6.189e-6
-1.112, 6.184e-6
-1.113, 6.182e-6
-1.114, 6.178e-6
-1.115, 6.177e-6
-1.116, 6.175e-6
-1.117, 6.177e-6
-1.118, 6.177e-6
-1.119, 6.177e-6
-1.120, 6.177e-6
-1.121, 6.191e-6
-1.122, 6.192e-6
-1.123, 6.202e-6
-1.124, 6.198e-6
-1.125, 6.196e-6
-1.126, 6.188e-6
-1.127, 6.183e-6
-1.128, 6.182e-6
-1.129, 6.183e-6
-1.130, 6.181e-6
-1.131, 6.187e-6
-1.132, 6.189e-6
-1.133, 6.192e-6
-1.134, 6.193e-6
-1.135, 6.196e-6
-1.136, 6.198e-6
-1.137, 6.201e-6
-1.138, 6.202e-6
-1.139, 6.203e-6
-1.140, 6.204e-6
-1.141, 6.206e-6
-1.142, 6.207e-6
-1.143, 6.209e-6
-1.144, 6.209e-6
-1.145, 6.213e-6
-1.146, 6.217e-6
-1.147, 6.220e-6
-1.148, 6.222e-6
-1.149, 6.223e-6
-1.150, 6.226e-6
-1.151, 6.229e-6
-1.152, 6.233e-6
-1.153, 6.233e-6
-1.154, 6.234e-6
-1.155, 6.238e-6
-1.156, 6.242e-6
-1.157, 6.246e-6
-1.158, 6.252e-6
-1.159, 6.256e-6
-1.160, 6.258e-6
-1.161, 6.261e-6
-1.162, 6.265e-6
-1.163, 6.265e-6
-1.164, 6.266e-6
-1.165, 6.270e-6
-1.166, 6.278e-6
-1.167, 6.283e-6
-1.168, 6.286e-6
-1.169, 6.287e-6
-1.170, 6.289e-6
-1.171, 6.296e-6
-1.172, 6.303e-6
-1.173, 6.304e-6
-1.174, 6.305e-6
-1.175, 6.308e-6
-1.176, 6.315e-6
-1.177, 6.315e-6
-1.178, 6.319e-6
-1.179, 6.323e-6
-1.180, 6.325e-6
-1.181, 6.331e-6
-1.182, 6.341e-6
-1.183, 6.344e-6
-1.184, 6.343e-6
-1.185, 6.347e-6
-1.186, 6.349e-6
-1.187, 6.355e-6
-1.188, 6.358e-6
-1.189, 6.360e-6
-1.190, 6.365e-6
-1.191, 6.369e-6
-1.192, 6.375e-6
-1.193, 6.379e-6
-1.194, 6.381e-6
-1.195, 6.385e-6
-1.196, 6.392e-6
-1.197, 6.396e-6
-1.198, 6.403e-6
-1.199, 6.406e-6
-1.200, 6.411e-6
-1.201, 6.417e-6
-1.202, 6.424e-6
-1.203, 6.429e-6
-1.204, 6.433e-6
-1.205, 6.440e-6
-1.206, 6.444e-6
-1.207, 6.446e-6
-1.208, 6.451e-6
-1.209, 6.455e-6
-1.210, 6.458e-6
-1.211, 6.466e-6
-1.212, 6.473e-6
-1.213, 6.477e-6
-1.214, 6.483e-6
-1.215, 6.487e-6
-1.216, 6.496e-6
-1.217, 6.501e-6
-1.218, 6.503e-6
-1.219, 6.511e-6
-1.220, 6.515e-6
-1.221, 6.525e-6
-1.222, 6.539e-6
-1.223, 6.554e-6
-1.224, 6.553e-6
-1.225, 6.558e-6
-1.226, 6.562e-6
-1.227, 6.569e-6
-1.228, 6.575e-6
-1.229, 6.582e-6
-1.230, 6.582e-6
-1.231, 6.594e-6
-1.232, 6.601e-6
-1.233, 6.606e-6
-1.234, 6.610e-6
-1.235, 6.614e-6
-1.236, 6.622e-6
-1.237, 6.626e-6
-1.238, 6.635e-6
-1.239, 6.639e-6
-1.240, 6.647e-6
-1.241, 6.660e-6
-1.242, 6.668e-6
-1.243, 6.667e-6
-1.244, 6.671e-6
-1.245, 6.684e-6
-1.246, 6.695e-6
-1.247, 6.703e-6
-1.248, 6.710e-6
-1.249, 6.713e-6
-1.250, 6.718e-6
-1.251, 6.723e-6
-1.252, 6.729e-6
-1.253, 6.731e-6
-1.254, 6.737e-6
-1.255, 6.744e-6
-1.256, 6.751e-6
-1.257, 6.752e-6
-1.258, 6.760e-6
-1.259, 6.769e-6
-1.260, 6.782e-6
-1.261, 6.784e-6
-1.262, 6.793e-6
-1.263, 6.798e-6
-1.264, 6.807e-6
-1.265, 6.812e-6
-1.266, 6.824e-6
-1.267, 6.840e-6
-1.268, 6.843e-6
-1.269, 6.844e-6
-1.270, 6.847e-6
-1.271, 6.856e-6
-1.272, 6.864e-6
-1.273, 6.875e-6
-1.274, 6.883e-6
-1.275, 6.889e-6
-1.276, 6.895e-6
-1.277, 6.902e-6
-1.278, 6.908e-6
-1.279, 6.915e-6
-1.280, 6.925e-6
-1.281, 6.932e-6
-1.282, 6.941e-6
-1.283, 6.949e-6
-1.284, 6.957e-6
-1.285, 6.960e-6
-1.286, 6.971e-6
-1.287, 6.980e-6
-1.288, 6.987e-6
-1.289, 6.998e-6
-1.290, 7.008e-6
-1.291, 7.020e-6
-1.292, 7.026e-6
-1.293, 7.035e-6
-1.294, 7.047e-6
-1.295, 7.059e-6
-1.296, 7.073e-6
-1.297, 7.083e-6
-1.298, 7.090e-6
-1.299, 7.095e-6
-1.300, 7.103e-6
-1.301, 7.114e-6
-1.302, 7.128e-6
-1.303, 7.131e-6
-1.304, 7.135e-6
-1.305, 7.145e-6
-1.306, 7.157e-6
-1.307, 7.166e-6
-1.308, 7.172e-6
-1.309, 7.176e-6
-1.310, 7.187e-6
-1.311, 7.203e-6
-1.312, 7.213e-6
-1.313, 7.222e-6
-1.314, 7.232e-6
-1.315, 7.241e-6
-1.316, 7.254e-6
-1.317, 7.264e-6
-1.318, 7.273e-6
-1.319, 7.287e-6
-1.320, 7.292e-6
-1.321, 7.307e-6
-1.322, 7.316e-6
-1.323, 7.327e-6
-1.324, 7.340e-6
-1.325, 7.350e-6
-1.326, 7.358e-6
-1.327, 7.370e-6
-1.328, 7.382e-6
-1.329, 7.392e-6
-1.330, 7.404e-6
-1.331, 7.418e-6
-1.332, 7.426e-6
-1.333, 7.435e-6
-1.334, 7.448e-6
-1.335, 7.466e-6
-1.336, 7.477e-6
-1.337, 7.490e-6
-1.338, 7.504e-6
-1.339, 7.522e-6
-1.340, 7.544e-6
-1.341, 7.634e-6
-1.342, 7.598e-6
-1.343, 7.588e-6
-1.344, 7.592e-6
-1.345, 7.595e-6
-1.346, 7.610e-6
-1.347, 7.619e-6
-1.348, 7.628e-6
-1.349, 7.630e-6
-1.350, 7.639e-6
-1.351, 7.652e-6
-1.352, 7.662e-6
-1.353, 7.673e-6
-1.354, 7.688e-6
-1.355, 7.705e-6
-1.356, 7.739e-6
-1.357, 7.757e-6
-1.358, 7.765e-6
-1.359, 7.765e-6
-1.360, 7.774e-6
-1.361, 7.779e-6
-1.362, 7.794e-6
-1.363, 7.807e-6
-1.364, 7.814e-6
-1.365, 7.825e-6
-1.366, 7.840e-6
-1.367, 7.849e-6
-1.368, 7.858e-6
-1.369, 7.867e-6
-1.370, 7.872e-6
-1.371, 7.884e-6
-1.372, 7.900e-6
-1.373, 7.916e-6
-1.374, 7.929e-6
-1.375, 7.939e-6
-1.376, 7.963e-6
-1.377, 7.984e-6
-1.378, 7.987e-6
-1.379, 7.999e-6
-1.380, 8.009e-6
-1.381, 8.019e-6
-1.382, 8.035e-6
-1.383, 8.049e-6
-1.384, 8.067e-6
-1.385, 8.084e-6
-1.386, 8.098e-6
-1.387, 8.122e-6
-1.388, 8.135e-6
-1.389, 8.147e-6
-1.390, 8.157e-6
-1.391, 8.172e-6
-1.392, 8.188e-6
-1.393, 8.199e-6
-1.394, 8.214e-6
-1.395, 8.236e-6
-1.396, 8.259e-6
-1.397, 8.275e-6
-1.398, 8.287e-6
-1.399, 8.298e-6
-1.400, 8.314e-6
-1.401, 8.332e-6
-1.402, 8.348e-6
-1.403, 8.366e-6
-1.404, 8.376e-6
-1.405, 8.392e-6
-1.406, 8.414e-6
-1.407, 8.423e-6
-1.408, 8.438e-6
-1.409, 8.456e-6
-1.410, 8.470e-6
-1.411, 8.488e-6
-1.412, 8.508e-6
-1.413, 8.524e-6
-1.414, 8.542e-6
-1.415, 8.558e-6
-1.416, 8.577e-6
-1.417, 8.596e-6
-1.418, 8.610e-6
-1.419, 8.625e-6
-1.420, 8.643e-6
-1.421, 8.660e-6
-1.422, 8.678e-6
-1.423, 8.695e-6
-1.424, 8.711e-6
-1.425, 8.731e-6
-1.426, 8.753e-6
-1.427, 8.777e-6
-1.428, 8.795e-6
-1.429, 8.811e-6
-1.430, 8.829e-6
-1.431, 8.849e-6
-1.432, 8.871e-6
-1.433, 8.884e-6
-1.434, 8.906e-6
-1.435, 8.922e-6
-1.436, 8.950e-6
-1.437, 8.969e-6
-1.438, 8.984e-6
-1.439, 8.997e-6
-1.440, 9.017e-6
-1.441, 9.039e-6
-1.442, 9.058e-6
-1.443, 9.079e-6
-1.444, 9.103e-6
-1.445, 9.124e-6
-1.446, 9.151e-6
-1.447, 9.171e-6
-1.448, 9.184e-6
-1.449, 9.208e-6
-1.450, 9.232e-6
-1.451, 9.255e-6
-1.452, 9.275e-6
-1.453, 9.296e-6
-1.454, 9.320e-6
-1.455, 9.343e-6
-1.456, 9.365e-6
-1.457, 9.385e-6
-1.458, 9.407e-6
-1.459, 9.431e-6
-1.460, 9.453e-6
-1.461, 9.482e-6
-1.462, 9.512e-6
-1.463, 9.534e-6
-1.464, 9.555e-6
-1.465, 9.573e-6
-1.466, 9.598e-6
-1.467, 9.625e-6
-1.468, 9.646e-6
-1.469, 9.670e-6
-1.470, 9.695e-6
-1.471, 9.723e-6
-1.472, 9.753e-6
-1.473, 9.777e-6
-1.474, 9.802e-6
-1.475, 9.825e-6
-1.476, 9.852e-6
-1.477, 9.879e-6
-1.478, 9.906e-6
-1.479, 9.929e-6
-1.480, 9.954e-6
-1.481, 9.990e-6
-1.482, 1.002e-5
-1.483, 1.004e-5
-1.484, 1.007e-5
-1.485, 1.010e-5
-1.486, 1.013e-5
-1.487, 1.015e-5
-1.488, 1.018e-5
-1.489, 1.020e-5
-1.490, 1.023e-5
-1.491, 1.026e-5
-1.492, 1.029e-5
-1.493, 1.032e-5
-1.494, 1.035e-5
-1.495, 1.038e-5
-1.496, 1.041e-5
-1.497, 1.045e-5
-1.498, 1.047e-5
-1.499, 1.051e-5
-1.500, 1.054e-5
-1.501, 1.057e-5
-1.502, 1.060e-5
-1.503, 1.064e-5
-1.504, 1.067e-5
-1.505, 1.071e-5
-1.506, 1.074e-5
-1.507, 1.078e-5
-1.508, 1.081e-5
-1.509, 1.085e-5
-1.510, 1.089e-5
-1.511, 1.093e-5
-1.512, 1.096e-5
-1.513, 1.099e-5
-1.514, 1.102e-5
-1.515, 1.106e-5
-1.516, 1.109e-5
-1.517, 1.113e-5
-1.518, 1.117e-5
-1.519, 1.121e-5
-1.520, 1.124e-5
-1.521, 1.129e-5
-1.522, 1.133e-5
-1.523, 1.136e-5
-1.524, 1.140e-5
-1.525, 1.144e-5
-1.526, 1.149e-5
-1.527, 1.153e-5
-1.528, 1.157e-5
-1.529, 1.161e-5
-1.530, 1.165e-5
-1.531, 1.170e-5
-1.532, 1.174e-5
-1.533, 1.179e-5
-1.534, 1.183e-5
-1.535, 1.188e-5
-1.536, 1.193e-5
-1.537, 1.198e-5
-1.538, 1.201e-5
-1.539, 1.205e-5
-1.540, 1.209e-5
-1.541, 1.214e-5
-1.542, 1.219e-5
-1.543, 1.224e-5
-1.544, 1.229e-5
-1.545, 1.234e-5
-1.546, 1.239e-5
-1.547, 1.245e-5
-1.548, 1.251e-5
-1.549, 1.255e-5
-1.550, 1.259e-5
-1.551, 1.264e-5
-1.552, 1.270e-5
-1.553, 1.275e-5
-1.554, 1.280e-5
-1.555, 1.286e-5
-1.556, 1.292e-5
-1.557, 1.297e-5
-1.558, 1.302e-5
-1.559, 1.308e-5
-1.560, 1.314e-5
-1.561, 1.321e-5
-1.562, 1.327e-5
-1.563, 1.333e-5
-1.564, 1.339e-5
-1.565, 1.345e-5
-1.566, 1.351e-5
-1.567, 1.358e-5
-1.568, 1.364e-5
-1.569, 1.371e-5
-1.570, 1.377e-5
-1.571, 1.385e-5
-1.572, 1.392e-5
-1.573, 1.399e-5
-1.574, 1.406e-5
-1.575, 1.412e-5
-1.576, 1.419e-5
-1.577, 1.426e-5
-1.578, 1.433e-5
-1.579, 1.441e-5
-1.580, 1.448e-5
-1.581, 1.455e-5
-1.582, 1.463e-5
-1.583, 1.470e-5
-1.584, 1.479e-5
-1.585, 1.486e-5
-1.586, 1.495e-5
-1.587, 1.504e-5
-1.588, 1.513e-5
-1.589, 1.520e-5
-1.590, 1.528e-5
-1.591, 1.537e-5
-1.592, 1.546e-5
-1.593, 1.554e-5
-1.594, 1.562e-5
-1.595, 1.572e-5
-1.596, 1.581e-5
-1.597, 1.591e-5
-1.598, 1.600e-5
-1.599, 1.610e-5
-1.600, 1.620e-5
-1.601, 1.631e-5
-1.602, 1.641e-5
-1.603, 1.651e-5
-1.604, 1.660e-5
-1.605, 1.671e-5
-1.606, 1.682e-5
-1.607, 1.698e-5
-1.608, 1.711e-5
-1.609, 1.720e-5
-1.610, 1.730e-5
-1.611, 1.742e-5
-1.612, 1.753e-5
-1.613, 1.766e-5
-1.614, 1.778e-5
-1.615, 1.788e-5
-1.616, 1.799e-5
-1.617, 1.811e-5
-1.618, 1.824e-5
-1.619, 1.837e-5
-1.620, 1.850e-5
-1.621, 1.864e-5
-1.622, 1.877e-5
-1.623, 1.891e-5
-1.624, 1.905e-5
-1.625, 1.919e-5
-1.626, 1.934e-5
-1.627, 1.949e-5
-1.628, 1.964e-5
-1.629, 1.986e-5
-1.630, 1.996e-5
-1.631, 2.011e-5
-1.632, 2.028e-5
-1.633, 2.044e-5
-1.634, 2.060e-5
-1.635, 2.077e-5
-1.636, 2.094e-5
-1.637, 2.112e-5
-1.638, 2.131e-5
-1.639, 2.150e-5
-1.640, 2.169e-5
-1.641, 2.188e-5
-1.642, 2.206e-5
-1.643, 2.225e-5
-1.644, 2.245e-5
-1.645, 2.265e-5
-1.646, 2.287e-5
-1.647, 2.307e-5
-1.648, 2.328e-5
-1.649, 2.350e-5
-1.650, 2.372e-5
-1.651, 2.395e-5
-1.652, 2.420e-5
-1.653, 2.443e-5
-1.654, 2.467e-5
-1.655, 2.491e-5
-1.656, 2.517e-5
-1.657, 2.543e-5
-1.658, 2.569e-5
-1.659, 2.595e-5
-1.660, 2.620e-5
-1.661, 2.648e-5
-1.662, 2.676e-5
-1.663, 2.705e-5
-1.664, 2.734e-5
-1.665, 2.763e-5
-1.666, 2.791e-5
-1.667, 2.821e-5
-1.668, 2.853e-5
-1.669, 2.885e-5
-1.670, 2.917e-5
-1.671, 2.951e-5
-1.672, 2.985e-5
-1.673, 3.020e-5
-1.674, 3.055e-5
-1.675, 3.090e-5
-1.676, 3.128e-5
-1.677, 3.164e-5
-1.678, 3.202e-5
-1.679, 3.240e-5
-1.680, 3.279e-5
-1.681, 3.319e-5
-1.682, 3.361e-5
-1.683, 3.403e-5
-1.684, 3.444e-5
-1.685, 3.487e-5
-1.686, 3.532e-5
-1.687, 3.576e-5
-1.688, 3.621e-5
-1.689, 3.667e-5
-1.690, 3.715e-5
-1.691, 3.764e-5
-1.692, 3.814e-5
-1.693, 3.864e-5
-1.694, 3.916e-5
-1.695, 3.969e-5
-1.696, 4.023e-5
-1.697, 4.078e-5
-1.698, 4.134e-5
-1.699, 4.190e-5
-1.700, 4.247e-5
-1.701, 4.307e-5
-1.702, 4.366e-5
-1.703, 4.426e-5
-1.704, 4.490e-5
-1.705, 4.555e-5
-1.706, 4.619e-5
-1.707, 4.686e-5
-1.708, 4.754e-5
-1.709, 4.824e-5
-1.710, 4.896e-5
-1.711, 4.968e-5
-1.712, 5.043e-5
-1.713, 5.117e-5
-1.714, 5.194e-5
-1.715, 5.273e-5
-1.716, 5.352e-5
-1.717, 5.434e-5
-1.718, 5.519e-5
-1.719, 5.604e-5
-1.720, 5.690e-5
-1.721, 5.778e-5
-1.722, 5.869e-5
-1.723, 5.958e-5
-1.724, 6.051e-5
-1.725, 6.145e-5
-1.726, 6.244e-5
-1.727, 6.342e-5
-1.728, 6.443e-5
-1.729, 6.546e-5
-1.730, 6.651e-5
-1.731, 6.758e-5
-1.732, 6.866e-5
-1.733, 6.978e-5
-1.734, 7.093e-5
-1.735, 7.208e-5
-1.736, 7.328e-5
-1.737, 7.449e-5
-1.738, 7.569e-5
-1.739, 7.693e-5
-1.740, 7.819e-5
-1.741, 7.951e-5
-1.742, 8.084e-5
-1.743, 8.217e-5
-1.744, 8.355e-5
-1.745, 8.494e-5
-1.746, 8.637e-5
-1.747, 8.785e-5
-1.748, 8.934e-5
-1.749, 9.086e-5
-1.750, 9.238e-5
-1.751, 9.393e-5
-1.752, 9.554e-5
-1.753, 9.717e-5
-1.754, 9.882e-5
-1.755, 1.005e-4
-1.756, 1.022e-4
-1.757, 1.040e-4
-1.758, 1.057e-4
-1.759, 1.075e-4
-1.760, 1.094e-4
-1.761, 1.113e-4
-1.762, 1.132e-4
-1.763, 1.151e-4
-1.764, 1.171e-4
-1.765, 1.191e-4
-1.766, 1.211e-4
-1.767, 1.232e-4
-1.768, 1.253e-4
-1.769, 1.275e-4
-1.770, 1.296e-4
-1.771, 1.319e-4
-1.772, 1.341e-4
-1.773, 1.364e-4
-1.774, 1.387e-4
-1.775, 1.410e-4
-1.776, 1.434e-4
-1.777, 1.458e-4
-1.778, 1.483e-4
-1.779, 1.508e-4
-1.780, 1.534e-4
-1.781, 1.559e-4
-1.782, 1.585e-4
-1.783, 1.612e-4
-1.784, 1.638e-4
-1.785, 1.665e-4
-1.786, 1.693e-4
-1.787, 1.721e-4
-1.788, 1.749e-4
-1.789, 1.777e-4
-1.790, 1.806e-4
-1.791, 1.836e-4
-1.792, 1.865e-4
-1.793, 1.895e-4
-1.794, 1.925e-4
-1.795, 1.956e-4
-1.796, 1.987e-4
-1.797, 2.018e-4
-1.798, 2.050e-4
-1.799, 2.082e-4
-1.800, 2.114e-4
-1.801, 2.147e-4
-1.802, 2.180e-4
-1.803, 2.213e-4
-1.804, 2.247e-4
-1.805, 2.281e-4
-1.806, 2.316e-4
-1.807, 2.351e-4
-1.808, 2.386e-4
-1.809, 2.422e-4
-1.810, 2.458e-4
-1.811, 2.495e-4
-1.812, 2.532e-4
-1.813, 2.570e-4
-1.814, 2.608e-4
-1.815, 2.646e-4
-1.816, 2.685e-4
-1.817, 2.725e-4
-1.818, 2.765e-4
-1.819, 2.806e-4
-1.820, 2.849e-4
-1.821, 2.894e-4
-1.822, 2.937e-4
-1.823, 2.979e-4
-1.824, 3.023e-4
-1.825, 3.075e-4
-1.826, 3.124e-4
-1.827, 3.167e-4
-1.828, 3.211e-4
-1.829, 3.259e-4
-1.830, 3.308e-4
-1.831, 3.357e-4
-1.832, 3.407e-4
-1.833, 3.460e-4
-1.834, 3.513e-4
-1.835, 3.566e-4
-1.836, 3.618e-4
-1.837, 3.674e-4
-1.838, 3.728e-4
-1.839, 3.785e-4
-1.840, 3.841e-4
-1.841, 3.899e-4
-1.842, 3.956e-4
-1.843, 4.016e-4
-1.844, 4.075e-4
-1.845, 4.137e-4
-1.846, 4.199e-4
-1.847, 4.261e-4
-1.848, 4.326e-4
-1.849, 4.390e-4
-1.850, 4.454e-4
-1.851, 4.519e-4
-1.852, 4.584e-4
-1.853, 4.653e-4
-1.854, 4.719e-4
-1.855, 4.789e-4
-1.856, 4.857e-4
-1.857, 4.929e-4
-1.858, 4.999e-4
-1.859, 5.071e-4
-1.860, 5.142e-4
-1.861, 5.216e-4
-1.862, 5.289e-4
-1.863, 5.363e-4
-1.864, 5.438e-4
-1.865, 5.514e-4
-1.866, 5.590e-4
-1.867, 5.667e-4
-1.868, 5.745e-4
-1.869, 5.823e-4
-1.870, 5.903e-4
-1.871, 5.982e-4
-1.872, 6.063e-4
-1.873, 6.143e-4
-1.874, 6.224e-4
-1.875, 6.305e-4
-1.876, 6.388e-4
-1.877, 6.471e-4
-1.878, 6.554e-4
-1.879, 6.638e-4
-1.880, 6.724e-4
-1.881, 6.809e-4
-1.882, 6.895e-4
-1.883, 6.982e-4
-1.884, 7.068e-4
-1.885, 7.156e-4
-1.886, 7.244e-4
-1.887, 7.333e-4
-1.888, 7.421e-4
-1.889, 7.511e-4
-1.890, 7.601e-4
-1.891, 7.692e-4
-1.892, 7.782e-4
-1.893, 7.873e-4
-1.894, 7.965e-4
-1.895, 8.059e-4
-1.896, 8.151e-4
-1.897, 8.244e-4
-1.898, 8.339e-4
-1.899, 8.432e-4
-1.900, 8.527e-4
-1.901, 8.622e-4
-1.902, 8.718e-4
-1.903, 8.814e-4
-1.904, 8.910e-4
-1.905, 9.006e-4
-1.906, 9.104e-4
-1.907, 9.202e-4
-1.908, 9.300e-4
-1.909, 9.398e-4
-1.910, 9.497e-4
-1.911, 9.596e-4
-1.912, 9.695e-4
-1.913, 9.795e-4
-1.914, 9.896e-4
-1.915, 9.998e-4
-1.916, 1.009e-3
-1.917, 1.011e-3
-1.918, 1.011e-3
-1.919, 1.011e-3
-1.920, 1.011e-3
-1.921, 1.011e-3
-1.922, 1.011e-3
-1.923, 1.011e-3
-1.924, 1.011e-3
-1.925, 1.011e-3
-1.926, 1.011e-3
-1.927, 1.011e-3
-1.928, 1.011e-3
-1.929, 1.011e-3
-1.930, 1.011e-3
-1.931, 1.011e-3
-1.932, 1.011e-3
-1.933, 1.011e-3
-1.934, 1.011e-3
-1.935, 1.011e-3
-1.936, 1.011e-3
-1.937, 1.011e-3
-1.938, 1.011e-3
-1.939, 1.011e-3
-1.940, 1.011e-3
-1.941, 1.011e-3
-1.942, 1.011e-3
-1.943, 1.011e-3
-1.944, 1.011e-3
-1.945, 1.011e-3
-1.946, 1.011e-3
-1.947, 1.011e-3
-1.948, 1.011e-3
-1.949, 1.011e-3
-1.950, 1.011e-3
-1.951, 1.011e-3
-1.952, 1.011e-3
-1.953, 1.011e-3
-1.954, 1.011e-3
-1.955, 1.011e-3
-1.956, 1.011e-3
-1.957, 1.011e-3
-1.958, 1.011e-3
-1.959, 1.011e-3
-1.960, 1.011e-3
-1.961, 1.011e-3
-1.962, 1.011e-3
-1.963, 1.011e-3
-1.964, 1.011e-3
-1.965, 1.011e-3
-1.966, 1.011e-3
-1.967, 1.011e-3
-1.968, 1.011e-3
-1.969, 1.011e-3
-1.970, 1.011e-3
-1.971, 1.011e-3
-1.972, 1.011e-3
-1.973, 1.011e-3
-1.974, 1.011e-3
-1.975, 1.011e-3
-1.976, 1.011e-3
-1.977, 1.011e-3
-1.978, 1.011e-3
-1.979, 1.011e-3
-1.980, 1.011e-3
-1.981, 1.011e-3
-1.982, 1.011e-3
-1.983, 1.011e-3
-1.984, 1.011e-3
-1.985, 1.011e-3
-1.986, 1.011e-3
-1.987, 1.011e-3
-1.988, 1.011e-3
-1.989, 1.011e-3
-1.990, 1.011e-3
-1.991, 1.011e-3
-1.992, 1.011e-3
-1.993, 1.011e-3
-1.994, 1.011e-3
-1.995, 1.011e-3
-1.996, 1.011e-3
-1.997, 1.011e-3
-1.998, 1.011e-3
-1.999, 1.011e-3
-2.000, 1.011e-3
-2.001, 1.011e-3
-2.002, 1.011e-3
-2.003, 1.011e-3
-2.004, 1.011e-3
-2.005, 1.011e-3
-2.006, 1.011e-3
-2.007, 1.011e-3
-2.008, 1.011e-3
-2.009, 1.011e-3
-2.010, 1.011e-3
-2.011, 1.011e-3
-2.012, 1.011e-3
-2.013, 1.011e-3
-2.014, 1.011e-3
-2.015, 1.011e-3
-2.016, 1.011e-3
-2.017, 1.011e-3
-2.018, 1.011e-3
-2.019, 1.011e-3
-2.020, 1.011e-3
-2.021, 1.011e-3
-2.022, 1.011e-3
-2.023, 1.011e-3
-2.024, 1.011e-3
-2.025, 1.011e-3
-2.026, 1.011e-3
-2.027, 1.011e-3
-2.028, 1.011e-3
-2.029, 1.011e-3
-2.030, 1.011e-3
-2.031, 1.011e-3
-2.032, 1.011e-3
-2.033, 1.011e-3
-2.034, 1.011e-3
-2.035, 1.011e-3
-2.036, 1.011e-3
-2.037, 1.011e-3
-2.038, 1.011e-3
-2.039, 1.011e-3
-2.040, 1.011e-3
-2.041, 1.011e-3
-2.042, 1.011e-3
-2.043, 1.011e-3
-2.044, 1.011e-3
-2.045, 1.011e-3
-2.046, 1.011e-3
-2.047, 1.011e-3
-2.048, 1.011e-3
-2.049, 1.011e-3
-2.050, 1.011e-3
-2.051, 1.011e-3
-2.052, 1.011e-3
-2.053, 1.011e-3
-2.054, 1.011e-3
-2.055, 1.011e-3
-2.056, 1.011e-3
-2.057, 1.011e-3
-2.058, 1.011e-3
-2.059, 1.011e-3
-2.060, 1.011e-3
-2.061, 1.011e-3
-2.062, 1.011e-3
-2.063, 1.011e-3
-2.064, 1.011e-3
-2.065, 1.011e-3
-2.066, 1.011e-3
-2.067, 1.011e-3
-2.068, 1.011e-3
-2.069, 1.011e-3
-2.070, 1.011e-3
-2.071, 1.011e-3
-2.072, 1.011e-3
-2.073, 1.011e-3
-2.074, 1.011e-3
-2.075, 1.011e-3
-2.076, 1.011e-3
-2.077, 1.011e-3
-2.078, 1.011e-3
-2.079, 1.011e-3
-2.080, 1.011e-3
-2.081, 1.011e-3
-2.082, 1.011e-3
-2.083, 1.011e-3
-2.084, 1.011e-3
-2.085, 1.011e-3
-2.086, 1.011e-3
-2.087, 1.011e-3
-2.088, 1.011e-3
-2.089, 1.011e-3
-2.090, 1.011e-3
-2.091, 1.011e-3
-2.092, 1.011e-3
-2.093, 1.011e-3
-2.094, 1.011e-3
-2.095, 1.011e-3
-2.096, 1.011e-3
-2.097, 1.011e-3
-2.098, 1.011e-3
-2.099, 1.011e-3
-2.100, 1.011e-3
-2.101, 1.011e-3
-2.102, 1.011e-3
-2.103, 1.011e-3
-2.104, 1.011e-3
-2.105, 1.011e-3
-2.106, 1.011e-3
-2.107, 1.011e-3
-2.108, 1.011e-3
-2.109, 1.011e-3
-2.110, 1.011e-3
-2.111, 1.011e-3
-2.112, 1.011e-3
-2.113, 1.011e-3
-2.114, 1.011e-3
-2.115, 1.011e-3
-2.116, 1.011e-3
-2.117, 1.011e-3
-2.118, 1.011e-3
-2.119, 1.011e-3
-2.120, 1.011e-3
-2.121, 1.011e-3
-2.122, 1.011e-3
-2.123, 1.011e-3
-2.124, 1.011e-3
-2.125, 1.011e-3
-2.126, 1.011e-3
-2.127, 1.011e-3
-2.128, 1.011e-3
-2.129, 1.011e-3
-2.130, 1.011e-3
-2.131, 1.011e-3
-2.132, 1.011e-3
-2.133, 1.011e-3
-2.134, 1.011e-3
-2.135, 1.011e-3
-2.136, 1.011e-3
-2.137, 1.011e-3
-2.138, 1.011e-3
-2.139, 1.011e-3
-2.140, 1.011e-3
-2.141, 1.011e-3
-2.142, 1.011e-3
-2.143, 1.011e-3
-2.144, 1.011e-3
-2.145, 1.011e-3
-2.146, 1.011e-3
-2.147, 1.011e-3
-2.148, 1.011e-3
-2.149, 1.011e-3
-2.150, 1.011e-3
-2.151, 1.011e-3
-2.152, 1.011e-3
-2.153, 1.011e-3
-2.154, 1.011e-3
-2.155, 1.011e-3
-2.156, 1.011e-3
-2.157, 1.011e-3
-2.158, 1.011e-3
-2.159, 1.011e-3
-2.160, 1.011e-3
-2.161, 1.011e-3
-2.162, 1.011e-3
-2.163, 1.011e-3
-2.164, 1.011e-3
-2.165, 1.011e-3
-2.166, 1.011e-3
-2.167, 1.011e-3
-2.168, 1.011e-3
-2.169, 1.011e-3
-2.170, 1.011e-3
-2.171, 1.011e-3
-2.172, 1.011e-3
-2.173, 1.011e-3
-2.174, 1.011e-3
-2.175, 1.011e-3
-2.176, 1.011e-3
-2.177, 1.011e-3
-2.178, 1.011e-3
-2.179, 1.011e-3
-2.180, 1.011e-3
-2.181, 1.011e-3
-2.182, 1.011e-3
-2.183, 1.011e-3
-2.184, 1.011e-3
-2.185, 1.011e-3
-2.186, 1.011e-3
-2.187, 1.011e-3
-2.188, 1.011e-3
-2.189, 1.011e-3
-2.190, 1.011e-3
-2.191, 1.011e-3
-2.192, 1.011e-3
-2.193, 1.011e-3
-2.194, 1.011e-3
-2.195, 1.011e-3
-2.196, 1.011e-3
-2.197, 1.011e-3
-2.198, 1.011e-3
-2.199, 1.011e-3
-2.200, 1.011e-3
-2.201, 1.011e-3
-2.202, 1.011e-3
-2.203, 1.011e-3
-2.204, 1.011e-3
-2.205, 1.011e-3
-2.206, 1.011e-3
-2.207, 1.011e-3
-2.208, 1.011e-3
-2.209, 1.011e-3
-2.210, 1.011e-3
-2.211, 1.011e-3
-2.212, 1.011e-3
-2.213, 1.011e-3
-2.214, 1.011e-3
-2.215, 1.011e-3
-2.216, 1.011e-3
-2.217, 1.011e-3
-2.218, 1.011e-3
-2.219, 1.011e-3
-2.220, 1.011e-3
-2.221, 1.011e-3
-2.222, 1.011e-3
-2.223, 1.011e-3
-2.224, 1.011e-3
-2.225, 1.011e-3
-2.226, 1.011e-3
-2.227, 1.011e-3
-2.228, 1.011e-3
-2.229, 1.011e-3
-2.230, 1.011e-3
-2.231, 1.011e-3
-2.232, 1.011e-3
-2.233, 1.011e-3
-2.234, 1.011e-3
-2.235, 1.011e-3
-2.236, 1.011e-3
-2.237, 1.011e-3
-2.238, 1.011e-3
-2.239, 1.011e-3
-2.240, 1.011e-3
-2.241, 1.011e-3
-2.242, 1.011e-3
-2.243, 1.011e-3
-2.244, 1.011e-3
-2.245, 1.011e-3
-2.246, 1.011e-3
-2.247, 1.011e-3
-2.248, 1.011e-3
-2.249, 1.011e-3
-2.250, 1.011e-3
-2.251, 1.011e-3
-2.252, 1.011e-3
-2.253, 1.011e-3
-2.254, 1.011e-3
-2.255, 1.011e-3
-2.256, 1.011e-3
-2.257, 1.011e-3
-2.258, 1.011e-3
-2.259, 1.011e-3
-2.260, 1.011e-3
-2.261, 1.011e-3
-2.262, 1.011e-3
-2.263, 1.011e-3
-2.264, 1.011e-3
-2.265, 1.011e-3
-2.266, 1.011e-3
-2.267, 1.011e-3
-2.268, 1.011e-3
-2.269, 1.011e-3
-2.270, 1.011e-3
-2.271, 1.011e-3
-2.272, 1.011e-3
-2.273, 1.011e-3
-2.274, 1.011e-3
-2.275, 1.011e-3
-2.276, 1.011e-3
-2.277, 1.011e-3
-2.278, 1.011e-3
-2.279, 1.011e-3
-2.280, 1.011e-3
-2.281, 1.011e-3
-2.282, 1.011e-3
-2.283, 1.011e-3
-2.284, 1.011e-3
-2.285, 1.011e-3
-2.286, 1.011e-3
-2.287, 1.011e-3
-2.288, 1.011e-3
-2.289, 1.011e-3
-2.290, 1.011e-3
-2.291, 1.011e-3
-2.292, 1.011e-3
-2.293, 1.011e-3
-2.294, 1.011e-3
-2.295, 1.011e-3
-2.296, 1.011e-3
-2.297, 1.011e-3
-2.298, 1.011e-3
-2.299, 1.011e-3
