Potential V vs RHE, Current mA cm-2
0.05339999999999995,-0.04272428125592411
0.05239999999999995,-0.0560650088136514
0.051399999999999946,-0.06241706255004542
0.050399999999999945,-0.06585481100871747
0.049399999999999944,-0.06844373268747048
0.04839999999999994,-0.07076385921924913
0.04739999999999994,-0.07287177905604804
0.04639999999999994,-0.07472505085887124
0.04539999999999994,-0.07642270441870928
0.04439999999999994,-0.07814865220454463
0.04339999999999994,-0.07970483463439616
0.04239999999999994,-0.08138834108123556
0.04139999999999994,-0.08281719949409926
0.040399999999999936,-0.08423191079396428
0.039399999999999935,-0.08567491631982663
0.038399999999999934,-0.0871037747326903
0.03739999999999993,-0.0884194562415648
0.03639999999999993,-0.08979172620243389
0.03539999999999993,-0.09107911348531106
0.03439999999999993,-0.0923806478811869
0.03339999999999993,-0.09371047650306003
0.03239999999999993,-0.0951110406899264
0.03139999999999993,-0.09646916353779686
0.030399999999999927,-0.09762922680368619
0.029399999999999926,-0.09890246697356471
0.028399999999999925,-0.10017570714344325
0.027399999999999924,-0.10146309442632043
0.026399999999999924,-0.10284951150018817
0.025399999999999923,-0.10405201610507345
0.024399999999999922,-0.10525452070995873
0.02339999999999992,-0.10658434933183186
0.02239999999999992,-0.1078292952757131
0.02139999999999992,-0.10921571234958084
0.020399999999999918,-0.11050309963245801
0.019399999999999917,-0.11169145712434464
0.018399999999999916,-0.11302128574621777
0.017399999999999916,-0.11437940859408821
0.016399999999999915,-0.1156385016509681
0.015399999999999914,-0.11705321295083315
0.014399999999999913,-0.11828401178171571
0.013399999999999912,-0.1196279875165875
0.012399999999999911,-0.12098611036445794
0.01139999999999991,-0.12225935053433647
0.01039999999999991,-0.12364576760820419
0.009399999999999908,-0.12486241932608814
0.008399999999999908,-0.12617810083496261
0.007399999999999907,-0.1276352534738236
0.006399999999999906,-0.12895093498269808
0.005399999999999905,-0.13029491071756988
0.004399999999999904,-0.13170962201743494
0.003399999999999903,-0.1329970093003121
0.002399999999999902,-0.13442586771317577
0.0013999999999999013,-0.13582643190004218
0.00039999999999990044,-0.13719870186091124
-0.0006000000000001005,-0.13859926604777764
-0.0016000000000001013,-0.1399432417826494
-0.0026000000000001022,-0.1414286886475077
-0.003600000000000103,-0.1428858412863687
-0.004600000000000104,-0.14415908145624726
-0.005600000000000105,-0.14557379275611226
-0.006600000000000106,-0.14698850405597733
-0.007600000000000107,-0.14840321535584233
-0.008600000000000108,-0.1499593977856939
-0.009600000000000108,-0.1513741090855589
-0.01060000000000011,-0.15278882038542396
-0.01160000000000011,-0.1543450028152755
-0.012600000000000111,-0.15590118524512703
-0.013600000000000112,-0.1574573676749786
-0.014600000000000113,-0.1588720789748436
-0.015600000000000114,-0.16028679027470866
-0.016600000000000115,-0.1618429727045602
-0.017600000000000116,-0.16325768400442522
-0.018600000000000116,-0.16495533756426325
-0.019600000000000117,-0.16651151999411481
-0.020600000000000118,-0.16792623129397988
-0.02160000000000012,-0.1694824137238314
-0.02260000000000012,-0.17089712502369644
-0.02360000000000012,-0.17245330745354798
-0.024600000000000122,-0.17400948988339954
-0.025600000000000123,-0.17556567231325104
-0.026600000000000124,-0.1771218547431026
-0.027600000000000124,-0.17881950830294063
-0.028600000000000125,-0.1805171618627787
-0.029600000000000126,-0.18207334429263022
-0.030600000000000127,-0.18362952672248176
-0.03160000000000013,-0.18532718028231981
-0.03260000000000013,-0.18702483384215784
-0.03360000000000013,-0.18858101627200938
-0.03460000000000002,-0.19042014096183393
-0.03560000000000002,-0.1919763233916855
-0.03660000000000002,-0.1936739769515235
-0.03760000000000002,-0.19551310164134805
-0.03860000000000002,-0.1972107552011861
-0.039600000000000024,-0.19890840876102414
-0.040600000000000025,-0.20060606232086217
-0.041600000000000026,-0.20216224475071373
-0.04260000000000003,-0.2041428405705248
-0.04360000000000003,-0.20584049413036284
-0.04460000000000003,-0.2075381476902009
-0.04560000000000003,-0.20937727238002546
-0.04660000000000003,-0.21121639706985
-0.04760000000000003,-0.21291405062968802
-0.04860000000000003,-0.21475317531951257
-0.04960000000000003,-0.21659230000933713
-0.050600000000000034,-0.21843142469916169
-0.051600000000000035,-0.2202705493889862
-0.052600000000000036,-0.22225114520879727
-0.053600000000000037,-0.22409026989862182
-0.05460000000000004,-0.22607086571843285
-0.05560000000000004,-0.22776851927827088
-0.05660000000000004,-0.22974911509808196
-0.05760000000000004,-0.231729710917893
-0.05860000000000004,-0.23356883560771755
-0.05960000000000004,-0.23554943142752863
-0.06060000000000004,-0.23738855611735316
-0.061600000000000044,-0.2393691519371642
-0.06260000000000004,-0.24134974775697526
-0.06360000000000005,-0.24333034357678635
-0.06460000000000005,-0.24531093939659734
-0.06560000000000005,-0.2471500640864219
-0.06660000000000005,-0.24927213103621945
-0.06760000000000005,-0.2512527268560305
-0.06860000000000005,-0.2532333226758416
-0.06960000000000005,-0.25535538962563914
-0.07060000000000005,-0.25733598544545017
-0.07160000000000005,-0.25931658126526125
-0.07260000000000005,-0.2615801193450453
-0.07360000000000005,-0.26356071516485635
-0.07460000000000006,-0.2656827821146539
-0.07560000000000006,-0.26780484906445146
-0.07660000000000006,-0.2697854448842625
-0.07760000000000006,-0.27219045409403303
-0.07860000000000006,-0.2741710499138441
-0.07960000000000006,-0.2762931168636417
-0.08060000000000006,-0.27855665494342574
-0.08160000000000006,-0.2806787218932233
-0.08260000000000006,-0.28294225997300737
-0.08360000000000006,-0.28506432692280487
-0.08460000000000006,-0.2871863938726024
-0.08560000000000006,-0.2894499319523865
-0.08660000000000007,-0.2915719989021841
-0.08760000000000007,-0.29397700811195465
-0.08860000000000007,-0.2962405461917387
-0.08960000000000007,-0.29850408427152275
-0.09060000000000007,-0.3007676223513068
-0.09160000000000007,-0.30303116043109085
-0.09260000000000007,-0.30529469851087493
-0.09360000000000007,-0.3076997077206455
-0.09460000000000007,-0.310104716930416
-0.09560000000000007,-0.3122267838802136
-0.09660000000000007,-0.3146317930899841
-0.09760000000000008,-0.3170368022997547
-0.09860000000000008,-0.3194418115095253
-0.09960000000000008,-0.3218468207192958
-0.10060000000000008,-0.32411035879907985
-0.10160000000000008,-0.326656839138837
-0.10260000000000008,-0.3290618483486075
-0.10360000000000008,-0.33146685755837807
-0.10460000000000008,-0.3340133378981352
-0.10560000000000008,-0.3362768759779193
-0.10660000000000008,-0.3388233563176763
-0.10760000000000008,-0.3416527789174064
-0.10860000000000009,-0.34419925925716344
-0.10960000000000009,-0.3464627973369475
-0.11060000000000009,-0.34872633541673154
-0.11160000000000009,-0.3511313446265021
-0.11260000000000009,-0.3536778249662592
-0.11360000000000009,-0.35608283417602976
-0.11460000000000009,-0.3589122567757598
-0.11560000000000009,-0.3614587371155169
-0.11660000000000009,-0.36386374632528745
-0.1176000000000001,-0.366551697795031
-0.1186000000000001,-0.3689567070048016
-0.1196000000000001,-0.3715031873445586
-0.1206000000000001,-0.37419113881430216
-0.1216000000000001,-0.37659614802407276
-0.1226000000000001,-0.37942557062380283
-0.1236000000000001,-0.38197205096355985
-0.1246000000000001,-0.384518531303317
-0.1256000000000001,-0.3872064827730605
-0.1266000000000001,-0.3898944342428041
-0.1276000000000001,-0.39258238571254767
-0.1286000000000001,-0.3951288660523047
-0.1296000000000001,-0.3976753463920618
-0.1306000000000001,-0.40036329786180536
-0.1316000000000001,-0.4030512493315489
-0.1326000000000001,-0.40573920080129255
-0.1336000000000001,-0.40856862340102257
-0.1346000000000001,-0.4111151037407797
-0.1356000000000001,-0.41394452634050977
-0.1366000000000001,-0.4166324778102533
-0.1376000000000001,-0.4193204292799969
-0.1386000000000001,-0.4221498518797269
-0.1396000000000001,-0.4248378033494705
-0.1406000000000001,-0.4276672259492006
-0.14160000000000011,-0.43049664854893066
-0.14260000000000012,-0.43318460001867426
-0.14360000000000012,-0.43601402261840433
-0.14460000000000012,-0.43884344521813434
-0.14560000000000012,-0.44153139668787794
-0.14660000000000012,-0.444360819287608
-0.14760000000000012,-0.44733171301732455
-0.14860000000000012,-0.4501611356170546
-0.14960000000000012,-0.45313202934677127
-0.15060000000000012,-0.4558199808165148
-0.15160000000000012,-0.4586494034162448
-0.15260000000000012,-0.46176176827594795
-0.15360000000000013,-0.46459119087567796
-0.15460000000000013,-0.46742061347540814
-0.15560000000000013,-0.47025003607513816
-0.15660000000000013,-0.4730794586748682
-0.15760000000000013,-0.4761918235345713
-0.15860000000000013,-0.47916271726428794
-0.15960000000000002,-0.4818506687340315
-0.16060000000000002,-0.4845386202037751
-0.16160000000000002,-0.4873680428035051
-0.16260000000000002,-0.49033893653322164
-0.16360000000000002,-0.4933098302629383
-0.16460000000000002,-0.49613925286266836
-0.16560000000000002,-0.4993930888523579
-0.16660000000000003,-0.5027883959720341
-0.16760000000000003,-0.5054763474417775
-0.16860000000000003,-0.5084472411714941
-0.16960000000000003,-0.5114181349012108
-0.17060000000000003,-0.5143890286309274
-0.17160000000000003,-0.5175013934906304
-0.17260000000000003,-0.5206137583503335
-0.17360000000000003,-0.5237261232100366
-0.17460000000000003,-0.5266970169397532
-0.17560000000000003,-0.5298093817994564
-0.17660000000000003,-0.5329217466591593
-0.17760000000000004,-0.5360341115188624
-0.17860000000000004,-0.539287947508552
-0.17960000000000004,-0.5424003123682551
-0.18060000000000004,-0.5455126772279582
-0.18160000000000004,-0.5487665132176478
-0.18260000000000004,-0.5520203492073373
-0.18360000000000004,-0.5552741851970269
-0.18460000000000004,-0.5585280211867165
-0.18560000000000004,-0.561781857176406
-0.18660000000000004,-0.5651771642960822
-0.18760000000000004,-0.5685724714157583
-0.18860000000000005,-0.5718263074054479
-0.18960000000000005,-0.5752216145251239
-0.19060000000000005,-0.5784754505148135
-0.19160000000000005,-0.5818707576344896
-0.19260000000000005,-0.5855490070141387
-0.19360000000000005,-0.5888028430038282
-0.19460000000000005,-0.5920566789935179
-0.19560000000000005,-0.5953105149832074
-0.19660000000000005,-0.5987058221028836
-0.19760000000000005,-0.6022426003525461
-0.19860000000000005,-0.6057793786022087
-0.19960000000000006,-0.6094576279818578
-0.20060000000000006,-0.6128529351015338
-0.20160000000000006,-0.6163897133511964
-0.20260000000000006,-0.619926491600859
-0.20360000000000006,-0.6236047409805081
-0.20460000000000006,-0.6271415192301707
-0.20560000000000006,-0.6308197686098198
-0.20660000000000006,-0.6344980179894689
-0.20760000000000006,-0.6384592096290911
-0.20860000000000006,-0.6422789301387266
-0.20960000000000006,-0.6459571795183757
-0.21060000000000006,-0.6497769000280114
-0.21160000000000007,-0.6537380916676334
-0.21260000000000007,-0.6576992833072556
-0.21360000000000007,-0.6618019460768642
-0.21460000000000007,-0.6656216665864998
-0.21560000000000007,-0.6695828582261218
-0.21660000000000007,-0.6738269921257171
-0.21760000000000007,-0.6783540682852851
-0.21860000000000007,-0.6824567310548937
-0.21960000000000007,-0.6865593938245023
-0.22060000000000007,-0.6906620565941108
-0.22160000000000007,-0.6950476616236926
-0.22260000000000008,-0.6994332666532742
-0.22360000000000008,-0.7038188716828558
-0.22460000000000008,-0.7082044767124374
-0.22560000000000008,-0.7127315528720055
-0.22660000000000008,-0.7172586290315736
-0.22760000000000008,-0.7219271763211282
-0.22860000000000008,-0.7264542524806964
-0.22960000000000008,-0.7312642709002375
-0.23060000000000008,-0.7357913470598055
-0.23160000000000008,-0.7404598943493601
-0.23260000000000008,-0.7452699127689013
-0.23360000000000009,-0.7500799311884424
-0.2346000000000001,-0.75503142073797
-0.2356000000000001,-0.7599829102874976
-0.2366000000000001,-0.7649343998370254
-0.2376000000000001,-0.7703103027765125
-0.2386000000000001,-0.7754032634560265
-0.2396000000000001,-0.7806376952655272
-0.2406000000000001,-0.7861550693350008
-0.2416000000000001,-0.7913895011445016
-0.2426000000000001,-0.7970483463439616
-0.2436000000000001,-0.8027071915434218
-0.2446000000000001,-0.808366036742882
-0.2456000000000001,-0.8140248819423421
-0.2466000000000001,-0.8198251982717888
-0.2476000000000001,-0.8259084568612085
-0.2486000000000001,-0.8319917154506281
-0.2496000000000001,-0.8379335029100613
-0.2506000000000001,-0.8440167614994809
-0.2516000000000001,-0.8503829623488736
-0.2526000000000001,-0.8568906343282527
-0.2536000000000001,-0.8633983063076318
-0.2546000000000001,-0.8700474494169976
-0.2556000000000001,-0.8766965925263633
-0.2566000000000001,-0.8836286778957019
-0.2576000000000001,-0.8905607632650405
-0.2586000000000001,-0.8977757908943523
-0.2596000000000001,-0.9049908185236639
-0.2606000000000001,-0.9122058461529757
-0.2616000000000001,-0.9197038160422604
-0.2626000000000001,-0.927201785931545
-0.2636000000000001,-0.9348412269508163
-0.2646000000000001,-0.9423391968401009
-0.2656000000000001,-0.9499786378593722
-0.2666000000000001,-0.9580424922686028
-0.2676000000000001,-0.9662478178078201
-0.2686000000000001,-0.9744531433470374
-0.2696000000000001,-0.9829414111462275
-0.2706000000000001,-0.9911467366854447
-0.2716000000000001,-0.9996350044846349
-0.2726000000000001,-1.0085476856737847
-0.2736000000000001,-1.0173188957329478
-0.2746000000000001,-1.026373048052084
-0.2756000000000001,-1.0352857292412339
-0.2766000000000001,-1.0449057660803163
-0.2776000000000001,-1.0542428606594254
-0.2786000000000001,-1.063155541848575
-0.2796000000000001,-1.0723511652976978
-0.2806000000000001,-1.0819712021367802
-0.28160000000000013,-1.0917327101058487
-0.28260000000000013,-1.101635689204904
-0.28360000000000013,-1.1113971971739727
-0.2846,-1.1214416474030147
-0.2856,-1.1316275687620427
-0.2866,-1.1416720189910845
-0.2876,-1.1519994114800993
-0.2886,-1.1623268039691141
-0.2896,-1.1725127253281424
-0.2906,-1.1829815889471438
-0.2916,-1.1935919236961314
-0.2926,-1.204202258445119
-0.2936,-1.2148125931941072
-0.29460000000000003,-1.2254229279430946
-0.29560000000000003,-1.236174733822069
-0.29660000000000003,-1.2469265397010434
-0.29760000000000003,-1.2576783455800176
-0.29860000000000003,-1.2685716225889785
-0.29960000000000003,-1.279464899597939
-0.30060000000000003,-1.290075234346927
-0.30160000000000003,-1.3011099824858743
-0.30260000000000004,-1.3121447306248215
-0.30360000000000004,-1.3230380076337822
-0.30460000000000004,-1.333931284642743
-0.30560000000000004,-1.344824561651704
-0.30660000000000004,-1.3560007809206376
-0.30760000000000004,-1.3671770001895716
-0.30860000000000004,-1.3780702771985323
-0.30960000000000004,-1.3891050253374793
-0.31060000000000004,-1.3999983023464404
-0.31160000000000004,-1.411174521615374
-0.31260000000000004,-1.421784856364362
-0.31360000000000005,-1.433102546763282
-0.31460000000000005,-1.4444202371622026
-0.31560000000000005,-1.4557379275611226
-0.31660000000000005,-1.4656409066601779
-0.31760000000000005,-1.4769585970590984
-0.31860000000000005,-1.4882762874580184
-0.31960000000000005,-1.499593977856939
-0.32060000000000005,-1.5094969569559942
-0.32160000000000005,-1.5208146473549145
-0.32260000000000005,-1.5307176264539697
-0.32360000000000005,-1.54203531685289
-0.32460000000000006,-1.5519382959519452
-0.32560000000000006,-1.5632559863508655
-0.32660000000000006,-1.5745736767497858
-0.32760000000000006,-1.584476655848841
-0.32860000000000006,-1.5957943462477613
-0.32960000000000006,-1.6056973253468165
-0.33060000000000006,-1.6156003044458718
-0.33160000000000006,-1.6255032835449272
-0.33260000000000006,-1.6354062626439825
-0.33360000000000006,-1.6467239530429028
-0.33460000000000006,-1.656626932141958
-0.33560000000000006,-1.6665299112410132
-0.33660000000000007,-1.6764328903400685
-0.33760000000000007,-1.6863358694391237
-0.33860000000000007,-1.696238848538179
-0.33960000000000007,-1.7061418276372344
-0.34060000000000007,-1.7146300954364246
-0.34160000000000007,-1.7245330745354797
-0.34260000000000007,-1.734436053634535
-0.34360000000000007,-1.7429243214337253
-0.3446000000000001,-1.7528273005327806
-0.3456000000000001,-1.7613155683319706
-0.3466000000000001,-1.771218547431026
-0.34759999999999996,-1.779706815230216
-0.3486000000000001,-1.7881950830294064
-0.34959999999999997,-1.7966833508285964
-0.3506000000000001,-1.8051716186277869
-0.35159999999999997,-1.815074597726842
-0.3526000000000001,-1.823562865526032
-0.35359999999999997,-1.8306364220253575
-0.3546000000000001,-1.8391246898245475
-0.35559999999999997,-1.847612957623738
-0.3566000000000001,-1.8561012254229279
-0.3576,-1.8645894932221183
-0.3586000000000001,-1.8716630497214433
-0.3596,-1.8801513175206337
-0.3606000000000001,-1.8872248740199586
-0.3616,-1.895713141819149
-0.3626000000000001,-1.9027866983184742
-0.3636,-1.9112749661176645
-0.3646000000000001,-1.9183485226169896
-0.3656,-1.925422079116315
-0.3666000000000001,-1.9324956356156402
-0.3676,-1.9395691921149654
-0.3686000000000001,-1.9466427486142908
-0.3696,-1.9537163051136157
-0.3706000000000001,-1.9607898616129409
-0.3716,-1.967863418112266
-0.3726000000000001,-1.9749369746115912
-0.3736,-1.9820105311109162
-0.3746000000000001,-1.9890840876102414
-0.3756,-1.9961576441095665
-0.3766000000000001,-2.0032312006088917
-0.3776,-2.0103047571082175
-0.3786000000000001,-2.0159636023076772
-0.3796,-2.023037158807002
-0.3806000000000001,-2.0301107153063276
-0.3816,-2.0357695605057877
-0.3826000000000001,-2.042843117005113
-0.3836,-2.049916673504438
-0.3846000000000001,-2.0569902300037635
-0.3856,-2.0626490752032236
-0.3866000000000001,-2.0697226317025486
-0.3876,-2.076796188201874
-0.3886000000000001,-2.083869744701199
-0.3896,-2.0909433012005243
-0.3906000000000001,-2.0980168576998492
-0.3916,-2.10367570289931
-0.3926000000000001,-2.110749259398635
-0.3936,-2.11782281589796
-0.3946000000000001,-2.124896372397285
-0.3956,-2.13196992889661
-0.3966000000000001,-2.1390434853959355
-0.3976,-2.1475317531951257
-0.3986000000000001,-2.1546053096944506
-0.3996,-2.161678866193776
-0.4006000000000001,-2.1687524226931014
-0.4016,-2.177240690492291
-0.4026000000000001,-2.184314246991617
-0.4036,-2.192802514790807
-0.4046000000000001,-2.199876071290132
-0.4056,-2.208364339089322
-0.40660000000000013,-2.216852606888512
-0.4076,-2.225340874687703
-0.40860000000000013,-2.2338291424868926
-0.4096,-2.2409026989862184
-0.41060000000000013,-2.250805678085273
-0.4116,-2.2592939458844636
-0.41260000000000013,-2.2677822136836534
-0.4136,-2.276270481482844
-0.41460000000000014,-2.284758749282034
-0.4156,-2.2946617283810897
-0.41660000000000014,-2.30314999618028
-0.4176,-2.3130529752793345
-0.41860000000000014,-2.321541243078525
-0.41960000000000003,-2.33144422217758
-0.42060000000000014,-2.3413472012766356
-0.42160000000000003,-2.351250180375691
-0.42260000000000014,-2.361153159474746
-0.42360000000000003,-2.3710561385738016
-0.42460000000000014,-2.380959117672857
-0.42560000000000003,-2.3908620967719116
-0.42660000000000015,-2.4007650758709675
-0.42760000000000004,-2.4106680549700226
-0.42860000000000015,-2.4219857453689424
-0.42960000000000004,-2.4318887244679983
-0.43060000000000015,-2.4432064148669186
-0.43160000000000004,-2.4531093939659736
-0.43260000000000015,-2.464427084364894
-0.43360000000000004,-2.475744774763814
-0.43460000000000015,-2.4870624651627344
-0.43560000000000004,-2.4983801555616547
-0.43660000000000015,-2.509697845960575
-0.43760000000000004,-2.5210155363594953
-0.43860000000000016,-2.532333226758415
-0.43960000000000005,-2.545065628457201
-0.44060000000000016,-2.5563833188561214
-0.44160000000000005,-2.5691157205549064
-0.44260000000000016,-2.5804334109538267
-0.44360000000000005,-2.5931658126526123
-0.44460000000000016,-2.6058982143513973
-0.44560000000000005,-2.618630616050183
