Potential V vs RHE, Current mA cm-2
0.4132999999999999,0.008793845439961067
0.4122999999999999,0.007161268599916816
0.4112999999999999,0.006493524866380518
0.4102999999999999,0.006074770321620467
0.4092999999999999,0.005705530672355693
0.4082999999999999,0.005371658805587544
0.4072999999999999,0.005125499039411028
0.4062999999999999,0.004920365900930597
0.4052999999999999,0.004698256226851787
0.4042999999999999,0.00446341415107419
0.4032999999999999,0.00423847505439565
0.4022999999999999,0.004070124409711711
0.4012999999999999,0.003920165011926016
0.4002999999999999,0.0037702056141403232
0.3992999999999999,0.003586293145157868
0.3982999999999999,0.003389648274476628
0.3972999999999999,0.0032665683913883697
0.3962999999999999,0.003150562064799437
0.3952999999999999,0.003031726315610774
0.3942999999999999,0.0028605462483271044
0.39329999999999987,0.0026893661810434345
0.39229999999999987,0.002577603988354097
0.39129999999999987,0.0024644270843648943
0.39029999999999987,0.0023639825820744764
0.38929999999999987,0.0022182673181883775
0.38829999999999987,0.0020612343639033583
0.38729999999999987,0.001970692840711996
0.38629999999999987,0.001854686514123063
0.38529999999999986,0.0017599008570321057
0.38429999999999986,0.0016453092417430377
0.38329999999999986,0.001498179266557074
0.38229999999999986,0.0014127307040452256
0.38129999999999986,0.0013346386402926756
0.38029999999999986,0.001229950004102663
0.37929999999999986,0.001121017234013055
0.37829999999999986,0.0009772825659467672
0.37729999999999986,0.000904707876263691
0.37629999999999986,0.0008377920317800747
0.37529999999999986,0.0007497969889284694
0.37429999999999986,0.0006465230640383218
0.37329999999999985,0.000501373684672169
0.37229999999999985,0.00042879899498909257
0.37129999999999985,0.00036598581327508496
0.37029999999999985,0.00028223490432307483
0.36929999999999985,0.00018179040203265723
0.36829999999999985,7.844574157751628e-05
0.36729999999999985,-8.09497805782774e-06
0.36629999999999985,-5.6942129819567725e-05
0.36529999999999985,-0.00013790605751084377
0.36429999999999985,-0.0002397935653271237
0.36329999999999985,-0.00032495918557899894
0.36229999999999984,-0.0003891870785928716
0.36129999999999984,-0.00045327350047675777
0.36029999999999984,-0.0005315070353592942
0.35929999999999984,-0.0006292635861799683
0.35829999999999984,-0.0007449869705089283
0.35729999999999984,-0.0008148737087222611
0.35629999999999984,-0.0008762721791364037
0.35529999999999984,-0.0009209770562121388
0.35429999999999984,-0.0010060012053340276
0.35329999999999984,-0.0011023430448548366
0.35229999999999984,-0.0011511505847001803
0.35129999999999983,-0.0012015143069753756
0.35029999999999983,-0.0012419750501515155
0.34929999999999983,-0.0013438342637417985
0.34829999999999983,-0.0014444202371622023
0.34729999999999983,-0.0015109116682558593
0.34629999999999983,-0.0015505235846520803
0.34529999999999983,-0.0015943796349478963
0.34429999999999983,-0.0016721887564404734
0.3432999999999998,-0.0017613155683319707
0.3422999999999998,-0.0017938539282288664
0.3412999999999998,-0.0018405394011244127
0.3402999999999998,-0.0019070308322180693
0.3392999999999998,-0.001972107552011861
0.3382999999999998,-0.0020711373430024136
0.3372999999999998,-0.0021121639706984997
0.3362999999999998,-0.0021531905983945858
0.3352999999999998,-0.002202705493889862
0.3342999999999998,-0.002274855770182979
0.3332999999999998,-0.0023611531594747463
0.3322999999999998,-0.0024163269001694827
0.3312999999999998,-0.002441791703567053
0.3302999999999998,-0.0024828183312631397
0.3292999999999998,-0.0025648715866553114
0.3282999999999998,-0.002648339553347349
0.3272999999999998,-0.0026992691601424898
0.3262999999999998,-0.0027190751183406004
0.3252999999999999,-0.0027601017460366865
0.3242999999999999,-0.002846399135328454
0.3232999999999999,-0.0029185494116215705
0.3222999999999999,-0.0029751378636161717
0.3212999999999999,-0.0030006026670137426
0.3202999999999999,-0.003045873428609424
0.3192999999999999,-0.0031180237049025406
0.3182999999999999,-0.003200076960294713
0.3172999999999999,-0.0032184682071929585
0.3162999999999999,-0.0032609095461889094
0.3152999999999999,-0.003306180307784591
0.3142999999999999,-0.0033868188518768974
0.3132999999999999,-0.0034533102829705548
0.3122999999999999,-0.0034787750863681252
0.3112999999999999,-0.0035113134462650213
0.3102999999999999,-0.003543851806161917
0.3092999999999999,-0.003628734484153819
0.3082999999999999,-0.003690981781347881
0.3072999999999999,-0.0037291789864442367
0.3062999999999999,-0.0037673761915405926
0.3052999999999999,-0.0037928409949381636
0.3042999999999999,-0.003863576559931415
0.3032999999999999,-0.003956947505722507
0.3022999999999999,-0.003983827020419943
0.3012999999999999,-0.004005047689917919
0.3002999999999999,-0.00403334191591522
0.2992999999999999,-0.004105492192208337
0.2982999999999999,-0.004186130736300643
0.2972999999999999,-0.004205936694498754
0.2962999999999999,-0.0042512074560944356
0.2952999999999999,-0.004278086970791871
0.2942999999999999,-0.004330431288886877
0.2932999999999999,-0.004411069832979184
0.2922999999999999,-0.004454925883275
0.2912999999999999,-0.00446341415107419
0.2902999999999999,-0.004490293665771627
0.2892999999999999,-0.004559614519465014
0.2882999999999999,-0.004613373548859884
0.2872999999999999,-0.004662888444355161
0.2862999999999999,-0.004662888444355161
0.2852999999999999,-0.004686938536452867
0.2842999999999999,-0.004763332946645578
0.2832999999999999,-0.00484538620203775
0.2822999999999999,-0.004862362737636131
0.2812999999999999,-0.004884998118433972
0.2802999999999999,-0.004921780612230462
0.2792999999999999,-0.004967051373826145
0.2782999999999999,-0.00505051934051818
0.2772999999999999,-0.0050901312569144016
0.2762999999999999,-0.0051155960603119725
0.2752999999999999,-0.005139646152409678
0.2742999999999999,-0.00521321114000266
0.2732999999999999,-0.005283946704995912
0.2722999999999999,-0.005288190838895508
0.2712999999999999,-0.005295264395394832
0.2702999999999999,-0.005322143910092268
0.2692999999999999,-0.0053858059185861945
0.26829999999999987,-0.005449467927080121
0.26729999999999987,-0.005456541483579447
0.26629999999999987,-0.005487665132176478
0.26529999999999987,-0.005513129935574048
0.26429999999999987,-0.0055739625214682445
0.26329999999999987,-0.005646112797761361
0.26229999999999987,-0.005651771642960822
0.26129999999999987,-0.005653186354260687
0.26029999999999986,-0.005685724714157583
0.25929999999999986,-0.005739483743552453
0.25829999999999986,-0.005827195844144086
0.25729999999999986,-0.0058441723797424665
0.25629999999999986,-0.005856904781441252
0.25529999999999986,-0.005876710739639361
0.25429999999999986,-0.005930469769034234
0.25329999999999986,-0.0059884729323287
0.25229999999999986,-0.006013937735726271
0.25129999999999986,-0.0060365731165241115
0.25029999999999986,-0.006062037919921682
0.24929999999999986,-0.006132773484914935
0.24829999999999985,-0.006186532514309805
0.24729999999999985,-0.006206338472507916
0.24629999999999985,-0.006206338472507916
0.24529999999999985,-0.0062643416358023835
0.24429999999999985,-0.006330833066896039
0.24329999999999985,-0.00637044498329226
0.24229999999999985,-0.006383177384991045
0.24129999999999985,-0.006402983343189157
0.24029999999999985,-0.006412886322288211
0.23929999999999985,-0.006480792464681733
0.23829999999999985,-0.00654728389577539
0.23729999999999984,-0.006551528029674985
0.23629999999999984,-0.00657557812177269
0.23529999999999984,-0.006582651678272016
0.23429999999999984,-0.006656216665864997
0.23329999999999984,-0.006717049251759194
0.23229999999999984,-0.006729781653457979
0.23129999999999984,-0.00675241703425582
0.23029999999999984,-0.006766564147254471
0.22929999999999984,-0.006821737887949208
0.22829999999999984,-0.006891058741642593
0.22729999999999984,-0.006896717586842053
0.22629999999999983,-0.0069151088337402996
0.22529999999999983,-0.0069448177710374655
0.22429999999999983,-0.006997162089132472
0.22329999999999983,-0.0070650682315259936
0.22229999999999983,-0.007084874189724104
0.22129999999999983,-0.007072141788025317
0.22029999999999983,-0.007118827260920864
0.21929999999999983,-0.007165512733816412
0.21829999999999983,-0.007237663010109528
0.21729999999999983,-0.007237663010109528
0.21629999999999983,-0.007251810123108177
0.21529999999999982,-0.0072786896378056135
0.21429999999999982,-0.0073197162655017
0.21329999999999982,-0.007393281253094681
0.21229999999999982,-0.007421575479091983
0.21129999999999982,-0.007421575479091983
0.21029999999999982,-0.007435722592090633
0.20929999999999982,-0.0074880669101856385
0.20829999999999982,-0.0075404112282806465
0.20729999999999982,-0.007580023144676867
0.20629999999999982,-0.007592755546375651
0.20529999999999982,-0.0076168056384733574
0.20429999999999982,-0.007670564667868229
0.20329999999999981,-0.007714420718164045
0.2022999999999998,-0.007754032634560265
0.2012999999999998,-0.007758276768459861
0.20029999999999992,-0.007776668015358107
0.19929999999999992,-0.007833256467352709
0.19829999999999992,-0.00789267434194704
0.19729999999999992,-0.007923797990544072
0.19629999999999992,-0.007923797990544072
0.19529999999999992,-0.007942189237442316
0.19429999999999992,-0.008044048451032598
0.19329999999999992,-0.00812044286122531
0.19229999999999992,-0.008110539882126256
0.19129999999999991,-0.00811195459342612
0.1902999999999999,-0.008127516417724636
0.1892999999999999,-0.008185519581019101
0.1882999999999999,-0.008256255146012354
0.1872999999999999,-0.008270402259011005
0.1862999999999999,-0.008287378794609385
0.1852999999999999,-0.008295867062408575
0.1842999999999999,-0.008335478978804796
0.1832999999999999,-0.008414702811597239
0.1822999999999999,-0.008414702811597239
0.1812999999999999,-0.008428849924595888
0.1802999999999999,-0.008467047129692245
0.1792999999999999,-0.008509488468688197
0.1782999999999999,-0.008573150477182122
0.1772999999999999,-0.00859720056927983
0.1762999999999999,-0.008604274125779151
0.1752999999999999,-0.008626909506576994
0.1742999999999999,-0.00868491266987146
0.1732999999999999,-0.008745745255765656
0.1722999999999999,-0.008768380636563497
0.1712999999999999,-0.008768380636563497
0.1702999999999999,-0.008803748419060124
0.1692999999999999,-0.008864581004954318
0.1682999999999999,-0.008933901858647708
0.1672999999999999,-0.008970684352444197
0.1662999999999999,-0.008967854929844466
0.1652999999999999,-0.008972099063744063
0.1642999999999999,-0.009041419917437449
0.1632999999999999,-0.00908952010163286
0.1622999999999999,-0.009120643750229892
0.1612999999999999,-0.00911498490503043
0.1602999999999999,-0.009150352687527057
0.1592999999999999,-0.009206941139521658
0.15829999999999989,-0.00927201785931545
0.15729999999999988,-0.009296067951413156
0.15629999999999988,-0.009313044487011536
0.15529999999999988,-0.009330021022609917
0.15429999999999988,-0.009383780052004787
0.15329999999999988,-0.00943470965879993
0.15229999999999988,-0.0094601744621975
0.15129999999999988,-0.009484224554295205
0.15029999999999988,-0.009487053976894935
0.14929999999999988,-0.009545057140189403
0.14829999999999988,-0.009610133859983196
0.14729999999999988,-0.009628525106881438
0.14629999999999987,-0.009649745776379415
0.14529999999999987,-0.0096624781780782
0.14429999999999987,-0.009720481341372666
0.14329999999999987,-0.009799705174165108
0.14229999999999987,-0.009829414111462275
0.14129999999999987,-0.009843561224460924
0.14029999999999987,-0.009857708337459577
0.13929999999999987,-0.009895905542555932
0.13829999999999987,-0.009963811684949454
0.13729999999999987,-0.00999069119964689
0.13629999999999987,-0.009997764756146214
0.13529999999999986,-0.010031717827342976
0.13429999999999986,-0.010082647434138114
0.13329999999999986,-0.010134991752233124
0.13229999999999986,-0.010153382999131369
0.13129999999999986,-0.010168944823429884
0.13029999999999986,-0.010204312605926509
0.12929999999999986,-0.010253827501421786
0.12829999999999986,-0.010306171819516792
0.12729999999999986,-0.010340124890713552
0.12629999999999986,-0.010354272003712204
0.12529999999999986,-0.010368419116710855
0.12429999999999986,-0.010429251702605051
0.12329999999999985,-0.010528281493595602
0.12229999999999985,-0.010548087451793715
0.12129999999999985,-0.01057779638909088
0.12029999999999985,-0.01057213754389142
0.11929999999999985,-0.01063155541848575
0.11829999999999985,-0.010698046849579406
0.11729999999999985,-0.010737658765975629
0.11629999999999985,-0.010741902899875222
0.11529999999999985,-0.010757464724173738
0.11429999999999985,-0.010823956155267395
0.11329999999999985,-0.010901765276759973
0.11229999999999984,-0.010918741812358352
0.11129999999999984,-0.010948450749655518
0.11029999999999984,-0.010958353728754575
0.10929999999999984,-0.01100786862424985
0.10829999999999984,-0.011068701210144046
0.10729999999999984,-0.011084263034442562
0.10629999999999984,-0.011113971971739729
0.10529999999999984,-0.011142266197737028
0.10429999999999984,-0.01121300176273028
0.10329999999999984,-0.011300713863321913
0.10229999999999984,-0.011306372708521374
0.10129999999999983,-0.011312031553720835
0.10029999999999983,-0.011365790583115706
0.09929999999999983,-0.011416720189910844
0.09829999999999983,-0.011493114600103558
0.09729999999999983,-0.011511505847001804
0.09629999999999983,-0.011519994114800992
0.09529999999999983,-0.011551117763398025
0.09429999999999983,-0.01161760919449168
0.09329999999999983,-0.011681271202985608
0.09229999999999983,-0.011713809562882503
0.09129999999999983,-0.011742103788879804
0.09029999999999982,-0.01176898330357724
0.08929999999999982,-0.011822742332972112
0.08829999999999982,-0.011900551454464687
0.08729999999999982,-0.0119203574126628
0.08629999999999982,-0.01192601625786226
0.08529999999999982,-0.01197411644205767
0.08429999999999982,-0.012023631337552947
0.08329999999999982,-0.01210285517034539
0.08229999999999982,-0.012132564107642555
0.08129999999999982,-0.01215378477714053
0.08029999999999982,-0.012180664291837964
0.07929999999999982,-0.012240082166432296
0.07829999999999981,-0.012310817731425549
0.07729999999999981,-0.012357503204321095
0.07629999999999981,-0.01237872387381907
0.07529999999999992,-0.012397115120717317
0.07429999999999992,-0.012473509530910027
0.07329999999999992,-0.012545659807203145
0.07229999999999992,-0.012565465765401256
0.07129999999999992,-0.012612151238296801
0.07029999999999992,-0.012624883639995588
0.06929999999999992,-0.012678642669390458
0.06829999999999992,-0.012767769481281955
0.06729999999999992,-0.012781916594280606
0.06629999999999991,-0.012830016778476018
0.06529999999999991,-0.012869628694872239
0.06429999999999991,-0.012924802435566976
0.06329999999999991,-0.013008270402259013
0.06229999999999991,-0.013032320494356717
0.06129999999999991,-0.013063444142953748
0.06029999999999991,-0.01308325010115186
0.05929999999999991,-0.013152570954845245
0.05829999999999991,-0.013227550653738094
0.05729999999999991,-0.013264333147534583
0.056299999999999906,-0.01328555381703256
0.055299999999999905,-0.013327995156028512
0.054299999999999904,-0.013400145432321627
0.0532999999999999,-0.013469466286015013
0.0522999999999999,-0.013521810604110021
0.0512999999999999,-0.013535957717108672
0.0502999999999999,-0.013574154922205027
0.0492999999999999,-0.013632158085499493
0.0482999999999999,-0.013711381918291935
0.0472999999999999,-0.013760896813787213
0.0462999999999999,-0.013766555658986672
0.045299999999999896,-0.013799094018883568
0.044299999999999895,-0.01390095323247385
0.043299999999999894,-0.013958956395768317
0.04229999999999989,-0.014002812446064133
0.04129999999999989,-0.01403818022856076
0.04029999999999989,-0.01410608637095428
0.03929999999999989,-0.014161260111649017
0.03829999999999989,-0.014231995676642267
0.03729999999999989,-0.01427443701563822
0.03629999999999989,-0.014288584128636872
0.03529999999999989,-0.014331025467632824
0.034299999999999886,-0.014387613919627423
0.033299999999999885,-0.014472496597619325
0.032299999999999884,-0.014514937936615275
0.031299999999999883,-0.014529085049613928
0.030299999999999883,-0.014571526388609878
0.02929999999999988,-0.01465640906660178
0.02829999999999988,-0.014755438857592333
0.02729999999999988,-0.014769585970590984
0.02629999999999988,-0.014826174422585584
0.025299999999999878,-0.014840321535584235
0.024299999999999877,-0.014911057100577486
0.023299999999999876,-0.01501008689156804
0.022299999999999875,-0.01505252823056399
0.021299999999999875,-0.015066675343562642
0.020299999999999874,-0.015123263795557243
0.019299999999999873,-0.015179852247551842
0.018299999999999872,-0.015264734925543746
0.01729999999999987,-0.015321323377538347
0.01629999999999987,-0.015335470490536997
0.01529999999999987,-0.015377911829532949
0.014299999999999868,-0.01543450028152755
0.013299999999999867,-0.015519382959519455
0.012299999999999978,-0.015575971411514053
0.011299999999999866,-0.015575971411514053
0.010299999999999976,-0.015632559863508654
0.009299999999999864,-0.01568914831550326
0.008299999999999974,-0.01580232521949246
0.007299999999999862,-0.01581647233249111
0.006299999999999972,-0.01583061944548976
0.00529999999999986,-0.015873060784485714
0.0042999999999999705,-0.015943796349478963
0.0032999999999998586,-0.016014531914472215
0.0022999999999999687,-0.016071120366466816
0.0012999999999998568,-0.016099414592464115
0.00029999999999996696,-0.01614185593146007
-0.000700000000000145,-0.016212591496453318
-0.0017000000000000348,-0.01629747417444522
-0.0027000000000001467,-0.016325768400442524
-0.0037000000000000366,-0.016368209739438477
-0.0047000000000001485,-0.016396503965435776
-0.005700000000000038,-0.01646723953042903
-0.00670000000000015,-0.01656626932141958
-0.00770000000000004,-0.01658041643441823
-0.008700000000000152,-0.016637004886412832
-0.009700000000000042,-0.01666529911241013
-0.010700000000000154,-0.016764328903400686
-0.011700000000000044,-0.016863358694391237
-0.012700000000000156,-0.01687750580738989
-0.013700000000000045,-0.01691994714638584
-0.014700000000000157,-0.016962388485381792
-0.015700000000000047,-0.017018976937376393
-0.01670000000000016,-0.017103859615368294
-0.01770000000000005,-0.017146300954364244
-0.01870000000000016,-0.017174595180361543
-0.01970000000000005,-0.017202889406358845
-0.020700000000000163,-0.017273624971352097
-0.021700000000000053,-0.017358507649344
-0.022700000000000164,-0.0173868018753413
-0.023700000000000054,-0.017429243214337253
-0.024700000000000166,-0.01748583166633185
-0.025700000000000056,-0.017542420118326456
-0.026700000000000168,-0.017613155683319705
-0.027700000000000058,-0.01765559702231566
-0.02870000000000017,-0.01768389124831296
-0.02970000000000006,-0.01772633258730891
-0.03070000000000017,-0.017797068152302163
-0.03170000000000006,-0.017881950830294063
-0.03270000000000017,-0.017910245056291362
-0.03370000000000006,-0.017924392169290013
-0.034700000000000175,-0.017966833508285963
-0.035700000000000065,-0.018065863299276518
-0.03670000000000018,-0.01813659886426977
-0.03770000000000007,-0.01816489309026707
-0.03870000000000018,-0.01820733442926302
-0.03970000000000007,-0.018235628655260322
-0.04070000000000018,-0.018306364220253574
-0.04170000000000007,-0.018377099785246823
-0.04270000000000018,-0.018433688237241428
-0.04370000000000007,-0.01849027668923603
-0.044700000000000184,-0.01851857091523333
-0.045700000000000074,-0.01858930648022658
-0.046700000000000186,-0.018660042045219833
-0.047700000000000076,-0.018674189158218484
-0.04870000000000019,-0.018730777610213082
-0.04970000000000008,-0.018730777610213082
-0.05070000000000019,-0.018815660288204986
-0.05170000000000008,-0.018886395853198238
-0.05270000000000019,-0.01891469007919554
-0.05370000000000008,-0.018957131418191494
-0.05470000000000019,-0.018999572757187444
-0.05570000000000008,-0.019056161209182042
-0.056700000000000195,-0.019141043887173945
-0.057700000000000085,-0.019169338113171244
-0.058700000000000196,-0.019197632339168547
-0.059700000000000086,-0.01922592656516585
-0.0607000000000002,-0.01928251501716045
-0.06170000000000009,-0.019395691921149656
