Potential V vs RHE, Current mA cm-2
0.4132999999999999,-0.004976954352925199
0.4122999999999999,-0.006489280732480923
0.4112999999999999,-0.007052335829827208
0.4102999999999999,-0.0073211309768015645
0.4092999999999999,-0.007495140466684964
0.4082999999999999,-0.007639441019271198
0.4072999999999999,-0.007809206375255002
0.4062999999999999,-0.00794077452614245
0.4052999999999999,-0.008032730760633678
0.4042999999999999,-0.008093563346527874
0.4032999999999999,-0.008152981221122206
0.4022999999999999,-0.00826049927991195
0.4012999999999999,-0.008376505606500884
0.4002999999999999,-0.008445826460194268
0.3992999999999999,-0.008506659046088464
0.3982999999999999,-0.008568906343282527
0.3972999999999999,-0.008633983063076318
0.3962999999999999,-0.008742915833165926
0.3952999999999999,-0.008765551213963767
0.3942999999999999,-0.008803748419060124
0.39329999999999987,-0.00884194562415648
0.39229999999999987,-0.008911266477849865
0.39129999999999987,-0.009008881557540553
0.39029999999999987,-0.009031516938338395
0.38929999999999987,-0.009066884720835021
0.38829999999999987,-0.00910366721463151
0.38729999999999987,-0.009148937976227192
0.38629999999999987,-0.00925504132371707
0.38529999999999986,-0.009290409106213695
0.38429999999999986,-0.009303141507912482
0.38329999999999986,-0.009344168135608568
0.38229999999999986,-0.009385194763304653
0.38129999999999986,-0.009453100905698175
0.38029999999999986,-0.009501201089893585
0.37929999999999986,-0.009506859935093048
0.37829999999999986,-0.009543642428889536
0.37729999999999986,-0.009581839633985893
0.37629999999999986,-0.009658234044178605
0.37529999999999986,-0.009709163650973747
0.37429999999999986,-0.009711993073573478
0.37329999999999985,-0.009755849123869294
0.37229999999999985,-0.009794046328965649
0.37129999999999985,-0.009849220069660386
0.37029999999999985,-0.009894490831256066
0.36929999999999985,-0.009895905542555932
0.36829999999999985,-0.009932688036352423
0.36729999999999985,-0.009982202931847697
0.36629999999999985,-0.010057182630740546
0.36529999999999985,-0.010091135701937308
0.36429999999999985,-0.010112356371435281
0.36329999999999985,-0.010136406463532989
0.36229999999999984,-0.010187336070328129
0.36129999999999984,-0.010250998078822056
0.36029999999999984,-0.010266559903120571
0.35929999999999984,-0.01027221874832003
0.35829999999999984,-0.010292024706518141
0.35729999999999984,-0.010334466045514093
0.35629999999999984,-0.01042642228000532
0.35529999999999984,-0.010433495836504644
0.35429999999999984,-0.01044905766080316
0.35329999999999984,-0.010477351886800462
0.35229999999999984,-0.010515549091896819
0.35129999999999983,-0.0105891140794898
0.35029999999999983,-0.010601846481188585
0.34929999999999983,-0.010601846481188585
0.34829999999999983,-0.01063155541848575
0.34729999999999983,-0.010703705694778867
0.34629999999999983,-0.01076595299197293
0.34529999999999983,-0.010788588372770769
0.34429999999999983,-0.010773026548472254
0.3432999999999998,-0.01080556490836915
0.3422999999999998,-0.010846591536065237
0.3412999999999998,-0.010917327101058487
0.3402999999999998,-0.010930059502757274
0.3392999999999998,-0.010941377193156193
0.3382999999999998,-0.010958353728754575
0.3372999999999998,-0.01099655093385093
0.3362999999999998,-0.011071530632743777
0.3352999999999998,-0.011111142549139998
0.3342999999999998,-0.011111142549139998
0.3332999999999998,-0.011116801394339458
0.3322999999999998,-0.011171975135034195
0.3312999999999998,-0.011222904741829336
0.3302999999999998,-0.011252613679126503
0.3292999999999998,-0.011272419637324612
0.3282999999999998,-0.011269590214724881
0.3272999999999998,-0.011331837511918944
0.3262999999999998,-0.011385596541313816
0.3252999999999999,-0.011415305478610981
0.3242999999999999,-0.011430867302909497
0.3232999999999999,-0.011453502683707338
0.3222999999999999,-0.011491699888803693
0.3212999999999999,-0.011565264876396674
0.3202999999999999,-0.011579411989395324
0.3192999999999999,-0.011582241411995054
0.3182999999999999,-0.011599217947593436
0.3172999999999999,-0.011645903420488983
0.3162999999999999,-0.011715224274182368
0.3152999999999999,-0.01173220080978075
0.3142999999999999,-0.011749177345379131
0.3132999999999999,-0.011756250901878453
0.3122999999999999,-0.011793033395674947
0.3112999999999999,-0.011875086651067117
0.3102999999999999,-0.011880745496266578
0.3092999999999999,-0.011884989630166173
0.3082999999999999,-0.011916113278763203
0.3072999999999999,-0.01195713990645929
0.3062999999999999,-0.012039193161851461
0.3052999999999999,-0.012058999120049574
0.3042999999999999,-0.012050510852250384
0.3032999999999999,-0.012080219789547549
0.3022999999999999,-0.012135393530242284
0.3012999999999999,-0.012184908425737561
0.3002999999999999,-0.012210373229135131
0.2992999999999999,-0.012214617363034726
0.2982999999999999,-0.012233008609932972
0.2972999999999999,-0.012281108794128383
0.2962999999999999,-0.01234194138002258
0.2952999999999999,-0.01236174733822069
0.2942999999999999,-0.012354673781721365
0.2932999999999999,-0.01238721214161826
0.2922999999999999,-0.012431068191914077
0.2912999999999999,-0.012494730200408003
0.2902999999999999,-0.01252160971510544
0.2892999999999999,-0.012520195003805573
0.2882999999999999,-0.012540000962003686
0.2872999999999999,-0.012583857012299502
0.2862999999999999,-0.012647519020793429
0.2852999999999999,-0.012671569112891133
0.2842999999999999,-0.012688545648489515
0.2832999999999999,-0.012706936895387759
0.2822999999999999,-0.012760695924782631
0.2812999999999999,-0.012842749180174803
0.2802999999999999,-0.012890849364370214
0.2792999999999999,-0.012919143590367515
0.2782999999999999,-0.01292055830166738
0.2772999999999999,-0.012958755506763736
0.2762999999999999,-0.01302666164915726
0.2752999999999999,-0.013008270402259013
0.2742999999999999,-0.013013929247458473
0.2732999999999999,-0.013028076360457124
0.2722999999999999,-0.0130775912559524
0.2712999999999999,-0.013163888645244166
0.2702999999999999,-0.013182279892142412
0.2692999999999999,-0.013182279892142412
0.26829999999999987,-0.013197841716440928
0.26729999999999987,-0.013228965365037957
0.26629999999999987,-0.013298286218731345
0.26529999999999987,-0.013316677465629591
0.26429999999999987,-0.013329409867328374
0.26329999999999987,-0.013350630536826351
0.26229999999999987,-0.013404389566221224
0.26129999999999987,-0.013463807440815555
0.26029999999999986,-0.013475125131214474
0.25929999999999986,-0.013472295708614744
0.25829999999999986,-0.013506248779811504
0.25729999999999986,-0.013560007809206376
0.25629999999999986,-0.013630743374199627
0.25529999999999986,-0.013639231641998819
0.25429999999999986,-0.013636402219399088
0.25329999999999986,-0.013671770001895714
0.25229999999999986,-0.013719870186091125
0.25129999999999986,-0.01378353219458505
0.25029999999999986,-0.013807582286682758
0.24929999999999986,-0.013803338152783165
0.24829999999999985,-0.013818899977081677
0.24729999999999985,-0.013861341316077629
0.24629999999999985,-0.013929247458471152
0.24529999999999985,-0.013987250621765616
0.24429999999999985,-0.013975932931366699
0.24329999999999985,-0.013998568312164537
0.24229999999999985,-0.014048083207659816
0.24129999999999985,-0.014104671659654415
0.24029999999999985,-0.014128721751752121
0.23929999999999985,-0.014127307040452258
0.23829999999999985,-0.014140039442151042
0.23729999999999984,-0.014189554337646317
0.23629999999999984,-0.01427443701563822
0.23529999999999984,-0.01430273124163552
0.23429999999999984,-0.01430273124163552
0.23329999999999984,-0.014331025467632824
0.23229999999999984,-0.014373466806628774
0.23129999999999984,-0.014458349484620674
0.23029999999999984,-0.014472496597619325
0.22929999999999984,-0.014472496597619325
0.22829999999999984,-0.014500790823616624
0.22729999999999984,-0.014557379275611227
0.22629999999999983,-0.01461396772760583
0.22529999999999983,-0.014642261953603129
0.22429999999999983,-0.014642261953603129
0.22329999999999983,-0.014670556179600431
0.22229999999999983,-0.01469885040559773
0.22129999999999983,-0.014783733083589632
0.22029999999999983,-0.014812027309586936
0.21929999999999983,-0.014812027309586936
0.21829999999999983,-0.014840321535584235
0.21729999999999983,-0.014882762874580187
0.21629999999999983,-0.014953498439573438
0.21529999999999982,-0.014995939778569388
0.21429999999999982,-0.014995939778569388
0.21329999999999982,-0.015024234004566688
0.21229999999999982,-0.015066675343562642
0.21129999999999982,-0.015137410908555892
0.21029999999999982,-0.015165705134553195
0.20929999999999982,-0.015165705134553195
0.20829999999999982,-0.015179852247551842
0.20729999999999982,-0.015250587812545097
0.20629999999999982,-0.015307176264539698
0.20529999999999982,-0.015335470490536997
0.20429999999999982,-0.0153637647165343
0.20329999999999981,-0.015377911829532949
0.2022999999999998,-0.01543450028152755
0.2012999999999998,-0.015519382959519455
0.20029999999999992,-0.015533530072518101
0.19929999999999992,-0.015561824298515404
0.19829999999999992,-0.015590118524512706
0.19729999999999992,-0.015632559863508654
0.19629999999999992,-0.015717442541500558
0.19529999999999992,-0.015717442541500558
0.19429999999999992,-0.01575988388049651
0.19329999999999992,-0.01580232521949246
0.19229999999999992,-0.01581647233249111
0.19129999999999991,-0.015873060784485714
0.1902999999999999,-0.015901355010483013
0.1892999999999999,-0.01591550212348166
0.1882999999999999,-0.015943796349478963
0.1872999999999999,-0.016000384801473564
0.1862999999999999,-0.016056973253468165
0.1852999999999999,-0.016071120366466816
0.1842999999999999,-0.016071120366466816
0.1832999999999999,-0.01611356170546277
0.1822999999999999,-0.01615600304445872
0.1812999999999999,-0.01624088572245062
0.1802999999999999,-0.016269179948447923
0.1792999999999999,-0.016269179948447923
0.1782999999999999,-0.01629747417444522
0.1772999999999999,-0.016339915513441175
0.1762999999999999,-0.016424798191433075
0.1752999999999999,-0.01646723953042903
0.1742999999999999,-0.01646723953042903
0.1732999999999999,-0.016495533756426328
0.1722999999999999,-0.016552122208420932
0.1712999999999999,-0.01662285777341418
0.1702999999999999,-0.01665115199941148
0.1692999999999999,-0.01666529911241013
0.1682999999999999,-0.01670774045140608
0.1672999999999999,-0.016750181790402035
0.1662999999999999,-0.016820917355395284
0.1652999999999999,-0.016849211581392583
0.1642999999999999,-0.01687750580738989
0.1632999999999999,-0.016891652920388536
0.1622999999999999,-0.016948241372383138
0.1612999999999999,-0.017047271163373692
0.1602999999999999,-0.01706141827637234
0.1592999999999999,-0.017075565389370995
0.15829999999999989,-0.017089712502369642
0.15729999999999988,-0.017146300954364244
0.15629999999999988,-0.017231183632356147
0.15529999999999988,-0.017273624971352097
0.15429999999999988,-0.01728777208435075
0.15329999999999988,-0.0173302134233467
0.15229999999999988,-0.0173868018753413
0.15129999999999988,-0.017457537440334552
0.15029999999999988,-0.01748583166633185
0.14929999999999988,-0.017499978779330502
0.14829999999999988,-0.017542420118326456
0.14729999999999988,-0.017584861457322406
0.14629999999999987,-0.01768389124831296
0.14529999999999987,-0.01769803836131161
0.14429999999999987,-0.01771218547431026
0.14329999999999987,-0.017754626813306213
0.14229999999999987,-0.017839509491298113
0.14129999999999987,-0.017896097943292714
0.14029999999999987,-0.017924392169290013
0.13929999999999987,-0.017966833508285963
0.13829999999999987,-0.017995127734283266
0.13729999999999987,-0.018080010412275173
0.13629999999999987,-0.01816489309026707
0.13529999999999986,-0.018193187316264375
0.13429999999999986,-0.018193187316264375
0.13329999999999986,-0.018235628655260322
0.13229999999999986,-0.018278069994256275
0.13129999999999986,-0.018348805559249524
0.13029999999999986,-0.018405394011244126
0.12929999999999986,-0.018433688237241428
0.12829999999999986,-0.018447835350240076
0.12729999999999986,-0.01851857091523333
0.12629999999999986,-0.018617600706223883
0.12529999999999986,-0.018645894932221182
0.12429999999999986,-0.018674189158218484
0.12329999999999985,-0.018688336271217135
0.12229999999999985,-0.018759071836210388
0.12129999999999985,-0.018843954514202284
0.12029999999999985,-0.01887224874019959
0.11929999999999985,-0.018886395853198238
0.11829999999999985,-0.01892883719219419
0.11729999999999985,-0.019027866983184743
0.11629999999999985,-0.019112749661176646
0.11529999999999985,-0.0191551910001726
0.11429999999999985,-0.0191551910001726
0.11329999999999985,-0.019197632339168547
0.11229999999999984,-0.019254220791163148
0.11129999999999984,-0.0193249563561564
0.11029999999999984,-0.019381544808151
0.10929999999999984,-0.019381544808151
0.10829999999999984,-0.019452280373144254
0.10729999999999984,-0.019494721712140204
0.10629999999999984,-0.01959375150313076
0.10529999999999984,-0.01963619284212671
0.10429999999999984,-0.01965033995512536
0.10329999999999984,-0.01970692840711996
0.10229999999999984,-0.019749369746115915
0.10129999999999983,-0.019848399537106463
0.10029999999999983,-0.019904987989101064
0.09929999999999983,-0.019904987989101064
0.09829999999999983,-0.019961576441095665
0.09729999999999983,-0.02003231200608892
0.09629999999999983,-0.020103047571082173
0.09529999999999983,-0.02015963602307677
0.09429999999999983,-0.02015963602307677
0.09329999999999983,-0.02020207736207272
0.09229999999999983,-0.020301107153063276
0.09129999999999983,-0.020400136944053827
0.09029999999999982,-0.02045672539604843
0.08929999999999982,-0.020470872509047083
0.08829999999999982,-0.020513313848043033
0.08729999999999982,-0.020598196526034934
0.08629999999999982,-0.020683079204026837
0.08529999999999982,-0.02073966765602144
0.08429999999999982,-0.020767961882018737
0.08329999999999982,-0.02079625610801604
0.08229999999999982,-0.02085284456001064
0.08129999999999982,-0.020966021463999843
0.08029999999999982,-0.021008462802995797
0.07929999999999982,-0.021065051254990398
0.07829999999999981,-0.021121639706984996
0.07729999999999981,-0.02119237527197825
0.07629999999999981,-0.021291405062968803
0.07529999999999992,-0.021333846401964753
0.07429999999999992,-0.021362140627962056
0.07329999999999992,-0.021432876192955305
0.07229999999999992,-0.02150361175794856
0.07129999999999992,-0.021602641548939108
0.07029999999999992,-0.021645082887935062
0.06929999999999992,-0.02167337711393236
0.06829999999999992,-0.021744112678925617
0.06729999999999992,-0.021814848243918866
0.06629999999999991,-0.02194217226090672
0.06529999999999991,-0.02198461359990267
0.06429999999999991,-0.022012907825899968
0.06329999999999991,-0.022111937616890523
0.06229999999999991,-0.02218267318188378
0.06129999999999991,-0.022295850085872978
0.06029999999999991,-0.02235243853786758
0.05929999999999991,-0.02238073276386488
0.05829999999999991,-0.02245146832885813
0.05729999999999991,-0.022536351006850038
0.056299999999999906,-0.022635380797840585
0.055299999999999905,-0.02270611636283384
0.054299999999999904,-0.02273441058883114
0.0532999999999999,-0.022833440379821688
0.0522999999999999,-0.022946617283810897
0.0512999999999999,-0.0230597941878001
0.0502999999999999,-0.02313052975279335
0.0492999999999999,-0.023172971091789302
0.0482999999999999,-0.023172971091789302
0.0472999999999999,-0.023257853769781203
0.0462999999999999,-0.023356883560771757
0.045299999999999896,-0.023399324899767704
0.044299999999999895,-0.02345591335176231
0.043299999999999894,-0.023498354690758262
0.04229999999999989,-0.023611531594747465
0.04129999999999989,-0.023724708498736664
0.04029999999999989,-0.023809591176728567
0.03929999999999989,-0.02385203251572452
0.03829999999999989,-0.02388032674172182
0.03729999999999989,-0.023965209419713723
0.03629999999999989,-0.024078386323702922
0.03529999999999989,-0.024134974775697527
0.034299999999999886,-0.024191563227692125
0.033299999999999885,-0.02424815167968673
0.032299999999999884,-0.02433303435767863
0.031299999999999883,-0.024446211261667832
0.030299999999999883,-0.024502799713662437
0.02929999999999988,-0.024559388165657038
0.02829999999999988,-0.02461597661765164
0.02729999999999988,-0.024700859295643543
0.02629999999999988,-0.024842330425630044
0.025299999999999878,-0.024884771764625994
0.024299999999999877,-0.024927213103621948
0.023299999999999876,-0.0249979486686152
0.022299999999999875,-0.0250828313466071
0.021299999999999875,-0.025196008250596303
0.020299999999999874,-0.025266743815589552
0.019299999999999873,-0.025309185154585506
0.018299999999999872,-0.02539406783257741
0.01729999999999987,-0.025493097623567964
0.01629999999999987,-0.025592127414558512
0.01529999999999987,-0.025677010092550415
0.014299999999999868,-0.02573359854454502
0.013299999999999867,-0.02580433410953827
0.012299999999999978,-0.025889216787530173
0.011299999999999866,-0.02600239369151937
0.010299999999999976,-0.026087276369511275
0.009299999999999864,-0.02614386482150588
0.008299999999999974,-0.02620045327350048
0.007299999999999862,-0.02632777729048833
0.006299999999999972,-0.026426807081478886
0.00529999999999986,-0.026483395533473487
0.0042999999999999705,-0.02655413109846674
0.0032999999999998586,-0.02661071955046134
0.0022999999999999687,-0.026709749341451892
0.0012999999999998568,-0.026865367584437045
0.00029999999999996696,-0.02692195603643165
-0.000700000000000145,-0.026992691601424906
-0.0017000000000000348,-0.027049280053419503
-0.0027000000000001467,-0.027162456957408702
-0.0037000000000000366,-0.02727563386139791
-0.0047000000000001485,-0.02736051653938981
-0.005700000000000038,-0.027445399217381712
-0.00670000000000015,-0.027516134782374965
-0.00770000000000004,-0.02762931168636417
-0.008700000000000152,-0.02775663570335202
-0.009700000000000042,-0.027813224155346622
-0.010700000000000154,-0.027869812607341227
-0.011700000000000044,-0.027940548172334476
-0.012700000000000156,-0.02802543085032638
-0.013700000000000045,-0.02815275486731423
-0.014700000000000157,-0.028223490432307482
-0.015700000000000047,-0.028280078884302083
-0.01670000000000016,-0.028364961562293983
-0.01770000000000005,-0.028463991353284535
-0.01870000000000016,-0.028591315370272388
-0.01970000000000005,-0.028662050935265648
-0.020700000000000163,-0.028690345161262943
-0.021700000000000053,-0.028746933613257548
-0.022700000000000164,-0.02888840474324405
-0.023700000000000054,-0.02902987587323055
-0.024700000000000166,-0.029100611438223806
-0.025700000000000056,-0.029157199890218404
-0.026700000000000168,-0.029199641229214358
-0.027700000000000058,-0.029326965246202208
-0.02870000000000017,-0.029425995037192763
-0.02970000000000006,-0.029510877715184666
-0.03070000000000017,-0.029581613280177915
-0.03170000000000006,-0.029624054619173872
-0.03270000000000017,-0.029765525749160374
-0.03370000000000006,-0.02986455554015093
-0.034700000000000175,-0.029949438218142825
-0.035700000000000065,-0.03002017378313608
-0.03670000000000018,-0.03006261512213203
-0.03770000000000007,-0.030175792026121234
-0.03870000000000018,-0.030317263156107735
-0.03970000000000007,-0.030373851608102336
-0.04070000000000018,-0.030430440060096934
-0.04170000000000007,-0.03051532273808884
-0.04270000000000018,-0.030628499642078044
-0.04370000000000007,-0.030769970772064545
-0.044700000000000184,-0.030840706337057794
-0.045700000000000074,-0.030897294789052406
-0.046700000000000186,-0.030953883241047007
-0.047700000000000076,-0.031052913032037555
-0.04870000000000019,-0.031180237049025412
-0.04970000000000008,-0.03123682550102001
-0.05070000000000019,-0.03129341395301461
-0.05170000000000008,-0.03137829663100652
-0.05270000000000019,-0.03147732642199706
-0.05370000000000008,-0.03159050332598627
-0.05470000000000019,-0.03167538600397817
-0.05570000000000008,-0.03171782734297412
-0.056700000000000195,-0.031788562907967374
-0.057700000000000085,-0.031887592698957926
-0.058700000000000196,-0.03202906382894443
-0.059700000000000086,-0.03209979939393768
-0.0607000000000002,-0.03214224073293363
-0.06170000000000009,-0.03222712341092554
-0.0627000000000002,-0.03235444742791339
-0.06370000000000009,-0.03248177144490124
