Oct. 19, 2024   19:38:55
Linear Sweep Voltammetry
File: c:/users/guazh/data/banditlqround2/2024-10-18-exp577\regeneratedgce-2024-10-19t19_29_12-lsvinkoh\regeneratedgce_lsv_50mvs_efin_-2500mv.bin
Data Source:  Experiment
Instrument Model:  CHI760E
Header: LSV ran at 50 mVs with Efin at -2500mV
Note: 

Init E (V) = -0.6
Final E (V) = -2.5
Scan Rate (V/s) = 0.05
Sample Interval (V) = 0.001
Quiet Time (sec) = 2
Sensitivity (A/V) = 1e-4
Comp R (ohm) = 219.0

Results:

Channel 1:

Potential/V, Current/A

-0.600, 2.760e-8
-0.601, 3.086e-8
-0.602, 3.106e-8
-0.603, 3.027e-8
-0.604, 2.672e-8
-0.605, 2.948e-8
-0.606, 2.948e-8
-0.607, 3.076e-8
-0.608, 3.017e-8
-0.609, 2.662e-8
-0.610, 2.879e-8
-0.611, 3.047e-8
-0.612, 3.106e-8
-0.613, 2.928e-8
-0.614, 2.780e-8
-0.615, 2.899e-8
-0.616, 3.076e-8
-0.617, 3.106e-8
-0.618, 2.948e-8
-0.619, 2.820e-8
-0.620, 2.928e-8
-0.621, 3.106e-8
-0.622, 3.145e-8
-0.623, 3.135e-8
-0.624, 2.820e-8
-0.625, 2.879e-8
-0.626, 3.047e-8
-0.627, 3.106e-8
-0.628, 2.997e-8
-0.629, 2.790e-8
-0.630, 2.899e-8
-0.631, 3.086e-8
-0.632, 3.116e-8
-0.633, 3.037e-8
-0.634, 2.800e-8
-0.635, 2.938e-8
-0.636, 3.066e-8
-0.637, 3.155e-8
-0.638, 2.978e-8
-0.639, 2.741e-8
-0.640, 2.978e-8
-0.641, 3.027e-8
-0.642, 3.056e-8
-0.643, 2.987e-8
-0.644, 2.800e-8
-0.645, 2.958e-8
-0.646, 3.096e-8
-0.647, 3.135e-8
-0.648, 3.056e-8
-0.649, 2.760e-8
-0.650, 2.869e-8
-0.651, 3.135e-8
-0.652, 3.076e-8
-0.653, 2.968e-8
-0.654, 2.869e-8
-0.655, 2.928e-8
-0.656, 3.126e-8
-0.657, 3.126e-8
-0.658, 3.096e-8
-0.659, 2.889e-8
-0.660, 2.849e-8
-0.661, 3.007e-8
-0.662, 3.175e-8
-0.663, 3.017e-8
-0.664, 2.810e-8
-0.665, 2.830e-8
-0.666, 3.047e-8
-0.667, 3.116e-8
-0.668, 2.997e-8
-0.669, 2.859e-8
-0.670, 2.928e-8
-0.671, 3.066e-8
-0.672, 3.175e-8
-0.673, 2.987e-8
-0.674, 2.731e-8
-0.675, 2.889e-8
-0.676, 3.096e-8
-0.677, 3.086e-8
-0.678, 3.126e-8
-0.679, 2.938e-8
-0.680, 2.879e-8
-0.681, 3.066e-8
-0.682, 3.116e-8
-0.683, 3.076e-8
-0.684, 2.849e-8
-0.685, 2.899e-8
-0.686, 3.116e-8
-0.687, 3.165e-8
-0.688, 3.066e-8
-0.689, 2.810e-8
-0.690, 2.889e-8
-0.691, 3.116e-8
-0.692, 3.244e-8
-0.693, 3.106e-8
-0.694, 2.770e-8
-0.695, 2.790e-8
-0.696, 3.096e-8
-0.697, 3.047e-8
-0.698, 3.056e-8
-0.699, 2.800e-8
-0.700, 2.849e-8
-0.701, 3.096e-8
-0.702, 3.066e-8
-0.703, 2.997e-8
-0.704, 2.751e-8
-0.705, 2.859e-8
-0.706, 3.096e-8
-0.707, 3.185e-8
-0.708, 3.017e-8
-0.709, 2.820e-8
-0.710, 2.928e-8
-0.711, 3.175e-8
-0.712, 3.165e-8
-0.713, 3.027e-8
-0.714, 2.780e-8
-0.715, 2.869e-8
-0.716, 2.958e-8
-0.717, 3.204e-8
-0.718, 3.106e-8
-0.719, 2.918e-8
-0.720, 2.968e-8
-0.721, 3.155e-8
-0.722, 3.165e-8
-0.723, 3.037e-8
-0.724, 2.869e-8
-0.725, 2.948e-8
-0.726, 3.086e-8
-0.727, 3.155e-8
-0.728, 3.126e-8
-0.729, 2.820e-8
-0.730, 2.938e-8
-0.731, 3.096e-8
-0.732, 3.155e-8
-0.733, 3.066e-8
-0.734, 2.859e-8
-0.735, 2.908e-8
-0.736, 3.106e-8
-0.737, 3.165e-8
-0.738, 3.037e-8
-0.739, 2.780e-8
-0.740, 2.859e-8
-0.741, 3.096e-8
-0.742, 3.185e-8
-0.743, 3.106e-8
-0.744, 2.780e-8
-0.745, 2.978e-8
-0.746, 3.056e-8
-0.747, 3.126e-8
-0.748, 3.106e-8
-0.749, 2.889e-8
-0.750, 2.958e-8
-0.751, 3.116e-8
-0.752, 3.224e-8
-0.753, 3.007e-8
-0.754, 2.800e-8
-0.755, 2.978e-8
-0.756, 3.116e-8
-0.757, 3.066e-8
-0.758, 3.037e-8
-0.759, 2.780e-8
-0.760, 2.859e-8
-0.761, 3.126e-8
-0.762, 3.224e-8
-0.763, 3.037e-8
-0.764, 2.830e-8
-0.765, 2.889e-8
-0.766, 3.056e-8
-0.767, 3.076e-8
-0.768, 3.037e-8
-0.769, 2.918e-8
-0.770, 2.928e-8
-0.771, 3.204e-8
-0.772, 3.145e-8
-0.773, 3.017e-8
-0.774, 2.810e-8
-0.775, 2.879e-8
-0.776, 3.066e-8
-0.777, 3.155e-8
-0.778, 3.056e-8
-0.779, 2.810e-8
-0.780, 2.889e-8
-0.781, 3.066e-8
-0.782, 3.195e-8
-0.783, 3.037e-8
-0.784, 2.859e-8
-0.785, 2.908e-8
-0.786, 3.116e-8
-0.787, 3.066e-8
-0.788, 3.066e-8
-0.789, 2.780e-8
-0.790, 2.869e-8
-0.791, 3.116e-8
-0.792, 3.155e-8
-0.793, 3.096e-8
-0.794, 2.879e-8
-0.795, 2.889e-8
-0.796, 3.076e-8
-0.797, 3.234e-8
-0.798, 3.037e-8
-0.799, 2.780e-8
-0.800, 2.928e-8
-0.801, 3.007e-8
-0.802, 3.086e-8
-0.803, 3.066e-8
-0.804, 2.889e-8
-0.805, 2.830e-8
-0.806, 3.175e-8
-0.807, 3.195e-8
-0.808, 3.106e-8
-0.809, 2.760e-8
-0.810, 2.830e-8
-0.811, 3.027e-8
-0.812, 3.145e-8
-0.813, 3.106e-8
-0.814, 2.918e-8
-0.815, 2.869e-8
-0.816, 3.007e-8
-0.817, 3.155e-8
-0.818, 3.056e-8
-0.819, 2.849e-8
-0.820, 3.076e-8
-0.821, 3.224e-8
-0.822, 3.264e-8
-0.823, 3.145e-8
-0.824, 2.928e-8
-0.825, 2.968e-8
-0.826, 3.195e-8
-0.827, 3.254e-8
-0.828, 3.126e-8
-0.829, 2.899e-8
-0.830, 2.978e-8
-0.831, 3.076e-8
-0.832, 3.224e-8
-0.833, 3.214e-8
-0.834, 2.938e-8
-0.835, 2.899e-8
-0.836, 3.165e-8
-0.837, 3.145e-8
-0.838, 3.056e-8
-0.839, 2.938e-8
-0.840, 2.987e-8
-0.841, 3.224e-8
-0.842, 3.175e-8
-0.843, 3.165e-8
-0.844, 2.751e-8
-0.845, 2.968e-8
-0.846, 3.185e-8
-0.847, 3.195e-8
-0.848, 3.096e-8
-0.849, 2.879e-8
-0.850, 2.928e-8
-0.851, 3.145e-8
-0.852, 3.214e-8
-0.853, 3.135e-8
-0.854, 2.849e-8
-0.855, 2.928e-8
-0.856, 3.185e-8
-0.857, 3.234e-8
-0.858, 3.155e-8
-0.859, 2.938e-8
-0.860, 2.908e-8
-0.861, 3.145e-8
-0.862, 3.234e-8
-0.863, 3.254e-8
-0.864, 2.879e-8
-0.865, 2.978e-8
-0.866, 3.135e-8
-0.867, 3.224e-8
-0.868, 3.096e-8
-0.869, 2.928e-8
-0.870, 2.968e-8
-0.871, 3.175e-8
-0.872, 3.254e-8
-0.873, 3.185e-8
-0.874, 2.810e-8
-0.875, 2.948e-8
-0.876, 3.135e-8
-0.877, 3.106e-8
-0.878, 3.106e-8
-0.879, 2.869e-8
-0.880, 2.918e-8
-0.881, 3.135e-8
-0.882, 3.214e-8
-0.883, 3.204e-8
-0.884, 2.918e-8
-0.885, 2.978e-8
-0.886, 3.116e-8
-0.887, 3.224e-8
-0.888, 3.096e-8
-0.889, 2.908e-8
-0.890, 2.987e-8
-0.891, 3.195e-8
-0.892, 3.214e-8
-0.893, 3.116e-8
-0.894, 2.839e-8
-0.895, 2.928e-8
-0.896, 3.254e-8
-0.897, 3.303e-8
-0.898, 3.145e-8
-0.899, 2.869e-8
-0.900, 2.958e-8
-0.901, 3.165e-8
-0.902, 3.224e-8
-0.903, 3.165e-8
-0.904, 2.908e-8
-0.905, 2.849e-8
-0.906, 3.126e-8
-0.907, 3.234e-8
-0.908, 3.175e-8
-0.909, 2.839e-8
-0.910, 2.928e-8
-0.911, 3.155e-8
-0.912, 3.244e-8
-0.913, 3.165e-8
-0.914, 2.899e-8
-0.915, 2.987e-8
-0.916, 3.126e-8
-0.917, 3.204e-8
-0.918, 3.204e-8
-0.919, 2.908e-8
-0.920, 2.869e-8
-0.921, 3.096e-8
-0.922, 3.313e-8
-0.923, 3.165e-8
-0.924, 2.869e-8
-0.925, 2.928e-8
-0.926, 3.175e-8
-0.927, 3.244e-8
-0.928, 3.155e-8
-0.929, 2.859e-8
-0.930, 2.938e-8
-0.931, 3.165e-8
-0.932, 3.165e-8
-0.933, 3.155e-8
-0.934, 2.889e-8
-0.935, 2.859e-8
-0.936, 3.175e-8
-0.937, 3.313e-8
-0.938, 3.106e-8
-0.939, 2.810e-8
-0.940, 2.889e-8
-0.941, 3.076e-8
-0.942, 3.214e-8
-0.943, 3.175e-8
-0.944, 2.978e-8
-0.945, 2.928e-8
-0.946, 3.185e-8
-0.947, 3.234e-8
-0.948, 3.185e-8
-0.949, 2.958e-8
-0.950, 2.908e-8
-0.951, 3.175e-8
-0.952, 3.254e-8
-0.953, 3.116e-8
-0.954, 2.899e-8
-0.955, 2.839e-8
-0.956, 3.135e-8
-0.957, 3.244e-8
-0.958, 3.086e-8
-0.959, 2.849e-8
-0.960, 2.928e-8
-0.961, 3.195e-8
-0.962, 3.185e-8
-0.963, 3.165e-8
-0.964, 2.830e-8
-0.965, 2.928e-8
-0.966, 3.165e-8
-0.967, 3.195e-8
-0.968, 3.086e-8
-0.969, 2.849e-8
-0.970, 2.899e-8
-0.971, 3.175e-8
-0.972, 3.145e-8
-0.973, 3.145e-8
-0.974, 2.948e-8
-0.975, 2.948e-8
-0.976, 3.145e-8
-0.977, 3.185e-8
-0.978, 3.185e-8
-0.979, 2.908e-8
-0.980, 2.978e-8
-0.981, 3.135e-8
-0.982, 3.234e-8
-0.983, 3.204e-8
-0.984, 2.899e-8
-0.985, 2.899e-8
-0.986, 3.234e-8
-0.987, 3.254e-8
-0.988, 3.204e-8
-0.989, 2.968e-8
-0.990, 2.908e-8
-0.991, 3.116e-8
-0.992, 3.175e-8
-0.993, 3.185e-8
-0.994, 2.810e-8
-0.995, 2.859e-8
-0.996, 3.096e-8
-0.997, 3.195e-8
-0.998, 3.204e-8
-0.999, 3.017e-8
-1.000, 2.879e-8
-1.001, 3.204e-8
-1.002, 3.204e-8
-1.003, 3.234e-8
-1.004, 2.958e-8
-1.005, 2.987e-8
-1.006, 3.066e-8
-1.007, 3.244e-8
-1.008, 3.116e-8
-1.009, 2.978e-8
-1.010, 2.810e-8
-1.011, 3.145e-8
-1.012, 3.333e-8
-1.013, 3.126e-8
-1.014, 2.849e-8
-1.015, 2.918e-8
-1.016, 3.135e-8
-1.017, 3.195e-8
-1.018, 3.244e-8
-1.019, 2.958e-8
-1.020, 2.938e-8
-1.021, 3.204e-8
-1.022, 3.323e-8
-1.023, 3.126e-8
-1.024, 2.978e-8
-1.025, 3.037e-8
-1.026, 3.214e-8
-1.027, 3.293e-8
-1.028, 3.224e-8
-1.029, 2.908e-8
-1.030, 2.987e-8
-1.031, 3.185e-8
-1.032, 3.313e-8
-1.033, 3.185e-8
-1.034, 2.938e-8
-1.035, 2.928e-8
-1.036, 3.185e-8
-1.037, 3.313e-8
-1.038, 3.224e-8
-1.039, 3.056e-8
-1.040, 3.027e-8
-1.041, 3.195e-8
-1.042, 3.323e-8
-1.043, 3.264e-8
-1.044, 2.938e-8
-1.045, 2.958e-8
-1.046, 3.214e-8
-1.047, 3.323e-8
-1.048, 3.126e-8
-1.049, 2.918e-8
-1.050, 2.938e-8
-1.051, 3.333e-8
-1.052, 3.382e-8
-1.053, 3.303e-8
-1.054, 2.918e-8
-1.055, 3.017e-8
-1.056, 3.155e-8
-1.057, 3.293e-8
-1.058, 3.274e-8
-1.059, 3.017e-8
-1.060, 2.899e-8
-1.061, 3.155e-8
-1.062, 3.264e-8
-1.063, 3.264e-8
-1.064, 3.037e-8
-1.065, 2.948e-8
-1.066, 3.145e-8
-1.067, 3.323e-8
-1.068, 3.303e-8
-1.069, 3.037e-8
-1.070, 2.908e-8
-1.071, 3.185e-8
-1.072, 3.254e-8
-1.073, 3.086e-8
-1.074, 2.948e-8
-1.075, 3.007e-8
-1.076, 3.204e-8
-1.077, 3.303e-8
-1.078, 3.333e-8
-1.079, 3.007e-8
-1.080, 2.928e-8
-1.081, 3.204e-8
-1.082, 3.303e-8
-1.083, 3.214e-8
-1.084, 2.987e-8
-1.085, 2.987e-8
-1.086, 3.264e-8
-1.087, 3.234e-8
-1.088, 3.254e-8
-1.089, 2.859e-8
-1.090, 2.899e-8
-1.091, 3.224e-8
-1.092, 3.214e-8
-1.093, 3.165e-8
-1.094, 2.938e-8
-1.095, 2.997e-8
-1.096, 3.224e-8
-1.097, 3.303e-8
-1.098, 3.234e-8
-1.099, 3.037e-8
-1.100, 2.978e-8
-1.101, 3.264e-8
-1.102, 3.303e-8
-1.103, 3.234e-8
-1.104, 3.076e-8
-1.105, 2.908e-8
-1.106, 3.126e-8
-1.107, 3.293e-8
-1.108, 3.254e-8
-1.109, 2.879e-8
-1.110, 2.938e-8
-1.111, 3.195e-8
-1.112, 3.274e-8
-1.113, 3.165e-8
-1.114, 2.928e-8
-1.115, 2.968e-8
-1.116, 3.244e-8
-1.117, 3.352e-8
-1.118, 3.254e-8
-1.119, 3.017e-8
-1.120, 3.056e-8
-1.121, 3.224e-8
-1.122, 3.214e-8
-1.123, 3.244e-8
-1.124, 2.899e-8
-1.125, 2.839e-8
-1.126, 3.224e-8
-1.127, 3.343e-8
-1.128, 3.244e-8
-1.129, 3.037e-8
-1.130, 2.948e-8
-1.131, 3.165e-8
-1.132, 3.274e-8
-1.133, 3.244e-8
-1.134, 2.948e-8
-1.135, 2.968e-8
-1.136, 3.204e-8
-1.137, 3.323e-8
-1.138, 3.047e-8
-1.139, 3.066e-8
-1.140, 2.948e-8
-1.141, 3.195e-8
-1.142, 3.244e-8
-1.143, 3.195e-8
-1.144, 2.978e-8
-1.145, 2.938e-8
-1.146, 3.195e-8
-1.147, 3.234e-8
-1.148, 3.204e-8
-1.149, 3.017e-8
-1.150, 2.948e-8
-1.151, 3.155e-8
-1.152, 3.372e-8
-1.153, 3.185e-8
-1.154, 2.948e-8
-1.155, 3.056e-8
-1.156, 3.185e-8
-1.157, 3.352e-8
-1.158, 3.195e-8
-1.159, 2.997e-8
-1.160, 2.958e-8
-1.161, 3.106e-8
-1.162, 3.224e-8
-1.163, 3.175e-8
-1.164, 2.987e-8
-1.165, 2.997e-8
-1.166, 3.234e-8
-1.167, 3.244e-8
-1.168, 3.234e-8
-1.169, 2.938e-8
-1.170, 2.948e-8
-1.171, 3.155e-8
-1.172, 3.362e-8
-1.173, 3.195e-8
-1.174, 2.987e-8
-1.175, 2.938e-8
-1.176, 3.274e-8
-1.177, 3.274e-8
-1.178, 3.244e-8
-1.179, 3.066e-8
-1.180, 3.007e-8
-1.181, 3.274e-8
-1.182, 3.214e-8
-1.183, 3.185e-8
-1.184, 3.076e-8
-1.185, 2.948e-8
-1.186, 3.175e-8
-1.187, 3.303e-8
-1.188, 3.224e-8
-1.189, 2.899e-8
-1.190, 3.017e-8
-1.191, 3.234e-8
-1.192, 3.343e-8
-1.193, 3.264e-8
-1.194, 3.017e-8
-1.195, 2.938e-8
-1.196, 3.145e-8
-1.197, 3.313e-8
-1.198, 3.195e-8
-1.199, 2.928e-8
-1.200, 3.007e-8
-1.201, 3.244e-8
-1.202, 3.204e-8
-1.203, 3.244e-8
-1.204, 3.017e-8
-1.205, 2.997e-8
-1.206, 3.165e-8
-1.207, 3.333e-8
-1.208, 3.244e-8
-1.209, 2.997e-8
-1.210, 2.958e-8
-1.211, 3.135e-8
-1.212, 3.214e-8
-1.213, 3.244e-8
-1.214, 3.027e-8
-1.215, 2.948e-8
-1.216, 3.145e-8
-1.217, 3.362e-8
-1.218, 3.214e-8
-1.219, 3.007e-8
-1.220, 2.978e-8
-1.221, 3.145e-8
-1.222, 3.244e-8
-1.223, 3.175e-8
-1.224, 2.987e-8
-1.225, 2.899e-8
-1.226, 3.135e-8
-1.227, 3.283e-8
-1.228, 3.126e-8
-1.229, 2.948e-8
-1.230, 3.056e-8
-1.231, 3.135e-8
-1.232, 3.362e-8
-1.233, 3.323e-8
-1.234, 2.997e-8
-1.235, 2.987e-8
-1.236, 3.244e-8
-1.237, 3.244e-8
-1.238, 3.214e-8
-1.239, 2.958e-8
-1.240, 2.908e-8
-1.241, 3.224e-8
-1.242, 3.412e-8
-1.243, 3.313e-8
-1.244, 3.047e-8
-1.245, 3.086e-8
-1.246, 3.195e-8
-1.247, 3.323e-8
-1.248, 3.293e-8
-1.249, 3.007e-8
-1.250, 3.066e-8
-1.251, 3.313e-8
-1.252, 3.362e-8
-1.253, 3.155e-8
-1.254, 3.076e-8
-1.255, 3.056e-8
-1.256, 3.234e-8
-1.257, 3.283e-8
-1.258, 3.283e-8
-1.259, 3.086e-8
-1.260, 2.978e-8
-1.261, 3.293e-8
-1.262, 3.362e-8
-1.263, 3.313e-8
-1.264, 3.047e-8
-1.265, 3.047e-8
-1.266, 3.244e-8
-1.267, 3.352e-8
-1.268, 3.303e-8
-1.269, 3.076e-8
-1.270, 3.017e-8
-1.271, 3.293e-8
-1.272, 3.333e-8
-1.273, 3.204e-8
-1.274, 3.106e-8
-1.275, 3.047e-8
-1.276, 3.313e-8
-1.277, 3.264e-8
-1.278, 3.343e-8
-1.279, 3.027e-8
-1.280, 3.106e-8
-1.281, 3.293e-8
-1.282, 3.362e-8
-1.283, 3.333e-8
-1.284, 3.037e-8
-1.285, 3.116e-8
-1.286, 3.293e-8
-1.287, 3.422e-8
-1.288, 3.313e-8
-1.289, 3.076e-8
-1.290, 3.027e-8
-1.291, 3.185e-8
-1.292, 3.392e-8
-1.293, 3.283e-8
-1.294, 3.106e-8
-1.295, 3.047e-8
-1.296, 3.283e-8
-1.297, 3.313e-8
-1.298, 3.264e-8
-1.299, 3.066e-8
-1.300, 3.076e-8
-1.301, 3.264e-8
-1.302, 3.244e-8
-1.303, 3.264e-8
-1.304, 3.096e-8
-1.305, 3.116e-8
-1.306, 3.343e-8
-1.307, 3.412e-8
-1.308, 3.333e-8
-1.309, 3.165e-8
-1.310, 3.056e-8
-1.311, 3.293e-8
-1.312, 3.431e-8
-1.313, 3.283e-8
-1.314, 3.126e-8
-1.315, 3.066e-8
-1.316, 3.264e-8
-1.317, 3.382e-8
-1.318, 3.283e-8
-1.319, 3.126e-8
-1.320, 2.978e-8
-1.321, 3.283e-8
-1.322, 3.422e-8
-1.323, 3.313e-8
-1.324, 3.116e-8
-1.325, 3.056e-8
-1.326, 3.362e-8
-1.327, 3.313e-8
-1.328, 3.303e-8
-1.329, 3.106e-8
-1.330, 2.968e-8
-1.331, 3.303e-8
-1.332, 3.431e-8
-1.333, 3.352e-8
-1.334, 3.126e-8
-1.335, 3.047e-8
-1.336, 3.264e-8
-1.337, 3.313e-8
-1.338, 3.323e-8
-1.339, 3.076e-8
-1.340, 3.056e-8
-1.341, 3.274e-8
-1.342, 3.283e-8
-1.343, 3.264e-8
-1.344, 3.145e-8
-1.345, 3.076e-8
-1.346, 3.264e-8
-1.347, 3.431e-8
-1.348, 3.283e-8
-1.349, 3.076e-8
-1.350, 3.017e-8
-1.351, 3.333e-8
-1.352, 3.362e-8
-1.353, 3.234e-8
-1.354, 3.126e-8
-1.355, 3.027e-8
-1.356, 3.274e-8
-1.357, 3.382e-8
-1.358, 3.343e-8
-1.359, 3.116e-8
-1.360, 2.978e-8
-1.361, 3.274e-8
-1.362, 3.431e-8
-1.363, 3.343e-8
-1.364, 3.145e-8
-1.365, 2.958e-8
-1.366, 3.214e-8
-1.367, 3.372e-8
-1.368, 3.264e-8
-1.369, 3.076e-8
-1.370, 3.175e-8
-1.371, 3.323e-8
-1.372, 3.382e-8
-1.373, 3.402e-8
-1.374, 3.126e-8
-1.375, 2.997e-8
-1.376, 3.293e-8
-1.377, 3.441e-8
-1.378, 3.402e-8
-1.379, 3.037e-8
-1.380, 3.047e-8
-1.381, 3.185e-8
-1.382, 3.323e-8
-1.383, 3.402e-8
-1.384, 3.126e-8
-1.385, 3.096e-8
-1.386, 3.264e-8
-1.387, 3.323e-8
-1.388, 3.244e-8
-1.389, 3.076e-8
-1.390, 3.096e-8
-1.391, 3.165e-8
-1.392, 3.441e-8
-1.393, 3.293e-8
-1.394, 3.145e-8
-1.395, 3.066e-8
-1.396, 3.352e-8
-1.397, 3.392e-8
-1.398, 3.283e-8
-1.399, 3.155e-8
-1.400, 3.037e-8
-1.401, 3.274e-8
-1.402, 3.382e-8
-1.403, 3.254e-8
-1.404, 3.165e-8
-1.405, 2.908e-8
-1.406, 3.244e-8
-1.407, 3.422e-8
-1.408, 3.392e-8
-1.409, 3.116e-8
-1.410, 3.106e-8
-1.411, 3.323e-8
-1.412, 3.303e-8
-1.413, 3.264e-8
-1.414, 3.056e-8
-1.415, 3.066e-8
-1.416, 3.283e-8
-1.417, 3.372e-8
-1.418, 3.264e-8
-1.419, 3.027e-8
-1.420, 3.017e-8
-1.421, 3.313e-8
-1.422, 3.352e-8
-1.423, 3.343e-8
-1.424, 3.047e-8
-1.425, 2.987e-8
-1.426, 3.175e-8
-1.427, 3.343e-8
-1.428, 3.362e-8
-1.429, 3.047e-8
-1.430, 3.017e-8
-1.431, 3.274e-8
-1.432, 3.352e-8
-1.433, 3.343e-8
-1.434, 3.175e-8
-1.435, 3.056e-8
-1.436, 3.392e-8
-1.437, 3.392e-8
-1.438, 3.333e-8
-1.439, 3.116e-8
-1.440, 3.086e-8
-1.441, 3.303e-8
-1.442, 3.382e-8
-1.443, 3.382e-8
-1.444, 3.126e-8
-1.445, 3.116e-8
-1.446, 3.303e-8
-1.447, 3.510e-8
-1.448, 3.412e-8
-1.449, 3.185e-8
-1.450, 3.066e-8
-1.451, 3.323e-8
-1.452, 3.402e-8
-1.453, 3.372e-8
-1.454, 3.096e-8
-1.455, 3.047e-8
-1.456, 3.352e-8
-1.457, 3.422e-8
-1.458, 3.402e-8
-1.459, 3.135e-8
-1.460, 3.007e-8
-1.461, 3.293e-8
-1.462, 3.392e-8
-1.463, 3.372e-8
-1.464, 3.066e-8
-1.465, 3.096e-8
-1.466, 3.234e-8
-1.467, 3.382e-8
-1.468, 3.313e-8
-1.469, 3.076e-8
-1.470, 3.116e-8
-1.471, 3.224e-8
-1.472, 3.343e-8
-1.473, 3.382e-8
-1.474, 3.135e-8
-1.475, 3.027e-8
-1.476, 3.313e-8
-1.477, 3.431e-8
-1.478, 3.392e-8
-1.479, 3.155e-8
-1.480, 3.056e-8
-1.481, 3.274e-8
-1.482, 3.372e-8
-1.483, 3.372e-8
-1.484, 3.175e-8
-1.485, 3.037e-8
-1.486, 3.372e-8
-1.487, 3.362e-8
-1.488, 3.392e-8
-1.489, 3.066e-8
-1.490, 3.017e-8
-1.491, 3.244e-8
-1.492, 3.481e-8
-1.493, 3.402e-8
-1.494, 3.076e-8
-1.495, 3.066e-8
-1.496, 3.352e-8
-1.497, 3.382e-8
-1.498, 3.412e-8
-1.499, 3.175e-8
-1.500, 3.047e-8
-1.501, 3.303e-8
-1.502, 3.372e-8
-1.503, 3.313e-8
-1.504, 3.076e-8
-1.505, 3.096e-8
-1.506, 3.303e-8
-1.507, 3.471e-8
-1.508, 3.323e-8
-1.509, 3.145e-8
-1.510, 3.047e-8
-1.511, 3.431e-8
-1.512, 3.481e-8
-1.513, 3.422e-8
-1.514, 3.155e-8
-1.515, 3.086e-8
-1.516, 3.293e-8
-1.517, 3.422e-8
-1.518, 3.412e-8
-1.519, 3.116e-8
-1.520, 3.017e-8
-1.521, 3.293e-8
-1.522, 3.402e-8
-1.523, 3.382e-8
-1.524, 3.076e-8
-1.525, 3.076e-8
-1.526, 3.362e-8
-1.527, 3.451e-8
-1.528, 3.431e-8
-1.529, 3.155e-8
-1.530, 3.096e-8
-1.531, 3.362e-8
-1.532, 3.441e-8
-1.533, 3.392e-8
-1.534, 3.066e-8
-1.535, 3.106e-8
-1.536, 3.323e-8
-1.537, 3.481e-8
-1.538, 3.441e-8
-1.539, 3.116e-8
-1.540, 3.027e-8
-1.541, 3.274e-8
-1.542, 3.422e-8
-1.543, 3.382e-8
-1.544, 3.195e-8
-1.545, 3.155e-8
-1.546, 3.382e-8
-1.547, 3.530e-8
-1.548, 3.362e-8
-1.549, 3.135e-8
-1.550, 3.106e-8
-1.551, 3.343e-8
-1.552, 3.451e-8
-1.553, 3.441e-8
-1.554, 3.145e-8
-1.555, 3.056e-8
-1.556, 3.313e-8
-1.557, 3.362e-8
-1.558, 3.362e-8
-1.559, 3.106e-8
-1.560, 3.106e-8
-1.561, 3.283e-8
-1.562, 3.412e-8
-1.563, 3.343e-8
-1.564, 3.175e-8
-1.565, 3.047e-8
-1.566, 3.382e-8
-1.567, 3.402e-8
-1.568, 3.392e-8
-1.569, 3.145e-8
-1.570, 3.037e-8
-1.571, 3.313e-8
-1.572, 3.471e-8
-1.573, 3.362e-8
-1.574, 3.076e-8
-1.575, 3.106e-8
-1.576, 3.274e-8
-1.577, 3.491e-8
-1.578, 3.362e-8
-1.579, 3.086e-8
-1.580, 3.135e-8
-1.581, 3.362e-8
-1.582, 3.402e-8
-1.583, 3.333e-8
-1.584, 3.165e-8
-1.585, 2.978e-8
-1.586, 3.313e-8
-1.587, 3.481e-8
-1.588, 3.491e-8
-1.589, 3.185e-8
-1.590, 3.076e-8
-1.591, 3.293e-8
-1.592, 3.372e-8
-1.593, 3.333e-8
-1.594, 3.214e-8
-1.595, 3.106e-8
-1.596, 3.293e-8
-1.597, 3.451e-8
-1.598, 3.362e-8
-1.599, 3.126e-8
-1.600, 3.175e-8
-1.601, 3.362e-8
-1.602, 3.422e-8
-1.603, 3.392e-8
-1.604, 3.126e-8
-1.605, 3.037e-8
-1.606, 3.382e-8
-1.607, 3.382e-8
-1.608, 3.451e-8
-1.609, 3.155e-8
-1.610, 3.096e-8
-1.611, 3.224e-8
-1.612, 3.412e-8
-1.613, 3.471e-8
-1.614, 3.106e-8
-1.615, 3.076e-8
-1.616, 3.333e-8
-1.617, 3.422e-8
-1.618, 3.313e-8
-1.619, 3.175e-8
-1.620, 3.056e-8
-1.621, 3.254e-8
-1.622, 3.392e-8
-1.623, 3.323e-8
-1.624, 3.106e-8
-1.625, 3.056e-8
-1.626, 3.244e-8
-1.627, 3.382e-8
-1.628, 3.392e-8
-1.629, 3.116e-8
-1.630, 3.056e-8
-1.631, 3.313e-8
-1.632, 3.431e-8
-1.633, 3.471e-8
-1.634, 3.155e-8
-1.635, 3.086e-8
-1.636, 3.204e-8
-1.637, 3.352e-8
-1.638, 3.402e-8
-1.639, 3.204e-8
-1.640, 3.185e-8
-1.641, 3.392e-8
-1.642, 3.560e-8
-1.643, 3.431e-8
-1.644, 3.224e-8
-1.645, 3.145e-8
-1.646, 3.313e-8
-1.647, 3.481e-8
-1.648, 3.461e-8
-1.649, 3.204e-8
-1.650, 3.135e-8
-1.651, 3.441e-8
-1.652, 3.550e-8
-1.653, 3.530e-8
-1.654, 3.234e-8
-1.655, 3.165e-8
-1.656, 3.343e-8
-1.657, 3.491e-8
-1.658, 3.441e-8
-1.659, 3.224e-8
-1.660, 3.106e-8
-1.661, 3.343e-8
-1.662, 3.520e-8
-1.663, 3.402e-8
-1.664, 3.264e-8
-1.665, 3.214e-8
-1.666, 3.431e-8
-1.667, 3.530e-8
-1.668, 3.441e-8
-1.669, 3.224e-8
-1.670, 3.185e-8
-1.671, 3.422e-8
-1.672, 3.530e-8
-1.673, 3.431e-8
-1.674, 3.204e-8
-1.675, 3.106e-8
-1.676, 3.362e-8
-1.677, 3.589e-8
-1.678, 3.500e-8
-1.679, 3.185e-8
-1.680, 3.106e-8
-1.681, 3.412e-8
-1.682, 3.510e-8
-1.683, 3.422e-8
-1.684, 3.204e-8
-1.685, 3.155e-8
-1.686, 3.392e-8
-1.687, 3.481e-8
-1.688, 3.500e-8
-1.689, 3.274e-8
-1.690, 3.254e-8
-1.691, 3.431e-8
-1.692, 3.520e-8
-1.693, 3.491e-8
-1.694, 3.214e-8
-1.695, 3.145e-8
-1.696, 3.441e-8
-1.697, 3.471e-8
-1.698, 3.500e-8
-1.699, 3.175e-8
-1.700, 3.234e-8
-1.701, 3.382e-8
-1.702, 3.451e-8
-1.703, 3.540e-8
-1.704, 3.323e-8
-1.705, 3.155e-8
-1.706, 3.313e-8
-1.707, 3.500e-8
-1.708, 3.382e-8
-1.709, 3.274e-8
-1.710, 3.126e-8
-1.711, 3.392e-8
-1.712, 3.530e-8
-1.713, 3.471e-8
-1.714, 3.165e-8
-1.715, 3.234e-8
-1.716, 3.500e-8
-1.717, 3.530e-8
-1.718, 3.491e-8
-1.719, 3.343e-8
-1.720, 3.116e-8
-1.721, 3.362e-8
-1.722, 3.451e-8
-1.723, 3.441e-8
-1.724, 3.204e-8
-1.725, 3.106e-8
-1.726, 3.451e-8
-1.727, 3.550e-8
-1.728, 3.520e-8
-1.729, 3.293e-8
-1.730, 3.185e-8
-1.731, 3.422e-8
-1.732, 3.451e-8
-1.733, 3.500e-8
-1.734, 3.323e-8
-1.735, 3.145e-8
-1.736, 3.333e-8
-1.737, 3.441e-8
-1.738, 3.491e-8
-1.739, 3.293e-8
-1.740, 3.126e-8
-1.741, 3.323e-8
-1.742, 3.579e-8
-1.743, 3.550e-8
-1.744, 3.254e-8
-1.745, 3.175e-8
-1.746, 3.412e-8
-1.747, 3.471e-8
-1.748, 3.441e-8
-1.749, 3.264e-8
-1.750, 3.185e-8
-1.751, 3.283e-8
-1.752, 3.451e-8
-1.753, 3.422e-8
-1.754, 3.333e-8
-1.755, 3.135e-8
-1.756, 3.313e-8
-1.757, 3.471e-8
-1.758, 3.461e-8
-1.759, 3.244e-8
-1.760, 3.155e-8
-1.761, 3.362e-8
-1.762, 3.500e-8
-1.763, 3.451e-8
-1.764, 3.254e-8
-1.765, 3.116e-8
-1.766, 3.303e-8
-1.767, 3.520e-8
-1.768, 3.510e-8
-1.769, 3.293e-8
-1.770, 3.145e-8
-1.771, 3.352e-8
-1.772, 3.550e-8
-1.773, 3.520e-8
-1.774, 3.333e-8
-1.775, 3.175e-8
-1.776, 3.402e-8
-1.777, 3.451e-8
-1.778, 3.500e-8
-1.779, 3.264e-8
-1.780, 3.056e-8
-1.781, 3.372e-8
-1.782, 3.530e-8
-1.783, 3.491e-8
-1.784, 3.283e-8
-1.785, 3.165e-8
-1.786, 3.362e-8
-1.787, 3.579e-8
-1.788, 3.520e-8
-1.789, 3.264e-8
-1.790, 3.175e-8
-1.791, 3.333e-8
-1.792, 3.560e-8
-1.793, 3.540e-8
-1.794, 3.195e-8
-1.795, 3.155e-8
-1.796, 3.372e-8
-1.797, 3.500e-8
-1.798, 3.589e-8
-1.799, 3.352e-8
-1.800, 3.086e-8
-1.801, 3.333e-8
-1.802, 3.560e-8
-1.803, 3.560e-8
-1.804, 3.234e-8
-1.805, 3.175e-8
-1.806, 3.362e-8
-1.807, 3.510e-8
-1.808, 3.491e-8
-1.809, 3.224e-8
-1.810, 3.096e-8
-1.811, 3.293e-8
-1.812, 3.471e-8
-1.813, 3.461e-8
-1.814, 3.204e-8
-1.815, 3.086e-8
-1.816, 3.274e-8
-1.817, 3.481e-8
-1.818, 3.461e-8
-1.819, 3.264e-8
-1.820, 3.195e-8
-1.821, 3.382e-8
-1.822, 3.609e-8
-1.823, 3.500e-8
-1.824, 3.323e-8
-1.825, 3.204e-8
-1.826, 3.313e-8
-1.827, 3.520e-8
-1.828, 3.461e-8
-1.829, 3.323e-8
-1.830, 3.126e-8
-1.831, 3.343e-8
-1.832, 3.471e-8
-1.833, 3.609e-8
-1.834, 3.313e-8
-1.835, 3.126e-8
-1.836, 3.431e-8
-1.837, 3.510e-8
-1.838, 3.461e-8
-1.839, 3.333e-8
-1.840, 3.066e-8
-1.841, 3.204e-8
-1.842, 3.461e-8
-1.843, 3.589e-8
-1.844, 3.392e-8
-1.845, 3.234e-8
-1.846, 3.422e-8
-1.847, 3.589e-8
-1.848, 3.570e-8
-1.849, 3.362e-8
-1.850, 3.165e-8
-1.851, 3.372e-8
-1.852, 3.491e-8
-1.853, 3.530e-8
-1.854, 3.264e-8
-1.855, 3.155e-8
-1.856, 3.451e-8
-1.857, 3.550e-8
-1.858, 3.648e-8
-1.859, 3.431e-8
-1.860, 3.224e-8
-1.861, 3.382e-8
-1.862, 3.530e-8
-1.863, 3.570e-8
-1.864, 3.313e-8
-1.865, 3.126e-8
-1.866, 3.283e-8
-1.867, 3.491e-8
-1.868, 3.540e-8
-1.869, 3.392e-8
-1.870, 3.204e-8
-1.871, 3.451e-8
-1.872, 3.599e-8
-1.873, 3.530e-8
-1.874, 3.441e-8
-1.875, 3.283e-8
-1.876, 3.352e-8
-1.877, 3.500e-8
-1.878, 3.550e-8
-1.879, 3.293e-8
-1.880, 3.175e-8
-1.881, 3.372e-8
-1.882, 3.530e-8
-1.883, 3.560e-8
-1.884, 3.441e-8
-1.885, 3.155e-8
-1.886, 3.441e-8
-1.887, 3.510e-8
-1.888, 3.570e-8
-1.889, 3.372e-8
-1.890, 3.274e-8
-1.891, 3.461e-8
-1.892, 3.530e-8
-1.893, 3.520e-8
-1.894, 3.372e-8
-1.895, 3.185e-8
-1.896, 3.441e-8
-1.897, 3.550e-8
-1.898, 3.560e-8
-1.899, 3.362e-8
-1.900, 3.195e-8
-1.901, 3.402e-8
-1.902, 3.530e-8
-1.903, 3.491e-8
-1.904, 3.323e-8
-1.905, 3.155e-8
-1.906, 3.402e-8
-1.907, 3.491e-8
-1.908, 3.619e-8
-1.909, 3.431e-8
-1.910, 3.175e-8
-1.911, 3.422e-8
-1.912, 3.491e-8
-1.913, 3.629e-8
-1.914, 3.422e-8
-1.915, 3.264e-8
-1.916, 3.441e-8
-1.917, 3.520e-8
-1.918, 3.530e-8
-1.919, 3.323e-8
-1.920, 3.195e-8
-1.921, 3.441e-8
-1.922, 3.579e-8
-1.923, 3.570e-8
-1.924, 3.441e-8
-1.925, 3.224e-8
-1.926, 3.372e-8
-1.927, 3.560e-8
-1.928, 3.491e-8
-1.929, 3.234e-8
-1.930, 3.135e-8
-1.931, 3.372e-8
-1.932, 3.550e-8
-1.933, 3.609e-8
-1.934, 3.392e-8
-1.935, 3.283e-8
-1.936, 3.461e-8
-1.937, 3.530e-8
-1.938, 3.520e-8
-1.939, 3.372e-8
-1.940, 3.224e-8
-1.941, 3.264e-8
-1.942, 3.510e-8
-1.943, 3.500e-8
-1.944, 3.333e-8
-1.945, 3.234e-8
-1.946, 3.441e-8
-1.947, 3.609e-8
-1.948, 3.619e-8
-1.949, 3.352e-8
-1.950, 3.155e-8
-1.951, 3.382e-8
-1.952, 3.560e-8
-1.953, 3.619e-8
-1.954, 3.382e-8
-1.955, 3.165e-8
-1.956, 3.392e-8
-1.957, 3.481e-8
-1.958, 3.570e-8
-1.959, 3.392e-8
-1.960, 3.214e-8
-1.961, 3.392e-8
-1.962, 3.481e-8
-1.963, 3.530e-8
-1.964, 3.412e-8
-1.965, 3.204e-8
-1.966, 3.333e-8
-1.967, 3.481e-8
-1.968, 3.579e-8
-1.969, 3.343e-8
-1.970, 3.214e-8
-1.971, 3.441e-8
-1.972, 3.560e-8
-1.973, 3.471e-8
-1.974, 3.392e-8
-1.975, 3.165e-8
-1.976, 3.343e-8
-1.977, 3.609e-8
-1.978, 3.530e-8
-1.979, 3.303e-8
-1.980, 3.185e-8
-1.981, 3.382e-8
-1.982, 3.510e-8
-1.983, 3.510e-8
-1.984, 3.352e-8
-1.985, 3.175e-8
-1.986, 3.382e-8
-1.987, 3.589e-8
-1.988, 3.589e-8
-1.989, 3.323e-8
-1.990, 3.185e-8
-1.991, 3.392e-8
-1.992, 3.431e-8
-1.993, 3.570e-8
-1.994, 3.431e-8
-1.995, 3.244e-8
-1.996, 3.372e-8
-1.997, 3.579e-8
-1.998, 3.579e-8
-1.999, 3.422e-8
-2.000, 3.254e-8
-2.001, 3.451e-8
-2.002, 3.540e-8
-2.003, 3.510e-8
-2.004, 3.471e-8
-2.005, 3.185e-8
-2.006, 3.441e-8
-2.007, 3.491e-8
-2.008, 3.599e-8
-2.009, 3.333e-8
-2.010, 3.135e-8
-2.011, 3.441e-8
-2.012, 3.540e-8
-2.013, 3.530e-8
-2.014, 3.412e-8
-2.015, 3.175e-8
-2.016, 3.343e-8
-2.017, 3.500e-8
-2.018, 3.471e-8
-2.019, 3.431e-8
-2.020, 3.254e-8
-2.021, 3.274e-8
-2.022, 3.520e-8
-2.023, 3.579e-8
-2.024, 3.441e-8
-2.025, 3.264e-8
-2.026, 3.333e-8
-2.027, 3.451e-8
-2.028, 3.510e-8
-2.029, 3.412e-8
-2.030, 3.185e-8
-2.031, 3.422e-8
-2.032, 3.540e-8
-2.033, 3.579e-8
-2.034, 3.362e-8
-2.035, 3.204e-8
-2.036, 3.382e-8
-2.037, 3.500e-8
-2.038, 3.560e-8
-2.039, 3.372e-8
-2.040, 3.185e-8
-2.041, 3.313e-8
-2.042, 3.481e-8
-2.043, 3.609e-8
-2.044, 3.412e-8
-2.045, 3.106e-8
-2.046, 3.402e-8
-2.047, 3.481e-8
-2.048, 3.589e-8
-2.049, 3.441e-8
-2.050, 3.313e-8
-2.051, 3.402e-8
-2.052, 3.560e-8
-2.053, 3.619e-8
-2.054, 3.500e-8
-2.055, 3.293e-8
-2.056, 3.412e-8
-2.057, 3.560e-8
-2.058, 3.619e-8
-2.059, 3.402e-8
-2.060, 3.283e-8
-2.061, 3.402e-8
-2.062, 3.540e-8
-2.063, 3.639e-8
-2.064, 3.461e-8
-2.065, 3.283e-8
-2.066, 3.431e-8
-2.067, 3.639e-8
-2.068, 3.579e-8
-2.069, 3.441e-8
-2.070, 3.224e-8
-2.071, 3.431e-8
-2.072, 3.540e-8
-2.073, 3.550e-8
-2.074, 3.560e-8
-2.075, 3.343e-8
-2.076, 3.461e-8
-2.077, 3.579e-8
-2.078, 3.609e-8
-2.079, 3.451e-8
-2.080, 3.303e-8
-2.081, 3.471e-8
-2.082, 3.570e-8
-2.083, 3.648e-8
-2.084, 3.471e-8
-2.085, 3.254e-8
-2.086, 3.451e-8
-2.087, 3.500e-8
-2.088, 3.609e-8
-2.089, 3.481e-8
-2.090, 3.283e-8
-2.091, 3.431e-8
-2.092, 3.579e-8
-2.093, 3.609e-8
-2.094, 3.392e-8
-2.095, 3.313e-8
-2.096, 3.481e-8
-2.097, 3.530e-8
-2.098, 3.589e-8
-2.099, 3.540e-8
-2.100, 3.362e-8
-2.101, 3.619e-8
-2.102, 3.629e-8
-2.103, 3.757e-8
-2.104, 3.560e-8
-2.105, 3.195e-8
-2.106, 3.451e-8
-2.107, 3.629e-8
-2.108, 3.550e-8
-2.109, 3.510e-8
-2.110, 3.224e-8
-2.111, 3.402e-8
-2.112, 3.668e-8
-2.113, 3.619e-8
-2.114, 3.422e-8
-2.115, 3.303e-8
-2.116, 3.392e-8
-2.117, 3.550e-8
-2.118, 3.609e-8
-2.119, 3.560e-8
-2.120, 3.264e-8
-2.121, 3.422e-8
-2.122, 3.471e-8
-2.123, 3.589e-8
-2.124, 3.510e-8
-2.125, 3.274e-8
-2.126, 3.491e-8
-2.127, 3.639e-8
-2.128, 3.648e-8
-2.129, 3.589e-8
-2.130, 3.274e-8
-2.131, 3.451e-8
-2.132, 3.609e-8
-2.133, 3.609e-8
-2.134, 3.510e-8
-2.135, 3.175e-8
-2.136, 3.352e-8
-2.137, 3.510e-8
-2.138, 3.658e-8
-2.139, 3.491e-8
-2.140, 3.343e-8
-2.141, 3.412e-8
-2.142, 3.560e-8
-2.143, 3.609e-8
-2.144, 3.510e-8
-2.145, 3.254e-8
-2.146, 3.431e-8
-2.147, 3.658e-8
-2.148, 3.609e-8
-2.149, 3.530e-8
-2.150, 3.343e-8
-2.151, 3.392e-8
-2.152, 3.589e-8
-2.153, 3.609e-8
-2.154, 3.530e-8
-2.155, 3.254e-8
-2.156, 3.431e-8
-2.157, 3.589e-8
-2.158, 3.579e-8
-2.159, 3.412e-8
-2.160, 3.343e-8
-2.161, 3.372e-8
-2.162, 3.540e-8
-2.163, 3.619e-8
-2.164, 3.510e-8
-2.165, 3.283e-8
-2.166, 3.372e-8
-2.167, 3.609e-8
-2.168, 3.629e-8
-2.169, 3.431e-8
-2.170, 3.244e-8
-2.171, 3.471e-8
-2.172, 3.619e-8
-2.173, 3.579e-8
-2.174, 3.451e-8
-2.175, 3.254e-8
-2.176, 3.382e-8
-2.177, 3.599e-8
-2.178, 3.639e-8
-2.179, 3.609e-8
-2.180, 3.293e-8
-2.181, 3.422e-8
-2.182, 3.520e-8
-2.183, 3.668e-8
-2.184, 3.491e-8
-2.185, 3.323e-8
-2.186, 3.362e-8
-2.187, 3.500e-8
-2.188, 3.619e-8
-2.189, 3.481e-8
-2.190, 3.264e-8
-2.191, 3.402e-8
-2.192, 3.530e-8
-2.193, 3.579e-8
-2.194, 3.570e-8
-2.195, 3.264e-8
-2.196, 3.382e-8
-2.197, 3.510e-8
-2.198, 3.619e-8
-2.199, 3.481e-8
-2.200, 3.323e-8
-2.201, 3.352e-8
-2.202, 3.629e-8
-2.203, 3.777e-8
-2.204, 3.530e-8
-2.205, 3.254e-8
-2.206, 3.372e-8
-2.207, 3.530e-8
-2.208, 3.648e-8
-2.209, 3.570e-8
-2.210, 3.224e-8
-2.211, 3.352e-8
-2.212, 3.540e-8
-2.213, 3.550e-8
-2.214, 3.530e-8
-2.215, 3.234e-8
-2.216, 3.422e-8
-2.217, 3.688e-8
-2.218, 3.619e-8
-2.219, 3.560e-8
-2.220, 3.352e-8
-2.221, 3.481e-8
-2.222, 3.639e-8
-2.223, 3.688e-8
-2.224, 3.540e-8
-2.225, 3.323e-8
-2.226, 3.392e-8
-2.227, 3.619e-8
-2.228, 3.688e-8
-2.229, 3.510e-8
-2.230, 3.323e-8
-2.231, 3.471e-8
-2.232, 3.648e-8
-2.233, 3.708e-8
-2.234, 3.579e-8
-2.235, 3.185e-8
-2.236, 3.392e-8
-2.237, 3.481e-8
-2.238, 3.570e-8
-2.239, 3.402e-8
-2.240, 3.185e-8
-2.241, 3.372e-8
-2.242, 3.510e-8
-2.243, 3.589e-8
-2.244, 3.422e-8
-2.245, 3.185e-8
-2.246, 3.293e-8
-2.247, 3.540e-8
-2.248, 3.589e-8
-2.249, 3.481e-8
-2.250, 3.234e-8
-2.251, 3.402e-8
-2.252, 3.589e-8
-2.253, 3.747e-8
-2.254, 3.422e-8
-2.255, 3.234e-8
-2.256, 3.471e-8
-2.257, 3.579e-8
-2.258, 3.708e-8
-2.259, 3.500e-8
-2.260, 3.293e-8
-2.261, 3.461e-8
-2.262, 3.639e-8
-2.263, 3.727e-8
-2.264, 3.481e-8
-2.265, 3.303e-8
-2.266, 3.441e-8
-2.267, 3.619e-8
-2.268, 3.619e-8
-2.269, 3.550e-8
-2.270, 3.313e-8
-2.271, 3.352e-8
-2.272, 3.589e-8
-2.273, 3.648e-8
-2.274, 3.500e-8
-2.275, 3.362e-8
-2.276, 3.481e-8
-2.277, 3.579e-8
-2.278, 3.658e-8
-2.279, 3.648e-8
-2.280, 3.283e-8
-2.281, 3.500e-8
-2.282, 3.629e-8
-2.283, 3.658e-8
-2.284, 3.540e-8
-2.285, 3.343e-8
-2.286, 3.392e-8
-2.287, 3.570e-8
-2.288, 3.619e-8
-2.289, 3.550e-8
-2.290, 3.264e-8
-2.291, 3.372e-8
-2.292, 3.639e-8
-2.293, 3.639e-8
-2.294, 3.599e-8
-2.295, 3.313e-8
-2.296, 3.441e-8
-2.297, 3.579e-8
-2.298, 3.668e-8
-2.299, 3.550e-8
-2.300, 3.402e-8
-2.301, 3.461e-8
-2.302, 3.579e-8
-2.303, 3.639e-8
-2.304, 3.530e-8
-2.305, 3.422e-8
-2.306, 3.491e-8
-2.307, 3.658e-8
-2.308, 3.717e-8
-2.309, 3.540e-8
-2.310, 3.352e-8
-2.311, 3.333e-8
-2.312, 3.599e-8
-2.313, 3.708e-8
-2.314, 3.550e-8
-2.315, 3.362e-8
-2.316, 3.402e-8
-2.317, 3.668e-8
-2.318, 3.688e-8
-2.319, 3.589e-8
-2.320, 3.323e-8
-2.321, 3.451e-8
-2.322, 3.678e-8
-2.323, 3.599e-8
-2.324, 3.658e-8
-2.325, 3.274e-8
-2.326, 3.412e-8
-2.327, 3.688e-8
-2.328, 3.678e-8
-2.329, 3.540e-8
-2.330, 3.313e-8
-2.331, 3.343e-8
-2.332, 3.579e-8
-2.333, 3.648e-8
-2.334, 3.560e-8
-2.335, 3.195e-8
-2.336, 3.372e-8
-2.337, 3.491e-8
-2.338, 3.717e-8
-2.339, 3.540e-8
-2.340, 3.244e-8
-2.341, 3.372e-8
-2.342, 3.658e-8
-2.343, 3.717e-8
-2.344, 3.609e-8
-2.345, 3.313e-8
-2.346, 3.422e-8
-2.347, 3.629e-8
-2.348, 3.678e-8
-2.349, 3.471e-8
-2.350, 3.293e-8
-2.351, 3.491e-8
-2.352, 3.589e-8
-2.353, 3.698e-8
-2.354, 3.629e-8
-2.355, 3.402e-8
-2.356, 3.471e-8
-2.357, 3.639e-8
-2.358, 3.708e-8
-2.359, 3.629e-8
-2.360, 3.293e-8
-2.361, 3.422e-8
-2.362, 3.599e-8
-2.363, 3.737e-8
-2.364, 3.629e-8
-2.365, 3.293e-8
-2.366, 3.431e-8
-2.367, 3.648e-8
-2.368, 3.717e-8
-2.369, 3.599e-8
-2.370, 3.352e-8
-2.371, 3.362e-8
-2.372, 3.560e-8
-2.373, 3.629e-8
-2.374, 3.589e-8
-2.375, 3.431e-8
-2.376, 3.402e-8
-2.377, 3.599e-8
-2.378, 3.668e-8
-2.379, 3.550e-8
-2.380, 3.382e-8
-2.381, 3.412e-8
-2.382, 3.560e-8
-2.383, 3.727e-8
-2.384, 3.619e-8
-2.385, 3.323e-8
-2.386, 3.333e-8
-2.387, 3.520e-8
-2.388, 3.668e-8
-2.389, 3.540e-8
-2.390, 3.372e-8
-2.391, 3.274e-8
-2.392, 3.560e-8
-2.393, 3.737e-8
-2.394, 3.668e-8
-2.395, 3.362e-8
-2.396, 3.283e-8
-2.397, 3.579e-8
-2.398, 3.658e-8
-2.399, 3.550e-8
-2.400, 3.362e-8
-2.401, 3.352e-8
-2.402, 3.579e-8
-2.403, 3.796e-8
-2.404, 3.619e-8
-2.405, 3.392e-8
-2.406, 3.392e-8
-2.407, 3.639e-8
-2.408, 3.688e-8
-2.409, 3.727e-8
-2.410, 3.392e-8
-2.411, 3.471e-8
-2.412, 3.619e-8
-2.413, 3.747e-8
-2.414, 3.648e-8
-2.415, 3.372e-8
-2.416, 3.422e-8
-2.417, 3.599e-8
-2.418, 3.619e-8
-2.419, 3.560e-8
-2.420, 3.352e-8
-2.421, 3.323e-8
-2.422, 3.520e-8
-2.423, 3.629e-8
-2.424, 3.579e-8
-2.425, 3.392e-8
-2.426, 3.362e-8
-2.427, 3.619e-8
-2.428, 3.678e-8
-2.429, 3.560e-8
-2.430, 3.372e-8
-2.431, 3.254e-8
-2.432, 3.688e-8
-2.433, 3.747e-8
-2.434, 3.530e-8
-2.435, 3.343e-8
-2.436, 3.303e-8
-2.437, 3.570e-8
-2.438, 3.717e-8
-2.439, 3.579e-8
-2.440, 3.412e-8
-2.441, 3.451e-8
-2.442, 3.530e-8
-2.443, 3.688e-8
-2.444, 3.609e-8
-2.445, 3.352e-8
-2.446, 3.402e-8
-2.447, 3.639e-8
-2.448, 3.678e-8
-2.449, 3.619e-8
-2.450, 3.343e-8
-2.451, 3.343e-8
-2.452, 3.560e-8
-2.453, 3.708e-8
-2.454, 3.648e-8
-2.455, 3.382e-8
-2.456, 3.333e-8
-2.457, 3.619e-8
-2.458, 3.787e-8
-2.459, 3.708e-8
-2.460, 3.431e-8
-2.461, 3.412e-8
-2.462, 3.589e-8
-2.463, 3.757e-8
-2.464, 3.668e-8
-2.465, 3.362e-8
-2.466, 3.343e-8
-2.467, 3.629e-8
-2.468, 3.777e-8
-2.469, 3.609e-8
-2.470, 3.382e-8
-2.471, 3.550e-8
-2.472, 3.658e-8
-2.473, 3.767e-8
-2.474, 3.619e-8
-2.475, 3.323e-8
-2.476, 3.392e-8
-2.477, 3.698e-8
-2.478, 3.737e-8
-2.479, 3.609e-8
-2.480, 3.431e-8
-2.481, 3.431e-8
-2.482, 3.678e-8
-2.483, 3.836e-8
-2.484, 3.727e-8
-2.485, 3.412e-8
-2.486, 3.471e-8
-2.487, 3.619e-8
-2.488, 3.678e-8
-2.489, 3.579e-8
-2.490, 3.372e-8
-2.491, 3.471e-8
-2.492, 3.698e-8
-2.493, 3.796e-8
-2.494, 3.688e-8
-2.495, 3.392e-8
-2.496, 3.500e-8
-2.497, 3.688e-8
-2.498, 3.836e-8
-2.499, 3.629e-8
