Potential V vs RHE, Current mA cm-2
0.05339999999999995,-0.045313202934677124
0.05239999999999995,-0.12061828542649301
0.051399999999999946,-0.18037569073279217
0.050399999999999945,-0.21305552175967452
0.049399999999999944,-0.23441766238763656
0.04839999999999994,-0.25026242894612494
0.04739999999999994,-0.26384365742482935
0.04639999999999994,-0.27530281895373615
0.04539999999999994,-0.28605462483271044
0.04439999999999994,-0.2955331905418062
0.04339999999999994,-0.3041629294709829
0.04239999999999994,-0.31293413953014615
0.04139999999999994,-0.32071505167940384
0.040399999999999936,-0.3287789060886345
0.039399999999999935,-0.33641834710790575
0.038399999999999934,-0.34405778812717697
0.03739999999999993,-0.3509898734965156
0.03639999999999993,-0.35763901660588127
0.03539999999999993,-0.36414668858526045
0.03439999999999993,-0.37107877395459915
0.03339999999999993,-0.3773035036740053
0.03239999999999993,-0.38366970452339794
0.03139999999999993,-0.3901773765027771
0.030399999999999927,-0.39611916396221025
0.029399999999999926,-0.40262683594158943
0.028399999999999925,-0.40856862340102257
0.027399999999999924,-0.41465188199044223
0.026399999999999924,-0.42115955396982147
0.025399999999999923,-0.42724281255924107
0.024399999999999922,-0.4333260711486608
0.02339999999999992,-0.4392678586080939
0.02239999999999992,-0.444926703807554
0.02139999999999992,-0.4515758469169197
0.020399999999999918,-0.4573761632463663
0.019399999999999917,-0.46331795070579956
0.018399999999999916,-0.46968415155519216
0.017399999999999916,-0.4756259390146253
0.016399999999999915,-0.4815677264740585
0.015399999999999914,-0.48793392732345114
0.014399999999999913,-0.49387571478288433
0.013399999999999912,-0.5003833867622635
0.012399999999999911,-0.5066081164816696
0.01139999999999991,-0.5122669616811297
0.01039999999999991,-0.518491691400536
0.009399999999999908,-0.5248578922499286
0.008399999999999908,-0.5310826219693349
0.007399999999999907,-0.5371658805587545
0.006399999999999906,-0.5433906102781606
0.005399999999999905,-0.5500397533875263
0.004399999999999904,-0.5562644831069326
0.003399999999999903,-0.5626306839563251
0.002399999999999902,-0.5694212981956773
0.0013999999999999013,-0.5756460279150835
0.00039999999999990044,-0.582295171024449
-0.0006000000000001005,-0.5889443141338148
-0.0016000000000001013,-0.595169043853221
-0.0026000000000001022,-0.6021011292225595
-0.003600000000000103,-0.6090332145918983
-0.004600000000000104,-0.6155408865712775
-0.005600000000000105,-0.6220485585506567
-0.006600000000000106,-0.6284147594000492
-0.007600000000000107,-0.635346844769388
-0.008600000000000108,-0.6424204012687131
-0.009600000000000108,-0.6494939577680383
-0.01060000000000011,-0.6564260431373771
-0.01160000000000011,-0.6633581285067156
-0.012600000000000111,-0.6712805117859599
-0.013600000000000112,-0.6787784816752446
-0.014600000000000113,-0.6851446825246373
-0.015600000000000114,-0.6922182390239625
-0.016600000000000115,-0.6994332666532742
-0.017600000000000116,-0.7063653520226129
-0.018600000000000116,-0.7141462641718705
-0.019600000000000117,-0.7215027629311687
-0.020600000000000118,-0.7285763194304938
-0.02160000000000012,-0.7360742893197786
-0.02260000000000012,-0.7434307880790767
-0.02360000000000012,-0.7512117002283345
-0.024600000000000122,-0.7587096701176191
-0.025600000000000123,-0.7657832266169443
-0.026600000000000124,-0.773564138766202
-0.027600000000000124,-0.7812035797854733
-0.028600000000000125,-0.788984491934731
-0.029600000000000126,-0.7969068752139751
-0.030600000000000127,-0.8045463162332464
-0.03160000000000013,-0.8124686995124906
-0.03260000000000013,-0.8202496116617483
-0.03360000000000013,-0.8281719949409925
-0.03460000000000002,-0.8360943782202367
-0.03560000000000002,-0.8437338192395079
-0.03660000000000002,-0.8515147313887655
-0.03760000000000002,-0.8600029991879558
-0.03860000000000002,-0.8677839113372136
-0.039600000000000024,-0.8761307080064172
-0.040600000000000025,-0.884194562415648
-0.041600000000000026,-0.8918340034349193
-0.04260000000000003,-0.9003222712341092
-0.04360000000000003,-0.908669067903313
-0.04460000000000003,-0.9168743934425302
-0.04560000000000003,-0.925221190111734
-0.04660000000000003,-0.9332850445209646
-0.04760000000000003,-0.9416318411901684
-0.04860000000000003,-0.9501201089893586
-0.04960000000000003,-0.9583254345285759
-0.050600000000000034,-0.9668137023277661
-0.051600000000000035,-0.9753019701269563
-0.052600000000000036,-0.983365824536187
-0.053600000000000037,-0.9919955634653637
-0.05460000000000004,-1.0003423601345676
-0.05560000000000004,-1.008972099063744
-0.05660000000000004,-1.0174603668629343
-0.05760000000000004,-1.0259486346621245
-0.05860000000000004,-1.0348613158512743
-0.05960000000000004,-1.0433495836504647
-0.06060000000000004,-1.0516963803196684
-0.061600000000000044,-1.0607505326388047
-0.06260000000000004,-1.0690973293080082
-0.06360000000000005,-1.078010010497158
-0.06460000000000005,-1.0869226916863075
-0.06560000000000005,-1.0949865460955384
-0.06660000000000005,-1.103899227284688
-0.06760000000000005,-1.112528966213865
-0.06860000000000005,-1.1214416474030147
-0.06960000000000005,-1.1306372708521373
-0.07060000000000005,-1.139549952041287
-0.07160000000000005,-1.1481796909704638
-0.07260000000000005,-1.156950901029627
-0.07360000000000005,-1.1655806399588036
-0.07460000000000006,-1.17463479227794
-0.07560000000000006,-1.1836889445970762
-0.07660000000000006,-1.192601625786226
-0.07760000000000006,-1.201655778105362
-0.07860000000000006,-1.2104269881645253
-0.07960000000000006,-1.2194811404836614
-0.08060000000000006,-1.228535292802798
-0.08160000000000006,-1.2373065028619612
-0.08260000000000006,-1.2467850685710569
-0.08360000000000006,-1.2558392208901932
-0.08460000000000006,-1.2648933732093293
-0.08560000000000006,-1.2742304677884386
-0.08660000000000007,-1.2827187355876288
-0.08760000000000007,-1.2916314167767784
-0.08860000000000007,-1.3013929247458473
-0.08960000000000007,-1.310305605934997
-0.09060000000000007,-1.319642700514106
-0.09160000000000007,-1.3286968528332426
-0.09260000000000007,-1.3374680628924058
-0.09360000000000007,-1.347088099731488
-0.09460000000000007,-1.3562837231806106
-0.09560000000000007,-1.3657622888897063
-0.09660000000000007,-1.3749579123388291
-0.09760000000000008,-1.383870593527979
-0.09860000000000008,-1.3936321014970476
-0.09960000000000008,-1.4028277249461705
-0.10060000000000008,-1.41174040613532
-0.10160000000000008,-1.421784856364362
-0.10260000000000008,-1.4302731241635522
-0.10360000000000008,-1.4401761032626073
-0.10460000000000008,-1.4500790823616625
-0.10560000000000008,-1.4585673501608527
-0.10660000000000008,-1.4684703292599082
-0.10760000000000008,-1.4783733083589634
-0.10860000000000009,-1.4868615761581534
-0.10960000000000009,-1.4967645552572086
-0.11060000000000009,-1.506667534356264
-0.11160000000000009,-1.5151558021554543
-0.11260000000000009,-1.5250587812545096
-0.11360000000000009,-1.5349617603535646
-0.11460000000000009,-1.54486473945262
-0.11560000000000009,-1.5547677185516753
-0.11660000000000009,-1.5632559863508655
-0.1176000000000001,-1.5731589654499207
-0.1186000000000001,-1.583061944548976
-0.1196000000000001,-1.5929649236480312
-0.1206000000000001,-1.6028679027470865
-0.1216000000000001,-1.6113561705462767
-0.1226000000000001,-1.6212591496453321
-0.1236000000000001,-1.6311621287443874
-0.1246000000000001,-1.6410651078434426
-0.1256000000000001,-1.6509680869424979
-0.1266000000000001,-1.6594563547416883
-0.1276000000000001,-1.6693593338407433
-0.1286000000000001,-1.6792623129397986
-0.1296000000000001,-1.6891652920388538
-0.1306000000000001,-1.6990682711379093
-0.1316000000000001,-1.7075565389370995
-0.1326000000000001,-1.7174595180361545
-0.1336000000000001,-1.72736249713521
-0.1346000000000001,-1.7372654762342652
-0.1356000000000001,-1.7471684553333202
-0.1366000000000001,-1.7570714344323757
-0.1376000000000001,-1.7655597022315657
-0.1386000000000001,-1.775462681330621
-0.1396000000000001,-1.7853656604296764
-0.1406000000000001,-1.7952686395287314
-0.14160000000000011,-1.8051716186277869
-0.14260000000000012,-1.815074597726842
-0.14360000000000012,-1.8249775768258971
-0.14460000000000012,-1.8348805559249526
-0.14560000000000012,-1.8433688237241426
-0.14660000000000012,-1.8532718028231983
-0.14760000000000012,-1.8631747819222533
-0.14860000000000012,-1.8730777610213083
-0.14960000000000012,-1.882980740120364
-0.15060000000000012,-1.892883719219419
-0.15160000000000012,-1.9027866983184742
-0.15260000000000012,-1.9126896774175295
-0.15360000000000013,-1.922592656516585
-0.15460000000000013,-1.9310809243157752
-0.15560000000000013,-1.9409839034148304
-0.15660000000000013,-1.9508868825138854
-0.15760000000000013,-1.9607898616129409
-0.15860000000000013,-1.9706928407119961
-0.15960000000000002,-1.9791811085111866
-0.16060000000000002,-1.9890840876102414
-0.16160000000000002,-1.9989870667092968
-0.16260000000000002,-2.008890045808352
-0.16360000000000002,-2.0187930249074073
-0.16460000000000002,-2.0286960040064623
-0.16560000000000002,-2.038598983105518
-0.16660000000000003,-2.049916673504438
-0.16760000000000003,-2.0598196526034935
-0.16860000000000003,-2.0683079204026833
-0.16960000000000003,-2.076796188201874
-0.17060000000000003,-2.0866991673009294
-0.17160000000000003,-2.0966021463999844
-0.17260000000000003,-2.105090414199175
-0.17360000000000003,-2.1149933932982297
-0.17460000000000003,-2.124896372397285
-0.17560000000000003,-2.133384640196476
-0.17660000000000003,-2.1432876192955304
-0.17760000000000004,-2.1531905983945863
-0.17860000000000004,-2.161678866193776
-0.17960000000000004,-2.171581845292831
-0.18060000000000004,-2.181484824391887
-0.18160000000000004,-2.1899730921910767
-0.18260000000000004,-2.1984613599902674
-0.18360000000000004,-2.208364339089322
-0.18460000000000004,-2.2182673181883774
-0.18560000000000004,-2.226755585987568
-0.18660000000000004,-2.2366585650866226
-0.18760000000000004,-2.2451468328858133
-0.18860000000000005,-2.2550498119848683
-0.18960000000000005,-2.2649527910839233
-0.19060000000000005,-2.273441058883114
-0.19160000000000005,-2.283344037982169
-0.19260000000000005,-2.2918323057813597
-0.19360000000000005,-2.3003205735805494
-0.19460000000000005,-2.310223552679605
-0.19560000000000005,-2.318711820478795
-0.19660000000000005,-2.3272000882779853
-0.19760000000000005,-2.3371030673770408
-0.19860000000000005,-2.3455913351762305
-0.19960000000000006,-2.354079602975421
-0.20060000000000006,-2.362567870774611
-0.20160000000000006,-2.3710561385738016
-0.20260000000000006,-2.380959117672857
-0.20360000000000006,-2.389447385472047
-0.20460000000000006,-2.3979356532712375
-0.20560000000000006,-2.4064239210704272
-0.20660000000000006,-2.414912188869618
-0.20760000000000006,-2.4234004566688077
-0.20860000000000006,-2.4318887244679983
-0.20960000000000006,-2.4403769922671885
-0.21060000000000006,-2.4488652600663787
-0.21160000000000007,-2.457353527865569
-0.21260000000000007,-2.465841795664759
-0.21360000000000007,-2.4743300634639493
-0.21460000000000007,-2.4828183312631396
-0.21560000000000007,-2.4913065990623298
-0.21660000000000007,-2.49979486686152
-0.21760000000000007,-2.50828313466071
-0.21860000000000007,-2.5167714024599
-0.21960000000000007,-2.5252596702590906
-0.22060000000000007,-2.532333226758415
-0.22160000000000007,-2.5408214945576058
-0.22260000000000008,-2.5478950510569307
-0.22360000000000008,-2.5563833188561214
-0.22460000000000008,-2.5648715866553116
-0.22560000000000008,-2.5719451431546365
-0.22660000000000008,-2.579018699653962
-0.22760000000000008,-2.587506967453152
-0.22860000000000008,-2.5945805239524775
-0.22960000000000008,-2.6030687917516673
-0.23060000000000008,-2.610142348250993
-0.23160000000000008,-2.6172159047503176
-0.23260000000000008,-2.6257041725495083
-0.23360000000000009,-2.6327777290488332
-0.2346000000000001,-2.639851285548158
-0.2356000000000001,-2.6469248420474836
-0.2366000000000001,-2.6539983985468085
-0.2376000000000001,-2.661071955046134
-0.2386000000000001,-2.6681455115454593
-0.2396000000000001,-2.6752190680447843
-0.2406000000000001,-2.6837073358439745
-0.2416000000000001,-2.689366181043435
-0.2426000000000001,-2.69643973754276
-0.2436000000000001,-2.7035132940420854
-0.2446000000000001,-2.7105868505414104
-0.2456000000000001,-2.7176604070407357
-0.2466000000000001,-2.7233192522401954
-0.2476000000000001,-2.730392808739521
-0.2486000000000001,-2.737466365238846
-0.2496000000000001,-2.743125210438306
-0.2506000000000001,-2.7501987669376318
-0.2516000000000001,-2.7558576121370915
-0.2526000000000001,-2.7629311686364164
-0.2536000000000001,-2.768590013835877
-0.2546000000000001,-2.775663570335202
-0.2556000000000001,-2.7813224155346625
-0.2566000000000001,-2.788395972033987
-0.2576000000000001,-2.794054817233447
-0.2586000000000001,-2.7997136624329078
-0.2596000000000001,-2.8067872189322327
-0.2606000000000001,-2.8124460641316933
-0.2616000000000001,-2.818104909331153
-0.2626000000000001,-2.823763754530613
-0.2636000000000001,-2.8294225997300737
-0.2646000000000001,-2.8350814449295334
-0.2656000000000001,-2.840740290128994
-0.2666000000000001,-2.846399135328454
-0.2676000000000001,-2.852057980527914
-0.2686000000000001,-2.8577168257273744
-0.2696000000000001,-2.863375670926834
-0.2706000000000001,-2.8690345161262942
-0.2716000000000001,-2.874693361325755
-0.2726000000000001,-2.8803522065252145
-0.2736000000000001,-2.8860110517246746
-0.2746000000000001,-2.8916698969241352
-0.2756000000000001,-2.897328742123595
-0.2766000000000001,-2.90157287602319
-0.2776000000000001,-2.9072317212226504
-0.2786000000000001,-2.91289056642211
-0.2796000000000001,-2.9185494116215707
-0.2806000000000001,-2.924208256821031
-0.28160000000000013,-2.9298671020204905
-0.28260000000000013,-2.935525947219951
-0.28360000000000013,-2.941184792419411
-0.2846,-2.945428926319006
-0.2856,-2.9510877715184667
-0.2866,-2.956746616717927
-0.2876,-2.9624054619173865
-0.2886,-2.968064307116847
-0.2896,-2.972308441016442
-0.2906,-2.977967286215902
-0.2916,-2.9836261314153627
-0.2926,-2.989284976614823
-0.2936,-2.994943821814283
-0.29460000000000003,-3.000602667013743
-0.29560000000000003,-3.006261512213203
-0.29660000000000003,-3.0119203574126634
-0.29760000000000003,-3.0161644913122583
-0.29860000000000003,-3.021823336511718
-0.29960000000000003,-3.0274821817111786
-0.30060000000000003,-3.0331410269106387
-0.30160000000000003,-3.0402145834099636
-0.30260000000000004,-3.0458734286094242
-0.30360000000000004,-3.0515322738088844
-0.30460000000000004,-3.0571911190083445
-0.30560000000000004,-3.0628499642078046
-0.30660000000000004,-3.0685088094072643
-0.30760000000000004,-3.0755823659065897
-0.30860000000000004,-3.08124121110605
-0.30960000000000004,-3.08690005630551
-0.31060000000000004,-3.09255890150497
-0.31160000000000004,-3.0996324580042955
-0.31260000000000004,-3.1052913032037557
-0.31360000000000005,-3.1123648597030806
-0.31460000000000005,-3.1180237049025408
-0.31560000000000005,-3.125097261401866
-0.31660000000000005,-3.1321708179011907
-0.31760000000000005,-3.1378296631006513
-0.31860000000000005,-3.1449032195999767
-0.31960000000000005,-3.153391487399167
-0.32060000000000005,-3.160465043898492
-0.32160000000000005,-3.166123889097952
-0.32260000000000005,-3.1731974455972773
-0.32360000000000005,-3.1802710020966023
-0.32460000000000006,-3.1873445585959277
-0.32560000000000006,-3.1944181150952526
-0.32660000000000006,-3.201491671594578
-0.32760000000000006,-3.2099799393937682
-0.32860000000000006,-3.217053495893093
-0.32960000000000006,-3.2241270523924186
-0.33060000000000006,-3.232615320191609
-0.33160000000000006,-3.2411035879907995
-0.33260000000000006,-3.2481771444901244
-0.33360000000000006,-3.2566654122893146
-0.33460000000000006,-3.265153680088505
-0.33560000000000006,-3.273641947887695
-0.33660000000000007,-3.2821302156868852
-0.33760000000000007,-3.2906184834860754
-0.33860000000000007,-3.2991067512852656
-0.33960000000000007,-3.307595019084456
-0.34060000000000007,-3.316083286883646
-0.34160000000000007,-3.3245715546828363
-0.34260000000000007,-3.3344745337818917
-0.34360000000000007,-3.3429628015810815
-0.3446000000000001,-3.352865780680137
-0.3456000000000001,-3.361354048479327
-0.3466000000000001,-3.371257027578382
-0.34759999999999996,-3.381160006677438
-0.3486000000000001,-3.3910629857764927
-0.34959999999999997,-3.400965964875548
-0.3506000000000001,-3.4108689439746036
-0.35159999999999997,-3.4207719230736586
-0.3526000000000001,-3.430674902172714
-0.35359999999999997,-3.440577881271769
-0.3546000000000001,-3.4518955716706894
-0.35559999999999997,-3.4617985507697444
-0.3566000000000001,-3.473116241168665
-0.3576,-3.4830192202677206
-0.3586000000000001,-3.4943369106666404
-0.3596,-3.505654601065561
-0.3606000000000001,-3.5169722914644814
-0.3616,-3.5268752705635364
-0.3626000000000001,-3.539607672262322
-0.3636,-3.5495106513613774
-0.3646000000000001,-3.562243053060162
-0.3656,-3.573560743459083
-0.3666000000000001,-3.5848784338580026
-0.3676,-3.5976108355567886
-0.3686000000000001,-3.608928525955709
-0.3696,-3.6216609276544935
-0.3706000000000001,-3.6343933293532795
-0.3716,-3.647125731052064
-0.3726000000000001,-3.65985813275085
-0.3736,-3.6725905344496357
-0.3746000000000001,-3.6853229361484203
-0.3756,-3.698055337847206
-0.3766000000000001,-3.710787739545991
-0.3776,-3.7235201412447765
-0.3786000000000001,-3.7362525429435625
-0.3796,-3.7503996559422124
-0.3806000000000001,-3.7631320576409975
-0.3816,-3.7772791706396474
-0.3826000000000001,-3.7900115723384333
-0.3836,-3.8041586853370832
-0.3846000000000001,-3.818305798335734
-0.3856,-3.832452911334385
-0.3866000000000001,-3.8466000243330347
-0.3876,-3.8607471373316855
-0.3886000000000001,-3.8748942503303354
-0.3896,-3.889041363328986
-0.3906000000000001,-3.903188476327636
-0.3916,-3.918750300626152
-0.3926000000000001,-3.934312124924667
-0.3936,-3.9484592379233177
-0.3946000000000001,-3.9640210622218324
-0.3956,-3.979582886520348
-0.3966000000000001,-3.9937299995189983
-0.3976,-4.009291823817514
-0.3986000000000001,-4.024853648116029
-0.3996,-4.040415472414544
-0.4006000000000001,-4.05597729671306
-0.4016,-4.0715391210115754
-0.4026000000000001,-4.088515656609956
-0.4036,-4.1040774809084715
-0.4046000000000001,-4.119639305206987
-0.4056,-4.136615840805367
-0.40660000000000013,-4.152177665103882
-0.4076,-4.1691542007022635
-0.40860000000000013,-4.186130736300643
-0.4096,-4.201692560599159
-0.41060000000000013,-4.218669096197539
-0.4116,-4.23564563179592
-0.41260000000000013,-4.251207456094435
-0.4136,-4.269598702992681
-0.41460000000000014,-4.286575238591061
-0.4156,-4.303551774189442
-0.41660000000000014,-4.3205283097878215
-0.4176,-4.337504845386203
-0.41860000000000014,-4.355896092284448
-0.41960000000000003,-4.374287339182693
-0.42060000000000014,-4.391263874781075
-0.42160000000000003,-4.40965512167932
-0.42260000000000014,-4.428046368577565
-0.42360000000000003,-4.445022904175945
-0.42460000000000014,-4.463414151074191
-0.42560000000000003,-4.480390686672571
-0.42660000000000015,-4.498781933570816
-0.42760000000000004,-4.5171731804690625
-0.42860000000000015,-4.535564427367307
-0.42960000000000004,-4.553955674265553
-0.43060000000000015,-4.572346921163798
-0.43160000000000004,-4.590738168062044
-0.43260000000000015,-4.6091294149602895
-0.43360000000000004,-4.627520661858535
-0.43460000000000015,-4.645911908756781
-0.43560000000000004,-4.665717866954891
-0.43660000000000015,-4.684109113853137
-0.43760000000000004,-4.702500360751382
-0.43860000000000016,-4.7208916076496275
-0.43960000000000005,-4.7406975658477375
-0.44060000000000016,-4.759088812745984
-0.44160000000000005,-4.778894770944094
-0.44260000000000016,-4.798700729142205
-0.44360000000000005,-4.818506687340315
-0.44460000000000016,-4.836897934238561
-0.44560000000000005,-4.856703892436671
-0.44660000000000016,-4.876509850634781
-0.44760000000000005,-4.896315808832893
-0.44860000000000017,-4.916121767031002
-0.44960000000000006,-4.935927725229114
-0.45060000000000017,-4.955733683427223
-0.45160000000000006,-4.975539641625334
