Sept. 3, 2024   20:15:59
Cyclic Voltammetry
File: c:/users/guazh/data/20240903_batch_252_500/2024-09-03-exp255\exp255-2024-09-03t19_53_30-h2koh\exp255_cv_sr_200mvs_efin_-1800mv.bin
Data Source:  Experiment
Instrument Model:  CHI760E
Header: CV ran at 200 mVs
Note: 

Init E (V) = -1
High E (V) = -1
Low E (V) = -1.8
Final E (V) = -1
Init P/N = N
Scan Rate (V/s) = 0.2
Segment = 3
Sample Interval (V) = 0.001
Quiet Time (sec) = 2
Sensitivity (A/V) = 0.01
Comp R (ohm) = 2.2

Results:

Channel 1:
Segment 1:

Segment 2:

Segment 3:

Potential/V, Current/A

-1.000, 8.169e-7
-1.001, 1.271e-6
-1.002, 1.281e-6
-1.003, 1.399e-6
-1.004, 1.675e-6
-1.005, 1.665e-6
-1.006, 1.715e-6
-1.007, 1.882e-6
-1.008, 1.488e-6
-1.009, 1.961e-6
-1.010, 1.981e-6
-1.011, 2.021e-6
-1.012, 2.178e-6
-1.013, 1.951e-6
-1.014, 2.070e-6
-1.015, 2.228e-6
-1.016, 2.030e-6
-1.017, 2.435e-6
-1.018, 2.317e-6
-1.019, 2.336e-6
-1.020, 2.257e-6
-1.021, 2.524e-6
-1.022, 2.563e-6
-1.023, 2.504e-6
-1.024, 2.741e-6
-1.025, 2.741e-6
-1.026, 2.652e-6
-1.027, 3.066e-6
-1.028, 2.889e-6
-1.029, 3.037e-6
-1.030, 2.899e-6
-1.031, 2.968e-6
-1.032, 3.056e-6
-1.033, 2.899e-6
-1.034, 2.987e-6
-1.035, 3.027e-6
-1.036, 2.968e-6
-1.037, 3.313e-6
-1.038, 3.116e-6
-1.039, 3.343e-6
-1.040, 2.987e-6
-1.041, 3.214e-6
-1.042, 3.412e-6
-1.043, 3.195e-6
-1.044, 3.510e-6
-1.045, 3.254e-6
-1.046, 3.254e-6
-1.047, 3.550e-6
-1.048, 3.500e-6
-1.049, 3.234e-6
-1.050, 3.500e-6
-1.051, 3.619e-6
-1.052, 3.777e-6
-1.053, 3.500e-6
-1.054, 3.885e-6
-1.055, 3.658e-6
-1.056, 3.540e-6
-1.057, 3.688e-6
-1.058, 3.727e-6
-1.059, 3.727e-6
-1.060, 3.658e-6
-1.061, 3.846e-6
-1.062, 4.013e-6
-1.063, 3.777e-6
-1.064, 3.895e-6
-1.065, 3.787e-6
-1.066, 3.816e-6
-1.067, 3.865e-6
-1.068, 3.816e-6
-1.069, 4.033e-6
-1.070, 4.004e-6
-1.071, 4.033e-6
-1.072, 4.073e-6
-1.073, 4.023e-6
-1.074, 4.132e-6
-1.075, 4.270e-6
-1.076, 4.161e-6
-1.077, 4.418e-6
-1.078, 4.290e-6
-1.079, 4.231e-6
-1.080, 4.201e-6
-1.081, 4.300e-6
-1.082, 4.635e-6
-1.083, 4.181e-6
-1.084, 4.329e-6
-1.085, 4.339e-6
-1.086, 4.221e-6
-1.087, 4.526e-6
-1.088, 4.379e-6
-1.089, 4.467e-6
-1.090, 4.428e-6
-1.091, 4.388e-6
-1.092, 4.674e-6
-1.093, 4.290e-6
-1.094, 4.763e-6
-1.095, 4.655e-6
-1.096, 4.556e-6
-1.097, 4.625e-6
-1.098, 4.793e-6
-1.099, 4.665e-6
-1.100, 4.596e-6
-1.101, 4.832e-6
-1.102, 4.822e-6
-1.103, 4.803e-6
-1.104, 4.773e-6
-1.105, 4.744e-6
-1.106, 4.892e-6
-1.107, 5.178e-6
-1.108, 4.734e-6
-1.109, 5.188e-6
-1.110, 4.783e-6
-1.111, 5.118e-6
-1.112, 5.049e-6
-1.113, 4.892e-6
-1.114, 5.158e-6
-1.115, 4.941e-6
-1.116, 5.099e-6
-1.117, 5.030e-6
-1.118, 5.000e-6
-1.119, 5.188e-6
-1.120, 5.000e-6
-1.121, 5.247e-6
-1.122, 5.207e-6
-1.123, 5.069e-6
-1.124, 5.286e-6
-1.125, 5.375e-6
-1.126, 5.099e-6
-1.127, 5.503e-6
-1.128, 5.247e-6
-1.129, 5.533e-6
-1.130, 5.336e-6
-1.131, 5.188e-6
-1.132, 5.513e-6
-1.133, 5.158e-6
-1.134, 5.651e-6
-1.135, 5.395e-6
-1.136, 5.276e-6
-1.137, 5.701e-6
-1.138, 5.178e-6
-1.139, 5.286e-6
-1.140, 5.316e-6
-1.141, 5.681e-6
-1.142, 5.710e-6
-1.143, 5.572e-6
-1.144, 5.671e-6
-1.145, 5.533e-6
-1.146, 5.671e-6
-1.147, 5.730e-6
-1.148, 5.464e-6
-1.149, 5.691e-6
-1.150, 5.592e-6
-1.151, 5.681e-6
-1.152, 5.562e-6
-1.153, 5.779e-6
-1.154, 5.809e-6
-1.155, 5.770e-6
-1.156, 5.829e-6
-1.157, 5.849e-6
-1.158, 5.779e-6
-1.159, 5.701e-6
-1.160, 5.937e-6
-1.161, 5.987e-6
-1.162, 5.740e-6
-1.163, 5.543e-6
-1.164, 5.937e-6
-1.165, 5.809e-6
-1.166, 5.888e-6
-1.167, 6.056e-6
-1.168, 5.760e-6
-1.169, 5.937e-6
-1.170, 5.987e-6
-1.171, 5.937e-6
-1.172, 6.085e-6
-1.173, 5.720e-6
-1.174, 5.977e-6
-1.175, 5.898e-6
-1.176, 5.947e-6
-1.177, 5.849e-6
-1.178, 6.066e-6
-1.179, 6.302e-6
-1.180, 5.918e-6
-1.181, 6.046e-6
-1.182, 6.164e-6
-1.183, 6.115e-6
-1.184, 6.184e-6
-1.185, 5.937e-6
-1.186, 6.125e-6
-1.187, 6.016e-6
-1.188, 6.066e-6
-1.189, 6.066e-6
-1.190, 6.006e-6
-1.191, 6.381e-6
-1.192, 6.381e-6
-1.193, 6.036e-6
-1.194, 6.273e-6
-1.195, 6.125e-6
-1.196, 6.135e-6
-1.197, 6.273e-6
-1.198, 6.174e-6
-1.199, 6.233e-6
-1.200, 6.223e-6
-1.201, 6.233e-6
-1.202, 6.510e-6
-1.203, 5.908e-6
-1.204, 6.391e-6
-1.205, 6.421e-6
-1.206, 6.243e-6
-1.207, 6.717e-6
-1.208, 6.342e-6
-1.209, 6.293e-6
-1.210, 6.223e-6
-1.211, 6.223e-6
-1.212, 6.628e-6
-1.213, 6.293e-6
-1.214, 6.786e-6
-1.215, 6.184e-6
-1.216, 6.184e-6
-1.217, 6.401e-6
-1.218, 6.362e-6
-1.219, 6.490e-6
-1.220, 6.312e-6
-1.221, 6.519e-6
-1.222, 6.529e-6
-1.223, 6.283e-6
-1.224, 6.638e-6
-1.225, 6.421e-6
-1.226, 6.677e-6
-1.227, 6.588e-6
-1.228, 6.460e-6
-1.229, 6.845e-6
-1.230, 6.648e-6
-1.231, 6.756e-6
-1.232, 6.598e-6
-1.233, 6.529e-6
-1.234, 6.815e-6
-1.235, 6.677e-6
-1.236, 6.746e-6
-1.237, 6.855e-6
-1.238, 6.628e-6
-1.239, 6.727e-6
-1.240, 6.638e-6
-1.241, 6.954e-6
-1.242, 6.687e-6
-1.243, 6.529e-6
-1.244, 6.756e-6
-1.245, 6.598e-6
-1.246, 6.697e-6
-1.247, 6.944e-6
-1.248, 6.914e-6
-1.249, 6.786e-6
-1.250, 6.727e-6
-1.251, 6.904e-6
-1.252, 6.875e-6
-1.253, 6.786e-6
-1.254, 7.013e-6
-1.255, 6.904e-6
-1.256, 6.963e-6
-1.257, 6.973e-6
-1.258, 6.934e-6
-1.259, 6.963e-6
-1.260, 6.944e-6
-1.261, 7.052e-6
-1.262, 6.973e-6
-1.263, 6.766e-6
-1.264, 7.023e-6
-1.265, 6.855e-6
-1.266, 6.924e-6
-1.267, 7.052e-6
-1.268, 7.072e-6
-1.269, 7.190e-6
-1.270, 7.102e-6
-1.271, 7.309e-6
-1.272, 7.111e-6
-1.273, 7.023e-6
-1.274, 7.180e-6
-1.275, 7.161e-6
-1.276, 7.151e-6
-1.277, 7.102e-6
-1.278, 7.210e-6
-1.279, 7.210e-6
-1.280, 7.309e-6
-1.281, 7.220e-6
-1.282, 7.407e-6
-1.283, 7.309e-6
-1.284, 7.526e-6
-1.285, 7.348e-6
-1.286, 7.319e-6
-1.287, 7.476e-6
-1.288, 7.338e-6
-1.289, 7.703e-6
-1.290, 7.536e-6
-1.291, 7.427e-6
-1.292, 7.664e-6
-1.293, 7.358e-6
-1.294, 7.782e-6
-1.295, 7.467e-6
-1.296, 7.871e-6
-1.297, 7.674e-6
-1.298, 7.772e-6
-1.299, 7.644e-6
-1.300, 7.822e-6
-1.301, 7.782e-6
-1.302, 7.674e-6
-1.303, 7.763e-6
-1.304, 7.792e-6
-1.305, 7.802e-6
-1.306, 8.068e-6
-1.307, 8.226e-6
-1.308, 7.950e-6
-1.309, 8.068e-6
-1.310, 8.177e-6
-1.311, 8.078e-6
-1.312, 8.266e-6
-1.313, 8.078e-6
-1.314, 8.374e-6
-1.315, 8.118e-6
-1.316, 8.098e-6
-1.317, 8.414e-6
-1.318, 8.197e-6
-1.319, 8.354e-6
-1.320, 8.433e-6
-1.321, 8.384e-6
-1.322, 8.572e-6
-1.323, 8.325e-6
-1.324, 8.453e-6
-1.325, 8.562e-6
-1.326, 8.572e-6
-1.327, 8.749e-6
-1.328, 8.562e-6
-1.329, 8.789e-6
-1.330, 8.729e-6
-1.331, 8.759e-6
-1.332, 9.065e-6
-1.333, 8.808e-6
-1.334, 9.381e-6
-1.335, 9.134e-6
-1.336, 9.193e-6
-1.337, 9.173e-6
-1.338, 9.371e-6
-1.339, 9.233e-6
-1.340, 9.420e-6
-1.341, 9.450e-6
-1.342, 9.459e-6
-1.343, 9.558e-6
-1.344, 9.795e-6
-1.345, 9.874e-6
-1.346, 9.854e-6
-1.347, 9.894e-6
-1.348, 9.736e-6
-1.349, 1.002e-5
-1.350, 1.008e-5
-1.351, 1.032e-5
-1.352, 1.021e-5
-1.353, 1.013e-5
-1.354, 1.029e-5
-1.355, 1.052e-5
-1.356, 1.038e-5
-1.357, 1.085e-5
-1.358, 1.056e-5
-1.359, 1.086e-5
-1.360, 1.083e-5
-1.361, 1.114e-5
-1.362, 1.107e-5
-1.363, 1.118e-5
-1.364, 1.146e-5
-1.365, 1.144e-5
-1.366, 1.146e-5
-1.367, 1.182e-5
-1.368, 1.178e-5
-1.369, 1.193e-5
-1.370, 1.230e-5
-1.371, 1.217e-5
-1.372, 1.226e-5
-1.373, 1.272e-5
-1.374, 1.256e-5
-1.375, 1.258e-5
-1.376, 1.283e-5
-1.377, 1.305e-5
-1.378, 1.299e-5
-1.379, 1.336e-5
-1.380, 1.337e-5
-1.381, 1.359e-5
-1.382, 1.383e-5
-1.383, 1.473e-5
-1.384, 1.431e-5
-1.385, 1.418e-5
-1.386, 1.469e-5
-1.387, 1.497e-5
-1.388, 1.485e-5
-1.389, 1.544e-5
-1.390, 1.541e-5
-1.391, 1.568e-5
-1.392, 1.591e-5
-1.393, 1.608e-5
-1.394, 1.641e-5
-1.395, 1.654e-5
-1.396, 1.671e-5
-1.397, 1.713e-5
-1.398, 1.736e-5
-1.399, 1.766e-5
-1.400, 1.796e-5
-1.401, 1.808e-5
-1.402, 1.855e-5
-1.403, 1.856e-5
-1.404, 1.900e-5
-1.405, 1.953e-5
-1.406, 1.954e-5
-1.407, 1.996e-5
-1.408, 2.009e-5
-1.409, 2.061e-5
-1.410, 2.102e-5
-1.411, 2.101e-5
-1.412, 2.157e-5
-1.413, 2.155e-5
-1.414, 2.234e-5
-1.415, 2.258e-5
-1.416, 2.288e-5
-1.417, 2.326e-5
-1.418, 2.370e-5
-1.419, 2.428e-5
-1.420, 2.441e-5
-1.421, 2.494e-5
-1.422, 2.531e-5
-1.423, 2.575e-5
-1.424, 2.639e-5
-1.425, 2.681e-5
-1.426, 2.718e-5
-1.427, 2.756e-5
-1.428, 2.808e-5
-1.429, 2.846e-5
-1.430, 2.909e-5
-1.431, 2.957e-5
-1.432, 3.011e-5
-1.433, 3.039e-5
-1.434, 3.136e-5
-1.435, 3.150e-5
-1.436, 3.211e-5
-1.437, 3.279e-5
-1.438, 3.310e-5
-1.439, 3.382e-5
-1.440, 3.435e-5
-1.441, 3.512e-5
-1.442, 3.574e-5
-1.443, 3.604e-5
-1.444, 3.703e-5
-1.445, 3.754e-5
-1.446, 3.798e-5
-1.447, 3.919e-5
-1.448, 3.947e-5
-1.449, 4.034e-5
-1.450, 4.131e-5
-1.451, 4.189e-5
-1.452, 4.283e-5
-1.453, 4.327e-5
-1.454, 4.403e-5
-1.455, 4.463e-5
-1.456, 4.585e-5
-1.457, 4.667e-5
-1.458, 4.742e-5
-1.459, 4.827e-5
-1.460, 4.905e-5
-1.461, 5.020e-5
-1.462, 5.113e-5
-1.463, 5.177e-5
-1.464, 5.305e-5
-1.465, 5.362e-5
-1.466, 5.481e-5
-1.467, 5.544e-5
-1.468, 5.643e-5
-1.469, 5.735e-5
-1.470, 5.816e-5
-1.471, 5.922e-5
-1.472, 6.003e-5
-1.473, 6.141e-5
-1.474, 6.260e-5
-1.475, 6.379e-5
-1.476, 6.462e-5
-1.477, 6.602e-5
-1.478, 6.694e-5
-1.479, 6.837e-5
-1.480, 6.935e-5
-1.481, 7.052e-5
-1.482, 7.221e-5
-1.483, 7.299e-5
-1.484, 7.441e-5
-1.485, 7.603e-5
-1.486, 7.717e-5
-1.487, 7.883e-5
-1.488, 7.984e-5
-1.489, 8.142e-5
-1.490, 8.276e-5
-1.491, 8.418e-5
-1.492, 8.596e-5
-1.493, 8.746e-5
-1.494, 8.910e-5
-1.495, 9.061e-5
-1.496, 9.212e-5
-1.497, 9.359e-5
-1.498, 9.500e-5
-1.499, 9.664e-5
-1.500, 9.809e-5
-1.501, 9.992e-5
-1.502, 1.016e-4
-1.503, 1.030e-4
-1.504, 1.045e-4
-1.505, 1.064e-4
-1.506, 1.082e-4
-1.507, 1.102e-4
-1.508, 1.118e-4
-1.509, 1.139e-4
-1.510, 1.166e-4
-1.511, 1.189e-4
-1.512, 1.211e-4
-1.513, 1.225e-4
-1.514, 1.251e-4
-1.515, 1.283e-4
-1.516, 1.302e-4
-1.517, 1.328e-4
-1.518, 1.353e-4
-1.519, 1.371e-4
-1.520, 1.393e-4
-1.521, 1.418e-4
-1.522, 1.432e-4
-1.523, 1.464e-4
-1.524, 1.493e-4
-1.525, 1.508e-4
-1.526, 1.534e-4
-1.527, 1.572e-4
-1.528, 1.604e-4
-1.529, 1.634e-4
-1.530, 1.665e-4
-1.531, 1.692e-4
-1.532, 1.723e-4
-1.533, 1.750e-4
-1.534, 1.779e-4
-1.535, 1.807e-4
-1.536, 1.839e-4
-1.537, 1.866e-4
-1.538, 1.926e-4
-1.539, 1.937e-4
-1.540, 1.962e-4
-1.541, 1.980e-4
-1.542, 2.015e-4
-1.543, 2.050e-4
-1.544, 2.066e-4
-1.545, 2.077e-4
-1.546, 2.096e-4
-1.547, 2.132e-4
-1.548, 2.158e-4
-1.549, 2.194e-4
-1.550, 2.233e-4
-1.551, 2.262e-4
-1.552, 2.299e-4
-1.553, 2.328e-4
-1.554, 2.368e-4
-1.555, 2.401e-4
-1.556, 2.470e-4
-1.557, 2.510e-4
-1.558, 2.537e-4
-1.559, 2.611e-4
-1.560, 2.655e-4
-1.561, 2.698e-4
-1.562, 2.746e-4
-1.563, 2.800e-4
-1.564, 2.849e-4
-1.565, 2.895e-4
-1.566, 2.939e-4
-1.567, 2.968e-4
-1.568, 3.004e-4
-1.569, 3.041e-4
-1.570, 3.044e-4
-1.571, 3.096e-4
-1.572, 3.155e-4
-1.573, 3.185e-4
-1.574, 3.254e-4
-1.575, 3.271e-4
-1.576, 3.333e-4
-1.577, 3.392e-4
-1.578, 3.464e-4
-1.579, 3.539e-4
-1.580, 3.595e-4
-1.581, 3.656e-4
-1.582, 3.718e-4
-1.583, 3.760e-4
-1.584, 3.795e-4
-1.585, 3.826e-4
-1.586, 3.884e-4
-1.587, 3.947e-4
-1.588, 3.996e-4
-1.589, 4.041e-4
-1.590, 4.078e-4
-1.591, 4.110e-4
-1.592, 4.142e-4
-1.593, 4.197e-4
-1.594, 4.262e-4
-1.595, 4.329e-4
-1.596, 4.384e-4
-1.597, 4.454e-4
-1.598, 4.527e-4
-1.599, 4.597e-4
-1.600, 4.645e-4
-1.601, 4.712e-4
-1.602, 4.789e-4
-1.603, 4.851e-4
-1.604, 4.937e-4
-1.605, 5.025e-4
-1.606, 5.111e-4
-1.607, 5.193e-4
-1.608, 5.292e-4
-1.609, 5.402e-4
-1.610, 5.536e-4
-1.611, 5.648e-4
-1.612, 5.748e-4
-1.613, 5.839e-4
-1.614, 5.926e-4
-1.615, 6.007e-4
-1.616, 6.098e-4
-1.617, 6.192e-4
-1.618, 6.282e-4
-1.619, 6.367e-4
-1.620, 6.448e-4
-1.621, 6.545e-4
-1.622, 6.638e-4
-1.623, 6.723e-4
-1.624, 6.818e-4
-1.625, 6.887e-4
-1.626, 6.969e-4
-1.627, 7.038e-4
-1.628, 7.126e-4
-1.629, 7.263e-4
-1.630, 7.358e-4
-1.631, 7.493e-4
-1.632, 7.615e-4
-1.633, 7.747e-4
-1.634, 7.896e-4
-1.635, 8.016e-4
-1.636, 8.126e-4
-1.637, 8.291e-4
-1.638, 8.395e-4
-1.639, 8.519e-4
-1.640, 8.666e-4
-1.641, 8.876e-4
-1.642, 9.066e-4
-1.643, 9.199e-4
-1.644, 9.362e-4
-1.645, 9.578e-4
-1.646, 9.826e-4
-1.647, 1.001e-3
-1.648, 1.015e-3
-1.649, 1.028e-3
-1.650, 1.042e-3
-1.651, 1.056e-3
-1.652, 1.073e-3
-1.653, 1.079e-3
-1.654, 1.089e-3
-1.655, 1.127e-3
-1.656, 1.151e-3
-1.657, 1.154e-3
-1.658, 1.182e-3
-1.659, 1.209e-3
-1.660, 1.232e-3
-1.661, 1.259e-3
-1.662, 1.284e-3
-1.663, 1.306e-3
-1.664, 1.337e-3
-1.665, 1.356e-3
-1.666, 1.372e-3
-1.667, 1.389e-3
-1.668, 1.414e-3
-1.669, 1.436e-3
-1.670, 1.465e-3
-1.671, 1.492e-3
-1.672, 1.515e-3
-1.673, 1.527e-3
-1.674, 1.538e-3
-1.675, 1.556e-3
-1.676, 1.582e-3
-1.677, 1.612e-3
-1.678, 1.643e-3
-1.679, 1.674e-3
-1.680, 1.703e-3
-1.681, 1.733e-3
-1.682, 1.768e-3
-1.683, 1.805e-3
-1.684, 1.836e-3
-1.685, 1.874e-3
-1.686, 1.913e-3
-1.687, 1.949e-3
-1.688, 1.982e-3
-1.689, 2.020e-3
-1.690, 2.061e-3
-1.691, 2.103e-3
-1.692, 2.143e-3
-1.693, 2.192e-3
-1.694, 2.239e-3
-1.695, 2.287e-3
-1.696, 2.333e-3
-1.697, 2.384e-3
-1.698, 2.433e-3
-1.699, 2.484e-3
-1.700, 2.537e-3
-1.701, 2.579e-3
-1.702, 2.630e-3
-1.703, 2.680e-3
-1.704, 2.724e-3
-1.705, 2.773e-3
-1.706, 2.820e-3
-1.707, 2.868e-3
-1.708, 2.916e-3
-1.709, 2.971e-3
-1.710, 3.014e-3
-1.711, 3.056e-3
-1.712, 3.106e-3
-1.713, 3.156e-3
-1.714, 3.202e-3
-1.715, 3.253e-3
-1.716, 3.296e-3
-1.717, 3.349e-3
-1.718, 3.399e-3
-1.719, 3.477e-3
-1.720, 3.525e-3
-1.721, 3.602e-3
-1.722, 3.634e-3
-1.723, 3.685e-3
-1.724, 3.748e-3
-1.725, 3.835e-3
-1.726, 3.879e-3
-1.727, 3.914e-3
-1.728, 4.042e-3
-1.729, 4.089e-3
-1.730, 4.107e-3
-1.731, 4.191e-3
-1.732, 4.319e-3
-1.733, 4.372e-3
-1.734, 4.443e-3
-1.735, 4.556e-3
-1.736, 4.613e-3
-1.737, 4.674e-3
-1.738, 4.740e-3
-1.739, 4.822e-3
-1.740, 4.938e-3
-1.741, 5.018e-3
-1.742, 5.068e-3
-1.743, 5.175e-3
-1.744, 5.284e-3
-1.745, 5.349e-3
-1.746, 5.425e-3
-1.747, 5.549e-3
-1.748, 5.656e-3
-1.749, 5.731e-3
-1.750, 5.803e-3
-1.751, 5.910e-3
-1.752, 6.001e-3
-1.753, 6.061e-3
-1.754, 6.135e-3
-1.755, 6.220e-3
-1.756, 6.291e-3
-1.757, 6.357e-3
-1.758, 6.433e-3
-1.759, 6.510e-3
-1.760, 6.578e-3
-1.761, 6.652e-3
-1.762, 6.753e-3
-1.763, 6.834e-3
-1.764, 6.929e-3
-1.765, 7.000e-3
-1.766, 7.058e-3
-1.767, 7.071e-3
-1.768, 7.123e-3
-1.769, 7.178e-3
-1.770, 7.319e-3
-1.771, 7.458e-3
-1.772, 7.431e-3
-1.773, 7.553e-3
-1.774, 7.735e-3
-1.775, 7.870e-3
-1.776, 7.956e-3
-1.777, 8.041e-3
-1.778, 8.171e-3
-1.779, 8.319e-3
-1.780, 8.415e-3
-1.781, 8.472e-3
-1.782, 8.557e-3
-1.783, 8.639e-3
-1.784, 8.774e-3
-1.785, 8.894e-3
-1.786, 9.010e-3
-1.787, 9.144e-3
-1.788, 9.267e-3
-1.789, 9.324e-3
-1.790, 9.425e-3
-1.791, 9.618e-3
-1.792, 9.714e-3
-1.793, 9.748e-3
-1.794, 9.838e-3
-1.795, 9.954e-3
-1.796, 1.002e-2
-1.797, 1.007e-2
-1.798, 1.016e-2
-1.799, 1.024e-2
-1.800, 1.023e-2
-1.799, 1.017e-2
-1.798, 1.012e-2
-1.797, 1.007e-2
-1.796, 9.968e-3
-1.795, 9.902e-3
-1.794, 9.815e-3
-1.793, 9.720e-3
-1.792, 9.523e-3
-1.791, 9.430e-3
-1.790, 9.390e-3
-1.789, 9.323e-3
-1.788, 9.255e-3
-1.787, 9.287e-3
-1.786, 9.275e-3
-1.785, 9.167e-3
-1.784, 9.114e-3
-1.783, 9.097e-3
-1.782, 9.096e-3
-1.781, 9.042e-3
-1.780, 9.018e-3
-1.779, 9.025e-3
-1.778, 8.882e-3
-1.777, 8.677e-3
-1.776, 8.577e-3
-1.775, 8.568e-3
-1.774, 8.550e-3
-1.773, 8.485e-3
-1.772, 8.501e-3
-1.771, 8.522e-3
-1.770, 8.500e-3
-1.769, 8.450e-3
-1.768, 8.415e-3
-1.767, 8.374e-3
-1.766, 8.343e-3
-1.765, 8.275e-3
-1.764, 8.226e-3
-1.763, 8.193e-3
-1.762, 8.154e-3
-1.761, 8.093e-3
-1.760, 8.058e-3
-1.759, 8.022e-3
-1.758, 7.973e-3
-1.757, 7.908e-3
-1.756, 7.867e-3
-1.755, 7.841e-3
-1.754, 7.787e-3
-1.753, 7.729e-3
-1.752, 7.686e-3
-1.751, 7.643e-3
-1.750, 7.584e-3
-1.749, 7.542e-3
-1.748, 7.496e-3
-1.747, 7.434e-3
-1.746, 7.368e-3
-1.745, 7.323e-3
-1.744, 7.311e-3
-1.743, 7.201e-3
-1.742, 7.056e-3
-1.741, 6.943e-3
-1.740, 6.883e-3
-1.739, 6.801e-3
-1.738, 6.732e-3
-1.737, 6.665e-3
-1.736, 6.626e-3
-1.735, 6.566e-3
-1.734, 6.488e-3
-1.733, 6.432e-3
-1.732, 6.385e-3
-1.731, 6.344e-3
-1.730, 6.286e-3
-1.729, 6.240e-3
-1.728, 6.202e-3
-1.727, 6.147e-3
-1.726, 6.084e-3
-1.725, 6.051e-3
-1.724, 6.035e-3
-1.723, 6.011e-3
-1.722, 5.994e-3
-1.721, 5.959e-3
-1.720, 5.879e-3
-1.719, 5.815e-3
-1.718, 5.738e-3
-1.717, 5.679e-3
-1.716, 5.611e-3
-1.715, 5.577e-3
-1.714, 5.520e-3
-1.713, 5.457e-3
-1.712, 5.405e-3
-1.711, 5.352e-3
-1.710, 5.315e-3
-1.709, 5.279e-3
-1.708, 5.236e-3
-1.707, 5.195e-3
-1.706, 5.161e-3
-1.705, 5.132e-3
-1.704, 5.068e-3
-1.703, 4.998e-3
-1.702, 4.974e-3
-1.701, 4.915e-3
-1.700, 4.820e-3
-1.699, 4.758e-3
-1.698, 4.721e-3
-1.697, 4.637e-3
-1.696, 4.557e-3
-1.695, 4.502e-3
-1.694, 4.445e-3
-1.693, 4.372e-3
-1.692, 4.320e-3
-1.691, 4.258e-3
-1.690, 4.228e-3
-1.689, 4.185e-3
-1.688, 4.143e-3
-1.687, 4.100e-3
-1.686, 4.055e-3
-1.685, 4.005e-3
-1.684, 3.968e-3
-1.683, 3.936e-3
-1.682, 3.867e-3
-1.681, 3.813e-3
-1.680, 3.779e-3
-1.679, 3.748e-3
-1.678, 3.700e-3
-1.677, 3.649e-3
-1.676, 3.606e-3
-1.675, 3.560e-3
-1.674, 3.522e-3
-1.673, 3.484e-3
-1.672, 3.458e-3
-1.671, 3.433e-3
-1.670, 3.407e-3
-1.669, 3.373e-3
-1.668, 3.337e-3
-1.667, 3.298e-3
-1.666, 3.257e-3
-1.665, 3.222e-3
-1.664, 3.178e-3
-1.663, 3.131e-3
-1.662, 3.103e-3
-1.661, 3.067e-3
-1.660, 3.023e-3
-1.659, 2.984e-3
-1.658, 2.950e-3
-1.657, 2.914e-3
-1.656, 2.874e-3
-1.655, 2.839e-3
-1.654, 2.802e-3
-1.653, 2.767e-3
-1.652, 2.725e-3
-1.651, 2.691e-3
-1.650, 2.655e-3
-1.649, 2.617e-3
-1.648, 2.570e-3
-1.647, 2.510e-3
-1.646, 2.455e-3
-1.645, 2.413e-3
-1.644, 2.373e-3
-1.643, 2.343e-3
-1.642, 2.315e-3
-1.641, 2.291e-3
-1.640, 2.259e-3
-1.639, 2.235e-3
-1.638, 2.206e-3
-1.637, 2.171e-3
-1.636, 2.140e-3
-1.635, 2.110e-3
-1.634, 2.076e-3
-1.633, 2.045e-3
-1.632, 2.014e-3
-1.631, 1.983e-3
-1.630, 1.952e-3
-1.629, 1.923e-3
-1.628, 1.894e-3
-1.627, 1.866e-3
-1.626, 1.839e-3
-1.625, 1.814e-3
-1.624, 1.790e-3
-1.623, 1.764e-3
-1.622, 1.733e-3
-1.621, 1.709e-3
-1.620, 1.680e-3
-1.619, 1.654e-3
-1.618, 1.628e-3
-1.617, 1.600e-3
-1.616, 1.576e-3
-1.615, 1.550e-3
-1.614, 1.525e-3
-1.613, 1.501e-3
-1.612, 1.476e-3
-1.611, 1.454e-3
-1.610, 1.428e-3
-1.609, 1.402e-3
-1.608, 1.378e-3
-1.607, 1.352e-3
-1.606, 1.328e-3
-1.605, 1.300e-3
-1.604, 1.275e-3
-1.603, 1.249e-3
-1.602, 1.224e-3
-1.601, 1.204e-3
-1.600, 1.184e-3
-1.599, 1.161e-3
-1.598, 1.139e-3
-1.597, 1.117e-3
-1.596, 1.097e-3
-1.595, 1.076e-3
-1.594, 1.053e-3
-1.593, 1.034e-3
-1.592, 1.012e-3
-1.591, 9.977e-4
-1.590, 9.786e-4
-1.589, 9.627e-4
-1.588, 9.452e-4
-1.587, 9.292e-4
-1.586, 9.107e-4
-1.585, 8.966e-4
-1.584, 8.794e-4
-1.583, 8.623e-4
-1.582, 8.439e-4
-1.581, 8.295e-4
-1.580, 8.122e-4
-1.579, 7.951e-4
-1.578, 7.781e-4
-1.577, 7.635e-4
-1.576, 7.491e-4
-1.575, 7.334e-4
-1.574, 7.185e-4
-1.573, 7.048e-4
-1.572, 6.905e-4
-1.571, 6.754e-4
-1.570, 6.615e-4
-1.569, 6.482e-4
-1.568, 6.337e-4
-1.567, 6.203e-4
-1.566, 6.077e-4
-1.565, 5.953e-4
-1.564, 5.820e-4
-1.563, 5.693e-4
-1.562, 5.578e-4
-1.561, 5.452e-4
-1.560, 5.333e-4
-1.559, 5.224e-4
-1.558, 5.113e-4
-1.557, 5.002e-4
-1.556, 4.893e-4
-1.555, 4.789e-4
-1.554, 4.685e-4
-1.553, 4.580e-4
-1.552, 4.484e-4
-1.551, 4.403e-4
-1.550, 4.304e-4
-1.549, 4.216e-4
-1.548, 4.124e-4
-1.547, 4.038e-4
-1.546, 3.951e-4
-1.545, 3.862e-4
-1.544, 3.774e-4
-1.543, 3.669e-4
-1.542, 3.581e-4
-1.541, 3.509e-4
-1.540, 3.429e-4
-1.539, 3.352e-4
-1.538, 3.284e-4
-1.537, 3.216e-4
-1.536, 3.147e-4
-1.535, 3.076e-4
-1.534, 3.012e-4
-1.533, 2.945e-4
-1.532, 2.878e-4
-1.531, 2.811e-4
-1.530, 2.748e-4
-1.529, 2.683e-4
-1.528, 2.627e-4
-1.527, 2.559e-4
-1.526, 2.502e-4
-1.525, 2.439e-4
-1.524, 2.386e-4
-1.523, 2.328e-4
-1.522, 2.279e-4
-1.521, 2.232e-4
-1.520, 2.177e-4
-1.519, 2.131e-4
-1.518, 2.084e-4
-1.517, 2.038e-4
-1.516, 1.994e-4
-1.515, 1.944e-4
-1.514, 1.907e-4
-1.513, 1.863e-4
-1.512, 1.814e-4
-1.511, 1.772e-4
-1.510, 1.730e-4
-1.509, 1.690e-4
-1.508, 1.650e-4
-1.507, 1.611e-4
-1.506, 1.576e-4
-1.505, 1.541e-4
-1.504, 1.507e-4
-1.503, 1.472e-4
-1.502, 1.437e-4
-1.501, 1.405e-4
-1.500, 1.374e-4
-1.499, 1.339e-4
-1.498, 1.307e-4
-1.497, 1.276e-4
-1.496, 1.248e-4
-1.495, 1.215e-4
-1.494, 1.186e-4
-1.493, 1.158e-4
-1.492, 1.129e-4
-1.491, 1.113e-4
-1.490, 1.084e-4
-1.489, 1.060e-4
-1.488, 1.039e-4
-1.487, 1.016e-4
-1.486, 9.886e-5
-1.485, 9.678e-5
-1.484, 9.429e-5
-1.483, 9.225e-5
-1.482, 9.068e-5
-1.481, 8.821e-5
-1.480, 8.605e-5
-1.479, 8.379e-5
-1.478, 8.161e-5
-1.477, 7.984e-5
-1.476, 7.805e-5
-1.475, 7.614e-5
-1.474, 7.428e-5
-1.473, 7.284e-5
-1.472, 7.087e-5
-1.471, 6.952e-5
-1.470, 6.766e-5
-1.469, 6.628e-5
-1.468, 6.475e-5
-1.467, 6.305e-5
-1.466, 6.123e-5
-1.465, 6.005e-5
-1.464, 5.862e-5
-1.463, 5.736e-5
-1.462, 5.587e-5
-1.461, 5.493e-5
-1.460, 5.336e-5
-1.459, 5.203e-5
-1.458, 5.087e-5
-1.457, 4.974e-5
-1.456, 4.871e-5
-1.455, 4.748e-5
-1.454, 4.632e-5
-1.453, 4.527e-5
-1.452, 4.416e-5
-1.451, 4.322e-5
-1.450, 4.187e-5
-1.449, 4.097e-5
-1.448, 4.023e-5
-1.447, 3.880e-5
-1.446, 3.811e-5
-1.445, 3.706e-5
-1.444, 3.622e-5
-1.443, 3.553e-5
-1.442, 3.426e-5
-1.441, 3.338e-5
-1.440, 3.276e-5
-1.439, 3.181e-5
-1.438, 3.141e-5
-1.437, 3.044e-5
-1.436, 2.969e-5
-1.435, 2.885e-5
-1.434, 2.796e-5
-1.433, 2.740e-5
-1.432, 2.648e-5
-1.431, 2.603e-5
-1.430, 2.524e-5
-1.429, 2.438e-5
-1.428, 2.396e-5
-1.427, 2.330e-5
-1.426, 2.298e-5
-1.425, 2.206e-5
-1.424, 2.153e-5
-1.423, 2.095e-5
-1.422, 2.027e-5
-1.421, 2.002e-5
-1.420, 1.916e-5
-1.419, 1.867e-5
-1.418, 1.818e-5
-1.417, 1.757e-5
-1.416, 1.717e-5
-1.415, 1.654e-5
-1.414, 1.615e-5
-1.413, 1.576e-5
-1.412, 1.540e-5
-1.411, 1.491e-5
-1.410, 1.450e-5
-1.409, 1.413e-5
-1.408, 1.385e-5
-1.407, 1.325e-5
-1.406, 1.299e-5
-1.405, 1.239e-5
-1.404, 1.214e-5
-1.403, 1.180e-5
-1.402, 1.127e-5
-1.401, 1.110e-5
-1.400, 1.066e-5
-1.399, 1.046e-5
-1.398, 1.009e-5
-1.397, 9.696e-6
-1.396, 9.282e-6
-1.395, 9.065e-6
-1.394, 8.779e-6
-1.393, 8.463e-6
-1.392, 8.078e-6
-1.391, 8.266e-6
-1.390, 7.536e-6
-1.389, 7.397e-6
-1.388, 7.111e-6
-1.387, 6.697e-6
-1.386, 6.450e-6
-1.385, 6.233e-6
-1.384, 6.145e-6
-1.383, 5.888e-6
-1.382, 5.454e-6
-1.381, 5.385e-6
-1.380, 4.931e-6
-1.379, 4.842e-6
-1.378, 4.773e-6
-1.377, 4.191e-6
-1.376, 4.467e-6
-1.375, 4.132e-6
-1.374, 3.698e-6
-1.373, 3.579e-6
-1.372, 3.126e-6
-1.371, 3.303e-6
-1.370, 3.116e-6
-1.369, 2.869e-6
-1.368, 2.948e-6
-1.367, 2.405e-6
-1.366, 2.455e-6
-1.365, 2.405e-6
-1.364, 2.188e-6
-1.363, 2.050e-6
-1.362, 1.794e-6
-1.361, 1.715e-6
-1.360, 1.636e-6
-1.359, 1.419e-6
-1.358, 1.310e-6
-1.357, 9.353e-7
-1.356, 9.057e-7
-1.355, 9.452e-7
-1.354, 6.590e-7
-1.353, 6.886e-7
-1.352, 4.124e-7
-1.351, 4.913e-7
-1.350, 2.052e-7
-1.349, 2.052e-7
-1.348, 2.052e-7
-1.347, -1.993e-7
-1.346, -7.103e-8
-1.345, -1.796e-7
-1.344, -2.388e-7
-1.343, -3.078e-7
-1.342, -7.419e-7
-1.341, -5.249e-7
-1.340, -6.531e-7
-1.339, -3.571e-7
-1.338, -6.137e-7
-1.337, -1.008e-6
-1.336, -1.087e-6
-1.335, -1.018e-6
-1.334, -1.334e-6
-1.333, -1.265e-6
-1.332, -1.531e-6
-1.331, -1.531e-6
-1.330, -1.413e-6
-1.329, -1.689e-6
-1.328, -1.531e-6
-1.327, -2.005e-6
-1.326, -1.758e-6
-1.325, -1.955e-6
-1.324, -1.985e-6
-1.323, -2.044e-6
-1.322, -2.163e-6
-1.321, -2.015e-6
-1.320, -2.350e-6
-1.319, -2.163e-6
-1.318, -2.232e-6
-1.317, -2.390e-6
-1.316, -2.202e-6
-1.315, -2.360e-6
-1.314, -2.449e-6
-1.313, -2.459e-6
-1.312, -2.488e-6
-1.311, -2.518e-6
-1.310, -2.715e-6
-1.309, -2.607e-6
-1.308, -2.468e-6
-1.307, -2.814e-6
-1.306, -2.764e-6
-1.305, -2.883e-6
-1.304, -2.764e-6
-1.303, -2.834e-6
-1.302, -3.041e-6
-1.301, -2.843e-6
-1.300, -2.863e-6
-1.299, -3.277e-6
-1.298, -2.824e-6
-1.297, -3.386e-6
-1.296, -2.932e-6
-1.295, -3.208e-6
-1.294, -3.356e-6
-1.293, -3.100e-6
-1.292, -3.455e-6
-1.291, -3.149e-6
-1.290, -3.356e-6
-1.289, -3.208e-6
-1.288, -3.277e-6
-1.287, -3.593e-6
-1.286, -3.356e-6
-1.285, -3.495e-6
-1.284, -3.672e-6
-1.283, -3.435e-6
-1.282, -3.524e-6
-1.281, -3.337e-6
-1.280, -3.524e-6
-1.279, -3.514e-6
-1.278, -3.692e-6
-1.277, -3.613e-6
-1.276, -3.633e-6
-1.275, -3.702e-6
-1.274, -3.830e-6
-1.273, -3.712e-6
-1.272, -3.731e-6
-1.271, -3.721e-6
-1.270, -3.929e-6
-1.269, -3.593e-6
-1.268, -3.702e-6
-1.267, -3.929e-6
-1.266, -3.623e-6
-1.265, -3.869e-6
-1.264, -3.810e-6
-1.263, -3.731e-6
-1.262, -4.205e-6
-1.261, -3.850e-6
-1.260, -4.116e-6
-1.259, -3.860e-6
-1.258, -4.008e-6
-1.257, -4.195e-6
-1.256, -3.850e-6
-1.255, -4.106e-6
-1.254, -4.353e-6
-1.253, -3.958e-6
-1.252, -4.126e-6
-1.251, -3.899e-6
-1.250, -4.096e-6
-1.249, -4.017e-6
-1.248, -4.008e-6
-1.247, -4.027e-6
-1.246, -4.077e-6
-1.245, -4.136e-6
-1.244, -4.077e-6
-1.243, -4.126e-6
-1.242, -4.136e-6
-1.241, -4.047e-6
-1.240, -4.205e-6
-1.239, -4.264e-6
-1.238, -4.116e-6
-1.237, -4.008e-6
-1.236, -4.008e-6
-1.235, -4.165e-6
-1.234, -4.156e-6
-1.233, -4.126e-6
-1.232, -4.234e-6
-1.231, -3.978e-6
-1.230, -4.195e-6
-1.229, -4.471e-6
-1.228, -4.156e-6
-1.227, -4.392e-6
-1.226, -4.343e-6
-1.225, -4.461e-6
-1.224, -4.452e-6
-1.223, -4.146e-6
-1.222, -4.471e-6
-1.221, -4.747e-6
-1.220, -4.540e-6
-1.219, -4.570e-6
-1.218, -4.225e-6
-1.217, -4.629e-6
-1.216, -4.205e-6
-1.215, -4.392e-6
-1.214, -4.491e-6
-1.213, -4.363e-6
-1.212, -4.698e-6
-1.211, -4.412e-6
-1.210, -4.570e-6
-1.209, -4.540e-6
-1.208, -4.392e-6
-1.207, -4.639e-6
-1.206, -4.343e-6
-1.205, -4.600e-6
-1.204, -4.550e-6
-1.203, -4.659e-6
-1.202, -4.669e-6
-1.201, -4.412e-6
-1.200, -4.530e-6
-1.199, -4.659e-6
-1.198, -4.392e-6
-1.197, -4.747e-6
-1.196, -4.491e-6
-1.195, -5.024e-6
-1.194, -4.590e-6
-1.193, -4.609e-6
-1.192, -4.895e-6
-1.191, -4.373e-6
-1.190, -4.747e-6
-1.189, -4.540e-6
-1.188, -4.274e-6
-1.187, -4.728e-6
-1.186, -4.373e-6
-1.185, -4.718e-6
-1.184, -4.708e-6
-1.183, -4.471e-6
-1.182, -4.688e-6
-1.181, -4.491e-6
-1.180, -4.649e-6
-1.179, -4.471e-6
-1.178, -4.708e-6
-1.177, -4.619e-6
-1.176, -4.560e-6
-1.175, -4.718e-6
-1.174, -4.747e-6
-1.173, -4.718e-6
-1.172, -4.925e-6
-1.171, -4.678e-6
-1.170, -4.866e-6
-1.169, -4.876e-6
-1.168, -4.747e-6
-1.167, -4.797e-6
-1.166, -4.639e-6
-1.165, -4.797e-6
-1.164, -4.965e-6
-1.163, -4.787e-6
-1.162, -4.984e-6
-1.161, -4.747e-6
-1.160, -4.767e-6
-1.159, -4.925e-6
-1.158, -4.866e-6
-1.157, -5.053e-6
-1.156, -4.787e-6
-1.155, -4.836e-6
-1.154, -4.935e-6
-1.153, -4.817e-6
-1.152, -4.965e-6
-1.151, -5.043e-6
-1.150, -5.330e-6
-1.149, -4.787e-6
-1.148, -4.688e-6
-1.147, -5.014e-6
-1.146, -4.728e-6
-1.145, -4.639e-6
-1.144, -4.935e-6
-1.143, -4.718e-6
-1.142, -5.063e-6
-1.141, -4.619e-6
-1.140, -4.826e-6
-1.139, -4.866e-6
-1.138, -4.807e-6
-1.137, -5.053e-6
-1.136, -4.846e-6
-1.135, -4.777e-6
-1.134, -5.083e-6
-1.133, -4.688e-6
-1.132, -4.935e-6
-1.131, -4.886e-6
-1.130, -4.905e-6
-1.129, -5.024e-6
-1.128, -4.876e-6
-1.127, -5.201e-6
-1.126, -4.925e-6
-1.125, -5.093e-6
-1.124, -5.132e-6
-1.123, -5.043e-6
-1.122, -5.261e-6
-1.121, -5.024e-6
-1.120, -5.172e-6
-1.119, -5.093e-6
-1.118, -5.043e-6
-1.117, -5.241e-6
-1.116, -4.915e-6
-1.115, -5.073e-6
-1.114, -5.014e-6
-1.113, -5.172e-6
-1.112, -5.270e-6
-1.111, -5.103e-6
-1.110, -5.211e-6
-1.109, -5.270e-6
-1.108, -5.152e-6
-1.107, -5.389e-6
-1.106, -4.994e-6
-1.105, -5.182e-6
-1.104, -5.399e-6
-1.103, -5.172e-6
-1.102, -5.497e-6
-1.101, -5.063e-6
-1.100, -5.428e-6
-1.099, -5.497e-6
-1.098, -5.270e-6
-1.097, -5.566e-6
-1.096, -5.241e-6
-1.095, -5.359e-6
-1.094, -5.468e-6
-1.093, -5.931e-6
-1.092, -5.497e-6
-1.091, -5.349e-6
-1.090, -5.389e-6
-1.089, -5.399e-6
-1.088, -5.418e-6
-1.087, -5.685e-6
-1.086, -5.547e-6
-1.085, -5.557e-6
-1.084, -5.527e-6
-1.083, -5.734e-6
-1.082, -5.744e-6
-1.081, -5.507e-6
-1.080, -5.833e-6
-1.079, -5.527e-6
-1.078, -5.507e-6
-1.077, -5.744e-6
-1.076, -5.576e-6
-1.075, -5.675e-6
-1.074, -5.793e-6
-1.073, -5.586e-6
-1.072, -5.714e-6
-1.071, -5.557e-6
-1.070, -5.823e-6
-1.069, -5.695e-6
-1.068, -5.645e-6
-1.067, -5.803e-6
-1.066, -5.734e-6
-1.065, -5.813e-6
-1.064, -5.774e-6
-1.063, -5.675e-6
-1.062, -5.951e-6
-1.061, -5.635e-6
-1.060, -6.000e-6
-1.059, -5.695e-6
-1.058, -5.695e-6
-1.057, -5.882e-6
-1.056, -5.833e-6
-1.055, -5.852e-6
-1.054, -5.813e-6
-1.053, -5.951e-6
-1.052, -6.070e-6
-1.051, -5.922e-6
-1.050, -6.129e-6
-1.049, -6.020e-6
-1.048, -6.089e-6
-1.047, -6.040e-6
-1.046, -6.178e-6
-1.045, -6.010e-6
-1.044, -6.198e-6
-1.043, -6.109e-6
-1.042, -6.385e-6
-1.041, -6.109e-6
-1.040, -6.375e-6
-1.039, -6.198e-6
-1.038, -6.030e-6
-1.037, -6.336e-6
-1.036, -6.296e-6
-1.035, -6.366e-6
-1.034, -6.425e-6
-1.033, -6.277e-6
-1.032, -6.444e-6
-1.031, -6.366e-6
-1.030, -6.592e-6
-1.029, -6.375e-6
-1.028, -6.336e-6
-1.027, -6.829e-6
-1.026, -6.612e-6
-1.025, -6.563e-6
-1.024, -6.790e-6
-1.023, -6.484e-6
-1.022, -6.967e-6
-1.021, -6.918e-6
-1.020, -6.879e-6
-1.019, -6.977e-6
-1.018, -6.879e-6
-1.017, -7.105e-6
-1.016, -6.938e-6
-1.015, -6.888e-6
-1.014, -7.017e-6
-1.013, -6.987e-6
-1.012, -7.105e-6
-1.011, -7.244e-6
-1.010, -7.096e-6
-1.009, -7.283e-6
-1.008, -7.105e-6
-1.007, -7.362e-6
-1.006, -7.253e-6
-1.005, -7.362e-6
-1.004, -7.283e-6
-1.003, -7.214e-6
-1.002, -7.510e-6
-1.001, -7.392e-6
