Potential V vs RHE, Current mA cm-2
0.013299999999999867,-0.4384190318281749
0.012299999999999978,-2.095187435100119
0.011299999999999866,-3.403795387475278
0.010299999999999976,-4.450681749375406
0.009299999999999864,-5.235846520800501
0.008299999999999974,-5.80314575204638
0.007299999999999862,-6.326588932996443
0.006299999999999972,-6.850032113946507
0.00529999999999986,-7.243321855308987
0.0042999999999999705,-7.5474847847799715
0.0032999999999998586,-7.679052935667419
0.0022999999999999687,-7.853062425550818
0.0012999999999998568,-8.027071915434218
0.00029999999999996696,-8.158640066321666
-0.000700000000000145,-8.158640066321666
-0.0017000000000000348,-8.158640066321666
-0.0027000000000001467,-8.158640066321666
-0.0037000000000000366,-8.288793505909249
-0.0047000000000001485,-8.376505606500881
-0.005700000000000038,-8.464217707092514
-0.00670000000000015,-8.508073757388331
-0.00770000000000004,-8.55051509638428
-0.008700000000000152,-8.68208324727173
-0.009700000000000042,-8.812236686859313
-0.010700000000000154,-8.85609273715513
-0.011700000000000044,-8.769795347863363
-0.012700000000000156,-8.725939297567548
-0.013700000000000045,-8.725939297567548
-0.014700000000000157,-8.725939297567548
-0.015700000000000047,-8.638227196975913
-0.01670000000000016,-8.55051509638428
-0.01770000000000005,-8.508073757388331
-0.01870000000000016,-8.594371146680096
-0.01970000000000005,-8.725939297567548
-0.020700000000000163,-8.725939297567548
-0.021700000000000053,-8.769795347863363
-0.022700000000000164,-8.769795347863363
-0.023700000000000054,-8.85609273715513
-0.024700000000000166,-8.899948787450944
-0.025700000000000056,-8.85609273715513
-0.026700000000000168,-8.725939297567548
-0.027700000000000058,-8.68208324727173
-0.02870000000000017,-8.725939297567548
-0.02970000000000006,-8.725939297567548
-0.03070000000000017,-8.725939297567548
-0.03170000000000006,-8.68208324727173
-0.03270000000000017,-8.725939297567548
-0.03370000000000006,-8.812236686859313
-0.034700000000000175,-8.899948787450944
-0.035700000000000065,-8.899948787450944
-0.03670000000000018,-8.85609273715513
-0.03770000000000007,-8.812236686859313
-0.03870000000000018,-8.85609273715513
-0.03970000000000007,-8.899948787450944
-0.04070000000000018,-8.85609273715513
-0.04170000000000007,-8.769795347863363
-0.04270000000000018,-8.68208324727173
-0.04370000000000007,-8.725939297567548
-0.044700000000000184,-8.769795347863363
-0.045700000000000074,-8.725939297567548
-0.046700000000000186,-8.68208324727173
-0.047700000000000076,-8.68208324727173
-0.04870000000000019,-8.769795347863363
-0.04970000000000008,-8.85609273715513
-0.05070000000000019,-8.812236686859313
-0.05170000000000008,-8.725939297567548
-0.05270000000000019,-8.68208324727173
-0.05370000000000008,-8.725939297567548
-0.05470000000000019,-8.725939297567548
-0.05570000000000008,-8.68208324727173
-0.056700000000000195,-8.638227196975913
-0.057700000000000085,-8.638227196975913
-0.058700000000000196,-8.725939297567548
-0.059700000000000086,-8.85609273715513
-0.0607000000000002,-8.812236686859313
-0.06170000000000009,-8.812236686859313
-0.0627000000000002,-8.769795347863363
-0.06370000000000009,-8.769795347863363
-0.0647000000000002,-8.812236686859313
-0.06570000000000009,-8.725939297567548
-0.0667000000000002,-8.638227196975913
-0.0677000000000001,-8.594371146680096
-0.0687000000000002,-8.68208324727173
-0.0697000000000001,-8.725939297567548
-0.07070000000000021,-8.725939297567548
-0.0717000000000001,-8.638227196975913
-0.07270000000000021,-8.638227196975913
-0.0737000000000001,-8.68208324727173
-0.07470000000000021,-8.769795347863363
-0.0757000000000001,-8.769795347863363
-0.07670000000000021,-8.68208324727173
-0.0777000000000001,-8.725939297567548
-0.07870000000000021,-8.769795347863363
-0.0797000000000001,-8.85609273715513
-0.08070000000000022,-8.812236686859313
-0.0817000000000001,-8.769795347863363
-0.08270000000000022,-8.769795347863363
-0.08370000000000011,-8.85609273715513
-0.08470000000000022,-8.899948787450944
-0.08570000000000011,-8.812236686859313
-0.08670000000000022,-8.725939297567548
-0.08770000000000011,-8.68208324727173
-0.08870000000000022,-8.68208324727173
-0.08970000000000011,-8.725939297567548
-0.09070000000000022,-8.68208324727173
-0.09170000000000011,-8.638227196975913
-0.09270000000000023,-8.594371146680096
-0.09370000000000012,-8.68208324727173
-0.09470000000000023,-8.769795347863363
-0.09570000000000012,-8.769795347863363
-0.09670000000000023,-8.725939297567548
-0.09770000000000012,-8.769795347863363
-0.09870000000000023,-8.812236686859313
-0.09970000000000012,-8.85609273715513
-0.10070000000000023,-8.812236686859313
-0.10170000000000012,-8.769795347863363
-0.10270000000000024,-8.725939297567548
-0.10370000000000013,-8.769795347863363
-0.10470000000000024,-8.812236686859313
-0.10570000000000013,-8.769795347863363
-0.10670000000000024,-8.68208324727173
-0.10770000000000013,-8.638227196975913
-0.10870000000000024,-8.68208324727173
-0.10970000000000013,-8.769795347863363
-0.11070000000000024,-8.769795347863363
-0.11170000000000013,-8.725939297567548
-0.11270000000000002,-8.769795347863363
-0.11370000000000013,-8.85609273715513
-0.11470000000000002,-8.899948787450944
-0.11570000000000014,-8.85609273715513
-0.11670000000000003,-8.725939297567548
-0.11770000000000014,-8.725939297567548
-0.11870000000000003,-8.769795347863363
-0.11970000000000014,-8.812236686859313
-0.12070000000000003,-8.769795347863363
-0.12170000000000014,-8.725939297567548
-0.12270000000000003,-8.725939297567548
-0.12370000000000014,-8.812236686859313
-0.12470000000000003,-8.85609273715513
-0.12570000000000014,-8.812236686859313
-0.12670000000000003,-8.769795347863363
-0.12770000000000015,-8.769795347863363
-0.12870000000000004,-8.812236686859313
-0.12970000000000015,-8.85609273715513
-0.13070000000000004,-8.85609273715513
-0.13170000000000015,-8.812236686859313
-0.13270000000000004,-8.812236686859313
-0.13370000000000015,-8.85609273715513
-0.13470000000000004,-8.943804837746763
-0.13570000000000015,-8.899948787450944
-0.13670000000000004,-8.85609273715513
-0.13770000000000016,-8.812236686859313
-0.13870000000000005,-8.85609273715513
-0.13970000000000016,-8.943804837746763
-0.14070000000000005,-8.899948787450944
-0.14170000000000016,-8.85609273715513
-0.14270000000000005,-8.899948787450944
-0.14370000000000016,-8.943804837746763
-0.14470000000000005,-9.031516938338395
-0.14570000000000016,-9.031516938338395
-0.14670000000000005,-8.987660888042578
-0.14770000000000016,-8.987660888042578
-0.14870000000000005,-9.031516938338395
-0.14970000000000017,-9.11781432763016
-0.15070000000000006,-9.073958277334345
-0.15170000000000017,-8.987660888042578
-0.15270000000000006,-8.943804837746763
-0.15370000000000017,-8.987660888042578
-0.15470000000000006,-9.031516938338395
-0.15570000000000017,-9.031516938338395
-0.15670000000000006,-8.943804837746763
-0.15770000000000017,-8.987660888042578
-0.15870000000000006,-9.11781432763016
-0.15970000000000018,-9.205526428221793
-0.16070000000000007,-9.205526428221793
-0.16170000000000018,-9.205526428221793
-0.16270000000000007,-9.205526428221793
-0.16370000000000018,-9.293238528813426
-0.16470000000000007,-9.379535918105192
-0.16570000000000018,-9.335679867809377
-0.16670000000000007,-9.24938247851761
-0.16770000000000018,-9.205526428221793
-0.16870000000000007,-9.293238528813426
-0.16970000000000018,-9.379535918105192
-0.17070000000000007,-9.335679867809377
-0.17170000000000019,-9.335679867809377
-0.17270000000000008,-9.335679867809377
-0.1737000000000002,-9.467248018696827
-0.17470000000000008,-9.55496011928846
-0.1757000000000002,-9.511104068992642
-0.17670000000000008,-9.467248018696827
-0.1777000000000002,-9.467248018696827
-0.17870000000000008,-9.511104068992642
-0.1797000000000002,-9.55496011928846
-0.18070000000000008,-9.55496011928846
-0.1817000000000002,-9.55496011928846
-0.18270000000000008,-9.59740145828441
-0.1837000000000002,-9.772825659467674
-0.1847000000000001,-9.99069119964689
-0.1857000000000002,-10.078403300238522
-0.1867000000000001,-10.034547249942705
-0.1877000000000002,-10.078403300238522
-0.1887000000000001,-10.164700689530287
-0.1897000000000002,-10.164700689530287
-0.1907000000000001,-10.078403300238522
-0.1917000000000001,-9.946835149351072
-0.19269999999999998,-9.946835149351072
-0.1937000000000001,-9.99069119964689
-0.19469999999999998,-10.034547249942705
-0.1957000000000001,-10.078403300238522
-0.19669999999999999,-10.078403300238522
-0.1977000000000001,-10.120844639234473
-0.1987,-10.296268840417738
-0.1997000000000001,-10.470278330301136
-0.2007,-10.557990430892769
-0.2017000000000001,-10.557990430892769
-0.2027,-10.601846481188586
-0.2037000000000001,-10.644287820184536
-0.2047,-10.688143870480351
-0.2057000000000001,-10.601846481188586
-0.2067,-10.557990430892769
-0.2077000000000001,-10.601846481188586
-0.2087,-10.775855971071984
-0.2097000000000001,-10.949865460955383
-0.2107,-11.037577561547016
-0.2117000000000001,-11.123874950838783
-0.2127,-11.1677310011346
-0.2137000000000001,-11.343155202317865
-0.2147,-11.42945259160963
-0.2157000000000001,-11.56102074249708
-0.2167,-11.56102074249708
-0.21770000000000012,-11.647318131788847
-0.2187,-11.778886282676295
-0.21970000000000012,-11.952895772559694
-0.2207,-12.040607873151327
-0.22170000000000012,-12.084463923447142
-0.2227,-12.170761312738911
-0.22370000000000012,-12.346185513922174
-0.2247,-12.476338953509758
-0.22570000000000012,-12.520195003805576
-0.2267,-12.56405105410139
-0.22770000000000012,-12.607907104397206
-0.22870000000000001,-12.781916594280606
-0.22970000000000013,-12.955926084164007
-0.23070000000000002,-13.087494235051453
-0.23170000000000013,-13.13135028534727
-0.23270000000000002,-13.261503724934855
-0.23370000000000013,-13.567081365705702
-0.23470000000000002,-13.784946905884919
-0.23570000000000013,-13.916515056772363
-0.23670000000000002,-14.002812446064135
-0.2376999999999999,-14.13438059695158
-0.23870000000000002,-14.345172580631472
-0.2396999999999999,-14.529085049613924
-0.24070000000000003,-14.61396772760583
-0.24169999999999991,-14.741291744593681
-0.24270000000000003,-14.868615761581536
-0.24369999999999992,-15.094969569559943
-0.24470000000000003,-15.264734925543747
-0.24569999999999992,-15.448647394526201
-0.24670000000000003,-15.618412750510005
-0.24769999999999992,-15.74573676749786
-0.24870000000000003,-16.056973253468165
-0.24969999999999992,-16.354062626439823
-0.25070000000000003,-16.53797509542228
-0.2516999999999999,-16.665299112410132
-0.25270000000000004,-16.792623129397985
-0.2536999999999999,-17.061418276372343
-0.25470000000000004,-17.2736249713521
-0.2556999999999999,-17.4433903273359
-0.25670000000000004,-17.584861457322408
-0.25769999999999993,-17.797068152302163
-0.25870000000000004,-18.06586329927652
-0.25969999999999993,-18.40539401124413
-0.26070000000000004,-18.674189158218486
-0.26169999999999993,-18.88639585319824
-0.26270000000000004,-19.2400736781645
-0.26369999999999993,-19.636192842126707
-0.26470000000000005,-20.01816489309027
-0.26569999999999994,-20.329401379060574
-0.26670000000000005,-20.499166735044383
-0.26769999999999994,-20.76796188201874
-0.26870000000000005,-21.065051254990397
-0.26969999999999994,-21.291405062968803
-0.27070000000000005,-21.503611757948562
-0.27169999999999994,-21.67337711393236
-0.27270000000000005,-21.98461359990267
-0.27369999999999994,-22.42317410286083
-0.27470000000000006,-22.904175944814945
-0.27569999999999995,-23.427619125765005
-0.27670000000000006,-23.86617962872317
-0.27769999999999995,-24.290593018682678
-0.27870000000000006,-24.771594860636792
-0.27969999999999995,-25.167714024599
-0.28070000000000006,-25.39406783257741
-0.28169999999999995,-25.563833188561212
-0.28270000000000006,-25.77603988354097
-0.28369999999999995,-26.17215904750318
-0.28470000000000006,-26.61071955046134
-0.28569999999999995,-27.00683871442355
-0.28670000000000007,-27.530281895373616
-0.28769999999999996,-28.05372507632368
-0.28870000000000007,-28.619609596269694
-0.28969999999999996,-29.22793545521166
-0.29070000000000007,-29.66649595816982
-0.29169999999999996,-30.00602667013743
-0.29270000000000007,-30.444587173095588
-0.29369999999999996,-30.925589015049702
-0.2947000000000001,-31.533914873991666
-0.29569999999999996,-32.01491671594578
-0.2967000000000001,-32.45347721890394
-0.29769999999999996,-32.93447906085806
-0.2987000000000001,-33.50036358080407
-0.29969999999999997,-34.06624810075008
-0.3007000000000001,-34.462367264712285
-0.30169999999999997,-34.75945663768395
-0.3027000000000001,-35.282899818634014
-0.30369999999999997,-35.848784338580025
-0.3047000000000001,-36.5136986495166
-0.30569999999999997,-37.164465847454515
-0.3067000000000001,-37.85767438438838
-0.3077,-38.6499127123128
-0.3087000000000001,-39.34312124924667
-0.3097,-39.99388844718459
-0.3107000000000001,-40.559772967130606
-0.3117,-41.083216148080666
-0.3127000000000001,-41.606659329030734
-0.3137,-42.087661170984845
-0.3147000000000001,-42.6111043519349
-0.3157,-43.09210619388902
-0.3167000000000001,-43.57310803584313
-0.3177,-44.181433894785094
-0.3187000000000001,-45.10099623969737
-0.3197,-46.062999923605595
-0.3207000000000001,-46.982562268517874
-0.3217,-47.71821214444768
-0.3227000000000001,-48.55289181136806
-0.3237,-49.41586570428573
-0.3247000000000001,-50.12322135421825
-0.3257,-50.81642989115212
-0.3267000000000001,-51.46719708909004
-0.3277,-52.075522948032
-0.3287000000000001,-52.74043725896857
-0.3297,-53.348763117910536
-0.3307000000000001,-53.9570889768525
-0.3317,-54.56541483579447
-0.3327000000000001,-55.17374069473642
-0.3337,-56.13574437864466
-0.3347000000000001,-57.22507207954074
-0.3357,-58.14463442445301
-0.3367000000000001,-58.97931409137338
-0.3377,-59.884729323287
-0.3387000000000001,-60.889174346191176
-0.3397,-61.851178030099405
-0.3407000000000001,-62.68585769701977
-0.3417,-63.46394891194555
-0.3427000000000001,-64.25618723986996
-0.3437,-65.03427845479574
-0.3447000000000001,-65.82651678272015
-0.3457,-66.43484264166212
-0.3467000000000001,-67.08560983960004
-0.3477,-67.7788183765339
-0.3487000000000001,-68.65593938245023
-0.3497,-69.70282574435035
-0.3507000000000001,-70.57994675026669
-0.3517,-71.52780332117625
-0.3527000000000001,-72.75860215205884
-0.3537,-74.06013654793468
-0.3547000000000001,-75.2484940398213
-0.3557,-76.38026307971333
-0.35670000000000013,-77.55447345860131
-0.3577,-78.64380115949739
-0.35870000000000013,-79.64824618240156
-0.3597,-80.52536718831789
-0.36070000000000013,-81.47322375922747
-0.3617,-82.26546208715187
-0.3626999999999999,-82.95867062408576
-0.3637,-83.70846761301424
-0.3646999999999999,-84.52900016693594
-0.3657,-85.49100385084417
-0.3666999999999999,-86.45300753475239
-0.3677,-87.75454193062824
-0.3686999999999999,-89.46634260346492
-0.36970000000000003,-90.99423080731917
-0.3706999999999999,-92.25332386419905
-0.37170000000000003,-93.25776888710321
-0.3726999999999999,-94.26221391000739
-0.37370000000000003,-95.22421759391563
-0.3746999999999999,-96.12963282582925
-0.37570000000000003,-97.17651918772938
-0.3766999999999999,-98.18096421063355
-0.37770000000000004,-99.14296789454177
-0.3786999999999999,-100.31717827342976
-0.37970000000000004,-101.63285978230424
-0.3806999999999999,-102.84951150018817
-0.38170000000000004,-103.81151518409638
-0.38269999999999993,-104.73107752900866
-0.38370000000000004,-105.82040522990474
-0.38469999999999993,-106.73996757481702
-0.38570000000000004,-107.34829343375898
-0.38669999999999993,-106.86729159180487
-0.38570000000000004,-104.58960639902216
-0.38469999999999993,-102.93439417818009
-0.38370000000000004,-101.32162329633393
-0.38269999999999993,-99.75129375348374
-0.38170000000000004,-98.4497593576079
-0.3806999999999999,-97.09163650973747
-0.37970000000000004,-95.87498479185354
-0.3786999999999999,-94.78565709095746
-0.37770000000000004,-93.51241692107894
-0.3766999999999999,-92.16844118620713
-0.37570000000000003,-90.89520101632861
-0.3746999999999999,-89.80587331543254
-0.37370000000000003,-88.94289942251486
-0.3726999999999999,-87.93845439961068
-0.37170000000000003,-86.93400937670651
-0.3706999999999999,-86.01444703179425
-0.36970000000000003,-85.01000200889004
-0.3686999999999999,-83.83579163000208
-0.3677,-82.52011012112759
-0.3666999999999999,-81.1761343862558
-0.3657,-80.00192400736783
-0.3646999999999999,-78.77112517648524
-0.3637,-77.46959078060941
-0.3626999999999999,-76.23879194972683
-0.3617,-75.02214023184291
-0.36070000000000013,-74.0176952089387
-0.3597,-73.2820453330089
-0.35870000000000013,-72.63127813507097
-0.3577,-71.8814811461425
-0.35670000000000013,-70.91947746223428
-0.3557,-70.09894490831257
-0.3547000000000001,-69.26426524139221
-0.3537,-68.30226155748396
-0.3527000000000001,-67.17049251759194
-0.3517,-65.99628213870396
-0.3507000000000001,-64.72304196882543
-0.3497,-63.5063902509415
-0.3487000000000001,-62.37462121104946
-0.3477,-61.37017618814529
-0.3467000000000001,-60.40817250423707
-0.3457,-59.54519861131939
-0.3447000000000001,-58.97931409137338
-0.3437,-58.35684111943277
-0.3427000000000001,-57.53630856551105
-0.3417,-56.53186354260687
-0.3407000000000001,-55.527418519702685
-0.3397,-54.60785617479041
-0.3387000000000001,-53.603411151886235
-0.3377,-52.34431809500636
-0.3367000000000001,-51.028636586131874
-0.3357,-49.76954352925199
-0.3347000000000001,-48.72265716735186
-0.3337,-47.84553616143554
-0.3327000000000001,-46.982562268517874
-0.3317,-46.2327652795894
-0.3307000000000001,-45.70932209863933
-0.3297,-45.27076159568118
-0.3287000000000001,-44.619994397743255
-0.3277,-43.84190318281749
-0.3267000000000001,-42.92234083790521
-0.3257,-42.00277849299294
-0.3247000000000001,-41.182245939071215
-0.3237,-40.26268359415894
-0.3227000000000001,-39.258238571254765
-0.3217,-38.16891087035869
-0.3207000000000001,-37.164465847454515
-0.3197,-36.329786180534136
-0.3187000000000001,-35.636577643600276
-0.3177,-34.98581044566235
-0.3167000000000001,-34.377484586720385
-0.3157,-33.81160006677438
-0.3147000000000001,-33.231568433829715
-0.3137,-32.53835989689585
-0.3127000000000001,-31.717827342974125
-0.3117,-30.79826499806185
-0.3107000000000001,-29.878702653149578
-0.3097,-29.100611438223805
-0.3087000000000001,-28.350814449295335
-0.3077,-27.615164573365515
-0.3067000000000001,-26.907808923433
-0.30569999999999997,-26.38436574248293
-0.3047000000000001,-26.002393691519377
-0.30369999999999997,-25.563833188561212
-0.3027000000000001,-24.95550732961925
-0.30169999999999997,-24.24815167968673
-0.3007000000000001,-23.51250180375691
-0.29969999999999997,-22.819293266823045
-0.2987000000000001,-22.069496277894572
-0.29769999999999996,-21.333846401964752
-0.2967000000000001,-20.626490752032236
-0.29569999999999996,-19.97572355409432
-0.2947000000000001,-19.409839034148305
-0.29369999999999996,-18.97127853119014
-0.29270000000000007,-18.49027668923603
-0.29169999999999996,-17.924392169290012
-0.29070000000000007,-17.358507649344002
-0.28969999999999996,-16.919947146385837
-0.28870000000000007,-16.396503965435777
-0.28769999999999996,-15.78817810649381
-0.28670000000000007,-15.137410908555893
-0.28569999999999995,-14.57152638860988
-0.28470000000000006,-14.090524546655764
-0.28369999999999995,-13.610937416001518
-0.28270000000000006,-13.087494235051453
-0.28169999999999995,-12.520195003805576
-0.28070000000000006,-12.040607873151327
-0.27969999999999995,-11.604876792792895
-0.27870000000000006,-11.211587051430415
-0.27769999999999995,-10.688143870480351
-0.27670000000000006,-10.164700689530287
-0.27569999999999995,-9.685113558876042
-0.27470000000000006,-9.293238528813426
-0.27369999999999994,-8.85609273715513
-0.27270000000000005,-8.376505606500881
-0.27169999999999994,-7.896918475846635
-0.27070000000000005,-7.461187395488204
-0.26969999999999994,-7.067897654125724
-0.26870000000000005,-6.719878674358924
-0.26769999999999994,-6.282732882700628
-0.26670000000000005,-5.80314575204638
-0.26569999999999994,-5.411270721983764
-0.26470000000000005,-5.105693081212917
-0.26369999999999993,-4.843971490737885
