Potential V vs RHE, Current mA cm-2
0.013299999999999867,-0.48199213986401795
0.012299999999999978,-2.3144676865791998
0.011299999999999866,-3.884797229429391
0.010299999999999976,-5.191990470504685
0.009299999999999864,-6.326588932996443
0.008299999999999974,-7.28576319430494
0.007299999999999862,-8.11478401602585
0.006299999999999972,-8.812236686859313
0.00529999999999986,-9.467248018696827
0.0042999999999999705,-10.078403300238522
0.0032999999999998586,-10.644287820184536
0.0022999999999999687,-11.081433611842833
0.0012999999999998568,-11.473308641905447
0.00029999999999996696,-11.778886282676295
-0.000700000000000145,-12.040607873151327
-0.0017000000000000348,-12.258473413330542
-0.0027000000000001467,-12.476338953509758
-0.0037000000000000366,-12.73806054398479
-0.0047000000000001485,-12.955926084164007
-0.005700000000000038,-13.175206335643086
-0.00670000000000015,-13.349215825526485
-0.00770000000000004,-13.47936926511407
-0.008700000000000152,-13.567081365705702
-0.009700000000000042,-13.698649516593148
-0.010700000000000154,-13.828802956180734
-0.011700000000000044,-13.960371107068182
-0.012700000000000156,-14.090524546655764
-0.013700000000000045,-14.175407224647667
-0.014700000000000157,-14.26028990263957
-0.015700000000000047,-14.26028990263957
-0.01670000000000016,-14.217848563643619
-0.01770000000000005,-14.175407224647667
-0.01870000000000016,-14.175407224647667
-0.01970000000000005,-14.217848563643619
-0.020700000000000163,-14.217848563643619
-0.021700000000000053,-14.26028990263957
-0.022700000000000164,-14.26028990263957
-0.023700000000000054,-14.26028990263957
-0.024700000000000166,-14.217848563643619
-0.025700000000000056,-14.175407224647667
-0.026700000000000168,-14.175407224647667
-0.027700000000000058,-14.26028990263957
-0.02870000000000017,-14.30273124163552
-0.02970000000000006,-14.401761032626075
-0.03070000000000017,-14.486643710617974
-0.03170000000000006,-14.486643710617974
-0.03270000000000017,-14.529085049613924
-0.03370000000000006,-14.529085049613924
-0.034700000000000175,-14.529085049613924
-0.035700000000000065,-14.529085049613924
-0.03670000000000018,-14.57152638860988
-0.03770000000000007,-14.57152638860988
-0.03870000000000018,-14.61396772760583
-0.03970000000000007,-14.57152638860988
-0.04070000000000018,-14.57152638860988
-0.04170000000000007,-14.529085049613924
-0.04270000000000018,-14.444202371622024
-0.04370000000000007,-14.401761032626075
-0.044700000000000184,-14.401761032626075
-0.045700000000000074,-14.444202371622024
-0.046700000000000186,-14.486643710617974
-0.047700000000000076,-14.486643710617974
-0.04870000000000019,-14.486643710617974
-0.04970000000000008,-14.444202371622024
-0.05070000000000019,-14.401761032626075
-0.05170000000000008,-14.401761032626075
-0.05270000000000019,-14.401761032626075
-0.05370000000000008,-14.444202371622024
-0.05470000000000019,-14.486643710617974
-0.05570000000000008,-14.57152638860988
-0.056700000000000195,-14.57152638860988
-0.057700000000000085,-14.57152638860988
-0.058700000000000196,-14.529085049613924
-0.059700000000000086,-14.486643710617974
-0.0607000000000002,-14.486643710617974
-0.06170000000000009,-14.486643710617974
-0.0627000000000002,-14.529085049613924
-0.06370000000000009,-14.529085049613924
-0.0647000000000002,-14.529085049613924
-0.06570000000000009,-14.486643710617974
-0.0667000000000002,-14.401761032626075
-0.0677000000000001,-14.401761032626075
-0.0687000000000002,-14.401761032626075
-0.0697000000000001,-14.401761032626075
-0.07070000000000021,-14.486643710617974
-0.0717000000000001,-14.529085049613924
-0.07270000000000021,-14.529085049613924
-0.0737000000000001,-14.529085049613924
-0.07470000000000021,-14.486643710617974
-0.0757000000000001,-14.444202371622024
-0.07670000000000021,-14.401761032626075
-0.0777000000000001,-14.345172580631472
-0.07870000000000021,-14.345172580631472
-0.0797000000000001,-14.345172580631472
-0.08070000000000022,-14.401761032626075
-0.0817000000000001,-14.345172580631472
-0.08270000000000022,-14.30273124163552
-0.08370000000000011,-14.30273124163552
-0.08470000000000022,-14.26028990263957
-0.08570000000000011,-14.26028990263957
-0.08670000000000022,-14.30273124163552
-0.08770000000000011,-14.401761032626075
-0.08870000000000022,-14.444202371622024
-0.08970000000000011,-14.486643710617974
-0.09070000000000022,-14.486643710617974
-0.09170000000000011,-14.486643710617974
-0.09270000000000023,-14.444202371622024
-0.09370000000000012,-14.444202371622024
-0.09470000000000023,-14.486643710617974
-0.09570000000000012,-14.529085049613924
-0.09670000000000023,-14.57152638860988
-0.09770000000000012,-14.57152638860988
-0.09870000000000023,-14.529085049613924
-0.09970000000000012,-14.529085049613924
-0.10070000000000023,-14.529085049613924
-0.10170000000000012,-14.57152638860988
-0.10270000000000024,-14.61396772760583
-0.10370000000000013,-14.61396772760583
-0.10470000000000024,-14.61396772760583
-0.10570000000000013,-14.61396772760583
-0.10670000000000024,-14.61396772760583
-0.10770000000000013,-14.529085049613924
-0.10870000000000024,-14.486643710617974
-0.10970000000000013,-14.401761032626075
-0.11070000000000024,-14.345172580631472
-0.11170000000000013,-14.345172580631472
-0.11270000000000002,-14.401761032626075
-0.11370000000000013,-14.401761032626075
-0.11470000000000002,-14.401761032626075
-0.11570000000000014,-14.345172580631472
-0.11670000000000003,-14.30273124163552
-0.11770000000000014,-14.26028990263957
-0.11870000000000003,-14.26028990263957
-0.11970000000000014,-14.30273124163552
-0.12070000000000003,-14.401761032626075
-0.12170000000000014,-14.529085049613924
-0.12270000000000003,-14.61396772760583
-0.12370000000000014,-14.65640906660178
-0.12470000000000003,-14.69885040559773
-0.12570000000000014,-14.65640906660178
-0.12670000000000003,-14.69885040559773
-0.12770000000000015,-14.69885040559773
-0.12870000000000004,-14.741291744593681
-0.12970000000000015,-14.741291744593681
-0.13070000000000004,-14.69885040559773
-0.13170000000000015,-14.65640906660178
-0.13270000000000004,-14.57152638860988
-0.13370000000000015,-14.486643710617974
-0.13470000000000004,-14.401761032626075
-0.13570000000000015,-14.345172580631472
-0.13670000000000004,-14.30273124163552
-0.13770000000000016,-14.345172580631472
-0.13870000000000005,-14.345172580631472
-0.13970000000000016,-14.401761032626075
-0.14070000000000005,-14.345172580631472
-0.14170000000000016,-14.345172580631472
-0.14270000000000005,-14.345172580631472
-0.14370000000000016,-14.345172580631472
-0.14470000000000005,-14.444202371622024
-0.14570000000000016,-14.57152638860988
-0.14670000000000005,-14.69885040559773
-0.14770000000000016,-14.783733083589633
-0.14870000000000005,-14.868615761581536
-0.14970000000000017,-14.868615761581536
-0.15070000000000006,-14.925204213576137
-0.15170000000000017,-14.925204213576137
-0.15270000000000006,-14.967645552572087
-0.15370000000000017,-14.967645552572087
-0.15470000000000006,-14.967645552572087
-0.15570000000000017,-14.967645552572087
-0.15670000000000006,-14.925204213576137
-0.15770000000000017,-14.826174422585586
-0.15870000000000006,-14.741291744593681
-0.15970000000000018,-14.65640906660178
-0.16070000000000007,-14.61396772760583
-0.16170000000000018,-14.61396772760583
-0.16270000000000007,-14.65640906660178
-0.16370000000000018,-14.741291744593681
-0.16470000000000007,-14.783733083589633
-0.16570000000000018,-14.826174422585586
-0.16670000000000007,-14.826174422585586
-0.16770000000000018,-14.826174422585586
-0.16870000000000007,-14.868615761581536
-0.16970000000000018,-15.01008689156804
-0.17070000000000007,-15.094969569559943
-0.17170000000000019,-15.179852247551842
-0.17270000000000008,-15.264734925543747
-0.1737000000000002,-15.307176264539699
-0.17470000000000008,-15.264734925543747
-0.1757000000000002,-15.222293586547794
-0.17670000000000008,-15.264734925543747
-0.1777000000000002,-15.264734925543747
-0.17870000000000008,-15.264734925543747
-0.1797000000000002,-15.307176264539699
-0.18070000000000008,-15.307176264539699
-0.1817000000000002,-15.307176264539699
-0.18270000000000008,-15.307176264539699
-0.1837000000000002,-15.307176264539699
-0.1847000000000001,-15.307176264539699
-0.1857000000000002,-15.349617603535648
-0.1867000000000001,-15.448647394526201
-0.1877000000000002,-15.575971411514052
-0.1887000000000001,-15.70329542850191
-0.1897000000000002,-15.78817810649381
-0.1907000000000001,-15.830619445489761
-0.1917000000000001,-15.830619445489761
-0.19269999999999998,-15.830619445489761
-0.1937000000000001,-15.830619445489761
-0.19469999999999998,-15.91550212348166
-0.1957000000000001,-15.972090575476265
-0.19669999999999999,-15.972090575476265
-0.1977000000000001,-16.014531914472215
-0.1987,-15.972090575476265
-0.1997000000000001,-15.972090575476265
-0.2007,-15.91550212348166
-0.2017000000000001,-15.91550212348166
-0.2027,-15.972090575476265
-0.2037000000000001,-16.056973253468165
-0.2047,-16.184297270456018
-0.2057000000000001,-16.269179948447924
-0.2067,-16.354062626439823
-0.2077000000000001,-16.438945304431726
-0.2087,-16.495533756426326
-0.2097000000000001,-16.53797509542228
-0.2107,-16.622857773414182
-0.2117000000000001,-16.750181790402035
-0.2127,-16.877505807389888
-0.2137000000000001,-17.018976937376394
-0.2147,-17.061418276372343
-0.2157000000000001,-17.146300954364243
-0.2167,-17.188742293360193
-0.21770000000000012,-17.188742293360193
-0.2187,-17.188742293360193
-0.21970000000000012,-17.316066310348052
-0.2207,-17.40094898833995
-0.22170000000000012,-17.542420118326454
-0.2227,-17.627302796318357
-0.22370000000000012,-17.669744135314307
-0.2247,-17.75462681330621
-0.22570000000000012,-17.75462681330621
-0.2267,-17.797068152302163
-0.22770000000000012,-17.924392169290012
-0.22870000000000001,-18.06586329927652
-0.22970000000000013,-18.23562865526032
-0.23070000000000002,-18.362952672248177
-0.23170000000000013,-18.44783535024008
-0.23270000000000002,-18.53271802823198
-0.23370000000000013,-18.631747819222536
-0.23470000000000002,-18.674189158218486
-0.23570000000000013,-18.80151317520634
-0.23670000000000002,-19.01371987018609
-0.2376999999999999,-19.2400736781645
-0.23870000000000002,-19.452280373144255
-0.2396999999999999,-19.636192842126707
-0.24070000000000003,-19.763516859114564
-0.24169999999999991,-19.93328221509837
-0.24270000000000003,-20.01816489309027
-0.24369999999999992,-20.159636023076775
-0.24470000000000003,-20.286960040064624
-0.24569999999999992,-20.456725396048434
-0.24670000000000003,-20.626490752032236
-0.24769999999999992,-20.76796188201874
-0.24870000000000003,-20.89528589900659
-0.24969999999999992,-21.065051254990397
-0.25070000000000003,-21.248963723972853
-0.2516999999999999,-21.418729079956652
-0.25270000000000004,-21.63093577493641
-0.2536999999999999,-21.899730921910766
-0.25470000000000004,-22.15437895588647
-0.2556999999999999,-22.38073276386488
-0.25670000000000004,-22.550498119848687
-0.25769999999999993,-22.72026347583249
-0.25870000000000004,-22.904175944814945
-0.25969999999999993,-23.1163826397947
-0.26070000000000004,-23.300295108777156
-0.26169999999999993,-23.55494314275286
-0.26270000000000004,-23.86617962872317
-0.26369999999999993,-24.120827662698876
-0.26470000000000005,-24.432064148669184
-0.26569999999999994,-24.686712182644893
-0.26670000000000005,-24.95550732961925
-0.26769999999999994,-25.167714024599
-0.26870000000000005,-25.478950510569312
-0.26969999999999994,-25.81848122253692
-0.27070000000000005,-26.21460038649913
-0.27169999999999994,-26.61071955046134
-0.27270000000000005,-27.00683871442355
-0.27369999999999994,-27.303928087395207
-0.27470000000000006,-27.572723234369565
-0.27569999999999995,-27.827371268345274
-0.27670000000000006,-28.09616641531963
-0.27769999999999995,-28.435697127287238
-0.27870000000000006,-28.789374952253496
-0.27969999999999995,-29.100611438223805
-0.28070000000000006,-29.482583489187363
-0.28169999999999995,-29.836261314153624
-0.28270000000000006,-30.10505646112798
-0.28369999999999995,-30.359704495103685
-0.28470000000000006,-30.71338232006995
-0.28569999999999995,-31.052913032037555
-0.28670000000000007,-31.49147353499572
-0.28769999999999996,-31.930034037953877
-0.28870000000000007,-32.45347721890394
-0.28969999999999996,-32.97692039985401
-0.29070000000000007,-33.50036358080407
-0.29169999999999996,-33.93892408376223
-0.29270000000000007,-34.377484586720385
-0.29369999999999996,-34.8018979766799
-0.2947000000000001,-35.282899818634014
-0.29569999999999996,-35.763901660588125
-0.2967000000000001,-36.20246216354629
-0.29769999999999996,-36.64102266650445
-0.2987000000000001,-37.037141830466666
-0.29969999999999997,-37.41911388143023
-0.3007000000000001,-37.81523304539243
-0.30169999999999997,-38.253793548350586
-0.3027000000000001,-38.777236729300654
-0.30369999999999997,-39.34312124924667
-0.3047000000000001,-39.86656443019674
-0.30569999999999997,-40.4748902891387
-0.3067000000000001,-41.04077480908471
-0.3077,-41.56421799003478
-0.3087000000000001,-42.087661170984845
-0.3097,-42.6111043519349
-0.3107000000000001,-43.17698887188092
-0.3117,-43.75702050482558
-0.3127000000000001,-44.4077877027635
-0.3137,-44.97367222270952
-0.3147000000000001,-45.581998081651484
-0.3157,-46.147882601597495
-0.3167000000000001,-46.67132578254756
-0.3177,-47.23721030249357
-0.3187000000000001,-47.84553616143554
-0.3197,-48.51045047237211
-0.3207000000000001,-49.24610034830193
-0.3217,-50.0807800152223
-0.3227000000000001,-50.81642989115212
-0.3237,-51.509638428085985
-0.3247000000000001,-52.2169940780185
-0.3257,-52.91020261495237
-0.3267000000000001,-53.64585249088219
-0.3277,-54.39564947981066
-0.3287000000000001,-55.17374069473642
-0.3297,-55.9235376836649
-0.3307000000000001,-56.61674622059877
-0.3317,-57.22507207954074
-0.3327000000000001,-57.79095659948675
-0.3337,-58.35684111943277
-0.3347000000000001,-58.97931409137338
-0.3357,-59.54519861131939
-0.3367000000000001,-60.15352447026136
-0.3377,-60.889174346191176
-0.3387000000000001,-61.6814126741156
-0.3397,-62.459503889041365
-0.3407000000000001,-63.29418355596174
-0.3417,-64.19959878787537
-0.3427000000000001,-65.16160247178358
-0.3437,-66.12360615569182
-0.3447000000000001,-67.17049251759194
-0.3457,-68.25982021848802
-0.3467000000000001,-69.39158925838004
-0.3477,-70.53750541127073
-0.3487000000000001,-71.52780332117625
-0.3497,-72.44736566608852
-0.3507000000000001,-73.2820453330089
-0.3517,-74.10257788693062
-0.3527000000000001,-74.93725755385098
-0.3537,-75.77193722077136
-0.3547000000000001,-76.5924697746931
-0.3557,-77.38470810261751
-0.35670000000000013,-78.12035797854733
-0.3577,-78.85600785447714
-0.35870000000000013,-79.73312886039348
-0.3597,-80.73757388329766
-0.36070000000000013,-81.78446024519776
-0.3617,-82.8313466070979
-0.3626999999999999,-83.79335029100612
-0.3637,-84.7129126359184
-0.3646999999999999,-85.70321054582392
-0.3657,-86.66521422973216
-0.3666999999999999,-87.71210059163228
-0.3677,-88.7589869535324
-0.3686999999999999,-89.80587331543254
-0.36970000000000003,-90.85275967733266
-0.3706999999999999,-91.98452871722468
-0.37170000000000003,-93.25776888710321
-0.3726999999999999,-94.5168619439831
-0.37370000000000003,-95.69107232287108
-0.3746999999999999,-96.79454713676581
-0.37570000000000003,-97.74240370767538
-0.3766999999999999,-98.7044073915836
-0.37770000000000004,-99.75129375348374
-0.3786999999999999,-100.79818011538387
-0.37970000000000004,-101.88750781627995
-0.3806999999999999,-102.97683551717601
-0.38170000000000004,-104.02372187907615
-0.38269999999999993,-104.90084288499246
-0.38370000000000004,-105.7779638909088
-0.38469999999999993,-106.68337912282242
-0.38570000000000004,-107.73026548472255
-0.38669999999999993,-107.4331761117509
-0.38570000000000004,-104.94328422398843
-0.38469999999999993,-102.89195283918411
-0.38370000000000004,-101.15185794035013
-0.38269999999999993,-99.53908705850398
-0.38170000000000004,-98.09608153264163
-0.3806999999999999,-96.65307600677932
-0.37970000000000004,-95.39398294989942
-0.3786999999999999,-94.21977257101145
-0.37770000000000004,-93.03141507912481
-0.3766999999999999,-91.81476336124088
-0.37570000000000003,-90.68299432134886
-0.3746999999999999,-89.50878394246087
-0.37370000000000003,-88.32042645057423
-0.3726999999999999,-87.10377473269031
-0.37170000000000003,-85.84468167581042
-0.3706999999999999,-84.6563241839238
-0.36970000000000003,-83.60943782202366
-0.3686999999999999,-82.52011012112759
-0.3677,-81.38834108123557
-0.3666999999999999,-80.21413070234757
-0.3657,-78.9550376454677
-0.3646999999999999,-77.68179747558916
-0.3637,-76.50758709670117
-0.3626999999999999,-75.46070073480107
-0.3617,-74.41381437290093
-0.36070000000000013,-73.3669280110008
-0.3597,-72.27760031010472
-0.35870000000000013,-71.18827260920865
-0.3577,-70.09894490831257
-0.35670000000000013,-69.0096172074165
-0.3557,-67.9202895065204
-0.3547000000000001,-66.73193201463377
-0.3537,-65.68504565273366
-0.3527000000000001,-64.63815929083353
-0.3517,-63.6761556069253
-0.3507000000000001,-62.72829903601572
-0.3497,-61.851178030099405
-0.3487000000000001,-60.974057024183075
-0.3477,-60.02620045327351
-0.3467000000000001,-59.14907944735718
-0.3457,-58.22951710244491
-0.3447000000000001,-57.45142588751914
-0.3437,-56.70162889859067
-0.3427000000000001,-55.7820665536784
-0.3417,-54.876651321764776
-0.3407000000000001,-53.872206298860604
-0.3397,-52.86776127595642
-0.3387000000000001,-51.86331625305225
-0.3377,-50.85887123014807
-0.3367000000000001,-49.81198486824794
-0.3357,-48.76509850634781
-0.3347000000000001,-47.76065348344364
-0.3337,-46.75620846053947
-0.3327000000000001,-45.75176343763528
-0.3317,-44.80390686672572
-0.3307000000000001,-43.88434452181344
-0.3297,-42.96478217690117
-0.3287000000000001,-42.130102509980794
-0.3277,-41.267128617063115
-0.3267000000000001,-40.51733162813464
-0.3257,-39.739240413208876
-0.3247000000000001,-38.94700208528445
-0.3237,-38.08402819236679
-0.3227000000000001,-37.249348525446415
-0.3217,-36.4288159715247
-0.3207000000000001,-35.594136304604326
-0.3197,-34.8018979766799
-0.3187000000000001,-34.02380676175414
-0.3177,-33.231568433829715
-0.3167000000000001,-32.41103587990799
-0.3157,-31.533914873991666
-0.3147000000000001,-30.71338232006995
-0.3137,-29.878702653149578
-0.3127000000000001,-29.14305277721976
-0.3117,-28.478138466283188
-0.3107000000000001,-27.78492992934932
-0.3097,-27.134162731411404
-0.3087000000000001,-26.483395533473487
-0.3077,-25.77603988354097
-0.3067000000000001,-25.0828313466071
-0.30569999999999997,-24.34718147067728
-0.3047000000000001,-23.682267159740714
-0.30369999999999997,-22.989058622806844
-0.3027000000000001,-22.295850085872978
-0.30169999999999997,-21.63093577493641
-0.3007000000000001,-21.022609915994444
-0.29969999999999997,-20.329401379060574
-0.2987000000000001,-19.636192842126707
-0.29769999999999996,-18.843954514202288
-0.2967000000000001,-18.15074597726842
-0.29569999999999996,-17.4433903273359
-0.2947000000000001,-16.792623129397985
-0.29369999999999996,-16.141855931460068
-0.29270000000000007,-15.533530072518102
-0.29169999999999996,-14.868615761581536
-0.29070000000000007,-14.26028990263957
-0.28969999999999996,-13.567081365705702
-0.28870000000000007,-12.955926084164007
-0.28769999999999996,-12.390041564217992
-0.28670000000000007,-11.86659838326793
-0.28569999999999995,-11.299299152022046
-0.28470000000000006,-10.819712021367803
-0.28369999999999995,-10.25241279012192
-0.28270000000000006,-9.685113558876042
-0.28169999999999995,-9.11781432763016
-0.28070000000000006,-8.594371146680096
-0.27969999999999995,-8.070927965730034
-0.27870000000000006,-7.5474847847799715
-0.27769999999999995,-7.111753704421539
-0.27670000000000006,-6.6760226240631075
-0.27569999999999995,-6.196435493408861
-0.27470000000000006,-5.715433651454749
-0.27369999999999994,-5.235846520800501
-0.27270000000000005,-4.712403339850438
-0.27169999999999994,-4.1889601589003735
-0.27070000000000005,-3.7093730282461257
-0.26969999999999994,-3.317497998183511
-0.26870000000000005,-2.924208256821031
-0.26769999999999994,-2.4884771764625997
