Potential V vs RHE, Current mA cm-2
0.013299999999999867,-0.4384190318281749
0.012299999999999978,-2.3144676865791998
0.011299999999999866,-3.927238568425342
0.010299999999999976,-5.453712060979717
0.009299999999999864,-6.806176063650692
0.008299999999999974,-7.984630576438266
0.007299999999999862,-9.073958277334345
0.006299999999999972,-10.034547249942705
0.00529999999999986,-10.949865460955383
0.0042999999999999705,-11.73503023238048
0.0032999999999998586,-12.476338953509758
0.0022999999999999687,-13.13135028534727
0.0012999999999998568,-13.784946905884919
0.00029999999999996696,-14.401761032626075
-0.000700000000000145,-14.967645552572087
-0.0017000000000000348,-15.448647394526201
-0.0027000000000001467,-15.87306078448571
-0.0037000000000000366,-16.269179948447924
-0.0047000000000001485,-16.580416434418233
-0.005700000000000038,-16.877505807389888
-0.00670000000000015,-17.146300954364243
-0.00770000000000004,-17.316066310348052
-0.008700000000000152,-17.542420118326454
-0.009700000000000042,-17.71218547431026
-0.010700000000000154,-17.924392169290012
-0.011700000000000044,-18.10830463827247
-0.012700000000000156,-18.27806999425627
-0.013700000000000045,-18.40539401124413
-0.014700000000000157,-18.589306480226583
-0.015700000000000047,-18.716630497214435
-0.01670000000000016,-18.80151317520634
-0.01770000000000005,-18.88639585319824
-0.01870000000000016,-18.97127853119014
-0.01970000000000005,-19.01371987018609
-0.020700000000000163,-19.112749661176647
-0.021700000000000053,-19.197632339168546
-0.022700000000000164,-19.3249563561564
-0.023700000000000054,-19.409839034148305
-0.024700000000000166,-19.537163051136158
-0.025700000000000056,-19.678634181122664
-0.026700000000000168,-19.763516859114564
-0.027700000000000058,-19.805958198110513
-0.02870000000000017,-19.848399537106463
-0.02970000000000006,-19.848399537106463
-0.03070000000000017,-19.848399537106463
-0.03170000000000006,-19.805958198110513
-0.03270000000000017,-19.805958198110513
-0.03370000000000006,-19.805958198110513
-0.034700000000000175,-19.805958198110513
-0.035700000000000065,-19.805958198110513
-0.03670000000000018,-19.805958198110513
-0.03770000000000007,-19.848399537106463
-0.03870000000000018,-19.805958198110513
-0.03970000000000007,-19.805958198110513
-0.04070000000000018,-19.763516859114564
-0.04170000000000007,-19.763516859114564
-0.04270000000000018,-19.721075520118614
-0.04370000000000007,-19.763516859114564
-0.044700000000000184,-19.721075520118614
-0.045700000000000074,-19.763516859114564
-0.046700000000000186,-19.848399537106463
-0.047700000000000076,-19.890840876102416
-0.04870000000000019,-19.97572355409432
-0.04970000000000008,-19.97572355409432
-0.05070000000000019,-20.01816489309027
-0.05170000000000008,-20.01816489309027
-0.05270000000000019,-20.01816489309027
-0.05370000000000008,-20.01816489309027
-0.05470000000000019,-19.97572355409432
-0.05570000000000008,-19.97572355409432
-0.056700000000000195,-19.97572355409432
-0.057700000000000085,-19.97572355409432
-0.058700000000000196,-19.97572355409432
-0.059700000000000086,-19.97572355409432
-0.0607000000000002,-19.97572355409432
-0.06170000000000009,-20.01816489309027
-0.0627000000000002,-19.97572355409432
-0.06370000000000009,-19.93328221509837
-0.0647000000000002,-19.890840876102416
-0.06570000000000009,-19.805958198110513
-0.0667000000000002,-19.763516859114564
-0.0677000000000001,-19.721075520118614
-0.0687000000000002,-19.721075520118614
-0.0697000000000001,-19.721075520118614
-0.07070000000000021,-19.763516859114564
-0.0717000000000001,-19.805958198110513
-0.07270000000000021,-19.848399537106463
-0.0737000000000001,-19.890840876102416
-0.07470000000000021,-19.93328221509837
-0.0757000000000001,-19.93328221509837
-0.07670000000000021,-19.93328221509837
-0.0777000000000001,-19.93328221509837
-0.07870000000000021,-19.93328221509837
-0.0797000000000001,-19.97572355409432
-0.08070000000000022,-20.01816489309027
-0.0817000000000001,-20.06060623208622
-0.08270000000000022,-20.159636023076775
-0.08370000000000011,-20.244518701068674
-0.08470000000000022,-20.244518701068674
-0.08570000000000011,-20.286960040064624
-0.08670000000000022,-20.286960040064624
-0.08770000000000011,-20.244518701068674
-0.08870000000000022,-20.202077362072725
-0.08970000000000011,-20.10304757108217
-0.09070000000000022,-20.01816489309027
-0.09170000000000011,-19.97572355409432
-0.09270000000000023,-19.97572355409432
-0.09370000000000012,-19.93328221509837
-0.09470000000000023,-19.93328221509837
-0.09570000000000012,-19.93328221509837
-0.09670000000000023,-19.890840876102416
-0.09770000000000012,-19.848399537106463
-0.09870000000000023,-19.805958198110513
-0.09970000000000012,-19.763516859114564
-0.10070000000000023,-19.721075520118614
-0.10170000000000012,-19.721075520118614
-0.10270000000000024,-19.763516859114564
-0.10370000000000013,-19.805958198110513
-0.10470000000000024,-19.890840876102416
-0.10570000000000013,-19.97572355409432
-0.10670000000000024,-20.10304757108217
-0.10770000000000013,-20.202077362072725
-0.10870000000000024,-20.286960040064624
-0.10970000000000013,-20.329401379060574
-0.11070000000000024,-20.371842718056527
-0.11170000000000013,-20.371842718056527
-0.11270000000000002,-20.371842718056527
-0.11370000000000013,-20.414284057052477
-0.11470000000000002,-20.414284057052477
-0.11570000000000014,-20.456725396048434
-0.11670000000000003,-20.456725396048434
-0.11770000000000014,-20.499166735044383
-0.11870000000000003,-20.499166735044383
-0.11970000000000014,-20.456725396048434
-0.12070000000000003,-20.414284057052477
-0.12170000000000014,-20.371842718056527
-0.12270000000000003,-20.286960040064624
-0.12370000000000014,-20.202077362072725
-0.12470000000000003,-20.10304757108217
-0.12570000000000014,-20.01816489309027
-0.12670000000000003,-19.93328221509837
-0.12770000000000015,-19.890840876102416
-0.12870000000000004,-19.848399537106463
-0.12970000000000015,-19.848399537106463
-0.13070000000000004,-19.848399537106463
-0.13170000000000015,-19.848399537106463
-0.13270000000000004,-19.805958198110513
-0.13370000000000015,-19.805958198110513
-0.13470000000000004,-19.805958198110513
-0.13570000000000015,-19.805958198110513
-0.13670000000000004,-19.848399537106463
-0.13770000000000016,-19.890840876102416
-0.13870000000000005,-19.93328221509837
-0.13970000000000016,-20.01816489309027
-0.14070000000000005,-20.10304757108217
-0.14170000000000016,-20.202077362072725
-0.14270000000000005,-20.286960040064624
-0.14370000000000016,-20.329401379060574
-0.14470000000000005,-20.371842718056527
-0.14570000000000016,-20.371842718056527
-0.14670000000000005,-20.371842718056527
-0.14770000000000016,-20.371842718056527
-0.14870000000000005,-20.329401379060574
-0.14970000000000017,-20.329401379060574
-0.15070000000000006,-20.371842718056527
-0.15170000000000017,-20.371842718056527
-0.15270000000000006,-20.371842718056527
-0.15370000000000017,-20.414284057052477
-0.15470000000000006,-20.371842718056527
-0.15570000000000017,-20.371842718056527
-0.15670000000000006,-20.329401379060574
-0.15770000000000017,-20.286960040064624
-0.15870000000000006,-20.286960040064624
-0.15970000000000018,-20.202077362072725
-0.16070000000000007,-20.202077362072725
-0.16170000000000018,-20.202077362072725
-0.16270000000000007,-20.202077362072725
-0.16370000000000018,-20.202077362072725
-0.16470000000000007,-20.244518701068674
-0.16570000000000018,-20.286960040064624
-0.16670000000000007,-20.329401379060574
-0.16770000000000018,-20.329401379060574
-0.16870000000000007,-20.371842718056527
-0.16970000000000018,-20.414284057052477
-0.17070000000000007,-20.414284057052477
-0.17170000000000019,-20.456725396048434
-0.17270000000000008,-20.499166735044383
-0.1737000000000002,-20.584049413036283
-0.17470000000000008,-20.683079204026836
-0.1757000000000002,-20.72552054302279
-0.17670000000000008,-20.85284456001064
-0.1777000000000002,-20.89528589900659
-0.17870000000000008,-20.93772723800254
-0.1797000000000002,-20.93772723800254
-0.18070000000000008,-20.93772723800254
-0.1817000000000002,-20.89528589900659
-0.18270000000000008,-20.89528589900659
-0.1837000000000002,-20.93772723800254
-0.1847000000000001,-20.980168576998494
-0.1857000000000002,-21.022609915994444
-0.1867000000000001,-21.065051254990397
-0.1877000000000002,-21.107492593986347
-0.1887000000000001,-21.2065223849769
-0.1897000000000002,-21.2065223849769
-0.1907000000000001,-21.248963723972853
-0.1917000000000001,-21.248963723972853
-0.19269999999999998,-21.248963723972853
-0.1937000000000001,-21.248963723972853
-0.19469999999999998,-21.248963723972853
-0.1957000000000001,-21.291405062968803
-0.19669999999999999,-21.291405062968803
-0.1977000000000001,-21.291405062968803
-0.1987,-21.333846401964752
-0.1997000000000001,-21.376287740960702
-0.2007,-21.461170418952605
-0.2017000000000001,-21.503611757948562
-0.2027,-21.54605309694451
-0.2037000000000001,-21.63093577493641
-0.2047,-21.67337711393236
-0.2057000000000001,-21.67337711393236
-0.2067,-21.729965565926964
-0.2077000000000001,-21.729965565926964
-0.2087,-21.814848243918867
-0.2097000000000001,-21.899730921910766
-0.2107,-21.94217226090672
-0.2117000000000001,-22.069496277894572
-0.2127,-22.196820294882425
-0.2137000000000001,-22.295850085872978
-0.2147,-22.38073276386488
-0.2157000000000001,-22.46561544185678
-0.2167,-22.550498119848687
-0.21770000000000012,-22.550498119848687
-0.2187,-22.63538079784059
-0.21970000000000012,-22.72026347583249
-0.2207,-22.861734605818995
-0.22170000000000012,-22.946617283810895
-0.2227,-23.073941300798747
-0.22370000000000012,-23.15882397879065
-0.2247,-23.24370665678255
-0.22570000000000012,-23.300295108777156
-0.2267,-23.385177786769056
-0.22770000000000012,-23.427619125765005
-0.22870000000000001,-23.51250180375691
-0.22970000000000013,-23.55494314275286
-0.23070000000000002,-23.682267159740714
-0.23170000000000013,-23.767149837732617
-0.23270000000000002,-23.951062306715073
-0.23370000000000013,-24.078386323702922
-0.23470000000000002,-24.20571034069078
-0.23570000000000013,-24.34718147067728
-0.23670000000000002,-24.474505487665134
-0.2376999999999999,-24.601829504652986
-0.23870000000000002,-24.729153521640843
-0.2396999999999999,-24.870624651627345
-0.24070000000000003,-24.95550732961925
-0.24169999999999991,-25.04039000761115
-0.24270000000000003,-25.167714024599
-0.24369999999999992,-25.295038041586857
-0.24470000000000003,-25.478950510569312
-0.24569999999999992,-25.60627452755716
-0.24670000000000003,-25.81848122253692
-0.24769999999999992,-25.959952352523427
-0.24870000000000003,-26.129717708507226
-0.24969999999999992,-26.29948306449103
-0.25070000000000003,-26.440954194477534
-0.2516999999999999,-26.61071955046134
-0.25270000000000004,-26.738043567449193
-0.2536999999999999,-26.907808923433
-0.25470000000000004,-27.134162731411404
-0.2556999999999999,-27.34636942639116
-0.25670000000000004,-27.615164573365515
-0.25769999999999993,-27.827371268345274
-0.25870000000000004,-28.09616641531963
-0.25969999999999993,-28.265931771303435
-0.26070000000000004,-28.435697127287238
-0.26169999999999993,-28.619609596269694
-0.26270000000000004,-28.831816291249446
-0.26369999999999993,-29.001581647233255
-0.26470000000000005,-29.27037679420761
-0.26569999999999994,-29.482583489187363
-0.26670000000000005,-29.793819975157668
-0.26769999999999994,-30.04846800913338
-0.26870000000000005,-30.317263156107735
-0.26969999999999994,-30.571911190083444
-0.27070000000000005,-30.88314767605375
-0.27169999999999994,-31.095354371033505
-0.27270000000000005,-31.40659085700382
-0.27369999999999994,-31.618797551983565
-0.27470000000000006,-31.887592698957924
-0.27569999999999995,-32.14224073293363
-0.27670000000000006,-32.41103587990799
-0.27769999999999995,-32.70812525287965
-0.27870000000000006,-32.97692039985401
-0.27969999999999995,-33.288156885824314
-0.28070000000000006,-33.627687597791926
-0.28169999999999995,-33.98136542275818
-0.28270000000000006,-34.33504324772444
-0.28369999999999995,-34.67457395969205
-0.28470000000000006,-34.98581044566235
-0.28569999999999995,-35.32534115762997
-0.28670000000000007,-35.636577643600276
-0.28769999999999996,-35.94781412957058
-0.28870000000000007,-36.28734484153819
-0.28969999999999996,-36.64102266650445
-0.29070000000000007,-37.07958316946261
-0.29169999999999996,-37.56058501141672
-0.29270000000000007,-38.08402819236679
-0.29369999999999996,-38.6499127123128
-0.2947000000000001,-39.173355893262865
-0.29569999999999996,-39.696799074212926
-0.2967000000000001,-40.220242255162994
-0.29769999999999996,-40.743685436113054
-0.2987000000000001,-41.22468727806717
-0.29969999999999997,-41.70568912002128
-0.3007000000000001,-42.229132300971344
-0.30169999999999997,-42.71013414292546
-0.3027000000000001,-43.23357732387552
-0.30369999999999997,-43.70043205283099
-0.3047000000000001,-44.138992555789144
-0.30569999999999997,-44.577553058747306
-0.3067000000000001,-45.01611356170547
-0.3077,-45.412232725667685
-0.3087000000000001,-45.79420477663124
-0.3097,-46.19032394059345
-0.3107000000000001,-46.544001765559706
-0.3117,-46.94012092952192
-0.3127000000000001,-47.32209298048547
-0.3137,-47.76065348344364
-0.3147000000000001,-48.1992139864018
-0.3157,-48.68021582835591
-0.3167000000000001,-49.20365900930597
-0.3177,-49.72710219025603
-0.3187000000000001,-50.29298671020206
-0.3197,-50.81642989115212
-0.3207000000000001,-51.424755750094086
-0.3217,-52.033081609036046
-0.3227000000000001,-52.69799591997262
-0.3237,-53.348763117910536
-0.3247000000000001,-53.999530315848446
-0.3257,-54.73518019177827
-0.3267000000000001,-55.527418519702685
-0.3277,-56.36209818662306
-0.3287000000000001,-57.182630740544774
-0.3297,-57.93242772947325
-0.3307000000000001,-58.71051894439902
-0.3317,-59.44616882032884
-0.3327000000000001,-60.19596580925731
-0.3337,-60.93161568518713
-0.3347000000000001,-61.72385401311155
-0.3357,-62.459503889041365
-0.3367000000000001,-63.29418355596174
-0.3377,-64.0722747708875
-0.3387000000000001,-64.86451309881193
-0.3397,-65.64260431373769
-0.3407000000000001,-66.39240130266617
-0.3417,-67.128051178596
-0.3427000000000001,-67.7788183765339
-0.3437,-68.48617402646643
-0.3447000000000001,-69.1793825634003
-0.3457,-69.87259110033416
-0.3467000000000001,-70.53750541127073
-0.3477,-71.18827260920865
-0.3487000000000001,-71.83903980714656
-0.3497,-72.48980700508447
-0.3507000000000001,-73.15472131602105
-0.3517,-73.93281253094682
-0.3527000000000001,-74.72505085887124
-0.3537,-75.54558341279296
-0.3547000000000001,-76.38026307971333
-0.3557,-77.20079563363505
-0.35670000000000013,-78.07791663955136
-0.3577,-78.99747898446365
-0.35870000000000013,-80.04436534636378
-0.3597,-81.1761343862558
-0.36070000000000013,-82.39278610413973
-0.3617,-83.66602627401826
-0.3626999999999999,-84.92511933089816
-0.3637,-86.22665372677399
-0.3646999999999999,-87.41501121866061
-0.3657,-88.54678025855264
-0.3666999999999999,-89.55122528145681
-0.3677,-90.51322896536506
-0.3686999999999999,-91.41864419727867
-0.36970000000000003,-92.33820654219093
-0.3706999999999999,-93.34265156509512
-0.37170000000000003,-94.34709658799929
-0.3726999999999999,-95.26665893291157
-0.37370000000000003,-96.17207416482519
-0.3746999999999999,-97.13407784873341
-0.37570000000000003,-98.05364019364569
-0.3766999999999999,-98.97320253855796
-0.37770000000000004,-99.83617643147564
-0.3786999999999999,-100.75573877638791
-0.37970000000000004,-101.6753011213002
-0.3806999999999999,-102.63730480520842
-0.38170000000000004,-103.64174982811258
-0.38269999999999993,-104.64619485101677
-0.38370000000000004,-105.69308121291688
-0.38469999999999993,-106.68337912282242
-0.38570000000000004,-107.87173661470905
-0.38669999999999993,-107.78685393671715
-0.38570000000000004,-105.50916874393444
-0.38469999999999993,-103.54272003712204
-0.38370000000000004,-101.84506647728399
-0.38269999999999993,-100.14741291744595
-0.38170000000000004,-98.5346420355998
-0.3806999999999999,-97.00675383174556
-0.37970000000000004,-95.52130696688728
-0.3786999999999999,-94.07830144102493
-0.37770000000000004,-92.64944302816124
-0.3766999999999999,-91.24887884129487
-0.37570000000000003,-89.89075599342443
-0.3746999999999999,-88.5892215975486
-0.37370000000000003,-87.33012854066871
-0.3726999999999999,-86.01444703179425
-0.37170000000000003,-84.7129126359184
-0.3706999999999999,-83.39723112704392
-0.36970000000000003,-82.03910827917348
-0.3686999999999999,-80.69513254430169
-0.3677,-79.47848082641775
-0.3666999999999999,-78.24768199553519
-0.3657,-77.0734716166472
-0.3646999999999999,-75.8992612377592
-0.3637,-74.76749219786718
-0.3626999999999999,-73.6781644969711
-0.3617,-72.63127813507097
-0.36070000000000013,-71.58439177317086
-0.3597,-70.57994675026669
-0.35870000000000013,-69.57550172736251
-0.3577,-68.57105670445833
-0.35670000000000013,-67.52417034255821
-0.3557,-66.51972531965401
-0.3547000000000001,-65.5577216357458
-0.3537,-64.59571795183757
-0.3527000000000001,-63.633714267929356
-0.3517,-62.68585769701977
-0.3507000000000001,-61.6814126741156
-0.3497,-60.71940899020737
-0.3487000000000001,-59.67252262830725
-0.3477,-58.62563626640712
-0.3467000000000001,-57.57874990450699
-0.3457,-56.53186354260687
-0.3447000000000001,-55.484977180706736
-0.3437,-54.43809081880661
-0.3427000000000001,-53.476087134898386
-0.3417,-52.55652478998611
-0.3407000000000001,-51.594521106077885
-0.3397,-50.68910587416426
-0.3387000000000001,-49.72710219025603
-0.3377,-48.76509850634781
-0.3367000000000001,-47.84553616143554
-0.3357,-46.94012092952192
-0.3347000000000001,-45.97811724561369
-0.3337,-45.01611356170547
-0.3327000000000001,-44.096551216793195
-0.3317,-43.23357732387552
-0.3307000000000001,-42.3564563179592
-0.3297,-41.47933531204288
-0.3287000000000001,-40.616361419125205
-0.3277,-39.78168175220483
-0.3267000000000001,-38.94700208528445
-0.3257,-38.04158685337084
-0.3247000000000001,-37.164465847454515
-0.3237,-36.28734484153819
-0.3227000000000001,-35.42437094862052
-0.3217,-34.5472499427042
-0.3207000000000001,-33.712570275783825
-0.3197,-32.892037721862096
-0.3187000000000001,-32.05735805494172
-0.3177,-31.23682550102001
-0.3167000000000001,-30.402145834099635
-0.3157,-29.581613280177915
-0.3147000000000001,-28.746933613257543
-0.3137,-27.869812607341224
-0.3127000000000001,-27.049280053419505
-0.3117,-26.29948306449103
-0.3107000000000001,-25.521391849565262
-0.3097,-24.814036199632742
-0.3087000000000001,-24.120827662698876
-0.3077,-23.51250180375691
-0.3067000000000001,-22.861734605818995
-0.30569999999999997,-22.196820294882425
-0.3047000000000001,-21.54605309694451
-0.30369999999999997,-20.85284456001064
-0.3027000000000001,-20.159636023076775
-0.30169999999999997,-19.409839034148305
-0.3007000000000001,-18.674189158218486
-0.29969999999999997,-17.924392169290012
-0.2987000000000001,-17.188742293360193
-0.29769999999999996,-16.438945304431726
-0.2967000000000001,-15.74573676749786
-0.29569999999999996,-15.01008689156804
-0.2947000000000001,-14.345172580631472
-0.29369999999999996,-13.698649516593148
-0.29270000000000007,-13.043638184755638
-0.29169999999999996,-12.390041564217992
-0.29070000000000007,-11.73503023238048
-0.28969999999999996,-11.037577561547016
-0.28870000000000007,-10.382566229709504
-0.28769999999999996,-9.772825659467674
-0.28670000000000007,-9.11781432763016
-0.28569999999999995,-8.508073757388331
-0.28470000000000006,-7.940774526142452
-0.28369999999999995,-7.37347529489657
-0.28270000000000006,-6.850032113946507
-0.28169999999999995,-6.326588932996443
-0.28070000000000006,-5.80314575204638
-0.27969999999999995,-5.279702571096316
-0.27870000000000006,-4.756259390146253
-0.27769999999999995,-4.23281620919619
-0.27670000000000006,-3.6655169779503103
-0.27569999999999995,-3.0996324580042955
-0.27470000000000006,-2.618630616050183
-0.27369999999999994,-2.052746096104168
-0.27270000000000005,-1.5717442541500557
-0.27169999999999994,-1.0925815368857679
-0.27070000000000005,-0.6128529351015338
-0.26969999999999994,-0.1330535977523067
-0.26870000000000005,0.3031726315610774
-0.26769999999999994,0.8264743413811545
