June 29, 2026   06:46:38
Cyclic Voltammetry
File: c:/users/guazh/data/20260623_doe_duplica2/2026-06-24-exp39\exp39-2026-06-29t06_28_59-arkoh\exp39_cv_sr_100mvs_efin_-1700mv.bin
Data Source:  Experiment
Instrument Model:  CHI760E
Header: CV ran at 100 mVs
Note: 

Init E (V) = -1
High E (V) = -1
Low E (V) = -1.7
Final E (V) = -1
Init P/N = N
Scan Rate (V/s) = 0.1
Segment = 3
Sample Interval (V) = 0.001
Quiet Time (sec) = 2
Sensitivity (A/V) = 0.01
Comp R (ohm) = 1.5

Results:

Channel 1:
Segment 1:

Segment 2:

Segment 3:

Potential/V, Current/A

-1.000, 1.509e-5
-1.001, 2.369e-5
-1.002, 2.461e-5
-1.003, 2.561e-5
-1.004, 2.556e-5
-1.005, 2.605e-5
-1.006, 2.643e-5
-1.007, 2.646e-5
-1.008, 2.680e-5
-1.009, 2.686e-5
-1.010, 2.732e-5
-1.011, 2.732e-5
-1.012, 2.758e-5
-1.013, 2.786e-5
-1.014, 2.760e-5
-1.015, 2.815e-5
-1.016, 2.833e-5
-1.017, 2.788e-5
-1.018, 2.852e-5
-1.019, 2.832e-5
-1.020, 2.857e-5
-1.021, 2.860e-5
-1.022, 2.861e-5
-1.023, 2.889e-5
-1.024, 2.891e-5
-1.025, 2.872e-5
-1.026, 2.937e-5
-1.027, 2.878e-5
-1.028, 2.934e-5
-1.029, 2.903e-5
-1.030, 2.901e-5
-1.031, 2.966e-5
-1.032, 2.881e-5
-1.033, 2.945e-5
-1.034, 2.932e-5
-1.035, 2.924e-5
-1.036, 2.983e-5
-1.037, 2.932e-5
-1.038, 2.964e-5
-1.039, 2.968e-5
-1.040, 2.930e-5
-1.041, 2.983e-5
-1.042, 2.954e-5
-1.043, 2.979e-5
-1.044, 2.982e-5
-1.045, 2.977e-5
-1.046, 2.983e-5
-1.047, 2.973e-5
-1.048, 2.987e-5
-1.049, 2.976e-5
-1.050, 3.007e-5
-1.051, 3.006e-5
-1.052, 2.984e-5
-1.053, 3.008e-5
-1.054, 3.002e-5
-1.055, 3.026e-5
-1.056, 3.020e-5
-1.057, 2.989e-5
-1.058, 3.028e-5
-1.059, 3.021e-5
-1.060, 3.026e-5
-1.061, 3.032e-5
-1.062, 2.997e-5
-1.063, 3.063e-5
-1.064, 3.027e-5
-1.065, 3.025e-5
-1.066, 3.072e-5
-1.067, 3.005e-5
-1.068, 3.068e-5
-1.069, 3.046e-5
-1.070, 3.038e-5
-1.071, 3.073e-5
-1.072, 3.023e-5
-1.073, 3.063e-5
-1.074, 3.073e-5
-1.075, 3.080e-5
-1.076, 3.076e-5
-1.077, 3.056e-5
-1.078, 3.077e-5
-1.079, 3.092e-5
-1.080, 3.060e-5
-1.081, 3.094e-5
-1.082, 3.053e-5
-1.083, 3.081e-5
-1.084, 3.095e-5
-1.085, 3.080e-5
-1.086, 3.107e-5
-1.087, 3.083e-5
-1.088, 3.097e-5
-1.089, 3.106e-5
-1.090, 3.105e-5
-1.091, 3.097e-5
-1.092, 3.088e-5
-1.093, 3.114e-5
-1.094, 3.093e-5
-1.095, 3.100e-5
-1.096, 3.132e-5
-1.097, 3.075e-5
-1.098, 3.142e-5
-1.099, 3.105e-5
-1.100, 3.103e-5
-1.101, 3.150e-5
-1.102, 3.094e-5
-1.103, 3.141e-5
-1.104, 3.099e-5
-1.105, 3.125e-5
-1.106, 3.153e-5
-1.107, 3.117e-5
-1.108, 3.139e-5
-1.109, 3.132e-5
-1.110, 3.114e-5
-1.111, 3.171e-5
-1.112, 3.113e-5
-1.113, 3.141e-5
-1.114, 3.143e-5
-1.115, 3.129e-5
-1.116, 3.180e-5
-1.117, 3.127e-5
-1.118, 3.143e-5
-1.119, 3.157e-5
-1.120, 3.134e-5
-1.121, 3.150e-5
-1.122, 3.147e-5
-1.123, 3.142e-5
-1.124, 3.147e-5
-1.125, 3.141e-5
-1.126, 3.159e-5
-1.127, 3.162e-5
-1.128, 3.159e-5
-1.129, 3.149e-5
-1.130, 3.153e-5
-1.131, 3.157e-5
-1.132, 3.163e-5
-1.133, 3.172e-5
-1.134, 3.157e-5
-1.135, 3.159e-5
-1.136, 3.173e-5
-1.137, 3.148e-5
-1.138, 3.176e-5
-1.139, 3.151e-5
-1.140, 3.185e-5
-1.141, 3.167e-5
-1.142, 3.137e-5
-1.143, 3.196e-5
-1.144, 3.158e-5
-1.145, 3.156e-5
-1.146, 3.191e-5
-1.147, 3.159e-5
-1.148, 3.187e-5
-1.149, 3.163e-5
-1.150, 3.167e-5
-1.151, 3.205e-5
-1.152, 3.175e-5
-1.153, 3.180e-5
-1.154, 3.187e-5
-1.155, 3.157e-5
-1.156, 3.213e-5
-1.157, 3.154e-5
-1.158, 3.179e-5
-1.159, 3.206e-5
-1.160, 3.170e-5
-1.161, 3.216e-5
-1.162, 3.180e-5
-1.163, 3.189e-5
-1.164, 3.193e-5
-1.165, 3.194e-5
-1.166, 3.212e-5
-1.167, 3.193e-5
-1.168, 3.202e-5
-1.169, 3.187e-5
-1.170, 3.209e-5
-1.171, 3.203e-5
-1.172, 3.208e-5
-1.173, 3.214e-5
-1.174, 3.208e-5
-1.175, 3.229e-5
-1.176, 3.224e-5
-1.177, 3.220e-5
-1.178, 3.262e-5
-1.179, 3.217e-5
-1.180, 3.234e-5
-1.181, 3.243e-5
-1.182, 3.211e-5
-1.183, 3.257e-5
-1.184, 3.247e-5
-1.185, 3.225e-5
-1.186, 3.272e-5
-1.187, 3.234e-5
-1.188, 3.268e-5
-1.189, 3.254e-5
-1.190, 3.242e-5
-1.191, 3.303e-5
-1.192, 3.252e-5
-1.193, 3.277e-5
-1.194, 3.298e-5
-1.195, 3.273e-5
-1.196, 3.308e-5
-1.197, 3.271e-5
-1.198, 3.307e-5
-1.199, 3.306e-5
-1.200, 3.297e-5
-1.201, 3.325e-5
-1.202, 3.323e-5
-1.203, 3.333e-5
-1.204, 3.350e-5
-1.205, 3.343e-5
-1.206, 3.363e-5
-1.207, 3.361e-5
-1.208, 3.370e-5
-1.209, 3.373e-5
-1.210, 3.402e-5
-1.211, 3.392e-5
-1.212, 3.397e-5
-1.213, 3.408e-5
-1.214, 3.422e-5
-1.215, 3.427e-5
-1.216, 3.458e-5
-1.217, 3.452e-5
-1.218, 3.487e-5
-1.219, 3.470e-5
-1.220, 3.487e-5
-1.221, 3.511e-5
-1.222, 3.491e-5
-1.223, 3.555e-5
-1.224, 3.524e-5
-1.225, 3.535e-5
-1.226, 3.580e-5
-1.227, 3.558e-5
-1.228, 3.625e-5
-1.229, 3.663e-5
-1.230, 3.631e-5
-1.231, 3.661e-5
-1.232, 3.636e-5
-1.233, 3.692e-5
-1.234, 3.716e-5
-1.235, 3.683e-5
-1.236, 3.767e-5
-1.237, 3.731e-5
-1.238, 3.775e-5
-1.239, 3.820e-5
-1.240, 3.774e-5
-1.241, 3.858e-5
-1.242, 3.848e-5
-1.243, 3.876e-5
-1.244, 3.933e-5
-1.245, 3.908e-5
-1.246, 3.955e-5
-1.247, 3.979e-5
-1.248, 3.998e-5
-1.249, 4.030e-5
-1.250, 4.064e-5
-1.251, 4.096e-5
-1.252, 4.094e-5
-1.253, 4.144e-5
-1.254, 4.179e-5
-1.255, 4.217e-5
-1.256, 4.250e-5
-1.257, 4.253e-5
-1.258, 4.325e-5
-1.259, 4.340e-5
-1.260, 4.365e-5
-1.261, 4.418e-5
-1.262, 4.421e-5
-1.263, 4.502e-5
-1.264, 4.507e-5
-1.265, 4.548e-5
-1.266, 4.649e-5
-1.267, 4.612e-5
-1.268, 4.706e-5
-1.269, 4.740e-5
-1.270, 4.767e-5
-1.271, 4.852e-5
-1.272, 4.835e-5
-1.273, 4.918e-5
-1.274, 4.993e-5
-1.275, 5.003e-5
-1.276, 5.096e-5
-1.277, 5.111e-5
-1.278, 5.174e-5
-1.279, 5.241e-5
-1.280, 5.322e-5
-1.281, 5.363e-5
-1.282, 5.402e-5
-1.283, 5.469e-5
-1.284, 5.549e-5
-1.285, 5.597e-5
-1.286, 5.675e-5
-1.287, 5.729e-5
-1.288, 5.793e-5
-1.289, 5.874e-5
-1.290, 5.932e-5
-1.291, 6.012e-5
-1.292, 6.080e-5
-1.293, 6.163e-5
-1.294, 6.238e-5
-1.295, 6.324e-5
-1.296, 6.405e-5
-1.297, 6.446e-5
-1.298, 6.559e-5
-1.299, 6.654e-5
-1.300, 6.702e-5
-1.301, 6.828e-5
-1.302, 6.863e-5
-1.303, 7.005e-5
-1.304, 7.084e-5
-1.305, 7.164e-5
-1.306, 7.317e-5
-1.307, 7.334e-5
-1.308, 7.477e-5
-1.309, 7.583e-5
-1.310, 7.657e-5
-1.311, 7.800e-5
-1.312, 7.859e-5
-1.313, 7.997e-5
-1.314, 8.121e-5
-1.315, 8.205e-5
-1.316, 8.348e-5
-1.317, 8.428e-5
-1.318, 8.578e-5
-1.319, 8.714e-5
-1.320, 8.793e-5
-1.321, 8.955e-5
-1.322, 9.050e-5
-1.323, 9.210e-5
-1.324, 9.350e-5
-1.325, 9.456e-5
-1.326, 9.609e-5
-1.327, 9.739e-5
-1.328, 9.877e-5
-1.329, 1.002e-4
-1.330, 1.014e-4
-1.331, 1.032e-4
-1.332, 1.046e-4
-1.333, 1.062e-4
-1.334, 1.076e-4
-1.335, 1.091e-4
-1.336, 1.106e-4
-1.337, 1.119e-4
-1.338, 1.142e-4
-1.339, 1.154e-4
-1.340, 1.171e-4
-1.341, 1.191e-4
-1.342, 1.205e-4
-1.343, 1.223e-4
-1.344, 1.241e-4
-1.345, 1.258e-4
-1.346, 1.281e-4
-1.347, 1.294e-4
-1.348, 1.316e-4
-1.349, 1.333e-4
-1.350, 1.352e-4
-1.351, 1.374e-4
-1.352, 1.390e-4
-1.353, 1.412e-4
-1.354, 1.434e-4
-1.355, 1.450e-4
-1.356, 1.477e-4
-1.357, 1.493e-4
-1.358, 1.517e-4
-1.359, 1.543e-4
-1.360, 1.560e-4
-1.361, 1.585e-4
-1.362, 1.607e-4
-1.363, 1.630e-4
-1.364, 1.654e-4
-1.365, 1.675e-4
-1.366, 1.702e-4
-1.367, 1.724e-4
-1.368, 1.749e-4
-1.369, 1.776e-4
-1.370, 1.799e-4
-1.371, 1.826e-4
-1.372, 1.851e-4
-1.373, 1.879e-4
-1.374, 1.905e-4
-1.375, 1.931e-4
-1.376, 1.961e-4
-1.377, 1.984e-4
-1.378, 2.014e-4
-1.379, 2.043e-4
-1.380, 2.071e-4
-1.381, 2.103e-4
-1.382, 2.131e-4
-1.383, 2.161e-4
-1.384, 2.190e-4
-1.385, 2.220e-4
-1.386, 2.253e-4
-1.387, 2.279e-4
-1.388, 2.314e-4
-1.389, 2.346e-4
-1.390, 2.374e-4
-1.391, 2.413e-4
-1.392, 2.440e-4
-1.393, 2.477e-4
-1.394, 2.512e-4
-1.395, 2.544e-4
-1.396, 2.584e-4
-1.397, 2.615e-4
-1.398, 2.652e-4
-1.399, 2.692e-4
-1.400, 2.721e-4
-1.401, 2.763e-4
-1.402, 2.800e-4
-1.403, 2.837e-4
-1.404, 2.880e-4
-1.405, 2.915e-4
-1.406, 2.957e-4
-1.407, 2.993e-4
-1.408, 3.035e-4
-1.409, 3.079e-4
-1.410, 3.118e-4
-1.411, 3.160e-4
-1.412, 3.203e-4
-1.413, 3.247e-4
-1.414, 3.287e-4
-1.415, 3.333e-4
-1.416, 3.378e-4
-1.417, 3.422e-4
-1.418, 3.470e-4
-1.419, 3.516e-4
-1.420, 3.562e-4
-1.421, 3.611e-4
-1.422, 3.657e-4
-1.423, 3.712e-4
-1.424, 3.757e-4
-1.425, 3.808e-4
-1.426, 3.863e-4
-1.427, 3.910e-4
-1.428, 3.966e-4
-1.429, 4.019e-4
-1.430, 4.069e-4
-1.431, 4.127e-4
-1.432, 4.176e-4
-1.433, 4.237e-4
-1.434, 4.295e-4
-1.435, 4.345e-4
-1.436, 4.408e-4
-1.437, 4.465e-4
-1.438, 4.528e-4
-1.439, 4.591e-4
-1.440, 4.650e-4
-1.441, 4.717e-4
-1.442, 4.778e-4
-1.443, 4.844e-4
-1.444, 4.910e-4
-1.445, 4.972e-4
-1.446, 5.049e-4
-1.447, 5.115e-4
-1.448, 5.184e-4
-1.449, 5.255e-4
-1.450, 5.323e-4
-1.451, 5.398e-4
-1.452, 5.466e-4
-1.453, 5.540e-4
-1.454, 5.620e-4
-1.455, 5.695e-4
-1.456, 5.771e-4
-1.457, 5.849e-4
-1.458, 5.930e-4
-1.459, 6.010e-4
-1.460, 6.088e-4
-1.461, 6.171e-4
-1.462, 6.252e-4
-1.463, 6.338e-4
-1.464, 6.422e-4
-1.465, 6.506e-4
-1.466, 6.598e-4
-1.467, 6.687e-4
-1.468, 6.776e-4
-1.469, 6.865e-4
-1.470, 6.955e-4
-1.471, 7.050e-4
-1.472, 7.142e-4
-1.473, 7.241e-4
-1.474, 7.336e-4
-1.475, 7.431e-4
-1.476, 7.533e-4
-1.477, 7.631e-4
-1.478, 7.734e-4
-1.479, 7.841e-4
-1.480, 7.941e-4
-1.481, 8.049e-4
-1.482, 8.155e-4
-1.483, 8.267e-4
-1.484, 8.378e-4
-1.485, 8.489e-4
-1.486, 8.602e-4
-1.487, 8.714e-4
-1.488, 8.830e-4
-1.489, 8.946e-4
-1.490, 9.063e-4
-1.491, 9.186e-4
-1.492, 9.304e-4
-1.493, 9.425e-4
-1.494, 9.544e-4
-1.495, 9.678e-4
-1.496, 9.802e-4
-1.497, 9.938e-4
-1.498, 1.007e-3
-1.499, 1.020e-3
-1.500, 1.033e-3
-1.501, 1.047e-3
-1.502, 1.060e-3
-1.503, 1.075e-3
-1.504, 1.089e-3
-1.505, 1.103e-3
-1.506, 1.118e-3
-1.507, 1.133e-3
-1.508, 1.148e-3
-1.509, 1.163e-3
-1.510, 1.178e-3
-1.511, 1.195e-3
-1.512, 1.209e-3
-1.513, 1.225e-3
-1.514, 1.242e-3
-1.515, 1.258e-3
-1.516, 1.275e-3
-1.517, 1.292e-3
-1.518, 1.309e-3
-1.519, 1.326e-3
-1.520, 1.343e-3
-1.521, 1.361e-3
-1.522, 1.380e-3
-1.523, 1.398e-3
-1.524, 1.417e-3
-1.525, 1.436e-3
-1.526, 1.456e-3
-1.527, 1.475e-3
-1.528, 1.495e-3
-1.529, 1.516e-3
-1.530, 1.536e-3
-1.531, 1.556e-3
-1.532, 1.577e-3
-1.533, 1.598e-3
-1.534, 1.620e-3
-1.535, 1.642e-3
-1.536, 1.664e-3
-1.537, 1.686e-3
-1.538, 1.709e-3
-1.539, 1.732e-3
-1.540, 1.755e-3
-1.541, 1.779e-3
-1.542, 1.803e-3
-1.543, 1.827e-3
-1.544, 1.850e-3
-1.545, 1.876e-3
-1.546, 1.901e-3
-1.547, 1.927e-3
-1.548, 1.952e-3
-1.549, 1.977e-3
-1.550, 2.003e-3
-1.551, 2.029e-3
-1.552, 2.056e-3
-1.553, 2.085e-3
-1.554, 2.113e-3
-1.555, 2.140e-3
-1.556, 2.169e-3
-1.557, 2.197e-3
-1.558, 2.226e-3
-1.559, 2.256e-3
-1.560, 2.286e-3
-1.561, 2.315e-3
-1.562, 2.345e-3
-1.563, 2.376e-3
-1.564, 2.407e-3
-1.565, 2.437e-3
-1.566, 2.468e-3
-1.567, 2.500e-3
-1.568, 2.532e-3
-1.569, 2.565e-3
-1.570, 2.599e-3
-1.571, 2.633e-3
-1.572, 2.668e-3
-1.573, 2.702e-3
-1.574, 2.736e-3
-1.575, 2.772e-3
-1.576, 2.805e-3
-1.577, 2.840e-3
-1.578, 2.877e-3
-1.579, 2.914e-3
-1.580, 2.952e-3
-1.581, 2.989e-3
-1.582, 3.025e-3
-1.583, 3.062e-3
-1.584, 3.100e-3
-1.585, 3.137e-3
-1.586, 3.176e-3
-1.587, 3.215e-3
-1.588, 3.256e-3
-1.589, 3.296e-3
-1.590, 3.338e-3
-1.591, 3.378e-3
-1.592, 3.420e-3
-1.593, 3.462e-3
-1.594, 3.505e-3
-1.595, 3.547e-3
-1.596, 3.590e-3
-1.597, 3.633e-3
-1.598, 3.678e-3
-1.599, 3.720e-3
-1.600, 3.763e-3
-1.601, 3.809e-3
-1.602, 3.855e-3
-1.603, 3.902e-3
-1.604, 3.947e-3
-1.605, 3.994e-3
-1.606, 4.041e-3
-1.607, 4.087e-3
-1.608, 4.133e-3
-1.609, 4.182e-3
-1.610, 4.231e-3
-1.611, 4.281e-3
-1.612, 4.328e-3
-1.613, 4.377e-3
-1.614, 4.428e-3
-1.615, 4.480e-3
-1.616, 4.530e-3
-1.617, 4.579e-3
-1.618, 4.631e-3
-1.619, 4.683e-3
-1.620, 4.735e-3
-1.621, 4.793e-3
-1.622, 4.846e-3
-1.623, 4.902e-3
-1.624, 4.957e-3
-1.625, 5.008e-3
-1.626, 5.064e-3
-1.627, 5.118e-3
-1.628, 5.173e-3
-1.629, 5.227e-3
-1.630, 5.286e-3
-1.631, 5.346e-3
-1.632, 5.405e-3
-1.633, 5.460e-3
-1.634, 5.520e-3
-1.635, 5.578e-3
-1.636, 5.639e-3
-1.637, 5.694e-3
-1.638, 5.756e-3
-1.639, 5.817e-3
-1.640, 5.877e-3
-1.641, 5.935e-3
-1.642, 5.996e-3
-1.643, 6.060e-3
-1.644, 6.120e-3
-1.645, 6.179e-3
-1.646, 6.242e-3
-1.647, 6.304e-3
-1.648, 6.368e-3
-1.649, 6.430e-3
-1.650, 6.489e-3
-1.651, 6.558e-3
-1.652, 6.620e-3
-1.653, 6.682e-3
-1.654, 6.750e-3
-1.655, 6.821e-3
-1.656, 6.887e-3
-1.657, 6.956e-3
-1.658, 7.022e-3
-1.659, 7.082e-3
-1.660, 7.145e-3
-1.661, 7.207e-3
-1.662, 7.270e-3
-1.663, 7.335e-3
-1.664, 7.400e-3
-1.665, 7.466e-3
-1.666, 7.536e-3
-1.667, 7.601e-3
-1.668, 7.671e-3
-1.669, 7.735e-3
-1.670, 7.801e-3
-1.671, 7.881e-3
-1.672, 7.946e-3
-1.673, 8.008e-3
-1.674, 8.074e-3
-1.675, 8.140e-3
-1.676, 8.209e-3
-1.677, 8.267e-3
-1.678, 8.326e-3
-1.679, 8.396e-3
-1.680, 8.464e-3
-1.681, 8.529e-3
-1.682, 8.595e-3
-1.683, 8.663e-3
-1.684, 8.736e-3
-1.685, 8.802e-3
-1.686, 8.874e-3
-1.687, 8.944e-3
-1.688, 9.013e-3
-1.689, 9.079e-3
-1.690, 9.147e-3
-1.691, 9.210e-3
-1.692, 9.274e-3
-1.693, 9.339e-3
-1.694, 9.403e-3
-1.695, 9.474e-3
-1.696, 9.529e-3
-1.697, 9.589e-3
-1.698, 9.649e-3
-1.699, 9.714e-3
-1.700, 9.701e-3
-1.699, 9.619e-3
-1.698, 9.548e-3
-1.697, 9.478e-3
-1.696, 9.397e-3
-1.695, 9.311e-3
-1.694, 9.226e-3
-1.693, 9.145e-3
-1.692, 9.064e-3
-1.691, 8.974e-3
-1.690, 8.901e-3
-1.689, 8.825e-3
-1.688, 8.760e-3
-1.687, 8.678e-3
-1.686, 8.587e-3
-1.685, 8.505e-3
-1.684, 8.428e-3
-1.683, 8.360e-3
-1.682, 8.274e-3
-1.681, 8.198e-3
-1.680, 8.116e-3
-1.679, 8.040e-3
-1.678, 7.972e-3
-1.677, 7.898e-3
-1.676, 7.828e-3
-1.675, 7.765e-3
-1.674, 7.691e-3
-1.673, 7.623e-3
-1.672, 7.552e-3
-1.671, 7.484e-3
-1.670, 7.411e-3
-1.669, 7.336e-3
-1.668, 7.283e-3
-1.667, 7.212e-3
-1.666, 7.148e-3
-1.665, 7.082e-3
-1.664, 7.031e-3
-1.663, 6.960e-3
-1.662, 6.894e-3
-1.661, 6.826e-3
-1.660, 6.759e-3
-1.659, 6.693e-3
-1.658, 6.626e-3
-1.657, 6.570e-3
-1.656, 6.508e-3
-1.655, 6.441e-3
-1.654, 6.380e-3
-1.653, 6.329e-3
-1.652, 6.270e-3
-1.651, 6.207e-3
-1.650, 6.142e-3
-1.649, 6.085e-3
-1.648, 6.025e-3
-1.647, 5.965e-3
-1.646, 5.902e-3
-1.645, 5.848e-3
-1.644, 5.789e-3
-1.643, 5.738e-3
-1.642, 5.691e-3
-1.641, 5.637e-3
-1.640, 5.583e-3
-1.639, 5.529e-3
-1.638, 5.467e-3
-1.637, 5.420e-3
-1.636, 5.366e-3
-1.635, 5.313e-3
-1.634, 5.255e-3
-1.633, 5.197e-3
-1.632, 5.153e-3
-1.631, 5.103e-3
-1.630, 5.047e-3
-1.629, 4.995e-3
-1.628, 4.960e-3
-1.627, 4.928e-3
-1.626, 4.868e-3
-1.625, 4.813e-3
-1.624, 4.761e-3
-1.623, 4.708e-3
-1.622, 4.658e-3
-1.621, 4.622e-3
-1.620, 4.561e-3
-1.619, 4.509e-3
-1.618, 4.461e-3
-1.617, 4.415e-3
-1.616, 4.372e-3
-1.615, 4.320e-3
-1.614, 4.276e-3
-1.613, 4.227e-3
-1.612, 4.183e-3
-1.611, 4.135e-3
-1.610, 4.091e-3
-1.609, 4.045e-3
-1.608, 4.009e-3
-1.607, 3.956e-3
-1.606, 3.911e-3
-1.605, 3.868e-3
-1.604, 3.826e-3
-1.603, 3.784e-3
-1.602, 3.742e-3
-1.601, 3.702e-3
-1.600, 3.667e-3
-1.599, 3.621e-3
-1.598, 3.581e-3
-1.597, 3.545e-3
-1.596, 3.507e-3
-1.595, 3.472e-3
-1.594, 3.430e-3
-1.593, 3.389e-3
-1.592, 3.351e-3
-1.591, 3.313e-3
-1.590, 3.270e-3
-1.589, 3.234e-3
-1.588, 3.197e-3
-1.587, 3.160e-3
-1.586, 3.124e-3
-1.585, 3.088e-3
-1.584, 3.050e-3
-1.583, 3.030e-3
-1.582, 2.991e-3
-1.581, 2.953e-3
-1.580, 2.918e-3
-1.579, 2.888e-3
-1.578, 2.854e-3
-1.577, 2.818e-3
-1.576, 2.784e-3
-1.575, 2.750e-3
-1.574, 2.715e-3
-1.573, 2.681e-3
-1.572, 2.652e-3
-1.571, 2.626e-3
-1.570, 2.593e-3
-1.569, 2.562e-3
-1.568, 2.528e-3
-1.567, 2.495e-3
-1.566, 2.464e-3
-1.565, 2.435e-3
-1.564, 2.405e-3
-1.563, 2.375e-3
-1.562, 2.346e-3
-1.561, 2.315e-3
-1.560, 2.286e-3
-1.559, 2.259e-3
-1.558, 2.231e-3
-1.557, 2.203e-3
-1.556, 2.174e-3
-1.555, 2.147e-3
-1.554, 2.121e-3
-1.553, 2.096e-3
-1.552, 2.066e-3
-1.551, 2.038e-3
-1.550, 2.011e-3
-1.549, 1.986e-3
-1.548, 1.960e-3
-1.547, 1.934e-3
-1.546, 1.909e-3
-1.545, 1.884e-3
-1.544, 1.861e-3
-1.543, 1.834e-3
-1.542, 1.809e-3
-1.541, 1.787e-3
-1.540, 1.760e-3
-1.539, 1.737e-3
-1.538, 1.714e-3
-1.537, 1.692e-3
-1.536, 1.670e-3
-1.535, 1.647e-3
-1.534, 1.624e-3
-1.533, 1.605e-3
-1.532, 1.584e-3
-1.531, 1.561e-3
-1.530, 1.538e-3
-1.529, 1.519e-3
-1.528, 1.497e-3
-1.527, 1.476e-3
-1.526, 1.456e-3
-1.525, 1.435e-3
-1.524, 1.415e-3
-1.523, 1.395e-3
-1.522, 1.376e-3
-1.521, 1.356e-3
-1.520, 1.337e-3
-1.519, 1.318e-3
-1.518, 1.307e-3
-1.517, 1.285e-3
-1.516, 1.265e-3
-1.515, 1.247e-3
-1.514, 1.230e-3
-1.513, 1.213e-3
-1.512, 1.199e-3
-1.511, 1.183e-3
-1.510, 1.166e-3
-1.509, 1.149e-3
-1.508, 1.133e-3
-1.507, 1.116e-3
-1.506, 1.103e-3
-1.505, 1.084e-3
-1.504, 1.069e-3
-1.503, 1.053e-3
-1.502, 1.038e-3
-1.501, 1.023e-3
-1.500, 1.008e-3
-1.499, 9.938e-4
-1.498, 9.813e-4
-1.497, 9.652e-4
-1.496, 9.503e-4
-1.495, 9.368e-4
-1.494, 9.226e-4
-1.493, 9.089e-4
-1.492, 8.946e-4
-1.491, 8.819e-4
-1.490, 8.702e-4
-1.489, 8.560e-4
-1.488, 8.434e-4
-1.487, 8.304e-4
-1.486, 8.177e-4
-1.485, 8.047e-4
-1.484, 7.932e-4
-1.483, 7.813e-4
-1.482, 7.703e-4
-1.481, 7.602e-4
-1.480, 7.465e-4
-1.479, 7.353e-4
-1.478, 7.243e-4
-1.477, 7.132e-4
-1.476, 7.022e-4
-1.475, 6.909e-4
-1.474, 6.809e-4
-1.473, 6.701e-4
-1.472, 6.596e-4
-1.471, 6.494e-4
-1.470, 6.393e-4
-1.469, 6.296e-4
-1.468, 6.198e-4
-1.467, 6.112e-4
-1.466, 6.026e-4
-1.465, 5.910e-4
-1.464, 5.829e-4
-1.463, 5.748e-4
-1.462, 5.652e-4
-1.461, 5.557e-4
-1.460, 5.467e-4
-1.459, 5.383e-4
-1.458, 5.301e-4
-1.457, 5.221e-4
-1.456, 5.142e-4
-1.455, 5.059e-4
-1.454, 4.976e-4
-1.453, 4.904e-4
-1.452, 4.826e-4
-1.451, 4.752e-4
-1.450, 4.673e-4
-1.449, 4.600e-4
-1.448, 4.530e-4
-1.447, 4.457e-4
-1.446, 4.386e-4
-1.445, 4.320e-4
-1.444, 4.255e-4
-1.443, 4.207e-4
-1.442, 4.159e-4
-1.441, 4.063e-4
-1.440, 3.997e-4
-1.439, 3.938e-4
-1.438, 3.873e-4
-1.437, 3.814e-4
-1.436, 3.766e-4
-1.435, 3.704e-4
-1.434, 3.639e-4
-1.433, 3.584e-4
-1.432, 3.532e-4
-1.431, 3.479e-4
-1.430, 3.417e-4
-1.429, 3.366e-4
-1.428, 3.313e-4
-1.427, 3.259e-4
-1.426, 3.211e-4
-1.425, 3.154e-4
-1.424, 3.108e-4
-1.423, 3.056e-4
-1.422, 3.006e-4
-1.421, 2.963e-4
-1.420, 2.911e-4
-1.419, 2.866e-4
-1.418, 2.823e-4
-1.417, 2.772e-4
-1.416, 2.734e-4
-1.415, 2.686e-4
-1.414, 2.645e-4
-1.413, 2.602e-4
-1.412, 2.559e-4
-1.411, 2.519e-4
-1.410, 2.475e-4
-1.409, 2.438e-4
-1.408, 2.403e-4
-1.407, 2.360e-4
-1.406, 2.320e-4
-1.405, 2.283e-4
-1.404, 2.245e-4
-1.403, 2.209e-4
-1.402, 2.174e-4
-1.401, 2.134e-4
-1.400, 2.097e-4
-1.399, 2.066e-4
-1.398, 2.029e-4
-1.397, 1.997e-4
-1.396, 1.964e-4
-1.395, 1.925e-4
-1.394, 1.897e-4
-1.393, 1.860e-4
-1.392, 1.831e-4
-1.391, 1.799e-4
-1.390, 1.762e-4
-1.389, 1.736e-4
-1.388, 1.703e-4
-1.387, 1.671e-4
-1.386, 1.643e-4
-1.385, 1.608e-4
-1.384, 1.582e-4
-1.383, 1.551e-4
-1.382, 1.517e-4
-1.381, 1.493e-4
-1.380, 1.461e-4
-1.379, 1.435e-4
-1.378, 1.410e-4
-1.377, 1.377e-4
-1.376, 1.356e-4
-1.375, 1.325e-4
-1.374, 1.302e-4
-1.373, 1.277e-4
-1.372, 1.250e-4
-1.371, 1.224e-4
-1.370, 1.197e-4
-1.369, 1.173e-4
-1.368, 1.153e-4
-1.367, 1.126e-4
-1.366, 1.104e-4
-1.365, 1.079e-4
-1.364, 1.058e-4
-1.363, 1.035e-4
-1.362, 1.014e-4
-1.361, 9.918e-5
-1.360, 9.678e-5
-1.359, 9.470e-5
-1.358, 9.239e-5
-1.357, 9.027e-5
-1.356, 8.843e-5
-1.355, 8.586e-5
-1.354, 8.426e-5
-1.353, 8.197e-5
-1.352, 8.001e-5
-1.351, 7.839e-5
-1.350, 7.586e-5
-1.349, 7.420e-5
-1.348, 7.260e-5
-1.347, 7.027e-5
-1.346, 6.899e-5
-1.345, 6.669e-5
-1.344, 6.590e-5
-1.343, 6.358e-5
-1.342, 6.140e-5
-1.341, 6.063e-5
-1.340, 5.869e-5
-1.339, 5.722e-5
-1.338, 5.583e-5
-1.337, 5.386e-5
-1.336, 5.293e-5
-1.335, 5.098e-5
-1.334, 4.942e-5
-1.333, 4.861e-5
-1.332, 4.651e-5
-1.331, 4.530e-5
-1.330, 4.373e-5
-1.329, 4.223e-5
-1.328, 4.123e-5
-1.327, 3.956e-5
-1.326, 3.837e-5
-1.325, 3.690e-5
-1.324, 3.571e-5
-1.323, 3.434e-5
-1.322, 3.310e-5
-1.321, 3.187e-5
-1.320, 3.079e-5
-1.319, 2.950e-5
-1.318, 2.838e-5
-1.317, 2.695e-5
-1.316, 2.614e-5
-1.315, 2.453e-5
-1.314, 2.371e-5
-1.313, 2.257e-5
-1.312, 2.151e-5
-1.311, 2.050e-5
-1.310, 1.910e-5
-1.309, 1.837e-5
-1.308, 1.751e-5
-1.307, 1.611e-5
-1.306, 1.553e-5
-1.305, 1.426e-5
-1.304, 1.362e-5
-1.303, 1.285e-5
-1.302, 1.133e-5
-1.301, 1.101e-5
-1.300, 9.844e-6
-1.299, 9.114e-6
-1.298, 8.414e-6
-1.297, 7.269e-6
-1.296, 6.954e-6
-1.295, 5.858e-6
-1.294, 5.257e-6
-1.293, 4.605e-6
-1.292, 3.481e-6
-1.291, 3.185e-6
-1.290, 2.238e-6
-1.289, 1.369e-6
-1.288, 1.241e-6
-1.287, 1.362e-7
-1.286, -3.275e-7
-1.285, -1.137e-6
-1.284, -1.758e-6
-1.283, -2.350e-6
-1.282, -3.001e-6
-1.281, -3.633e-6
-1.280, -4.639e-6
-1.279, -4.669e-6
-1.278, -5.448e-6
-1.277, -6.060e-6
-1.276, -6.454e-6
-1.275, -7.313e-6
-1.274, -7.392e-6
-1.273, -8.072e-6
-1.272, -8.783e-6
-1.271, -9.000e-6
-1.270, -9.809e-6
-1.269, -9.967e-6
-1.268, -1.036e-5
-1.267, -1.144e-5
-1.266, -1.139e-5
-1.265, -1.219e-5
-1.264, -1.227e-5
-1.263, -1.262e-5
-1.262, -1.365e-5
-1.261, -1.362e-5
-1.260, -1.406e-5
-1.259, -1.467e-5
-1.258, -1.468e-5
-1.257, -1.547e-5
-1.256, -1.556e-5
-1.255, -1.617e-5
-1.254, -1.661e-5
-1.253, -1.687e-5
-1.252, -1.756e-5
-1.251, -1.752e-5
-1.250, -1.780e-5
-1.249, -1.849e-5
-1.248, -1.841e-5
-1.247, -1.905e-5
-1.246, -1.919e-5
-1.245, -1.955e-5
-1.244, -1.995e-5
-1.243, -1.997e-5
-1.242, -2.057e-5
-1.241, -2.079e-5
-1.240, -2.102e-5
-1.239, -2.122e-5
-1.238, -2.155e-5
-1.237, -2.195e-5
-1.236, -2.185e-5
-1.235, -2.251e-5
-1.234, -2.249e-5
-1.233, -2.294e-5
-1.232, -2.330e-5
-1.231, -2.308e-5
-1.230, -2.374e-5
-1.229, -2.433e-5
-1.228, -2.424e-5
-1.227, -2.451e-5
-1.226, -2.443e-5
-1.225, -2.497e-5
-1.224, -2.493e-5
-1.223, -2.481e-5
-1.222, -2.590e-5
-1.221, -2.546e-5
-1.220, -2.583e-5
-1.219, -2.606e-5
-1.218, -2.591e-5
-1.217, -2.675e-5
-1.216, -2.618e-5
-1.215, -2.676e-5
-1.214, -2.694e-5
-1.213, -2.685e-5
-1.212, -2.747e-5
-1.211, -2.732e-5
-1.210, -2.751e-5
-1.209, -2.771e-5
-1.208, -2.755e-5
-1.207, -2.799e-5
-1.206, -2.823e-5
-1.205, -2.816e-5
-1.204, -2.848e-5
-1.203, -2.846e-5
-1.202, -2.899e-5
-1.201, -2.900e-5
-1.200, -2.900e-5
-1.199, -2.897e-5
-1.198, -2.930e-5
-1.197, -2.944e-5
-1.196, -2.944e-5
-1.195, -2.968e-5
-1.194, -2.965e-5
-1.193, -2.982e-5
-1.192, -3.001e-5
-1.191, -3.013e-5
-1.190, -3.092e-5
-1.189, -3.024e-5
-1.188, -3.069e-5
-1.187, -3.095e-5
-1.186, -3.059e-5
-1.185, -3.107e-5
-1.184, -3.084e-5
-1.183, -3.098e-5
-1.182, -3.134e-5
-1.181, -3.114e-5
-1.180, -3.147e-5
-1.179, -3.154e-5
-1.178, -3.161e-5
-1.177, -3.191e-5
-1.176, -3.144e-5
-1.175, -3.180e-5
-1.174, -3.206e-5
-1.173, -3.174e-5
-1.172, -3.226e-5
-1.171, -3.202e-5
-1.170, -3.225e-5
-1.169, -3.254e-5
-1.168, -3.219e-5
-1.167, -3.249e-5
-1.166, -3.252e-5
-1.165, -3.271e-5
-1.164, -3.292e-5
-1.163, -3.271e-5
-1.162, -3.313e-5
-1.161, -3.290e-5
-1.160, -3.312e-5
-1.159, -3.308e-5
-1.158, -3.328e-5
-1.157, -3.326e-5
-1.156, -3.322e-5
-1.155, -3.361e-5
-1.154, -3.349e-5
-1.153, -3.353e-5
-1.152, -3.390e-5
-1.151, -3.360e-5
-1.150, -3.386e-5
-1.149, -3.347e-5
-1.148, -3.369e-5
-1.147, -3.433e-5
-1.146, -3.380e-5
-1.145, -3.437e-5
-1.144, -3.414e-5
-1.143, -3.395e-5
-1.142, -3.452e-5
-1.141, -3.407e-5
-1.140, -3.438e-5
-1.139, -3.462e-5
-1.138, -3.428e-5
-1.137, -3.486e-5
-1.136, -3.461e-5
-1.135, -3.478e-5
-1.134, -3.493e-5
-1.133, -3.458e-5
-1.132, -3.501e-5
-1.131, -3.500e-5
-1.130, -3.509e-5
-1.129, -3.511e-5
-1.128, -3.486e-5
-1.127, -3.511e-5
-1.126, -3.527e-5
-1.125, -3.555e-5
-1.124, -3.538e-5
-1.123, -3.557e-5
-1.122, -3.555e-5
-1.121, -3.574e-5
-1.120, -3.558e-5
-1.119, -3.561e-5
-1.118, -3.583e-5
-1.117, -3.594e-5
-1.116, -3.566e-5
-1.115, -3.616e-5
-1.114, -3.599e-5
-1.113, -3.620e-5
-1.112, -3.624e-5
-1.111, -3.612e-5
-1.110, -3.668e-5
-1.109, -3.646e-5
-1.108, -3.644e-5
-1.107, -3.692e-5
-1.106, -3.628e-5
-1.105, -3.708e-5
-1.104, -3.656e-5
-1.103, -3.669e-5
-1.102, -3.715e-5
-1.101, -3.707e-5
-1.100, -3.725e-5
-1.099, -3.719e-5
-1.098, -3.703e-5
-1.097, -3.757e-5
-1.096, -3.703e-5
-1.095, -3.761e-5
-1.094, -3.759e-5
-1.093, -3.732e-5
-1.092, -3.792e-5
-1.091, -3.768e-5
-1.090, -3.785e-5
-1.089, -3.809e-5
-1.088, -3.794e-5
-1.087, -3.820e-5
-1.086, -3.810e-5
-1.085, -3.846e-5
-1.084, -3.843e-5
-1.083, -3.820e-5
-1.082, -3.859e-5
-1.081, -3.857e-5
-1.080, -3.860e-5
-1.079, -3.867e-5
-1.078, -3.867e-5
-1.077, -3.902e-5
-1.076, -3.911e-5
-1.075, -3.946e-5
-1.074, -3.925e-5
-1.073, -3.926e-5
-1.072, -3.954e-5
-1.071, -3.923e-5
-1.070, -3.962e-5
-1.069, -3.951e-5
-1.068, -3.955e-5
-1.067, -3.994e-5
-1.066, -3.970e-5
-1.065, -4.006e-5
-1.064, -3.985e-5
-1.063, -3.999e-5
-1.062, -4.065e-5
-1.061, -4.020e-5
-1.060, -4.038e-5
-1.059, -4.060e-5
-1.058, -4.042e-5
-1.057, -4.105e-5
-1.056, -4.056e-5
-1.055, -4.092e-5
-1.054, -4.123e-5
-1.053, -4.091e-5
-1.052, -4.123e-5
-1.051, -4.134e-5
-1.050, -4.139e-5
-1.049, -4.175e-5
-1.048, -4.128e-5
-1.047, -4.205e-5
-1.046, -4.178e-5
-1.045, -4.192e-5
-1.044, -4.217e-5
-1.043, -4.224e-5
-1.042, -4.246e-5
-1.041, -4.228e-5
-1.040, -4.246e-5
-1.039, -4.259e-5
-1.038, -4.253e-5
-1.037, -4.311e-5
-1.036, -4.286e-5
-1.035, -4.328e-5
-1.034, -4.327e-5
-1.033, -4.333e-5
-1.032, -4.354e-5
-1.031, -4.346e-5
-1.030, -4.398e-5
-1.029, -4.392e-5
-1.028, -4.383e-5
-1.027, -4.448e-5
-1.026, -4.408e-5
-1.025, -4.451e-5
-1.024, -4.471e-5
-1.023, -4.464e-5
-1.022, -4.523e-5
-1.021, -4.492e-5
-1.020, -4.509e-5
-1.019, -4.552e-5
-1.018, -4.532e-5
-1.017, -4.587e-5
-1.016, -4.552e-5
-1.015, -4.575e-5
-1.014, -4.606e-5
-1.013, -4.601e-5
-1.012, -4.643e-5
-1.011, -4.651e-5
-1.010, -4.677e-5
-1.009, -4.701e-5
-1.008, -4.666e-5
-1.007, -4.721e-5
-1.006, -4.732e-5
-1.005, -4.736e-5
-1.004, -4.750e-5
-1.003, -4.761e-5
-1.002, -4.798e-5
-1.001, -4.800e-5
