Potential V vs RHE, Current mA cm-2
0.05339999999999995,-0.09707748939673881
0.05239999999999995,-0.10014741291744596
0.051399999999999946,-0.10118015216634743
0.050399999999999945,-0.10180262513828804
0.049399999999999944,-0.1022977740932408
0.04839999999999994,-0.10277877593519492
0.04739999999999994,-0.10334466045514094
0.04639999999999994,-0.10378322095809908
0.04539999999999994,-0.10402372187907614
0.04439999999999994,-0.10437739970404242
0.04339999999999994,-0.10464619485101677
0.04239999999999994,-0.10508475535397492
0.04139999999999994,-0.10548087451793714
0.040399999999999936,-0.10604675903788315
0.039399999999999935,-0.10635799552385346
0.038399999999999934,-0.10669752623582107
0.03739999999999993,-0.10695217426979677
0.03639999999999993,-0.10729170498176437
0.03539999999999993,-0.107631235693732
0.03439999999999993,-0.10794247217970229
0.03339999999999993,-0.10833859134366451
0.03239999999999993,-0.10877715184662266
0.03139999999999993,-0.10914497678458758
0.030399999999999927,-0.10944206615755923
0.029399999999999926,-0.1097391555305309
0.028399999999999925,-0.1101069804684958
0.027399999999999924,-0.11040406984146747
0.026399999999999924,-0.11072945344043642
0.025399999999999923,-0.11104068992640674
0.024399999999999922,-0.11132363218637975
0.02339999999999992,-0.11187536959332708
0.02239999999999992,-0.11237051854827985
0.02139999999999992,-0.11265346080825286
0.020399999999999918,-0.11297884440722182
0.019399999999999917,-0.11337496357118404
0.018399999999999916,-0.1136720529441557
0.017399999999999916,-0.11401158365612331
0.016399999999999915,-0.11433696725509226
0.015399999999999914,-0.11480382198404772
0.014399999999999913,-0.11501602867902748
0.013399999999999912,-0.1154687362949843
0.012399999999999911,-0.11585070834594786
0.01139999999999991,-0.11627512173590737
0.01039999999999991,-0.11658635822187767
0.009399999999999908,-0.11689759470784798
0.008399999999999908,-0.1171522427418237
0.007399999999999907,-0.11764739169677645
0.006399999999999906,-0.11787374550475484
0.005399999999999905,-0.11821327621672245
0.004399999999999904,-0.11849621847669549
0.003399999999999903,-0.11872257228467388
0.002399999999999902,-0.11951481061259829
0.0013999999999999013,-0.12015143069753757
0.00039999999999990044,-0.12009484224554295
-0.0006000000000001005,-0.12043437295751057
-0.0016000000000001013,-0.12071731521748358
-0.0026000000000001022,-0.12129734685042824
-0.003600000000000103,-0.12152370065840666
-0.004600000000000104,-0.12194811404836617
-0.005600000000000105,-0.1222169091953405
-0.006600000000000106,-0.12258473413330541
-0.007600000000000107,-0.12299500041026629
-0.008600000000000108,-0.12336282534823118
-0.009600000000000108,-0.12371650317319745
-0.01060000000000011,-0.12408432811116238
-0.01160000000000011,-0.12446630016212593
-0.012600000000000111,-0.12500389045607466
-0.013600000000000112,-0.1251595086990598
-0.014600000000000113,-0.12554148075002336
-0.015600000000000114,-0.12579612878399907
-0.016600000000000115,-0.12624883639995585
-0.017600000000000116,-0.12668739690291403
-0.018600000000000116,-0.1271542516318695
-0.019600000000000117,-0.127295722761856
-0.020600000000000118,-0.1276352534738236
-0.02160000000000012,-0.1280030784117885
-0.02260000000000012,-0.12848408025374264
-0.02360000000000012,-0.1289226407567008
-0.024600000000000122,-0.12920558301667381
-0.025600000000000123,-0.12953096661564276
-0.026600000000000124,-0.1299978213445982
-0.027600000000000124,-0.13037979339556177
-0.028600000000000125,-0.13062029431653882
-0.029600000000000126,-0.1311720317234862
-0.030600000000000127,-0.13189353448641736
-0.03160000000000013,-0.1320491527294025
-0.03260000000000013,-0.1323462421023742
-0.03360000000000013,-0.13265747858834448
-0.03460000000000002,-0.1329404208483175
-0.03560000000000002,-0.1331667746562959
-0.03660000000000002,-0.1335345995942608
-0.03760000000000002,-0.13407218988820951
-0.03860000000000002,-0.13434098503518388
-0.039600000000000024,-0.1345956330691596
-0.040600000000000025,-0.13494931089412582
-0.041600000000000026,-0.13534543005808805
-0.04260000000000003,-0.13576984344804757
-0.04360000000000003,-0.1361659626120098
-0.04460000000000003,-0.13643475775898414
-0.04560000000000003,-0.1367318471319558
-0.04660000000000003,-0.1369864951659315
-0.04760000000000003,-0.137410908555891
-0.04860000000000003,-0.13783532194585052
-0.04960000000000003,-0.13810411709282489
-0.050600000000000034,-0.13834461801380196
-0.051600000000000035,-0.1387265900647655
-0.052600000000000036,-0.139151003454725
-0.053600000000000037,-0.1394622399406953
-0.05460000000000004,-0.13967444663567508
-0.05560000000000004,-0.1399432417826494
-0.05660000000000004,-0.1402261840426224
-0.05760000000000004,-0.1404949791895968
-0.05860000000000004,-0.1410042752575482
-0.05960000000000004,-0.14121648195252795
-0.06060000000000004,-0.14161260111649018
-0.061600000000000044,-0.14175407224647668
-0.06260000000000004,-0.1421784856364362
-0.06360000000000005,-0.1424614278964092
-0.06460000000000005,-0.1427443701563822
-0.06560000000000005,-0.1428858412863687
-0.06660000000000005,-0.14316878354634172
-0.06760000000000005,-0.1434517258063147
-0.06860000000000005,-0.1437346680662877
-0.06960000000000005,-0.14387613919627423
-0.07060000000000005,-0.14415908145624726
-0.07160000000000005,-0.14444202371622025
-0.07260000000000005,-0.14486643710617977
-0.07360000000000005,-0.14500790823616627
-0.07460000000000006,-0.14514937936615277
-0.07560000000000006,-0.14543232162612577
-0.07660000000000006,-0.14571526388609876
-0.07760000000000006,-0.14599820614607179
-0.07860000000000006,-0.14628114840604478
-0.07960000000000006,-0.14642261953603128
-0.08060000000000006,-0.1467055617960043
-0.08160000000000006,-0.14684703292599083
-0.08260000000000006,-0.14712997518596382
-0.08360000000000006,-0.14755438857592332
-0.08460000000000006,-0.14755438857592332
-0.08560000000000006,-0.14783733083589634
-0.08660000000000007,-0.14797880196588284
-0.08760000000000007,-0.14826174422585583
-0.08860000000000007,-0.14854468648582883
-0.08960000000000007,-0.14854468648582883
-0.09060000000000007,-0.14868615761581536
-0.09160000000000007,-0.14896909987578838
-0.09260000000000007,-0.14911057100577488
-0.09360000000000007,-0.14939351326574787
-0.09460000000000007,-0.14953498439573437
-0.09560000000000007,-0.1496764555257209
-0.09660000000000007,-0.1499593977856939
-0.09760000000000008,-0.1499593977856939
-0.09860000000000008,-0.1502423400456669
-0.09960000000000008,-0.1503838111756534
-0.10060000000000008,-0.15052528230563988
-0.10160000000000008,-0.1506667534356264
-0.10260000000000008,-0.1508082245656129
-0.10360000000000008,-0.1509496956955994
-0.10460000000000008,-0.1510911668255859
-0.10560000000000008,-0.1512326379555724
-0.10660000000000008,-0.1513741090855589
-0.10760000000000008,-0.15151558021554543
-0.10860000000000009,-0.15165705134553195
-0.10960000000000009,-0.15165705134553195
-0.11060000000000009,-0.15179852247551845
-0.11160000000000009,-0.15179852247551845
-0.11260000000000009,-0.15208146473549145
-0.11360000000000009,-0.15222293586547794
-0.11460000000000009,-0.15236440699546444
-0.11560000000000009,-0.15236440699546444
-0.11660000000000009,-0.15250587812545094
-0.1176000000000001,-0.15264734925543746
-0.1186000000000001,-0.15264734925543746
-0.1196000000000001,-0.15278882038542396
-0.1206000000000001,-0.15278882038542396
-0.1216000000000001,-0.15293029151541046
-0.1226000000000001,-0.15293029151541046
-0.1236000000000001,-0.15307176264539696
-0.1246000000000001,-0.15307176264539696
-0.1256000000000001,-0.15321323377538346
-0.1266000000000001,-0.15321323377538346
-0.1276000000000001,-0.15335470490536995
-0.1286000000000001,-0.15335470490536995
-0.1296000000000001,-0.15349617603535648
-0.1306000000000001,-0.15363764716534298
-0.1316000000000001,-0.15363764716534298
-0.1326000000000001,-0.15363764716534298
-0.1336000000000001,-0.15392058942531597
-0.1346000000000001,-0.15392058942531597
-0.1356000000000001,-0.15392058942531597
-0.1366000000000001,-0.1540620605553025
-0.1376000000000001,-0.1540620605553025
-0.1386000000000001,-0.1540620605553025
-0.1396000000000001,-0.1540620605553025
-0.1406000000000001,-0.154203531685289
-0.14160000000000011,-0.154203531685289
-0.14260000000000012,-0.1543450028152755
-0.14360000000000012,-0.15448647394526202
-0.14460000000000012,-0.15462794507524852
-0.14560000000000012,-0.15476941620523502
-0.14660000000000012,-0.15491088733522151
-0.14760000000000012,-0.155052358465208
-0.14860000000000012,-0.155052358465208
-0.14960000000000012,-0.15491088733522151
-0.15060000000000012,-0.155052358465208
-0.15160000000000012,-0.1551938295951945
-0.15260000000000012,-0.155052358465208
-0.15360000000000013,-0.1551938295951945
-0.15460000000000013,-0.15547677185516753
-0.15560000000000013,-0.15547677185516753
-0.15660000000000013,-0.15547677185516753
-0.15760000000000013,-0.1551938295951945
-0.15860000000000013,-0.155052358465208
-0.15960000000000002,-0.15491088733522151
-0.16060000000000002,-0.155052358465208
-0.16160000000000002,-0.155052358465208
-0.16260000000000002,-0.1551938295951945
-0.16360000000000002,-0.1551938295951945
-0.16460000000000002,-0.155052358465208
-0.16560000000000002,-0.1551938295951945
-0.16660000000000003,-0.1551938295951945
-0.16760000000000003,-0.155335300725181
-0.16860000000000003,-0.15575971411514053
-0.16960000000000003,-0.15632559863508652
-0.17060000000000003,-0.16113561705462764
-0.17160000000000003,-0.16396503965435774
-0.17260000000000003,-0.1628332706144657
-0.17360000000000003,-0.16071120366466815
-0.17460000000000003,-0.15943796349478964
-0.17560000000000003,-0.15915502123481662
-0.17660000000000003,-0.15915502123481662
-0.17760000000000004,-0.15774030993495158
-0.17860000000000004,-0.15788178106493808
-0.17960000000000004,-0.15759883880496509
-0.18060000000000004,-0.15731589654499206
-0.18160000000000004,-0.15703295428501907
-0.18260000000000004,-0.15717442541500556
-0.18360000000000004,-0.15717442541500556
-0.18460000000000004,-0.15731589654499206
-0.18560000000000004,-0.15717442541500556
-0.18660000000000004,-0.15689148315503257
-0.18760000000000004,-0.15689148315503257
-0.18860000000000005,-0.15703295428501907
-0.18960000000000005,-0.15689148315503257
-0.19060000000000005,-0.15660854089505957
-0.19160000000000005,-0.15660854089505957
-0.19260000000000005,-0.15703295428501907
-0.19360000000000005,-0.15703295428501907
-0.19460000000000005,-0.15703295428501907
-0.19560000000000005,-0.15703295428501907
-0.19660000000000005,-0.15689148315503257
-0.19760000000000005,-0.15689148315503257
-0.19860000000000005,-0.15675001202504607
-0.19960000000000006,-0.15660854089505957
-0.20060000000000006,-0.15660854089505957
-0.20160000000000006,-0.15660854089505957
-0.20260000000000006,-0.15689148315503257
-0.20360000000000006,-0.15703295428501907
-0.20460000000000006,-0.15689148315503257
-0.20560000000000006,-0.15689148315503257
-0.20660000000000006,-0.15689148315503257
-0.20760000000000006,-0.15689148315503257
-0.20860000000000006,-0.15675001202504607
-0.20960000000000006,-0.15689148315503257
-0.21060000000000006,-0.15703295428501907
-0.21160000000000007,-0.15703295428501907
-0.21260000000000007,-0.15689148315503257
-0.21360000000000007,-0.15717442541500556
-0.21460000000000007,-0.15731589654499206
-0.21560000000000007,-0.15759883880496509
-0.21660000000000007,-0.15802325219492458
-0.21760000000000007,-0.15788178106493808
-0.21860000000000007,-0.15788178106493808
-0.21960000000000007,-0.15774030993495158
-0.22060000000000007,-0.15788178106493808
-0.22160000000000007,-0.1583061944548976
-0.22260000000000008,-0.1585891367148706
-0.22360000000000008,-0.1587306078448571
-0.22460000000000008,-0.1585891367148706
-0.22560000000000008,-0.1584476655848841
-0.22660000000000008,-0.1587306078448571
-0.22760000000000008,-0.1588720789748436
-0.22860000000000008,-0.1588720789748436
-0.22960000000000008,-0.1588720789748436
-0.23060000000000008,-0.15929649236480314
-0.23160000000000008,-0.15929649236480314
-0.23260000000000008,-0.15929649236480314
-0.23360000000000009,-0.15929649236480314
-0.2346000000000001,-0.15943796349478964
-0.2356000000000001,-0.15943796349478964
-0.2366000000000001,-0.15957943462477614
-0.2376000000000001,-0.15972090575476264
-0.2386000000000001,-0.15957943462477614
-0.2396000000000001,-0.15943796349478964
-0.2406000000000001,-0.15943796349478964
-0.2416000000000001,-0.15943796349478964
-0.2426000000000001,-0.15972090575476264
-0.2436000000000001,-0.16000384801473563
-0.2446000000000001,-0.16000384801473563
-0.2456000000000001,-0.16014531914472213
-0.2466000000000001,-0.15986237688474914
-0.2476000000000001,-0.15986237688474914
-0.2486000000000001,-0.16014531914472213
-0.2496000000000001,-0.16042826140469515
-0.2506000000000001,-0.16042826140469515
-0.2516000000000001,-0.16028679027470866
-0.2526000000000001,-0.16071120366466815
-0.2536000000000001,-0.16113561705462764
-0.2546000000000001,-0.16113561705462764
-0.2556000000000001,-0.16127708818461417
-0.2566000000000001,-0.16127708818461417
-0.2576000000000001,-0.16141855931460067
-0.2586000000000001,-0.1617015015745737
-0.2596000000000001,-0.1617015015745737
-0.2606000000000001,-0.1617015015745737
-0.2616000000000001,-0.1619844438345467
-0.2626000000000001,-0.1619844438345467
-0.2636000000000001,-0.1619844438345467
-0.2646000000000001,-0.1619844438345467
-0.2656000000000001,-0.1619844438345467
-0.2666000000000001,-0.1619844438345467
-0.2676000000000001,-0.16212591496453319
-0.2686000000000001,-0.1622673860945197
-0.2696000000000001,-0.1625503283544927
-0.2706000000000001,-0.1626917994844792
-0.2716000000000001,-0.1626917994844792
-0.2726000000000001,-0.1626917994844792
-0.2736000000000001,-0.1628332706144657
-0.2746000000000001,-0.1629747417444522
-0.2756000000000001,-0.16311621287443873
-0.2766000000000001,-0.16339915513441172
-0.2776000000000001,-0.16325768400442522
-0.2786000000000001,-0.16325768400442522
-0.2796000000000001,-0.16339915513441172
-0.2806000000000001,-0.16339915513441172
-0.28160000000000013,-0.16354062626439822
-0.28260000000000013,-0.16368209739438472
-0.28360000000000013,-0.16410651078434427
-0.2846,-0.16424798191433077
-0.2856,-0.16438945304431726
-0.2866,-0.16424798191433077
-0.2876,-0.16467239530429026
-0.2886,-0.16523827982423628
-0.2896,-0.16523827982423628
-0.2906,-0.16509680869424978
-0.2916,-0.16523827982423628
-0.2926,-0.16523827982423628
-0.2936,-0.16523827982423628
-0.29460000000000003,-0.16537975095422278
-0.29560000000000003,-0.1655212220842093
-0.29660000000000003,-0.1656626932141958
-0.29760000000000003,-0.16608710660415532
-0.29860000000000003,-0.16622857773414182
-0.29960000000000003,-0.16622857773414182
-0.30060000000000003,-0.16637004886412832
-0.30160000000000003,-0.1666529911241013
-0.30260000000000004,-0.1667944622540878
-0.30360000000000004,-0.1667944622540878
-0.30460000000000004,-0.16721887564404736
-0.30560000000000004,-0.16736034677403386
-0.30660000000000004,-0.16764328903400685
-0.30760000000000004,-0.16820917355395287
-0.30860000000000004,-0.16849211581392587
-0.30960000000000004,-0.16877505807389886
-0.31060000000000004,-0.16877505807389886
-0.31160000000000004,-0.16877505807389886
-0.31260000000000004,-0.1689165292038854
-0.31360000000000005,-0.16905800033387192
-0.31460000000000005,-0.16919947146385841
-0.31560000000000005,-0.1694824137238314
-0.31660000000000005,-0.1697653559838044
-0.31760000000000005,-0.17004829824377743
-0.31860000000000005,-0.17004829824377743
-0.31960000000000005,-0.17018976937376393
-0.32060000000000005,-0.17033124050375043
-0.32160000000000005,-0.17047271163373692
-0.32260000000000005,-0.17061418276372342
-0.32360000000000005,-0.17075565389370992
-0.32460000000000006,-0.17075565389370992
-0.32560000000000006,-0.17075565389370992
-0.32660000000000006,-0.17103859615368294
-0.32760000000000006,-0.17132153841365594
-0.32860000000000006,-0.17146300954364244
-0.32960000000000006,-0.17160448067362896
-0.33060000000000006,-0.17160448067362896
-0.33160000000000006,-0.17160448067362896
-0.33260000000000006,-0.17160448067362896
-0.33360000000000006,-0.17188742293360199
-0.33460000000000006,-0.17202889406358848
-0.33560000000000006,-0.17217036519357498
-0.33660000000000007,-0.17217036519357498
-0.33760000000000007,-0.17202889406358848
-0.33860000000000007,-0.17231183632356148
-0.33960000000000007,-0.17245330745354798
-0.34060000000000007,-0.17245330745354798
-0.34160000000000007,-0.17259477858353447
-0.34260000000000007,-0.17245330745354798
-0.34360000000000007,-0.17245330745354798
-0.3446000000000001,-0.17259477858353447
-0.3456000000000001,-0.17259477858353447
-0.3466000000000001,-0.17245330745354798
-0.34759999999999996,-0.17245330745354798
-0.3486000000000001,-0.17245330745354798
-0.34959999999999997,-0.17245330745354798
-0.3506000000000001,-0.17245330745354798
-0.35159999999999997,-0.17231183632356148
-0.3526000000000001,-0.17217036519357498
-0.35359999999999997,-0.17217036519357498
-0.3546000000000001,-0.17231183632356148
-0.35559999999999997,-0.17217036519357498
-0.3566000000000001,-0.17217036519357498
-0.3576,-0.17217036519357498
-0.3586000000000001,-0.17202889406358848
-0.3596,-0.17217036519357498
-0.3606000000000001,-0.17202889406358848
-0.3616,-0.17174595180361546
-0.3626000000000001,-0.17202889406358848
-0.3636,-0.17217036519357498
-0.3646000000000001,-0.17174595180361546
-0.3656,-0.17174595180361546
-0.3666000000000001,-0.17174595180361546
-0.3676,-0.17174595180361546
-0.3686000000000001,-0.17188742293360199
-0.3696,-0.17202889406358848
-0.3706000000000001,-0.17217036519357498
-0.3716,-0.17202889406358848
-0.3726000000000001,-0.17202889406358848
-0.3736,-0.17202889406358848
-0.3746000000000001,-0.17202889406358848
-0.3756,-0.17217036519357498
-0.3766000000000001,-0.17202889406358848
-0.3776,-0.17231183632356148
-0.3786000000000001,-0.17231183632356148
-0.3796,-0.17259477858353447
-0.3806000000000001,-0.17259477858353447
-0.3816,-0.1728777208435075
-0.3826000000000001,-0.1728777208435075
-0.3836,-0.1728777208435075
-0.3846000000000001,-0.172736249713521
-0.3856,-0.17259477858353447
-0.3866000000000001,-0.17259477858353447
-0.3876,-0.17358507649344
-0.3886000000000001,-0.17429243214337253
-0.3896,-0.17471684553333205
-0.3906000000000001,-0.17443390327335903
-0.3916,-0.17400948988339954
-0.3926000000000001,-0.173868018753413
-0.3936,-0.17400948988339954
-0.3946000000000001,-0.17400948988339954
-0.3956,-0.17415096101338604
-0.3966000000000001,-0.17443390327335903
-0.3976,-0.17471684553333205
-0.3986000000000001,-0.17499978779330505
-0.3996,-0.17499978779330505
-0.4006000000000001,-0.17499978779330505
-0.4016,-0.17542420118326454
-0.4026000000000001,-0.17570714344323757
-0.4036,-0.17570714344323757
-0.4046000000000001,-0.17584861457322407
-0.4056,-0.17613155683319706
-0.40660000000000013,-0.17627302796318356
-0.4076,-0.17627302796318356
-0.40860000000000013,-0.17641449909317006
-0.4096,-0.17655597022315658
-0.41060000000000013,-0.1766974413531431
-0.4116,-0.1766974413531431
-0.41260000000000013,-0.1766974413531431
-0.4136,-0.1768389124831296
-0.41460000000000014,-0.1771218547431026
-0.4156,-0.1774047970030756
-0.41660000000000014,-0.17754626813306212
-0.4176,-0.17768773926304862
-0.41860000000000014,-0.17782921039303512
-0.41960000000000003,-0.17811215265300812
-0.42060000000000014,-0.1783950949129811
-0.42160000000000003,-0.17867803717295414
-0.42260000000000014,-0.17896097943292713
-0.42360000000000003,-0.17910245056291366
-0.42460000000000014,-0.17980980621284617
-0.42560000000000003,-0.18009274847281917
-0.42660000000000015,-0.18023421960280567
-0.42760000000000004,-0.18009274847281917
-0.42860000000000015,-0.18023421960280567
-0.42960000000000004,-0.1806586329927652
-0.43060000000000015,-0.1806586329927652
-0.43160000000000004,-0.1805171618627787
-0.43260000000000015,-0.1808001041227517
-0.43360000000000004,-0.18108304638272468
-0.43460000000000015,-0.18136598864269768
-0.43560000000000004,-0.18150745977268423
-0.43660000000000015,-0.18179040203265723
-0.43760000000000004,-0.18193187316264373
-0.43860000000000016,-0.18221481542261672
