Potential V vs RHE, Current mA cm-2
0.4132999999999999,-0.009332850445209647
0.4122999999999999,-0.010980989109552414
0.4112999999999999,-0.011412476056011252
0.4102999999999999,-0.011624682750991006
0.4092999999999999,-0.0117746421487767
0.4082999999999999,-0.011889233764065768
0.4072999999999999,-0.012006654801954566
0.4062999999999999,-0.012109928726844714
0.4052999999999999,-0.012218861496934323
0.4042999999999999,-0.012296670618426897
0.4032999999999999,-0.01235608849302123
0.4022999999999999,-0.012445215304912728
0.4012999999999999,-0.01252443913770517
0.4002999999999999,-0.012620639506095991
0.3992999999999999,-0.012678642669390458
0.3982999999999999,-0.012745134100484116
0.3972999999999999,-0.012793234284679527
0.3962999999999999,-0.012885190519170754
0.3952999999999999,-0.012940364259865491
0.3942999999999999,-0.012974317331062251
0.39329999999999987,-0.013046467607355368
0.39229999999999987,-0.013107300193249564
0.39129999999999987,-0.013173791624343222
0.39029999999999987,-0.013244527189336474
0.38929999999999987,-0.01329121266223202
0.38829999999999987,-0.013332239289928105
0.38729999999999987,-0.013366192361124867
0.38629999999999987,-0.013425610235719199
0.38529999999999986,-0.01350766349111137
0.38429999999999986,-0.013524640026709752
0.38329999999999986,-0.013591131457803407
0.38229999999999986,-0.013647719909798009
0.38129999999999986,-0.01370147893919288
0.38029999999999986,-0.013779288060685456
0.37929999999999986,-0.01381607055448195
0.37829999999999986,-0.013845779491779115
0.37729999999999986,-0.013879732562975875
0.37629999999999986,-0.013934906303670613
0.37529999999999986,-0.013998568312164537
0.37429999999999986,-0.014029691960761568
0.37329999999999985,-0.014083450990156442
0.37229999999999985,-0.0141174040613532
0.37129999999999985,-0.014141454153450906
0.37029999999999985,-0.01424614278964092
0.36929999999999985,-0.01427443701563822
0.36829999999999985,-0.014288584128636872
0.36729999999999985,-0.014331025467632824
0.36629999999999985,-0.014387613919627423
0.36529999999999985,-0.014458349484620674
0.36429999999999985,-0.014500790823616624
0.36329999999999985,-0.014500790823616624
0.36229999999999984,-0.014557379275611227
0.36129999999999984,-0.01461396772760583
0.36029999999999984,-0.01469885040559773
0.35929999999999984,-0.014769585970590984
0.35829999999999984,-0.014812027309586936
0.35729999999999984,-0.014840321535584235
0.35629999999999984,-0.014896909987578835
0.35529999999999984,-0.014939351326574786
0.35429999999999984,-0.014981792665570736
0.35329999999999984,-0.014995939778569388
0.35229999999999984,-0.015024234004566688
0.35129999999999983,-0.015066675343562642
0.35029999999999983,-0.015137410908555892
0.34929999999999983,-0.015151558021554544
0.34829999999999983,-0.015193999360550494
0.34729999999999983,-0.015278882038542396
0.34629999999999983,-0.015293029151541045
0.34529999999999983,-0.015335470490536997
0.34429999999999983,-0.0153637647165343
0.3432999999999998,-0.015406206055530251
0.3422999999999998,-0.01543450028152755
0.3412999999999998,-0.015505235846520802
0.3402999999999998,-0.015561824298515404
0.3392999999999998,-0.015561824298515404
0.3382999999999998,-0.015604265637511355
0.3372999999999998,-0.015646706976507305
0.3362999999999998,-0.015646706976507305
0.3352999999999998,-0.015717442541500558
0.3342999999999998,-0.01573158965449921
0.3332999999999998,-0.01575988388049651
0.3322999999999998,-0.01581647233249111
0.3312999999999998,-0.01583061944548976
0.3302999999999998,-0.015901355010483013
0.3292999999999998,-0.015929649236480315
0.3282999999999998,-0.015943796349478963
0.3272999999999998,-0.015986237688474913
0.3262999999999998,-0.016014531914472215
0.3252999999999999,-0.016071120366466816
0.3242999999999999,-0.01611356170546277
0.3232999999999999,-0.01611356170546277
0.3222999999999999,-0.01615600304445872
0.3212999999999999,-0.016212591496453318
0.3202999999999999,-0.01625503283544927
0.3192999999999999,-0.016283327061446574
0.3182999999999999,-0.016283327061446574
0.3172999999999999,-0.016325768400442524
0.3162999999999999,-0.016368209739438477
0.3152999999999999,-0.016424798191433075
0.3142999999999999,-0.016438945304431726
0.3132999999999999,-0.01648138664342768
0.3122999999999999,-0.016495533756426328
0.3112999999999999,-0.016552122208420932
0.3102999999999999,-0.01662285777341418
0.3092999999999999,-0.01665115199941148
0.3082999999999999,-0.016679446225408782
0.3072999999999999,-0.01670774045140608
0.3062999999999999,-0.01673603467740338
0.3052999999999999,-0.016792623129397985
0.3042999999999999,-0.016820917355395284
0.3032999999999999,-0.016849211581392583
0.3022999999999999,-0.01687750580738989
0.3012999999999999,-0.01690580003338719
0.3002999999999999,-0.01697653559838044
0.2992999999999999,-0.01699068271137909
0.2982999999999999,-0.017018976937376393
0.2972999999999999,-0.017047271163373692
0.2962999999999999,-0.017075565389370995
0.2952999999999999,-0.017160448067362895
0.2942999999999999,-0.017188742293360197
0.2932999999999999,-0.017202889406358845
0.2922999999999999,-0.0172453307453548
0.2912999999999999,-0.017273624971352097
0.2902999999999999,-0.01734436053634535
0.2892999999999999,-0.017372654762342652
0.2882999999999999,-0.017372654762342652
0.2872999999999999,-0.017400948988339954
0.2862999999999999,-0.017429243214337253
0.2852999999999999,-0.017499978779330502
0.2842999999999999,-0.017542420118326456
0.2832999999999999,-0.017556567231325104
0.2822999999999999,-0.017570714344323755
0.2812999999999999,-0.017613155683319705
0.2802999999999999,-0.01766974413531431
0.2792999999999999,-0.01769803836131161
0.2782999999999999,-0.01771218547431026
0.2772999999999999,-0.01774047970030756
0.2762999999999999,-0.017797068152302163
0.2752999999999999,-0.017839509491298113
0.2742999999999999,-0.017881950830294063
0.2732999999999999,-0.017896097943292714
0.2722999999999999,-0.017910245056291362
0.2712999999999999,-0.017966833508285963
0.2702999999999999,-0.018023421960280565
0.2692999999999999,-0.018065863299276518
0.26829999999999987,-0.018065863299276518
0.26729999999999987,-0.018108304638272472
0.26629999999999987,-0.018150745977268422
0.26529999999999987,-0.01820733442926302
0.26429999999999987,-0.018221481542261674
0.26329999999999987,-0.018263922881257624
0.26229999999999987,-0.018306364220253574
0.26129999999999987,-0.018334658446250877
0.26029999999999986,-0.018391246898245478
0.25929999999999986,-0.018405394011244126
0.25829999999999986,-0.018433688237241428
0.25729999999999986,-0.018461982463238727
0.25629999999999986,-0.01847612957623738
0.25529999999999986,-0.018546865141230634
0.25429999999999986,-0.01858930648022658
0.25329999999999986,-0.018603453593225232
0.25229999999999986,-0.018660042045219833
0.25129999999999986,-0.018702483384215783
0.25029999999999986,-0.018744924723211737
0.24929999999999986,-0.018787366062207687
0.24829999999999985,-0.018787366062207687
0.24729999999999985,-0.018815660288204986
0.24629999999999985,-0.01885810162720094
0.24529999999999985,-0.018942984305192843
0.24429999999999985,-0.01897127853119014
0.24329999999999985,-0.018999572757187444
0.24229999999999985,-0.019027866983184743
0.24129999999999985,-0.019098602548177995
0.24029999999999985,-0.019141043887173945
0.23929999999999985,-0.0191834852261699
0.23829999999999985,-0.0191834852261699
0.23729999999999984,-0.019211779452167198
0.23629999999999984,-0.0192683679041618
0.23529999999999984,-0.01928251501716045
0.23429999999999984,-0.0193249563561564
0.23329999999999984,-0.01933910346915505
0.23229999999999984,-0.019367397695152354
0.23129999999999984,-0.0194098390341483
0.23029999999999984,-0.019452280373144254
0.22929999999999984,-0.019466427486142905
0.22829999999999984,-0.01950886882513886
0.22729999999999984,-0.019537163051136158
0.22629999999999983,-0.019579604390132108
0.22529999999999983,-0.01963619284212671
0.22429999999999983,-0.01965033995512536
0.22329999999999983,-0.01969278129412131
0.22229999999999983,-0.01969278129412131
0.22129999999999983,-0.01973522263311726
0.22029999999999983,-0.019791811085111865
0.21929999999999983,-0.019834252424107815
0.21829999999999983,-0.019848399537106463
0.21729999999999983,-0.019876693763103765
0.21629999999999983,-0.019890840876102416
0.21529999999999982,-0.019961576441095665
0.21429999999999982,-0.01997572355409432
0.21329999999999982,-0.02000401778009162
0.21229999999999982,-0.02006060623208622
0.21129999999999982,-0.02007475334508487
0.21029999999999982,-0.020103047571082173
0.20929999999999982,-0.02015963602307677
0.20829999999999982,-0.02015963602307677
0.20729999999999982,-0.020230371588070024
0.20629999999999982,-0.020272812927065977
0.20529999999999982,-0.020301107153063276
0.20429999999999982,-0.020343548492059226
0.20329999999999981,-0.020343548492059226
0.2022999999999998,-0.02038598983105518
0.2012999999999998,-0.020400136944053827
0.20029999999999992,-0.02045672539604843
0.19929999999999992,-0.020499166735044382
0.19829999999999992,-0.02052746096104168
0.19729999999999992,-0.02055575518703898
0.19629999999999992,-0.020584049413036282
0.19529999999999992,-0.020626490752032236
0.19429999999999992,-0.02073966765602144
0.19329999999999992,-0.020767961882018737
0.19229999999999992,-0.020767961882018737
0.19129999999999991,-0.020838697447011986
0.1902999999999999,-0.02086699167300929
0.1892999999999999,-0.020909433012005242
0.1882999999999999,-0.020937727238002544
0.1872999999999999,-0.020951874351001196
0.1862999999999999,-0.020980168576998495
0.1852999999999999,-0.021050904141991744
0.1842999999999999,-0.021050904141991744
0.1832999999999999,-0.021093345480987697
0.1822999999999999,-0.021121639706984996
0.1812999999999999,-0.021164081045980946
0.1802999999999999,-0.0212348166109742
0.1792999999999999,-0.0212631108369715
0.1782999999999999,-0.021277257949970152
0.1772999999999999,-0.021333846401964753
0.1762999999999999,-0.021319699288966102
0.1752999999999999,-0.021404581966958002
0.1742999999999999,-0.021461170418952607
0.1732999999999999,-0.021475317531951258
0.1722999999999999,-0.02153190598394586
0.1712999999999999,-0.021546053096944507
0.1702999999999999,-0.02161678866193776
0.1692999999999999,-0.02167337711393236
0.1682999999999999,-0.021715818452928314
0.1672999999999999,-0.021758259791924264
0.1662999999999999,-0.021772406904922915
0.1652999999999999,-0.021800701130920214
0.1642999999999999,-0.02185728958291482
0.1632999999999999,-0.02185728958291482
0.1622999999999999,-0.021913878034909417
0.1612999999999999,-0.021956319373905367
0.1602999999999999,-0.02199876071290132
0.1592999999999999,-0.022069496277894573
0.15829999999999989,-0.022097790503891875
0.15729999999999988,-0.022111937616890523
0.15629999999999988,-0.022154378955886473
0.15529999999999988,-0.022196820294882423
0.15429999999999988,-0.022225114520879725
0.15329999999999988,-0.022239261633878377
0.15229999999999988,-0.022281702972874327
0.15129999999999988,-0.022338291424868928
0.15029999999999988,-0.022366585650866227
0.14929999999999988,-0.022437321215859483
0.14829999999999988,-0.022465615441856785
0.14729999999999988,-0.022493909667854084
0.14629999999999987,-0.022536351006850038
0.14529999999999987,-0.022592939458844635
0.14429999999999987,-0.022621233684841938
0.14329999999999987,-0.022663675023837888
0.14229999999999987,-0.02270611636283384
0.14129999999999987,-0.02272026347583249
0.14029999999999987,-0.02279099904082574
0.13929999999999987,-0.022819293266823044
0.13829999999999987,-0.022847587492820343
0.13729999999999987,-0.02287588171881764
0.13629999999999987,-0.022918323057813595
0.13529999999999986,-0.0230032057358055
0.13429999999999986,-0.023031499961802798
0.13329999999999986,-0.0230880884137974
0.13229999999999986,-0.023144676865792004
0.13129999999999986,-0.02318711820478795
0.13029999999999986,-0.0232295595437839
0.12929999999999986,-0.02327200088277985
0.12829999999999986,-0.02327200088277985
0.12729999999999986,-0.023300295108777156
0.12629999999999986,-0.023342736447773106
0.12529999999999986,-0.02338517778676906
0.12429999999999986,-0.023441766238763657
0.12329999999999985,-0.02345591335176231
0.12229999999999985,-0.023498354690758262
0.12129999999999985,-0.02354079602975421
0.12029999999999985,-0.02359738448174881
0.11929999999999985,-0.023639825820744764
0.11829999999999985,-0.023639825820744764
0.11729999999999985,-0.023682267159740714
0.11629999999999985,-0.023724708498736664
0.11529999999999985,-0.023767149837732617
0.11429999999999985,-0.023823738289727222
0.11329999999999985,-0.023823738289727222
0.11229999999999984,-0.02385203251572452
0.11129999999999984,-0.02390862096771912
0.11029999999999984,-0.023965209419713723
0.10929999999999984,-0.023993503645711022
0.10829999999999984,-0.024021797871708325
0.10729999999999984,-0.024050092097705623
0.10629999999999984,-0.024106680549700225
0.10529999999999984,-0.02417741611469348
0.10429999999999984,-0.02420571034069078
0.10329999999999984,-0.02424815167968673
0.10229999999999984,-0.02427644590568403
0.10129999999999983,-0.02433303435767863
0.10029999999999983,-0.024375475696674583
0.09929999999999983,-0.024375475696674583
0.09829999999999983,-0.024432064148669184
0.09729999999999983,-0.024446211261667832
0.09629999999999983,-0.024488652600663786
0.09529999999999983,-0.02457353527865569
0.09429999999999983,-0.024601829504652988
0.09329999999999983,-0.024630123730650287
0.09229999999999983,-0.02465841795664759
0.09129999999999983,-0.024700859295643543
0.09029999999999982,-0.02475744774763814
0.08929999999999982,-0.024814036199632745
0.08829999999999982,-0.02482818331263139
0.08729999999999982,-0.024870624651627343
0.08629999999999982,-0.024913065990623297
0.08529999999999982,-0.024969654442617898
0.08429999999999982,-0.025040390007611147
0.08329999999999982,-0.0250262428946125
0.08229999999999982,-0.0251111255726044
0.08129999999999982,-0.025139419798601705
0.08029999999999982,-0.025196008250596303
0.07929999999999982,-0.025238449589592253
0.07829999999999981,-0.025252596702590904
0.07729999999999981,-0.025295038041586858
0.07629999999999981,-0.02535162649358146
0.07529999999999992,-0.02540821494557606
0.07429999999999992,-0.025493097623567964
0.07329999999999992,-0.025493097623567964
0.07229999999999992,-0.02554968607556256
0.07129999999999992,-0.025577980301559864
0.07029999999999992,-0.025592127414558512
0.06929999999999992,-0.025662862979551764
0.06829999999999992,-0.025691157205549067
0.06729999999999992,-0.025705304318547718
0.06629999999999991,-0.025790186996539618
0.06529999999999991,-0.025860922561532867
0.06429999999999991,-0.02590336390052882
0.06329999999999991,-0.02594580523952477
0.06229999999999991,-0.025974099465522073
0.06129999999999991,-0.02600239369151937
0.06029999999999991,-0.026101423482509926
0.05929999999999991,-0.026172159047503182
0.05829999999999991,-0.02621460038649913
0.05729999999999991,-0.02622874749949778
0.056299999999999906,-0.02627118883849373
0.055299999999999905,-0.02632777729048833
0.054299999999999904,-0.026370218629484285
0.0532999999999999,-0.026412659968480235
0.0522999999999999,-0.02645510130747619
0.0512999999999999,-0.026469248420474833
0.0502999999999999,-0.026539983985468085
0.0492999999999999,-0.02661071955046134
0.0482999999999999,-0.02661071955046134
0.0472999999999999,-0.02668145511545459
0.0462999999999999,-0.026709749341451892
0.045299999999999896,-0.026780484906445145
0.044299999999999895,-0.026837073358439746
0.043299999999999894,-0.026837073358439746
0.04229999999999989,-0.026879514697435696
0.04129999999999989,-0.026936103149430297
0.04029999999999989,-0.0270209858274222
0.03929999999999989,-0.0270775742794168
0.03829999999999989,-0.02709172139241545
0.03729999999999989,-0.027134162731411407
0.03629999999999989,-0.027190751183406005
0.03529999999999989,-0.027219045409403307
0.034299999999999886,-0.027289780974396556
0.033299999999999885,-0.02731807520039386
0.032299999999999884,-0.02734636942639116
0.031299999999999883,-0.027374663652388463
0.030299999999999883,-0.027459546330380363
0.02929999999999988,-0.027516134782374965
0.02829999999999988,-0.02755857612137091
0.02729999999999988,-0.027572723234369562
0.02629999999999988,-0.02762931168636417
0.025299999999999878,-0.02768590013835877
0.024299999999999877,-0.02774248859035337
0.023299999999999876,-0.027784929929349323
0.022299999999999875,-0.027813224155346622
0.021299999999999875,-0.027869812607341227
0.020299999999999874,-0.027954695285333123
0.019299999999999873,-0.027997136624329073
0.018299999999999872,-0.028039577963325023
0.01729999999999987,-0.02809616641531963
0.01629999999999987,-0.02811031352831828
0.01529999999999987,-0.02820934331930883
0.014299999999999868,-0.028251784658304784
0.013299999999999867,-0.02829422599730073
0.012299999999999978,-0.028336667336296688
0.011299999999999866,-0.028364961562293983
0.010299999999999976,-0.028449844240285887
0.009299999999999864,-0.02850643269228049
0.008299999999999974,-0.02854887403127644
0.007299999999999862,-0.028591315370272388
0.006299999999999972,-0.02860546248327104
0.00529999999999986,-0.028704492274261594
0.0042999999999999705,-0.028746933613257548
0.0032999999999998586,-0.028775227839254847
0.0022999999999999687,-0.028817669178250797
0.0012999999999998568,-0.028860110517246747
0.00029999999999996696,-0.028916698969241348
-0.000700000000000145,-0.029001581647233248
-0.0017000000000000348,-0.029015728760231903
-0.0027000000000001467,-0.0290723172122265
-0.0037000000000000366,-0.029100611438223806
-0.0047000000000001485,-0.029157199890218404
-0.005700000000000038,-0.029256229681208955
-0.00670000000000015,-0.029326965246202208
-0.00770000000000004,-0.029383553698196813
-0.008700000000000152,-0.029440142150191414
-0.009700000000000042,-0.029510877715184666
-0.010700000000000154,-0.02959576039317657
-0.011700000000000044,-0.029609907506175218
-0.012700000000000156,-0.029609907506175218
-0.013700000000000045,-0.029638201732172516
-0.014700000000000157,-0.02970893729716577
-0.015700000000000047,-0.02973723152316307
-0.01670000000000016,-0.029807967088156324
-0.01770000000000005,-0.029850408427152274
-0.01870000000000016,-0.029878702653149573
-0.01970000000000005,-0.029963585331141473
-0.020700000000000163,-0.029991879557138775
-0.021700000000000053,-0.030048468009133376
-0.022700000000000164,-0.030090909348129333
-0.023700000000000054,-0.030133350687125283
-0.024700000000000166,-0.03018993913911988
-0.025700000000000056,-0.030246527591114486
-0.026700000000000168,-0.030288968930110433
-0.027700000000000058,-0.030345557382105034
-0.02870000000000017,-0.030359704495103685
-0.02970000000000006,-0.03044458717309559
-0.03070000000000017,-0.030487028512091542
-0.03170000000000006,-0.030501175625090193
-0.03270000000000017,-0.030529469851087492
-0.03370000000000006,-0.03058605830308209
-0.034700000000000175,-0.030642646755076695
-0.035700000000000065,-0.030741676546067253
-0.03670000000000018,-0.030755823659065897
-0.03770000000000007,-0.030812412111060502
-0.03870000000000018,-0.03085485345005645
-0.03970000000000007,-0.030897294789052406
-0.04070000000000018,-0.031010471693041605
-0.04170000000000007,-0.03099632458004295
-0.04270000000000018,-0.031024618806040256
-0.04370000000000007,-0.031081207258034853
-0.044700000000000184,-0.03110950148403216
-0.045700000000000074,-0.031180237049025412
-0.046700000000000186,-0.03120853127502271
-0.047700000000000076,-0.03120853127502271
-0.04870000000000019,-0.03126511972701731
-0.04970000000000008,-0.03133585529201056
-0.05070000000000019,-0.03139244374400516
-0.05170000000000008,-0.03144903219599977
-0.05270000000000019,-0.03144903219599977
-0.05370000000000008,-0.03151976776099302
-0.05470000000000019,-0.03154806198699031
-0.05570000000000008,-0.03160465043898492
-0.056700000000000195,-0.03164709177798087
-0.057700000000000085,-0.03166123889097952
-0.058700000000000196,-0.03171782734297412
-0.059700000000000086,-0.03176026868197007
-0.0607000000000002,-0.03181685713396468
-0.06170000000000009,-0.03190173981195658
-0.0627000000000002,-0.03194418115095252
-0.06370000000000009,-0.03194418115095252
-0.0647000000000002,-0.03202906382894443
