Potential V vs RHE, Current mA cm-2
0.013299999999999867,-0.2202705493889862
0.012299999999999978,-0.8745745255765657
0.011299999999999866,-1.2671569112891135
0.010299999999999976,-1.5717442541500557
0.009299999999999864,-1.7910245056291363
0.008299999999999974,-2.008890045808352
0.007299999999999862,-2.1828995356917518
0.006299999999999972,-2.3144676865791998
0.00529999999999986,-2.4446211261667834
0.0042999999999999705,-2.576189277054232
0.0032999999999998586,-2.706342716641815
0.0022999999999999687,-2.794054817233447
0.0012999999999998568,-2.924208256821031
0.00029999999999996696,-2.968064307116847
-0.000700000000000145,-3.0996324580042955
-0.0017000000000000348,-3.1859298472960624
-0.0027000000000001467,-3.317497998183511
-0.0037000000000000366,-3.403795387475278
-0.0047000000000001485,-3.5353635383627267
-0.005700000000000038,-3.7093730282461257
-0.00670000000000015,-3.884797229429391
-0.00770000000000004,-4.0588067193127895
-0.008700000000000152,-4.276672259492005
-0.009700000000000042,-4.538393849967037
-0.010700000000000154,-4.887827541033701
-0.011700000000000044,-5.235846520800501
-0.012700000000000156,-5.629136262162981
-0.013700000000000045,-6.021011292225596
-0.014700000000000157,-6.414301033588076
-0.015700000000000047,-6.850032113946507
-0.01670000000000016,-7.243321855308987
-0.01770000000000005,-7.591340835075788
-0.01870000000000016,-7.940774526142452
-0.01970000000000005,-8.288793505909249
-0.020700000000000163,-8.55051509638428
-0.021700000000000053,-8.812236686859313
-0.022700000000000164,-9.073958277334345
-0.023700000000000054,-9.293238528813426
-0.024700000000000166,-9.511104068992642
-0.025700000000000056,-9.685113558876042
-0.026700000000000168,-9.81668170976349
-0.027700000000000058,-9.946835149351072
-0.02870000000000017,-10.034547249942705
-0.02970000000000006,-10.120844639234473
-0.03070000000000017,-10.208556739826104
-0.03170000000000006,-10.25241279012192
-0.03270000000000017,-10.296268840417738
-0.03370000000000006,-10.340124890713554
-0.034700000000000175,-10.340124890713554
-0.035700000000000065,-10.340124890713554
-0.03670000000000018,-10.382566229709504
-0.03770000000000007,-10.340124890713554
-0.03870000000000018,-10.296268840417738
-0.03970000000000007,-10.25241279012192
-0.04070000000000018,-10.208556739826104
-0.04170000000000007,-10.120844639234473
-0.04270000000000018,-10.078403300238522
-0.04370000000000007,-10.034547249942705
-0.044700000000000184,-9.946835149351072
-0.045700000000000074,-9.902979099055257
-0.046700000000000186,-9.85912304875944
-0.047700000000000076,-9.772825659467674
-0.04870000000000019,-9.728969609171857
-0.04970000000000008,-9.641257508580225
-0.05070000000000019,-9.59740145828441
-0.05170000000000008,-9.55496011928846
-0.05270000000000019,-9.511104068992642
-0.05370000000000008,-9.467248018696827
-0.05470000000000019,-9.467248018696827
-0.05570000000000008,-9.423391968401008
-0.056700000000000195,-9.423391968401008
-0.057700000000000085,-9.379535918105192
-0.058700000000000196,-9.379535918105192
-0.059700000000000086,-9.379535918105192
-0.0607000000000002,-9.379535918105192
-0.06170000000000009,-9.379535918105192
-0.0627000000000002,-9.423391968401008
-0.06370000000000009,-9.379535918105192
-0.0647000000000002,-9.423391968401008
-0.06570000000000009,-9.467248018696827
-0.0667000000000002,-9.467248018696827
-0.0677000000000001,-9.467248018696827
-0.0687000000000002,-9.511104068992642
-0.0697000000000001,-9.511104068992642
-0.07070000000000021,-9.55496011928846
-0.0717000000000001,-9.55496011928846
-0.07270000000000021,-9.59740145828441
-0.0737000000000001,-9.641257508580225
-0.07470000000000021,-9.685113558876042
-0.0757000000000001,-9.728969609171857
-0.07670000000000021,-9.772825659467674
-0.0777000000000001,-9.81668170976349
-0.07870000000000021,-9.85912304875944
-0.0797000000000001,-9.902979099055257
-0.08070000000000022,-9.946835149351072
-0.0817000000000001,-9.946835149351072
-0.08270000000000022,-10.034547249942705
-0.08370000000000011,-10.078403300238522
-0.08470000000000022,-10.120844639234473
-0.08570000000000011,-10.164700689530287
-0.08670000000000022,-10.25241279012192
-0.08770000000000011,-10.25241279012192
-0.08870000000000022,-10.296268840417738
-0.08970000000000011,-10.340124890713554
-0.09070000000000022,-10.340124890713554
-0.09170000000000011,-10.382566229709504
-0.09270000000000023,-10.42642228000532
-0.09370000000000012,-10.470278330301136
-0.09470000000000023,-10.514134380596953
-0.09570000000000012,-10.557990430892769
-0.09670000000000023,-10.601846481188586
-0.09770000000000012,-10.601846481188586
-0.09870000000000023,-10.644287820184536
-0.09970000000000012,-10.644287820184536
-0.10070000000000023,-10.688143870480351
-0.10170000000000012,-10.731999920776168
-0.10270000000000024,-10.775855971071984
-0.10370000000000013,-10.775855971071984
-0.10470000000000024,-10.819712021367803
-0.10570000000000013,-10.819712021367803
-0.10670000000000024,-10.863568071663616
-0.10770000000000013,-10.906009410659568
-0.10870000000000024,-10.906009410659568
-0.10970000000000013,-10.906009410659568
-0.11070000000000024,-10.906009410659568
-0.11170000000000013,-10.949865460955383
-0.11270000000000002,-10.949865460955383
-0.11370000000000013,-10.949865460955383
-0.11470000000000002,-10.993721511251199
-0.11570000000000014,-10.993721511251199
-0.11670000000000003,-11.037577561547016
-0.11770000000000014,-11.037577561547016
-0.11870000000000003,-11.037577561547016
-0.11970000000000014,-11.037577561547016
-0.12070000000000003,-10.993721511251199
-0.12170000000000014,-11.037577561547016
-0.12270000000000003,-11.037577561547016
-0.12370000000000014,-11.037577561547016
-0.12470000000000003,-11.081433611842833
-0.12570000000000014,-11.081433611842833
-0.12670000000000003,-11.081433611842833
-0.12770000000000015,-11.081433611842833
-0.12870000000000004,-11.081433611842833
-0.12970000000000015,-11.081433611842833
-0.13070000000000004,-11.123874950838783
-0.13170000000000015,-11.123874950838783
-0.13270000000000004,-11.123874950838783
-0.13370000000000015,-11.123874950838783
-0.13470000000000004,-11.1677310011346
-0.13570000000000015,-11.1677310011346
-0.13670000000000004,-11.211587051430415
-0.13770000000000016,-11.211587051430415
-0.13870000000000005,-11.211587051430415
-0.13970000000000016,-11.211587051430415
-0.14070000000000005,-11.211587051430415
-0.14170000000000016,-11.211587051430415
-0.14270000000000005,-11.255443101726232
-0.14370000000000016,-11.255443101726232
-0.14470000000000005,-11.299299152022046
-0.14570000000000016,-11.343155202317865
-0.14670000000000005,-11.343155202317865
-0.14770000000000016,-11.385596541313816
-0.14870000000000005,-11.42945259160963
-0.14970000000000017,-11.42945259160963
-0.15070000000000006,-11.42945259160963
-0.15170000000000017,-11.42945259160963
-0.15270000000000006,-11.517164692201263
-0.15370000000000017,-11.517164692201263
-0.15470000000000006,-11.56102074249708
-0.15570000000000017,-11.647318131788847
-0.15670000000000006,-11.647318131788847
-0.15770000000000017,-11.691174182084664
-0.15870000000000006,-11.73503023238048
-0.15970000000000018,-11.73503023238048
-0.16070000000000007,-11.778886282676295
-0.16170000000000018,-11.82274233297211
-0.16270000000000007,-11.86659838326793
-0.16370000000000018,-11.952895772559694
-0.16470000000000007,-12.040607873151327
-0.16570000000000018,-12.084463923447142
-0.16670000000000007,-12.12831997374296
-0.16770000000000018,-12.170761312738911
-0.16870000000000007,-12.214617363034726
-0.16970000000000018,-12.258473413330542
-0.17070000000000007,-12.302329463626359
-0.17170000000000019,-12.302329463626359
-0.17270000000000008,-12.390041564217992
-0.1737000000000002,-12.432482903213943
-0.17470000000000008,-12.520195003805576
-0.1757000000000002,-12.56405105410139
-0.17670000000000008,-12.607907104397206
-0.1777000000000002,-12.607907104397206
-0.17870000000000008,-12.651763154693022
-0.1797000000000002,-12.694204493688973
-0.18070000000000008,-12.73806054398479
-0.1817000000000002,-12.73806054398479
-0.18270000000000008,-12.825772644576423
-0.1837000000000002,-12.825772644576423
-0.1847000000000001,-12.913484745168056
-0.1857000000000002,-12.955926084164007
-0.1867000000000001,-12.99978213445982
-0.1877000000000002,-12.99978213445982
-0.1887000000000001,-13.043638184755638
-0.1897000000000002,-13.043638184755638
-0.1907000000000001,-13.087494235051453
-0.1917000000000001,-13.087494235051453
-0.19269999999999998,-13.175206335643086
-0.1937000000000001,-13.175206335643086
-0.19469999999999998,-13.217647674639037
-0.1957000000000001,-13.261503724934855
-0.19669999999999999,-13.30535977523067
-0.1977000000000001,-13.349215825526485
-0.1987,-13.3930718758223
-0.1997000000000001,-13.349215825526485
-0.2007,-13.3930718758223
-0.2017000000000001,-13.436927926118118
-0.2027,-13.47936926511407
-0.2037000000000001,-13.47936926511407
-0.2047,-13.523225315409885
-0.2057000000000001,-13.567081365705702
-0.2067,-13.654793466297335
-0.2077000000000001,-13.654793466297335
-0.2087,-13.698649516593148
-0.2097000000000001,-13.698649516593148
-0.2107,-13.741090855589102
-0.2117000000000001,-13.784946905884919
-0.2127,-13.784946905884919
-0.2137000000000001,-13.828802956180734
-0.2147,-13.916515056772363
-0.2157000000000001,-14.002812446064135
-0.2167,-14.046668496359947
-0.21770000000000012,-14.046668496359947
-0.2187,-14.090524546655764
-0.21970000000000012,-14.090524546655764
-0.2207,-14.13438059695158
-0.22170000000000012,-14.175407224647667
-0.2227,-14.217848563643619
-0.22370000000000012,-14.26028990263957
-0.2247,-14.345172580631472
-0.22570000000000012,-14.401761032626075
-0.2267,-14.444202371622024
-0.22770000000000012,-14.486643710617974
-0.22870000000000001,-14.486643710617974
-0.22970000000000013,-14.529085049613924
-0.23070000000000002,-14.57152638860988
-0.23170000000000013,-14.65640906660178
-0.23270000000000002,-14.69885040559773
-0.23370000000000013,-14.783733083589633
-0.23470000000000002,-14.826174422585586
-0.23570000000000013,-14.925204213576137
-0.23670000000000002,-14.967645552572087
-0.2376999999999999,-15.01008689156804
-0.23870000000000002,-15.094969569559943
-0.2396999999999999,-15.137410908555893
-0.24070000000000003,-15.179852247551842
-0.24169999999999991,-15.222293586547794
-0.24270000000000003,-15.307176264539699
-0.24369999999999992,-15.3920589425316
-0.24470000000000003,-15.491088733522153
-0.24569999999999992,-15.533530072518102
-0.24670000000000003,-15.618412750510005
-0.24769999999999992,-15.70329542850191
-0.24870000000000003,-15.78817810649381
-0.24969999999999992,-15.830619445489761
-0.25070000000000003,-15.91550212348166
-0.2516999999999999,-15.972090575476265
-0.25270000000000004,-16.099414592464115
-0.2536999999999999,-16.184297270456018
-0.25470000000000004,-16.269179948447924
-0.2556999999999999,-16.354062626439823
-0.25670000000000004,-16.495533756426326
-0.25769999999999993,-16.580416434418233
-0.25870000000000004,-16.665299112410132
-0.25969999999999993,-16.750181790402035
-0.26070000000000004,-16.835064468393938
-0.26169999999999993,-16.919947146385837
-0.26270000000000004,-17.018976937376394
-0.26369999999999993,-17.146300954364243
-0.26470000000000005,-17.2736249713521
-0.26569999999999994,-17.358507649344002
-0.26670000000000005,-17.48583166633185
-0.26769999999999994,-17.584861457322408
-0.26870000000000005,-17.71218547431026
-0.26969999999999994,-17.797068152302163
-0.27070000000000005,-17.924392169290012
-0.27169999999999994,-18.009274847281915
-0.27270000000000005,-18.19318731626437
-0.27369999999999994,-18.320511333252224
-0.27470000000000006,-18.44783535024008
-0.27569999999999995,-18.631747819222536
-0.27670000000000006,-18.759071836210385
-0.27769999999999995,-18.88639585319824
-0.27870000000000006,-19.056161209182044
-0.27969999999999995,-19.155191000172596
-0.28070000000000006,-19.3249563561564
-0.28169999999999995,-19.452280373144255
-0.28270000000000006,-19.636192842126707
-0.28369999999999995,-19.805958198110513
-0.28470000000000006,-19.97572355409432
-0.28569999999999995,-20.10304757108217
-0.28670000000000007,-20.329401379060574
-0.28769999999999996,-20.456725396048434
-0.28870000000000007,-20.584049413036283
-0.28969999999999996,-20.810403221014692
-0.29070000000000007,-20.93772723800254
-0.29169999999999996,-21.149933932982297
-0.29270000000000007,-21.376287740960702
-0.29369999999999996,-21.54605309694451
-0.2947000000000001,-21.772406904922917
-0.29569999999999996,-21.94217226090672
-0.2967000000000001,-22.15437895588647
-0.29769999999999996,-22.38073276386488
-0.2987000000000001,-22.592939458844636
-0.29969999999999997,-22.776851927827092
-0.3007000000000001,-22.989058622806844
-0.30169999999999997,-23.2012653177866
-0.3027000000000001,-23.427619125765005
-0.30369999999999997,-23.682267159740714
-0.3047000000000001,-23.951062306715073
-0.30569999999999997,-24.16326900169483
-0.3067000000000001,-24.432064148669184
-0.3077,-24.64427084364894
-0.3087000000000001,-24.9130659906233
-0.3097,-25.12527268560305
-0.3107000000000001,-25.39406783257741
-0.3117,-25.648715866553115
-0.3127000000000001,-25.91751101352747
-0.3137,-26.17215904750318
-0.3147000000000001,-26.483395533473487
-0.3157,-26.738043567449193
-0.3167000000000001,-27.049280053419505
-0.3177,-27.303928087395207
-0.3187000000000001,-27.615164573365515
-0.3197,-27.869812607341224
-0.3207000000000001,-28.18104909331153
-0.3217,-28.478138466283188
-0.3227000000000001,-28.789374952253496
-0.3237,-29.14305277721976
-0.3247000000000001,-29.440142150191413
-0.3257,-29.793819975157668
-0.3267000000000001,-30.10505646112798
-0.3277,-30.444587173095588
-0.3287000000000001,-30.7558236590659
-0.3297,-31.095354371033505
-0.3307000000000001,-31.449032195999767
-0.3317,-31.802710020966025
-0.3327000000000001,-32.14224073293363
-0.3337,-32.53835989689585
-0.3347000000000001,-32.93447906085806
-0.3357,-33.288156885824314
-0.3367000000000001,-33.670128936787876
-0.3377,-34.02380676175414
-0.3387000000000001,-34.462367264712285
-0.3397,-34.8018979766799
-0.3407000000000001,-35.240458479638065
-0.3417,-35.636577643600276
-0.3427000000000001,-36.07513814655844
-0.3437,-36.47125731052064
-0.3447000000000001,-36.89567070048016
-0.3457,-37.334231203438314
-0.3467000000000001,-37.77279170639648
-0.3477,-38.211352209354644
-0.3487000000000001,-38.6499127123128
-0.3497,-39.046031876275016
-0.3507000000000001,-39.51288660523048
-0.3517,-39.95144710818864
-0.3527000000000001,-40.43244895014274
-0.3537,-40.91345079209687
-0.3547000000000001,-41.39445263405098
-0.3557,-41.91789581500104
-0.35670000000000013,-42.39889765695515
-0.3577,-42.87989949890926
-0.35870000000000013,-43.36090134086337
-0.3597,-43.84190318281749
-0.36070000000000013,-44.36534636376755
-0.3617,-44.84634820572166
-0.3626999999999999,-45.45467406466363
-0.3637,-45.97811724561369
-0.3646999999999999,-46.501560426563756
-0.3657,-47.067444946509774
-0.3666999999999999,-47.590888127459834
-0.3677,-48.156772647405845
-0.3686999999999999,-48.72265716735186
-0.36970000000000003,-49.24610034830193
-0.3706999999999999,-49.85442620724389
-0.37170000000000003,-50.42031072718991
-0.3726999999999999,-50.98619524713592
-0.37370000000000003,-51.594521106077885
-0.3746999999999999,-52.2169940780185
-0.37570000000000003,-52.78287859796452
-0.3766999999999999,-53.39120445690648
-0.37770000000000004,-53.999530315848446
-0.3786999999999999,-54.60785617479041
-0.37970000000000004,-55.21618203373238
-0.3806999999999999,-55.838655005673
-0.38170000000000004,-56.489422203610914
-0.38269999999999993,-57.14018940154883
-0.38370000000000004,-57.79095659948675
-0.38469999999999993,-58.498312249419264
-0.38570000000000004,-59.14907944735718
-0.38669999999999993,-58.880284300382826
-0.38570000000000004,-56.97042404556503
-0.38469999999999993,-55.21618203373238
-0.38370000000000004,-53.68829382987814
-0.38269999999999993,-52.25943541701445
-0.38170000000000004,-50.98619524713592
-0.3806999999999999,-49.76954352925199
-0.37970000000000004,-48.63777448935996
-0.3786999999999999,-47.633329466455784
-0.37770000000000004,-46.586443104555656
-0.3766999999999999,-45.624439420647434
-0.37570000000000003,-44.66243573673921
-0.3746999999999999,-43.75702050482558
-0.37370000000000003,-42.87989949890926
-0.3726999999999999,-42.00277849299294
-0.37170000000000003,-41.182245939071215
-0.3706999999999999,-40.3900076111468
-0.36970000000000003,-39.56947505722508
-0.3686999999999999,-38.81967806829661
-0.3677,-37.99914551437489
-0.3666999999999999,-37.291789864442364
-0.3657,-36.55613998851254
-0.3646999999999999,-35.763901660588125
-0.3637,-35.02825178465831
-0.3626999999999999,-34.33504324772444
-0.3617,-33.58524625879597
-0.36070000000000013,-32.892037721862096
-0.3597,-32.184682071929586
-0.35870000000000013,-31.533914873991666
-0.3577,-30.8407063370578
-0.35670000000000013,-30.232380478115836
-0.3557,-29.525024828183312
-0.3547000000000001,-28.8742576302454
-0.3537,-28.18104909331153
-0.3527000000000001,-27.572723234369565
-0.3517,-26.86536758443705
-0.3507000000000001,-26.29948306449103
-0.3497,-25.691157205549064
-0.3487000000000001,-25.0828313466071
-0.3477,-24.474505487665134
-0.3467000000000001,-23.86617962872317
-0.3457,-23.24370665678255
-0.3447000000000001,-22.63538079784059
-0.3437,-22.069496277894572
-0.3427000000000001,-21.461170418952605
-0.3417,-20.89528589900659
-0.3407000000000001,-20.329401379060574
-0.3397,-19.805958198110513
-0.3387000000000001,-19.2400736781645
-0.3377,-18.716630497214435
-0.3367000000000001,-18.15074597726842
-0.3357,-17.627302796318357
-0.3347000000000001,-17.103859615368293
-0.3337,-16.580416434418233
-0.3327000000000001,-16.056973253468165
-0.3317,-15.533530072518102
-0.3307000000000001,-15.05252823056399
-0.3297,-14.529085049613924
-0.3287000000000001,-14.090524546655764
-0.3277,-13.610937416001518
-0.3267000000000001,-13.13135028534727
-0.3257,-12.651763154693022
-0.3247000000000001,-12.170761312738911
-0.3237,-11.691174182084664
-0.3227000000000001,-11.211587051430415
-0.3217,-10.775855971071984
-0.3207000000000001,-10.340124890713554
-0.3197,-9.902979099055257
-0.3187000000000001,-9.511104068992642
-0.3177,-9.073958277334345
-0.3167000000000001,-8.68208324727173
-0.3157,-8.246352166913299
-0.3147000000000001,-7.809206375255003
-0.3137,-7.4173313451923875
-0.3127000000000001,-7.024041603829907
-0.3117,-6.588310523471475
-0.3107000000000001,-6.238876832404812
-0.3097,-5.890857852638012
-0.3087000000000001,-5.497568111275533
-0.3077,-5.149549131508733
-0.3067000000000001,-4.800115440442069
-0.30569999999999997,-4.406825699079589
-0.3047000000000001,-4.102662769608606
-0.30369999999999997,-3.7093730282461257
-0.3027000000000001,-3.403795387475278
-0.30169999999999997,-3.055776407708479
-0.3007000000000001,-2.7501987669376318
-0.29969999999999997,-2.4446211261667834
-0.2987000000000001,-2.1828995356917518
-0.29769999999999996,-1.8334658446250875
-0.2967000000000001,-1.5717442541500557
-0.29569999999999996,-1.2234423321232837
-0.2947000000000001,-0.9181476336124089
-0.29369999999999996,-0.6564260431373771
-0.29270000000000007,-0.3511313446265021
-0.29169999999999996,-0.04582249900262853
-0.29070000000000007,0.17231183632356148
-0.28969999999999996,0.4776065348344364
-0.28870000000000007,0.6956135461436386
-0.28769999999999996,0.9573351366186703
-0.28670000000000007,1.175483619057859
-0.28569999999999995,1.4373466806628774
-0.28470000000000006,1.655212220842093
-0.28369999999999995,1.9169338113171246
-0.28270000000000006,2.1347993514963406
-0.28169999999999995,2.352664891675556
-0.28070000000000006,2.5705304318547717
-0.27969999999999995,2.745954633038036
-0.27870000000000006,2.963820173217252
-0.27769999999999995,3.1378296631006513
-0.27670000000000006,3.355695203279867
-0.27569999999999995,3.5749754547589476
-0.27470000000000006,3.748984944642347
-0.27369999999999994,3.922994434525747
-0.27270000000000005,4.140859974704963
-0.27169999999999994,4.316284175888227
-0.27070000000000005,4.490293665771627
-0.26969999999999994,4.664303155655026
-0.26870000000000005,4.795871306542475
-0.26769999999999994,4.9698807964258735
