May 4, 2025   02:27:26
Linear Sweep Voltammetry
File: c:/users/guazh/data/banditlqround7_x0exp1108_r5/2025-04-30-exp1233\1acid_1ac-2025-05-04t02_24_17-lsvinphos\1acid_1ac_lsv_50mvs_efin_-2100mv.bin
Data Source:  Experiment
Instrument Model:  CHI760E
Header: LSV ran at 50 mVs with Efin at -2100mV
Note: 

Init E (V) = -0.6
Final E (V) = -2.1
Scan Rate (V/s) = 0.05
Sample Interval (V) = 0.001
Quiet Time (sec) = 2
Sensitivity (A/V) = 1e-4
Comp R (ohm) = 7.6

Results:

Channel 1:
Ep = -1.113V
ip = 3.506e-4A
Ah = 3.551e-4C

Potential/V, Current/A

-0.600, 8.555e-4
-0.601, 8.556e-4
-0.602, 8.549e-4
-0.603, 8.536e-4
-0.604, 8.523e-4
-0.605, 8.513e-4
-0.606, 8.504e-4
-0.607, 8.495e-4
-0.608, 8.478e-4
-0.609, 8.455e-4
-0.610, 8.435e-4
-0.611, 8.418e-4
-0.612, 8.398e-4
-0.613, 8.387e-4
-0.614, 8.367e-4
-0.615, 8.340e-4
-0.616, 8.316e-4
-0.617, 8.304e-4
-0.618, 8.285e-4
-0.619, 8.265e-4
-0.620, 8.247e-4
-0.621, 8.230e-4
-0.622, 8.206e-4
-0.623, 8.177e-4
-0.624, 8.159e-4
-0.625, 8.143e-4
-0.626, 8.122e-4
-0.627, 8.103e-4
-0.628, 8.082e-4
-0.629, 8.057e-4
-0.630, 8.046e-4
-0.631, 8.027e-4
-0.632, 8.008e-4
-0.633, 7.986e-4
-0.634, 7.968e-4
-0.635, 7.954e-4
-0.636, 7.944e-4
-0.637, 7.923e-4
-0.638, 7.902e-4
-0.639, 7.885e-4
-0.640, 7.870e-4
-0.641, 7.850e-4
-0.642, 7.829e-4
-0.643, 7.806e-4
-0.644, 7.792e-4
-0.645, 7.771e-4
-0.646, 7.749e-4
-0.647, 7.726e-4
-0.648, 7.706e-4
-0.649, 7.683e-4
-0.650, 7.671e-4
-0.651, 7.644e-4
-0.652, 7.623e-4
-0.653, 7.600e-4
-0.654, 7.579e-4
-0.655, 7.558e-4
-0.656, 7.534e-4
-0.657, 7.513e-4
-0.658, 7.489e-4
-0.659, 7.476e-4
-0.660, 7.451e-4
-0.661, 7.424e-4
-0.662, 7.403e-4
-0.663, 7.387e-4
-0.664, 7.362e-4
-0.665, 7.342e-4
-0.666, 7.319e-4
-0.667, 7.302e-4
-0.668, 7.280e-4
-0.669, 7.258e-4
-0.670, 7.225e-4
-0.671, 7.207e-4
-0.672, 7.192e-4
-0.673, 7.179e-4
-0.674, 7.157e-4
-0.675, 7.139e-4
-0.676, 7.118e-4
-0.677, 7.097e-4
-0.678, 7.069e-4
-0.679, 7.048e-4
-0.680, 7.025e-4
-0.681, 7.005e-4
-0.682, 6.982e-4
-0.683, 6.962e-4
-0.684, 6.930e-4
-0.685, 6.903e-4
-0.686, 6.876e-4
-0.687, 6.858e-4
-0.688, 6.841e-4
-0.689, 6.818e-4
-0.690, 6.795e-4
-0.691, 6.770e-4
-0.692, 6.751e-4
-0.693, 6.730e-4
-0.694, 6.705e-4
-0.695, 6.681e-4
-0.696, 6.651e-4
-0.697, 6.627e-4
-0.698, 6.607e-4
-0.699, 6.587e-4
-0.700, 6.566e-4
-0.701, 6.547e-4
-0.702, 6.526e-4
-0.703, 6.505e-4
-0.704, 6.476e-4
-0.705, 6.453e-4
-0.706, 6.434e-4
-0.707, 6.408e-4
-0.708, 6.387e-4
-0.709, 6.362e-4
-0.710, 6.336e-4
-0.711, 6.314e-4
-0.712, 6.293e-4
-0.713, 6.279e-4
-0.714, 6.259e-4
-0.715, 6.236e-4
-0.716, 6.213e-4
-0.717, 6.183e-4
-0.718, 6.164e-4
-0.719, 6.140e-4
-0.720, 6.112e-4
-0.721, 6.088e-4
-0.722, 6.063e-4
-0.723, 6.039e-4
-0.724, 6.019e-4
-0.725, 5.996e-4
-0.726, 5.973e-4
-0.727, 5.954e-4
-0.728, 5.926e-4
-0.729, 5.901e-4
-0.730, 5.874e-4
-0.731, 5.846e-4
-0.732, 5.826e-4
-0.733, 5.803e-4
-0.734, 5.782e-4
-0.735, 5.759e-4
-0.736, 5.740e-4
-0.737, 5.716e-4
-0.738, 5.691e-4
-0.739, 5.670e-4
-0.740, 5.646e-4
-0.741, 5.622e-4
-0.742, 5.597e-4
-0.743, 5.565e-4
-0.744, 5.541e-4
-0.745, 5.521e-4
-0.746, 5.493e-4
-0.747, 5.472e-4
-0.748, 5.455e-4
-0.749, 5.430e-4
-0.750, 5.404e-4
-0.751, 5.379e-4
-0.752, 5.356e-4
-0.753, 5.338e-4
-0.754, 5.322e-4
-0.755, 5.296e-4
-0.756, 5.276e-4
-0.757, 5.255e-4
-0.758, 5.234e-4
-0.759, 5.218e-4
-0.760, 5.202e-4
-0.761, 5.183e-4
-0.762, 5.164e-4
-0.763, 5.146e-4
-0.764, 5.127e-4
-0.765, 5.111e-4
-0.766, 5.093e-4
-0.767, 5.070e-4
-0.768, 5.055e-4
-0.769, 5.039e-4
-0.770, 5.021e-4
-0.771, 5.005e-4
-0.772, 4.989e-4
-0.773, 4.977e-4
-0.774, 4.962e-4
-0.775, 4.948e-4
-0.776, 4.937e-4
-0.777, 4.926e-4
-0.778, 4.910e-4
-0.779, 4.899e-4
-0.780, 4.882e-4
-0.781, 4.870e-4
-0.782, 4.860e-4
-0.783, 4.849e-4
-0.784, 4.841e-4
-0.785, 4.833e-4
-0.786, 4.823e-4
-0.787, 4.811e-4
-0.788, 4.803e-4
-0.789, 4.800e-4
-0.790, 4.793e-4
-0.791, 4.785e-4
-0.792, 4.772e-4
-0.793, 4.763e-4
-0.794, 4.760e-4
-0.795, 4.755e-4
-0.796, 4.746e-4
-0.797, 4.740e-4
-0.798, 4.736e-4
-0.799, 4.732e-4
-0.800, 4.725e-4
-0.801, 4.720e-4
-0.802, 4.720e-4
-0.803, 4.714e-4
-0.804, 4.713e-4
-0.805, 4.718e-4
-0.806, 4.719e-4
-0.807, 4.717e-4
-0.808, 4.716e-4
-0.809, 4.718e-4
-0.810, 4.720e-4
-0.811, 4.723e-4
-0.812, 4.723e-4
-0.813, 4.730e-4
-0.814, 4.733e-4
-0.815, 4.739e-4
-0.816, 4.744e-4
-0.817, 4.750e-4
-0.818, 4.756e-4
-0.819, 4.761e-4
-0.820, 4.768e-4
-0.821, 4.772e-4
-0.822, 4.778e-4
-0.823, 4.784e-4
-0.824, 4.788e-4
-0.825, 4.797e-4
-0.826, 4.807e-4
-0.827, 4.811e-4
-0.828, 4.818e-4
-0.829, 4.831e-4
-0.830, 4.837e-4
-0.831, 4.848e-4
-0.832, 4.858e-4
-0.833, 4.867e-4
-0.834, 4.872e-4
-0.835, 4.880e-4
-0.836, 4.889e-4
-0.837, 4.899e-4
-0.838, 4.911e-4
-0.839, 4.916e-4
-0.840, 4.927e-4
-0.841, 4.938e-4
-0.842, 4.949e-4
-0.843, 4.964e-4
-0.844, 4.974e-4
-0.845, 4.986e-4
-0.846, 4.997e-4
-0.847, 5.007e-4
-0.848, 5.022e-4
-0.849, 5.035e-4
-0.850, 5.044e-4
-0.851, 5.055e-4
-0.852, 5.068e-4
-0.853, 5.079e-4
-0.854, 5.094e-4
-0.855, 5.107e-4
-0.856, 5.120e-4
-0.857, 5.134e-4
-0.858, 5.149e-4
-0.859, 5.160e-4
-0.860, 5.173e-4
-0.861, 5.186e-4
-0.862, 5.197e-4
-0.863, 5.209e-4
-0.864, 5.222e-4
-0.865, 5.236e-4
-0.866, 5.247e-4
-0.867, 5.260e-4
-0.868, 5.274e-4
-0.869, 5.290e-4
-0.870, 5.307e-4
-0.871, 5.323e-4
-0.872, 5.340e-4
-0.873, 5.355e-4
-0.874, 5.372e-4
-0.875, 5.387e-4
-0.876, 5.401e-4
-0.877, 5.417e-4
-0.878, 5.431e-4
-0.879, 5.445e-4
-0.880, 5.460e-4
-0.881, 5.483e-4
-0.882, 5.501e-4
-0.883, 5.520e-4
-0.884, 5.540e-4
-0.885, 5.554e-4
-0.886, 5.566e-4
-0.887, 5.582e-4
-0.888, 5.600e-4
-0.889, 5.617e-4
-0.890, 5.634e-4
-0.891, 5.650e-4
-0.892, 5.670e-4
-0.893, 5.687e-4
-0.894, 5.705e-4
-0.895, 5.724e-4
-0.896, 5.746e-4
-0.897, 5.768e-4
-0.898, 5.786e-4
-0.899, 5.803e-4
-0.900, 5.818e-4
-0.901, 5.832e-4
-0.902, 5.847e-4
-0.903, 5.861e-4
-0.904, 5.879e-4
-0.905, 5.891e-4
-0.906, 5.905e-4
-0.907, 5.919e-4
-0.908, 5.936e-4
-0.909, 5.952e-4
-0.910, 5.964e-4
-0.911, 5.975e-4
-0.912, 5.989e-4
-0.913, 5.998e-4
-0.914, 6.011e-4
-0.915, 6.024e-4
-0.916, 6.037e-4
-0.917, 6.047e-4
-0.918, 6.058e-4
-0.919, 6.066e-4
-0.920, 6.078e-4
-0.921, 6.087e-4
-0.922, 6.097e-4
-0.923, 6.104e-4
-0.924, 6.113e-4
-0.925, 6.126e-4
-0.926, 6.138e-4
-0.927, 6.146e-4
-0.928, 6.154e-4
-0.929, 6.160e-4
-0.930, 6.166e-4
-0.931, 6.174e-4
-0.932, 6.177e-4
-0.933, 6.179e-4
-0.934, 6.184e-4
-0.935, 6.190e-4
-0.936, 6.194e-4
-0.937, 6.196e-4
-0.938, 6.198e-4
-0.939, 6.202e-4
-0.940, 6.205e-4
-0.941, 6.208e-4
-0.942, 6.210e-4
-0.943, 6.212e-4
-0.944, 6.216e-4
-0.945, 6.215e-4
-0.946, 6.217e-4
-0.947, 6.220e-4
-0.948, 6.221e-4
-0.949, 6.222e-4
-0.950, 6.225e-4
-0.951, 6.227e-4
-0.952, 6.230e-4
-0.953, 6.233e-4
-0.954, 6.235e-4
-0.955, 6.236e-4
-0.956, 6.237e-4
-0.957, 6.240e-4
-0.958, 6.245e-4
-0.959, 6.247e-4
-0.960, 6.248e-4
-0.961, 6.249e-4
-0.962, 6.248e-4
-0.963, 6.248e-4
-0.964, 6.253e-4
-0.965, 6.260e-4
-0.966, 6.266e-4
-0.967, 6.267e-4
-0.968, 6.268e-4
-0.969, 6.273e-4
-0.970, 6.277e-4
-0.971, 6.276e-4
-0.972, 6.279e-4
-0.973, 6.283e-4
-0.974, 6.289e-4
-0.975, 6.294e-4
-0.976, 6.301e-4
-0.977, 6.304e-4
-0.978, 6.306e-4
-0.979, 6.309e-4
-0.980, 6.317e-4
-0.981, 6.323e-4
-0.982, 6.330e-4
-0.983, 6.339e-4
-0.984, 6.348e-4
-0.985, 6.357e-4
-0.986, 6.365e-4
-0.987, 6.370e-4
-0.988, 6.379e-4
-0.989, 6.390e-4
-0.990, 6.401e-4
-0.991, 6.414e-4
-0.992, 6.425e-4
-0.993, 6.437e-4
-0.994, 6.448e-4
-0.995, 6.460e-4
-0.996, 6.470e-4
-0.997, 6.481e-4
-0.998, 6.493e-4
-0.999, 6.507e-4
-1.000, 6.521e-4
-1.001, 6.533e-4
-1.002, 6.547e-4
-1.003, 6.558e-4
-1.004, 6.568e-4
-1.005, 6.581e-4
-1.006, 6.592e-4
-1.007, 6.607e-4
-1.008, 6.624e-4
-1.009, 6.639e-4
-1.010, 6.656e-4
-1.011, 6.674e-4
-1.012, 6.689e-4
-1.013, 6.704e-4
-1.014, 6.723e-4
-1.015, 6.742e-4
-1.016, 6.760e-4
-1.017, 6.779e-4
-1.018, 6.795e-4
-1.019, 6.814e-4
-1.020, 6.836e-4
-1.021, 6.858e-4
-1.022, 6.878e-4
-1.023, 6.900e-4
-1.024, 6.926e-4
-1.025, 6.950e-4
-1.026, 6.974e-4
-1.027, 7.000e-4
-1.028, 7.024e-4
-1.029, 7.049e-4
-1.030, 7.074e-4
-1.031, 7.105e-4
-1.032, 7.130e-4
-1.033, 7.156e-4
-1.034, 7.183e-4
-1.035, 7.207e-4
-1.036, 7.233e-4
-1.037, 7.259e-4
-1.038, 7.287e-4
-1.039, 7.318e-4
-1.040, 7.348e-4
-1.041, 7.373e-4
-1.042, 7.400e-4
-1.043, 7.428e-4
-1.044, 7.459e-4
-1.045, 7.489e-4
-1.046, 7.517e-4
-1.047, 7.549e-4
-1.048, 7.578e-4
-1.049, 7.608e-4
-1.050, 7.638e-4
-1.051, 7.673e-4
-1.052, 7.710e-4
-1.053, 7.743e-4
-1.054, 7.774e-4
-1.055, 7.805e-4
-1.056, 7.839e-4
-1.057, 7.873e-4
-1.058, 7.911e-4
-1.059, 7.950e-4
-1.060, 7.981e-4
-1.061, 8.010e-4
-1.062, 8.044e-4
-1.063, 8.079e-4
-1.064, 8.114e-4
-1.065, 8.153e-4
-1.066, 8.189e-4
-1.067, 8.223e-4
-1.068, 8.252e-4
-1.069, 8.283e-4
-1.070, 8.319e-4
-1.071, 8.358e-4
-1.072, 8.393e-4
-1.073, 8.436e-4
-1.074, 8.477e-4
-1.075, 8.515e-4
-1.076, 8.560e-4
-1.077, 8.601e-4
-1.078, 8.640e-4
-1.079, 8.683e-4
-1.080, 8.723e-4
-1.081, 8.762e-4
-1.082, 8.798e-4
-1.083, 8.840e-4
-1.084, 8.881e-4
-1.085, 8.925e-4
-1.086, 8.969e-4
-1.087, 9.013e-4
-1.088, 9.051e-4
-1.089, 9.090e-4
-1.090, 9.134e-4
-1.091, 9.174e-4
-1.092, 9.215e-4
-1.093, 9.249e-4
-1.094, 9.289e-4
-1.095, 9.333e-4
-1.096, 9.376e-4
-1.097, 9.416e-4
-1.098, 9.463e-4
-1.099, 9.511e-4
-1.100, 9.554e-4
-1.101, 9.596e-4
-1.102, 9.641e-4
-1.103, 9.687e-4
-1.104, 9.735e-4
-1.105, 9.778e-4
-1.106, 9.822e-4
-1.107, 9.867e-4
-1.108, 9.916e-4
-1.109, 9.969e-4
-1.110, 1.002e-3
-1.111, 1.007e-3
-1.112, 1.011e-3
-1.113, 1.011e-3
-1.114, 1.011e-3
-1.115, 1.011e-3
-1.116, 1.011e-3
-1.117, 1.011e-3
-1.118, 1.011e-3
-1.119, 1.011e-3
-1.120, 1.011e-3
-1.121, 1.011e-3
-1.122, 1.011e-3
-1.123, 1.011e-3
-1.124, 1.011e-3
-1.125, 1.011e-3
-1.126, 1.011e-3
-1.127, 1.011e-3
-1.128, 1.011e-3
-1.129, 1.011e-3
-1.130, 1.011e-3
-1.131, 1.011e-3
-1.132, 1.011e-3
-1.133, 1.011e-3
-1.134, 1.011e-3
-1.135, 1.011e-3
-1.136, 1.011e-3
-1.137, 1.011e-3
-1.138, 1.011e-3
-1.139, 1.011e-3
-1.140, 1.011e-3
-1.141, 1.011e-3
-1.142, 1.011e-3
-1.143, 1.011e-3
-1.144, 1.011e-3
-1.145, 1.011e-3
-1.146, 1.011e-3
-1.147, 1.011e-3
-1.148, 1.011e-3
-1.149, 1.011e-3
-1.150, 1.011e-3
-1.151, 1.011e-3
-1.152, 1.011e-3
-1.153, 1.011e-3
-1.154, 1.011e-3
-1.155, 1.011e-3
-1.156, 1.011e-3
-1.157, 1.011e-3
-1.158, 1.011e-3
-1.159, 1.011e-3
-1.160, 1.011e-3
-1.161, 1.011e-3
-1.162, 1.011e-3
-1.163, 1.011e-3
-1.164, 1.011e-3
-1.165, 1.011e-3
-1.166, 1.011e-3
-1.167, 1.011e-3
-1.168, 1.011e-3
-1.169, 1.011e-3
-1.170, 1.011e-3
-1.171, 1.011e-3
-1.172, 1.011e-3
-1.173, 1.011e-3
-1.174, 1.011e-3
-1.175, 1.011e-3
-1.176, 1.011e-3
-1.177, 1.011e-3
-1.178, 1.011e-3
-1.179, 1.011e-3
-1.180, 1.011e-3
-1.181, 1.011e-3
-1.182, 1.011e-3
-1.183, 1.011e-3
-1.184, 1.011e-3
-1.185, 1.011e-3
-1.186, 1.011e-3
-1.187, 1.011e-3
-1.188, 1.011e-3
-1.189, 1.011e-3
-1.190, 1.011e-3
-1.191, 1.011e-3
-1.192, 1.011e-3
-1.193, 1.011e-3
-1.194, 1.011e-3
-1.195, 1.011e-3
-1.196, 1.011e-3
-1.197, 1.011e-3
-1.198, 1.011e-3
-1.199, 1.011e-3
-1.200, 1.011e-3
-1.201, 1.011e-3
-1.202, 1.011e-3
-1.203, 1.011e-3
-1.204, 1.011e-3
-1.205, 1.011e-3
-1.206, 1.011e-3
-1.207, 1.011e-3
-1.208, 1.011e-3
-1.209, 1.011e-3
-1.210, 1.011e-3
-1.211, 1.011e-3
-1.212, 1.011e-3
-1.213, 1.011e-3
-1.214, 1.011e-3
-1.215, 1.011e-3
-1.216, 1.011e-3
-1.217, 1.011e-3
-1.218, 1.011e-3
-1.219, 1.011e-3
-1.220, 1.011e-3
-1.221, 1.011e-3
-1.222, 1.011e-3
-1.223, 1.011e-3
-1.224, 1.011e-3
-1.225, 1.011e-3
-1.226, 1.011e-3
-1.227, 1.011e-3
-1.228, 1.011e-3
-1.229, 1.011e-3
-1.230, 1.011e-3
-1.231, 1.011e-3
-1.232, 1.011e-3
-1.233, 1.011e-3
-1.234, 1.011e-3
-1.235, 1.011e-3
-1.236, 1.011e-3
-1.237, 1.011e-3
-1.238, 1.011e-3
-1.239, 1.011e-3
-1.240, 1.011e-3
-1.241, 1.011e-3
-1.242, 1.011e-3
-1.243, 1.011e-3
-1.244, 1.011e-3
-1.245, 1.011e-3
-1.246, 1.011e-3
-1.247, 1.011e-3
-1.248, 1.011e-3
-1.249, 1.011e-3
-1.250, 1.011e-3
-1.251, 1.011e-3
-1.252, 1.011e-3
-1.253, 1.011e-3
-1.254, 1.011e-3
-1.255, 1.011e-3
-1.256, 1.011e-3
-1.257, 1.011e-3
-1.258, 1.011e-3
-1.259, 1.011e-3
-1.260, 1.011e-3
-1.261, 1.011e-3
-1.262, 1.011e-3
-1.263, 1.011e-3
-1.264, 1.011e-3
-1.265, 1.011e-3
-1.266, 1.011e-3
-1.267, 1.011e-3
-1.268, 1.011e-3
-1.269, 1.011e-3
-1.270, 1.011e-3
-1.271, 1.011e-3
-1.272, 1.011e-3
-1.273, 1.011e-3
-1.274, 1.011e-3
-1.275, 1.011e-3
-1.276, 1.011e-3
-1.277, 1.011e-3
-1.278, 1.011e-3
-1.279, 1.011e-3
-1.280, 1.011e-3
-1.281, 1.011e-3
-1.282, 1.011e-3
-1.283, 1.011e-3
-1.284, 1.011e-3
-1.285, 1.011e-3
-1.286, 1.011e-3
-1.287, 1.011e-3
-1.288, 1.011e-3
-1.289, 1.011e-3
-1.290, 1.011e-3
-1.291, 1.011e-3
-1.292, 1.011e-3
-1.293, 1.011e-3
-1.294, 1.011e-3
-1.295, 1.011e-3
-1.296, 1.011e-3
-1.297, 1.011e-3
-1.298, 1.011e-3
-1.299, 1.011e-3
-1.300, 1.011e-3
-1.301, 1.011e-3
-1.302, 1.011e-3
-1.303, 1.011e-3
-1.304, 1.011e-3
-1.305, 1.011e-3
-1.306, 1.011e-3
-1.307, 1.011e-3
-1.308, 1.011e-3
-1.309, 1.011e-3
-1.310, 1.011e-3
-1.311, 1.011e-3
-1.312, 1.011e-3
-1.313, 1.011e-3
-1.314, 1.011e-3
-1.315, 1.011e-3
-1.316, 1.011e-3
-1.317, 1.011e-3
-1.318, 1.011e-3
-1.319, 1.011e-3
-1.320, 1.011e-3
-1.321, 1.011e-3
-1.322, 1.011e-3
-1.323, 1.011e-3
-1.324, 1.011e-3
-1.325, 1.011e-3
-1.326, 1.011e-3
-1.327, 1.011e-3
-1.328, 1.011e-3
-1.329, 1.011e-3
-1.330, 1.011e-3
-1.331, 1.011e-3
-1.332, 1.011e-3
-1.333, 1.011e-3
-1.334, 1.011e-3
-1.335, 1.011e-3
-1.336, 1.011e-3
-1.337, 1.011e-3
-1.338, 1.011e-3
-1.339, 1.011e-3
-1.340, 1.011e-3
-1.341, 1.011e-3
-1.342, 1.011e-3
-1.343, 1.011e-3
-1.344, 1.011e-3
-1.345, 1.011e-3
-1.346, 1.011e-3
-1.347, 1.011e-3
-1.348, 1.011e-3
-1.349, 1.011e-3
-1.350, 1.011e-3
-1.351, 1.011e-3
-1.352, 1.011e-3
-1.353, 1.011e-3
-1.354, 1.011e-3
-1.355, 1.011e-3
-1.356, 1.011e-3
-1.357, 1.011e-3
-1.358, 1.011e-3
-1.359, 1.011e-3
-1.360, 1.011e-3
-1.361, 1.011e-3
-1.362, 1.011e-3
-1.363, 1.011e-3
-1.364, 1.011e-3
-1.365, 1.011e-3
-1.366, 1.011e-3
-1.367, 1.011e-3
-1.368, 1.011e-3
-1.369, 1.011e-3
-1.370, 1.011e-3
-1.371, 1.011e-3
-1.372, 1.011e-3
-1.373, 1.011e-3
-1.374, 1.011e-3
-1.375, 1.011e-3
-1.376, 1.011e-3
-1.377, 1.011e-3
-1.378, 1.011e-3
-1.379, 1.011e-3
-1.380, 1.011e-3
-1.381, 1.011e-3
-1.382, 1.011e-3
-1.383, 1.011e-3
-1.384, 1.011e-3
-1.385, 1.011e-3
-1.386, 1.011e-3
-1.387, 1.011e-3
-1.388, 1.011e-3
-1.389, 1.011e-3
-1.390, 1.011e-3
-1.391, 1.011e-3
-1.392, 1.011e-3
-1.393, 1.011e-3
-1.394, 1.011e-3
-1.395, 1.011e-3
-1.396, 1.011e-3
-1.397, 1.011e-3
-1.398, 1.011e-3
-1.399, 1.011e-3
-1.400, 1.011e-3
-1.401, 1.011e-3
-1.402, 1.011e-3
-1.403, 1.011e-3
-1.404, 1.011e-3
-1.405, 1.011e-3
-1.406, 1.011e-3
-1.407, 1.011e-3
-1.408, 1.011e-3
-1.409, 1.011e-3
-1.410, 1.011e-3
-1.411, 1.011e-3
-1.412, 1.011e-3
-1.413, 1.011e-3
-1.414, 1.011e-3
-1.415, 1.011e-3
-1.416, 1.011e-3
-1.417, 1.011e-3
-1.418, 1.011e-3
-1.419, 1.011e-3
-1.420, 1.011e-3
-1.421, 1.011e-3
-1.422, 1.011e-3
-1.423, 1.011e-3
-1.424, 1.011e-3
-1.425, 1.011e-3
-1.426, 1.011e-3
-1.427, 1.011e-3
-1.428, 1.011e-3
-1.429, 1.011e-3
-1.430, 1.011e-3
-1.431, 1.011e-3
-1.432, 1.011e-3
-1.433, 1.011e-3
-1.434, 1.011e-3
-1.435, 1.011e-3
-1.436, 1.011e-3
-1.437, 1.011e-3
-1.438, 1.011e-3
-1.439, 1.011e-3
-1.440, 1.011e-3
-1.441, 1.011e-3
-1.442, 1.011e-3
-1.443, 1.011e-3
-1.444, 1.011e-3
-1.445, 1.011e-3
-1.446, 1.011e-3
-1.447, 1.011e-3
-1.448, 1.011e-3
-1.449, 1.011e-3
-1.450, 1.011e-3
-1.451, 1.011e-3
-1.452, 1.011e-3
-1.453, 1.011e-3
-1.454, 1.011e-3
-1.455, 1.011e-3
-1.456, 1.011e-3
-1.457, 1.011e-3
-1.458, 1.011e-3
-1.459, 1.011e-3
-1.460, 1.011e-3
-1.461, 1.011e-3
-1.462, 1.011e-3
-1.463, 1.011e-3
-1.464, 1.011e-3
-1.465, 1.011e-3
-1.466, 1.011e-3
-1.467, 1.011e-3
-1.468, 1.011e-3
-1.469, 1.011e-3
-1.470, 1.011e-3
-1.471, 1.011e-3
-1.472, 1.011e-3
-1.473, 1.011e-3
-1.474, 1.011e-3
-1.475, 1.011e-3
-1.476, 1.011e-3
-1.477, 1.011e-3
-1.478, 1.011e-3
-1.479, 1.011e-3
-1.480, 1.011e-3
-1.481, 1.011e-3
-1.482, 1.011e-3
-1.483, 1.011e-3
-1.484, 1.011e-3
-1.485, 1.011e-3
-1.486, 1.011e-3
-1.487, 1.011e-3
-1.488, 1.011e-3
-1.489, 1.011e-3
-1.490, 1.011e-3
-1.491, 1.011e-3
-1.492, 1.011e-3
-1.493, 1.011e-3
-1.494, 1.011e-3
-1.495, 1.011e-3
-1.496, 1.011e-3
-1.497, 1.011e-3
-1.498, 1.011e-3
-1.499, 1.011e-3
-1.500, 1.011e-3
-1.501, 1.011e-3
-1.502, 1.011e-3
-1.503, 1.011e-3
-1.504, 1.011e-3
-1.505, 1.011e-3
-1.506, 1.011e-3
-1.507, 1.011e-3
-1.508, 1.011e-3
-1.509, 1.011e-3
-1.510, 1.011e-3
-1.511, 1.011e-3
-1.512, 1.011e-3
-1.513, 1.011e-3
-1.514, 1.011e-3
-1.515, 1.011e-3
-1.516, 1.011e-3
-1.517, 1.011e-3
-1.518, 1.011e-3
-1.519, 1.011e-3
-1.520, 1.011e-3
-1.521, 1.011e-3
-1.522, 1.011e-3
-1.523, 1.011e-3
-1.524, 1.011e-3
-1.525, 1.011e-3
-1.526, 1.011e-3
-1.527, 1.011e-3
-1.528, 1.011e-3
-1.529, 1.011e-3
-1.530, 1.011e-3
-1.531, 1.011e-3
-1.532, 1.011e-3
-1.533, 1.011e-3
-1.534, 1.011e-3
-1.535, 1.011e-3
-1.536, 1.011e-3
-1.537, 1.011e-3
-1.538, 1.011e-3
-1.539, 1.011e-3
-1.540, 1.011e-3
-1.541, 1.011e-3
-1.542, 1.011e-3
-1.543, 1.011e-3
-1.544, 1.011e-3
-1.545, 1.011e-3
-1.546, 1.011e-3
-1.547, 1.011e-3
-1.548, 1.011e-3
-1.549, 1.011e-3
-1.550, 1.011e-3
-1.551, 1.011e-3
-1.552, 1.011e-3
-1.553, 1.011e-3
-1.554, 1.011e-3
-1.555, 1.011e-3
-1.556, 1.011e-3
-1.557, 1.011e-3
-1.558, 1.011e-3
-1.559, 1.011e-3
-1.560, 1.011e-3
-1.561, 1.011e-3
-1.562, 1.011e-3
-1.563, 1.011e-3
-1.564, 1.011e-3
-1.565, 1.011e-3
-1.566, 1.011e-3
-1.567, 1.011e-3
-1.568, 1.011e-3
-1.569, 1.011e-3
-1.570, 1.011e-3
-1.571, 1.011e-3
-1.572, 1.011e-3
-1.573, 1.011e-3
-1.574, 1.011e-3
-1.575, 1.011e-3
-1.576, 1.011e-3
-1.577, 1.011e-3
-1.578, 1.011e-3
-1.579, 1.011e-3
-1.580, 1.011e-3
-1.581, 1.011e-3
-1.582, 1.011e-3
-1.583, 1.011e-3
-1.584, 1.011e-3
-1.585, 1.011e-3
-1.586, 1.011e-3
-1.587, 1.011e-3
-1.588, 1.011e-3
-1.589, 1.011e-3
-1.590, 1.011e-3
-1.591, 1.011e-3
-1.592, 1.011e-3
-1.593, 1.011e-3
-1.594, 1.011e-3
-1.595, 1.011e-3
-1.596, 1.011e-3
-1.597, 1.011e-3
-1.598, 1.011e-3
-1.599, 1.011e-3
-1.600, 1.011e-3
-1.601, 1.011e-3
-1.602, 1.011e-3
-1.603, 1.011e-3
-1.604, 1.011e-3
-1.605, 1.011e-3
-1.606, 1.011e-3
-1.607, 1.011e-3
-1.608, 1.011e-3
-1.609, 1.011e-3
-1.610, 1.011e-3
-1.611, 1.011e-3
-1.612, 1.011e-3
-1.613, 1.011e-3
-1.614, 1.011e-3
-1.615, 1.011e-3
-1.616, 1.011e-3
-1.617, 1.011e-3
-1.618, 1.011e-3
-1.619, 1.011e-3
-1.620, 1.011e-3
-1.621, 1.011e-3
-1.622, 1.011e-3
-1.623, 1.011e-3
-1.624, 1.011e-3
-1.625, 1.011e-3
-1.626, 1.011e-3
-1.627, 1.011e-3
-1.628, 1.011e-3
-1.629, 1.011e-3
-1.630, 1.011e-3
-1.631, 1.011e-3
-1.632, 1.011e-3
-1.633, 1.011e-3
-1.634, 1.011e-3
-1.635, 1.011e-3
-1.636, 1.011e-3
-1.637, 1.011e-3
-1.638, 1.011e-3
-1.639, 1.011e-3
-1.640, 1.011e-3
-1.641, 1.011e-3
-1.642, 1.011e-3
-1.643, 1.011e-3
-1.644, 1.011e-3
-1.645, 1.011e-3
-1.646, 1.011e-3
-1.647, 1.011e-3
-1.648, 1.011e-3
-1.649, 1.011e-3
-1.650, 1.011e-3
-1.651, 1.011e-3
-1.652, 1.011e-3
-1.653, 1.011e-3
-1.654, 1.011e-3
-1.655, 1.011e-3
-1.656, 1.011e-3
-1.657, 1.011e-3
-1.658, 1.011e-3
-1.659, 1.011e-3
-1.660, 1.011e-3
-1.661, 1.011e-3
-1.662, 1.011e-3
-1.663, 1.011e-3
-1.664, 1.011e-3
-1.665, 1.011e-3
-1.666, 1.011e-3
-1.667, 1.011e-3
-1.668, 1.011e-3
-1.669, 1.011e-3
-1.670, 1.011e-3
-1.671, 1.011e-3
-1.672, 1.011e-3
-1.673, 1.011e-3
-1.674, 1.011e-3
-1.675, 1.011e-3
-1.676, 1.011e-3
-1.677, 1.011e-3
-1.678, 1.011e-3
-1.679, 1.011e-3
-1.680, 1.011e-3
-1.681, 1.011e-3
-1.682, 1.011e-3
-1.683, 1.011e-3
-1.684, 1.011e-3
-1.685, 1.011e-3
-1.686, 1.011e-3
-1.687, 1.011e-3
-1.688, 1.011e-3
-1.689, 1.011e-3
-1.690, 1.011e-3
-1.691, 1.011e-3
-1.692, 1.011e-3
-1.693, 1.011e-3
-1.694, 1.011e-3
-1.695, 1.011e-3
-1.696, 1.011e-3
-1.697, 1.011e-3
-1.698, 1.011e-3
-1.699, 1.011e-3
-1.700, 1.011e-3
-1.701, 1.011e-3
-1.702, 1.011e-3
-1.703, 1.011e-3
-1.704, 1.011e-3
-1.705, 1.011e-3
-1.706, 1.011e-3
-1.707, 1.011e-3
-1.708, 1.011e-3
-1.709, 1.011e-3
-1.710, 1.011e-3
-1.711, 1.011e-3
-1.712, 1.011e-3
-1.713, 1.011e-3
-1.714, 1.011e-3
-1.715, 1.011e-3
-1.716, 1.011e-3
-1.717, 1.011e-3
-1.718, 1.011e-3
-1.719, 1.011e-3
-1.720, 1.011e-3
-1.721, 1.011e-3
-1.722, 1.011e-3
-1.723, 1.011e-3
-1.724, 1.011e-3
-1.725, 1.011e-3
-1.726, 1.011e-3
-1.727, 1.011e-3
-1.728, 1.011e-3
-1.729, 1.011e-3
-1.730, 1.011e-3
-1.731, 1.011e-3
-1.732, 1.011e-3
-1.733, 1.011e-3
-1.734, 1.011e-3
-1.735, 1.011e-3
-1.736, 1.011e-3
-1.737, 1.011e-3
-1.738, 1.011e-3
-1.739, 1.011e-3
-1.740, 1.011e-3
-1.741, 1.011e-3
-1.742, 1.011e-3
-1.743, 1.011e-3
-1.744, 1.011e-3
-1.745, 1.011e-3
-1.746, 1.011e-3
-1.747, 1.011e-3
-1.748, 1.011e-3
-1.749, 1.011e-3
-1.750, 1.011e-3
-1.751, 1.011e-3
-1.752, 1.011e-3
-1.753, 1.011e-3
-1.754, 1.011e-3
-1.755, 1.011e-3
-1.756, 1.011e-3
-1.757, 1.011e-3
-1.758, 1.011e-3
-1.759, 1.011e-3
-1.760, 1.011e-3
-1.761, 1.011e-3
-1.762, 1.011e-3
-1.763, 1.011e-3
-1.764, 1.011e-3
-1.765, 1.011e-3
-1.766, 1.011e-3
-1.767, 1.011e-3
-1.768, 1.011e-3
-1.769, 1.011e-3
-1.770, 1.011e-3
-1.771, 1.011e-3
-1.772, 1.011e-3
-1.773, 1.011e-3
-1.774, 1.011e-3
-1.775, 1.011e-3
-1.776, 1.011e-3
-1.777, 1.011e-3
-1.778, 1.011e-3
-1.779, 1.011e-3
-1.780, 1.011e-3
-1.781, 1.011e-3
-1.782, 1.011e-3
-1.783, 1.011e-3
-1.784, 1.011e-3
-1.785, 1.011e-3
-1.786, 1.011e-3
-1.787, 1.011e-3
-1.788, 1.011e-3
-1.789, 1.011e-3
-1.790, 1.011e-3
-1.791, 1.011e-3
-1.792, 1.011e-3
-1.793, 1.011e-3
-1.794, 1.011e-3
-1.795, 1.011e-3
-1.796, 1.011e-3
-1.797, 1.011e-3
-1.798, 1.011e-3
-1.799, 1.011e-3
-1.800, 1.011e-3
-1.801, 1.011e-3
-1.802, 1.011e-3
-1.803, 1.011e-3
-1.804, 1.011e-3
-1.805, 1.011e-3
-1.806, 1.011e-3
-1.807, 1.011e-3
-1.808, 1.011e-3
-1.809, 1.011e-3
-1.810, 1.011e-3
-1.811, 1.011e-3
-1.812, 1.011e-3
-1.813, 1.011e-3
-1.814, 1.011e-3
-1.815, 1.011e-3
-1.816, 1.011e-3
-1.817, 1.011e-3
-1.818, 1.011e-3
-1.819, 1.011e-3
-1.820, 1.011e-3
-1.821, 1.011e-3
-1.822, 1.011e-3
-1.823, 1.011e-3
-1.824, 1.011e-3
-1.825, 1.011e-3
-1.826, 1.011e-3
-1.827, 1.011e-3
-1.828, 1.011e-3
-1.829, 1.011e-3
-1.830, 1.011e-3
-1.831, 1.011e-3
-1.832, 1.011e-3
-1.833, 1.011e-3
-1.834, 1.011e-3
-1.835, 1.011e-3
-1.836, 1.011e-3
-1.837, 1.011e-3
-1.838, 1.011e-3
-1.839, 1.011e-3
-1.840, 1.011e-3
-1.841, 1.011e-3
-1.842, 1.011e-3
-1.843, 1.011e-3
-1.844, 1.011e-3
-1.845, 1.011e-3
-1.846, 1.011e-3
-1.847, 1.011e-3
-1.848, 1.011e-3
-1.849, 1.011e-3
-1.850, 1.011e-3
-1.851, 1.011e-3
-1.852, 1.011e-3
-1.853, 1.011e-3
-1.854, 1.011e-3
-1.855, 1.011e-3
-1.856, 1.011e-3
-1.857, 1.011e-3
-1.858, 1.011e-3
-1.859, 1.011e-3
-1.860, 1.011e-3
-1.861, 1.011e-3
-1.862, 1.011e-3
-1.863, 1.011e-3
-1.864, 1.011e-3
-1.865, 1.011e-3
-1.866, 1.011e-3
-1.867, 1.011e-3
-1.868, 1.011e-3
-1.869, 1.011e-3
-1.870, 1.011e-3
-1.871, 1.011e-3
-1.872, 1.011e-3
-1.873, 1.011e-3
-1.874, 1.011e-3
-1.875, 1.011e-3
-1.876, 1.011e-3
-1.877, 1.011e-3
-1.878, 1.011e-3
-1.879, 1.011e-3
-1.880, 1.011e-3
-1.881, 1.011e-3
-1.882, 1.011e-3
-1.883, 1.011e-3
-1.884, 1.011e-3
-1.885, 1.011e-3
-1.886, 1.011e-3
-1.887, 1.011e-3
-1.888, 1.011e-3
-1.889, 1.011e-3
-1.890, 1.011e-3
-1.891, 1.011e-3
-1.892, 1.011e-3
-1.893, 1.011e-3
-1.894, 1.011e-3
-1.895, 1.011e-3
-1.896, 1.011e-3
-1.897, 1.011e-3
-1.898, 1.011e-3
-1.899, 1.011e-3
-1.900, 1.011e-3
-1.901, 1.011e-3
-1.902, 1.011e-3
-1.903, 1.011e-3
-1.904, 1.011e-3
-1.905, 1.011e-3
-1.906, 1.011e-3
-1.907, 1.011e-3
-1.908, 1.011e-3
-1.909, 1.011e-3
-1.910, 1.011e-3
-1.911, 1.011e-3
-1.912, 1.011e-3
-1.913, 1.011e-3
-1.914, 1.011e-3
-1.915, 1.011e-3
-1.916, 1.011e-3
-1.917, 1.011e-3
-1.918, 1.011e-3
-1.919, 1.011e-3
-1.920, 1.011e-3
-1.921, 1.011e-3
-1.922, 1.011e-3
-1.923, 1.011e-3
-1.924, 1.011e-3
-1.925, 1.011e-3
-1.926, 1.011e-3
-1.927, 1.011e-3
-1.928, 1.011e-3
-1.929, 1.011e-3
-1.930, 1.011e-3
-1.931, 1.011e-3
-1.932, 1.011e-3
-1.933, 1.011e-3
-1.934, 1.011e-3
-1.935, 1.011e-3
-1.936, 1.011e-3
-1.937, 1.011e-3
-1.938, 1.011e-3
-1.939, 1.011e-3
-1.940, 1.011e-3
-1.941, 1.011e-3
-1.942, 1.011e-3
-1.943, 1.011e-3
-1.944, 1.011e-3
-1.945, 1.011e-3
-1.946, 1.011e-3
-1.947, 1.011e-3
-1.948, 1.011e-3
-1.949, 1.011e-3
-1.950, 1.011e-3
-1.951, 1.011e-3
-1.952, 1.011e-3
-1.953, 1.011e-3
-1.954, 1.011e-3
-1.955, 1.011e-3
-1.956, 1.011e-3
-1.957, 1.011e-3
-1.958, 1.011e-3
-1.959, 1.011e-3
-1.960, 1.011e-3
-1.961, 1.011e-3
-1.962, 1.011e-3
-1.963, 1.011e-3
-1.964, 1.011e-3
-1.965, 1.011e-3
-1.966, 1.011e-3
-1.967, 1.011e-3
-1.968, 1.011e-3
-1.969, 1.011e-3
-1.970, 1.011e-3
-1.971, 1.011e-3
-1.972, 1.011e-3
-1.973, 1.011e-3
-1.974, 1.011e-3
-1.975, 1.011e-3
-1.976, 1.011e-3
-1.977, 1.011e-3
-1.978, 1.011e-3
-1.979, 1.011e-3
-1.980, 1.011e-3
-1.981, 1.011e-3
-1.982, 1.011e-3
-1.983, 1.011e-3
-1.984, 1.011e-3
-1.985, 1.011e-3
-1.986, 1.011e-3
-1.987, 1.011e-3
-1.988, 1.011e-3
-1.989, 1.011e-3
-1.990, 1.011e-3
-1.991, 1.011e-3
-1.992, 1.011e-3
-1.993, 1.011e-3
-1.994, 1.011e-3
-1.995, 1.011e-3
-1.996, 1.011e-3
-1.997, 1.011e-3
-1.998, 1.011e-3
-1.999, 1.011e-3
-2.000, 1.011e-3
-2.001, 1.011e-3
-2.002, 1.011e-3
-2.003, 1.011e-3
-2.004, 1.011e-3
-2.005, 1.011e-3
-2.006, 1.011e-3
-2.007, 1.011e-3
-2.008, 1.011e-3
-2.009, 1.011e-3
-2.010, 1.011e-3
-2.011, 1.011e-3
-2.012, 1.011e-3
-2.013, 1.011e-3
-2.014, 1.011e-3
-2.015, 1.011e-3
-2.016, 1.011e-3
-2.017, 1.011e-3
-2.018, 1.011e-3
-2.019, 1.011e-3
-2.020, 1.011e-3
-2.021, 1.011e-3
-2.022, 1.011e-3
-2.023, 1.011e-3
-2.024, 1.011e-3
-2.025, 1.011e-3
-2.026, 1.011e-3
-2.027, 1.011e-3
-2.028, 1.011e-3
-2.029, 1.011e-3
-2.030, 1.011e-3
-2.031, 1.011e-3
-2.032, 1.011e-3
-2.033, 1.011e-3
-2.034, 1.011e-3
-2.035, 1.011e-3
-2.036, 1.011e-3
-2.037, 1.011e-3
-2.038, 1.011e-3
-2.039, 1.011e-3
-2.040, 1.011e-3
-2.041, 1.011e-3
-2.042, 1.011e-3
-2.043, 1.011e-3
-2.044, 1.011e-3
-2.045, 1.011e-3
-2.046, 1.011e-3
-2.047, 1.011e-3
-2.048, 1.011e-3
-2.049, 1.011e-3
-2.050, 1.011e-3
-2.051, 1.011e-3
-2.052, 1.011e-3
-2.053, 1.011e-3
-2.054, 1.011e-3
-2.055, 1.011e-3
-2.056, 1.011e-3
-2.057, 1.011e-3
-2.058, 1.011e-3
-2.059, 1.011e-3
-2.060, 1.011e-3
-2.061, 1.011e-3
-2.062, 1.011e-3
-2.063, 1.011e-3
-2.064, 1.011e-3
-2.065, 1.011e-3
-2.066, 1.011e-3
-2.067, 1.011e-3
-2.068, 1.011e-3
-2.069, 1.011e-3
-2.070, 1.011e-3
-2.071, 1.011e-3
-2.072, 1.011e-3
-2.073, 1.011e-3
-2.074, 1.011e-3
-2.075, 1.011e-3
-2.076, 1.011e-3
-2.077, 1.011e-3
-2.078, 1.011e-3
-2.079, 1.011e-3
-2.080, 1.011e-3
-2.081, 1.011e-3
-2.082, 1.011e-3
-2.083, 1.011e-3
-2.084, 1.011e-3
-2.085, 1.011e-3
-2.086, 1.011e-3
-2.087, 1.011e-3
-2.088, 1.011e-3
-2.089, 1.011e-3
-2.090, 1.011e-3
-2.091, 1.011e-3
-2.092, 1.011e-3
-2.093, 1.011e-3
-2.094, 1.011e-3
-2.095, 1.011e-3
-2.096, 1.011e-3
-2.097, 1.011e-3
-2.098, 1.011e-3
-2.099, 1.011e-3
