Apr. 20, 2025   06:34:49
Cyclic Voltammetry
File: c:/users/guazh/data/banditlqround7_x0exp590_r20/2025-04-16-exp1134\exp1134-2025-04-20t06_18_01-arkoh\exp1134_cv_sr_900mvs_efin_-1700mv.bin
Data Source:  Experiment
Instrument Model:  CHI760E
Header: CV ran at 900 mVs
Note: 

Init E (V) = -1
High E (V) = -1
Low E (V) = -1.7
Final E (V) = -1
Init P/N = N
Scan Rate (V/s) = 0.9
Segment = 3
Sample Interval (V) = 0.001
Quiet Time (sec) = 2
Sensitivity (A/V) = 0.01
Comp R (ohm) = 1.6

Results:

Channel 1:
Segment 1:

Segment 2:

Segment 3:

Potential/V, Current/A

-1.000, 2.174e-5
-1.001, 3.407e-5
-1.002, 3.715e-5
-1.003, 3.715e-5
-1.004, 4.024e-5
-1.005, 4.332e-5
-1.006, 4.332e-5
-1.007, 4.640e-5
-1.008, 4.640e-5
-1.009, 4.640e-5
-1.010, 4.332e-5
-1.011, 4.024e-5
-1.012, 4.332e-5
-1.013, 4.024e-5
-1.014, 4.024e-5
-1.015, 4.024e-5
-1.016, 4.024e-5
-1.017, 4.332e-5
-1.018, 4.332e-5
-1.019, 4.332e-5
-1.020, 4.640e-5
-1.021, 4.640e-5
-1.022, 4.949e-5
-1.023, 4.949e-5
-1.024, 4.640e-5
-1.025, 4.640e-5
-1.026, 4.640e-5
-1.027, 4.332e-5
-1.028, 4.332e-5
-1.029, 4.332e-5
-1.030, 4.332e-5
-1.031, 4.332e-5
-1.032, 4.332e-5
-1.033, 4.640e-5
-1.034, 4.640e-5
-1.035, 4.949e-5
-1.036, 4.949e-5
-1.037, 4.949e-5
-1.038, 4.949e-5
-1.039, 4.949e-5
-1.040, 4.949e-5
-1.041, 4.640e-5
-1.042, 4.640e-5
-1.043, 4.640e-5
-1.044, 4.640e-5
-1.045, 4.332e-5
-1.046, 4.332e-5
-1.047, 4.640e-5
-1.048, 4.640e-5
-1.049, 4.949e-5
-1.050, 4.949e-5
-1.051, 5.257e-5
-1.052, 5.257e-5
-1.053, 5.257e-5
-1.054, 5.257e-5
-1.055, 4.949e-5
-1.056, 4.949e-5
-1.057, 4.949e-5
-1.058, 4.640e-5
-1.059, 4.640e-5
-1.060, 4.640e-5
-1.061, 4.640e-5
-1.062, 4.640e-5
-1.063, 4.949e-5
-1.064, 4.949e-5
-1.065, 5.257e-5
-1.066, 5.565e-5
-1.067, 5.257e-5
-1.068, 5.565e-5
-1.069, 5.257e-5
-1.070, 5.257e-5
-1.071, 5.257e-5
-1.072, 4.949e-5
-1.073, 4.949e-5
-1.074, 4.949e-5
-1.075, 4.949e-5
-1.076, 4.949e-5
-1.077, 4.949e-5
-1.078, 4.949e-5
-1.079, 5.257e-5
-1.080, 5.257e-5
-1.081, 5.565e-5
-1.082, 5.565e-5
-1.083, 5.565e-5
-1.084, 5.565e-5
-1.085, 5.257e-5
-1.086, 5.257e-5
-1.087, 5.257e-5
-1.088, 4.949e-5
-1.089, 4.949e-5
-1.090, 4.949e-5
-1.091, 4.949e-5
-1.092, 4.949e-5
-1.093, 5.257e-5
-1.094, 5.257e-5
-1.095, 5.565e-5
-1.096, 5.873e-5
-1.097, 5.873e-5
-1.098, 5.873e-5
-1.099, 5.873e-5
-1.100, 5.565e-5
-1.101, 5.565e-5
-1.102, 5.565e-5
-1.103, 5.257e-5
-1.104, 5.257e-5
-1.105, 5.257e-5
-1.106, 5.257e-5
-1.107, 5.257e-5
-1.108, 5.565e-5
-1.109, 5.565e-5
-1.110, 5.873e-5
-1.111, 5.873e-5
-1.112, 5.873e-5
-1.113, 6.182e-5
-1.114, 5.873e-5
-1.115, 5.873e-5
-1.116, 5.565e-5
-1.117, 5.565e-5
-1.118, 5.565e-5
-1.119, 5.565e-5
-1.120, 5.257e-5
-1.121, 5.565e-5
-1.122, 5.565e-5
-1.123, 5.873e-5
-1.124, 5.873e-5
-1.125, 6.182e-5
-1.126, 6.182e-5
-1.127, 6.182e-5
-1.128, 6.182e-5
-1.129, 6.182e-5
-1.130, 6.182e-5
-1.131, 5.873e-5
-1.132, 5.873e-5
-1.133, 5.873e-5
-1.134, 5.565e-5
-1.135, 5.873e-5
-1.136, 5.565e-5
-1.137, 5.873e-5
-1.138, 5.873e-5
-1.139, 6.182e-5
-1.140, 6.182e-5
-1.141, 6.490e-5
-1.142, 6.490e-5
-1.143, 6.490e-5
-1.144, 6.490e-5
-1.145, 6.182e-5
-1.146, 6.182e-5
-1.147, 6.182e-5
-1.148, 5.873e-5
-1.149, 5.873e-5
-1.150, 5.873e-5
-1.151, 5.873e-5
-1.152, 5.873e-5
-1.153, 6.182e-5
-1.154, 6.490e-5
-1.155, 6.490e-5
-1.156, 6.798e-5
-1.157, 6.490e-5
-1.158, 6.798e-5
-1.159, 6.798e-5
-1.160, 6.490e-5
-1.161, 6.490e-5
-1.162, 6.490e-5
-1.163, 6.182e-5
-1.164, 6.182e-5
-1.165, 6.182e-5
-1.166, 6.182e-5
-1.167, 6.182e-5
-1.168, 6.490e-5
-1.169, 6.490e-5
-1.170, 6.798e-5
-1.171, 6.798e-5
-1.172, 6.798e-5
-1.173, 7.107e-5
-1.174, 6.798e-5
-1.175, 6.798e-5
-1.176, 6.490e-5
-1.177, 6.490e-5
-1.178, 6.490e-5
-1.179, 6.490e-5
-1.180, 6.182e-5
-1.181, 6.182e-5
-1.182, 6.490e-5
-1.183, 6.490e-5
-1.184, 6.798e-5
-1.185, 7.107e-5
-1.186, 7.107e-5
-1.187, 7.107e-5
-1.188, 7.107e-5
-1.189, 7.107e-5
-1.190, 6.798e-5
-1.191, 6.798e-5
-1.192, 6.798e-5
-1.193, 6.490e-5
-1.194, 6.490e-5
-1.195, 6.490e-5
-1.196, 6.490e-5
-1.197, 6.798e-5
-1.198, 6.798e-5
-1.199, 7.107e-5
-1.200, 7.107e-5
-1.201, 7.415e-5
-1.202, 7.415e-5
-1.203, 7.415e-5
-1.204, 7.415e-5
-1.205, 7.107e-5
-1.206, 7.107e-5
-1.207, 7.107e-5
-1.208, 6.798e-5
-1.209, 6.798e-5
-1.210, 6.798e-5
-1.211, 6.798e-5
-1.212, 6.798e-5
-1.213, 7.107e-5
-1.214, 7.415e-5
-1.215, 7.415e-5
-1.216, 7.415e-5
-1.217, 7.415e-5
-1.218, 7.723e-5
-1.219, 7.415e-5
-1.220, 7.415e-5
-1.221, 7.107e-5
-1.222, 7.107e-5
-1.223, 7.107e-5
-1.224, 6.798e-5
-1.225, 7.107e-5
-1.226, 7.107e-5
-1.227, 7.107e-5
-1.228, 7.415e-5
-1.229, 7.415e-5
-1.230, 7.415e-5
-1.231, 7.723e-5
-1.232, 7.723e-5
-1.233, 7.723e-5
-1.234, 7.723e-5
-1.235, 7.415e-5
-1.236, 7.415e-5
-1.237, 7.415e-5
-1.238, 7.107e-5
-1.239, 7.107e-5
-1.240, 7.107e-5
-1.241, 7.415e-5
-1.242, 7.415e-5
-1.243, 7.415e-5
-1.244, 7.723e-5
-1.245, 7.723e-5
-1.246, 8.032e-5
-1.247, 8.032e-5
-1.248, 8.032e-5
-1.249, 8.032e-5
-1.250, 7.723e-5
-1.251, 7.723e-5
-1.252, 7.723e-5
-1.253, 7.415e-5
-1.254, 7.415e-5
-1.255, 7.415e-5
-1.256, 7.415e-5
-1.257, 7.415e-5
-1.258, 7.723e-5
-1.259, 7.723e-5
-1.260, 8.032e-5
-1.261, 8.032e-5
-1.262, 8.032e-5
-1.263, 8.340e-5
-1.264, 8.032e-5
-1.265, 8.032e-5
-1.266, 7.723e-5
-1.267, 7.723e-5
-1.268, 7.415e-5
-1.269, 7.415e-5
-1.270, 7.415e-5
-1.271, 7.415e-5
-1.272, 7.723e-5
-1.273, 7.723e-5
-1.274, 8.032e-5
-1.275, 8.032e-5
-1.276, 8.340e-5
-1.277, 8.032e-5
-1.278, 8.340e-5
-1.279, 8.032e-5
-1.280, 8.032e-5
-1.281, 8.032e-5
-1.282, 8.032e-5
-1.283, 7.723e-5
-1.284, 7.723e-5
-1.285, 7.723e-5
-1.286, 7.723e-5
-1.287, 7.723e-5
-1.288, 8.032e-5
-1.289, 8.032e-5
-1.290, 8.340e-5
-1.291, 8.340e-5
-1.292, 8.340e-5
-1.293, 8.340e-5
-1.294, 8.340e-5
-1.295, 8.340e-5
-1.296, 8.032e-5
-1.297, 8.032e-5
-1.298, 7.723e-5
-1.299, 7.723e-5
-1.300, 7.723e-5
-1.301, 7.723e-5
-1.302, 8.032e-5
-1.303, 8.032e-5
-1.304, 8.340e-5
-1.305, 8.340e-5
-1.306, 8.648e-5
-1.307, 8.340e-5
-1.308, 8.340e-5
-1.309, 8.648e-5
-1.310, 8.340e-5
-1.311, 8.340e-5
-1.312, 8.032e-5
-1.313, 8.032e-5
-1.314, 8.032e-5
-1.315, 8.032e-5
-1.316, 8.032e-5
-1.317, 8.032e-5
-1.318, 8.340e-5
-1.319, 8.340e-5
-1.320, 8.340e-5
-1.321, 8.648e-5
-1.322, 8.648e-5
-1.323, 8.648e-5
-1.324, 8.648e-5
-1.325, 8.648e-5
-1.326, 8.340e-5
-1.327, 8.340e-5
-1.328, 8.032e-5
-1.329, 8.032e-5
-1.330, 8.032e-5
-1.331, 8.032e-5
-1.332, 8.340e-5
-1.333, 8.340e-5
-1.334, 8.648e-5
-1.335, 8.648e-5
-1.336, 8.957e-5
-1.337, 8.957e-5
-1.338, 8.957e-5
-1.339, 8.648e-5
-1.340, 8.648e-5
-1.341, 8.648e-5
-1.342, 8.648e-5
-1.343, 8.340e-5
-1.344, 8.340e-5
-1.345, 8.340e-5
-1.346, 8.340e-5
-1.347, 8.340e-5
-1.348, 8.648e-5
-1.349, 8.648e-5
-1.350, 8.957e-5
-1.351, 8.957e-5
-1.352, 8.957e-5
-1.353, 9.265e-5
-1.354, 8.957e-5
-1.355, 8.957e-5
-1.356, 8.957e-5
-1.357, 8.957e-5
-1.358, 8.648e-5
-1.359, 8.648e-5
-1.360, 8.648e-5
-1.361, 8.648e-5
-1.362, 8.957e-5
-1.363, 8.957e-5
-1.364, 9.265e-5
-1.365, 9.265e-5
-1.366, 9.573e-5
-1.367, 9.573e-5
-1.368, 9.573e-5
-1.369, 9.265e-5
-1.370, 9.265e-5
-1.371, 9.265e-5
-1.372, 9.265e-5
-1.373, 9.265e-5
-1.374, 8.957e-5
-1.375, 9.265e-5
-1.376, 9.265e-5
-1.377, 9.265e-5
-1.378, 9.573e-5
-1.379, 9.573e-5
-1.380, 9.882e-5
-1.381, 1.019e-4
-1.382, 1.019e-4
-1.383, 1.019e-4
-1.384, 1.019e-4
-1.385, 1.019e-4
-1.386, 1.019e-4
-1.387, 1.019e-4
-1.388, 9.882e-5
-1.389, 1.019e-4
-1.390, 1.019e-4
-1.391, 1.019e-4
-1.392, 1.019e-4
-1.393, 1.050e-4
-1.394, 1.081e-4
-1.395, 1.111e-4
-1.396, 1.111e-4
-1.397, 1.142e-4
-1.398, 1.142e-4
-1.399, 1.173e-4
-1.400, 1.173e-4
-1.401, 1.173e-4
-1.402, 1.173e-4
-1.403, 1.173e-4
-1.404, 1.173e-4
-1.405, 1.173e-4
-1.406, 1.173e-4
-1.407, 1.204e-4
-1.408, 1.235e-4
-1.409, 1.296e-4
-1.410, 1.327e-4
-1.411, 1.327e-4
-1.412, 1.358e-4
-1.413, 1.389e-4
-1.414, 1.420e-4
-1.415, 1.420e-4
-1.416, 1.420e-4
-1.417, 1.451e-4
-1.418, 1.451e-4
-1.419, 1.451e-4
-1.420, 1.512e-4
-1.421, 1.512e-4
-1.422, 1.543e-4
-1.423, 1.605e-4
-1.424, 1.636e-4
-1.425, 1.697e-4
-1.426, 1.728e-4
-1.427, 1.759e-4
-1.428, 1.821e-4
-1.429, 1.851e-4
-1.430, 1.882e-4
-1.431, 1.913e-4
-1.432, 1.944e-4
-1.433, 1.975e-4
-1.434, 2.006e-4
-1.435, 2.067e-4
-1.436, 2.129e-4
-1.437, 2.160e-4
-1.438, 2.221e-4
-1.439, 2.314e-4
-1.440, 2.376e-4
-1.441, 2.437e-4
-1.442, 2.499e-4
-1.443, 2.591e-4
-1.444, 2.653e-4
-1.445, 2.715e-4
-1.446, 2.776e-4
-1.447, 2.869e-4
-1.448, 2.900e-4
-1.449, 2.992e-4
-1.450, 3.085e-4
-1.451, 3.146e-4
-1.452, 3.270e-4
-1.453, 3.362e-4
-1.454, 3.485e-4
-1.455, 3.578e-4
-1.456, 3.701e-4
-1.457, 3.825e-4
-1.458, 3.948e-4
-1.459, 4.040e-4
-1.460, 4.164e-4
-1.461, 4.256e-4
-1.462, 4.380e-4
-1.463, 4.503e-4
-1.464, 4.626e-4
-1.465, 4.750e-4
-1.466, 4.873e-4
-1.467, 4.996e-4
-1.468, 5.181e-4
-1.469, 5.335e-4
-1.470, 5.520e-4
-1.471, 5.705e-4
-1.472, 5.859e-4
-1.473, 6.044e-4
-1.474, 6.229e-4
-1.475, 6.384e-4
-1.476, 6.569e-4
-1.477, 6.754e-4
-1.478, 6.908e-4
-1.479, 7.093e-4
-1.480, 7.278e-4
-1.481, 7.463e-4
-1.482, 7.648e-4
-1.483, 7.863e-4
-1.484, 8.110e-4
-1.485, 8.326e-4
-1.486, 8.603e-4
-1.487, 8.850e-4
-1.488, 9.097e-4
-1.489, 9.343e-4
-1.490, 9.590e-4
-1.491, 9.837e-4
-1.492, 1.008e-3
-1.493, 1.030e-3
-1.494, 1.055e-3
-1.495, 1.076e-3
-1.496, 1.101e-3
-1.497, 1.129e-3
-1.498, 1.159e-3
-1.499, 1.187e-3
-1.500, 1.215e-3
-1.501, 1.249e-3
-1.502, 1.280e-3
-1.503, 1.314e-3
-1.504, 1.347e-3
-1.505, 1.381e-3
-1.506, 1.412e-3
-1.507, 1.443e-3
-1.508, 1.474e-3
-1.509, 1.502e-3
-1.510, 1.536e-3
-1.511, 1.566e-3
-1.512, 1.600e-3
-1.513, 1.634e-3
-1.514, 1.674e-3
-1.515, 1.711e-3
-1.516, 1.754e-3
-1.517, 1.795e-3
-1.518, 1.835e-3
-1.519, 1.878e-3
-1.520, 1.918e-3
-1.521, 1.958e-3
-1.522, 1.998e-3
-1.523, 2.035e-3
-1.524, 2.075e-3
-1.525, 2.112e-3
-1.526, 2.149e-3
-1.527, 2.189e-3
-1.528, 2.232e-3
-1.529, 2.279e-3
-1.530, 2.328e-3
-1.531, 2.377e-3
-1.532, 2.430e-3
-1.533, 2.482e-3
-1.534, 2.531e-3
-1.535, 2.581e-3
-1.536, 2.627e-3
-1.537, 2.676e-3
-1.538, 2.723e-3
-1.539, 2.769e-3
-1.540, 2.812e-3
-1.541, 2.858e-3
-1.542, 2.904e-3
-1.543, 2.957e-3
-1.544, 3.009e-3
-1.545, 3.068e-3
-1.546, 3.126e-3
-1.547, 3.185e-3
-1.548, 3.244e-3
-1.549, 3.305e-3
-1.550, 3.361e-3
-1.551, 3.416e-3
-1.552, 3.472e-3
-1.553, 3.524e-3
-1.554, 3.577e-3
-1.555, 3.629e-3
-1.556, 3.681e-3
-1.557, 3.737e-3
-1.558, 3.795e-3
-1.559, 3.857e-3
-1.560, 3.922e-3
-1.561, 3.990e-3
-1.562, 4.058e-3
-1.563, 4.125e-3
-1.564, 4.190e-3
-1.565, 4.258e-3
-1.566, 4.320e-3
-1.567, 4.378e-3
-1.568, 4.437e-3
-1.569, 4.498e-3
-1.570, 4.554e-3
-1.571, 4.612e-3
-1.572, 4.677e-3
-1.573, 4.742e-3
-1.574, 4.810e-3
-1.575, 4.881e-3
-1.576, 4.955e-3
-1.577, 5.029e-3
-1.578, 5.103e-3
-1.579, 5.177e-3
-1.580, 5.248e-3
-1.581, 5.315e-3
-1.582, 5.383e-3
-1.583, 5.448e-3
-1.584, 5.510e-3
-1.585, 5.574e-3
-1.586, 5.639e-3
-1.587, 5.707e-3
-1.588, 5.778e-3
-1.589, 5.852e-3
-1.590, 5.929e-3
-1.591, 6.006e-3
-1.592, 6.086e-3
-1.593, 6.169e-3
-1.594, 6.250e-3
-1.595, 6.327e-3
-1.596, 6.401e-3
-1.597, 6.472e-3
-1.598, 6.539e-3
-1.599, 6.607e-3
-1.600, 6.675e-3
-1.601, 6.746e-3
-1.602, 6.817e-3
-1.603, 6.891e-3
-1.604, 6.971e-3
-1.605, 7.051e-3
-1.606, 7.134e-3
-1.607, 7.221e-3
-1.608, 7.304e-3
-1.609, 7.390e-3
-1.610, 7.471e-3
-1.611, 7.545e-3
-1.612, 7.622e-3
-1.613, 7.693e-3
-1.614, 7.763e-3
-1.615, 7.834e-3
-1.616, 7.905e-3
-1.617, 7.979e-3
-1.618, 8.056e-3
-1.619, 8.140e-3
-1.620, 8.223e-3
-1.621, 8.309e-3
-1.622, 8.399e-3
-1.623, 8.485e-3
-1.624, 8.571e-3
-1.625, 8.654e-3
-1.626, 8.735e-3
-1.627, 8.812e-3
-1.628, 8.886e-3
-1.629, 8.957e-3
-1.630, 9.031e-3
-1.631, 9.101e-3
-1.632, 9.179e-3
-1.633, 9.259e-3
-1.634, 9.342e-3
-1.635, 9.428e-3
-1.636, 9.518e-3
-1.637, 9.610e-3
-1.638, 9.703e-3
-1.639, 9.795e-3
-1.640, 9.882e-3
-1.641, 9.962e-3
-1.642, 1.004e-2
-1.643, 1.012e-2
-1.644, 1.019e-2
-1.645, 1.027e-2
-1.646, 1.034e-2
-1.647, 1.042e-2
-1.648, 1.050e-2
-1.649, 1.059e-2
-1.650, 1.068e-2
-1.651, 1.077e-2
-1.652, 1.087e-2
-1.653, 1.096e-2
-1.654, 1.105e-2
-1.655, 1.114e-2
-1.656, 1.123e-2
-1.657, 1.131e-2
-1.658, 1.139e-2
-1.659, 1.147e-2
-1.660, 1.154e-2
-1.661, 1.162e-2
-1.662, 1.170e-2
-1.663, 1.179e-2
-1.664, 1.188e-2
-1.665, 1.197e-2
-1.666, 1.206e-2
-1.667, 1.216e-2
-1.668, 1.226e-2
-1.669, 1.235e-2
-1.670, 1.244e-2
-1.671, 1.253e-2
-1.672, 1.262e-2
-1.673, 1.269e-2
-1.674, 1.278e-2
-1.675, 1.285e-2
-1.676, 1.294e-2
-1.677, 1.302e-2
-1.678, 1.311e-2
-1.679, 1.320e-2
-1.680, 1.329e-2
-1.681, 1.339e-2
-1.682, 1.350e-2
-1.683, 1.359e-2
-1.684, 1.369e-2
-1.685, 1.378e-2
-1.686, 1.387e-2
-1.687, 1.395e-2
-1.688, 1.404e-2
-1.689, 1.412e-2
-1.690, 1.420e-2
-1.691, 1.427e-2
-1.692, 1.436e-2
-1.693, 1.445e-2
-1.694, 1.454e-2
-1.695, 1.464e-2
-1.696, 1.473e-2
-1.697, 1.484e-2
-1.698, 1.493e-2
-1.699, 1.503e-2
-1.700, 1.504e-2
-1.699, 1.493e-2
-1.698, 1.481e-2
-1.697, 1.468e-2
-1.696, 1.455e-2
-1.695, 1.442e-2
-1.694, 1.430e-2
-1.693, 1.417e-2
-1.692, 1.405e-2
-1.691, 1.394e-2
-1.690, 1.382e-2
-1.689, 1.371e-2
-1.688, 1.361e-2
-1.687, 1.351e-2
-1.686, 1.341e-2
-1.685, 1.329e-2
-1.684, 1.318e-2
-1.683, 1.307e-2
-1.682, 1.294e-2
-1.681, 1.282e-2
-1.680, 1.271e-2
-1.679, 1.259e-2
-1.678, 1.247e-2
-1.677, 1.236e-2
-1.676, 1.226e-2
-1.675, 1.216e-2
-1.674, 1.206e-2
-1.673, 1.196e-2
-1.672, 1.186e-2
-1.671, 1.176e-2
-1.670, 1.166e-2
-1.669, 1.156e-2
-1.668, 1.145e-2
-1.667, 1.134e-2
-1.666, 1.123e-2
-1.665, 1.111e-2
-1.664, 1.100e-2
-1.663, 1.090e-2
-1.662, 1.080e-2
-1.661, 1.070e-2
-1.660, 1.060e-2
-1.659, 1.051e-2
-1.658, 1.042e-2
-1.657, 1.033e-2
-1.656, 1.023e-2
-1.655, 1.014e-2
-1.654, 1.004e-2
-1.653, 9.946e-3
-1.652, 9.841e-3
-1.651, 9.734e-3
-1.650, 9.635e-3
-1.649, 9.530e-3
-1.648, 9.428e-3
-1.647, 9.330e-3
-1.646, 9.237e-3
-1.645, 9.151e-3
-1.644, 9.071e-3
-1.643, 8.984e-3
-1.642, 8.901e-3
-1.641, 8.815e-3
-1.640, 8.732e-3
-1.639, 8.639e-3
-1.638, 8.547e-3
-1.637, 8.448e-3
-1.636, 8.352e-3
-1.635, 8.263e-3
-1.634, 8.170e-3
-1.633, 8.078e-3
-1.632, 7.988e-3
-1.631, 7.902e-3
-1.630, 7.819e-3
-1.629, 7.742e-3
-1.628, 7.665e-3
-1.627, 7.588e-3
-1.626, 7.511e-3
-1.625, 7.430e-3
-1.624, 7.347e-3
-1.623, 7.261e-3
-1.622, 7.171e-3
-1.621, 7.085e-3
-1.620, 7.002e-3
-1.619, 6.916e-3
-1.618, 6.832e-3
-1.617, 6.749e-3
-1.616, 6.675e-3
-1.615, 6.598e-3
-1.614, 6.527e-3
-1.613, 6.456e-3
-1.612, 6.385e-3
-1.611, 6.317e-3
-1.610, 6.243e-3
-1.609, 6.163e-3
-1.608, 6.086e-3
-1.607, 6.009e-3
-1.606, 5.929e-3
-1.605, 5.849e-3
-1.604, 5.772e-3
-1.603, 5.701e-3
-1.602, 5.627e-3
-1.601, 5.556e-3
-1.600, 5.488e-3
-1.599, 5.426e-3
-1.598, 5.365e-3
-1.597, 5.303e-3
-1.596, 5.235e-3
-1.595, 5.167e-3
-1.594, 5.100e-3
-1.593, 5.029e-3
-1.592, 4.958e-3
-1.591, 4.884e-3
-1.590, 4.813e-3
-1.589, 4.742e-3
-1.588, 4.674e-3
-1.587, 4.609e-3
-1.586, 4.545e-3
-1.585, 4.486e-3
-1.584, 4.428e-3
-1.583, 4.372e-3
-1.582, 4.317e-3
-1.581, 4.261e-3
-1.580, 4.202e-3
-1.579, 4.144e-3
-1.578, 4.079e-3
-1.577, 4.017e-3
-1.576, 3.953e-3
-1.575, 3.891e-3
-1.574, 3.829e-3
-1.573, 3.768e-3
-1.572, 3.709e-3
-1.571, 3.657e-3
-1.570, 3.604e-3
-1.569, 3.555e-3
-1.568, 3.503e-3
-1.567, 3.456e-3
-1.566, 3.407e-3
-1.565, 3.358e-3
-1.564, 3.302e-3
-1.563, 3.250e-3
-1.562, 3.194e-3
-1.561, 3.139e-3
-1.560, 3.083e-3
-1.559, 3.031e-3
-1.558, 2.982e-3
-1.557, 2.932e-3
-1.556, 2.886e-3
-1.555, 2.840e-3
-1.554, 2.800e-3
-1.553, 2.756e-3
-1.552, 2.716e-3
-1.551, 2.673e-3
-1.550, 2.630e-3
-1.549, 2.587e-3
-1.548, 2.538e-3
-1.547, 2.491e-3
-1.546, 2.445e-3
-1.545, 2.399e-3
-1.544, 2.353e-3
-1.543, 2.309e-3
-1.542, 2.269e-3
-1.541, 2.232e-3
-1.540, 2.195e-3
-1.539, 2.158e-3
-1.538, 2.124e-3
-1.537, 2.087e-3
-1.536, 2.054e-3
-1.535, 2.013e-3
-1.534, 1.976e-3
-1.533, 1.939e-3
-1.532, 1.899e-3
-1.531, 1.862e-3
-1.530, 1.825e-3
-1.529, 1.788e-3
-1.528, 1.751e-3
-1.527, 1.721e-3
-1.526, 1.687e-3
-1.525, 1.659e-3
-1.524, 1.628e-3
-1.523, 1.597e-3
-1.522, 1.569e-3
-1.521, 1.542e-3
-1.520, 1.511e-3
-1.519, 1.483e-3
-1.518, 1.452e-3
-1.517, 1.418e-3
-1.516, 1.388e-3
-1.515, 1.357e-3
-1.514, 1.329e-3
-1.513, 1.301e-3
-1.512, 1.273e-3
-1.511, 1.249e-3
-1.510, 1.227e-3
-1.509, 1.203e-3
-1.508, 1.184e-3
-1.507, 1.159e-3
-1.506, 1.138e-3
-1.505, 1.113e-3
-1.504, 1.088e-3
-1.503, 1.064e-3
-1.502, 1.039e-3
-1.501, 1.014e-3
-1.500, 9.898e-4
-1.499, 9.683e-4
-1.498, 9.467e-4
-1.497, 9.282e-4
-1.496, 9.097e-4
-1.495, 8.912e-4
-1.494, 8.727e-4
-1.493, 8.542e-4
-1.492, 8.388e-4
-1.491, 8.203e-4
-1.490, 8.018e-4
-1.489, 7.833e-4
-1.488, 7.648e-4
-1.487, 7.463e-4
-1.486, 7.247e-4
-1.485, 7.062e-4
-1.484, 6.908e-4
-1.483, 6.754e-4
-1.482, 6.599e-4
-1.481, 6.445e-4
-1.480, 6.322e-4
-1.479, 6.199e-4
-1.478, 6.075e-4
-1.477, 5.952e-4
-1.476, 5.829e-4
-1.475, 5.674e-4
-1.474, 5.520e-4
-1.473, 5.397e-4
-1.472, 5.243e-4
-1.471, 5.120e-4
-1.470, 4.965e-4
-1.469, 4.842e-4
-1.468, 4.719e-4
-1.467, 4.626e-4
-1.466, 4.534e-4
-1.465, 4.441e-4
-1.464, 4.318e-4
-1.463, 4.256e-4
-1.462, 4.133e-4
-1.461, 4.040e-4
-1.460, 3.948e-4
-1.459, 3.825e-4
-1.458, 3.732e-4
-1.457, 3.609e-4
-1.456, 3.516e-4
-1.455, 3.424e-4
-1.454, 3.331e-4
-1.453, 3.239e-4
-1.452, 3.177e-4
-1.451, 3.115e-4
-1.450, 3.023e-4
-1.449, 2.961e-4
-1.448, 2.900e-4
-1.447, 2.838e-4
-1.446, 2.746e-4
-1.445, 2.684e-4
-1.444, 2.591e-4
-1.443, 2.530e-4
-1.442, 2.437e-4
-1.441, 2.345e-4
-1.440, 2.283e-4
-1.439, 2.221e-4
-1.438, 2.191e-4
-1.437, 2.129e-4
-1.436, 2.067e-4
-1.435, 2.036e-4
-1.434, 1.975e-4
-1.433, 1.913e-4
-1.432, 1.882e-4
-1.431, 1.821e-4
-1.430, 1.759e-4
-1.429, 1.728e-4
-1.428, 1.666e-4
-1.427, 1.605e-4
-1.426, 1.543e-4
-1.425, 1.481e-4
-1.424, 1.451e-4
-1.423, 1.389e-4
-1.422, 1.389e-4
-1.421, 1.358e-4
-1.420, 1.327e-4
-1.419, 1.296e-4
-1.418, 1.266e-4
-1.417, 1.235e-4
-1.416, 1.173e-4
-1.415, 1.142e-4
-1.414, 1.081e-4
-1.413, 1.050e-4
-1.412, 9.882e-5
-1.411, 9.573e-5
-1.410, 9.265e-5
-1.409, 8.957e-5
-1.408, 8.648e-5
-1.407, 8.648e-5
-1.406, 8.340e-5
-1.405, 8.032e-5
-1.404, 7.723e-5
-1.403, 7.723e-5
-1.402, 7.415e-5
-1.401, 7.107e-5
-1.400, 6.798e-5
-1.399, 6.490e-5
-1.398, 6.182e-5
-1.397, 5.873e-5
-1.396, 5.565e-5
-1.395, 5.257e-5
-1.394, 5.257e-5
-1.393, 4.949e-5
-1.392, 4.640e-5
-1.391, 4.640e-5
-1.390, 4.640e-5
-1.389, 4.640e-5
-1.388, 4.332e-5
-1.387, 4.332e-5
-1.386, 4.024e-5
-1.385, 3.407e-5
-1.384, 3.407e-5
-1.383, 3.099e-5
-1.382, 2.790e-5
-1.381, 2.482e-5
-1.380, 2.482e-5
-1.379, 2.174e-5
-1.378, 2.174e-5
-1.377, 2.174e-5
-1.376, 2.174e-5
-1.375, 2.174e-5
-1.374, 1.865e-5
-1.373, 1.865e-5
-1.372, 1.557e-5
-1.371, 1.557e-5
-1.370, 1.249e-5
-1.369, 9.405e-6
-1.368, 9.405e-6
-1.367, 6.322e-6
-1.366, 6.322e-6
-1.365, 3.239e-6
-1.364, 3.239e-6
-1.363, 3.239e-6
-1.362, 3.239e-6
-1.361, 3.239e-6
-1.360, 3.239e-6
-1.359, 3.239e-6
-1.358, 3.239e-6
-1.357, 3.239e-6
-1.356, 1.559e-7
-1.355, -2.927e-6
-1.354, -2.927e-6
-1.353, -6.010e-6
-1.352, -6.010e-6
-1.351, -9.093e-6
-1.350, -1.218e-5
-1.349, -9.093e-6
-1.348, -9.093e-6
-1.347, -9.093e-6
-1.346, -9.093e-6
-1.345, -6.010e-6
-1.344, -9.093e-6
-1.343, -9.093e-6
-1.342, -9.093e-6
-1.341, -9.093e-6
-1.340, -1.218e-5
-1.339, -1.526e-5
-1.338, -1.526e-5
-1.337, -1.834e-5
-1.336, -1.834e-5
-1.335, -1.834e-5
-1.334, -1.834e-5
-1.333, -1.834e-5
-1.332, -1.834e-5
-1.331, -1.526e-5
-1.330, -1.834e-5
-1.329, -1.834e-5
-1.328, -1.834e-5
-1.327, -1.834e-5
-1.326, -1.834e-5
-1.325, -2.143e-5
-1.324, -2.143e-5
-1.323, -2.451e-5
-1.322, -2.451e-5
-1.321, -2.759e-5
-1.320, -2.451e-5
-1.319, -2.759e-5
-1.318, -2.451e-5
-1.317, -2.451e-5
-1.316, -2.451e-5
-1.315, -2.451e-5
-1.314, -2.451e-5
-1.313, -2.451e-5
-1.312, -2.451e-5
-1.311, -2.451e-5
-1.310, -2.759e-5
-1.309, -2.759e-5
-1.308, -2.759e-5
-1.307, -3.068e-5
-1.306, -3.068e-5
-1.305, -3.068e-5
-1.304, -3.068e-5
-1.303, -3.068e-5
-1.302, -3.068e-5
-1.301, -2.759e-5
-1.300, -2.759e-5
-1.299, -2.759e-5
-1.298, -2.759e-5
-1.297, -2.759e-5
-1.296, -2.759e-5
-1.295, -3.068e-5
-1.294, -3.376e-5
-1.293, -3.376e-5
-1.292, -3.376e-5
-1.291, -3.684e-5
-1.290, -3.684e-5
-1.289, -3.376e-5
-1.288, -3.376e-5
-1.287, -3.376e-5
-1.286, -3.376e-5
-1.285, -3.068e-5
-1.284, -3.068e-5
-1.283, -3.376e-5
-1.282, -3.068e-5
-1.281, -3.376e-5
-1.280, -3.376e-5
-1.279, -3.684e-5
-1.278, -3.684e-5
-1.277, -3.684e-5
-1.276, -3.684e-5
-1.275, -3.992e-5
-1.274, -3.684e-5
-1.273, -3.684e-5
-1.272, -3.684e-5
-1.271, -3.376e-5
-1.270, -3.376e-5
-1.269, -3.376e-5
-1.268, -3.376e-5
-1.267, -3.376e-5
-1.266, -3.376e-5
-1.265, -3.684e-5
-1.264, -3.684e-5
-1.263, -3.992e-5
-1.262, -3.992e-5
-1.261, -3.992e-5
-1.260, -4.301e-5
-1.259, -4.301e-5
-1.258, -3.992e-5
-1.257, -3.992e-5
-1.256, -3.684e-5
-1.255, -3.376e-5
-1.254, -3.684e-5
-1.253, -3.684e-5
-1.252, -3.684e-5
-1.251, -3.992e-5
-1.250, -3.992e-5
-1.249, -3.992e-5
-1.248, -3.992e-5
-1.247, -4.301e-5
-1.246, -4.301e-5
-1.245, -4.301e-5
-1.244, -4.609e-5
-1.243, -4.301e-5
-1.242, -4.301e-5
-1.241, -3.992e-5
-1.240, -3.992e-5
-1.239, -3.992e-5
-1.238, -3.992e-5
-1.237, -3.992e-5
-1.236, -3.992e-5
-1.235, -4.301e-5
-1.234, -4.301e-5
-1.233, -4.301e-5
-1.232, -4.301e-5
-1.231, -4.609e-5
-1.230, -4.609e-5
-1.229, -4.609e-5
-1.228, -4.609e-5
-1.227, -4.301e-5
-1.226, -4.301e-5
-1.225, -4.301e-5
-1.224, -3.992e-5
-1.223, -3.992e-5
-1.222, -4.301e-5
-1.221, -4.301e-5
-1.220, -4.301e-5
-1.219, -4.609e-5
-1.218, -4.609e-5
-1.217, -4.917e-5
-1.216, -4.609e-5
-1.215, -4.917e-5
-1.214, -4.917e-5
-1.213, -4.609e-5
-1.212, -4.609e-5
-1.211, -4.609e-5
-1.210, -4.301e-5
-1.209, -4.301e-5
-1.208, -4.301e-5
-1.207, -4.301e-5
-1.206, -4.301e-5
-1.205, -4.609e-5
-1.204, -4.917e-5
-1.203, -4.917e-5
-1.202, -4.917e-5
-1.201, -4.917e-5
-1.200, -5.226e-5
-1.199, -4.917e-5
-1.198, -4.917e-5
-1.197, -4.609e-5
-1.196, -4.609e-5
-1.195, -4.609e-5
-1.194, -4.609e-5
-1.193, -4.609e-5
-1.192, -4.609e-5
-1.191, -4.609e-5
-1.190, -4.917e-5
-1.189, -4.917e-5
-1.188, -5.226e-5
-1.187, -5.226e-5
-1.186, -5.226e-5
-1.185, -5.226e-5
-1.184, -5.226e-5
-1.183, -5.226e-5
-1.182, -5.226e-5
-1.181, -4.917e-5
-1.180, -4.917e-5
-1.179, -4.917e-5
-1.178, -4.917e-5
-1.177, -4.917e-5
-1.176, -4.917e-5
-1.175, -5.226e-5
-1.174, -5.226e-5
-1.173, -5.226e-5
-1.172, -5.534e-5
-1.171, -5.534e-5
-1.170, -5.534e-5
-1.169, -5.534e-5
-1.168, -5.534e-5
-1.167, -5.534e-5
-1.166, -5.226e-5
-1.165, -5.226e-5
-1.164, -5.226e-5
-1.163, -5.226e-5
-1.162, -5.226e-5
-1.161, -5.226e-5
-1.160, -5.226e-5
-1.159, -5.534e-5
-1.158, -5.534e-5
-1.157, -5.842e-5
-1.156, -5.842e-5
-1.155, -5.842e-5
-1.154, -5.842e-5
-1.153, -5.842e-5
-1.152, -5.842e-5
-1.151, -5.534e-5
-1.150, -5.534e-5
-1.149, -5.534e-5
-1.148, -5.534e-5
-1.147, -5.534e-5
-1.146, -5.534e-5
-1.145, -5.842e-5
-1.144, -5.842e-5
-1.143, -5.842e-5
-1.142, -6.151e-5
-1.141, -6.151e-5
-1.140, -6.151e-5
-1.139, -6.151e-5
-1.138, -6.151e-5
-1.137, -6.151e-5
-1.136, -5.842e-5
-1.135, -5.534e-5
-1.134, -5.534e-5
-1.133, -5.534e-5
-1.132, -5.534e-5
-1.131, -5.842e-5
-1.130, -5.842e-5
-1.129, -6.151e-5
-1.128, -6.151e-5
-1.127, -6.459e-5
-1.126, -6.459e-5
-1.125, -6.459e-5
-1.124, -6.459e-5
-1.123, -6.459e-5
-1.122, -6.151e-5
-1.121, -6.151e-5
-1.120, -6.151e-5
-1.119, -6.151e-5
-1.118, -5.842e-5
-1.117, -6.151e-5
-1.116, -6.151e-5
-1.115, -6.151e-5
-1.114, -6.459e-5
-1.113, -6.459e-5
-1.112, -6.767e-5
-1.111, -6.767e-5
-1.110, -6.767e-5
-1.109, -6.767e-5
-1.108, -6.767e-5
-1.107, -6.459e-5
-1.106, -6.459e-5
-1.105, -6.459e-5
-1.104, -6.151e-5
-1.103, -6.151e-5
-1.102, -6.459e-5
-1.101, -6.459e-5
-1.100, -6.459e-5
-1.099, -6.459e-5
-1.098, -6.767e-5
-1.097, -6.767e-5
-1.096, -7.076e-5
-1.095, -7.076e-5
-1.094, -7.076e-5
-1.093, -7.076e-5
-1.092, -6.767e-5
-1.091, -6.767e-5
-1.090, -6.459e-5
-1.089, -6.459e-5
-1.088, -6.459e-5
-1.087, -6.459e-5
-1.086, -6.767e-5
-1.085, -6.767e-5
-1.084, -7.076e-5
-1.083, -7.076e-5
-1.082, -7.384e-5
-1.081, -7.384e-5
-1.080, -7.384e-5
-1.079, -7.384e-5
-1.078, -7.384e-5
-1.077, -7.076e-5
-1.076, -7.076e-5
-1.075, -7.076e-5
-1.074, -6.767e-5
-1.073, -7.076e-5
-1.072, -6.767e-5
-1.071, -7.076e-5
-1.070, -7.076e-5
-1.069, -7.384e-5
-1.068, -7.384e-5
-1.067, -7.384e-5
-1.066, -7.692e-5
-1.065, -7.692e-5
-1.064, -7.692e-5
-1.063, -7.692e-5
-1.062, -7.384e-5
-1.061, -7.384e-5
-1.060, -7.076e-5
-1.059, -7.076e-5
-1.058, -7.076e-5
-1.057, -7.076e-5
-1.056, -7.384e-5
-1.055, -7.384e-5
-1.054, -7.692e-5
-1.053, -7.692e-5
-1.052, -8.000e-5
-1.051, -8.000e-5
-1.050, -8.000e-5
-1.049, -8.000e-5
-1.048, -8.000e-5
-1.047, -7.692e-5
-1.046, -7.692e-5
-1.045, -7.384e-5
-1.044, -7.384e-5
-1.043, -7.384e-5
-1.042, -7.384e-5
-1.041, -7.692e-5
-1.040, -7.692e-5
-1.039, -8.000e-5
-1.038, -8.000e-5
-1.037, -8.309e-5
-1.036, -8.309e-5
-1.035, -8.309e-5
-1.034, -8.309e-5
-1.033, -8.309e-5
-1.032, -8.000e-5
-1.031, -8.000e-5
-1.030, -7.692e-5
-1.029, -7.692e-5
-1.028, -7.692e-5
-1.027, -7.692e-5
-1.026, -8.000e-5
-1.025, -8.309e-5
-1.024, -8.309e-5
-1.023, -8.309e-5
-1.022, -8.617e-5
-1.021, -8.617e-5
-1.020, -8.617e-5
-1.019, -8.617e-5
-1.018, -8.309e-5
-1.017, -8.617e-5
-1.016, -8.309e-5
-1.015, -8.309e-5
-1.014, -8.000e-5
-1.013, -8.000e-5
-1.012, -8.309e-5
-1.011, -8.309e-5
-1.010, -8.309e-5
-1.009, -8.617e-5
-1.008, -8.617e-5
-1.007, -8.925e-5
-1.006, -8.925e-5
-1.005, -8.925e-5
-1.004, -8.925e-5
-1.003, -8.925e-5
-1.002, -8.617e-5
-1.001, -8.617e-5
