Mar. 14, 2025   02:03:12
Linear Sweep Voltammetry
File: c:/users/guazh/data/banditlqround7_x0exp891_r5/2025-03-03-exp888\1acid_1ac-2025-03-14t02_00_03-lsvinphos\1acid_1ac_lsv_50mvs_efin_-2100mv.bin
Data Source:  Experiment
Instrument Model:  CHI760E
Header: LSV ran at 50 mVs with Efin at -2100mV
Note: 

Init E (V) = -0.6
Final E (V) = -2.1
Scan Rate (V/s) = 0.05
Sample Interval (V) = 0.001
Quiet Time (sec) = 2
Sensitivity (A/V) = 1e-4
Comp R (ohm) = 9.2

Results:

Channel 1:
Ep = -1.931V
ip = 9.020e-4A
Ah = 1.094e-3C

Potential/V, Current/A

-0.600, 2.875e-6
-0.601, 2.979e-6
-0.602, 3.025e-6
-0.603, 3.061e-6
-0.604, 3.092e-6
-0.605, 3.122e-6
-0.606, 3.153e-6
-0.607, 3.185e-6
-0.608, 3.216e-6
-0.609, 3.244e-6
-0.610, 3.273e-6
-0.611, 3.304e-6
-0.612, 3.337e-6
-0.613, 3.368e-6
-0.614, 3.398e-6
-0.615, 3.429e-6
-0.616, 3.459e-6
-0.617, 3.492e-6
-0.618, 3.521e-6
-0.619, 3.551e-6
-0.620, 3.582e-6
-0.621, 3.612e-6
-0.622, 3.646e-6
-0.623, 3.677e-6
-0.624, 3.708e-6
-0.625, 3.739e-6
-0.626, 3.770e-6
-0.627, 3.804e-6
-0.628, 3.838e-6
-0.629, 3.868e-6
-0.630, 3.901e-6
-0.631, 3.933e-6
-0.632, 3.967e-6
-0.633, 4.001e-6
-0.634, 4.032e-6
-0.635, 4.066e-6
-0.636, 4.098e-6
-0.637, 4.130e-6
-0.638, 4.165e-6
-0.639, 4.195e-6
-0.640, 4.229e-6
-0.641, 4.263e-6
-0.642, 4.296e-6
-0.643, 4.330e-6
-0.644, 4.364e-6
-0.645, 4.396e-6
-0.646, 4.429e-6
-0.647, 4.465e-6
-0.648, 4.500e-6
-0.649, 4.535e-6
-0.650, 4.568e-6
-0.651, 4.603e-6
-0.652, 4.640e-6
-0.653, 4.676e-6
-0.654, 4.706e-6
-0.655, 4.739e-6
-0.656, 4.773e-6
-0.657, 4.810e-6
-0.658, 4.844e-6
-0.659, 4.876e-6
-0.660, 4.910e-6
-0.661, 4.944e-6
-0.662, 4.982e-6
-0.663, 5.019e-6
-0.664, 5.051e-6
-0.665, 5.086e-6
-0.666, 5.121e-6
-0.667, 5.156e-6
-0.668, 5.192e-6
-0.669, 5.224e-6
-0.670, 5.259e-6
-0.671, 5.292e-6
-0.672, 5.331e-6
-0.673, 5.367e-6
-0.674, 5.398e-6
-0.675, 5.433e-6
-0.676, 5.468e-6
-0.677, 5.503e-6
-0.678, 5.536e-6
-0.679, 5.569e-6
-0.680, 5.603e-6
-0.681, 5.635e-6
-0.682, 5.671e-6
-0.683, 5.705e-6
-0.684, 5.737e-6
-0.685, 5.769e-6
-0.686, 5.803e-6
-0.687, 5.837e-6
-0.688, 5.870e-6
-0.689, 5.900e-6
-0.690, 5.928e-6
-0.691, 5.960e-6
-0.692, 5.995e-6
-0.693, 6.026e-6
-0.694, 6.055e-6
-0.695, 6.086e-6
-0.696, 6.117e-6
-0.697, 6.150e-6
-0.698, 6.178e-6
-0.699, 6.206e-6
-0.700, 6.234e-6
-0.701, 6.263e-6
-0.702, 6.296e-6
-0.703, 6.325e-6
-0.704, 6.352e-6
-0.705, 6.382e-6
-0.706, 6.410e-6
-0.707, 6.440e-6
-0.708, 6.467e-6
-0.709, 6.492e-6
-0.710, 6.519e-6
-0.711, 6.546e-6
-0.712, 6.574e-6
-0.713, 6.602e-6
-0.714, 6.625e-6
-0.715, 6.651e-6
-0.716, 6.678e-6
-0.717, 6.703e-6
-0.718, 6.727e-6
-0.719, 6.749e-6
-0.720, 6.773e-6
-0.721, 6.798e-6
-0.722, 6.822e-6
-0.723, 6.844e-6
-0.724, 6.865e-6
-0.725, 6.885e-6
-0.726, 6.907e-6
-0.727, 6.928e-6
-0.728, 6.948e-6
-0.729, 6.967e-6
-0.730, 6.986e-6
-0.731, 7.006e-6
-0.732, 7.028e-6
-0.733, 7.044e-6
-0.734, 7.061e-6
-0.735, 7.077e-6
-0.736, 7.094e-6
-0.737, 7.113e-6
-0.738, 7.128e-6
-0.739, 7.144e-6
-0.740, 7.160e-6
-0.741, 7.173e-6
-0.742, 7.189e-6
-0.743, 7.205e-6
-0.744, 7.216e-6
-0.745, 7.228e-6
-0.746, 7.241e-6
-0.747, 7.254e-6
-0.748, 7.266e-6
-0.749, 7.275e-6
-0.750, 7.287e-6
-0.751, 7.297e-6
-0.752, 7.309e-6
-0.753, 7.317e-6
-0.754, 7.324e-6
-0.755, 7.333e-6
-0.756, 7.341e-6
-0.757, 7.351e-6
-0.758, 7.360e-6
-0.759, 7.365e-6
-0.760, 7.371e-6
-0.761, 7.377e-6
-0.762, 7.383e-6
-0.763, 7.390e-6
-0.764, 7.395e-6
-0.765, 7.398e-6
-0.766, 7.403e-6
-0.767, 7.408e-6
-0.768, 7.413e-6
-0.769, 7.415e-6
-0.770, 7.416e-6
-0.771, 7.420e-6
-0.772, 7.423e-6
-0.773, 7.425e-6
-0.774, 7.426e-6
-0.775, 7.424e-6
-0.776, 7.427e-6
-0.777, 7.428e-6
-0.778, 7.427e-6
-0.779, 7.427e-6
-0.780, 7.425e-6
-0.781, 7.425e-6
-0.782, 7.438e-6
-0.783, 7.434e-6
-0.784, 7.426e-6
-0.785, 7.428e-6
-0.786, 7.423e-6
-0.787, 7.420e-6
-0.788, 7.416e-6
-0.789, 7.411e-6
-0.790, 7.409e-6
-0.791, 7.405e-6
-0.792, 7.402e-6
-0.793, 7.399e-6
-0.794, 7.392e-6
-0.795, 7.388e-6
-0.796, 7.384e-6
-0.797, 7.380e-6
-0.798, 7.375e-6
-0.799, 7.369e-6
-0.800, 7.363e-6
-0.801, 7.359e-6
-0.802, 7.353e-6
-0.803, 7.347e-6
-0.804, 7.340e-6
-0.805, 7.331e-6
-0.806, 7.326e-6
-0.807, 7.322e-6
-0.808, 7.315e-6
-0.809, 7.307e-6
-0.810, 7.299e-6
-0.811, 7.292e-6
-0.812, 7.286e-6
-0.813, 7.278e-6
-0.814, 7.270e-6
-0.815, 7.262e-6
-0.816, 7.253e-6
-0.817, 7.248e-6
-0.818, 7.241e-6
-0.819, 7.234e-6
-0.820, 7.227e-6
-0.821, 7.217e-6
-0.822, 7.212e-6
-0.823, 7.202e-6
-0.824, 7.191e-6
-0.825, 7.184e-6
-0.826, 7.175e-6
-0.827, 7.169e-6
-0.828, 7.160e-6
-0.829, 7.150e-6
-0.830, 7.142e-6
-0.831, 7.133e-6
-0.832, 7.125e-6
-0.833, 7.117e-6
-0.834, 7.105e-6
-0.835, 7.098e-6
-0.836, 7.089e-6
-0.837, 7.083e-6
-0.838, 7.074e-6
-0.839, 7.063e-6
-0.840, 7.052e-6
-0.841, 7.046e-6
-0.842, 7.038e-6
-0.843, 7.028e-6
-0.844, 7.019e-6
-0.845, 7.012e-6
-0.846, 7.003e-6
-0.847, 6.998e-6
-0.848, 6.988e-6
-0.849, 6.978e-6
-0.850, 6.971e-6
-0.851, 6.961e-6
-0.852, 6.954e-6
-0.853, 6.945e-6
-0.854, 6.936e-6
-0.855, 6.928e-6
-0.856, 6.921e-6
-0.857, 6.913e-6
-0.858, 6.905e-6
-0.859, 6.896e-6
-0.860, 6.888e-6
-0.861, 6.880e-6
-0.862, 6.875e-6
-0.863, 6.867e-6
-0.864, 6.858e-6
-0.865, 6.852e-6
-0.866, 6.844e-6
-0.867, 6.839e-6
-0.868, 6.831e-6
-0.869, 6.822e-6
-0.870, 6.817e-6
-0.871, 6.811e-6
-0.872, 6.805e-6
-0.873, 6.797e-6
-0.874, 6.788e-6
-0.875, 6.782e-6
-0.876, 6.776e-6
-0.877, 6.771e-6
-0.878, 6.763e-6
-0.879, 6.755e-6
-0.880, 6.749e-6
-0.881, 6.744e-6
-0.882, 6.740e-6
-0.883, 6.734e-6
-0.884, 6.726e-6
-0.885, 6.720e-6
-0.886, 6.717e-6
-0.887, 6.711e-6
-0.888, 6.706e-6
-0.889, 6.699e-6
-0.890, 6.695e-6
-0.891, 6.690e-6
-0.892, 6.686e-6
-0.893, 6.681e-6
-0.894, 6.676e-6
-0.895, 6.669e-6
-0.896, 6.667e-6
-0.897, 6.665e-6
-0.898, 6.660e-6
-0.899, 6.654e-6
-0.900, 6.651e-6
-0.901, 6.647e-6
-0.902, 6.645e-6
-0.903, 6.641e-6
-0.904, 6.636e-6
-0.905, 6.633e-6
-0.906, 6.628e-6
-0.907, 6.627e-6
-0.908, 6.625e-6
-0.909, 6.620e-6
-0.910, 6.618e-6
-0.911, 6.615e-6
-0.912, 6.614e-6
-0.913, 6.611e-6
-0.914, 6.607e-6
-0.915, 6.606e-6
-0.916, 6.603e-6
-0.917, 6.602e-6
-0.918, 6.600e-6
-0.919, 6.597e-6
-0.920, 6.595e-6
-0.921, 6.595e-6
-0.922, 6.596e-6
-0.923, 6.594e-6
-0.924, 6.591e-6
-0.925, 6.591e-6
-0.926, 6.590e-6
-0.927, 6.589e-6
-0.928, 6.589e-6
-0.929, 6.587e-6
-0.930, 6.586e-6
-0.931, 6.587e-6
-0.932, 6.589e-6
-0.933, 6.587e-6
-0.934, 6.586e-6
-0.935, 6.586e-6
-0.936, 6.586e-6
-0.937, 6.588e-6
-0.938, 6.589e-6
-0.939, 6.589e-6
-0.940, 6.589e-6
-0.941, 6.591e-6
-0.942, 6.593e-6
-0.943, 6.593e-6
-0.944, 6.592e-6
-0.945, 6.594e-6
-0.946, 6.596e-6
-0.947, 6.599e-6
-0.948, 6.601e-6
-0.949, 6.601e-6
-0.950, 6.604e-6
-0.951, 6.606e-6
-0.952, 6.609e-6
-0.953, 6.612e-6
-0.954, 6.611e-6
-0.955, 6.615e-6
-0.956, 6.618e-6
-0.957, 6.621e-6
-0.958, 6.624e-6
-0.959, 6.625e-6
-0.960, 6.630e-6
-0.961, 6.634e-6
-0.962, 6.636e-6
-0.963, 6.639e-6
-0.964, 6.641e-6
-0.965, 6.645e-6
-0.966, 6.649e-6
-0.967, 6.654e-6
-0.968, 6.656e-6
-0.969, 6.660e-6
-0.970, 6.663e-6
-0.971, 6.668e-6
-0.972, 6.672e-6
-0.973, 6.678e-6
-0.974, 6.682e-6
-0.975, 6.685e-6
-0.976, 6.689e-6
-0.977, 6.695e-6
-0.978, 6.700e-6
-0.979, 6.704e-6
-0.980, 6.708e-6
-0.981, 6.712e-6
-0.982, 6.719e-6
-0.983, 6.723e-6
-0.984, 6.726e-6
-0.985, 6.731e-6
-0.986, 6.738e-6
-0.987, 6.744e-6
-0.988, 6.748e-6
-0.989, 6.752e-6
-0.990, 6.756e-6
-0.991, 6.763e-6
-0.992, 6.770e-6
-0.993, 6.776e-6
-0.994, 6.780e-6
-0.995, 6.786e-6
-0.996, 6.793e-6
-0.997, 6.800e-6
-0.998, 6.806e-6
-0.999, 6.812e-6
-1.000, 6.818e-6
-1.001, 6.825e-6
-1.002, 6.832e-6
-1.003, 6.838e-6
-1.004, 6.842e-6
-1.005, 6.848e-6
-1.006, 6.856e-6
-1.007, 6.862e-6
-1.008, 6.868e-6
-1.009, 6.874e-6
-1.010, 6.880e-6
-1.011, 6.886e-6
-1.012, 6.892e-6
-1.013, 6.897e-6
-1.014, 6.905e-6
-1.015, 6.910e-6
-1.016, 6.917e-6
-1.017, 6.926e-6
-1.018, 6.933e-6
-1.019, 6.938e-6
-1.020, 6.944e-6
-1.021, 6.951e-6
-1.022, 6.961e-6
-1.023, 6.967e-6
-1.024, 6.973e-6
-1.025, 6.981e-6
-1.026, 6.988e-6
-1.027, 6.995e-6
-1.028, 7.002e-6
-1.029, 7.007e-6
-1.030, 7.014e-6
-1.031, 7.020e-6
-1.032, 7.028e-6
-1.033, 7.035e-6
-1.034, 7.041e-6
-1.035, 7.047e-6
-1.036, 7.056e-6
-1.037, 7.064e-6
-1.038, 7.073e-6
-1.039, 7.077e-6
-1.040, 7.084e-6
-1.041, 7.092e-6
-1.042, 7.101e-6
-1.043, 7.107e-6
-1.044, 7.113e-6
-1.045, 7.118e-6
-1.046, 7.127e-6
-1.047, 7.134e-6
-1.048, 7.141e-6
-1.049, 7.147e-6
-1.050, 7.155e-6
-1.051, 7.161e-6
-1.052, 7.168e-6
-1.053, 7.175e-6
-1.054, 7.181e-6
-1.055, 7.188e-6
-1.056, 7.195e-6
-1.057, 7.203e-6
-1.058, 7.209e-6
-1.059, 7.215e-6
-1.060, 7.221e-6
-1.061, 7.228e-6
-1.062, 7.238e-6
-1.063, 7.244e-6
-1.064, 7.249e-6
-1.065, 7.254e-6
-1.066, 7.260e-6
-1.067, 7.269e-6
-1.068, 7.275e-6
-1.069, 7.279e-6
-1.070, 7.285e-6
-1.071, 7.292e-6
-1.072, 7.301e-6
-1.073, 7.306e-6
-1.074, 7.311e-6
-1.075, 7.319e-6
-1.076, 7.327e-6
-1.077, 7.334e-6
-1.078, 7.340e-6
-1.079, 7.344e-6
-1.080, 7.349e-6
-1.081, 7.355e-6
-1.082, 7.363e-6
-1.083, 7.369e-6
-1.084, 7.374e-6
-1.085, 7.380e-6
-1.086, 7.386e-6
-1.087, 7.392e-6
-1.088, 7.399e-6
-1.089, 7.405e-6
-1.090, 7.409e-6
-1.091, 7.415e-6
-1.092, 7.422e-6
-1.093, 7.428e-6
-1.094, 7.436e-6
-1.095, 7.444e-6
-1.096, 7.449e-6
-1.097, 7.454e-6
-1.098, 7.458e-6
-1.099, 7.461e-6
-1.100, 7.463e-6
-1.101, 7.470e-6
-1.102, 7.477e-6
-1.103, 7.482e-6
-1.104, 7.486e-6
-1.105, 7.493e-6
-1.106, 7.498e-6
-1.107, 7.503e-6
-1.108, 7.507e-6
-1.109, 7.512e-6
-1.110, 7.516e-6
-1.111, 7.522e-6
-1.112, 7.527e-6
-1.113, 7.532e-6
-1.114, 7.535e-6
-1.115, 7.539e-6
-1.116, 7.545e-6
-1.117, 7.550e-6
-1.118, 7.555e-6
-1.119, 7.559e-6
-1.120, 7.562e-6
-1.121, 7.567e-6
-1.122, 7.572e-6
-1.123, 7.577e-6
-1.124, 7.582e-6
-1.125, 7.586e-6
-1.126, 7.593e-6
-1.127, 7.597e-6
-1.128, 7.601e-6
-1.129, 7.604e-6
-1.130, 7.606e-6
-1.131, 7.610e-6
-1.132, 7.615e-6
-1.133, 7.621e-6
-1.134, 7.623e-6
-1.135, 7.624e-6
-1.136, 7.628e-6
-1.137, 7.635e-6
-1.138, 7.638e-6
-1.139, 7.642e-6
-1.140, 7.646e-6
-1.141, 7.650e-6
-1.142, 7.655e-6
-1.143, 7.659e-6
-1.144, 7.661e-6
-1.145, 7.665e-6
-1.146, 7.667e-6
-1.147, 7.672e-6
-1.148, 7.674e-6
-1.149, 7.678e-6
-1.150, 7.681e-6
-1.151, 7.684e-6
-1.152, 7.689e-6
-1.153, 7.692e-6
-1.154, 7.691e-6
-1.155, 7.697e-6
-1.156, 7.699e-6
-1.157, 7.702e-6
-1.158, 7.703e-6
-1.159, 7.706e-6
-1.160, 7.709e-6
-1.161, 7.713e-6
-1.162, 7.717e-6
-1.163, 7.720e-6
-1.164, 7.723e-6
-1.165, 7.725e-6
-1.166, 7.727e-6
-1.167, 7.729e-6
-1.168, 7.730e-6
-1.169, 7.732e-6
-1.170, 7.734e-6
-1.171, 7.738e-6
-1.172, 7.740e-6
-1.173, 7.743e-6
-1.174, 7.743e-6
-1.175, 7.742e-6
-1.176, 7.746e-6
-1.177, 7.750e-6
-1.178, 7.752e-6
-1.179, 7.751e-6
-1.180, 7.752e-6
-1.181, 7.753e-6
-1.182, 7.760e-6
-1.183, 7.756e-6
-1.184, 7.755e-6
-1.185, 7.756e-6
-1.186, 7.758e-6
-1.187, 7.763e-6
-1.188, 7.765e-6
-1.189, 7.766e-6
-1.190, 7.765e-6
-1.191, 7.766e-6
-1.192, 7.769e-6
-1.193, 7.770e-6
-1.194, 7.769e-6
-1.195, 7.771e-6
-1.196, 7.773e-6
-1.197, 7.775e-6
-1.198, 7.777e-6
-1.199, 7.775e-6
-1.200, 7.776e-6
-1.201, 7.778e-6
-1.202, 7.778e-6
-1.203, 7.781e-6
-1.204, 7.782e-6
-1.205, 7.784e-6
-1.206, 7.786e-6
-1.207, 7.786e-6
-1.208, 7.786e-6
-1.209, 7.787e-6
-1.210, 7.785e-6
-1.211, 7.788e-6
-1.212, 7.788e-6
-1.213, 7.790e-6
-1.214, 7.791e-6
-1.215, 7.790e-6
-1.216, 7.793e-6
-1.217, 7.794e-6
-1.218, 7.792e-6
-1.219, 7.791e-6
-1.220, 7.791e-6
-1.221, 7.791e-6
-1.222, 7.794e-6
-1.223, 7.792e-6
-1.224, 7.791e-6
-1.225, 7.792e-6
-1.226, 7.792e-6
-1.227, 7.794e-6
-1.228, 7.793e-6
-1.229, 7.795e-6
-1.230, 7.794e-6
-1.231, 7.793e-6
-1.232, 7.792e-6
-1.233, 7.791e-6
-1.234, 7.790e-6
-1.235, 7.790e-6
-1.236, 7.792e-6
-1.237, 7.791e-6
-1.238, 7.788e-6
-1.239, 7.786e-6
-1.240, 7.786e-6
-1.241, 7.786e-6
-1.242, 7.786e-6
-1.243, 7.786e-6
-1.244, 7.785e-6
-1.245, 7.782e-6
-1.246, 7.782e-6
-1.247, 7.781e-6
-1.248, 7.782e-6
-1.249, 7.780e-6
-1.250, 7.778e-6
-1.251, 7.776e-6
-1.252, 7.777e-6
-1.253, 7.776e-6
-1.254, 7.775e-6
-1.255, 7.773e-6
-1.256, 7.772e-6
-1.257, 7.771e-6
-1.258, 7.768e-6
-1.259, 7.764e-6
-1.260, 7.767e-6
-1.261, 7.767e-6
-1.262, 7.766e-6
-1.263, 7.762e-6
-1.264, 7.760e-6
-1.265, 7.757e-6
-1.266, 7.755e-6
-1.267, 7.755e-6
-1.268, 7.752e-6
-1.269, 7.749e-6
-1.270, 7.747e-6
-1.271, 7.744e-6
-1.272, 7.742e-6
-1.273, 7.741e-6
-1.274, 7.736e-6
-1.275, 7.733e-6
-1.276, 7.731e-6
-1.277, 7.731e-6
-1.278, 7.728e-6
-1.279, 7.725e-6
-1.280, 7.724e-6
-1.281, 7.724e-6
-1.282, 7.722e-6
-1.283, 7.717e-6
-1.284, 7.714e-6
-1.285, 7.711e-6
-1.286, 7.711e-6
-1.287, 7.710e-6
-1.288, 7.706e-6
-1.289, 7.698e-6
-1.290, 7.694e-6
-1.291, 7.693e-6
-1.292, 7.691e-6
-1.293, 7.690e-6
-1.294, 7.688e-6
-1.295, 7.684e-6
-1.296, 7.683e-6
-1.297, 7.683e-6
-1.298, 7.680e-6
-1.299, 7.676e-6
-1.300, 7.672e-6
-1.301, 7.668e-6
-1.302, 7.666e-6
-1.303, 7.662e-6
-1.304, 7.660e-6
-1.305, 7.658e-6
-1.306, 7.656e-6
-1.307, 7.653e-6
-1.308, 7.651e-6
-1.309, 7.648e-6
-1.310, 7.641e-6
-1.311, 7.634e-6
-1.312, 7.633e-6
-1.313, 7.628e-6
-1.314, 7.626e-6
-1.315, 7.622e-6
-1.316, 7.620e-6
-1.317, 7.620e-6
-1.318, 7.617e-6
-1.319, 7.614e-6
-1.320, 7.611e-6
-1.321, 7.610e-6
-1.322, 7.609e-6
-1.323, 7.606e-6
-1.324, 7.604e-6
-1.325, 7.602e-6
-1.326, 7.600e-6
-1.327, 7.600e-6
-1.328, 7.598e-6
-1.329, 7.596e-6
-1.330, 7.590e-6
-1.331, 7.586e-6
-1.332, 7.587e-6
-1.333, 7.582e-6
-1.334, 7.579e-6
-1.335, 7.576e-6
-1.336, 7.575e-6
-1.337, 7.576e-6
-1.338, 7.573e-6
-1.339, 7.570e-6
-1.340, 7.570e-6
-1.341, 7.569e-6
-1.342, 7.570e-6
-1.343, 7.566e-6
-1.344, 7.566e-6
-1.345, 7.565e-6
-1.346, 7.565e-6
-1.347, 7.567e-6
-1.348, 7.567e-6
-1.349, 7.566e-6
-1.350, 7.566e-6
-1.351, 7.564e-6
-1.352, 7.566e-6
-1.353, 7.565e-6
-1.354, 7.562e-6
-1.355, 7.562e-6
-1.356, 7.564e-6
-1.357, 7.565e-6
-1.358, 7.565e-6
-1.359, 7.565e-6
-1.360, 7.567e-6
-1.361, 7.568e-6
-1.362, 7.568e-6
-1.363, 7.570e-6
-1.364, 7.571e-6
-1.365, 7.570e-6
-1.366, 7.572e-6
-1.367, 7.575e-6
-1.368, 7.577e-6
-1.369, 7.577e-6
-1.370, 7.576e-6
-1.371, 7.580e-6
-1.372, 7.583e-6
-1.373, 7.583e-6
-1.374, 7.587e-6
-1.375, 7.590e-6
-1.376, 7.595e-6
-1.377, 7.599e-6
-1.378, 7.601e-6
-1.379, 7.605e-6
-1.380, 7.609e-6
-1.381, 7.613e-6
-1.382, 7.620e-6
-1.383, 7.624e-6
-1.384, 7.627e-6
-1.385, 7.631e-6
-1.386, 7.636e-6
-1.387, 7.644e-6
-1.388, 7.646e-6
-1.389, 7.649e-6
-1.390, 7.654e-6
-1.391, 7.661e-6
-1.392, 7.669e-6
-1.393, 7.673e-6
-1.394, 7.679e-6
-1.395, 7.686e-6
-1.396, 7.694e-6
-1.397, 7.701e-6
-1.398, 7.706e-6
-1.399, 7.710e-6
-1.400, 7.718e-6
-1.401, 7.728e-6
-1.402, 7.736e-6
-1.403, 7.743e-6
-1.404, 7.751e-6
-1.405, 7.757e-6
-1.406, 7.766e-6
-1.407, 7.773e-6
-1.408, 7.779e-6
-1.409, 7.788e-6
-1.410, 7.796e-6
-1.411, 7.808e-6
-1.412, 7.818e-6
-1.413, 7.827e-6
-1.414, 7.836e-6
-1.415, 7.845e-6
-1.416, 7.856e-6
-1.417, 7.869e-6
-1.418, 7.878e-6
-1.419, 7.888e-6
-1.420, 7.898e-6
-1.421, 7.913e-6
-1.422, 7.928e-6
-1.423, 7.936e-6
-1.424, 7.945e-6
-1.425, 7.957e-6
-1.426, 7.971e-6
-1.427, 7.986e-6
-1.428, 7.999e-6
-1.429, 8.010e-6
-1.430, 8.025e-6
-1.431, 8.038e-6
-1.432, 8.052e-6
-1.433, 8.064e-6
-1.434, 8.080e-6
-1.435, 8.092e-6
-1.436, 8.105e-6
-1.437, 8.116e-6
-1.438, 8.131e-6
-1.439, 8.144e-6
-1.440, 8.158e-6
-1.441, 8.174e-6
-1.442, 8.190e-6
-1.443, 8.205e-6
-1.444, 8.219e-6
-1.445, 8.230e-6
-1.446, 8.249e-6
-1.447, 8.265e-6
-1.448, 8.282e-6
-1.449, 8.298e-6
-1.450, 8.312e-6
-1.451, 8.329e-6
-1.452, 8.349e-6
-1.453, 8.362e-6
-1.454, 8.376e-6
-1.455, 8.393e-6
-1.456, 8.410e-6
-1.457, 8.428e-6
-1.458, 8.443e-6
-1.459, 8.458e-6
-1.460, 8.476e-6
-1.461, 8.493e-6
-1.462, 8.515e-6
-1.463, 8.531e-6
-1.464, 8.548e-6
-1.465, 8.566e-6
-1.466, 8.584e-6
-1.467, 8.608e-6
-1.468, 8.660e-6
-1.469, 8.653e-6
-1.470, 8.656e-6
-1.471, 8.673e-6
-1.472, 8.694e-6
-1.473, 8.716e-6
-1.474, 8.734e-6
-1.475, 8.750e-6
-1.476, 8.770e-6
-1.477, 8.798e-6
-1.478, 8.814e-6
-1.479, 8.831e-6
-1.480, 8.848e-6
-1.481, 8.867e-6
-1.482, 8.885e-6
-1.483, 8.905e-6
-1.484, 8.924e-6
-1.485, 8.944e-6
-1.486, 8.966e-6
-1.487, 8.987e-6
-1.488, 9.010e-6
-1.489, 9.033e-6
-1.490, 9.051e-6
-1.491, 9.072e-6
-1.492, 9.100e-6
-1.493, 9.118e-6
-1.494, 9.139e-6
-1.495, 9.156e-6
-1.496, 9.183e-6
-1.497, 9.206e-6
-1.498, 9.227e-6
-1.499, 9.253e-6
-1.500, 9.276e-6
-1.501, 9.295e-6
-1.502, 9.324e-6
-1.503, 9.347e-6
-1.504, 9.369e-6
-1.505, 9.391e-6
-1.506, 9.413e-6
-1.507, 9.440e-6
-1.508, 9.464e-6
-1.509, 9.487e-6
-1.510, 9.515e-6
-1.511, 9.539e-6
-1.512, 9.567e-6
-1.513, 9.589e-6
-1.514, 9.614e-6
-1.515, 9.636e-6
-1.516, 9.661e-6
-1.517, 9.689e-6
-1.518, 9.716e-6
-1.519, 9.742e-6
-1.520, 9.765e-6
-1.521, 9.795e-6
-1.522, 9.825e-6
-1.523, 9.854e-6
-1.524, 9.880e-6
-1.525, 9.903e-6
-1.526, 9.934e-6
-1.527, 9.965e-6
-1.528, 9.997e-6
-1.529, 1.003e-5
-1.530, 1.006e-5
-1.531, 1.008e-5
-1.532, 1.011e-5
-1.533, 1.014e-5
-1.534, 1.017e-5
-1.535, 1.020e-5
-1.536, 1.023e-5
-1.537, 1.026e-5
-1.538, 1.030e-5
-1.539, 1.033e-5
-1.540, 1.036e-5
-1.541, 1.039e-5
-1.542, 1.043e-5
-1.543, 1.046e-5
-1.544, 1.049e-5
-1.545, 1.052e-5
-1.546, 1.056e-5
-1.547, 1.060e-5
-1.548, 1.063e-5
-1.549, 1.066e-5
-1.550, 1.070e-5
-1.551, 1.074e-5
-1.552, 1.078e-5
-1.553, 1.081e-5
-1.554, 1.085e-5
-1.555, 1.089e-5
-1.556, 1.093e-5
-1.557, 1.097e-5
-1.558, 1.101e-5
-1.559, 1.105e-5
-1.560, 1.108e-5
-1.561, 1.112e-5
-1.562, 1.117e-5
-1.563, 1.121e-5
-1.564, 1.125e-5
-1.565, 1.129e-5
-1.566, 1.134e-5
-1.567, 1.138e-5
-1.568, 1.143e-5
-1.569, 1.148e-5
-1.570, 1.152e-5
-1.571, 1.156e-5
-1.572, 1.161e-5
-1.573, 1.165e-5
-1.574, 1.171e-5
-1.575, 1.176e-5
-1.576, 1.181e-5
-1.577, 1.186e-5
-1.578, 1.191e-5
-1.579, 1.196e-5
-1.580, 1.200e-5
-1.581, 1.205e-5
-1.582, 1.209e-5
-1.583, 1.214e-5
-1.584, 1.219e-5
-1.585, 1.224e-5
-1.586, 1.230e-5
-1.587, 1.236e-5
-1.588, 1.242e-5
-1.589, 1.247e-5
-1.590, 1.253e-5
-1.591, 1.259e-5
-1.592, 1.265e-5
-1.593, 1.271e-5
-1.594, 1.277e-5
-1.595, 1.283e-5
-1.596, 1.289e-5
-1.597, 1.296e-5
-1.598, 1.302e-5
-1.599, 1.308e-5
-1.600, 1.314e-5
-1.601, 1.321e-5
-1.602, 1.328e-5
-1.603, 1.336e-5
-1.604, 1.342e-5
-1.605, 1.349e-5
-1.606, 1.356e-5
-1.607, 1.364e-5
-1.608, 1.371e-5
-1.609, 1.377e-5
-1.610, 1.384e-5
-1.611, 1.393e-5
-1.612, 1.401e-5
-1.613, 1.408e-5
-1.614, 1.416e-5
-1.615, 1.423e-5
-1.616, 1.432e-5
-1.617, 1.441e-5
-1.618, 1.449e-5
-1.619, 1.458e-5
-1.620, 1.467e-5
-1.621, 1.475e-5
-1.622, 1.484e-5
-1.623, 1.493e-5
-1.624, 1.501e-5
-1.625, 1.511e-5
-1.626, 1.521e-5
-1.627, 1.530e-5
-1.628, 1.540e-5
-1.629, 1.550e-5
-1.630, 1.560e-5
-1.631, 1.571e-5
-1.632, 1.581e-5
-1.633, 1.592e-5
-1.634, 1.603e-5
-1.635, 1.613e-5
-1.636, 1.625e-5
-1.637, 1.637e-5
-1.638, 1.649e-5
-1.639, 1.661e-5
-1.640, 1.672e-5
-1.641, 1.684e-5
-1.642, 1.696e-5
-1.643, 1.707e-5
-1.644, 1.720e-5
-1.645, 1.733e-5
-1.646, 1.746e-5
-1.647, 1.759e-5
-1.648, 1.772e-5
-1.649, 1.785e-5
-1.650, 1.798e-5
-1.651, 1.812e-5
-1.652, 1.827e-5
-1.653, 1.840e-5
-1.654, 1.855e-5
-1.655, 1.869e-5
-1.656, 1.885e-5
-1.657, 1.901e-5
-1.658, 1.917e-5
-1.659, 1.933e-5
-1.660, 1.950e-5
-1.661, 1.966e-5
-1.662, 1.984e-5
-1.663, 2.001e-5
-1.664, 2.018e-5
-1.665, 2.036e-5
-1.666, 2.053e-5
-1.667, 2.071e-5
-1.668, 2.089e-5
-1.669, 2.108e-5
-1.670, 2.128e-5
-1.671, 2.147e-5
-1.672, 2.167e-5
-1.673, 2.188e-5
-1.674, 2.209e-5
-1.675, 2.228e-5
-1.676, 2.251e-5
-1.677, 2.274e-5
-1.678, 2.297e-5
-1.679, 2.319e-5
-1.680, 2.342e-5
-1.681, 2.365e-5
-1.682, 2.389e-5
-1.683, 2.414e-5
-1.684, 2.437e-5
-1.685, 2.463e-5
-1.686, 2.488e-5
-1.687, 2.517e-5
-1.688, 2.544e-5
-1.689, 2.571e-5
-1.690, 2.598e-5
-1.691, 2.626e-5
-1.692, 2.655e-5
-1.693, 2.684e-5
-1.694, 2.712e-5
-1.695, 2.743e-5
-1.696, 2.774e-5
-1.697, 2.805e-5
-1.698, 2.838e-5
-1.699, 2.872e-5
-1.700, 2.905e-5
-1.701, 2.939e-5
-1.702, 2.974e-5
-1.703, 3.010e-5
-1.704, 3.049e-5
-1.705, 3.085e-5
-1.706, 3.123e-5
-1.707, 3.162e-5
-1.708, 3.200e-5
-1.709, 3.240e-5
-1.710, 3.281e-5
-1.711, 3.324e-5
-1.712, 3.367e-5
-1.713, 3.410e-5
-1.714, 3.453e-5
-1.715, 3.499e-5
-1.716, 3.545e-5
-1.717, 3.592e-5
-1.718, 3.640e-5
-1.719, 3.689e-5
-1.720, 3.740e-5
-1.721, 3.792e-5
-1.722, 3.845e-5
-1.723, 3.898e-5
-1.724, 3.952e-5
-1.725, 4.008e-5
-1.726, 4.065e-5
-1.727, 4.123e-5
-1.728, 4.181e-5
-1.729, 4.241e-5
-1.730, 4.303e-5
-1.731, 4.367e-5
-1.732, 4.431e-5
-1.733, 4.497e-5
-1.734, 4.564e-5
-1.735, 4.631e-5
-1.736, 4.700e-5
-1.737, 4.772e-5
-1.738, 4.845e-5
-1.739, 4.919e-5
-1.740, 4.995e-5
-1.741, 5.074e-5
-1.742, 5.154e-5
-1.743, 5.235e-5
-1.744, 5.317e-5
-1.745, 5.399e-5
-1.746, 5.485e-5
-1.747, 5.575e-5
-1.748, 5.664e-5
-1.749, 5.754e-5
-1.750, 5.846e-5
-1.751, 5.942e-5
-1.752, 6.039e-5
-1.753, 6.139e-5
-1.754, 6.241e-5
-1.755, 6.345e-5
-1.756, 6.450e-5
-1.757, 6.558e-5
-1.758, 6.669e-5
-1.759, 6.781e-5
-1.760, 6.897e-5
-1.761, 7.014e-5
-1.762, 7.136e-5
-1.763, 7.260e-5
-1.764, 7.386e-5
-1.765, 7.512e-5
-1.766, 7.641e-5
-1.767, 7.774e-5
-1.768, 7.912e-5
-1.769, 8.052e-5
-1.770, 8.193e-5
-1.771, 8.338e-5
-1.772, 8.486e-5
-1.773, 8.638e-5
-1.774, 8.794e-5
-1.775, 8.951e-5
-1.776, 9.109e-5
-1.777, 9.272e-5
-1.778, 9.437e-5
-1.779, 9.609e-5
-1.780, 9.783e-5
-1.781, 9.960e-5
-1.782, 1.014e-4
-1.783, 1.033e-4
-1.784, 1.052e-4
-1.785, 1.071e-4
-1.786, 1.090e-4
-1.787, 1.110e-4
-1.788, 1.131e-4
-1.789, 1.151e-4
-1.790, 1.173e-4
-1.791, 1.195e-4
-1.792, 1.217e-4
-1.793, 1.239e-4
-1.794, 1.263e-4
-1.795, 1.286e-4
-1.796, 1.310e-4
-1.797, 1.334e-4
-1.798, 1.359e-4
-1.799, 1.384e-4
-1.800, 1.410e-4
-1.801, 1.437e-4
-1.802, 1.463e-4
-1.803, 1.490e-4
-1.804, 1.518e-4
-1.805, 1.546e-4
-1.806, 1.575e-4
-1.807, 1.604e-4
-1.808, 1.634e-4
-1.809, 1.664e-4
-1.810, 1.695e-4
-1.811, 1.727e-4
-1.812, 1.759e-4
-1.813, 1.792e-4
-1.814, 1.825e-4
-1.815, 1.858e-4
-1.816, 1.892e-4
-1.817, 1.927e-4
-1.818, 1.962e-4
-1.819, 1.998e-4
-1.820, 2.035e-4
-1.821, 2.072e-4
-1.822, 2.109e-4
-1.823, 2.148e-4
-1.824, 2.187e-4
-1.825, 2.226e-4
-1.826, 2.266e-4
-1.827, 2.307e-4
-1.828, 2.348e-4
-1.829, 2.390e-4
-1.830, 2.432e-4
-1.831, 2.475e-4
-1.832, 2.519e-4
-1.833, 2.564e-4
-1.834, 2.609e-4
-1.835, 2.654e-4
-1.836, 2.700e-4
-1.837, 2.747e-4
-1.838, 2.794e-4
-1.839, 2.842e-4
-1.840, 2.890e-4
-1.841, 2.939e-4
-1.842, 2.988e-4
-1.843, 3.038e-4
-1.844, 3.088e-4
-1.845, 3.139e-4
-1.846, 3.190e-4
-1.847, 3.242e-4
-1.848, 3.295e-4
-1.849, 3.348e-4
-1.850, 3.402e-4
-1.851, 3.457e-4
-1.852, 3.512e-4
-1.853, 3.568e-4
-1.854, 3.625e-4
-1.855, 3.683e-4
-1.856, 3.741e-4
-1.857, 3.800e-4
-1.858, 3.860e-4
-1.859, 3.921e-4
-1.860, 3.983e-4
-1.861, 4.045e-4
-1.862, 4.108e-4
-1.863, 4.172e-4
-1.864, 4.237e-4
-1.865, 4.303e-4
-1.866, 4.369e-4
-1.867, 4.437e-4
-1.868, 4.505e-4
-1.869, 4.574e-4
-1.870, 4.643e-4
-1.871, 4.714e-4
-1.872, 4.785e-4
-1.873, 4.857e-4
-1.874, 4.930e-4
-1.875, 5.004e-4
-1.876, 5.078e-4
-1.877, 5.153e-4
-1.878, 5.230e-4
-1.879, 5.306e-4
-1.880, 5.384e-4
-1.881, 5.462e-4
-1.882, 5.541e-4
-1.883, 5.621e-4
-1.884, 5.701e-4
-1.885, 5.783e-4
-1.886, 5.864e-4
-1.887, 5.947e-4
-1.888, 6.030e-4
-1.889, 6.114e-4
-1.890, 6.198e-4
-1.891, 6.283e-4
-1.892, 6.369e-4
-1.893, 6.456e-4
-1.894, 6.544e-4
-1.895, 6.632e-4
-1.896, 6.721e-4
-1.897, 6.810e-4
-1.898, 6.900e-4
-1.899, 6.991e-4
-1.900, 7.081e-4
-1.901, 7.173e-4
-1.902, 7.265e-4
-1.903, 7.358e-4
-1.904, 7.451e-4
-1.905, 7.545e-4
-1.906, 7.640e-4
-1.907, 7.735e-4
-1.908, 7.830e-4
-1.909, 7.926e-4
-1.910, 8.022e-4
-1.911, 8.119e-4
-1.912, 8.217e-4
-1.913, 8.316e-4
-1.914, 8.415e-4
-1.915, 8.514e-4
-1.916, 8.614e-4
-1.917, 8.715e-4
-1.918, 8.816e-4
-1.919, 8.917e-4
-1.920, 9.018e-4
-1.921, 9.120e-4
-1.922, 9.222e-4
-1.923, 9.325e-4
-1.924, 9.427e-4
-1.925, 9.531e-4
-1.926, 9.635e-4
-1.927, 9.740e-4
-1.928, 9.845e-4
-1.929, 9.951e-4
-1.930, 1.006e-3
-1.931, 1.011e-3
-1.932, 1.011e-3
-1.933, 1.011e-3
-1.934, 1.011e-3
-1.935, 1.011e-3
-1.936, 1.011e-3
-1.937, 1.011e-3
-1.938, 1.011e-3
-1.939, 1.011e-3
-1.940, 1.011e-3
-1.941, 1.011e-3
-1.942, 1.011e-3
-1.943, 1.011e-3
-1.944, 1.011e-3
-1.945, 1.011e-3
-1.946, 1.011e-3
-1.947, 1.011e-3
-1.948, 1.011e-3
-1.949, 1.011e-3
-1.950, 1.011e-3
-1.951, 1.011e-3
-1.952, 1.011e-3
-1.953, 1.011e-3
-1.954, 1.011e-3
-1.955, 1.011e-3
-1.956, 1.011e-3
-1.957, 1.011e-3
-1.958, 1.011e-3
-1.959, 1.011e-3
-1.960, 1.011e-3
-1.961, 1.011e-3
-1.962, 1.011e-3
-1.963, 1.011e-3
-1.964, 1.011e-3
-1.965, 1.011e-3
-1.966, 1.011e-3
-1.967, 1.011e-3
-1.968, 1.011e-3
-1.969, 1.011e-3
-1.970, 1.011e-3
-1.971, 1.011e-3
-1.972, 1.011e-3
-1.973, 1.011e-3
-1.974, 1.011e-3
-1.975, 1.011e-3
-1.976, 1.011e-3
-1.977, 1.011e-3
-1.978, 1.011e-3
-1.979, 1.011e-3
-1.980, 1.011e-3
-1.981, 1.011e-3
-1.982, 1.011e-3
-1.983, 1.011e-3
-1.984, 1.011e-3
-1.985, 1.011e-3
-1.986, 1.011e-3
-1.987, 1.011e-3
-1.988, 1.011e-3
-1.989, 1.011e-3
-1.990, 1.011e-3
-1.991, 1.011e-3
-1.992, 1.011e-3
-1.993, 1.011e-3
-1.994, 1.011e-3
-1.995, 1.011e-3
-1.996, 1.011e-3
-1.997, 1.011e-3
-1.998, 1.011e-3
-1.999, 1.011e-3
-2.000, 1.011e-3
-2.001, 1.011e-3
-2.002, 1.011e-3
-2.003, 1.011e-3
-2.004, 1.011e-3
-2.005, 1.011e-3
-2.006, 1.011e-3
-2.007, 1.011e-3
-2.008, 1.011e-3
-2.009, 1.011e-3
-2.010, 1.011e-3
-2.011, 1.011e-3
-2.012, 1.011e-3
-2.013, 1.011e-3
-2.014, 1.011e-3
-2.015, 1.011e-3
-2.016, 1.011e-3
-2.017, 1.011e-3
-2.018, 1.011e-3
-2.019, 1.011e-3
-2.020, 1.011e-3
-2.021, 1.011e-3
-2.022, 1.011e-3
-2.023, 1.011e-3
-2.024, 1.011e-3
-2.025, 1.011e-3
-2.026, 1.011e-3
-2.027, 1.011e-3
-2.028, 1.011e-3
-2.029, 1.011e-3
-2.030, 1.011e-3
-2.031, 1.011e-3
-2.032, 1.011e-3
-2.033, 1.011e-3
-2.034, 1.011e-3
-2.035, 1.011e-3
-2.036, 1.011e-3
-2.037, 1.011e-3
-2.038, 1.011e-3
-2.039, 1.011e-3
-2.040, 1.011e-3
-2.041, 1.011e-3
-2.042, 1.011e-3
-2.043, 1.011e-3
-2.044, 1.011e-3
-2.045, 1.011e-3
-2.046, 1.011e-3
-2.047, 1.011e-3
-2.048, 1.011e-3
-2.049, 1.011e-3
-2.050, 1.011e-3
-2.051, 1.011e-3
-2.052, 1.011e-3
-2.053, 1.011e-3
-2.054, 1.011e-3
-2.055, 1.011e-3
-2.056, 1.011e-3
-2.057, 1.011e-3
-2.058, 1.011e-3
-2.059, 1.011e-3
-2.060, 1.011e-3
-2.061, 1.011e-3
-2.062, 1.011e-3
-2.063, 1.011e-3
-2.064, 1.011e-3
-2.065, 1.011e-3
-2.066, 1.011e-3
-2.067, 1.011e-3
-2.068, 1.011e-3
-2.069, 1.011e-3
-2.070, 1.011e-3
-2.071, 1.011e-3
-2.072, 1.011e-3
-2.073, 1.011e-3
-2.074, 1.011e-3
-2.075, 1.011e-3
-2.076, 1.011e-3
-2.077, 1.011e-3
-2.078, 1.011e-3
-2.079, 1.011e-3
-2.080, 1.011e-3
-2.081, 1.011e-3
-2.082, 1.011e-3
-2.083, 1.011e-3
-2.084, 1.011e-3
-2.085, 1.011e-3
-2.086, 1.011e-3
-2.087, 1.011e-3
-2.088, 1.011e-3
-2.089, 1.011e-3
-2.090, 1.011e-3
-2.091, 1.011e-3
-2.092, 1.011e-3
-2.093, 1.011e-3
-2.094, 1.011e-3
-2.095, 1.011e-3
-2.096, 1.011e-3
-2.097, 1.011e-3
-2.098, 1.011e-3
-2.099, 1.011e-3
