Potential V vs RHE, Current mA cm-2
0.013299999999999867,4.098418635709011
0.012299999999999978,3.0939736128048354
0.011299999999999866,2.2225114520879723
0.010299999999999976,1.349917522331218
0.009299999999999864,0.5647527509061226
0.008299999999999974,-0.08943804837746762
0.007299999999999862,-0.5692798270656908
0.006299999999999972,-0.9617207416482519
0.00529999999999986,-1.3543031273607997
0.0042999999999999705,-1.8334658446250875
0.0032999999999998586,-2.4007650758709675
0.0022999999999999687,-2.8803522065252145
0.0012999999999998568,-3.273641947887695
0.00029999999999996696,-3.5353635383627267
-0.000700000000000145,-3.7093730282461257
-0.0017000000000000348,-4.014950669016974
-0.0027000000000001467,-4.450681749375406
-0.0037000000000000366,-4.843971490737885
-0.0047000000000001485,-5.235846520800501
-0.005700000000000038,-5.497568111275533
-0.00670000000000015,-5.629136262162981
-0.00770000000000004,-5.80314575204638
-0.008700000000000152,-6.108723392817228
-0.009700000000000042,-6.458157083883892
-0.010700000000000154,-6.850032113946507
-0.011700000000000044,-7.111753704421539
-0.012700000000000156,-7.28576319430494
-0.013700000000000045,-7.4173313451923875
-0.014700000000000157,-7.591340835075788
-0.015700000000000047,-7.809206375255003
-0.01670000000000016,-8.202496116617484
-0.01770000000000005,-8.508073757388331
-0.01870000000000016,-8.769795347863363
-0.01970000000000005,-8.899948787450944
-0.020700000000000163,-8.943804837746763
-0.021700000000000053,-9.161670377925978
-0.022700000000000164,-9.467248018696827
-0.023700000000000054,-9.81668170976349
-0.024700000000000166,-10.078403300238522
-0.025700000000000056,-10.25241279012192
-0.026700000000000168,-10.340124890713554
-0.027700000000000058,-10.470278330301136
-0.02870000000000017,-10.688143870480351
-0.02970000000000006,-10.993721511251199
-0.03070000000000017,-11.343155202317865
-0.03170000000000006,-11.604876792792895
-0.03270000000000017,-11.73503023238048
-0.03370000000000006,-11.82274233297211
-0.034700000000000175,-11.909039722263879
-0.035700000000000065,-12.214617363034726
-0.03670000000000018,-12.520195003805576
-0.03770000000000007,-12.869628694872238
-0.03870000000000018,-13.043638184755638
-0.03970000000000007,-13.175206335643086
-0.04070000000000018,-13.261503724934855
-0.04170000000000007,-13.3930718758223
-0.04270000000000018,-13.698649516593148
-0.04370000000000007,-14.046668496359947
-0.044700000000000184,-14.30273124163552
-0.045700000000000074,-14.486643710617974
-0.046700000000000186,-14.57152638860988
-0.047700000000000076,-14.69885040559773
-0.04870000000000019,-14.925204213576137
-0.04970000000000008,-15.179852247551842
-0.05070000000000019,-15.575971411514052
-0.05170000000000008,-15.78817810649381
-0.05270000000000019,-15.91550212348166
-0.05370000000000008,-16.014531914472215
-0.05470000000000019,-16.141855931460068
-0.05570000000000008,-16.396503965435777
-0.056700000000000195,-16.750181790402035
-0.057700000000000085,-17.061418276372343
-0.058700000000000196,-17.2736249713521
-0.059700000000000086,-17.358507649344002
-0.0607000000000002,-17.48583166633185
-0.06170000000000009,-17.669744135314307
-0.0627000000000002,-17.924392169290012
-0.06370000000000009,-18.27806999425627
-0.0647000000000002,-18.589306480226583
-0.06570000000000009,-18.759071836210385
-0.0667000000000002,-18.843954514202288
-0.0677000000000001,-18.97127853119014
-0.0687000000000002,-19.155191000172596
-0.0697000000000001,-19.49472171214021
-0.07070000000000021,-19.848399537106463
-0.0717000000000001,-20.10304757108217
-0.07270000000000021,-20.244518701068674
-0.0737000000000001,-20.329401379060574
-0.07470000000000021,-20.456725396048434
-0.0757000000000001,-20.76796188201874
-0.07670000000000021,-21.065051254990397
-0.0777000000000001,-21.418729079956652
-0.07870000000000021,-21.63093577493641
-0.0797000000000001,-21.729965565926964
-0.08070000000000022,-21.814848243918867
-0.0817000000000001,-22.027054938898623
-0.08270000000000022,-22.33829142486893
-0.08370000000000011,-22.67782213683654
-0.08470000000000022,-22.946617283810895
-0.08570000000000011,-23.15882397879065
-0.08670000000000022,-23.24370665678255
-0.08770000000000011,-23.342736447773106
-0.08870000000000022,-23.597384481748815
-0.08970000000000011,-23.908620967719123
-0.09070000000000022,-24.24815167968673
-0.09170000000000011,-24.516946826661083
-0.09270000000000023,-24.64427084364894
-0.09370000000000012,-24.771594860636792
-0.09470000000000023,-24.9130659906233
-0.09570000000000012,-25.12527268560305
-0.09670000000000023,-25.521391849565262
-0.09770000000000012,-25.81848122253692
-0.09870000000000023,-26.044835030515326
-0.09970000000000012,-26.17215904750318
-0.10070000000000023,-26.257041725495082
-0.10170000000000012,-26.440954194477534
-0.10270000000000024,-26.738043567449193
-0.10370000000000013,-27.091721392415455
-0.10470000000000024,-27.43125210438306
-0.10570000000000013,-27.572723234369565
-0.10670000000000024,-27.700047251357418
-0.10770000000000013,-27.78492992934932
-0.10870000000000024,-28.011283737327723
-0.10970000000000013,-28.308373110299385
-0.11070000000000024,-28.704492274261593
-0.11170000000000013,-28.959140308237306
-0.11270000000000002,-29.100611438223805
-0.11370000000000013,-29.18549411621571
-0.11470000000000002,-29.31281813320356
-0.11570000000000014,-29.581613280177915
-0.11670000000000003,-29.878702653149578
-0.11770000000000014,-30.232380478115836
-0.11870000000000003,-30.444587173095588
-0.11970000000000014,-30.529469851087494
-0.12070000000000003,-30.614352529079397
-0.12170000000000014,-30.79826499806185
-0.12270000000000003,-31.052913032037555
-0.12370000000000014,-31.40659085700382
-0.12470000000000003,-31.717827342974125
-0.12570000000000014,-31.887592698957924
-0.12670000000000003,-31.972475376949827
-0.12770000000000015,-32.09979939393769
-0.12870000000000004,-32.32615320191609
-0.12970000000000015,-32.62324257488775
-0.13070000000000004,-32.97692039985401
-0.13170000000000015,-33.231568433829715
-0.13270000000000004,-33.373039563816214
-0.13370000000000015,-33.41548090281216
-0.13470000000000004,-33.54280491980002
-0.13570000000000015,-33.755011614779775
-0.13670000000000004,-34.10868943974604
-0.13770000000000016,-34.41992592571634
-0.13870000000000005,-34.632132620696105
-0.13970000000000016,-34.75945663768395
-0.14070000000000005,-34.8018979766799
-0.14170000000000016,-34.98581044566235
-0.14270000000000005,-35.240458479638065
-0.14370000000000016,-35.594136304604326
-0.14470000000000005,-35.90537279057463
-0.14570000000000016,-36.07513814655844
-0.14670000000000005,-36.11757948555439
-0.14770000000000016,-36.20246216354629
-0.14870000000000005,-36.4288159715247
-0.14970000000000017,-36.725905344496354
-0.15070000000000006,-37.07958316946261
-0.15170000000000017,-37.291789864442364
-0.15270000000000006,-37.41911388143023
-0.15370000000000017,-37.47570233342482
-0.15470000000000006,-37.60302635041268
-0.15570000000000017,-37.81523304539243
-0.15670000000000006,-38.12646953136274
-0.15770000000000017,-38.46600024333035
-0.15870000000000006,-38.6499127123128
-0.15970000000000018,-38.734795390304704
-0.16070000000000007,-38.81967806829661
-0.16170000000000018,-38.94700208528445
-0.16270000000000007,-39.21579723225882
-0.16370000000000018,-39.56947505722508
-0.16470000000000007,-39.82412309120078
-0.16570000000000018,-39.99388844718459
-0.16670000000000007,-40.03632978618054
-0.16770000000000018,-40.135359577171094
-0.16870000000000007,-40.30512493315489
-0.16970000000000018,-40.616361419125205
-0.17070000000000007,-40.91345079209687
-0.17170000000000019,-41.182245939071215
-0.17270000000000008,-41.267128617063115
-0.1737000000000002,-41.30956995605907
-0.17470000000000008,-41.39445263405098
-0.1757000000000002,-41.606659329030734
-0.17670000000000008,-41.91789581500104
-0.1777000000000002,-42.229132300971344
-0.17870000000000008,-42.39889765695515
-0.1797000000000002,-42.483780334947056
-0.18070000000000008,-42.526221673943
-0.1817000000000002,-42.6111043519349
-0.18270000000000008,-42.87989949890926
-0.1837000000000002,-43.17698887188092
-0.1847000000000001,-43.44578401885527
-0.1857000000000002,-43.57310803584313
-0.1867000000000001,-43.61554937483908
-0.1877000000000002,-43.70043205283099
-0.1887000000000001,-43.84190318281749
-0.1897000000000002,-44.096551216793195
-0.1907000000000001,-44.45022904175945
-0.1917000000000001,-44.619994397743255
-0.19269999999999998,-44.704877075735155
-0.1937000000000001,-44.704877075735155
-0.19469999999999998,-44.80390686672572
-0.1957000000000001,-45.01611356170547
-0.19669999999999999,-45.27076159568118
-0.1977000000000001,-45.53955674265553
-0.1987,-45.70932209863933
-0.1997000000000001,-45.75176343763528
-0.2007,-45.79420477663124
-0.2017000000000001,-45.89323456762179
-0.2027,-46.10544126260155
-0.2037000000000001,-46.41667774857186
-0.2047,-46.67132578254756
-0.2057000000000001,-46.79864979953541
-0.2067,-46.84109113853137
-0.2077000000000001,-46.84109113853137
-0.2087,-46.982562268517874
-0.2097000000000001,-47.23721030249357
-0.2107,-47.54844678846388
-0.2117000000000001,-47.76065348344364
-0.2127,-47.80309482243959
-0.2137000000000001,-47.84553616143554
-0.2147,-47.84553616143554
-0.2157000000000001,-48.071889969413945
-0.2167,-48.32653800338966
-0.21770000000000012,-48.59533315036401
-0.2187,-48.72265716735186
-0.21970000000000012,-48.76509850634781
-0.2207,-48.72265716735186
-0.22170000000000012,-48.80753984534376
-0.2227,-49.03389365332217
-0.22370000000000012,-49.28854168729788
-0.2247,-49.50074838227763
-0.22570000000000012,-49.59977817326819
-0.2267,-49.59977817326819
-0.22770000000000012,-49.59977817326819
-0.22870000000000001,-49.72710219025603
-0.22970000000000013,-49.89686754623985
-0.23070000000000002,-50.1656626932142
-0.23170000000000013,-50.29298671020206
-0.23270000000000002,-50.335428049198
-0.23370000000000013,-50.29298671020206
-0.23470000000000002,-50.29298671020206
-0.23570000000000013,-50.42031072718991
-0.23670000000000002,-50.64666453516831
-0.2376999999999999,-50.81642989115212
-0.23870000000000002,-50.943753908139975
-0.2396999999999999,-50.98619524713592
-0.24070000000000003,-50.943753908139975
-0.24169999999999991,-50.98619524713592
-0.24270000000000003,-51.17010771611838
-0.24369999999999992,-51.424755750094086
-0.24470000000000003,-51.594521106077885
-0.24569999999999992,-51.69355089706845
-0.24670000000000003,-51.65110955807249
-0.24769999999999992,-51.65110955807249
-0.24870000000000003,-51.69355089706845
-0.24969999999999992,-51.90575759204819
-0.25070000000000003,-52.075522948032
-0.2516999999999999,-52.25943541701445
-0.25270000000000004,-52.25943541701445
-0.2536999999999999,-52.2169940780185
-0.25470000000000004,-52.17455273902255
-0.2556999999999999,-52.30187675601041
-0.25670000000000004,-52.471642111994214
-0.25769999999999993,-52.69799591997262
-0.25870000000000004,-52.74043725896857
-0.25969999999999993,-52.69799591997262
-0.26070000000000004,-52.59896612898206
-0.26169999999999993,-52.59896612898206
-0.26270000000000004,-52.78287859796452
-0.26369999999999993,-52.91020261495237
-0.26470000000000005,-53.03752663194023
-0.26569999999999994,-53.079967970936174
-0.26670000000000005,-53.03752663194023
-0.26769999999999994,-52.995085292944275
-0.26870000000000005,-52.995085292944275
-0.26969999999999994,-53.16485064892808
-0.27070000000000005,-53.39120445690648
-0.27169999999999994,-53.476087134898386
-0.27270000000000005,-53.433645795902436
-0.27369999999999994,-53.348763117910536
-0.27470000000000006,-53.348763117910536
-0.27569999999999995,-53.433645795902436
-0.27670000000000006,-53.603411151886235
-0.27769999999999995,-53.74488228187274
-0.27870000000000006,-53.82976495986464
-0.27969999999999995,-53.7873236208687
-0.28070000000000006,-53.68829382987814
-0.28169999999999995,-53.68829382987814
-0.28270000000000006,-53.7873236208687
-0.28369999999999995,-53.999530315848446
-0.28470000000000006,-54.08441299384035
-0.28569999999999995,-54.08441299384035
-0.28670000000000007,-53.999530315848446
-0.28769999999999996,-53.91464763785655
-0.28870000000000007,-53.91464763785655
-0.28969999999999996,-54.0419716548444
-0.29070000000000007,-54.16929567183226
-0.29169999999999996,-54.31076680181876
-0.29270000000000007,-54.2117370108282
-0.29369999999999996,-54.08441299384035
-0.2947000000000001,-53.999530315848446
-0.29569999999999996,-54.08441299384035
-0.2967000000000001,-54.2117370108282
-0.29769999999999996,-54.35320814081471
-0.2987000000000001,-54.39564947981066
-0.29969999999999997,-54.31076680181876
-0.3007000000000001,-54.16929567183226
-0.30169999999999997,-54.1268543328363
-0.3027000000000001,-54.2117370108282
-0.30369999999999997,-54.35320814081471
-0.3047000000000001,-54.480532157802564
-0.30569999999999997,-54.480532157802564
-0.3067000000000001,-54.35320814081471
-0.3077,-54.2117370108282
-0.3087000000000001,-54.26832546282281
-0.3097,-54.31076680181876
-0.3107000000000001,-54.52297349679851
-0.3117,-54.52297349679851
-0.3127000000000001,-54.480532157802564
-0.3137,-54.35320814081471
-0.3147000000000001,-54.26832546282281
-0.3157,-54.26832546282281
-0.3167000000000001,-54.43809081880661
-0.3177,-54.52297349679851
-0.3187000000000001,-54.56541483579447
-0.3197,-54.480532157802564
-0.3207000000000001,-54.35320814081471
-0.3217,-54.31076680181876
-0.3227000000000001,-54.35320814081471
-0.3237,-54.52297349679851
-0.3247000000000001,-54.60785617479041
-0.3257,-54.56541483579447
-0.3267000000000001,-54.43809081880661
-0.3277,-54.35320814081471
-0.3287000000000001,-54.35320814081471
-0.3297,-54.43809081880661
-0.3307000000000001,-54.56541483579447
-0.3317,-54.60785617479041
-0.3327000000000001,-54.52297349679851
-0.3337,-54.43809081880661
-0.3347000000000001,-54.35320814081471
-0.3357,-54.35320814081471
-0.3367000000000001,-54.480532157802564
-0.3377,-54.60785617479041
-0.3387000000000001,-54.60785617479041
-0.3397,-54.52297349679851
-0.3407000000000001,-54.39564947981066
-0.3417,-54.35320814081471
-0.3427000000000001,-54.43809081880661
-0.3437,-54.56541483579447
-0.3447000000000001,-54.69273885278232
-0.3457,-54.60785617479041
-0.3467000000000001,-54.480532157802564
-0.3477,-54.39564947981066
-0.3487000000000001,-54.39564947981066
-0.3497,-54.480532157802564
-0.3507000000000001,-54.65029751378637
-0.3517,-54.69273885278232
-0.3527000000000001,-54.60785617479041
-0.3537,-54.52297349679851
-0.3547000000000001,-54.43809081880661
-0.3557,-54.52297349679851
-0.35670000000000013,-54.65029751378637
-0.3577,-54.791768643772876
-0.35870000000000013,-54.876651321764776
-0.3597,-54.791768643772876
-0.36070000000000013,-54.65029751378637
-0.3617,-54.65029751378637
-0.3626999999999999,-54.73518019177827
-0.3637,-54.919092660760725
-0.3646999999999999,-55.003975338752625
-0.3657,-55.003975338752625
-0.3666999999999999,-54.919092660760725
-0.3677,-54.876651321764776
-0.3686999999999999,-54.876651321764776
-0.36970000000000003,-55.003975338752625
-0.3706999999999999,-55.17374069473642
-0.37170000000000003,-55.31521182472294
-0.3726999999999999,-55.25862337272834
-0.37370000000000003,-55.17374069473642
-0.3746999999999999,-55.13129935574048
-0.37570000000000003,-55.21618203373238
-0.3766999999999999,-55.400094502714836
-0.37770000000000004,-55.527418519702685
-0.3786999999999999,-55.56985985869864
-0.37970000000000004,-55.527418519702685
-0.3806999999999999,-55.442535841710786
-0.38170000000000004,-55.442535841710786
-0.38269999999999993,-55.527418519702685
-0.38370000000000004,-55.73962521468245
-0.38469999999999993,-55.9235376836649
-0.38570000000000004,-55.9235376836649
-0.38669999999999993,-54.919092660760725
-0.38570000000000004,-52.471642111994214
-0.38469999999999993,-50.50519340518181
-0.38370000000000004,-48.80753984534376
-0.38269999999999993,-47.36453431948143
-0.38170000000000004,-45.89323456762179
-0.3806999999999999,-44.4077877027635
-0.37970000000000004,-42.96478217690117
-0.3786999999999999,-41.606659329030734
-0.37770000000000004,-40.43244895014274
-0.3766999999999999,-39.42800392723857
-0.37570000000000003,-38.42355890433439
-0.3746999999999999,-37.41911388143023
-0.37370000000000003,-36.28734484153819
-0.3726999999999999,-35.198017140642115
-0.37170000000000003,-34.193572117737936
-0.3706999999999999,-33.330598224820264
-0.36970000000000003,-32.53835989689585
-0.3686999999999999,-31.802710020966025
-0.3677,-30.925589015049702
-0.3666999999999999,-29.96358533114148
-0.3657,-29.058170099227848
-0.3646999999999999,-28.265931771303435
-0.3637,-27.615164573365515
-0.3626999999999999,-27.00683871442355
-0.3617,-26.34192440348698
-0.36070000000000013,-25.563833188561212
-0.3597,-24.771594860636792
-0.35870000000000013,-23.993503645711023
-0.3577,-23.385177786769056
-0.35670000000000013,-22.861734605818995
-0.3557,-22.33829142486893
-0.3547000000000001,-21.772406904922917
-0.3537,-21.022609915994444
-0.3527000000000001,-20.329401379060574
-0.3517,-19.721075520118614
-0.3507000000000001,-19.197632339168546
-0.3497,-18.80151317520634
-0.3487000000000001,-18.362952672248177
-0.3477,-17.75462681330621
-0.3467000000000001,-17.146300954364243
-0.3457,-16.495533756426326
-0.3447000000000001,-16.014531914472215
-0.3437,-15.618412750510005
-0.3427000000000001,-15.264734925543747
-0.3417,-14.826174422585586
-0.3407000000000001,-14.30273124163552
-0.3397,-13.698649516593148
-0.3387000000000001,-13.175206335643086
-0.3377,-12.73806054398479
-0.3367000000000001,-12.432482903213943
-0.3357,-12.12831997374296
-0.3347000000000001,-11.73503023238048
-0.3337,-11.211587051430415
-0.3327000000000001,-10.644287820184536
-0.3317,-10.164700689530287
-0.3307000000000001,-9.85912304875944
-0.3297,-9.59740145828441
-0.3287000000000001,-9.293238528813426
-0.3277,-8.899948787450944
-0.3267000000000001,-8.4203616567967
-0.3257,-7.940774526142452
-0.3247000000000001,-7.5474847847799715
-0.3237,-7.28576319430494
-0.3227000000000001,-7.111753704421539
-0.3217,-6.762320013354876
-0.3207000000000001,-6.37044498329226
-0.3197,-5.890857852638012
-0.3187000000000001,-5.497568111275533
-0.3177,-5.191990470504685
-0.3167000000000001,-4.974124930325469
-0.3157,-4.800115440442069
-0.3147000000000001,-4.494537799671222
-0.3137,-4.102662769608606
-0.3127000000000001,-3.6655169779503103
-0.3117,-3.317497998183511
-0.3107000000000001,-3.055776407708479
-0.3097,-2.924208256821031
-0.3087000000000001,-2.706342716641815
-0.3077,-2.4007650758709675
-0.3067000000000001,-2.008890045808352
-0.30569999999999997,-1.6156003044458718
-0.3047000000000001,-1.3543031273607997
-0.30369999999999997,-1.1798692240874404
-0.3027000000000001,-1.0054353208140816
-0.30169999999999997,-0.8308599464107361
-0.3007000000000001,-0.48199213986401795
-0.29969999999999997,-0.08943804837746762
-0.2987000000000001,0.21588494435940458
-0.29769999999999996,0.4776065348344364
-0.2967000000000001,0.5647527509061226
-0.29569999999999996,0.6956135461436386
-0.2947000000000001,0.9137620285828272
-0.29369999999999996,1.2626298351295453
-0.29270000000000007,1.6113561705462767
-0.29169999999999996,1.9169338113171246
-0.29070000000000007,2.048501962204573
-0.28969999999999996,2.1347993514963406
-0.28870000000000007,2.2663675023837886
-0.28769999999999996,2.5280890928588207
-0.28670000000000007,2.8761080726256196
-0.28569999999999995,3.1816857133964676
-0.28470000000000006,3.3995512535756833
-0.28369999999999995,3.5311194044631313
-0.28270000000000006,3.5749754547589476
-0.28169999999999995,3.7051288943465317
-0.28070000000000006,4.01070653511738
-0.27969999999999995,4.316284175888227
-0.27870000000000006,4.6218618166590755
-0.27769999999999995,4.795871306542475
-0.27670000000000006,4.883583407134107
-0.27569999999999995,4.926024746130058
-0.27470000000000006,5.101448947313322
-0.27369999999999994,5.3631705377883545
-0.27270000000000005,5.667333467259336
-0.27169999999999994,5.886613718738418
-0.27070000000000005,6.016767158326001
-0.26969999999999994,6.060623208621817
-0.26870000000000005,6.14833530921345
-0.26769999999999994,6.322344799096849
-0.26670000000000005,6.671778490163514
-0.26569999999999994,6.933500080638546
