Dec. 13, 2024   13:00:11
Cyclic Voltammetry
File: c:/users/guazh/data/banditlqround7_x0exp59_r20/2024-12-09-exp648\exp648-2024-12-13t12_44_59-h2koh\exp648_cv_sr_400mvs_efin_-1600mv.bin
Data Source:  Experiment
Instrument Model:  CHI760E
Header: CV ran at 400 mVs
Note: 

Init E (V) = -1
High E (V) = -1
Low E (V) = -1.6
Final E (V) = -1
Init P/N = N
Scan Rate (V/s) = 0.4
Segment = 3
Sample Interval (V) = 0.001
Quiet Time (sec) = 2
Sensitivity (A/V) = 0.01
Comp R (ohm) = 1.3

Results:

Channel 1:
Segment 1:
Ep = -1.205V
ip = 6.754e-5A
Ah = 8.930e-6C

Segment 2:

Segment 3:

Potential/V, Current/A

-1.000, 1.865e-5
-1.001, 3.407e-5
-1.002, 3.715e-5
-1.003, 4.024e-5
-1.004, 4.332e-5
-1.005, 4.332e-5
-1.006, 4.332e-5
-1.007, 4.332e-5
-1.008, 4.332e-5
-1.009, 4.332e-5
-1.010, 4.640e-5
-1.011, 4.640e-5
-1.012, 4.640e-5
-1.013, 4.640e-5
-1.014, 4.640e-5
-1.015, 4.640e-5
-1.016, 4.640e-5
-1.017, 4.949e-5
-1.018, 4.949e-5
-1.019, 4.949e-5
-1.020, 4.640e-5
-1.021, 4.640e-5
-1.022, 4.640e-5
-1.023, 4.949e-5
-1.024, 5.257e-5
-1.025, 4.949e-5
-1.026, 4.949e-5
-1.027, 4.640e-5
-1.028, 4.640e-5
-1.029, 4.949e-5
-1.030, 5.257e-5
-1.031, 5.257e-5
-1.032, 5.257e-5
-1.033, 4.949e-5
-1.034, 4.949e-5
-1.035, 4.949e-5
-1.036, 4.949e-5
-1.037, 5.257e-5
-1.038, 5.257e-5
-1.039, 5.257e-5
-1.040, 4.949e-5
-1.041, 4.949e-5
-1.042, 4.949e-5
-1.043, 4.949e-5
-1.044, 5.257e-5
-1.045, 5.257e-5
-1.046, 4.949e-5
-1.047, 4.949e-5
-1.048, 4.949e-5
-1.049, 4.949e-5
-1.050, 5.257e-5
-1.051, 5.257e-5
-1.052, 5.257e-5
-1.053, 5.257e-5
-1.054, 4.949e-5
-1.055, 4.949e-5
-1.056, 4.949e-5
-1.057, 5.257e-5
-1.058, 5.257e-5
-1.059, 5.257e-5
-1.060, 4.949e-5
-1.061, 4.949e-5
-1.062, 4.949e-5
-1.063, 5.257e-5
-1.064, 5.257e-5
-1.065, 5.257e-5
-1.066, 5.257e-5
-1.067, 4.949e-5
-1.068, 4.949e-5
-1.069, 4.949e-5
-1.070, 5.257e-5
-1.071, 5.565e-5
-1.072, 5.257e-5
-1.073, 5.257e-5
-1.074, 5.257e-5
-1.075, 5.257e-5
-1.076, 5.257e-5
-1.077, 5.257e-5
-1.078, 5.565e-5
-1.079, 5.257e-5
-1.080, 5.257e-5
-1.081, 5.257e-5
-1.082, 5.257e-5
-1.083, 5.257e-5
-1.084, 5.565e-5
-1.085, 5.565e-5
-1.086, 5.257e-5
-1.087, 5.257e-5
-1.088, 5.257e-5
-1.089, 5.257e-5
-1.090, 5.565e-5
-1.091, 5.565e-5
-1.092, 5.565e-5
-1.093, 5.565e-5
-1.094, 5.257e-5
-1.095, 5.565e-5
-1.096, 5.565e-5
-1.097, 5.565e-5
-1.098, 5.873e-5
-1.099, 5.565e-5
-1.100, 5.565e-5
-1.101, 5.565e-5
-1.102, 5.257e-5
-1.103, 5.565e-5
-1.104, 5.873e-5
-1.105, 5.873e-5
-1.106, 5.873e-5
-1.107, 5.565e-5
-1.108, 5.565e-5
-1.109, 5.565e-5
-1.110, 5.873e-5
-1.111, 5.873e-5
-1.112, 6.182e-5
-1.113, 5.873e-5
-1.114, 5.873e-5
-1.115, 5.873e-5
-1.116, 5.873e-5
-1.117, 6.182e-5
-1.118, 6.182e-5
-1.119, 6.182e-5
-1.120, 6.182e-5
-1.121, 5.873e-5
-1.122, 6.182e-5
-1.123, 6.182e-5
-1.124, 6.490e-5
-1.125, 6.490e-5
-1.126, 6.490e-5
-1.127, 6.490e-5
-1.128, 6.182e-5
-1.129, 6.490e-5
-1.130, 6.798e-5
-1.131, 6.798e-5
-1.132, 6.798e-5
-1.133, 6.798e-5
-1.134, 6.798e-5
-1.135, 6.798e-5
-1.136, 6.798e-5
-1.137, 7.107e-5
-1.138, 7.107e-5
-1.139, 7.107e-5
-1.140, 7.107e-5
-1.141, 7.107e-5
-1.142, 7.107e-5
-1.143, 7.415e-5
-1.144, 7.415e-5
-1.145, 7.415e-5
-1.146, 7.415e-5
-1.147, 7.415e-5
-1.148, 7.415e-5
-1.149, 7.415e-5
-1.150, 7.723e-5
-1.151, 8.032e-5
-1.152, 8.032e-5
-1.153, 8.032e-5
-1.154, 8.032e-5
-1.155, 8.032e-5
-1.156, 8.032e-5
-1.157, 8.340e-5
-1.158, 8.648e-5
-1.159, 8.340e-5
-1.160, 8.340e-5
-1.161, 8.340e-5
-1.162, 8.340e-5
-1.163, 8.648e-5
-1.164, 8.957e-5
-1.165, 8.957e-5
-1.166, 8.957e-5
-1.167, 8.648e-5
-1.168, 8.648e-5
-1.169, 8.957e-5
-1.170, 9.265e-5
-1.171, 9.573e-5
-1.172, 9.573e-5
-1.173, 9.573e-5
-1.174, 9.265e-5
-1.175, 9.265e-5
-1.176, 9.573e-5
-1.177, 9.882e-5
-1.178, 1.019e-4
-1.179, 1.019e-4
-1.180, 9.882e-5
-1.181, 9.882e-5
-1.182, 9.882e-5
-1.183, 1.019e-4
-1.184, 1.050e-4
-1.185, 1.050e-4
-1.186, 1.050e-4
-1.187, 1.050e-4
-1.188, 1.050e-4
-1.189, 1.050e-4
-1.190, 1.081e-4
-1.191, 1.111e-4
-1.192, 1.111e-4
-1.193, 1.081e-4
-1.194, 1.081e-4
-1.195, 1.081e-4
-1.196, 1.111e-4
-1.197, 1.111e-4
-1.198, 1.142e-4
-1.199, 1.142e-4
-1.200, 1.111e-4
-1.201, 1.111e-4
-1.202, 1.111e-4
-1.203, 1.142e-4
-1.204, 1.142e-4
-1.205, 1.173e-4
-1.206, 1.142e-4
-1.207, 1.142e-4
-1.208, 1.111e-4
-1.209, 1.111e-4
-1.210, 1.142e-4
-1.211, 1.173e-4
-1.212, 1.173e-4
-1.213, 1.142e-4
-1.214, 1.142e-4
-1.215, 1.111e-4
-1.216, 1.142e-4
-1.217, 1.142e-4
-1.218, 1.142e-4
-1.219, 1.142e-4
-1.220, 1.111e-4
-1.221, 1.081e-4
-1.222, 1.081e-4
-1.223, 1.111e-4
-1.224, 1.111e-4
-1.225, 1.111e-4
-1.226, 1.081e-4
-1.227, 1.050e-4
-1.228, 1.050e-4
-1.229, 1.050e-4
-1.230, 1.050e-4
-1.231, 1.050e-4
-1.232, 1.050e-4
-1.233, 1.050e-4
-1.234, 1.019e-4
-1.235, 9.882e-5
-1.236, 9.882e-5
-1.237, 9.882e-5
-1.238, 9.882e-5
-1.239, 9.882e-5
-1.240, 9.265e-5
-1.241, 9.265e-5
-1.242, 9.265e-5
-1.243, 9.265e-5
-1.244, 9.265e-5
-1.245, 9.265e-5
-1.246, 8.957e-5
-1.247, 8.957e-5
-1.248, 8.648e-5
-1.249, 8.648e-5
-1.250, 8.648e-5
-1.251, 8.957e-5
-1.252, 8.648e-5
-1.253, 8.340e-5
-1.254, 8.340e-5
-1.255, 8.340e-5
-1.256, 8.340e-5
-1.257, 8.340e-5
-1.258, 8.340e-5
-1.259, 8.340e-5
-1.260, 8.032e-5
-1.261, 8.032e-5
-1.262, 8.032e-5
-1.263, 8.032e-5
-1.264, 8.032e-5
-1.265, 8.032e-5
-1.266, 8.032e-5
-1.267, 7.723e-5
-1.268, 7.723e-5
-1.269, 7.723e-5
-1.270, 8.032e-5
-1.271, 8.032e-5
-1.272, 8.032e-5
-1.273, 7.723e-5
-1.274, 7.723e-5
-1.275, 7.415e-5
-1.276, 7.723e-5
-1.277, 7.723e-5
-1.278, 8.032e-5
-1.279, 7.723e-5
-1.280, 7.723e-5
-1.281, 7.415e-5
-1.282, 7.415e-5
-1.283, 7.723e-5
-1.284, 7.723e-5
-1.285, 8.032e-5
-1.286, 7.723e-5
-1.287, 7.415e-5
-1.288, 7.415e-5
-1.289, 7.723e-5
-1.290, 7.723e-5
-1.291, 8.032e-5
-1.292, 8.032e-5
-1.293, 7.723e-5
-1.294, 7.723e-5
-1.295, 7.415e-5
-1.296, 7.723e-5
-1.297, 8.032e-5
-1.298, 8.032e-5
-1.299, 7.723e-5
-1.300, 7.723e-5
-1.301, 7.415e-5
-1.302, 7.723e-5
-1.303, 7.723e-5
-1.304, 8.032e-5
-1.305, 8.032e-5
-1.306, 7.723e-5
-1.307, 7.723e-5
-1.308, 7.723e-5
-1.309, 7.723e-5
-1.310, 8.032e-5
-1.311, 8.032e-5
-1.312, 8.032e-5
-1.313, 8.032e-5
-1.314, 7.723e-5
-1.315, 7.723e-5
-1.316, 8.032e-5
-1.317, 8.032e-5
-1.318, 8.340e-5
-1.319, 8.340e-5
-1.320, 8.032e-5
-1.321, 8.032e-5
-1.322, 7.723e-5
-1.323, 8.032e-5
-1.324, 8.340e-5
-1.325, 8.340e-5
-1.326, 8.340e-5
-1.327, 8.340e-5
-1.328, 8.032e-5
-1.329, 8.032e-5
-1.330, 8.340e-5
-1.331, 8.648e-5
-1.332, 8.648e-5
-1.333, 8.340e-5
-1.334, 8.340e-5
-1.335, 8.340e-5
-1.336, 8.340e-5
-1.337, 8.648e-5
-1.338, 8.957e-5
-1.339, 8.648e-5
-1.340, 8.648e-5
-1.341, 8.340e-5
-1.342, 8.340e-5
-1.343, 8.648e-5
-1.344, 8.957e-5
-1.345, 8.957e-5
-1.346, 8.957e-5
-1.347, 8.957e-5
-1.348, 8.648e-5
-1.349, 8.957e-5
-1.350, 9.265e-5
-1.351, 9.265e-5
-1.352, 9.573e-5
-1.353, 9.265e-5
-1.354, 9.265e-5
-1.355, 9.265e-5
-1.356, 9.573e-5
-1.357, 9.573e-5
-1.358, 9.882e-5
-1.359, 9.882e-5
-1.360, 9.882e-5
-1.361, 9.573e-5
-1.362, 9.882e-5
-1.363, 1.019e-4
-1.364, 1.050e-4
-1.365, 1.050e-4
-1.366, 1.050e-4
-1.367, 1.050e-4
-1.368, 1.019e-4
-1.369, 1.050e-4
-1.370, 1.081e-4
-1.371, 1.111e-4
-1.372, 1.111e-4
-1.373, 1.111e-4
-1.374, 1.111e-4
-1.375, 1.111e-4
-1.376, 1.111e-4
-1.377, 1.173e-4
-1.378, 1.204e-4
-1.379, 1.204e-4
-1.380, 1.173e-4
-1.381, 1.173e-4
-1.382, 1.204e-4
-1.383, 1.235e-4
-1.384, 1.266e-4
-1.385, 1.296e-4
-1.386, 1.296e-4
-1.387, 1.296e-4
-1.388, 1.296e-4
-1.389, 1.327e-4
-1.390, 1.358e-4
-1.391, 1.420e-4
-1.392, 1.420e-4
-1.393, 1.420e-4
-1.394, 1.420e-4
-1.395, 1.451e-4
-1.396, 1.481e-4
-1.397, 1.512e-4
-1.398, 1.574e-4
-1.399, 1.574e-4
-1.400, 1.574e-4
-1.401, 1.574e-4
-1.402, 1.636e-4
-1.403, 1.666e-4
-1.404, 1.728e-4
-1.405, 1.759e-4
-1.406, 1.759e-4
-1.407, 1.790e-4
-1.408, 1.790e-4
-1.409, 1.851e-4
-1.410, 1.913e-4
-1.411, 1.975e-4
-1.412, 2.006e-4
-1.413, 2.006e-4
-1.414, 2.036e-4
-1.415, 2.098e-4
-1.416, 2.129e-4
-1.417, 2.221e-4
-1.418, 2.283e-4
-1.419, 2.314e-4
-1.420, 2.345e-4
-1.421, 2.376e-4
-1.422, 2.437e-4
-1.423, 2.530e-4
-1.424, 2.591e-4
-1.425, 2.684e-4
-1.426, 2.715e-4
-1.427, 2.776e-4
-1.428, 2.838e-4
-1.429, 2.931e-4
-1.430, 3.023e-4
-1.431, 3.115e-4
-1.432, 3.208e-4
-1.433, 3.270e-4
-1.434, 3.331e-4
-1.435, 3.424e-4
-1.436, 3.547e-4
-1.437, 3.670e-4
-1.438, 3.794e-4
-1.439, 3.886e-4
-1.440, 3.979e-4
-1.441, 4.102e-4
-1.442, 4.225e-4
-1.443, 4.380e-4
-1.444, 4.534e-4
-1.445, 4.688e-4
-1.446, 4.842e-4
-1.447, 4.965e-4
-1.448, 5.120e-4
-1.449, 5.305e-4
-1.450, 5.489e-4
-1.451, 5.705e-4
-1.452, 5.921e-4
-1.453, 6.106e-4
-1.454, 6.291e-4
-1.455, 6.507e-4
-1.456, 6.754e-4
-1.457, 7.031e-4
-1.458, 7.309e-4
-1.459, 7.555e-4
-1.460, 7.833e-4
-1.461, 8.110e-4
-1.462, 8.418e-4
-1.463, 8.788e-4
-1.464, 9.128e-4
-1.465, 9.498e-4
-1.466, 9.898e-4
-1.467, 1.024e-3
-1.468, 1.064e-3
-1.469, 1.107e-3
-1.470, 1.150e-3
-1.471, 1.199e-3
-1.472, 1.243e-3
-1.473, 1.292e-3
-1.474, 1.341e-3
-1.475, 1.391e-3
-1.476, 1.446e-3
-1.477, 1.505e-3
-1.478, 1.566e-3
-1.479, 1.628e-3
-1.480, 1.690e-3
-1.481, 1.751e-3
-1.482, 1.816e-3
-1.483, 1.890e-3
-1.484, 1.961e-3
-1.485, 2.032e-3
-1.486, 2.106e-3
-1.487, 2.177e-3
-1.488, 2.248e-3
-1.489, 2.322e-3
-1.490, 2.396e-3
-1.491, 2.473e-3
-1.492, 2.550e-3
-1.493, 2.624e-3
-1.494, 2.695e-3
-1.495, 2.766e-3
-1.496, 2.840e-3
-1.497, 2.917e-3
-1.498, 2.997e-3
-1.499, 3.074e-3
-1.500, 3.151e-3
-1.501, 3.228e-3
-1.502, 3.305e-3
-1.503, 3.382e-3
-1.504, 3.466e-3
-1.505, 3.549e-3
-1.506, 3.629e-3
-1.507, 3.706e-3
-1.508, 3.783e-3
-1.509, 3.863e-3
-1.510, 3.947e-3
-1.511, 4.033e-3
-1.512, 4.116e-3
-1.513, 4.196e-3
-1.514, 4.273e-3
-1.515, 4.350e-3
-1.516, 4.428e-3
-1.517, 4.511e-3
-1.518, 4.597e-3
-1.519, 4.680e-3
-1.520, 4.757e-3
-1.521, 4.834e-3
-1.522, 4.908e-3
-1.523, 4.986e-3
-1.524, 5.063e-3
-1.525, 5.140e-3
-1.526, 5.217e-3
-1.527, 5.294e-3
-1.528, 5.368e-3
-1.529, 5.445e-3
-1.530, 5.528e-3
-1.531, 5.614e-3
-1.532, 5.695e-3
-1.533, 5.775e-3
-1.534, 5.852e-3
-1.535, 5.932e-3
-1.536, 6.009e-3
-1.537, 6.095e-3
-1.538, 6.179e-3
-1.539, 6.265e-3
-1.540, 6.345e-3
-1.541, 6.419e-3
-1.542, 6.493e-3
-1.543, 6.580e-3
-1.544, 6.666e-3
-1.545, 6.755e-3
-1.546, 6.838e-3
-1.547, 6.922e-3
-1.548, 6.999e-3
-1.549, 7.076e-3
-1.550, 7.159e-3
-1.551, 7.242e-3
-1.552, 7.329e-3
-1.553, 7.418e-3
-1.554, 7.504e-3
-1.555, 7.588e-3
-1.556, 7.674e-3
-1.557, 7.757e-3
-1.558, 7.847e-3
-1.559, 7.936e-3
-1.560, 8.013e-3
-1.561, 8.087e-3
-1.562, 8.167e-3
-1.563, 8.247e-3
-1.564, 8.334e-3
-1.565, 8.420e-3
-1.566, 8.503e-3
-1.567, 8.580e-3
-1.568, 8.658e-3
-1.569, 8.741e-3
-1.570, 8.830e-3
-1.571, 8.923e-3
-1.572, 9.015e-3
-1.573, 9.101e-3
-1.574, 9.182e-3
-1.575, 9.262e-3
-1.576, 9.342e-3
-1.577, 9.425e-3
-1.578, 9.515e-3
-1.579, 9.601e-3
-1.580, 9.684e-3
-1.581, 9.764e-3
-1.582, 9.845e-3
-1.583, 9.928e-3
-1.584, 1.002e-2
-1.585, 1.011e-2
-1.586, 1.019e-2
-1.587, 1.028e-2
-1.588, 1.036e-2
-1.589, 1.045e-2
-1.590, 1.054e-2
-1.591, 1.063e-2
-1.592, 1.072e-2
-1.593, 1.081e-2
-1.594, 1.089e-2
-1.595, 1.097e-2
-1.596, 1.105e-2
-1.597, 1.114e-2
-1.598, 1.123e-2
-1.599, 1.132e-2
-1.600, 1.136e-2
-1.599, 1.128e-2
-1.598, 1.119e-2
-1.597, 1.110e-2
-1.596, 1.102e-2
-1.595, 1.094e-2
-1.594, 1.087e-2
-1.593, 1.078e-2
-1.592, 1.070e-2
-1.591, 1.062e-2
-1.590, 1.054e-2
-1.589, 1.046e-2
-1.588, 1.037e-2
-1.587, 1.029e-2
-1.586, 1.020e-2
-1.585, 1.012e-2
-1.584, 1.004e-2
-1.583, 9.962e-3
-1.582, 9.888e-3
-1.581, 9.808e-3
-1.580, 9.724e-3
-1.579, 9.638e-3
-1.578, 9.555e-3
-1.577, 9.478e-3
-1.576, 9.397e-3
-1.575, 9.314e-3
-1.574, 9.228e-3
-1.573, 9.142e-3
-1.572, 9.055e-3
-1.571, 8.975e-3
-1.570, 8.904e-3
-1.569, 8.833e-3
-1.568, 8.765e-3
-1.567, 8.688e-3
-1.566, 8.608e-3
-1.565, 8.528e-3
-1.564, 8.448e-3
-1.563, 8.374e-3
-1.562, 8.300e-3
-1.561, 8.229e-3
-1.560, 8.152e-3
-1.559, 8.075e-3
-1.558, 7.995e-3
-1.557, 7.918e-3
-1.556, 7.844e-3
-1.555, 7.773e-3
-1.554, 7.702e-3
-1.553, 7.625e-3
-1.552, 7.548e-3
-1.551, 7.480e-3
-1.550, 7.406e-3
-1.549, 7.341e-3
-1.548, 7.276e-3
-1.547, 7.205e-3
-1.546, 7.134e-3
-1.545, 7.057e-3
-1.544, 6.983e-3
-1.543, 6.912e-3
-1.542, 6.845e-3
-1.541, 6.774e-3
-1.540, 6.700e-3
-1.539, 6.626e-3
-1.538, 6.552e-3
-1.537, 6.487e-3
-1.536, 6.422e-3
-1.535, 6.358e-3
-1.534, 6.293e-3
-1.533, 6.222e-3
-1.532, 6.145e-3
-1.531, 6.074e-3
-1.530, 6.003e-3
-1.529, 5.941e-3
-1.528, 5.880e-3
-1.527, 5.812e-3
-1.526, 5.744e-3
-1.525, 5.673e-3
-1.524, 5.605e-3
-1.523, 5.537e-3
-1.522, 5.473e-3
-1.521, 5.408e-3
-1.520, 5.340e-3
-1.519, 5.272e-3
-1.518, 5.201e-3
-1.517, 5.137e-3
-1.516, 5.078e-3
-1.515, 5.023e-3
-1.514, 4.961e-3
-1.513, 4.893e-3
-1.512, 4.825e-3
-1.511, 4.757e-3
-1.510, 4.696e-3
-1.509, 4.634e-3
-1.508, 4.575e-3
-1.507, 4.514e-3
-1.506, 4.452e-3
-1.505, 4.391e-3
-1.504, 4.335e-3
-1.503, 4.286e-3
-1.502, 4.233e-3
-1.501, 4.181e-3
-1.500, 4.125e-3
-1.499, 4.070e-3
-1.498, 4.008e-3
-1.497, 3.947e-3
-1.496, 3.891e-3
-1.495, 3.836e-3
-1.494, 3.780e-3
-1.493, 3.721e-3
-1.492, 3.663e-3
-1.491, 3.607e-3
-1.490, 3.555e-3
-1.489, 3.506e-3
-1.488, 3.456e-3
-1.487, 3.404e-3
-1.486, 3.348e-3
-1.485, 3.293e-3
-1.484, 3.241e-3
-1.483, 3.191e-3
-1.482, 3.142e-3
-1.481, 3.096e-3
-1.480, 3.043e-3
-1.479, 2.991e-3
-1.478, 2.938e-3
-1.477, 2.892e-3
-1.476, 2.846e-3
-1.475, 2.806e-3
-1.474, 2.763e-3
-1.473, 2.713e-3
-1.472, 2.664e-3
-1.471, 2.618e-3
-1.470, 2.575e-3
-1.469, 2.534e-3
-1.468, 2.488e-3
-1.467, 2.442e-3
-1.466, 2.393e-3
-1.465, 2.343e-3
-1.464, 2.297e-3
-1.463, 2.257e-3
-1.462, 2.217e-3
-1.461, 2.180e-3
-1.460, 2.143e-3
-1.459, 2.100e-3
-1.458, 2.060e-3
-1.457, 2.023e-3
-1.456, 1.986e-3
-1.455, 1.952e-3
-1.454, 1.912e-3
-1.453, 1.872e-3
-1.452, 1.832e-3
-1.451, 1.795e-3
-1.450, 1.758e-3
-1.449, 1.724e-3
-1.448, 1.690e-3
-1.447, 1.656e-3
-1.446, 1.619e-3
-1.445, 1.585e-3
-1.444, 1.551e-3
-1.443, 1.520e-3
-1.442, 1.489e-3
-1.441, 1.458e-3
-1.440, 1.428e-3
-1.439, 1.394e-3
-1.438, 1.360e-3
-1.437, 1.329e-3
-1.436, 1.304e-3
-1.435, 1.273e-3
-1.434, 1.249e-3
-1.433, 1.218e-3
-1.432, 1.193e-3
-1.431, 1.166e-3
-1.430, 1.141e-3
-1.429, 1.116e-3
-1.428, 1.092e-3
-1.427, 1.064e-3
-1.426, 1.036e-3
-1.425, 1.011e-3
-1.424, 9.868e-4
-1.423, 9.652e-4
-1.422, 9.405e-4
-1.421, 9.189e-4
-1.420, 8.943e-4
-1.419, 8.727e-4
-1.418, 8.511e-4
-1.417, 8.295e-4
-1.416, 8.110e-4
-1.415, 7.925e-4
-1.414, 7.709e-4
-1.413, 7.494e-4
-1.412, 7.309e-4
-1.411, 7.124e-4
-1.410, 6.939e-4
-1.409, 6.784e-4
-1.408, 6.599e-4
-1.407, 6.414e-4
-1.406, 6.229e-4
-1.405, 6.075e-4
-1.404, 5.890e-4
-1.403, 5.767e-4
-1.402, 5.613e-4
-1.401, 5.459e-4
-1.400, 5.305e-4
-1.399, 5.150e-4
-1.398, 4.996e-4
-1.397, 4.873e-4
-1.396, 4.750e-4
-1.395, 4.626e-4
-1.394, 4.503e-4
-1.393, 4.349e-4
-1.392, 4.225e-4
-1.391, 4.102e-4
-1.390, 3.979e-4
-1.389, 3.886e-4
-1.388, 3.763e-4
-1.387, 3.640e-4
-1.386, 3.547e-4
-1.385, 3.424e-4
-1.384, 3.300e-4
-1.383, 3.239e-4
-1.382, 3.146e-4
-1.381, 3.054e-4
-1.380, 2.931e-4
-1.379, 2.838e-4
-1.378, 2.746e-4
-1.377, 2.684e-4
-1.376, 2.591e-4
-1.375, 2.499e-4
-1.374, 2.437e-4
-1.373, 2.345e-4
-1.372, 2.252e-4
-1.371, 2.191e-4
-1.370, 2.129e-4
-1.369, 2.067e-4
-1.368, 2.006e-4
-1.367, 1.913e-4
-1.366, 1.851e-4
-1.365, 1.759e-4
-1.364, 1.697e-4
-1.363, 1.666e-4
-1.362, 1.605e-4
-1.361, 1.543e-4
-1.360, 1.481e-4
-1.359, 1.420e-4
-1.358, 1.358e-4
-1.357, 1.327e-4
-1.356, 1.296e-4
-1.355, 1.235e-4
-1.354, 1.173e-4
-1.353, 1.111e-4
-1.352, 1.050e-4
-1.351, 1.019e-4
-1.350, 9.882e-5
-1.349, 9.882e-5
-1.348, 9.265e-5
-1.347, 8.648e-5
-1.346, 8.032e-5
-1.345, 7.415e-5
-1.344, 7.415e-5
-1.343, 7.107e-5
-1.342, 6.798e-5
-1.341, 6.490e-5
-1.340, 6.182e-5
-1.339, 5.565e-5
-1.338, 5.257e-5
-1.337, 4.949e-5
-1.336, 4.949e-5
-1.335, 4.640e-5
-1.334, 4.332e-5
-1.333, 3.715e-5
-1.332, 3.407e-5
-1.331, 3.099e-5
-1.330, 3.099e-5
-1.329, 3.099e-5
-1.328, 2.790e-5
-1.327, 2.174e-5
-1.326, 1.865e-5
-1.325, 1.557e-5
-1.324, 1.557e-5
-1.323, 1.249e-5
-1.322, 1.249e-5
-1.321, 9.405e-6
-1.320, 6.322e-6
-1.319, 3.239e-6
-1.318, 1.559e-7
-1.317, 1.559e-7
-1.316, 1.559e-7
-1.315, -2.927e-6
-1.314, -2.927e-6
-1.313, -9.093e-6
-1.312, -1.218e-5
-1.311, -1.218e-5
-1.310, -1.218e-5
-1.309, -1.218e-5
-1.308, -1.526e-5
-1.307, -1.834e-5
-1.306, -2.143e-5
-1.305, -2.451e-5
-1.304, -2.451e-5
-1.303, -2.143e-5
-1.302, -2.143e-5
-1.301, -2.451e-5
-1.300, -2.759e-5
-1.299, -3.068e-5
-1.298, -3.376e-5
-1.297, -3.068e-5
-1.296, -3.068e-5
-1.295, -3.068e-5
-1.294, -3.376e-5
-1.293, -3.684e-5
-1.292, -3.992e-5
-1.291, -3.992e-5
-1.290, -3.992e-5
-1.289, -3.992e-5
-1.288, -3.992e-5
-1.287, -4.301e-5
-1.286, -4.609e-5
-1.285, -4.917e-5
-1.284, -4.917e-5
-1.283, -4.609e-5
-1.282, -4.609e-5
-1.281, -4.917e-5
-1.280, -5.226e-5
-1.279, -5.534e-5
-1.278, -5.842e-5
-1.277, -5.534e-5
-1.276, -5.534e-5
-1.275, -5.534e-5
-1.274, -5.534e-5
-1.273, -5.842e-5
-1.272, -6.151e-5
-1.271, -6.151e-5
-1.270, -6.151e-5
-1.269, -6.151e-5
-1.268, -6.151e-5
-1.267, -6.459e-5
-1.266, -6.767e-5
-1.265, -6.767e-5
-1.264, -6.767e-5
-1.263, -6.767e-5
-1.262, -6.459e-5
-1.261, -6.767e-5
-1.260, -7.076e-5
-1.259, -7.384e-5
-1.258, -7.384e-5
-1.257, -7.384e-5
-1.256, -7.076e-5
-1.255, -7.076e-5
-1.254, -7.384e-5
-1.253, -7.692e-5
-1.252, -7.692e-5
-1.251, -8.000e-5
-1.250, -7.692e-5
-1.249, -7.692e-5
-1.248, -7.692e-5
-1.247, -8.000e-5
-1.246, -8.309e-5
-1.245, -8.309e-5
-1.244, -8.309e-5
-1.243, -8.000e-5
-1.242, -8.000e-5
-1.241, -8.309e-5
-1.240, -8.617e-5
-1.239, -8.925e-5
-1.238, -8.925e-5
-1.237, -8.617e-5
-1.236, -8.617e-5
-1.235, -8.617e-5
-1.234, -8.617e-5
-1.233, -9.234e-5
-1.232, -9.234e-5
-1.231, -9.234e-5
-1.230, -9.234e-5
-1.229, -8.925e-5
-1.228, -8.925e-5
-1.227, -9.234e-5
-1.226, -9.542e-5
-1.225, -9.542e-5
-1.224, -9.542e-5
-1.223, -9.234e-5
-1.222, -9.234e-5
-1.221, -9.234e-5
-1.220, -9.542e-5
-1.219, -9.850e-5
-1.218, -1.016e-4
-1.217, -9.850e-5
-1.216, -9.542e-5
-1.215, -9.542e-5
-1.214, -9.542e-5
-1.213, -9.850e-5
-1.212, -1.047e-4
-1.211, -1.016e-4
-1.210, -1.016e-4
-1.209, -9.850e-5
-1.208, -9.850e-5
-1.207, -1.016e-4
-1.206, -1.047e-4
-1.205, -1.047e-4
-1.204, -1.047e-4
-1.203, -1.016e-4
-1.202, -9.850e-5
-1.201, -1.016e-4
-1.200, -1.016e-4
-1.199, -1.047e-4
-1.198, -1.047e-4
-1.197, -1.016e-4
-1.196, -1.016e-4
-1.195, -9.850e-5
-1.194, -1.016e-4
-1.193, -1.047e-4
-1.192, -1.047e-4
-1.191, -1.047e-4
-1.190, -1.016e-4
-1.189, -9.850e-5
-1.188, -9.850e-5
-1.187, -1.016e-4
-1.186, -1.047e-4
-1.185, -1.047e-4
-1.184, -1.047e-4
-1.183, -1.016e-4
-1.182, -9.850e-5
-1.181, -9.850e-5
-1.180, -1.016e-4
-1.179, -1.047e-4
-1.178, -1.047e-4
-1.177, -1.016e-4
-1.176, -9.850e-5
-1.175, -9.850e-5
-1.174, -9.850e-5
-1.173, -1.016e-4
-1.172, -1.047e-4
-1.171, -1.016e-4
-1.170, -1.016e-4
-1.169, -9.850e-5
-1.168, -9.850e-5
-1.167, -1.016e-4
-1.166, -1.016e-4
-1.165, -1.016e-4
-1.164, -1.016e-4
-1.163, -9.850e-5
-1.162, -9.850e-5
-1.161, -9.850e-5
-1.160, -9.850e-5
-1.159, -1.016e-4
-1.158, -1.047e-4
-1.157, -1.016e-4
-1.156, -9.850e-5
-1.155, -9.850e-5
-1.154, -9.850e-5
-1.153, -1.016e-4
-1.152, -1.016e-4
-1.151, -1.016e-4
-1.150, -1.016e-4
-1.149, -9.850e-5
-1.148, -9.850e-5
-1.147, -9.850e-5
-1.146, -1.016e-4
-1.145, -1.016e-4
-1.144, -1.016e-4
-1.143, -9.850e-5
-1.142, -9.850e-5
-1.141, -9.850e-5
-1.140, -9.850e-5
-1.139, -1.016e-4
-1.138, -1.016e-4
-1.137, -1.016e-4
-1.136, -9.850e-5
-1.135, -9.850e-5
-1.134, -9.850e-5
-1.133, -1.016e-4
-1.132, -1.016e-4
-1.131, -1.016e-4
-1.130, -1.016e-4
-1.129, -9.850e-5
-1.128, -9.542e-5
-1.127, -9.850e-5
-1.126, -1.016e-4
-1.125, -1.016e-4
-1.124, -1.016e-4
-1.123, -9.850e-5
-1.122, -9.542e-5
-1.121, -9.850e-5
-1.120, -9.850e-5
-1.119, -1.016e-4
-1.118, -1.016e-4
-1.117, -9.850e-5
-1.116, -9.850e-5
-1.115, -9.542e-5
-1.114, -9.850e-5
-1.113, -9.850e-5
-1.112, -1.016e-4
-1.111, -9.850e-5
-1.110, -9.850e-5
-1.109, -9.542e-5
-1.108, -9.542e-5
-1.107, -9.850e-5
-1.106, -9.850e-5
-1.105, -1.016e-4
-1.104, -9.850e-5
-1.103, -9.542e-5
-1.102, -9.542e-5
-1.101, -9.542e-5
-1.100, -9.850e-5
-1.099, -9.850e-5
-1.098, -9.850e-5
-1.097, -9.542e-5
-1.096, -9.542e-5
-1.095, -9.234e-5
-1.094, -9.542e-5
-1.093, -9.542e-5
-1.092, -9.850e-5
-1.091, -9.542e-5
-1.090, -9.542e-5
-1.089, -9.234e-5
-1.088, -9.234e-5
-1.087, -9.542e-5
-1.086, -9.542e-5
-1.085, -9.542e-5
-1.084, -9.542e-5
-1.083, -9.234e-5
-1.082, -8.925e-5
-1.081, -9.234e-5
-1.080, -9.234e-5
-1.079, -9.542e-5
-1.078, -9.542e-5
-1.077, -9.234e-5
-1.076, -8.925e-5
-1.075, -8.925e-5
-1.074, -8.925e-5
-1.073, -9.234e-5
-1.072, -9.542e-5
-1.071, -9.234e-5
-1.070, -9.234e-5
-1.069, -8.925e-5
-1.068, -8.925e-5
-1.067, -9.234e-5
-1.066, -9.234e-5
-1.065, -9.234e-5
-1.064, -9.234e-5
-1.063, -8.925e-5
-1.062, -8.925e-5
-1.061, -8.925e-5
-1.060, -8.925e-5
-1.059, -9.234e-5
-1.058, -9.234e-5
-1.057, -8.925e-5
-1.056, -8.925e-5
-1.055, -8.617e-5
-1.054, -8.925e-5
-1.053, -8.925e-5
-1.052, -9.234e-5
-1.051, -8.925e-5
-1.050, -8.925e-5
-1.049, -8.617e-5
-1.048, -8.617e-5
-1.047, -8.925e-5
-1.046, -8.925e-5
-1.045, -8.925e-5
-1.044, -8.925e-5
-1.043, -8.925e-5
-1.042, -8.617e-5
-1.041, -8.617e-5
-1.040, -8.925e-5
-1.039, -8.925e-5
-1.038, -8.925e-5
-1.037, -8.925e-5
-1.036, -8.617e-5
-1.035, -8.617e-5
-1.034, -8.617e-5
-1.033, -8.925e-5
-1.032, -8.925e-5
-1.031, -8.925e-5
-1.030, -8.925e-5
-1.029, -8.617e-5
-1.028, -8.617e-5
-1.027, -8.925e-5
-1.026, -8.925e-5
-1.025, -8.925e-5
-1.024, -8.925e-5
-1.023, -8.617e-5
-1.022, -8.309e-5
-1.021, -8.617e-5
-1.020, -8.617e-5
-1.019, -8.925e-5
-1.018, -8.925e-5
-1.017, -8.925e-5
-1.016, -8.617e-5
-1.015, -8.617e-5
-1.014, -8.617e-5
-1.013, -8.925e-5
-1.012, -8.925e-5
-1.011, -8.925e-5
-1.010, -8.617e-5
-1.009, -8.617e-5
-1.008, -8.617e-5
-1.007, -8.925e-5
-1.006, -8.925e-5
-1.005, -8.925e-5
-1.004, -8.925e-5
-1.003, -8.617e-5
-1.002, -8.617e-5
-1.001, -8.617e-5
