June 25, 2026   18:58:27
Cyclic Voltammetry
File: c:/users/guazh/data/20260623_doe_duplica2/2026-06-24-exp8\exp8-2026-06-25t18_43_30-h2koh\exp8_cv_sr_500mvs_efin_-1600mv.bin
Data Source:  Experiment
Instrument Model:  CHI760E
Header: CV ran at 500 mVs
Note: 

Init E (V) = -1
High E (V) = -1
Low E (V) = -1.6
Final E (V) = -1
Init P/N = N
Scan Rate (V/s) = 0.5
Segment = 3
Sample Interval (V) = 0.001
Quiet Time (sec) = 2
Sensitivity (A/V) = 0.01
Comp R (ohm) = 1.9

Results:

Channel 1:
Segment 1:

Segment 2:

Segment 3:

Potential/V, Current/A

-1.000, 6.322e-6
-1.001, 5.565e-5
-1.002, 8.648e-5
-1.003, 1.050e-4
-1.004, 1.204e-4
-1.005, 1.327e-4
-1.006, 1.420e-4
-1.007, 1.481e-4
-1.008, 1.543e-4
-1.009, 1.574e-4
-1.010, 1.636e-4
-1.011, 1.636e-4
-1.012, 1.697e-4
-1.013, 1.697e-4
-1.014, 1.728e-4
-1.015, 1.759e-4
-1.016, 1.790e-4
-1.017, 1.790e-4
-1.018, 1.821e-4
-1.019, 1.821e-4
-1.020, 1.851e-4
-1.021, 1.851e-4
-1.022, 1.882e-4
-1.023, 1.882e-4
-1.024, 1.913e-4
-1.025, 1.913e-4
-1.026, 1.913e-4
-1.027, 1.944e-4
-1.028, 1.944e-4
-1.029, 1.944e-4
-1.030, 1.975e-4
-1.031, 1.975e-4
-1.032, 1.975e-4
-1.033, 2.006e-4
-1.034, 2.006e-4
-1.035, 2.006e-4
-1.036, 2.006e-4
-1.037, 2.036e-4
-1.038, 2.036e-4
-1.039, 2.067e-4
-1.040, 2.067e-4
-1.041, 2.067e-4
-1.042, 2.098e-4
-1.043, 2.098e-4
-1.044, 2.098e-4
-1.045, 2.098e-4
-1.046, 2.129e-4
-1.047, 2.129e-4
-1.048, 2.129e-4
-1.049, 2.129e-4
-1.050, 2.160e-4
-1.051, 2.160e-4
-1.052, 2.160e-4
-1.053, 2.160e-4
-1.054, 2.191e-4
-1.055, 2.191e-4
-1.056, 2.221e-4
-1.057, 2.221e-4
-1.058, 2.221e-4
-1.059, 2.221e-4
-1.060, 2.252e-4
-1.061, 2.252e-4
-1.062, 2.252e-4
-1.063, 2.252e-4
-1.064, 2.283e-4
-1.065, 2.283e-4
-1.066, 2.283e-4
-1.067, 2.283e-4
-1.068, 2.314e-4
-1.069, 2.314e-4
-1.070, 2.345e-4
-1.071, 2.345e-4
-1.072, 2.345e-4
-1.073, 2.345e-4
-1.074, 2.345e-4
-1.075, 2.376e-4
-1.076, 2.376e-4
-1.077, 2.406e-4
-1.078, 2.406e-4
-1.079, 2.406e-4
-1.080, 2.437e-4
-1.081, 2.437e-4
-1.082, 2.437e-4
-1.083, 2.468e-4
-1.084, 2.468e-4
-1.085, 2.468e-4
-1.086, 2.468e-4
-1.087, 2.499e-4
-1.088, 2.499e-4
-1.089, 2.530e-4
-1.090, 2.499e-4
-1.091, 2.530e-4
-1.092, 2.561e-4
-1.093, 2.561e-4
-1.094, 2.561e-4
-1.095, 2.591e-4
-1.096, 2.591e-4
-1.097, 2.622e-4
-1.098, 2.622e-4
-1.099, 2.622e-4
-1.100, 2.653e-4
-1.101, 2.653e-4
-1.102, 2.653e-4
-1.103, 2.684e-4
-1.104, 2.684e-4
-1.105, 2.684e-4
-1.106, 2.715e-4
-1.107, 2.715e-4
-1.108, 2.715e-4
-1.109, 2.746e-4
-1.110, 2.746e-4
-1.111, 2.746e-4
-1.112, 2.776e-4
-1.113, 2.776e-4
-1.114, 2.807e-4
-1.115, 2.807e-4
-1.116, 2.807e-4
-1.117, 2.838e-4
-1.118, 2.838e-4
-1.119, 2.869e-4
-1.120, 2.869e-4
-1.121, 2.869e-4
-1.122, 2.900e-4
-1.123, 2.900e-4
-1.124, 2.931e-4
-1.125, 2.931e-4
-1.126, 2.931e-4
-1.127, 2.931e-4
-1.128, 2.961e-4
-1.129, 2.961e-4
-1.130, 2.992e-4
-1.131, 2.992e-4
-1.132, 3.023e-4
-1.133, 3.023e-4
-1.134, 3.023e-4
-1.135, 3.023e-4
-1.136, 3.054e-4
-1.137, 3.054e-4
-1.138, 3.054e-4
-1.139, 3.085e-4
-1.140, 3.085e-4
-1.141, 3.085e-4
-1.142, 3.115e-4
-1.143, 3.115e-4
-1.144, 3.115e-4
-1.145, 3.146e-4
-1.146, 3.146e-4
-1.147, 3.146e-4
-1.148, 3.146e-4
-1.149, 3.177e-4
-1.150, 3.177e-4
-1.151, 3.177e-4
-1.152, 3.208e-4
-1.153, 3.208e-4
-1.154, 3.208e-4
-1.155, 3.208e-4
-1.156, 3.239e-4
-1.157, 3.239e-4
-1.158, 3.239e-4
-1.159, 3.239e-4
-1.160, 3.239e-4
-1.161, 3.270e-4
-1.162, 3.270e-4
-1.163, 3.270e-4
-1.164, 3.300e-4
-1.165, 3.300e-4
-1.166, 3.300e-4
-1.167, 3.300e-4
-1.168, 3.300e-4
-1.169, 3.331e-4
-1.170, 3.331e-4
-1.171, 3.331e-4
-1.172, 3.331e-4
-1.173, 3.331e-4
-1.174, 3.331e-4
-1.175, 3.331e-4
-1.176, 3.331e-4
-1.177, 3.362e-4
-1.178, 3.362e-4
-1.179, 3.362e-4
-1.180, 3.362e-4
-1.181, 3.362e-4
-1.182, 3.362e-4
-1.183, 3.393e-4
-1.184, 3.393e-4
-1.185, 3.393e-4
-1.186, 3.393e-4
-1.187, 3.393e-4
-1.188, 3.393e-4
-1.189, 3.393e-4
-1.190, 3.424e-4
-1.191, 3.424e-4
-1.192, 3.424e-4
-1.193, 3.424e-4
-1.194, 3.424e-4
-1.195, 3.455e-4
-1.196, 3.455e-4
-1.197, 3.455e-4
-1.198, 3.455e-4
-1.199, 3.455e-4
-1.200, 3.455e-4
-1.201, 3.485e-4
-1.202, 3.485e-4
-1.203, 3.485e-4
-1.204, 3.485e-4
-1.205, 3.485e-4
-1.206, 3.516e-4
-1.207, 3.485e-4
-1.208, 3.516e-4
-1.209, 3.516e-4
-1.210, 3.516e-4
-1.211, 3.516e-4
-1.212, 3.516e-4
-1.213, 3.547e-4
-1.214, 3.547e-4
-1.215, 3.547e-4
-1.216, 3.547e-4
-1.217, 3.578e-4
-1.218, 3.578e-4
-1.219, 3.578e-4
-1.220, 3.609e-4
-1.221, 3.578e-4
-1.222, 3.609e-4
-1.223, 3.609e-4
-1.224, 3.609e-4
-1.225, 3.609e-4
-1.226, 3.640e-4
-1.227, 3.640e-4
-1.228, 3.670e-4
-1.229, 3.701e-4
-1.230, 3.701e-4
-1.231, 3.701e-4
-1.232, 3.732e-4
-1.233, 3.732e-4
-1.234, 3.732e-4
-1.235, 3.763e-4
-1.236, 3.763e-4
-1.237, 3.794e-4
-1.238, 3.794e-4
-1.239, 3.825e-4
-1.240, 3.825e-4
-1.241, 3.825e-4
-1.242, 3.825e-4
-1.243, 3.855e-4
-1.244, 3.886e-4
-1.245, 3.917e-4
-1.246, 3.917e-4
-1.247, 3.948e-4
-1.248, 3.948e-4
-1.249, 3.979e-4
-1.250, 4.010e-4
-1.251, 4.010e-4
-1.252, 4.040e-4
-1.253, 4.040e-4
-1.254, 4.071e-4
-1.255, 4.102e-4
-1.256, 4.102e-4
-1.257, 4.133e-4
-1.258, 4.164e-4
-1.259, 4.195e-4
-1.260, 4.225e-4
-1.261, 4.225e-4
-1.262, 4.256e-4
-1.263, 4.287e-4
-1.264, 4.318e-4
-1.265, 4.349e-4
-1.266, 4.349e-4
-1.267, 4.380e-4
-1.268, 4.410e-4
-1.269, 4.441e-4
-1.270, 4.472e-4
-1.271, 4.503e-4
-1.272, 4.534e-4
-1.273, 4.565e-4
-1.274, 4.595e-4
-1.275, 4.626e-4
-1.276, 4.688e-4
-1.277, 4.688e-4
-1.278, 4.719e-4
-1.279, 4.750e-4
-1.280, 4.811e-4
-1.281, 4.842e-4
-1.282, 4.873e-4
-1.283, 4.935e-4
-1.284, 4.965e-4
-1.285, 4.996e-4
-1.286, 5.058e-4
-1.287, 5.089e-4
-1.288, 5.120e-4
-1.289, 5.181e-4
-1.290, 5.212e-4
-1.291, 5.243e-4
-1.292, 5.305e-4
-1.293, 5.335e-4
-1.294, 5.397e-4
-1.295, 5.428e-4
-1.296, 5.489e-4
-1.297, 5.520e-4
-1.298, 5.551e-4
-1.299, 5.582e-4
-1.300, 5.674e-4
-1.301, 5.705e-4
-1.302, 5.798e-4
-1.303, 5.829e-4
-1.304, 5.890e-4
-1.305, 5.921e-4
-1.306, 5.983e-4
-1.307, 6.044e-4
-1.308, 6.075e-4
-1.309, 6.137e-4
-1.310, 6.199e-4
-1.311, 6.260e-4
-1.312, 6.322e-4
-1.313, 6.353e-4
-1.314, 6.414e-4
-1.315, 6.476e-4
-1.316, 6.538e-4
-1.317, 6.599e-4
-1.318, 6.661e-4
-1.319, 6.754e-4
-1.320, 6.815e-4
-1.321, 6.877e-4
-1.322, 6.939e-4
-1.323, 7.000e-4
-1.324, 7.093e-4
-1.325, 7.154e-4
-1.326, 7.216e-4
-1.327, 7.278e-4
-1.328, 7.339e-4
-1.329, 7.432e-4
-1.330, 7.494e-4
-1.331, 7.555e-4
-1.332, 7.648e-4
-1.333, 7.709e-4
-1.334, 7.771e-4
-1.335, 7.833e-4
-1.336, 7.925e-4
-1.337, 8.018e-4
-1.338, 8.110e-4
-1.339, 8.172e-4
-1.340, 8.264e-4
-1.341, 8.357e-4
-1.342, 8.418e-4
-1.343, 8.480e-4
-1.344, 8.603e-4
-1.345, 8.665e-4
-1.346, 8.758e-4
-1.347, 8.819e-4
-1.348, 8.912e-4
-1.349, 9.004e-4
-1.350, 9.097e-4
-1.351, 9.158e-4
-1.352, 9.251e-4
-1.353, 9.343e-4
-1.354, 9.436e-4
-1.355, 9.528e-4
-1.356, 9.621e-4
-1.357, 9.713e-4
-1.358, 9.806e-4
-1.359, 9.898e-4
-1.360, 9.991e-4
-1.361, 1.008e-3
-1.362, 1.018e-3
-1.363, 1.027e-3
-1.364, 1.036e-3
-1.365, 1.045e-3
-1.366, 1.058e-3
-1.367, 1.067e-3
-1.368, 1.076e-3
-1.369, 1.085e-3
-1.370, 1.095e-3
-1.371, 1.104e-3
-1.372, 1.116e-3
-1.373, 1.125e-3
-1.374, 1.138e-3
-1.375, 1.150e-3
-1.376, 1.159e-3
-1.377, 1.169e-3
-1.378, 1.181e-3
-1.379, 1.193e-3
-1.380, 1.203e-3
-1.381, 1.212e-3
-1.382, 1.224e-3
-1.383, 1.236e-3
-1.384, 1.249e-3
-1.385, 1.258e-3
-1.386, 1.270e-3
-1.387, 1.283e-3
-1.388, 1.292e-3
-1.389, 1.304e-3
-1.390, 1.314e-3
-1.391, 1.326e-3
-1.392, 1.338e-3
-1.393, 1.351e-3
-1.394, 1.363e-3
-1.395, 1.375e-3
-1.396, 1.391e-3
-1.397, 1.403e-3
-1.398, 1.412e-3
-1.399, 1.425e-3
-1.400, 1.440e-3
-1.401, 1.452e-3
-1.402, 1.465e-3
-1.403, 1.480e-3
-1.404, 1.492e-3
-1.405, 1.505e-3
-1.406, 1.517e-3
-1.407, 1.532e-3
-1.408, 1.545e-3
-1.409, 1.557e-3
-1.410, 1.569e-3
-1.411, 1.588e-3
-1.412, 1.606e-3
-1.413, 1.622e-3
-1.414, 1.634e-3
-1.415, 1.647e-3
-1.416, 1.662e-3
-1.417, 1.677e-3
-1.418, 1.693e-3
-1.419, 1.705e-3
-1.420, 1.721e-3
-1.421, 1.736e-3
-1.422, 1.751e-3
-1.423, 1.767e-3
-1.424, 1.782e-3
-1.425, 1.798e-3
-1.426, 1.810e-3
-1.427, 1.828e-3
-1.428, 1.844e-3
-1.429, 1.859e-3
-1.430, 1.875e-3
-1.431, 1.896e-3
-1.432, 1.912e-3
-1.433, 1.927e-3
-1.434, 1.943e-3
-1.435, 1.958e-3
-1.436, 1.973e-3
-1.437, 1.992e-3
-1.438, 2.007e-3
-1.439, 2.026e-3
-1.440, 2.041e-3
-1.441, 2.060e-3
-1.442, 2.078e-3
-1.443, 2.097e-3
-1.444, 2.115e-3
-1.445, 2.131e-3
-1.446, 2.152e-3
-1.447, 2.171e-3
-1.448, 2.189e-3
-1.449, 2.208e-3
-1.450, 2.223e-3
-1.451, 2.242e-3
-1.452, 2.260e-3
-1.453, 2.279e-3
-1.454, 2.300e-3
-1.455, 2.322e-3
-1.456, 2.340e-3
-1.457, 2.359e-3
-1.458, 2.377e-3
-1.459, 2.399e-3
-1.460, 2.420e-3
-1.461, 2.439e-3
-1.462, 2.460e-3
-1.463, 2.479e-3
-1.464, 2.501e-3
-1.465, 2.519e-3
-1.466, 2.541e-3
-1.467, 2.562e-3
-1.468, 2.584e-3
-1.469, 2.605e-3
-1.470, 2.627e-3
-1.471, 2.649e-3
-1.472, 2.670e-3
-1.473, 2.692e-3
-1.474, 2.716e-3
-1.475, 2.738e-3
-1.476, 2.760e-3
-1.477, 2.781e-3
-1.478, 2.803e-3
-1.479, 2.827e-3
-1.480, 2.849e-3
-1.481, 2.874e-3
-1.482, 2.898e-3
-1.483, 2.920e-3
-1.484, 2.945e-3
-1.485, 2.966e-3
-1.486, 2.991e-3
-1.487, 3.015e-3
-1.488, 3.040e-3
-1.489, 3.065e-3
-1.490, 3.093e-3
-1.491, 3.117e-3
-1.492, 3.142e-3
-1.493, 3.167e-3
-1.494, 3.191e-3
-1.495, 3.219e-3
-1.496, 3.244e-3
-1.497, 3.268e-3
-1.498, 3.296e-3
-1.499, 3.321e-3
-1.500, 3.351e-3
-1.501, 3.379e-3
-1.502, 3.407e-3
-1.503, 3.432e-3
-1.504, 3.459e-3
-1.505, 3.490e-3
-1.506, 3.518e-3
-1.507, 3.543e-3
-1.508, 3.570e-3
-1.509, 3.598e-3
-1.510, 3.629e-3
-1.511, 3.657e-3
-1.512, 3.688e-3
-1.513, 3.715e-3
-1.514, 3.743e-3
-1.515, 3.771e-3
-1.516, 3.802e-3
-1.517, 3.829e-3
-1.518, 3.857e-3
-1.519, 3.888e-3
-1.520, 3.922e-3
-1.521, 3.953e-3
-1.522, 3.984e-3
-1.523, 4.014e-3
-1.524, 4.048e-3
-1.525, 4.079e-3
-1.526, 4.110e-3
-1.527, 4.141e-3
-1.528, 4.172e-3
-1.529, 4.202e-3
-1.530, 4.236e-3
-1.531, 4.270e-3
-1.532, 4.304e-3
-1.533, 4.338e-3
-1.534, 4.369e-3
-1.535, 4.400e-3
-1.536, 4.434e-3
-1.537, 4.468e-3
-1.538, 4.501e-3
-1.539, 4.538e-3
-1.540, 4.572e-3
-1.541, 4.606e-3
-1.542, 4.643e-3
-1.543, 4.680e-3
-1.544, 4.714e-3
-1.545, 4.748e-3
-1.546, 4.785e-3
-1.547, 4.822e-3
-1.548, 4.856e-3
-1.549, 4.893e-3
-1.550, 4.930e-3
-1.551, 4.967e-3
-1.552, 5.004e-3
-1.553, 5.041e-3
-1.554, 5.078e-3
-1.555, 5.115e-3
-1.556, 5.152e-3
-1.557, 5.189e-3
-1.558, 5.229e-3
-1.559, 5.269e-3
-1.560, 5.309e-3
-1.561, 5.346e-3
-1.562, 5.386e-3
-1.563, 5.423e-3
-1.564, 5.463e-3
-1.565, 5.500e-3
-1.566, 5.541e-3
-1.567, 5.578e-3
-1.568, 5.621e-3
-1.569, 5.664e-3
-1.570, 5.707e-3
-1.571, 5.753e-3
-1.572, 5.793e-3
-1.573, 5.833e-3
-1.574, 5.877e-3
-1.575, 5.917e-3
-1.576, 5.957e-3
-1.577, 6.003e-3
-1.578, 6.046e-3
-1.579, 6.089e-3
-1.580, 6.132e-3
-1.581, 6.173e-3
-1.582, 6.213e-3
-1.583, 6.259e-3
-1.584, 6.302e-3
-1.585, 6.345e-3
-1.586, 6.388e-3
-1.587, 6.432e-3
-1.588, 6.478e-3
-1.589, 6.524e-3
-1.590, 6.573e-3
-1.591, 6.620e-3
-1.592, 6.666e-3
-1.593, 6.712e-3
-1.594, 6.755e-3
-1.595, 6.801e-3
-1.596, 6.851e-3
-1.597, 6.894e-3
-1.598, 6.946e-3
-1.599, 6.996e-3
-1.600, 6.990e-3
-1.599, 6.912e-3
-1.598, 6.851e-3
-1.597, 6.795e-3
-1.596, 6.740e-3
-1.595, 6.691e-3
-1.594, 6.635e-3
-1.593, 6.580e-3
-1.592, 6.527e-3
-1.591, 6.469e-3
-1.590, 6.410e-3
-1.589, 6.351e-3
-1.588, 6.293e-3
-1.587, 6.231e-3
-1.586, 6.176e-3
-1.585, 6.123e-3
-1.584, 6.071e-3
-1.583, 6.018e-3
-1.582, 5.966e-3
-1.581, 5.914e-3
-1.580, 5.861e-3
-1.579, 5.812e-3
-1.578, 5.762e-3
-1.577, 5.710e-3
-1.576, 5.658e-3
-1.575, 5.605e-3
-1.574, 5.553e-3
-1.573, 5.504e-3
-1.572, 5.451e-3
-1.571, 5.402e-3
-1.570, 5.352e-3
-1.569, 5.303e-3
-1.568, 5.251e-3
-1.567, 5.201e-3
-1.566, 5.152e-3
-1.565, 5.109e-3
-1.564, 5.063e-3
-1.563, 5.016e-3
-1.562, 4.970e-3
-1.561, 4.921e-3
-1.560, 4.875e-3
-1.559, 4.828e-3
-1.558, 4.785e-3
-1.557, 4.739e-3
-1.556, 4.696e-3
-1.555, 4.649e-3
-1.554, 4.603e-3
-1.553, 4.563e-3
-1.552, 4.523e-3
-1.551, 4.480e-3
-1.550, 4.437e-3
-1.549, 4.391e-3
-1.548, 4.347e-3
-1.547, 4.304e-3
-1.546, 4.267e-3
-1.545, 4.224e-3
-1.544, 4.184e-3
-1.543, 4.141e-3
-1.542, 4.098e-3
-1.541, 4.058e-3
-1.540, 4.021e-3
-1.539, 3.984e-3
-1.538, 3.943e-3
-1.537, 3.903e-3
-1.536, 3.863e-3
-1.535, 3.823e-3
-1.534, 3.786e-3
-1.533, 3.749e-3
-1.532, 3.712e-3
-1.531, 3.675e-3
-1.530, 3.638e-3
-1.529, 3.598e-3
-1.528, 3.564e-3
-1.527, 3.530e-3
-1.526, 3.496e-3
-1.525, 3.459e-3
-1.524, 3.422e-3
-1.523, 3.388e-3
-1.522, 3.355e-3
-1.521, 3.321e-3
-1.520, 3.287e-3
-1.519, 3.256e-3
-1.518, 3.222e-3
-1.517, 3.185e-3
-1.516, 3.151e-3
-1.515, 3.120e-3
-1.514, 3.093e-3
-1.513, 3.062e-3
-1.512, 3.028e-3
-1.511, 2.997e-3
-1.510, 2.966e-3
-1.509, 2.935e-3
-1.508, 2.904e-3
-1.507, 2.877e-3
-1.506, 2.849e-3
-1.505, 2.818e-3
-1.504, 2.787e-3
-1.503, 2.760e-3
-1.502, 2.729e-3
-1.501, 2.707e-3
-1.500, 2.679e-3
-1.499, 2.652e-3
-1.498, 2.621e-3
-1.497, 2.596e-3
-1.496, 2.568e-3
-1.495, 2.541e-3
-1.494, 2.516e-3
-1.493, 2.491e-3
-1.492, 2.464e-3
-1.491, 2.439e-3
-1.490, 2.411e-3
-1.489, 2.383e-3
-1.488, 2.359e-3
-1.487, 2.337e-3
-1.486, 2.312e-3
-1.485, 2.288e-3
-1.484, 2.263e-3
-1.483, 2.238e-3
-1.482, 2.214e-3
-1.481, 2.192e-3
-1.480, 2.171e-3
-1.479, 2.149e-3
-1.478, 2.128e-3
-1.477, 2.106e-3
-1.476, 2.081e-3
-1.475, 2.060e-3
-1.474, 2.041e-3
-1.473, 2.020e-3
-1.472, 1.998e-3
-1.471, 1.976e-3
-1.470, 1.955e-3
-1.469, 1.936e-3
-1.468, 1.915e-3
-1.467, 1.896e-3
-1.466, 1.875e-3
-1.465, 1.856e-3
-1.464, 1.838e-3
-1.463, 1.816e-3
-1.462, 1.798e-3
-1.461, 1.779e-3
-1.460, 1.761e-3
-1.459, 1.742e-3
-1.458, 1.724e-3
-1.457, 1.705e-3
-1.456, 1.687e-3
-1.455, 1.668e-3
-1.454, 1.653e-3
-1.453, 1.634e-3
-1.452, 1.616e-3
-1.451, 1.600e-3
-1.450, 1.582e-3
-1.449, 1.563e-3
-1.448, 1.548e-3
-1.447, 1.532e-3
-1.446, 1.517e-3
-1.445, 1.502e-3
-1.444, 1.483e-3
-1.443, 1.468e-3
-1.442, 1.452e-3
-1.441, 1.437e-3
-1.440, 1.421e-3
-1.439, 1.406e-3
-1.438, 1.391e-3
-1.437, 1.378e-3
-1.436, 1.363e-3
-1.435, 1.347e-3
-1.434, 1.332e-3
-1.433, 1.317e-3
-1.432, 1.304e-3
-1.431, 1.289e-3
-1.430, 1.277e-3
-1.429, 1.264e-3
-1.428, 1.249e-3
-1.427, 1.236e-3
-1.426, 1.221e-3
-1.425, 1.209e-3
-1.424, 1.196e-3
-1.423, 1.184e-3
-1.422, 1.172e-3
-1.421, 1.159e-3
-1.420, 1.147e-3
-1.419, 1.135e-3
-1.418, 1.119e-3
-1.417, 1.107e-3
-1.416, 1.095e-3
-1.415, 1.082e-3
-1.414, 1.070e-3
-1.413, 1.061e-3
-1.412, 1.045e-3
-1.411, 1.036e-3
-1.410, 1.024e-3
-1.409, 1.011e-3
-1.408, 1.002e-3
-1.407, 9.898e-4
-1.406, 9.775e-4
-1.405, 9.683e-4
-1.404, 9.559e-4
-1.403, 9.467e-4
-1.402, 9.343e-4
-1.401, 9.251e-4
-1.400, 9.128e-4
-1.399, 9.004e-4
-1.398, 8.912e-4
-1.397, 8.819e-4
-1.396, 8.727e-4
-1.395, 8.603e-4
-1.394, 8.480e-4
-1.393, 8.388e-4
-1.392, 8.295e-4
-1.391, 8.203e-4
-1.390, 8.079e-4
-1.389, 7.987e-4
-1.388, 7.894e-4
-1.387, 7.802e-4
-1.386, 7.709e-4
-1.385, 7.586e-4
-1.384, 7.524e-4
-1.383, 7.401e-4
-1.382, 7.309e-4
-1.381, 7.216e-4
-1.380, 7.124e-4
-1.379, 7.031e-4
-1.378, 6.939e-4
-1.377, 6.877e-4
-1.376, 6.784e-4
-1.375, 6.692e-4
-1.374, 6.630e-4
-1.373, 6.507e-4
-1.372, 6.414e-4
-1.371, 6.353e-4
-1.370, 6.260e-4
-1.369, 6.168e-4
-1.368, 6.075e-4
-1.367, 6.014e-4
-1.366, 5.921e-4
-1.365, 5.859e-4
-1.364, 5.767e-4
-1.363, 5.705e-4
-1.362, 5.613e-4
-1.361, 5.551e-4
-1.360, 5.459e-4
-1.359, 5.366e-4
-1.358, 5.274e-4
-1.357, 5.212e-4
-1.356, 5.120e-4
-1.355, 5.058e-4
-1.354, 4.965e-4
-1.353, 4.904e-4
-1.352, 4.811e-4
-1.351, 4.750e-4
-1.350, 4.657e-4
-1.349, 4.595e-4
-1.348, 4.534e-4
-1.347, 4.472e-4
-1.346, 4.380e-4
-1.345, 4.318e-4
-1.344, 4.256e-4
-1.343, 4.195e-4
-1.342, 4.133e-4
-1.341, 4.071e-4
-1.340, 3.979e-4
-1.339, 3.917e-4
-1.338, 3.855e-4
-1.337, 3.763e-4
-1.336, 3.701e-4
-1.335, 3.640e-4
-1.334, 3.578e-4
-1.333, 3.516e-4
-1.332, 3.455e-4
-1.331, 3.393e-4
-1.330, 3.331e-4
-1.329, 3.270e-4
-1.328, 3.208e-4
-1.327, 3.146e-4
-1.326, 3.085e-4
-1.325, 3.023e-4
-1.324, 2.961e-4
-1.323, 2.900e-4
-1.322, 2.838e-4
-1.321, 2.776e-4
-1.320, 2.715e-4
-1.319, 2.653e-4
-1.318, 2.591e-4
-1.317, 2.530e-4
-1.316, 2.468e-4
-1.315, 2.406e-4
-1.314, 2.376e-4
-1.313, 2.314e-4
-1.312, 2.252e-4
-1.311, 2.221e-4
-1.310, 2.160e-4
-1.309, 2.098e-4
-1.308, 2.036e-4
-1.307, 1.975e-4
-1.306, 1.944e-4
-1.305, 1.882e-4
-1.304, 1.821e-4
-1.303, 1.759e-4
-1.302, 1.728e-4
-1.301, 1.666e-4
-1.300, 1.636e-4
-1.299, 1.574e-4
-1.298, 1.543e-4
-1.297, 1.481e-4
-1.296, 1.420e-4
-1.295, 1.389e-4
-1.294, 1.327e-4
-1.293, 1.266e-4
-1.292, 1.235e-4
-1.291, 1.173e-4
-1.290, 1.142e-4
-1.289, 1.081e-4
-1.288, 1.050e-4
-1.287, 1.019e-4
-1.286, 9.265e-5
-1.285, 8.957e-5
-1.284, 8.648e-5
-1.283, 8.340e-5
-1.282, 7.723e-5
-1.281, 7.415e-5
-1.280, 6.798e-5
-1.279, 6.490e-5
-1.278, 5.873e-5
-1.277, 5.565e-5
-1.276, 5.257e-5
-1.275, 4.640e-5
-1.274, 4.332e-5
-1.273, 4.024e-5
-1.272, 3.715e-5
-1.271, 3.099e-5
-1.270, 2.482e-5
-1.269, 2.174e-5
-1.268, 1.865e-5
-1.267, 1.557e-5
-1.266, 1.249e-5
-1.265, 6.322e-6
-1.264, 3.239e-6
-1.263, 1.559e-7
-1.262, -2.927e-6
-1.261, -6.010e-6
-1.260, -1.218e-5
-1.259, -1.218e-5
-1.258, -1.834e-5
-1.257, -2.143e-5
-1.256, -2.451e-5
-1.255, -2.759e-5
-1.254, -3.068e-5
-1.253, -3.376e-5
-1.252, -3.684e-5
-1.251, -3.992e-5
-1.250, -4.609e-5
-1.249, -4.609e-5
-1.248, -5.226e-5
-1.247, -5.226e-5
-1.246, -5.534e-5
-1.245, -6.151e-5
-1.244, -6.151e-5
-1.243, -6.459e-5
-1.242, -7.076e-5
-1.241, -7.384e-5
-1.240, -7.384e-5
-1.239, -7.692e-5
-1.238, -8.000e-5
-1.237, -8.309e-5
-1.236, -8.617e-5
-1.235, -8.925e-5
-1.234, -9.234e-5
-1.233, -9.542e-5
-1.232, -9.850e-5
-1.231, -1.016e-4
-1.230, -1.016e-4
-1.229, -1.078e-4
-1.228, -1.078e-4
-1.227, -1.108e-4
-1.226, -1.139e-4
-1.225, -1.170e-4
-1.224, -1.170e-4
-1.223, -1.201e-4
-1.222, -1.232e-4
-1.221, -1.232e-4
-1.220, -1.263e-4
-1.219, -1.293e-4
-1.218, -1.324e-4
-1.217, -1.324e-4
-1.216, -1.355e-4
-1.215, -1.386e-4
-1.214, -1.417e-4
-1.213, -1.417e-4
-1.212, -1.448e-4
-1.211, -1.478e-4
-1.210, -1.478e-4
-1.209, -1.509e-4
-1.208, -1.509e-4
-1.207, -1.540e-4
-1.206, -1.571e-4
-1.205, -1.602e-4
-1.204, -1.602e-4
-1.203, -1.632e-4
-1.202, -1.632e-4
-1.201, -1.663e-4
-1.200, -1.663e-4
-1.199, -1.694e-4
-1.198, -1.725e-4
-1.197, -1.725e-4
-1.196, -1.756e-4
-1.195, -1.787e-4
-1.194, -1.787e-4
-1.193, -1.817e-4
-1.192, -1.817e-4
-1.191, -1.848e-4
-1.190, -1.848e-4
-1.189, -1.879e-4
-1.188, -1.879e-4
-1.187, -1.910e-4
-1.186, -1.910e-4
-1.185, -1.941e-4
-1.184, -1.941e-4
-1.183, -1.972e-4
-1.182, -2.002e-4
-1.181, -2.002e-4
-1.180, -2.033e-4
-1.179, -2.033e-4
-1.178, -2.064e-4
-1.177, -2.064e-4
-1.176, -2.095e-4
-1.175, -2.095e-4
-1.174, -2.095e-4
-1.173, -2.126e-4
-1.172, -2.157e-4
-1.171, -2.157e-4
-1.170, -2.157e-4
-1.169, -2.187e-4
-1.168, -2.187e-4
-1.167, -2.218e-4
-1.166, -2.218e-4
-1.165, -2.249e-4
-1.164, -2.249e-4
-1.163, -2.280e-4
-1.162, -2.280e-4
-1.161, -2.280e-4
-1.160, -2.311e-4
-1.159, -2.311e-4
-1.158, -2.342e-4
-1.157, -2.342e-4
-1.156, -2.372e-4
-1.155, -2.372e-4
-1.154, -2.372e-4
-1.153, -2.403e-4
-1.152, -2.403e-4
-1.151, -2.434e-4
-1.150, -2.434e-4
-1.149, -2.465e-4
-1.148, -2.465e-4
-1.147, -2.496e-4
-1.146, -2.496e-4
-1.145, -2.527e-4
-1.144, -2.527e-4
-1.143, -2.557e-4
-1.142, -2.557e-4
-1.141, -2.557e-4
-1.140, -2.588e-4
-1.139, -2.588e-4
-1.138, -2.619e-4
-1.137, -2.619e-4
-1.136, -2.619e-4
-1.135, -2.650e-4
-1.134, -2.650e-4
-1.133, -2.681e-4
-1.132, -2.681e-4
-1.131, -2.681e-4
-1.130, -2.712e-4
-1.129, -2.712e-4
-1.128, -2.742e-4
-1.127, -2.742e-4
-1.126, -2.742e-4
-1.125, -2.773e-4
-1.124, -2.773e-4
-1.123, -2.804e-4
-1.122, -2.835e-4
-1.121, -2.804e-4
-1.120, -2.835e-4
-1.119, -2.866e-4
-1.118, -2.897e-4
-1.117, -2.897e-4
-1.116, -2.897e-4
-1.115, -2.897e-4
-1.114, -2.927e-4
-1.113, -2.958e-4
-1.112, -2.958e-4
-1.111, -2.958e-4
-1.110, -2.989e-4
-1.109, -2.989e-4
-1.108, -2.989e-4
-1.107, -3.020e-4
-1.106, -3.051e-4
-1.105, -3.051e-4
-1.104, -3.051e-4
-1.103, -3.082e-4
-1.102, -3.082e-4
-1.101, -3.112e-4
-1.100, -3.112e-4
-1.099, -3.143e-4
-1.098, -3.143e-4
-1.097, -3.174e-4
-1.096, -3.174e-4
-1.095, -3.205e-4
-1.094, -3.205e-4
-1.093, -3.236e-4
-1.092, -3.236e-4
-1.091, -3.236e-4
-1.090, -3.236e-4
-1.089, -3.267e-4
-1.088, -3.267e-4
-1.087, -3.297e-4
-1.086, -3.297e-4
-1.085, -3.297e-4
-1.084, -3.328e-4
-1.083, -3.328e-4
-1.082, -3.359e-4
-1.081, -3.359e-4
-1.080, -3.390e-4
-1.079, -3.390e-4
-1.078, -3.421e-4
-1.077, -3.421e-4
-1.076, -3.452e-4
-1.075, -3.482e-4
-1.074, -3.482e-4
-1.073, -3.513e-4
-1.072, -3.513e-4
-1.071, -3.513e-4
-1.070, -3.544e-4
-1.069, -3.544e-4
-1.068, -3.575e-4
-1.067, -3.575e-4
-1.066, -3.606e-4
-1.065, -3.606e-4
-1.064, -3.637e-4
-1.063, -3.637e-4
-1.062, -3.667e-4
-1.061, -3.667e-4
-1.060, -3.698e-4
-1.059, -3.698e-4
-1.058, -3.729e-4
-1.057, -3.760e-4
-1.056, -3.760e-4
-1.055, -3.760e-4
-1.054, -3.791e-4
-1.053, -3.791e-4
-1.052, -3.821e-4
-1.051, -3.821e-4
-1.050, -3.852e-4
-1.049, -3.976e-4
-1.048, -4.099e-4
-1.047, -4.068e-4
-1.046, -4.068e-4
-1.045, -4.068e-4
-1.044, -4.068e-4
-1.043, -4.068e-4
-1.042, -4.068e-4
-1.041, -4.068e-4
-1.040, -4.099e-4
-1.039, -4.099e-4
-1.038, -4.130e-4
-1.037, -4.130e-4
-1.036, -4.130e-4
-1.035, -4.161e-4
-1.034, -4.161e-4
-1.033, -4.191e-4
-1.032, -4.191e-4
-1.031, -4.222e-4
-1.030, -4.253e-4
-1.029, -4.253e-4
-1.028, -4.284e-4
-1.027, -4.284e-4
-1.026, -4.315e-4
-1.025, -4.346e-4
-1.024, -4.376e-4
-1.023, -4.407e-4
-1.022, -4.438e-4
-1.021, -4.438e-4
-1.020, -4.469e-4
-1.019, -4.500e-4
-1.018, -4.531e-4
-1.017, -4.561e-4
-1.016, -4.561e-4
-1.015, -4.561e-4
-1.014, -4.592e-4
-1.013, -4.623e-4
-1.012, -4.654e-4
-1.011, -4.654e-4
-1.010, -4.685e-4
-1.009, -4.685e-4
-1.008, -4.685e-4
-1.007, -4.716e-4
-1.006, -4.716e-4
-1.005, -4.777e-4
-1.004, -4.777e-4
-1.003, -4.808e-4
-1.002, -4.839e-4
-1.001, -4.870e-4
