Aug. 16, 2024   22:14:59
Linear Sweep Voltammetry
File: c:/users/guazh/data/20240813_batch_94_500/2024-08-15-exp107\1acid_3ac-2024-08-16t22_11_45-lsvinphos\1acid_3ac_lsv_50mvs_efin_-2300mv.bin
Data Source:  Experiment
Instrument Model:  CHI760E
Header: LSV ran at 50 mVs with Efin at -2300mV
Note: 

Init E (V) = -0.6
Final E (V) = -2.3
Scan Rate (V/s) = 0.05
Sample Interval (V) = 0.001
Quiet Time (sec) = 2
Sensitivity (A/V) = 1e-4
Comp R (ohm) = 9.1

Results:

Channel 1:
Ep = -1.595V
ip = 2.908e-4A
Ah = 6.538e-4C

Ep = -2.005V
ip = 5.959e-4A
Ah = 8.584e-4C

Potential/V, Current/A

-0.600, 1.108e-4
-0.601, 1.114e-4
-0.602, 1.117e-4
-0.603, 1.119e-4
-0.604, 1.121e-4
-0.605, 1.122e-4
-0.606, 1.124e-4
-0.607, 1.125e-4
-0.608, 1.126e-4
-0.609, 1.127e-4
-0.610, 1.128e-4
-0.611, 1.129e-4
-0.612, 1.129e-4
-0.613, 1.130e-4
-0.614, 1.132e-4
-0.615, 1.134e-4
-0.616, 1.137e-4
-0.617, 1.136e-4
-0.618, 1.135e-4
-0.619, 1.136e-4
-0.620, 1.136e-4
-0.621, 1.137e-4
-0.622, 1.138e-4
-0.623, 1.138e-4
-0.624, 1.138e-4
-0.625, 1.139e-4
-0.626, 1.139e-4
-0.627, 1.140e-4
-0.628, 1.140e-4
-0.629, 1.143e-4
-0.630, 1.145e-4
-0.631, 1.147e-4
-0.632, 1.150e-4
-0.633, 1.164e-4
-0.634, 1.208e-4
-0.635, 1.222e-4
-0.636, 1.223e-4
-0.637, 1.222e-4
-0.638, 1.220e-4
-0.639, 1.219e-4
-0.640, 1.217e-4
-0.641, 1.215e-4
-0.642, 1.214e-4
-0.643, 1.213e-4
-0.644, 1.210e-4
-0.645, 1.207e-4
-0.646, 1.205e-4
-0.647, 1.205e-4
-0.648, 1.207e-4
-0.649, 1.206e-4
-0.650, 1.205e-4
-0.651, 1.203e-4
-0.652, 1.201e-4
-0.653, 1.198e-4
-0.654, 1.195e-4
-0.655, 1.192e-4
-0.656, 1.189e-4
-0.657, 1.187e-4
-0.658, 1.185e-4
-0.659, 1.183e-4
-0.660, 1.181e-4
-0.661, 1.179e-4
-0.662, 1.177e-4
-0.663, 1.176e-4
-0.664, 1.175e-4
-0.665, 1.173e-4
-0.666, 1.172e-4
-0.667, 1.171e-4
-0.668, 1.170e-4
-0.669, 1.168e-4
-0.670, 1.167e-4
-0.671, 1.166e-4
-0.672, 1.165e-4
-0.673, 1.164e-4
-0.674, 1.164e-4
-0.675, 1.163e-4
-0.676, 1.163e-4
-0.677, 1.165e-4
-0.678, 1.164e-4
-0.679, 1.163e-4
-0.680, 1.162e-4
-0.681, 1.160e-4
-0.682, 1.159e-4
-0.683, 1.158e-4
-0.684, 1.157e-4
-0.685, 1.156e-4
-0.686, 1.155e-4
-0.687, 1.158e-4
-0.688, 1.165e-4
-0.689, 1.159e-4
-0.690, 1.156e-4
-0.691, 1.154e-4
-0.692, 1.153e-4
-0.693, 1.158e-4
-0.694, 1.160e-4
-0.695, 1.159e-4
-0.696, 1.157e-4
-0.697, 1.155e-4
-0.698, 1.153e-4
-0.699, 1.152e-4
-0.700, 1.151e-4
-0.701, 1.149e-4
-0.702, 1.147e-4
-0.703, 1.147e-4
-0.704, 1.149e-4
-0.705, 1.147e-4
-0.706, 1.144e-4
-0.707, 1.143e-4
-0.708, 1.141e-4
-0.709, 1.140e-4
-0.710, 1.138e-4
-0.711, 1.137e-4
-0.712, 1.135e-4
-0.713, 1.133e-4
-0.714, 1.131e-4
-0.715, 1.130e-4
-0.716, 1.129e-4
-0.717, 1.128e-4
-0.718, 1.126e-4
-0.719, 1.125e-4
-0.720, 1.124e-4
-0.721, 1.122e-4
-0.722, 1.121e-4
-0.723, 1.119e-4
-0.724, 1.118e-4
-0.725, 1.117e-4
-0.726, 1.115e-4
-0.727, 1.114e-4
-0.728, 1.113e-4
-0.729, 1.113e-4
-0.730, 1.111e-4
-0.731, 1.109e-4
-0.732, 1.108e-4
-0.733, 1.106e-4
-0.734, 1.105e-4
-0.735, 1.104e-4
-0.736, 1.102e-4
-0.737, 1.100e-4
-0.738, 1.099e-4
-0.739, 1.098e-4
-0.740, 1.096e-4
-0.741, 1.095e-4
-0.742, 1.094e-4
-0.743, 1.092e-4
-0.744, 1.090e-4
-0.745, 1.089e-4
-0.746, 1.087e-4
-0.747, 1.086e-4
-0.748, 1.085e-4
-0.749, 1.083e-4
-0.750, 1.082e-4
-0.751, 1.080e-4
-0.752, 1.079e-4
-0.753, 1.077e-4
-0.754, 1.076e-4
-0.755, 1.075e-4
-0.756, 1.073e-4
-0.757, 1.073e-4
-0.758, 1.071e-4
-0.759, 1.069e-4
-0.760, 1.067e-4
-0.761, 1.066e-4
-0.762, 1.064e-4
-0.763, 1.063e-4
-0.764, 1.061e-4
-0.765, 1.059e-4
-0.766, 1.058e-4
-0.767, 1.057e-4
-0.768, 1.056e-4
-0.769, 1.054e-4
-0.770, 1.052e-4
-0.771, 1.051e-4
-0.772, 1.049e-4
-0.773, 1.047e-4
-0.774, 1.046e-4
-0.775, 1.044e-4
-0.776, 1.043e-4
-0.777, 1.041e-4
-0.778, 1.040e-4
-0.779, 1.038e-4
-0.780, 1.037e-4
-0.781, 1.036e-4
-0.782, 1.034e-4
-0.783, 1.032e-4
-0.784, 1.031e-4
-0.785, 1.029e-4
-0.786, 1.027e-4
-0.787, 1.026e-4
-0.788, 1.024e-4
-0.789, 1.023e-4
-0.790, 1.021e-4
-0.791, 1.019e-4
-0.792, 1.018e-4
-0.793, 1.016e-4
-0.794, 1.015e-4
-0.795, 1.013e-4
-0.796, 1.012e-4
-0.797, 1.010e-4
-0.798, 1.008e-4
-0.799, 1.007e-4
-0.800, 1.005e-4
-0.801, 1.004e-4
-0.802, 1.002e-4
-0.803, 1.001e-4
-0.804, 9.991e-5
-0.805, 9.974e-5
-0.806, 9.958e-5
-0.807, 9.940e-5
-0.808, 9.925e-5
-0.809, 9.910e-5
-0.810, 9.895e-5
-0.811, 9.878e-5
-0.812, 9.875e-5
-0.813, 9.862e-5
-0.814, 9.847e-5
-0.815, 9.831e-5
-0.816, 9.815e-5
-0.817, 9.796e-5
-0.818, 9.781e-5
-0.819, 9.768e-5
-0.820, 9.756e-5
-0.821, 9.738e-5
-0.822, 9.724e-5
-0.823, 9.711e-5
-0.824, 9.697e-5
-0.825, 9.681e-5
-0.826, 9.671e-5
-0.827, 9.659e-5
-0.828, 9.642e-5
-0.829, 9.627e-5
-0.830, 9.615e-5
-0.831, 9.600e-5
-0.832, 9.586e-5
-0.833, 9.571e-5
-0.834, 9.558e-5
-0.835, 9.545e-5
-0.836, 9.532e-5
-0.837, 9.516e-5
-0.838, 9.503e-5
-0.839, 9.488e-5
-0.840, 9.474e-5
-0.841, 9.461e-5
-0.842, 9.447e-5
-0.843, 9.432e-5
-0.844, 9.419e-5
-0.845, 9.405e-5
-0.846, 9.391e-5
-0.847, 9.376e-5
-0.848, 9.354e-5
-0.849, 9.342e-5
-0.850, 9.333e-5
-0.851, 9.321e-5
-0.852, 9.308e-5
-0.853, 9.297e-5
-0.854, 9.285e-5
-0.855, 9.272e-5
-0.856, 9.260e-5
-0.857, 9.246e-5
-0.858, 9.234e-5
-0.859, 9.224e-5
-0.860, 9.216e-5
-0.861, 9.200e-5
-0.862, 9.187e-5
-0.863, 9.173e-5
-0.864, 9.162e-5
-0.865, 9.151e-5
-0.866, 9.138e-5
-0.867, 9.126e-5
-0.868, 9.114e-5
-0.869, 9.105e-5
-0.870, 9.096e-5
-0.871, 9.088e-5
-0.872, 9.074e-5
-0.873, 9.063e-5
-0.874, 9.063e-5
-0.875, 9.046e-5
-0.876, 9.033e-5
-0.877, 9.020e-5
-0.878, 9.009e-5
-0.879, 8.998e-5
-0.880, 8.991e-5
-0.881, 8.977e-5
-0.882, 8.965e-5
-0.883, 8.952e-5
-0.884, 8.938e-5
-0.885, 8.927e-5
-0.886, 8.916e-5
-0.887, 8.904e-5
-0.888, 8.893e-5
-0.889, 8.882e-5
-0.890, 8.871e-5
-0.891, 8.861e-5
-0.892, 8.851e-5
-0.893, 8.840e-5
-0.894, 8.831e-5
-0.895, 8.820e-5
-0.896, 8.809e-5
-0.897, 8.801e-5
-0.898, 8.793e-5
-0.899, 8.781e-5
-0.900, 8.771e-5
-0.901, 8.759e-5
-0.902, 8.748e-5
-0.903, 8.737e-5
-0.904, 8.729e-5
-0.905, 8.721e-5
-0.906, 8.709e-5
-0.907, 8.699e-5
-0.908, 8.688e-5
-0.909, 8.680e-5
-0.910, 8.669e-5
-0.911, 8.660e-5
-0.912, 8.654e-5
-0.913, 8.644e-5
-0.914, 8.637e-5
-0.915, 8.627e-5
-0.916, 8.616e-5
-0.917, 8.605e-5
-0.918, 8.596e-5
-0.919, 8.585e-5
-0.920, 8.576e-5
-0.921, 8.568e-5
-0.922, 8.559e-5
-0.923, 8.549e-5
-0.924, 8.539e-5
-0.925, 8.530e-5
-0.926, 8.523e-5
-0.927, 8.516e-5
-0.928, 8.508e-5
-0.929, 8.500e-5
-0.930, 8.491e-5
-0.931, 8.483e-5
-0.932, 8.475e-5
-0.933, 8.466e-5
-0.934, 8.457e-5
-0.935, 8.449e-5
-0.936, 8.440e-5
-0.937, 8.431e-5
-0.938, 8.422e-5
-0.939, 8.413e-5
-0.940, 8.404e-5
-0.941, 8.393e-5
-0.942, 8.385e-5
-0.943, 8.378e-5
-0.944, 8.370e-5
-0.945, 8.360e-5
-0.946, 8.353e-5
-0.947, 8.348e-5
-0.948, 8.341e-5
-0.949, 8.333e-5
-0.950, 8.324e-5
-0.951, 8.314e-5
-0.952, 8.306e-5
-0.953, 8.298e-5
-0.954, 8.291e-5
-0.955, 8.284e-5
-0.956, 8.276e-5
-0.957, 8.269e-5
-0.958, 8.262e-5
-0.959, 8.254e-5
-0.960, 8.247e-5
-0.961, 8.241e-5
-0.962, 8.236e-5
-0.963, 8.231e-5
-0.964, 8.221e-5
-0.965, 8.213e-5
-0.966, 8.206e-5
-0.967, 8.198e-5
-0.968, 8.190e-5
-0.969, 8.184e-5
-0.970, 8.176e-5
-0.971, 8.169e-5
-0.972, 8.160e-5
-0.973, 8.155e-5
-0.974, 8.149e-5
-0.975, 8.143e-5
-0.976, 8.136e-5
-0.977, 8.132e-5
-0.978, 8.129e-5
-0.979, 8.122e-5
-0.980, 8.116e-5
-0.981, 8.109e-5
-0.982, 8.104e-5
-0.983, 8.100e-5
-0.984, 8.093e-5
-0.985, 8.086e-5
-0.986, 8.078e-5
-0.987, 8.072e-5
-0.988, 8.064e-5
-0.989, 8.057e-5
-0.990, 8.050e-5
-0.991, 8.045e-5
-0.992, 8.039e-5
-0.993, 8.035e-5
-0.994, 8.029e-5
-0.995, 8.025e-5
-0.996, 8.022e-5
-0.997, 8.019e-5
-0.998, 8.013e-5
-0.999, 8.008e-5
-1.000, 8.001e-5
-1.001, 7.996e-5
-1.002, 7.994e-5
-1.003, 8.000e-5
-1.004, 7.982e-5
-1.005, 7.976e-5
-1.006, 7.970e-5
-1.007, 7.964e-5
-1.008, 7.959e-5
-1.009, 7.956e-5
-1.010, 7.949e-5
-1.011, 7.944e-5
-1.012, 7.940e-5
-1.013, 7.938e-5
-1.014, 7.934e-5
-1.015, 7.932e-5
-1.016, 7.932e-5
-1.017, 7.928e-5
-1.018, 7.924e-5
-1.019, 7.919e-5
-1.020, 7.914e-5
-1.021, 7.912e-5
-1.022, 7.910e-5
-1.023, 7.907e-5
-1.024, 7.904e-5
-1.025, 7.902e-5
-1.026, 7.900e-5
-1.027, 7.898e-5
-1.028, 7.895e-5
-1.029, 7.894e-5
-1.030, 7.892e-5
-1.031, 7.893e-5
-1.032, 7.894e-5
-1.033, 7.899e-5
-1.034, 7.898e-5
-1.035, 7.895e-5
-1.036, 7.895e-5
-1.037, 7.897e-5
-1.038, 7.897e-5
-1.039, 7.899e-5
-1.040, 7.902e-5
-1.041, 7.907e-5
-1.042, 7.910e-5
-1.043, 7.912e-5
-1.044, 7.915e-5
-1.045, 7.922e-5
-1.046, 7.928e-5
-1.047, 7.934e-5
-1.048, 7.941e-5
-1.049, 7.948e-5
-1.050, 7.957e-5
-1.051, 7.964e-5
-1.052, 7.973e-5
-1.053, 7.983e-5
-1.054, 7.994e-5
-1.055, 8.002e-5
-1.056, 8.012e-5
-1.057, 8.021e-5
-1.058, 8.033e-5
-1.059, 8.043e-5
-1.060, 8.055e-5
-1.061, 8.070e-5
-1.062, 8.080e-5
-1.063, 8.095e-5
-1.064, 8.110e-5
-1.065, 8.121e-5
-1.066, 8.135e-5
-1.067, 8.151e-5
-1.068, 8.168e-5
-1.069, 8.185e-5
-1.070, 8.201e-5
-1.071, 8.219e-5
-1.072, 8.238e-5
-1.073, 8.258e-5
-1.074, 8.278e-5
-1.075, 8.297e-5
-1.076, 8.314e-5
-1.077, 8.334e-5
-1.078, 8.354e-5
-1.079, 8.373e-5
-1.080, 8.394e-5
-1.081, 8.414e-5
-1.082, 8.433e-5
-1.083, 8.455e-5
-1.084, 8.476e-5
-1.085, 8.497e-5
-1.086, 8.518e-5
-1.087, 8.539e-5
-1.088, 8.561e-5
-1.089, 8.581e-5
-1.090, 8.603e-5
-1.091, 8.627e-5
-1.092, 8.650e-5
-1.093, 8.671e-5
-1.094, 8.694e-5
-1.095, 8.717e-5
-1.096, 8.740e-5
-1.097, 8.763e-5
-1.098, 8.788e-5
-1.099, 8.810e-5
-1.100, 8.831e-5
-1.101, 8.856e-5
-1.102, 8.882e-5
-1.103, 8.905e-5
-1.104, 8.934e-5
-1.105, 8.957e-5
-1.106, 8.977e-5
-1.107, 9.002e-5
-1.108, 9.027e-5
-1.109, 9.049e-5
-1.110, 9.074e-5
-1.111, 9.097e-5
-1.112, 9.121e-5
-1.113, 9.145e-5
-1.114, 9.170e-5
-1.115, 9.194e-5
-1.116, 9.217e-5
-1.117, 9.243e-5
-1.118, 9.270e-5
-1.119, 9.293e-5
-1.120, 9.318e-5
-1.121, 9.343e-5
-1.122, 9.372e-5
-1.123, 9.397e-5
-1.124, 9.424e-5
-1.125, 9.452e-5
-1.126, 9.479e-5
-1.127, 9.507e-5
-1.128, 9.533e-5
-1.129, 9.562e-5
-1.130, 9.589e-5
-1.131, 9.618e-5
-1.132, 9.647e-5
-1.133, 9.677e-5
-1.134, 9.714e-5
-1.135, 9.745e-5
-1.136, 9.774e-5
-1.137, 9.803e-5
-1.138, 9.834e-5
-1.139, 9.869e-5
-1.140, 9.902e-5
-1.141, 9.935e-5
-1.142, 9.968e-5
-1.143, 1.000e-4
-1.144, 1.004e-4
-1.145, 1.007e-4
-1.146, 1.011e-4
-1.147, 1.015e-4
-1.148, 1.019e-4
-1.149, 1.023e-4
-1.150, 1.027e-4
-1.151, 1.032e-4
-1.152, 1.037e-4
-1.153, 1.042e-4
-1.154, 1.046e-4
-1.155, 1.051e-4
-1.156, 1.056e-4
-1.157, 1.060e-4
-1.158, 1.066e-4
-1.159, 1.071e-4
-1.160, 1.076e-4
-1.161, 1.082e-4
-1.162, 1.088e-4
-1.163, 1.093e-4
-1.164, 1.099e-4
-1.165, 1.105e-4
-1.166, 1.112e-4
-1.167, 1.118e-4
-1.168, 1.125e-4
-1.169, 1.132e-4
-1.170, 1.138e-4
-1.171, 1.145e-4
-1.172, 1.152e-4
-1.173, 1.160e-4
-1.174, 1.167e-4
-1.175, 1.174e-4
-1.176, 1.182e-4
-1.177, 1.191e-4
-1.178, 1.199e-4
-1.179, 1.207e-4
-1.180, 1.215e-4
-1.181, 1.224e-4
-1.182, 1.232e-4
-1.183, 1.241e-4
-1.184, 1.250e-4
-1.185, 1.259e-4
-1.186, 1.268e-4
-1.187, 1.278e-4
-1.188, 1.287e-4
-1.189, 1.297e-4
-1.190, 1.307e-4
-1.191, 1.318e-4
-1.192, 1.328e-4
-1.193, 1.338e-4
-1.194, 1.349e-4
-1.195, 1.359e-4
-1.196, 1.371e-4
-1.197, 1.382e-4
-1.198, 1.393e-4
-1.199, 1.404e-4
-1.200, 1.415e-4
-1.201, 1.427e-4
-1.202, 1.438e-4
-1.203, 1.450e-4
-1.204, 1.462e-4
-1.205, 1.474e-4
-1.206, 1.486e-4
-1.207, 1.499e-4
-1.208, 1.511e-4
-1.209, 1.524e-4
-1.210, 1.537e-4
-1.211, 1.549e-4
-1.212, 1.562e-4
-1.213, 1.575e-4
-1.214, 1.588e-4
-1.215, 1.601e-4
-1.216, 1.615e-4
-1.217, 1.628e-4
-1.218, 1.641e-4
-1.219, 1.655e-4
-1.220, 1.668e-4
-1.221, 1.681e-4
-1.222, 1.694e-4
-1.223, 1.708e-4
-1.224, 1.722e-4
-1.225, 1.736e-4
-1.226, 1.751e-4
-1.227, 1.765e-4
-1.228, 1.778e-4
-1.229, 1.792e-4
-1.230, 1.806e-4
-1.231, 1.819e-4
-1.232, 1.833e-4
-1.233, 1.848e-4
-1.234, 1.862e-4
-1.235, 1.876e-4
-1.236, 1.889e-4
-1.237, 1.903e-4
-1.238, 1.917e-4
-1.239, 1.930e-4
-1.240, 1.943e-4
-1.241, 1.956e-4
-1.242, 1.969e-4
-1.243, 1.982e-4
-1.244, 1.995e-4
-1.245, 2.008e-4
-1.246, 2.020e-4
-1.247, 2.033e-4
-1.248, 2.045e-4
-1.249, 2.058e-4
-1.250, 2.070e-4
-1.251, 2.083e-4
-1.252, 2.095e-4
-1.253, 2.106e-4
-1.254, 2.118e-4
-1.255, 2.130e-4
-1.256, 2.141e-4
-1.257, 2.152e-4
-1.258, 2.163e-4
-1.259, 2.173e-4
-1.260, 2.184e-4
-1.261, 2.194e-4
-1.262, 2.204e-4
-1.263, 2.214e-4
-1.264, 2.224e-4
-1.265, 2.233e-4
-1.266, 2.243e-4
-1.267, 2.252e-4
-1.268, 2.261e-4
-1.269, 2.270e-4
-1.270, 2.278e-4
-1.271, 2.286e-4
-1.272, 2.295e-4
-1.273, 2.302e-4
-1.274, 2.309e-4
-1.275, 2.316e-4
-1.276, 2.324e-4
-1.277, 2.331e-4
-1.278, 2.336e-4
-1.279, 2.342e-4
-1.280, 2.348e-4
-1.281, 2.355e-4
-1.282, 2.361e-4
-1.283, 2.366e-4
-1.284, 2.372e-4
-1.285, 2.377e-4
-1.286, 2.381e-4
-1.287, 2.386e-4
-1.288, 2.391e-4
-1.289, 2.394e-4
-1.290, 2.397e-4
-1.291, 2.402e-4
-1.292, 2.406e-4
-1.293, 2.409e-4
-1.294, 2.412e-4
-1.295, 2.416e-4
-1.296, 2.419e-4
-1.297, 2.422e-4
-1.298, 2.425e-4
-1.299, 2.427e-4
-1.300, 2.431e-4
-1.301, 2.434e-4
-1.302, 2.437e-4
-1.303, 2.439e-4
-1.304, 2.441e-4
-1.305, 2.444e-4
-1.306, 2.446e-4
-1.307, 2.448e-4
-1.308, 2.450e-4
-1.309, 2.452e-4
-1.310, 2.455e-4
-1.311, 2.457e-4
-1.312, 2.459e-4
-1.313, 2.461e-4
-1.314, 2.463e-4
-1.315, 2.465e-4
-1.316, 2.467e-4
-1.317, 2.469e-4
-1.318, 2.471e-4
-1.319, 2.474e-4
-1.320, 2.476e-4
-1.321, 2.478e-4
-1.322, 2.480e-4
-1.323, 2.482e-4
-1.324, 2.484e-4
-1.325, 2.487e-4
-1.326, 2.489e-4
-1.327, 2.492e-4
-1.328, 2.494e-4
-1.329, 2.496e-4
-1.330, 2.499e-4
-1.331, 2.502e-4
-1.332, 2.505e-4
-1.333, 2.507e-4
-1.334, 2.510e-4
-1.335, 2.512e-4
-1.336, 2.514e-4
-1.337, 2.517e-4
-1.338, 2.521e-4
-1.339, 2.525e-4
-1.340, 2.529e-4
-1.341, 2.532e-4
-1.342, 2.537e-4
-1.343, 2.541e-4
-1.344, 2.545e-4
-1.345, 2.548e-4
-1.346, 2.553e-4
-1.347, 2.556e-4
-1.348, 2.562e-4
-1.349, 2.567e-4
-1.350, 2.572e-4
-1.351, 2.577e-4
-1.352, 2.582e-4
-1.353, 2.588e-4
-1.354, 2.593e-4
-1.355, 2.598e-4
-1.356, 2.602e-4
-1.357, 2.607e-4
-1.358, 2.612e-4
-1.359, 2.618e-4
-1.360, 2.624e-4
-1.361, 2.629e-4
-1.362, 2.634e-4
-1.363, 2.639e-4
-1.364, 2.645e-4
-1.365, 2.651e-4
-1.366, 2.656e-4
-1.367, 2.663e-4
-1.368, 2.669e-4
-1.369, 2.674e-4
-1.370, 2.680e-4
-1.371, 2.687e-4
-1.372, 2.693e-4
-1.373, 2.699e-4
-1.374, 2.706e-4
-1.375, 2.713e-4
-1.376, 2.721e-4
-1.377, 2.729e-4
-1.378, 2.735e-4
-1.379, 2.742e-4
-1.380, 2.749e-4
-1.381, 2.756e-4
-1.382, 2.764e-4
-1.383, 2.771e-4
-1.384, 2.780e-4
-1.385, 2.787e-4
-1.386, 2.795e-4
-1.387, 2.804e-4
-1.388, 2.813e-4
-1.389, 2.822e-4
-1.390, 2.832e-4
-1.391, 2.841e-4
-1.392, 2.851e-4
-1.393, 2.861e-4
-1.394, 2.871e-4
-1.395, 2.882e-4
-1.396, 2.892e-4
-1.397, 2.901e-4
-1.398, 2.911e-4
-1.399, 2.921e-4
-1.400, 2.932e-4
-1.401, 2.943e-4
-1.402, 2.955e-4
-1.403, 2.967e-4
-1.404, 2.979e-4
-1.405, 2.992e-4
-1.406, 3.004e-4
-1.407, 3.018e-4
-1.408, 3.031e-4
-1.409, 3.044e-4
-1.410, 3.056e-4
-1.411, 3.069e-4
-1.412, 3.081e-4
-1.413, 3.094e-4
-1.414, 3.107e-4
-1.415, 3.121e-4
-1.416, 3.135e-4
-1.417, 3.150e-4
-1.418, 3.165e-4
-1.419, 3.178e-4
-1.420, 3.193e-4
-1.421, 3.210e-4
-1.422, 3.226e-4
-1.423, 3.243e-4
-1.424, 3.259e-4
-1.425, 3.276e-4
-1.426, 3.293e-4
-1.427, 3.309e-4
-1.428, 3.325e-4
-1.429, 3.343e-4
-1.430, 3.362e-4
-1.431, 3.380e-4
-1.432, 3.399e-4
-1.433, 3.417e-4
-1.434, 3.435e-4
-1.435, 3.455e-4
-1.436, 3.474e-4
-1.437, 3.493e-4
-1.438, 3.512e-4
-1.439, 3.531e-4
-1.440, 3.550e-4
-1.441, 3.569e-4
-1.442, 3.589e-4
-1.443, 3.610e-4
-1.444, 3.632e-4
-1.445, 3.655e-4
-1.446, 3.679e-4
-1.447, 3.702e-4
-1.448, 3.725e-4
-1.449, 3.748e-4
-1.450, 3.771e-4
-1.451, 3.794e-4
-1.452, 3.817e-4
-1.453, 3.840e-4
-1.454, 3.864e-4
-1.455, 3.889e-4
-1.456, 3.914e-4
-1.457, 3.938e-4
-1.458, 3.963e-4
-1.459, 3.988e-4
-1.460, 4.013e-4
-1.461, 4.038e-4
-1.462, 4.064e-4
-1.463, 4.091e-4
-1.464, 4.117e-4
-1.465, 4.143e-4
-1.466, 4.169e-4
-1.467, 4.195e-4
-1.468, 4.221e-4
-1.469, 4.246e-4
-1.470, 4.272e-4
-1.471, 4.297e-4
-1.472, 4.324e-4
-1.473, 4.349e-4
-1.474, 4.375e-4
-1.475, 4.402e-4
-1.476, 4.428e-4
-1.477, 4.453e-4
-1.478, 4.483e-4
-1.479, 4.511e-4
-1.480, 4.537e-4
-1.481, 4.562e-4
-1.482, 4.589e-4
-1.483, 4.612e-4
-1.484, 4.637e-4
-1.485, 4.663e-4
-1.486, 4.690e-4
-1.487, 4.717e-4
-1.488, 4.742e-4
-1.489, 4.767e-4
-1.490, 4.792e-4
-1.491, 4.818e-4
-1.492, 4.840e-4
-1.493, 4.863e-4
-1.494, 4.887e-4
-1.495, 4.909e-4
-1.496, 4.933e-4
-1.497, 4.956e-4
-1.498, 4.978e-4
-1.499, 5.000e-4
-1.500, 5.022e-4
-1.501, 5.045e-4
-1.502, 5.068e-4
-1.503, 5.092e-4
-1.504, 5.115e-4
-1.505, 5.137e-4
-1.506, 5.159e-4
-1.507, 5.181e-4
-1.508, 5.203e-4
-1.509, 5.226e-4
-1.510, 5.248e-4
-1.511, 5.271e-4
-1.512, 5.291e-4
-1.513, 5.310e-4
-1.514, 5.329e-4
-1.515, 5.351e-4
-1.516, 5.372e-4
-1.517, 5.391e-4
-1.518, 5.411e-4
-1.519, 5.434e-4
-1.520, 5.453e-4
-1.521, 5.471e-4
-1.522, 5.490e-4
-1.523, 5.511e-4
-1.524, 5.530e-4
-1.525, 5.548e-4
-1.526, 5.568e-4
-1.527, 5.586e-4
-1.528, 5.603e-4
-1.529, 5.621e-4
-1.530, 5.640e-4
-1.531, 5.661e-4
-1.532, 5.678e-4
-1.533, 5.695e-4
-1.534, 5.715e-4
-1.535, 5.733e-4
-1.536, 5.750e-4
-1.537, 5.766e-4
-1.538, 5.782e-4
-1.539, 5.799e-4
-1.540, 5.816e-4
-1.541, 5.834e-4
-1.542, 5.850e-4
-1.543, 5.868e-4
-1.544, 5.885e-4
-1.545, 5.903e-4
-1.546, 5.921e-4
-1.547, 5.939e-4
-1.548, 5.958e-4
-1.549, 5.976e-4
-1.550, 5.992e-4
-1.551, 6.011e-4
-1.552, 6.030e-4
-1.553, 6.048e-4
-1.554, 6.065e-4
-1.555, 6.082e-4
-1.556, 6.100e-4
-1.557, 6.119e-4
-1.558, 6.138e-4
-1.559, 6.154e-4
-1.560, 6.171e-4
-1.561, 6.189e-4
-1.562, 6.208e-4
-1.563, 6.222e-4
-1.564, 6.239e-4
-1.565, 6.254e-4
-1.566, 6.271e-4
-1.567, 6.287e-4
-1.568, 6.302e-4
-1.569, 6.315e-4
-1.570, 6.328e-4
-1.571, 6.340e-4
-1.572, 6.353e-4
-1.573, 6.366e-4
-1.574, 6.378e-4
-1.575, 6.389e-4
-1.576, 6.399e-4
-1.577, 6.412e-4
-1.578, 6.422e-4
-1.579, 6.432e-4
-1.580, 6.442e-4
-1.581, 6.448e-4
-1.582, 6.458e-4
-1.583, 6.470e-4
-1.584, 6.477e-4
-1.585, 6.485e-4
-1.586, 6.493e-4
-1.587, 6.497e-4
-1.588, 6.501e-4
-1.589, 6.506e-4
-1.590, 6.509e-4
-1.591, 6.511e-4
-1.592, 6.515e-4
-1.593, 6.518e-4
-1.594, 6.520e-4
-1.595, 6.521e-4
-1.596, 6.519e-4
-1.597, 6.517e-4
-1.598, 6.516e-4
-1.599, 6.515e-4
-1.600, 6.514e-4
-1.601, 6.511e-4
-1.602, 6.509e-4
-1.603, 6.507e-4
-1.604, 6.505e-4
-1.605, 6.501e-4
-1.606, 6.497e-4
-1.607, 6.486e-4
-1.608, 6.476e-4
-1.609, 6.468e-4
-1.610, 6.462e-4
-1.611, 6.451e-4
-1.612, 6.439e-4
-1.613, 6.429e-4
-1.614, 6.418e-4
-1.615, 6.402e-4
-1.616, 6.389e-4
-1.617, 6.376e-4
-1.618, 6.362e-4
-1.619, 6.348e-4
-1.620, 6.331e-4
-1.621, 6.313e-4
-1.622, 6.298e-4
-1.623, 6.282e-4
-1.624, 6.267e-4
-1.625, 6.252e-4
-1.626, 6.236e-4
-1.627, 6.218e-4
-1.628, 6.199e-4
-1.629, 6.179e-4
-1.630, 6.158e-4
-1.631, 6.140e-4
-1.632, 6.121e-4
-1.633, 6.098e-4
-1.634, 6.073e-4
-1.635, 6.054e-4
-1.636, 6.035e-4
-1.637, 6.013e-4
-1.638, 5.992e-4
-1.639, 5.971e-4
-1.640, 5.952e-4
-1.641, 5.931e-4
-1.642, 5.906e-4
-1.643, 5.883e-4
-1.644, 5.858e-4
-1.645, 5.832e-4
-1.646, 5.808e-4
-1.647, 5.782e-4
-1.648, 5.755e-4
-1.649, 5.731e-4
-1.650, 5.706e-4
-1.651, 5.682e-4
-1.652, 5.656e-4
-1.653, 5.625e-4
-1.654, 5.596e-4
-1.655, 5.566e-4
-1.656, 5.540e-4
-1.657, 5.520e-4
-1.658, 5.495e-4
-1.659, 5.470e-4
-1.660, 5.446e-4
-1.661, 5.421e-4
-1.662, 5.390e-4
-1.663, 5.357e-4
-1.664, 5.330e-4
-1.665, 5.307e-4
-1.666, 5.281e-4
-1.667, 5.252e-4
-1.668, 5.224e-4
-1.669, 5.199e-4
-1.670, 5.175e-4
-1.671, 5.144e-4
-1.672, 5.110e-4
-1.673, 5.075e-4
-1.674, 5.044e-4
-1.675, 5.014e-4
-1.676, 4.988e-4
-1.677, 4.958e-4
-1.678, 4.931e-4
-1.679, 4.906e-4
-1.680, 4.877e-4
-1.681, 4.847e-4
-1.682, 4.816e-4
-1.683, 4.789e-4
-1.684, 4.769e-4
-1.685, 4.748e-4
-1.686, 4.722e-4
-1.687, 4.695e-4
-1.688, 4.669e-4
-1.689, 4.643e-4
-1.690, 4.623e-4
-1.691, 4.606e-4
-1.692, 4.591e-4
-1.693, 4.573e-4
-1.694, 4.549e-4
-1.695, 4.530e-4
-1.696, 4.510e-4
-1.697, 4.489e-4
-1.698, 4.470e-4
-1.699, 4.445e-4
-1.700, 4.434e-4
-1.701, 4.429e-4
-1.702, 4.420e-4
-1.703, 4.404e-4
-1.704, 4.386e-4
-1.705, 4.362e-4
-1.706, 4.346e-4
-1.707, 4.333e-4
-1.708, 4.318e-4
-1.709, 4.308e-4
-1.710, 4.301e-4
-1.711, 4.289e-4
-1.712, 4.276e-4
-1.713, 4.263e-4
-1.714, 4.253e-4
-1.715, 4.245e-4
-1.716, 4.238e-4
-1.717, 4.224e-4
-1.718, 4.211e-4
-1.719, 4.198e-4
-1.720, 4.189e-4
-1.721, 4.173e-4
-1.722, 4.158e-4
-1.723, 4.149e-4
-1.724, 4.141e-4
-1.725, 4.129e-4
-1.726, 4.119e-4
-1.727, 4.110e-4
-1.728, 4.100e-4
-1.729, 4.093e-4
-1.730, 4.086e-4
-1.731, 4.080e-4
-1.732, 4.076e-4
-1.733, 4.075e-4
-1.734, 4.072e-4
-1.735, 4.066e-4
-1.736, 4.061e-4
-1.737, 4.056e-4
-1.738, 4.046e-4
-1.739, 4.041e-4
-1.740, 4.035e-4
-1.741, 4.033e-4
-1.742, 4.029e-4
-1.743, 4.026e-4
-1.744, 4.021e-4
-1.745, 4.015e-4
-1.746, 4.009e-4
-1.747, 4.004e-4
-1.748, 3.998e-4
-1.749, 3.992e-4
-1.750, 3.988e-4
-1.751, 3.988e-4
-1.752, 3.983e-4
-1.753, 3.982e-4
-1.754, 3.977e-4
-1.755, 3.973e-4
-1.756, 3.969e-4
-1.757, 3.968e-4
-1.758, 3.967e-4
-1.759, 3.964e-4
-1.760, 3.958e-4
-1.761, 3.953e-4
-1.762, 3.955e-4
-1.763, 3.954e-4
-1.764, 3.955e-4
-1.765, 3.957e-4
-1.766, 3.953e-4
-1.767, 3.952e-4
-1.768, 3.956e-4
-1.769, 3.959e-4
-1.770, 3.964e-4
-1.771, 3.963e-4
-1.772, 3.967e-4
-1.773, 3.967e-4
-1.774, 3.965e-4
-1.775, 3.964e-4
-1.776, 3.964e-4
-1.777, 3.963e-4
-1.778, 3.965e-4
-1.779, 3.967e-4
-1.780, 3.972e-4
-1.781, 3.975e-4
-1.782, 3.970e-4
-1.783, 3.969e-4
-1.784, 3.970e-4
-1.785, 3.970e-4
-1.786, 3.975e-4
-1.787, 3.979e-4
-1.788, 3.979e-4
-1.789, 3.985e-4
-1.790, 3.989e-4
-1.791, 3.996e-4
-1.792, 3.999e-4
-1.793, 4.002e-4
-1.794, 4.006e-4
-1.795, 4.013e-4
-1.796, 4.020e-4
-1.797, 4.021e-4
-1.798, 4.025e-4
-1.799, 4.026e-4
-1.800, 4.033e-4
-1.801, 4.043e-4
-1.802, 4.045e-4
-1.803, 4.051e-4
-1.804, 4.059e-4
-1.805, 4.066e-4
-1.806, 4.070e-4
-1.807, 4.078e-4
-1.808, 4.090e-4
-1.809, 4.102e-4
-1.810, 4.102e-4
-1.811, 4.105e-4
-1.812, 4.113e-4
-1.813, 4.122e-4
-1.814, 4.132e-4
-1.815, 4.140e-4
-1.816, 4.148e-4
-1.817, 4.164e-4
-1.818, 4.174e-4
-1.819, 4.184e-4
-1.820, 4.198e-4
-1.821, 4.207e-4
-1.822, 4.215e-4
-1.823, 4.225e-4
-1.824, 4.235e-4
-1.825, 4.250e-4
-1.826, 4.262e-4
-1.827, 4.270e-4
-1.828, 4.280e-4
-1.829, 4.295e-4
-1.830, 4.305e-4
-1.831, 4.317e-4
-1.832, 4.333e-4
-1.833, 4.347e-4
-1.834, 4.356e-4
-1.835, 4.367e-4
-1.836, 4.382e-4
-1.837, 4.397e-4
-1.838, 4.408e-4
-1.839, 4.420e-4
-1.840, 4.438e-4
-1.841, 4.456e-4
-1.842, 4.469e-4
-1.843, 4.482e-4
-1.844, 4.497e-4
-1.845, 4.511e-4
-1.846, 4.525e-4
-1.847, 4.539e-4
-1.848, 4.553e-4
-1.849, 4.570e-4
-1.850, 4.591e-4
-1.851, 4.611e-4
-1.852, 4.629e-4
-1.853, 4.644e-4
-1.854, 4.660e-4
-1.855, 4.678e-4
-1.856, 4.698e-4
-1.857, 4.711e-4
-1.858, 4.724e-4
-1.859, 4.742e-4
-1.860, 4.761e-4
-1.861, 4.779e-4
-1.862, 4.795e-4
-1.863, 4.808e-4
-1.864, 4.824e-4
-1.865, 4.849e-4
-1.866, 4.865e-4
-1.867, 4.879e-4
-1.868, 4.893e-4
-1.869, 4.914e-4
-1.870, 4.934e-4
-1.871, 4.954e-4
-1.872, 4.976e-4
-1.873, 5.000e-4
-1.874, 5.021e-4
-1.875, 5.044e-4
-1.876, 5.066e-4
-1.877, 5.085e-4
-1.878, 5.106e-4
-1.879, 5.125e-4
-1.880, 5.145e-4
-1.881, 5.164e-4
-1.882, 5.186e-4
-1.883, 5.210e-4
-1.884, 5.231e-4
-1.885, 5.254e-4
-1.886, 5.278e-4
-1.887, 5.303e-4
-1.888, 5.324e-4
-1.889, 5.351e-4
-1.890, 5.377e-4
-1.891, 5.400e-4
-1.892, 5.423e-4
-1.893, 5.450e-4
-1.894, 5.473e-4
-1.895, 5.494e-4
-1.896, 5.512e-4
-1.897, 5.536e-4
-1.898, 5.553e-4
-1.899, 5.574e-4
-1.900, 5.595e-4
-1.901, 5.623e-4
-1.902, 5.653e-4
-1.903, 5.679e-4
-1.904, 5.705e-4
-1.905, 5.728e-4
-1.906, 5.755e-4
-1.907, 5.784e-4
-1.908, 5.810e-4
-1.909, 5.834e-4
-1.910, 5.860e-4
-1.911, 5.887e-4
-1.912, 5.915e-4
-1.913, 5.939e-4
-1.914, 5.969e-4
-1.915, 6.001e-4
-1.916, 6.030e-4
-1.917, 6.061e-4
-1.918, 6.094e-4
-1.919, 6.127e-4
-1.920, 6.154e-4
-1.921, 6.184e-4
-1.922, 6.220e-4
-1.923, 6.252e-4
-1.924, 6.285e-4
-1.925, 6.318e-4
-1.926, 6.354e-4
-1.927, 6.389e-4
-1.928, 6.424e-4
-1.929, 6.460e-4
-1.930, 6.496e-4
-1.931, 6.531e-4
-1.932, 6.567e-4
-1.933, 6.598e-4
-1.934, 6.633e-4
-1.935, 6.675e-4
-1.936, 6.715e-4
-1.937, 6.751e-4
-1.938, 6.790e-4
-1.939, 6.832e-4
-1.940, 6.870e-4
-1.941, 6.911e-4
-1.942, 6.953e-4
-1.943, 6.994e-4
-1.944, 7.035e-4
-1.945, 7.079e-4
-1.946, 7.122e-4
-1.947, 7.158e-4
-1.948, 7.193e-4
-1.949, 7.237e-4
-1.950, 7.282e-4
-1.951, 7.327e-4
-1.952, 7.371e-4
-1.953, 7.415e-4
-1.954, 7.460e-4
-1.955, 7.505e-4
-1.956, 7.549e-4
-1.957, 7.593e-4
-1.958, 7.639e-4
-1.959, 7.680e-4
-1.960, 7.728e-4
-1.961, 7.778e-4
-1.962, 7.826e-4
-1.963, 7.873e-4
-1.964, 7.920e-4
-1.965, 7.967e-4
-1.966, 8.019e-4
-1.967, 8.076e-4
-1.968, 8.128e-4
-1.969, 8.181e-4
-1.970, 8.231e-4
-1.971, 8.280e-4
-1.972, 8.330e-4
-1.973, 8.382e-4
-1.974, 8.434e-4
-1.975, 8.487e-4
-1.976, 8.539e-4
-1.977, 8.589e-4
-1.978, 8.641e-4
-1.979, 8.685e-4
-1.980, 8.729e-4
-1.981, 8.785e-4
-1.982, 8.841e-4
-1.983, 8.897e-4
-1.984, 8.952e-4
-1.985, 9.007e-4
-1.986, 9.063e-4
-1.987, 9.117e-4
-1.988, 9.169e-4
-1.989, 9.225e-4
-1.990, 9.279e-4
-1.991, 9.327e-4
-1.992, 9.386e-4
-1.993, 9.443e-4
-1.994, 9.499e-4
-1.995, 9.556e-4
-1.996, 9.612e-4
-1.997, 9.661e-4
-1.998, 9.718e-4
-1.999, 9.778e-4
-2.000, 9.836e-4
-2.001, 9.897e-4
-2.002, 9.954e-4
-2.003, 1.002e-3
-2.004, 1.008e-3
-2.005, 1.011e-3
-2.006, 1.011e-3
-2.007, 1.011e-3
-2.008, 1.011e-3
-2.009, 1.011e-3
-2.010, 1.011e-3
-2.011, 1.011e-3
-2.012, 1.011e-3
-2.013, 1.011e-3
-2.014, 1.011e-3
-2.015, 1.011e-3
-2.016, 1.011e-3
-2.017, 1.011e-3
-2.018, 1.011e-3
-2.019, 1.011e-3
-2.020, 1.011e-3
-2.021, 1.011e-3
-2.022, 1.011e-3
-2.023, 1.011e-3
-2.024, 1.011e-3
-2.025, 1.011e-3
-2.026, 1.011e-3
-2.027, 1.011e-3
-2.028, 1.011e-3
-2.029, 1.011e-3
-2.030, 1.011e-3
-2.031, 1.011e-3
-2.032, 1.011e-3
-2.033, 1.011e-3
-2.034, 1.011e-3
-2.035, 1.011e-3
-2.036, 1.011e-3
-2.037, 1.011e-3
-2.038, 1.011e-3
-2.039, 1.011e-3
-2.040, 1.011e-3
-2.041, 1.011e-3
-2.042, 1.011e-3
-2.043, 1.011e-3
-2.044, 1.011e-3
-2.045, 1.011e-3
-2.046, 1.011e-3
-2.047, 1.011e-3
-2.048, 1.011e-3
-2.049, 1.011e-3
-2.050, 1.011e-3
-2.051, 1.011e-3
-2.052, 1.011e-3
-2.053, 1.011e-3
-2.054, 1.011e-3
-2.055, 1.011e-3
-2.056, 1.011e-3
-2.057, 1.011e-3
-2.058, 1.011e-3
-2.059, 1.011e-3
-2.060, 1.011e-3
-2.061, 1.011e-3
-2.062, 1.011e-3
-2.063, 1.011e-3
-2.064, 1.011e-3
-2.065, 1.011e-3
-2.066, 1.011e-3
-2.067, 1.011e-3
-2.068, 1.011e-3
-2.069, 1.011e-3
-2.070, 1.011e-3
-2.071, 1.011e-3
-2.072, 1.011e-3
-2.073, 1.011e-3
-2.074, 1.011e-3
-2.075, 1.011e-3
-2.076, 1.011e-3
-2.077, 1.011e-3
-2.078, 1.011e-3
-2.079, 1.011e-3
-2.080, 1.011e-3
-2.081, 1.011e-3
-2.082, 1.011e-3
-2.083, 1.011e-3
-2.084, 1.011e-3
-2.085, 1.011e-3
-2.086, 1.011e-3
-2.087, 1.011e-3
-2.088, 1.011e-3
-2.089, 1.011e-3
-2.090, 1.011e-3
-2.091, 1.011e-3
-2.092, 1.011e-3
-2.093, 1.011e-3
-2.094, 1.011e-3
-2.095, 1.011e-3
-2.096, 1.011e-3
-2.097, 1.011e-3
-2.098, 1.011e-3
-2.099, 1.011e-3
-2.100, 1.011e-3
-2.101, 1.011e-3
-2.102, 1.011e-3
-2.103, 1.011e-3
-2.104, 1.011e-3
-2.105, 1.011e-3
-2.106, 1.011e-3
-2.107, 1.011e-3
-2.108, 1.011e-3
-2.109, 1.011e-3
-2.110, 1.011e-3
-2.111, 1.011e-3
-2.112, 1.011e-3
-2.113, 1.011e-3
-2.114, 1.011e-3
-2.115, 1.011e-3
-2.116, 1.011e-3
-2.117, 1.011e-3
-2.118, 1.011e-3
-2.119, 1.011e-3
-2.120, 1.011e-3
-2.121, 1.011e-3
-2.122, 1.011e-3
-2.123, 1.011e-3
-2.124, 1.011e-3
-2.125, 1.011e-3
-2.126, 1.011e-3
-2.127, 1.011e-3
-2.128, 1.011e-3
-2.129, 1.011e-3
-2.130, 1.011e-3
-2.131, 1.011e-3
-2.132, 1.011e-3
-2.133, 1.011e-3
-2.134, 1.011e-3
-2.135, 1.011e-3
-2.136, 1.011e-3
-2.137, 1.011e-3
-2.138, 1.011e-3
-2.139, 1.011e-3
-2.140, 1.011e-3
-2.141, 1.011e-3
-2.142, 1.011e-3
-2.143, 1.011e-3
-2.144, 1.011e-3
-2.145, 1.011e-3
-2.146, 1.011e-3
-2.147, 1.011e-3
-2.148, 1.011e-3
-2.149, 1.011e-3
-2.150, 1.011e-3
-2.151, 1.011e-3
-2.152, 1.011e-3
-2.153, 1.011e-3
-2.154, 1.011e-3
-2.155, 1.011e-3
-2.156, 1.011e-3
-2.157, 1.011e-3
-2.158, 1.011e-3
-2.159, 1.011e-3
-2.160, 1.011e-3
-2.161, 1.011e-3
-2.162, 1.011e-3
-2.163, 1.011e-3
-2.164, 1.011e-3
-2.165, 1.011e-3
-2.166, 1.011e-3
-2.167, 1.011e-3
-2.168, 1.011e-3
-2.169, 1.011e-3
-2.170, 1.011e-3
-2.171, 1.011e-3
-2.172, 1.011e-3
-2.173, 1.011e-3
-2.174, 1.011e-3
-2.175, 1.011e-3
-2.176, 1.011e-3
-2.177, 1.011e-3
-2.178, 1.011e-3
-2.179, 1.011e-3
-2.180, 1.011e-3
-2.181, 1.011e-3
-2.182, 1.011e-3
-2.183, 1.011e-3
-2.184, 1.011e-3
-2.185, 1.011e-3
-2.186, 1.011e-3
-2.187, 1.011e-3
-2.188, 1.011e-3
-2.189, 1.011e-3
-2.190, 1.011e-3
-2.191, 1.011e-3
-2.192, 1.011e-3
-2.193, 1.011e-3
-2.194, 1.011e-3
-2.195, 1.011e-3
-2.196, 1.011e-3
-2.197, 1.011e-3
-2.198, 1.011e-3
-2.199, 1.011e-3
-2.200, 1.011e-3
-2.201, 1.011e-3
-2.202, 1.011e-3
-2.203, 1.011e-3
-2.204, 1.011e-3
-2.205, 1.011e-3
-2.206, 1.011e-3
-2.207, 1.011e-3
-2.208, 1.011e-3
-2.209, 1.011e-3
-2.210, 1.011e-3
-2.211, 1.011e-3
-2.212, 1.011e-3
-2.213, 1.011e-3
-2.214, 1.011e-3
-2.215, 1.011e-3
-2.216, 1.011e-3
-2.217, 1.011e-3
-2.218, 1.011e-3
-2.219, 1.011e-3
-2.220, 1.011e-3
-2.221, 1.011e-3
-2.222, 1.011e-3
-2.223, 1.011e-3
-2.224, 1.011e-3
-2.225, 1.011e-3
-2.226, 1.011e-3
-2.227, 1.011e-3
-2.228, 1.011e-3
-2.229, 1.011e-3
-2.230, 1.011e-3
-2.231, 1.011e-3
-2.232, 1.011e-3
-2.233, 1.011e-3
-2.234, 1.011e-3
-2.235, 1.011e-3
-2.236, 1.011e-3
-2.237, 1.011e-3
-2.238, 1.011e-3
-2.239, 1.011e-3
-2.240, 1.011e-3
-2.241, 1.011e-3
-2.242, 1.011e-3
-2.243, 1.011e-3
-2.244, 1.011e-3
-2.245, 1.011e-3
-2.246, 1.011e-3
-2.247, 1.011e-3
-2.248, 1.011e-3
-2.249, 1.011e-3
-2.250, 1.011e-3
-2.251, 1.011e-3
-2.252, 1.011e-3
-2.253, 1.011e-3
-2.254, 1.011e-3
-2.255, 1.011e-3
-2.256, 1.011e-3
-2.257, 1.011e-3
-2.258, 1.011e-3
-2.259, 1.011e-3
-2.260, 1.011e-3
-2.261, 1.011e-3
-2.262, 1.011e-3
-2.263, 1.011e-3
-2.264, 1.011e-3
-2.265, 1.011e-3
-2.266, 1.011e-3
-2.267, 1.011e-3
-2.268, 1.011e-3
-2.269, 1.011e-3
-2.270, 1.011e-3
-2.271, 1.011e-3
-2.272, 1.011e-3
-2.273, 1.011e-3
-2.274, 1.011e-3
-2.275, 1.011e-3
-2.276, 1.011e-3
-2.277, 1.011e-3
-2.278, 1.011e-3
-2.279, 1.011e-3
-2.280, 1.011e-3
-2.281, 1.011e-3
-2.282, 1.011e-3
-2.283, 1.011e-3
-2.284, 1.011e-3
-2.285, 1.011e-3
-2.286, 1.011e-3
-2.287, 1.011e-3
-2.288, 1.011e-3
-2.289, 1.011e-3
-2.290, 1.011e-3
-2.291, 1.011e-3
-2.292, 1.011e-3
-2.293, 1.011e-3
-2.294, 1.011e-3
-2.295, 1.011e-3
-2.296, 1.011e-3
-2.297, 1.011e-3
-2.298, 1.011e-3
-2.299, 1.011e-3
