Potential V vs RHE, Current mA cm-2
0.05339999999999995,-0.7084874189724104
0.05239999999999995,-0.7387622407895221
0.051399999999999946,-0.7652173420969983
0.050399999999999945,-0.7837500601252303
0.049399999999999944,-0.7973312886039347
0.04839999999999994,-0.808366036742882
0.04739999999999994,-0.8177031313219912
0.04639999999999994,-0.8252011012112759
0.04539999999999994,-0.8314258309306821
0.04439999999999994,-0.8370846761301421
0.04339999999999994,-0.8413288100297374
0.04239999999999994,-0.845148530539373
0.04139999999999994,-0.8484023665290624
0.040399999999999936,-0.8516562025187521
0.039399999999999935,-0.8544856251184821
0.038399999999999934,-0.8574565188481987
0.03739999999999993,-0.8605688837079019
0.03639999999999993,-0.8626909506576994
0.03539999999999993,-0.8646715464775104
0.03439999999999993,-0.8665106711673349
0.03339999999999993,-0.868491266987146
0.03239999999999993,-0.8704718628069571
0.03139999999999993,-0.8718865741068222
0.030399999999999927,-0.8731598142767006
0.029399999999999926,-0.8744330544465793
0.028399999999999925,-0.8758477657464442
0.027399999999999924,-0.8772624770463092
0.026399999999999924,-0.8789601306061473
0.025399999999999923,-0.8806577841659853
0.024399999999999922,-0.8815066109459044
0.02339999999999992,-0.882213966595837
0.02239999999999992,-0.8832042645057423
0.02139999999999992,-0.884194562415648
0.020399999999999918,-0.88532633145554
0.019399999999999917,-0.8861751582354589
0.018399999999999916,-0.8877313406653105
0.017399999999999916,-0.8890045808351891
0.016399999999999915,-0.889853407615108
0.015399999999999914,-0.8907022343950269
0.014399999999999913,-0.8915510611749462
0.013399999999999912,-0.8928243013448246
0.012399999999999911,-0.8935316569947571
0.01139999999999991,-0.894380483774676
0.01039999999999991,-0.8957951950745412
0.009399999999999908,-0.8965025507244737
0.008399999999999908,-0.8970684352444198
0.007399999999999907,-0.8982002042843118
0.006399999999999906,-0.8986246176742713
0.005399999999999905,-0.8993319733242039
0.004399999999999904,-0.9001808001041228
0.003399999999999903,-0.9006052134940823
0.002399999999999902,-0.9008881557540553
0.0013999999999999013,-0.9014540402740014
0.00039999999999990044,-0.9021613959239337
-0.0006000000000001005,-0.903010222703853
-0.0016000000000001013,-0.9035761072237989
-0.0026000000000001022,-0.9042834628737314
-0.003600000000000103,-0.9062640586935425
-0.004600000000000104,-0.906405529823529
-0.005600000000000105,-0.9062640586935425
-0.006600000000000106,-0.906971414343475
-0.007600000000000107,-0.907537298863421
-0.008600000000000108,-0.9082446545133536
-0.009600000000000108,-0.9096593658132186
-0.01060000000000011,-0.9110740771130835
-0.01160000000000011,-0.9123473172829621
-0.012600000000000111,-0.9140449708428002
-0.013600000000000112,-0.9150352687527057
-0.014600000000000113,-0.9150352687527057
-0.015600000000000114,-0.9156011532726518
-0.016600000000000115,-0.9168743934425302
-0.017600000000000116,-0.9177232202224491
-0.018600000000000116,-0.9188549892623414
-0.019600000000000117,-0.9198452871722468
-0.020600000000000118,-0.9206941139521657
-0.02160000000000012,-0.9216844118620713
-0.02260000000000012,-0.9225332386419903
-0.02360000000000012,-0.9236650076818825
-0.024600000000000122,-0.9247967767217745
-0.025600000000000123,-0.92578707463168
-0.026600000000000124,-0.926918843671572
-0.027600000000000124,-0.9277676704514911
-0.028600000000000125,-0.9284750261014234
-0.029600000000000126,-0.9296067951413157
-0.030600000000000127,-0.9305970930512211
-0.03160000000000013,-0.9315873909611266
-0.03260000000000013,-0.932860631131005
-0.03360000000000013,-0.9339924001708971
-0.03460000000000002,-0.9355485826007488
-0.03560000000000002,-0.9371047650306003
-0.03660000000000002,-0.9380950629405057
-0.03760000000000002,-0.9393683031103843
-0.03860000000000002,-0.9403586010202899
-0.039600000000000024,-0.9412074278002089
-0.040600000000000025,-0.9424806679700873
-0.041600000000000026,-0.9433294947500065
-0.04260000000000003,-0.9451686194398311
-0.04360000000000003,-0.9467248018696826
-0.04460000000000003,-0.947715099779588
-0.04560000000000003,-0.9488468688194802
-0.04660000000000003,-0.9502615801193451
-0.04760000000000003,-0.9515348202892236
-0.04860000000000003,-0.9528080604591023
-0.04960000000000003,-0.9536568872390212
-0.050600000000000034,-0.9547886562789133
-0.051600000000000035,-0.9556374830588322
-0.052600000000000036,-0.9569107232287108
-0.053600000000000037,-0.9580424922686028
-0.05460000000000004,-0.9594572035684679
-0.05560000000000004,-0.9610133859983194
-0.05660000000000004,-0.9621451550382114
-0.05760000000000004,-0.9632769240781034
-0.05860000000000004,-0.9649745776379416
-0.05960000000000004,-0.9662478178078201
-0.06060000000000004,-0.9669551734577525
-0.061600000000000044,-0.9679454713676581
-0.06260000000000004,-0.9693601826675232
-0.06360000000000005,-0.9704919517074152
-0.06460000000000005,-0.9716237207473072
-0.06560000000000005,-0.9734628454371318
-0.06660000000000005,-0.9743116722170507
-0.06760000000000005,-0.9750190278669832
-0.06860000000000005,-0.9764337391668484
-0.06960000000000005,-0.9779899215966998
-0.07060000000000005,-0.9794046328965649
-0.07160000000000005,-0.9801119885464974
-0.07260000000000005,-0.9815266998463624
-0.07360000000000005,-0.9826584688862544
-0.07460000000000006,-0.9837902379261465
-0.07560000000000006,-0.9852049492260115
-0.07660000000000006,-0.986195247135917
-0.07760000000000006,-0.9873270161758091
-0.07860000000000006,-0.9878929006957552
-0.07960000000000006,-0.9890246697356472
-0.08060000000000006,-0.9908637944254716
-0.08160000000000006,-0.9918540923353774
-0.08260000000000006,-0.9929858613752693
-0.08360000000000006,-0.9938346881551883
-0.08460000000000006,-0.9949664571950803
-0.08560000000000006,-0.9969470530148913
-0.08660000000000007,-0.9985032354447428
-0.08760000000000007,-0.9993520622246619
-0.08860000000000007,-1.0002008890045808
-0.08960000000000007,-1.0013326580444728
-0.09060000000000007,-1.0031717827342974
-0.09160000000000007,-1.0040206095142166
-0.09260000000000007,-1.0038791383842298
-0.09360000000000007,-1.004727965164149
-0.09460000000000007,-1.0057182630740547
-0.09560000000000007,-1.0068500321139466
-0.09660000000000007,-1.007557387763879
-0.09760000000000008,-1.0082647434138117
-0.09860000000000008,-1.00953798358369
-0.09960000000000008,-1.010669752623582
-0.10060000000000008,-1.011235637143528
-0.10160000000000008,-1.0122259350534337
-0.10260000000000008,-1.0130747618333529
-0.10360000000000008,-1.0140650597432583
-0.10460000000000008,-1.0149138865231773
-0.10560000000000008,-1.0153382999131368
-0.10660000000000008,-1.0160456555630692
-0.10760000000000008,-1.0164700689530288
-0.10860000000000009,-1.0173188957329478
-0.10960000000000009,-1.0178847802528939
-0.11060000000000009,-1.0180262513828802
-0.11160000000000009,-1.0188750781627993
-0.11260000000000009,-1.0194409626827452
-0.11360000000000009,-1.0194409626827452
-0.11460000000000009,-1.019582433812732
-0.11560000000000009,-1.0197239049427183
-0.11660000000000009,-1.020148318332678
-0.1176000000000001,-1.0207142028526242
-0.1186000000000001,-1.0207142028526242
-0.1196000000000001,-1.0207142028526242
-0.1206000000000001,-1.020997145112597
-0.1216000000000001,-1.0214215585025566
-0.1226000000000001,-1.0219874430225024
-0.1236000000000001,-1.0219874430225024
-0.1246000000000001,-1.0217045007625294
-0.1256000000000001,-1.0218459718925161
-0.1266000000000001,-1.0217045007625294
-0.1276000000000001,-1.0222703852824755
-0.1286000000000001,-1.023260683192381
-0.1296000000000001,-1.0231192120623944
-0.1306000000000001,-1.0225533275424485
-0.1316000000000001,-1.022128914152489
-0.1326000000000001,-1.0219874430225024
-0.1336000000000001,-1.0218459718925161
-0.1346000000000001,-1.021563029632543
-0.1356000000000001,-1.020997145112597
-0.1366000000000001,-1.0202897894626646
-0.1376000000000001,-1.019582433812732
-0.1386000000000001,-1.019299491552759
-0.1396000000000001,-1.0198653760727048
-0.1406000000000001,-1.022128914152489
-0.14160000000000011,-1.020431260592651
-0.14260000000000012,-1.0191580204227724
-0.14360000000000012,-1.0185921359028263
-0.14460000000000012,-1.0176018379929208
-0.14560000000000012,-1.0164700689530288
-0.14660000000000012,-1.0154797710431231
-0.14760000000000012,-1.014489473133218
-0.14860000000000012,-1.0136406463532988
-0.14960000000000012,-1.0132162329633392
-0.15060000000000012,-1.0129332907033664
-0.15160000000000012,-1.0116600505334876
-0.15260000000000012,-1.010669752623582
-0.15360000000000013,-1.0099623969736498
-0.15460000000000013,-1.00953798358369
-0.15560000000000013,-1.008689156803771
-0.15660000000000013,-1.0079818011538386
-0.15760000000000013,-1.007274445503906
-0.15860000000000013,-1.006425618723987
-0.15960000000000002,-1.005293849684095
-0.16060000000000002,-1.004445022904176
-0.16160000000000002,-1.0038791383842298
-0.16260000000000002,-1.0031717827342974
-0.16360000000000002,-1.0017570714344324
-0.16460000000000002,-1.000766773524527
-0.16560000000000002,-1.0000594178745945
-0.16660000000000003,-1.0003423601345676
-0.16760000000000003,-0.9994935333546484
-0.16860000000000003,-0.9983617643147563
-0.16960000000000003,-0.9976544086648237
-0.17060000000000003,-0.9973714664048509
-0.17160000000000003,-0.9968055818849048
-0.17260000000000003,-0.9959567551049858
-0.17360000000000003,-0.9955323417150265
-0.17460000000000003,-0.9948249860650937
-0.17560000000000003,-0.9938346881551883
-0.17660000000000003,-0.9928443902452826
-0.17760000000000004,-0.9922785057253367
-0.17860000000000004,-0.9919955634653637
-0.17960000000000004,-0.9914296789454178
-0.18060000000000004,-0.9902979099055255
-0.18160000000000004,-0.9893076119956202
-0.18260000000000004,-0.9883173140857145
-0.18360000000000004,-0.9877514295657687
-0.18460000000000004,-0.9878929006957552
-0.18560000000000004,-0.9878929006957552
-0.18660000000000004,-0.9881758429557282
-0.18760000000000004,-0.9884587852157011
-0.18860000000000005,-0.9891661408656335
-0.18960000000000005,-0.9895905542555933
-0.19060000000000005,-0.9895905542555933
-0.19160000000000005,-0.9894490831256065
-0.19260000000000005,-0.9893076119956202
-0.19360000000000005,-0.9895905542555933
-0.19460000000000005,-0.9905808521654985
-0.19560000000000005,-0.9911467366854447
-0.19660000000000005,-0.9905808521654985
-0.19760000000000005,-0.9904393810355122
-0.19860000000000005,-0.9912882078154313
-0.19960000000000006,-0.9919955634653637
-0.20060000000000006,-0.9928443902452826
-0.20160000000000006,-0.9935517458952152
-0.20260000000000006,-0.9945420438051207
-0.20360000000000006,-0.9949664571950803
-0.20460000000000006,-0.9952493994550534
-0.20560000000000006,-0.9965226396249317
-0.20660000000000006,-0.9973714664048509
-0.20760000000000006,-0.9985032354447428
-0.20860000000000006,-0.9993520622246619
-0.20960000000000006,-1.0000594178745945
-0.21060000000000006,-1.0002008890045808
-0.21160000000000007,-1.000766773524527
-0.21260000000000007,-1.0020400136944054
-0.21360000000000007,-1.003313253864284
-0.21460000000000007,-1.0043035517741894
-0.21560000000000007,-1.0057182630740547
-0.21660000000000007,-1.0074159166338927
-0.21760000000000007,-1.0092550413237171
-0.21860000000000007,-1.010952694883555
-0.21960000000000007,-1.0125088773134068
-0.22060000000000007,-1.0137821174832853
-0.22160000000000007,-1.015904184433083
-0.22260000000000008,-1.0176018379929208
-0.22360000000000008,-1.0190165492927858
-0.22460000000000008,-1.0208556739826105
-0.22560000000000008,-1.022694798672435
-0.22660000000000008,-1.0245339233622595
-0.22760000000000008,-1.0266559903120571
-0.22860000000000008,-1.0283536438718952
-0.22960000000000008,-1.0306171819516792
-0.23060000000000008,-1.0327392489014768
-0.23160000000000008,-1.0350027869812608
-0.23260000000000008,-1.037549267321018
-0.23360000000000009,-1.0402372187907614
-0.2346000000000001,-1.0430666413904914
-0.2356000000000001,-1.0454716506002621
-0.2366000000000001,-1.0478766598100326
-0.2376000000000001,-1.0502816690198031
-0.2386000000000001,-1.0539599183994524
-0.2396000000000001,-1.0573552255191285
-0.2406000000000001,-1.0601846481188586
-0.2416000000000001,-1.062589657328629
-0.2426000000000001,-1.0652776087983726
-0.2436000000000001,-1.068814387048035
-0.2446000000000001,-1.0715023385177789
-0.2456000000000001,-1.0741902899875224
-0.2466000000000001,-1.077161183717239
-0.2476000000000001,-1.079707664056996
-0.2486000000000001,-1.0825370866567263
-0.2496000000000001,-1.0855079803864427
-0.2506000000000001,-1.0896106431560515
-0.2516000000000001,-1.0928644791457407
-0.2526000000000001,-1.0961183151354303
-0.2536000000000001,-1.0997965645150796
-0.2546000000000001,-1.1031918716347555
-0.2556000000000001,-1.1064457076244452
-0.2566000000000001,-1.1099824858741079
-0.2576000000000001,-1.1138022063837434
-0.2586000000000001,-1.117904869153352
-0.2596000000000001,-1.1225734164429066
-0.2606000000000001,-1.1266760792125152
-0.2616000000000001,-1.1307787419821238
-0.2626000000000001,-1.135588760401665
-0.2636000000000001,-1.140398778821206
-0.2646000000000001,-1.1452087972407472
-0.2656000000000001,-1.1486041043604232
-0.2666000000000001,-1.1514335269601534
-0.2676000000000001,-1.1553947185997753
-0.2686000000000001,-1.1600632658893302
-0.2696000000000001,-1.1640244575289522
-0.2706000000000001,-1.1677027069086015
-0.2716000000000001,-1.1726541964581287
-0.2726000000000001,-1.177747157137643
-0.2736000000000001,-1.1824157044271977
-0.2746000000000001,-1.1875086651067117
-0.2756000000000001,-1.191752799006307
-0.2766000000000001,-1.1955725195159426
-0.2776000000000001,-1.2000995956755107
-0.2786000000000001,-1.204909614095052
-0.2796000000000001,-1.2105684592945118
-0.2806000000000001,-1.2149540643240935
-0.28160000000000013,-1.2201884961335943
-0.28260000000000013,-1.2251399856831218
-0.28360000000000013,-1.2295255907127036
-0.2846,-1.234760022522204
-0.2856,-1.2419750501515157
-0.2866,-1.24706801083103
-0.2876,-1.251595086990598
-0.2886,-1.2571124610600715
-0.2896,-1.2619224794796127
-0.2906,-1.2671569112891135
-0.2916,-1.2719669297086544
-0.2926,-1.277201361518155
-0.2936,-1.2825772644576423
-0.29460000000000003,-1.2902167054769134
-0.29560000000000003,-1.29601702180636
-0.29660000000000003,-1.3004026268359417
-0.29760000000000003,-1.3045052896055502
-0.29860000000000003,-1.3101641348050104
-0.29960000000000003,-1.3146912109645787
-0.30060000000000003,-1.3203500561640389
-0.30160000000000003,-1.3257259591035258
-0.30260000000000004,-1.3301115641331076
-0.30360000000000004,-1.335345995942608
-0.30460000000000004,-1.3415707256620142
-0.30560000000000004,-1.346805157471515
-0.30660000000000004,-1.3518981181510292
-0.30760000000000004,-1.3579813767404485
-0.30860000000000004,-1.3640646353298684
-0.30960000000000004,-1.369582009399342
-0.31060000000000004,-1.3750993834688159
-0.31160000000000004,-1.3806167575382893
-0.31260000000000004,-1.3868414872576953
-0.31360000000000005,-1.3922173901971826
-0.31460000000000005,-1.3985835910465754
-0.31560000000000005,-1.4048083207659814
-0.31660000000000005,-1.4108915793554009
-0.31760000000000005,-1.4161260111649017
-0.31860000000000005,-1.421784856364362
-0.31960000000000005,-1.427443701563822
-0.32060000000000005,-1.4345172580631471
-0.32160000000000005,-1.4401761032626073
-0.32260000000000005,-1.4458349484620676
-0.32360000000000005,-1.4514937936615278
-0.32460000000000006,-1.4585673501608527
-0.32560000000000006,-1.4670556179600431
-0.32660000000000006,-1.471299751859638
-0.32760000000000006,-1.4769585970590984
-0.32860000000000006,-1.4826174422585585
-0.32960000000000006,-1.4882762874580184
-0.33060000000000006,-1.4939351326574788
-0.33160000000000006,-1.501008689156804
-0.33260000000000006,-1.506667534356264
-0.33360000000000006,-1.512326379555724
-0.33460000000000006,-1.5179852247551844
-0.33560000000000006,-1.5236440699546445
-0.33660000000000007,-1.5293029151541047
-0.33760000000000007,-1.5349617603535646
-0.33860000000000007,-1.54203531685289
-0.33960000000000007,-1.546279450752485
-0.34060000000000007,-1.5519382959519452
-0.34160000000000007,-1.5590118524512704
-0.34260000000000007,-1.5646706976507305
-0.34360000000000007,-1.5703295428501907
-0.3446000000000001,-1.5759883880496508
-0.3456000000000001,-1.580232521949246
-0.3466000000000001,-1.584476655848841
-0.34759999999999996,-1.5901355010483011
-0.3486000000000001,-1.5972090575476263
-0.34959999999999997,-1.6014531914472214
-0.3506000000000001,-1.6056973253468165
-0.35159999999999997,-1.614185593146007
-0.3526000000000001,-1.6198444383454669
-0.35359999999999997,-1.6255032835449272
-0.3546000000000001,-1.6311621287443874
-0.35559999999999997,-1.6368209739438475
-0.3566000000000001,-1.6424798191433077
-0.3576,-1.6467239530429028
-0.3586000000000001,-1.6523827982423631
-0.3596,-1.656626932141958
-0.3606000000000001,-1.6622857773414181
-0.3616,-1.6665299112410132
-0.3626000000000001,-1.6693593338407433
-0.3636,-1.6736034677403384
-0.3646000000000001,-1.6792623129397986
-0.3656,-1.6849211581392587
-0.3666000000000001,-1.6891652920388538
-0.3676,-1.694824137238314
-0.3686000000000001,-1.6990682711379093
-0.3696,-1.7061418276372344
-0.3706000000000001,-1.7118006728366943
-0.3716,-1.7174595180361545
-0.3726000000000001,-1.7202889406358846
-0.3736,-1.7259477858353447
-0.3746000000000001,-1.7301919197349398
-0.3756,-1.7358507649344
-0.3766000000000001,-1.7400948988339953
-0.3776,-1.7443390327335901
-0.3786000000000001,-1.7499978779330503
-0.3796,-1.7542420118326456
-0.3806000000000001,-1.7584861457322407
-0.3816,-1.7627302796318356
-0.3826000000000001,-1.7655597022315657
-0.3836,-1.769803836131161
-0.3846000000000001,-1.774047970030756
-0.3856,-1.779706815230216
-0.3866000000000001,-1.7839509491298113
-0.3876,-1.7896097943292715
-0.3886000000000001,-1.7952686395287314
-0.3896,-1.8009274847281918
-0.3906000000000001,-1.8051716186277869
-0.3916,-1.8094157525273817
-0.3926000000000001,-1.813659886426977
-0.3936,-1.8179040203265722
-0.3946000000000001,-1.822148154226167
-0.3956,-1.8263922881257622
-0.3966000000000001,-1.8320511333252225
-0.3976,-1.8362952672248178
-0.3986000000000001,-1.8391246898245475
-0.3996,-1.8447835350240078
-0.4006000000000001,-1.849027668923603
-0.4016,-1.8546865141230628
-0.4026000000000001,-1.8617600706223882
-0.4036,-1.8674189158218486
-0.4046000000000001,-1.8730777610213083
-0.4056,-1.8773218949209036
-0.40660000000000013,-1.8815660288204987
-0.4076,-1.8872248740199586
-0.40860000000000013,-1.894298430519284
-0.4096,-1.9013719870186092
-0.41060000000000013,-1.9098602548177994
-0.4116,-1.9169338113171246
-0.41260000000000013,-1.92400736781645
-0.4136,-1.9310809243157752
-0.41460000000000014,-1.9381544808151003
-0.4156,-1.9452280373144257
-0.41660000000000014,-1.9494721712140204
-0.4176,-1.9565457277133458
-0.41860000000000014,-1.9650339955125358
-0.41960000000000003,-1.9749369746115912
-0.42060000000000014,-1.9876693763103765
-0.42160000000000003,-1.9961576441095665
-0.42260000000000014,-2.004645911908757
-0.42360000000000003,-2.014548891007812
-0.42460000000000014,-2.0258665814067327
-0.42560000000000003,-2.0357695605057877
-0.42660000000000015,-2.044257828304978
-0.42760000000000004,-2.051331384804303
-0.42860000000000015,-2.0598196526034935
-0.42960000000000004,-2.0697226317025486
-0.43060000000000015,-2.082455033401334
-0.43160000000000004,-2.0937727238002544
-0.43260000000000015,-2.1065051254990395
-0.43360000000000004,-2.1192375271978254
-0.43460000000000015,-2.133384640196476
-0.43560000000000004,-2.1475317531951257
-0.43660000000000015,-2.158849443594046
-0.43760000000000004,-2.1701671339929662
-0.43860000000000016,-2.1828995356917518
-0.43960000000000005,-2.1956319373905373
-0.44060000000000016,-2.2097790503891876
-0.44160000000000005,-2.2239261633878376
-0.44260000000000016,-2.2394879876863527
-0.44360000000000005,-2.2550498119848683
-0.44460000000000016,-2.2706116362833835
-0.44560000000000005,-2.286173460581899
-0.44660000000000016,-2.30314999618028
-0.44760000000000005,-2.3272000882779853
-0.44860000000000017,-2.3455913351762305
-0.44960000000000006,-2.362567870774611
