May 4, 2025   08:39:18
Cyclic Voltammetry
File: c:/users/guazh/data/banditlqround7_x0exp1108_r5/2025-04-30-exp1236\exp1236-2025-05-04t08_32_10-arkoh\exp1236_cv_sr_400mvs_efin_-1400mv.bin
Data Source:  Experiment
Instrument Model:  CHI760E
Header: CV ran at 400 mVs
Note: 

Init E (V) = -1
High E (V) = -1
Low E (V) = -1.4
Final E (V) = -1
Init P/N = N
Scan Rate (V/s) = 0.4
Segment = 3
Sample Interval (V) = 0.001
Quiet Time (sec) = 2
Sensitivity (A/V) = 0.01
Comp R (ohm) = 0.9

Results:

Channel 1:
Segment 1:

Segment 2:

Segment 3:

Potential/V, Current/A

-1.000, 2.221e-4
-1.001, 4.441e-4
-1.002, 6.075e-4
-1.003, 7.432e-4
-1.004, 8.603e-4
-1.005, 9.498e-4
-1.006, 1.018e-3
-1.007, 1.070e-3
-1.008, 1.122e-3
-1.009, 1.181e-3
-1.010, 1.233e-3
-1.011, 1.283e-3
-1.012, 1.323e-3
-1.013, 1.347e-3
-1.014, 1.369e-3
-1.015, 1.394e-3
-1.016, 1.428e-3
-1.017, 1.462e-3
-1.018, 1.486e-3
-1.019, 1.502e-3
-1.020, 1.514e-3
-1.021, 1.526e-3
-1.022, 1.542e-3
-1.023, 1.569e-3
-1.024, 1.597e-3
-1.025, 1.613e-3
-1.026, 1.619e-3
-1.027, 1.619e-3
-1.028, 1.625e-3
-1.029, 1.637e-3
-1.030, 1.659e-3
-1.031, 1.677e-3
-1.032, 1.687e-3
-1.033, 1.690e-3
-1.034, 1.687e-3
-1.035, 1.690e-3
-1.036, 1.708e-3
-1.037, 1.724e-3
-1.038, 1.739e-3
-1.039, 1.742e-3
-1.040, 1.739e-3
-1.041, 1.742e-3
-1.042, 1.748e-3
-1.043, 1.767e-3
-1.044, 1.785e-3
-1.045, 1.798e-3
-1.046, 1.798e-3
-1.047, 1.791e-3
-1.048, 1.791e-3
-1.049, 1.804e-3
-1.050, 1.819e-3
-1.051, 1.832e-3
-1.052, 1.841e-3
-1.053, 1.835e-3
-1.054, 1.835e-3
-1.055, 1.835e-3
-1.056, 1.844e-3
-1.057, 1.862e-3
-1.058, 1.872e-3
-1.059, 1.872e-3
-1.060, 1.872e-3
-1.061, 1.869e-3
-1.062, 1.878e-3
-1.063, 1.893e-3
-1.064, 1.915e-3
-1.065, 1.924e-3
-1.066, 1.927e-3
-1.067, 1.921e-3
-1.068, 1.924e-3
-1.069, 1.933e-3
-1.070, 1.949e-3
-1.071, 1.964e-3
-1.072, 1.970e-3
-1.073, 1.967e-3
-1.074, 1.961e-3
-1.075, 1.967e-3
-1.076, 1.980e-3
-1.077, 1.998e-3
-1.078, 2.007e-3
-1.079, 2.010e-3
-1.080, 2.007e-3
-1.081, 2.010e-3
-1.082, 2.017e-3
-1.083, 2.035e-3
-1.084, 2.057e-3
-1.085, 2.069e-3
-1.086, 2.069e-3
-1.087, 2.066e-3
-1.088, 2.069e-3
-1.089, 2.081e-3
-1.090, 2.100e-3
-1.091, 2.118e-3
-1.092, 2.128e-3
-1.093, 2.128e-3
-1.094, 2.128e-3
-1.095, 2.134e-3
-1.096, 2.146e-3
-1.097, 2.161e-3
-1.098, 2.177e-3
-1.099, 2.180e-3
-1.100, 2.177e-3
-1.101, 2.174e-3
-1.102, 2.183e-3
-1.103, 2.198e-3
-1.104, 2.217e-3
-1.105, 2.229e-3
-1.106, 2.229e-3
-1.107, 2.223e-3
-1.108, 2.229e-3
-1.109, 2.242e-3
-1.110, 2.260e-3
-1.111, 2.282e-3
-1.112, 2.291e-3
-1.113, 2.294e-3
-1.114, 2.297e-3
-1.115, 2.306e-3
-1.116, 2.325e-3
-1.117, 2.349e-3
-1.118, 2.368e-3
-1.119, 2.380e-3
-1.120, 2.386e-3
-1.121, 2.393e-3
-1.122, 2.405e-3
-1.123, 2.423e-3
-1.124, 2.451e-3
-1.125, 2.464e-3
-1.126, 2.470e-3
-1.127, 2.470e-3
-1.128, 2.476e-3
-1.129, 2.491e-3
-1.130, 2.510e-3
-1.131, 2.528e-3
-1.132, 2.538e-3
-1.133, 2.541e-3
-1.134, 2.544e-3
-1.135, 2.556e-3
-1.136, 2.575e-3
-1.137, 2.599e-3
-1.138, 2.615e-3
-1.139, 2.627e-3
-1.140, 2.633e-3
-1.141, 2.639e-3
-1.142, 2.658e-3
-1.143, 2.682e-3
-1.144, 2.707e-3
-1.145, 2.729e-3
-1.146, 2.735e-3
-1.147, 2.741e-3
-1.148, 2.753e-3
-1.149, 2.772e-3
-1.150, 2.797e-3
-1.151, 2.818e-3
-1.152, 2.834e-3
-1.153, 2.843e-3
-1.154, 2.846e-3
-1.155, 2.861e-3
-1.156, 2.883e-3
-1.157, 2.911e-3
-1.158, 2.932e-3
-1.159, 2.941e-3
-1.160, 2.948e-3
-1.161, 2.957e-3
-1.162, 2.975e-3
-1.163, 3.000e-3
-1.164, 3.028e-3
-1.165, 3.046e-3
-1.166, 3.056e-3
-1.167, 3.062e-3
-1.168, 3.071e-3
-1.169, 3.089e-3
-1.170, 3.117e-3
-1.171, 3.145e-3
-1.172, 3.160e-3
-1.173, 3.170e-3
-1.174, 3.179e-3
-1.175, 3.194e-3
-1.176, 3.219e-3
-1.177, 3.247e-3
-1.178, 3.271e-3
-1.179, 3.284e-3
-1.180, 3.293e-3
-1.181, 3.302e-3
-1.182, 3.324e-3
-1.183, 3.355e-3
-1.184, 3.385e-3
-1.185, 3.410e-3
-1.186, 3.425e-3
-1.187, 3.435e-3
-1.188, 3.450e-3
-1.189, 3.472e-3
-1.190, 3.506e-3
-1.191, 3.533e-3
-1.192, 3.552e-3
-1.193, 3.564e-3
-1.194, 3.577e-3
-1.195, 3.595e-3
-1.196, 3.623e-3
-1.197, 3.651e-3
-1.198, 3.678e-3
-1.199, 3.694e-3
-1.200, 3.703e-3
-1.201, 3.721e-3
-1.202, 3.743e-3
-1.203, 3.777e-3
-1.204, 3.814e-3
-1.205, 3.842e-3
-1.206, 3.860e-3
-1.207, 3.876e-3
-1.208, 3.891e-3
-1.209, 3.919e-3
-1.210, 3.950e-3
-1.211, 3.984e-3
-1.212, 4.014e-3
-1.213, 4.030e-3
-1.214, 4.042e-3
-1.215, 4.067e-3
-1.216, 4.088e-3
-1.217, 4.119e-3
-1.218, 4.144e-3
-1.219, 4.156e-3
-1.220, 4.172e-3
-1.221, 4.184e-3
-1.222, 4.206e-3
-1.223, 4.233e-3
-1.224, 4.267e-3
-1.225, 4.295e-3
-1.226, 4.313e-3
-1.227, 4.332e-3
-1.228, 4.350e-3
-1.229, 4.384e-3
-1.230, 4.415e-3
-1.231, 4.446e-3
-1.232, 4.471e-3
-1.233, 4.486e-3
-1.234, 4.498e-3
-1.235, 4.523e-3
-1.236, 4.554e-3
-1.237, 4.591e-3
-1.238, 4.619e-3
-1.239, 4.640e-3
-1.240, 4.653e-3
-1.241, 4.674e-3
-1.242, 4.696e-3
-1.243, 4.730e-3
-1.244, 4.767e-3
-1.245, 4.794e-3
-1.246, 4.816e-3
-1.247, 4.838e-3
-1.248, 4.859e-3
-1.249, 4.899e-3
-1.250, 4.936e-3
-1.251, 4.976e-3
-1.252, 5.010e-3
-1.253, 5.032e-3
-1.254, 5.053e-3
-1.255, 5.078e-3
-1.256, 5.112e-3
-1.257, 5.149e-3
-1.258, 5.177e-3
-1.259, 5.201e-3
-1.260, 5.223e-3
-1.261, 5.245e-3
-1.262, 5.275e-3
-1.263, 5.315e-3
-1.264, 5.356e-3
-1.265, 5.393e-3
-1.266, 5.414e-3
-1.267, 5.436e-3
-1.268, 5.460e-3
-1.269, 5.494e-3
-1.270, 5.534e-3
-1.271, 5.574e-3
-1.272, 5.602e-3
-1.273, 5.627e-3
-1.274, 5.645e-3
-1.275, 5.676e-3
-1.276, 5.722e-3
-1.277, 5.766e-3
-1.278, 5.809e-3
-1.279, 5.833e-3
-1.280, 5.858e-3
-1.281, 5.886e-3
-1.282, 5.917e-3
-1.283, 5.960e-3
-1.284, 6.006e-3
-1.285, 6.043e-3
-1.286, 6.071e-3
-1.287, 6.092e-3
-1.288, 6.120e-3
-1.289, 6.160e-3
-1.290, 6.206e-3
-1.291, 6.250e-3
-1.292, 6.290e-3
-1.293, 6.317e-3
-1.294, 6.345e-3
-1.295, 6.382e-3
-1.296, 6.428e-3
-1.297, 6.478e-3
-1.298, 6.518e-3
-1.299, 6.552e-3
-1.300, 6.580e-3
-1.301, 6.607e-3
-1.302, 6.647e-3
-1.303, 6.694e-3
-1.304, 6.743e-3
-1.305, 6.786e-3
-1.306, 6.823e-3
-1.307, 6.851e-3
-1.308, 6.885e-3
-1.309, 6.925e-3
-1.310, 6.971e-3
-1.311, 7.017e-3
-1.312, 7.057e-3
-1.313, 7.091e-3
-1.314, 7.122e-3
-1.315, 7.165e-3
-1.316, 7.218e-3
-1.317, 7.267e-3
-1.318, 7.316e-3
-1.319, 7.353e-3
-1.320, 7.384e-3
-1.321, 7.421e-3
-1.322, 7.467e-3
-1.323, 7.520e-3
-1.324, 7.578e-3
-1.325, 7.631e-3
-1.326, 7.674e-3
-1.327, 7.714e-3
-1.328, 7.757e-3
-1.329, 7.813e-3
-1.330, 7.874e-3
-1.331, 7.933e-3
-1.332, 7.985e-3
-1.333, 8.025e-3
-1.334, 8.066e-3
-1.335, 8.112e-3
-1.336, 8.170e-3
-1.337, 8.235e-3
-1.338, 8.284e-3
-1.339, 8.334e-3
-1.340, 8.377e-3
-1.341, 8.420e-3
-1.342, 8.473e-3
-1.343, 8.537e-3
-1.344, 8.605e-3
-1.345, 8.667e-3
-1.346, 8.722e-3
-1.347, 8.775e-3
-1.348, 8.836e-3
-1.349, 8.901e-3
-1.350, 8.969e-3
-1.351, 9.037e-3
-1.352, 9.092e-3
-1.353, 9.145e-3
-1.354, 9.200e-3
-1.355, 9.259e-3
-1.356, 9.330e-3
-1.357, 9.401e-3
-1.358, 9.465e-3
-1.359, 9.524e-3
-1.360, 9.579e-3
-1.361, 9.638e-3
-1.362, 9.703e-3
-1.363, 9.780e-3
-1.364, 9.863e-3
-1.365, 9.937e-3
-1.366, 1.000e-2
-1.367, 1.007e-2
-1.368, 1.013e-2
-1.369, 1.020e-2
-1.370, 1.027e-2
-1.371, 1.035e-2
-1.372, 1.043e-2
-1.373, 1.048e-2
-1.374, 1.053e-2
-1.375, 1.059e-2
-1.376, 1.066e-2
-1.377, 1.073e-2
-1.378, 1.081e-2
-1.379, 1.088e-2
-1.380, 1.095e-2
-1.381, 1.102e-2
-1.382, 1.110e-2
-1.383, 1.120e-2
-1.384, 1.130e-2
-1.385, 1.140e-2
-1.386, 1.148e-2
-1.387, 1.157e-2
-1.388, 1.166e-2
-1.389, 1.177e-2
-1.390, 1.188e-2
-1.391, 1.198e-2
-1.392, 1.208e-2
-1.393, 1.217e-2
-1.394, 1.225e-2
-1.395, 1.234e-2
-1.396, 1.244e-2
-1.397, 1.254e-2
-1.398, 1.264e-2
-1.399, 1.272e-2
-1.400, 1.260e-2
-1.399, 1.219e-2
-1.398, 1.188e-2
-1.397, 1.161e-2
-1.396, 1.138e-2
-1.395, 1.116e-2
-1.394, 1.094e-2
-1.393, 1.072e-2
-1.392, 1.053e-2
-1.391, 1.034e-2
-1.390, 1.017e-2
-1.389, 9.999e-3
-1.388, 9.823e-3
-1.387, 9.656e-3
-1.386, 9.484e-3
-1.385, 9.327e-3
-1.384, 9.179e-3
-1.383, 9.031e-3
-1.382, 8.880e-3
-1.381, 8.722e-3
-1.380, 8.562e-3
-1.379, 8.414e-3
-1.378, 8.272e-3
-1.377, 8.143e-3
-1.376, 8.016e-3
-1.375, 7.878e-3
-1.374, 7.736e-3
-1.373, 7.591e-3
-1.372, 7.455e-3
-1.371, 7.329e-3
-1.370, 7.212e-3
-1.369, 7.091e-3
-1.368, 6.962e-3
-1.367, 6.829e-3
-1.366, 6.697e-3
-1.365, 6.576e-3
-1.364, 6.462e-3
-1.363, 6.354e-3
-1.362, 6.240e-3
-1.361, 6.120e-3
-1.360, 6.000e-3
-1.359, 5.883e-3
-1.358, 5.772e-3
-1.357, 5.670e-3
-1.356, 5.571e-3
-1.355, 5.467e-3
-1.354, 5.349e-3
-1.353, 5.229e-3
-1.352, 5.115e-3
-1.351, 5.016e-3
-1.350, 4.924e-3
-1.349, 4.825e-3
-1.348, 4.723e-3
-1.347, 4.616e-3
-1.346, 4.508e-3
-1.345, 4.409e-3
-1.344, 4.323e-3
-1.343, 4.236e-3
-1.342, 4.147e-3
-1.341, 4.051e-3
-1.340, 3.947e-3
-1.339, 3.854e-3
-1.338, 3.771e-3
-1.337, 3.694e-3
-1.336, 3.620e-3
-1.335, 3.543e-3
-1.334, 3.447e-3
-1.333, 3.355e-3
-1.332, 3.265e-3
-1.331, 3.188e-3
-1.330, 3.117e-3
-1.329, 3.043e-3
-1.328, 2.966e-3
-1.327, 2.880e-3
-1.326, 2.790e-3
-1.325, 2.713e-3
-1.324, 2.642e-3
-1.323, 2.578e-3
-1.322, 2.507e-3
-1.321, 2.423e-3
-1.320, 2.340e-3
-1.319, 2.260e-3
-1.318, 2.192e-3
-1.317, 2.131e-3
-1.316, 2.072e-3
-1.315, 2.007e-3
-1.314, 1.936e-3
-1.313, 1.856e-3
-1.312, 1.788e-3
-1.311, 1.727e-3
-1.310, 1.671e-3
-1.309, 1.616e-3
-1.308, 1.548e-3
-1.307, 1.480e-3
-1.306, 1.409e-3
-1.305, 1.347e-3
-1.304, 1.298e-3
-1.303, 1.246e-3
-1.302, 1.190e-3
-1.301, 1.129e-3
-1.300, 1.058e-3
-1.299, 9.960e-4
-1.298, 9.405e-4
-1.297, 8.881e-4
-1.296, 8.449e-4
-1.295, 7.925e-4
-1.294, 7.339e-4
-1.293, 6.692e-4
-1.292, 6.137e-4
-1.291, 5.644e-4
-1.290, 5.243e-4
-1.289, 4.811e-4
-1.288, 4.318e-4
-1.287, 3.701e-4
-1.286, 3.146e-4
-1.285, 2.653e-4
-1.284, 2.191e-4
-1.283, 1.790e-4
-1.282, 1.358e-4
-1.281, 8.340e-5
-1.280, 2.482e-5
-1.279, -3.068e-5
-1.278, -7.384e-5
-1.277, -1.108e-4
-1.276, -1.417e-4
-1.275, -1.817e-4
-1.274, -2.311e-4
-1.273, -2.835e-4
-1.272, -3.267e-4
-1.271, -3.575e-4
-1.270, -3.852e-4
-1.269, -4.161e-4
-1.268, -4.561e-4
-1.267, -5.024e-4
-1.266, -5.456e-4
-1.265, -5.826e-4
-1.264, -6.103e-4
-1.263, -6.380e-4
-1.262, -6.689e-4
-1.261, -7.120e-4
-1.260, -7.614e-4
-1.259, -8.045e-4
-1.258, -8.415e-4
-1.257, -8.693e-4
-1.256, -8.909e-4
-1.255, -9.279e-4
-1.254, -9.710e-4
-1.253, -1.014e-3
-1.252, -1.051e-3
-1.251, -1.079e-3
-1.250, -1.101e-3
-1.249, -1.125e-3
-1.248, -1.156e-3
-1.247, -1.193e-3
-1.246, -1.230e-3
-1.245, -1.258e-3
-1.244, -1.276e-3
-1.243, -1.292e-3
-1.242, -1.313e-3
-1.241, -1.347e-3
-1.240, -1.384e-3
-1.239, -1.421e-3
-1.238, -1.449e-3
-1.237, -1.464e-3
-1.236, -1.486e-3
-1.235, -1.507e-3
-1.234, -1.541e-3
-1.233, -1.581e-3
-1.232, -1.609e-3
-1.231, -1.631e-3
-1.230, -1.649e-3
-1.229, -1.674e-3
-1.228, -1.705e-3
-1.227, -1.739e-3
-1.226, -1.773e-3
-1.225, -1.803e-3
-1.224, -1.819e-3
-1.223, -1.831e-3
-1.222, -1.850e-3
-1.221, -1.881e-3
-1.220, -1.918e-3
-1.219, -1.945e-3
-1.218, -1.967e-3
-1.217, -1.988e-3
-1.216, -1.998e-3
-1.215, -2.022e-3
-1.214, -2.053e-3
-1.213, -2.084e-3
-1.212, -2.118e-3
-1.211, -2.133e-3
-1.210, -2.149e-3
-1.209, -2.167e-3
-1.208, -2.195e-3
-1.207, -2.226e-3
-1.206, -2.260e-3
-1.205, -2.281e-3
-1.204, -2.297e-3
-1.203, -2.306e-3
-1.202, -2.321e-3
-1.201, -2.346e-3
-1.200, -2.377e-3
-1.199, -2.405e-3
-1.198, -2.420e-3
-1.197, -2.436e-3
-1.196, -2.445e-3
-1.195, -2.460e-3
-1.194, -2.488e-3
-1.193, -2.519e-3
-1.192, -2.543e-3
-1.191, -2.562e-3
-1.190, -2.574e-3
-1.189, -2.590e-3
-1.188, -2.614e-3
-1.187, -2.645e-3
-1.186, -2.676e-3
-1.185, -2.701e-3
-1.184, -2.710e-3
-1.183, -2.722e-3
-1.182, -2.735e-3
-1.181, -2.759e-3
-1.180, -2.793e-3
-1.179, -2.815e-3
-1.178, -2.833e-3
-1.177, -2.849e-3
-1.176, -2.858e-3
-1.175, -2.876e-3
-1.174, -2.901e-3
-1.173, -2.929e-3
-1.172, -2.953e-3
-1.171, -2.966e-3
-1.170, -2.978e-3
-1.169, -2.997e-3
-1.168, -3.021e-3
-1.167, -3.055e-3
-1.166, -3.083e-3
-1.165, -3.108e-3
-1.164, -3.126e-3
-1.163, -3.129e-3
-1.162, -3.151e-3
-1.161, -3.172e-3
-1.160, -3.197e-3
-1.159, -3.222e-3
-1.158, -3.240e-3
-1.157, -3.249e-3
-1.156, -3.259e-3
-1.155, -3.277e-3
-1.154, -3.302e-3
-1.153, -3.330e-3
-1.152, -3.351e-3
-1.151, -3.373e-3
-1.150, -3.388e-3
-1.149, -3.397e-3
-1.148, -3.419e-3
-1.147, -3.447e-3
-1.146, -3.475e-3
-1.145, -3.496e-3
-1.144, -3.508e-3
-1.143, -3.521e-3
-1.142, -3.536e-3
-1.141, -3.561e-3
-1.140, -3.592e-3
-1.139, -3.619e-3
-1.138, -3.638e-3
-1.137, -3.653e-3
-1.136, -3.663e-3
-1.135, -3.681e-3
-1.134, -3.706e-3
-1.133, -3.727e-3
-1.132, -3.746e-3
-1.131, -3.755e-3
-1.130, -3.758e-3
-1.129, -3.770e-3
-1.128, -3.789e-3
-1.127, -3.820e-3
-1.126, -3.844e-3
-1.125, -3.866e-3
-1.124, -3.878e-3
-1.123, -3.888e-3
-1.122, -3.903e-3
-1.121, -3.928e-3
-1.120, -3.949e-3
-1.119, -3.974e-3
-1.118, -3.989e-3
-1.117, -3.992e-3
-1.116, -4.002e-3
-1.115, -4.014e-3
-1.114, -4.033e-3
-1.113, -4.057e-3
-1.112, -4.073e-3
-1.111, -4.082e-3
-1.110, -4.091e-3
-1.109, -4.103e-3
-1.108, -4.122e-3
-1.107, -4.147e-3
-1.106, -4.168e-3
-1.105, -4.184e-3
-1.104, -4.184e-3
-1.103, -4.190e-3
-1.102, -4.196e-3
-1.101, -4.211e-3
-1.100, -4.236e-3
-1.099, -4.255e-3
-1.098, -4.267e-3
-1.097, -4.276e-3
-1.096, -4.276e-3
-1.095, -4.288e-3
-1.094, -4.310e-3
-1.093, -4.329e-3
-1.092, -4.347e-3
-1.091, -4.350e-3
-1.090, -4.350e-3
-1.089, -4.356e-3
-1.088, -4.369e-3
-1.087, -4.387e-3
-1.086, -4.406e-3
-1.085, -4.415e-3
-1.084, -4.418e-3
-1.083, -4.418e-3
-1.082, -4.424e-3
-1.081, -4.436e-3
-1.080, -4.455e-3
-1.079, -4.467e-3
-1.078, -4.473e-3
-1.077, -4.473e-3
-1.076, -4.473e-3
-1.075, -4.483e-3
-1.074, -4.498e-3
-1.073, -4.517e-3
-1.072, -4.526e-3
-1.071, -4.529e-3
-1.070, -4.526e-3
-1.069, -4.526e-3
-1.068, -4.538e-3
-1.067, -4.554e-3
-1.066, -4.572e-3
-1.065, -4.584e-3
-1.064, -4.581e-3
-1.063, -4.578e-3
-1.062, -4.581e-3
-1.061, -4.594e-3
-1.060, -4.606e-3
-1.059, -4.612e-3
-1.058, -4.612e-3
-1.057, -4.606e-3
-1.056, -4.600e-3
-1.055, -4.600e-3
-1.054, -4.609e-3
-1.053, -4.618e-3
-1.052, -4.621e-3
-1.051, -4.612e-3
-1.050, -4.603e-3
-1.049, -4.600e-3
-1.048, -4.603e-3
-1.047, -4.609e-3
-1.046, -4.615e-3
-1.045, -4.615e-3
-1.044, -4.609e-3
-1.043, -4.594e-3
-1.042, -4.588e-3
-1.041, -4.594e-3
-1.040, -4.597e-3
-1.039, -4.600e-3
-1.038, -4.591e-3
-1.037, -4.575e-3
-1.036, -4.563e-3
-1.035, -4.554e-3
-1.034, -4.554e-3
-1.033, -4.560e-3
-1.032, -4.557e-3
-1.031, -4.547e-3
-1.030, -4.529e-3
-1.029, -4.517e-3
-1.028, -4.514e-3
-1.027, -4.517e-3
-1.026, -4.517e-3
-1.025, -4.507e-3
-1.024, -4.492e-3
-1.023, -4.470e-3
-1.022, -4.461e-3
-1.021, -4.458e-3
-1.020, -4.461e-3
-1.019, -4.458e-3
-1.018, -4.446e-3
-1.017, -4.430e-3
-1.016, -4.412e-3
-1.015, -4.399e-3
-1.014, -4.396e-3
-1.013, -4.390e-3
-1.012, -4.381e-3
-1.011, -4.359e-3
-1.010, -4.329e-3
-1.009, -4.307e-3
-1.008, -4.292e-3
-1.007, -4.285e-3
-1.006, -4.279e-3
-1.005, -4.270e-3
-1.004, -4.255e-3
-1.003, -4.230e-3
-1.002, -4.214e-3
-1.001, -4.211e-3
