Sept. 9, 2024   09:00:56
Cyclic Voltammetry
File: c:/users/guazh/data/20240903_batch_252_500/2024-09-03-exp305\exp305-2024-09-09t08_45_07-arkoh\exp305_cv_sr_800mvs_efin_-1600mv.bin
Data Source:  Experiment
Instrument Model:  CHI760E
Header: CV ran at 800 mVs
Note: 

Init E (V) = -1
High E (V) = -1
Low E (V) = -1.6
Final E (V) = -1
Init P/N = N
Scan Rate (V/s) = 0.8
Segment = 3
Sample Interval (V) = 0.001
Quiet Time (sec) = 2
Sensitivity (A/V) = 0.01
Comp R (ohm) = 1.7

Results:

Channel 1:
Segment 1:

Segment 2:

Segment 3:

Potential/V, Current/A

-1.000, 3.407e-5
-1.001, 9.882e-5
-1.002, 1.296e-4
-1.003, 1.451e-4
-1.004, 1.543e-4
-1.005, 1.605e-4
-1.006, 1.636e-4
-1.007, 1.666e-4
-1.008, 1.697e-4
-1.009, 1.697e-4
-1.010, 1.697e-4
-1.011, 1.728e-4
-1.012, 1.728e-4
-1.013, 1.759e-4
-1.014, 1.759e-4
-1.015, 1.759e-4
-1.016, 1.759e-4
-1.017, 1.790e-4
-1.018, 1.759e-4
-1.019, 1.790e-4
-1.020, 1.759e-4
-1.021, 1.790e-4
-1.022, 1.790e-4
-1.023, 1.790e-4
-1.024, 1.821e-4
-1.025, 1.821e-4
-1.026, 1.821e-4
-1.027, 1.821e-4
-1.028, 1.821e-4
-1.029, 1.821e-4
-1.030, 1.821e-4
-1.031, 1.821e-4
-1.032, 1.821e-4
-1.033, 1.821e-4
-1.034, 1.821e-4
-1.035, 1.821e-4
-1.036, 1.821e-4
-1.037, 1.821e-4
-1.038, 1.851e-4
-1.039, 1.821e-4
-1.040, 1.821e-4
-1.041, 1.851e-4
-1.042, 1.851e-4
-1.043, 1.851e-4
-1.044, 1.851e-4
-1.045, 1.851e-4
-1.046, 1.851e-4
-1.047, 1.851e-4
-1.048, 1.851e-4
-1.049, 1.851e-4
-1.050, 1.851e-4
-1.051, 1.851e-4
-1.052, 1.851e-4
-1.053, 1.882e-4
-1.054, 1.851e-4
-1.055, 1.851e-4
-1.056, 1.851e-4
-1.057, 1.882e-4
-1.058, 1.851e-4
-1.059, 1.851e-4
-1.060, 1.851e-4
-1.061, 1.851e-4
-1.062, 1.851e-4
-1.063, 1.851e-4
-1.064, 1.851e-4
-1.065, 1.882e-4
-1.066, 1.851e-4
-1.067, 1.851e-4
-1.068, 1.851e-4
-1.069, 1.882e-4
-1.070, 1.882e-4
-1.071, 1.851e-4
-1.072, 1.851e-4
-1.073, 1.851e-4
-1.074, 1.851e-4
-1.075, 1.882e-4
-1.076, 1.882e-4
-1.077, 1.851e-4
-1.078, 1.882e-4
-1.079, 1.851e-4
-1.080, 1.882e-4
-1.081, 1.882e-4
-1.082, 1.882e-4
-1.083, 1.882e-4
-1.084, 1.882e-4
-1.085, 1.882e-4
-1.086, 1.882e-4
-1.087, 1.882e-4
-1.088, 1.882e-4
-1.089, 1.882e-4
-1.090, 1.882e-4
-1.091, 1.882e-4
-1.092, 1.882e-4
-1.093, 1.913e-4
-1.094, 1.913e-4
-1.095, 1.882e-4
-1.096, 1.882e-4
-1.097, 1.882e-4
-1.098, 1.882e-4
-1.099, 1.913e-4
-1.100, 1.882e-4
-1.101, 1.882e-4
-1.102, 1.882e-4
-1.103, 1.882e-4
-1.104, 1.882e-4
-1.105, 1.913e-4
-1.106, 1.913e-4
-1.107, 1.882e-4
-1.108, 1.913e-4
-1.109, 1.913e-4
-1.110, 1.913e-4
-1.111, 1.882e-4
-1.112, 1.913e-4
-1.113, 1.882e-4
-1.114, 1.913e-4
-1.115, 1.913e-4
-1.116, 1.913e-4
-1.117, 1.882e-4
-1.118, 1.913e-4
-1.119, 1.913e-4
-1.120, 1.913e-4
-1.121, 1.913e-4
-1.122, 1.944e-4
-1.123, 1.913e-4
-1.124, 1.913e-4
-1.125, 1.913e-4
-1.126, 1.944e-4
-1.127, 1.913e-4
-1.128, 1.913e-4
-1.129, 1.913e-4
-1.130, 1.913e-4
-1.131, 1.944e-4
-1.132, 1.944e-4
-1.133, 1.944e-4
-1.134, 1.944e-4
-1.135, 1.944e-4
-1.136, 1.944e-4
-1.137, 1.975e-4
-1.138, 1.944e-4
-1.139, 1.944e-4
-1.140, 1.944e-4
-1.141, 1.944e-4
-1.142, 1.944e-4
-1.143, 1.944e-4
-1.144, 1.944e-4
-1.145, 1.944e-4
-1.146, 1.944e-4
-1.147, 1.975e-4
-1.148, 1.975e-4
-1.149, 1.975e-4
-1.150, 1.975e-4
-1.151, 1.975e-4
-1.152, 1.975e-4
-1.153, 1.944e-4
-1.154, 1.944e-4
-1.155, 1.944e-4
-1.156, 1.944e-4
-1.157, 1.944e-4
-1.158, 1.975e-4
-1.159, 1.944e-4
-1.160, 1.975e-4
-1.161, 1.975e-4
-1.162, 2.006e-4
-1.163, 1.975e-4
-1.164, 1.975e-4
-1.165, 2.006e-4
-1.166, 2.006e-4
-1.167, 2.006e-4
-1.168, 1.975e-4
-1.169, 2.006e-4
-1.170, 2.006e-4
-1.171, 2.036e-4
-1.172, 2.006e-4
-1.173, 2.036e-4
-1.174, 2.036e-4
-1.175, 2.036e-4
-1.176, 2.006e-4
-1.177, 2.036e-4
-1.178, 2.036e-4
-1.179, 2.036e-4
-1.180, 2.036e-4
-1.181, 2.036e-4
-1.182, 2.036e-4
-1.183, 2.036e-4
-1.184, 2.036e-4
-1.185, 2.067e-4
-1.186, 2.067e-4
-1.187, 2.067e-4
-1.188, 2.067e-4
-1.189, 2.067e-4
-1.190, 2.098e-4
-1.191, 2.067e-4
-1.192, 2.067e-4
-1.193, 2.067e-4
-1.194, 2.067e-4
-1.195, 2.067e-4
-1.196, 2.067e-4
-1.197, 2.067e-4
-1.198, 2.098e-4
-1.199, 2.098e-4
-1.200, 2.098e-4
-1.201, 2.129e-4
-1.202, 2.098e-4
-1.203, 2.129e-4
-1.204, 2.129e-4
-1.205, 2.129e-4
-1.206, 2.129e-4
-1.207, 2.129e-4
-1.208, 2.129e-4
-1.209, 2.129e-4
-1.210, 2.129e-4
-1.211, 2.160e-4
-1.212, 2.160e-4
-1.213, 2.191e-4
-1.214, 2.191e-4
-1.215, 2.160e-4
-1.216, 2.191e-4
-1.217, 2.191e-4
-1.218, 2.191e-4
-1.219, 2.191e-4
-1.220, 2.191e-4
-1.221, 2.191e-4
-1.222, 2.191e-4
-1.223, 2.221e-4
-1.224, 2.221e-4
-1.225, 2.221e-4
-1.226, 2.221e-4
-1.227, 2.221e-4
-1.228, 2.252e-4
-1.229, 2.283e-4
-1.230, 2.283e-4
-1.231, 2.252e-4
-1.232, 2.252e-4
-1.233, 2.252e-4
-1.234, 2.283e-4
-1.235, 2.252e-4
-1.236, 2.283e-4
-1.237, 2.283e-4
-1.238, 2.314e-4
-1.239, 2.314e-4
-1.240, 2.345e-4
-1.241, 2.345e-4
-1.242, 2.345e-4
-1.243, 2.345e-4
-1.244, 2.345e-4
-1.245, 2.345e-4
-1.246, 2.376e-4
-1.247, 2.376e-4
-1.248, 2.376e-4
-1.249, 2.376e-4
-1.250, 2.406e-4
-1.251, 2.406e-4
-1.252, 2.406e-4
-1.253, 2.437e-4
-1.254, 2.468e-4
-1.255, 2.437e-4
-1.256, 2.468e-4
-1.257, 2.499e-4
-1.258, 2.468e-4
-1.259, 2.499e-4
-1.260, 2.499e-4
-1.261, 2.499e-4
-1.262, 2.530e-4
-1.263, 2.530e-4
-1.264, 2.561e-4
-1.265, 2.561e-4
-1.266, 2.591e-4
-1.267, 2.591e-4
-1.268, 2.591e-4
-1.269, 2.622e-4
-1.270, 2.653e-4
-1.271, 2.622e-4
-1.272, 2.653e-4
-1.273, 2.653e-4
-1.274, 2.653e-4
-1.275, 2.684e-4
-1.276, 2.715e-4
-1.277, 2.715e-4
-1.278, 2.746e-4
-1.279, 2.776e-4
-1.280, 2.776e-4
-1.281, 2.776e-4
-1.282, 2.807e-4
-1.283, 2.838e-4
-1.284, 2.838e-4
-1.285, 2.838e-4
-1.286, 2.869e-4
-1.287, 2.900e-4
-1.288, 2.900e-4
-1.289, 2.931e-4
-1.290, 2.931e-4
-1.291, 2.961e-4
-1.292, 2.992e-4
-1.293, 3.023e-4
-1.294, 3.054e-4
-1.295, 3.054e-4
-1.296, 3.054e-4
-1.297, 3.115e-4
-1.298, 3.115e-4
-1.299, 3.146e-4
-1.300, 3.146e-4
-1.301, 3.177e-4
-1.302, 3.208e-4
-1.303, 3.239e-4
-1.304, 3.270e-4
-1.305, 3.300e-4
-1.306, 3.331e-4
-1.307, 3.362e-4
-1.308, 3.362e-4
-1.309, 3.393e-4
-1.310, 3.455e-4
-1.311, 3.455e-4
-1.312, 3.485e-4
-1.313, 3.485e-4
-1.314, 3.516e-4
-1.315, 3.578e-4
-1.316, 3.609e-4
-1.317, 3.609e-4
-1.318, 3.670e-4
-1.319, 3.701e-4
-1.320, 3.732e-4
-1.321, 3.794e-4
-1.322, 3.825e-4
-1.323, 3.855e-4
-1.324, 3.886e-4
-1.325, 3.917e-4
-1.326, 3.948e-4
-1.327, 3.979e-4
-1.328, 4.010e-4
-1.329, 4.040e-4
-1.330, 4.071e-4
-1.331, 4.164e-4
-1.332, 4.164e-4
-1.333, 4.225e-4
-1.334, 4.287e-4
-1.335, 4.318e-4
-1.336, 4.349e-4
-1.337, 4.410e-4
-1.338, 4.441e-4
-1.339, 4.472e-4
-1.340, 4.503e-4
-1.341, 4.565e-4
-1.342, 4.626e-4
-1.343, 4.688e-4
-1.344, 4.719e-4
-1.345, 4.780e-4
-1.346, 4.811e-4
-1.347, 4.873e-4
-1.348, 4.904e-4
-1.349, 4.965e-4
-1.350, 5.027e-4
-1.351, 5.058e-4
-1.352, 5.120e-4
-1.353, 5.150e-4
-1.354, 5.212e-4
-1.355, 5.274e-4
-1.356, 5.335e-4
-1.357, 5.366e-4
-1.358, 5.428e-4
-1.359, 5.489e-4
-1.360, 5.551e-4
-1.361, 5.613e-4
-1.362, 5.674e-4
-1.363, 5.736e-4
-1.364, 5.798e-4
-1.365, 5.859e-4
-1.366, 5.921e-4
-1.367, 6.014e-4
-1.368, 6.075e-4
-1.369, 6.137e-4
-1.370, 6.229e-4
-1.371, 6.291e-4
-1.372, 6.353e-4
-1.373, 6.445e-4
-1.374, 6.507e-4
-1.375, 6.599e-4
-1.376, 6.661e-4
-1.377, 6.754e-4
-1.378, 6.815e-4
-1.379, 6.877e-4
-1.380, 6.969e-4
-1.381, 7.031e-4
-1.382, 7.124e-4
-1.383, 7.185e-4
-1.384, 7.278e-4
-1.385, 7.370e-4
-1.386, 7.432e-4
-1.387, 7.524e-4
-1.388, 7.617e-4
-1.389, 7.679e-4
-1.390, 7.771e-4
-1.391, 7.863e-4
-1.392, 7.956e-4
-1.393, 8.018e-4
-1.394, 8.110e-4
-1.395, 8.203e-4
-1.396, 8.326e-4
-1.397, 8.418e-4
-1.398, 8.542e-4
-1.399, 8.634e-4
-1.400, 8.727e-4
-1.401, 8.850e-4
-1.402, 8.973e-4
-1.403, 9.066e-4
-1.404, 9.158e-4
-1.405, 9.251e-4
-1.406, 9.374e-4
-1.407, 9.467e-4
-1.408, 9.590e-4
-1.409, 9.713e-4
-1.410, 9.806e-4
-1.411, 9.929e-4
-1.412, 1.002e-3
-1.413, 1.018e-3
-1.414, 1.027e-3
-1.415, 1.036e-3
-1.416, 1.048e-3
-1.417, 1.061e-3
-1.418, 1.070e-3
-1.419, 1.082e-3
-1.420, 1.092e-3
-1.421, 1.104e-3
-1.422, 1.113e-3
-1.423, 1.125e-3
-1.424, 1.138e-3
-1.425, 1.150e-3
-1.426, 1.162e-3
-1.427, 1.175e-3
-1.428, 1.190e-3
-1.429, 1.199e-3
-1.430, 1.215e-3
-1.431, 1.227e-3
-1.432, 1.240e-3
-1.433, 1.252e-3
-1.434, 1.267e-3
-1.435, 1.280e-3
-1.436, 1.295e-3
-1.437, 1.307e-3
-1.438, 1.323e-3
-1.439, 1.335e-3
-1.440, 1.351e-3
-1.441, 1.366e-3
-1.442, 1.381e-3
-1.443, 1.397e-3
-1.444, 1.409e-3
-1.445, 1.425e-3
-1.446, 1.440e-3
-1.447, 1.455e-3
-1.448, 1.471e-3
-1.449, 1.489e-3
-1.450, 1.505e-3
-1.451, 1.523e-3
-1.452, 1.536e-3
-1.453, 1.554e-3
-1.454, 1.569e-3
-1.455, 1.588e-3
-1.456, 1.603e-3
-1.457, 1.619e-3
-1.458, 1.637e-3
-1.459, 1.653e-3
-1.460, 1.668e-3
-1.461, 1.684e-3
-1.462, 1.699e-3
-1.463, 1.717e-3
-1.464, 1.736e-3
-1.465, 1.754e-3
-1.466, 1.773e-3
-1.467, 1.791e-3
-1.468, 1.807e-3
-1.469, 1.825e-3
-1.470, 1.844e-3
-1.471, 1.862e-3
-1.472, 1.881e-3
-1.473, 1.899e-3
-1.474, 1.918e-3
-1.475, 1.936e-3
-1.476, 1.955e-3
-1.477, 1.973e-3
-1.478, 1.992e-3
-1.479, 2.010e-3
-1.480, 2.032e-3
-1.481, 2.054e-3
-1.482, 2.069e-3
-1.483, 2.091e-3
-1.484, 2.109e-3
-1.485, 2.128e-3
-1.486, 2.146e-3
-1.487, 2.171e-3
-1.488, 2.192e-3
-1.489, 2.211e-3
-1.490, 2.232e-3
-1.491, 2.254e-3
-1.492, 2.275e-3
-1.493, 2.297e-3
-1.494, 2.319e-3
-1.495, 2.343e-3
-1.496, 2.365e-3
-1.497, 2.386e-3
-1.498, 2.408e-3
-1.499, 2.430e-3
-1.500, 2.454e-3
-1.501, 2.476e-3
-1.502, 2.501e-3
-1.503, 2.528e-3
-1.504, 2.553e-3
-1.505, 2.575e-3
-1.506, 2.596e-3
-1.507, 2.621e-3
-1.508, 2.642e-3
-1.509, 2.667e-3
-1.510, 2.695e-3
-1.511, 2.719e-3
-1.512, 2.744e-3
-1.513, 2.766e-3
-1.514, 2.787e-3
-1.515, 2.812e-3
-1.516, 2.837e-3
-1.517, 2.861e-3
-1.518, 2.883e-3
-1.519, 2.911e-3
-1.520, 2.938e-3
-1.521, 2.963e-3
-1.522, 2.991e-3
-1.523, 3.019e-3
-1.524, 3.043e-3
-1.525, 3.068e-3
-1.526, 3.093e-3
-1.527, 3.117e-3
-1.528, 3.145e-3
-1.529, 3.173e-3
-1.530, 3.200e-3
-1.531, 3.231e-3
-1.532, 3.259e-3
-1.533, 3.287e-3
-1.534, 3.311e-3
-1.535, 3.339e-3
-1.536, 3.364e-3
-1.537, 3.395e-3
-1.538, 3.425e-3
-1.539, 3.459e-3
-1.540, 3.490e-3
-1.541, 3.515e-3
-1.542, 3.546e-3
-1.543, 3.570e-3
-1.544, 3.598e-3
-1.545, 3.635e-3
-1.546, 3.675e-3
-1.547, 3.712e-3
-1.548, 3.749e-3
-1.549, 3.780e-3
-1.550, 3.808e-3
-1.551, 3.839e-3
-1.552, 3.869e-3
-1.553, 3.916e-3
-1.554, 3.965e-3
-1.555, 4.002e-3
-1.556, 4.036e-3
-1.557, 4.064e-3
-1.558, 4.095e-3
-1.559, 4.125e-3
-1.560, 4.172e-3
-1.561, 4.212e-3
-1.562, 4.249e-3
-1.563, 4.276e-3
-1.564, 4.301e-3
-1.565, 4.329e-3
-1.566, 4.360e-3
-1.567, 4.409e-3
-1.568, 4.449e-3
-1.569, 4.492e-3
-1.570, 4.520e-3
-1.571, 4.545e-3
-1.572, 4.569e-3
-1.573, 4.597e-3
-1.574, 4.649e-3
-1.575, 4.711e-3
-1.576, 4.776e-3
-1.577, 4.825e-3
-1.578, 4.844e-3
-1.579, 4.865e-3
-1.580, 4.893e-3
-1.581, 4.927e-3
-1.582, 4.961e-3
-1.583, 4.992e-3
-1.584, 5.019e-3
-1.585, 5.038e-3
-1.586, 5.060e-3
-1.587, 5.084e-3
-1.588, 5.103e-3
-1.589, 5.118e-3
-1.590, 5.134e-3
-1.591, 5.152e-3
-1.592, 5.174e-3
-1.593, 5.192e-3
-1.594, 5.220e-3
-1.595, 5.251e-3
-1.596, 5.285e-3
-1.597, 5.322e-3
-1.598, 5.362e-3
-1.599, 5.402e-3
-1.600, 5.374e-3
-1.599, 5.260e-3
-1.598, 5.183e-3
-1.597, 5.112e-3
-1.596, 5.047e-3
-1.595, 4.982e-3
-1.594, 4.915e-3
-1.593, 4.856e-3
-1.592, 4.788e-3
-1.591, 4.727e-3
-1.590, 4.665e-3
-1.589, 4.609e-3
-1.588, 4.557e-3
-1.587, 4.505e-3
-1.586, 4.449e-3
-1.585, 4.394e-3
-1.584, 4.341e-3
-1.583, 4.276e-3
-1.582, 4.224e-3
-1.581, 4.172e-3
-1.580, 4.116e-3
-1.579, 4.070e-3
-1.578, 4.021e-3
-1.577, 3.968e-3
-1.576, 3.922e-3
-1.575, 3.873e-3
-1.574, 3.836e-3
-1.573, 3.795e-3
-1.572, 3.755e-3
-1.571, 3.718e-3
-1.570, 3.675e-3
-1.569, 3.635e-3
-1.568, 3.595e-3
-1.567, 3.552e-3
-1.566, 3.512e-3
-1.565, 3.469e-3
-1.564, 3.425e-3
-1.563, 3.382e-3
-1.562, 3.336e-3
-1.561, 3.293e-3
-1.560, 3.253e-3
-1.559, 3.210e-3
-1.558, 3.167e-3
-1.557, 3.126e-3
-1.556, 3.080e-3
-1.555, 3.037e-3
-1.554, 2.988e-3
-1.553, 2.951e-3
-1.552, 2.917e-3
-1.551, 2.880e-3
-1.550, 2.843e-3
-1.549, 2.809e-3
-1.548, 2.772e-3
-1.547, 2.735e-3
-1.546, 2.698e-3
-1.545, 2.664e-3
-1.544, 2.627e-3
-1.543, 2.593e-3
-1.542, 2.559e-3
-1.541, 2.525e-3
-1.540, 2.491e-3
-1.539, 2.457e-3
-1.538, 2.427e-3
-1.537, 2.393e-3
-1.536, 2.362e-3
-1.535, 2.328e-3
-1.534, 2.297e-3
-1.533, 2.266e-3
-1.532, 2.235e-3
-1.531, 2.208e-3
-1.530, 2.177e-3
-1.529, 2.146e-3
-1.528, 2.118e-3
-1.527, 2.084e-3
-1.526, 2.057e-3
-1.525, 2.026e-3
-1.524, 2.001e-3
-1.523, 1.973e-3
-1.522, 1.946e-3
-1.521, 1.918e-3
-1.520, 1.893e-3
-1.519, 1.862e-3
-1.518, 1.838e-3
-1.517, 1.813e-3
-1.516, 1.785e-3
-1.515, 1.764e-3
-1.514, 1.733e-3
-1.513, 1.711e-3
-1.512, 1.687e-3
-1.511, 1.662e-3
-1.510, 1.634e-3
-1.509, 1.613e-3
-1.508, 1.588e-3
-1.507, 1.569e-3
-1.506, 1.545e-3
-1.505, 1.523e-3
-1.504, 1.502e-3
-1.503, 1.477e-3
-1.502, 1.455e-3
-1.501, 1.434e-3
-1.500, 1.409e-3
-1.499, 1.391e-3
-1.498, 1.369e-3
-1.497, 1.347e-3
-1.496, 1.332e-3
-1.495, 1.310e-3
-1.494, 1.292e-3
-1.493, 1.270e-3
-1.492, 1.252e-3
-1.491, 1.233e-3
-1.490, 1.215e-3
-1.489, 1.196e-3
-1.488, 1.178e-3
-1.487, 1.159e-3
-1.486, 1.141e-3
-1.485, 1.119e-3
-1.484, 1.104e-3
-1.483, 1.088e-3
-1.482, 1.070e-3
-1.481, 1.051e-3
-1.480, 1.036e-3
-1.479, 1.021e-3
-1.478, 1.005e-3
-1.477, 9.898e-4
-1.476, 9.713e-4
-1.475, 9.559e-4
-1.474, 9.374e-4
-1.473, 9.220e-4
-1.472, 9.066e-4
-1.471, 8.943e-4
-1.470, 8.758e-4
-1.469, 8.665e-4
-1.468, 8.511e-4
-1.467, 8.357e-4
-1.466, 8.233e-4
-1.465, 8.110e-4
-1.464, 7.987e-4
-1.463, 7.833e-4
-1.462, 7.709e-4
-1.461, 7.555e-4
-1.460, 7.432e-4
-1.459, 7.309e-4
-1.458, 7.185e-4
-1.457, 7.031e-4
-1.456, 6.939e-4
-1.455, 6.815e-4
-1.454, 6.723e-4
-1.453, 6.599e-4
-1.452, 6.476e-4
-1.451, 6.353e-4
-1.450, 6.229e-4
-1.449, 6.137e-4
-1.448, 6.014e-4
-1.447, 5.890e-4
-1.446, 5.798e-4
-1.445, 5.674e-4
-1.444, 5.551e-4
-1.443, 5.489e-4
-1.442, 5.366e-4
-1.441, 5.243e-4
-1.440, 5.150e-4
-1.439, 5.058e-4
-1.438, 4.965e-4
-1.437, 4.873e-4
-1.436, 4.750e-4
-1.435, 4.688e-4
-1.434, 4.565e-4
-1.433, 4.441e-4
-1.432, 4.380e-4
-1.431, 4.287e-4
-1.430, 4.195e-4
-1.429, 4.102e-4
-1.428, 4.040e-4
-1.427, 3.979e-4
-1.426, 3.886e-4
-1.425, 3.794e-4
-1.424, 3.701e-4
-1.423, 3.609e-4
-1.422, 3.547e-4
-1.421, 3.455e-4
-1.420, 3.362e-4
-1.419, 3.270e-4
-1.418, 3.208e-4
-1.417, 3.115e-4
-1.416, 3.054e-4
-1.415, 2.992e-4
-1.414, 2.931e-4
-1.413, 2.838e-4
-1.412, 2.776e-4
-1.411, 2.684e-4
-1.410, 2.622e-4
-1.409, 2.530e-4
-1.408, 2.468e-4
-1.407, 2.406e-4
-1.406, 2.345e-4
-1.405, 2.252e-4
-1.404, 2.191e-4
-1.403, 2.129e-4
-1.402, 2.067e-4
-1.401, 2.006e-4
-1.400, 1.944e-4
-1.399, 1.882e-4
-1.398, 1.821e-4
-1.397, 1.759e-4
-1.396, 1.697e-4
-1.395, 1.636e-4
-1.394, 1.543e-4
-1.393, 1.481e-4
-1.392, 1.451e-4
-1.391, 1.358e-4
-1.390, 1.327e-4
-1.389, 1.266e-4
-1.388, 1.204e-4
-1.387, 1.173e-4
-1.386, 1.111e-4
-1.385, 1.050e-4
-1.384, 1.019e-4
-1.383, 9.265e-5
-1.382, 8.957e-5
-1.381, 8.340e-5
-1.380, 7.723e-5
-1.379, 7.415e-5
-1.378, 6.798e-5
-1.377, 6.182e-5
-1.376, 6.182e-5
-1.375, 5.257e-5
-1.374, 4.949e-5
-1.373, 4.640e-5
-1.372, 4.024e-5
-1.371, 3.715e-5
-1.370, 3.099e-5
-1.369, 2.790e-5
-1.368, 2.174e-5
-1.367, 1.557e-5
-1.366, 1.249e-5
-1.365, 6.322e-6
-1.364, 3.239e-6
-1.363, 1.559e-7
-1.362, -2.927e-6
-1.361, -9.093e-6
-1.360, -1.218e-5
-1.359, -1.526e-5
-1.358, -1.834e-5
-1.357, -2.143e-5
-1.356, -2.759e-5
-1.355, -3.068e-5
-1.354, -3.684e-5
-1.353, -3.992e-5
-1.352, -4.301e-5
-1.351, -4.609e-5
-1.350, -4.917e-5
-1.349, -5.226e-5
-1.348, -5.534e-5
-1.347, -5.842e-5
-1.346, -6.151e-5
-1.345, -6.459e-5
-1.344, -7.076e-5
-1.343, -7.384e-5
-1.342, -7.692e-5
-1.341, -7.692e-5
-1.340, -8.309e-5
-1.339, -8.617e-5
-1.338, -8.925e-5
-1.337, -9.234e-5
-1.336, -9.234e-5
-1.335, -9.542e-5
-1.334, -9.850e-5
-1.333, -1.016e-4
-1.332, -1.047e-4
-1.331, -1.078e-4
-1.330, -1.108e-4
-1.329, -1.139e-4
-1.328, -1.139e-4
-1.327, -1.201e-4
-1.326, -1.232e-4
-1.325, -1.232e-4
-1.324, -1.263e-4
-1.323, -1.263e-4
-1.322, -1.293e-4
-1.321, -1.324e-4
-1.320, -1.355e-4
-1.319, -1.355e-4
-1.318, -1.386e-4
-1.317, -1.386e-4
-1.316, -1.448e-4
-1.315, -1.448e-4
-1.314, -1.509e-4
-1.313, -1.540e-4
-1.312, -1.540e-4
-1.311, -1.540e-4
-1.310, -1.571e-4
-1.309, -1.571e-4
-1.308, -1.602e-4
-1.307, -1.602e-4
-1.306, -1.632e-4
-1.305, -1.663e-4
-1.304, -1.663e-4
-1.303, -1.694e-4
-1.302, -1.725e-4
-1.301, -1.756e-4
-1.300, -1.756e-4
-1.299, -1.787e-4
-1.298, -1.787e-4
-1.297, -1.817e-4
-1.296, -1.817e-4
-1.295, -1.817e-4
-1.294, -1.848e-4
-1.293, -1.848e-4
-1.292, -1.879e-4
-1.291, -1.879e-4
-1.290, -1.879e-4
-1.289, -1.910e-4
-1.288, -1.910e-4
-1.287, -1.941e-4
-1.286, -1.941e-4
-1.285, -1.972e-4
-1.284, -2.002e-4
-1.283, -1.972e-4
-1.282, -2.002e-4
-1.281, -2.033e-4
-1.280, -2.033e-4
-1.279, -2.033e-4
-1.278, -2.064e-4
-1.277, -2.064e-4
-1.276, -2.064e-4
-1.275, -2.064e-4
-1.274, -2.095e-4
-1.273, -2.126e-4
-1.272, -2.126e-4
-1.271, -2.126e-4
-1.270, -2.126e-4
-1.269, -2.157e-4
-1.268, -2.157e-4
-1.267, -2.126e-4
-1.266, -2.157e-4
-1.265, -2.157e-4
-1.264, -2.157e-4
-1.263, -2.187e-4
-1.262, -2.187e-4
-1.261, -2.218e-4
-1.260, -2.218e-4
-1.259, -2.218e-4
-1.258, -2.249e-4
-1.257, -2.280e-4
-1.256, -2.249e-4
-1.255, -2.249e-4
-1.254, -2.249e-4
-1.253, -2.249e-4
-1.252, -2.249e-4
-1.251, -2.280e-4
-1.250, -2.249e-4
-1.249, -2.311e-4
-1.248, -2.280e-4
-1.247, -2.311e-4
-1.246, -2.311e-4
-1.245, -2.311e-4
-1.244, -2.311e-4
-1.243, -2.280e-4
-1.242, -2.311e-4
-1.241, -2.311e-4
-1.240, -2.311e-4
-1.239, -2.311e-4
-1.238, -2.311e-4
-1.237, -2.311e-4
-1.236, -2.342e-4
-1.235, -2.342e-4
-1.234, -2.372e-4
-1.233, -2.372e-4
-1.232, -2.372e-4
-1.231, -2.372e-4
-1.230, -2.372e-4
-1.229, -2.372e-4
-1.228, -2.372e-4
-1.227, -2.372e-4
-1.226, -2.372e-4
-1.225, -2.372e-4
-1.224, -2.372e-4
-1.223, -2.372e-4
-1.222, -2.372e-4
-1.221, -2.403e-4
-1.220, -2.372e-4
-1.219, -2.372e-4
-1.218, -2.403e-4
-1.217, -2.403e-4
-1.216, -2.372e-4
-1.215, -2.403e-4
-1.214, -2.372e-4
-1.213, -2.372e-4
-1.212, -2.403e-4
-1.211, -2.403e-4
-1.210, -2.403e-4
-1.209, -2.403e-4
-1.208, -2.403e-4
-1.207, -2.434e-4
-1.206, -2.434e-4
-1.205, -2.403e-4
-1.204, -2.434e-4
-1.203, -2.403e-4
-1.202, -2.403e-4
-1.201, -2.403e-4
-1.200, -2.403e-4
-1.199, -2.434e-4
-1.198, -2.434e-4
-1.197, -2.403e-4
-1.196, -2.434e-4
-1.195, -2.403e-4
-1.194, -2.434e-4
-1.193, -2.434e-4
-1.192, -2.434e-4
-1.191, -2.434e-4
-1.190, -2.434e-4
-1.189, -2.434e-4
-1.188, -2.434e-4
-1.187, -2.434e-4
-1.186, -2.434e-4
-1.185, -2.434e-4
-1.184, -2.434e-4
-1.183, -2.465e-4
-1.182, -2.465e-4
-1.181, -2.465e-4
-1.180, -2.465e-4
-1.179, -2.465e-4
-1.178, -2.465e-4
-1.177, -2.496e-4
-1.176, -2.465e-4
-1.175, -2.465e-4
-1.174, -2.434e-4
-1.173, -2.434e-4
-1.172, -2.465e-4
-1.171, -2.434e-4
-1.170, -2.465e-4
-1.169, -2.465e-4
-1.168, -2.465e-4
-1.167, -2.465e-4
-1.166, -2.465e-4
-1.165, -2.465e-4
-1.164, -2.496e-4
-1.163, -2.434e-4
-1.162, -2.465e-4
-1.161, -2.465e-4
-1.160, -2.465e-4
-1.159, -2.465e-4
-1.158, -2.465e-4
-1.157, -2.465e-4
-1.156, -2.496e-4
-1.155, -2.465e-4
-1.154, -2.496e-4
-1.153, -2.496e-4
-1.152, -2.496e-4
-1.151, -2.496e-4
-1.150, -2.496e-4
-1.149, -2.496e-4
-1.148, -2.496e-4
-1.147, -2.465e-4
-1.146, -2.465e-4
-1.145, -2.465e-4
-1.144, -2.496e-4
-1.143, -2.496e-4
-1.142, -2.465e-4
-1.141, -2.496e-4
-1.140, -2.496e-4
-1.139, -2.496e-4
-1.138, -2.496e-4
-1.137, -2.496e-4
-1.136, -2.496e-4
-1.135, -2.496e-4
-1.134, -2.496e-4
-1.133, -2.496e-4
-1.132, -2.496e-4
-1.131, -2.496e-4
-1.130, -2.465e-4
-1.129, -2.496e-4
-1.128, -2.496e-4
-1.127, -2.496e-4
-1.126, -2.496e-4
-1.125, -2.496e-4
-1.124, -2.527e-4
-1.123, -2.496e-4
-1.122, -2.496e-4
-1.121, -2.496e-4
-1.120, -2.496e-4
-1.119, -2.527e-4
-1.118, -2.496e-4
-1.117, -2.496e-4
-1.116, -2.527e-4
-1.115, -2.496e-4
-1.114, -2.527e-4
-1.113, -2.527e-4
-1.112, -2.527e-4
-1.111, -2.527e-4
-1.110, -2.527e-4
-1.109, -2.527e-4
-1.108, -2.557e-4
-1.107, -2.527e-4
-1.106, -2.527e-4
-1.105, -2.527e-4
-1.104, -2.527e-4
-1.103, -2.557e-4
-1.102, -2.527e-4
-1.101, -2.557e-4
-1.100, -2.557e-4
-1.099, -2.557e-4
-1.098, -2.527e-4
-1.097, -2.557e-4
-1.096, -2.557e-4
-1.095, -2.557e-4
-1.094, -2.527e-4
-1.093, -2.527e-4
-1.092, -2.557e-4
-1.091, -2.557e-4
-1.090, -2.527e-4
-1.089, -2.588e-4
-1.088, -2.557e-4
-1.087, -2.588e-4
-1.086, -2.557e-4
-1.085, -2.588e-4
-1.084, -2.588e-4
-1.083, -2.557e-4
-1.082, -2.588e-4
-1.081, -2.557e-4
-1.080, -2.588e-4
-1.079, -2.588e-4
-1.078, -2.588e-4
-1.077, -2.588e-4
-1.076, -2.588e-4
-1.075, -2.588e-4
-1.074, -2.619e-4
-1.073, -2.619e-4
-1.072, -2.619e-4
-1.071, -2.619e-4
-1.070, -2.588e-4
-1.069, -2.619e-4
-1.068, -2.619e-4
-1.067, -2.619e-4
-1.066, -2.588e-4
-1.065, -2.619e-4
-1.064, -2.588e-4
-1.063, -2.619e-4
-1.062, -2.650e-4
-1.061, -2.650e-4
-1.060, -2.650e-4
-1.059, -2.619e-4
-1.058, -2.619e-4
-1.057, -2.650e-4
-1.056, -2.650e-4
-1.055, -2.650e-4
-1.054, -2.619e-4
-1.053, -2.619e-4
-1.052, -2.650e-4
-1.051, -2.650e-4
-1.050, -2.650e-4
-1.049, -2.650e-4
-1.048, -2.681e-4
-1.047, -2.681e-4
-1.046, -2.681e-4
-1.045, -2.681e-4
-1.044, -2.712e-4
-1.043, -2.681e-4
-1.042, -2.681e-4
-1.041, -2.681e-4
-1.040, -2.712e-4
-1.039, -2.712e-4
-1.038, -2.681e-4
-1.037, -2.681e-4
-1.036, -2.712e-4
-1.035, -2.712e-4
-1.034, -2.742e-4
-1.033, -2.742e-4
-1.032, -2.742e-4
-1.031, -2.742e-4
-1.030, -2.742e-4
-1.029, -2.773e-4
-1.028, -2.773e-4
-1.027, -2.773e-4
-1.026, -2.773e-4
-1.025, -2.773e-4
-1.024, -2.773e-4
-1.023, -2.804e-4
-1.022, -2.804e-4
-1.021, -2.835e-4
-1.020, -2.835e-4
-1.019, -2.804e-4
-1.018, -2.835e-4
-1.017, -2.835e-4
-1.016, -2.835e-4
-1.015, -2.866e-4
-1.014, -2.835e-4
-1.013, -2.866e-4
-1.012, -2.866e-4
-1.011, -2.897e-4
-1.010, -2.897e-4
-1.009, -2.927e-4
-1.008, -2.897e-4
-1.007, -2.927e-4
-1.006, -2.958e-4
-1.005, -2.958e-4
-1.004, -2.958e-4
-1.003, -2.958e-4
-1.002, -2.989e-4
-1.001, -2.989e-4
