Aug. 31, 2024   22:17:07
Cyclic Voltammetry
File: c:/users/guazh/data/20240829_batch_215_500/2024-08-29-exp233\exp233-2024-08-31t22_02_31-h2koh\exp233_cv_sr_200mvs_efin_-1700mv.bin
Data Source:  Experiment
Instrument Model:  CHI760E
Header: CV ran at 200 mVs
Note: 

Init E (V) = -1
High E (V) = -1
Low E (V) = -1.7
Final E (V) = -1
Init P/N = N
Scan Rate (V/s) = 0.2
Segment = 3
Sample Interval (V) = 0.001
Quiet Time (sec) = 2
Sensitivity (A/V) = 0.01
Comp R (ohm) = 1.7

Results:

Channel 1:
Segment 1:

Segment 2:

Segment 3:

Potential/V, Current/A

-1.000, 8.493e-6
-1.001, 1.168e-5
-1.002, 1.233e-5
-1.003, 1.225e-5
-1.004, 1.268e-5
-1.005, 1.320e-5
-1.006, 1.296e-5
-1.007, 1.352e-5
-1.008, 1.328e-5
-1.009, 1.354e-5
-1.010, 1.338e-5
-1.011, 1.371e-5
-1.012, 1.393e-5
-1.013, 1.372e-5
-1.014, 1.413e-5
-1.015, 1.439e-5
-1.016, 1.401e-5
-1.017, 1.420e-5
-1.018, 1.424e-5
-1.019, 1.429e-5
-1.020, 1.434e-5
-1.021, 1.452e-5
-1.022, 1.447e-5
-1.023, 1.416e-5
-1.024, 1.485e-5
-1.025, 1.480e-5
-1.026, 1.463e-5
-1.027, 1.485e-5
-1.028, 1.466e-5
-1.029, 1.473e-5
-1.030, 1.466e-5
-1.031, 1.500e-5
-1.032, 1.485e-5
-1.033, 1.464e-5
-1.034, 1.485e-5
-1.035, 1.493e-5
-1.036, 1.488e-5
-1.037, 1.489e-5
-1.038, 1.498e-5
-1.039, 1.512e-5
-1.040, 1.489e-5
-1.041, 1.508e-5
-1.042, 1.524e-5
-1.043, 1.489e-5
-1.044, 1.498e-5
-1.045, 1.540e-5
-1.046, 1.513e-5
-1.047, 1.515e-5
-1.048, 1.516e-5
-1.049, 1.524e-5
-1.050, 1.515e-5
-1.051, 1.533e-5
-1.052, 1.544e-5
-1.053, 1.522e-5
-1.054, 1.534e-5
-1.055, 1.547e-5
-1.056, 1.544e-5
-1.057, 1.548e-5
-1.058, 1.547e-5
-1.059, 1.539e-5
-1.060, 1.534e-5
-1.061, 1.529e-5
-1.062, 1.568e-5
-1.063, 1.526e-5
-1.064, 1.565e-5
-1.065, 1.550e-5
-1.066, 1.556e-5
-1.067, 1.559e-5
-1.068, 1.574e-5
-1.069, 1.562e-5
-1.070, 1.546e-5
-1.071, 1.556e-5
-1.072, 1.540e-5
-1.073, 1.516e-5
-1.074, 1.562e-5
-1.075, 1.577e-5
-1.076, 1.567e-5
-1.077, 1.583e-5
-1.078, 1.575e-5
-1.079, 1.597e-5
-1.080, 1.544e-5
-1.081, 1.565e-5
-1.082, 1.580e-5
-1.083, 1.573e-5
-1.084, 1.560e-5
-1.085, 1.602e-5
-1.086, 1.550e-5
-1.087, 1.595e-5
-1.088, 1.587e-5
-1.089, 1.578e-5
-1.090, 1.576e-5
-1.091, 1.579e-5
-1.092, 1.610e-5
-1.093, 1.558e-5
-1.094, 1.583e-5
-1.095, 1.621e-5
-1.096, 1.570e-5
-1.097, 1.584e-5
-1.098, 1.577e-5
-1.099, 1.615e-5
-1.100, 1.583e-5
-1.101, 1.591e-5
-1.102, 1.597e-5
-1.103, 1.589e-5
-1.104, 1.597e-5
-1.105, 1.598e-5
-1.106, 1.607e-5
-1.107, 1.603e-5
-1.108, 1.617e-5
-1.109, 1.606e-5
-1.110, 1.592e-5
-1.111, 1.598e-5
-1.112, 1.608e-5
-1.113, 1.601e-5
-1.114, 1.618e-5
-1.115, 1.617e-5
-1.116, 1.597e-5
-1.117, 1.607e-5
-1.118, 1.625e-5
-1.119, 1.629e-5
-1.120, 1.595e-5
-1.121, 1.612e-5
-1.122, 1.649e-5
-1.123, 1.587e-5
-1.124, 1.610e-5
-1.125, 1.644e-5
-1.126, 1.590e-5
-1.127, 1.628e-5
-1.128, 1.612e-5
-1.129, 1.636e-5
-1.130, 1.617e-5
-1.131, 1.633e-5
-1.132, 1.634e-5
-1.133, 1.612e-5
-1.134, 1.638e-5
-1.135, 1.665e-5
-1.136, 1.624e-5
-1.137, 1.631e-5
-1.138, 1.627e-5
-1.139, 1.645e-5
-1.140, 1.621e-5
-1.141, 1.643e-5
-1.142, 1.658e-5
-1.143, 1.626e-5
-1.144, 1.648e-5
-1.145, 1.666e-5
-1.146, 1.644e-5
-1.147, 1.641e-5
-1.148, 1.624e-5
-1.149, 1.652e-5
-1.150, 1.642e-5
-1.151, 1.668e-5
-1.152, 1.674e-5
-1.153, 1.629e-5
-1.154, 1.677e-5
-1.155, 1.658e-5
-1.156, 1.650e-5
-1.157, 1.656e-5
-1.158, 1.666e-5
-1.159, 1.672e-5
-1.160, 1.642e-5
-1.161, 1.662e-5
-1.162, 1.686e-5
-1.163, 1.630e-5
-1.164, 1.677e-5
-1.165, 1.692e-5
-1.166, 1.674e-5
-1.167, 1.654e-5
-1.168, 1.666e-5
-1.169, 1.691e-5
-1.170, 1.661e-5
-1.171, 1.674e-5
-1.172, 1.680e-5
-1.173, 1.649e-5
-1.174, 1.678e-5
-1.175, 1.681e-5
-1.176, 1.664e-5
-1.177, 1.689e-5
-1.178, 1.699e-5
-1.179, 1.689e-5
-1.180, 1.675e-5
-1.181, 1.684e-5
-1.182, 1.684e-5
-1.183, 1.680e-5
-1.184, 1.684e-5
-1.185, 1.703e-5
-1.186, 1.675e-5
-1.187, 1.683e-5
-1.188, 1.704e-5
-1.189, 1.692e-5
-1.190, 1.658e-5
-1.191, 1.691e-5
-1.192, 1.693e-5
-1.193, 1.657e-5
-1.194, 1.708e-5
-1.195, 1.718e-5
-1.196, 1.694e-5
-1.197, 1.709e-5
-1.198, 1.697e-5
-1.199, 1.724e-5
-1.200, 1.662e-5
-1.201, 1.713e-5
-1.202, 1.723e-5
-1.203, 1.681e-5
-1.204, 1.713e-5
-1.205, 1.723e-5
-1.206, 1.670e-5
-1.207, 1.725e-5
-1.208, 1.692e-5
-1.209, 1.722e-5
-1.210, 1.708e-5
-1.211, 1.690e-5
-1.212, 1.722e-5
-1.213, 1.687e-5
-1.214, 1.724e-5
-1.215, 1.707e-5
-1.216, 1.693e-5
-1.217, 1.697e-5
-1.218, 1.706e-5
-1.219, 1.704e-5
-1.220, 1.681e-5
-1.221, 1.699e-5
-1.222, 1.709e-5
-1.223, 1.693e-5
-1.224, 1.686e-5
-1.225, 1.696e-5
-1.226, 1.703e-5
-1.227, 1.694e-5
-1.228, 1.714e-5
-1.229, 1.721e-5
-1.230, 1.691e-5
-1.231, 1.704e-5
-1.232, 1.714e-5
-1.233, 1.675e-5
-1.234, 1.708e-5
-1.235, 1.692e-5
-1.236, 1.689e-5
-1.237, 1.704e-5
-1.238, 1.698e-5
-1.239, 1.727e-5
-1.240, 1.695e-5
-1.241, 1.719e-5
-1.242, 1.735e-5
-1.243, 1.681e-5
-1.244, 1.721e-5
-1.245, 1.745e-5
-1.246, 1.715e-5
-1.247, 1.739e-5
-1.248, 1.723e-5
-1.249, 1.725e-5
-1.250, 1.715e-5
-1.251, 1.723e-5
-1.252, 1.744e-5
-1.253, 1.717e-5
-1.254, 1.715e-5
-1.255, 1.746e-5
-1.256, 1.704e-5
-1.257, 1.715e-5
-1.258, 1.714e-5
-1.259, 1.723e-5
-1.260, 1.724e-5
-1.261, 1.709e-5
-1.262, 1.749e-5
-1.263, 1.716e-5
-1.264, 1.724e-5
-1.265, 1.727e-5
-1.266, 1.753e-5
-1.267, 1.738e-5
-1.268, 1.734e-5
-1.269, 1.728e-5
-1.270, 1.718e-5
-1.271, 1.739e-5
-1.272, 1.741e-5
-1.273, 1.718e-5
-1.274, 1.740e-5
-1.275, 1.742e-5
-1.276, 1.733e-5
-1.277, 1.735e-5
-1.278, 1.748e-5
-1.279, 1.761e-5
-1.280, 1.731e-5
-1.281, 1.735e-5
-1.282, 1.770e-5
-1.283, 1.709e-5
-1.284, 1.752e-5
-1.285, 1.751e-5
-1.286, 1.747e-5
-1.287, 1.771e-5
-1.288, 1.764e-5
-1.289, 1.761e-5
-1.290, 1.753e-5
-1.291, 1.760e-5
-1.292, 1.764e-5
-1.293, 1.728e-5
-1.294, 1.761e-5
-1.295, 1.755e-5
-1.296, 1.760e-5
-1.297, 1.753e-5
-1.298, 1.762e-5
-1.299, 1.745e-5
-1.300, 1.763e-5
-1.301, 1.774e-5
-1.302, 1.783e-5
-1.303, 1.753e-5
-1.304, 1.788e-5
-1.305, 1.776e-5
-1.306, 1.769e-5
-1.307, 1.787e-5
-1.308, 1.792e-5
-1.309, 1.798e-5
-1.310, 1.777e-5
-1.311, 1.806e-5
-1.312, 1.819e-5
-1.313, 1.787e-5
-1.314, 1.803e-5
-1.315, 1.811e-5
-1.316, 1.806e-5
-1.317, 1.802e-5
-1.318, 1.802e-5
-1.319, 1.839e-5
-1.320, 1.806e-5
-1.321, 1.844e-5
-1.322, 1.846e-5
-1.323, 1.822e-5
-1.324, 1.828e-5
-1.325, 1.862e-5
-1.326, 1.845e-5
-1.327, 1.848e-5
-1.328, 1.850e-5
-1.329, 1.866e-5
-1.330, 1.856e-5
-1.331, 1.878e-5
-1.332, 1.883e-5
-1.333, 1.863e-5
-1.334, 1.889e-5
-1.335, 1.912e-5
-1.336, 1.892e-5
-1.337, 1.893e-5
-1.338, 1.921e-5
-1.339, 1.906e-5
-1.340, 1.899e-5
-1.341, 1.941e-5
-1.342, 1.944e-5
-1.343, 1.927e-5
-1.344, 1.965e-5
-1.345, 1.946e-5
-1.346, 1.951e-5
-1.347, 1.981e-5
-1.348, 1.975e-5
-1.349, 1.995e-5
-1.350, 1.991e-5
-1.351, 2.003e-5
-1.352, 2.012e-5
-1.353, 2.011e-5
-1.354, 2.059e-5
-1.355, 2.060e-5
-1.356, 2.048e-5
-1.357, 2.061e-5
-1.358, 2.079e-5
-1.359, 2.103e-5
-1.360, 2.086e-5
-1.361, 2.100e-5
-1.362, 2.145e-5
-1.363, 2.126e-5
-1.364, 2.143e-5
-1.365, 2.171e-5
-1.366, 2.172e-5
-1.367, 2.175e-5
-1.368, 2.180e-5
-1.369, 2.215e-5
-1.370, 2.223e-5
-1.371, 2.248e-5
-1.372, 2.294e-5
-1.373, 2.262e-5
-1.374, 2.285e-5
-1.375, 2.329e-5
-1.376, 2.308e-5
-1.377, 2.340e-5
-1.378, 2.369e-5
-1.379, 2.373e-5
-1.380, 2.405e-5
-1.381, 2.416e-5
-1.382, 2.461e-5
-1.383, 2.460e-5
-1.384, 2.493e-5
-1.385, 2.517e-5
-1.386, 2.520e-5
-1.387, 2.555e-5
-1.388, 2.583e-5
-1.389, 2.624e-5
-1.390, 2.622e-5
-1.391, 2.648e-5
-1.392, 2.689e-5
-1.393, 2.688e-5
-1.394, 2.769e-5
-1.395, 2.790e-5
-1.396, 2.805e-5
-1.397, 2.839e-5
-1.398, 2.844e-5
-1.399, 2.911e-5
-1.400, 2.942e-5
-1.401, 2.963e-5
-1.402, 3.033e-5
-1.403, 3.024e-5
-1.404, 3.094e-5
-1.405, 3.170e-5
-1.406, 3.152e-5
-1.407, 3.193e-5
-1.408, 3.265e-5
-1.409, 3.336e-5
-1.410, 3.340e-5
-1.411, 3.395e-5
-1.412, 3.450e-5
-1.413, 3.489e-5
-1.414, 3.536e-5
-1.415, 3.630e-5
-1.416, 3.647e-5
-1.417, 3.716e-5
-1.418, 3.771e-5
-1.419, 3.850e-5
-1.420, 3.912e-5
-1.421, 3.978e-5
-1.422, 4.019e-5
-1.423, 4.079e-5
-1.424, 4.166e-5
-1.425, 4.230e-5
-1.426, 4.302e-5
-1.427, 4.364e-5
-1.428, 4.464e-5
-1.429, 4.553e-5
-1.430, 4.592e-5
-1.431, 4.707e-5
-1.432, 4.792e-5
-1.433, 4.853e-5
-1.434, 4.990e-5
-1.435, 5.085e-5
-1.436, 5.165e-5
-1.437, 5.262e-5
-1.438, 5.360e-5
-1.439, 5.469e-5
-1.440, 5.568e-5
-1.441, 5.686e-5
-1.442, 5.799e-5
-1.443, 5.887e-5
-1.444, 6.027e-5
-1.445, 6.162e-5
-1.446, 6.251e-5
-1.447, 6.422e-5
-1.448, 6.508e-5
-1.449, 6.665e-5
-1.450, 6.799e-5
-1.451, 6.924e-5
-1.452, 7.088e-5
-1.453, 7.218e-5
-1.454, 7.408e-5
-1.455, 7.566e-5
-1.456, 7.692e-5
-1.457, 7.868e-5
-1.458, 8.052e-5
-1.459, 8.231e-5
-1.460, 8.404e-5
-1.461, 8.566e-5
-1.462, 8.789e-5
-1.463, 8.950e-5
-1.464, 9.168e-5
-1.465, 9.387e-5
-1.466, 9.590e-5
-1.467, 9.800e-5
-1.468, 1.003e-4
-1.469, 1.024e-4
-1.470, 1.048e-4
-1.471, 1.071e-4
-1.472, 1.095e-4
-1.473, 1.117e-4
-1.474, 1.147e-4
-1.475, 1.172e-4
-1.476, 1.199e-4
-1.477, 1.226e-4
-1.478, 1.253e-4
-1.479, 1.283e-4
-1.480, 1.312e-4
-1.481, 1.342e-4
-1.482, 1.375e-4
-1.483, 1.403e-4
-1.484, 1.439e-4
-1.485, 1.475e-4
-1.486, 1.505e-4
-1.487, 1.542e-4
-1.488, 1.576e-4
-1.489, 1.615e-4
-1.490, 1.650e-4
-1.491, 1.688e-4
-1.492, 1.726e-4
-1.493, 1.764e-4
-1.494, 1.806e-4
-1.495, 1.851e-4
-1.496, 1.889e-4
-1.497, 1.933e-4
-1.498, 1.975e-4
-1.499, 2.020e-4
-1.500, 2.065e-4
-1.501, 2.109e-4
-1.502, 2.160e-4
-1.503, 2.205e-4
-1.504, 2.253e-4
-1.505, 2.311e-4
-1.506, 2.360e-4
-1.507, 2.410e-4
-1.508, 2.466e-4
-1.509, 2.523e-4
-1.510, 2.578e-4
-1.511, 2.636e-4
-1.512, 2.696e-4
-1.513, 2.754e-4
-1.514, 2.819e-4
-1.515, 2.879e-4
-1.516, 2.940e-4
-1.517, 3.007e-4
-1.518, 3.071e-4
-1.519, 3.140e-4
-1.520, 3.205e-4
-1.521, 3.275e-4
-1.522, 3.349e-4
-1.523, 3.416e-4
-1.524, 3.494e-4
-1.525, 3.571e-4
-1.526, 3.645e-4
-1.527, 3.725e-4
-1.528, 3.800e-4
-1.529, 3.885e-4
-1.530, 3.965e-4
-1.531, 4.048e-4
-1.532, 4.134e-4
-1.533, 4.215e-4
-1.534, 4.304e-4
-1.535, 4.392e-4
-1.536, 4.480e-4
-1.537, 4.570e-4
-1.538, 4.661e-4
-1.539, 4.751e-4
-1.540, 4.843e-4
-1.541, 4.950e-4
-1.542, 5.059e-4
-1.543, 5.160e-4
-1.544, 5.264e-4
-1.545, 5.367e-4
-1.546, 5.469e-4
-1.547, 5.568e-4
-1.548, 5.665e-4
-1.549, 5.757e-4
-1.550, 5.850e-4
-1.551, 5.947e-4
-1.552, 6.047e-4
-1.553, 6.159e-4
-1.554, 6.274e-4
-1.555, 6.396e-4
-1.556, 6.510e-4
-1.557, 6.623e-4
-1.558, 6.753e-4
-1.559, 6.898e-4
-1.560, 7.033e-4
-1.561, 7.153e-4
-1.562, 7.282e-4
-1.563, 7.410e-4
-1.564, 7.547e-4
-1.565, 7.676e-4
-1.566, 7.808e-4
-1.567, 7.949e-4
-1.568, 8.089e-4
-1.569, 8.219e-4
-1.570, 8.363e-4
-1.571, 8.506e-4
-1.572, 8.648e-4
-1.573, 8.780e-4
-1.574, 8.930e-4
-1.575, 9.087e-4
-1.576, 9.234e-4
-1.577, 9.388e-4
-1.578, 9.546e-4
-1.579, 9.697e-4
-1.580, 9.850e-4
-1.581, 9.998e-4
-1.582, 1.016e-3
-1.583, 1.032e-3
-1.584, 1.048e-3
-1.585, 1.064e-3
-1.586, 1.082e-3
-1.587, 1.099e-3
-1.588, 1.118e-3
-1.589, 1.135e-3
-1.590, 1.153e-3
-1.591, 1.172e-3
-1.592, 1.190e-3
-1.593, 1.206e-3
-1.594, 1.223e-3
-1.595, 1.241e-3
-1.596, 1.259e-3
-1.597, 1.277e-3
-1.598, 1.297e-3
-1.599, 1.318e-3
-1.600, 1.336e-3
-1.601, 1.353e-3
-1.602, 1.369e-3
-1.603, 1.381e-3
-1.604, 1.399e-3
-1.605, 1.419e-3
-1.606, 1.439e-3
-1.607, 1.461e-3
-1.608, 1.479e-3
-1.609, 1.498e-3
-1.610, 1.521e-3
-1.611, 1.546e-3
-1.612, 1.568e-3
-1.613, 1.591e-3
-1.614, 1.615e-3
-1.615, 1.637e-3
-1.616, 1.662e-3
-1.617, 1.685e-3
-1.618, 1.711e-3
-1.619, 1.736e-3
-1.620, 1.760e-3
-1.621, 1.787e-3
-1.622, 1.811e-3
-1.623, 1.834e-3
-1.624, 1.858e-3
-1.625, 1.883e-3
-1.626, 1.909e-3
-1.627, 1.933e-3
-1.628, 1.962e-3
-1.629, 1.989e-3
-1.630, 2.015e-3
-1.631, 2.043e-3
-1.632, 2.070e-3
-1.633, 2.098e-3
-1.634, 2.123e-3
-1.635, 2.151e-3
-1.636, 2.180e-3
-1.637, 2.208e-3
-1.638, 2.238e-3
-1.639, 2.268e-3
-1.640, 2.302e-3
-1.641, 2.334e-3
-1.642, 2.366e-3
-1.643, 2.400e-3
-1.644, 2.434e-3
-1.645, 2.467e-3
-1.646, 2.499e-3
-1.647, 2.533e-3
-1.648, 2.563e-3
-1.649, 2.588e-3
-1.650, 2.616e-3
-1.651, 2.660e-3
-1.652, 2.705e-3
-1.653, 2.739e-3
-1.654, 2.767e-3
-1.655, 2.788e-3
-1.656, 2.808e-3
-1.657, 2.838e-3
-1.658, 2.867e-3
-1.659, 2.894e-3
-1.660, 2.926e-3
-1.661, 2.972e-3
-1.662, 3.012e-3
-1.663, 3.046e-3
-1.664, 3.081e-3
-1.665, 3.118e-3
-1.666, 3.163e-3
-1.667, 3.203e-3
-1.668, 3.240e-3
-1.669, 3.276e-3
-1.670, 3.319e-3
-1.671, 3.355e-3
-1.672, 3.388e-3
-1.673, 3.423e-3
-1.674, 3.465e-3
-1.675, 3.503e-3
-1.676, 3.536e-3
-1.677, 3.571e-3
-1.678, 3.615e-3
-1.679, 3.660e-3
-1.680, 3.703e-3
-1.681, 3.752e-3
-1.682, 3.799e-3
-1.683, 3.842e-3
-1.684, 3.886e-3
-1.685, 3.935e-3
-1.686, 3.981e-3
-1.687, 4.022e-3
-1.688, 4.063e-3
-1.689, 4.111e-3
-1.690, 4.161e-3
-1.691, 4.217e-3
-1.692, 4.271e-3
-1.693, 4.323e-3
-1.694, 4.375e-3
-1.695, 4.427e-3
-1.696, 4.471e-3
-1.697, 4.513e-3
-1.698, 4.557e-3
-1.699, 4.593e-3
-1.700, 4.585e-3
-1.699, 4.547e-3
-1.698, 4.535e-3
-1.697, 4.517e-3
-1.696, 4.491e-3
-1.695, 4.428e-3
-1.694, 4.358e-3
-1.693, 4.300e-3
-1.692, 4.248e-3
-1.691, 4.210e-3
-1.690, 4.189e-3
-1.689, 4.160e-3
-1.688, 4.129e-3
-1.687, 4.091e-3
-1.686, 4.060e-3
-1.685, 4.021e-3
-1.684, 3.983e-3
-1.683, 3.945e-3
-1.682, 3.910e-3
-1.681, 3.870e-3
-1.680, 3.832e-3
-1.679, 3.793e-3
-1.678, 3.751e-3
-1.677, 3.715e-3
-1.676, 3.683e-3
-1.675, 3.651e-3
-1.674, 3.615e-3
-1.673, 3.579e-3
-1.672, 3.547e-3
-1.671, 3.512e-3
-1.670, 3.477e-3
-1.669, 3.437e-3
-1.668, 3.402e-3
-1.667, 3.366e-3
-1.666, 3.331e-3
-1.665, 3.292e-3
-1.664, 3.254e-3
-1.663, 3.221e-3
-1.662, 3.181e-3
-1.661, 3.143e-3
-1.660, 3.125e-3
-1.659, 3.101e-3
-1.658, 3.074e-3
-1.657, 3.039e-3
-1.656, 3.001e-3
-1.655, 2.961e-3
-1.654, 2.919e-3
-1.653, 2.873e-3
-1.652, 2.826e-3
-1.651, 2.787e-3
-1.650, 2.749e-3
-1.649, 2.720e-3
-1.648, 2.691e-3
-1.647, 2.655e-3
-1.646, 2.625e-3
-1.645, 2.598e-3
-1.644, 2.574e-3
-1.643, 2.543e-3
-1.642, 2.512e-3
-1.641, 2.484e-3
-1.640, 2.454e-3
-1.639, 2.424e-3
-1.638, 2.395e-3
-1.637, 2.367e-3
-1.636, 2.339e-3
-1.635, 2.313e-3
-1.634, 2.288e-3
-1.633, 2.257e-3
-1.632, 2.229e-3
-1.631, 2.202e-3
-1.630, 2.174e-3
-1.629, 2.146e-3
-1.628, 2.116e-3
-1.627, 2.090e-3
-1.626, 2.062e-3
-1.625, 2.032e-3
-1.624, 2.009e-3
-1.623, 1.985e-3
-1.622, 1.959e-3
-1.621, 1.932e-3
-1.620, 1.908e-3
-1.619, 1.884e-3
-1.618, 1.859e-3
-1.617, 1.834e-3
-1.616, 1.810e-3
-1.615, 1.786e-3
-1.614, 1.765e-3
-1.613, 1.743e-3
-1.612, 1.720e-3
-1.611, 1.696e-3
-1.610, 1.671e-3
-1.609, 1.647e-3
-1.608, 1.624e-3
-1.607, 1.606e-3
-1.606, 1.586e-3
-1.605, 1.563e-3
-1.604, 1.539e-3
-1.603, 1.514e-3
-1.602, 1.484e-3
-1.601, 1.453e-3
-1.600, 1.428e-3
-1.599, 1.408e-3
-1.598, 1.386e-3
-1.597, 1.365e-3
-1.596, 1.347e-3
-1.595, 1.327e-3
-1.594, 1.308e-3
-1.593, 1.288e-3
-1.592, 1.270e-3
-1.591, 1.250e-3
-1.590, 1.232e-3
-1.589, 1.214e-3
-1.588, 1.198e-3
-1.587, 1.179e-3
-1.586, 1.161e-3
-1.585, 1.142e-3
-1.584, 1.125e-3
-1.583, 1.107e-3
-1.582, 1.089e-3
-1.581, 1.072e-3
-1.580, 1.068e-3
-1.579, 1.051e-3
-1.578, 1.051e-3
-1.577, 1.028e-3
-1.576, 1.011e-3
-1.575, 9.914e-4
-1.574, 9.783e-4
-1.573, 9.656e-4
-1.572, 9.504e-4
-1.571, 9.352e-4
-1.570, 9.222e-4
-1.569, 9.091e-4
-1.568, 8.907e-4
-1.567, 8.764e-4
-1.566, 8.693e-4
-1.565, 8.560e-4
-1.564, 8.373e-4
-1.563, 8.209e-4
-1.562, 8.136e-4
-1.561, 8.009e-4
-1.560, 7.860e-4
-1.559, 7.737e-4
-1.558, 7.618e-4
-1.557, 7.510e-4
-1.556, 7.384e-4
-1.555, 7.242e-4
-1.554, 7.117e-4
-1.553, 7.015e-4
-1.552, 6.897e-4
-1.551, 6.778e-4
-1.550, 6.662e-4
-1.549, 6.564e-4
-1.548, 6.441e-4
-1.547, 6.328e-4
-1.546, 6.236e-4
-1.545, 6.150e-4
-1.544, 6.044e-4
-1.543, 5.942e-4
-1.542, 5.843e-4
-1.541, 5.752e-4
-1.540, 5.654e-4
-1.539, 5.553e-4
-1.538, 5.460e-4
-1.537, 5.363e-4
-1.536, 5.265e-4
-1.535, 5.174e-4
-1.534, 5.072e-4
-1.533, 4.978e-4
-1.532, 4.896e-4
-1.531, 4.822e-4
-1.530, 4.724e-4
-1.529, 4.637e-4
-1.528, 4.546e-4
-1.527, 4.460e-4
-1.526, 4.382e-4
-1.525, 4.315e-4
-1.524, 4.239e-4
-1.523, 4.162e-4
-1.522, 4.089e-4
-1.521, 4.020e-4
-1.520, 3.951e-4
-1.519, 3.880e-4
-1.518, 3.809e-4
-1.517, 3.737e-4
-1.516, 3.670e-4
-1.515, 3.599e-4
-1.514, 3.533e-4
-1.513, 3.467e-4
-1.512, 3.406e-4
-1.511, 3.339e-4
-1.510, 3.277e-4
-1.509, 3.219e-4
-1.508, 3.157e-4
-1.507, 3.096e-4
-1.506, 3.040e-4
-1.505, 2.981e-4
-1.504, 2.924e-4
-1.503, 2.868e-4
-1.502, 2.810e-4
-1.501, 2.758e-4
-1.500, 2.703e-4
-1.499, 2.649e-4
-1.498, 2.603e-4
-1.497, 2.551e-4
-1.496, 2.503e-4
-1.495, 2.454e-4
-1.494, 2.402e-4
-1.493, 2.358e-4
-1.492, 2.313e-4
-1.491, 2.266e-4
-1.490, 2.221e-4
-1.489, 2.174e-4
-1.488, 2.137e-4
-1.487, 2.096e-4
-1.486, 2.045e-4
-1.485, 1.996e-4
-1.484, 1.969e-4
-1.483, 1.931e-4
-1.482, 1.882e-4
-1.481, 1.841e-4
-1.480, 1.813e-4
-1.479, 1.767e-4
-1.478, 1.712e-4
-1.477, 1.683e-4
-1.476, 1.655e-4
-1.475, 1.616e-4
-1.474, 1.580e-4
-1.473, 1.552e-4
-1.472, 1.517e-4
-1.471, 1.484e-4
-1.470, 1.447e-4
-1.469, 1.420e-4
-1.468, 1.391e-4
-1.467, 1.358e-4
-1.466, 1.331e-4
-1.465, 1.300e-4
-1.464, 1.270e-4
-1.463, 1.245e-4
-1.462, 1.215e-4
-1.461, 1.189e-4
-1.460, 1.167e-4
-1.459, 1.140e-4
-1.458, 1.120e-4
-1.457, 1.095e-4
-1.456, 1.067e-4
-1.455, 1.044e-4
-1.454, 1.016e-4
-1.453, 9.948e-5
-1.452, 9.720e-5
-1.451, 9.499e-5
-1.450, 9.259e-5
-1.449, 9.053e-5
-1.448, 8.860e-5
-1.447, 8.617e-5
-1.446, 8.386e-5
-1.445, 8.218e-5
-1.444, 7.999e-5
-1.443, 7.813e-5
-1.442, 7.618e-5
-1.441, 7.424e-5
-1.440, 7.240e-5
-1.439, 7.089e-5
-1.438, 6.910e-5
-1.437, 6.700e-5
-1.436, 6.550e-5
-1.435, 6.386e-5
-1.434, 6.166e-5
-1.433, 6.023e-5
-1.432, 5.877e-5
-1.431, 5.720e-5
-1.430, 5.543e-5
-1.429, 5.433e-5
-1.428, 5.311e-5
-1.427, 5.114e-5
-1.426, 5.003e-5
-1.425, 4.861e-5
-1.424, 4.696e-5
-1.423, 4.571e-5
-1.422, 4.434e-5
-1.421, 4.331e-5
-1.420, 4.191e-5
-1.419, 4.077e-5
-1.418, 3.980e-5
-1.417, 3.780e-5
-1.416, 3.739e-5
-1.415, 3.600e-5
-1.414, 3.451e-5
-1.413, 3.374e-5
-1.412, 3.260e-5
-1.411, 3.138e-5
-1.410, 3.040e-5
-1.409, 2.937e-5
-1.408, 2.848e-5
-1.407, 2.731e-5
-1.406, 2.637e-5
-1.405, 2.555e-5
-1.404, 2.454e-5
-1.403, 2.373e-5
-1.402, 2.261e-5
-1.401, 2.211e-5
-1.400, 2.096e-5
-1.399, 2.017e-5
-1.398, 1.957e-5
-1.397, 1.828e-5
-1.396, 1.797e-5
-1.395, 1.709e-5
-1.394, 1.607e-5
-1.393, 1.542e-5
-1.392, 1.471e-5
-1.391, 1.401e-5
-1.390, 1.318e-5
-1.389, 1.277e-5
-1.388, 1.203e-5
-1.387, 1.109e-5
-1.386, 1.064e-5
-1.385, 1.011e-5
-1.384, 9.114e-6
-1.383, 8.473e-6
-1.382, 7.822e-6
-1.381, 7.407e-6
-1.380, 6.884e-6
-1.379, 6.421e-6
-1.378, 5.730e-6
-1.377, 4.921e-6
-1.376, 4.892e-6
-1.375, 4.369e-6
-1.374, 3.510e-6
-1.373, 3.441e-6
-1.372, 3.027e-6
-1.371, 2.573e-6
-1.370, 2.030e-6
-1.369, 1.458e-6
-1.368, 1.409e-6
-1.367, 7.380e-7
-1.366, 5.308e-7
-1.365, 2.743e-7
-1.364, -4.163e-7
-1.363, -6.630e-7
-1.362, -1.097e-6
-1.361, -1.255e-6
-1.360, -1.896e-6
-1.359, -1.867e-6
-1.358, -2.577e-6
-1.357, -3.041e-6
-1.356, -3.090e-6
-1.355, -3.218e-6
-1.354, -3.820e-6
-1.353, -4.284e-6
-1.352, -4.511e-6
-1.351, -4.619e-6
-1.350, -5.201e-6
-1.349, -5.201e-6
-1.348, -5.685e-6
-1.347, -6.247e-6
-1.346, -5.951e-6
-1.345, -6.494e-6
-1.344, -6.701e-6
-1.343, -6.908e-6
-1.342, -7.313e-6
-1.341, -7.056e-6
-1.340, -7.648e-6
-1.339, -8.122e-6
-1.338, -7.865e-6
-1.337, -8.536e-6
-1.336, -8.388e-6
-1.335, -8.674e-6
-1.334, -9.177e-6
-1.333, -9.227e-6
-1.332, -9.237e-6
-1.331, -9.542e-6
-1.330, -9.819e-6
-1.329, -9.809e-6
-1.328, -9.868e-6
-1.327, -1.025e-5
-1.326, -1.051e-5
-1.325, -1.045e-5
-1.324, -1.099e-5
-1.323, -1.079e-5
-1.322, -1.088e-5
-1.321, -1.128e-5
-1.320, -1.136e-5
-1.319, -1.146e-5
-1.318, -1.162e-5
-1.317, -1.185e-5
-1.316, -1.167e-5
-1.315, -1.183e-5
-1.314, -1.228e-5
-1.313, -1.224e-5
-1.312, -1.229e-5
-1.311, -1.225e-5
-1.310, -1.276e-5
-1.309, -1.280e-5
-1.308, -1.270e-5
-1.307, -1.307e-5
-1.306, -1.269e-5
-1.305, -1.300e-5
-1.304, -1.338e-5
-1.303, -1.332e-5
-1.302, -1.357e-5
-1.301, -1.331e-5
-1.300, -1.362e-5
-1.299, -1.386e-5
-1.298, -1.350e-5
-1.297, -1.404e-5
-1.296, -1.367e-5
-1.295, -1.385e-5
-1.294, -1.429e-5
-1.293, -1.410e-5
-1.292, -1.420e-5
-1.291, -1.428e-5
-1.290, -1.429e-5
-1.289, -1.454e-5
-1.288, -1.436e-5
-1.287, -1.477e-5
-1.286, -1.476e-5
-1.285, -1.435e-5
-1.284, -1.491e-5
-1.283, -1.479e-5
-1.282, -1.470e-5
-1.281, -1.473e-5
-1.280, -1.515e-5
-1.279, -1.490e-5
-1.278, -1.502e-5
-1.277, -1.517e-5
-1.276, -1.513e-5
-1.275, -1.511e-5
-1.274, -1.534e-5
-1.273, -1.511e-5
-1.272, -1.542e-5
-1.271, -1.528e-5
-1.270, -1.556e-5
-1.269, -1.542e-5
-1.268, -1.552e-5
-1.267, -1.589e-5
-1.266, -1.566e-5
-1.265, -1.554e-5
-1.264, -1.589e-5
-1.263, -1.569e-5
-1.262, -1.597e-5
-1.261, -1.580e-5
-1.260, -1.596e-5
-1.259, -1.597e-5
-1.258, -1.585e-5
-1.257, -1.621e-5
-1.256, -1.589e-5
-1.255, -1.591e-5
-1.254, -1.651e-5
-1.253, -1.593e-5
-1.252, -1.605e-5
-1.251, -1.624e-5
-1.250, -1.608e-5
-1.249, -1.629e-5
-1.248, -1.624e-5
-1.247, -1.627e-5
-1.246, -1.642e-5
-1.245, -1.609e-5
-1.244, -1.644e-5
-1.243, -1.618e-5
-1.242, -1.601e-5
-1.241, -1.625e-5
-1.240, -1.621e-5
-1.239, -1.624e-5
-1.238, -1.624e-5
-1.237, -1.626e-5
-1.236, -1.603e-5
-1.235, -1.617e-5
-1.234, -1.639e-5
-1.233, -1.623e-5
-1.232, -1.607e-5
-1.231, -1.628e-5
-1.230, -1.636e-5
-1.229, -1.635e-5
-1.228, -1.615e-5
-1.227, -1.674e-5
-1.226, -1.632e-5
-1.225, -1.644e-5
-1.224, -1.674e-5
-1.223, -1.618e-5
-1.222, -1.652e-5
-1.221, -1.641e-5
-1.220, -1.639e-5
-1.219, -1.649e-5
-1.218, -1.643e-5
-1.217, -1.677e-5
-1.216, -1.652e-5
-1.215, -1.644e-5
-1.214, -1.671e-5
-1.213, -1.644e-5
-1.212, -1.653e-5
-1.211, -1.668e-5
-1.210, -1.669e-5
-1.209, -1.659e-5
-1.208, -1.663e-5
-1.207, -1.682e-5
-1.206, -1.678e-5
-1.205, -1.655e-5
-1.204, -1.677e-5
-1.203, -1.689e-5
-1.202, -1.685e-5
-1.201, -1.685e-5
-1.200, -1.675e-5
-1.199, -1.682e-5
-1.198, -1.670e-5
-1.197, -1.718e-5
-1.196, -1.688e-5
-1.195, -1.705e-5
-1.194, -1.699e-5
-1.193, -1.717e-5
-1.192, -1.693e-5
-1.191, -1.698e-5
-1.190, -1.740e-5
-1.189, -1.704e-5
-1.188, -1.719e-5
-1.187, -1.735e-5
-1.186, -1.709e-5
-1.185, -1.697e-5
-1.184, -1.710e-5
-1.183, -1.693e-5
-1.182, -1.710e-5
-1.181, -1.692e-5
-1.180, -1.704e-5
-1.179, -1.717e-5
-1.178, -1.727e-5
-1.177, -1.703e-5
-1.176, -1.712e-5
-1.175, -1.678e-5
-1.174, -1.730e-5
-1.173, -1.704e-5
-1.172, -1.723e-5
-1.171, -1.718e-5
-1.170, -1.737e-5
-1.169, -1.731e-5
-1.168, -1.700e-5
-1.167, -1.731e-5
-1.166, -1.719e-5
-1.165, -1.700e-5
-1.164, -1.744e-5
-1.163, -1.738e-5
-1.162, -1.746e-5
-1.161, -1.721e-5
-1.160, -1.725e-5
-1.159, -1.723e-5
-1.158, -1.728e-5
-1.157, -1.742e-5
-1.156, -1.721e-5
-1.155, -1.724e-5
-1.154, -1.762e-5
-1.153, -1.745e-5
-1.152, -1.744e-5
-1.151, -1.747e-5
-1.150, -1.763e-5
-1.149, -1.734e-5
-1.148, -1.736e-5
-1.147, -1.778e-5
-1.146, -1.757e-5
-1.145, -1.757e-5
-1.144, -1.781e-5
-1.143, -1.772e-5
-1.142, -1.789e-5
-1.141, -1.762e-5
-1.140, -1.786e-5
-1.139, -1.781e-5
-1.138, -1.786e-5
-1.137, -1.805e-5
-1.136, -1.772e-5
-1.135, -1.770e-5
-1.134, -1.830e-5
-1.133, -1.801e-5
-1.132, -1.796e-5
-1.131, -1.791e-5
-1.130, -1.808e-5
-1.129, -1.801e-5
-1.128, -1.796e-5
-1.127, -1.822e-5
-1.126, -1.818e-5
-1.125, -1.818e-5
-1.124, -1.806e-5
-1.123, -1.829e-5
-1.122, -1.812e-5
-1.121, -1.821e-5
-1.120, -1.827e-5
-1.119, -1.819e-5
-1.118, -1.838e-5
-1.117, -1.838e-5
-1.116, -1.828e-5
-1.115, -1.830e-5
-1.114, -1.865e-5
-1.113, -1.844e-5
-1.112, -1.843e-5
-1.111, -1.840e-5
-1.110, -1.858e-5
-1.109, -1.841e-5
-1.108, -1.855e-5
-1.107, -1.892e-5
-1.106, -1.852e-5
-1.105, -1.870e-5
-1.104, -1.883e-5
-1.103, -1.870e-5
-1.102, -1.877e-5
-1.101, -1.886e-5
-1.100, -1.889e-5
-1.099, -1.897e-5
-1.098, -1.883e-5
-1.097, -1.937e-5
-1.096, -1.906e-5
-1.095, -1.890e-5
-1.094, -1.953e-5
-1.093, -1.908e-5
-1.092, -1.920e-5
-1.091, -1.923e-5
-1.090, -1.933e-5
-1.089, -1.908e-5
-1.088, -1.927e-5
-1.087, -1.967e-5
-1.086, -1.950e-5
-1.085, -1.927e-5
-1.084, -1.966e-5
-1.083, -1.970e-5
-1.082, -1.946e-5
-1.081, -1.982e-5
-1.080, -1.979e-5
-1.079, -1.949e-5
-1.078, -1.977e-5
-1.077, -1.980e-5
-1.076, -1.981e-5
-1.075, -1.984e-5
-1.074, -2.028e-5
-1.073, -2.001e-5
-1.072, -1.991e-5
-1.071, -1.985e-5
-1.070, -2.018e-5
-1.069, -2.018e-5
-1.068, -2.020e-5
-1.067, -2.047e-5
-1.066, -2.014e-5
-1.065, -2.007e-5
-1.064, -2.054e-5
-1.063, -2.034e-5
-1.062, -2.074e-5
-1.061, -2.061e-5
-1.060, -2.054e-5
-1.059, -2.061e-5
-1.058, -2.059e-5
-1.057, -2.071e-5
-1.056, -2.067e-5
-1.055, -2.054e-5
-1.054, -2.147e-5
-1.053, -2.101e-5
-1.052, -2.095e-5
-1.051, -2.114e-5
-1.050, -2.121e-5
-1.049, -2.140e-5
-1.048, -2.130e-5
-1.047, -2.159e-5
-1.046, -2.139e-5
-1.045, -2.115e-5
-1.044, -2.158e-5
-1.043, -2.174e-5
-1.042, -2.161e-5
-1.041, -2.192e-5
-1.040, -2.178e-5
-1.039, -2.163e-5
-1.038, -2.192e-5
-1.037, -2.221e-5
-1.036, -2.172e-5
-1.035, -2.179e-5
-1.034, -2.225e-5
-1.033, -2.205e-5
-1.032, -2.211e-5
-1.031, -2.219e-5
-1.030, -2.243e-5
-1.029, -2.225e-5
-1.028, -2.246e-5
-1.027, -2.266e-5
-1.026, -2.259e-5
-1.025, -2.260e-5
-1.024, -2.296e-5
-1.023, -2.283e-5
-1.022, -2.290e-5
-1.021, -2.303e-5
-1.020, -2.314e-5
-1.019, -2.319e-5
-1.018, -2.298e-5
-1.017, -2.368e-5
-1.016, -2.315e-5
-1.015, -2.330e-5
-1.014, -2.391e-5
-1.013, -2.336e-5
-1.012, -2.379e-5
-1.011, -2.385e-5
-1.010, -2.389e-5
-1.009, -2.394e-5
-1.008, -2.395e-5
-1.007, -2.425e-5
-1.006, -2.393e-5
-1.005, -2.397e-5
-1.004, -2.434e-5
-1.003, -2.440e-5
-1.002, -2.434e-5
-1.001, -2.464e-5
