Aug. 12, 2024   05:20:19
Cyclic Voltammetry
File: c:/users/guazh/data/20240802_batch_500/2024-08-02-exp89\exp89-2024-08-12t05_00_33-arkoh\exp89_cv_sr_200mvs_efin_-1900mv.bin
Data Source:  Experiment
Instrument Model:  CHI760E
Header: CV ran at 200 mVs
Note: 

Init E (V) = -1
High E (V) = -1
Low E (V) = -1.9
Final E (V) = -1
Init P/N = N
Scan Rate (V/s) = 0.2
Segment = 3
Sample Interval (V) = 0.001
Quiet Time (sec) = 2
Sensitivity (A/V) = 0.01
Comp R (ohm) = 2.0

Results:

Channel 1:
Segment 1:

Segment 2:

Segment 3:

Potential/V, Current/A

-1.000, -8.504e-7
-1.001, 9.945e-7
-1.002, 1.547e-6
-1.003, 1.843e-6
-1.004, 2.149e-6
-1.005, 3.066e-6
-1.006, 2.918e-6
-1.007, 3.076e-6
-1.008, 3.708e-6
-1.009, 3.520e-6
-1.010, 3.688e-6
-1.011, 4.309e-6
-1.012, 4.448e-6
-1.013, 4.290e-6
-1.014, 4.369e-6
-1.015, 5.148e-6
-1.016, 4.951e-6
-1.017, 4.783e-6
-1.018, 5.414e-6
-1.019, 5.444e-6
-1.020, 5.128e-6
-1.021, 5.602e-6
-1.022, 5.720e-6
-1.023, 5.641e-6
-1.024, 5.750e-6
-1.025, 6.302e-6
-1.026, 5.987e-6
-1.027, 5.967e-6
-1.028, 6.539e-6
-1.029, 6.470e-6
-1.030, 6.026e-6
-1.031, 6.806e-6
-1.032, 6.707e-6
-1.033, 6.362e-6
-1.034, 6.529e-6
-1.035, 7.102e-6
-1.036, 6.796e-6
-1.037, 6.796e-6
-1.038, 7.289e-6
-1.039, 7.052e-6
-1.040, 7.121e-6
-1.041, 7.407e-6
-1.042, 7.378e-6
-1.043, 7.240e-6
-1.044, 7.269e-6
-1.045, 7.644e-6
-1.046, 7.575e-6
-1.047, 7.319e-6
-1.048, 7.851e-6
-1.049, 7.555e-6
-1.050, 7.417e-6
-1.051, 8.266e-6
-1.052, 7.940e-6
-1.053, 7.832e-6
-1.054, 7.891e-6
-1.055, 8.315e-6
-1.056, 7.960e-6
-1.057, 7.930e-6
-1.058, 8.493e-6
-1.059, 8.206e-6
-1.060, 8.029e-6
-1.061, 8.502e-6
-1.062, 8.552e-6
-1.063, 8.345e-6
-1.064, 8.197e-6
-1.065, 8.789e-6
-1.066, 8.384e-6
-1.067, 8.285e-6
-1.068, 8.907e-6
-1.069, 8.739e-6
-1.070, 8.453e-6
-1.071, 8.769e-6
-1.072, 8.779e-6
-1.073, 8.670e-6
-1.074, 8.749e-6
-1.075, 9.223e-6
-1.076, 8.877e-6
-1.077, 8.670e-6
-1.078, 9.351e-6
-1.079, 9.094e-6
-1.080, 8.818e-6
-1.081, 9.341e-6
-1.082, 9.193e-6
-1.083, 9.085e-6
-1.084, 9.055e-6
-1.085, 9.479e-6
-1.086, 9.094e-6
-1.087, 8.927e-6
-1.088, 9.696e-6
-1.089, 9.302e-6
-1.090, 9.124e-6
-1.091, 9.558e-6
-1.092, 9.341e-6
-1.093, 9.213e-6
-1.094, 9.302e-6
-1.095, 9.755e-6
-1.096, 9.311e-6
-1.097, 9.213e-6
-1.098, 9.746e-6
-1.099, 9.499e-6
-1.100, 9.381e-6
-1.101, 9.785e-6
-1.102, 9.538e-6
-1.103, 9.400e-6
-1.104, 9.489e-6
-1.105, 1.006e-5
-1.106, 9.657e-6
-1.107, 9.499e-6
-1.108, 9.913e-6
-1.109, 9.568e-6
-1.110, 9.489e-6
-1.111, 9.874e-6
-1.112, 9.785e-6
-1.113, 9.667e-6
-1.114, 9.825e-6
-1.115, 9.963e-6
-1.116, 9.607e-6
-1.117, 9.795e-6
-1.118, 9.963e-6
-1.119, 9.677e-6
-1.120, 9.647e-6
-1.121, 9.943e-6
-1.122, 1.000e-5
-1.123, 9.815e-6
-1.124, 9.617e-6
-1.125, 1.000e-5
-1.126, 9.677e-6
-1.127, 9.598e-6
-1.128, 1.015e-5
-1.129, 9.765e-6
-1.130, 9.607e-6
-1.131, 9.913e-6
-1.132, 9.992e-6
-1.133, 9.765e-6
-1.134, 9.933e-6
-1.135, 1.016e-5
-1.136, 9.844e-6
-1.137, 9.598e-6
-1.138, 1.017e-5
-1.139, 9.765e-6
-1.140, 9.834e-6
-1.141, 1.016e-5
-1.142, 9.923e-6
-1.143, 9.765e-6
-1.144, 9.726e-6
-1.145, 1.005e-5
-1.146, 9.716e-6
-1.147, 9.716e-6
-1.148, 1.011e-5
-1.149, 9.864e-6
-1.150, 9.627e-6
-1.151, 1.003e-5
-1.152, 1.006e-5
-1.153, 9.834e-6
-1.154, 9.785e-6
-1.155, 1.036e-5
-1.156, 9.696e-6
-1.157, 9.667e-6
-1.158, 1.020e-5
-1.159, 9.637e-6
-1.160, 9.578e-6
-1.161, 1.006e-5
-1.162, 9.992e-6
-1.163, 9.677e-6
-1.164, 9.716e-6
-1.165, 1.011e-5
-1.166, 9.834e-6
-1.167, 9.489e-6
-1.168, 1.016e-5
-1.169, 9.785e-6
-1.170, 9.657e-6
-1.171, 9.923e-6
-1.172, 9.884e-6
-1.173, 9.686e-6
-1.174, 9.519e-6
-1.175, 1.002e-5
-1.176, 9.706e-6
-1.177, 9.637e-6
-1.178, 1.003e-5
-1.179, 9.963e-6
-1.180, 9.726e-6
-1.181, 9.953e-6
-1.182, 9.775e-6
-1.183, 9.686e-6
-1.184, 9.716e-6
-1.185, 1.008e-5
-1.186, 9.578e-6
-1.187, 9.538e-6
-1.188, 1.003e-5
-1.189, 9.686e-6
-1.190, 9.578e-6
-1.191, 1.000e-5
-1.192, 9.736e-6
-1.193, 9.469e-6
-1.194, 9.696e-6
-1.195, 9.963e-6
-1.196, 9.755e-6
-1.197, 9.538e-6
-1.198, 9.815e-6
-1.199, 9.548e-6
-1.200, 9.459e-6
-1.201, 9.884e-6
-1.202, 9.677e-6
-1.203, 9.617e-6
-1.204, 9.519e-6
-1.205, 9.854e-6
-1.206, 9.538e-6
-1.207, 9.598e-6
-1.208, 1.003e-5
-1.209, 9.568e-6
-1.210, 9.607e-6
-1.211, 9.834e-6
-1.212, 9.815e-6
-1.213, 9.667e-6
-1.214, 9.627e-6
-1.215, 1.000e-5
-1.216, 9.765e-6
-1.217, 9.489e-6
-1.218, 9.963e-6
-1.219, 9.479e-6
-1.220, 9.627e-6
-1.221, 9.736e-6
-1.222, 9.736e-6
-1.223, 9.637e-6
-1.224, 9.558e-6
-1.225, 1.002e-5
-1.226, 9.726e-6
-1.227, 9.538e-6
-1.228, 9.923e-6
-1.229, 9.953e-6
-1.230, 9.854e-6
-1.231, 1.011e-5
-1.232, 1.003e-5
-1.233, 9.657e-6
-1.234, 9.765e-6
-1.235, 1.002e-5
-1.236, 9.834e-6
-1.237, 9.716e-6
-1.238, 1.023e-5
-1.239, 9.607e-6
-1.240, 9.765e-6
-1.241, 9.973e-6
-1.242, 1.010e-5
-1.243, 9.834e-6
-1.244, 9.765e-6
-1.245, 1.024e-5
-1.246, 9.884e-6
-1.247, 9.913e-6
-1.248, 1.036e-5
-1.249, 9.933e-6
-1.250, 9.864e-6
-1.251, 1.017e-5
-1.252, 1.004e-5
-1.253, 9.963e-6
-1.254, 9.815e-6
-1.255, 1.016e-5
-1.256, 1.007e-5
-1.257, 9.844e-6
-1.258, 1.023e-5
-1.259, 1.006e-5
-1.260, 9.805e-6
-1.261, 1.025e-5
-1.262, 1.014e-5
-1.263, 1.006e-5
-1.264, 9.864e-6
-1.265, 1.033e-5
-1.266, 1.018e-5
-1.267, 9.884e-6
-1.268, 1.035e-5
-1.269, 1.014e-5
-1.270, 1.009e-5
-1.271, 1.043e-5
-1.272, 1.017e-5
-1.273, 1.041e-5
-1.274, 1.005e-5
-1.275, 1.066e-5
-1.276, 1.027e-5
-1.277, 1.007e-5
-1.278, 1.056e-5
-1.279, 1.031e-5
-1.280, 1.042e-5
-1.281, 1.050e-5
-1.282, 1.058e-5
-1.283, 1.037e-5
-1.284, 1.039e-5
-1.285, 1.096e-5
-1.286, 1.053e-5
-1.287, 1.041e-5
-1.288, 1.071e-5
-1.289, 1.048e-5
-1.290, 1.055e-5
-1.291, 1.059e-5
-1.292, 1.066e-5
-1.293, 1.056e-5
-1.294, 1.047e-5
-1.295, 1.103e-5
-1.296, 1.085e-5
-1.297, 1.064e-5
-1.298, 1.102e-5
-1.299, 1.081e-5
-1.300, 1.095e-5
-1.301, 1.105e-5
-1.302, 1.102e-5
-1.303, 1.081e-5
-1.304, 1.089e-5
-1.305, 1.122e-5
-1.306, 1.124e-5
-1.307, 1.094e-5
-1.308, 1.122e-5
-1.309, 1.105e-5
-1.310, 1.122e-5
-1.311, 1.128e-5
-1.312, 1.124e-5
-1.313, 1.114e-5
-1.314, 1.119e-5
-1.315, 1.151e-5
-1.316, 1.116e-5
-1.317, 1.100e-5
-1.318, 1.165e-5
-1.319, 1.153e-5
-1.320, 1.153e-5
-1.321, 1.182e-5
-1.322, 1.174e-5
-1.323, 1.163e-5
-1.324, 1.150e-5
-1.325, 1.197e-5
-1.326, 1.160e-5
-1.327, 1.171e-5
-1.328, 1.201e-5
-1.329, 1.172e-5
-1.330, 1.179e-5
-1.331, 1.191e-5
-1.332, 1.209e-5
-1.333, 1.206e-5
-1.334, 1.202e-5
-1.335, 1.241e-5
-1.336, 1.206e-5
-1.337, 1.210e-5
-1.338, 1.257e-5
-1.339, 1.235e-5
-1.340, 1.239e-5
-1.341, 1.252e-5
-1.342, 1.239e-5
-1.343, 1.230e-5
-1.344, 1.256e-5
-1.345, 1.310e-5
-1.346, 1.277e-5
-1.347, 1.245e-5
-1.348, 1.300e-5
-1.349, 1.281e-5
-1.350, 1.287e-5
-1.351, 1.313e-5
-1.352, 1.289e-5
-1.353, 1.289e-5
-1.354, 1.294e-5
-1.355, 1.328e-5
-1.356, 1.300e-5
-1.357, 1.294e-5
-1.358, 1.355e-5
-1.359, 1.329e-5
-1.360, 1.333e-5
-1.361, 1.341e-5
-1.362, 1.334e-5
-1.363, 1.344e-5
-1.364, 1.372e-5
-1.365, 1.406e-5
-1.366, 1.366e-5
-1.367, 1.362e-5
-1.368, 1.404e-5
-1.369, 1.386e-5
-1.370, 1.375e-5
-1.371, 1.412e-5
-1.372, 1.411e-5
-1.373, 1.420e-5
-1.374, 1.408e-5
-1.375, 1.445e-5
-1.376, 1.420e-5
-1.377, 1.420e-5
-1.378, 1.455e-5
-1.379, 1.446e-5
-1.380, 1.463e-5
-1.381, 1.469e-5
-1.382, 1.485e-5
-1.383, 1.491e-5
-1.384, 1.472e-5
-1.385, 1.512e-5
-1.386, 1.507e-5
-1.387, 1.492e-5
-1.388, 1.547e-5
-1.389, 1.523e-5
-1.390, 1.518e-5
-1.391, 1.528e-5
-1.392, 1.558e-5
-1.393, 1.549e-5
-1.394, 1.546e-5
-1.395, 1.604e-5
-1.396, 1.570e-5
-1.397, 1.560e-5
-1.398, 1.593e-5
-1.399, 1.591e-5
-1.400, 1.588e-5
-1.401, 1.622e-5
-1.402, 1.626e-5
-1.403, 1.622e-5
-1.404, 1.640e-5
-1.405, 1.690e-5
-1.406, 1.650e-5
-1.407, 1.638e-5
-1.408, 1.705e-5
-1.409, 1.667e-5
-1.410, 1.667e-5
-1.411, 1.700e-5
-1.412, 1.726e-5
-1.413, 1.702e-5
-1.414, 1.716e-5
-1.415, 1.750e-5
-1.416, 1.730e-5
-1.417, 1.723e-5
-1.418, 1.776e-5
-1.419, 1.739e-5
-1.420, 1.760e-5
-1.421, 1.778e-5
-1.422, 1.788e-5
-1.423, 1.801e-5
-1.424, 1.768e-5
-1.425, 1.853e-5
-1.426, 1.793e-5
-1.427, 1.817e-5
-1.428, 1.873e-5
-1.429, 1.839e-5
-1.430, 1.855e-5
-1.431, 1.873e-5
-1.432, 1.897e-5
-1.433, 1.876e-5
-1.434, 1.902e-5
-1.435, 1.931e-5
-1.436, 1.912e-5
-1.437, 1.920e-5
-1.438, 1.948e-5
-1.439, 1.951e-5
-1.440, 1.950e-5
-1.441, 1.976e-5
-1.442, 1.996e-5
-1.443, 1.982e-5
-1.444, 1.980e-5
-1.445, 2.021e-5
-1.446, 2.001e-5
-1.447, 2.013e-5
-1.448, 2.058e-5
-1.449, 2.050e-5
-1.450, 2.049e-5
-1.451, 2.071e-5
-1.452, 2.096e-5
-1.453, 2.076e-5
-1.454, 2.073e-5
-1.455, 2.130e-5
-1.456, 2.109e-5
-1.457, 2.106e-5
-1.458, 2.153e-5
-1.459, 2.166e-5
-1.460, 2.152e-5
-1.461, 2.176e-5
-1.462, 2.186e-5
-1.463, 2.182e-5
-1.464, 2.184e-5
-1.465, 2.225e-5
-1.466, 2.240e-5
-1.467, 2.213e-5
-1.468, 2.254e-5
-1.469, 2.249e-5
-1.470, 2.253e-5
-1.471, 2.302e-5
-1.472, 2.316e-5
-1.473, 2.289e-5
-1.474, 2.291e-5
-1.475, 2.350e-5
-1.476, 2.357e-5
-1.477, 2.323e-5
-1.478, 2.377e-5
-1.479, 2.378e-5
-1.480, 2.361e-5
-1.481, 2.402e-5
-1.482, 2.419e-5
-1.483, 2.412e-5
-1.484, 2.401e-5
-1.485, 2.467e-5
-1.486, 2.457e-5
-1.487, 2.451e-5
-1.488, 2.520e-5
-1.489, 2.484e-5
-1.490, 2.498e-5
-1.491, 2.524e-5
-1.492, 2.554e-5
-1.493, 2.551e-5
-1.494, 2.551e-5
-1.495, 2.605e-5
-1.496, 2.582e-5
-1.497, 2.587e-5
-1.498, 2.641e-5
-1.499, 2.636e-5
-1.500, 2.621e-5
-1.501, 2.686e-5
-1.502, 2.697e-5
-1.503, 2.687e-5
-1.504, 2.678e-5
-1.505, 2.750e-5
-1.506, 2.739e-5
-1.507, 2.725e-5
-1.508, 2.799e-5
-1.509, 2.775e-5
-1.510, 2.785e-5
-1.511, 2.819e-5
-1.512, 2.826e-5
-1.513, 2.852e-5
-1.514, 2.853e-5
-1.515, 2.918e-5
-1.516, 2.907e-5
-1.517, 2.931e-5
-1.518, 2.970e-5
-1.519, 2.954e-5
-1.520, 2.966e-5
-1.521, 2.999e-5
-1.522, 3.028e-5
-1.523, 3.017e-5
-1.524, 3.042e-5
-1.525, 3.099e-5
-1.526, 3.087e-5
-1.527, 3.105e-5
-1.528, 3.154e-5
-1.529, 3.138e-5
-1.530, 3.161e-5
-1.531, 3.194e-5
-1.532, 3.208e-5
-1.533, 3.228e-5
-1.534, 3.241e-5
-1.535, 3.293e-5
-1.536, 3.286e-5
-1.537, 3.322e-5
-1.538, 3.377e-5
-1.539, 3.343e-5
-1.540, 3.377e-5
-1.541, 3.409e-5
-1.542, 3.453e-5
-1.543, 3.456e-5
-1.544, 3.469e-5
-1.545, 3.525e-5
-1.546, 3.547e-5
-1.547, 3.533e-5
-1.548, 3.603e-5
-1.549, 3.617e-5
-1.550, 3.623e-5
-1.551, 3.652e-5
-1.552, 3.709e-5
-1.553, 3.712e-5
-1.554, 3.729e-5
-1.555, 3.804e-5
-1.556, 3.810e-5
-1.557, 3.840e-5
-1.558, 3.870e-5
-1.559, 3.892e-5
-1.560, 3.904e-5
-1.561, 3.947e-5
-1.562, 4.010e-5
-1.563, 4.028e-5
-1.564, 4.037e-5
-1.565, 4.131e-5
-1.566, 4.134e-5
-1.567, 4.149e-5
-1.568, 4.229e-5
-1.569, 4.240e-5
-1.570, 4.242e-5
-1.571, 4.296e-5
-1.572, 4.358e-5
-1.573, 4.362e-5
-1.574, 4.380e-5
-1.575, 4.481e-5
-1.576, 4.470e-5
-1.577, 4.533e-5
-1.578, 4.588e-5
-1.579, 4.622e-5
-1.580, 4.647e-5
-1.581, 4.698e-5
-1.582, 4.753e-5
-1.583, 4.776e-5
-1.584, 4.821e-5
-1.585, 4.918e-5
-1.586, 4.937e-5
-1.587, 4.951e-5
-1.588, 5.044e-5
-1.589, 5.080e-5
-1.590, 5.123e-5
-1.591, 5.178e-5
-1.592, 5.236e-5
-1.593, 5.251e-5
-1.594, 5.304e-5
-1.595, 5.386e-5
-1.596, 5.419e-5
-1.597, 5.463e-5
-1.598, 5.557e-5
-1.599, 5.581e-5
-1.600, 5.629e-5
-1.601, 5.717e-5
-1.602, 5.798e-5
-1.603, 5.809e-5
-1.604, 5.852e-5
-1.605, 5.966e-5
-1.606, 6.004e-5
-1.607, 6.082e-5
-1.608, 6.150e-5
-1.609, 6.204e-5
-1.610, 6.298e-5
-1.611, 6.382e-5
-1.612, 6.462e-5
-1.613, 6.482e-5
-1.614, 6.551e-5
-1.615, 6.684e-5
-1.616, 6.720e-5
-1.617, 6.762e-5
-1.618, 6.871e-5
-1.619, 6.947e-5
-1.620, 7.028e-5
-1.621, 7.076e-5
-1.622, 7.179e-5
-1.623, 7.248e-5
-1.624, 7.329e-5
-1.625, 7.446e-5
-1.626, 7.538e-5
-1.627, 7.582e-5
-1.628, 7.725e-5
-1.629, 7.790e-5
-1.630, 7.867e-5
-1.631, 7.973e-5
-1.632, 8.102e-5
-1.633, 8.181e-5
-1.634, 8.250e-5
-1.635, 8.422e-5
-1.636, 8.497e-5
-1.637, 8.588e-5
-1.638, 8.748e-5
-1.639, 8.837e-5
-1.640, 8.931e-5
-1.641, 9.049e-5
-1.642, 9.215e-5
-1.643, 9.301e-5
-1.644, 9.400e-5
-1.645, 9.592e-5
-1.646, 9.687e-5
-1.647, 9.816e-5
-1.648, 9.971e-5
-1.649, 1.012e-4
-1.650, 1.022e-4
-1.651, 1.034e-4
-1.652, 1.052e-4
-1.653, 1.066e-4
-1.654, 1.077e-4
-1.655, 1.099e-4
-1.656, 1.111e-4
-1.657, 1.124e-4
-1.658, 1.143e-4
-1.659, 1.159e-4
-1.660, 1.174e-4
-1.661, 1.191e-4
-1.662, 1.211e-4
-1.663, 1.228e-4
-1.664, 1.246e-4
-1.665, 1.269e-4
-1.666, 1.285e-4
-1.667, 1.303e-4
-1.668, 1.327e-4
-1.669, 1.346e-4
-1.670, 1.364e-4
-1.671, 1.383e-4
-1.672, 1.409e-4
-1.673, 1.428e-4
-1.674, 1.450e-4
-1.675, 1.476e-4
-1.676, 1.499e-4
-1.677, 1.519e-4
-1.678, 1.547e-4
-1.679, 1.573e-4
-1.680, 1.596e-4
-1.681, 1.618e-4
-1.682, 1.651e-4
-1.683, 1.676e-4
-1.684, 1.700e-4
-1.685, 1.736e-4
-1.686, 1.765e-4
-1.687, 1.791e-4
-1.688, 1.825e-4
-1.689, 1.858e-4
-1.690, 1.891e-4
-1.691, 1.921e-4
-1.692, 1.958e-4
-1.693, 1.990e-4
-1.694, 2.023e-4
-1.695, 2.069e-4
-1.696, 2.102e-4
-1.697, 2.132e-4
-1.698, 2.176e-4
-1.699, 2.216e-4
-1.700, 2.252e-4
-1.701, 2.289e-4
-1.702, 2.339e-4
-1.703, 2.377e-4
-1.704, 2.419e-4
-1.705, 2.469e-4
-1.706, 2.513e-4
-1.707, 2.554e-4
-1.708, 2.607e-4
-1.709, 2.661e-4
-1.710, 2.709e-4
-1.711, 2.759e-4
-1.712, 2.817e-4
-1.713, 2.868e-4
-1.714, 2.921e-4
-1.715, 2.984e-4
-1.716, 3.038e-4
-1.717, 3.094e-4
-1.718, 3.161e-4
-1.719, 3.226e-4
-1.720, 3.284e-4
-1.721, 3.349e-4
-1.722, 3.419e-4
-1.723, 3.480e-4
-1.724, 3.550e-4
-1.725, 3.627e-4
-1.726, 3.694e-4
-1.727, 3.761e-4
-1.728, 3.841e-4
-1.729, 3.920e-4
-1.730, 3.992e-4
-1.731, 4.068e-4
-1.732, 4.156e-4
-1.733, 4.232e-4
-1.734, 4.311e-4
-1.735, 4.404e-4
-1.736, 4.488e-4
-1.737, 4.574e-4
-1.738, 4.672e-4
-1.739, 4.770e-4
-1.740, 4.858e-4
-1.741, 4.950e-4
-1.742, 5.055e-4
-1.743, 5.158e-4
-1.744, 5.254e-4
-1.745, 5.370e-4
-1.746, 5.478e-4
-1.747, 5.577e-4
-1.748, 5.688e-4
-1.749, 5.807e-4
-1.750, 5.919e-4
-1.751, 6.027e-4
-1.752, 6.150e-4
-1.753, 6.262e-4
-1.754, 6.388e-4
-1.755, 6.527e-4
-1.756, 6.654e-4
-1.757, 6.775e-4
-1.758, 6.907e-4
-1.759, 7.042e-4
-1.760, 7.177e-4
-1.761, 7.309e-4
-1.762, 7.461e-4
-1.763, 7.604e-4
-1.764, 7.745e-4
-1.765, 7.909e-4
-1.766, 8.066e-4
-1.767, 8.210e-4
-1.768, 8.371e-4
-1.769, 8.542e-4
-1.770, 8.698e-4
-1.771, 8.855e-4
-1.772, 9.034e-4
-1.773, 9.201e-4
-1.774, 9.368e-4
-1.775, 9.550e-4
-1.776, 9.732e-4
-1.777, 9.905e-4
-1.778, 1.009e-3
-1.779, 1.030e-3
-1.780, 1.048e-3
-1.781, 1.067e-3
-1.782, 1.088e-3
-1.783, 1.108e-3
-1.784, 1.127e-3
-1.785, 1.148e-3
-1.786, 1.170e-3
-1.787, 1.189e-3
-1.788, 1.210e-3
-1.789, 1.233e-3
-1.790, 1.255e-3
-1.791, 1.275e-3
-1.792, 1.300e-3
-1.793, 1.323e-3
-1.794, 1.346e-3
-1.795, 1.370e-3
-1.796, 1.395e-3
-1.797, 1.418e-3
-1.798, 1.443e-3
-1.799, 1.470e-3
-1.800, 1.495e-3
-1.801, 1.520e-3
-1.802, 1.548e-3
-1.803, 1.574e-3
-1.804, 1.600e-3
-1.805, 1.629e-3
-1.806, 1.657e-3
-1.807, 1.684e-3
-1.808, 1.712e-3
-1.809, 1.742e-3
-1.810, 1.771e-3
-1.811, 1.799e-3
-1.812, 1.831e-3
-1.813, 1.861e-3
-1.814, 1.889e-3
-1.815, 1.922e-3
-1.816, 1.954e-3
-1.817, 1.984e-3
-1.818, 2.016e-3
-1.819, 2.051e-3
-1.820, 2.082e-3
-1.821, 2.114e-3
-1.822, 2.150e-3
-1.823, 2.183e-3
-1.824, 2.215e-3
-1.825, 2.251e-3
-1.826, 2.288e-3
-1.827, 2.321e-3
-1.828, 2.357e-3
-1.829, 2.395e-3
-1.830, 2.431e-3
-1.831, 2.467e-3
-1.832, 2.507e-3
-1.833, 2.544e-3
-1.834, 2.580e-3
-1.835, 2.620e-3
-1.836, 2.660e-3
-1.837, 2.698e-3
-1.838, 2.743e-3
-1.839, 2.784e-3
-1.840, 2.823e-3
-1.841, 2.862e-3
-1.842, 2.906e-3
-1.843, 2.946e-3
-1.844, 2.985e-3
-1.845, 3.028e-3
-1.846, 3.072e-3
-1.847, 3.113e-3
-1.848, 3.156e-3
-1.849, 3.202e-3
-1.850, 3.245e-3
-1.851, 3.288e-3
-1.852, 3.334e-3
-1.853, 3.380e-3
-1.854, 3.422e-3
-1.855, 3.469e-3
-1.856, 3.516e-3
-1.857, 3.559e-3
-1.858, 3.605e-3
-1.859, 3.655e-3
-1.860, 3.700e-3
-1.861, 3.747e-3
-1.862, 3.798e-3
-1.863, 3.845e-3
-1.864, 3.891e-3
-1.865, 3.941e-3
-1.866, 3.994e-3
-1.867, 4.039e-3
-1.868, 4.090e-3
-1.869, 4.142e-3
-1.870, 4.190e-3
-1.871, 4.240e-3
-1.872, 4.295e-3
-1.873, 4.344e-3
-1.874, 4.390e-3
-1.875, 4.443e-3
-1.876, 4.496e-3
-1.877, 4.545e-3
-1.878, 4.597e-3
-1.879, 4.652e-3
-1.880, 4.702e-3
-1.881, 4.754e-3
-1.882, 4.811e-3
-1.883, 4.863e-3
-1.884, 4.913e-3
-1.885, 4.968e-3
-1.886, 5.022e-3
-1.887, 5.073e-3
-1.888, 5.128e-3
-1.889, 5.185e-3
-1.890, 5.236e-3
-1.891, 5.287e-3
-1.892, 5.344e-3
-1.893, 5.397e-3
-1.894, 5.448e-3
-1.895, 5.505e-3
-1.896, 5.563e-3
-1.897, 5.616e-3
-1.898, 5.671e-3
-1.899, 5.731e-3
-1.900, 5.746e-3
-1.899, 5.710e-3
-1.898, 5.680e-3
-1.897, 5.643e-3
-1.896, 5.601e-3
-1.895, 5.567e-3
-1.894, 5.531e-3
-1.893, 5.488e-3
-1.892, 5.445e-3
-1.891, 5.405e-3
-1.890, 5.365e-3
-1.889, 5.320e-3
-1.888, 5.284e-3
-1.887, 5.245e-3
-1.886, 5.200e-3
-1.885, 5.161e-3
-1.884, 5.120e-3
-1.883, 5.074e-3
-1.882, 5.033e-3
-1.881, 4.994e-3
-1.880, 4.956e-3
-1.879, 4.913e-3
-1.878, 4.878e-3
-1.877, 4.835e-3
-1.876, 4.791e-3
-1.875, 4.753e-3
-1.874, 4.714e-3
-1.873, 4.667e-3
-1.872, 4.627e-3
-1.871, 4.595e-3
-1.870, 4.554e-3
-1.869, 4.510e-3
-1.868, 4.470e-3
-1.867, 4.429e-3
-1.866, 4.386e-3
-1.865, 4.350e-3
-1.864, 4.312e-3
-1.863, 4.267e-3
-1.862, 4.229e-3
-1.861, 4.191e-3
-1.860, 4.150e-3
-1.859, 4.108e-3
-1.858, 4.071e-3
-1.857, 4.035e-3
-1.856, 3.994e-3
-1.855, 3.957e-3
-1.854, 3.920e-3
-1.853, 3.880e-3
-1.852, 3.841e-3
-1.851, 3.805e-3
-1.850, 3.765e-3
-1.849, 3.727e-3
-1.848, 3.693e-3
-1.847, 3.656e-3
-1.846, 3.617e-3
-1.845, 3.581e-3
-1.844, 3.547e-3
-1.843, 3.508e-3
-1.842, 3.474e-3
-1.841, 3.442e-3
-1.840, 3.406e-3
-1.839, 3.369e-3
-1.838, 3.337e-3
-1.837, 3.302e-3
-1.836, 3.267e-3
-1.835, 3.236e-3
-1.834, 3.203e-3
-1.833, 3.168e-3
-1.832, 3.133e-3
-1.831, 3.103e-3
-1.830, 3.067e-3
-1.829, 3.033e-3
-1.828, 3.003e-3
-1.827, 2.970e-3
-1.826, 2.938e-3
-1.825, 2.909e-3
-1.824, 2.878e-3
-1.823, 2.844e-3
-1.822, 2.814e-3
-1.821, 2.786e-3
-1.820, 2.754e-3
-1.819, 2.722e-3
-1.818, 2.694e-3
-1.817, 2.664e-3
-1.816, 2.632e-3
-1.815, 2.604e-3
-1.814, 2.576e-3
-1.813, 2.547e-3
-1.812, 2.518e-3
-1.811, 2.490e-3
-1.810, 2.462e-3
-1.809, 2.434e-3
-1.808, 2.410e-3
-1.807, 2.382e-3
-1.806, 2.354e-3
-1.805, 2.327e-3
-1.804, 2.301e-3
-1.803, 2.273e-3
-1.802, 2.246e-3
-1.801, 2.222e-3
-1.800, 2.195e-3
-1.799, 2.168e-3
-1.798, 2.145e-3
-1.797, 2.120e-3
-1.796, 2.093e-3
-1.795, 2.069e-3
-1.794, 2.045e-3
-1.793, 2.018e-3
-1.792, 1.995e-3
-1.791, 1.973e-3
-1.790, 1.948e-3
-1.789, 1.924e-3
-1.788, 1.902e-3
-1.787, 1.879e-3
-1.786, 1.855e-3
-1.785, 1.833e-3
-1.784, 1.812e-3
-1.783, 1.789e-3
-1.782, 1.767e-3
-1.781, 1.747e-3
-1.780, 1.724e-3
-1.779, 1.701e-3
-1.778, 1.683e-3
-1.777, 1.662e-3
-1.776, 1.639e-3
-1.775, 1.619e-3
-1.774, 1.599e-3
-1.773, 1.577e-3
-1.772, 1.557e-3
-1.771, 1.539e-3
-1.770, 1.519e-3
-1.769, 1.499e-3
-1.768, 1.481e-3
-1.767, 1.462e-3
-1.766, 1.442e-3
-1.765, 1.424e-3
-1.764, 1.407e-3
-1.763, 1.388e-3
-1.762, 1.370e-3
-1.761, 1.353e-3
-1.760, 1.334e-3
-1.759, 1.316e-3
-1.758, 1.300e-3
-1.757, 1.283e-3
-1.756, 1.265e-3
-1.755, 1.248e-3
-1.754, 1.233e-3
-1.753, 1.216e-3
-1.752, 1.201e-3
-1.751, 1.187e-3
-1.750, 1.170e-3
-1.749, 1.154e-3
-1.748, 1.139e-3
-1.747, 1.124e-3
-1.746, 1.107e-3
-1.745, 1.092e-3
-1.744, 1.078e-3
-1.743, 1.063e-3
-1.742, 1.047e-3
-1.741, 1.035e-3
-1.740, 1.019e-3
-1.739, 1.005e-3
-1.738, 9.926e-4
-1.737, 9.780e-4
-1.736, 9.638e-4
-1.735, 9.504e-4
-1.734, 9.383e-4
-1.733, 9.232e-4
-1.732, 9.109e-4
-1.731, 8.981e-4
-1.730, 8.855e-4
-1.729, 8.721e-4
-1.728, 8.608e-4
-1.727, 8.483e-4
-1.726, 8.346e-4
-1.725, 8.239e-4
-1.724, 8.118e-4
-1.723, 7.996e-4
-1.722, 7.875e-4
-1.721, 7.770e-4
-1.720, 7.652e-4
-1.719, 7.532e-4
-1.718, 7.431e-4
-1.717, 7.320e-4
-1.716, 7.208e-4
-1.715, 7.099e-4
-1.714, 7.005e-4
-1.713, 6.888e-4
-1.712, 6.791e-4
-1.711, 6.696e-4
-1.710, 6.589e-4
-1.709, 6.488e-4
-1.708, 6.395e-4
-1.707, 6.303e-4
-1.706, 6.199e-4
-1.705, 6.116e-4
-1.704, 6.025e-4
-1.703, 5.924e-4
-1.702, 5.839e-4
-1.701, 5.758e-4
-1.700, 5.661e-4
-1.699, 5.572e-4
-1.698, 5.496e-4
-1.697, 5.405e-4
-1.696, 5.317e-4
-1.695, 5.243e-4
-1.694, 5.161e-4
-1.693, 5.080e-4
-1.692, 4.999e-4
-1.691, 4.926e-4
-1.690, 4.847e-4
-1.689, 4.769e-4
-1.688, 4.700e-4
-1.687, 4.624e-4
-1.686, 4.545e-4
-1.685, 4.478e-4
-1.684, 4.406e-4
-1.683, 4.334e-4
-1.682, 4.266e-4
-1.681, 4.198e-4
-1.680, 4.135e-4
-1.679, 4.066e-4
-1.678, 4.008e-4
-1.677, 3.940e-4
-1.676, 3.872e-4
-1.675, 3.818e-4
-1.674, 3.754e-4
-1.673, 3.686e-4
-1.672, 3.630e-4
-1.671, 3.576e-4
-1.670, 3.515e-4
-1.669, 3.452e-4
-1.668, 3.403e-4
-1.667, 3.346e-4
-1.666, 3.286e-4
-1.665, 3.237e-4
-1.664, 3.182e-4
-1.663, 3.128e-4
-1.662, 3.078e-4
-1.661, 3.030e-4
-1.660, 2.975e-4
-1.659, 2.924e-4
-1.658, 2.880e-4
-1.657, 2.830e-4
-1.656, 2.778e-4
-1.655, 2.739e-4
-1.654, 2.686e-4
-1.653, 2.641e-4
-1.652, 2.599e-4
-1.651, 2.559e-4
-1.650, 2.512e-4
-1.649, 2.468e-4
-1.648, 2.431e-4
-1.647, 2.390e-4
-1.646, 2.345e-4
-1.645, 2.312e-4
-1.644, 2.269e-4
-1.643, 2.229e-4
-1.642, 2.193e-4
-1.641, 2.157e-4
-1.640, 2.120e-4
-1.639, 2.079e-4
-1.638, 2.048e-4
-1.637, 2.009e-4
-1.636, 1.972e-4
-1.635, 1.944e-4
-1.634, 1.908e-4
-1.633, 1.872e-4
-1.632, 1.845e-4
-1.631, 1.810e-4
-1.630, 1.778e-4
-1.629, 1.745e-4
-1.628, 1.720e-4
-1.627, 1.687e-4
-1.626, 1.653e-4
-1.625, 1.628e-4
-1.624, 1.599e-4
-1.623, 1.568e-4
-1.622, 1.542e-4
-1.621, 1.515e-4
-1.620, 1.485e-4
-1.619, 1.456e-4
-1.618, 1.440e-4
-1.617, 1.408e-4
-1.616, 1.381e-4
-1.615, 1.361e-4
-1.614, 1.337e-4
-1.613, 1.309e-4
-1.612, 1.286e-4
-1.611, 1.265e-4
-1.610, 1.241e-4
-1.609, 1.217e-4
-1.608, 1.201e-4
-1.607, 1.176e-4
-1.606, 1.151e-4
-1.605, 1.137e-4
-1.604, 1.116e-4
-1.603, 1.094e-4
-1.602, 1.074e-4
-1.601, 1.057e-4
-1.600, 1.032e-4
-1.599, 1.015e-4
-1.598, 9.999e-5
-1.597, 9.841e-5
-1.596, 9.594e-5
-1.595, 9.454e-5
-1.594, 9.266e-5
-1.593, 9.078e-5
-1.592, 8.915e-5
-1.591, 8.778e-5
-1.590, 8.598e-5
-1.589, 8.421e-5
-1.588, 8.298e-5
-1.587, 8.117e-5
-1.586, 7.935e-5
-1.585, 7.827e-5
-1.584, 7.682e-5
-1.583, 7.519e-5
-1.582, 7.398e-5
-1.581, 7.263e-5
-1.580, 7.089e-5
-1.579, 6.940e-5
-1.578, 6.854e-5
-1.577, 6.705e-5
-1.576, 6.569e-5
-1.575, 6.479e-5
-1.574, 6.335e-5
-1.573, 6.197e-5
-1.572, 6.126e-5
-1.571, 6.009e-5
-1.570, 5.869e-5
-1.569, 5.737e-5
-1.568, 5.674e-5
-1.567, 5.531e-5
-1.566, 5.411e-5
-1.565, 5.370e-5
-1.564, 5.391e-5
-1.563, 5.222e-5
-1.562, 5.149e-5
-1.561, 5.036e-5
-1.560, 4.925e-5
-1.559, 4.740e-5
-1.558, 4.686e-5
-1.557, 4.557e-5
-1.556, 4.418e-5
-1.555, 4.388e-5
-1.554, 4.274e-5
-1.553, 4.162e-5
-1.552, 4.088e-5
-1.551, 4.018e-5
-1.550, 3.898e-5
-1.549, 3.798e-5
-1.548, 3.777e-5
-1.547, 3.680e-5
-1.546, 3.576e-5
-1.545, 3.550e-5
-1.544, 3.465e-5
-1.543, 3.351e-5
-1.542, 3.299e-5
-1.541, 3.258e-5
-1.540, 3.164e-5
-1.539, 3.078e-5
-1.538, 3.071e-5
-1.537, 2.967e-5
-1.536, 2.874e-5
-1.535, 2.849e-5
-1.534, 2.759e-5
-1.533, 2.688e-5
-1.532, 2.638e-5
-1.531, 2.581e-5
-1.530, 2.522e-5
-1.529, 2.453e-5
-1.528, 2.440e-5
-1.527, 2.324e-5
-1.526, 2.253e-5
-1.525, 2.271e-5
-1.524, 2.171e-5
-1.523, 2.094e-5
-1.522, 2.081e-5
-1.521, 2.025e-5
-1.520, 1.958e-5
-1.519, 1.910e-5
-1.518, 1.896e-5
-1.517, 1.824e-5
-1.516, 1.764e-5
-1.515, 1.762e-5
-1.514, 1.691e-5
-1.513, 1.641e-5
-1.512, 1.615e-5
-1.511, 1.600e-5
-1.510, 1.506e-5
-1.509, 1.472e-5
-1.508, 1.490e-5
-1.507, 1.384e-5
-1.506, 1.336e-5
-1.505, 1.346e-5
-1.504, 1.277e-5
-1.503, 1.262e-5
-1.502, 1.230e-5
-1.501, 1.211e-5
-1.500, 1.139e-5
-1.499, 1.083e-5
-1.498, 1.113e-5
-1.497, 1.039e-5
-1.496, 1.003e-5
-1.495, 1.008e-5
-1.494, 9.538e-6
-1.493, 9.134e-6
-1.492, 8.986e-6
-1.491, 8.650e-6
-1.490, 8.226e-6
-1.489, 7.930e-6
-1.488, 8.285e-6
-1.487, 7.723e-6
-1.486, 6.963e-6
-1.485, 7.200e-6
-1.484, 6.736e-6
-1.483, 6.293e-6
-1.482, 6.480e-6
-1.481, 6.164e-6
-1.480, 5.760e-6
-1.479, 5.474e-6
-1.478, 5.622e-6
-1.477, 5.049e-6
-1.476, 4.714e-6
-1.475, 4.882e-6
-1.474, 4.388e-6
-1.473, 3.944e-6
-1.472, 4.023e-6
-1.471, 3.747e-6
-1.470, 3.510e-6
-1.469, 3.096e-6
-1.468, 3.560e-6
-1.467, 2.859e-6
-1.466, 2.869e-6
-1.465, 2.632e-6
-1.464, 2.435e-6
-1.463, 2.050e-6
-1.462, 2.119e-6
-1.461, 1.981e-6
-1.460, 1.616e-6
-1.459, 1.231e-6
-1.458, 1.508e-6
-1.457, 1.202e-6
-1.456, 8.465e-7
-1.455, 1.212e-6
-1.454, 6.886e-7
-1.453, 4.025e-7
-1.452, 8.366e-7
-1.451, 9.156e-7
-1.450, 2.841e-7
-1.449, 3.828e-7
-1.448, 2.545e-7
-1.447, -8.090e-8
-1.446, -3.867e-7
-1.445, -1.598e-7
-1.444, -6.433e-7
-1.443, -9.491e-7
-1.442, -9.392e-7
-1.441, -1.038e-6
-1.440, -1.373e-6
-1.439, -1.285e-6
-1.438, -1.176e-6
-1.437, -1.610e-6
-1.436, -1.729e-6
-1.435, -1.482e-6
-1.434, -2.034e-6
-1.433, -2.360e-6
-1.432, -2.360e-6
-1.431, -2.133e-6
-1.430, -2.538e-6
-1.429, -2.745e-6
-1.428, -2.360e-6
-1.427, -2.873e-6
-1.426, -2.991e-6
-1.425, -2.903e-6
-1.424, -2.972e-6
-1.423, -3.258e-6
-1.422, -3.031e-6
-1.421, -3.248e-6
-1.420, -3.495e-6
-1.419, -3.790e-6
-1.418, -3.347e-6
-1.417, -3.751e-6
-1.416, -3.978e-6
-1.415, -3.534e-6
-1.414, -3.948e-6
-1.413, -4.146e-6
-1.412, -3.929e-6
-1.411, -4.047e-6
-1.410, -4.254e-6
-1.409, -4.609e-6
-1.408, -4.047e-6
-1.407, -4.688e-6
-1.406, -4.866e-6
-1.405, -4.481e-6
-1.404, -4.757e-6
-1.403, -4.866e-6
-1.402, -4.876e-6
-1.401, -4.925e-6
-1.400, -5.113e-6
-1.399, -5.152e-6
-1.398, -4.935e-6
-1.397, -5.113e-6
-1.396, -5.409e-6
-1.395, -5.034e-6
-1.394, -5.409e-6
-1.393, -5.537e-6
-1.392, -5.379e-6
-1.391, -5.497e-6
-1.390, -5.744e-6
-1.389, -5.803e-6
-1.388, -5.665e-6
-1.387, -5.872e-6
-1.386, -6.050e-6
-1.385, -5.714e-6
-1.384, -5.892e-6
-1.383, -6.070e-6
-1.382, -6.247e-6
-1.381, -6.010e-6
-1.380, -6.247e-6
-1.379, -6.306e-6
-1.378, -6.020e-6
-1.377, -6.277e-6
-1.376, -6.543e-6
-1.375, -6.178e-6
-1.374, -6.642e-6
-1.373, -6.573e-6
-1.372, -6.740e-6
-1.371, -6.444e-6
-1.370, -6.839e-6
-1.369, -7.007e-6
-1.368, -6.573e-6
-1.367, -6.898e-6
-1.366, -7.165e-6
-1.365, -6.780e-6
-1.364, -6.997e-6
-1.363, -7.273e-6
-1.362, -7.165e-6
-1.361, -6.938e-6
-1.360, -7.204e-6
-1.359, -7.342e-6
-1.358, -7.017e-6
-1.357, -7.451e-6
-1.356, -7.579e-6
-1.355, -7.175e-6
-1.354, -7.638e-6
-1.353, -7.559e-6
-1.352, -7.540e-6
-1.351, -7.559e-6
-1.350, -7.727e-6
-1.349, -7.865e-6
-1.348, -7.352e-6
-1.347, -7.826e-6
-1.346, -7.905e-6
-1.345, -7.480e-6
-1.344, -8.132e-6
-1.343, -8.112e-6
-1.342, -7.944e-6
-1.341, -7.707e-6
-1.340, -8.112e-6
-1.339, -8.220e-6
-1.338, -8.062e-6
-1.337, -8.280e-6
-1.336, -8.349e-6
-1.335, -8.151e-6
-1.334, -8.280e-6
-1.333, -8.615e-6
-1.332, -8.299e-6
-1.331, -8.408e-6
-1.330, -8.516e-6
-1.329, -8.625e-6
-1.328, -8.260e-6
-1.327, -8.704e-6
-1.326, -8.871e-6
-1.325, -8.270e-6
-1.324, -8.753e-6
-1.323, -8.990e-6
-1.322, -8.654e-6
-1.321, -8.536e-6
-1.320, -8.891e-6
-1.319, -9.108e-6
-1.318, -8.723e-6
-1.317, -8.960e-6
-1.316, -9.108e-6
-1.315, -8.950e-6
-1.314, -9.227e-6
-1.313, -9.315e-6
-1.312, -9.365e-6
-1.311, -9.029e-6
-1.310, -9.276e-6
-1.309, -9.266e-6
-1.308, -8.960e-6
-1.307, -9.414e-6
-1.306, -9.532e-6
-1.305, -9.187e-6
-1.304, -9.404e-6
-1.303, -9.740e-6
-1.302, -9.592e-6
-1.301, -9.345e-6
-1.300, -9.641e-6
-1.299, -9.907e-6
-1.298, -9.503e-6
-1.297, -9.779e-6
-1.296, -9.907e-6
-1.295, -9.542e-6
-1.294, -9.740e-6
-1.293, -9.878e-6
-1.292, -9.838e-6
-1.291, -9.631e-6
-1.290, -9.907e-6
-1.289, -1.011e-5
-1.288, -9.789e-6
-1.287, -1.006e-5
-1.286, -1.045e-5
-1.285, -9.809e-6
-1.284, -1.014e-5
-1.283, -1.035e-5
-1.282, -1.007e-5
-1.281, -1.004e-5
-1.280, -1.045e-5
-1.279, -1.039e-5
-1.278, -1.019e-5
-1.277, -1.045e-5
-1.276, -1.074e-5
-1.275, -1.044e-5
-1.274, -1.054e-5
-1.273, -1.067e-5
-1.272, -1.060e-5
-1.271, -1.059e-5
-1.270, -1.075e-5
-1.269, -1.087e-5
-1.268, -1.033e-5
-1.267, -1.079e-5
-1.266, -1.103e-5
-1.265, -1.067e-5
-1.264, -1.099e-5
-1.263, -1.104e-5
-1.262, -1.095e-5
-1.261, -1.086e-5
-1.260, -1.112e-5
-1.259, -1.133e-5
-1.258, -1.087e-5
-1.257, -1.126e-5
-1.256, -1.145e-5
-1.255, -1.098e-5
-1.254, -1.141e-5
-1.253, -1.153e-5
-1.252, -1.135e-5
-1.251, -1.126e-5
-1.250, -1.156e-5
-1.249, -1.183e-5
-1.248, -1.134e-5
-1.247, -1.172e-5
-1.246, -1.193e-5
-1.245, -1.143e-5
-1.244, -1.172e-5
-1.243, -1.208e-5
-1.242, -1.183e-5
-1.241, -1.174e-5
-1.240, -1.195e-5
-1.239, -1.205e-5
-1.238, -1.185e-5
-1.237, -1.215e-5
-1.236, -1.220e-5
-1.235, -1.183e-5
-1.234, -1.217e-5
-1.233, -1.228e-5
-1.232, -1.222e-5
-1.231, -1.200e-5
-1.230, -1.250e-5
-1.229, -1.252e-5
-1.228, -1.225e-5
-1.227, -1.252e-5
-1.226, -1.270e-5
-1.225, -1.228e-5
-1.224, -1.273e-5
-1.223, -1.269e-5
-1.222, -1.273e-5
-1.221, -1.253e-5
-1.220, -1.301e-5
-1.219, -1.299e-5
-1.218, -1.255e-5
-1.217, -1.291e-5
-1.216, -1.311e-5
-1.215, -1.279e-5
-1.214, -1.321e-5
-1.213, -1.313e-5
-1.212, -1.318e-5
-1.211, -1.310e-5
-1.210, -1.325e-5
-1.209, -1.349e-5
-1.208, -1.303e-5
-1.207, -1.341e-5
-1.206, -1.368e-5
-1.205, -1.322e-5
-1.204, -1.361e-5
-1.203, -1.380e-5
-1.202, -1.369e-5
-1.201, -1.352e-5
-1.200, -1.398e-5
-1.199, -1.412e-5
-1.198, -1.370e-5
-1.197, -1.383e-5
-1.196, -1.408e-5
-1.195, -1.385e-5
-1.194, -1.406e-5
-1.193, -1.429e-5
-1.192, -1.419e-5
-1.191, -1.407e-5
-1.190, -1.444e-5
-1.189, -1.462e-5
-1.188, -1.412e-5
-1.187, -1.453e-5
-1.186, -1.462e-5
-1.185, -1.433e-5
-1.184, -1.460e-5
-1.183, -1.480e-5
-1.182, -1.479e-5
-1.181, -1.456e-5
-1.180, -1.470e-5
-1.179, -1.497e-5
-1.178, -1.469e-5
-1.177, -1.520e-5
-1.176, -1.536e-5
-1.175, -1.501e-5
-1.174, -1.540e-5
-1.173, -1.540e-5
-1.172, -1.549e-5
-1.171, -1.537e-5
-1.170, -1.580e-5
-1.169, -1.587e-5
-1.168, -1.565e-5
-1.167, -1.583e-5
-1.166, -1.595e-5
-1.165, -1.576e-5
-1.164, -1.601e-5
-1.163, -1.613e-5
-1.162, -1.627e-5
-1.161, -1.588e-5
-1.160, -1.630e-5
-1.159, -1.660e-5
-1.158, -1.627e-5
-1.157, -1.652e-5
-1.156, -1.702e-5
-1.155, -1.650e-5
-1.154, -1.694e-5
-1.153, -1.699e-5
-1.152, -1.729e-5
-1.151, -1.698e-5
-1.150, -1.734e-5
-1.149, -1.754e-5
-1.148, -1.702e-5
-1.147, -1.749e-5
-1.146, -1.783e-5
-1.145, -1.744e-5
-1.144, -1.791e-5
-1.143, -1.795e-5
-1.142, -1.809e-5
-1.141, -1.751e-5
-1.140, -1.812e-5
-1.139, -1.870e-5
-1.138, -1.824e-5
-1.137, -1.842e-5
-1.136, -1.863e-5
-1.135, -1.818e-5
-1.134, -1.888e-5
-1.133, -1.911e-5
-1.132, -1.923e-5
-1.131, -1.893e-5
-1.130, -1.930e-5
-1.129, -1.965e-5
-1.128, -1.916e-5
-1.127, -1.969e-5
-1.126, -1.988e-5
-1.125, -1.966e-5
-1.124, -2.006e-5
-1.123, -2.045e-5
-1.122, -2.027e-5
-1.121, -2.029e-5
-1.120, -2.054e-5
-1.119, -2.101e-5
-1.118, -2.043e-5
-1.117, -2.078e-5
-1.116, -2.128e-5
-1.115, -2.107e-5
-1.114, -2.128e-5
-1.113, -2.171e-5
-1.112, -2.167e-5
-1.111, -2.147e-5
-1.110, -2.197e-5
-1.109, -2.229e-5
-1.108, -2.198e-5
-1.107, -2.234e-5
-1.106, -2.260e-5
-1.105, -2.233e-5
-1.104, -2.278e-5
-1.103, -2.307e-5
-1.102, -2.322e-5
-1.101, -2.288e-5
-1.100, -2.340e-5
-1.099, -2.378e-5
-1.098, -2.335e-5
-1.097, -2.383e-5
-1.096, -2.423e-5
-1.095, -2.393e-5
-1.094, -2.420e-5
-1.093, -2.442e-5
-1.092, -2.455e-5
-1.091, -2.456e-5
-1.090, -2.496e-5
-1.089, -2.536e-5
-1.088, -2.485e-5
-1.087, -2.538e-5
-1.086, -2.569e-5
-1.085, -2.535e-5
-1.084, -2.571e-5
-1.083, -2.603e-5
-1.082, -2.624e-5
-1.081, -2.598e-5
-1.080, -2.638e-5
-1.079, -2.665e-5
-1.078, -2.664e-5
-1.077, -2.674e-5
-1.076, -2.715e-5
-1.075, -2.701e-5
-1.074, -2.727e-5
-1.073, -2.760e-5
-1.072, -2.779e-5
-1.071, -2.762e-5
-1.070, -2.803e-5
-1.069, -2.821e-5
-1.068, -2.800e-5
-1.067, -2.835e-5
-1.066, -2.881e-5
-1.065, -2.855e-5
-1.064, -2.848e-5
-1.063, -2.894e-5
-1.062, -2.925e-5
-1.061, -2.882e-5
-1.060, -2.934e-5
-1.059, -2.982e-5
-1.058, -2.924e-5
-1.057, -2.976e-5
-1.056, -2.994e-5
-1.055, -2.967e-5
-1.054, -3.022e-5
-1.053, -3.040e-5
-1.052, -3.044e-5
-1.051, -3.026e-5
-1.050, -3.072e-5
-1.049, -3.120e-5
-1.048, -3.075e-5
-1.047, -3.114e-5
-1.046, -3.154e-5
-1.045, -3.124e-5
-1.044, -3.140e-5
-1.043, -3.195e-5
-1.042, -3.208e-5
-1.041, -3.161e-5
-1.040, -3.211e-5
-1.039, -3.252e-5
-1.038, -3.206e-5
-1.037, -3.253e-5
-1.036, -3.287e-5
-1.035, -3.273e-5
-1.034, -3.280e-5
-1.033, -3.326e-5
-1.032, -3.333e-5
-1.031, -3.315e-5
-1.030, -3.359e-5
-1.029, -3.379e-5
-1.028, -3.346e-5
-1.027, -3.390e-5
-1.026, -3.421e-5
-1.025, -3.391e-5
-1.024, -3.434e-5
-1.023, -3.477e-5
-1.022, -3.473e-5
-1.021, -3.436e-5
-1.020, -3.497e-5
-1.019, -3.514e-5
-1.018, -3.474e-5
-1.017, -3.539e-5
-1.016, -3.584e-5
-1.015, -3.525e-5
-1.014, -3.555e-5
-1.013, -3.588e-5
-1.012, -3.602e-5
-1.011, -3.573e-5
-1.010, -3.633e-5
-1.009, -3.669e-5
-1.008, -3.622e-5
-1.007, -3.687e-5
-1.006, -3.727e-5
-1.005, -3.680e-5
-1.004, -3.701e-5
-1.003, -3.744e-5
-1.002, -3.771e-5
-1.001, -3.723e-5
