May 4, 2025   07:30:16
Linear Sweep Voltammetry
File: c:/users/guazh/data/banditlqround7_x0exp1108_r5/2025-04-30-exp1235\regeneratedgce-2025-05-04t07_27_12-lsvinkoh\regeneratedgce_lsv_50mvs_efin_-1700mv.bin
Data Source:  Experiment
Instrument Model:  CHI760E
Header: LSV ran at 50 mVs with Efin at -1700mV
Note: 

Init E (V) = -0.6
Final E (V) = -1.7
Scan Rate (V/s) = 0.05
Sample Interval (V) = 0.001
Quiet Time (sec) = 2
Sensitivity (A/V) = 1e-4
Comp R (ohm) = 1.2

Results:

Channel 1:
Ep = -1.318V
ip = 6.695e-4A
Ah = 4.371e-4C

Potential/V, Current/A

-0.600, -1.024e-5
-0.601, -8.689e-6
-0.602, -7.202e-6
-0.603, -6.026e-6
-0.604, -5.080e-6
-0.605, -4.124e-6
-0.606, -3.253e-6
-0.607, -2.390e-6
-0.608, -1.620e-6
-0.609, -8.605e-7
-0.610, -1.112e-7
-0.611, 6.192e-7
-0.612, 1.298e-6
-0.613, 1.943e-6
-0.614, 2.532e-6
-0.615, 3.150e-6
-0.616, 3.761e-6
-0.617, 4.363e-6
-0.618, 4.949e-6
-0.619, 5.522e-6
-0.620, 6.071e-6
-0.621, 6.608e-6
-0.622, 7.160e-6
-0.623, 7.697e-6
-0.624, 8.231e-6
-0.625, 8.728e-6
-0.626, 9.261e-6
-0.627, 9.763e-6
-0.628, 1.027e-5
-0.629, 1.075e-5
-0.630, 1.124e-5
-0.631, 1.173e-5
-0.632, 1.220e-5
-0.633, 1.266e-5
-0.634, 1.305e-5
-0.635, 1.348e-5
-0.636, 1.394e-5
-0.637, 1.437e-5
-0.638, 1.482e-5
-0.639, 1.524e-5
-0.640, 1.574e-5
-0.641, 1.629e-5
-0.642, 1.660e-5
-0.643, 1.709e-5
-0.644, 1.751e-5
-0.645, 1.784e-5
-0.646, 1.821e-5
-0.647, 1.871e-5
-0.648, 1.902e-5
-0.649, 1.943e-5
-0.650, 1.988e-5
-0.651, 2.028e-5
-0.652, 2.072e-5
-0.653, 2.116e-5
-0.654, 2.170e-5
-0.655, 2.194e-5
-0.656, 2.249e-5
-0.657, 2.301e-5
-0.658, 2.326e-5
-0.659, 2.366e-5
-0.660, 2.424e-5
-0.661, 2.453e-5
-0.662, 2.494e-5
-0.663, 2.528e-5
-0.664, 2.555e-5
-0.665, 2.604e-5
-0.666, 2.657e-5
-0.667, 2.708e-5
-0.668, 2.731e-5
-0.669, 2.775e-5
-0.670, 2.824e-5
-0.671, 2.858e-5
-0.672, 2.863e-5
-0.673, 2.911e-5
-0.674, 2.960e-5
-0.675, 3.010e-5
-0.676, 3.049e-5
-0.677, 3.083e-5
-0.678, 3.119e-5
-0.679, 3.139e-5
-0.680, 3.168e-5
-0.681, 3.205e-5
-0.682, 3.211e-5
-0.683, 3.252e-5
-0.684, 3.277e-5
-0.685, 3.316e-5
-0.686, 3.376e-5
-0.687, 3.411e-5
-0.688, 3.432e-5
-0.689, 3.490e-5
-0.690, 3.525e-5
-0.691, 3.575e-5
-0.692, 3.594e-5
-0.693, 3.600e-5
-0.694, 3.649e-5
-0.695, 3.708e-5
-0.696, 3.760e-5
-0.697, 3.786e-5
-0.698, 3.806e-5
-0.699, 3.848e-5
-0.700, 3.904e-5
-0.701, 3.940e-5
-0.702, 3.954e-5
-0.703, 4.010e-5
-0.704, 4.013e-5
-0.705, 4.037e-5
-0.706, 4.084e-5
-0.707, 4.120e-5
-0.708, 4.128e-5
-0.709, 4.167e-5
-0.710, 4.203e-5
-0.711, 4.251e-5
-0.712, 4.298e-5
-0.713, 4.358e-5
-0.714, 4.411e-5
-0.715, 4.430e-5
-0.716, 4.437e-5
-0.717, 4.486e-5
-0.718, 4.507e-5
-0.719, 4.523e-5
-0.720, 4.574e-5
-0.721, 4.605e-5
-0.722, 4.631e-5
-0.723, 4.701e-5
-0.724, 4.738e-5
-0.725, 4.751e-5
-0.726, 4.754e-5
-0.727, 4.785e-5
-0.728, 4.835e-5
-0.729, 4.843e-5
-0.730, 4.892e-5
-0.731, 4.944e-5
-0.732, 4.975e-5
-0.733, 5.002e-5
-0.734, 5.004e-5
-0.735, 5.015e-5
-0.736, 5.049e-5
-0.737, 5.066e-5
-0.738, 5.119e-5
-0.739, 5.151e-5
-0.740, 5.197e-5
-0.741, 5.244e-5
-0.742, 5.325e-5
-0.743, 5.330e-5
-0.744, 5.318e-5
-0.745, 5.372e-5
-0.746, 5.398e-5
-0.747, 5.402e-5
-0.748, 5.424e-5
-0.749, 5.472e-5
-0.750, 5.554e-5
-0.751, 5.584e-5
-0.752, 5.581e-5
-0.753, 5.624e-5
-0.754, 5.682e-5
-0.755, 5.710e-5
-0.756, 5.693e-5
-0.757, 5.771e-5
-0.758, 5.844e-5
-0.759, 5.852e-5
-0.760, 5.853e-5
-0.761, 5.890e-5
-0.762, 5.881e-5
-0.763, 5.845e-5
-0.764, 5.939e-5
-0.765, 5.953e-5
-0.766, 5.948e-5
-0.767, 5.972e-5
-0.768, 6.021e-5
-0.769, 6.079e-5
-0.770, 6.128e-5
-0.771, 6.156e-5
-0.772, 6.175e-5
-0.773, 6.189e-5
-0.774, 6.211e-5
-0.775, 6.246e-5
-0.776, 6.278e-5
-0.777, 6.300e-5
-0.778, 6.357e-5
-0.779, 6.382e-5
-0.780, 6.393e-5
-0.781, 6.447e-5
-0.782, 6.459e-5
-0.783, 6.493e-5
-0.784, 6.514e-5
-0.785, 6.564e-5
-0.786, 6.596e-5
-0.787, 6.635e-5
-0.788, 6.645e-5
-0.789, 6.653e-5
-0.790, 6.697e-5
-0.791, 6.712e-5
-0.792, 6.723e-5
-0.793, 6.756e-5
-0.794, 6.803e-5
-0.795, 6.861e-5
-0.796, 6.901e-5
-0.797, 6.961e-5
-0.798, 6.993e-5
-0.799, 7.049e-5
-0.800, 7.095e-5
-0.801, 7.107e-5
-0.802, 7.149e-5
-0.803, 7.172e-5
-0.804, 7.183e-5
-0.805, 7.211e-5
-0.806, 7.264e-5
-0.807, 7.257e-5
-0.808, 7.304e-5
-0.809, 7.360e-5
-0.810, 7.370e-5
-0.811, 7.411e-5
-0.812, 7.442e-5
-0.813, 7.489e-5
-0.814, 7.515e-5
-0.815, 7.564e-5
-0.816, 7.609e-5
-0.817, 7.657e-5
-0.818, 7.695e-5
-0.819, 7.755e-5
-0.820, 7.814e-5
-0.821, 7.840e-5
-0.822, 7.899e-5
-0.823, 7.912e-5
-0.824, 7.907e-5
-0.825, 7.962e-5
-0.826, 7.989e-5
-0.827, 8.003e-5
-0.828, 8.045e-5
-0.829, 8.102e-5
-0.830, 8.115e-5
-0.831, 8.209e-5
-0.832, 8.257e-5
-0.833, 8.270e-5
-0.834, 8.299e-5
-0.835, 8.303e-5
-0.836, 8.353e-5
-0.837, 8.406e-5
-0.838, 8.487e-5
-0.839, 8.521e-5
-0.840, 8.499e-5
-0.841, 8.547e-5
-0.842, 8.645e-5
-0.843, 8.764e-5
-0.844, 8.831e-5
-0.845, 8.853e-5
-0.846, 8.909e-5
-0.847, 8.889e-5
-0.848, 8.901e-5
-0.849, 8.911e-5
-0.850, 9.010e-5
-0.851, 9.035e-5
-0.852, 9.046e-5
-0.853, 9.039e-5
-0.854, 9.075e-5
-0.855, 9.210e-5
-0.856, 9.246e-5
-0.857, 9.282e-5
-0.858, 9.365e-5
-0.859, 9.316e-5
-0.860, 9.384e-5
-0.861, 9.449e-5
-0.862, 9.514e-5
-0.863, 9.579e-5
-0.864, 9.587e-5
-0.865, 9.639e-5
-0.866, 9.675e-5
-0.867, 9.748e-5
-0.868, 9.832e-5
-0.869, 9.864e-5
-0.870, 9.864e-5
-0.871, 9.946e-5
-0.872, 1.003e-4
-0.873, 1.007e-4
-0.874, 1.010e-4
-0.875, 1.015e-4
-0.876, 1.021e-4
-0.877, 1.019e-4
-0.878, 1.018e-4
-0.879, 1.022e-4
-0.880, 1.033e-4
-0.881, 1.038e-4
-0.882, 1.039e-4
-0.883, 1.034e-4
-0.884, 1.040e-4
-0.885, 1.050e-4
-0.886, 1.057e-4
-0.887, 1.058e-4
-0.888, 1.065e-4
-0.889, 1.073e-4
-0.890, 1.070e-4
-0.891, 1.077e-4
-0.892, 1.076e-4
-0.893, 1.082e-4
-0.894, 1.086e-4
-0.895, 1.088e-4
-0.896, 1.091e-4
-0.897, 1.095e-4
-0.898, 1.097e-4
-0.899, 1.108e-4
-0.900, 1.114e-4
-0.901, 1.111e-4
-0.902, 1.125e-4
-0.903, 1.128e-4
-0.904, 1.132e-4
-0.905, 1.132e-4
-0.906, 1.140e-4
-0.907, 1.146e-4
-0.908, 1.141e-4
-0.909, 1.153e-4
-0.910, 1.152e-4
-0.911, 1.161e-4
-0.912, 1.159e-4
-0.913, 1.169e-4
-0.914, 1.175e-4
-0.915, 1.191e-4
-0.916, 1.197e-4
-0.917, 1.195e-4
-0.918, 1.203e-4
-0.919, 1.204e-4
-0.920, 1.199e-4
-0.921, 1.198e-4
-0.922, 1.207e-4
-0.923, 1.214e-4
-0.924, 1.213e-4
-0.925, 1.211e-4
-0.926, 1.210e-4
-0.927, 1.224e-4
-0.928, 1.241e-4
-0.929, 1.242e-4
-0.930, 1.253e-4
-0.931, 1.251e-4
-0.932, 1.245e-4
-0.933, 1.254e-4
-0.934, 1.259e-4
-0.935, 1.275e-4
-0.936, 1.276e-4
-0.937, 1.275e-4
-0.938, 1.282e-4
-0.939, 1.278e-4
-0.940, 1.286e-4
-0.941, 1.299e-4
-0.942, 1.295e-4
-0.943, 1.296e-4
-0.944, 1.295e-4
-0.945, 1.300e-4
-0.946, 1.310e-4
-0.947, 1.316e-4
-0.948, 1.327e-4
-0.949, 1.323e-4
-0.950, 1.328e-4
-0.951, 1.348e-4
-0.952, 1.341e-4
-0.953, 1.342e-4
-0.954, 1.355e-4
-0.955, 1.358e-4
-0.956, 1.356e-4
-0.957, 1.366e-4
-0.958, 1.370e-4
-0.959, 1.378e-4
-0.960, 1.374e-4
-0.961, 1.364e-4
-0.962, 1.376e-4
-0.963, 1.374e-4
-0.964, 1.383e-4
-0.965, 1.395e-4
-0.966, 1.402e-4
-0.967, 1.398e-4
-0.968, 1.404e-4
-0.969, 1.410e-4
-0.970, 1.413e-4
-0.971, 1.424e-4
-0.972, 1.426e-4
-0.973, 1.432e-4
-0.974, 1.445e-4
-0.975, 1.448e-4
-0.976, 1.452e-4
-0.977, 1.443e-4
-0.978, 1.455e-4
-0.979, 1.469e-4
-0.980, 1.477e-4
-0.981, 1.474e-4
-0.982, 1.478e-4
-0.983, 1.475e-4
-0.984, 1.477e-4
-0.985, 1.482e-4
-0.986, 1.485e-4
-0.987, 1.497e-4
-0.988, 1.501e-4
-0.989, 1.510e-4
-0.990, 1.525e-4
-0.991, 1.529e-4
-0.992, 1.522e-4
-0.993, 1.537e-4
-0.994, 1.541e-4
-0.995, 1.546e-4
-0.996, 1.551e-4
-0.997, 1.541e-4
-0.998, 1.528e-4
-0.999, 1.537e-4
-1.000, 1.537e-4
-1.001, 1.546e-4
-1.002, 1.551e-4
-1.003, 1.555e-4
-1.004, 1.562e-4
-1.005, 1.576e-4
-1.006, 1.582e-4
-1.007, 1.578e-4
-1.008, 1.569e-4
-1.009, 1.582e-4
-1.010, 1.600e-4
-1.011, 1.611e-4
-1.012, 1.616e-4
-1.013, 1.618e-4
-1.014, 1.631e-4
-1.015, 1.634e-4
-1.016, 1.628e-4
-1.017, 1.633e-4
-1.018, 1.646e-4
-1.019, 1.645e-4
-1.020, 1.648e-4
-1.021, 1.649e-4
-1.022, 1.666e-4
-1.023, 1.669e-4
-1.024, 1.680e-4
-1.025, 1.689e-4
-1.026, 1.688e-4
-1.027, 1.706e-4
-1.028, 1.710e-4
-1.029, 1.716e-4
-1.030, 1.717e-4
-1.031, 1.722e-4
-1.032, 1.732e-4
-1.033, 1.741e-4
-1.034, 1.741e-4
-1.035, 1.753e-4
-1.036, 1.760e-4
-1.037, 1.758e-4
-1.038, 1.744e-4
-1.039, 1.746e-4
-1.040, 1.758e-4
-1.041, 1.764e-4
-1.042, 1.770e-4
-1.043, 1.788e-4
-1.044, 1.794e-4
-1.045, 1.804e-4
-1.046, 1.817e-4
-1.047, 1.821e-4
-1.048, 1.823e-4
-1.049, 1.826e-4
-1.050, 1.836e-4
-1.051, 1.849e-4
-1.052, 1.860e-4
-1.053, 1.869e-4
-1.054, 1.869e-4
-1.055, 1.873e-4
-1.056, 1.883e-4
-1.057, 1.884e-4
-1.058, 1.883e-4
-1.059, 1.890e-4
-1.060, 1.893e-4
-1.061, 1.903e-4
-1.062, 1.904e-4
-1.063, 1.911e-4
-1.064, 1.909e-4
-1.065, 1.918e-4
-1.066, 1.931e-4
-1.067, 1.932e-4
-1.068, 1.941e-4
-1.069, 1.954e-4
-1.070, 1.954e-4
-1.071, 1.955e-4
-1.072, 1.961e-4
-1.073, 1.964e-4
-1.074, 1.970e-4
-1.075, 1.970e-4
-1.076, 1.984e-4
-1.077, 1.993e-4
-1.078, 2.002e-4
-1.079, 2.008e-4
-1.080, 2.007e-4
-1.081, 2.016e-4
-1.082, 2.028e-4
-1.083, 2.043e-4
-1.084, 2.046e-4
-1.085, 2.042e-4
-1.086, 2.051e-4
-1.087, 2.056e-4
-1.088, 2.068e-4
-1.089, 2.083e-4
-1.090, 2.093e-4
-1.091, 2.092e-4
-1.092, 2.095e-4
-1.093, 2.091e-4
-1.094, 2.084e-4
-1.095, 2.097e-4
-1.096, 2.116e-4
-1.097, 2.115e-4
-1.098, 2.115e-4
-1.099, 2.131e-4
-1.100, 2.146e-4
-1.101, 2.144e-4
-1.102, 2.147e-4
-1.103, 2.150e-4
-1.104, 2.152e-4
-1.105, 2.164e-4
-1.106, 2.179e-4
-1.107, 2.184e-4
-1.108, 2.197e-4
-1.109, 2.208e-4
-1.110, 2.223e-4
-1.111, 2.231e-4
-1.112, 2.237e-4
-1.113, 2.223e-4
-1.114, 2.227e-4
-1.115, 2.228e-4
-1.116, 2.241e-4
-1.117, 2.248e-4
-1.118, 2.254e-4
-1.119, 2.255e-4
-1.120, 2.252e-4
-1.121, 2.259e-4
-1.122, 2.271e-4
-1.123, 2.270e-4
-1.124, 2.292e-4
-1.125, 2.289e-4
-1.126, 2.286e-4
-1.127, 2.300e-4
-1.128, 2.310e-4
-1.129, 2.312e-4
-1.130, 2.321e-4
-1.131, 2.336e-4
-1.132, 2.338e-4
-1.133, 2.346e-4
-1.134, 2.338e-4
-1.135, 2.343e-4
-1.136, 2.357e-4
-1.137, 2.360e-4
-1.138, 2.378e-4
-1.139, 2.396e-4
-1.140, 2.401e-4
-1.141, 2.404e-4
-1.142, 2.399e-4
-1.143, 2.407e-4
-1.144, 2.408e-4
-1.145, 2.417e-4
-1.146, 2.422e-4
-1.147, 2.423e-4
-1.148, 2.420e-4
-1.149, 2.430e-4
-1.150, 2.453e-4
-1.151, 2.461e-4
-1.152, 2.454e-4
-1.153, 2.467e-4
-1.154, 2.459e-4
-1.155, 2.465e-4
-1.156, 2.471e-4
-1.157, 2.465e-4
-1.158, 2.471e-4
-1.159, 2.472e-4
-1.160, 2.483e-4
-1.161, 2.507e-4
-1.162, 2.518e-4
-1.163, 2.534e-4
-1.164, 2.540e-4
-1.165, 2.542e-4
-1.166, 2.552e-4
-1.167, 2.568e-4
-1.168, 2.561e-4
-1.169, 2.556e-4
-1.170, 2.564e-4
-1.171, 2.574e-4
-1.172, 2.594e-4
-1.173, 2.590e-4
-1.174, 2.596e-4
-1.175, 2.613e-4
-1.176, 2.634e-4
-1.177, 2.625e-4
-1.178, 2.637e-4
-1.179, 2.649e-4
-1.180, 2.662e-4
-1.181, 2.678e-4
-1.182, 2.672e-4
-1.183, 2.661e-4
-1.184, 2.652e-4
-1.185, 2.667e-4
-1.186, 2.699e-4
-1.187, 2.710e-4
-1.188, 2.722e-4
-1.189, 2.743e-4
-1.190, 2.767e-4
-1.191, 2.766e-4
-1.192, 2.768e-4
-1.193, 2.781e-4
-1.194, 2.800e-4
-1.195, 2.812e-4
-1.196, 2.811e-4
-1.197, 2.823e-4
-1.198, 2.834e-4
-1.199, 2.847e-4
-1.200, 2.853e-4
-1.201, 2.871e-4
-1.202, 2.893e-4
-1.203, 2.900e-4
-1.204, 2.914e-4
-1.205, 2.922e-4
-1.206, 2.921e-4
-1.207, 2.936e-4
-1.208, 2.947e-4
-1.209, 2.969e-4
-1.210, 2.987e-4
-1.211, 3.001e-4
-1.212, 3.019e-4
-1.213, 3.039e-4
-1.214, 3.051e-4
-1.215, 3.064e-4
-1.216, 3.093e-4
-1.217, 3.123e-4
-1.218, 3.143e-4
-1.219, 3.169e-4
-1.220, 3.192e-4
-1.221, 3.194e-4
-1.222, 3.218e-4
-1.223, 3.272e-4
-1.224, 3.297e-4
-1.225, 3.309e-4
-1.226, 3.356e-4
-1.227, 3.366e-4
-1.228, 3.369e-4
-1.229, 3.385e-4
-1.230, 3.425e-4
-1.231, 3.439e-4
-1.232, 3.463e-4
-1.233, 3.481e-4
-1.234, 3.519e-4
-1.235, 3.553e-4
-1.236, 3.589e-4
-1.237, 3.626e-4
-1.238, 3.645e-4
-1.239, 3.666e-4
-1.240, 3.692e-4
-1.241, 3.723e-4
-1.242, 3.744e-4
-1.243, 3.776e-4
-1.244, 3.807e-4
-1.245, 3.833e-4
-1.246, 3.854e-4
-1.247, 3.867e-4
-1.248, 3.910e-4
-1.249, 3.956e-4
-1.250, 3.988e-4
-1.251, 4.020e-4
-1.252, 4.065e-4
-1.253, 4.089e-4
-1.254, 4.129e-4
-1.255, 4.154e-4
-1.256, 4.203e-4
-1.257, 4.251e-4
-1.258, 4.296e-4
-1.259, 4.327e-4
-1.260, 4.362e-4
-1.261, 4.390e-4
-1.262, 4.422e-4
-1.263, 4.456e-4
-1.264, 4.486e-4
-1.265, 4.527e-4
-1.266, 4.562e-4
-1.267, 4.600e-4
-1.268, 4.661e-4
-1.269, 4.688e-4
-1.270, 4.730e-4
-1.271, 4.780e-4
-1.272, 4.829e-4
-1.273, 4.876e-4
-1.274, 4.926e-4
-1.275, 4.982e-4
-1.276, 5.017e-4
-1.277, 5.083e-4
-1.278, 5.151e-4
-1.279, 5.196e-4
-1.280, 5.245e-4
-1.281, 5.303e-4
-1.282, 5.380e-4
-1.283, 5.435e-4
-1.284, 5.490e-4
-1.285, 5.546e-4
-1.286, 5.586e-4
-1.287, 5.678e-4
-1.288, 5.765e-4
-1.289, 5.841e-4
-1.290, 5.926e-4
-1.291, 6.023e-4
-1.292, 6.093e-4
-1.293, 6.160e-4
-1.294, 6.266e-4
-1.295, 6.374e-4
-1.296, 6.467e-4
-1.297, 6.589e-4
-1.298, 6.695e-4
-1.299, 6.806e-4
-1.300, 6.928e-4
-1.301, 7.069e-4
-1.302, 7.241e-4
-1.303, 7.380e-4
-1.304, 7.522e-4
-1.305, 7.673e-4
-1.306, 7.841e-4
-1.307, 8.036e-4
-1.308, 8.230e-4
-1.309, 8.417e-4
-1.310, 8.611e-4
-1.311, 8.812e-4
-1.312, 9.037e-4
-1.313, 9.271e-4
-1.314, 9.473e-4
-1.315, 9.696e-4
-1.316, 9.946e-4
-1.317, 1.011e-3
-1.318, 1.011e-3
-1.319, 1.011e-3
-1.320, 1.011e-3
-1.321, 1.011e-3
-1.322, 1.011e-3
-1.323, 1.011e-3
-1.324, 1.011e-3
-1.325, 1.011e-3
-1.326, 1.011e-3
-1.327, 1.011e-3
-1.328, 1.011e-3
-1.329, 1.011e-3
-1.330, 1.011e-3
-1.331, 1.011e-3
-1.332, 1.011e-3
-1.333, 1.011e-3
-1.334, 1.011e-3
-1.335, 1.011e-3
-1.336, 1.011e-3
-1.337, 1.011e-3
-1.338, 1.011e-3
-1.339, 1.011e-3
-1.340, 1.011e-3
-1.341, 1.011e-3
-1.342, 1.011e-3
-1.343, 1.011e-3
-1.344, 1.011e-3
-1.345, 1.011e-3
-1.346, 1.011e-3
-1.347, 1.011e-3
-1.348, 1.011e-3
-1.349, 1.011e-3
-1.350, 1.011e-3
-1.351, 1.011e-3
-1.352, 1.011e-3
-1.353, 1.011e-3
-1.354, 1.011e-3
-1.355, 1.011e-3
-1.356, 1.011e-3
-1.357, 1.011e-3
-1.358, 1.011e-3
-1.359, 1.011e-3
-1.360, 1.011e-3
-1.361, 1.011e-3
-1.362, 1.011e-3
-1.363, 1.011e-3
-1.364, 1.011e-3
-1.365, 1.011e-3
-1.366, 1.011e-3
-1.367, 1.011e-3
-1.368, 1.011e-3
-1.369, 1.011e-3
-1.370, 1.011e-3
-1.371, 1.011e-3
-1.372, 1.011e-3
-1.373, 1.011e-3
-1.374, 1.011e-3
-1.375, 1.011e-3
-1.376, 1.011e-3
-1.377, 1.011e-3
-1.378, 1.011e-3
-1.379, 1.011e-3
-1.380, 1.011e-3
-1.381, 1.011e-3
-1.382, 1.011e-3
-1.383, 1.011e-3
-1.384, 1.011e-3
-1.385, 1.011e-3
-1.386, 1.011e-3
-1.387, 1.011e-3
-1.388, 1.011e-3
-1.389, 1.011e-3
-1.390, 1.011e-3
-1.391, 1.011e-3
-1.392, 1.011e-3
-1.393, 1.011e-3
-1.394, 1.011e-3
-1.395, 1.011e-3
-1.396, 1.011e-3
-1.397, 1.011e-3
-1.398, 1.011e-3
-1.399, 1.011e-3
-1.400, 1.011e-3
-1.401, 1.011e-3
-1.402, 1.011e-3
-1.403, 1.011e-3
-1.404, 1.011e-3
-1.405, 1.011e-3
-1.406, 1.011e-3
-1.407, 1.011e-3
-1.408, 1.011e-3
-1.409, 1.011e-3
-1.410, 1.011e-3
-1.411, 1.011e-3
-1.412, 1.011e-3
-1.413, 1.011e-3
-1.414, 1.011e-3
-1.415, 1.011e-3
-1.416, 1.011e-3
-1.417, 1.011e-3
-1.418, 1.011e-3
-1.419, 1.011e-3
-1.420, 1.011e-3
-1.421, 1.011e-3
-1.422, 1.011e-3
-1.423, 1.011e-3
-1.424, 1.011e-3
-1.425, 1.011e-3
-1.426, 1.011e-3
-1.427, 1.011e-3
-1.428, 1.011e-3
-1.429, 1.011e-3
-1.430, 1.011e-3
-1.431, 1.011e-3
-1.432, 1.011e-3
-1.433, 1.011e-3
-1.434, 1.011e-3
-1.435, 1.011e-3
-1.436, 1.011e-3
-1.437, 1.011e-3
-1.438, 1.011e-3
-1.439, 1.011e-3
-1.440, 1.011e-3
-1.441, 1.011e-3
-1.442, 1.011e-3
-1.443, 1.011e-3
-1.444, 1.011e-3
-1.445, 1.011e-3
-1.446, 1.011e-3
-1.447, 1.011e-3
-1.448, 1.011e-3
-1.449, 1.011e-3
-1.450, 1.011e-3
-1.451, 1.011e-3
-1.452, 1.011e-3
-1.453, 1.011e-3
-1.454, 1.011e-3
-1.455, 1.011e-3
-1.456, 1.011e-3
-1.457, 1.011e-3
-1.458, 1.011e-3
-1.459, 1.011e-3
-1.460, 1.011e-3
-1.461, 1.011e-3
-1.462, 1.011e-3
-1.463, 1.011e-3
-1.464, 1.011e-3
-1.465, 1.011e-3
-1.466, 1.011e-3
-1.467, 1.011e-3
-1.468, 1.011e-3
-1.469, 1.011e-3
-1.470, 1.011e-3
-1.471, 1.011e-3
-1.472, 1.011e-3
-1.473, 1.011e-3
-1.474, 1.011e-3
-1.475, 1.011e-3
-1.476, 1.011e-3
-1.477, 1.011e-3
-1.478, 1.011e-3
-1.479, 1.011e-3
-1.480, 1.011e-3
-1.481, 1.011e-3
-1.482, 1.011e-3
-1.483, 1.011e-3
-1.484, 1.011e-3
-1.485, 1.011e-3
-1.486, 1.011e-3
-1.487, 1.011e-3
-1.488, 1.011e-3
-1.489, 1.011e-3
-1.490, 1.011e-3
-1.491, 1.011e-3
-1.492, 1.011e-3
-1.493, 1.011e-3
-1.494, 1.011e-3
-1.495, 1.011e-3
-1.496, 1.011e-3
-1.497, 1.011e-3
-1.498, 1.011e-3
-1.499, 1.011e-3
-1.500, 1.011e-3
-1.501, 1.011e-3
-1.502, 1.011e-3
-1.503, 1.011e-3
-1.504, 1.011e-3
-1.505, 1.011e-3
-1.506, 1.011e-3
-1.507, 1.011e-3
-1.508, 1.011e-3
-1.509, 1.011e-3
-1.510, 1.011e-3
-1.511, 1.011e-3
-1.512, 1.011e-3
-1.513, 1.011e-3
-1.514, 1.011e-3
-1.515, 1.011e-3
-1.516, 1.011e-3
-1.517, 1.011e-3
-1.518, 1.011e-3
-1.519, 1.011e-3
-1.520, 1.011e-3
-1.521, 1.011e-3
-1.522, 1.011e-3
-1.523, 1.011e-3
-1.524, 1.011e-3
-1.525, 1.011e-3
-1.526, 1.011e-3
-1.527, 1.011e-3
-1.528, 1.011e-3
-1.529, 1.011e-3
-1.530, 1.011e-3
-1.531, 1.011e-3
-1.532, 1.011e-3
-1.533, 1.011e-3
-1.534, 1.011e-3
-1.535, 1.011e-3
-1.536, 1.011e-3
-1.537, 1.011e-3
-1.538, 1.011e-3
-1.539, 1.011e-3
-1.540, 1.011e-3
-1.541, 1.011e-3
-1.542, 1.011e-3
-1.543, 1.011e-3
-1.544, 1.011e-3
-1.545, 1.011e-3
-1.546, 1.011e-3
-1.547, 1.011e-3
-1.548, 1.011e-3
-1.549, 1.011e-3
-1.550, 1.011e-3
-1.551, 1.011e-3
-1.552, 1.011e-3
-1.553, 1.011e-3
-1.554, 1.011e-3
-1.555, 1.011e-3
-1.556, 1.011e-3
-1.557, 1.011e-3
-1.558, 1.011e-3
-1.559, 1.011e-3
-1.560, 1.011e-3
-1.561, 1.011e-3
-1.562, 1.011e-3
-1.563, 1.011e-3
-1.564, 1.011e-3
-1.565, 1.011e-3
-1.566, 1.011e-3
-1.567, 1.011e-3
-1.568, 1.011e-3
-1.569, 1.011e-3
-1.570, 1.011e-3
-1.571, 1.011e-3
-1.572, 1.011e-3
-1.573, 1.011e-3
-1.574, 1.011e-3
-1.575, 1.011e-3
-1.576, 1.011e-3
-1.577, 1.011e-3
-1.578, 1.011e-3
-1.579, 1.011e-3
-1.580, 1.011e-3
-1.581, 1.011e-3
-1.582, 1.011e-3
-1.583, 1.011e-3
-1.584, 1.011e-3
-1.585, 1.011e-3
-1.586, 1.011e-3
-1.587, 1.011e-3
-1.588, 1.011e-3
-1.589, 1.011e-3
-1.590, 1.011e-3
-1.591, 1.011e-3
-1.592, 1.011e-3
-1.593, 1.011e-3
-1.594, 1.011e-3
-1.595, 1.011e-3
-1.596, 1.011e-3
-1.597, 1.011e-3
-1.598, 1.011e-3
-1.599, 1.011e-3
-1.600, 1.011e-3
-1.601, 1.011e-3
-1.602, 1.011e-3
-1.603, 1.011e-3
-1.604, 1.011e-3
-1.605, 1.011e-3
-1.606, 1.011e-3
-1.607, 1.011e-3
-1.608, 1.011e-3
-1.609, 1.011e-3
-1.610, 1.011e-3
-1.611, 1.011e-3
-1.612, 1.011e-3
-1.613, 1.011e-3
-1.614, 1.011e-3
-1.615, 1.011e-3
-1.616, 1.011e-3
-1.617, 1.011e-3
-1.618, 1.011e-3
-1.619, 1.011e-3
-1.620, 1.011e-3
-1.621, 1.011e-3
-1.622, 1.011e-3
-1.623, 1.011e-3
-1.624, 1.011e-3
-1.625, 1.011e-3
-1.626, 1.011e-3
-1.627, 1.011e-3
-1.628, 1.011e-3
-1.629, 1.011e-3
-1.630, 1.011e-3
-1.631, 1.011e-3
-1.632, 1.011e-3
-1.633, 1.011e-3
-1.634, 1.011e-3
-1.635, 1.011e-3
-1.636, 1.011e-3
-1.637, 1.011e-3
-1.638, 1.011e-3
-1.639, 1.011e-3
-1.640, 1.011e-3
-1.641, 1.011e-3
-1.642, 1.011e-3
-1.643, 1.011e-3
-1.644, 1.011e-3
-1.645, 1.011e-3
-1.646, 1.011e-3
-1.647, 1.011e-3
-1.648, 1.011e-3
-1.649, 1.011e-3
-1.650, 1.011e-3
-1.651, 1.011e-3
-1.652, 1.011e-3
-1.653, 1.011e-3
-1.654, 1.011e-3
-1.655, 1.011e-3
-1.656, 1.011e-3
-1.657, 1.011e-3
-1.658, 1.011e-3
-1.659, 1.011e-3
-1.660, 1.011e-3
-1.661, 1.011e-3
-1.662, 1.011e-3
-1.663, 1.011e-3
-1.664, 1.011e-3
-1.665, 1.011e-3
-1.666, 1.011e-3
-1.667, 1.011e-3
-1.668, 1.011e-3
-1.669, 1.011e-3
-1.670, 1.011e-3
-1.671, 1.011e-3
-1.672, 1.011e-3
-1.673, 1.011e-3
-1.674, 1.011e-3
-1.675, 1.011e-3
-1.676, 1.011e-3
-1.677, 1.011e-3
-1.678, 1.011e-3
-1.679, 1.011e-3
-1.680, 1.011e-3
-1.681, 1.011e-3
-1.682, 1.011e-3
-1.683, 1.011e-3
-1.684, 1.011e-3
-1.685, 1.011e-3
-1.686, 1.011e-3
-1.687, 1.011e-3
-1.688, 1.011e-3
-1.689, 1.011e-3
-1.690, 1.011e-3
-1.691, 1.011e-3
-1.692, 1.011e-3
-1.693, 1.011e-3
-1.694, 1.011e-3
-1.695, 1.011e-3
-1.696, 1.011e-3
-1.697, 1.011e-3
-1.698, 1.011e-3
-1.699, 1.011e-3
