Potential V vs RHE, Current mA cm-2
0.05339999999999995,-0.11208757628830686
0.05239999999999995,-0.1659456354741688
0.051399999999999946,-0.19155191000172597
0.050399999999999945,-0.20272812927065975
0.049399999999999944,-0.20994315689997145
0.04839999999999994,-0.2154605309694451
0.04739999999999994,-0.22012907825899972
0.04639999999999994,-0.22380732763864883
0.04539999999999994,-0.2279099904082574
0.04439999999999994,-0.23158823978790652
0.04339999999999994,-0.2345591335176231
0.04239999999999994,-0.23767149837732615
0.04139999999999994,-0.2397935653271237
0.040399999999999936,-0.24276445905684027
0.039399999999999935,-0.2460182950465299
0.038399999999999934,-0.24842330425630044
0.03739999999999993,-0.250545371206098
0.03639999999999993,-0.2526674381558955
0.03539999999999993,-0.2547895051056931
0.03439999999999993,-0.25733598544545017
0.03339999999999993,-0.25931658126526125
0.03239999999999993,-0.26129717708507233
0.03139999999999993,-0.2631363017748969
0.030399999999999927,-0.2649754264647214
0.029399999999999926,-0.26766337793446493
0.028399999999999925,-0.2695025026242895
0.027399999999999924,-0.2709172139241546
0.026399999999999924,-0.2728978097439656
0.025399999999999923,-0.27501987669376315
0.024399999999999922,-0.2770004725135742
0.02339999999999992,-0.27898106833338526
0.02239999999999992,-0.28025430850326377
0.02139999999999992,-0.2818104909331153
0.020399999999999918,-0.2839325578829129
0.019399999999999917,-0.2856302114427509
0.018399999999999916,-0.28775227839254847
0.017399999999999916,-0.289025518562427
0.016399999999999915,-0.29058170099227854
0.015399999999999914,-0.29256229681208956
0.014399999999999913,-0.2944014215019141
0.013399999999999912,-0.2962405461917387
0.012399999999999911,-0.2976552574916037
0.01139999999999991,-0.2989284976614822
0.01039999999999991,-0.3009090934812933
0.009399999999999908,-0.3028896893011043
0.008399999999999908,-0.3044458717309559
0.007399999999999907,-0.30600205416080745
0.006399999999999906,-0.30727529433068596
0.005399999999999905,-0.30925589015049704
0.004399999999999904,-0.31123648597030806
0.003399999999999903,-0.3125097261401866
0.002399999999999902,-0.31406590857003813
0.0013999999999999013,-0.31533914873991664
0.00039999999999990044,-0.3173197445597277
-0.0006000000000001005,-0.3191588692495523
-0.0016000000000001013,-0.32071505167940384
-0.0026000000000001022,-0.3222712341092553
-0.003600000000000103,-0.3236859454091204
-0.004600000000000104,-0.3253835989689584
-0.005600000000000105,-0.32764713704874243
-0.006600000000000106,-0.3290618483486075
-0.007600000000000107,-0.3303350885184861
-0.008600000000000108,-0.3320327420783241
-0.009600000000000108,-0.3335889245081756
-0.01060000000000011,-0.33571099145797323
-0.01160000000000011,-0.33769158727778426
-0.012600000000000111,-0.33981365422758186
-0.013600000000000112,-0.34108689439746037
-0.014600000000000113,-0.3423601345673389
-0.015600000000000114,-0.34434073038714996
-0.016600000000000115,-0.3464627973369475
-0.017600000000000116,-0.347736037506826
-0.018600000000000116,-0.3492922199366776
-0.019600000000000117,-0.35127281575648867
-0.020600000000000118,-0.3532534115762997
-0.02160000000000012,-0.3552340073961107
-0.02260000000000012,-0.3567901898259622
-0.02360000000000012,-0.3586293145157868
-0.024600000000000122,-0.36075138146558433
-0.025600000000000123,-0.36273197728539536
-0.026600000000000124,-0.3647125731052065
-0.027600000000000124,-0.36641022666504447
-0.028600000000000125,-0.36796640909489603
-0.029600000000000126,-0.3703714183046666
-0.030600000000000127,-0.37263495638445066
-0.03160000000000013,-0.37489849446423473
-0.03260000000000013,-0.37687909028404576
-0.03360000000000013,-0.3784352727138973
-0.03460000000000002,-0.3809817530536544
-0.03560000000000002,-0.3832452911334384
-0.03660000000000002,-0.38565030034320896
-0.03760000000000002,-0.38777236729300657
-0.03860000000000002,-0.38961149198283107
-0.039600000000000024,-0.39215797232258814
-0.040600000000000025,-0.3945629815323587
-0.041600000000000026,-0.39682651961214277
-0.04260000000000003,-0.3990900576919268
-0.04360000000000003,-0.4013535957717109
-0.04460000000000003,-0.40404154724145447
-0.04560000000000003,-0.40687096984118454
-0.04660000000000003,-0.40941745018094167
-0.04760000000000003,-0.4119639305206987
-0.04860000000000003,-0.4147933531204288
-0.04960000000000003,-0.41705689120021283
-0.050600000000000034,-0.4204521983198889
-0.051600000000000035,-0.423281620919619
-0.052600000000000036,-0.42582810125937604
-0.053600000000000037,-0.42879899498909263
-0.05460000000000004,-0.4319113598487957
-0.05560000000000004,-0.43516519583848523
-0.05660000000000004,-0.4385605029581614
-0.05760000000000004,-0.4413899255578914
-0.05860000000000004,-0.444360819287608
-0.05960000000000004,-0.4478975975372706
-0.06060000000000004,-0.4514343757869332
-0.061600000000000044,-0.45511262516658224
-0.06260000000000004,-0.4583664611562719
-0.06360000000000005,-0.46176176827594795
-0.06460000000000005,-0.4655814887855836
-0.06560000000000005,-0.4692597381652327
-0.06660000000000005,-0.47322092980485475
-0.06760000000000005,-0.47689917918450386
-0.06860000000000005,-0.480577428564153
-0.06960000000000005,-0.4845386202037751
-0.07060000000000005,-0.48878275410337013
-0.07160000000000005,-0.49302688800296524
-0.07260000000000005,-0.4971295507725738
-0.07360000000000005,-0.501090742412196
-0.07460000000000006,-0.5054763474417775
-0.07560000000000006,-0.5101448947313323
-0.07660000000000006,-0.5145304997609139
-0.07760000000000006,-0.5189161047904954
-0.07860000000000006,-0.5233017098200771
-0.07960000000000006,-0.5276873148496587
-0.08060000000000006,-0.5330632177891458
-0.08160000000000006,-0.5377317650787005
-0.08260000000000006,-0.5424003123682551
-0.08360000000000006,-0.5472103307877962
-0.08460000000000006,-0.5523032914673103
-0.08560000000000006,-0.5579621366667705
-0.08660000000000007,-0.562913626216298
-0.08760000000000007,-0.5681480580257988
-0.08860000000000007,-0.5733824898352994
-0.08960000000000007,-0.5786169216447999
-0.09060000000000007,-0.5844172379742467
-0.09160000000000007,-0.5900760831737067
-0.09260000000000007,-0.595169043853221
-0.09360000000000007,-0.6009693601826676
-0.09460000000000007,-0.6064867342521413
-0.09560000000000007,-0.6124285217115744
-0.09660000000000007,-0.6183703091710075
-0.09760000000000008,-0.6238876832404812
-0.09860000000000008,-0.6296879995699278
-0.09960000000000008,-0.6357712581593474
-0.10060000000000008,-0.6419959878787537
-0.10160000000000008,-0.6483621887281462
-0.10260000000000008,-0.6543039761875794
-0.10360000000000008,-0.6603872347769991
-0.10460000000000008,-0.6670363778863648
-0.10560000000000008,-0.6734025787357575
-0.10660000000000008,-0.6800517218451232
-0.10760000000000008,-0.6864179226945158
-0.10860000000000009,-0.6925011812839355
-0.10960000000000009,-0.6992917955232877
-0.11060000000000009,-0.7060824097626398
-0.11160000000000009,-0.7128730240019919
-0.11260000000000009,-0.7195221671113576
-0.11360000000000009,-0.7258883679607504
-0.11460000000000009,-0.733386337850035
-0.11560000000000009,-0.7406013654793466
-0.11660000000000009,-0.7472505085887123
-0.1176000000000001,-0.754465536218024
-0.1186000000000001,-0.7608317370674167
-0.1196000000000001,-0.7676223513067688
-0.1206000000000001,-0.77526179232604
-0.1216000000000001,-0.7824768199553517
-0.1226000000000001,-0.789550376454677
-0.1236000000000001,-0.7967654040839887
-0.1246000000000001,-0.8035560183233408
-0.1256000000000001,-0.8113369304725986
-0.1266000000000001,-0.8185519581019103
-0.1276000000000001,-0.825766985731222
-0.1286000000000001,-0.8329820133605336
-0.1296000000000001,-0.8401970409898453
-0.1306000000000001,-0.847977953139103
-0.1316000000000001,-0.8554759230283877
-0.1326000000000001,-0.8628324217876858
-0.1336000000000001,-0.8703303916769705
-0.1346000000000001,-0.8776868904362687
-0.1356000000000001,-0.8854678025855264
-0.1366000000000001,-0.8935316569947571
-0.1376000000000001,-0.9007466846240689
-0.1386000000000001,-0.90838612564334
-0.1396000000000001,-0.9164499800525707
-0.1406000000000001,-0.9243723633318148
-0.14160000000000011,-0.9324362177410456
-0.14260000000000012,-0.9397927165003438
-0.14360000000000012,-0.9475736286496015
-0.14460000000000012,-0.9553545407988592
-0.14560000000000012,-0.96341839520809
-0.14660000000000012,-0.9714822496173208
-0.14760000000000012,-0.9795461040265513
-0.14860000000000012,-0.9870440739158362
-0.14960000000000012,-0.9952493994550534
-0.15060000000000012,-1.0035961961242568
-0.15160000000000012,-1.012084463923447
-0.15260000000000012,-1.0202897894626646
-0.15360000000000013,-1.0279292304819356
-0.15460000000000013,-1.0362760271511395
-0.15560000000000013,-1.0447642949503297
-0.15660000000000013,-1.052969620489547
-0.15760000000000013,-1.0613164171587506
-0.15860000000000013,-1.069238800437995
-0.15960000000000002,-1.0775855971071984
-0.16060000000000002,-1.0864982782963482
-0.16160000000000002,-1.0948450749655518
-0.16260000000000002,-1.103333342764742
-0.16360000000000002,-1.1115386683039592
-0.16460000000000002,-1.1201684072331362
-0.16560000000000002,-1.1297884440722183
-0.16660000000000003,-1.140115836561233
-0.16760000000000003,-1.1478967487104907
-0.16860000000000003,-1.156102074249708
-0.16960000000000003,-1.164590342048898
-0.17060000000000003,-1.1737859654980207
-0.17160000000000003,-1.1825571755571842
-0.17260000000000003,-1.1913283856163475
-0.17360000000000003,-1.1999581245455242
-0.17460000000000003,-1.208870805734674
-0.17560000000000003,-1.21792495805381
-0.17660000000000003,-1.2271205815029327
-0.17760000000000004,-1.2358917915620962
-0.17860000000000004,-1.2452288861412053
-0.17960000000000004,-1.254141567330355
-0.18060000000000004,-1.2633371907794777
-0.18160000000000004,-1.27295722761856
-0.18260000000000004,-1.28186990880771
-0.18360000000000004,-1.2907825899968595
-0.18460000000000004,-1.2999782134459823
-0.18560000000000004,-1.3093153080250914
-0.18660000000000004,-1.318793873734187
-0.18760000000000004,-1.3281309683132965
-0.18860000000000005,-1.3373265917624193
-0.18960000000000005,-1.346805157471515
-0.19060000000000005,-1.356142252050624
-0.19160000000000005,-1.3659037600196928
-0.19260000000000005,-1.3755237968587752
-0.19360000000000005,-1.384436478047925
-0.19460000000000005,-1.3939150437570205
-0.19560000000000005,-1.4035350805961027
-0.19660000000000005,-1.4130136463051988
-0.19760000000000005,-1.423199567664227
-0.19860000000000005,-1.431687835463417
-0.19960000000000006,-1.4415908145624723
-0.20060000000000006,-1.4514937936615278
-0.20160000000000006,-1.459982061460718
-0.20260000000000006,-1.4698850405597732
-0.20360000000000006,-1.4783733083589634
-0.20460000000000006,-1.4882762874580184
-0.20560000000000006,-1.498179266557074
-0.20660000000000006,-1.506667534356264
-0.20760000000000006,-1.5165705134553193
-0.20860000000000006,-1.5250587812545096
-0.20960000000000006,-1.5335470490536998
-0.21060000000000006,-1.543450028152755
-0.21160000000000007,-1.5533530072518102
-0.21260000000000007,-1.5618412750510005
-0.21360000000000007,-1.5703295428501907
-0.21460000000000007,-1.5788178106493809
-0.21560000000000007,-1.5887207897484361
-0.21660000000000007,-1.5986237688474914
-0.21760000000000007,-1.6071120366466816
-0.21860000000000007,-1.6156003044458718
-0.21960000000000007,-1.6240885722450622
-0.22060000000000007,-1.6325768400442524
-0.22160000000000007,-1.6410651078434426
-0.22260000000000008,-1.6495533756426328
-0.22360000000000008,-1.658041643441823
-0.22460000000000008,-1.6651151999411482
-0.22560000000000008,-1.6736034677403384
-0.22660000000000008,-1.6820917355395286
-0.22760000000000008,-1.6891652920388538
-0.22860000000000008,-1.6976535598380442
-0.22960000000000008,-1.7047271163373692
-0.23060000000000008,-1.7132153841365596
-0.23160000000000008,-1.7202889406358846
-0.23260000000000008,-1.72736249713521
-0.23360000000000009,-1.734436053634535
-0.2346000000000001,-1.7415096101338603
-0.2356000000000001,-1.7485831666331852
-0.2366000000000001,-1.7556567231325106
-0.2376000000000001,-1.7627302796318356
-0.2386000000000001,-1.768389124831296
-0.2396000000000001,-1.775462681330621
-0.2406000000000001,-1.7825362378299463
-0.2416000000000001,-1.7881950830294064
-0.2426000000000001,-1.7952686395287314
-0.2436000000000001,-1.8009274847281918
-0.2446000000000001,-1.8065863299276517
-0.2456000000000001,-1.8122451751271118
-0.2466000000000001,-1.8179040203265722
-0.2476000000000001,-1.823562865526032
-0.2486000000000001,-1.8292217107254924
-0.2496000000000001,-1.8334658446250875
-0.2506000000000001,-1.8391246898245475
-0.2516000000000001,-1.8447835350240078
-0.2526000000000001,-1.849027668923603
-0.2536000000000001,-1.8546865141230628
-0.2546000000000001,-1.857515936722793
-0.2556000000000001,-1.8631747819222533
-0.2566000000000001,-1.8674189158218486
-0.2576000000000001,-1.8716630497214433
-0.2586000000000001,-1.8759071836210386
-0.2596000000000001,-1.8787366062207687
-0.2606000000000001,-1.882980740120364
-0.2616000000000001,-1.8872248740199586
-0.2626000000000001,-1.890054296619689
-0.2636000000000001,-1.894298430519284
-0.2646000000000001,-1.897127853119014
-0.2656000000000001,-1.8999572757187444
-0.2666000000000001,-1.9042014096183393
-0.2676000000000001,-1.9070308322180693
-0.2686000000000001,-1.9098602548177994
-0.2696000000000001,-1.9126896774175295
-0.2706000000000001,-1.9141043887173947
-0.2716000000000001,-1.9169338113171246
-0.2726000000000001,-1.9197632339168547
-0.2736000000000001,-1.92117794521672
-0.2746000000000001,-1.92400736781645
-0.2756000000000001,-1.92683679041618
-0.2766000000000001,-1.9282515017160449
-0.2776000000000001,-1.9310809243157752
-0.2786000000000001,-1.9324956356156402
-0.2796000000000001,-1.933910346915505
-0.2806000000000001,-1.93532505821537
-0.28160000000000013,-1.9381544808151003
-0.28260000000000013,-1.9395691921149654
-0.28360000000000013,-1.9409839034148304
-0.2846,-1.9423986147146954
-0.2856,-1.9438133260145605
-0.2866,-1.9452280373144257
-0.2876,-1.9466427486142908
-0.2886,-1.9466427486142908
-0.2896,-1.9480574599141556
-0.2906,-1.9494721712140204
-0.2916,-1.9508868825138854
-0.2926,-1.9523015938137507
-0.2936,-1.9537163051136157
-0.29460000000000003,-1.9537163051136157
-0.29560000000000003,-1.9551310164134805
-0.29660000000000003,-1.9565457277133458
-0.29760000000000003,-1.9565457277133458
-0.29860000000000003,-1.9579604390132106
-0.29960000000000003,-1.9579604390132106
-0.30060000000000003,-1.959375150313076
-0.30160000000000003,-1.9607898616129409
-0.30260000000000004,-1.9607898616129409
-0.30360000000000004,-1.9622045729128061
-0.30460000000000004,-1.9622045729128061
-0.30560000000000004,-1.963619284212671
-0.30660000000000004,-1.9650339955125358
-0.30760000000000004,-1.9664487068124006
-0.30860000000000004,-1.9664487068124006
-0.30960000000000004,-1.967863418112266
-0.31060000000000004,-1.9692781294121309
-0.31160000000000004,-1.9706928407119961
-0.31260000000000004,-1.972107552011861
-0.31360000000000005,-1.972107552011861
-0.31460000000000005,-1.9735222633117262
-0.31560000000000005,-1.9749369746115912
-0.31660000000000005,-1.9763516859114565
-0.31760000000000005,-1.9777663972113213
-0.31860000000000005,-1.9777663972113213
-0.31960000000000005,-1.9791811085111866
-0.32060000000000005,-1.9820105311109162
-0.32160000000000005,-1.9820105311109162
-0.32260000000000005,-1.9848399537106465
-0.32360000000000005,-1.9848399537106465
-0.32460000000000006,-1.9862546650105113
-0.32560000000000006,-1.9876693763103765
-0.32660000000000006,-1.9904987989101068
-0.32760000000000006,-1.9919135102099716
-0.32860000000000006,-1.993328221509837
-0.32960000000000006,-1.9947429328097017
-0.33060000000000006,-1.9975723554094316
-0.33160000000000006,-1.9989870667092968
-0.33260000000000006,-2.001816489309027
-0.33360000000000006,-2.0032312006088917
-0.33460000000000006,-2.004645911908757
-0.33560000000000006,-2.007475334508487
-0.33660000000000007,-2.0103047571082175
-0.33760000000000007,-2.011719468408082
-0.33860000000000007,-2.014548891007812
-0.33960000000000007,-2.017378313607542
-0.34060000000000007,-2.020207736207272
-0.34160000000000007,-2.023037158807002
-0.34260000000000007,-2.0258665814067327
-0.34360000000000007,-2.0286960040064623
-0.3446000000000001,-2.0315254266061924
-0.3456000000000001,-2.0329401379060577
-0.3466000000000001,-2.0371842718056525
-0.34759999999999996,-2.040013694405383
-0.3486000000000001,-2.042843117005113
-0.34959999999999997,-2.047087250904708
-0.3506000000000001,-2.049916673504438
-0.35159999999999997,-2.052746096104168
-0.3526000000000001,-2.0569902300037635
-0.35359999999999997,-2.0598196526034935
-0.3546000000000001,-2.0640637865030884
-0.35559999999999997,-2.0668932091028185
-0.3566000000000001,-2.071137343002414
-0.3576,-2.0753814769020087
-0.3586000000000001,-2.079625610801604
-0.3596,-2.083869744701199
-0.3606000000000001,-2.0881138786007942
-0.3616,-2.092358012500389
-0.3626000000000001,-2.0966021463999844
-0.3636,-2.1008462802995793
-0.3646000000000001,-2.105090414199175
-0.3656,-2.1093345480987695
-0.3666000000000001,-2.113578681998365
-0.3676,-2.1192375271978254
-0.3686000000000001,-2.12348166109742
-0.3696,-2.12914050629688
-0.3706000000000001,-2.133384640196476
-0.3716,-2.1390434853959355
-0.3726000000000001,-2.1447023305953956
-0.3736,-2.148946464494991
-0.3746000000000001,-2.1546053096944506
-0.3756,-2.1602641548939108
-0.3766000000000001,-2.1645082887935065
-0.3776,-2.1701671339929662
-0.3786000000000001,-2.1758259791924264
-0.3796,-2.181484824391887
-0.3806000000000001,-2.1871436695913467
-0.3816,-2.192802514790807
-0.3826000000000001,-2.1984613599902674
-0.3836,-2.204120205189727
-0.3846000000000001,-2.2097790503891876
-0.3856,-2.215437895588648
-0.3866000000000001,-2.2225114520879723
-0.3876,-2.228170297287433
-0.3886000000000001,-2.235243853786758
-0.3896,-2.2409026989862184
-0.3906000000000001,-2.2465615441856785
-0.3916,-2.253635100685003
-0.3926000000000001,-2.260708657184329
-0.3936,-2.2663675023837886
-0.3946000000000001,-2.272026347583249
-0.3956,-2.279099904082574
-0.3966000000000001,-2.286173460581899
-0.3976,-2.2932470170812245
-0.3986000000000001,-2.298905862280684
-0.3996,-2.3045647074801447
-0.4006000000000001,-2.3116382639794697
-0.4016,-2.318711820478795
-0.4026000000000001,-2.3257853769781205
-0.4036,-2.3328589334774454
-0.4046000000000001,-2.3385177786769056
-0.4056,-2.3455913351762305
-0.40660000000000013,-2.352664891675556
-0.4076,-2.359738448174881
-0.40860000000000013,-2.3682267159740715
-0.4096,-2.3738855611735317
-0.41060000000000013,-2.380959117672857
-0.4116,-2.388032674172182
-0.41260000000000013,-2.3951062306715074
-0.4136,-2.4021797871708324
-0.41460000000000014,-2.4092533436701573
-0.4156,-2.4163269001694827
-0.41660000000000014,-2.4234004566688077
-0.4176,-2.430474013168133
-0.41860000000000014,-2.437547569667458
-0.41960000000000003,-2.4446211261667834
-0.42060000000000014,-2.451694682666109
-0.42160000000000003,-2.460182950465299
-0.42260000000000014,-2.467256506964624
-0.42360000000000003,-2.4743300634639493
-0.42460000000000014,-2.4814036199632743
-0.42560000000000003,-2.4884771764625997
-0.42660000000000015,-2.4955507329619246
-0.42760000000000004,-2.504039000761115
-0.42860000000000015,-2.509697845960575
-0.42960000000000004,-2.518186113759765
-0.43060000000000015,-2.5238449589592253
-0.43160000000000004,-2.532333226758415
-0.43260000000000015,-2.539406783257741
-0.43360000000000004,-2.546480339757066
-0.43460000000000015,-2.5535538962563913
-0.43560000000000004,-2.5606274527557162
-0.43660000000000015,-2.5677010092550416
-0.43760000000000004,-2.576189277054232
-0.43860000000000016,-2.581848122253692
-0.43960000000000005,-2.588921678753017
-0.44060000000000016,-2.597409946552207
-0.44160000000000005,-2.6044835030515325
-0.44260000000000016,-2.6115570595508575
-0.44360000000000005,-2.618630616050183
-0.44460000000000016,-2.6257041725495083
-0.44560000000000005,-2.6327777290488332
-0.44660000000000016,-2.639851285548158
-0.44760000000000005,-2.6469248420474836
-0.44860000000000017,-2.655413109846674
