Dec. 14, 2024   08:20:24
Cyclic Voltammetry
File: c:/users/guazh/data/banditlqround7_x0exp59_r20/2024-12-09-exp656\exp656-2024-12-14t07_54_37-arkoh\exp656_cv_sr_600mvs_efin_-2000mv.bin
Data Source:  Experiment
Instrument Model:  CHI760E
Header: CV ran at 600 mVs
Note: 

Init E (V) = -1
High E (V) = -1
Low E (V) = -2
Final E (V) = -1
Init P/N = N
Scan Rate (V/s) = 0.6
Segment = 3
Sample Interval (V) = 0.001
Quiet Time (sec) = 2
Sensitivity (A/V) = 0.01
Comp R (ohm) = 1.5

Results:

Channel 1:
Segment 1:

Segment 2:

Segment 3:

Potential/V, Current/A

-1.000, 3.239e-6
-1.001, 3.239e-6
-1.002, 3.239e-6
-1.003, 3.239e-6
-1.004, 3.239e-6
-1.005, 3.239e-6
-1.006, 1.559e-7
-1.007, 3.239e-6
-1.008, 3.239e-6
-1.009, 3.239e-6
-1.010, 3.239e-6
-1.011, 3.239e-6
-1.012, 3.239e-6
-1.013, 3.239e-6
-1.014, 3.239e-6
-1.015, 3.239e-6
-1.016, 3.239e-6
-1.017, 3.239e-6
-1.018, 3.239e-6
-1.019, 3.239e-6
-1.020, 3.239e-6
-1.021, 3.239e-6
-1.022, 3.239e-6
-1.023, 3.239e-6
-1.024, 3.239e-6
-1.025, 3.239e-6
-1.026, 3.239e-6
-1.027, 3.239e-6
-1.028, 3.239e-6
-1.029, 3.239e-6
-1.030, 3.239e-6
-1.031, 3.239e-6
-1.032, 3.239e-6
-1.033, 3.239e-6
-1.034, 3.239e-6
-1.035, 3.239e-6
-1.036, 3.239e-6
-1.037, 3.239e-6
-1.038, 3.239e-6
-1.039, 3.239e-6
-1.040, 3.239e-6
-1.041, 3.239e-6
-1.042, 3.239e-6
-1.043, 3.239e-6
-1.044, 3.239e-6
-1.045, 3.239e-6
-1.046, 3.239e-6
-1.047, 3.239e-6
-1.048, 3.239e-6
-1.049, 3.239e-6
-1.050, 3.239e-6
-1.051, 3.239e-6
-1.052, 3.239e-6
-1.053, 3.239e-6
-1.054, 3.239e-6
-1.055, 3.239e-6
-1.056, 3.239e-6
-1.057, 3.239e-6
-1.058, 3.239e-6
-1.059, 3.239e-6
-1.060, 3.239e-6
-1.061, 3.239e-6
-1.062, 3.239e-6
-1.063, 3.239e-6
-1.064, 3.239e-6
-1.065, 3.239e-6
-1.066, 3.239e-6
-1.067, 3.239e-6
-1.068, 3.239e-6
-1.069, 3.239e-6
-1.070, 3.239e-6
-1.071, 3.239e-6
-1.072, 3.239e-6
-1.073, 3.239e-6
-1.074, 3.239e-6
-1.075, 3.239e-6
-1.076, 3.239e-6
-1.077, 3.239e-6
-1.078, 3.239e-6
-1.079, 3.239e-6
-1.080, 3.239e-6
-1.081, 3.239e-6
-1.082, 3.239e-6
-1.083, 3.239e-6
-1.084, 3.239e-6
-1.085, 3.239e-6
-1.086, 3.239e-6
-1.087, 3.239e-6
-1.088, 3.239e-6
-1.089, 3.239e-6
-1.090, 3.239e-6
-1.091, 3.239e-6
-1.092, 3.239e-6
-1.093, 3.239e-6
-1.094, 3.239e-6
-1.095, 3.239e-6
-1.096, 3.239e-6
-1.097, 3.239e-6
-1.098, 3.239e-6
-1.099, 3.239e-6
-1.100, 3.239e-6
-1.101, 3.239e-6
-1.102, 3.239e-6
-1.103, 3.239e-6
-1.104, 3.239e-6
-1.105, 6.322e-6
-1.106, 3.239e-6
-1.107, 3.239e-6
-1.108, 3.239e-6
-1.109, 3.239e-6
-1.110, 3.239e-6
-1.111, 6.322e-6
-1.112, 6.322e-6
-1.113, 3.239e-6
-1.114, 3.239e-6
-1.115, 3.239e-6
-1.116, 3.239e-6
-1.117, 6.322e-6
-1.118, 3.239e-6
-1.119, 3.239e-6
-1.120, 3.239e-6
-1.121, 3.239e-6
-1.122, 6.322e-6
-1.123, 6.322e-6
-1.124, 3.239e-6
-1.125, 6.322e-6
-1.126, 3.239e-6
-1.127, 3.239e-6
-1.128, 6.322e-6
-1.129, 3.239e-6
-1.130, 3.239e-6
-1.131, 3.239e-6
-1.132, 6.322e-6
-1.133, 3.239e-6
-1.134, 6.322e-6
-1.135, 3.239e-6
-1.136, 3.239e-6
-1.137, 6.322e-6
-1.138, 3.239e-6
-1.139, 6.322e-6
-1.140, 6.322e-6
-1.141, 3.239e-6
-1.142, 6.322e-6
-1.143, 3.239e-6
-1.144, 6.322e-6
-1.145, 6.322e-6
-1.146, 3.239e-6
-1.147, 3.239e-6
-1.148, 6.322e-6
-1.149, 3.239e-6
-1.150, 3.239e-6
-1.151, 6.322e-6
-1.152, 6.322e-6
-1.153, 6.322e-6
-1.154, 6.322e-6
-1.155, 3.239e-6
-1.156, 6.322e-6
-1.157, 6.322e-6
-1.158, 3.239e-6
-1.159, 6.322e-6
-1.160, 6.322e-6
-1.161, 3.239e-6
-1.162, 6.322e-6
-1.163, 6.322e-6
-1.164, 3.239e-6
-1.165, 6.322e-6
-1.166, 3.239e-6
-1.167, 6.322e-6
-1.168, 6.322e-6
-1.169, 3.239e-6
-1.170, 3.239e-6
-1.171, 6.322e-6
-1.172, 6.322e-6
-1.173, 6.322e-6
-1.174, 6.322e-6
-1.175, 3.239e-6
-1.176, 6.322e-6
-1.177, 6.322e-6
-1.178, 3.239e-6
-1.179, 6.322e-6
-1.180, 6.322e-6
-1.181, 6.322e-6
-1.182, 6.322e-6
-1.183, 6.322e-6
-1.184, 6.322e-6
-1.185, 6.322e-6
-1.186, 3.239e-6
-1.187, 6.322e-6
-1.188, 6.322e-6
-1.189, 6.322e-6
-1.190, 6.322e-6
-1.191, 6.322e-6
-1.192, 6.322e-6
-1.193, 6.322e-6
-1.194, 6.322e-6
-1.195, 6.322e-6
-1.196, 6.322e-6
-1.197, 6.322e-6
-1.198, 6.322e-6
-1.199, 6.322e-6
-1.200, 6.322e-6
-1.201, 6.322e-6
-1.202, 6.322e-6
-1.203, 6.322e-6
-1.204, 6.322e-6
-1.205, 6.322e-6
-1.206, 6.322e-6
-1.207, 6.322e-6
-1.208, 6.322e-6
-1.209, 6.322e-6
-1.210, 6.322e-6
-1.211, 6.322e-6
-1.212, 6.322e-6
-1.213, 6.322e-6
-1.214, 6.322e-6
-1.215, 6.322e-6
-1.216, 6.322e-6
-1.217, 6.322e-6
-1.218, 6.322e-6
-1.219, 6.322e-6
-1.220, 6.322e-6
-1.221, 6.322e-6
-1.222, 6.322e-6
-1.223, 6.322e-6
-1.224, 6.322e-6
-1.225, 6.322e-6
-1.226, 6.322e-6
-1.227, 6.322e-6
-1.228, 6.322e-6
-1.229, 6.322e-6
-1.230, 6.322e-6
-1.231, 6.322e-6
-1.232, 6.322e-6
-1.233, 6.322e-6
-1.234, 6.322e-6
-1.235, 6.322e-6
-1.236, 6.322e-6
-1.237, 6.322e-6
-1.238, 6.322e-6
-1.239, 6.322e-6
-1.240, 6.322e-6
-1.241, 6.322e-6
-1.242, 6.322e-6
-1.243, 6.322e-6
-1.244, 6.322e-6
-1.245, 6.322e-6
-1.246, 6.322e-6
-1.247, 6.322e-6
-1.248, 6.322e-6
-1.249, 6.322e-6
-1.250, 6.322e-6
-1.251, 6.322e-6
-1.252, 6.322e-6
-1.253, 6.322e-6
-1.254, 6.322e-6
-1.255, 6.322e-6
-1.256, 6.322e-6
-1.257, 6.322e-6
-1.258, 6.322e-6
-1.259, 6.322e-6
-1.260, 6.322e-6
-1.261, 6.322e-6
-1.262, 6.322e-6
-1.263, 6.322e-6
-1.264, 6.322e-6
-1.265, 6.322e-6
-1.266, 6.322e-6
-1.267, 6.322e-6
-1.268, 6.322e-6
-1.269, 6.322e-6
-1.270, 6.322e-6
-1.271, 6.322e-6
-1.272, 6.322e-6
-1.273, 6.322e-6
-1.274, 6.322e-6
-1.275, 6.322e-6
-1.276, 6.322e-6
-1.277, 6.322e-6
-1.278, 6.322e-6
-1.279, 6.322e-6
-1.280, 6.322e-6
-1.281, 6.322e-6
-1.282, 6.322e-6
-1.283, 6.322e-6
-1.284, 9.405e-6
-1.285, 6.322e-6
-1.286, 6.322e-6
-1.287, 6.322e-6
-1.288, 6.322e-6
-1.289, 6.322e-6
-1.290, 6.322e-6
-1.291, 6.322e-6
-1.292, 6.322e-6
-1.293, 6.322e-6
-1.294, 6.322e-6
-1.295, 9.405e-6
-1.296, 6.322e-6
-1.297, 6.322e-6
-1.298, 6.322e-6
-1.299, 6.322e-6
-1.300, 6.322e-6
-1.301, 6.322e-6
-1.302, 6.322e-6
-1.303, 6.322e-6
-1.304, 6.322e-6
-1.305, 6.322e-6
-1.306, 9.405e-6
-1.307, 6.322e-6
-1.308, 6.322e-6
-1.309, 9.405e-6
-1.310, 6.322e-6
-1.311, 6.322e-6
-1.312, 6.322e-6
-1.313, 6.322e-6
-1.314, 6.322e-6
-1.315, 6.322e-6
-1.316, 6.322e-6
-1.317, 9.405e-6
-1.318, 9.405e-6
-1.319, 6.322e-6
-1.320, 9.405e-6
-1.321, 6.322e-6
-1.322, 9.405e-6
-1.323, 9.405e-6
-1.324, 6.322e-6
-1.325, 6.322e-6
-1.326, 9.405e-6
-1.327, 6.322e-6
-1.328, 6.322e-6
-1.329, 6.322e-6
-1.330, 6.322e-6
-1.331, 6.322e-6
-1.332, 9.405e-6
-1.333, 6.322e-6
-1.334, 9.405e-6
-1.335, 9.405e-6
-1.336, 6.322e-6
-1.337, 6.322e-6
-1.338, 9.405e-6
-1.339, 9.405e-6
-1.340, 9.405e-6
-1.341, 6.322e-6
-1.342, 6.322e-6
-1.343, 9.405e-6
-1.344, 9.405e-6
-1.345, 9.405e-6
-1.346, 9.405e-6
-1.347, 9.405e-6
-1.348, 9.405e-6
-1.349, 9.405e-6
-1.350, 6.322e-6
-1.351, 6.322e-6
-1.352, 9.405e-6
-1.353, 6.322e-6
-1.354, 9.405e-6
-1.355, 9.405e-6
-1.356, 6.322e-6
-1.357, 9.405e-6
-1.358, 9.405e-6
-1.359, 6.322e-6
-1.360, 6.322e-6
-1.361, 6.322e-6
-1.362, 9.405e-6
-1.363, 9.405e-6
-1.364, 6.322e-6
-1.365, 9.405e-6
-1.366, 9.405e-6
-1.367, 9.405e-6
-1.368, 9.405e-6
-1.369, 9.405e-6
-1.370, 9.405e-6
-1.371, 9.405e-6
-1.372, 9.405e-6
-1.373, 9.405e-6
-1.374, 9.405e-6
-1.375, 9.405e-6
-1.376, 9.405e-6
-1.377, 9.405e-6
-1.378, 6.322e-6
-1.379, 9.405e-6
-1.380, 9.405e-6
-1.381, 9.405e-6
-1.382, 9.405e-6
-1.383, 9.405e-6
-1.384, 9.405e-6
-1.385, 9.405e-6
-1.386, 9.405e-6
-1.387, 9.405e-6
-1.388, 9.405e-6
-1.389, 9.405e-6
-1.390, 9.405e-6
-1.391, 9.405e-6
-1.392, 9.405e-6
-1.393, 9.405e-6
-1.394, 9.405e-6
-1.395, 9.405e-6
-1.396, 9.405e-6
-1.397, 9.405e-6
-1.398, 9.405e-6
-1.399, 9.405e-6
-1.400, 9.405e-6
-1.401, 9.405e-6
-1.402, 9.405e-6
-1.403, 9.405e-6
-1.404, 9.405e-6
-1.405, 9.405e-6
-1.406, 9.405e-6
-1.407, 9.405e-6
-1.408, 9.405e-6
-1.409, 9.405e-6
-1.410, 9.405e-6
-1.411, 9.405e-6
-1.412, 9.405e-6
-1.413, 9.405e-6
-1.414, 9.405e-6
-1.415, 9.405e-6
-1.416, 9.405e-6
-1.417, 9.405e-6
-1.418, 9.405e-6
-1.419, 9.405e-6
-1.420, 9.405e-6
-1.421, 9.405e-6
-1.422, 9.405e-6
-1.423, 9.405e-6
-1.424, 9.405e-6
-1.425, 9.405e-6
-1.426, 9.405e-6
-1.427, 9.405e-6
-1.428, 9.405e-6
-1.429, 9.405e-6
-1.430, 9.405e-6
-1.431, 9.405e-6
-1.432, 9.405e-6
-1.433, 9.405e-6
-1.434, 9.405e-6
-1.435, 9.405e-6
-1.436, 9.405e-6
-1.437, 9.405e-6
-1.438, 9.405e-6
-1.439, 9.405e-6
-1.440, 9.405e-6
-1.441, 9.405e-6
-1.442, 9.405e-6
-1.443, 9.405e-6
-1.444, 9.405e-6
-1.445, 9.405e-6
-1.446, 9.405e-6
-1.447, 9.405e-6
-1.448, 9.405e-6
-1.449, 9.405e-6
-1.450, 9.405e-6
-1.451, 9.405e-6
-1.452, 9.405e-6
-1.453, 9.405e-6
-1.454, 9.405e-6
-1.455, 9.405e-6
-1.456, 9.405e-6
-1.457, 9.405e-6
-1.458, 9.405e-6
-1.459, 9.405e-6
-1.460, 9.405e-6
-1.461, 9.405e-6
-1.462, 9.405e-6
-1.463, 9.405e-6
-1.464, 1.249e-5
-1.465, 9.405e-6
-1.466, 9.405e-6
-1.467, 1.249e-5
-1.468, 9.405e-6
-1.469, 9.405e-6
-1.470, 1.249e-5
-1.471, 9.405e-6
-1.472, 9.405e-6
-1.473, 9.405e-6
-1.474, 9.405e-6
-1.475, 1.249e-5
-1.476, 1.249e-5
-1.477, 9.405e-6
-1.478, 1.249e-5
-1.479, 9.405e-6
-1.480, 9.405e-6
-1.481, 1.249e-5
-1.482, 1.249e-5
-1.483, 1.249e-5
-1.484, 9.405e-6
-1.485, 1.249e-5
-1.486, 9.405e-6
-1.487, 1.249e-5
-1.488, 9.405e-6
-1.489, 1.249e-5
-1.490, 1.249e-5
-1.491, 9.405e-6
-1.492, 1.249e-5
-1.493, 1.249e-5
-1.494, 9.405e-6
-1.495, 1.249e-5
-1.496, 1.249e-5
-1.497, 1.249e-5
-1.498, 1.249e-5
-1.499, 1.249e-5
-1.500, 1.249e-5
-1.501, 1.249e-5
-1.502, 1.249e-5
-1.503, 1.249e-5
-1.504, 1.249e-5
-1.505, 1.249e-5
-1.506, 1.249e-5
-1.507, 1.249e-5
-1.508, 1.249e-5
-1.509, 1.249e-5
-1.510, 1.249e-5
-1.511, 1.249e-5
-1.512, 1.249e-5
-1.513, 1.249e-5
-1.514, 1.249e-5
-1.515, 1.249e-5
-1.516, 1.249e-5
-1.517, 1.249e-5
-1.518, 1.249e-5
-1.519, 1.249e-5
-1.520, 1.249e-5
-1.521, 1.249e-5
-1.522, 1.249e-5
-1.523, 1.249e-5
-1.524, 1.249e-5
-1.525, 1.249e-5
-1.526, 1.249e-5
-1.527, 1.249e-5
-1.528, 1.249e-5
-1.529, 1.249e-5
-1.530, 1.249e-5
-1.531, 1.249e-5
-1.532, 1.249e-5
-1.533, 1.249e-5
-1.534, 1.249e-5
-1.535, 1.249e-5
-1.536, 1.249e-5
-1.537, 1.249e-5
-1.538, 1.249e-5
-1.539, 1.249e-5
-1.540, 1.249e-5
-1.541, 1.249e-5
-1.542, 1.249e-5
-1.543, 1.557e-5
-1.544, 1.249e-5
-1.545, 1.249e-5
-1.546, 1.249e-5
-1.547, 1.249e-5
-1.548, 1.557e-5
-1.549, 1.557e-5
-1.550, 1.249e-5
-1.551, 1.557e-5
-1.552, 1.557e-5
-1.553, 1.249e-5
-1.554, 1.557e-5
-1.555, 1.557e-5
-1.556, 1.249e-5
-1.557, 1.557e-5
-1.558, 1.557e-5
-1.559, 1.557e-5
-1.560, 1.557e-5
-1.561, 1.557e-5
-1.562, 1.557e-5
-1.563, 1.557e-5
-1.564, 1.557e-5
-1.565, 1.557e-5
-1.566, 1.557e-5
-1.567, 1.557e-5
-1.568, 1.557e-5
-1.569, 1.557e-5
-1.570, 1.557e-5
-1.571, 1.557e-5
-1.572, 1.557e-5
-1.573, 1.557e-5
-1.574, 1.557e-5
-1.575, 1.557e-5
-1.576, 1.557e-5
-1.577, 1.557e-5
-1.578, 1.557e-5
-1.579, 1.557e-5
-1.580, 1.557e-5
-1.581, 1.557e-5
-1.582, 1.865e-5
-1.583, 1.557e-5
-1.584, 1.865e-5
-1.585, 1.557e-5
-1.586, 1.557e-5
-1.587, 1.557e-5
-1.588, 1.865e-5
-1.589, 1.557e-5
-1.590, 1.865e-5
-1.591, 1.865e-5
-1.592, 1.865e-5
-1.593, 1.865e-5
-1.594, 1.865e-5
-1.595, 1.865e-5
-1.596, 1.865e-5
-1.597, 1.865e-5
-1.598, 1.865e-5
-1.599, 1.865e-5
-1.600, 1.865e-5
-1.601, 1.865e-5
-1.602, 1.865e-5
-1.603, 1.865e-5
-1.604, 1.865e-5
-1.605, 2.174e-5
-1.606, 1.865e-5
-1.607, 2.174e-5
-1.608, 1.865e-5
-1.609, 1.865e-5
-1.610, 2.174e-5
-1.611, 2.174e-5
-1.612, 2.174e-5
-1.613, 2.174e-5
-1.614, 2.174e-5
-1.615, 2.174e-5
-1.616, 2.174e-5
-1.617, 2.174e-5
-1.618, 2.174e-5
-1.619, 2.174e-5
-1.620, 2.174e-5
-1.621, 2.174e-5
-1.622, 2.482e-5
-1.623, 2.174e-5
-1.624, 2.482e-5
-1.625, 2.482e-5
-1.626, 2.482e-5
-1.627, 2.482e-5
-1.628, 2.482e-5
-1.629, 2.482e-5
-1.630, 2.482e-5
-1.631, 2.482e-5
-1.632, 2.482e-5
-1.633, 2.482e-5
-1.634, 2.482e-5
-1.635, 2.482e-5
-1.636, 2.790e-5
-1.637, 2.482e-5
-1.638, 2.790e-5
-1.639, 2.790e-5
-1.640, 2.790e-5
-1.641, 2.790e-5
-1.642, 2.790e-5
-1.643, 2.790e-5
-1.644, 3.099e-5
-1.645, 3.099e-5
-1.646, 3.099e-5
-1.647, 3.099e-5
-1.648, 3.099e-5
-1.649, 3.099e-5
-1.650, 3.099e-5
-1.651, 3.099e-5
-1.652, 3.407e-5
-1.653, 3.407e-5
-1.654, 3.099e-5
-1.655, 3.407e-5
-1.656, 3.407e-5
-1.657, 3.407e-5
-1.658, 3.407e-5
-1.659, 3.407e-5
-1.660, 3.715e-5
-1.661, 3.715e-5
-1.662, 3.715e-5
-1.663, 3.715e-5
-1.664, 4.024e-5
-1.665, 3.715e-5
-1.666, 4.024e-5
-1.667, 4.024e-5
-1.668, 4.024e-5
-1.669, 4.024e-5
-1.670, 4.332e-5
-1.671, 4.332e-5
-1.672, 4.332e-5
-1.673, 4.332e-5
-1.674, 4.332e-5
-1.675, 4.640e-5
-1.676, 4.332e-5
-1.677, 4.640e-5
-1.678, 4.640e-5
-1.679, 4.949e-5
-1.680, 4.949e-5
-1.681, 4.949e-5
-1.682, 4.949e-5
-1.683, 4.949e-5
-1.684, 5.257e-5
-1.685, 5.257e-5
-1.686, 5.257e-5
-1.687, 5.565e-5
-1.688, 5.565e-5
-1.689, 5.565e-5
-1.690, 5.565e-5
-1.691, 5.873e-5
-1.692, 5.873e-5
-1.693, 5.873e-5
-1.694, 6.182e-5
-1.695, 6.182e-5
-1.696, 6.182e-5
-1.697, 6.490e-5
-1.698, 6.490e-5
-1.699, 6.490e-5
-1.700, 6.798e-5
-1.701, 6.798e-5
-1.702, 7.107e-5
-1.703, 7.107e-5
-1.704, 7.107e-5
-1.705, 7.415e-5
-1.706, 7.415e-5
-1.707, 7.723e-5
-1.708, 7.723e-5
-1.709, 8.032e-5
-1.710, 8.032e-5
-1.711, 8.340e-5
-1.712, 8.340e-5
-1.713, 8.340e-5
-1.714, 8.648e-5
-1.715, 8.957e-5
-1.716, 8.957e-5
-1.717, 9.265e-5
-1.718, 9.265e-5
-1.719, 9.265e-5
-1.720, 9.573e-5
-1.721, 9.882e-5
-1.722, 1.019e-4
-1.723, 1.019e-4
-1.724, 1.050e-4
-1.725, 1.050e-4
-1.726, 1.081e-4
-1.727, 1.111e-4
-1.728, 1.142e-4
-1.729, 1.142e-4
-1.730, 1.173e-4
-1.731, 1.204e-4
-1.732, 1.235e-4
-1.733, 1.235e-4
-1.734, 1.266e-4
-1.735, 1.296e-4
-1.736, 1.327e-4
-1.737, 1.358e-4
-1.738, 1.389e-4
-1.739, 1.389e-4
-1.740, 1.420e-4
-1.741, 1.451e-4
-1.742, 1.481e-4
-1.743, 1.543e-4
-1.744, 1.543e-4
-1.745, 1.574e-4
-1.746, 1.605e-4
-1.747, 1.636e-4
-1.748, 1.697e-4
-1.749, 1.697e-4
-1.750, 1.759e-4
-1.751, 1.790e-4
-1.752, 1.821e-4
-1.753, 1.851e-4
-1.754, 1.913e-4
-1.755, 1.913e-4
-1.756, 1.975e-4
-1.757, 2.006e-4
-1.758, 2.036e-4
-1.759, 2.098e-4
-1.760, 2.129e-4
-1.761, 2.160e-4
-1.762, 2.221e-4
-1.763, 2.252e-4
-1.764, 2.314e-4
-1.765, 2.345e-4
-1.766, 2.406e-4
-1.767, 2.468e-4
-1.768, 2.499e-4
-1.769, 2.561e-4
-1.770, 2.591e-4
-1.771, 2.653e-4
-1.772, 2.715e-4
-1.773, 2.776e-4
-1.774, 2.838e-4
-1.775, 2.869e-4
-1.776, 2.931e-4
-1.777, 2.992e-4
-1.778, 3.054e-4
-1.779, 3.115e-4
-1.780, 3.177e-4
-1.781, 3.239e-4
-1.782, 3.300e-4
-1.783, 3.362e-4
-1.784, 3.424e-4
-1.785, 3.516e-4
-1.786, 3.578e-4
-1.787, 3.640e-4
-1.788, 3.732e-4
-1.789, 3.794e-4
-1.790, 3.855e-4
-1.791, 3.948e-4
-1.792, 4.010e-4
-1.793, 4.102e-4
-1.794, 4.195e-4
-1.795, 4.256e-4
-1.796, 4.349e-4
-1.797, 4.410e-4
-1.798, 4.503e-4
-1.799, 4.595e-4
-1.800, 4.688e-4
-1.801, 4.780e-4
-1.802, 4.873e-4
-1.803, 4.965e-4
-1.804, 5.058e-4
-1.805, 5.150e-4
-1.806, 5.243e-4
-1.807, 5.335e-4
-1.808, 5.459e-4
-1.809, 5.551e-4
-1.810, 5.644e-4
-1.811, 5.767e-4
-1.812, 5.859e-4
-1.813, 5.983e-4
-1.814, 6.075e-4
-1.815, 6.199e-4
-1.816, 6.291e-4
-1.817, 6.414e-4
-1.818, 6.538e-4
-1.819, 6.661e-4
-1.820, 6.754e-4
-1.821, 6.908e-4
-1.822, 7.031e-4
-1.823, 7.154e-4
-1.824, 7.278e-4
-1.825, 7.401e-4
-1.826, 7.555e-4
-1.827, 7.679e-4
-1.828, 7.802e-4
-1.829, 7.925e-4
-1.830, 8.079e-4
-1.831, 8.203e-4
-1.832, 8.357e-4
-1.833, 8.511e-4
-1.834, 8.665e-4
-1.835, 8.819e-4
-1.836, 8.973e-4
-1.837, 9.097e-4
-1.838, 9.282e-4
-1.839, 9.405e-4
-1.840, 9.590e-4
-1.841, 9.744e-4
-1.842, 9.898e-4
-1.843, 1.005e-3
-1.844, 1.024e-3
-1.845, 1.039e-3
-1.846, 1.058e-3
-1.847, 1.076e-3
-1.848, 1.092e-3
-1.849, 1.110e-3
-1.850, 1.125e-3
-1.851, 1.147e-3
-1.852, 1.166e-3
-1.853, 1.184e-3
-1.854, 1.203e-3
-1.855, 1.218e-3
-1.856, 1.240e-3
-1.857, 1.258e-3
-1.858, 1.277e-3
-1.859, 1.295e-3
-1.860, 1.317e-3
-1.861, 1.335e-3
-1.862, 1.357e-3
-1.863, 1.378e-3
-1.864, 1.400e-3
-1.865, 1.418e-3
-1.866, 1.440e-3
-1.867, 1.462e-3
-1.868, 1.483e-3
-1.869, 1.505e-3
-1.870, 1.526e-3
-1.871, 1.548e-3
-1.872, 1.573e-3
-1.873, 1.597e-3
-1.874, 1.619e-3
-1.875, 1.643e-3
-1.876, 1.668e-3
-1.877, 1.690e-3
-1.878, 1.714e-3
-1.879, 1.736e-3
-1.880, 1.761e-3
-1.881, 1.785e-3
-1.882, 1.810e-3
-1.883, 1.835e-3
-1.884, 1.862e-3
-1.885, 1.887e-3
-1.886, 1.915e-3
-1.887, 1.939e-3
-1.888, 1.964e-3
-1.889, 1.995e-3
-1.890, 2.020e-3
-1.891, 2.047e-3
-1.892, 2.078e-3
-1.893, 2.106e-3
-1.894, 2.134e-3
-1.895, 2.161e-3
-1.896, 2.189e-3
-1.897, 2.217e-3
-1.898, 2.245e-3
-1.899, 2.272e-3
-1.900, 2.300e-3
-1.901, 2.331e-3
-1.902, 2.362e-3
-1.903, 2.393e-3
-1.904, 2.423e-3
-1.905, 2.454e-3
-1.906, 2.485e-3
-1.907, 2.513e-3
-1.908, 2.544e-3
-1.909, 2.571e-3
-1.910, 2.602e-3
-1.911, 2.633e-3
-1.912, 2.664e-3
-1.913, 2.695e-3
-1.914, 2.726e-3
-1.915, 2.756e-3
-1.916, 2.787e-3
-1.917, 2.821e-3
-1.918, 2.852e-3
-1.919, 2.886e-3
-1.920, 2.920e-3
-1.921, 2.954e-3
-1.922, 2.991e-3
-1.923, 3.025e-3
-1.924, 3.062e-3
-1.925, 3.099e-3
-1.926, 3.133e-3
-1.927, 3.167e-3
-1.928, 3.204e-3
-1.929, 3.241e-3
-1.930, 3.278e-3
-1.931, 3.314e-3
-1.932, 3.351e-3
-1.933, 3.392e-3
-1.934, 3.429e-3
-1.935, 3.469e-3
-1.936, 3.506e-3
-1.937, 3.540e-3
-1.938, 3.573e-3
-1.939, 3.610e-3
-1.940, 3.647e-3
-1.941, 3.681e-3
-1.942, 3.721e-3
-1.943, 3.758e-3
-1.944, 3.799e-3
-1.945, 3.839e-3
-1.946, 3.879e-3
-1.947, 3.916e-3
-1.948, 3.956e-3
-1.949, 3.996e-3
-1.950, 4.039e-3
-1.951, 4.079e-3
-1.952, 4.122e-3
-1.953, 4.165e-3
-1.954, 4.206e-3
-1.955, 4.249e-3
-1.956, 4.292e-3
-1.957, 4.332e-3
-1.958, 4.372e-3
-1.959, 4.418e-3
-1.960, 4.461e-3
-1.961, 4.508e-3
-1.962, 4.554e-3
-1.963, 4.597e-3
-1.964, 4.643e-3
-1.965, 4.690e-3
-1.966, 4.733e-3
-1.967, 4.776e-3
-1.968, 4.816e-3
-1.969, 4.859e-3
-1.970, 4.902e-3
-1.971, 4.949e-3
-1.972, 4.992e-3
-1.973, 5.038e-3
-1.974, 5.084e-3
-1.975, 5.130e-3
-1.976, 5.177e-3
-1.977, 5.223e-3
-1.978, 5.269e-3
-1.979, 5.319e-3
-1.980, 5.365e-3
-1.981, 5.414e-3
-1.982, 5.463e-3
-1.983, 5.513e-3
-1.984, 5.562e-3
-1.985, 5.611e-3
-1.986, 5.658e-3
-1.987, 5.707e-3
-1.988, 5.753e-3
-1.989, 5.799e-3
-1.990, 5.852e-3
-1.991, 5.901e-3
-1.992, 5.951e-3
-1.993, 6.000e-3
-1.994, 6.049e-3
-1.995, 6.099e-3
-1.996, 6.145e-3
-1.997, 6.194e-3
-1.998, 6.237e-3
-1.999, 6.284e-3
-2.000, 6.299e-3
-1.999, 6.262e-3
-1.998, 6.222e-3
-1.997, 6.185e-3
-1.996, 6.151e-3
-1.995, 6.111e-3
-1.994, 6.074e-3
-1.993, 6.037e-3
-1.992, 5.997e-3
-1.991, 5.960e-3
-1.990, 5.923e-3
-1.989, 5.880e-3
-1.988, 5.836e-3
-1.987, 5.793e-3
-1.986, 5.753e-3
-1.985, 5.713e-3
-1.984, 5.673e-3
-1.983, 5.633e-3
-1.982, 5.593e-3
-1.981, 5.559e-3
-1.980, 5.525e-3
-1.979, 5.491e-3
-1.978, 5.457e-3
-1.977, 5.426e-3
-1.976, 5.393e-3
-1.975, 5.356e-3
-1.974, 5.319e-3
-1.973, 5.282e-3
-1.972, 5.245e-3
-1.971, 5.208e-3
-1.970, 5.171e-3
-1.969, 5.130e-3
-1.968, 5.093e-3
-1.967, 5.053e-3
-1.966, 5.016e-3
-1.965, 4.979e-3
-1.964, 4.942e-3
-1.963, 4.905e-3
-1.962, 4.868e-3
-1.961, 4.831e-3
-1.960, 4.797e-3
-1.959, 4.764e-3
-1.958, 4.730e-3
-1.957, 4.693e-3
-1.956, 4.659e-3
-1.955, 4.619e-3
-1.954, 4.579e-3
-1.953, 4.542e-3
-1.952, 4.498e-3
-1.951, 4.458e-3
-1.950, 4.418e-3
-1.949, 4.381e-3
-1.948, 4.347e-3
-1.947, 4.313e-3
-1.946, 4.280e-3
-1.945, 4.246e-3
-1.944, 4.212e-3
-1.943, 4.181e-3
-1.942, 4.147e-3
-1.941, 4.113e-3
-1.940, 4.082e-3
-1.939, 4.048e-3
-1.938, 4.017e-3
-1.937, 3.987e-3
-1.936, 3.956e-3
-1.935, 3.922e-3
-1.934, 3.891e-3
-1.933, 3.860e-3
-1.932, 3.826e-3
-1.931, 3.795e-3
-1.930, 3.765e-3
-1.929, 3.734e-3
-1.928, 3.706e-3
-1.927, 3.672e-3
-1.926, 3.641e-3
-1.925, 3.610e-3
-1.924, 3.577e-3
-1.923, 3.546e-3
-1.922, 3.509e-3
-1.921, 3.475e-3
-1.920, 3.441e-3
-1.919, 3.410e-3
-1.918, 3.382e-3
-1.917, 3.351e-3
-1.916, 3.321e-3
-1.915, 3.293e-3
-1.914, 3.262e-3
-1.913, 3.231e-3
-1.912, 3.200e-3
-1.911, 3.170e-3
-1.910, 3.142e-3
-1.909, 3.114e-3
-1.908, 3.086e-3
-1.907, 3.059e-3
-1.906, 3.031e-3
-1.905, 3.003e-3
-1.904, 2.975e-3
-1.903, 2.948e-3
-1.902, 2.920e-3
-1.901, 2.892e-3
-1.900, 2.864e-3
-1.899, 2.837e-3
-1.898, 2.812e-3
-1.897, 2.787e-3
-1.896, 2.763e-3
-1.895, 2.735e-3
-1.894, 2.707e-3
-1.893, 2.679e-3
-1.892, 2.655e-3
-1.891, 2.627e-3
-1.890, 2.599e-3
-1.889, 2.578e-3
-1.888, 2.550e-3
-1.887, 2.528e-3
-1.886, 2.504e-3
-1.885, 2.476e-3
-1.884, 2.451e-3
-1.883, 2.427e-3
-1.882, 2.399e-3
-1.881, 2.374e-3
-1.880, 2.353e-3
-1.879, 2.325e-3
-1.878, 2.303e-3
-1.877, 2.282e-3
-1.876, 2.257e-3
-1.875, 2.235e-3
-1.874, 2.211e-3
-1.873, 2.189e-3
-1.872, 2.164e-3
-1.871, 2.140e-3
-1.870, 2.118e-3
-1.869, 2.097e-3
-1.868, 2.075e-3
-1.867, 2.057e-3
-1.866, 2.035e-3
-1.865, 2.013e-3
-1.864, 1.992e-3
-1.863, 1.970e-3
-1.862, 1.949e-3
-1.861, 1.930e-3
-1.860, 1.909e-3
-1.859, 1.887e-3
-1.858, 1.869e-3
-1.857, 1.850e-3
-1.856, 1.832e-3
-1.855, 1.810e-3
-1.854, 1.791e-3
-1.853, 1.773e-3
-1.852, 1.751e-3
-1.851, 1.730e-3
-1.850, 1.711e-3
-1.849, 1.693e-3
-1.848, 1.674e-3
-1.847, 1.656e-3
-1.846, 1.634e-3
-1.845, 1.619e-3
-1.844, 1.600e-3
-1.843, 1.579e-3
-1.842, 1.560e-3
-1.841, 1.542e-3
-1.840, 1.526e-3
-1.839, 1.508e-3
-1.838, 1.492e-3
-1.837, 1.474e-3
-1.836, 1.458e-3
-1.835, 1.440e-3
-1.834, 1.425e-3
-1.833, 1.409e-3
-1.832, 1.391e-3
-1.831, 1.372e-3
-1.830, 1.360e-3
-1.829, 1.344e-3
-1.828, 1.329e-3
-1.827, 1.314e-3
-1.826, 1.298e-3
-1.825, 1.283e-3
-1.824, 1.267e-3
-1.823, 1.252e-3
-1.822, 1.236e-3
-1.821, 1.221e-3
-1.820, 1.209e-3
-1.819, 1.193e-3
-1.818, 1.181e-3
-1.817, 1.166e-3
-1.816, 1.153e-3
-1.815, 1.138e-3
-1.814, 1.125e-3
-1.813, 1.110e-3
-1.812, 1.098e-3
-1.811, 1.082e-3
-1.810, 1.070e-3
-1.809, 1.058e-3
-1.808, 1.045e-3
-1.807, 1.030e-3
-1.806, 1.018e-3
-1.805, 1.005e-3
-1.804, 9.929e-4
-1.803, 9.806e-4
-1.802, 9.683e-4
-1.801, 9.559e-4
-1.800, 9.436e-4
-1.799, 9.313e-4
-1.798, 9.220e-4
-1.797, 9.097e-4
-1.796, 8.973e-4
-1.795, 8.850e-4
-1.794, 8.758e-4
-1.793, 8.634e-4
-1.792, 8.511e-4
-1.791, 8.418e-4
-1.790, 8.295e-4
-1.789, 8.203e-4
-1.788, 8.079e-4
-1.787, 7.987e-4
-1.786, 7.894e-4
-1.785, 7.771e-4
-1.784, 7.679e-4
-1.783, 7.555e-4
-1.782, 7.463e-4
-1.781, 7.370e-4
-1.780, 7.278e-4
-1.779, 7.185e-4
-1.778, 7.093e-4
-1.777, 7.000e-4
-1.776, 6.877e-4
-1.775, 6.784e-4
-1.774, 6.723e-4
-1.773, 6.630e-4
-1.772, 6.507e-4
-1.771, 6.445e-4
-1.770, 6.353e-4
-1.769, 6.260e-4
-1.768, 6.168e-4
-1.767, 6.106e-4
-1.766, 6.014e-4
-1.765, 5.921e-4
-1.764, 5.829e-4
-1.763, 5.767e-4
-1.762, 5.674e-4
-1.761, 5.613e-4
-1.760, 5.520e-4
-1.759, 5.459e-4
-1.758, 5.397e-4
-1.757, 5.305e-4
-1.756, 5.243e-4
-1.755, 5.150e-4
-1.754, 5.089e-4
-1.753, 4.996e-4
-1.752, 4.935e-4
-1.751, 4.873e-4
-1.750, 4.811e-4
-1.749, 4.719e-4
-1.748, 4.688e-4
-1.747, 4.595e-4
-1.746, 4.534e-4
-1.745, 4.472e-4
-1.744, 4.410e-4
-1.743, 4.349e-4
-1.742, 4.287e-4
-1.741, 4.225e-4
-1.740, 4.164e-4
-1.739, 4.102e-4
-1.738, 4.040e-4
-1.737, 3.979e-4
-1.736, 3.917e-4
-1.735, 3.886e-4
-1.734, 3.825e-4
-1.733, 3.732e-4
-1.732, 3.701e-4
-1.731, 3.640e-4
-1.730, 3.578e-4
-1.729, 3.516e-4
-1.728, 3.485e-4
-1.727, 3.424e-4
-1.726, 3.393e-4
-1.725, 3.331e-4
-1.724, 3.270e-4
-1.723, 3.239e-4
-1.722, 3.177e-4
-1.721, 3.115e-4
-1.720, 3.085e-4
-1.719, 3.023e-4
-1.718, 2.992e-4
-1.717, 2.961e-4
-1.716, 2.900e-4
-1.715, 2.869e-4
-1.714, 2.807e-4
-1.713, 2.776e-4
-1.712, 2.746e-4
-1.711, 2.684e-4
-1.710, 2.622e-4
-1.709, 2.591e-4
-1.708, 2.561e-4
-1.707, 2.530e-4
-1.706, 2.499e-4
-1.705, 2.437e-4
-1.704, 2.406e-4
-1.703, 2.376e-4
-1.702, 2.314e-4
-1.701, 2.283e-4
-1.700, 2.252e-4
-1.699, 2.221e-4
-1.698, 2.191e-4
-1.697, 2.160e-4
-1.696, 2.129e-4
-1.695, 2.067e-4
-1.694, 2.067e-4
-1.693, 2.036e-4
-1.692, 1.975e-4
-1.691, 1.944e-4
-1.690, 1.913e-4
-1.689, 1.882e-4
-1.688, 1.851e-4
-1.687, 1.851e-4
-1.686, 1.790e-4
-1.685, 1.759e-4
-1.684, 1.728e-4
-1.683, 1.697e-4
-1.682, 1.697e-4
-1.681, 1.666e-4
-1.680, 1.636e-4
-1.679, 1.605e-4
-1.678, 1.574e-4
-1.677, 1.543e-4
-1.676, 1.543e-4
-1.675, 1.512e-4
-1.674, 1.481e-4
-1.673, 1.451e-4
-1.672, 1.420e-4
-1.671, 1.389e-4
-1.670, 1.389e-4
-1.669, 1.358e-4
-1.668, 1.327e-4
-1.667, 1.296e-4
-1.666, 1.296e-4
-1.665, 1.266e-4
-1.664, 1.235e-4
-1.663, 1.235e-4
-1.662, 1.204e-4
-1.661, 1.173e-4
-1.660, 1.142e-4
-1.659, 1.142e-4
-1.658, 1.142e-4
-1.657, 1.111e-4
-1.656, 1.081e-4
-1.655, 1.050e-4
-1.654, 1.050e-4
-1.653, 1.050e-4
-1.652, 1.019e-4
-1.651, 9.882e-5
-1.650, 9.882e-5
-1.649, 9.573e-5
-1.648, 9.573e-5
-1.647, 9.265e-5
-1.646, 8.957e-5
-1.645, 8.957e-5
-1.644, 8.648e-5
-1.643, 8.648e-5
-1.642, 8.340e-5
-1.641, 8.340e-5
-1.640, 8.032e-5
-1.639, 8.032e-5
-1.638, 7.723e-5
-1.637, 7.723e-5
-1.636, 7.723e-5
-1.635, 7.415e-5
-1.634, 7.107e-5
-1.633, 7.107e-5
-1.632, 7.107e-5
-1.631, 6.798e-5
-1.630, 6.798e-5
-1.629, 6.490e-5
-1.628, 6.490e-5
-1.627, 6.490e-5
-1.626, 6.490e-5
-1.625, 6.182e-5
-1.624, 5.873e-5
-1.623, 5.873e-5
-1.622, 5.873e-5
-1.621, 5.565e-5
-1.620, 5.565e-5
-1.619, 5.565e-5
-1.618, 5.257e-5
-1.617, 5.257e-5
-1.616, 5.257e-5
-1.615, 5.257e-5
-1.614, 4.949e-5
-1.613, 4.949e-5
-1.612, 4.640e-5
-1.611, 4.640e-5
-1.610, 4.640e-5
-1.609, 4.640e-5
-1.608, 4.640e-5
-1.607, 4.332e-5
-1.606, 4.332e-5
-1.605, 4.024e-5
-1.604, 4.024e-5
-1.603, 4.024e-5
-1.602, 4.024e-5
-1.601, 3.715e-5
-1.600, 3.715e-5
-1.599, 3.715e-5
-1.598, 3.715e-5
-1.597, 3.715e-5
-1.596, 3.715e-5
-1.595, 3.407e-5
-1.594, 3.407e-5
-1.593, 3.099e-5
-1.592, 3.099e-5
-1.591, 3.099e-5
-1.590, 3.099e-5
-1.589, 3.099e-5
-1.588, 3.099e-5
-1.587, 2.790e-5
-1.586, 2.790e-5
-1.585, 2.790e-5
-1.584, 2.482e-5
-1.583, 2.482e-5
-1.582, 2.482e-5
-1.581, 2.482e-5
-1.580, 2.482e-5
-1.579, 2.482e-5
-1.578, 2.482e-5
-1.577, 2.174e-5
-1.576, 2.174e-5
-1.575, 2.174e-5
-1.574, 2.174e-5
-1.573, 2.174e-5
-1.572, 2.174e-5
-1.571, 2.174e-5
-1.570, 1.865e-5
-1.569, 1.865e-5
-1.568, 1.865e-5
-1.567, 1.865e-5
-1.566, 1.865e-5
-1.565, 1.865e-5
-1.564, 1.557e-5
-1.563, 1.865e-5
-1.562, 1.557e-5
-1.561, 1.557e-5
-1.560, 1.557e-5
-1.559, 1.249e-5
-1.558, 1.557e-5
-1.557, 1.557e-5
-1.556, 1.249e-5
-1.555, 1.249e-5
-1.554, 1.249e-5
-1.553, 1.249e-5
-1.552, 1.249e-5
-1.551, 1.249e-5
-1.550, 1.249e-5
-1.549, 1.249e-5
-1.548, 1.249e-5
-1.547, 1.249e-5
-1.546, 9.405e-6
-1.545, 9.405e-6
-1.544, 9.405e-6
-1.543, 9.405e-6
-1.542, 9.405e-6
-1.541, 9.405e-6
-1.540, 9.405e-6
-1.539, 9.405e-6
-1.538, 9.405e-6
-1.537, 9.405e-6
-1.536, 6.322e-6
-1.535, 9.405e-6
-1.534, 6.322e-6
-1.533, 6.322e-6
-1.532, 6.322e-6
-1.531, 6.322e-6
-1.530, 6.322e-6
-1.529, 6.322e-6
-1.528, 6.322e-6
-1.527, 6.322e-6
-1.526, 6.322e-6
-1.525, 6.322e-6
-1.524, 6.322e-6
-1.523, 6.322e-6
-1.522, 6.322e-6
-1.521, 6.322e-6
-1.520, 3.239e-6
-1.519, 3.239e-6
-1.518, 6.322e-6
-1.517, 3.239e-6
-1.516, 3.239e-6
-1.515, 3.239e-6
-1.514, 3.239e-6
-1.513, 3.239e-6
-1.512, 3.239e-6
-1.511, 3.239e-6
-1.510, 3.239e-6
-1.509, 3.239e-6
-1.508, 3.239e-6
-1.507, 3.239e-6
-1.506, 3.239e-6
-1.505, 1.559e-7
-1.504, 3.239e-6
-1.503, 3.239e-6
-1.502, 3.239e-6
-1.501, 3.239e-6
-1.500, 1.559e-7
-1.499, 3.239e-6
-1.498, 3.239e-6
-1.497, 1.559e-7
-1.496, 1.559e-7
-1.495, 3.239e-6
-1.494, 1.559e-7
-1.493, 3.239e-6
-1.492, 1.559e-7
-1.491, 1.559e-7
-1.490, 1.559e-7
-1.489, 1.559e-7
-1.488, 1.559e-7
-1.487, 1.559e-7
-1.486, 1.559e-7
-1.485, 1.559e-7
-1.484, 1.559e-7
-1.483, 1.559e-7
-1.482, 1.559e-7
-1.481, 1.559e-7
-1.480, 1.559e-7
-1.479, 1.559e-7
-1.478, 1.559e-7
-1.477, 1.559e-7
-1.476, 1.559e-7
-1.475, 1.559e-7
-1.474, 1.559e-7
-1.473, 1.559e-7
-1.472, 1.559e-7
-1.471, 1.559e-7
-1.470, 1.559e-7
-1.469, 1.559e-7
-1.468, 1.559e-7
-1.467, 1.559e-7
-1.466, -2.927e-6
-1.465, 1.559e-7
-1.464, 1.559e-7
-1.463, 1.559e-7
-1.462, 1.559e-7
-1.461, 1.559e-7
-1.460, 1.559e-7
-1.459, 1.559e-7
-1.458, 1.559e-7
-1.457, -2.927e-6
-1.456, 1.559e-7
-1.455, 1.559e-7
-1.454, 1.559e-7
-1.453, 1.559e-7
-1.452, 1.559e-7
-1.451, -2.927e-6
-1.450, -2.927e-6
-1.449, -2.927e-6
-1.448, -2.927e-6
-1.447, 1.559e-7
-1.446, -2.927e-6
-1.445, -2.927e-6
-1.444, -2.927e-6
-1.443, -2.927e-6
-1.442, 1.559e-7
-1.441, -2.927e-6
-1.440, 1.559e-7
-1.439, 1.559e-7
-1.438, 1.559e-7
-1.437, -2.927e-6
-1.436, -2.927e-6
-1.435, -2.927e-6
-1.434, -2.927e-6
-1.433, -2.927e-6
-1.432, -2.927e-6
-1.431, -2.927e-6
-1.430, -2.927e-6
-1.429, -2.927e-6
-1.428, -2.927e-6
-1.427, -2.927e-6
-1.426, -2.927e-6
-1.425, 1.559e-7
-1.424, -2.927e-6
-1.423, -2.927e-6
-1.422, 1.559e-7
-1.421, -2.927e-6
-1.420, -2.927e-6
-1.419, -2.927e-6
-1.418, -2.927e-6
-1.417, -2.927e-6
-1.416, -2.927e-6
-1.415, -2.927e-6
-1.414, -2.927e-6
-1.413, -2.927e-6
-1.412, -2.927e-6
-1.411, -2.927e-6
-1.410, -2.927e-6
-1.409, -2.927e-6
-1.408, 1.559e-7
-1.407, -2.927e-6
-1.406, -2.927e-6
-1.405, -2.927e-6
-1.404, -2.927e-6
-1.403, -2.927e-6
-1.402, -2.927e-6
-1.401, -2.927e-6
-1.400, -2.927e-6
-1.399, -2.927e-6
-1.398, -2.927e-6
-1.397, -2.927e-6
-1.396, -2.927e-6
-1.395, -2.927e-6
-1.394, -2.927e-6
-1.393, -2.927e-6
-1.392, -2.927e-6
-1.391, -2.927e-6
-1.390, -2.927e-6
-1.389, -2.927e-6
-1.388, -2.927e-6
-1.387, -2.927e-6
-1.386, -2.927e-6
-1.385, -2.927e-6
-1.384, -2.927e-6
-1.383, -2.927e-6
-1.382, -2.927e-6
-1.381, -2.927e-6
-1.380, -2.927e-6
-1.379, -2.927e-6
-1.378, -2.927e-6
-1.377, -2.927e-6
-1.376, -2.927e-6
-1.375, -2.927e-6
-1.374, -2.927e-6
-1.373, -2.927e-6
-1.372, -2.927e-6
-1.371, -2.927e-6
-1.370, -2.927e-6
-1.369, -2.927e-6
-1.368, -2.927e-6
-1.367, -2.927e-6
-1.366, -2.927e-6
-1.365, -2.927e-6
-1.364, -2.927e-6
-1.363, -2.927e-6
-1.362, -2.927e-6
-1.361, -2.927e-6
-1.360, -2.927e-6
-1.359, -2.927e-6
-1.358, -2.927e-6
-1.357, -2.927e-6
-1.356, -2.927e-6
-1.355, -2.927e-6
-1.354, -2.927e-6
-1.353, -2.927e-6
-1.352, -2.927e-6
-1.351, -2.927e-6
-1.350, -2.927e-6
-1.349, -2.927e-6
-1.348, -2.927e-6
-1.347, -2.927e-6
-1.346, -2.927e-6
-1.345, -2.927e-6
-1.344, -2.927e-6
-1.343, -2.927e-6
-1.342, -2.927e-6
-1.341, -2.927e-6
-1.340, -2.927e-6
-1.339, -2.927e-6
-1.338, -2.927e-6
-1.337, -2.927e-6
-1.336, -2.927e-6
-1.335, -2.927e-6
-1.334, -2.927e-6
-1.333, -2.927e-6
-1.332, -2.927e-6
-1.331, -2.927e-6
-1.330, -2.927e-6
-1.329, -2.927e-6
-1.328, -2.927e-6
-1.327, -2.927e-6
-1.326, -2.927e-6
-1.325, -2.927e-6
-1.324, -2.927e-6
-1.323, -2.927e-6
-1.322, -2.927e-6
-1.321, -2.927e-6
-1.320, -2.927e-6
-1.319, -2.927e-6
-1.318, -2.927e-6
-1.317, -2.927e-6
-1.316, -2.927e-6
-1.315, -2.927e-6
-1.314, -2.927e-6
-1.313, -2.927e-6
-1.312, -2.927e-6
-1.311, -2.927e-6
-1.310, -2.927e-6
-1.309, -2.927e-6
-1.308, -2.927e-6
-1.307, -2.927e-6
-1.306, -2.927e-6
-1.305, -2.927e-6
-1.304, -2.927e-6
-1.303, -2.927e-6
-1.302, -2.927e-6
-1.301, -2.927e-6
-1.300, -2.927e-6
-1.299, -2.927e-6
-1.298, -2.927e-6
-1.297, -2.927e-6
-1.296, -2.927e-6
-1.295, -2.927e-6
-1.294, -2.927e-6
-1.293, -2.927e-6
-1.292, -2.927e-6
-1.291, -2.927e-6
-1.290, -2.927e-6
-1.289, -2.927e-6
-1.288, -2.927e-6
-1.287, -2.927e-6
-1.286, -2.927e-6
-1.285, -2.927e-6
-1.284, -2.927e-6
-1.283, -2.927e-6
-1.282, -2.927e-6
-1.281, -2.927e-6
-1.280, -2.927e-6
-1.279, -2.927e-6
-1.278, -2.927e-6
-1.277, -2.927e-6
-1.276, -2.927e-6
-1.275, -2.927e-6
-1.274, -2.927e-6
-1.273, -2.927e-6
-1.272, -2.927e-6
-1.271, -2.927e-6
-1.270, -2.927e-6
-1.269, -2.927e-6
-1.268, -2.927e-6
-1.267, -2.927e-6
-1.266, -2.927e-6
-1.265, -2.927e-6
-1.264, -2.927e-6
-1.263, -2.927e-6
-1.262, -2.927e-6
-1.261, -2.927e-6
-1.260, -2.927e-6
-1.259, -2.927e-6
-1.258, -2.927e-6
-1.257, -2.927e-6
-1.256, -2.927e-6
-1.255, -2.927e-6
-1.254, -6.010e-6
-1.253, -2.927e-6
-1.252, -2.927e-6
-1.251, -6.010e-6
-1.250, -2.927e-6
-1.249, -2.927e-6
-1.248, -2.927e-6
-1.247, -2.927e-6
-1.246, -2.927e-6
-1.245, -2.927e-6
-1.244, -2.927e-6
-1.243, -2.927e-6
-1.242, -2.927e-6
-1.241, -2.927e-6
-1.240, -2.927e-6
-1.239, -2.927e-6
-1.238, -2.927e-6
-1.237, -2.927e-6
-1.236, -2.927e-6
-1.235, -2.927e-6
-1.234, -2.927e-6
-1.233, -2.927e-6
-1.232, -2.927e-6
-1.231, -2.927e-6
-1.230, -2.927e-6
-1.229, -2.927e-6
-1.228, -2.927e-6
-1.227, -2.927e-6
-1.226, -2.927e-6
-1.225, -2.927e-6
-1.224, -2.927e-6
-1.223, -6.010e-6
-1.222, -2.927e-6
-1.221, -6.010e-6
-1.220, -2.927e-6
-1.219, -2.927e-6
-1.218, -2.927e-6
-1.217, -2.927e-6
-1.216, -2.927e-6
-1.215, -2.927e-6
-1.214, -2.927e-6
-1.213, -2.927e-6
-1.212, -2.927e-6
-1.211, -2.927e-6
-1.210, -2.927e-6
-1.209, -6.010e-6
-1.208, -2.927e-6
-1.207, -6.010e-6
-1.206, -2.927e-6
-1.205, -2.927e-6
-1.204, -2.927e-6
-1.203, -2.927e-6
-1.202, -2.927e-6
-1.201, -2.927e-6
-1.200, -2.927e-6
-1.199, -2.927e-6
-1.198, -2.927e-6
-1.197, -2.927e-6
-1.196, -2.927e-6
-1.195, -6.010e-6
-1.194, -2.927e-6
-1.193, -2.927e-6
-1.192, -2.927e-6
-1.191, -2.927e-6
-1.190, -2.927e-6
-1.189, -2.927e-6
-1.188, -2.927e-6
-1.187, -2.927e-6
-1.186, -2.927e-6
-1.185, -2.927e-6
-1.184, -6.010e-6
-1.183, -2.927e-6
-1.182, -2.927e-6
-1.181, -2.927e-6
-1.180, -2.927e-6
-1.179, -2.927e-6
-1.178, -2.927e-6
-1.177, -2.927e-6
-1.176, -2.927e-6
-1.175, -2.927e-6
-1.174, -2.927e-6
-1.173, -2.927e-6
-1.172, -2.927e-6
-1.171, -2.927e-6
-1.170, -2.927e-6
-1.169, -2.927e-6
-1.168, -2.927e-6
-1.167, -2.927e-6
-1.166, -2.927e-6
-1.165, -2.927e-6
-1.164, -6.010e-6
-1.163, -2.927e-6
-1.162, -2.927e-6
-1.161, -6.010e-6
-1.160, -2.927e-6
-1.159, -2.927e-6
-1.158, -2.927e-6
-1.157, -2.927e-6
-1.156, -6.010e-6
-1.155, -2.927e-6
-1.154, -2.927e-6
-1.153, -2.927e-6
-1.152, -2.927e-6
-1.151, -2.927e-6
-1.150, -6.010e-6
-1.149, -2.927e-6
-1.148, -2.927e-6
-1.147, -6.010e-6
-1.146, -2.927e-6
-1.145, -6.010e-6
-1.144, -2.927e-6
-1.143, -2.927e-6
-1.142, -6.010e-6
-1.141, -2.927e-6
-1.140, -2.927e-6
-1.139, -2.927e-6
-1.138, -2.927e-6
-1.137, -2.927e-6
-1.136, -6.010e-6
-1.135, -2.927e-6
-1.134, -2.927e-6
-1.133, -2.927e-6
-1.132, -2.927e-6
-1.131, -6.010e-6
-1.130, -6.010e-6
-1.129, -2.927e-6
-1.128, -6.010e-6
-1.127, -2.927e-6
-1.126, -2.927e-6
-1.125, -6.010e-6
-1.124, -2.927e-6
-1.123, -2.927e-6
-1.122, -2.927e-6
-1.121, -2.927e-6
-1.120, -2.927e-6
-1.119, -2.927e-6
-1.118, -2.927e-6
-1.117, -6.010e-6
-1.116, -6.010e-6
-1.115, -2.927e-6
-1.114, -6.010e-6
-1.113, -2.927e-6
-1.112, -2.927e-6
-1.111, -6.010e-6
-1.110, -2.927e-6
-1.109, -2.927e-6
-1.108, -6.010e-6
-1.107, -2.927e-6
-1.106, -2.927e-6
-1.105, -6.010e-6
-1.104, -2.927e-6
-1.103, -6.010e-6
-1.102, -2.927e-6
-1.101, -2.927e-6
-1.100, -6.010e-6
-1.099, -6.010e-6
-1.098, -2.927e-6
-1.097, -6.010e-6
-1.096, -2.927e-6
-1.095, -6.010e-6
-1.094, -6.010e-6
-1.093, -2.927e-6
-1.092, -2.927e-6
-1.091, -6.010e-6
-1.090, -2.927e-6
-1.089, -2.927e-6
-1.088, -2.927e-6
-1.087, -2.927e-6
-1.086, -6.010e-6
-1.085, -2.927e-6
-1.084, -6.010e-6
-1.083, -6.010e-6
-1.082, -6.010e-6
-1.081, -2.927e-6
-1.080, -6.010e-6
-1.079, -6.010e-6
-1.078, -2.927e-6
-1.077, -6.010e-6
-1.076, -6.010e-6
-1.075, -6.010e-6
-1.074, -6.010e-6
-1.073, -2.927e-6
-1.072, -2.927e-6
-1.071, -6.010e-6
-1.070, -6.010e-6
-1.069, -6.010e-6
-1.068, -2.927e-6
-1.067, -6.010e-6
-1.066, -6.010e-6
-1.065, -6.010e-6
-1.064, -2.927e-6
-1.063, -6.010e-6
-1.062, -6.010e-6
-1.061, -6.010e-6
-1.060, -6.010e-6
-1.059, -6.010e-6
-1.058, -2.927e-6
-1.057, -2.927e-6
-1.056, -6.010e-6
-1.055, -6.010e-6
-1.054, -2.927e-6
-1.053, -2.927e-6
-1.052, -6.010e-6
-1.051, -6.010e-6
-1.050, -6.010e-6
-1.049, -6.010e-6
-1.048, -2.927e-6
-1.047, -6.010e-6
-1.046, -6.010e-6
-1.045, -6.010e-6
-1.044, -6.010e-6
-1.043, -6.010e-6
-1.042, -2.927e-6
-1.041, -6.010e-6
-1.040, -6.010e-6
-1.039, -2.927e-6
-1.038, -6.010e-6
-1.037, -2.927e-6
-1.036, -6.010e-6
-1.035, -6.010e-6
-1.034, -2.927e-6
-1.033, -6.010e-6
-1.032, -6.010e-6
-1.031, -2.927e-6
-1.030, -6.010e-6
-1.029, -6.010e-6
-1.028, -2.927e-6
-1.027, -6.010e-6
-1.026, -2.927e-6
-1.025, -2.927e-6
-1.024, -6.010e-6
-1.023, -6.010e-6
-1.022, -2.927e-6
-1.021, -6.010e-6
-1.020, -6.010e-6
-1.019, -2.927e-6
-1.018, -6.010e-6
-1.017, -2.927e-6
-1.016, -6.010e-6
-1.015, -6.010e-6
-1.014, -6.010e-6
-1.013, -6.010e-6
-1.012, -6.010e-6
-1.011, -2.927e-6
-1.010, -6.010e-6
-1.009, -6.010e-6
-1.008, -6.010e-6
-1.007, -6.010e-6
-1.006, -6.010e-6
-1.005, -6.010e-6
-1.004, -6.010e-6
-1.003, -2.927e-6
-1.002, -6.010e-6
-1.001, -6.010e-6
