Dec. 14, 2024   08:18:45
Cyclic Voltammetry
File: c:/users/guazh/data/banditlqround7_x0exp59_r20/2024-12-09-exp656\exp656-2024-12-14t07_54_37-arkoh\exp656_cv_sr_200mvs_efin_-2000mv.bin
Data Source:  Experiment
Instrument Model:  CHI760E
Header: CV ran at 200 mVs
Note: 

Init E (V) = -1
High E (V) = -1
Low E (V) = -2
Final E (V) = -1
Init P/N = N
Scan Rate (V/s) = 0.2
Segment = 3
Sample Interval (V) = 0.001
Quiet Time (sec) = 2
Sensitivity (A/V) = 0.01
Comp R (ohm) = 1.5

Results:

Channel 1:
Segment 1:

Segment 2:

Segment 3:

Potential/V, Current/A

-1.000, -3.769e-7
-1.001, -3.275e-7
-1.002, -4.459e-7
-1.003, -1.796e-7
-1.004, -3.078e-7
-1.005, -1.697e-7
-1.006, -6.117e-8
-1.007, -2.684e-7
-1.008, -5.130e-8
-1.009, -3.078e-7
-1.010, 4.736e-8
-1.011, 2.762e-8
-1.012, 2.762e-8
-1.013, 1.855e-7
-1.014, 2.644e-7
-1.015, 1.559e-7
-1.016, 2.841e-7
-1.017, 7.893e-9
-1.018, 3.039e-7
-1.019, 7.695e-8
-1.020, 5.722e-8
-1.021, 1.756e-7
-1.022, 1.164e-7
-1.023, 2.348e-7
-1.024, 1.953e-7
-1.025, 1.460e-7
-1.026, 4.815e-7
-1.027, 3.828e-7
-1.028, 4.519e-7
-1.029, 1.855e-7
-1.030, 4.321e-7
-1.031, 3.532e-7
-1.032, 2.447e-7
-1.033, 3.433e-7
-1.034, 3.433e-7
-1.035, 4.815e-7
-1.036, 4.420e-7
-1.037, 2.940e-7
-1.038, 5.900e-7
-1.039, 5.801e-7
-1.040, 5.012e-7
-1.041, 4.716e-7
-1.042, 3.236e-7
-1.043, 6.196e-7
-1.044, 4.124e-7
-1.045, 5.209e-7
-1.046, 6.196e-7
-1.047, 3.335e-7
-1.048, 5.308e-7
-1.049, 4.815e-7
-1.050, 6.097e-7
-1.051, 6.886e-7
-1.052, 4.420e-7
-1.053, 7.577e-7
-1.054, 6.393e-7
-1.055, 7.281e-7
-1.056, 9.649e-7
-1.057, 6.393e-7
-1.058, 6.788e-7
-1.059, 7.774e-7
-1.060, 8.070e-7
-1.061, 7.182e-7
-1.062, 6.590e-7
-1.063, 8.958e-7
-1.064, 8.268e-7
-1.065, 7.182e-7
-1.066, 9.550e-7
-1.067, 7.182e-7
-1.068, 8.564e-7
-1.069, 8.169e-7
-1.070, 8.465e-7
-1.071, 6.788e-7
-1.072, 8.860e-7
-1.073, 8.169e-7
-1.074, 7.972e-7
-1.075, 7.281e-7
-1.076, 9.353e-7
-1.077, 6.788e-7
-1.078, 1.024e-6
-1.079, 8.662e-7
-1.080, 1.054e-6
-1.081, 1.113e-6
-1.082, 9.156e-7
-1.083, 1.123e-6
-1.084, 8.860e-7
-1.085, 9.057e-7
-1.086, 1.064e-6
-1.087, 8.169e-7
-1.088, 1.142e-6
-1.089, 9.156e-7
-1.090, 1.142e-6
-1.091, 9.057e-7
-1.092, 1.014e-6
-1.093, 1.192e-6
-1.094, 9.254e-7
-1.095, 1.212e-6
-1.096, 1.290e-6
-1.097, 1.103e-6
-1.098, 1.152e-6
-1.099, 1.320e-6
-1.100, 1.034e-6
-1.101, 1.113e-6
-1.102, 1.133e-6
-1.103, 1.172e-6
-1.104, 9.945e-7
-1.105, 1.113e-6
-1.106, 1.221e-6
-1.107, 1.073e-6
-1.108, 1.369e-6
-1.109, 1.152e-6
-1.110, 1.231e-6
-1.111, 1.172e-6
-1.112, 1.083e-6
-1.113, 1.369e-6
-1.114, 1.093e-6
-1.115, 1.310e-6
-1.116, 1.340e-6
-1.117, 1.192e-6
-1.118, 1.241e-6
-1.119, 1.290e-6
-1.120, 1.330e-6
-1.121, 1.300e-6
-1.122, 1.212e-6
-1.123, 1.409e-6
-1.124, 1.330e-6
-1.125, 1.360e-6
-1.126, 1.527e-6
-1.127, 1.360e-6
-1.128, 1.527e-6
-1.129, 1.369e-6
-1.130, 1.369e-6
-1.131, 1.221e-6
-1.132, 1.389e-6
-1.133, 1.399e-6
-1.134, 1.251e-6
-1.135, 1.429e-6
-1.136, 1.685e-6
-1.137, 1.409e-6
-1.138, 1.498e-6
-1.139, 1.399e-6
-1.140, 1.665e-6
-1.141, 1.438e-6
-1.142, 1.527e-6
-1.143, 1.646e-6
-1.144, 1.468e-6
-1.145, 1.448e-6
-1.146, 1.685e-6
-1.147, 1.399e-6
-1.148, 1.567e-6
-1.149, 1.527e-6
-1.150, 1.695e-6
-1.151, 1.577e-6
-1.152, 1.537e-6
-1.153, 1.665e-6
-1.154, 1.527e-6
-1.155, 1.784e-6
-1.156, 1.685e-6
-1.157, 1.527e-6
-1.158, 1.705e-6
-1.159, 1.646e-6
-1.160, 1.715e-6
-1.161, 1.656e-6
-1.162, 1.695e-6
-1.163, 1.961e-6
-1.164, 1.744e-6
-1.165, 1.675e-6
-1.166, 1.823e-6
-1.167, 1.685e-6
-1.168, 1.912e-6
-1.169, 1.646e-6
-1.170, 1.764e-6
-1.171, 1.626e-6
-1.172, 1.586e-6
-1.173, 1.922e-6
-1.174, 1.685e-6
-1.175, 1.873e-6
-1.176, 1.912e-6
-1.177, 1.685e-6
-1.178, 1.912e-6
-1.179, 1.853e-6
-1.180, 1.813e-6
-1.181, 1.922e-6
-1.182, 1.764e-6
-1.183, 2.021e-6
-1.184, 1.764e-6
-1.185, 1.873e-6
-1.186, 2.011e-6
-1.187, 1.675e-6
-1.188, 1.981e-6
-1.189, 1.981e-6
-1.190, 2.149e-6
-1.191, 1.902e-6
-1.192, 2.119e-6
-1.193, 1.981e-6
-1.194, 1.843e-6
-1.195, 1.991e-6
-1.196, 2.099e-6
-1.197, 1.951e-6
-1.198, 2.040e-6
-1.199, 1.803e-6
-1.200, 2.198e-6
-1.201, 2.021e-6
-1.202, 1.971e-6
-1.203, 2.198e-6
-1.204, 2.011e-6
-1.205, 1.991e-6
-1.206, 2.247e-6
-1.207, 1.853e-6
-1.208, 2.228e-6
-1.209, 2.021e-6
-1.210, 2.228e-6
-1.211, 2.257e-6
-1.212, 2.021e-6
-1.213, 2.238e-6
-1.214, 2.011e-6
-1.215, 2.198e-6
-1.216, 2.257e-6
-1.217, 2.030e-6
-1.218, 2.218e-6
-1.219, 2.021e-6
-1.220, 2.238e-6
-1.221, 2.376e-6
-1.222, 2.080e-6
-1.223, 2.455e-6
-1.224, 2.149e-6
-1.225, 2.178e-6
-1.226, 2.198e-6
-1.227, 2.208e-6
-1.228, 2.267e-6
-1.229, 2.287e-6
-1.230, 2.386e-6
-1.231, 2.593e-6
-1.232, 2.317e-6
-1.233, 2.514e-6
-1.234, 2.247e-6
-1.235, 2.405e-6
-1.236, 2.553e-6
-1.237, 2.050e-6
-1.238, 2.405e-6
-1.239, 2.178e-6
-1.240, 2.553e-6
-1.241, 2.346e-6
-1.242, 2.228e-6
-1.243, 2.504e-6
-1.244, 2.435e-6
-1.245, 2.484e-6
-1.246, 2.484e-6
-1.247, 2.287e-6
-1.248, 2.435e-6
-1.249, 2.494e-6
-1.250, 2.593e-6
-1.251, 2.494e-6
-1.252, 2.415e-6
-1.253, 2.613e-6
-1.254, 2.297e-6
-1.255, 2.662e-6
-1.256, 2.642e-6
-1.257, 2.386e-6
-1.258, 2.632e-6
-1.259, 2.405e-6
-1.260, 2.691e-6
-1.261, 2.514e-6
-1.262, 2.425e-6
-1.263, 2.642e-6
-1.264, 2.445e-6
-1.265, 2.435e-6
-1.266, 2.731e-6
-1.267, 2.277e-6
-1.268, 2.573e-6
-1.269, 2.376e-6
-1.270, 2.593e-6
-1.271, 2.711e-6
-1.272, 2.593e-6
-1.273, 2.780e-6
-1.274, 2.711e-6
-1.275, 2.711e-6
-1.276, 2.731e-6
-1.277, 2.603e-6
-1.278, 2.859e-6
-1.279, 2.760e-6
-1.280, 2.830e-6
-1.281, 2.889e-6
-1.282, 2.672e-6
-1.283, 2.711e-6
-1.284, 2.780e-6
-1.285, 2.830e-6
-1.286, 2.987e-6
-1.287, 2.928e-6
-1.288, 2.820e-6
-1.289, 2.652e-6
-1.290, 2.691e-6
-1.291, 2.839e-6
-1.292, 2.701e-6
-1.293, 2.987e-6
-1.294, 2.682e-6
-1.295, 2.928e-6
-1.296, 2.839e-6
-1.297, 2.790e-6
-1.298, 2.908e-6
-1.299, 2.780e-6
-1.300, 3.007e-6
-1.301, 2.889e-6
-1.302, 2.918e-6
-1.303, 2.997e-6
-1.304, 2.800e-6
-1.305, 2.958e-6
-1.306, 3.066e-6
-1.307, 2.968e-6
-1.308, 3.017e-6
-1.309, 2.652e-6
-1.310, 2.958e-6
-1.311, 2.938e-6
-1.312, 2.958e-6
-1.313, 3.076e-6
-1.314, 2.908e-6
-1.315, 2.948e-6
-1.316, 3.165e-6
-1.317, 3.007e-6
-1.318, 3.145e-6
-1.319, 3.185e-6
-1.320, 3.175e-6
-1.321, 2.830e-6
-1.322, 3.027e-6
-1.323, 3.027e-6
-1.324, 2.948e-6
-1.325, 3.066e-6
-1.326, 3.086e-6
-1.327, 2.908e-6
-1.328, 3.185e-6
-1.329, 3.056e-6
-1.330, 3.234e-6
-1.331, 3.204e-6
-1.332, 3.234e-6
-1.333, 3.283e-6
-1.334, 3.027e-6
-1.335, 3.116e-6
-1.336, 3.244e-6
-1.337, 3.135e-6
-1.338, 3.283e-6
-1.339, 3.224e-6
-1.340, 3.264e-6
-1.341, 3.234e-6
-1.342, 3.106e-6
-1.343, 3.372e-6
-1.344, 3.274e-6
-1.345, 3.352e-6
-1.346, 3.461e-6
-1.347, 3.047e-6
-1.348, 3.244e-6
-1.349, 3.086e-6
-1.350, 3.451e-6
-1.351, 3.362e-6
-1.352, 3.343e-6
-1.353, 3.619e-6
-1.354, 3.283e-6
-1.355, 3.343e-6
-1.356, 3.382e-6
-1.357, 3.402e-6
-1.358, 3.352e-6
-1.359, 3.402e-6
-1.360, 3.599e-6
-1.361, 3.422e-6
-1.362, 3.431e-6
-1.363, 3.639e-6
-1.364, 3.382e-6
-1.365, 3.491e-6
-1.366, 3.806e-6
-1.367, 3.362e-6
-1.368, 3.461e-6
-1.369, 3.214e-6
-1.370, 3.688e-6
-1.371, 3.550e-6
-1.372, 3.579e-6
-1.373, 3.629e-6
-1.374, 3.648e-6
-1.375, 3.757e-6
-1.376, 3.727e-6
-1.377, 3.530e-6
-1.378, 3.727e-6
-1.379, 3.589e-6
-1.380, 3.806e-6
-1.381, 3.481e-6
-1.382, 3.461e-6
-1.383, 3.747e-6
-1.384, 3.688e-6
-1.385, 3.757e-6
-1.386, 3.994e-6
-1.387, 3.737e-6
-1.388, 3.826e-6
-1.389, 3.767e-6
-1.390, 3.816e-6
-1.391, 3.629e-6
-1.392, 3.787e-6
-1.393, 4.004e-6
-1.394, 3.658e-6
-1.395, 3.954e-6
-1.396, 3.727e-6
-1.397, 3.737e-6
-1.398, 3.875e-6
-1.399, 3.826e-6
-1.400, 4.073e-6
-1.401, 3.944e-6
-1.402, 3.846e-6
-1.403, 4.092e-6
-1.404, 3.915e-6
-1.405, 3.994e-6
-1.406, 3.944e-6
-1.407, 3.974e-6
-1.408, 3.915e-6
-1.409, 3.944e-6
-1.410, 4.260e-6
-1.411, 4.053e-6
-1.412, 4.023e-6
-1.413, 4.161e-6
-1.414, 4.073e-6
-1.415, 4.270e-6
-1.416, 4.280e-6
-1.417, 3.944e-6
-1.418, 4.161e-6
-1.419, 3.974e-6
-1.420, 4.280e-6
-1.421, 4.339e-6
-1.422, 4.290e-6
-1.423, 4.309e-6
-1.424, 4.171e-6
-1.425, 4.339e-6
-1.426, 4.290e-6
-1.427, 4.221e-6
-1.428, 4.280e-6
-1.429, 4.171e-6
-1.430, 4.428e-6
-1.431, 4.428e-6
-1.432, 4.211e-6
-1.433, 4.497e-6
-1.434, 4.339e-6
-1.435, 4.329e-6
-1.436, 4.684e-6
-1.437, 4.428e-6
-1.438, 4.438e-6
-1.439, 4.388e-6
-1.440, 4.674e-6
-1.441, 4.586e-6
-1.442, 4.408e-6
-1.443, 4.684e-6
-1.444, 4.467e-6
-1.445, 4.704e-6
-1.446, 4.704e-6
-1.447, 4.586e-6
-1.448, 4.724e-6
-1.449, 4.605e-6
-1.450, 4.931e-6
-1.451, 4.704e-6
-1.452, 4.507e-6
-1.453, 4.882e-6
-1.454, 4.674e-6
-1.455, 4.813e-6
-1.456, 5.059e-6
-1.457, 4.911e-6
-1.458, 4.951e-6
-1.459, 4.803e-6
-1.460, 5.138e-6
-1.461, 5.000e-6
-1.462, 5.020e-6
-1.463, 5.089e-6
-1.464, 5.030e-6
-1.465, 5.336e-6
-1.466, 5.089e-6
-1.467, 5.040e-6
-1.468, 5.020e-6
-1.469, 5.030e-6
-1.470, 5.444e-6
-1.471, 5.089e-6
-1.472, 5.276e-6
-1.473, 5.345e-6
-1.474, 5.188e-6
-1.475, 5.405e-6
-1.476, 5.444e-6
-1.477, 5.385e-6
-1.478, 5.503e-6
-1.479, 5.326e-6
-1.480, 5.750e-6
-1.481, 5.493e-6
-1.482, 5.424e-6
-1.483, 5.779e-6
-1.484, 5.503e-6
-1.485, 5.691e-6
-1.486, 5.888e-6
-1.487, 5.789e-6
-1.488, 5.858e-6
-1.489, 5.701e-6
-1.490, 6.036e-6
-1.491, 5.770e-6
-1.492, 5.710e-6
-1.493, 6.105e-6
-1.494, 6.056e-6
-1.495, 6.105e-6
-1.496, 6.214e-6
-1.497, 6.085e-6
-1.498, 6.293e-6
-1.499, 6.283e-6
-1.500, 6.490e-6
-1.501, 6.549e-6
-1.502, 6.381e-6
-1.503, 6.756e-6
-1.504, 6.401e-6
-1.505, 6.598e-6
-1.506, 6.588e-6
-1.507, 6.717e-6
-1.508, 6.786e-6
-1.509, 6.875e-6
-1.510, 6.746e-6
-1.511, 6.806e-6
-1.512, 6.845e-6
-1.513, 7.151e-6
-1.514, 7.161e-6
-1.515, 7.062e-6
-1.516, 7.319e-6
-1.517, 7.309e-6
-1.518, 7.338e-6
-1.519, 7.319e-6
-1.520, 7.733e-6
-1.521, 7.526e-6
-1.522, 7.565e-6
-1.523, 7.881e-6
-1.524, 7.496e-6
-1.525, 7.763e-6
-1.526, 7.950e-6
-1.527, 7.999e-6
-1.528, 8.078e-6
-1.529, 8.039e-6
-1.530, 8.315e-6
-1.531, 8.276e-6
-1.532, 8.177e-6
-1.533, 8.453e-6
-1.534, 8.493e-6
-1.535, 8.700e-6
-1.536, 8.690e-6
-1.537, 8.848e-6
-1.538, 8.996e-6
-1.539, 8.828e-6
-1.540, 9.321e-6
-1.541, 9.055e-6
-1.542, 9.055e-6
-1.543, 9.479e-6
-1.544, 9.351e-6
-1.545, 9.558e-6
-1.546, 9.755e-6
-1.547, 9.736e-6
-1.548, 9.805e-6
-1.549, 9.755e-6
-1.550, 1.036e-5
-1.551, 1.033e-5
-1.552, 1.038e-5
-1.553, 1.055e-5
-1.554, 1.050e-5
-1.555, 1.090e-5
-1.556, 1.108e-5
-1.557, 1.126e-5
-1.558, 1.129e-5
-1.559, 1.123e-5
-1.560, 1.162e-5
-1.561, 1.154e-5
-1.562, 1.187e-5
-1.563, 1.213e-5
-1.564, 1.227e-5
-1.565, 1.231e-5
-1.566, 1.248e-5
-1.567, 1.258e-5
-1.568, 1.272e-5
-1.569, 1.287e-5
-1.570, 1.325e-5
-1.571, 1.337e-5
-1.572, 1.329e-5
-1.573, 1.380e-5
-1.574, 1.364e-5
-1.575, 1.412e-5
-1.576, 1.426e-5
-1.577, 1.442e-5
-1.578, 1.458e-5
-1.579, 1.477e-5
-1.580, 1.520e-5
-1.581, 1.540e-5
-1.582, 1.512e-5
-1.583, 1.580e-5
-1.584, 1.585e-5
-1.585, 1.615e-5
-1.586, 1.651e-5
-1.587, 1.674e-5
-1.588, 1.702e-5
-1.589, 1.689e-5
-1.590, 1.742e-5
-1.591, 1.769e-5
-1.592, 1.776e-5
-1.593, 1.830e-5
-1.594, 1.846e-5
-1.595, 1.856e-5
-1.596, 1.915e-5
-1.597, 1.942e-5
-1.598, 1.968e-5
-1.599, 1.970e-5
-1.600, 2.053e-5
-1.601, 2.049e-5
-1.602, 2.087e-5
-1.603, 2.140e-5
-1.604, 2.147e-5
-1.605, 2.204e-5
-1.606, 2.228e-5
-1.607, 2.278e-5
-1.608, 2.283e-5
-1.609, 2.338e-5
-1.610, 2.387e-5
-1.611, 2.390e-5
-1.612, 2.449e-5
-1.613, 2.506e-5
-1.614, 2.532e-5
-1.615, 2.579e-5
-1.616, 2.610e-5
-1.617, 2.671e-5
-1.618, 2.696e-5
-1.619, 2.732e-5
-1.620, 2.824e-5
-1.621, 2.839e-5
-1.622, 2.894e-5
-1.623, 2.946e-5
-1.624, 2.966e-5
-1.625, 3.036e-5
-1.626, 3.078e-5
-1.627, 3.171e-5
-1.628, 3.192e-5
-1.629, 3.229e-5
-1.630, 3.305e-5
-1.631, 3.353e-5
-1.632, 3.402e-5
-1.633, 3.493e-5
-1.634, 3.541e-5
-1.635, 3.586e-5
-1.636, 3.663e-5
-1.637, 3.719e-5
-1.638, 3.786e-5
-1.639, 3.845e-5
-1.640, 3.950e-5
-1.641, 4.006e-5
-1.642, 4.040e-5
-1.643, 4.153e-5
-1.644, 4.187e-5
-1.645, 4.254e-5
-1.646, 4.369e-5
-1.647, 4.413e-5
-1.648, 4.502e-5
-1.649, 4.554e-5
-1.650, 4.655e-5
-1.651, 4.731e-5
-1.652, 4.803e-5
-1.653, 4.913e-5
-1.654, 4.972e-5
-1.655, 5.050e-5
-1.656, 5.141e-5
-1.657, 5.268e-5
-1.658, 5.349e-5
-1.659, 5.417e-5
-1.660, 5.538e-5
-1.661, 5.615e-5
-1.662, 5.720e-5
-1.663, 5.827e-5
-1.664, 5.925e-5
-1.665, 6.031e-5
-1.666, 6.131e-5
-1.667, 6.259e-5
-1.668, 6.360e-5
-1.669, 6.453e-5
-1.670, 6.602e-5
-1.671, 6.699e-5
-1.672, 6.809e-5
-1.673, 6.944e-5
-1.674, 7.074e-5
-1.675, 7.179e-5
-1.676, 7.313e-5
-1.677, 7.469e-5
-1.678, 7.586e-5
-1.679, 7.683e-5
-1.680, 7.858e-5
-1.681, 8.010e-5
-1.682, 8.135e-5
-1.683, 8.310e-5
-1.684, 8.455e-5
-1.685, 8.595e-5
-1.686, 8.741e-5
-1.687, 8.919e-5
-1.688, 9.079e-5
-1.689, 9.217e-5
-1.690, 9.445e-5
-1.691, 9.600e-5
-1.692, 9.749e-5
-1.693, 9.960e-5
-1.694, 1.012e-4
-1.695, 1.030e-4
-1.696, 1.048e-4
-1.697, 1.071e-4
-1.698, 1.087e-4
-1.699, 1.106e-4
-1.700, 1.128e-4
-1.701, 1.147e-4
-1.702, 1.168e-4
-1.703, 1.192e-4
-1.704, 1.213e-4
-1.705, 1.235e-4
-1.706, 1.254e-4
-1.707, 1.279e-4
-1.708, 1.303e-4
-1.709, 1.323e-4
-1.710, 1.353e-4
-1.711, 1.376e-4
-1.712, 1.400e-4
-1.713, 1.428e-4
-1.714, 1.453e-4
-1.715, 1.480e-4
-1.716, 1.506e-4
-1.717, 1.536e-4
-1.718, 1.566e-4
-1.719, 1.591e-4
-1.720, 1.624e-4
-1.721, 1.653e-4
-1.722, 1.680e-4
-1.723, 1.713e-4
-1.724, 1.743e-4
-1.725, 1.776e-4
-1.726, 1.807e-4
-1.727, 1.844e-4
-1.728, 1.876e-4
-1.729, 1.909e-4
-1.730, 1.946e-4
-1.731, 1.981e-4
-1.732, 2.016e-4
-1.733, 2.055e-4
-1.734, 2.091e-4
-1.735, 2.128e-4
-1.736, 2.166e-4
-1.737, 2.205e-4
-1.738, 2.244e-4
-1.739, 2.281e-4
-1.740, 2.327e-4
-1.741, 2.370e-4
-1.742, 2.409e-4
-1.743, 2.455e-4
-1.744, 2.496e-4
-1.745, 2.544e-4
-1.746, 2.587e-4
-1.747, 2.639e-4
-1.748, 2.685e-4
-1.749, 2.729e-4
-1.750, 2.781e-4
-1.751, 2.832e-4
-1.752, 2.881e-4
-1.753, 2.934e-4
-1.754, 2.987e-4
-1.755, 3.038e-4
-1.756, 3.092e-4
-1.757, 3.153e-4
-1.758, 3.208e-4
-1.759, 3.259e-4
-1.760, 3.320e-4
-1.761, 3.379e-4
-1.762, 3.436e-4
-1.763, 3.502e-4
-1.764, 3.562e-4
-1.765, 3.624e-4
-1.766, 3.685e-4
-1.767, 3.757e-4
-1.768, 3.821e-4
-1.769, 3.883e-4
-1.770, 3.957e-4
-1.771, 4.024e-4
-1.772, 4.090e-4
-1.773, 4.163e-4
-1.774, 4.234e-4
-1.775, 4.305e-4
-1.776, 4.374e-4
-1.777, 4.456e-4
-1.778, 4.531e-4
-1.779, 4.605e-4
-1.780, 4.693e-4
-1.781, 4.771e-4
-1.782, 4.851e-4
-1.783, 4.933e-4
-1.784, 5.019e-4
-1.785, 5.102e-4
-1.786, 5.187e-4
-1.787, 5.281e-4
-1.788, 5.367e-4
-1.789, 5.452e-4
-1.790, 5.550e-4
-1.791, 5.642e-4
-1.792, 5.732e-4
-1.793, 5.830e-4
-1.794, 5.931e-4
-1.795, 6.023e-4
-1.796, 6.121e-4
-1.797, 6.228e-4
-1.798, 6.326e-4
-1.799, 6.422e-4
-1.800, 6.535e-4
-1.801, 6.645e-4
-1.802, 6.747e-4
-1.803, 6.859e-4
-1.804, 6.975e-4
-1.805, 7.084e-4
-1.806, 7.197e-4
-1.807, 7.314e-4
-1.808, 7.426e-4
-1.809, 7.538e-4
-1.810, 7.665e-4
-1.811, 7.791e-4
-1.812, 7.908e-4
-1.813, 8.040e-4
-1.814, 8.174e-4
-1.815, 8.301e-4
-1.816, 8.422e-4
-1.817, 8.559e-4
-1.818, 8.690e-4
-1.819, 8.816e-4
-1.820, 8.958e-4
-1.821, 9.100e-4
-1.822, 9.233e-4
-1.823, 9.378e-4
-1.824, 9.527e-4
-1.825, 9.669e-4
-1.826, 9.808e-4
-1.827, 9.965e-4
-1.828, 1.011e-3
-1.829, 1.025e-3
-1.830, 1.041e-3
-1.831, 1.056e-3
-1.832, 1.072e-3
-1.833, 1.088e-3
-1.834, 1.105e-3
-1.835, 1.121e-3
-1.836, 1.137e-3
-1.837, 1.154e-3
-1.838, 1.171e-3
-1.839, 1.187e-3
-1.840, 1.204e-3
-1.841, 1.221e-3
-1.842, 1.238e-3
-1.843, 1.255e-3
-1.844, 1.274e-3
-1.845, 1.292e-3
-1.846, 1.310e-3
-1.847, 1.329e-3
-1.848, 1.348e-3
-1.849, 1.366e-3
-1.850, 1.386e-3
-1.851, 1.405e-3
-1.852, 1.422e-3
-1.853, 1.442e-3
-1.854, 1.463e-3
-1.855, 1.482e-3
-1.856, 1.501e-3
-1.857, 1.524e-3
-1.858, 1.544e-3
-1.859, 1.564e-3
-1.860, 1.587e-3
-1.861, 1.609e-3
-1.862, 1.629e-3
-1.863, 1.650e-3
-1.864, 1.672e-3
-1.865, 1.693e-3
-1.866, 1.716e-3
-1.867, 1.740e-3
-1.868, 1.763e-3
-1.869, 1.785e-3
-1.870, 1.808e-3
-1.871, 1.831e-3
-1.872, 1.853e-3
-1.873, 1.878e-3
-1.874, 1.903e-3
-1.875, 1.926e-3
-1.876, 1.950e-3
-1.877, 1.976e-3
-1.878, 2.001e-3
-1.879, 2.024e-3
-1.880, 2.049e-3
-1.881, 2.075e-3
-1.882, 2.099e-3
-1.883, 2.125e-3
-1.884, 2.153e-3
-1.885, 2.178e-3
-1.886, 2.203e-3
-1.887, 2.230e-3
-1.888, 2.256e-3
-1.889, 2.282e-3
-1.890, 2.312e-3
-1.891, 2.341e-3
-1.892, 2.368e-3
-1.893, 2.396e-3
-1.894, 2.425e-3
-1.895, 2.452e-3
-1.896, 2.479e-3
-1.897, 2.511e-3
-1.898, 2.540e-3
-1.899, 2.567e-3
-1.900, 2.597e-3
-1.901, 2.628e-3
-1.902, 2.657e-3
-1.903, 2.687e-3
-1.904, 2.719e-3
-1.905, 2.748e-3
-1.906, 2.777e-3
-1.907, 2.810e-3
-1.908, 2.842e-3
-1.909, 2.872e-3
-1.910, 2.907e-3
-1.911, 2.940e-3
-1.912, 2.970e-3
-1.913, 3.001e-3
-1.914, 3.034e-3
-1.915, 3.066e-3
-1.916, 3.099e-3
-1.917, 3.136e-3
-1.918, 3.170e-3
-1.919, 3.203e-3
-1.920, 3.238e-3
-1.921, 3.273e-3
-1.922, 3.304e-3
-1.923, 3.338e-3
-1.924, 3.374e-3
-1.925, 3.405e-3
-1.926, 3.439e-3
-1.927, 3.480e-3
-1.928, 3.518e-3
-1.929, 3.553e-3
-1.930, 3.591e-3
-1.931, 3.628e-3
-1.932, 3.659e-3
-1.933, 3.692e-3
-1.934, 3.729e-3
-1.935, 3.765e-3
-1.936, 3.801e-3
-1.937, 3.842e-3
-1.938, 3.883e-3
-1.939, 3.923e-3
-1.940, 3.964e-3
-1.941, 4.005e-3
-1.942, 4.041e-3
-1.943, 4.082e-3
-1.944, 4.129e-3
-1.945, 4.171e-3
-1.946, 4.209e-3
-1.947, 4.250e-3
-1.948, 4.289e-3
-1.949, 4.324e-3
-1.950, 4.364e-3
-1.951, 4.404e-3
-1.952, 4.438e-3
-1.953, 4.479e-3
-1.954, 4.524e-3
-1.955, 4.568e-3
-1.956, 4.615e-3
-1.957, 4.662e-3
-1.958, 4.705e-3
-1.959, 4.744e-3
-1.960, 4.786e-3
-1.961, 4.830e-3
-1.962, 4.871e-3
-1.963, 4.912e-3
-1.964, 4.960e-3
-1.965, 5.005e-3
-1.966, 5.049e-3
-1.967, 5.097e-3
-1.968, 5.140e-3
-1.969, 5.180e-3
-1.970, 5.227e-3
-1.971, 5.271e-3
-1.972, 5.312e-3
-1.973, 5.357e-3
-1.974, 5.408e-3
-1.975, 5.457e-3
-1.976, 5.510e-3
-1.977, 5.567e-3
-1.978, 5.614e-3
-1.979, 5.656e-3
-1.980, 5.699e-3
-1.981, 5.747e-3
-1.982, 5.794e-3
-1.983, 5.845e-3
-1.984, 5.898e-3
-1.985, 5.944e-3
-1.986, 5.988e-3
-1.987, 6.038e-3
-1.988, 6.089e-3
-1.989, 6.137e-3
-1.990, 6.190e-3
-1.991, 6.241e-3
-1.992, 6.286e-3
-1.993, 6.335e-3
-1.994, 6.386e-3
-1.995, 6.435e-3
-1.996, 6.484e-3
-1.997, 6.545e-3
-1.998, 6.607e-3
-1.999, 6.658e-3
-2.000, 6.666e-3
-1.999, 6.618e-3
-1.998, 6.563e-3
-1.997, 6.518e-3
-1.996, 6.484e-3
-1.995, 6.448e-3
-1.994, 6.417e-3
-1.993, 6.397e-3
-1.992, 6.360e-3
-1.991, 6.310e-3
-1.990, 6.260e-3
-1.989, 6.211e-3
-1.988, 6.162e-3
-1.987, 6.124e-3
-1.986, 6.093e-3
-1.985, 6.059e-3
-1.984, 6.023e-3
-1.983, 5.987e-3
-1.982, 5.942e-3
-1.981, 5.893e-3
-1.980, 5.854e-3
-1.979, 5.817e-3
-1.978, 5.775e-3
-1.977, 5.737e-3
-1.976, 5.703e-3
-1.975, 5.663e-3
-1.974, 5.623e-3
-1.973, 5.585e-3
-1.972, 5.542e-3
-1.971, 5.499e-3
-1.970, 5.462e-3
-1.969, 5.425e-3
-1.968, 5.383e-3
-1.967, 5.342e-3
-1.966, 5.306e-3
-1.965, 5.268e-3
-1.964, 5.227e-3
-1.963, 5.188e-3
-1.962, 5.151e-3
-1.961, 5.113e-3
-1.960, 5.077e-3
-1.959, 5.041e-3
-1.958, 4.999e-3
-1.957, 4.958e-3
-1.956, 4.921e-3
-1.955, 4.878e-3
-1.954, 4.836e-3
-1.953, 4.805e-3
-1.952, 4.771e-3
-1.951, 4.732e-3
-1.950, 4.701e-3
-1.949, 4.671e-3
-1.948, 4.631e-3
-1.947, 4.595e-3
-1.946, 4.560e-3
-1.945, 4.519e-3
-1.944, 4.481e-3
-1.943, 4.449e-3
-1.942, 4.414e-3
-1.941, 4.377e-3
-1.940, 4.342e-3
-1.939, 4.307e-3
-1.938, 4.271e-3
-1.937, 4.233e-3
-1.936, 4.199e-3
-1.935, 4.169e-3
-1.934, 4.140e-3
-1.933, 4.110e-3
-1.932, 4.073e-3
-1.931, 4.031e-3
-1.930, 3.995e-3
-1.929, 3.961e-3
-1.928, 3.923e-3
-1.927, 3.890e-3
-1.926, 3.866e-3
-1.925, 3.835e-3
-1.924, 3.801e-3
-1.923, 3.771e-3
-1.922, 3.738e-3
-1.921, 3.700e-3
-1.920, 3.664e-3
-1.919, 3.630e-3
-1.918, 3.598e-3
-1.917, 3.571e-3
-1.916, 3.547e-3
-1.915, 3.515e-3
-1.914, 3.480e-3
-1.913, 3.450e-3
-1.912, 3.421e-3
-1.911, 3.390e-3
-1.910, 3.360e-3
-1.909, 3.329e-3
-1.908, 3.296e-3
-1.907, 3.268e-3
-1.906, 3.242e-3
-1.905, 3.213e-3
-1.904, 3.182e-3
-1.903, 3.154e-3
-1.902, 3.124e-3
-1.901, 3.093e-3
-1.900, 3.068e-3
-1.899, 3.043e-3
-1.898, 3.013e-3
-1.897, 2.981e-3
-1.896, 2.951e-3
-1.895, 2.919e-3
-1.894, 2.890e-3
-1.893, 2.867e-3
-1.892, 2.843e-3
-1.891, 2.816e-3
-1.890, 2.791e-3
-1.889, 2.764e-3
-1.888, 2.733e-3
-1.887, 2.705e-3
-1.886, 2.681e-3
-1.885, 2.653e-3
-1.884, 2.625e-3
-1.883, 2.604e-3
-1.882, 2.580e-3
-1.881, 2.552e-3
-1.880, 2.525e-3
-1.879, 2.499e-3
-1.878, 2.474e-3
-1.877, 2.452e-3
-1.876, 2.430e-3
-1.875, 2.404e-3
-1.874, 2.376e-3
-1.873, 2.352e-3
-1.872, 2.329e-3
-1.871, 2.304e-3
-1.870, 2.282e-3
-1.869, 2.259e-3
-1.868, 2.233e-3
-1.867, 2.210e-3
-1.866, 2.189e-3
-1.865, 2.166e-3
-1.864, 2.142e-3
-1.863, 2.120e-3
-1.862, 2.097e-3
-1.861, 2.073e-3
-1.860, 2.053e-3
-1.859, 2.033e-3
-1.858, 2.010e-3
-1.857, 1.989e-3
-1.856, 1.969e-3
-1.855, 1.946e-3
-1.854, 1.924e-3
-1.853, 1.904e-3
-1.852, 1.884e-3
-1.851, 1.862e-3
-1.850, 1.843e-3
-1.849, 1.824e-3
-1.848, 1.804e-3
-1.847, 1.784e-3
-1.846, 1.765e-3
-1.845, 1.744e-3
-1.844, 1.722e-3
-1.843, 1.704e-3
-1.842, 1.685e-3
-1.841, 1.666e-3
-1.840, 1.649e-3
-1.839, 1.631e-3
-1.838, 1.612e-3
-1.837, 1.593e-3
-1.836, 1.575e-3
-1.835, 1.557e-3
-1.834, 1.538e-3
-1.833, 1.521e-3
-1.832, 1.503e-3
-1.831, 1.484e-3
-1.830, 1.468e-3
-1.829, 1.452e-3
-1.828, 1.434e-3
-1.827, 1.418e-3
-1.826, 1.404e-3
-1.825, 1.387e-3
-1.824, 1.370e-3
-1.823, 1.354e-3
-1.822, 1.337e-3
-1.821, 1.320e-3
-1.820, 1.305e-3
-1.819, 1.290e-3
-1.818, 1.274e-3
-1.817, 1.259e-3
-1.816, 1.244e-3
-1.815, 1.228e-3
-1.814, 1.213e-3
-1.813, 1.200e-3
-1.812, 1.186e-3
-1.811, 1.170e-3
-1.810, 1.157e-3
-1.809, 1.143e-3
-1.808, 1.128e-3
-1.807, 1.114e-3
-1.806, 1.101e-3
-1.805, 1.086e-3
-1.804, 1.072e-3
-1.803, 1.059e-3
-1.802, 1.046e-3
-1.801, 1.032e-3
-1.800, 1.020e-3
-1.799, 1.007e-3
-1.798, 9.937e-4
-1.797, 9.809e-4
-1.796, 9.694e-4
-1.795, 9.568e-4
-1.794, 9.442e-4
-1.793, 9.333e-4
-1.792, 9.210e-4
-1.791, 9.078e-4
-1.790, 8.964e-4
-1.789, 8.850e-4
-1.788, 8.729e-4
-1.787, 8.614e-4
-1.786, 8.511e-4
-1.785, 8.394e-4
-1.784, 8.276e-4
-1.783, 8.175e-4
-1.782, 8.062e-4
-1.781, 7.947e-4
-1.780, 7.843e-4
-1.779, 7.738e-4
-1.778, 7.630e-4
-1.777, 7.524e-4
-1.776, 7.430e-4
-1.775, 7.329e-4
-1.774, 7.224e-4
-1.773, 7.133e-4
-1.772, 7.035e-4
-1.771, 6.931e-4
-1.770, 6.842e-4
-1.769, 6.750e-4
-1.768, 6.649e-4
-1.767, 6.554e-4
-1.766, 6.467e-4
-1.765, 6.375e-4
-1.764, 6.281e-4
-1.763, 6.205e-4
-1.762, 6.120e-4
-1.761, 6.025e-4
-1.760, 5.943e-4
-1.759, 5.861e-4
-1.758, 5.774e-4
-1.757, 5.691e-4
-1.756, 5.614e-4
-1.755, 5.529e-4
-1.754, 5.446e-4
-1.753, 5.375e-4
-1.752, 5.298e-4
-1.751, 5.213e-4
-1.750, 5.138e-4
-1.749, 5.065e-4
-1.748, 4.988e-4
-1.747, 4.915e-4
-1.746, 4.850e-4
-1.745, 4.777e-4
-1.744, 4.703e-4
-1.743, 4.638e-4
-1.742, 4.569e-4
-1.741, 4.494e-4
-1.740, 4.430e-4
-1.739, 4.367e-4
-1.738, 4.298e-4
-1.737, 4.236e-4
-1.736, 4.178e-4
-1.735, 4.114e-4
-1.734, 4.047e-4
-1.733, 3.993e-4
-1.732, 3.929e-4
-1.731, 3.864e-4
-1.730, 3.809e-4
-1.729, 3.752e-4
-1.728, 3.691e-4
-1.727, 3.633e-4
-1.726, 3.580e-4
-1.725, 3.525e-4
-1.724, 3.463e-4
-1.723, 3.417e-4
-1.722, 3.362e-4
-1.721, 3.304e-4
-1.720, 3.258e-4
-1.719, 3.209e-4
-1.718, 3.155e-4
-1.717, 3.104e-4
-1.716, 3.058e-4
-1.715, 3.006e-4
-1.714, 2.954e-4
-1.713, 2.915e-4
-1.712, 2.867e-4
-1.711, 2.816e-4
-1.710, 2.777e-4
-1.709, 2.731e-4
-1.708, 2.686e-4
-1.707, 2.643e-4
-1.706, 2.602e-4
-1.705, 2.558e-4
-1.704, 2.512e-4
-1.703, 2.477e-4
-1.702, 2.434e-4
-1.701, 2.392e-4
-1.700, 2.358e-4
-1.699, 2.317e-4
-1.698, 2.277e-4
-1.697, 2.240e-4
-1.696, 2.207e-4
-1.695, 2.169e-4
-1.694, 2.131e-4
-1.693, 2.100e-4
-1.692, 2.063e-4
-1.691, 2.024e-4
-1.690, 1.995e-4
-1.689, 1.959e-4
-1.688, 1.925e-4
-1.687, 1.893e-4
-1.686, 1.863e-4
-1.685, 1.831e-4
-1.684, 1.796e-4
-1.683, 1.769e-4
-1.682, 1.739e-4
-1.681, 1.706e-4
-1.680, 1.680e-4
-1.679, 1.650e-4
-1.678, 1.621e-4
-1.677, 1.594e-4
-1.676, 1.567e-4
-1.675, 1.538e-4
-1.674, 1.509e-4
-1.673, 1.487e-4
-1.672, 1.460e-4
-1.671, 1.432e-4
-1.670, 1.408e-4
-1.669, 1.384e-4
-1.668, 1.358e-4
-1.667, 1.334e-4
-1.666, 1.312e-4
-1.665, 1.287e-4
-1.664, 1.262e-4
-1.663, 1.242e-4
-1.662, 1.220e-4
-1.661, 1.196e-4
-1.660, 1.177e-4
-1.659, 1.157e-4
-1.658, 1.137e-4
-1.657, 1.113e-4
-1.656, 1.096e-4
-1.655, 1.076e-4
-1.654, 1.054e-4
-1.653, 1.040e-4
-1.652, 1.018e-4
-1.651, 9.983e-5
-1.650, 9.827e-5
-1.649, 9.636e-5
-1.648, 9.452e-5
-1.647, 9.292e-5
-1.646, 9.121e-5
-1.645, 8.956e-5
-1.644, 8.758e-5
-1.643, 8.637e-5
-1.642, 8.460e-5
-1.641, 8.271e-5
-1.640, 8.153e-5
-1.639, 7.985e-5
-1.638, 7.822e-5
-1.637, 7.676e-5
-1.636, 7.558e-5
-1.635, 7.405e-5
-1.634, 7.235e-5
-1.633, 7.149e-5
-1.632, 6.992e-5
-1.631, 6.837e-5
-1.630, 6.751e-5
-1.629, 6.593e-5
-1.628, 6.467e-5
-1.627, 6.364e-5
-1.626, 6.250e-5
-1.625, 6.102e-5
-1.624, 5.982e-5
-1.623, 5.875e-5
-1.622, 5.783e-5
-1.621, 5.637e-5
-1.620, 5.558e-5
-1.619, 5.406e-5
-1.618, 5.332e-5
-1.617, 5.207e-5
-1.616, 5.114e-5
-1.615, 5.012e-5
-1.614, 4.918e-5
-1.613, 4.839e-5
-1.612, 4.729e-5
-1.611, 4.618e-5
-1.610, 4.557e-5
-1.609, 4.440e-5
-1.608, 4.366e-5
-1.607, 4.290e-5
-1.606, 4.168e-5
-1.605, 4.087e-5
-1.604, 4.014e-5
-1.603, 3.953e-5
-1.602, 3.852e-5
-1.601, 3.757e-5
-1.600, 3.700e-5
-1.599, 3.625e-5
-1.598, 3.531e-5
-1.597, 3.488e-5
-1.596, 3.388e-5
-1.595, 3.319e-5
-1.594, 3.249e-5
-1.593, 3.215e-5
-1.592, 3.119e-5
-1.591, 3.037e-5
-1.590, 3.013e-5
-1.589, 2.907e-5
-1.588, 2.865e-5
-1.587, 2.785e-5
-1.586, 2.730e-5
-1.585, 2.666e-5
-1.584, 2.586e-5
-1.583, 2.573e-5
-1.582, 2.470e-5
-1.581, 2.425e-5
-1.580, 2.396e-5
-1.579, 2.307e-5
-1.578, 2.283e-5
-1.577, 2.236e-5
-1.576, 2.161e-5
-1.575, 2.122e-5
-1.574, 2.070e-5
-1.573, 2.047e-5
-1.572, 1.985e-5
-1.571, 1.929e-5
-1.570, 1.915e-5
-1.569, 1.852e-5
-1.568, 1.814e-5
-1.567, 1.765e-5
-1.566, 1.706e-5
-1.565, 1.683e-5
-1.564, 1.646e-5
-1.563, 1.631e-5
-1.562, 1.554e-5
-1.561, 1.507e-5
-1.560, 1.497e-5
-1.559, 1.426e-5
-1.558, 1.416e-5
-1.557, 1.370e-5
-1.556, 1.347e-5
-1.555, 1.314e-5
-1.554, 1.247e-5
-1.553, 1.251e-5
-1.552, 1.222e-5
-1.551, 1.156e-5
-1.550, 1.166e-5
-1.549, 1.107e-5
-1.548, 1.094e-5
-1.547, 1.082e-5
-1.546, 1.043e-5
-1.545, 1.001e-5
-1.544, 9.775e-6
-1.543, 9.834e-6
-1.542, 9.262e-6
-1.541, 8.917e-6
-1.540, 8.946e-6
-1.539, 8.493e-6
-1.538, 8.295e-6
-1.537, 8.039e-6
-1.536, 7.792e-6
-1.535, 7.654e-6
-1.534, 7.210e-6
-1.533, 7.299e-6
-1.532, 6.806e-6
-1.531, 6.815e-6
-1.530, 6.786e-6
-1.529, 6.450e-6
-1.528, 6.352e-6
-1.527, 6.164e-6
-1.526, 5.918e-6
-1.525, 5.750e-6
-1.524, 5.336e-6
-1.523, 5.543e-6
-1.522, 5.049e-6
-1.521, 4.941e-6
-1.520, 4.980e-6
-1.519, 4.625e-6
-1.518, 4.359e-6
-1.517, 4.467e-6
-1.516, 4.280e-6
-1.515, 4.004e-6
-1.514, 3.777e-6
-1.513, 3.964e-6
-1.512, 3.717e-6
-1.511, 3.412e-6
-1.510, 3.382e-6
-1.509, 3.195e-6
-1.508, 2.958e-6
-1.507, 2.997e-6
-1.506, 2.869e-6
-1.505, 2.682e-6
-1.504, 2.553e-6
-1.503, 2.682e-6
-1.502, 2.267e-6
-1.501, 2.376e-6
-1.500, 2.543e-6
-1.499, 1.912e-6
-1.498, 2.001e-6
-1.497, 1.961e-6
-1.496, 2.001e-6
-1.495, 1.823e-6
-1.494, 1.527e-6
-1.493, 1.843e-6
-1.492, 1.715e-6
-1.491, 1.290e-6
-1.490, 1.537e-6
-1.489, 1.113e-6
-1.488, 1.054e-6
-1.487, 1.103e-6
-1.486, 1.212e-6
-1.485, 9.057e-7
-1.484, 7.873e-7
-1.483, 1.004e-6
-1.482, 7.281e-7
-1.481, 5.703e-7
-1.480, 6.393e-7
-1.479, 7.182e-7
-1.478, 4.716e-7
-1.477, 4.124e-7
-1.476, 3.532e-7
-1.475, 1.657e-7
-1.474, 1.776e-8
-1.473, 3.137e-7
-1.472, -3.157e-8
-1.471, -1.105e-7
-1.470, 1.657e-7
-1.469, -2.585e-7
-1.468, -1.204e-7
-1.467, -1.302e-7
-1.466, -1.184e-8
-1.465, -2.881e-7
-1.464, -3.670e-7
-1.463, -6.117e-8
-1.462, -3.966e-7
-1.461, -2.782e-7
-1.460, -4.065e-7
-1.459, -4.065e-7
-1.458, -6.235e-7
-1.457, -3.670e-7
-1.456, -4.459e-7
-1.455, -4.953e-7
-1.454, -7.419e-7
-1.453, -6.137e-7
-1.452, -6.926e-7
-1.451, -8.208e-7
-1.450, -7.222e-7
-1.449, -8.800e-7
-1.448, -8.307e-7
-1.447, -7.222e-7
-1.446, -9.195e-7
-1.445, -9.392e-7
-1.444, -1.225e-6
-1.443, -8.208e-7
-1.442, -1.077e-6
-1.441, -1.127e-6
-1.440, -1.117e-6
-1.439, -1.294e-6
-1.438, -9.886e-7
-1.437, -1.097e-6
-1.436, -1.186e-6
-1.435, -1.137e-6
-1.434, -1.383e-6
-1.433, -1.176e-6
-1.432, -1.511e-6
-1.431, -1.462e-6
-1.430, -1.285e-6
-1.429, -1.729e-6
-1.428, -1.206e-6
-1.427, -1.462e-6
-1.426, -1.383e-6
-1.425, -1.433e-6
-1.424, -1.511e-6
-1.423, -1.245e-6
-1.422, -1.373e-6
-1.421, -1.571e-6
-1.420, -1.511e-6
-1.419, -1.689e-6
-1.418, -1.620e-6
-1.417, -1.452e-6
-1.416, -1.482e-6
-1.415, -1.679e-6
-1.414, -1.916e-6
-1.413, -1.600e-6
-1.412, -1.748e-6
-1.411, -1.738e-6
-1.410, -1.669e-6
-1.409, -1.955e-6
-1.408, -1.817e-6
-1.407, -1.788e-6
-1.406, -1.748e-6
-1.405, -1.689e-6
-1.404, -2.074e-6
-1.403, -1.669e-6
-1.402, -1.758e-6
-1.401, -1.758e-6
-1.400, -1.807e-6
-1.399, -1.867e-6
-1.398, -2.074e-6
-1.397, -1.768e-6
-1.396, -2.054e-6
-1.395, -1.906e-6
-1.394, -2.094e-6
-1.393, -1.758e-6
-1.392, -1.837e-6
-1.391, -1.985e-6
-1.390, -1.768e-6
-1.389, -2.153e-6
-1.388, -1.886e-6
-1.387, -2.064e-6
-1.386, -1.995e-6
-1.385, -1.926e-6
-1.384, -1.955e-6
-1.383, -1.778e-6
-1.382, -2.005e-6
-1.381, -2.182e-6
-1.380, -2.074e-6
-1.379, -2.172e-6
-1.378, -1.936e-6
-1.377, -1.936e-6
-1.376, -2.044e-6
-1.375, -2.182e-6
-1.374, -2.153e-6
-1.373, -2.084e-6
-1.372, -2.172e-6
-1.371, -2.172e-6
-1.370, -1.827e-6
-1.369, -2.281e-6
-1.368, -2.291e-6
-1.367, -2.182e-6
-1.366, -2.094e-6
-1.365, -2.153e-6
-1.364, -2.340e-6
-1.363, -2.064e-6
-1.362, -2.360e-6
-1.361, -2.143e-6
-1.360, -1.906e-6
-1.359, -2.212e-6
-1.358, -2.261e-6
-1.357, -2.182e-6
-1.356, -2.390e-6
-1.355, -2.202e-6
-1.354, -2.212e-6
-1.353, -2.261e-6
-1.352, -2.360e-6
-1.351, -2.251e-6
-1.350, -2.311e-6
-1.349, -2.271e-6
-1.348, -2.261e-6
-1.347, -2.261e-6
-1.346, -2.251e-6
-1.345, -2.242e-6
-1.344, -2.547e-6
-1.343, -2.192e-6
-1.342, -2.360e-6
-1.341, -2.350e-6
-1.340, -2.192e-6
-1.339, -2.360e-6
-1.338, -2.291e-6
-1.337, -2.330e-6
-1.336, -2.222e-6
-1.335, -2.320e-6
-1.334, -2.390e-6
-1.333, -2.212e-6
-1.332, -2.242e-6
-1.331, -2.577e-6
-1.330, -2.301e-6
-1.329, -2.557e-6
-1.328, -2.350e-6
-1.327, -2.429e-6
-1.326, -2.330e-6
-1.325, -2.488e-6
-1.324, -2.468e-6
-1.323, -2.360e-6
-1.322, -2.419e-6
-1.321, -2.597e-6
-1.320, -2.172e-6
-1.319, -2.666e-6
-1.318, -2.597e-6
-1.317, -2.557e-6
-1.316, -2.340e-6
-1.315, -2.459e-6
-1.314, -2.597e-6
-1.313, -2.202e-6
-1.312, -2.419e-6
-1.311, -2.567e-6
-1.310, -2.291e-6
-1.309, -2.547e-6
-1.308, -2.380e-6
-1.307, -2.528e-6
-1.306, -2.311e-6
-1.305, -2.459e-6
-1.304, -2.518e-6
-1.303, -2.380e-6
-1.302, -2.518e-6
-1.301, -2.488e-6
-1.300, -2.498e-6
-1.299, -2.646e-6
-1.298, -2.656e-6
-1.297, -2.597e-6
-1.296, -2.616e-6
-1.295, -2.439e-6
-1.294, -2.607e-6
-1.293, -2.597e-6
-1.292, -2.478e-6
-1.291, -2.528e-6
-1.290, -2.478e-6
-1.289, -2.676e-6
-1.288, -2.577e-6
-1.287, -2.409e-6
-1.286, -2.498e-6
-1.285, -2.468e-6
-1.284, -2.646e-6
-1.283, -2.498e-6
-1.282, -2.616e-6
-1.281, -2.725e-6
-1.280, -2.488e-6
-1.279, -2.676e-6
-1.278, -2.538e-6
-1.277, -2.557e-6
-1.276, -2.587e-6
-1.275, -2.686e-6
-1.274, -2.873e-6
-1.273, -2.409e-6
-1.272, -2.626e-6
-1.271, -2.735e-6
-1.270, -2.350e-6
-1.269, -2.607e-6
-1.268, -2.498e-6
-1.267, -2.626e-6
-1.266, -2.577e-6
-1.265, -2.774e-6
-1.264, -2.794e-6
-1.263, -2.646e-6
-1.262, -2.764e-6
-1.261, -2.745e-6
-1.260, -2.626e-6
-1.259, -2.686e-6
-1.258, -2.745e-6
-1.257, -2.755e-6
-1.256, -2.557e-6
-1.255, -2.715e-6
-1.254, -2.774e-6
-1.253, -2.607e-6
-1.252, -2.755e-6
-1.251, -2.715e-6
-1.250, -2.557e-6
-1.249, -2.784e-6
-1.248, -2.764e-6
-1.247, -2.873e-6
-1.246, -2.794e-6
-1.245, -2.597e-6
-1.244, -2.863e-6
-1.243, -2.459e-6
-1.242, -2.863e-6
-1.241, -2.695e-6
-1.240, -2.587e-6
-1.239, -2.843e-6
-1.238, -2.784e-6
-1.237, -2.695e-6
-1.236, -2.893e-6
-1.235, -2.784e-6
-1.234, -2.893e-6
-1.233, -2.607e-6
-1.232, -2.794e-6
-1.231, -2.814e-6
-1.230, -2.725e-6
-1.229, -3.090e-6
-1.228, -2.853e-6
-1.227, -2.735e-6
-1.226, -2.853e-6
-1.225, -2.755e-6
-1.224, -2.952e-6
-1.223, -2.912e-6
-1.222, -2.932e-6
-1.221, -2.853e-6
-1.220, -2.695e-6
-1.219, -3.021e-6
-1.218, -2.883e-6
-1.217, -2.922e-6
-1.216, -3.041e-6
-1.215, -2.784e-6
-1.214, -3.090e-6
-1.213, -2.972e-6
-1.212, -2.824e-6
-1.211, -2.883e-6
-1.210, -2.834e-6
-1.209, -3.100e-6
-1.208, -3.021e-6
-1.207, -2.922e-6
-1.206, -2.972e-6
-1.205, -2.794e-6
-1.204, -3.051e-6
-1.203, -2.991e-6
-1.202, -3.110e-6
-1.201, -3.011e-6
-1.200, -2.952e-6
-1.199, -3.208e-6
-1.198, -3.031e-6
-1.197, -3.051e-6
-1.196, -2.893e-6
-1.195, -3.060e-6
-1.194, -3.169e-6
-1.193, -3.277e-6
-1.192, -2.981e-6
-1.191, -3.169e-6
-1.190, -2.873e-6
-1.189, -3.149e-6
-1.188, -3.129e-6
-1.187, -3.169e-6
-1.186, -3.070e-6
-1.185, -3.011e-6
-1.184, -3.317e-6
-1.183, -3.080e-6
-1.182, -3.248e-6
-1.181, -3.110e-6
-1.180, -2.972e-6
-1.179, -3.129e-6
-1.178, -3.139e-6
-1.177, -3.189e-6
-1.176, -3.129e-6
-1.175, -3.070e-6
-1.174, -3.416e-6
-1.173, -3.248e-6
-1.172, -3.070e-6
-1.171, -3.277e-6
-1.170, -3.011e-6
-1.169, -3.149e-6
-1.168, -3.179e-6
-1.167, -3.149e-6
-1.166, -3.268e-6
-1.165, -3.189e-6
-1.164, -3.356e-6
-1.163, -3.051e-6
-1.162, -3.347e-6
-1.161, -3.179e-6
-1.160, -3.090e-6
-1.159, -3.425e-6
-1.158, -3.090e-6
-1.157, -3.386e-6
-1.156, -3.396e-6
-1.155, -3.139e-6
-1.154, -3.445e-6
-1.153, -3.129e-6
-1.152, -3.159e-6
-1.151, -3.277e-6
-1.150, -3.120e-6
-1.149, -3.337e-6
-1.148, -3.297e-6
-1.147, -3.297e-6
-1.146, -3.218e-6
-1.145, -3.277e-6
-1.144, -3.327e-6
-1.143, -3.356e-6
-1.142, -3.327e-6
-1.141, -3.189e-6
-1.140, -3.287e-6
-1.139, -3.396e-6
-1.138, -3.287e-6
-1.137, -3.297e-6
-1.136, -3.435e-6
-1.135, -3.218e-6
-1.134, -3.337e-6
-1.133, -3.100e-6
-1.132, -3.337e-6
-1.131, -3.110e-6
-1.130, -3.218e-6
-1.129, -3.524e-6
-1.128, -3.248e-6
-1.127, -3.208e-6
-1.126, -3.347e-6
-1.125, -3.366e-6
-1.124, -3.514e-6
-1.123, -3.337e-6
-1.122, -3.258e-6
-1.121, -3.317e-6
-1.120, -3.347e-6
-1.119, -3.475e-6
-1.118, -3.347e-6
-1.117, -3.277e-6
-1.116, -3.366e-6
-1.115, -3.396e-6
-1.114, -3.406e-6
-1.113, -3.179e-6
-1.112, -3.504e-6
-1.111, -3.425e-6
-1.110, -3.307e-6
-1.109, -3.544e-6
-1.108, -3.238e-6
-1.107, -3.406e-6
-1.106, -3.386e-6
-1.105, -3.406e-6
-1.104, -3.485e-6
-1.103, -3.366e-6
-1.102, -3.416e-6
-1.101, -3.583e-6
-1.100, -3.416e-6
-1.099, -3.613e-6
-1.098, -3.366e-6
-1.097, -3.524e-6
-1.096, -3.465e-6
-1.095, -3.376e-6
-1.094, -3.485e-6
-1.093, -3.652e-6
-1.092, -3.425e-6
-1.091, -3.435e-6
-1.090, -3.268e-6
-1.089, -3.564e-6
-1.088, -3.406e-6
-1.087, -3.534e-6
-1.086, -3.376e-6
-1.085, -3.583e-6
-1.084, -3.514e-6
-1.083, -3.495e-6
-1.082, -3.751e-6
-1.081, -3.662e-6
-1.080, -3.504e-6
-1.079, -3.643e-6
-1.078, -3.633e-6
-1.077, -3.593e-6
-1.076, -3.573e-6
-1.075, -3.534e-6
-1.074, -3.781e-6
-1.073, -3.435e-6
-1.072, -3.514e-6
-1.071, -3.396e-6
-1.070, -3.307e-6
-1.069, -3.613e-6
-1.068, -3.455e-6
-1.067, -3.643e-6
-1.066, -3.554e-6
-1.065, -3.504e-6
-1.064, -3.662e-6
-1.063, -3.495e-6
-1.062, -3.643e-6
-1.061, -3.554e-6
-1.060, -3.475e-6
-1.059, -3.721e-6
-1.058, -3.593e-6
-1.057, -3.514e-6
-1.056, -3.652e-6
-1.055, -3.652e-6
-1.054, -3.603e-6
-1.053, -3.573e-6
-1.052, -3.564e-6
-1.051, -3.455e-6
-1.050, -3.465e-6
-1.049, -3.869e-6
-1.048, -3.425e-6
-1.047, -3.712e-6
-1.046, -3.554e-6
-1.045, -3.721e-6
-1.044, -3.672e-6
-1.043, -3.603e-6
-1.042, -3.830e-6
-1.041, -3.712e-6
-1.040, -3.445e-6
-1.039, -3.800e-6
-1.038, -3.564e-6
-1.037, -3.692e-6
-1.036, -3.702e-6
-1.035, -3.790e-6
-1.034, -3.840e-6
-1.033, -3.662e-6
-1.032, -3.712e-6
-1.031, -3.820e-6
-1.030, -3.593e-6
-1.029, -3.929e-6
-1.028, -3.741e-6
-1.027, -3.850e-6
-1.026, -3.702e-6
-1.025, -3.652e-6
-1.024, -3.840e-6
-1.023, -3.731e-6
-1.022, -3.830e-6
-1.021, -3.869e-6
-1.020, -3.613e-6
-1.019, -3.899e-6
-1.018, -3.820e-6
-1.017, -3.761e-6
-1.016, -3.761e-6
-1.015, -3.800e-6
-1.014, -3.938e-6
-1.013, -3.672e-6
-1.012, -3.820e-6
-1.011, -3.781e-6
-1.010, -3.643e-6
-1.009, -3.929e-6
-1.008, -3.800e-6
-1.007, -3.810e-6
-1.006, -3.790e-6
-1.005, -3.712e-6
-1.004, -4.116e-6
-1.003, -3.790e-6
-1.002, -3.938e-6
-1.001, -3.860e-6
