Sept. 12, 2024   22:05:56
Cyclic Voltammetry
File: c:/users/guazh/data/20240903_batch_252_500/2024-09-03-exp337\exp337-2024-09-12t21_49_05-h2koh\exp337_cv_sr_700mvs_efin_-1700mv.bin
Data Source:  Experiment
Instrument Model:  CHI760E
Header: CV ran at 700 mVs
Note: 

Init E (V) = -1
High E (V) = -1
Low E (V) = -1.7
Final E (V) = -1
Init P/N = N
Scan Rate (V/s) = 0.7
Segment = 3
Sample Interval (V) = 0.001
Quiet Time (sec) = 2
Sensitivity (A/V) = 0.01
Comp R (ohm) = 1.9

Results:

Channel 1:
Segment 1:

Segment 2:
Ep = -1.207V
ip = -1.708e-5A
Ah = -1.135e-6C

Segment 3:

Potential/V, Current/A

-1.000, 1.557e-5
-1.001, 3.099e-5
-1.002, 3.099e-5
-1.003, 3.407e-5
-1.004, 3.407e-5
-1.005, 3.715e-5
-1.006, 3.715e-5
-1.007, 3.715e-5
-1.008, 3.715e-5
-1.009, 3.715e-5
-1.010, 3.715e-5
-1.011, 4.024e-5
-1.012, 4.024e-5
-1.013, 4.024e-5
-1.014, 4.024e-5
-1.015, 4.024e-5
-1.016, 4.024e-5
-1.017, 4.024e-5
-1.018, 4.024e-5
-1.019, 4.024e-5
-1.020, 4.024e-5
-1.021, 4.024e-5
-1.022, 4.332e-5
-1.023, 4.332e-5
-1.024, 4.332e-5
-1.025, 4.332e-5
-1.026, 4.332e-5
-1.027, 4.332e-5
-1.028, 4.332e-5
-1.029, 4.332e-5
-1.030, 4.332e-5
-1.031, 4.332e-5
-1.032, 4.332e-5
-1.033, 4.332e-5
-1.034, 4.332e-5
-1.035, 4.332e-5
-1.036, 4.640e-5
-1.037, 4.640e-5
-1.038, 4.640e-5
-1.039, 4.640e-5
-1.040, 4.640e-5
-1.041, 4.640e-5
-1.042, 4.640e-5
-1.043, 4.640e-5
-1.044, 4.640e-5
-1.045, 4.640e-5
-1.046, 4.640e-5
-1.047, 4.640e-5
-1.048, 4.640e-5
-1.049, 4.949e-5
-1.050, 4.640e-5
-1.051, 4.640e-5
-1.052, 4.949e-5
-1.053, 4.949e-5
-1.054, 4.640e-5
-1.055, 4.949e-5
-1.056, 4.640e-5
-1.057, 4.949e-5
-1.058, 4.949e-5
-1.059, 4.949e-5
-1.060, 4.949e-5
-1.061, 4.949e-5
-1.062, 4.949e-5
-1.063, 4.949e-5
-1.064, 4.949e-5
-1.065, 4.949e-5
-1.066, 4.949e-5
-1.067, 4.949e-5
-1.068, 4.949e-5
-1.069, 4.949e-5
-1.070, 4.949e-5
-1.071, 4.949e-5
-1.072, 4.949e-5
-1.073, 4.949e-5
-1.074, 4.949e-5
-1.075, 4.949e-5
-1.076, 4.949e-5
-1.077, 4.949e-5
-1.078, 4.949e-5
-1.079, 4.949e-5
-1.080, 4.949e-5
-1.081, 4.949e-5
-1.082, 5.257e-5
-1.083, 4.949e-5
-1.084, 4.949e-5
-1.085, 4.949e-5
-1.086, 4.949e-5
-1.087, 5.257e-5
-1.088, 4.949e-5
-1.089, 5.257e-5
-1.090, 4.949e-5
-1.091, 4.949e-5
-1.092, 5.257e-5
-1.093, 5.257e-5
-1.094, 5.257e-5
-1.095, 5.257e-5
-1.096, 5.257e-5
-1.097, 4.949e-5
-1.098, 5.257e-5
-1.099, 5.257e-5
-1.100, 5.257e-5
-1.101, 4.949e-5
-1.102, 4.949e-5
-1.103, 5.257e-5
-1.104, 5.257e-5
-1.105, 5.257e-5
-1.106, 5.257e-5
-1.107, 5.257e-5
-1.108, 5.257e-5
-1.109, 5.257e-5
-1.110, 5.257e-5
-1.111, 5.257e-5
-1.112, 5.257e-5
-1.113, 5.257e-5
-1.114, 5.257e-5
-1.115, 5.257e-5
-1.116, 5.257e-5
-1.117, 5.257e-5
-1.118, 5.257e-5
-1.119, 5.257e-5
-1.120, 5.257e-5
-1.121, 5.257e-5
-1.122, 5.257e-5
-1.123, 5.257e-5
-1.124, 5.257e-5
-1.125, 5.257e-5
-1.126, 5.257e-5
-1.127, 5.257e-5
-1.128, 5.257e-5
-1.129, 5.257e-5
-1.130, 5.257e-5
-1.131, 5.257e-5
-1.132, 5.257e-5
-1.133, 5.257e-5
-1.134, 5.257e-5
-1.135, 5.565e-5
-1.136, 5.257e-5
-1.137, 5.257e-5
-1.138, 5.257e-5
-1.139, 5.257e-5
-1.140, 5.565e-5
-1.141, 5.565e-5
-1.142, 5.565e-5
-1.143, 5.565e-5
-1.144, 5.565e-5
-1.145, 5.565e-5
-1.146, 5.565e-5
-1.147, 5.565e-5
-1.148, 5.565e-5
-1.149, 5.565e-5
-1.150, 5.565e-5
-1.151, 5.565e-5
-1.152, 5.565e-5
-1.153, 5.565e-5
-1.154, 5.565e-5
-1.155, 5.565e-5
-1.156, 5.873e-5
-1.157, 5.565e-5
-1.158, 5.565e-5
-1.159, 5.873e-5
-1.160, 5.873e-5
-1.161, 5.873e-5
-1.162, 5.873e-5
-1.163, 5.873e-5
-1.164, 5.873e-5
-1.165, 5.873e-5
-1.166, 5.873e-5
-1.167, 5.873e-5
-1.168, 5.873e-5
-1.169, 5.873e-5
-1.170, 5.873e-5
-1.171, 5.873e-5
-1.172, 5.873e-5
-1.173, 5.873e-5
-1.174, 5.873e-5
-1.175, 6.182e-5
-1.176, 5.873e-5
-1.177, 6.182e-5
-1.178, 6.182e-5
-1.179, 6.182e-5
-1.180, 6.182e-5
-1.181, 6.182e-5
-1.182, 6.182e-5
-1.183, 6.182e-5
-1.184, 6.182e-5
-1.185, 6.182e-5
-1.186, 6.182e-5
-1.187, 6.182e-5
-1.188, 6.490e-5
-1.189, 6.490e-5
-1.190, 6.182e-5
-1.191, 6.490e-5
-1.192, 6.490e-5
-1.193, 6.490e-5
-1.194, 6.490e-5
-1.195, 6.490e-5
-1.196, 6.490e-5
-1.197, 6.490e-5
-1.198, 6.490e-5
-1.199, 6.490e-5
-1.200, 6.490e-5
-1.201, 6.798e-5
-1.202, 6.490e-5
-1.203, 6.490e-5
-1.204, 6.798e-5
-1.205, 6.798e-5
-1.206, 6.798e-5
-1.207, 6.798e-5
-1.208, 6.490e-5
-1.209, 6.798e-5
-1.210, 6.798e-5
-1.211, 6.798e-5
-1.212, 6.798e-5
-1.213, 6.798e-5
-1.214, 6.798e-5
-1.215, 6.798e-5
-1.216, 6.798e-5
-1.217, 6.798e-5
-1.218, 6.798e-5
-1.219, 6.798e-5
-1.220, 7.107e-5
-1.221, 7.107e-5
-1.222, 7.107e-5
-1.223, 7.107e-5
-1.224, 7.107e-5
-1.225, 7.107e-5
-1.226, 7.107e-5
-1.227, 7.107e-5
-1.228, 7.107e-5
-1.229, 7.107e-5
-1.230, 7.107e-5
-1.231, 7.107e-5
-1.232, 7.107e-5
-1.233, 7.107e-5
-1.234, 7.415e-5
-1.235, 7.107e-5
-1.236, 7.415e-5
-1.237, 7.107e-5
-1.238, 7.107e-5
-1.239, 7.415e-5
-1.240, 7.415e-5
-1.241, 7.415e-5
-1.242, 7.415e-5
-1.243, 7.415e-5
-1.244, 7.415e-5
-1.245, 7.415e-5
-1.246, 7.415e-5
-1.247, 7.415e-5
-1.248, 7.415e-5
-1.249, 7.415e-5
-1.250, 7.415e-5
-1.251, 7.415e-5
-1.252, 7.415e-5
-1.253, 7.415e-5
-1.254, 7.415e-5
-1.255, 7.415e-5
-1.256, 7.415e-5
-1.257, 7.415e-5
-1.258, 7.415e-5
-1.259, 7.415e-5
-1.260, 7.415e-5
-1.261, 7.415e-5
-1.262, 7.415e-5
-1.263, 7.415e-5
-1.264, 7.415e-5
-1.265, 7.723e-5
-1.266, 7.415e-5
-1.267, 7.415e-5
-1.268, 7.415e-5
-1.269, 7.415e-5
-1.270, 7.723e-5
-1.271, 7.723e-5
-1.272, 7.723e-5
-1.273, 7.415e-5
-1.274, 7.723e-5
-1.275, 7.415e-5
-1.276, 7.723e-5
-1.277, 7.723e-5
-1.278, 7.723e-5
-1.279, 7.723e-5
-1.280, 7.723e-5
-1.281, 7.723e-5
-1.282, 7.723e-5
-1.283, 7.723e-5
-1.284, 7.723e-5
-1.285, 7.723e-5
-1.286, 7.723e-5
-1.287, 7.723e-5
-1.288, 7.723e-5
-1.289, 7.723e-5
-1.290, 7.723e-5
-1.291, 7.723e-5
-1.292, 8.032e-5
-1.293, 7.723e-5
-1.294, 7.723e-5
-1.295, 7.723e-5
-1.296, 7.723e-5
-1.297, 7.723e-5
-1.298, 7.723e-5
-1.299, 7.723e-5
-1.300, 8.032e-5
-1.301, 8.032e-5
-1.302, 7.723e-5
-1.303, 8.032e-5
-1.304, 7.723e-5
-1.305, 8.032e-5
-1.306, 8.032e-5
-1.307, 8.032e-5
-1.308, 8.032e-5
-1.309, 8.032e-5
-1.310, 8.032e-5
-1.311, 8.032e-5
-1.312, 8.032e-5
-1.313, 8.032e-5
-1.314, 8.032e-5
-1.315, 8.032e-5
-1.316, 8.032e-5
-1.317, 8.340e-5
-1.318, 8.032e-5
-1.319, 8.340e-5
-1.320, 8.340e-5
-1.321, 8.340e-5
-1.322, 8.032e-5
-1.323, 8.340e-5
-1.324, 8.340e-5
-1.325, 8.340e-5
-1.326, 8.340e-5
-1.327, 8.340e-5
-1.328, 8.340e-5
-1.329, 8.340e-5
-1.330, 8.340e-5
-1.331, 8.340e-5
-1.332, 8.340e-5
-1.333, 8.340e-5
-1.334, 8.340e-5
-1.335, 8.340e-5
-1.336, 8.340e-5
-1.337, 8.340e-5
-1.338, 8.340e-5
-1.339, 8.340e-5
-1.340, 8.648e-5
-1.341, 8.648e-5
-1.342, 8.648e-5
-1.343, 8.648e-5
-1.344, 8.648e-5
-1.345, 8.648e-5
-1.346, 8.648e-5
-1.347, 8.648e-5
-1.348, 8.648e-5
-1.349, 8.648e-5
-1.350, 8.648e-5
-1.351, 8.648e-5
-1.352, 8.648e-5
-1.353, 8.957e-5
-1.354, 8.957e-5
-1.355, 8.957e-5
-1.356, 8.957e-5
-1.357, 8.957e-5
-1.358, 8.957e-5
-1.359, 8.957e-5
-1.360, 8.957e-5
-1.361, 8.957e-5
-1.362, 8.957e-5
-1.363, 8.957e-5
-1.364, 9.265e-5
-1.365, 9.265e-5
-1.366, 9.265e-5
-1.367, 9.265e-5
-1.368, 9.265e-5
-1.369, 9.265e-5
-1.370, 9.573e-5
-1.371, 9.573e-5
-1.372, 9.573e-5
-1.373, 9.573e-5
-1.374, 9.573e-5
-1.375, 9.573e-5
-1.376, 9.573e-5
-1.377, 9.573e-5
-1.378, 9.573e-5
-1.379, 9.882e-5
-1.380, 9.882e-5
-1.381, 9.882e-5
-1.382, 9.882e-5
-1.383, 9.882e-5
-1.384, 1.019e-4
-1.385, 9.882e-5
-1.386, 1.019e-4
-1.387, 1.019e-4
-1.388, 1.019e-4
-1.389, 1.050e-4
-1.390, 1.019e-4
-1.391, 1.050e-4
-1.392, 1.050e-4
-1.393, 1.050e-4
-1.394, 1.050e-4
-1.395, 1.050e-4
-1.396, 1.081e-4
-1.397, 1.081e-4
-1.398, 1.081e-4
-1.399, 1.081e-4
-1.400, 1.081e-4
-1.401, 1.111e-4
-1.402, 1.111e-4
-1.403, 1.111e-4
-1.404, 1.111e-4
-1.405, 1.111e-4
-1.406, 1.111e-4
-1.407, 1.142e-4
-1.408, 1.142e-4
-1.409, 1.142e-4
-1.410, 1.142e-4
-1.411, 1.173e-4
-1.412, 1.173e-4
-1.413, 1.173e-4
-1.414, 1.173e-4
-1.415, 1.173e-4
-1.416, 1.173e-4
-1.417, 1.204e-4
-1.418, 1.204e-4
-1.419, 1.204e-4
-1.420, 1.204e-4
-1.421, 1.204e-4
-1.422, 1.235e-4
-1.423, 1.235e-4
-1.424, 1.235e-4
-1.425, 1.266e-4
-1.426, 1.235e-4
-1.427, 1.266e-4
-1.428, 1.235e-4
-1.429, 1.266e-4
-1.430, 1.266e-4
-1.431, 1.266e-4
-1.432, 1.266e-4
-1.433, 1.296e-4
-1.434, 1.296e-4
-1.435, 1.296e-4
-1.436, 1.296e-4
-1.437, 1.327e-4
-1.438, 1.327e-4
-1.439, 1.327e-4
-1.440, 1.327e-4
-1.441, 1.327e-4
-1.442, 1.358e-4
-1.443, 1.358e-4
-1.444, 1.358e-4
-1.445, 1.389e-4
-1.446, 1.389e-4
-1.447, 1.389e-4
-1.448, 1.389e-4
-1.449, 1.420e-4
-1.450, 1.420e-4
-1.451, 1.420e-4
-1.452, 1.451e-4
-1.453, 1.451e-4
-1.454, 1.451e-4
-1.455, 1.481e-4
-1.456, 1.481e-4
-1.457, 1.481e-4
-1.458, 1.512e-4
-1.459, 1.512e-4
-1.460, 1.543e-4
-1.461, 1.543e-4
-1.462, 1.574e-4
-1.463, 1.574e-4
-1.464, 1.605e-4
-1.465, 1.605e-4
-1.466, 1.605e-4
-1.467, 1.636e-4
-1.468, 1.666e-4
-1.469, 1.666e-4
-1.470, 1.697e-4
-1.471, 1.697e-4
-1.472, 1.728e-4
-1.473, 1.759e-4
-1.474, 1.759e-4
-1.475, 1.790e-4
-1.476, 1.821e-4
-1.477, 1.821e-4
-1.478, 1.851e-4
-1.479, 1.882e-4
-1.480, 1.913e-4
-1.481, 1.944e-4
-1.482, 1.975e-4
-1.483, 1.975e-4
-1.484, 2.036e-4
-1.485, 2.036e-4
-1.486, 2.067e-4
-1.487, 2.098e-4
-1.488, 2.129e-4
-1.489, 2.160e-4
-1.490, 2.221e-4
-1.491, 2.252e-4
-1.492, 2.283e-4
-1.493, 2.314e-4
-1.494, 2.345e-4
-1.495, 2.376e-4
-1.496, 2.437e-4
-1.497, 2.468e-4
-1.498, 2.499e-4
-1.499, 2.561e-4
-1.500, 2.591e-4
-1.501, 2.653e-4
-1.502, 2.684e-4
-1.503, 2.746e-4
-1.504, 2.807e-4
-1.505, 2.869e-4
-1.506, 2.900e-4
-1.507, 2.961e-4
-1.508, 3.023e-4
-1.509, 3.054e-4
-1.510, 3.146e-4
-1.511, 3.208e-4
-1.512, 3.270e-4
-1.513, 3.331e-4
-1.514, 3.393e-4
-1.515, 3.455e-4
-1.516, 3.516e-4
-1.517, 3.609e-4
-1.518, 3.670e-4
-1.519, 3.763e-4
-1.520, 3.825e-4
-1.521, 3.886e-4
-1.522, 3.979e-4
-1.523, 4.040e-4
-1.524, 4.133e-4
-1.525, 4.225e-4
-1.526, 4.287e-4
-1.527, 4.380e-4
-1.528, 4.472e-4
-1.529, 4.565e-4
-1.530, 4.657e-4
-1.531, 4.750e-4
-1.532, 4.842e-4
-1.533, 4.935e-4
-1.534, 5.027e-4
-1.535, 5.120e-4
-1.536, 5.243e-4
-1.537, 5.335e-4
-1.538, 5.459e-4
-1.539, 5.551e-4
-1.540, 5.674e-4
-1.541, 5.767e-4
-1.542, 5.890e-4
-1.543, 6.014e-4
-1.544, 6.106e-4
-1.545, 6.229e-4
-1.546, 6.353e-4
-1.547, 6.476e-4
-1.548, 6.599e-4
-1.549, 6.723e-4
-1.550, 6.846e-4
-1.551, 7.000e-4
-1.552, 7.124e-4
-1.553, 7.247e-4
-1.554, 7.370e-4
-1.555, 7.524e-4
-1.556, 7.648e-4
-1.557, 7.802e-4
-1.558, 7.925e-4
-1.559, 8.079e-4
-1.560, 8.233e-4
-1.561, 8.388e-4
-1.562, 8.542e-4
-1.563, 8.696e-4
-1.564, 8.850e-4
-1.565, 9.004e-4
-1.566, 9.158e-4
-1.567, 9.343e-4
-1.568, 9.467e-4
-1.569, 9.652e-4
-1.570, 9.837e-4
-1.571, 9.991e-4
-1.572, 1.018e-3
-1.573, 1.033e-3
-1.574, 1.051e-3
-1.575, 1.070e-3
-1.576, 1.088e-3
-1.577, 1.107e-3
-1.578, 1.125e-3
-1.579, 1.141e-3
-1.580, 1.159e-3
-1.581, 1.178e-3
-1.582, 1.199e-3
-1.583, 1.218e-3
-1.584, 1.236e-3
-1.585, 1.258e-3
-1.586, 1.280e-3
-1.587, 1.301e-3
-1.588, 1.320e-3
-1.589, 1.341e-3
-1.590, 1.360e-3
-1.591, 1.381e-3
-1.592, 1.403e-3
-1.593, 1.425e-3
-1.594, 1.446e-3
-1.595, 1.468e-3
-1.596, 1.492e-3
-1.597, 1.514e-3
-1.598, 1.536e-3
-1.599, 1.560e-3
-1.600, 1.582e-3
-1.601, 1.603e-3
-1.602, 1.628e-3
-1.603, 1.650e-3
-1.604, 1.674e-3
-1.605, 1.699e-3
-1.606, 1.721e-3
-1.607, 1.748e-3
-1.608, 1.770e-3
-1.609, 1.798e-3
-1.610, 1.819e-3
-1.611, 1.847e-3
-1.612, 1.872e-3
-1.613, 1.896e-3
-1.614, 1.918e-3
-1.615, 1.946e-3
-1.616, 1.970e-3
-1.617, 1.998e-3
-1.618, 2.023e-3
-1.619, 2.050e-3
-1.620, 2.078e-3
-1.621, 2.103e-3
-1.622, 2.131e-3
-1.623, 2.158e-3
-1.624, 2.183e-3
-1.625, 2.211e-3
-1.626, 2.235e-3
-1.627, 2.263e-3
-1.628, 2.291e-3
-1.629, 2.319e-3
-1.630, 2.349e-3
-1.631, 2.377e-3
-1.632, 2.405e-3
-1.633, 2.433e-3
-1.634, 2.464e-3
-1.635, 2.491e-3
-1.636, 2.519e-3
-1.637, 2.547e-3
-1.638, 2.575e-3
-1.639, 2.605e-3
-1.640, 2.633e-3
-1.641, 2.664e-3
-1.642, 2.695e-3
-1.643, 2.726e-3
-1.644, 2.756e-3
-1.645, 2.787e-3
-1.646, 2.818e-3
-1.647, 2.846e-3
-1.648, 2.877e-3
-1.649, 2.904e-3
-1.650, 2.935e-3
-1.651, 2.966e-3
-1.652, 3.000e-3
-1.653, 3.031e-3
-1.654, 3.065e-3
-1.655, 3.099e-3
-1.656, 3.133e-3
-1.657, 3.163e-3
-1.658, 3.194e-3
-1.659, 3.225e-3
-1.660, 3.253e-3
-1.661, 3.287e-3
-1.662, 3.318e-3
-1.663, 3.348e-3
-1.664, 3.382e-3
-1.665, 3.419e-3
-1.666, 3.453e-3
-1.667, 3.487e-3
-1.668, 3.518e-3
-1.669, 3.549e-3
-1.670, 3.583e-3
-1.671, 3.614e-3
-1.672, 3.647e-3
-1.673, 3.678e-3
-1.674, 3.712e-3
-1.675, 3.746e-3
-1.676, 3.783e-3
-1.677, 3.817e-3
-1.678, 3.854e-3
-1.679, 3.891e-3
-1.680, 3.925e-3
-1.681, 3.962e-3
-1.682, 3.993e-3
-1.683, 4.024e-3
-1.684, 4.058e-3
-1.685, 4.091e-3
-1.686, 4.128e-3
-1.687, 4.165e-3
-1.688, 4.209e-3
-1.689, 4.249e-3
-1.690, 4.286e-3
-1.691, 4.323e-3
-1.692, 4.357e-3
-1.693, 4.387e-3
-1.694, 4.418e-3
-1.695, 4.452e-3
-1.696, 4.486e-3
-1.697, 4.526e-3
-1.698, 4.563e-3
-1.699, 4.603e-3
-1.700, 4.609e-3
-1.699, 4.569e-3
-1.698, 4.526e-3
-1.697, 4.480e-3
-1.696, 4.437e-3
-1.695, 4.391e-3
-1.694, 4.347e-3
-1.693, 4.301e-3
-1.692, 4.258e-3
-1.691, 4.215e-3
-1.690, 4.175e-3
-1.689, 4.135e-3
-1.688, 4.098e-3
-1.687, 4.058e-3
-1.686, 4.021e-3
-1.685, 3.977e-3
-1.684, 3.934e-3
-1.683, 3.894e-3
-1.682, 3.851e-3
-1.681, 3.808e-3
-1.680, 3.771e-3
-1.679, 3.734e-3
-1.678, 3.697e-3
-1.677, 3.663e-3
-1.676, 3.629e-3
-1.675, 3.589e-3
-1.674, 3.552e-3
-1.673, 3.512e-3
-1.672, 3.472e-3
-1.671, 3.432e-3
-1.670, 3.395e-3
-1.669, 3.358e-3
-1.668, 3.324e-3
-1.667, 3.290e-3
-1.666, 3.253e-3
-1.665, 3.219e-3
-1.664, 3.185e-3
-1.663, 3.151e-3
-1.662, 3.114e-3
-1.661, 3.077e-3
-1.660, 3.043e-3
-1.659, 3.006e-3
-1.658, 2.972e-3
-1.657, 2.935e-3
-1.656, 2.904e-3
-1.655, 2.874e-3
-1.654, 2.840e-3
-1.653, 2.812e-3
-1.652, 2.781e-3
-1.651, 2.747e-3
-1.650, 2.716e-3
-1.649, 2.682e-3
-1.648, 2.649e-3
-1.647, 2.615e-3
-1.646, 2.587e-3
-1.645, 2.556e-3
-1.644, 2.528e-3
-1.643, 2.501e-3
-1.642, 2.473e-3
-1.641, 2.442e-3
-1.640, 2.414e-3
-1.639, 2.380e-3
-1.638, 2.349e-3
-1.637, 2.319e-3
-1.636, 2.291e-3
-1.635, 2.260e-3
-1.634, 2.235e-3
-1.633, 2.208e-3
-1.632, 2.180e-3
-1.631, 2.155e-3
-1.630, 2.128e-3
-1.629, 2.100e-3
-1.628, 2.072e-3
-1.627, 2.047e-3
-1.626, 2.020e-3
-1.625, 1.992e-3
-1.624, 1.967e-3
-1.623, 1.943e-3
-1.622, 1.918e-3
-1.621, 1.890e-3
-1.620, 1.869e-3
-1.619, 1.844e-3
-1.618, 1.819e-3
-1.617, 1.795e-3
-1.616, 1.770e-3
-1.615, 1.745e-3
-1.614, 1.721e-3
-1.613, 1.699e-3
-1.612, 1.674e-3
-1.611, 1.653e-3
-1.610, 1.631e-3
-1.609, 1.610e-3
-1.608, 1.588e-3
-1.607, 1.566e-3
-1.606, 1.545e-3
-1.605, 1.520e-3
-1.604, 1.499e-3
-1.603, 1.477e-3
-1.602, 1.455e-3
-1.601, 1.437e-3
-1.600, 1.415e-3
-1.599, 1.397e-3
-1.598, 1.375e-3
-1.597, 1.357e-3
-1.596, 1.335e-3
-1.595, 1.317e-3
-1.594, 1.298e-3
-1.593, 1.277e-3
-1.592, 1.258e-3
-1.591, 1.236e-3
-1.590, 1.221e-3
-1.589, 1.203e-3
-1.588, 1.187e-3
-1.587, 1.169e-3
-1.586, 1.150e-3
-1.585, 1.132e-3
-1.584, 1.116e-3
-1.583, 1.098e-3
-1.582, 1.079e-3
-1.581, 1.064e-3
-1.580, 1.045e-3
-1.579, 1.030e-3
-1.578, 1.014e-3
-1.577, 9.991e-4
-1.576, 9.837e-4
-1.575, 9.683e-4
-1.574, 9.528e-4
-1.573, 9.374e-4
-1.572, 9.220e-4
-1.571, 9.066e-4
-1.570, 8.912e-4
-1.569, 8.758e-4
-1.568, 8.603e-4
-1.567, 8.480e-4
-1.566, 8.326e-4
-1.565, 8.203e-4
-1.564, 8.048e-4
-1.563, 7.925e-4
-1.562, 7.771e-4
-1.561, 7.648e-4
-1.560, 7.524e-4
-1.559, 7.401e-4
-1.558, 7.278e-4
-1.557, 7.124e-4
-1.556, 7.000e-4
-1.555, 6.877e-4
-1.554, 6.754e-4
-1.553, 6.630e-4
-1.552, 6.538e-4
-1.551, 6.414e-4
-1.550, 6.291e-4
-1.549, 6.199e-4
-1.548, 6.075e-4
-1.547, 5.952e-4
-1.546, 5.859e-4
-1.545, 5.767e-4
-1.544, 5.644e-4
-1.543, 5.551e-4
-1.542, 5.428e-4
-1.541, 5.335e-4
-1.540, 5.243e-4
-1.539, 5.120e-4
-1.538, 5.058e-4
-1.537, 4.935e-4
-1.536, 4.873e-4
-1.535, 4.750e-4
-1.534, 4.657e-4
-1.533, 4.565e-4
-1.532, 4.503e-4
-1.531, 4.410e-4
-1.530, 4.318e-4
-1.529, 4.225e-4
-1.528, 4.133e-4
-1.527, 4.071e-4
-1.526, 3.979e-4
-1.525, 3.917e-4
-1.524, 3.825e-4
-1.523, 3.763e-4
-1.522, 3.670e-4
-1.521, 3.609e-4
-1.520, 3.516e-4
-1.519, 3.455e-4
-1.518, 3.393e-4
-1.517, 3.331e-4
-1.516, 3.239e-4
-1.515, 3.177e-4
-1.514, 3.115e-4
-1.513, 3.054e-4
-1.512, 2.992e-4
-1.511, 2.931e-4
-1.510, 2.869e-4
-1.509, 2.807e-4
-1.508, 2.746e-4
-1.507, 2.684e-4
-1.506, 2.622e-4
-1.505, 2.561e-4
-1.504, 2.499e-4
-1.503, 2.437e-4
-1.502, 2.406e-4
-1.501, 2.345e-4
-1.500, 2.314e-4
-1.499, 2.252e-4
-1.498, 2.191e-4
-1.497, 2.160e-4
-1.496, 2.098e-4
-1.495, 2.067e-4
-1.494, 2.006e-4
-1.493, 1.975e-4
-1.492, 1.913e-4
-1.491, 1.851e-4
-1.490, 1.821e-4
-1.489, 1.790e-4
-1.488, 1.759e-4
-1.487, 1.697e-4
-1.486, 1.666e-4
-1.485, 1.636e-4
-1.484, 1.605e-4
-1.483, 1.543e-4
-1.482, 1.512e-4
-1.481, 1.481e-4
-1.480, 1.451e-4
-1.479, 1.420e-4
-1.478, 1.358e-4
-1.477, 1.327e-4
-1.476, 1.296e-4
-1.475, 1.266e-4
-1.474, 1.235e-4
-1.473, 1.235e-4
-1.472, 1.173e-4
-1.471, 1.142e-4
-1.470, 1.111e-4
-1.469, 1.081e-4
-1.468, 1.050e-4
-1.467, 1.050e-4
-1.466, 1.019e-4
-1.465, 9.882e-5
-1.464, 9.573e-5
-1.463, 9.265e-5
-1.462, 8.957e-5
-1.461, 8.957e-5
-1.460, 8.648e-5
-1.459, 8.340e-5
-1.458, 8.340e-5
-1.457, 8.032e-5
-1.456, 7.723e-5
-1.455, 7.415e-5
-1.454, 7.415e-5
-1.453, 7.107e-5
-1.452, 6.798e-5
-1.451, 6.798e-5
-1.450, 6.490e-5
-1.449, 6.182e-5
-1.448, 6.182e-5
-1.447, 5.873e-5
-1.446, 5.873e-5
-1.445, 5.565e-5
-1.444, 5.565e-5
-1.443, 5.257e-5
-1.442, 5.257e-5
-1.441, 5.257e-5
-1.440, 4.949e-5
-1.439, 4.640e-5
-1.438, 4.640e-5
-1.437, 4.332e-5
-1.436, 4.332e-5
-1.435, 4.024e-5
-1.434, 3.715e-5
-1.433, 3.715e-5
-1.432, 3.715e-5
-1.431, 3.407e-5
-1.430, 3.407e-5
-1.429, 3.407e-5
-1.428, 3.099e-5
-1.427, 3.099e-5
-1.426, 3.099e-5
-1.425, 2.790e-5
-1.424, 2.482e-5
-1.423, 2.790e-5
-1.422, 2.482e-5
-1.421, 2.482e-5
-1.420, 2.174e-5
-1.419, 2.174e-5
-1.418, 2.174e-5
-1.417, 1.865e-5
-1.416, 1.865e-5
-1.415, 1.865e-5
-1.414, 1.557e-5
-1.413, 1.557e-5
-1.412, 1.557e-5
-1.411, 1.557e-5
-1.410, 1.249e-5
-1.409, 1.249e-5
-1.408, 9.405e-6
-1.407, 1.249e-5
-1.406, 9.405e-6
-1.405, 9.405e-6
-1.404, 9.405e-6
-1.403, 6.322e-6
-1.402, 6.322e-6
-1.401, 6.322e-6
-1.400, 6.322e-6
-1.399, 6.322e-6
-1.398, 3.239e-6
-1.397, 3.239e-6
-1.396, 3.239e-6
-1.395, 3.239e-6
-1.394, 3.239e-6
-1.393, 1.559e-7
-1.392, 1.559e-7
-1.391, 1.559e-7
-1.390, 1.559e-7
-1.389, 1.559e-7
-1.388, -2.927e-6
-1.387, -2.927e-6
-1.386, -2.927e-6
-1.385, -2.927e-6
-1.384, -2.927e-6
-1.383, -6.010e-6
-1.382, -6.010e-6
-1.381, -6.010e-6
-1.380, -6.010e-6
-1.379, -6.010e-6
-1.378, -6.010e-6
-1.377, -6.010e-6
-1.376, -6.010e-6
-1.375, -9.093e-6
-1.374, -9.093e-6
-1.373, -9.093e-6
-1.372, -9.093e-6
-1.371, -9.093e-6
-1.370, -9.093e-6
-1.369, -1.218e-5
-1.368, -1.218e-5
-1.367, -1.218e-5
-1.366, -1.218e-5
-1.365, -1.218e-5
-1.364, -1.218e-5
-1.363, -1.218e-5
-1.362, -1.218e-5
-1.361, -1.218e-5
-1.360, -1.526e-5
-1.359, -1.218e-5
-1.358, -1.526e-5
-1.357, -1.218e-5
-1.356, -1.526e-5
-1.355, -1.526e-5
-1.354, -1.526e-5
-1.353, -1.526e-5
-1.352, -1.526e-5
-1.351, -1.526e-5
-1.350, -1.526e-5
-1.349, -1.834e-5
-1.348, -1.834e-5
-1.347, -1.834e-5
-1.346, -1.834e-5
-1.345, -1.834e-5
-1.344, -1.834e-5
-1.343, -1.834e-5
-1.342, -2.143e-5
-1.341, -1.834e-5
-1.340, -1.834e-5
-1.339, -2.143e-5
-1.338, -2.143e-5
-1.337, -2.143e-5
-1.336, -2.143e-5
-1.335, -2.143e-5
-1.334, -2.143e-5
-1.333, -2.143e-5
-1.332, -2.143e-5
-1.331, -2.451e-5
-1.330, -2.143e-5
-1.329, -2.451e-5
-1.328, -2.451e-5
-1.327, -2.451e-5
-1.326, -2.451e-5
-1.325, -2.451e-5
-1.324, -2.451e-5
-1.323, -2.451e-5
-1.322, -2.451e-5
-1.321, -2.451e-5
-1.320, -2.759e-5
-1.319, -2.759e-5
-1.318, -2.759e-5
-1.317, -2.759e-5
-1.316, -2.759e-5
-1.315, -2.759e-5
-1.314, -2.759e-5
-1.313, -2.759e-5
-1.312, -2.759e-5
-1.311, -2.759e-5
-1.310, -2.759e-5
-1.309, -3.068e-5
-1.308, -3.068e-5
-1.307, -3.068e-5
-1.306, -3.068e-5
-1.305, -3.068e-5
-1.304, -3.068e-5
-1.303, -3.068e-5
-1.302, -3.068e-5
-1.301, -3.376e-5
-1.300, -3.376e-5
-1.299, -3.376e-5
-1.298, -3.376e-5
-1.297, -3.376e-5
-1.296, -3.376e-5
-1.295, -3.376e-5
-1.294, -3.376e-5
-1.293, -3.684e-5
-1.292, -3.684e-5
-1.291, -3.684e-5
-1.290, -3.684e-5
-1.289, -3.684e-5
-1.288, -3.684e-5
-1.287, -3.684e-5
-1.286, -3.684e-5
-1.285, -3.992e-5
-1.284, -3.992e-5
-1.283, -3.992e-5
-1.282, -3.992e-5
-1.281, -3.992e-5
-1.280, -3.992e-5
-1.279, -4.301e-5
-1.278, -4.301e-5
-1.277, -4.301e-5
-1.276, -4.301e-5
-1.275, -4.301e-5
-1.274, -4.301e-5
-1.273, -4.609e-5
-1.272, -4.609e-5
-1.271, -4.609e-5
-1.270, -4.609e-5
-1.269, -4.609e-5
-1.268, -4.609e-5
-1.267, -4.609e-5
-1.266, -4.917e-5
-1.265, -4.917e-5
-1.264, -4.917e-5
-1.263, -4.917e-5
-1.262, -4.917e-5
-1.261, -4.917e-5
-1.260, -5.226e-5
-1.259, -5.226e-5
-1.258, -5.226e-5
-1.257, -5.226e-5
-1.256, -5.226e-5
-1.255, -5.534e-5
-1.254, -5.534e-5
-1.253, -5.534e-5
-1.252, -5.534e-5
-1.251, -5.534e-5
-1.250, -5.842e-5
-1.249, -5.842e-5
-1.248, -5.842e-5
-1.247, -5.842e-5
-1.246, -5.842e-5
-1.245, -5.842e-5
-1.244, -5.842e-5
-1.243, -6.151e-5
-1.242, -6.151e-5
-1.241, -6.151e-5
-1.240, -6.151e-5
-1.239, -6.151e-5
-1.238, -6.459e-5
-1.237, -6.459e-5
-1.236, -6.459e-5
-1.235, -6.459e-5
-1.234, -6.459e-5
-1.233, -6.767e-5
-1.232, -6.767e-5
-1.231, -6.767e-5
-1.230, -6.767e-5
-1.229, -6.767e-5
-1.228, -6.767e-5
-1.227, -7.076e-5
-1.226, -7.076e-5
-1.225, -7.076e-5
-1.224, -7.076e-5
-1.223, -7.076e-5
-1.222, -7.076e-5
-1.221, -7.076e-5
-1.220, -7.076e-5
-1.219, -7.076e-5
-1.218, -7.076e-5
-1.217, -7.384e-5
-1.216, -7.076e-5
-1.215, -7.384e-5
-1.214, -7.384e-5
-1.213, -7.384e-5
-1.212, -7.384e-5
-1.211, -7.384e-5
-1.210, -7.384e-5
-1.209, -7.384e-5
-1.208, -7.384e-5
-1.207, -7.692e-5
-1.206, -7.384e-5
-1.205, -7.692e-5
-1.204, -7.692e-5
-1.203, -7.692e-5
-1.202, -7.692e-5
-1.201, -7.692e-5
-1.200, -7.692e-5
-1.199, -7.692e-5
-1.198, -7.692e-5
-1.197, -7.692e-5
-1.196, -7.692e-5
-1.195, -7.692e-5
-1.194, -7.692e-5
-1.193, -7.692e-5
-1.192, -7.692e-5
-1.191, -7.692e-5
-1.190, -7.692e-5
-1.189, -7.692e-5
-1.188, -7.692e-5
-1.187, -7.692e-5
-1.186, -7.692e-5
-1.185, -7.692e-5
-1.184, -7.692e-5
-1.183, -7.692e-5
-1.182, -7.692e-5
-1.181, -7.692e-5
-1.180, -7.692e-5
-1.179, -7.692e-5
-1.178, -7.692e-5
-1.177, -7.692e-5
-1.176, -7.384e-5
-1.175, -7.384e-5
-1.174, -7.384e-5
-1.173, -7.384e-5
-1.172, -7.384e-5
-1.171, -7.384e-5
-1.170, -7.384e-5
-1.169, -7.384e-5
-1.168, -7.384e-5
-1.167, -7.384e-5
-1.166, -7.384e-5
-1.165, -7.384e-5
-1.164, -7.384e-5
-1.163, -7.384e-5
-1.162, -7.384e-5
-1.161, -7.384e-5
-1.160, -7.384e-5
-1.159, -7.384e-5
-1.158, -7.076e-5
-1.157, -7.384e-5
-1.156, -7.076e-5
-1.155, -7.384e-5
-1.154, -7.076e-5
-1.153, -7.076e-5
-1.152, -7.076e-5
-1.151, -7.076e-5
-1.150, -7.076e-5
-1.149, -7.076e-5
-1.148, -7.076e-5
-1.147, -7.076e-5
-1.146, -7.076e-5
-1.145, -7.076e-5
-1.144, -7.076e-5
-1.143, -7.076e-5
-1.142, -7.076e-5
-1.141, -7.076e-5
-1.140, -7.076e-5
-1.139, -7.076e-5
-1.138, -7.076e-5
-1.137, -7.076e-5
-1.136, -7.076e-5
-1.135, -7.076e-5
-1.134, -6.767e-5
-1.133, -7.076e-5
-1.132, -7.076e-5
-1.131, -7.076e-5
-1.130, -7.076e-5
-1.129, -7.076e-5
-1.128, -7.076e-5
-1.127, -6.767e-5
-1.126, -7.076e-5
-1.125, -7.076e-5
-1.124, -7.076e-5
-1.123, -7.076e-5
-1.122, -7.076e-5
-1.121, -7.076e-5
-1.120, -7.076e-5
-1.119, -7.076e-5
-1.118, -7.076e-5
-1.117, -7.076e-5
-1.116, -7.076e-5
-1.115, -7.076e-5
-1.114, -7.076e-5
-1.113, -7.076e-5
-1.112, -7.076e-5
-1.111, -7.076e-5
-1.110, -7.076e-5
-1.109, -7.076e-5
-1.108, -7.076e-5
-1.107, -7.076e-5
-1.106, -7.076e-5
-1.105, -7.076e-5
-1.104, -7.076e-5
-1.103, -7.076e-5
-1.102, -7.076e-5
-1.101, -7.076e-5
-1.100, -7.076e-5
-1.099, -7.076e-5
-1.098, -7.076e-5
-1.097, -7.076e-5
-1.096, -7.076e-5
-1.095, -7.076e-5
-1.094, -7.076e-5
-1.093, -7.076e-5
-1.092, -7.384e-5
-1.091, -7.076e-5
-1.090, -7.384e-5
-1.089, -7.076e-5
-1.088, -7.384e-5
-1.087, -7.384e-5
-1.086, -7.384e-5
-1.085, -7.384e-5
-1.084, -7.384e-5
-1.083, -7.384e-5
-1.082, -7.384e-5
-1.081, -7.384e-5
-1.080, -7.384e-5
-1.079, -7.384e-5
-1.078, -7.384e-5
-1.077, -7.384e-5
-1.076, -7.384e-5
-1.075, -7.384e-5
-1.074, -7.384e-5
-1.073, -7.384e-5
-1.072, -7.692e-5
-1.071, -7.384e-5
-1.070, -7.692e-5
-1.069, -7.384e-5
-1.068, -7.692e-5
-1.067, -7.692e-5
-1.066, -7.692e-5
-1.065, -7.692e-5
-1.064, -7.692e-5
-1.063, -7.692e-5
-1.062, -7.692e-5
-1.061, -7.692e-5
-1.060, -7.692e-5
-1.059, -7.692e-5
-1.058, -7.692e-5
-1.057, -7.692e-5
-1.056, -7.692e-5
-1.055, -7.692e-5
-1.054, -7.692e-5
-1.053, -7.692e-5
-1.052, -8.000e-5
-1.051, -7.692e-5
-1.050, -8.000e-5
-1.049, -8.000e-5
-1.048, -8.000e-5
-1.047, -8.000e-5
-1.046, -8.000e-5
-1.045, -8.000e-5
-1.044, -8.000e-5
-1.043, -8.000e-5
-1.042, -8.000e-5
-1.041, -8.000e-5
-1.040, -8.000e-5
-1.039, -8.000e-5
-1.038, -8.000e-5
-1.037, -8.000e-5
-1.036, -8.000e-5
-1.035, -8.309e-5
-1.034, -8.000e-5
-1.033, -8.000e-5
-1.032, -8.000e-5
-1.031, -8.309e-5
-1.030, -8.000e-5
-1.029, -8.309e-5
-1.028, -8.309e-5
-1.027, -8.309e-5
-1.026, -8.309e-5
-1.025, -8.309e-5
-1.024, -8.309e-5
-1.023, -8.309e-5
-1.022, -8.309e-5
-1.021, -8.309e-5
-1.020, -8.309e-5
-1.019, -8.309e-5
-1.018, -8.309e-5
-1.017, -8.309e-5
-1.016, -8.309e-5
-1.015, -8.309e-5
-1.014, -8.309e-5
-1.013, -8.309e-5
-1.012, -8.309e-5
-1.011, -8.309e-5
-1.010, -8.309e-5
-1.009, -8.309e-5
-1.008, -8.309e-5
-1.007, -8.309e-5
-1.006, -8.309e-5
-1.005, -8.309e-5
-1.004, -8.309e-5
-1.003, -8.309e-5
-1.002, -8.309e-5
-1.001, -8.309e-5
