Potential V vs RHE, Current mA cm-2
0.013299999999999867,-0.2202705493889862
0.012299999999999978,-0.8308599464107361
0.011299999999999866,-1.2234423321232837
0.010299999999999976,-1.5293029151541047
0.009299999999999864,-1.7471684553333202
0.008299999999999974,-1.9650339955125358
0.007299999999999862,-2.1390434853959355
0.006299999999999972,-2.3569090255751513
0.00529999999999986,-2.532333226758415
0.0042999999999999705,-2.706342716641815
0.0032999999999998586,-2.8803522065252145
0.0022999999999999687,-3.0119203574126634
0.0012999999999998568,-3.1420737970002466
0.00029999999999996696,-3.273641947887695
-0.000700000000000145,-3.361354048479327
-0.0017000000000000348,-3.447651437771094
-0.0027000000000001467,-3.5353635383627267
-0.0037000000000000366,-3.579219588658543
-0.0047000000000001485,-3.7093730282461257
-0.005700000000000038,-3.7532290785419424
-0.00670000000000015,-3.884797229429391
-0.00770000000000004,-3.971094618721158
-0.008700000000000152,-4.0588067193127895
-0.009700000000000042,-4.146518819904423
-0.010700000000000154,-4.23281620919619
-0.011700000000000044,-4.3205283097878215
-0.012700000000000156,-4.364384360083638
-0.013700000000000045,-4.406825699079589
-0.014700000000000157,-4.450681749375406
-0.015700000000000047,-4.494537799671222
-0.01670000000000016,-4.538393849967037
-0.01770000000000005,-4.582249900262854
-0.01870000000000016,-4.626105950558669
-0.01970000000000005,-4.668547289554621
-0.020700000000000163,-4.756259390146253
-0.021700000000000053,-4.800115440442069
-0.022700000000000164,-4.843971490737885
-0.023700000000000054,-4.9302688800296535
-0.024700000000000166,-4.974124930325469
-0.025700000000000056,-5.017980980621284
-0.026700000000000168,-5.0618370309171015
-0.027700000000000058,-5.105693081212917
-0.02870000000000017,-5.105693081212917
-0.02970000000000006,-5.149549131508733
-0.03070000000000017,-5.149549131508733
-0.03170000000000006,-5.191990470504685
-0.03270000000000017,-5.235846520800501
-0.03370000000000006,-5.279702571096316
-0.034700000000000175,-5.323558621392133
-0.035700000000000065,-5.367414671687949
-0.03670000000000018,-5.411270721983764
-0.03770000000000007,-5.453712060979717
-0.03870000000000018,-5.453712060979717
-0.03970000000000007,-5.497568111275533
-0.04070000000000018,-5.5414241615713475
-0.04170000000000007,-5.497568111275533
-0.04270000000000018,-5.5414241615713475
-0.04370000000000007,-5.5414241615713475
-0.044700000000000184,-5.5414241615713475
-0.045700000000000074,-5.585280211867165
-0.046700000000000186,-5.629136262162981
-0.047700000000000076,-5.629136262162981
-0.04870000000000019,-5.672992312458796
-0.04970000000000008,-5.715433651454749
-0.05070000000000019,-5.759289701750564
-0.05170000000000008,-5.80314575204638
-0.05270000000000019,-5.80314575204638
-0.05370000000000008,-5.80314575204638
-0.05470000000000019,-5.80314575204638
-0.05570000000000008,-5.80314575204638
-0.056700000000000195,-5.847001802342197
-0.057700000000000085,-5.847001802342197
-0.058700000000000196,-5.847001802342197
-0.059700000000000086,-5.890857852638012
-0.0607000000000002,-5.890857852638012
-0.06170000000000009,-5.9347139029338285
-0.0627000000000002,-5.977155241929781
-0.06370000000000009,-5.977155241929781
-0.0647000000000002,-5.977155241929781
-0.06570000000000009,-6.021011292225596
-0.0667000000000002,-5.977155241929781
-0.0677000000000001,-6.021011292225596
-0.0687000000000002,-5.977155241929781
-0.0697000000000001,-6.021011292225596
-0.07070000000000021,-5.977155241929781
-0.0717000000000001,-6.021011292225596
-0.07270000000000021,-6.021011292225596
-0.0737000000000001,-6.021011292225596
-0.07470000000000021,-6.064867342521412
-0.0757000000000001,-6.064867342521412
-0.07670000000000021,-6.108723392817228
-0.0777000000000001,-6.108723392817228
-0.07870000000000021,-6.108723392817228
-0.0797000000000001,-6.108723392817228
-0.08070000000000022,-6.152579443113044
-0.0817000000000001,-6.108723392817228
-0.08270000000000022,-6.108723392817228
-0.08370000000000011,-6.064867342521412
-0.08470000000000022,-6.064867342521412
-0.08570000000000011,-6.064867342521412
-0.08670000000000022,-6.108723392817228
-0.08770000000000011,-6.108723392817228
-0.08870000000000022,-6.108723392817228
-0.08970000000000011,-6.108723392817228
-0.09070000000000022,-6.152579443113044
-0.09170000000000011,-6.152579443113044
-0.09270000000000023,-6.152579443113044
-0.09370000000000012,-6.108723392817228
-0.09470000000000023,-6.108723392817228
-0.09570000000000012,-6.064867342521412
-0.09670000000000023,-6.064867342521412
-0.09770000000000012,-6.021011292225596
-0.09870000000000023,-6.064867342521412
-0.09970000000000012,-6.064867342521412
-0.10070000000000023,-6.064867342521412
-0.10170000000000012,-6.064867342521412
-0.10270000000000024,-6.064867342521412
-0.10370000000000013,-6.108723392817228
-0.10470000000000024,-6.064867342521412
-0.10570000000000013,-6.064867342521412
-0.10670000000000024,-6.064867342521412
-0.10770000000000013,-6.064867342521412
-0.10870000000000024,-6.021011292225596
-0.10970000000000013,-5.977155241929781
-0.11070000000000024,-5.977155241929781
-0.11170000000000013,-5.9347139029338285
-0.11270000000000002,-5.9347139029338285
-0.11370000000000013,-5.977155241929781
-0.11470000000000002,-5.977155241929781
-0.11570000000000014,-5.977155241929781
-0.11670000000000003,-5.977155241929781
-0.11770000000000014,-5.977155241929781
-0.11870000000000003,-5.977155241929781
-0.11970000000000014,-5.977155241929781
-0.12070000000000003,-5.9347139029338285
-0.12170000000000014,-5.9347139029338285
-0.12270000000000003,-5.890857852638012
-0.12370000000000014,-5.847001802342197
-0.12470000000000003,-5.847001802342197
-0.12570000000000014,-5.80314575204638
-0.12670000000000003,-5.80314575204638
-0.12770000000000015,-5.847001802342197
-0.12870000000000004,-5.80314575204638
-0.12970000000000015,-5.847001802342197
-0.13070000000000004,-5.80314575204638
-0.13170000000000015,-5.80314575204638
-0.13270000000000004,-5.80314575204638
-0.13370000000000015,-5.759289701750564
-0.13470000000000004,-5.759289701750564
-0.13570000000000015,-5.715433651454749
-0.13670000000000004,-5.715433651454749
-0.13770000000000016,-5.672992312458796
-0.13870000000000005,-5.672992312458796
-0.13970000000000016,-5.672992312458796
-0.14070000000000005,-5.672992312458796
-0.14170000000000016,-5.672992312458796
-0.14270000000000005,-5.672992312458796
-0.14370000000000016,-5.672992312458796
-0.14470000000000005,-5.629136262162981
-0.14570000000000016,-5.629136262162981
-0.14670000000000005,-5.629136262162981
-0.14770000000000016,-5.629136262162981
-0.14870000000000005,-5.585280211867165
-0.14970000000000017,-5.585280211867165
-0.15070000000000006,-5.5414241615713475
-0.15170000000000017,-5.5414241615713475
-0.15270000000000006,-5.5414241615713475
-0.15370000000000017,-5.5414241615713475
-0.15470000000000006,-5.5414241615713475
-0.15570000000000017,-5.5414241615713475
-0.15670000000000006,-5.5414241615713475
-0.15770000000000017,-5.5414241615713475
-0.15870000000000006,-5.5414241615713475
-0.15970000000000018,-5.497568111275533
-0.16070000000000007,-5.497568111275533
-0.16170000000000018,-5.453712060979717
-0.16270000000000007,-5.411270721983764
-0.16370000000000018,-5.367414671687949
-0.16470000000000007,-5.411270721983764
-0.16570000000000018,-5.367414671687949
-0.16670000000000007,-5.367414671687949
-0.16770000000000018,-5.367414671687949
-0.16870000000000007,-5.367414671687949
-0.16970000000000018,-5.367414671687949
-0.17070000000000007,-5.411270721983764
-0.17170000000000019,-5.367414671687949
-0.17270000000000008,-5.367414671687949
-0.1737000000000002,-5.367414671687949
-0.17470000000000008,-5.323558621392133
-0.1757000000000002,-5.279702571096316
-0.17670000000000008,-5.279702571096316
-0.1777000000000002,-5.235846520800501
-0.17870000000000008,-5.235846520800501
-0.1797000000000002,-5.235846520800501
-0.18070000000000008,-5.191990470504685
-0.1817000000000002,-5.235846520800501
-0.18270000000000008,-5.235846520800501
-0.1837000000000002,-5.235846520800501
-0.1847000000000001,-5.235846520800501
-0.1857000000000002,-5.235846520800501
-0.1867000000000001,-5.191990470504685
-0.1877000000000002,-5.191990470504685
-0.1887000000000001,-5.149549131508733
-0.1897000000000002,-5.105693081212917
-0.1907000000000001,-5.105693081212917
-0.1917000000000001,-5.0618370309171015
-0.19269999999999998,-5.0618370309171015
-0.1937000000000001,-5.0618370309171015
-0.19469999999999998,-5.0618370309171015
-0.1957000000000001,-5.105693081212917
-0.19669999999999999,-5.105693081212917
-0.1977000000000001,-5.105693081212917
-0.1987,-5.105693081212917
-0.1997000000000001,-5.105693081212917
-0.2007,-5.0618370309171015
-0.2017000000000001,-5.0618370309171015
-0.2027,-5.017980980621284
-0.2037000000000001,-4.974124930325469
-0.2047,-4.974124930325469
-0.2057000000000001,-4.9302688800296535
-0.2067,-4.974124930325469
-0.2077000000000001,-4.9302688800296535
-0.2087,-4.9302688800296535
-0.2097000000000001,-4.974124930325469
-0.2107,-4.974124930325469
-0.2117000000000001,-4.9302688800296535
-0.2127,-4.9302688800296535
-0.2137000000000001,-4.9302688800296535
-0.2147,-4.9302688800296535
-0.2157000000000001,-4.887827541033701
-0.2167,-4.887827541033701
-0.21770000000000012,-4.887827541033701
-0.2187,-4.843971490737885
-0.21970000000000012,-4.843971490737885
-0.2207,-4.843971490737885
-0.22170000000000012,-4.843971490737885
-0.2227,-4.843971490737885
-0.22370000000000012,-4.843971490737885
-0.2247,-4.843971490737885
-0.22570000000000012,-4.843971490737885
-0.2267,-4.800115440442069
-0.22770000000000012,-4.800115440442069
-0.22870000000000001,-4.800115440442069
-0.22970000000000013,-4.756259390146253
-0.23070000000000002,-4.712403339850438
-0.23170000000000013,-4.712403339850438
-0.23270000000000002,-4.712403339850438
-0.23370000000000013,-4.712403339850438
-0.23470000000000002,-4.712403339850438
-0.23570000000000013,-4.756259390146253
-0.23670000000000002,-4.756259390146253
-0.2376999999999999,-4.712403339850438
-0.23870000000000002,-4.712403339850438
-0.2396999999999999,-4.712403339850438
-0.24070000000000003,-4.668547289554621
-0.24169999999999991,-4.668547289554621
-0.24270000000000003,-4.626105950558669
-0.24369999999999992,-4.626105950558669
-0.24470000000000003,-4.626105950558669
-0.24569999999999992,-4.582249900262854
-0.24670000000000003,-4.626105950558669
-0.24769999999999992,-4.626105950558669
-0.24870000000000003,-4.626105950558669
-0.24969999999999992,-4.668547289554621
-0.25070000000000003,-4.626105950558669
-0.2516999999999999,-4.668547289554621
-0.25270000000000004,-4.626105950558669
-0.2536999999999999,-4.626105950558669
-0.25470000000000004,-4.582249900262854
-0.2556999999999999,-4.582249900262854
-0.25670000000000004,-4.538393849967037
-0.25769999999999993,-4.538393849967037
-0.25870000000000004,-4.494537799671222
-0.25969999999999993,-4.494537799671222
-0.26070000000000004,-4.494537799671222
-0.26169999999999993,-4.494537799671222
-0.26270000000000004,-4.538393849967037
-0.26369999999999993,-4.538393849967037
-0.26470000000000005,-4.538393849967037
-0.26569999999999994,-4.538393849967037
-0.26670000000000005,-4.494537799671222
-0.26769999999999994,-4.494537799671222
-0.26870000000000005,-4.494537799671222
-0.26969999999999994,-4.450681749375406
-0.27070000000000005,-4.450681749375406
-0.27169999999999994,-4.450681749375406
-0.27270000000000005,-4.406825699079589
-0.27369999999999994,-4.450681749375406
-0.27470000000000006,-4.450681749375406
-0.27569999999999995,-4.450681749375406
-0.27670000000000006,-4.450681749375406
-0.27769999999999995,-4.450681749375406
-0.27870000000000006,-4.450681749375406
-0.27969999999999995,-4.450681749375406
-0.28070000000000006,-4.450681749375406
-0.28169999999999995,-4.450681749375406
-0.28270000000000006,-4.406825699079589
-0.28369999999999995,-4.406825699079589
-0.28470000000000006,-4.406825699079589
-0.28569999999999995,-4.364384360083638
-0.28670000000000007,-4.364384360083638
-0.28769999999999996,-4.364384360083638
-0.28870000000000007,-4.406825699079589
-0.28969999999999996,-4.406825699079589
-0.29070000000000007,-4.406825699079589
-0.29169999999999996,-4.406825699079589
-0.29270000000000007,-4.406825699079589
-0.29369999999999996,-4.406825699079589
-0.2947000000000001,-4.364384360083638
-0.29569999999999996,-4.364384360083638
-0.2967000000000001,-4.364384360083638
-0.29769999999999996,-4.364384360083638
-0.2987000000000001,-4.364384360083638
-0.29969999999999997,-4.364384360083638
-0.3007000000000001,-4.364384360083638
-0.30169999999999997,-4.364384360083638
-0.3027000000000001,-4.406825699079589
-0.30369999999999997,-4.406825699079589
-0.3047000000000001,-4.406825699079589
-0.30569999999999997,-4.406825699079589
-0.3067000000000001,-4.406825699079589
-0.3077,-4.364384360083638
-0.3087000000000001,-4.364384360083638
-0.3097,-4.364384360083638
-0.3107000000000001,-4.364384360083638
-0.3117,-4.364384360083638
-0.3127000000000001,-4.364384360083638
-0.3137,-4.364384360083638
-0.3147000000000001,-4.364384360083638
-0.3157,-4.406825699079589
-0.3167000000000001,-4.406825699079589
-0.3177,-4.406825699079589
-0.3187000000000001,-4.450681749375406
-0.3197,-4.450681749375406
-0.3207000000000001,-4.406825699079589
-0.3217,-4.450681749375406
-0.3227000000000001,-4.406825699079589
-0.3237,-4.406825699079589
-0.3247000000000001,-4.406825699079589
-0.3257,-4.406825699079589
-0.3267000000000001,-4.450681749375406
-0.3277,-4.450681749375406
-0.3287000000000001,-4.450681749375406
-0.3297,-4.494537799671222
-0.3307000000000001,-4.494537799671222
-0.3317,-4.538393849967037
-0.3327000000000001,-4.538393849967037
-0.3337,-4.538393849967037
-0.3347000000000001,-4.538393849967037
-0.3357,-4.494537799671222
-0.3367000000000001,-4.538393849967037
-0.3377,-4.538393849967037
-0.3387000000000001,-4.538393849967037
-0.3397,-4.582249900262854
-0.3407000000000001,-4.582249900262854
-0.3417,-4.626105950558669
-0.3427000000000001,-4.668547289554621
-0.3437,-4.668547289554621
-0.3447000000000001,-4.668547289554621
-0.3457,-4.712403339850438
-0.3467000000000001,-4.712403339850438
-0.3477,-4.712403339850438
-0.3487000000000001,-4.712403339850438
-0.3497,-4.712403339850438
-0.3507000000000001,-4.712403339850438
-0.3517,-4.756259390146253
-0.3527000000000001,-4.756259390146253
-0.3537,-4.800115440442069
-0.3547000000000001,-4.843971490737885
-0.3557,-4.887827541033701
-0.35670000000000013,-4.9302688800296535
-0.3577,-4.9302688800296535
-0.35870000000000013,-4.974124930325469
-0.3597,-4.974124930325469
-0.36070000000000013,-5.017980980621284
-0.3617,-5.017980980621284
-0.3626999999999999,-5.017980980621284
-0.3637,-5.0618370309171015
-0.3646999999999999,-5.0618370309171015
-0.3657,-5.0618370309171015
-0.3666999999999999,-5.149549131508733
-0.3677,-5.191990470504685
-0.3686999999999999,-5.191990470504685
-0.36970000000000003,-5.279702571096316
-0.3706999999999999,-5.323558621392133
-0.37170000000000003,-5.367414671687949
-0.3726999999999999,-5.367414671687949
-0.37370000000000003,-5.411270721983764
-0.3746999999999999,-5.411270721983764
-0.37570000000000003,-5.453712060979717
-0.3766999999999999,-5.453712060979717
-0.37770000000000004,-5.497568111275533
-0.3786999999999999,-5.5414241615713475
-0.37970000000000004,-5.585280211867165
-0.3806999999999999,-5.629136262162981
-0.38170000000000004,-5.672992312458796
-0.38269999999999993,-5.715433651454749
-0.38370000000000004,-5.759289701750564
-0.38469999999999993,-5.847001802342197
-0.38570000000000004,-5.890857852638012
-0.38669999999999993,-5.890857852638012
-0.38770000000000004,-5.977155241929781
-0.38869999999999993,-5.977155241929781
-0.38970000000000005,-6.021011292225596
-0.39069999999999994,-6.064867342521412
-0.39170000000000005,-6.108723392817228
-0.39269999999999994,-6.196435493408861
-0.39370000000000005,-6.238876832404812
-0.39469999999999994,-6.326588932996443
-0.39570000000000005,-6.37044498329226
-0.39669999999999994,-6.458157083883892
-0.39770000000000005,-6.500598422879844
-0.39869999999999994,-6.588310523471475
-0.39970000000000006,-6.632166573767292
-0.40069999999999995,-6.6760226240631075
-0.40170000000000006,-6.762320013354876
-0.40269999999999995,-6.850032113946507
-0.40370000000000006,-6.893888164242324
-0.40469999999999995,-6.93774421453814
-0.40570000000000006,-7.024041603829907
-0.40669999999999995,-7.111753704421539
-0.40770000000000006,-7.199465805013171
-0.40869999999999995,-7.28576319430494
-0.40970000000000006,-7.37347529489657
-0.41069999999999995,-7.50504344578402
-0.41170000000000007,-7.5474847847799715
-0.41269999999999996,-7.635196885371603
-0.41370000000000007,-7.722908985963235
-0.41469999999999996,-7.809206375255003
-0.41570000000000007,-7.896918475846635
-0.41669999999999996,-7.984630576438266
-0.41770000000000007,-8.070927965730034
-0.41869999999999996,-8.158640066321666
-0.4197000000000001,-8.288793505909249
-0.42069999999999996,-8.4203616567967
-0.4217000000000001,-8.55051509638428
-0.42269999999999996,-8.68208324727173
-0.4237000000000001,-8.85609273715513
-0.42469999999999997,-8.987660888042578
-0.4257000000000001,-9.11781432763016
-0.42669999999999997,-9.293238528813426
-0.4277000000000001,-9.423391968401008
-0.42869999999999997,-9.55496011928846
-0.4297000000000001,-9.728969609171857
-0.43069999999999997,-9.902979099055257
-0.4317000000000001,-10.120844639234473
-0.4327,-10.296268840417738
-0.4337000000000001,-10.470278330301136
-0.4347,-10.688143870480351
-0.4357000000000001,-10.949865460955383
-0.4367,-11.1677310011346
-0.4377000000000001,-11.42945259160963
-0.4387,-11.691174182084664
-0.4397000000000001,-11.996751822855511
-0.4407,-12.258473413330542
-0.4417000000000001,-12.607907104397206
-0.4427,-12.913484745168056
-0.4437000000000001,-13.261503724934855
-0.4447,-13.654793466297335
-0.4457000000000001,-14.002812446064135
-0.4467,-14.486643710617974
-0.4477000000000001,-14.925204213576137
-0.4487,-15.3920589425316
-0.4497000000000001,-15.91550212348166
-0.4507,-16.438945304431726
-0.4517000000000001,-17.018976937376394
-0.4527,-17.627302796318357
-0.4537000000000001,-18.23562865526032
-0.4547,-18.88639585319824
-0.4557000000000001,-19.579604390132108
-0.4567,-20.329401379060574
-0.4577000000000001,-21.065051254990397
-0.4587,-21.94217226090672
-0.4597000000000001,-22.819293266823045
-0.4607,-23.724708498736668
-0.4617000000000001,-24.729153521640843
-0.4627,-25.77603988354097
-0.4637000000000001,-26.86536758443705
-0.4647,-28.011283737327723
-0.4657000000000001,-29.18549411621571
-0.4667,-30.402145834099635
-0.4677000000000001,-31.618797551983565
-0.4687,-32.93447906085806
-0.4697000000000001,-34.193572117737936
-0.4707,-35.55169496560837
-0.4717000000000001,-36.89567070048016
-0.4727,-38.29623488734655
-0.4737000000000001,-39.739240413208876
-0.4747,-41.22468727806717
-0.4757000000000001,-42.71013414292546
-0.4767,-44.223875233781044
-0.4777000000000001,-45.79420477663124
-0.4787,-47.32209298048547
-0.4797000000000001,-48.89242252333566
-0.4807,-50.42031072718991
-0.48170000000000013,-51.948198931044146
-0.4827,-53.476087134898386
-0.48370000000000013,-55.003975338752625
-0.4847,-56.57430488160282
-0.48570000000000013,-58.14463442445301
-0.4867,-58.97931409137338
-0.48570000000000013,-59.10663810836124
-0.4847,-59.06419676936528
-0.48370000000000013,-58.92272563937878
-0.4827,-58.83784296138688
-0.48170000000000013,-58.83784296138688
-0.4807,-58.71051894439902
-0.4797000000000001,-58.54075358841522
-0.4787,-58.31439978043681
-0.4777000000000001,-58.10219308545706
-0.4767,-57.8333979384827
-0.4757000000000001,-57.57874990450699
-0.4747,-57.30995475753264
-0.4737000000000001,-57.012865384560975
-0.4727,-56.61674622059877
-0.4717000000000001,-56.30550973462846
-0.4707,-55.96597902266086
-0.4697000000000001,-55.612301197694585
-0.4687,-55.31521182472294
-0.4677000000000001,-54.919092660760725
-0.4667,-54.52297349679851
-0.4657000000000001,-54.1268543328363
-0.4647,-53.74488228187274
-0.4637000000000001,-53.348763117910536
-0.4627,-52.95264395394832
-0.4617000000000001,-52.55652478998611
-0.4607,-52.11796428702795
