May 5, 2025   14:45:10
Cyclic Voltammetry
File: c:/users/guazh/data/banditlqround7_x0exp1108_r5/2025-04-30-exp1249\exp1249-2025-05-05t14_31_07-h2koh\exp1249_cv_sr_200mvs_efin_-1600mv.bin
Data Source:  Experiment
Instrument Model:  CHI760E
Header: CV ran at 200 mVs
Note: 

Init E (V) = -1
High E (V) = -1
Low E (V) = -1.6
Final E (V) = -1
Init P/N = N
Scan Rate (V/s) = 0.2
Segment = 3
Sample Interval (V) = 0.001
Quiet Time (sec) = 2
Sensitivity (A/V) = 0.01
Comp R (ohm) = 1.1

Results:

Channel 1:
Segment 1:

Segment 2:
Ep = -1.027V
ip = -1.092e-3A
Ah = -4.092e-4C

Segment 3:

Potential/V, Current/A

-1.000, 4.906e-4
-1.001, 5.937e-4
-1.002, 6.351e-4
-1.003, 6.632e-4
-1.004, 6.915e-4
-1.005, 6.983e-4
-1.006, 7.057e-4
-1.007, 7.257e-4
-1.008, 7.389e-4
-1.009, 7.403e-4
-1.010, 7.516e-4
-1.011, 7.682e-4
-1.012, 7.704e-4
-1.013, 7.749e-4
-1.014, 7.908e-4
-1.015, 7.934e-4
-1.016, 7.887e-4
-1.017, 7.981e-4
-1.018, 8.043e-4
-1.019, 8.007e-4
-1.020, 8.087e-4
-1.021, 8.208e-4
-1.022, 8.176e-4
-1.023, 8.186e-4
-1.024, 8.307e-4
-1.025, 8.297e-4
-1.026, 8.219e-4
-1.027, 8.301e-4
-1.028, 8.331e-4
-1.029, 8.272e-4
-1.030, 8.329e-4
-1.031, 8.431e-4
-1.032, 8.388e-4
-1.033, 8.397e-4
-1.034, 8.527e-4
-1.035, 8.542e-4
-1.036, 8.506e-4
-1.037, 8.617e-4
-1.038, 8.705e-4
-1.039, 8.651e-4
-1.040, 8.683e-4
-1.041, 8.777e-4
-1.042, 8.731e-4
-1.043, 8.725e-4
-1.044, 8.841e-4
-1.045, 8.841e-4
-1.046, 8.806e-4
-1.047, 8.907e-4
-1.048, 8.962e-4
-1.049, 8.917e-4
-1.050, 8.970e-4
-1.051, 9.063e-4
-1.052, 9.014e-4
-1.053, 9.010e-4
-1.054, 9.115e-4
-1.055, 9.120e-4
-1.056, 9.072e-4
-1.057, 9.170e-4
-1.058, 9.222e-4
-1.059, 9.186e-4
-1.060, 9.265e-4
-1.061, 9.362e-4
-1.062, 9.335e-4
-1.063, 9.343e-4
-1.064, 9.456e-4
-1.065, 9.459e-4
-1.066, 9.403e-4
-1.067, 9.497e-4
-1.068, 9.546e-4
-1.069, 9.490e-4
-1.070, 9.558e-4
-1.071, 9.669e-4
-1.072, 9.601e-4
-1.073, 9.579e-4
-1.074, 9.730e-4
-1.075, 9.783e-4
-1.076, 9.788e-4
-1.077, 9.898e-4
-1.078, 9.948e-4
-1.079, 9.879e-4
-1.080, 9.903e-4
-1.081, 9.976e-4
-1.082, 9.914e-4
-1.083, 9.906e-4
-1.084, 1.005e-3
-1.085, 1.006e-3
-1.086, 1.004e-3
-1.087, 1.015e-3
-1.088, 1.023e-3
-1.089, 1.020e-3
-1.090, 1.027e-3
-1.091, 1.037e-3
-1.092, 1.034e-3
-1.093, 1.036e-3
-1.094, 1.050e-3
-1.095, 1.053e-3
-1.096, 1.050e-3
-1.097, 1.061e-3
-1.098, 1.069e-3
-1.099, 1.064e-3
-1.100, 1.071e-3
-1.101, 1.082e-3
-1.102, 1.080e-3
-1.103, 1.083e-3
-1.104, 1.095e-3
-1.105, 1.096e-3
-1.106, 1.096e-3
-1.107, 1.113e-3
-1.108, 1.125e-3
-1.109, 1.122e-3
-1.110, 1.131e-3
-1.111, 1.145e-3
-1.112, 1.142e-3
-1.113, 1.142e-3
-1.114, 1.154e-3
-1.115, 1.156e-3
-1.116, 1.154e-3
-1.117, 1.169e-3
-1.118, 1.182e-3
-1.119, 1.183e-3
-1.120, 1.194e-3
-1.121, 1.210e-3
-1.122, 1.212e-3
-1.123, 1.217e-3
-1.124, 1.234e-3
-1.125, 1.240e-3
-1.126, 1.237e-3
-1.127, 1.250e-3
-1.128, 1.260e-3
-1.129, 1.261e-3
-1.130, 1.272e-3
-1.131, 1.288e-3
-1.132, 1.291e-3
-1.133, 1.297e-3
-1.134, 1.317e-3
-1.135, 1.326e-3
-1.136, 1.329e-3
-1.137, 1.345e-3
-1.138, 1.358e-3
-1.139, 1.359e-3
-1.140, 1.372e-3
-1.141, 1.389e-3
-1.142, 1.393e-3
-1.143, 1.400e-3
-1.144, 1.419e-3
-1.145, 1.429e-3
-1.146, 1.432e-3
-1.147, 1.450e-3
-1.148, 1.465e-3
-1.149, 1.467e-3
-1.150, 1.480e-3
-1.151, 1.502e-3
-1.152, 1.507e-3
-1.153, 1.515e-3
-1.154, 1.535e-3
-1.155, 1.546e-3
-1.156, 1.550e-3
-1.157, 1.567e-3
-1.158, 1.583e-3
-1.159, 1.587e-3
-1.160, 1.602e-3
-1.161, 1.624e-3
-1.162, 1.632e-3
-1.163, 1.643e-3
-1.164, 1.664e-3
-1.165, 1.676e-3
-1.166, 1.682e-3
-1.167, 1.701e-3
-1.168, 1.717e-3
-1.169, 1.722e-3
-1.170, 1.737e-3
-1.171, 1.758e-3
-1.172, 1.765e-3
-1.173, 1.774e-3
-1.174, 1.797e-3
-1.175, 1.808e-3
-1.176, 1.815e-3
-1.177, 1.837e-3
-1.178, 1.855e-3
-1.179, 1.862e-3
-1.180, 1.879e-3
-1.181, 1.900e-3
-1.182, 1.908e-3
-1.183, 1.918e-3
-1.184, 1.940e-3
-1.185, 1.953e-3
-1.186, 1.959e-3
-1.187, 1.979e-3
-1.188, 1.998e-3
-1.189, 2.003e-3
-1.190, 2.018e-3
-1.191, 2.038e-3
-1.192, 2.045e-3
-1.193, 2.056e-3
-1.194, 2.078e-3
-1.195, 2.090e-3
-1.196, 2.099e-3
-1.197, 2.119e-3
-1.198, 2.139e-3
-1.199, 2.146e-3
-1.200, 2.163e-3
-1.201, 2.186e-3
-1.202, 2.195e-3
-1.203, 2.206e-3
-1.204, 2.230e-3
-1.205, 2.244e-3
-1.206, 2.251e-3
-1.207, 2.271e-3
-1.208, 2.286e-3
-1.209, 2.289e-3
-1.210, 2.303e-3
-1.211, 2.324e-3
-1.212, 2.335e-3
-1.213, 2.345e-3
-1.214, 2.368e-3
-1.215, 2.379e-3
-1.216, 2.386e-3
-1.217, 2.407e-3
-1.218, 2.422e-3
-1.219, 2.425e-3
-1.220, 2.438e-3
-1.221, 2.459e-3
-1.222, 2.468e-3
-1.223, 2.480e-3
-1.224, 2.500e-3
-1.225, 2.511e-3
-1.226, 2.517e-3
-1.227, 2.537e-3
-1.228, 2.555e-3
-1.229, 2.561e-3
-1.230, 2.574e-3
-1.231, 2.593e-3
-1.232, 2.598e-3
-1.233, 2.607e-3
-1.234, 2.626e-3
-1.235, 2.634e-3
-1.236, 2.637e-3
-1.237, 2.654e-3
-1.238, 2.670e-3
-1.239, 2.674e-3
-1.240, 2.687e-3
-1.241, 2.708e-3
-1.242, 2.715e-3
-1.243, 2.723e-3
-1.244, 2.741e-3
-1.245, 2.748e-3
-1.246, 2.752e-3
-1.247, 2.770e-3
-1.248, 2.783e-3
-1.249, 2.786e-3
-1.250, 2.798e-3
-1.251, 2.814e-3
-1.252, 2.818e-3
-1.253, 2.822e-3
-1.254, 2.839e-3
-1.255, 2.846e-3
-1.256, 2.848e-3
-1.257, 2.863e-3
-1.258, 2.876e-3
-1.259, 2.878e-3
-1.260, 2.889e-3
-1.261, 2.903e-3
-1.262, 2.904e-3
-1.263, 2.906e-3
-1.264, 2.921e-3
-1.265, 2.928e-3
-1.266, 2.929e-3
-1.267, 2.945e-3
-1.268, 2.956e-3
-1.269, 2.952e-3
-1.270, 2.959e-3
-1.271, 2.975e-3
-1.272, 2.976e-3
-1.273, 2.979e-3
-1.274, 2.995e-3
-1.275, 3.001e-3
-1.276, 3.000e-3
-1.277, 3.013e-3
-1.278, 3.024e-3
-1.279, 3.021e-3
-1.280, 3.027e-3
-1.281, 3.039e-3
-1.282, 3.037e-3
-1.283, 3.039e-3
-1.284, 3.054e-3
-1.285, 3.058e-3
-1.286, 3.056e-3
-1.287, 3.069e-3
-1.288, 3.078e-3
-1.289, 3.075e-3
-1.290, 3.078e-3
-1.291, 3.087e-3
-1.292, 3.084e-3
-1.293, 3.084e-3
-1.294, 3.098e-3
-1.295, 3.101e-3
-1.296, 3.099e-3
-1.297, 3.109e-3
-1.298, 3.119e-3
-1.299, 3.115e-3
-1.300, 3.121e-3
-1.301, 3.130e-3
-1.302, 3.125e-3
-1.303, 3.126e-3
-1.304, 3.138e-3
-1.305, 3.143e-3
-1.306, 3.139e-3
-1.307, 3.148e-3
-1.308, 3.156e-3
-1.309, 3.152e-3
-1.310, 3.158e-3
-1.311, 3.169e-3
-1.312, 3.162e-3
-1.313, 3.156e-3
-1.314, 3.169e-3
-1.315, 3.173e-3
-1.316, 3.169e-3
-1.317, 3.178e-3
-1.318, 3.189e-3
-1.319, 3.185e-3
-1.320, 3.190e-3
-1.321, 3.205e-3
-1.322, 3.201e-3
-1.323, 3.197e-3
-1.324, 3.209e-3
-1.325, 3.215e-3
-1.326, 3.209e-3
-1.327, 3.215e-3
-1.328, 3.224e-3
-1.329, 3.225e-3
-1.330, 3.225e-3
-1.331, 3.234e-3
-1.332, 3.233e-3
-1.333, 3.231e-3
-1.334, 3.238e-3
-1.335, 3.237e-3
-1.336, 3.233e-3
-1.337, 3.247e-3
-1.338, 3.260e-3
-1.339, 3.260e-3
-1.340, 3.269e-3
-1.341, 3.285e-3
-1.342, 3.288e-3
-1.343, 3.294e-3
-1.344, 3.310e-3
-1.345, 3.316e-3
-1.346, 3.310e-3
-1.347, 3.315e-3
-1.348, 3.318e-3
-1.349, 3.309e-3
-1.350, 3.312e-3
-1.351, 3.326e-3
-1.352, 3.323e-3
-1.353, 3.329e-3
-1.354, 3.352e-3
-1.355, 3.368e-3
-1.356, 3.374e-3
-1.357, 3.387e-3
-1.358, 3.398e-3
-1.359, 3.394e-3
-1.360, 3.399e-3
-1.361, 3.413e-3
-1.362, 3.411e-3
-1.363, 3.412e-3
-1.364, 3.430e-3
-1.365, 3.441e-3
-1.366, 3.446e-3
-1.367, 3.465e-3
-1.368, 3.482e-3
-1.369, 3.487e-3
-1.370, 3.503e-3
-1.371, 3.524e-3
-1.372, 3.527e-3
-1.373, 3.526e-3
-1.374, 3.536e-3
-1.375, 3.544e-3
-1.376, 3.549e-3
-1.377, 3.567e-3
-1.378, 3.582e-3
-1.379, 3.586e-3
-1.380, 3.603e-3
-1.381, 3.627e-3
-1.382, 3.633e-3
-1.383, 3.640e-3
-1.384, 3.661e-3
-1.385, 3.679e-3
-1.386, 3.685e-3
-1.387, 3.703e-3
-1.388, 3.722e-3
-1.389, 3.725e-3
-1.390, 3.736e-3
-1.391, 3.760e-3
-1.392, 3.771e-3
-1.393, 3.783e-3
-1.394, 3.806e-3
-1.395, 3.820e-3
-1.396, 3.827e-3
-1.397, 3.847e-3
-1.398, 3.864e-3
-1.399, 3.869e-3
-1.400, 3.880e-3
-1.401, 3.901e-3
-1.402, 3.910e-3
-1.403, 3.920e-3
-1.404, 3.941e-3
-1.405, 3.951e-3
-1.406, 3.956e-3
-1.407, 3.975e-3
-1.408, 3.994e-3
-1.409, 4.001e-3
-1.410, 4.016e-3
-1.411, 4.038e-3
-1.412, 4.050e-3
-1.413, 4.062e-3
-1.414, 4.082e-3
-1.415, 4.095e-3
-1.416, 4.100e-3
-1.417, 4.120e-3
-1.418, 4.138e-3
-1.419, 4.143e-3
-1.420, 4.157e-3
-1.421, 4.179e-3
-1.422, 4.190e-3
-1.423, 4.202e-3
-1.424, 4.224e-3
-1.425, 4.238e-3
-1.426, 4.244e-3
-1.427, 4.264e-3
-1.428, 4.281e-3
-1.429, 4.285e-3
-1.430, 4.298e-3
-1.431, 4.320e-3
-1.432, 4.328e-3
-1.433, 4.341e-3
-1.434, 4.365e-3
-1.435, 4.380e-3
-1.436, 4.389e-3
-1.437, 4.412e-3
-1.438, 4.435e-3
-1.439, 4.445e-3
-1.440, 4.462e-3
-1.441, 4.489e-3
-1.442, 4.502e-3
-1.443, 4.515e-3
-1.444, 4.544e-3
-1.445, 4.563e-3
-1.446, 4.572e-3
-1.447, 4.598e-3
-1.448, 4.620e-3
-1.449, 4.630e-3
-1.450, 4.646e-3
-1.451, 4.671e-3
-1.452, 4.683e-3
-1.453, 4.697e-3
-1.454, 4.726e-3
-1.455, 4.745e-3
-1.456, 4.756e-3
-1.457, 4.784e-3
-1.458, 4.808e-3
-1.459, 4.820e-3
-1.460, 4.842e-3
-1.461, 4.870e-3
-1.462, 4.885e-3
-1.463, 4.901e-3
-1.464, 4.932e-3
-1.465, 4.954e-3
-1.466, 4.966e-3
-1.467, 4.993e-3
-1.468, 5.023e-3
-1.469, 5.040e-3
-1.470, 5.067e-3
-1.471, 5.104e-3
-1.472, 5.125e-3
-1.473, 5.147e-3
-1.474, 5.183e-3
-1.475, 5.213e-3
-1.476, 5.233e-3
-1.477, 5.263e-3
-1.478, 5.290e-3
-1.479, 5.306e-3
-1.480, 5.337e-3
-1.481, 5.373e-3
-1.482, 5.394e-3
-1.483, 5.414e-3
-1.484, 5.447e-3
-1.485, 5.472e-3
-1.486, 5.491e-3
-1.487, 5.523e-3
-1.488, 5.554e-3
-1.489, 5.577e-3
-1.490, 5.607e-3
-1.491, 5.641e-3
-1.492, 5.663e-3
-1.493, 5.686e-3
-1.494, 5.723e-3
-1.495, 5.752e-3
-1.496, 5.772e-3
-1.497, 5.810e-3
-1.498, 5.850e-3
-1.499, 5.874e-3
-1.500, 5.906e-3
-1.501, 5.946e-3
-1.502, 5.971e-3
-1.503, 5.997e-3
-1.504, 6.033e-3
-1.505, 6.066e-3
-1.506, 6.094e-3
-1.507, 6.133e-3
-1.508, 6.172e-3
-1.509, 6.200e-3
-1.510, 6.238e-3
-1.511, 6.281e-3
-1.512, 6.309e-3
-1.513, 6.342e-3
-1.514, 6.388e-3
-1.515, 6.423e-3
-1.516, 6.450e-3
-1.517, 6.490e-3
-1.518, 6.531e-3
-1.519, 6.560e-3
-1.520, 6.596e-3
-1.521, 6.644e-3
-1.522, 6.676e-3
-1.523, 6.710e-3
-1.524, 6.759e-3
-1.525, 6.800e-3
-1.526, 6.830e-3
-1.527, 6.873e-3
-1.528, 6.917e-3
-1.529, 6.949e-3
-1.530, 6.989e-3
-1.531, 7.041e-3
-1.532, 7.080e-3
-1.533, 7.117e-3
-1.534, 7.168e-3
-1.535, 7.213e-3
-1.536, 7.249e-3
-1.537, 7.301e-3
-1.538, 7.353e-3
-1.539, 7.393e-3
-1.540, 7.444e-3
-1.541, 7.501e-3
-1.542, 7.544e-3
-1.543, 7.587e-3
-1.544, 7.643e-3
-1.545, 7.697e-3
-1.546, 7.736e-3
-1.547, 7.793e-3
-1.548, 7.851e-3
-1.549, 7.895e-3
-1.550, 7.949e-3
-1.551, 8.006e-3
-1.552, 8.051e-3
-1.553, 8.098e-3
-1.554, 8.154e-3
-1.555, 8.207e-3
-1.556, 8.262e-3
-1.557, 8.326e-3
-1.558, 8.381e-3
-1.559, 8.427e-3
-1.560, 8.486e-3
-1.561, 8.554e-3
-1.562, 8.611e-3
-1.563, 8.667e-3
-1.564, 8.732e-3
-1.565, 8.791e-3
-1.566, 8.843e-3
-1.567, 8.910e-3
-1.568, 8.979e-3
-1.569, 9.039e-3
-1.570, 9.107e-3
-1.571, 9.186e-3
-1.572, 9.252e-3
-1.573, 9.312e-3
-1.574, 9.378e-3
-1.575, 9.439e-3
-1.576, 9.506e-3
-1.577, 9.598e-3
-1.578, 9.693e-3
-1.579, 9.767e-3
-1.580, 9.841e-3
-1.581, 9.915e-3
-1.582, 9.965e-3
-1.583, 1.001e-2
-1.584, 1.006e-2
-1.585, 1.012e-2
-1.586, 1.018e-2
-1.587, 1.025e-2
-1.588, 1.033e-2
-1.589, 1.040e-2
-1.590, 1.048e-2
-1.591, 1.057e-2
-1.592, 1.065e-2
-1.593, 1.072e-2
-1.594, 1.081e-2
-1.595, 1.090e-2
-1.596, 1.098e-2
-1.597, 1.107e-2
-1.598, 1.116e-2
-1.599, 1.123e-2
-1.600, 1.116e-2
-1.599, 1.099e-2
-1.598, 1.084e-2
-1.597, 1.070e-2
-1.596, 1.057e-2
-1.595, 1.046e-2
-1.594, 1.035e-2
-1.593, 1.025e-2
-1.592, 1.014e-2
-1.591, 1.002e-2
-1.590, 9.912e-3
-1.589, 9.813e-3
-1.588, 9.703e-3
-1.587, 9.596e-3
-1.586, 9.502e-3
-1.585, 9.404e-3
-1.584, 9.300e-3
-1.583, 9.209e-3
-1.582, 9.121e-3
-1.581, 9.025e-3
-1.580, 8.932e-3
-1.579, 8.847e-3
-1.578, 8.745e-3
-1.577, 8.643e-3
-1.576, 8.555e-3
-1.575, 8.460e-3
-1.574, 8.350e-3
-1.573, 8.256e-3
-1.572, 8.165e-3
-1.571, 8.065e-3
-1.570, 7.972e-3
-1.569, 7.889e-3
-1.568, 7.793e-3
-1.567, 7.699e-3
-1.566, 7.625e-3
-1.565, 7.545e-3
-1.564, 7.457e-3
-1.563, 7.382e-3
-1.562, 7.308e-3
-1.561, 7.220e-3
-1.560, 7.137e-3
-1.559, 7.064e-3
-1.558, 6.980e-3
-1.557, 6.898e-3
-1.556, 6.832e-3
-1.555, 6.761e-3
-1.554, 6.678e-3
-1.553, 6.607e-3
-1.552, 6.542e-3
-1.551, 6.465e-3
-1.550, 6.390e-3
-1.549, 6.327e-3
-1.548, 6.253e-3
-1.547, 6.179e-3
-1.546, 6.120e-3
-1.545, 6.056e-3
-1.544, 5.983e-3
-1.543, 5.927e-3
-1.542, 5.866e-3
-1.541, 5.791e-3
-1.540, 5.727e-3
-1.539, 5.674e-3
-1.538, 5.609e-3
-1.537, 5.541e-3
-1.536, 5.486e-3
-1.535, 5.426e-3
-1.534, 5.358e-3
-1.533, 5.304e-3
-1.532, 5.253e-3
-1.531, 5.191e-3
-1.530, 5.133e-3
-1.529, 5.084e-3
-1.528, 5.020e-3
-1.527, 4.957e-3
-1.526, 4.903e-3
-1.525, 4.845e-3
-1.524, 4.779e-3
-1.523, 4.728e-3
-1.522, 4.680e-3
-1.521, 4.619e-3
-1.520, 4.568e-3
-1.519, 4.526e-3
-1.518, 4.472e-3
-1.517, 4.417e-3
-1.516, 4.377e-3
-1.515, 4.333e-3
-1.514, 4.279e-3
-1.513, 4.236e-3
-1.512, 4.197e-3
-1.511, 4.143e-3
-1.510, 4.095e-3
-1.509, 4.058e-3
-1.508, 4.007e-3
-1.507, 3.956e-3
-1.506, 3.919e-3
-1.505, 3.879e-3
-1.504, 3.832e-3
-1.503, 3.794e-3
-1.502, 3.758e-3
-1.501, 3.711e-3
-1.500, 3.669e-3
-1.499, 3.638e-3
-1.498, 3.594e-3
-1.497, 3.550e-3
-1.496, 3.518e-3
-1.495, 3.481e-3
-1.494, 3.437e-3
-1.493, 3.405e-3
-1.492, 3.372e-3
-1.491, 3.326e-3
-1.490, 3.290e-3
-1.489, 3.262e-3
-1.488, 3.223e-3
-1.487, 3.181e-3
-1.486, 3.153e-3
-1.485, 3.121e-3
-1.484, 3.080e-3
-1.483, 3.053e-3
-1.482, 3.026e-3
-1.481, 2.986e-3
-1.480, 2.953e-3
-1.479, 2.928e-3
-1.478, 2.891e-3
-1.477, 2.854e-3
-1.476, 2.829e-3
-1.475, 2.800e-3
-1.474, 2.760e-3
-1.473, 2.736e-3
-1.472, 2.713e-3
-1.471, 2.676e-3
-1.470, 2.645e-3
-1.469, 2.627e-3
-1.468, 2.594e-3
-1.467, 2.560e-3
-1.466, 2.539e-3
-1.465, 2.511e-3
-1.464, 2.476e-3
-1.463, 2.455e-3
-1.462, 2.435e-3
-1.461, 2.401e-3
-1.460, 2.372e-3
-1.459, 2.355e-3
-1.458, 2.326e-3
-1.457, 2.296e-3
-1.456, 2.280e-3
-1.455, 2.257e-3
-1.454, 2.225e-3
-1.453, 2.206e-3
-1.452, 2.188e-3
-1.451, 2.159e-3
-1.450, 2.136e-3
-1.449, 2.121e-3
-1.448, 2.093e-3
-1.447, 2.068e-3
-1.446, 2.053e-3
-1.445, 2.033e-3
-1.444, 2.005e-3
-1.443, 1.988e-3
-1.442, 1.972e-3
-1.441, 1.942e-3
-1.440, 1.920e-3
-1.439, 1.904e-3
-1.438, 1.879e-3
-1.437, 1.856e-3
-1.436, 1.843e-3
-1.435, 1.824e-3
-1.434, 1.795e-3
-1.433, 1.778e-3
-1.432, 1.765e-3
-1.431, 1.737e-3
-1.430, 1.717e-3
-1.429, 1.708e-3
-1.428, 1.686e-3
-1.427, 1.663e-3
-1.426, 1.653e-3
-1.425, 1.637e-3
-1.424, 1.612e-3
-1.423, 1.598e-3
-1.422, 1.587e-3
-1.421, 1.561e-3
-1.420, 1.542e-3
-1.419, 1.535e-3
-1.418, 1.515e-3
-1.417, 1.490e-3
-1.416, 1.481e-3
-1.415, 1.466e-3
-1.414, 1.441e-3
-1.413, 1.429e-3
-1.412, 1.418e-3
-1.411, 1.396e-3
-1.410, 1.379e-3
-1.409, 1.369e-3
-1.408, 1.351e-3
-1.407, 1.331e-3
-1.406, 1.321e-3
-1.405, 1.304e-3
-1.404, 1.281e-3
-1.403, 1.272e-3
-1.402, 1.265e-3
-1.401, 1.245e-3
-1.400, 1.233e-3
-1.399, 1.229e-3
-1.398, 1.211e-3
-1.397, 1.192e-3
-1.396, 1.185e-3
-1.395, 1.172e-3
-1.394, 1.149e-3
-1.393, 1.139e-3
-1.392, 1.132e-3
-1.391, 1.113e-3
-1.390, 1.098e-3
-1.389, 1.094e-3
-1.388, 1.079e-3
-1.387, 1.061e-3
-1.386, 1.056e-3
-1.385, 1.046e-3
-1.384, 1.025e-3
-1.383, 1.017e-3
-1.382, 1.010e-3
-1.381, 9.894e-4
-1.380, 9.748e-4
-1.379, 9.698e-4
-1.378, 9.538e-4
-1.377, 9.360e-4
-1.376, 9.313e-4
-1.375, 9.207e-4
-1.374, 9.006e-4
-1.373, 8.919e-4
-1.372, 8.830e-4
-1.371, 8.678e-4
-1.370, 8.592e-4
-1.369, 8.548e-4
-1.368, 8.356e-4
-1.367, 8.184e-4
-1.366, 8.193e-4
-1.365, 8.078e-4
-1.364, 7.864e-4
-1.363, 7.797e-4
-1.362, 7.795e-4
-1.361, 7.630e-4
-1.360, 7.528e-4
-1.359, 7.527e-4
-1.358, 7.381e-4
-1.357, 7.220e-4
-1.356, 7.186e-4
-1.355, 7.097e-4
-1.354, 6.930e-4
-1.353, 6.869e-4
-1.352, 6.853e-4
-1.351, 6.682e-4
-1.350, 6.574e-4
-1.349, 6.550e-4
-1.348, 6.401e-4
-1.347, 6.250e-4
-1.346, 6.225e-4
-1.345, 6.138e-4
-1.344, 5.975e-4
-1.343, 5.941e-4
-1.342, 5.922e-4
-1.341, 5.764e-4
-1.340, 5.662e-4
-1.339, 5.668e-4
-1.338, 5.534e-4
-1.337, 5.384e-4
-1.336, 5.384e-4
-1.335, 5.302e-4
-1.334, 5.147e-4
-1.333, 5.141e-4
-1.332, 5.116e-4
-1.331, 4.945e-4
-1.330, 4.845e-4
-1.329, 4.851e-4
-1.328, 4.730e-4
-1.327, 4.611e-4
-1.326, 4.624e-4
-1.325, 4.591e-4
-1.324, 4.444e-4
-1.323, 4.405e-4
-1.322, 4.372e-4
-1.321, 4.213e-4
-1.320, 4.130e-4
-1.319, 4.136e-4
-1.318, 4.021e-4
-1.317, 3.902e-4
-1.316, 3.911e-4
-1.315, 3.879e-4
-1.314, 3.737e-4
-1.313, 3.702e-4
-1.312, 3.686e-4
-1.311, 3.531e-4
-1.310, 3.457e-4
-1.309, 3.492e-4
-1.308, 3.404e-4
-1.307, 3.299e-4
-1.306, 3.309e-4
-1.305, 3.275e-4
-1.304, 3.152e-4
-1.303, 3.133e-4
-1.302, 3.117e-4
-1.301, 2.983e-4
-1.300, 2.905e-4
-1.299, 2.925e-4
-1.298, 2.840e-4
-1.297, 2.732e-4
-1.296, 2.764e-4
-1.295, 2.723e-4
-1.294, 2.614e-4
-1.293, 2.624e-4
-1.292, 2.629e-4
-1.291, 2.504e-4
-1.290, 2.437e-4
-1.289, 2.459e-4
-1.288, 2.384e-4
-1.287, 2.276e-4
-1.286, 2.341e-4
-1.285, 2.412e-4
-1.284, 2.244e-4
-1.283, 2.247e-4
-1.282, 2.265e-4
-1.281, 2.130e-4
-1.280, 2.036e-4
-1.279, 2.068e-4
-1.278, 1.975e-4
-1.277, 1.893e-4
-1.276, 1.936e-4
-1.275, 1.910e-4
-1.274, 1.777e-4
-1.273, 1.796e-4
-1.272, 1.887e-4
-1.271, 1.821e-4
-1.270, 1.776e-4
-1.269, 1.776e-4
-1.268, 1.579e-4
-1.267, 1.425e-4
-1.266, 1.462e-4
-1.265, 1.417e-4
-1.264, 1.291e-4
-1.263, 1.309e-4
-1.262, 1.351e-4
-1.261, 1.262e-4
-1.260, 1.239e-4
-1.259, 1.331e-4
-1.258, 1.308e-4
-1.257, 1.263e-4
-1.256, 1.335e-4
-1.255, 1.336e-4
-1.254, 1.212e-4
-1.253, 1.208e-4
-1.252, 1.215e-4
-1.251, 1.086e-4
-1.250, 1.017e-4
-1.249, 1.073e-4
-1.248, 1.020e-4
-1.247, 9.371e-5
-1.246, 9.671e-5
-1.245, 9.369e-5
-1.244, 8.047e-5
-1.243, 8.049e-5
-1.242, 8.219e-5
-1.241, 7.070e-5
-1.240, 6.611e-5
-1.239, 7.371e-5
-1.238, 7.035e-5
-1.237, 6.250e-5
-1.236, 6.573e-5
-1.235, 6.552e-5
-1.234, 5.609e-5
-1.233, 5.740e-5
-1.232, 6.294e-5
-1.231, 5.318e-5
-1.230, 4.852e-5
-1.229, 5.303e-5
-1.228, 4.802e-5
-1.227, 4.165e-5
-1.226, 4.877e-5
-1.225, 4.723e-5
-1.224, 3.668e-5
-1.223, 3.818e-5
-1.222, 4.157e-5
-1.221, 3.146e-5
-1.220, 2.684e-5
-1.219, 3.157e-5
-1.218, 2.632e-5
-1.217, 1.934e-5
-1.216, 2.685e-5
-1.215, 2.568e-5
-1.214, 1.286e-5
-1.213, 1.410e-5
-1.212, 1.679e-5
-1.211, 6.736e-6
-1.210, 1.310e-6
-1.209, 3.056e-6
-1.208, -2.261e-6
-1.207, -5.478e-6
-1.206, 3.875e-6
-1.205, 7.506e-6
-1.204, -2.074e-6
-1.203, -2.171e-8
-1.202, 1.320e-6
-1.201, -1.275e-5
-1.200, -2.082e-5
-1.199, -1.771e-5
-1.198, -2.649e-5
-1.197, -3.686e-5
-1.196, -3.244e-5
-1.195, -3.307e-5
-1.194, -4.575e-5
-1.193, -4.545e-5
-1.192, -3.901e-5
-1.191, -4.663e-5
-1.190, -4.922e-5
-1.189, -4.182e-5
-1.188, -4.769e-5
-1.187, -5.572e-5
-1.186, -5.153e-5
-1.185, -5.442e-5
-1.184, -6.855e-5
-1.183, -7.258e-5
-1.182, -7.143e-5
-1.181, -8.091e-5
-1.180, -8.587e-5
-1.179, -7.986e-5
-1.178, -8.820e-5
-1.177, -9.988e-5
-1.176, -9.457e-5
-1.175, -9.592e-5
-1.174, -1.106e-4
-1.173, -1.131e-4
-1.172, -1.133e-4
-1.171, -1.268e-4
-1.170, -1.348e-4
-1.169, -1.308e-4
-1.168, -1.364e-4
-1.167, -1.482e-4
-1.166, -1.440e-4
-1.165, -1.447e-4
-1.164, -1.589e-4
-1.163, -1.603e-4
-1.162, -1.594e-4
-1.161, -1.722e-4
-1.160, -1.784e-4
-1.159, -1.762e-4
-1.158, -1.877e-4
-1.157, -2.000e-4
-1.156, -1.991e-4
-1.155, -2.046e-4
-1.154, -2.197e-4
-1.153, -2.230e-4
-1.152, -2.216e-4
-1.151, -2.342e-4
-1.150, -2.429e-4
-1.149, -2.393e-4
-1.148, -2.490e-4
-1.147, -2.637e-4
-1.146, -2.666e-4
-1.145, -2.746e-4
-1.144, -2.899e-4
-1.143, -2.972e-4
-1.142, -3.009e-4
-1.141, -3.154e-4
-1.140, -3.251e-4
-1.139, -3.245e-4
-1.138, -3.360e-4
-1.137, -3.512e-4
-1.136, -3.507e-4
-1.135, -3.575e-4
-1.134, -3.730e-4
-1.133, -3.774e-4
-1.132, -3.814e-4
-1.131, -3.987e-4
-1.130, -4.091e-4
-1.129, -4.098e-4
-1.128, -4.241e-4
-1.127, -4.425e-4
-1.126, -4.443e-4
-1.125, -4.533e-4
-1.124, -4.728e-4
-1.123, -4.797e-4
-1.122, -4.829e-4
-1.121, -5.014e-4
-1.120, -5.132e-4
-1.119, -5.157e-4
-1.118, -5.293e-4
-1.117, -5.450e-4
-1.116, -5.495e-4
-1.115, -5.582e-4
-1.114, -5.763e-4
-1.113, -5.865e-4
-1.112, -5.918e-4
-1.111, -6.125e-4
-1.110, -6.279e-4
-1.109, -6.306e-4
-1.108, -6.460e-4
-1.107, -6.662e-4
-1.106, -6.714e-4
-1.105, -6.818e-4
-1.104, -7.020e-4
-1.103, -7.123e-4
-1.102, -7.186e-4
-1.101, -7.373e-4
-1.100, -7.517e-4
-1.099, -7.562e-4
-1.098, -7.716e-4
-1.097, -7.903e-4
-1.096, -7.954e-4
-1.095, -8.074e-4
-1.094, -8.286e-4
-1.093, -8.402e-4
-1.092, -8.460e-4
-1.091, -8.645e-4
-1.090, -8.814e-4
-1.089, -8.863e-4
-1.088, -9.015e-4
-1.087, -9.223e-4
-1.086, -9.285e-4
-1.085, -9.381e-4
-1.084, -9.631e-4
-1.083, -9.755e-4
-1.082, -9.754e-4
-1.081, -9.899e-4
-1.080, -1.003e-3
-1.079, -1.006e-3
-1.078, -1.019e-3
-1.077, -1.040e-3
-1.076, -1.047e-3
-1.075, -1.064e-3
-1.074, -1.091e-3
-1.073, -1.100e-3
-1.072, -1.106e-3
-1.071, -1.127e-3
-1.070, -1.142e-3
-1.069, -1.145e-3
-1.068, -1.159e-3
-1.067, -1.178e-3
-1.066, -1.182e-3
-1.065, -1.189e-3
-1.064, -1.206e-3
-1.063, -1.213e-3
-1.062, -1.215e-3
-1.061, -1.232e-3
-1.060, -1.247e-3
-1.059, -1.251e-3
-1.058, -1.267e-3
-1.057, -1.287e-3
-1.056, -1.292e-3
-1.055, -1.299e-3
-1.054, -1.317e-3
-1.053, -1.325e-3
-1.052, -1.328e-3
-1.051, -1.343e-3
-1.050, -1.355e-3
-1.049, -1.354e-3
-1.048, -1.362e-3
-1.047, -1.377e-3
-1.046, -1.381e-3
-1.045, -1.386e-3
-1.044, -1.401e-3
-1.043, -1.405e-3
-1.042, -1.402e-3
-1.041, -1.413e-3
-1.040, -1.419e-3
-1.039, -1.417e-3
-1.038, -1.424e-3
-1.037, -1.434e-3
-1.036, -1.432e-3
-1.035, -1.434e-3
-1.034, -1.448e-3
-1.033, -1.453e-3
-1.032, -1.448e-3
-1.031, -1.458e-3
-1.030, -1.463e-3
-1.029, -1.456e-3
-1.028, -1.460e-3
-1.027, -1.468e-3
-1.026, -1.460e-3
-1.025, -1.457e-3
-1.024, -1.465e-3
-1.023, -1.460e-3
-1.022, -1.448e-3
-1.021, -1.450e-3
-1.020, -1.447e-3
-1.019, -1.431e-3
-1.018, -1.427e-3
-1.017, -1.427e-3
-1.016, -1.411e-3
-1.015, -1.400e-3
-1.014, -1.401e-3
-1.013, -1.390e-3
-1.012, -1.374e-3
-1.011, -1.371e-3
-1.010, -1.362e-3
-1.009, -1.341e-3
-1.008, -1.330e-3
-1.007, -1.325e-3
-1.006, -1.305e-3
-1.005, -1.288e-3
-1.004, -1.283e-3
-1.003, -1.265e-3
-1.002, -1.242e-3
-1.001, -1.235e-3
