July 13, 2024   10:55:01
Cyclic Voltammetry
File: c:/users/guazh/data/20240709_batch67/2024-07-10-exp31\exp31-2024-07-13t10_42_43-h2koh\exp31_cv_sr_800mvs_efin_-1500mv.bin
Data Source:  Experiment
Instrument Model:  CHI760E
Header: CV ran at 800 mVs
Note: 

Init E (V) = -1
High E (V) = -1
Low E (V) = -1.5
Final E (V) = -1
Init P/N = N
Scan Rate (V/s) = 0.8
Segment = 3
Sample Interval (V) = 0.001
Quiet Time (sec) = 2
Sensitivity (A/V) = 0.01
Comp R (ohm) = 1.8

Results:

Channel 1:
Segment 1:

Segment 2:

Segment 3:

Potential/V, Current/A

-1.000, 5.257e-5
-1.001, 1.574e-4
-1.002, 2.221e-4
-1.003, 2.591e-4
-1.004, 2.869e-4
-1.005, 2.992e-4
-1.006, 3.177e-4
-1.007, 3.270e-4
-1.008, 3.393e-4
-1.009, 3.516e-4
-1.010, 3.609e-4
-1.011, 3.670e-4
-1.012, 3.794e-4
-1.013, 3.794e-4
-1.014, 3.855e-4
-1.015, 3.794e-4
-1.016, 3.732e-4
-1.017, 3.732e-4
-1.018, 3.701e-4
-1.019, 3.670e-4
-1.020, 3.701e-4
-1.021, 3.701e-4
-1.022, 3.763e-4
-1.023, 3.825e-4
-1.024, 3.917e-4
-1.025, 3.979e-4
-1.026, 3.979e-4
-1.027, 4.010e-4
-1.028, 3.948e-4
-1.029, 3.886e-4
-1.030, 3.855e-4
-1.031, 3.825e-4
-1.032, 3.763e-4
-1.033, 3.794e-4
-1.034, 3.763e-4
-1.035, 3.855e-4
-1.036, 3.948e-4
-1.037, 3.979e-4
-1.038, 4.010e-4
-1.039, 4.071e-4
-1.040, 4.040e-4
-1.041, 4.040e-4
-1.042, 4.010e-4
-1.043, 3.948e-4
-1.044, 3.917e-4
-1.045, 3.825e-4
-1.046, 3.855e-4
-1.047, 3.855e-4
-1.048, 3.886e-4
-1.049, 3.979e-4
-1.050, 4.010e-4
-1.051, 4.071e-4
-1.052, 4.164e-4
-1.053, 4.133e-4
-1.054, 4.164e-4
-1.055, 4.071e-4
-1.056, 4.010e-4
-1.057, 3.979e-4
-1.058, 3.948e-4
-1.059, 3.917e-4
-1.060, 3.948e-4
-1.061, 3.917e-4
-1.062, 4.010e-4
-1.063, 4.040e-4
-1.064, 4.102e-4
-1.065, 4.195e-4
-1.066, 4.164e-4
-1.067, 4.164e-4
-1.068, 4.133e-4
-1.069, 4.102e-4
-1.070, 4.040e-4
-1.071, 4.010e-4
-1.072, 3.917e-4
-1.073, 3.979e-4
-1.074, 3.948e-4
-1.075, 4.040e-4
-1.076, 4.102e-4
-1.077, 4.164e-4
-1.078, 4.195e-4
-1.079, 4.225e-4
-1.080, 4.195e-4
-1.081, 4.225e-4
-1.082, 4.164e-4
-1.083, 4.102e-4
-1.084, 4.071e-4
-1.085, 3.979e-4
-1.086, 4.010e-4
-1.087, 4.010e-4
-1.088, 4.071e-4
-1.089, 4.133e-4
-1.090, 4.164e-4
-1.091, 4.195e-4
-1.092, 4.318e-4
-1.093, 4.256e-4
-1.094, 4.287e-4
-1.095, 4.225e-4
-1.096, 4.164e-4
-1.097, 4.133e-4
-1.098, 4.071e-4
-1.099, 4.071e-4
-1.100, 4.102e-4
-1.101, 4.102e-4
-1.102, 4.164e-4
-1.103, 4.225e-4
-1.104, 4.256e-4
-1.105, 4.349e-4
-1.106, 4.318e-4
-1.107, 4.349e-4
-1.108, 4.287e-4
-1.109, 4.225e-4
-1.110, 4.225e-4
-1.111, 4.164e-4
-1.112, 4.071e-4
-1.113, 4.133e-4
-1.114, 4.133e-4
-1.115, 4.195e-4
-1.116, 4.256e-4
-1.117, 4.287e-4
-1.118, 4.380e-4
-1.119, 4.380e-4
-1.120, 4.380e-4
-1.121, 4.380e-4
-1.122, 4.318e-4
-1.123, 4.287e-4
-1.124, 4.256e-4
-1.125, 4.164e-4
-1.126, 4.195e-4
-1.127, 4.195e-4
-1.128, 4.256e-4
-1.129, 4.287e-4
-1.130, 4.349e-4
-1.131, 4.410e-4
-1.132, 4.472e-4
-1.133, 4.441e-4
-1.134, 4.472e-4
-1.135, 4.380e-4
-1.136, 4.318e-4
-1.137, 4.318e-4
-1.138, 4.256e-4
-1.139, 4.225e-4
-1.140, 4.256e-4
-1.141, 4.256e-4
-1.142, 4.349e-4
-1.143, 4.380e-4
-1.144, 4.441e-4
-1.145, 4.503e-4
-1.146, 4.503e-4
-1.147, 4.503e-4
-1.148, 4.472e-4
-1.149, 4.380e-4
-1.150, 4.380e-4
-1.151, 4.349e-4
-1.152, 4.287e-4
-1.153, 4.318e-4
-1.154, 4.318e-4
-1.155, 4.380e-4
-1.156, 4.472e-4
-1.157, 4.503e-4
-1.158, 4.565e-4
-1.159, 4.595e-4
-1.160, 4.565e-4
-1.161, 4.595e-4
-1.162, 4.534e-4
-1.163, 4.503e-4
-1.164, 4.441e-4
-1.165, 4.380e-4
-1.166, 4.410e-4
-1.167, 4.410e-4
-1.168, 4.441e-4
-1.169, 4.534e-4
-1.170, 4.565e-4
-1.171, 4.626e-4
-1.172, 4.719e-4
-1.173, 4.688e-4
-1.174, 4.719e-4
-1.175, 4.657e-4
-1.176, 4.595e-4
-1.177, 4.595e-4
-1.178, 4.534e-4
-1.179, 4.503e-4
-1.180, 4.534e-4
-1.181, 4.503e-4
-1.182, 4.595e-4
-1.183, 4.688e-4
-1.184, 4.719e-4
-1.185, 4.811e-4
-1.186, 4.811e-4
-1.187, 4.811e-4
-1.188, 4.780e-4
-1.189, 4.688e-4
-1.190, 4.688e-4
-1.191, 4.657e-4
-1.192, 4.595e-4
-1.193, 4.626e-4
-1.194, 4.595e-4
-1.195, 4.688e-4
-1.196, 4.780e-4
-1.197, 4.842e-4
-1.198, 4.904e-4
-1.199, 4.904e-4
-1.200, 4.904e-4
-1.201, 4.904e-4
-1.202, 4.873e-4
-1.203, 4.811e-4
-1.204, 4.780e-4
-1.205, 4.719e-4
-1.206, 4.750e-4
-1.207, 4.750e-4
-1.208, 4.811e-4
-1.209, 4.873e-4
-1.210, 4.935e-4
-1.211, 4.965e-4
-1.212, 5.058e-4
-1.213, 5.058e-4
-1.214, 5.089e-4
-1.215, 5.027e-4
-1.216, 4.965e-4
-1.217, 4.935e-4
-1.218, 4.904e-4
-1.219, 4.904e-4
-1.220, 4.935e-4
-1.221, 4.935e-4
-1.222, 4.996e-4
-1.223, 5.058e-4
-1.224, 5.150e-4
-1.225, 5.243e-4
-1.226, 5.243e-4
-1.227, 5.243e-4
-1.228, 5.212e-4
-1.229, 5.212e-4
-1.230, 5.181e-4
-1.231, 5.150e-4
-1.232, 5.089e-4
-1.233, 5.120e-4
-1.234, 5.089e-4
-1.235, 5.181e-4
-1.236, 5.305e-4
-1.237, 5.335e-4
-1.238, 5.428e-4
-1.239, 5.428e-4
-1.240, 5.459e-4
-1.241, 5.459e-4
-1.242, 5.428e-4
-1.243, 5.397e-4
-1.244, 5.397e-4
-1.245, 5.305e-4
-1.246, 5.366e-4
-1.247, 5.366e-4
-1.248, 5.459e-4
-1.249, 5.520e-4
-1.250, 5.582e-4
-1.251, 5.644e-4
-1.252, 5.736e-4
-1.253, 5.736e-4
-1.254, 5.798e-4
-1.255, 5.736e-4
-1.256, 5.705e-4
-1.257, 5.705e-4
-1.258, 5.644e-4
-1.259, 5.674e-4
-1.260, 5.705e-4
-1.261, 5.736e-4
-1.262, 5.798e-4
-1.263, 5.890e-4
-1.264, 5.983e-4
-1.265, 6.075e-4
-1.266, 6.075e-4
-1.267, 6.106e-4
-1.268, 6.106e-4
-1.269, 6.044e-4
-1.270, 6.075e-4
-1.271, 6.044e-4
-1.272, 6.014e-4
-1.273, 6.075e-4
-1.274, 6.075e-4
-1.275, 6.168e-4
-1.276, 6.260e-4
-1.277, 6.353e-4
-1.278, 6.445e-4
-1.279, 6.507e-4
-1.280, 6.538e-4
-1.281, 6.599e-4
-1.282, 6.569e-4
-1.283, 6.538e-4
-1.284, 6.538e-4
-1.285, 6.476e-4
-1.286, 6.569e-4
-1.287, 6.599e-4
-1.288, 6.692e-4
-1.289, 6.784e-4
-1.290, 6.877e-4
-1.291, 6.969e-4
-1.292, 7.093e-4
-1.293, 7.124e-4
-1.294, 7.185e-4
-1.295, 7.154e-4
-1.296, 7.154e-4
-1.297, 7.185e-4
-1.298, 7.154e-4
-1.299, 7.185e-4
-1.300, 7.247e-4
-1.301, 7.309e-4
-1.302, 7.432e-4
-1.303, 7.524e-4
-1.304, 7.648e-4
-1.305, 7.802e-4
-1.306, 7.833e-4
-1.307, 7.894e-4
-1.308, 7.894e-4
-1.309, 7.925e-4
-1.310, 7.925e-4
-1.311, 7.987e-4
-1.312, 7.956e-4
-1.313, 8.048e-4
-1.314, 8.110e-4
-1.315, 8.264e-4
-1.316, 8.388e-4
-1.317, 8.511e-4
-1.318, 8.634e-4
-1.319, 8.727e-4
-1.320, 8.788e-4
-1.321, 8.850e-4
-1.322, 8.881e-4
-1.323, 8.943e-4
-1.324, 9.004e-4
-1.325, 8.973e-4
-1.326, 9.097e-4
-1.327, 9.189e-4
-1.328, 9.313e-4
-1.329, 9.467e-4
-1.330, 9.590e-4
-1.331, 9.713e-4
-1.332, 9.898e-4
-1.333, 9.960e-4
-1.334, 1.011e-3
-1.335, 1.014e-3
-1.336, 1.018e-3
-1.337, 1.024e-3
-1.338, 1.027e-3
-1.339, 1.036e-3
-1.340, 1.048e-3
-1.341, 1.061e-3
-1.342, 1.079e-3
-1.343, 1.095e-3
-1.344, 1.110e-3
-1.345, 1.132e-3
-1.346, 1.141e-3
-1.347, 1.156e-3
-1.348, 1.162e-3
-1.349, 1.166e-3
-1.350, 1.178e-3
-1.351, 1.187e-3
-1.352, 1.190e-3
-1.353, 1.206e-3
-1.354, 1.218e-3
-1.355, 1.236e-3
-1.356, 1.255e-3
-1.357, 1.273e-3
-1.358, 1.295e-3
-1.359, 1.310e-3
-1.360, 1.323e-3
-1.361, 1.341e-3
-1.362, 1.347e-3
-1.363, 1.360e-3
-1.364, 1.369e-3
-1.365, 1.378e-3
-1.366, 1.394e-3
-1.367, 1.409e-3
-1.368, 1.428e-3
-1.369, 1.452e-3
-1.370, 1.471e-3
-1.371, 1.489e-3
-1.372, 1.514e-3
-1.373, 1.529e-3
-1.374, 1.548e-3
-1.375, 1.563e-3
-1.376, 1.573e-3
-1.377, 1.588e-3
-1.378, 1.597e-3
-1.379, 1.616e-3
-1.380, 1.634e-3
-1.381, 1.653e-3
-1.382, 1.677e-3
-1.383, 1.702e-3
-1.384, 1.727e-3
-1.385, 1.754e-3
-1.386, 1.773e-3
-1.387, 1.791e-3
-1.388, 1.810e-3
-1.389, 1.822e-3
-1.390, 1.841e-3
-1.391, 1.856e-3
-1.392, 1.872e-3
-1.393, 1.896e-3
-1.394, 1.915e-3
-1.395, 1.943e-3
-1.396, 1.973e-3
-1.397, 1.998e-3
-1.398, 2.029e-3
-1.399, 2.050e-3
-1.400, 2.072e-3
-1.401, 2.097e-3
-1.402, 2.115e-3
-1.403, 2.134e-3
-1.404, 2.155e-3
-1.405, 2.171e-3
-1.406, 2.195e-3
-1.407, 2.220e-3
-1.408, 2.248e-3
-1.409, 2.279e-3
-1.410, 2.309e-3
-1.411, 2.337e-3
-1.412, 2.371e-3
-1.413, 2.396e-3
-1.414, 2.427e-3
-1.415, 2.448e-3
-1.416, 2.467e-3
-1.417, 2.488e-3
-1.418, 2.510e-3
-1.419, 2.538e-3
-1.420, 2.565e-3
-1.421, 2.593e-3
-1.422, 2.627e-3
-1.423, 2.658e-3
-1.424, 2.692e-3
-1.425, 2.729e-3
-1.426, 2.756e-3
-1.427, 2.787e-3
-1.428, 2.815e-3
-1.429, 2.840e-3
-1.430, 2.867e-3
-1.431, 2.895e-3
-1.432, 2.923e-3
-1.433, 2.960e-3
-1.434, 2.991e-3
-1.435, 3.025e-3
-1.436, 3.065e-3
-1.437, 3.102e-3
-1.438, 3.142e-3
-1.439, 3.179e-3
-1.440, 3.213e-3
-1.441, 3.247e-3
-1.442, 3.278e-3
-1.443, 3.311e-3
-1.444, 3.339e-3
-1.445, 3.364e-3
-1.446, 3.401e-3
-1.447, 3.435e-3
-1.448, 3.478e-3
-1.449, 3.524e-3
-1.450, 3.564e-3
-1.451, 3.607e-3
-1.452, 3.651e-3
-1.453, 3.684e-3
-1.454, 3.728e-3
-1.455, 3.755e-3
-1.456, 3.789e-3
-1.457, 3.826e-3
-1.458, 3.854e-3
-1.459, 3.894e-3
-1.460, 3.934e-3
-1.461, 3.974e-3
-1.462, 4.017e-3
-1.463, 4.061e-3
-1.464, 4.107e-3
-1.465, 4.159e-3
-1.466, 4.196e-3
-1.467, 4.239e-3
-1.468, 4.276e-3
-1.469, 4.313e-3
-1.470, 4.354e-3
-1.471, 4.391e-3
-1.472, 4.428e-3
-1.473, 4.471e-3
-1.474, 4.511e-3
-1.475, 4.557e-3
-1.476, 4.606e-3
-1.477, 4.656e-3
-1.478, 4.705e-3
-1.479, 4.751e-3
-1.480, 4.794e-3
-1.481, 4.841e-3
-1.482, 4.878e-3
-1.483, 4.921e-3
-1.484, 4.961e-3
-1.485, 4.998e-3
-1.486, 5.044e-3
-1.487, 5.087e-3
-1.488, 5.137e-3
-1.489, 5.189e-3
-1.490, 5.235e-3
-1.491, 5.285e-3
-1.492, 5.340e-3
-1.493, 5.386e-3
-1.494, 5.436e-3
-1.495, 5.476e-3
-1.496, 5.516e-3
-1.497, 5.562e-3
-1.498, 5.599e-3
-1.499, 5.645e-3
-1.500, 5.587e-3
-1.499, 5.399e-3
-1.498, 5.263e-3
-1.497, 5.155e-3
-1.496, 5.063e-3
-1.495, 4.979e-3
-1.494, 4.890e-3
-1.493, 4.810e-3
-1.492, 4.723e-3
-1.491, 4.640e-3
-1.490, 4.557e-3
-1.489, 4.477e-3
-1.488, 4.397e-3
-1.487, 4.323e-3
-1.486, 4.249e-3
-1.485, 4.184e-3
-1.484, 4.119e-3
-1.483, 4.058e-3
-1.482, 3.996e-3
-1.481, 3.931e-3
-1.480, 3.869e-3
-1.479, 3.805e-3
-1.478, 3.737e-3
-1.477, 3.672e-3
-1.476, 3.607e-3
-1.475, 3.540e-3
-1.474, 3.484e-3
-1.473, 3.422e-3
-1.472, 3.370e-3
-1.471, 3.321e-3
-1.470, 3.268e-3
-1.469, 3.216e-3
-1.468, 3.170e-3
-1.467, 3.117e-3
-1.466, 3.068e-3
-1.465, 3.009e-3
-1.464, 2.954e-3
-1.463, 2.901e-3
-1.462, 2.843e-3
-1.461, 2.793e-3
-1.460, 2.744e-3
-1.459, 2.701e-3
-1.458, 2.658e-3
-1.457, 2.615e-3
-1.456, 2.575e-3
-1.455, 2.538e-3
-1.454, 2.494e-3
-1.453, 2.454e-3
-1.452, 2.405e-3
-1.451, 2.356e-3
-1.450, 2.312e-3
-1.449, 2.269e-3
-1.448, 2.223e-3
-1.447, 2.183e-3
-1.446, 2.140e-3
-1.445, 2.106e-3
-1.444, 2.075e-3
-1.443, 2.041e-3
-1.442, 2.010e-3
-1.441, 1.973e-3
-1.440, 1.939e-3
-1.439, 1.899e-3
-1.438, 1.859e-3
-1.437, 1.822e-3
-1.436, 1.779e-3
-1.435, 1.739e-3
-1.434, 1.708e-3
-1.433, 1.671e-3
-1.432, 1.643e-3
-1.431, 1.619e-3
-1.430, 1.588e-3
-1.429, 1.563e-3
-1.428, 1.532e-3
-1.427, 1.505e-3
-1.426, 1.474e-3
-1.425, 1.440e-3
-1.424, 1.403e-3
-1.423, 1.369e-3
-1.422, 1.335e-3
-1.421, 1.307e-3
-1.420, 1.277e-3
-1.419, 1.252e-3
-1.418, 1.230e-3
-1.417, 1.209e-3
-1.416, 1.190e-3
-1.415, 1.169e-3
-1.414, 1.141e-3
-1.413, 1.119e-3
-1.412, 1.088e-3
-1.411, 1.058e-3
-1.410, 1.027e-3
-1.409, 9.991e-4
-1.408, 9.744e-4
-1.407, 9.528e-4
-1.406, 9.282e-4
-1.405, 9.097e-4
-1.404, 8.912e-4
-1.403, 8.758e-4
-1.402, 8.634e-4
-1.401, 8.388e-4
-1.400, 8.172e-4
-1.399, 7.925e-4
-1.398, 7.679e-4
-1.397, 7.463e-4
-1.396, 7.185e-4
-1.395, 6.908e-4
-1.394, 6.754e-4
-1.393, 6.538e-4
-1.392, 6.414e-4
-1.391, 6.291e-4
-1.390, 6.137e-4
-1.389, 6.014e-4
-1.388, 5.859e-4
-1.387, 5.674e-4
-1.386, 5.520e-4
-1.385, 5.305e-4
-1.384, 5.058e-4
-1.383, 4.842e-4
-1.382, 4.595e-4
-1.381, 4.472e-4
-1.380, 4.287e-4
-1.379, 4.195e-4
-1.378, 4.071e-4
-1.377, 3.979e-4
-1.376, 3.855e-4
-1.375, 3.794e-4
-1.374, 3.640e-4
-1.373, 3.516e-4
-1.372, 3.270e-4
-1.371, 3.085e-4
-1.370, 2.931e-4
-1.369, 2.746e-4
-1.368, 2.561e-4
-1.367, 2.437e-4
-1.366, 2.314e-4
-1.365, 2.252e-4
-1.364, 2.160e-4
-1.363, 2.098e-4
-1.362, 2.067e-4
-1.361, 1.913e-4
-1.360, 1.821e-4
-1.359, 1.666e-4
-1.358, 1.481e-4
-1.357, 1.327e-4
-1.356, 1.173e-4
-1.355, 9.882e-5
-1.354, 8.957e-5
-1.353, 7.723e-5
-1.352, 7.415e-5
-1.351, 7.107e-5
-1.350, 6.182e-5
-1.349, 5.873e-5
-1.348, 5.257e-5
-1.347, 4.024e-5
-1.346, 3.099e-5
-1.345, 1.557e-5
-1.344, 1.559e-7
-1.343, -1.218e-5
-1.342, -2.759e-5
-1.341, -3.684e-5
-1.340, -4.917e-5
-1.339, -5.226e-5
-1.338, -5.534e-5
-1.337, -6.151e-5
-1.336, -6.459e-5
-1.335, -6.459e-5
-1.334, -7.384e-5
-1.333, -8.000e-5
-1.332, -9.542e-5
-1.331, -1.078e-4
-1.330, -1.201e-4
-1.329, -1.324e-4
-1.328, -1.417e-4
-1.327, -1.509e-4
-1.326, -1.571e-4
-1.325, -1.571e-4
-1.324, -1.602e-4
-1.323, -1.632e-4
-1.322, -1.602e-4
-1.321, -1.694e-4
-1.320, -1.725e-4
-1.319, -1.848e-4
-1.318, -1.941e-4
-1.317, -2.064e-4
-1.316, -2.157e-4
-1.315, -2.311e-4
-1.314, -2.342e-4
-1.313, -2.403e-4
-1.312, -2.403e-4
-1.311, -2.403e-4
-1.310, -2.403e-4
-1.309, -2.434e-4
-1.308, -2.465e-4
-1.307, -2.496e-4
-1.306, -2.527e-4
-1.305, -2.681e-4
-1.304, -2.773e-4
-1.303, -2.866e-4
-1.302, -2.989e-4
-1.301, -3.020e-4
-1.300, -3.082e-4
-1.299, -3.082e-4
-1.298, -3.082e-4
-1.297, -3.082e-4
-1.296, -3.051e-4
-1.295, -3.051e-4
-1.294, -3.082e-4
-1.293, -3.112e-4
-1.292, -3.236e-4
-1.291, -3.359e-4
-1.290, -3.421e-4
-1.289, -3.513e-4
-1.288, -3.575e-4
-1.287, -3.606e-4
-1.286, -3.667e-4
-1.285, -3.606e-4
-1.284, -3.606e-4
-1.283, -3.575e-4
-1.282, -3.544e-4
-1.281, -3.606e-4
-1.280, -3.637e-4
-1.279, -3.698e-4
-1.278, -3.760e-4
-1.277, -3.852e-4
-1.276, -3.914e-4
-1.275, -4.037e-4
-1.274, -4.006e-4
-1.273, -4.099e-4
-1.272, -4.068e-4
-1.271, -4.006e-4
-1.270, -3.976e-4
-1.269, -3.976e-4
-1.268, -3.976e-4
-1.267, -4.006e-4
-1.266, -4.037e-4
-1.265, -4.099e-4
-1.264, -4.191e-4
-1.263, -4.284e-4
-1.262, -4.376e-4
-1.261, -4.376e-4
-1.260, -4.407e-4
-1.259, -4.407e-4
-1.258, -4.376e-4
-1.257, -4.315e-4
-1.256, -4.284e-4
-1.255, -4.253e-4
-1.254, -4.284e-4
-1.253, -4.315e-4
-1.252, -4.407e-4
-1.251, -4.469e-4
-1.250, -4.531e-4
-1.249, -4.623e-4
-1.248, -4.654e-4
-1.247, -4.654e-4
-1.246, -4.685e-4
-1.245, -4.654e-4
-1.244, -4.623e-4
-1.243, -4.561e-4
-1.242, -4.500e-4
-1.241, -4.561e-4
-1.240, -4.561e-4
-1.239, -4.623e-4
-1.238, -4.685e-4
-1.237, -4.716e-4
-1.236, -4.808e-4
-1.235, -4.870e-4
-1.234, -4.870e-4
-1.233, -4.901e-4
-1.232, -4.839e-4
-1.231, -4.808e-4
-1.230, -4.777e-4
-1.229, -4.746e-4
-1.228, -4.746e-4
-1.227, -4.746e-4
-1.226, -4.777e-4
-1.225, -4.808e-4
-1.224, -4.901e-4
-1.223, -4.962e-4
-1.222, -5.055e-4
-1.221, -5.024e-4
-1.220, -5.055e-4
-1.219, -5.024e-4
-1.218, -4.962e-4
-1.217, -4.962e-4
-1.216, -4.931e-4
-1.215, -4.839e-4
-1.214, -4.870e-4
-1.213, -4.870e-4
-1.212, -4.962e-4
-1.211, -5.024e-4
-1.210, -5.055e-4
-1.209, -5.147e-4
-1.208, -5.178e-4
-1.207, -5.178e-4
-1.206, -5.178e-4
-1.205, -5.147e-4
-1.204, -5.116e-4
-1.203, -5.055e-4
-1.202, -4.962e-4
-1.201, -4.993e-4
-1.200, -4.993e-4
-1.199, -5.086e-4
-1.198, -5.147e-4
-1.197, -5.178e-4
-1.196, -5.240e-4
-1.195, -5.332e-4
-1.194, -5.301e-4
-1.193, -5.332e-4
-1.192, -5.240e-4
-1.191, -5.178e-4
-1.190, -5.178e-4
-1.189, -5.116e-4
-1.188, -5.116e-4
-1.187, -5.116e-4
-1.186, -5.116e-4
-1.185, -5.178e-4
-1.184, -5.240e-4
-1.183, -5.301e-4
-1.182, -5.394e-4
-1.181, -5.363e-4
-1.180, -5.394e-4
-1.179, -5.332e-4
-1.178, -5.271e-4
-1.177, -5.271e-4
-1.176, -5.240e-4
-1.175, -5.147e-4
-1.174, -5.178e-4
-1.173, -5.178e-4
-1.172, -5.271e-4
-1.171, -5.332e-4
-1.170, -5.363e-4
-1.169, -5.425e-4
-1.168, -5.456e-4
-1.167, -5.456e-4
-1.166, -5.456e-4
-1.165, -5.394e-4
-1.164, -5.363e-4
-1.163, -5.301e-4
-1.162, -5.240e-4
-1.161, -5.271e-4
-1.160, -5.271e-4
-1.159, -5.301e-4
-1.158, -5.394e-4
-1.157, -5.425e-4
-1.156, -5.456e-4
-1.155, -5.548e-4
-1.154, -5.548e-4
-1.153, -5.548e-4
-1.152, -5.486e-4
-1.151, -5.425e-4
-1.150, -5.394e-4
-1.149, -5.332e-4
-1.148, -5.332e-4
-1.147, -5.332e-4
-1.146, -5.332e-4
-1.145, -5.425e-4
-1.144, -5.456e-4
-1.143, -5.517e-4
-1.142, -5.610e-4
-1.141, -5.579e-4
-1.140, -5.610e-4
-1.139, -5.579e-4
-1.138, -5.517e-4
-1.137, -5.486e-4
-1.136, -5.456e-4
-1.135, -5.394e-4
-1.134, -5.394e-4
-1.133, -5.394e-4
-1.132, -5.456e-4
-1.131, -5.548e-4
-1.130, -5.579e-4
-1.129, -5.610e-4
-1.128, -5.641e-4
-1.127, -5.641e-4
-1.126, -5.671e-4
-1.125, -5.610e-4
-1.124, -5.548e-4
-1.123, -5.517e-4
-1.122, -5.456e-4
-1.121, -5.486e-4
-1.120, -5.456e-4
-1.119, -5.517e-4
-1.118, -5.579e-4
-1.117, -5.641e-4
-1.116, -5.671e-4
-1.115, -5.733e-4
-1.114, -5.733e-4
-1.113, -5.764e-4
-1.112, -5.671e-4
-1.111, -5.641e-4
-1.110, -5.579e-4
-1.109, -5.548e-4
-1.108, -5.548e-4
-1.107, -5.548e-4
-1.106, -5.548e-4
-1.105, -5.610e-4
-1.104, -5.641e-4
-1.103, -5.733e-4
-1.102, -5.795e-4
-1.101, -5.795e-4
-1.100, -5.795e-4
-1.099, -5.764e-4
-1.098, -5.702e-4
-1.097, -5.671e-4
-1.096, -5.641e-4
-1.095, -5.579e-4
-1.094, -5.641e-4
-1.093, -5.610e-4
-1.092, -5.641e-4
-1.091, -5.733e-4
-1.090, -5.764e-4
-1.089, -5.826e-4
-1.088, -5.856e-4
-1.087, -5.856e-4
-1.086, -5.856e-4
-1.085, -5.826e-4
-1.084, -5.795e-4
-1.083, -5.733e-4
-1.082, -5.671e-4
-1.081, -5.702e-4
-1.080, -5.671e-4
-1.079, -5.733e-4
-1.078, -5.795e-4
-1.077, -5.856e-4
-1.076, -5.887e-4
-1.075, -5.980e-4
-1.074, -5.980e-4
-1.073, -6.011e-4
-1.072, -5.918e-4
-1.071, -5.856e-4
-1.070, -5.826e-4
-1.069, -5.764e-4
-1.068, -5.795e-4
-1.067, -5.795e-4
-1.066, -5.826e-4
-1.065, -5.887e-4
-1.064, -5.918e-4
-1.063, -6.011e-4
-1.062, -6.103e-4
-1.061, -6.103e-4
-1.060, -6.103e-4
-1.059, -6.072e-4
-1.058, -6.011e-4
-1.057, -5.980e-4
-1.056, -5.949e-4
-1.055, -5.887e-4
-1.054, -5.918e-4
-1.053, -5.918e-4
-1.052, -5.980e-4
-1.051, -6.072e-4
-1.050, -6.103e-4
-1.049, -6.195e-4
-1.048, -6.226e-4
-1.047, -6.226e-4
-1.046, -6.257e-4
-1.045, -6.195e-4
-1.044, -6.165e-4
-1.043, -6.103e-4
-1.042, -6.041e-4
-1.041, -6.103e-4
-1.040, -6.103e-4
-1.039, -6.165e-4
-1.038, -6.226e-4
-1.037, -6.288e-4
-1.036, -6.380e-4
-1.035, -6.442e-4
-1.034, -6.442e-4
-1.033, -6.473e-4
-1.032, -6.411e-4
-1.031, -6.350e-4
-1.030, -6.350e-4
-1.029, -6.288e-4
-1.028, -6.288e-4
-1.027, -6.319e-4
-1.026, -6.350e-4
-1.025, -6.411e-4
-1.024, -6.504e-4
-1.023, -6.565e-4
-1.022, -6.689e-4
-1.021, -6.658e-4
-1.020, -6.689e-4
-1.019, -6.689e-4
-1.018, -6.627e-4
-1.017, -6.627e-4
-1.016, -6.596e-4
-1.015, -6.535e-4
-1.014, -6.596e-4
-1.013, -6.627e-4
-1.012, -6.720e-4
-1.011, -6.812e-4
-1.010, -6.843e-4
-1.009, -6.966e-4
-1.008, -7.028e-4
-1.007, -7.028e-4
-1.006, -7.059e-4
-1.005, -7.028e-4
-1.004, -7.028e-4
-1.003, -6.997e-4
-1.002, -6.966e-4
-1.001, -6.997e-4
