Potential V vs RHE, Current mA cm-2
0.013299999999999867,-0.1330535977523067
0.012299999999999978,-0.3947044526623452
0.011299999999999866,-0.6128529351015338
0.010299999999999976,-0.7872868383748929
0.009299999999999864,-0.9617207416482519
0.008299999999999974,-1.1362961160515976
0.007299999999999862,-1.3107300193249565
0.006299999999999972,-1.4415908145624723
0.00529999999999986,-1.5717442541500557
0.0042999999999999705,-1.6594563547416883
0.0032999999999998586,-1.7910245056291363
0.0022999999999999687,-1.8773218949209036
0.0012999999999998568,-1.92117794521672
0.00029999999999996696,-2.008890045808352
-0.000700000000000145,-2.095187435100119
-0.0017000000000000348,-2.1828995356917518
-0.0027000000000001467,-2.2706116362833835
-0.0037000000000000366,-2.4007650758709675
-0.0047000000000001485,-2.4884771764625997
-0.005700000000000038,-2.576189277054232
-0.00670000000000015,-2.618630616050183
-0.00770000000000004,-2.662486666345999
-0.008700000000000152,-2.7501987669376318
-0.009700000000000042,-2.794054817233447
-0.010700000000000154,-2.8379108675292635
-0.011700000000000044,-2.8803522065252145
-0.012700000000000156,-2.924208256821031
-0.013700000000000045,-2.968064307116847
-0.014700000000000157,-3.055776407708479
-0.015700000000000047,-3.1420737970002466
-0.01670000000000016,-3.1859298472960624
-0.01770000000000005,-3.2297858975918787
-0.01870000000000016,-3.273641947887695
-0.01970000000000005,-3.317497998183511
-0.020700000000000163,-3.317497998183511
-0.021700000000000053,-3.361354048479327
-0.022700000000000164,-3.403795387475278
-0.023700000000000054,-3.447651437771094
-0.024700000000000166,-3.4915074880669104
-0.025700000000000056,-3.4915074880669104
-0.026700000000000168,-3.579219588658543
-0.027700000000000058,-3.623075638954359
-0.02870000000000017,-3.6655169779503103
-0.02970000000000006,-3.7093730282461257
-0.03070000000000017,-3.7532290785419424
-0.03170000000000006,-3.7532290785419424
-0.03270000000000017,-3.7532290785419424
-0.03370000000000006,-3.7532290785419424
-0.034700000000000175,-3.7970851288377587
-0.035700000000000065,-3.7970851288377587
-0.03670000000000018,-3.884797229429391
-0.03770000000000007,-3.884797229429391
-0.03870000000000018,-3.927238568425342
-0.03970000000000007,-3.971094618721158
-0.04070000000000018,-4.014950669016974
-0.04170000000000007,-4.014950669016974
-0.04270000000000018,-4.0588067193127895
-0.04370000000000007,-4.0588067193127895
-0.044700000000000184,-4.0588067193127895
-0.045700000000000074,-4.0588067193127895
-0.046700000000000186,-4.0588067193127895
-0.047700000000000076,-4.0588067193127895
-0.04870000000000019,-4.102662769608606
-0.04970000000000008,-4.146518819904423
-0.05070000000000019,-4.1889601589003735
-0.05170000000000008,-4.1889601589003735
-0.05270000000000019,-4.23281620919619
-0.05370000000000008,-4.23281620919619
-0.05470000000000019,-4.23281620919619
-0.05570000000000008,-4.23281620919619
-0.056700000000000195,-4.23281620919619
-0.057700000000000085,-4.23281620919619
-0.058700000000000196,-4.23281620919619
-0.059700000000000086,-4.23281620919619
-0.0607000000000002,-4.276672259492005
-0.06170000000000009,-4.276672259492005
-0.0627000000000002,-4.3205283097878215
-0.06370000000000009,-4.364384360083638
-0.0647000000000002,-4.364384360083638
-0.06570000000000009,-4.364384360083638
-0.0667000000000002,-4.364384360083638
-0.0677000000000001,-4.364384360083638
-0.0687000000000002,-4.364384360083638
-0.0697000000000001,-4.364384360083638
-0.07070000000000021,-4.364384360083638
-0.0717000000000001,-4.364384360083638
-0.07270000000000021,-4.364384360083638
-0.0737000000000001,-4.406825699079589
-0.07470000000000021,-4.450681749375406
-0.0757000000000001,-4.450681749375406
-0.07670000000000021,-4.494537799671222
-0.0777000000000001,-4.450681749375406
-0.07870000000000021,-4.450681749375406
-0.0797000000000001,-4.450681749375406
-0.08070000000000022,-4.450681749375406
-0.0817000000000001,-4.450681749375406
-0.08270000000000022,-4.450681749375406
-0.08370000000000011,-4.450681749375406
-0.08470000000000022,-4.494537799671222
-0.08570000000000011,-4.538393849967037
-0.08670000000000022,-4.538393849967037
-0.08770000000000011,-4.538393849967037
-0.08870000000000022,-4.538393849967037
-0.08970000000000011,-4.538393849967037
-0.09070000000000022,-4.538393849967037
-0.09170000000000011,-4.538393849967037
-0.09270000000000023,-4.538393849967037
-0.09370000000000012,-4.538393849967037
-0.09470000000000023,-4.538393849967037
-0.09570000000000012,-4.582249900262854
-0.09670000000000023,-4.582249900262854
-0.09770000000000012,-4.626105950558669
-0.09870000000000023,-4.626105950558669
-0.09970000000000012,-4.626105950558669
-0.10070000000000023,-4.626105950558669
-0.10170000000000012,-4.626105950558669
-0.10270000000000024,-4.626105950558669
-0.10370000000000013,-4.626105950558669
-0.10470000000000024,-4.582249900262854
-0.10570000000000013,-4.626105950558669
-0.10670000000000024,-4.626105950558669
-0.10770000000000013,-4.626105950558669
-0.10870000000000024,-4.668547289554621
-0.10970000000000013,-4.668547289554621
-0.11070000000000024,-4.712403339850438
-0.11170000000000013,-4.712403339850438
-0.11270000000000002,-4.712403339850438
-0.11370000000000013,-4.712403339850438
-0.11470000000000002,-4.668547289554621
-0.11570000000000014,-4.668547289554621
-0.11670000000000003,-4.668547289554621
-0.11770000000000014,-4.712403339850438
-0.11870000000000003,-4.712403339850438
-0.11970000000000014,-4.756259390146253
-0.12070000000000003,-4.756259390146253
-0.12170000000000014,-4.800115440442069
-0.12270000000000003,-4.800115440442069
-0.12370000000000014,-4.800115440442069
-0.12470000000000003,-4.756259390146253
-0.12570000000000014,-4.756259390146253
-0.12670000000000003,-4.756259390146253
-0.12770000000000015,-4.756259390146253
-0.12870000000000004,-4.756259390146253
-0.12970000000000015,-4.756259390146253
-0.13070000000000004,-4.800115440442069
-0.13170000000000015,-4.800115440442069
-0.13270000000000004,-4.843971490737885
-0.13370000000000015,-4.887827541033701
-0.13470000000000004,-4.887827541033701
-0.13570000000000015,-4.887827541033701
-0.13670000000000004,-4.887827541033701
-0.13770000000000016,-4.887827541033701
-0.13870000000000005,-4.843971490737885
-0.13970000000000016,-4.843971490737885
-0.14070000000000005,-4.843971490737885
-0.14170000000000016,-4.887827541033701
-0.14270000000000005,-4.9302688800296535
-0.14370000000000016,-4.9302688800296535
-0.14470000000000005,-4.974124930325469
-0.14570000000000016,-4.974124930325469
-0.14670000000000005,-4.974124930325469
-0.14770000000000016,-4.974124930325469
-0.14870000000000005,-4.974124930325469
-0.14970000000000017,-4.9302688800296535
-0.15070000000000006,-4.9302688800296535
-0.15170000000000017,-4.974124930325469
-0.15270000000000006,-4.974124930325469
-0.15370000000000017,-5.017980980621284
-0.15470000000000006,-5.017980980621284
-0.15570000000000017,-5.0618370309171015
-0.15670000000000006,-5.0618370309171015
-0.15770000000000017,-5.105693081212917
-0.15870000000000006,-5.105693081212917
-0.15970000000000018,-5.105693081212917
-0.16070000000000007,-5.105693081212917
-0.16170000000000018,-5.0618370309171015
-0.16270000000000007,-5.105693081212917
-0.16370000000000018,-5.0618370309171015
-0.16470000000000007,-5.105693081212917
-0.16570000000000018,-5.105693081212917
-0.16670000000000007,-5.149549131508733
-0.16770000000000018,-5.191990470504685
-0.16870000000000007,-5.235846520800501
-0.16970000000000018,-5.235846520800501
-0.17070000000000007,-5.235846520800501
-0.17170000000000019,-5.235846520800501
-0.17270000000000008,-5.235846520800501
-0.1737000000000002,-5.235846520800501
-0.17470000000000008,-5.235846520800501
-0.1757000000000002,-5.235846520800501
-0.17670000000000008,-5.279702571096316
-0.1777000000000002,-5.323558621392133
-0.17870000000000008,-5.367414671687949
-0.1797000000000002,-5.367414671687949
-0.18070000000000008,-5.411270721983764
-0.1817000000000002,-5.411270721983764
-0.18270000000000008,-5.411270721983764
-0.1837000000000002,-5.411270721983764
-0.1847000000000001,-5.411270721983764
-0.1857000000000002,-5.411270721983764
-0.1867000000000001,-5.411270721983764
-0.1877000000000002,-5.411270721983764
-0.1887000000000001,-5.453712060979717
-0.1897000000000002,-5.497568111275533
-0.1907000000000001,-5.5414241615713475
-0.1917000000000001,-5.5414241615713475
-0.19269999999999998,-5.585280211867165
-0.1937000000000001,-5.585280211867165
-0.19469999999999998,-5.585280211867165
-0.1957000000000001,-5.585280211867165
-0.19669999999999999,-5.585280211867165
-0.1977000000000001,-5.585280211867165
-0.1987,-5.629136262162981
-0.1997000000000001,-5.672992312458796
-0.2007,-5.672992312458796
-0.2017000000000001,-5.715433651454749
-0.2027,-5.759289701750564
-0.2037000000000001,-5.80314575204638
-0.2047,-5.80314575204638
-0.2057000000000001,-5.847001802342197
-0.2067,-5.847001802342197
-0.2077000000000001,-5.847001802342197
-0.2087,-5.847001802342197
-0.2097000000000001,-5.847001802342197
-0.2107,-5.890857852638012
-0.2117000000000001,-5.9347139029338285
-0.2127,-5.977155241929781
-0.2137000000000001,-6.021011292225596
-0.2147,-6.064867342521412
-0.2157000000000001,-6.108723392817228
-0.2167,-6.108723392817228
-0.21770000000000012,-6.108723392817228
-0.2187,-6.108723392817228
-0.21970000000000012,-6.152579443113044
-0.2207,-6.152579443113044
-0.22170000000000012,-6.152579443113044
-0.2227,-6.196435493408861
-0.22370000000000012,-6.238876832404812
-0.2247,-6.282732882700628
-0.22570000000000012,-6.326588932996443
-0.2267,-6.37044498329226
-0.22770000000000012,-6.414301033588076
-0.22870000000000001,-6.458157083883892
-0.22970000000000013,-6.458157083883892
-0.23070000000000002,-6.458157083883892
-0.23170000000000013,-6.458157083883892
-0.23270000000000002,-6.500598422879844
-0.23370000000000013,-6.500598422879844
-0.23470000000000002,-6.54445447317566
-0.23570000000000013,-6.632166573767292
-0.23670000000000002,-6.6760226240631075
-0.2376999999999999,-6.719878674358924
-0.23870000000000002,-6.762320013354876
-0.2396999999999999,-6.806176063650692
-0.24070000000000003,-6.850032113946507
-0.24169999999999991,-6.850032113946507
-0.24270000000000003,-6.893888164242324
-0.24369999999999992,-6.893888164242324
-0.24470000000000003,-6.93774421453814
-0.24569999999999992,-6.981600264833956
-0.24670000000000003,-7.024041603829907
-0.24769999999999992,-7.067897654125724
-0.24870000000000003,-7.155609754717355
-0.24969999999999992,-7.199465805013171
-0.25070000000000003,-7.243321855308987
-0.2516999999999999,-7.28576319430494
-0.25270000000000004,-7.329619244600755
-0.2536999999999999,-7.37347529489657
-0.25470000000000004,-7.37347529489657
-0.2556999999999999,-7.4173313451923875
-0.25670000000000004,-7.461187395488204
-0.25769999999999993,-7.50504344578402
-0.25870000000000004,-7.5474847847799715
-0.25969999999999993,-7.635196885371603
-0.26070000000000004,-7.722908985963235
-0.26169999999999993,-7.7653503249591855
-0.26270000000000004,-7.809206375255003
-0.26369999999999993,-7.853062425550818
-0.26470000000000005,-7.896918475846635
-0.26569999999999994,-7.940774526142452
-0.26670000000000005,-7.984630576438266
-0.26769999999999994,-8.027071915434218
-0.26870000000000005,-8.070927965730034
-0.26969999999999994,-8.11478401602585
-0.27070000000000005,-8.202496116617484
-0.27169999999999994,-8.246352166913299
-0.27270000000000005,-8.332649556205066
-0.27369999999999994,-8.4203616567967
-0.27470000000000006,-8.464217707092514
-0.27569999999999995,-8.508073757388331
-0.27670000000000006,-8.55051509638428
-0.27769999999999995,-8.594371146680096
-0.27870000000000006,-8.638227196975913
-0.27969999999999995,-8.68208324727173
-0.28070000000000006,-8.725939297567548
-0.28169999999999995,-8.812236686859313
-0.28270000000000006,-8.85609273715513
-0.28369999999999995,-8.943804837746763
-0.28470000000000006,-9.031516938338395
-0.28569999999999995,-9.11781432763016
-0.28670000000000007,-9.205526428221793
-0.28769999999999996,-9.24938247851761
-0.28870000000000007,-9.293238528813426
-0.28969999999999996,-9.335679867809377
-0.29070000000000007,-9.423391968401008
-0.29169999999999996,-9.467248018696827
-0.29270000000000007,-9.55496011928846
-0.29369999999999996,-9.641257508580225
-0.2947000000000001,-9.728969609171857
-0.29569999999999996,-9.81668170976349
-0.2967000000000001,-9.902979099055257
-0.29769999999999996,-9.99069119964689
-0.2987000000000001,-10.034547249942705
-0.29969999999999997,-10.120844639234473
-0.3007000000000001,-10.164700689530287
-0.30169999999999997,-10.208556739826104
-0.3027000000000001,-10.296268840417738
-0.30369999999999997,-10.382566229709504
-0.3047000000000001,-10.470278330301136
-0.30569999999999997,-10.557990430892769
-0.3067000000000001,-10.644287820184536
-0.3077,-10.731999920776168
-0.3087000000000001,-10.863568071663616
-0.3097,-10.906009410659568
-0.3107000000000001,-10.993721511251199
-0.3117,-11.081433611842833
-0.3127000000000001,-11.1677310011346
-0.3137,-11.211587051430415
-0.3147000000000001,-11.299299152022046
-0.3157,-11.385596541313816
-0.3167000000000001,-11.473308641905447
-0.3177,-11.56102074249708
-0.3187000000000001,-11.691174182084664
-0.3197,-11.82274233297211
-0.3207000000000001,-11.909039722263879
-0.3217,-11.996751822855511
-0.3227000000000001,-12.084463923447142
-0.3237,-12.170761312738911
-0.3247000000000001,-12.214617363034726
-0.3257,-12.302329463626359
-0.3267000000000001,-12.390041564217992
-0.3277,-12.476338953509758
-0.3287000000000001,-12.607907104397206
-0.3297,-12.73806054398479
-0.3307000000000001,-12.869628694872238
-0.3317,-12.955926084164007
-0.3327000000000001,-13.087494235051453
-0.3337,-13.217647674639037
-0.3347000000000001,-13.261503724934855
-0.3357,-13.3930718758223
-0.3367000000000001,-13.436927926118118
-0.3377,-13.567081365705702
-0.3387000000000001,-13.654793466297335
-0.3397,-13.741090855589102
-0.3407000000000001,-13.872659006476551
-0.3417,-14.002812446064135
-0.3427000000000001,-14.13438059695158
-0.3437,-14.26028990263957
-0.3447000000000001,-14.401761032626075
-0.3457,-14.486643710617974
-0.3467000000000001,-14.57152638860988
-0.3477,-14.65640906660178
-0.3487000000000001,-14.783733083589633
-0.3497,-14.868615761581536
-0.3507000000000001,-15.01008689156804
-0.3517,-15.137410908555893
-0.3527000000000001,-15.264734925543747
-0.3537,-15.448647394526201
-0.3547000000000001,-15.575971411514052
-0.3557,-15.70329542850191
-0.35670000000000013,-15.78817810649381
-0.3577,-15.91550212348166
-0.35870000000000013,-16.014531914472215
-0.3597,-16.141855931460068
-0.36070000000000013,-16.22673860945197
-0.3617,-16.354062626439823
-0.3626999999999999,-16.495533756426326
-0.3637,-16.622857773414182
-0.3646999999999999,-16.750181790402035
-0.3657,-16.877505807389888
-0.3666999999999999,-17.018976937376394
-0.3677,-17.146300954364243
-0.3686999999999999,-17.2736249713521
-0.36970000000000003,-17.40094898833995
-0.3706999999999999,-17.542420118326454
-0.37170000000000003,-17.669744135314307
-0.3726999999999999,-17.797068152302163
-0.37370000000000003,-17.924392169290012
-0.3746999999999999,-18.06586329927652
-0.37570000000000003,-18.23562865526032
-0.3766999999999999,-18.40539401124413
-0.37770000000000004,-18.53271802823198
-0.3786999999999999,-18.716630497214435
-0.37970000000000004,-18.843954514202288
-0.3806999999999999,-18.97127853119014
-0.38170000000000004,-19.112749661176647
-0.38269999999999993,-19.2400736781645
-0.38370000000000004,-19.367397695152352
-0.38469999999999993,-19.49472171214021
-0.38570000000000004,-19.636192842126707
-0.38669999999999993,-19.805958198110513
-0.38770000000000004,-19.97572355409432
-0.38869999999999993,-20.10304757108217
-0.38970000000000005,-20.286960040064624
-0.39069999999999994,-20.456725396048434
-0.39170000000000005,-20.626490752032236
-0.39269999999999994,-20.76796188201874
-0.39370000000000005,-20.93772723800254
-0.39469999999999994,-21.065051254990397
-0.39570000000000005,-21.248963723972853
-0.39669999999999994,-21.376287740960702
-0.39770000000000005,-21.54605309694451
-0.39869999999999994,-21.729965565926964
-0.39970000000000006,-21.899730921910766
-0.40069999999999995,-22.069496277894572
-0.40170000000000006,-22.253408746877028
-0.40269999999999995,-22.42317410286083
-0.40370000000000006,-22.592939458844636
-0.40469999999999995,-22.72026347583249
-0.40570000000000006,-22.861734605818995
-0.40669999999999995,-22.989058622806844
-0.40770000000000006,-23.15882397879065
-0.40869999999999995,-23.342736447773106
-0.40970000000000006,-23.51250180375691
-0.41069999999999995,-23.682267159740714
-0.41170000000000007,-23.86617962872317
-0.41269999999999996,-24.078386323702922
-0.41370000000000007,-24.24815167968673
-0.41469999999999996,-24.432064148669184
-0.41570000000000007,-24.601829504652986
-0.41669999999999996,-24.729153521640843
-0.41770000000000007,-24.95550732961925
-0.41869999999999996,-25.12527268560305
-0.4197000000000001,-25.295038041586857
-0.42069999999999996,-25.478950510569312
-0.4217000000000001,-25.691157205549064
-0.42269999999999996,-25.86092256153287
-0.4237000000000001,-26.087276369511276
-0.42469999999999997,-26.29948306449103
-0.4257000000000001,-26.483395533473487
-0.42669999999999997,-26.69560222845324
-0.4277000000000001,-26.822926245441096
-0.42869999999999997,-27.00683871442355
-0.4297000000000001,-27.176604070407354
-0.43069999999999997,-27.34636942639116
-0.4317000000000001,-27.530281895373616
-0.4327,-27.742488590353368
-0.4337000000000001,-27.954695285333123
-0.4347,-28.13860775431558
-0.4357000000000001,-28.350814449295335
-0.4367,-28.53472691827779
-0.4377000000000001,-28.746933613257543
-0.4387,-28.959140308237306
-0.4397000000000001,-29.14305277721976
-0.4407,-29.35525947219951
-0.4417000000000001,-29.525024828183312
-0.4427,-29.751378636161718
-0.4437000000000001,-29.96358533114148
-0.4447,-30.189939139119886
-0.4457000000000001,-30.359704495103685
-0.4467,-30.571911190083444
-0.4477000000000001,-30.79826499806185
-0.4487,-31.010471693041605
-0.4497000000000001,-31.19438416202406
-0.4507,-31.40659085700382
-0.4517000000000001,-31.57635621298762
-0.4527,-31.76026868197007
-0.4537000000000001,-31.972475376949827
-0.4547,-32.184682071929586
-0.4557000000000001,-32.41103587990799
-0.4567,-32.62324257488775
-0.4577000000000001,-32.892037721862096
-0.4587,-33.10424441684186
-0.4597000000000001,-33.373039563816214
-0.4607,-33.58524625879597
-0.4617000000000001,-33.81160006677438
-0.4627,-34.10868943974604
-0.4637000000000001,-34.33504324772444
-0.4647,-34.5472499427042
-0.4657000000000001,-34.75945663768395
-0.4667,-35.02825178465831
-0.4677000000000001,-35.282899818634014
-0.4687,-35.50925362661242
-0.4697000000000001,-35.721460321592176
-0.4707,-35.99025546856653
-0.4717000000000001,-36.20246216354629
-0.4727,-36.4288159715247
-0.4737000000000001,-36.6834640055004
-0.4747,-36.89567070048016
-0.4757000000000001,-37.122024508458566
-0.4767,-37.334231203438314
-0.4777000000000001,-37.56058501141672
-0.4787,-37.81523304539243
-0.4797000000000001,-38.08402819236679
-0.4807,-38.33867622634249
-0.48170000000000013,-38.607471373316855
-0.4827,-38.86211940729255
-0.48370000000000013,-39.173355893262865
-0.4847,-39.38556258824262
-0.48570000000000013,-39.61191639622103
-0.4867,-39.86656443019674
-0.4876999999999999,-40.092918238175145
-0.4887,-40.30512493315489
-0.4896999999999999,-40.559772967130606
-0.4907,-40.78612677510901
-0.4916999999999999,-41.04077480908471
-0.4927,-41.30956995605907
-0.4936999999999999,-41.56421799003478
-0.49470000000000003,-41.83301313700913
-0.4956999999999999,-42.087661170984845
-0.49670000000000003,-42.3564563179592
-0.4976999999999999,-42.568663012938956
-0.49870000000000003,-42.837458159913304
-0.4996999999999999,-43.09210619388902
-0.5007,-43.36090134086337
-0.5016999999999999,-43.61554937483908
-0.5027,-43.92678586080939
-0.5036999999999999,-44.223875233781044
-0.5047,-44.535111719751356
-0.5056999999999999,-44.84634820572166
-0.5067,-45.143437578693316
-0.5076999999999999,-45.45467406466363
-0.5087,-45.70932209863933
-0.5096999999999999,-45.97811724561369
