Aug. 29, 2024   07:04:29
Cyclic Voltammetry
File: c:/users/guazh/data/20240813_batch_181_500/2024-08-25-exp213\exp213-2024-08-29t06_55_53-h2koh\exp213_cv_50mvs_efin_-1500mv.bin
Data Source:  Experiment
Instrument Model:  CHI760E
Header: CV ran at 50 mVs
Note: 

Init E (V) = -1
High E (V) = -1
Low E (V) = -1.5
Final E (V) = -1
Init P/N = N
Scan Rate (V/s) = 0.05
Segment = 7
Sample Interval (V) = 0.001
Quiet Time (sec) = 60
Sensitivity (A/V) = 0.001
Comp R (ohm) = 2.2

Results:

Channel 1:
Segment 1:

Segment 2:

Segment 3:

Segment 4:

Segment 5:

Segment 6:

Segment 7:

Potential/V, Current/A

-1.000, 1.250e-5
-1.001, 2.348e-5
-1.002, 2.680e-5
-1.003, 2.878e-5
-1.004, 3.060e-5
-1.005, 3.164e-5
-1.006, 3.239e-5
-1.007, 3.364e-5
-1.008, 3.484e-5
-1.009, 3.596e-5
-1.010, 3.616e-5
-1.011, 3.614e-5
-1.012, 3.695e-5
-1.013, 3.703e-5
-1.014, 3.826e-5
-1.015, 3.816e-5
-1.016, 3.775e-5
-1.017, 3.824e-5
-1.018, 3.959e-5
-1.019, 3.988e-5
-1.020, 3.942e-5
-1.021, 3.947e-5
-1.022, 3.955e-5
-1.023, 4.054e-5
-1.024, 4.095e-5
-1.025, 4.093e-5
-1.026, 4.055e-5
-1.027, 4.077e-5
-1.028, 4.176e-5
-1.029, 4.176e-5
-1.030, 4.213e-5
-1.031, 4.208e-5
-1.032, 4.254e-5
-1.033, 4.283e-5
-1.034, 4.284e-5
-1.035, 4.268e-5
-1.036, 4.263e-5
-1.037, 4.308e-5
-1.038, 4.388e-5
-1.039, 4.427e-5
-1.040, 4.375e-5
-1.041, 4.264e-5
-1.042, 4.374e-5
-1.043, 4.425e-5
-1.044, 4.470e-5
-1.045, 4.423e-5
-1.046, 4.426e-5
-1.047, 4.483e-5
-1.048, 4.526e-5
-1.049, 4.506e-5
-1.050, 4.453e-5
-1.051, 4.475e-5
-1.052, 4.497e-5
-1.053, 4.581e-5
-1.054, 4.619e-5
-1.055, 4.618e-5
-1.056, 4.559e-5
-1.057, 4.597e-5
-1.058, 4.607e-5
-1.059, 4.626e-5
-1.060, 4.618e-5
-1.061, 4.559e-5
-1.062, 4.662e-5
-1.063, 4.730e-5
-1.064, 4.737e-5
-1.065, 4.708e-5
-1.066, 4.717e-5
-1.067, 4.759e-5
-1.068, 4.830e-5
-1.069, 4.799e-5
-1.070, 4.821e-5
-1.071, 4.747e-5
-1.072, 4.851e-5
-1.073, 4.875e-5
-1.074, 4.881e-5
-1.075, 4.817e-5
-1.076, 4.834e-5
-1.077, 4.915e-5
-1.078, 4.999e-5
-1.079, 5.014e-5
-1.080, 5.011e-5
-1.081, 5.001e-5
-1.082, 5.067e-5
-1.083, 5.027e-5
-1.084, 4.774e-5
-1.085, 5.054e-5
-1.086, 5.390e-5
-1.087, 5.390e-5
-1.088, 5.323e-5
-1.089, 5.314e-5
-1.090, 5.315e-5
-1.091, 5.277e-5
-1.092, 5.354e-5
-1.093, 5.413e-5
-1.094, 5.464e-5
-1.095, 5.453e-5
-1.096, 5.433e-5
-1.097, 5.446e-5
-1.098, 5.545e-5
-1.099, 5.566e-5
-1.100, 5.572e-5
-1.101, 5.545e-5
-1.102, 5.615e-5
-1.103, 5.675e-5
-1.104, 5.694e-5
-1.105, 5.656e-5
-1.106, 5.690e-5
-1.107, 5.734e-5
-1.108, 5.814e-5
-1.109, 5.820e-5
-1.110, 5.804e-5
-1.111, 5.820e-5
-1.112, 5.858e-5
-1.113, 5.893e-5
-1.114, 5.942e-5
-1.115, 5.969e-5
-1.116, 5.985e-5
-1.117, 6.058e-5
-1.118, 6.115e-5
-1.119, 6.156e-5
-1.120, 6.184e-5
-1.121, 6.215e-5
-1.122, 6.299e-5
-1.123, 6.416e-5
-1.124, 6.479e-5
-1.125, 6.468e-5
-1.126, 6.478e-5
-1.127, 6.594e-5
-1.128, 6.667e-5
-1.129, 6.715e-5
-1.130, 6.681e-5
-1.131, 6.684e-5
-1.132, 6.748e-5
-1.133, 6.891e-5
-1.134, 6.921e-5
-1.135, 6.946e-5
-1.136, 6.927e-5
-1.137, 7.001e-5
-1.138, 7.156e-5
-1.139, 7.211e-5
-1.140, 7.250e-5
-1.141, 7.247e-5
-1.142, 7.374e-5
-1.143, 7.536e-5
-1.144, 7.588e-5
-1.145, 7.544e-5
-1.146, 7.500e-5
-1.147, 7.779e-5
-1.148, 7.866e-5
-1.149, 7.965e-5
-1.150, 7.977e-5
-1.151, 8.032e-5
-1.152, 8.130e-5
-1.153, 8.267e-5
-1.154, 8.324e-5
-1.155, 8.180e-5
-1.156, 8.368e-5
-1.157, 8.571e-5
-1.158, 8.721e-5
-1.159, 8.832e-5
-1.160, 8.892e-5
-1.161, 8.942e-5
-1.162, 9.091e-5
-1.163, 9.268e-5
-1.164, 9.416e-5
-1.165, 9.460e-5
-1.166, 9.512e-5
-1.167, 9.652e-5
-1.168, 9.845e-5
-1.169, 9.978e-5
-1.170, 1.005e-4
-1.171, 1.016e-4
-1.172, 1.024e-4
-1.173, 1.049e-4
-1.174, 1.063e-4
-1.175, 1.071e-4
-1.176, 1.067e-4
-1.177, 1.096e-4
-1.178, 1.125e-4
-1.179, 1.141e-4
-1.180, 1.154e-4
-1.181, 1.163e-4
-1.182, 1.187e-4
-1.183, 1.211e-4
-1.184, 1.226e-4
-1.185, 1.241e-4
-1.186, 1.257e-4
-1.187, 1.273e-4
-1.188, 1.306e-4
-1.189, 1.327e-4
-1.190, 1.338e-4
-1.191, 1.358e-4
-1.192, 1.377e-4
-1.193, 1.406e-4
-1.194, 1.432e-4
-1.195, 1.448e-4
-1.196, 1.471e-4
-1.197, 1.497e-4
-1.198, 1.525e-4
-1.199, 1.549e-4
-1.200, 1.579e-4
-1.201, 1.603e-4
-1.202, 1.635e-4
-1.203, 1.671e-4
-1.204, 1.700e-4
-1.205, 1.719e-4
-1.206, 1.751e-4
-1.207, 1.783e-4
-1.208, 1.826e-4
-1.209, 1.853e-4
-1.210, 1.882e-4
-1.211, 1.915e-4
-1.212, 1.949e-4
-1.213, 1.989e-4
-1.214, 2.028e-4
-1.215, 2.062e-4
-1.216, 2.091e-4
-1.217, 2.134e-4
-1.218, 2.183e-4
-1.219, 2.225e-4
-1.220, 2.259e-4
-1.221, 2.297e-4
-1.222, 2.335e-4
-1.223, 2.386e-4
-1.224, 2.392e-4
-1.225, 2.328e-4
-1.226, 2.314e-4
-1.227, 2.482e-4
-1.228, 2.613e-4
-1.229, 2.694e-4
-1.230, 2.731e-4
-1.231, 2.767e-4
-1.232, 2.816e-4
-1.233, 2.869e-4
-1.234, 2.921e-4
-1.235, 2.969e-4
-1.236, 3.021e-4
-1.237, 3.078e-4
-1.238, 3.146e-4
-1.239, 3.202e-4
-1.240, 3.249e-4
-1.241, 3.283e-4
-1.242, 3.372e-4
-1.243, 3.433e-4
-1.244, 3.503e-4
-1.245, 3.564e-4
-1.246, 3.619e-4
-1.247, 3.683e-4
-1.248, 3.746e-4
-1.249, 3.810e-4
-1.250, 3.880e-4
-1.251, 3.941e-4
-1.252, 4.016e-4
-1.253, 4.097e-4
-1.254, 4.164e-4
-1.255, 4.233e-4
-1.256, 4.307e-4
-1.257, 4.390e-4
-1.258, 4.467e-4
-1.259, 4.544e-4
-1.260, 4.613e-4
-1.261, 4.697e-4
-1.262, 4.780e-4
-1.263, 4.863e-4
-1.264, 4.951e-4
-1.265, 5.025e-4
-1.266, 5.107e-4
-1.267, 5.197e-4
-1.268, 5.289e-4
-1.269, 5.373e-4
-1.270, 5.462e-4
-1.271, 5.540e-4
-1.272, 5.635e-4
-1.273, 5.733e-4
-1.274, 5.821e-4
-1.275, 5.904e-4
-1.276, 6.004e-4
-1.277, 6.094e-4
-1.278, 6.195e-4
-1.279, 6.299e-4
-1.280, 6.387e-4
-1.281, 6.486e-4
-1.282, 6.589e-4
-1.283, 6.694e-4
-1.284, 6.790e-4
-1.285, 6.896e-4
-1.286, 7.001e-4
-1.287, 7.108e-4
-1.288, 7.211e-4
-1.289, 7.322e-4
-1.290, 7.435e-4
-1.291, 7.524e-4
-1.292, 7.643e-4
-1.293, 7.768e-4
-1.294, 7.868e-4
-1.295, 7.980e-4
-1.296, 8.100e-4
-1.297, 8.209e-4
-1.298, 8.331e-4
-1.299, 8.446e-4
-1.300, 8.590e-4
-1.301, 8.694e-4
-1.302, 8.823e-4
-1.303, 8.935e-4
-1.304, 9.057e-4
-1.305, 9.173e-4
-1.306, 9.287e-4
-1.307, 9.419e-4
-1.308, 9.543e-4
-1.309, 9.661e-4
-1.310, 9.776e-4
-1.311, 9.904e-4
-1.312, 1.004e-3
-1.313, 1.017e-3
-1.314, 1.032e-3
-1.315, 1.044e-3
-1.316, 1.055e-3
-1.317, 1.069e-3
-1.318, 1.083e-3
-1.319, 1.096e-3
-1.320, 1.111e-3
-1.321, 1.122e-3
-1.322, 1.136e-3
-1.323, 1.155e-3
-1.324, 1.168e-3
-1.325, 1.182e-3
-1.326, 1.197e-3
-1.327, 1.212e-3
-1.328, 1.227e-3
-1.329, 1.242e-3
-1.330, 1.256e-3
-1.331, 1.271e-3
-1.332, 1.289e-3
-1.333, 1.303e-3
-1.334, 1.317e-3
-1.335, 1.332e-3
-1.336, 1.347e-3
-1.337, 1.362e-3
-1.338, 1.377e-3
-1.339, 1.392e-3
-1.340, 1.408e-3
-1.341, 1.421e-3
-1.342, 1.438e-3
-1.343, 1.453e-3
-1.344, 1.470e-3
-1.345, 1.486e-3
-1.346, 1.502e-3
-1.347, 1.519e-3
-1.348, 1.537e-3
-1.349, 1.552e-3
-1.350, 1.569e-3
-1.351, 1.585e-3
-1.352, 1.605e-3
-1.353, 1.623e-3
-1.354, 1.642e-3
-1.355, 1.657e-3
-1.356, 1.673e-3
-1.357, 1.691e-3
-1.358, 1.712e-3
-1.359, 1.730e-3
-1.360, 1.753e-3
-1.361, 1.766e-3
-1.362, 1.784e-3
-1.363, 1.802e-3
-1.364, 1.818e-3
-1.365, 1.834e-3
-1.366, 1.853e-3
-1.367, 1.868e-3
-1.368, 1.887e-3
-1.369, 1.905e-3
-1.370, 1.922e-3
-1.371, 1.940e-3
-1.372, 1.965e-3
-1.373, 1.985e-3
-1.374, 2.002e-3
-1.375, 2.020e-3
-1.376, 2.038e-3
-1.377, 2.058e-3
-1.378, 2.074e-3
-1.379, 2.091e-3
-1.380, 2.112e-3
-1.381, 2.134e-3
-1.382, 2.157e-3
-1.383, 2.177e-3
-1.384, 2.198e-3
-1.385, 2.217e-3
-1.386, 2.237e-3
-1.387, 2.256e-3
-1.388, 2.276e-3
-1.389, 2.295e-3
-1.390, 2.315e-3
-1.391, 2.338e-3
-1.392, 2.365e-3
-1.393, 2.384e-3
-1.394, 2.404e-3
-1.395, 2.431e-3
-1.396, 2.451e-3
-1.397, 2.476e-3
-1.398, 2.498e-3
-1.399, 2.522e-3
-1.400, 2.540e-3
-1.401, 2.561e-3
-1.402, 2.586e-3
-1.403, 2.602e-3
-1.404, 2.621e-3
-1.405, 2.642e-3
-1.406, 2.662e-3
-1.407, 2.684e-3
-1.408, 2.704e-3
-1.409, 2.722e-3
-1.410, 2.743e-3
-1.411, 2.764e-3
-1.412, 2.785e-3
-1.413, 2.814e-3
-1.414, 2.830e-3
-1.415, 2.853e-3
-1.416, 2.879e-3
-1.417, 2.897e-3
-1.418, 2.921e-3
-1.419, 2.945e-3
-1.420, 2.964e-3
-1.421, 2.991e-3
-1.422, 3.021e-3
-1.423, 3.045e-3
-1.424, 3.073e-3
-1.425, 3.092e-3
-1.426, 3.113e-3
-1.427, 3.138e-3
-1.428, 3.161e-3
-1.429, 3.188e-3
-1.430, 3.214e-3
-1.431, 3.233e-3
-1.432, 3.256e-3
-1.433, 3.282e-3
-1.434, 3.306e-3
-1.435, 3.331e-3
-1.436, 3.357e-3
-1.437, 3.388e-3
-1.438, 3.412e-3
-1.439, 3.447e-3
-1.440, 3.472e-3
-1.441, 3.497e-3
-1.442, 3.519e-3
-1.443, 3.540e-3
-1.444, 3.566e-3
-1.445, 3.585e-3
-1.446, 3.609e-3
-1.447, 3.633e-3
-1.448, 3.655e-3
-1.449, 3.682e-3
-1.450, 3.710e-3
-1.451, 3.731e-3
-1.452, 3.757e-3
-1.453, 3.784e-3
-1.454, 3.802e-3
-1.455, 3.825e-3
-1.456, 3.849e-3
-1.457, 3.876e-3
-1.458, 3.910e-3
-1.459, 3.934e-3
-1.460, 3.957e-3
-1.461, 3.991e-3
-1.462, 4.029e-3
-1.463, 4.061e-3
-1.464, 4.094e-3
-1.465, 4.116e-3
-1.466, 4.146e-3
-1.467, 4.174e-3
-1.468, 4.198e-3
-1.469, 4.233e-3
-1.470, 4.264e-3
-1.471, 4.287e-3
-1.472, 4.325e-3
-1.473, 4.353e-3
-1.474, 4.372e-3
-1.475, 4.396e-3
-1.476, 4.424e-3
-1.477, 4.449e-3
-1.478, 4.477e-3
-1.479, 4.500e-3
-1.480, 4.530e-3
-1.481, 4.563e-3
-1.482, 4.587e-3
-1.483, 4.617e-3
-1.484, 4.644e-3
-1.485, 4.669e-3
-1.486, 4.692e-3
-1.487, 4.717e-3
-1.488, 4.742e-3
-1.489, 4.770e-3
-1.490, 4.801e-3
-1.491, 4.823e-3
-1.492, 4.845e-3
-1.493, 4.872e-3
-1.494, 4.895e-3
-1.495, 4.931e-3
-1.496, 4.963e-3
-1.497, 4.985e-3
-1.498, 5.011e-3
-1.499, 5.040e-3
-1.500, 5.032e-3
-1.499, 4.995e-3
-1.498, 4.952e-3
-1.497, 4.911e-3
-1.496, 4.883e-3
-1.495, 4.848e-3
-1.494, 4.805e-3
-1.493, 4.766e-3
-1.492, 4.730e-3
-1.491, 4.691e-3
-1.490, 4.649e-3
-1.489, 4.605e-3
-1.488, 4.560e-3
-1.487, 4.516e-3
-1.486, 4.474e-3
-1.485, 4.436e-3
-1.484, 4.398e-3
-1.483, 4.357e-3
-1.482, 4.313e-3
-1.481, 4.270e-3
-1.480, 4.237e-3
-1.479, 4.213e-3
-1.478, 4.174e-3
-1.477, 4.137e-3
-1.476, 4.096e-3
-1.475, 4.054e-3
-1.474, 4.026e-3
-1.473, 3.992e-3
-1.472, 3.963e-3
-1.471, 3.924e-3
-1.470, 3.892e-3
-1.469, 3.859e-3
-1.468, 3.834e-3
-1.467, 3.796e-3
-1.466, 3.755e-3
-1.465, 3.715e-3
-1.464, 3.685e-3
-1.463, 3.659e-3
-1.462, 3.632e-3
-1.461, 3.591e-3
-1.460, 3.559e-3
-1.459, 3.528e-3
-1.458, 3.498e-3
-1.457, 3.475e-3
-1.456, 3.438e-3
-1.455, 3.409e-3
-1.454, 3.378e-3
-1.453, 3.347e-3
-1.452, 3.317e-3
-1.451, 3.289e-3
-1.450, 3.259e-3
-1.449, 3.233e-3
-1.448, 3.200e-3
-1.447, 3.172e-3
-1.446, 3.142e-3
-1.445, 3.108e-3
-1.444, 3.086e-3
-1.443, 3.063e-3
-1.442, 3.047e-3
-1.441, 3.034e-3
-1.440, 3.006e-3
-1.439, 2.970e-3
-1.438, 2.951e-3
-1.437, 2.936e-3
-1.436, 2.907e-3
-1.435, 2.887e-3
-1.434, 2.859e-3
-1.433, 2.839e-3
-1.432, 2.808e-3
-1.431, 2.775e-3
-1.430, 2.743e-3
-1.429, 2.717e-3
-1.428, 2.687e-3
-1.427, 2.659e-3
-1.426, 2.628e-3
-1.425, 2.603e-3
-1.424, 2.583e-3
-1.423, 2.552e-3
-1.422, 2.531e-3
-1.421, 2.510e-3
-1.420, 2.482e-3
-1.419, 2.460e-3
-1.418, 2.435e-3
-1.417, 2.417e-3
-1.416, 2.391e-3
-1.415, 2.364e-3
-1.414, 2.342e-3
-1.413, 2.325e-3
-1.412, 2.302e-3
-1.411, 2.279e-3
-1.410, 2.259e-3
-1.409, 2.231e-3
-1.408, 2.215e-3
-1.407, 2.198e-3
-1.406, 2.184e-3
-1.405, 2.157e-3
-1.404, 2.158e-3
-1.403, 2.146e-3
-1.402, 2.126e-3
-1.401, 2.101e-3
-1.400, 2.075e-3
-1.399, 2.053e-3
-1.398, 2.029e-3
-1.397, 2.011e-3
-1.396, 1.987e-3
-1.395, 1.973e-3
-1.394, 1.954e-3
-1.393, 1.937e-3
-1.392, 1.918e-3
-1.391, 1.901e-3
-1.390, 1.881e-3
-1.389, 1.857e-3
-1.388, 1.834e-3
-1.387, 1.818e-3
-1.386, 1.800e-3
-1.385, 1.783e-3
-1.384, 1.768e-3
-1.383, 1.755e-3
-1.382, 1.726e-3
-1.381, 1.708e-3
-1.380, 1.692e-3
-1.379, 1.669e-3
-1.378, 1.650e-3
-1.377, 1.630e-3
-1.376, 1.607e-3
-1.375, 1.589e-3
-1.374, 1.570e-3
-1.373, 1.549e-3
-1.372, 1.537e-3
-1.371, 1.534e-3
-1.370, 1.506e-3
-1.369, 1.493e-3
-1.368, 1.478e-3
-1.367, 1.461e-3
-1.366, 1.448e-3
-1.365, 1.442e-3
-1.364, 1.426e-3
-1.363, 1.411e-3
-1.362, 1.397e-3
-1.361, 1.389e-3
-1.360, 1.380e-3
-1.359, 1.355e-3
-1.358, 1.343e-3
-1.357, 1.325e-3
-1.356, 1.306e-3
-1.355, 1.289e-3
-1.354, 1.272e-3
-1.353, 1.256e-3
-1.352, 1.241e-3
-1.351, 1.226e-3
-1.350, 1.212e-3
-1.349, 1.200e-3
-1.348, 1.182e-3
-1.347, 1.169e-3
-1.346, 1.165e-3
-1.345, 1.145e-3
-1.344, 1.129e-3
-1.343, 1.112e-3
-1.342, 1.098e-3
-1.341, 1.086e-3
-1.340, 1.070e-3
-1.339, 1.055e-3
-1.338, 1.045e-3
-1.337, 1.030e-3
-1.336, 1.021e-3
-1.335, 1.010e-3
-1.334, 9.919e-4
-1.333, 9.833e-4
-1.332, 9.745e-4
-1.331, 9.559e-4
-1.330, 9.406e-4
-1.329, 9.270e-4
-1.328, 9.138e-4
-1.327, 9.058e-4
-1.326, 8.961e-4
-1.325, 8.797e-4
-1.324, 8.716e-4
-1.323, 8.603e-4
-1.322, 8.443e-4
-1.321, 8.293e-4
-1.320, 8.211e-4
-1.319, 8.093e-4
-1.318, 7.968e-4
-1.317, 7.864e-4
-1.316, 7.760e-4
-1.315, 7.636e-4
-1.314, 7.507e-4
-1.313, 7.416e-4
-1.312, 7.311e-4
-1.311, 7.182e-4
-1.310, 7.086e-4
-1.309, 6.984e-4
-1.308, 6.882e-4
-1.307, 6.868e-4
-1.306, 6.766e-4
-1.305, 6.643e-4
-1.304, 6.535e-4
-1.303, 6.434e-4
-1.302, 6.334e-4
-1.301, 6.257e-4
-1.300, 6.152e-4
-1.299, 6.052e-4
-1.298, 5.959e-4
-1.297, 5.865e-4
-1.296, 5.779e-4
-1.295, 5.694e-4
-1.294, 5.604e-4
-1.293, 5.511e-4
-1.292, 5.504e-4
-1.291, 5.387e-4
-1.290, 5.293e-4
-1.289, 5.203e-4
-1.288, 5.117e-4
-1.287, 5.045e-4
-1.286, 4.967e-4
-1.285, 4.875e-4
-1.284, 4.802e-4
-1.283, 4.717e-4
-1.282, 4.640e-4
-1.281, 4.568e-4
-1.280, 4.483e-4
-1.279, 4.393e-4
-1.278, 4.329e-4
-1.277, 4.277e-4
-1.276, 4.203e-4
-1.275, 4.116e-4
-1.274, 4.044e-4
-1.273, 3.970e-4
-1.272, 3.854e-4
-1.271, 3.831e-4
-1.270, 3.759e-4
-1.269, 3.680e-4
-1.268, 3.624e-4
-1.267, 3.562e-4
-1.266, 3.502e-4
-1.265, 3.430e-4
-1.264, 3.367e-4
-1.263, 3.303e-4
-1.262, 3.255e-4
-1.261, 3.210e-4
-1.260, 3.139e-4
-1.259, 3.064e-4
-1.258, 3.003e-4
-1.257, 2.946e-4
-1.256, 2.901e-4
-1.255, 2.837e-4
-1.254, 2.791e-4
-1.253, 2.731e-4
-1.252, 2.696e-4
-1.251, 2.617e-4
-1.250, 2.538e-4
-1.249, 2.502e-4
-1.248, 2.467e-4
-1.247, 2.434e-4
-1.246, 2.382e-4
-1.245, 2.326e-4
-1.244, 2.279e-4
-1.243, 2.225e-4
-1.242, 2.190e-4
-1.241, 2.152e-4
-1.240, 2.101e-4
-1.239, 2.054e-4
-1.238, 2.002e-4
-1.237, 1.961e-4
-1.236, 1.898e-4
-1.235, 1.860e-4
-1.234, 1.813e-4
-1.233, 1.778e-4
-1.232, 1.741e-4
-1.231, 1.700e-4
-1.230, 1.663e-4
-1.229, 1.619e-4
-1.228, 1.574e-4
-1.227, 1.536e-4
-1.226, 1.498e-4
-1.225, 1.454e-4
-1.224, 1.414e-4
-1.223, 1.387e-4
-1.222, 1.352e-4
-1.221, 1.327e-4
-1.220, 1.279e-4
-1.219, 1.241e-4
-1.218, 1.213e-4
-1.217, 1.186e-4
-1.216, 1.145e-4
-1.215, 1.103e-4
-1.214, 1.013e-4
-1.213, 9.899e-5
-1.212, 9.782e-5
-1.211, 9.589e-5
-1.210, 9.331e-5
-1.209, 9.122e-5
-1.208, 8.904e-5
-1.207, 8.606e-5
-1.206, 8.344e-5
-1.205, 8.088e-5
-1.204, 7.750e-5
-1.203, 7.582e-5
-1.202, 7.326e-5
-1.201, 7.158e-5
-1.200, 6.873e-5
-1.199, 6.510e-5
-1.198, 6.294e-5
-1.197, 6.126e-5
-1.196, 5.969e-5
-1.195, 5.614e-5
-1.194, 5.366e-5
-1.193, 5.242e-5
-1.192, 4.994e-5
-1.191, 4.878e-5
-1.190, 4.568e-5
-1.189, 4.297e-5
-1.188, 4.110e-5
-1.187, 3.979e-5
-1.186, 3.841e-5
-1.185, 3.622e-5
-1.184, 3.336e-5
-1.183, 3.202e-5
-1.182, 3.138e-5
-1.181, 2.901e-5
-1.180, 2.580e-5
-1.179, 2.455e-5
-1.178, 2.241e-5
-1.177, 2.183e-5
-1.176, 2.012e-5
-1.175, 1.836e-5
-1.174, 1.674e-5
-1.173, 1.577e-5
-1.172, 1.472e-5
-1.171, 1.231e-5
-1.170, 1.062e-5
-1.169, 9.149e-6
-1.168, 8.187e-6
-1.167, 7.166e-6
-1.166, 6.054e-6
-1.165, 4.121e-6
-1.164, 3.135e-6
-1.163, 1.140e-6
-1.162, 1.404e-6
-1.161, -8.406e-8
-1.160, -2.150e-6
-1.159, -3.160e-6
-1.158, -4.594e-6
-1.157, -4.801e-6
-1.156, -6.144e-6
-1.155, -6.674e-6
-1.154, -7.636e-6
-1.153, -9.152e-6
-1.152, -1.006e-5
-1.151, -1.052e-5
-1.150, -1.124e-5
-1.149, -1.193e-5
-1.148, -1.372e-5
-1.147, -1.378e-5
-1.146, -1.519e-5
-1.145, -1.590e-5
-1.144, -1.673e-5
-1.143, -1.805e-5
-1.142, -1.941e-5
-1.141, -1.928e-5
-1.140, -2.053e-5
-1.139, -2.066e-5
-1.138, -2.212e-5
-1.137, -2.204e-5
-1.136, -2.224e-5
-1.135, -2.328e-5
-1.134, -2.488e-5
-1.133, -2.483e-5
-1.132, -2.439e-5
-1.131, -2.495e-5
-1.130, -2.640e-5
-1.129, -2.721e-5
-1.128, -2.720e-5
-1.127, -2.765e-5
-1.126, -2.739e-5
-1.125, -2.859e-5
-1.124, -2.986e-5
-1.123, -3.047e-5
-1.122, -2.985e-5
-1.121, -3.053e-5
-1.120, -3.089e-5
-1.119, -3.197e-5
-1.118, -3.260e-5
-1.117, -3.166e-5
-1.116, -3.277e-5
-1.115, -3.325e-5
-1.114, -3.318e-5
-1.113, -3.427e-5
-1.112, -3.411e-5
-1.111, -3.387e-5
-1.110, -3.477e-5
-1.109, -3.480e-5
-1.108, -3.525e-5
-1.107, -3.536e-5
-1.106, -3.567e-5
-1.105, -3.647e-5
-1.104, -3.675e-5
-1.103, -3.667e-5
-1.102, -3.646e-5
-1.101, -3.662e-5
-1.100, -3.779e-5
-1.099, -3.802e-5
-1.098, -3.738e-5
-1.097, -3.747e-5
-1.096, -3.732e-5
-1.095, -3.777e-5
-1.094, -3.797e-5
-1.093, -3.846e-5
-1.092, -3.862e-5
-1.091, -3.830e-5
-1.090, -3.790e-5
-1.089, -3.915e-5
-1.088, -3.856e-5
-1.087, -3.805e-5
-1.086, -3.848e-5
-1.085, -3.821e-5
-1.084, -3.927e-5
-1.083, -3.906e-5
-1.082, -3.818e-5
-1.081, -3.883e-5
-1.080, -3.942e-5
-1.079, -4.036e-5
-1.078, -4.036e-5
-1.077, -3.973e-5
-1.076, -3.982e-5
-1.075, -4.093e-5
-1.074, -4.064e-5
-1.073, -4.035e-5
-1.072, -4.046e-5
-1.071, -4.039e-5
-1.070, -4.071e-5
-1.069, -4.136e-5
-1.068, -4.119e-5
-1.067, -4.125e-5
-1.066, -4.122e-5
-1.065, -4.168e-5
-1.064, -4.202e-5
-1.063, -4.211e-5
-1.062, -4.129e-5
-1.061, -4.114e-5
-1.060, -4.153e-5
-1.059, -4.245e-5
-1.058, -4.215e-5
-1.057, -4.169e-5
-1.056, -4.150e-5
-1.055, -4.217e-5
-1.054, -4.315e-5
-1.053, -4.298e-5
-1.052, -4.271e-5
-1.051, -4.247e-5
-1.050, -4.272e-5
-1.049, -4.345e-5
-1.048, -4.305e-5
-1.047, -4.250e-5
-1.046, -4.264e-5
-1.045, -4.362e-5
-1.044, -4.460e-5
-1.043, -4.432e-5
-1.042, -4.341e-5
-1.041, -4.396e-5
-1.040, -4.466e-5
-1.039, -4.490e-5
-1.038, -4.497e-5
-1.037, -4.430e-5
-1.036, -4.429e-5
-1.035, -4.512e-5
-1.034, -4.513e-5
-1.033, -4.548e-5
-1.032, -4.451e-5
-1.031, -4.464e-5
-1.030, -4.524e-5
-1.029, -4.545e-5
-1.028, -4.550e-5
-1.027, -4.503e-5
-1.026, -4.541e-5
-1.025, -4.616e-5
-1.024, -4.676e-5
-1.023, -4.622e-5
-1.022, -4.617e-5
-1.021, -4.598e-5
-1.020, -4.644e-5
-1.019, -4.730e-5
-1.018, -4.704e-5
-1.017, -4.670e-5
-1.016, -4.719e-5
-1.015, -4.786e-5
-1.014, -4.858e-5
-1.013, -4.838e-5
-1.012, -4.776e-5
-1.011, -4.770e-5
-1.010, -4.873e-5
-1.009, -4.930e-5
-1.008, -4.905e-5
-1.007, -4.886e-5
-1.006, -4.924e-5
-1.005, -4.995e-5
-1.004, -5.055e-5
-1.003, -5.044e-5
-1.002, -4.994e-5
-1.001, -5.007e-5
-1.000, -3.829e-5
-1.001, -2.677e-5
-1.002, -1.982e-5
-1.003, -1.433e-5
-1.004, -1.036e-5
-1.005, -7.686e-6
-1.006, -4.991e-6
-1.007, -2.026e-6
-1.008, 9.765e-7
-1.009, 3.447e-6
-1.010, 4.809e-6
-1.011, 5.972e-6
-1.012, 7.690e-6
-1.013, 9.774e-6
-1.014, 1.075e-5
-1.015, 1.136e-5
-1.016, 1.182e-5
-1.017, 1.310e-5
-1.018, 1.454e-5
-1.019, 1.560e-5
-1.020, 1.589e-5
-1.021, 1.571e-5
-1.022, 1.673e-5
-1.023, 1.814e-5
-1.024, 1.853e-5
-1.025, 1.902e-5
-1.026, 1.954e-5
-1.027, 2.063e-5
-1.028, 2.128e-5
-1.029, 2.185e-5
-1.030, 2.226e-5
-1.031, 2.261e-5
-1.032, 2.319e-5
-1.033, 2.434e-5
-1.034, 2.520e-5
-1.035, 2.459e-5
-1.036, 2.442e-5
-1.037, 2.505e-5
-1.038, 2.607e-5
-1.039, 2.632e-5
-1.040, 2.632e-5
-1.041, 2.663e-5
-1.042, 2.756e-5
-1.043, 2.817e-5
-1.044, 2.789e-5
-1.045, 2.754e-5
-1.046, 2.764e-5
-1.047, 2.865e-5
-1.048, 2.965e-5
-1.049, 3.030e-5
-1.050, 3.069e-5
-1.051, 3.034e-5
-1.052, 3.112e-5
-1.053, 3.093e-5
-1.054, 3.164e-5
-1.055, 3.158e-5
-1.056, 3.171e-5
-1.057, 3.214e-5
-1.058, 3.270e-5
-1.059, 3.294e-5
-1.060, 3.345e-5
-1.061, 3.411e-5
-1.062, 3.453e-5
-1.063, 3.479e-5
-1.064, 3.468e-5
-1.065, 3.469e-5
-1.066, 3.447e-5
-1.067, 3.511e-5
-1.068, 3.629e-5
-1.069, 3.651e-5
-1.070, 3.601e-5
-1.071, 3.559e-5
-1.072, 3.601e-5
-1.073, 3.598e-5
-1.074, 3.666e-5
-1.075, 3.669e-5
-1.076, 3.678e-5
-1.077, 3.726e-5
-1.078, 3.743e-5
-1.079, 3.825e-5
-1.080, 3.793e-5
-1.081, 3.740e-5
-1.082, 3.812e-5
-1.083, 3.821e-5
-1.084, 3.808e-5
-1.085, 3.767e-5
-1.086, 3.816e-5
-1.087, 3.894e-5
-1.088, 3.961e-5
-1.089, 3.816e-5
-1.090, 3.780e-5
-1.091, 3.832e-5
-1.092, 3.912e-5
-1.093, 3.993e-5
-1.094, 4.025e-5
-1.095, 3.971e-5
-1.096, 3.938e-5
-1.097, 4.019e-5
-1.098, 4.069e-5
-1.099, 4.084e-5
-1.100, 4.066e-5
-1.101, 4.038e-5
-1.102, 4.073e-5
-1.103, 4.228e-5
-1.104, 4.045e-5
-1.105, 4.139e-5
-1.106, 4.264e-5
-1.107, 4.301e-5
-1.108, 4.303e-5
-1.109, 4.264e-5
-1.110, 4.294e-5
-1.111, 4.325e-5
-1.112, 4.419e-5
-1.113, 4.534e-5
-1.114, 4.475e-5
-1.115, 4.394e-5
-1.116, 4.460e-5
-1.117, 4.514e-5
-1.118, 4.593e-5
-1.119, 4.616e-5
-1.120, 4.620e-5
-1.121, 4.627e-5
-1.122, 4.716e-5
-1.123, 4.795e-5
-1.124, 4.787e-5
-1.125, 4.680e-5
-1.126, 4.645e-5
-1.127, 4.928e-5
-1.128, 5.019e-5
-1.129, 5.090e-5
-1.130, 5.086e-5
-1.131, 5.131e-5
-1.132, 5.215e-5
-1.133, 5.328e-5
-1.134, 5.358e-5
-1.135, 5.335e-5
-1.136, 5.235e-5
-1.137, 5.361e-5
-1.138, 5.463e-5
-1.139, 5.459e-5
-1.140, 5.421e-5
-1.141, 5.485e-5
-1.142, 5.612e-5
-1.143, 5.727e-5
-1.144, 5.790e-5
-1.145, 5.822e-5
-1.146, 5.799e-5
-1.147, 5.796e-5
-1.148, 4.980e-5
-1.149, 5.613e-5
-1.150, 6.023e-5
-1.151, 6.057e-5
-1.152, 6.140e-5
-1.153, 6.302e-5
-1.154, 6.364e-5
-1.155, 6.385e-5
-1.156, 6.342e-5
-1.157, 6.605e-5
-1.158, 6.765e-5
-1.159, 6.830e-5
-1.160, 6.824e-5
-1.161, 6.919e-5
-1.162, 7.124e-5
-1.163, 7.050e-5
-1.164, 7.252e-5
-1.165, 7.409e-5
-1.166, 7.513e-5
-1.167, 7.623e-5
-1.168, 7.830e-5
-1.169, 7.839e-5
-1.170, 7.837e-5
-1.171, 8.010e-5
-1.172, 8.219e-5
-1.173, 8.379e-5
-1.174, 8.472e-5
-1.175, 8.603e-5
-1.176, 8.671e-5
-1.177, 8.875e-5
-1.178, 9.049e-5
-1.179, 8.992e-5
-1.180, 9.081e-5
-1.181, 9.262e-5
-1.182, 9.481e-5
-1.183, 9.678e-5
-1.184, 9.718e-5
-1.185, 9.823e-5
-1.186, 9.992e-5
-1.187, 1.019e-4
-1.188, 1.041e-4
-1.189, 1.052e-4
-1.190, 1.063e-4
-1.191, 1.085e-4
-1.192, 1.108e-4
-1.193, 1.138e-4
-1.194, 1.158e-4
-1.195, 1.179e-4
-1.196, 1.190e-4
-1.197, 1.212e-4
-1.198, 1.237e-4
-1.199, 1.256e-4
-1.200, 1.268e-4
-1.201, 1.290e-4
-1.202, 1.323e-4
-1.203, 1.348e-4
-1.204, 1.373e-4
-1.205, 1.316e-4
-1.206, 1.321e-4
-1.207, 1.413e-4
-1.208, 1.454e-4
-1.209, 1.474e-4
-1.210, 1.500e-4
-1.211, 1.525e-4
-1.212, 1.558e-4
-1.213, 1.601e-4
-1.214, 1.618e-4
-1.215, 1.654e-4
-1.216, 1.661e-4
-1.217, 1.699e-4
-1.218, 1.745e-4
-1.219, 1.779e-4
-1.220, 1.808e-4
-1.221, 1.829e-4
-1.222, 1.863e-4
-1.223, 1.911e-4
-1.224, 1.943e-4
-1.225, 1.967e-4
-1.226, 1.988e-4
-1.227, 2.038e-4
-1.228, 2.082e-4
-1.229, 2.120e-4
-1.230, 2.150e-4
-1.231, 2.183e-4
-1.232, 2.172e-4
-1.233, 2.241e-4
-1.234, 2.293e-4
-1.235, 2.330e-4
-1.236, 2.368e-4
-1.237, 2.420e-4
-1.238, 2.471e-4
-1.239, 2.503e-4
-1.240, 2.542e-4
-1.241, 2.589e-4
-1.242, 2.642e-4
-1.243, 2.699e-4
-1.244, 2.743e-4
-1.245, 2.781e-4
-1.246, 2.837e-4
-1.247, 2.896e-4
-1.248, 2.942e-4
-1.249, 2.996e-4
-1.250, 3.040e-4
-1.251, 3.085e-4
-1.252, 3.142e-4
-1.253, 3.203e-4
-1.254, 3.252e-4
-1.255, 3.303e-4
-1.256, 3.349e-4
-1.257, 3.406e-4
-1.258, 3.465e-4
-1.259, 3.519e-4
-1.260, 3.563e-4
-1.261, 3.641e-4
-1.262, 3.695e-4
-1.263, 3.758e-4
-1.264, 3.814e-4
-1.265, 3.864e-4
-1.266, 3.925e-4
-1.267, 3.993e-4
-1.268, 4.060e-4
-1.269, 4.126e-4
-1.270, 4.181e-4
-1.271, 4.253e-4
-1.272, 4.322e-4
-1.273, 4.390e-4
-1.274, 4.438e-4
-1.275, 4.500e-4
-1.276, 4.578e-4
-1.277, 4.663e-4
-1.278, 4.733e-4
-1.279, 4.802e-4
-1.280, 4.869e-4
-1.281, 4.944e-4
-1.282, 5.019e-4
-1.283, 5.096e-4
-1.284, 5.164e-4
-1.285, 5.225e-4
-1.286, 5.304e-4
-1.287, 5.389e-4
-1.288, 5.476e-4
-1.289, 5.560e-4
-1.290, 5.627e-4
-1.291, 5.709e-4
-1.292, 5.811e-4
-1.293, 5.898e-4
-1.294, 5.969e-4
-1.295, 6.045e-4
-1.296, 6.112e-4
-1.297, 6.202e-4
-1.298, 6.290e-4
-1.299, 6.370e-4
-1.300, 6.450e-4
-1.301, 6.545e-4
-1.302, 6.631e-4
-1.303, 6.731e-4
-1.304, 6.821e-4
-1.305, 6.913e-4
-1.306, 7.002e-4
-1.307, 7.103e-4
-1.308, 7.197e-4
-1.309, 7.298e-4
-1.310, 7.386e-4
-1.311, 7.489e-4
-1.312, 7.583e-4
-1.313, 7.678e-4
-1.314, 7.773e-4
-1.315, 7.869e-4
-1.316, 7.963e-4
-1.317, 8.068e-4
-1.318, 8.127e-4
-1.319, 8.251e-4
-1.320, 8.351e-4
-1.321, 8.458e-4
-1.322, 8.581e-4
-1.323, 8.686e-4
-1.324, 8.791e-4
-1.325, 8.914e-4
-1.326, 9.020e-4
-1.327, 9.120e-4
-1.328, 9.228e-4
-1.329, 9.366e-4
-1.330, 9.466e-4
-1.331, 9.582e-4
-1.332, 9.701e-4
-1.333, 9.828e-4
-1.334, 9.929e-4
-1.335, 1.003e-3
-1.336, 1.014e-3
-1.337, 1.025e-3
-1.338, 1.037e-3
-1.339, 1.048e-3
-1.340, 1.058e-3
-1.341, 1.068e-3
-1.342, 1.080e-3
-1.343, 1.093e-3
-1.344, 1.103e-3
-1.345, 1.115e-3
-1.346, 1.126e-3
-1.347, 1.141e-3
-1.348, 1.157e-3
-1.349, 1.165e-3
-1.350, 1.176e-3
-1.351, 1.188e-3
-1.352, 1.199e-3
-1.353, 1.211e-3
-1.354, 1.224e-3
-1.355, 1.236e-3
-1.356, 1.249e-3
-1.357, 1.262e-3
-1.358, 1.273e-3
-1.359, 1.287e-3
-1.360, 1.305e-3
-1.361, 1.320e-3
-1.362, 1.340e-3
-1.363, 1.356e-3
-1.364, 1.368e-3
-1.365, 1.380e-3
-1.366, 1.394e-3
-1.367, 1.404e-3
-1.368, 1.418e-3
-1.369, 1.434e-3
-1.370, 1.454e-3
-1.371, 1.470e-3
-1.372, 1.490e-3
-1.373, 1.499e-3
-1.374, 1.512e-3
-1.375, 1.533e-3
-1.376, 1.551e-3
-1.377, 1.574e-3
-1.378, 1.588e-3
-1.379, 1.599e-3
-1.380, 1.614e-3
-1.381, 1.626e-3
-1.382, 1.639e-3
-1.383, 1.656e-3
-1.384, 1.679e-3
-1.385, 1.694e-3
-1.386, 1.708e-3
-1.387, 1.720e-3
-1.388, 1.734e-3
-1.389, 1.752e-3
-1.390, 1.767e-3
-1.391, 1.784e-3
-1.392, 1.802e-3
-1.393, 1.815e-3
-1.394, 1.832e-3
-1.395, 1.850e-3
-1.396, 1.866e-3
-1.397, 1.878e-3
-1.398, 1.765e-3
-1.399, 1.874e-3
-1.400, 1.887e-3
-1.401, 1.894e-3
-1.402, 1.906e-3
-1.403, 1.926e-3
-1.404, 1.937e-3
-1.405, 1.954e-3
-1.406, 1.977e-3
-1.407, 1.993e-3
-1.408, 2.008e-3
-1.409, 2.019e-3
-1.410, 2.036e-3
-1.411, 2.054e-3
-1.412, 2.070e-3
-1.413, 2.088e-3
-1.414, 2.104e-3
-1.415, 2.116e-3
-1.416, 2.130e-3
-1.417, 2.144e-3
-1.418, 2.160e-3
-1.419, 2.182e-3
-1.420, 2.197e-3
-1.421, 2.214e-3
-1.422, 2.233e-3
-1.423, 2.249e-3
-1.424, 2.269e-3
-1.425, 2.293e-3
-1.426, 2.305e-3
-1.427, 2.321e-3
-1.428, 2.337e-3
-1.429, 2.350e-3
-1.430, 2.365e-3
-1.431, 2.385e-3
-1.432, 2.409e-3
-1.433, 2.427e-3
-1.434, 2.443e-3
-1.435, 2.481e-3
-1.436, 2.510e-3
-1.437, 2.538e-3
-1.438, 2.556e-3
-1.439, 2.570e-3
-1.440, 2.589e-3
-1.441, 2.607e-3
-1.442, 2.622e-3
-1.443, 2.645e-3
-1.444, 2.663e-3
-1.445, 2.675e-3
-1.446, 2.690e-3
-1.447, 2.708e-3
-1.448, 2.725e-3
-1.449, 2.742e-3
-1.450, 2.769e-3
-1.451, 2.791e-3
-1.452, 2.812e-3
-1.453, 2.823e-3
-1.454, 2.836e-3
-1.455, 2.820e-3
-1.456, 2.849e-3
-1.457, 2.885e-3
-1.458, 2.908e-3
-1.459, 2.932e-3
-1.460, 2.945e-3
-1.461, 2.952e-3
-1.462, 2.971e-3
-1.463, 2.993e-3
-1.464, 3.023e-3
-1.465, 3.038e-3
-1.466, 3.057e-3
-1.467, 3.080e-3
-1.468, 2.656e-3
-1.469, 2.128e-3
-1.470, 2.272e-3
-1.471, 2.327e-3
-1.472, 2.380e-3
-1.473, 2.441e-3
-1.474, 2.491e-3
-1.475, 2.536e-3
-1.476, 2.575e-3
-1.477, 2.615e-3
-1.478, 2.662e-3
-1.479, 2.703e-3
-1.480, 2.747e-3
-1.481, 2.794e-3
-1.482, 2.842e-3
-1.483, 2.896e-3
-1.484, 2.952e-3
-1.485, 3.002e-3
-1.486, 3.065e-3
-1.487, 3.106e-3
-1.488, 3.151e-3
-1.489, 3.194e-3
-1.490, 3.246e-3
-1.491, 3.277e-3
-1.492, 3.315e-3
-1.493, 3.368e-3
-1.494, 3.397e-3
-1.495, 3.429e-3
-1.496, 3.463e-3
-1.497, 3.489e-3
-1.498, 3.527e-3
-1.499, 3.569e-3
-1.500, 3.559e-3
-1.499, 3.534e-3
-1.498, 3.507e-3
-1.497, 3.473e-3
-1.496, 3.450e-3
-1.495, 3.421e-3
-1.494, 3.389e-3
-1.493, 3.364e-3
-1.492, 3.323e-3
-1.491, 3.288e-3
-1.490, 3.275e-3
-1.489, 3.247e-3
-1.488, 3.231e-3
-1.487, 3.190e-3
-1.486, 3.140e-3
-1.485, 3.079e-3
-1.484, 2.986e-3
-1.483, 2.942e-3
-1.482, 2.845e-3
-1.481, 2.765e-3
-1.480, 2.722e-3
-1.479, 2.665e-3
-1.478, 2.617e-3
-1.477, 2.577e-3
-1.476, 2.445e-3
-1.475, 2.357e-3
-1.474, 2.332e-3
-1.473, 2.325e-3
-1.472, 2.305e-3
-1.471, 2.251e-3
-1.470, 1.837e-3
-1.469, 2.026e-3
-1.468, 2.024e-3
-1.467, 2.005e-3
-1.466, 1.996e-3
-1.465, 2.006e-3
-1.464, 1.987e-3
-1.463, 1.964e-3
-1.462, 1.906e-3
-1.461, 1.675e-3
-1.460, 1.589e-3
-1.459, 1.556e-3
-1.458, 1.497e-3
-1.457, 8.905e-4
-1.456, 9.557e-4
-1.455, 9.372e-4
-1.454, 8.545e-4
-1.453, 8.547e-4
-1.452, 8.504e-4
-1.451, 6.195e-4
-1.450, 5.261e-4
-1.449, 5.428e-4
-1.448, 5.432e-4
-1.447, 5.408e-4
-1.446, 5.369e-4
-1.445, 5.307e-4
-1.444, 5.239e-4
-1.443, 5.213e-4
-1.442, 5.174e-4
-1.441, 5.088e-4
-1.440, 5.006e-4
-1.439, 4.928e-4
-1.438, 4.873e-4
-1.437, 4.820e-4
-1.436, 4.770e-4
-1.435, 4.714e-4
-1.434, 4.466e-4
-1.433, 4.451e-4
-1.432, 4.371e-4
-1.431, 4.308e-4
-1.430, 4.303e-4
-1.429, 4.270e-4
-1.428, 3.995e-4
-1.427, 4.032e-4
-1.426, 4.044e-4
-1.425, 4.049e-4
-1.424, 4.048e-4
-1.423, 4.045e-4
-1.422, 4.022e-4
-1.421, 3.928e-4
-1.420, 3.847e-4
-1.419, 3.825e-4
-1.418, 3.781e-4
-1.417, 3.700e-4
-1.416, 3.639e-4
-1.415, 3.593e-4
-1.414, 3.580e-4
-1.413, 3.519e-4
-1.412, 3.438e-4
-1.411, 3.369e-4
-1.410, 3.321e-4
-1.409, 3.281e-4
-1.408, 3.243e-4
-1.407, 3.216e-4
-1.406, 3.172e-4
-1.405, 3.128e-4
-1.404, 3.094e-4
-1.403, 3.041e-4
-1.402, 2.996e-4
-1.401, 2.949e-4
-1.400, 2.897e-4
-1.399, 2.822e-4
-1.398, 2.814e-4
-1.397, 2.780e-4
-1.396, 2.762e-4
-1.395, 2.736e-4
-1.394, 2.686e-4
-1.393, 2.660e-4
-1.392, 2.629e-4
-1.391, 2.586e-4
-1.390, 2.539e-4
-1.389, 2.502e-4
-1.388, 2.468e-4
-1.387, 2.435e-4
-1.386, 2.391e-4
-1.385, 2.340e-4
-1.384, 2.307e-4
-1.383, 2.284e-4
-1.382, 2.249e-4
-1.381, 2.206e-4
-1.380, 2.168e-4
-1.379, 2.145e-4
-1.378, 2.124e-4
-1.377, 2.088e-4
-1.376, 2.062e-4
-1.375, 1.713e-4
-1.374, 1.847e-4
-1.373, 1.785e-4
-1.372, 1.770e-4
-1.371, 1.830e-4
-1.370, 1.782e-4
-1.369, 1.751e-4
-1.368, 1.639e-4
-1.367, 1.750e-4
-1.366, 1.700e-4
-1.365, 1.669e-4
-1.364, 1.649e-4
-1.363, 1.634e-4
-1.362, 1.613e-4
-1.361, 1.586e-4
-1.360, 1.562e-4
-1.359, 1.526e-4
-1.358, 1.514e-4
-1.357, 1.498e-4
-1.356, 1.472e-4
-1.355, 1.450e-4
-1.354, 1.428e-4
-1.353, 1.416e-4
-1.352, 1.366e-4
-1.351, 1.364e-4
-1.350, 1.339e-4
-1.349, 1.316e-4
-1.348, 1.304e-4
-1.347, 1.282e-4
-1.346, 1.248e-4
-1.345, 1.233e-4
-1.344, 1.215e-4
-1.343, 1.204e-4
-1.342, 1.199e-4
-1.341, 1.141e-4
-1.340, 1.131e-4
-1.339, 1.122e-4
-1.338, 1.112e-4
-1.337, 1.093e-4
-1.336, 1.073e-4
-1.335, 1.053e-4
-1.334, 1.049e-4
-1.333, 1.046e-4
-1.332, 1.024e-4
-1.331, 9.977e-5
-1.330, 9.776e-5
-1.329, 9.596e-5
-1.328, 9.373e-5
-1.327, 9.168e-5
-1.326, 8.815e-5
-1.325, 4.781e-5
-1.324, -9.705e-6
-1.323, 5.140e-5
-1.322, 5.473e-5
-1.321, 6.226e-5
-1.320, 6.675e-5
-1.319, 6.741e-5
-1.318, 6.761e-5
-1.317, 6.683e-5
-1.316, 6.530e-5
-1.315, 6.351e-5
-1.314, 6.242e-5
-1.313, 6.161e-5
-1.312, 6.047e-5
-1.311, 5.881e-5
-1.310, 5.710e-5
-1.309, 5.626e-5
-1.308, 5.539e-5
-1.307, 5.416e-5
-1.306, 5.244e-5
-1.305, 5.071e-5
-1.304, 4.985e-5
-1.303, 4.919e-5
-1.302, 4.840e-5
-1.301, 4.687e-5
-1.300, 4.521e-5
-1.299, 4.441e-5
-1.298, 4.340e-5
-1.297, 4.266e-5
-1.296, 4.108e-5
-1.295, 3.944e-5
-1.294, 3.864e-5
-1.293, 3.805e-5
-1.292, 3.677e-5
-1.291, 3.516e-5
-1.290, 3.376e-5
-1.289, 3.298e-5
-1.288, 3.265e-5
-1.287, 3.190e-5
-1.286, 3.052e-5
-1.285, 2.921e-5
-1.284, 1.135e-5
-1.283, 1.785e-5
-1.282, 1.445e-5
-1.281, 1.489e-5
-1.280, 1.767e-5
-1.279, 1.827e-5
-1.278, 1.868e-5
-1.277, 1.866e-5
-1.276, 1.741e-5
-1.275, 1.497e-5
-1.274, 1.436e-5
-1.273, 1.332e-5
-1.272, 1.167e-5
-1.271, 1.230e-5
-1.270, 1.056e-5
-1.269, 1.035e-5
-1.268, 1.127e-5
-1.267, 1.093e-5
-1.266, 1.024e-5
-1.265, 9.664e-6
-1.264, 9.736e-6
-1.263, 9.716e-6
-1.262, 8.768e-6
-1.261, 8.461e-6
-1.260, 5.733e-6
-1.259, 4.039e-6
-1.258, 4.487e-6
-1.257, 4.267e-6
-1.256, 3.127e-6
-1.255, 2.353e-6
-1.254, 1.972e-6
-1.253, 2.026e-6
-1.252, 1.485e-6
-1.251, 1.656e-7
-1.250, -6.435e-7
-1.249, -1.074e-6
-1.248, -9.631e-7
-1.247, -1.649e-6
-1.246, -2.622e-6
-1.245, -3.362e-6
-1.244, -3.526e-6
-1.243, -3.497e-6
-1.242, -4.045e-6
-1.241, -5.288e-6
-1.240, -6.020e-6
-1.239, -6.199e-6
-1.238, -6.209e-6
-1.237, -6.496e-6
-1.236, -7.187e-6
-1.235, -7.957e-6
-1.234, -8.110e-6
-1.233, -8.018e-6
-1.232, -8.662e-6
-1.231, -9.210e-6
-1.230, -1.015e-5
-1.229, -1.029e-5
-1.228, -1.050e-5
-1.227, -1.111e-5
-1.226, -1.183e-5
-1.225, -1.278e-5
-1.224, -1.222e-5
-1.223, -1.221e-5
-1.222, -1.269e-5
-1.221, -1.379e-5
-1.220, -1.413e-5
-1.219, -1.433e-5
-1.218, -1.427e-5
-1.217, -1.454e-5
-1.216, -1.560e-5
-1.215, -1.617e-5
-1.214, -1.620e-5
-1.213, -1.584e-5
-1.212, -1.632e-5
-1.211, -1.720e-5
-1.210, -1.798e-5
-1.209, -1.808e-5
-1.208, -1.767e-5
-1.207, -1.831e-5
-1.206, -1.894e-5
-1.205, -1.957e-5
-1.204, -1.949e-5
-1.203, -1.919e-5
-1.202, -1.934e-5
-1.201, -2.046e-5
-1.200, -2.228e-5
-1.199, -2.096e-5
-1.198, -1.976e-5
-1.197, -2.095e-5
-1.196, -2.234e-5
-1.195, -2.349e-5
-1.194, -2.299e-5
-1.193, -2.208e-5
-1.192, -2.147e-5
-1.191, -2.314e-5
-1.190, -2.372e-5
-1.189, -2.299e-5
-1.188, -2.299e-5
-1.187, -2.287e-5
-1.186, -2.319e-5
-1.185, -2.359e-5
-1.184, -2.376e-5
-1.183, -2.282e-5
-1.182, -2.332e-5
-1.181, -2.407e-5
-1.180, -2.421e-5
-1.179, -2.373e-5
-1.178, -2.336e-5
-1.177, -2.368e-5
-1.176, -2.415e-5
-1.175, -2.457e-5
-1.174, -2.462e-5
-1.173, -2.425e-5
-1.172, -2.445e-5
-1.171, -2.550e-5
-1.170, -2.594e-5
-1.169, -2.556e-5
-1.168, -2.504e-5
-1.167, -2.525e-5
-1.166, -2.622e-5
-1.165, -2.649e-5
-1.164, -2.617e-5
-1.163, -2.589e-5
-1.162, -2.682e-5
-1.161, -2.703e-5
-1.160, -2.725e-5
-1.159, -2.695e-5
-1.158, -2.646e-5
-1.157, -2.655e-5
-1.156, -2.739e-5
-1.155, -2.767e-5
-1.154, -2.737e-5
-1.153, -2.700e-5
-1.152, -2.719e-5
-1.151, -2.774e-5
-1.150, -2.808e-5
-1.149, -2.772e-5
-1.148, -2.724e-5
-1.147, -2.756e-5
-1.146, -2.817e-5
-1.145, -2.851e-5
-1.144, -2.819e-5
-1.143, -2.785e-5
-1.142, -2.819e-5
-1.141, -2.874e-5
-1.140, -2.905e-5
-1.139, -2.919e-5
-1.138, -2.821e-5
-1.137, -2.843e-5
-1.136, -2.912e-5
-1.135, -3.007e-5
-1.134, -2.936e-5
-1.133, -2.888e-5
-1.132, -2.885e-5
-1.131, -2.965e-5
-1.130, -3.065e-5
-1.129, -3.114e-5
-1.128, -2.970e-5
-1.127, -3.025e-5
-1.126, -3.032e-5
-1.125, -3.018e-5
-1.124, -2.966e-5
-1.123, -2.973e-5
-1.122, -2.931e-5
-1.121, -3.012e-5
-1.120, -3.045e-5
-1.119, -3.016e-5
-1.118, -2.979e-5
-1.117, -3.029e-5
-1.116, -3.082e-5
-1.115, -3.119e-5
-1.114, -3.079e-5
-1.113, -3.055e-5
-1.112, -3.084e-5
-1.111, -3.159e-5
-1.110, -3.177e-5
-1.109, -3.160e-5
-1.108, -3.157e-5
-1.107, -3.131e-5
-1.106, -3.208e-5
-1.105, -3.255e-5
-1.104, -3.226e-5
-1.103, -3.193e-5
-1.102, -3.213e-5
-1.101, -3.281e-5
-1.100, -3.301e-5
-1.099, -3.249e-5
-1.098, -3.241e-5
-1.097, -3.287e-5
-1.096, -3.343e-5
-1.095, -3.397e-5
-1.094, -3.352e-5
-1.093, -3.338e-5
-1.092, -3.367e-5
-1.091, -3.433e-5
-1.090, -3.438e-5
-1.089, -3.387e-5
-1.088, -3.352e-5
-1.087, -3.352e-5
-1.086, -3.434e-5
-1.085, -3.459e-5
-1.084, -3.414e-5
-1.083, -3.377e-5
-1.082, -3.413e-5
-1.081, -3.578e-5
-1.080, -3.813e-5
-1.079, -3.740e-5
-1.078, -3.686e-5
-1.077, -3.691e-5
-1.076, -3.736e-5
-1.075, -3.734e-5
-1.074, -3.681e-5
-1.073, -3.641e-5
-1.072, -3.677e-5
-1.071, -3.732e-5
-1.070, -3.744e-5
-1.069, -3.697e-5
-1.068, -3.666e-5
-1.067, -3.707e-5
-1.066, -3.769e-5
-1.065, -3.809e-5
-1.064, -3.774e-5
-1.063, -3.750e-5
-1.062, -3.793e-5
-1.061, -3.876e-5
-1.060, -3.894e-5
-1.059, -3.865e-5
-1.058, -3.846e-5
-1.057, -3.875e-5
-1.056, -4.010e-5
-1.055, -3.991e-5
-1.054, -3.920e-5
-1.053, -3.874e-5
-1.052, -3.913e-5
-1.051, -3.972e-5
-1.050, -4.007e-5
-1.049, -3.957e-5
-1.048, -3.903e-5
-1.047, -3.946e-5
-1.046, -4.034e-5
-1.045, -4.073e-5
-1.044, -4.044e-5
-1.043, -4.082e-5
-1.042, -4.080e-5
-1.041, -4.139e-5
-1.040, -4.145e-5
-1.039, -4.110e-5
-1.038, -4.075e-5
-1.037, -4.106e-5
-1.036, -4.192e-5
-1.035, -4.222e-5
-1.034, -4.183e-5
-1.033, -4.163e-5
-1.032, -4.215e-5
-1.031, -4.288e-5
-1.030, -4.301e-5
-1.029, -4.259e-5
-1.028, -4.225e-5
-1.027, -4.282e-5
-1.026, -4.353e-5
-1.025, -4.381e-5
-1.024, -4.340e-5
-1.023, -4.286e-5
-1.022, -4.328e-5
-1.021, -4.372e-5
-1.020, -4.374e-5
-1.019, -4.338e-5
-1.018, -4.318e-5
-1.017, -4.333e-5
-1.016, -4.386e-5
-1.015, -4.389e-5
-1.014, -4.347e-5
-1.013, -4.327e-5
-1.012, -4.351e-5
-1.011, -4.416e-5
-1.010, -4.441e-5
-1.009, -4.395e-5
-1.008, -4.350e-5
-1.007, -4.387e-5
-1.006, -4.472e-5
-1.005, -4.478e-5
-1.004, -4.429e-5
-1.003, -4.394e-5
-1.002, -4.428e-5
-1.001, -4.515e-5
-1.000, -3.930e-5
-1.001, -3.432e-5
-1.002, -3.157e-5
-1.003, -2.992e-5
-1.004, -2.887e-5
-1.005, -2.847e-5
-1.006, -2.891e-5
-1.007, -2.567e-5
-1.008, -2.462e-5
-1.009, -2.403e-5
-1.010, -2.295e-5
-1.011, -2.138e-5
-1.012, -1.991e-5
-1.013, -1.922e-5
-1.014, -1.868e-5
-1.015, -1.771e-5
-1.016, -1.625e-5
-1.017, -1.500e-5
-1.018, -1.444e-5
-1.019, -1.418e-5
-1.020, -1.340e-5
-1.021, -1.193e-5
-1.022, -1.058e-5
-1.023, -1.013e-5
-1.024, -9.703e-6
-1.025, -9.003e-6
-1.026, -8.213e-6
-1.027, -6.509e-6
-1.028, -5.953e-6
-1.029, -5.933e-6
-1.030, -5.253e-6
-1.031, -3.906e-6
-1.032, -3.097e-6
-1.033, -2.459e-6
-1.034, -2.500e-6
-1.035, -2.044e-6
-1.036, -9.532e-7
-1.037, 1.557e-7
-1.038, 4.448e-7
-1.039, -1.252e-6
-1.040, -3.867e-8
-1.041, 1.294e-6
-1.042, 2.298e-6
-1.043, 2.503e-6
-1.044, 2.458e-6
-1.045, 3.067e-6
-1.046, 4.653e-6
-1.047, 5.475e-6
-1.048, 4.984e-6
-1.049, 4.989e-6
-1.050, 5.581e-6
-1.051, 6.724e-6
-1.052, 7.227e-6
-1.053, 6.188e-6
-1.054, 6.913e-6
-1.055, 7.634e-6
-1.056, 8.940e-6
-1.057, 9.798e-6
-1.058, 9.920e-6
-1.059, 1.007e-5
-1.060, 1.063e-5
-1.061, 1.098e-5
-1.062, 1.138e-5
-1.063, 1.191e-5
-1.064, 1.210e-5
-1.065, 1.298e-5
-1.066, 1.380e-5
-1.067, 1.462e-5
-1.068, 1.460e-5
-1.069, 1.441e-5
-1.070, 1.490e-5
-1.071, 1.603e-5
-1.072, 1.652e-5
-1.073, 1.654e-5
-1.074, 1.657e-5
-1.075, 1.694e-5
-1.076, 1.799e-5
-1.077, 1.874e-5
-1.078, 1.877e-5
-1.079, 1.871e-5
-1.080, 1.928e-5
-1.081, 2.023e-5
-1.082, 2.096e-5
-1.083, 2.087e-5
-1.084, 2.067e-5
-1.085, 2.105e-5
-1.086, 2.185e-5
-1.087, 2.257e-5
-1.088, 2.277e-5
-1.089, 2.290e-5
-1.090, 2.356e-5
-1.091, 2.456e-5
-1.092, 2.523e-5
-1.093, 2.519e-5
-1.094, 2.521e-5
-1.095, 2.589e-5
-1.096, 2.683e-5
-1.097, 2.735e-5
-1.098, 2.727e-5
-1.099, 2.723e-5
-1.100, 2.768e-5
-1.101, 2.877e-5
-1.102, 2.959e-5
-1.103, 2.950e-5
-1.104, 2.958e-5
-1.105, 3.018e-5
-1.106, 3.102e-5
-1.107, 3.149e-5
-1.108, 3.140e-5
-1.109, 3.150e-5
-1.110, 3.190e-5
-1.111, 3.271e-5
-1.112, 3.327e-5
-1.113, 3.327e-5
-1.114, 3.094e-5
-1.115, 3.232e-5
-1.116, 3.364e-5
-1.117, 3.416e-5
-1.118, 3.419e-5
-1.119, 3.401e-5
-1.120, 3.445e-5
-1.121, 3.606e-5
-1.122, 3.643e-5
-1.123, 3.576e-5
-1.124, 3.553e-5
-1.125, 3.578e-5
-1.126, 3.643e-5
-1.127, 3.687e-5
-1.128, 3.657e-5
-1.129, 3.635e-5
-1.130, 3.672e-5
-1.131, 3.733e-5
-1.132, 3.752e-5
-1.133, 3.719e-5
-1.134, 3.688e-5
-1.135, 3.737e-5
-1.136, 3.800e-5
-1.137, 3.817e-5
-1.138, 3.786e-5
-1.139, 3.752e-5
-1.140, 3.793e-5
-1.141, 3.858e-5
-1.142, 3.872e-5
-1.143, 3.852e-5
-1.144, 3.819e-5
-1.145, 3.856e-5
-1.146, 3.920e-5
-1.147, 3.925e-5
-1.148, 3.905e-5
-1.149, 3.872e-5
-1.150, 3.904e-5
-1.151, 3.976e-5
-1.152, 3.970e-5
-1.153, 3.940e-5
-1.154, 3.916e-5
-1.155, 3.944e-5
-1.156, 4.011e-5
-1.157, 4.010e-5
-1.158, 3.981e-5
-1.159, 3.948e-5
-1.160, 3.979e-5
-1.161, 4.034e-5
-1.162, 4.056e-5
-1.163, 4.018e-5
-1.164, 4.000e-5
-1.165, 4.016e-5
-1.166, 4.077e-5
-1.167, 4.088e-5
-1.168, 4.035e-5
-1.169, 4.025e-5
-1.170, 4.069e-5
-1.171, 4.123e-5
-1.172, 4.145e-5
-1.173, 4.108e-5
-1.174, 4.076e-5
-1.175, 4.124e-5
-1.176, 4.166e-5
-1.177, 4.197e-5
-1.178, 4.184e-5
-1.179, 4.139e-5
-1.180, 4.159e-5
-1.181, 4.229e-5
-1.182, 4.248e-5
-1.183, 4.208e-5
-1.184, 4.191e-5
-1.185, 4.213e-5
-1.186, 4.266e-5
-1.187, 4.289e-5
-1.188, 4.266e-5
-1.189, 4.237e-5
-1.190, 4.278e-5
-1.191, 4.345e-5
-1.192, 4.365e-5
-1.193, 4.298e-5
-1.194, 4.283e-5
-1.195, 4.335e-5
-1.196, 4.387e-5
-1.197, 4.416e-5
-1.198, 4.359e-5
-1.199, 3.274e-5
-1.200, 3.982e-5
-1.201, 4.220e-5
-1.202, 4.312e-5
-1.203, 4.334e-5
-1.204, 4.354e-5
-1.205, 4.419e-5
-1.206, 4.517e-5
-1.207, 4.535e-5
-1.208, 4.496e-5
-1.209, 4.495e-5
-1.210, 4.545e-5
-1.211, 4.497e-5
-1.212, 4.500e-5
-1.213, 4.557e-5
-1.214, 4.599e-5
-1.215, 4.659e-5
-1.216, 4.745e-5
-1.217, 4.803e-5
-1.218, 4.744e-5
-1.219, 4.748e-5
-1.220, 4.944e-5
-1.221, 4.973e-5
-1.222, 4.940e-5
-1.223, 4.892e-5
-1.224, 4.899e-5
-1.225, 4.953e-5
-1.226, 5.049e-5
-1.227, 5.090e-5
-1.228, 5.086e-5
-1.229, 5.075e-5
-1.230, 5.133e-5
-1.231, 5.242e-5
-1.232, 5.277e-5
-1.233, 5.255e-5
-1.234, 5.254e-5
-1.235, 5.338e-5
-1.236, 5.403e-5
-1.237, 5.445e-5
-1.238, 5.438e-5
-1.239, 5.414e-5
-1.240, 5.547e-5
-1.241, 5.699e-5
-1.242, 5.725e-5
-1.243, 5.751e-5
-1.244, 5.716e-5
-1.245, 5.815e-5
-1.246, 5.938e-5
-1.247, 5.995e-5
-1.248, 6.011e-5
-1.249, 6.012e-5
-1.250, 6.170e-5
-1.251, 6.269e-5
-1.252, 6.317e-5
-1.253, 6.350e-5
-1.254, 6.384e-5
-1.255, 6.481e-5
-1.256, 6.502e-5
-1.257, 6.687e-5
-1.258, 6.686e-5
-1.259, 6.672e-5
-1.260, 6.853e-5
-1.261, 6.970e-5
-1.262, 7.036e-5
-1.263, 7.080e-5
-1.264, 7.107e-5
-1.265, 7.255e-5
-1.266, 7.387e-5
-1.267, 7.427e-5
-1.268, 7.506e-5
-1.269, 7.526e-5
-1.270, 7.728e-5
-1.271, 7.868e-5
-1.272, 7.923e-5
-1.273, 7.974e-5
-1.274, 8.056e-5
-1.275, 8.206e-5
-1.276, 8.357e-5
-1.277, 8.475e-5
-1.278, 8.512e-5
-1.279, 8.575e-5
-1.280, 8.819e-5
-1.281, 8.973e-5
-1.282, 9.064e-5
-1.283, 9.173e-5
-1.284, 9.260e-5
-1.285, 9.456e-5
-1.286, 9.607e-5
-1.287, 9.713e-5
-1.288, 9.832e-5
-1.289, 9.939e-5
-1.290, 1.010e-4
-1.291, 1.030e-4
-1.292, 1.042e-4
-1.293, 1.051e-4
-1.294, 1.065e-4
-1.295, 1.084e-4
-1.296, 1.103e-4
-1.297, 1.117e-4
-1.298, 1.128e-4
-1.299, 1.138e-4
-1.300, 1.156e-4
-1.301, 1.168e-4
-1.302, 1.182e-4
-1.303, 1.196e-4
-1.304, 1.212e-4
-1.305, 1.234e-4
-1.306, 1.269e-4
-1.307, 1.280e-4
-1.308, 1.297e-4
-1.309, 1.309e-4
-1.310, 1.335e-4
-1.311, 1.357e-4
-1.312, 1.376e-4
-1.313, 1.391e-4
-1.314, 1.410e-4
-1.315, 1.433e-4
-1.316, 1.464e-4
-1.317, 1.479e-4
-1.318, 1.499e-4
-1.319, 1.518e-4
-1.320, 1.542e-4
-1.321, 1.543e-4
-1.322, 1.573e-4
-1.323, 1.598e-4
-1.324, 1.628e-4
-1.325, 1.650e-4
-1.326, 1.672e-4
-1.327, 1.703e-4
-1.328, 1.725e-4
-1.329, 1.757e-4
-1.330, 1.783e-4
-1.331, 1.808e-4
-1.332, 1.832e-4
-1.333, 1.855e-4
-1.334, 1.881e-4
-1.335, 1.914e-4
-1.336, 1.949e-4
-1.337, 1.975e-4
-1.338, 1.993e-4
-1.339, 2.034e-4
-1.340, 2.069e-4
-1.341, 2.099e-4
-1.342, 2.103e-4
-1.343, 2.138e-4
-1.344, 2.164e-4
-1.345, 2.208e-4
-1.346, 2.247e-4
-1.347, 2.280e-4
-1.348, 2.305e-4
-1.349, 2.346e-4
-1.350, 2.382e-4
-1.351, 2.410e-4
-1.352, 2.447e-4
-1.353, 2.475e-4
-1.354, 2.505e-4
-1.355, 2.548e-4
-1.356, 2.586e-4
-1.357, 2.619e-4
-1.358, 2.650e-4
-1.359, 2.668e-4
-1.360, 2.709e-4
-1.361, 2.765e-4
-1.362, 2.796e-4
-1.363, 2.824e-4
-1.364, 2.862e-4
-1.365, 2.904e-4
-1.366, 2.940e-4
-1.367, 2.977e-4
-1.368, 2.998e-4
-1.369, 3.047e-4
-1.370, 3.084e-4
-1.371, 3.125e-4
-1.372, 3.163e-4
-1.373, 3.191e-4
-1.374, 3.213e-4
-1.375, 3.258e-4
-1.376, 3.301e-4
-1.377, 3.347e-4
-1.378, 3.378e-4
-1.379, 3.419e-4
-1.380, 3.482e-4
-1.381, 3.530e-4
-1.382, 3.563e-4
-1.383, 3.606e-4
-1.384, 3.650e-4
-1.385, 3.692e-4
-1.386, 3.737e-4
-1.387, 3.782e-4
-1.388, 3.817e-4
-1.389, 3.865e-4
-1.390, 3.902e-4
-1.391, 3.954e-4
-1.392, 4.014e-4
-1.393, 4.029e-4
-1.394, 4.084e-4
-1.395, 4.031e-4
-1.396, 4.149e-4
-1.397, 4.191e-4
-1.398, 4.228e-4
-1.399, 4.332e-4
-1.400, 4.388e-4
-1.401, 4.411e-4
-1.402, 4.474e-4
-1.403, 4.521e-4
-1.404, 4.559e-4
-1.405, 4.626e-4
-1.406, 4.694e-4
-1.407, 4.727e-4
-1.408, 4.775e-4
-1.409, 4.824e-4
-1.410, 4.844e-4
-1.411, 4.912e-4
-1.412, 4.983e-4
-1.413, 5.030e-4
-1.414, 5.071e-4
-1.415, 5.166e-4
-1.416, 5.250e-4
-1.417, 5.184e-4
-1.418, 5.200e-4
-1.419, 5.284e-4
-1.420, 5.384e-4
-1.421, 5.441e-4
-1.422, 5.501e-4
-1.423, 5.549e-4
-1.424, 5.609e-4
-1.425, 5.668e-4
-1.426, 5.732e-4
-1.427, 5.784e-4
-1.428, 5.837e-4
-1.429, 5.909e-4
-1.430, 5.979e-4
-1.431, 6.051e-4
-1.432, 6.118e-4
-1.433, 6.168e-4
-1.434, 6.228e-4
-1.435, 6.297e-4
-1.436, 6.352e-4
-1.437, 6.412e-4
-1.438, 6.458e-4
-1.439, 6.490e-4
-1.440, 6.564e-4
-1.441, 6.634e-4
-1.442, 6.684e-4
-1.443, 6.744e-4
-1.444, 6.795e-4
-1.445, 6.896e-4
-1.446, 6.978e-4
-1.447, 7.014e-4
-1.448, 7.076e-4
-1.449, 7.105e-4
-1.450, 7.166e-4
-1.451, 7.266e-4
-1.452, 7.326e-4
-1.453, 7.411e-4
-1.454, 7.491e-4
-1.455, 7.575e-4
-1.456, 7.651e-4
-1.457, 7.714e-4
-1.458, 7.771e-4
-1.459, 7.805e-4
-1.460, 7.882e-4
-1.461, 7.960e-4
-1.462, 8.006e-4
-1.463, 8.080e-4
-1.464, 8.191e-4
-1.465, 8.221e-4
-1.466, 8.073e-4
-1.467, 8.276e-4
-1.468, 8.377e-4
-1.469, 8.468e-4
-1.470, 8.599e-4
-1.471, 8.612e-4
-1.472, 8.568e-4
-1.473, 8.674e-4
-1.474, 8.763e-4
-1.475, 8.822e-4
-1.476, 8.938e-4
-1.477, 9.052e-4
-1.478, 9.138e-4
-1.479, 9.254e-4
-1.480, 9.380e-4
-1.481, 9.463e-4
-1.482, 9.588e-4
-1.483, 9.651e-4
-1.484, 9.726e-4
-1.485, 9.847e-4
-1.486, 9.967e-4
-1.487, 1.001e-3
-1.488, 1.009e-3
-1.489, 1.017e-3
-1.490, 1.025e-3
-1.491, 1.040e-3
-1.492, 1.057e-3
-1.493, 1.062e-3
-1.494, 1.070e-3
-1.495, 1.076e-3
-1.496, 1.084e-3
-1.497, 1.093e-3
-1.498, 1.100e-3
-1.499, 1.110e-3
-1.500, 1.103e-3
-1.499, 1.084e-3
-1.498, 1.075e-3
-1.497, 1.063e-3
-1.496, 1.046e-3
-1.495, 1.040e-3
-1.494, 1.030e-3
-1.493, 1.014e-3
-1.492, 1.001e-3
-1.491, 9.865e-4
-1.490, 9.712e-4
-1.489, 9.590e-4
-1.488, 9.497e-4
-1.487, 9.373e-4
-1.486, 9.257e-4
-1.485, 9.133e-4
-1.484, 9.094e-4
-1.483, 9.001e-4
-1.482, 8.880e-4
-1.481, 8.791e-4
-1.480, 8.704e-4
-1.479, 8.579e-4
-1.478, 8.474e-4
-1.477, 8.449e-4
-1.476, 8.346e-4
-1.475, 8.280e-4
-1.474, 8.158e-4
-1.473, 8.048e-4
-1.472, 7.936e-4
-1.471, 7.829e-4
-1.470, 7.742e-4
-1.469, 7.659e-4
-1.468, 7.568e-4
-1.467, 7.481e-4
-1.466, 7.418e-4
-1.465, 7.366e-4
-1.464, 7.270e-4
-1.463, 7.168e-4
-1.462, 7.070e-4
-1.461, 6.983e-4
-1.460, 6.899e-4
-1.459, 6.803e-4
-1.458, 6.720e-4
-1.457, 6.625e-4
-1.456, 6.569e-4
-1.455, 6.450e-4
-1.454, 6.370e-4
-1.453, 6.286e-4
-1.452, 6.238e-4
-1.451, 6.006e-4
-1.450, 5.968e-4
-1.449, 5.942e-4
-1.448, 5.943e-4
-1.447, 5.864e-4
-1.446, 5.796e-4
-1.445, 5.743e-4
-1.444, 5.687e-4
-1.443, 5.614e-4
-1.442, 5.538e-4
-1.441, 5.497e-4
-1.440, 5.415e-4
-1.439, 5.363e-4
-1.438, 5.335e-4
-1.437, 5.281e-4
-1.436, 5.220e-4
-1.435, 5.147e-4
-1.434, 5.071e-4
-1.433, 5.010e-4
-1.432, 4.940e-4
-1.431, 4.876e-4
-1.430, 4.832e-4
-1.429, 4.766e-4
-1.428, 4.710e-4
-1.427, 4.686e-4
-1.426, 4.619e-4
-1.425, 4.557e-4
-1.424, 4.504e-4
-1.423, 4.428e-4
-1.422, 4.371e-4
-1.421, 4.325e-4
-1.420, 4.266e-4
-1.419, 4.214e-4
-1.418, 4.200e-4
-1.417, 4.128e-4
-1.416, 4.076e-4
-1.415, 4.037e-4
-1.414, 3.954e-4
-1.413, 3.909e-4
-1.412, 3.871e-4
-1.411, 3.836e-4
-1.410, 3.779e-4
-1.409, 3.727e-4
-1.408, 3.667e-4
-1.407, 3.608e-4
-1.406, 3.583e-4
-1.405, 3.549e-4
-1.404, 3.509e-4
-1.403, 3.479e-4
-1.402, 3.433e-4
-1.401, 3.395e-4
-1.400, 3.362e-4
-1.399, 3.306e-4
-1.398, 3.250e-4
-1.397, 3.187e-4
-1.396, 3.171e-4
-1.395, 3.181e-4
-1.394, 3.128e-4
-1.393, 3.074e-4
-1.392, 3.032e-4
-1.391, 2.993e-4
-1.390, 2.974e-4
-1.389, 2.924e-4
-1.388, 2.873e-4
-1.387, 2.821e-4
-1.386, 2.791e-4
-1.385, 2.782e-4
-1.384, 2.741e-4
-1.383, 2.674e-4
-1.382, 2.632e-4
-1.381, 2.594e-4
-1.380, 2.578e-4
-1.379, 2.538e-4
-1.378, 2.495e-4
-1.377, 2.457e-4
-1.376, 2.431e-4
-1.375, 2.394e-4
-1.374, 2.356e-4
-1.373, 2.320e-4
-1.372, 2.279e-4
-1.371, 2.241e-4
-1.370, 2.212e-4
-1.369, 2.175e-4
-1.368, 2.138e-4
-1.367, 2.105e-4
-1.366, 2.068e-4
-1.365, 2.045e-4
-1.364, 2.002e-4
-1.363, 1.954e-4
-1.362, 1.926e-4
-1.361, 1.902e-4
-1.360, 1.870e-4
-1.359, 1.845e-4
-1.358, 1.819e-4
-1.357, 1.782e-4
-1.356, 1.761e-4
-1.355, 1.750e-4
-1.354, 1.718e-4
-1.353, 1.679e-4
-1.352, 1.652e-4
-1.351, 1.626e-4
-1.350, 1.600e-4
-1.349, 1.563e-4
-1.348, 1.527e-4
-1.347, 1.504e-4
-1.346, 1.475e-4
-1.345, 1.452e-4
-1.344, 1.433e-4
-1.343, 1.404e-4
-1.342, 1.371e-4
-1.341, 1.358e-4
-1.340, 1.340e-4
-1.339, 1.312e-4
-1.338, 1.287e-4
-1.337, 1.266e-4
-1.336, 1.250e-4
-1.335, 1.241e-4
-1.334, 1.223e-4
-1.333, 1.195e-4
-1.332, 1.163e-4
-1.331, 1.145e-4
-1.330, 1.138e-4
-1.329, 1.113e-4
-1.328, 1.086e-4
-1.327, 1.067e-4
-1.326, 1.046e-4
-1.325, 1.024e-4
-1.324, 1.006e-4
-1.323, 9.790e-5
-1.322, 9.599e-5
-1.321, 9.436e-5
-1.320, 9.247e-5
-1.319, 9.063e-5
-1.318, 8.684e-5
-1.317, 8.487e-5
-1.316, 8.371e-5
-1.315, 8.171e-5
-1.314, 8.057e-5
-1.313, 7.860e-5
-1.312, 7.635e-5
-1.311, 7.472e-5
-1.310, 7.421e-5
-1.309, 7.233e-5
-1.308, 7.048e-5
-1.307, 6.948e-5
-1.306, 6.798e-5
-1.305, 6.588e-5
-1.304, 6.427e-5
-1.303, 6.309e-5
-1.302, 6.121e-5
-1.301, 5.981e-5
-1.300, 5.491e-5
-1.299, 5.398e-5
-1.298, 5.297e-5
-1.297, 5.171e-5
-1.296, 5.074e-5
-1.295, 5.010e-5
-1.294, 4.901e-5
-1.293, 4.762e-5
-1.292, 4.522e-5
-1.291, 4.559e-5
-1.290, 4.486e-5
-1.289, 4.299e-5
-1.288, 4.188e-5
-1.287, 3.834e-5
-1.286, 3.822e-5
-1.285, 3.826e-5
-1.284, 3.675e-5
-1.283, 3.536e-5
-1.282, 3.380e-5
-1.281, 3.328e-5
-1.280, 3.266e-5
-1.279, 3.198e-5
-1.278, 3.038e-5
-1.277, 2.848e-5
-1.276, 2.883e-5
-1.275, 2.764e-5
-1.274, 2.681e-5
-1.273, 2.622e-5
-1.272, 2.484e-5
-1.271, 2.461e-5
-1.270, 2.423e-5
-1.269, 2.191e-5
-1.268, 2.238e-5
-1.267, 2.060e-5
-1.266, 1.944e-5
-1.265, 1.953e-5
-1.264, 1.946e-5
-1.263, 1.714e-5
-1.262, 1.647e-5
-1.261, 1.774e-5
-1.260, 1.626e-5
-1.259, 1.401e-5
-1.258, 1.348e-5
-1.257, 1.276e-5
-1.256, 1.258e-5
-1.255, 1.364e-5
-1.254, 1.269e-5
-1.253, 1.085e-5
-1.252, 9.554e-6
-1.251, 9.319e-6
-1.250, 8.628e-6
-1.249, 8.261e-6
-1.248, 6.793e-6
-1.247, 5.969e-6
-1.246, 5.814e-6
-1.245, 6.489e-6
-1.244, 4.255e-6
-1.243, 3.457e-6
-1.242, 2.341e-6
-1.241, 2.217e-6
-1.240, 2.159e-6
-1.239, 1.546e-6
-1.238, 1.004e-7
-1.237, -8.011e-8
-1.236, -1.581e-7
-1.235, -2.147e-6
-1.234, -3.587e-6
-1.233, -4.307e-6
-1.232, -4.253e-6
-1.231, -3.374e-6
-1.230, -3.372e-6
-1.229, -3.666e-6
-1.228, -4.222e-6
-1.227, -8.845e-6
-1.226, -7.229e-6
-1.225, -6.314e-6
-1.224, -9.256e-6
-1.223, -1.059e-5
-1.222, -1.161e-5
-1.221, -1.037e-5
-1.220, -9.904e-6
-1.219, -1.024e-5
-1.218, -1.086e-5
-1.217, -1.322e-5
-1.216, -1.262e-5
-1.215, -1.127e-5
-1.214, -1.055e-5
-1.213, -1.156e-5
-1.212, -1.154e-5
-1.211, -1.222e-5
-1.210, -1.203e-5
-1.209, -1.271e-5
-1.208, -1.275e-5
-1.207, -1.385e-5
-1.206, -1.370e-5
-1.205, -1.324e-5
-1.204, -1.381e-5
-1.203, -1.533e-5
-1.202, -1.584e-5
-1.201, -1.542e-5
-1.200, -1.505e-5
-1.199, -1.598e-5
-1.198, -1.621e-5
-1.197, -1.690e-5
-1.196, -1.688e-5
-1.195, -1.744e-5
-1.194, -1.965e-5
-1.193, -2.009e-5
-1.192, -1.962e-5
-1.191, -1.909e-5
-1.190, -1.798e-5
-1.189, -1.743e-5
-1.188, -1.913e-5
-1.187, -2.121e-5
-1.186, -2.021e-5
-1.185, -1.868e-5
-1.184, -2.068e-5
-1.183, -2.268e-5
-1.182, -2.270e-5
-1.181, -2.169e-5
-1.180, -2.212e-5
-1.179, -2.186e-5
-1.178, -2.241e-5
-1.177, -2.254e-5
-1.176, -2.242e-5
-1.175, -2.185e-5
-1.174, -2.201e-5
-1.173, -2.254e-5
-1.172, -2.265e-5
-1.171, -2.265e-5
-1.170, -2.258e-5
-1.169, -2.323e-5
-1.168, -2.363e-5
-1.167, -2.432e-5
-1.166, -2.339e-5
-1.165, -2.269e-5
-1.164, -2.314e-5
-1.163, -2.470e-5
-1.162, -2.368e-5
-1.161, -2.362e-5
-1.160, -2.320e-5
-1.159, -2.360e-5
-1.158, -2.571e-5
-1.157, -2.480e-5
-1.156, -2.398e-5
-1.155, -2.381e-5
-1.154, -2.425e-5
-1.153, -2.510e-5
-1.152, -2.537e-5
-1.151, -2.636e-5
-1.150, -2.559e-5
-1.149, -2.595e-5
-1.148, -2.565e-5
-1.147, -2.515e-5
-1.146, -2.546e-5
-1.145, -2.545e-5
-1.144, -2.567e-5
-1.143, -2.680e-5
-1.142, -2.706e-5
-1.141, -2.673e-5
-1.140, -2.645e-5
-1.139, -2.666e-5
-1.138, -2.763e-5
-1.137, -2.803e-5
-1.136, -2.747e-5
-1.135, -2.689e-5
-1.134, -2.753e-5
-1.133, -2.833e-5
-1.132, -2.845e-5
-1.131, -2.844e-5
-1.130, -2.762e-5
-1.129, -2.793e-5
-1.128, -2.823e-5
-1.127, -2.876e-5
-1.126, -2.864e-5
-1.125, -2.773e-5
-1.124, -2.849e-5
-1.123, -2.939e-5
-1.122, -2.917e-5
-1.121, -2.868e-5
-1.120, -2.894e-5
-1.119, -2.900e-5
-1.118, -2.962e-5
-1.117, -2.973e-5
-1.116, -2.906e-5
-1.115, -2.900e-5
-1.114, -2.940e-5
-1.113, -3.016e-5
-1.112, -2.982e-5
-1.111, -2.910e-5
-1.110, -2.965e-5
-1.109, -2.944e-5
-1.108, -2.994e-5
-1.107, -3.041e-5
-1.106, -2.970e-5
-1.105, -2.948e-5
-1.104, -3.011e-5
-1.103, -3.017e-5
-1.102, -3.030e-5
-1.101, -3.012e-5
-1.100, -2.949e-5
-1.099, -3.006e-5
-1.098, -3.145e-5
-1.097, -3.098e-5
-1.096, -3.060e-5
-1.095, -3.079e-5
-1.094, -3.144e-5
-1.093, -3.130e-5
-1.092, -3.145e-5
-1.091, -3.139e-5
-1.090, -3.179e-5
-1.089, -3.150e-5
-1.088, -3.227e-5
-1.087, -3.252e-5
-1.086, -3.299e-5
-1.085, -3.225e-5
-1.084, -3.285e-5
-1.083, -3.375e-5
-1.082, -3.323e-5
-1.081, -3.292e-5
-1.080, -3.262e-5
-1.079, -3.307e-5
-1.078, -3.483e-5
-1.077, -3.388e-5
-1.076, -3.365e-5
-1.075, -3.344e-5
-1.074, -3.397e-5
-1.073, -3.432e-5
-1.072, -3.475e-5
-1.071, -3.514e-5
-1.070, -3.402e-5
-1.069, -3.413e-5
-1.068, -3.468e-5
-1.067, -3.476e-5
-1.066, -3.479e-5
-1.065, -3.517e-5
-1.064, -3.416e-5
-1.063, -3.464e-5
-1.062, -3.504e-5
-1.061, -3.489e-5
-1.060, -3.489e-5
-1.059, -3.536e-5
-1.058, -3.608e-5
-1.057, -3.622e-5
-1.056, -3.559e-5
-1.055, -3.540e-5
-1.054, -3.612e-5
-1.053, -3.678e-5
-1.052, -3.720e-5
-1.051, -3.662e-5
-1.050, -3.630e-5
-1.049, -3.684e-5
-1.048, -3.743e-5
-1.047, -3.787e-5
-1.046, -3.767e-5
-1.045, -3.738e-5
-1.044, -3.802e-5
-1.043, -3.903e-5
-1.042, -3.949e-5
-1.041, -3.920e-5
-1.040, -3.862e-5
-1.039, -3.902e-5
-1.038, -3.989e-5
-1.037, -3.995e-5
-1.036, -3.964e-5
-1.035, -3.970e-5
-1.034, -3.965e-5
-1.033, -4.030e-5
-1.032, -4.061e-5
-1.031, -4.002e-5
-1.030, -3.964e-5
-1.029, -3.936e-5
-1.028, -4.040e-5
-1.027, -4.078e-5
-1.026, -4.004e-5
-1.025, -3.962e-5
-1.024, -4.035e-5
-1.023, -4.077e-5
-1.022, -4.096e-5
-1.021, -4.061e-5
-1.020, -4.015e-5
-1.019, -4.064e-5
-1.018, -4.114e-5
-1.017, -4.123e-5
-1.016, -4.088e-5
-1.015, -4.034e-5
-1.014, -4.086e-5
-1.013, -4.170e-5
-1.012, -4.188e-5
-1.011, -4.151e-5
-1.010, -4.107e-5
-1.009, -4.150e-5
-1.008, -4.229e-5
-1.007, -4.247e-5
-1.006, -4.174e-5
-1.005, -4.154e-5
-1.004, -4.198e-5
-1.003, -4.265e-5
-1.002, -4.300e-5
-1.001, -4.243e-5
