Apr. 30, 2025   18:39:50
Cyclic Voltammetry
File: c:/users/guazh/data/banditlqround7_x0exp1108_r5/2025-04-30-exp1199\exp1199-2025-04-30t18_20_22-arkoh\exp1199_cv_sr_600mvs_efin_-1700mv.bin
Data Source:  Experiment
Instrument Model:  CHI760E
Header: CV ran at 600 mVs
Note: 

Init E (V) = -1
High E (V) = -1
Low E (V) = -1.7
Final E (V) = -1
Init P/N = N
Scan Rate (V/s) = 0.6
Segment = 3
Sample Interval (V) = 0.001
Quiet Time (sec) = 2
Sensitivity (A/V) = 0.01
Comp R (ohm) = 1.1

Results:

Channel 1:
Segment 1:
Ep = -1.181V
ip = 1.901e-5A
Ah = 1.809e-6C

Segment 2:

Segment 3:

Potential/V, Current/A

-1.000, 3.099e-5
-1.001, 1.111e-4
-1.002, 1.543e-4
-1.003, 1.790e-4
-1.004, 1.913e-4
-1.005, 2.006e-4
-1.006, 2.036e-4
-1.007, 2.098e-4
-1.008, 2.160e-4
-1.009, 2.221e-4
-1.010, 2.283e-4
-1.011, 2.345e-4
-1.012, 2.376e-4
-1.013, 2.406e-4
-1.014, 2.406e-4
-1.015, 2.376e-4
-1.016, 2.376e-4
-1.017, 2.406e-4
-1.018, 2.437e-4
-1.019, 2.468e-4
-1.020, 2.499e-4
-1.021, 2.561e-4
-1.022, 2.561e-4
-1.023, 2.591e-4
-1.024, 2.561e-4
-1.025, 2.561e-4
-1.026, 2.530e-4
-1.027, 2.530e-4
-1.028, 2.561e-4
-1.029, 2.591e-4
-1.030, 2.622e-4
-1.031, 2.684e-4
-1.032, 2.715e-4
-1.033, 2.715e-4
-1.034, 2.684e-4
-1.035, 2.653e-4
-1.036, 2.653e-4
-1.037, 2.653e-4
-1.038, 2.653e-4
-1.039, 2.684e-4
-1.040, 2.746e-4
-1.041, 2.776e-4
-1.042, 2.776e-4
-1.043, 2.807e-4
-1.044, 2.776e-4
-1.045, 2.746e-4
-1.046, 2.715e-4
-1.047, 2.746e-4
-1.048, 2.715e-4
-1.049, 2.776e-4
-1.050, 2.807e-4
-1.051, 2.869e-4
-1.052, 2.869e-4
-1.053, 2.869e-4
-1.054, 2.838e-4
-1.055, 2.807e-4
-1.056, 2.807e-4
-1.057, 2.807e-4
-1.058, 2.807e-4
-1.059, 2.838e-4
-1.060, 2.869e-4
-1.061, 2.900e-4
-1.062, 2.931e-4
-1.063, 2.931e-4
-1.064, 2.900e-4
-1.065, 2.900e-4
-1.066, 2.869e-4
-1.067, 2.869e-4
-1.068, 2.869e-4
-1.069, 2.900e-4
-1.070, 2.961e-4
-1.071, 2.992e-4
-1.072, 2.992e-4
-1.073, 2.992e-4
-1.074, 2.961e-4
-1.075, 2.961e-4
-1.076, 2.931e-4
-1.077, 2.931e-4
-1.078, 2.931e-4
-1.079, 2.961e-4
-1.080, 2.992e-4
-1.081, 3.054e-4
-1.082, 3.054e-4
-1.083, 3.054e-4
-1.084, 3.023e-4
-1.085, 3.023e-4
-1.086, 2.992e-4
-1.087, 2.992e-4
-1.088, 2.992e-4
-1.089, 3.054e-4
-1.090, 3.085e-4
-1.091, 3.115e-4
-1.092, 3.115e-4
-1.093, 3.115e-4
-1.094, 3.085e-4
-1.095, 3.085e-4
-1.096, 3.054e-4
-1.097, 3.054e-4
-1.098, 3.054e-4
-1.099, 3.115e-4
-1.100, 3.146e-4
-1.101, 3.177e-4
-1.102, 3.177e-4
-1.103, 3.177e-4
-1.104, 3.177e-4
-1.105, 3.146e-4
-1.106, 3.115e-4
-1.107, 3.115e-4
-1.108, 3.146e-4
-1.109, 3.177e-4
-1.110, 3.208e-4
-1.111, 3.239e-4
-1.112, 3.239e-4
-1.113, 3.270e-4
-1.114, 3.239e-4
-1.115, 3.208e-4
-1.116, 3.208e-4
-1.117, 3.208e-4
-1.118, 3.208e-4
-1.119, 3.270e-4
-1.120, 3.270e-4
-1.121, 3.331e-4
-1.122, 3.331e-4
-1.123, 3.331e-4
-1.124, 3.300e-4
-1.125, 3.300e-4
-1.126, 3.270e-4
-1.127, 3.300e-4
-1.128, 3.270e-4
-1.129, 3.331e-4
-1.130, 3.362e-4
-1.131, 3.393e-4
-1.132, 3.424e-4
-1.133, 3.424e-4
-1.134, 3.393e-4
-1.135, 3.393e-4
-1.136, 3.362e-4
-1.137, 3.362e-4
-1.138, 3.362e-4
-1.139, 3.393e-4
-1.140, 3.455e-4
-1.141, 3.485e-4
-1.142, 3.485e-4
-1.143, 3.516e-4
-1.144, 3.485e-4
-1.145, 3.455e-4
-1.146, 3.424e-4
-1.147, 3.455e-4
-1.148, 3.455e-4
-1.149, 3.485e-4
-1.150, 3.516e-4
-1.151, 3.578e-4
-1.152, 3.578e-4
-1.153, 3.578e-4
-1.154, 3.547e-4
-1.155, 3.547e-4
-1.156, 3.516e-4
-1.157, 3.516e-4
-1.158, 3.516e-4
-1.159, 3.578e-4
-1.160, 3.609e-4
-1.161, 3.640e-4
-1.162, 3.640e-4
-1.163, 3.640e-4
-1.164, 3.640e-4
-1.165, 3.609e-4
-1.166, 3.578e-4
-1.167, 3.578e-4
-1.168, 3.578e-4
-1.169, 3.640e-4
-1.170, 3.640e-4
-1.171, 3.701e-4
-1.172, 3.701e-4
-1.173, 3.701e-4
-1.174, 3.670e-4
-1.175, 3.640e-4
-1.176, 3.609e-4
-1.177, 3.609e-4
-1.178, 3.640e-4
-1.179, 3.670e-4
-1.180, 3.701e-4
-1.181, 3.732e-4
-1.182, 3.701e-4
-1.183, 3.732e-4
-1.184, 3.701e-4
-1.185, 3.670e-4
-1.186, 3.640e-4
-1.187, 3.640e-4
-1.188, 3.640e-4
-1.189, 3.670e-4
-1.190, 3.701e-4
-1.191, 3.732e-4
-1.192, 3.732e-4
-1.193, 3.732e-4
-1.194, 3.701e-4
-1.195, 3.670e-4
-1.196, 3.640e-4
-1.197, 3.640e-4
-1.198, 3.609e-4
-1.199, 3.670e-4
-1.200, 3.701e-4
-1.201, 3.701e-4
-1.202, 3.701e-4
-1.203, 3.701e-4
-1.204, 3.670e-4
-1.205, 3.640e-4
-1.206, 3.609e-4
-1.207, 3.609e-4
-1.208, 3.609e-4
-1.209, 3.640e-4
-1.210, 3.670e-4
-1.211, 3.701e-4
-1.212, 3.701e-4
-1.213, 3.670e-4
-1.214, 3.640e-4
-1.215, 3.609e-4
-1.216, 3.578e-4
-1.217, 3.578e-4
-1.218, 3.578e-4
-1.219, 3.609e-4
-1.220, 3.640e-4
-1.221, 3.640e-4
-1.222, 3.640e-4
-1.223, 3.640e-4
-1.224, 3.609e-4
-1.225, 3.578e-4
-1.226, 3.547e-4
-1.227, 3.547e-4
-1.228, 3.516e-4
-1.229, 3.609e-4
-1.230, 3.609e-4
-1.231, 3.640e-4
-1.232, 3.609e-4
-1.233, 3.609e-4
-1.234, 3.578e-4
-1.235, 3.516e-4
-1.236, 3.485e-4
-1.237, 3.485e-4
-1.238, 3.485e-4
-1.239, 3.516e-4
-1.240, 3.547e-4
-1.241, 3.578e-4
-1.242, 3.578e-4
-1.243, 3.578e-4
-1.244, 3.516e-4
-1.245, 3.485e-4
-1.246, 3.455e-4
-1.247, 3.455e-4
-1.248, 3.424e-4
-1.249, 3.485e-4
-1.250, 3.485e-4
-1.251, 3.516e-4
-1.252, 3.516e-4
-1.253, 3.516e-4
-1.254, 3.455e-4
-1.255, 3.424e-4
-1.256, 3.393e-4
-1.257, 3.424e-4
-1.258, 3.393e-4
-1.259, 3.424e-4
-1.260, 3.455e-4
-1.261, 3.485e-4
-1.262, 3.485e-4
-1.263, 3.455e-4
-1.264, 3.424e-4
-1.265, 3.393e-4
-1.266, 3.362e-4
-1.267, 3.362e-4
-1.268, 3.362e-4
-1.269, 3.393e-4
-1.270, 3.424e-4
-1.271, 3.455e-4
-1.272, 3.424e-4
-1.273, 3.424e-4
-1.274, 3.393e-4
-1.275, 3.362e-4
-1.276, 3.331e-4
-1.277, 3.331e-4
-1.278, 3.331e-4
-1.279, 3.362e-4
-1.280, 3.393e-4
-1.281, 3.424e-4
-1.282, 3.393e-4
-1.283, 3.393e-4
-1.284, 3.362e-4
-1.285, 3.331e-4
-1.286, 3.300e-4
-1.287, 3.300e-4
-1.288, 3.300e-4
-1.289, 3.331e-4
-1.290, 3.362e-4
-1.291, 3.393e-4
-1.292, 3.393e-4
-1.293, 3.362e-4
-1.294, 3.331e-4
-1.295, 3.331e-4
-1.296, 3.300e-4
-1.297, 3.300e-4
-1.298, 3.300e-4
-1.299, 3.331e-4
-1.300, 3.362e-4
-1.301, 3.393e-4
-1.302, 3.393e-4
-1.303, 3.393e-4
-1.304, 3.362e-4
-1.305, 3.331e-4
-1.306, 3.300e-4
-1.307, 3.300e-4
-1.308, 3.300e-4
-1.309, 3.331e-4
-1.310, 3.362e-4
-1.311, 3.424e-4
-1.312, 3.393e-4
-1.313, 3.393e-4
-1.314, 3.362e-4
-1.315, 3.362e-4
-1.316, 3.331e-4
-1.317, 3.331e-4
-1.318, 3.331e-4
-1.319, 3.362e-4
-1.320, 3.393e-4
-1.321, 3.455e-4
-1.322, 3.424e-4
-1.323, 3.455e-4
-1.324, 3.424e-4
-1.325, 3.393e-4
-1.326, 3.362e-4
-1.327, 3.393e-4
-1.328, 3.393e-4
-1.329, 3.455e-4
-1.330, 3.485e-4
-1.331, 3.516e-4
-1.332, 3.547e-4
-1.333, 3.516e-4
-1.334, 3.485e-4
-1.335, 3.485e-4
-1.336, 3.455e-4
-1.337, 3.485e-4
-1.338, 3.485e-4
-1.339, 3.547e-4
-1.340, 3.578e-4
-1.341, 3.609e-4
-1.342, 3.609e-4
-1.343, 3.640e-4
-1.344, 3.609e-4
-1.345, 3.609e-4
-1.346, 3.578e-4
-1.347, 3.609e-4
-1.348, 3.640e-4
-1.349, 3.701e-4
-1.350, 3.732e-4
-1.351, 3.763e-4
-1.352, 3.763e-4
-1.353, 3.794e-4
-1.354, 3.763e-4
-1.355, 3.763e-4
-1.356, 3.763e-4
-1.357, 3.794e-4
-1.358, 3.825e-4
-1.359, 3.855e-4
-1.360, 3.886e-4
-1.361, 3.948e-4
-1.362, 3.979e-4
-1.363, 4.010e-4
-1.364, 3.979e-4
-1.365, 3.979e-4
-1.366, 3.979e-4
-1.367, 4.010e-4
-1.368, 4.040e-4
-1.369, 4.102e-4
-1.370, 4.164e-4
-1.371, 4.225e-4
-1.372, 4.225e-4
-1.373, 4.256e-4
-1.374, 4.256e-4
-1.375, 4.256e-4
-1.376, 4.256e-4
-1.377, 4.318e-4
-1.378, 4.318e-4
-1.379, 4.410e-4
-1.380, 4.472e-4
-1.381, 4.534e-4
-1.382, 4.565e-4
-1.383, 4.595e-4
-1.384, 4.595e-4
-1.385, 4.595e-4
-1.386, 4.595e-4
-1.387, 4.657e-4
-1.388, 4.688e-4
-1.389, 4.780e-4
-1.390, 4.842e-4
-1.391, 4.904e-4
-1.392, 4.935e-4
-1.393, 4.996e-4
-1.394, 4.996e-4
-1.395, 4.996e-4
-1.396, 5.027e-4
-1.397, 5.089e-4
-1.398, 5.120e-4
-1.399, 5.212e-4
-1.400, 5.274e-4
-1.401, 5.366e-4
-1.402, 5.397e-4
-1.403, 5.459e-4
-1.404, 5.489e-4
-1.405, 5.520e-4
-1.406, 5.551e-4
-1.407, 5.582e-4
-1.408, 5.644e-4
-1.409, 5.767e-4
-1.410, 5.829e-4
-1.411, 5.921e-4
-1.412, 5.983e-4
-1.413, 6.044e-4
-1.414, 6.075e-4
-1.415, 6.106e-4
-1.416, 6.137e-4
-1.417, 6.199e-4
-1.418, 6.260e-4
-1.419, 6.384e-4
-1.420, 6.445e-4
-1.421, 6.569e-4
-1.422, 6.630e-4
-1.423, 6.723e-4
-1.424, 6.754e-4
-1.425, 6.815e-4
-1.426, 6.877e-4
-1.427, 6.939e-4
-1.428, 7.031e-4
-1.429, 7.124e-4
-1.430, 7.247e-4
-1.431, 7.370e-4
-1.432, 7.432e-4
-1.433, 7.524e-4
-1.434, 7.586e-4
-1.435, 7.648e-4
-1.436, 7.709e-4
-1.437, 7.802e-4
-1.438, 7.925e-4
-1.439, 8.018e-4
-1.440, 8.141e-4
-1.441, 8.295e-4
-1.442, 8.388e-4
-1.443, 8.480e-4
-1.444, 8.573e-4
-1.445, 8.665e-4
-1.446, 8.727e-4
-1.447, 8.850e-4
-1.448, 8.973e-4
-1.449, 9.128e-4
-1.450, 9.251e-4
-1.451, 9.405e-4
-1.452, 9.528e-4
-1.453, 9.652e-4
-1.454, 9.744e-4
-1.455, 9.837e-4
-1.456, 9.929e-4
-1.457, 1.008e-3
-1.458, 1.018e-3
-1.459, 1.036e-3
-1.460, 1.051e-3
-1.461, 1.070e-3
-1.462, 1.082e-3
-1.463, 1.098e-3
-1.464, 1.110e-3
-1.465, 1.122e-3
-1.466, 1.132e-3
-1.467, 1.147e-3
-1.468, 1.162e-3
-1.469, 1.181e-3
-1.470, 1.199e-3
-1.471, 1.218e-3
-1.472, 1.233e-3
-1.473, 1.249e-3
-1.474, 1.264e-3
-1.475, 1.277e-3
-1.476, 1.289e-3
-1.477, 1.310e-3
-1.478, 1.326e-3
-1.479, 1.347e-3
-1.480, 1.366e-3
-1.481, 1.391e-3
-1.482, 1.406e-3
-1.483, 1.425e-3
-1.484, 1.440e-3
-1.485, 1.462e-3
-1.486, 1.477e-3
-1.487, 1.495e-3
-1.488, 1.514e-3
-1.489, 1.539e-3
-1.490, 1.563e-3
-1.491, 1.585e-3
-1.492, 1.606e-3
-1.493, 1.628e-3
-1.494, 1.647e-3
-1.495, 1.668e-3
-1.496, 1.684e-3
-1.497, 1.708e-3
-1.498, 1.730e-3
-1.499, 1.754e-3
-1.500, 1.779e-3
-1.501, 1.807e-3
-1.502, 1.832e-3
-1.503, 1.856e-3
-1.504, 1.875e-3
-1.505, 1.899e-3
-1.506, 1.921e-3
-1.507, 1.946e-3
-1.508, 1.970e-3
-1.509, 1.998e-3
-1.510, 2.029e-3
-1.511, 2.057e-3
-1.512, 2.084e-3
-1.513, 2.112e-3
-1.514, 2.137e-3
-1.515, 2.158e-3
-1.516, 2.186e-3
-1.517, 2.211e-3
-1.518, 2.238e-3
-1.519, 2.269e-3
-1.520, 2.303e-3
-1.521, 2.337e-3
-1.522, 2.365e-3
-1.523, 2.396e-3
-1.524, 2.423e-3
-1.525, 2.451e-3
-1.526, 2.479e-3
-1.527, 2.513e-3
-1.528, 2.544e-3
-1.529, 2.578e-3
-1.530, 2.612e-3
-1.531, 2.649e-3
-1.532, 2.682e-3
-1.533, 2.713e-3
-1.534, 2.744e-3
-1.535, 2.778e-3
-1.536, 2.806e-3
-1.537, 2.843e-3
-1.538, 2.874e-3
-1.539, 2.911e-3
-1.540, 2.948e-3
-1.541, 2.988e-3
-1.542, 3.022e-3
-1.543, 3.062e-3
-1.544, 3.096e-3
-1.545, 3.130e-3
-1.546, 3.163e-3
-1.547, 3.204e-3
-1.548, 3.241e-3
-1.549, 3.281e-3
-1.550, 3.321e-3
-1.551, 3.364e-3
-1.552, 3.401e-3
-1.553, 3.441e-3
-1.554, 3.481e-3
-1.555, 3.521e-3
-1.556, 3.555e-3
-1.557, 3.595e-3
-1.558, 3.635e-3
-1.559, 3.681e-3
-1.560, 3.728e-3
-1.561, 3.774e-3
-1.562, 3.817e-3
-1.563, 3.863e-3
-1.564, 3.903e-3
-1.565, 3.947e-3
-1.566, 3.990e-3
-1.567, 4.036e-3
-1.568, 4.082e-3
-1.569, 4.132e-3
-1.570, 4.181e-3
-1.571, 4.230e-3
-1.572, 4.280e-3
-1.573, 4.326e-3
-1.574, 4.369e-3
-1.575, 4.415e-3
-1.576, 4.458e-3
-1.577, 4.508e-3
-1.578, 4.554e-3
-1.579, 4.606e-3
-1.580, 4.659e-3
-1.581, 4.714e-3
-1.582, 4.767e-3
-1.583, 4.819e-3
-1.584, 4.868e-3
-1.585, 4.921e-3
-1.586, 4.970e-3
-1.587, 5.026e-3
-1.588, 5.081e-3
-1.589, 5.137e-3
-1.590, 5.195e-3
-1.591, 5.254e-3
-1.592, 5.309e-3
-1.593, 5.368e-3
-1.594, 5.423e-3
-1.595, 5.476e-3
-1.596, 5.531e-3
-1.597, 5.587e-3
-1.598, 5.645e-3
-1.599, 5.704e-3
-1.600, 5.766e-3
-1.601, 5.827e-3
-1.602, 5.889e-3
-1.603, 5.951e-3
-1.604, 6.009e-3
-1.605, 6.068e-3
-1.606, 6.126e-3
-1.607, 6.185e-3
-1.608, 6.250e-3
-1.609, 6.314e-3
-1.610, 6.376e-3
-1.611, 6.444e-3
-1.612, 6.509e-3
-1.613, 6.573e-3
-1.614, 6.632e-3
-1.615, 6.694e-3
-1.616, 6.752e-3
-1.617, 6.814e-3
-1.618, 6.875e-3
-1.619, 6.943e-3
-1.620, 7.011e-3
-1.621, 7.079e-3
-1.622, 7.147e-3
-1.623, 7.215e-3
-1.624, 7.276e-3
-1.625, 7.341e-3
-1.626, 7.403e-3
-1.627, 7.467e-3
-1.628, 7.532e-3
-1.629, 7.603e-3
-1.630, 7.674e-3
-1.631, 7.748e-3
-1.632, 7.816e-3
-1.633, 7.887e-3
-1.634, 7.951e-3
-1.635, 8.019e-3
-1.636, 8.081e-3
-1.637, 8.146e-3
-1.638, 8.217e-3
-1.639, 8.288e-3
-1.640, 8.358e-3
-1.641, 8.432e-3
-1.642, 8.500e-3
-1.643, 8.571e-3
-1.644, 8.639e-3
-1.645, 8.707e-3
-1.646, 8.772e-3
-1.647, 8.843e-3
-1.648, 8.913e-3
-1.649, 8.984e-3
-1.650, 9.058e-3
-1.651, 9.132e-3
-1.652, 9.203e-3
-1.653, 9.274e-3
-1.654, 9.345e-3
-1.655, 9.416e-3
-1.656, 9.484e-3
-1.657, 9.558e-3
-1.658, 9.629e-3
-1.659, 9.706e-3
-1.660, 9.786e-3
-1.661, 9.863e-3
-1.662, 9.943e-3
-1.663, 1.002e-2
-1.664, 1.010e-2
-1.665, 1.018e-2
-1.666, 1.026e-2
-1.667, 1.034e-2
-1.668, 1.042e-2
-1.669, 1.050e-2
-1.670, 1.059e-2
-1.671, 1.067e-2
-1.672, 1.075e-2
-1.673, 1.083e-2
-1.674, 1.091e-2
-1.675, 1.099e-2
-1.676, 1.106e-2
-1.677, 1.113e-2
-1.678, 1.120e-2
-1.679, 1.128e-2
-1.680, 1.136e-2
-1.681, 1.145e-2
-1.682, 1.152e-2
-1.683, 1.161e-2
-1.684, 1.169e-2
-1.685, 1.177e-2
-1.686, 1.185e-2
-1.687, 1.193e-2
-1.688, 1.202e-2
-1.689, 1.210e-2
-1.690, 1.219e-2
-1.691, 1.227e-2
-1.692, 1.235e-2
-1.693, 1.244e-2
-1.694, 1.251e-2
-1.695, 1.259e-2
-1.696, 1.266e-2
-1.697, 1.274e-2
-1.698, 1.282e-2
-1.699, 1.290e-2
-1.700, 1.290e-2
-1.699, 1.280e-2
-1.698, 1.271e-2
-1.697, 1.263e-2
-1.696, 1.254e-2
-1.695, 1.245e-2
-1.694, 1.236e-2
-1.693, 1.228e-2
-1.692, 1.220e-2
-1.691, 1.211e-2
-1.690, 1.203e-2
-1.689, 1.196e-2
-1.688, 1.188e-2
-1.687, 1.179e-2
-1.686, 1.171e-2
-1.685, 1.162e-2
-1.684, 1.153e-2
-1.683, 1.145e-2
-1.682, 1.137e-2
-1.681, 1.129e-2
-1.680, 1.122e-2
-1.679, 1.115e-2
-1.678, 1.106e-2
-1.677, 1.099e-2
-1.676, 1.090e-2
-1.675, 1.082e-2
-1.674, 1.074e-2
-1.673, 1.066e-2
-1.672, 1.058e-2
-1.671, 1.050e-2
-1.670, 1.043e-2
-1.669, 1.035e-2
-1.668, 1.027e-2
-1.667, 1.020e-2
-1.666, 1.013e-2
-1.665, 1.005e-2
-1.664, 9.974e-3
-1.663, 9.903e-3
-1.662, 9.835e-3
-1.661, 9.764e-3
-1.660, 9.693e-3
-1.659, 9.626e-3
-1.658, 9.555e-3
-1.657, 9.484e-3
-1.656, 9.413e-3
-1.655, 9.339e-3
-1.654, 9.265e-3
-1.653, 9.200e-3
-1.652, 9.123e-3
-1.651, 9.052e-3
-1.650, 8.978e-3
-1.649, 8.910e-3
-1.648, 8.836e-3
-1.647, 8.769e-3
-1.646, 8.698e-3
-1.645, 8.630e-3
-1.644, 8.562e-3
-1.643, 8.494e-3
-1.642, 8.429e-3
-1.641, 8.362e-3
-1.640, 8.300e-3
-1.639, 8.244e-3
-1.638, 8.180e-3
-1.637, 8.121e-3
-1.636, 8.053e-3
-1.635, 7.988e-3
-1.634, 7.921e-3
-1.633, 7.856e-3
-1.632, 7.794e-3
-1.631, 7.733e-3
-1.630, 7.671e-3
-1.629, 7.612e-3
-1.628, 7.548e-3
-1.627, 7.486e-3
-1.626, 7.421e-3
-1.625, 7.356e-3
-1.624, 7.289e-3
-1.623, 7.224e-3
-1.622, 7.168e-3
-1.621, 7.110e-3
-1.620, 7.054e-3
-1.619, 7.005e-3
-1.618, 6.949e-3
-1.617, 6.897e-3
-1.616, 6.838e-3
-1.615, 6.780e-3
-1.614, 6.718e-3
-1.613, 6.660e-3
-1.612, 6.601e-3
-1.611, 6.546e-3
-1.610, 6.490e-3
-1.609, 6.438e-3
-1.608, 6.382e-3
-1.607, 6.330e-3
-1.606, 6.274e-3
-1.605, 6.216e-3
-1.604, 6.157e-3
-1.603, 6.102e-3
-1.602, 6.049e-3
-1.601, 5.997e-3
-1.600, 5.944e-3
-1.599, 5.898e-3
-1.598, 5.843e-3
-1.597, 5.787e-3
-1.596, 5.729e-3
-1.595, 5.673e-3
-1.594, 5.611e-3
-1.593, 5.556e-3
-1.592, 5.500e-3
-1.591, 5.448e-3
-1.590, 5.396e-3
-1.589, 5.346e-3
-1.588, 5.294e-3
-1.587, 5.241e-3
-1.586, 5.183e-3
-1.585, 5.127e-3
-1.584, 5.069e-3
-1.583, 5.016e-3
-1.582, 4.961e-3
-1.581, 4.912e-3
-1.580, 4.862e-3
-1.579, 4.816e-3
-1.578, 4.764e-3
-1.577, 4.711e-3
-1.576, 4.659e-3
-1.575, 4.603e-3
-1.574, 4.548e-3
-1.573, 4.501e-3
-1.572, 4.449e-3
-1.571, 4.403e-3
-1.570, 4.360e-3
-1.569, 4.317e-3
-1.568, 4.270e-3
-1.567, 4.224e-3
-1.566, 4.178e-3
-1.565, 4.128e-3
-1.564, 4.079e-3
-1.563, 4.033e-3
-1.562, 3.990e-3
-1.561, 3.950e-3
-1.560, 3.906e-3
-1.559, 3.863e-3
-1.558, 3.823e-3
-1.557, 3.780e-3
-1.556, 3.734e-3
-1.555, 3.691e-3
-1.554, 3.644e-3
-1.553, 3.601e-3
-1.552, 3.561e-3
-1.551, 3.521e-3
-1.550, 3.481e-3
-1.549, 3.444e-3
-1.548, 3.401e-3
-1.547, 3.361e-3
-1.546, 3.318e-3
-1.545, 3.274e-3
-1.544, 3.234e-3
-1.543, 3.194e-3
-1.542, 3.154e-3
-1.541, 3.117e-3
-1.540, 3.080e-3
-1.539, 3.046e-3
-1.538, 3.009e-3
-1.537, 2.972e-3
-1.536, 2.932e-3
-1.535, 2.892e-3
-1.534, 2.852e-3
-1.533, 2.818e-3
-1.532, 2.784e-3
-1.531, 2.750e-3
-1.530, 2.719e-3
-1.529, 2.689e-3
-1.528, 2.655e-3
-1.527, 2.621e-3
-1.526, 2.584e-3
-1.525, 2.550e-3
-1.524, 2.513e-3
-1.523, 2.482e-3
-1.522, 2.448e-3
-1.521, 2.417e-3
-1.520, 2.386e-3
-1.519, 2.359e-3
-1.518, 2.325e-3
-1.517, 2.294e-3
-1.516, 2.260e-3
-1.515, 2.226e-3
-1.514, 2.195e-3
-1.513, 2.164e-3
-1.512, 2.134e-3
-1.511, 2.106e-3
-1.510, 2.078e-3
-1.509, 2.054e-3
-1.508, 2.026e-3
-1.507, 1.995e-3
-1.506, 1.967e-3
-1.505, 1.933e-3
-1.504, 1.902e-3
-1.503, 1.875e-3
-1.502, 1.847e-3
-1.501, 1.822e-3
-1.500, 1.798e-3
-1.499, 1.776e-3
-1.498, 1.748e-3
-1.497, 1.721e-3
-1.496, 1.690e-3
-1.495, 1.662e-3
-1.494, 1.631e-3
-1.493, 1.606e-3
-1.492, 1.582e-3
-1.491, 1.557e-3
-1.490, 1.536e-3
-1.489, 1.514e-3
-1.488, 1.489e-3
-1.487, 1.465e-3
-1.486, 1.440e-3
-1.485, 1.412e-3
-1.484, 1.384e-3
-1.483, 1.363e-3
-1.482, 1.341e-3
-1.481, 1.320e-3
-1.480, 1.298e-3
-1.479, 1.280e-3
-1.478, 1.255e-3
-1.477, 1.233e-3
-1.476, 1.209e-3
-1.475, 1.187e-3
-1.474, 1.162e-3
-1.473, 1.144e-3
-1.472, 1.122e-3
-1.471, 1.104e-3
-1.470, 1.085e-3
-1.469, 1.070e-3
-1.468, 1.048e-3
-1.467, 1.030e-3
-1.466, 1.008e-3
-1.465, 9.868e-4
-1.464, 9.652e-4
-1.463, 9.467e-4
-1.462, 9.282e-4
-1.461, 9.128e-4
-1.460, 8.973e-4
-1.459, 8.819e-4
-1.458, 8.634e-4
-1.457, 8.480e-4
-1.456, 8.264e-4
-1.455, 8.079e-4
-1.454, 7.863e-4
-1.453, 7.709e-4
-1.452, 7.555e-4
-1.451, 7.432e-4
-1.450, 7.278e-4
-1.449, 7.154e-4
-1.448, 7.000e-4
-1.447, 6.846e-4
-1.446, 6.661e-4
-1.445, 6.476e-4
-1.444, 6.322e-4
-1.443, 6.168e-4
-1.442, 6.044e-4
-1.441, 5.921e-4
-1.440, 5.829e-4
-1.439, 5.705e-4
-1.438, 5.551e-4
-1.437, 5.397e-4
-1.436, 5.243e-4
-1.435, 5.089e-4
-1.434, 4.935e-4
-1.433, 4.811e-4
-1.432, 4.688e-4
-1.431, 4.595e-4
-1.430, 4.503e-4
-1.429, 4.410e-4
-1.428, 4.287e-4
-1.427, 4.164e-4
-1.426, 4.010e-4
-1.425, 3.886e-4
-1.424, 3.732e-4
-1.423, 3.640e-4
-1.422, 3.516e-4
-1.421, 3.455e-4
-1.420, 3.362e-4
-1.419, 3.300e-4
-1.418, 3.177e-4
-1.417, 3.085e-4
-1.416, 2.961e-4
-1.415, 2.838e-4
-1.414, 2.684e-4
-1.413, 2.591e-4
-1.412, 2.530e-4
-1.411, 2.468e-4
-1.410, 2.406e-4
-1.409, 2.314e-4
-1.408, 2.221e-4
-1.407, 2.129e-4
-1.406, 2.036e-4
-1.405, 1.944e-4
-1.404, 1.790e-4
-1.403, 1.728e-4
-1.402, 1.666e-4
-1.401, 1.605e-4
-1.400, 1.543e-4
-1.399, 1.512e-4
-1.398, 1.420e-4
-1.397, 1.358e-4
-1.396, 1.235e-4
-1.395, 1.142e-4
-1.394, 1.050e-4
-1.393, 9.882e-5
-1.392, 9.265e-5
-1.391, 8.957e-5
-1.390, 8.340e-5
-1.389, 8.032e-5
-1.388, 7.415e-5
-1.387, 6.490e-5
-1.386, 5.565e-5
-1.385, 4.949e-5
-1.384, 4.024e-5
-1.383, 3.407e-5
-1.382, 2.790e-5
-1.381, 2.790e-5
-1.380, 2.174e-5
-1.379, 2.174e-5
-1.378, 1.557e-5
-1.377, 6.322e-6
-1.376, 1.559e-7
-1.375, -9.093e-6
-1.374, -1.526e-5
-1.373, -1.834e-5
-1.372, -2.143e-5
-1.371, -2.451e-5
-1.370, -2.759e-5
-1.369, -2.759e-5
-1.368, -3.376e-5
-1.367, -3.992e-5
-1.366, -4.609e-5
-1.365, -5.534e-5
-1.364, -6.151e-5
-1.363, -6.459e-5
-1.362, -6.767e-5
-1.361, -6.767e-5
-1.360, -6.767e-5
-1.359, -7.076e-5
-1.358, -7.384e-5
-1.357, -8.000e-5
-1.356, -8.617e-5
-1.355, -9.234e-5
-1.354, -9.850e-5
-1.353, -1.016e-4
-1.352, -1.016e-4
-1.351, -1.016e-4
-1.350, -1.047e-4
-1.349, -1.016e-4
-1.348, -1.078e-4
-1.347, -1.108e-4
-1.346, -1.170e-4
-1.345, -1.232e-4
-1.344, -1.293e-4
-1.343, -1.293e-4
-1.342, -1.324e-4
-1.341, -1.324e-4
-1.340, -1.324e-4
-1.339, -1.324e-4
-1.338, -1.355e-4
-1.337, -1.386e-4
-1.336, -1.448e-4
-1.335, -1.478e-4
-1.334, -1.540e-4
-1.333, -1.540e-4
-1.332, -1.571e-4
-1.331, -1.571e-4
-1.330, -1.540e-4
-1.329, -1.540e-4
-1.328, -1.571e-4
-1.327, -1.602e-4
-1.326, -1.663e-4
-1.325, -1.694e-4
-1.324, -1.725e-4
-1.323, -1.756e-4
-1.322, -1.756e-4
-1.321, -1.756e-4
-1.320, -1.725e-4
-1.319, -1.725e-4
-1.318, -1.756e-4
-1.317, -1.787e-4
-1.316, -1.817e-4
-1.315, -1.848e-4
-1.314, -1.910e-4
-1.313, -1.910e-4
-1.312, -1.910e-4
-1.311, -1.910e-4
-1.310, -1.879e-4
-1.309, -1.879e-4
-1.308, -1.879e-4
-1.307, -1.910e-4
-1.306, -1.972e-4
-1.305, -2.002e-4
-1.304, -2.033e-4
-1.303, -2.033e-4
-1.302, -2.033e-4
-1.301, -2.002e-4
-1.300, -2.002e-4
-1.299, -1.972e-4
-1.298, -2.002e-4
-1.297, -2.033e-4
-1.296, -2.064e-4
-1.295, -2.095e-4
-1.294, -2.157e-4
-1.293, -2.157e-4
-1.292, -2.157e-4
-1.291, -2.126e-4
-1.290, -2.095e-4
-1.289, -2.095e-4
-1.288, -2.095e-4
-1.287, -2.126e-4
-1.286, -2.157e-4
-1.285, -2.187e-4
-1.284, -2.218e-4
-1.283, -2.218e-4
-1.282, -2.218e-4
-1.281, -2.218e-4
-1.280, -2.187e-4
-1.279, -2.157e-4
-1.278, -2.187e-4
-1.277, -2.187e-4
-1.276, -2.249e-4
-1.275, -2.249e-4
-1.274, -2.280e-4
-1.273, -2.311e-4
-1.272, -2.280e-4
-1.271, -2.280e-4
-1.270, -2.249e-4
-1.269, -2.218e-4
-1.268, -2.249e-4
-1.267, -2.280e-4
-1.266, -2.311e-4
-1.265, -2.342e-4
-1.264, -2.342e-4
-1.263, -2.372e-4
-1.262, -2.342e-4
-1.261, -2.311e-4
-1.260, -2.311e-4
-1.259, -2.280e-4
-1.258, -2.280e-4
-1.257, -2.311e-4
-1.256, -2.342e-4
-1.255, -2.372e-4
-1.254, -2.403e-4
-1.253, -2.403e-4
-1.252, -2.403e-4
-1.251, -2.372e-4
-1.250, -2.342e-4
-1.249, -2.342e-4
-1.248, -2.342e-4
-1.247, -2.372e-4
-1.246, -2.403e-4
-1.245, -2.403e-4
-1.244, -2.465e-4
-1.243, -2.434e-4
-1.242, -2.434e-4
-1.241, -2.403e-4
-1.240, -2.403e-4
-1.239, -2.372e-4
-1.238, -2.372e-4
-1.237, -2.372e-4
-1.236, -2.434e-4
-1.235, -2.465e-4
-1.234, -2.496e-4
-1.233, -2.496e-4
-1.232, -2.465e-4
-1.231, -2.465e-4
-1.230, -2.434e-4
-1.229, -2.434e-4
-1.228, -2.465e-4
-1.227, -2.434e-4
-1.226, -2.465e-4
-1.225, -2.496e-4
-1.224, -2.527e-4
-1.223, -2.527e-4
-1.222, -2.527e-4
-1.221, -2.496e-4
-1.220, -2.465e-4
-1.219, -2.434e-4
-1.218, -2.465e-4
-1.217, -2.496e-4
-1.216, -2.496e-4
-1.215, -2.527e-4
-1.214, -2.557e-4
-1.213, -2.557e-4
-1.212, -2.557e-4
-1.211, -2.527e-4
-1.210, -2.496e-4
-1.209, -2.496e-4
-1.208, -2.496e-4
-1.207, -2.496e-4
-1.206, -2.557e-4
-1.205, -2.588e-4
-1.204, -2.619e-4
-1.203, -2.588e-4
-1.202, -2.619e-4
-1.201, -2.557e-4
-1.200, -2.557e-4
-1.199, -2.527e-4
-1.198, -2.527e-4
-1.197, -2.557e-4
-1.196, -2.588e-4
-1.195, -2.588e-4
-1.194, -2.650e-4
-1.193, -2.650e-4
-1.192, -2.619e-4
-1.191, -2.619e-4
-1.190, -2.588e-4
-1.189, -2.557e-4
-1.188, -2.588e-4
-1.187, -2.588e-4
-1.186, -2.619e-4
-1.185, -2.681e-4
-1.184, -2.681e-4
-1.183, -2.681e-4
-1.182, -2.681e-4
-1.181, -2.650e-4
-1.180, -2.650e-4
-1.179, -2.619e-4
-1.178, -2.619e-4
-1.177, -2.650e-4
-1.176, -2.681e-4
-1.175, -2.712e-4
-1.174, -2.742e-4
-1.173, -2.742e-4
-1.172, -2.742e-4
-1.171, -2.712e-4
-1.170, -2.681e-4
-1.169, -2.681e-4
-1.168, -2.681e-4
-1.167, -2.712e-4
-1.166, -2.742e-4
-1.165, -2.773e-4
-1.164, -2.804e-4
-1.163, -2.804e-4
-1.162, -2.804e-4
-1.161, -2.773e-4
-1.160, -2.773e-4
-1.159, -2.742e-4
-1.158, -2.742e-4
-1.157, -2.773e-4
-1.156, -2.804e-4
-1.155, -2.835e-4
-1.154, -2.866e-4
-1.153, -2.866e-4
-1.152, -2.866e-4
-1.151, -2.835e-4
-1.150, -2.835e-4
-1.149, -2.804e-4
-1.148, -2.835e-4
-1.147, -2.835e-4
-1.146, -2.897e-4
-1.145, -2.927e-4
-1.144, -2.958e-4
-1.143, -2.958e-4
-1.142, -2.958e-4
-1.141, -2.927e-4
-1.140, -2.927e-4
-1.139, -2.897e-4
-1.138, -2.927e-4
-1.137, -2.927e-4
-1.136, -2.958e-4
-1.135, -3.020e-4
-1.134, -3.051e-4
-1.133, -3.051e-4
-1.132, -3.051e-4
-1.131, -3.020e-4
-1.130, -3.020e-4
-1.129, -2.989e-4
-1.128, -2.989e-4
-1.127, -3.051e-4
-1.126, -3.082e-4
-1.125, -3.082e-4
-1.124, -3.143e-4
-1.123, -3.143e-4
-1.122, -3.143e-4
-1.121, -3.112e-4
-1.120, -3.112e-4
-1.119, -3.082e-4
-1.118, -3.112e-4
-1.117, -3.112e-4
-1.116, -3.174e-4
-1.115, -3.205e-4
-1.114, -3.236e-4
-1.113, -3.236e-4
-1.112, -3.236e-4
-1.111, -3.205e-4
-1.110, -3.205e-4
-1.109, -3.174e-4
-1.108, -3.205e-4
-1.107, -3.236e-4
-1.106, -3.267e-4
-1.105, -3.297e-4
-1.104, -3.328e-4
-1.103, -3.328e-4
-1.102, -3.328e-4
-1.101, -3.328e-4
-1.100, -3.297e-4
-1.099, -3.267e-4
-1.098, -3.297e-4
-1.097, -3.328e-4
-1.096, -3.359e-4
-1.095, -3.390e-4
-1.094, -3.421e-4
-1.093, -3.421e-4
-1.092, -3.452e-4
-1.091, -3.390e-4
-1.090, -3.390e-4
-1.089, -3.359e-4
-1.088, -3.390e-4
-1.087, -3.421e-4
-1.086, -3.452e-4
-1.085, -3.482e-4
-1.084, -3.513e-4
-1.083, -3.513e-4
-1.082, -3.513e-4
-1.081, -3.513e-4
-1.080, -3.482e-4
-1.079, -3.452e-4
-1.078, -3.482e-4
-1.077, -3.482e-4
-1.076, -3.544e-4
-1.075, -3.575e-4
-1.074, -3.606e-4
-1.073, -3.606e-4
-1.072, -3.606e-4
-1.071, -3.575e-4
-1.070, -3.575e-4
-1.069, -3.544e-4
-1.068, -3.575e-4
-1.067, -3.606e-4
-1.066, -3.637e-4
-1.065, -3.667e-4
-1.064, -3.698e-4
-1.063, -3.698e-4
-1.062, -3.698e-4
-1.061, -3.667e-4
-1.060, -3.667e-4
-1.059, -3.637e-4
-1.058, -3.667e-4
-1.057, -3.667e-4
-1.056, -3.729e-4
-1.055, -3.760e-4
-1.054, -3.791e-4
-1.053, -3.791e-4
-1.052, -3.791e-4
-1.051, -3.791e-4
-1.050, -3.760e-4
-1.049, -3.729e-4
-1.048, -3.760e-4
-1.047, -3.791e-4
-1.046, -3.821e-4
-1.045, -3.852e-4
-1.044, -3.914e-4
-1.043, -3.914e-4
-1.042, -3.914e-4
-1.041, -3.883e-4
-1.040, -3.852e-4
-1.039, -3.852e-4
-1.038, -3.883e-4
-1.037, -3.883e-4
-1.036, -3.945e-4
-1.035, -3.976e-4
-1.034, -4.006e-4
-1.033, -4.037e-4
-1.032, -4.037e-4
-1.031, -4.006e-4
-1.030, -4.006e-4
-1.029, -3.976e-4
-1.028, -4.006e-4
-1.027, -4.037e-4
-1.026, -4.068e-4
-1.025, -4.130e-4
-1.024, -4.161e-4
-1.023, -4.191e-4
-1.022, -4.161e-4
-1.021, -4.161e-4
-1.020, -4.161e-4
-1.019, -4.130e-4
-1.018, -4.130e-4
-1.017, -4.161e-4
-1.016, -4.222e-4
-1.015, -4.253e-4
-1.014, -4.284e-4
-1.013, -4.315e-4
-1.012, -4.315e-4
-1.011, -4.315e-4
-1.010, -4.284e-4
-1.009, -4.284e-4
-1.008, -4.315e-4
-1.007, -4.346e-4
-1.006, -4.407e-4
-1.005, -4.438e-4
-1.004, -4.500e-4
-1.003, -4.500e-4
-1.002, -4.500e-4
-1.001, -4.500e-4
