Potential V vs RHE, Current mA cm-2
0.013299999999999867,-0.3947044526623452
0.012299999999999978,-1.7471684553333202
0.011299999999999866,-2.576189277054232
0.010299999999999976,-3.1859298472960624
0.009299999999999864,-3.5353635383627267
0.008299999999999974,-3.7970851288377587
0.007299999999999862,-3.927238568425342
0.006299999999999972,-4.014950669016974
0.00529999999999986,-4.0588067193127895
0.0042999999999999705,-4.102662769608606
0.0032999999999998586,-4.1889601589003735
0.0022999999999999687,-4.23281620919619
0.0012999999999998568,-4.364384360083638
0.00029999999999996696,-4.494537799671222
-0.000700000000000145,-4.626105950558669
-0.0017000000000000348,-4.712403339850438
-0.0027000000000001467,-4.756259390146253
-0.0037000000000000366,-4.800115440442069
-0.0047000000000001485,-4.756259390146253
-0.005700000000000038,-4.712403339850438
-0.00670000000000015,-4.668547289554621
-0.00770000000000004,-4.582249900262854
-0.008700000000000152,-4.668547289554621
-0.009700000000000042,-4.668547289554621
-0.010700000000000154,-4.800115440442069
-0.011700000000000044,-4.887827541033701
-0.012700000000000156,-4.9302688800296535
-0.013700000000000045,-5.017980980621284
-0.014700000000000157,-5.017980980621284
-0.015700000000000047,-5.017980980621284
-0.01670000000000016,-4.9302688800296535
-0.01770000000000005,-4.887827541033701
-0.01870000000000016,-4.843971490737885
-0.01970000000000005,-4.843971490737885
-0.020700000000000163,-4.843971490737885
-0.021700000000000053,-4.887827541033701
-0.022700000000000164,-4.974124930325469
-0.023700000000000054,-5.0618370309171015
-0.024700000000000166,-5.149549131508733
-0.025700000000000056,-5.191990470504685
-0.026700000000000168,-5.149549131508733
-0.027700000000000058,-5.149549131508733
-0.02870000000000017,-5.0618370309171015
-0.02970000000000006,-5.017980980621284
-0.03070000000000017,-4.974124930325469
-0.03170000000000006,-4.974124930325469
-0.03270000000000017,-4.974124930325469
-0.03370000000000006,-5.0618370309171015
-0.034700000000000175,-5.149549131508733
-0.035700000000000065,-5.235846520800501
-0.03670000000000018,-5.323558621392133
-0.03770000000000007,-5.279702571096316
-0.03870000000000018,-5.323558621392133
-0.03970000000000007,-5.235846520800501
-0.04070000000000018,-5.191990470504685
-0.04170000000000007,-5.149549131508733
-0.04270000000000018,-5.0618370309171015
-0.04370000000000007,-5.105693081212917
-0.044700000000000184,-5.149549131508733
-0.045700000000000074,-5.235846520800501
-0.046700000000000186,-5.323558621392133
-0.047700000000000076,-5.367414671687949
-0.04870000000000019,-5.453712060979717
-0.04970000000000008,-5.453712060979717
-0.05070000000000019,-5.411270721983764
-0.05170000000000008,-5.367414671687949
-0.05270000000000019,-5.323558621392133
-0.05370000000000008,-5.235846520800501
-0.05470000000000019,-5.235846520800501
-0.05570000000000008,-5.235846520800501
-0.056700000000000195,-5.279702571096316
-0.057700000000000085,-5.367414671687949
-0.058700000000000196,-5.411270721983764
-0.059700000000000086,-5.5414241615713475
-0.0607000000000002,-5.5414241615713475
-0.06170000000000009,-5.5414241615713475
-0.0627000000000002,-5.497568111275533
-0.06370000000000009,-5.453712060979717
-0.0647000000000002,-5.411270721983764
-0.06570000000000009,-5.323558621392133
-0.0667000000000002,-5.323558621392133
-0.0677000000000001,-5.367414671687949
-0.0687000000000002,-5.411270721983764
-0.0697000000000001,-5.497568111275533
-0.07070000000000021,-5.585280211867165
-0.0717000000000001,-5.672992312458796
-0.07270000000000021,-5.672992312458796
-0.0737000000000001,-5.672992312458796
-0.07470000000000021,-5.585280211867165
-0.0757000000000001,-5.5414241615713475
-0.07670000000000021,-5.497568111275533
-0.0777000000000001,-5.411270721983764
-0.07870000000000021,-5.453712060979717
-0.0797000000000001,-5.453712060979717
-0.08070000000000022,-5.5414241615713475
-0.0817000000000001,-5.629136262162981
-0.08270000000000022,-5.672992312458796
-0.08370000000000011,-5.759289701750564
-0.08470000000000022,-5.715433651454749
-0.08570000000000011,-5.715433651454749
-0.08670000000000022,-5.672992312458796
-0.08770000000000011,-5.629136262162981
-0.08870000000000022,-5.5414241615713475
-0.08970000000000011,-5.5414241615713475
-0.09070000000000022,-5.5414241615713475
-0.09170000000000011,-5.585280211867165
-0.09270000000000023,-5.672992312458796
-0.09370000000000012,-5.715433651454749
-0.09470000000000023,-5.847001802342197
-0.09570000000000012,-5.847001802342197
-0.09670000000000023,-5.847001802342197
-0.09770000000000012,-5.80314575204638
-0.09870000000000023,-5.715433651454749
-0.09970000000000012,-5.672992312458796
-0.10070000000000023,-5.629136262162981
-0.10170000000000012,-5.629136262162981
-0.10270000000000024,-5.629136262162981
-0.10370000000000013,-5.715433651454749
-0.10470000000000024,-5.80314575204638
-0.10570000000000013,-5.847001802342197
-0.10670000000000024,-5.9347139029338285
-0.10770000000000013,-5.9347139029338285
-0.10870000000000024,-5.977155241929781
-0.10970000000000013,-5.890857852638012
-0.11070000000000024,-5.847001802342197
-0.11170000000000013,-5.80314575204638
-0.11270000000000002,-5.715433651454749
-0.11370000000000013,-5.759289701750564
-0.11470000000000002,-5.759289701750564
-0.11570000000000014,-5.847001802342197
-0.11670000000000003,-5.890857852638012
-0.11770000000000014,-5.977155241929781
-0.11870000000000003,-6.064867342521412
-0.11970000000000014,-6.021011292225596
-0.12070000000000003,-6.021011292225596
-0.12170000000000014,-5.9347139029338285
-0.12270000000000003,-5.890857852638012
-0.12370000000000014,-5.890857852638012
-0.12470000000000003,-5.847001802342197
-0.12570000000000014,-5.847001802342197
-0.12670000000000003,-5.890857852638012
-0.12770000000000015,-5.977155241929781
-0.12870000000000004,-6.064867342521412
-0.12970000000000015,-6.152579443113044
-0.13070000000000004,-6.152579443113044
-0.13170000000000015,-6.196435493408861
-0.13270000000000004,-6.108723392817228
-0.13370000000000015,-6.064867342521412
-0.13470000000000004,-6.021011292225596
-0.13570000000000015,-5.977155241929781
-0.13670000000000004,-5.977155241929781
-0.13770000000000016,-5.977155241929781
-0.13870000000000005,-6.064867342521412
-0.13970000000000016,-6.152579443113044
-0.14070000000000005,-6.238876832404812
-0.14170000000000016,-6.326588932996443
-0.14270000000000005,-6.326588932996443
-0.14370000000000016,-6.282732882700628
-0.14470000000000005,-6.238876832404812
-0.14570000000000016,-6.196435493408861
-0.14670000000000005,-6.152579443113044
-0.14770000000000016,-6.064867342521412
-0.14870000000000005,-6.108723392817228
-0.14970000000000017,-6.108723392817228
-0.15070000000000006,-6.238876832404812
-0.15170000000000017,-6.282732882700628
-0.15270000000000006,-6.37044498329226
-0.15370000000000017,-6.458157083883892
-0.15470000000000006,-6.458157083883892
-0.15570000000000017,-6.414301033588076
-0.15670000000000006,-6.326588932996443
-0.15770000000000017,-6.326588932996443
-0.15870000000000006,-6.282732882700628
-0.15970000000000018,-6.238876832404812
-0.16070000000000007,-6.282732882700628
-0.16170000000000018,-6.282732882700628
-0.16270000000000007,-6.414301033588076
-0.16370000000000018,-6.458157083883892
-0.16470000000000007,-6.588310523471475
-0.16570000000000018,-6.588310523471475
-0.16670000000000007,-6.588310523471475
-0.16770000000000018,-6.54445447317566
-0.16870000000000007,-6.500598422879844
-0.16970000000000018,-6.458157083883892
-0.17070000000000007,-6.37044498329226
-0.17170000000000019,-6.414301033588076
-0.17270000000000008,-6.414301033588076
-0.1737000000000002,-6.458157083883892
-0.17470000000000008,-6.588310523471475
-0.1757000000000002,-6.632166573767292
-0.17670000000000008,-6.762320013354876
-0.1777000000000002,-6.762320013354876
-0.17870000000000008,-6.762320013354876
-0.1797000000000002,-6.719878674358924
-0.18070000000000008,-6.632166573767292
-0.1817000000000002,-6.588310523471475
-0.18270000000000008,-6.54445447317566
-0.1837000000000002,-6.588310523471475
-0.1847000000000001,-6.588310523471475
-0.1857000000000002,-6.6760226240631075
-0.1867000000000001,-6.719878674358924
-0.1877000000000002,-6.850032113946507
-0.1887000000000001,-6.93774421453814
-0.1897000000000002,-6.893888164242324
-0.1907000000000001,-6.893888164242324
-0.1917000000000001,-6.850032113946507
-0.19269999999999998,-6.762320013354876
-0.1937000000000001,-6.762320013354876
-0.19469999999999998,-6.719878674358924
-0.1957000000000001,-6.719878674358924
-0.19669999999999999,-6.762320013354876
-0.1977000000000001,-6.893888164242324
-0.1987,-6.981600264833956
-0.1997000000000001,-7.067897654125724
-0.2007,-7.111753704421539
-0.2017000000000001,-7.111753704421539
-0.2027,-7.067897654125724
-0.2037000000000001,-6.981600264833956
-0.2047,-6.981600264833956
-0.2057000000000001,-6.93774421453814
-0.2067,-6.93774421453814
-0.2077000000000001,-6.93774421453814
-0.2087,-7.024041603829907
-0.2097000000000001,-7.111753704421539
-0.2107,-7.155609754717355
-0.2117000000000001,-7.28576319430494
-0.2127,-7.28576319430494
-0.2137000000000001,-7.28576319430494
-0.2147,-7.243321855308987
-0.2157000000000001,-7.199465805013171
-0.2167,-7.155609754717355
-0.21770000000000012,-7.067897654125724
-0.2187,-7.111753704421539
-0.21970000000000012,-7.111753704421539
-0.2207,-7.199465805013171
-0.22170000000000012,-7.28576319430494
-0.2227,-7.37347529489657
-0.22370000000000012,-7.461187395488204
-0.2247,-7.461187395488204
-0.22570000000000012,-7.4173313451923875
-0.2267,-7.329619244600755
-0.22770000000000012,-7.329619244600755
-0.22870000000000001,-7.28576319430494
-0.22970000000000013,-7.243321855308987
-0.23070000000000002,-7.28576319430494
-0.23170000000000013,-7.329619244600755
-0.23270000000000002,-7.4173313451923875
-0.23370000000000013,-7.461187395488204
-0.23470000000000002,-7.5474847847799715
-0.23570000000000013,-7.591340835075788
-0.23670000000000002,-7.591340835075788
-0.2376999999999999,-7.5474847847799715
-0.23870000000000002,-7.50504344578402
-0.2396999999999999,-7.4173313451923875
-0.24070000000000003,-7.37347529489657
-0.24169999999999991,-7.4173313451923875
-0.24270000000000003,-7.37347529489657
-0.24369999999999992,-7.461187395488204
-0.24470000000000003,-7.5474847847799715
-0.24569999999999992,-7.591340835075788
-0.24670000000000003,-7.679052935667419
-0.24769999999999992,-7.679052935667419
-0.24870000000000003,-7.722908985963235
-0.24969999999999992,-7.635196885371603
-0.25070000000000003,-7.5474847847799715
-0.2516999999999999,-7.50504344578402
-0.25270000000000004,-7.4173313451923875
-0.2536999999999999,-7.461187395488204
-0.25470000000000004,-7.461187395488204
-0.2556999999999999,-7.5474847847799715
-0.25670000000000004,-7.591340835075788
-0.25769999999999993,-7.679052935667419
-0.25870000000000004,-7.722908985963235
-0.25969999999999993,-7.722908985963235
-0.26070000000000004,-7.679052935667419
-0.26169999999999993,-7.591340835075788
-0.26270000000000004,-7.5474847847799715
-0.26369999999999993,-7.461187395488204
-0.26470000000000005,-7.4173313451923875
-0.26569999999999994,-7.4173313451923875
-0.26670000000000005,-7.461187395488204
-0.26769999999999994,-7.5474847847799715
-0.26870000000000005,-7.591340835075788
-0.26969999999999994,-7.679052935667419
-0.27070000000000005,-7.679052935667419
-0.27169999999999994,-7.635196885371603
-0.27270000000000005,-7.591340835075788
-0.27369999999999994,-7.50504344578402
-0.27470000000000006,-7.461187395488204
-0.27569999999999995,-7.37347529489657
-0.27670000000000006,-7.37347529489657
-0.27769999999999995,-7.37347529489657
-0.27870000000000006,-7.4173313451923875
-0.27969999999999995,-7.50504344578402
-0.28070000000000006,-7.5474847847799715
-0.28169999999999995,-7.635196885371603
-0.28270000000000006,-7.591340835075788
-0.28369999999999995,-7.591340835075788
-0.28470000000000006,-7.50504344578402
-0.28569999999999995,-7.461187395488204
-0.28670000000000007,-7.37347529489657
-0.28769999999999996,-7.28576319430494
-0.28870000000000007,-7.329619244600755
-0.28969999999999996,-7.329619244600755
-0.29070000000000007,-7.4173313451923875
-0.29169999999999996,-7.461187395488204
-0.29270000000000007,-7.5474847847799715
-0.29369999999999996,-7.635196885371603
-0.2947000000000001,-7.635196885371603
-0.29569999999999996,-7.591340835075788
-0.2967000000000001,-7.5474847847799715
-0.29769999999999996,-7.50504344578402
-0.2987000000000001,-7.461187395488204
-0.29969999999999997,-7.4173313451923875
-0.3007000000000001,-7.461187395488204
-0.30169999999999997,-7.50504344578402
-0.3027000000000001,-7.635196885371603
-0.30369999999999997,-7.722908985963235
-0.3047000000000001,-7.853062425550818
-0.30569999999999997,-7.853062425550818
-0.3067000000000001,-7.896918475846635
-0.3077,-7.896918475846635
-0.3087000000000001,-7.853062425550818
-0.3097,-7.809206375255003
-0.3107000000000001,-7.7653503249591855
-0.3117,-7.853062425550818
-0.3127000000000001,-7.896918475846635
-0.3137,-7.984630576438266
-0.3147000000000001,-8.158640066321666
-0.3157,-8.246352166913299
-0.3167000000000001,-8.376505606500881
-0.3177,-8.4203616567967
-0.3187000000000001,-8.464217707092514
-0.3197,-8.464217707092514
-0.3207000000000001,-8.464217707092514
-0.3217,-8.464217707092514
-0.3227000000000001,-8.464217707092514
-0.3237,-8.55051509638428
-0.3247000000000001,-8.638227196975913
-0.3257,-8.812236686859313
-0.3267000000000001,-8.899948787450944
-0.3277,-9.031516938338395
-0.3287000000000001,-9.205526428221793
-0.3297,-9.24938247851761
-0.3307000000000001,-9.335679867809377
-0.3317,-9.379535918105192
-0.3327000000000001,-9.379535918105192
-0.3337,-9.423391968401008
-0.3347000000000001,-9.467248018696827
-0.3357,-9.59740145828441
-0.3367000000000001,-9.728969609171857
-0.3377,-9.902979099055257
-0.3387000000000001,-10.078403300238522
-0.3397,-10.25241279012192
-0.3407000000000001,-10.42642228000532
-0.3417,-10.514134380596953
-0.3427000000000001,-10.557990430892769
-0.3437,-10.601846481188586
-0.3447000000000001,-10.688143870480351
-0.3457,-10.731999920776168
-0.3467000000000001,-10.863568071663616
-0.3477,-10.993721511251199
-0.3487000000000001,-11.211587051430415
-0.3497,-11.42945259160963
-0.3507000000000001,-11.604876792792895
-0.3517,-11.82274233297211
-0.3527000000000001,-11.996751822855511
-0.3537,-12.12831997374296
-0.3547000000000001,-12.214617363034726
-0.3557,-12.302329463626359
-0.35670000000000013,-12.390041564217992
-0.3577,-12.520195003805576
-0.35870000000000013,-12.694204493688973
-0.3597,-12.869628694872238
-0.36070000000000013,-13.13135028534727
-0.3617,-13.349215825526485
-0.3626999999999999,-13.610937416001518
-0.3637,-13.872659006476551
-0.3646999999999999,-14.002812446064135
-0.3657,-14.175407224647667
-0.3666999999999999,-14.345172580631472
-0.3677,-14.486643710617974
-0.3686999999999999,-14.65640906660178
-0.36970000000000003,-14.826174422585586
-0.3706999999999999,-15.05252823056399
-0.37170000000000003,-15.307176264539699
-0.3726999999999999,-15.618412750510005
-0.37370000000000003,-15.87306078448571
-0.3746999999999999,-16.184297270456018
-0.37570000000000003,-16.438945304431726
-0.3766999999999999,-16.70774045140608
-0.37770000000000004,-16.877505807389888
-0.3786999999999999,-17.018976937376394
-0.37970000000000004,-17.2736249713521
-0.3806999999999999,-17.4433903273359
-0.38170000000000004,-17.71218547431026
-0.38269999999999993,-17.966833508285966
-0.38370000000000004,-18.320511333252224
-0.38469999999999993,-18.674189158218486
-0.38570000000000004,-18.97127853119014
-0.38669999999999993,-19.367397695152352
-0.38770000000000004,-19.678634181122664
-0.38869999999999993,-19.97572355409432
-0.38970000000000005,-20.202077362072725
-0.39069999999999994,-20.499166735044383
-0.39170000000000005,-20.72552054302279
-0.39269999999999994,-20.980168576998494
-0.39370000000000005,-21.333846401964752
-0.39469999999999994,-21.67337711393236
-0.39570000000000005,-22.111937616890522
-0.39669999999999994,-22.508056780852733
-0.39770000000000005,-22.946617283810895
-0.39869999999999994,-23.385177786769056
-0.39970000000000006,-23.724708498736668
-0.40069999999999995,-24.120827662698876
-0.40170000000000006,-24.432064148669184
-0.40269999999999995,-24.771594860636792
-0.40370000000000006,-25.12527268560305
-0.40469999999999995,-25.478950510569312
-0.40570000000000006,-25.91751101352747
-0.40669999999999995,-26.38436574248293
-0.40770000000000006,-26.822926245441096
-0.40869999999999995,-27.34636942639116
-0.40970000000000006,-27.869812607341224
-0.41069999999999995,-28.308373110299385
-0.41170000000000007,-28.789374952253496
-0.41269999999999996,-29.22793545521166
-0.41370000000000007,-29.62405461917387
-0.41469999999999996,-30.10505646112798
-0.41570000000000007,-30.487028512091538
-0.41669999999999996,-30.968030354045652
-0.41770000000000007,-31.49147353499572
-0.41869999999999996,-32.01491671594578
-0.4197000000000001,-32.66568391388369
-0.42069999999999996,-33.231568433829715
-0.4217000000000001,-33.85404140577033
-0.42269999999999996,-34.41992592571634
-0.4237000000000001,-34.98581044566235
-0.42469999999999997,-35.50925362661242
-0.4257000000000001,-36.03269680756248
-0.42669999999999997,-36.5136986495166
-0.4277000000000001,-37.037141830466666
-0.42869999999999997,-37.687909028404576
-0.4297000000000001,-38.253793548350586
-0.43069999999999997,-38.94700208528445
-0.4317000000000001,-39.61191639622103
-0.4327,-40.30512493315489
-0.4337000000000001,-41.04077480908471
-0.4347,-41.70568912002128
-0.4357000000000001,-42.3564563179592
-0.4367,-42.92234083790521
-0.4377000000000001,-43.57310803584313
-0.4387,-44.181433894785094
-0.4397000000000001,-44.88878954471762
-0.4407,-45.581998081651484
-0.4417000000000001,-46.3176479575813
-0.4427,-47.10988628550572
-0.4437000000000001,-47.8879775004315
-0.4447,-48.68021582835591
-0.4457000000000001,-49.41586570428573
-0.4467,-50.20810403221015
-0.4477000000000001,-50.90131256914402
-0.4487,-51.594521106077885
-0.4497000000000001,-52.34431809500636
-0.4507,-53.03752663194023
-0.4517000000000001,-53.82976495986464
-0.4527,-54.60785617479041
-0.4537000000000001,-55.442535841710786
-0.4547,-56.30550973462846
-0.4557000000000001,-57.14018940154883
-0.4567,-58.05975174646111
-0.4577000000000001,-58.880284300382826
-0.4587,-59.7149639673032
-0.4597000000000001,-60.49305518222897
-0.4607,-61.28529351015339
-0.4617000000000001,-62.02094338608321
-0.4627,-62.81318171400764
-0.4637000000000001,-63.6761556069253
-0.4647,-64.51083527384567
-0.4657000000000001,-65.43039761875795
-0.4667,-66.29337151167562
-0.4677000000000001,-67.25537519558385
-0.4687,-68.25982021848802
-0.4697000000000001,-69.13694122440434
-0.4707,-70.01406223032066
-0.4717000000000001,-70.87703612323833
-0.4727,-71.75415712915466
-0.4737000000000001,-72.63127813507097
-0.4747,-73.45181068899271
-0.4757000000000001,-74.37137303390499
-0.4767,-75.29093537881725
-0.4777000000000001,-76.23879194972683
-0.4787,-77.243236972631
-0.4797000000000001,-78.29012333453113
-0.4807,-79.2945683574353
-0.48170000000000013,-80.25657204134353
-0.4827,-81.21857572525175
-0.48370000000000013,-82.13813807016405
-0.4847,-83.04355330207765
-0.48570000000000013,-83.87823296899803
-0.4867,-83.52455514403178
-0.48570000000000013,-81.69957756720586
-0.4847,-80.52536718831789
-0.48370000000000013,-79.52092216541372
-0.4827,-78.60135982050144
-0.48170000000000013,-77.68179747558916
-0.4807,-76.7622351306769
-0.4797000000000001,-75.8992612377592
-0.4787,-74.8523748758591
-0.4777000000000001,-73.8479298529549
-0.4767,-72.84348483005074
-0.4757000000000001,-71.7965984681506
-0.4747,-70.87703612323833
-0.4737000000000001,-69.91503243933012
-0.4727,-69.05205854641244
-0.4717000000000001,-68.13249620150016
-0.4707,-67.25537519558385
-0.4697000000000001,-66.43484264166212
-0.4687,-65.51528029674984
-0.4677000000000001,-64.59571795183757
-0.4667,-63.633714267929356
-0.4657000000000001,-62.64341635802381
-0.4647,-61.72385401311155
-0.4637000000000001,-60.80429166819927
-0.4627,-59.884729323287
-0.4617000000000001,-59.02175543036933
-0.4607,-58.18707576344896
-0.4597000000000001,-57.352396096528594
