Potential V vs RHE, Current mA cm-2
0.013299999999999867,41.30956995605907
0.012299999999999978,39.42800392723857
0.011299999999999866,37.58887923741403
0.010299999999999976,36.01854969456383
0.009299999999999864,34.632132620696105
0.008299999999999974,33.231568433829715
0.007299999999999862,31.661238890979522
0.006299999999999972,30.00602667013743
0.00529999999999986,28.60546248327104
0.0042999999999999705,27.38881076538711
0.0032999999999998586,26.129717708507226
0.0022999999999999687,24.729153521640843
0.0012999999999998568,23.24370665678255
0.00029999999999996696,21.98461359990267
-0.000700000000000145,20.85284456001064
-0.0017000000000000348,19.749369746115914
-0.0027000000000001467,18.40539401124413
-0.0037000000000000366,17.00482982437774
-0.0047000000000001485,15.87306078448571
-0.005700000000000038,14.826174422585586
-0.00670000000000015,13.780702771985322
-0.00770000000000004,12.515950869905978
-0.008700000000000152,11.20734291753082
-0.009700000000000042,10.07274445503906
-0.010700000000000154,9.157426244026382
-0.011700000000000044,8.154395932422071
-0.012700000000000156,6.975941419634496
-0.013700000000000045,5.7111895175551535
-0.014700000000000157,4.664303155655026
-0.015700000000000047,3.7928409949381634
-0.01670000000000016,2.8761080726256196
-0.01770000000000005,1.7429243214337253
-0.01870000000000016,0.5647527509061226
-0.01970000000000005,-0.4384190318281749
-0.020700000000000163,-1.2671569112891135
-0.021700000000000053,-2.1828995356917518
-0.022700000000000164,-3.273641947887695
-0.023700000000000054,-4.406825699079589
-0.024700000000000166,-5.367414671687949
-0.025700000000000056,-6.152579443113044
-0.026700000000000168,-6.981600264833956
-0.027700000000000058,-8.027071915434218
-0.02870000000000017,-9.11781432763016
-0.02970000000000006,-10.034547249942705
-0.03070000000000017,-10.819712021367803
-0.03170000000000006,-11.604876792792895
-0.03270000000000017,-12.607907104397206
-0.03370000000000006,-13.698649516593148
-0.034700000000000175,-14.57152638860988
-0.035700000000000065,-15.307176264539699
-0.03670000000000018,-16.099414592464115
-0.03770000000000007,-17.061418276372343
-0.03870000000000018,-18.10830463827247
-0.03970000000000007,-18.97127853119014
-0.04070000000000018,-19.678634181122664
-0.04170000000000007,-20.414284057052477
-0.04270000000000018,-21.376287740960702
-0.04370000000000007,-22.42317410286083
-0.044700000000000184,-23.24370665678255
-0.045700000000000074,-23.908620967719123
-0.046700000000000186,-24.64427084364894
-0.047700000000000076,-25.563833188561212
-0.04870000000000019,-26.61071955046134
-0.04970000000000008,-27.38881076538711
-0.05070000000000019,-28.05372507632368
-0.05170000000000008,-28.789374952253496
-0.05270000000000019,-29.708937297165768
-0.05370000000000008,-30.71338232006995
-0.05470000000000019,-31.49147353499572
-0.05570000000000008,-32.09979939393769
-0.056700000000000195,-32.807155043870196
-0.057700000000000085,-33.755011614779775
-0.058700000000000196,-34.717015298688004
-0.059700000000000086,-35.50925362661242
-0.0607000000000002,-36.16002082455034
-0.06170000000000009,-36.81078802248826
-0.0627000000000002,-37.73035036740053
-0.06370000000000009,-38.692354051308754
-0.0647000000000002,-39.47044526623452
-0.06570000000000009,-40.135359577171094
-0.0667000000000002,-40.78612677510901
-0.0677000000000001,-41.70568912002128
-0.0687000000000002,-42.6111043519349
-0.0697000000000001,-43.40334267985933
-0.07070000000000021,-44.011668538801295
-0.0717000000000001,-44.66243573673921
-0.07270000000000021,-45.53955674265553
-0.0737000000000001,-46.501560426563756
-0.07470000000000021,-47.27965164148953
-0.0757000000000001,-47.84553616143554
-0.07670000000000021,-48.51045047237211
-0.0777000000000001,-49.373424365289786
-0.07870000000000021,-50.29298671020206
-0.0797000000000001,-51.028636586131874
-0.08070000000000022,-51.594521106077885
-0.0817000000000001,-52.25943541701445
-0.08270000000000022,-53.12240930993213
-0.08370000000000011,-54.08441299384035
-0.08470000000000022,-54.876651321764776
-0.08570000000000011,-55.400094502714836
-0.08670000000000022,-56.05086170065276
-0.08770000000000011,-56.97042404556503
-0.08870000000000022,-57.974869068469204
-0.08970000000000011,-58.71051894439902
-0.09070000000000022,-59.19152078635314
-0.09170000000000011,-59.7998466452951
-0.09270000000000023,-60.63452631221547
-0.09370000000000012,-61.6814126741156
-0.09470000000000023,-62.544386567033264
-0.09570000000000012,-63.11027108697928
-0.09670000000000023,-63.633714267929356
-0.09770000000000012,-64.38351125685783
-0.09870000000000023,-65.34551494076604
-0.09970000000000012,-66.12360615569182
-0.10070000000000023,-66.77437335362974
-0.10170000000000012,-67.43928766456631
-0.10270000000000024,-68.34470289647993
-0.10370000000000013,-69.26426524139221
-0.10470000000000024,-70.01406223032066
-0.10570000000000013,-70.57994675026669
-0.10670000000000024,-71.2307139482046
-0.10770000000000013,-72.05124650212633
-0.10870000000000024,-72.97080884703858
-0.10970000000000013,-73.80548851395896
-0.11070000000000024,-74.41381437290093
-0.11170000000000013,-75.14946424883075
-0.11270000000000002,-76.02658525474708
-0.11370000000000013,-77.03103027765125
-0.11470000000000002,-77.7242388145851
-0.11570000000000014,-78.33256467352709
-0.11670000000000003,-78.99747898446365
-0.11770000000000014,-79.86045287738132
-0.11870000000000003,-80.86489790028548
-0.11970000000000014,-81.61469488921396
-0.12070000000000003,-82.18057940915998
-0.12170000000000014,-82.78890526810196
-0.12270000000000003,-83.70846761301424
-0.12370000000000014,-84.75535397491434
-0.12470000000000003,-85.57588652883607
-0.12570000000000014,-86.09932970978613
-0.12670000000000003,-86.66521422973216
-0.12770000000000015,-87.49989389665252
-0.12870000000000004,-88.46189758056073
-0.12970000000000015,-89.28243013448247
-0.13070000000000004,-89.89075599342443
-0.13170000000000015,-90.55567030436099
-0.13270000000000004,-91.37620285828272
-0.13370000000000015,-92.29576520319499
-0.13470000000000004,-93.08800353111941
-0.13570000000000015,-93.65388805106544
-0.13670000000000004,-94.30465524900335
-0.13770000000000016,-95.26665893291157
-0.13870000000000005,-96.17207416482519
-0.13970000000000016,-96.92187115375367
-0.14070000000000005,-97.53019701269562
-0.14170000000000016,-98.2234055496295
-0.14270000000000005,-99.10052655554581
-0.14370000000000016,-99.97764756146215
-0.14470000000000005,-100.58597342040412
-0.14570000000000016,-101.19429927934607
-0.14670000000000005,-101.97239049427183
-0.14770000000000016,-103.01927685617197
-0.14870000000000005,-103.98128054008019
-0.14970000000000017,-104.73107752900866
-0.15070000000000006,-105.33940338795064
-0.15170000000000017,-105.99017058588855
-0.15270000000000006,-106.82485025280893
-0.15370000000000017,-107.73026548472255
-0.15470000000000006,-108.56494515164292
-0.15570000000000017,-109.21571234958083
-0.15670000000000006,-109.8806266605174
-0.15770000000000017,-110.82848323142699
-0.15870000000000006,-111.83292825433115
-0.15970000000000018,-112.66760792125153
-0.16070000000000007,-113.27593378019348
-0.16170000000000018,-113.92670097813141
-0.16270000000000007,-114.80382198404773
-0.16370000000000018,-115.85070834594785
-0.16470000000000007,-116.67124089986959
-0.16570000000000018,-117.29371387181018
-0.16670000000000007,-117.98692240874406
-0.16770000000000018,-118.86404341466037
-0.16870000000000007,-119.86848843756455
-0.16970000000000018,-120.64657965249035
-0.17070000000000007,-121.21246417243634
-0.17170000000000019,-121.90567270937021
-0.17270000000000008,-122.78279371528653
-0.1737000000000002,-123.70235606019881
-0.17470000000000008,-124.43800593612862
-0.1757000000000002,-125.14536158606113
-0.17670000000000008,-125.92345280098691
-0.1777000000000002,-126.84301514589919
-0.17870000000000008,-127.66354769982091
-0.1797000000000002,-128.37090334975343
-0.18070000000000008,-128.9792292086954
-0.1817000000000002,-129.75732042362114
-0.18270000000000008,-130.76176544652535
-0.1837000000000002,-131.68132779143764
-0.1847000000000001,-132.37453632837148
-0.1857000000000002,-133.12433331729994
-0.1867000000000001,-133.90242453222572
-0.1877000000000002,-134.73710419914607
-0.1887000000000001,-135.6142252050624
-0.1897000000000002,-136.43475775898415
-0.1907000000000001,-137.04308361792607
-0.1917000000000001,-137.79288060685457
-0.19269999999999998,-138.88220830775063
-0.1937000000000001,-139.9290946696508
-0.19469999999999998,-140.66474454558062
-0.1957000000000001,-141.14574638753473
-0.19669999999999999,-141.75407224647665
-0.1977000000000001,-142.7443701563822
-0.1987,-143.87613919627424
-0.1997000000000001,-144.72496597619326
-0.2007,-145.29085049613926
-0.2017000000000001,-145.9982061460718
-0.2027,-146.9885040559773
-0.2037000000000001,-147.97880196588284
-0.2047,-148.82762874580186
-0.2057000000000001,-149.53498439573437
-0.2067,-150.24234004566688
-0.2077000000000001,-151.23263795557244
-0.2087,-152.22293586547795
-0.2097000000000001,-153.21323377538346
-0.2107,-153.77911829532948
-0.2117000000000001,-154.3450028152755
-0.2127,-155.33530072518104
-0.2137000000000001,-156.46706976507306
-0.2147,-157.45736767497857
-0.2157000000000001,-158.1647233249111
-0.2167,-158.87207897484362
-0.21770000000000012,-159.72090575476264
-0.2187,-160.71120366466818
-0.21970000000000012,-161.5600304445872
-0.2207,-162.2673860945197
-0.22170000000000012,-162.97474174445222
-0.2227,-163.96503965435775
-0.22370000000000012,-164.9553375642633
-0.2247,-165.8041643441823
-0.22570000000000012,-166.3700488641283
-0.2267,-167.07740451406085
-0.22770000000000012,-167.78476016399335
-0.22870000000000001,-168.77505807389886
-0.22970000000000013,-169.7653559838044
-0.23070000000000002,-170.33124050375042
-0.23170000000000013,-171.03859615368293
-0.23270000000000002,-172.0288940635885
-0.23370000000000013,-173.302134233467
-0.23470000000000002,-174.2924321433725
-0.23570000000000013,-174.99978779330505
-0.23670000000000002,-175.56567231325104
-0.2376999999999999,-176.27302796318358
-0.23870000000000002,-177.54626813306209
-0.2396999999999999,-178.81950830294062
-0.24070000000000003,-179.66833508285964
-0.24169999999999991,-180.37569073279218
-0.24270000000000003,-181.08304638272472
-0.24369999999999992,-181.93187316264374
-0.24470000000000003,-182.92217107254925
-0.24569999999999992,-183.77099785246824
-0.24670000000000003,-184.7612957623738
-0.24769999999999992,-185.7515936722793
-0.24870000000000003,-186.88336271217133
-0.24969999999999992,-187.59071836210387
-0.25070000000000003,-188.4395451420229
-0.2516999999999999,-189.2883719219419
-0.25270000000000004,-190.27866983184742
-0.2536999999999999,-191.41043887173947
-0.25470000000000004,-192.11779452167198
-0.2556999999999999,-192.966621301591
-0.25670000000000004,-193.81544808151003
-0.25769999999999993,-194.80574599141553
-0.25870000000000004,-195.93751503130758
-0.25969999999999993,-196.7863418112266
-0.26070000000000004,-197.35222633117263
-0.26169999999999993,-198.05958198110514
-0.26270000000000004,-199.04987989101065
-0.26369999999999993,-200.18164893090267
-0.26470000000000005,-201.03047571082172
-0.26569999999999994,-201.59636023076774
-0.26670000000000005,-202.30371588070025
-0.26769999999999994,-203.43548492059227
-0.26870000000000005,-204.42578283049778
-0.26969999999999994,-205.41608074040332
-0.27070000000000005,-205.98196526034934
-0.27169999999999994,-206.68932091028185
-0.27270000000000005,-207.5381476902009
-0.27369999999999994,-208.6699167300929
-0.27470000000000006,-209.51874351001192
-0.27569999999999995,-210.08462802995794
-0.27670000000000006,-210.79198367989048
-0.27769999999999995,-211.782281589796
-0.27870000000000006,-212.914050629688
-0.27969999999999995,-213.62140627962054
-0.28070000000000006,-214.18729079956654
-0.28169999999999995,-214.75317531951256
-0.28270000000000006,-215.88494435940459
-0.28369999999999995,-217.29965565926966
-0.28470000000000006,-218.28995356917517
-0.28569999999999995,-218.85583808912116
-0.28670000000000007,-219.42172260906716
-0.28769999999999996,-220.41202051897272
-0.28870000000000007,-221.68526068885126
-0.28969999999999996,-222.81702972874328
-0.29070000000000007,-223.52438537867582
-0.29169999999999996,-224.2317410286083
-0.29270000000000007,-225.08056780852735
-0.29369999999999996,-226.07086571843288
-0.2947000000000001,-227.2026347583249
-0.29569999999999996,-228.33440379821695
-0.2967000000000001,-229.46617283810895
-0.29769999999999996,-230.17352848804146
-0.2987000000000001,-231.163826397947
-0.29969999999999997,-232.29559543783904
-0.3007000000000001,-233.28589334774458
-0.30169999999999997,-233.99324899767706
-0.3027000000000001,-235.40796029754208
-0.30369999999999997,-236.96414272739366
-0.3047000000000001,-238.2373828972722
-0.30569999999999997,-238.8032674172182
-0.3067000000000001,-239.0862096771912
-0.3077,-239.7935653271237
-0.3087000000000001,-240.78386323702924
-0.3097,-241.77416114693477
-0.3107000000000001,-242.62298792685377
-0.3117,-243.18887244679982
-0.3127000000000001,-243.8962280967323
-0.3137,-245.16946826661086
-0.3147000000000001,-246.15976617651637
-0.3157,-246.5841795664759
-0.3167000000000001,-247.0085929564354
-0.3177,-247.85741973635444
-0.3187000000000001,-249.2721310362195
-0.3197,-250.4039000761115
-0.3207000000000001,-251.25272685603056
-0.3217,-251.96008250596302
-0.3227000000000001,-253.23332267584152
-0.3237,-254.64803397570657
-0.3247000000000001,-255.63833188561213
-0.3257,-256.20421640555816
-0.3267000000000001,-256.91157205549064
-0.3277,-257.90186996539614
-0.3287000000000001,-259.0336390052882
-0.3297,-260.16540804518024
-0.3307000000000001,-261.01423482509927
-0.3317,-261.7215904750318
-0.3327000000000001,-262.7118883849373
-0.3337,-263.98512855481584
-0.3347000000000001,-264.9754264647214
-0.3357,-265.6827821146539
-0.3367000000000001,-266.5316088945729
-0.3377,-267.6633779344649
-0.3387000000000001,-268.79514697435695
-0.3397,-269.78544488426246
-0.3407000000000001,-270.63427166418154
-0.3417,-271.05868505414105
-0.3427000000000001,-272.04898296404656
-0.3437,-273.60516539389806
-0.3447000000000001,-275.30281895373616
-0.3457,-276.29311686364167
-0.3467000000000001,-276.7175302536012
-0.3477,-277.1419436435607
-0.3487000000000001,-277.9907704234797
-0.3497,-278.8395972033987
-0.3507000000000001,-280.25430850326376
-0.3517,-281.52754867314235
-0.3527000000000001,-282.51784658304786
-0.3537,-283.5081444929533
-0.3547000000000001,-284.2155001428859
-0.3557,-284.9228557928184
-0.35670000000000013,-285.9131537027239
-0.3577,-287.1863938726024
-0.35870000000000013,-288.45963404248096
-0.3597,-289.4499319523865
-0.36070000000000013,-290.157287602319
-0.3617,-291.0061143822381
-0.3626999999999999,-291.9964122921436
-0.3637,-293.26965246202207
-0.3646999999999999,-294.2599503719276
-0.3657,-294.96730602186017
-0.3666999999999999,-295.9576039317657
-0.3677,-297.0893729716577
-0.3686999999999999,-298.3626131415362
-0.36970000000000003,-299.3529110514418
-0.3706999999999999,-300.06026670137425
-0.37170000000000003,-301.0505646112798
-0.3726999999999999,-302.18233365117186
-0.37370000000000003,-303.4555738210504
-0.3746999999999999,-304.1629294709828
-0.37570000000000003,-304.72881399092887
-0.3766999999999999,-305.57764077084795
-0.37770000000000004,-306.8508809407265
-0.3786999999999999,-308.124121110605
-0.37970000000000004,-309.1144190205105
-0.3806999999999999,-309.6803035404565
-0.38170000000000004,-310.2461880604026
-0.38269999999999993,-311.2364859703081
-0.38370000000000004,-312.36825501020013
-0.38469999999999993,-313.35855292010564
-0.38570000000000004,-314.0659085700381
-0.38669999999999993,-313.5000240500921
-0.38570000000000004,-310.81207258034857
-0.38469999999999993,-308.2655922405915
-0.38370000000000004,-305.8605830308209
-0.38269999999999993,-303.0311604310908
-0.38170000000000004,-300.48468009133376
-0.3806999999999999,-297.9381997515767
-0.37970000000000004,-295.53319054180616
-0.3786999999999999,-293.1281813320356
-0.37770000000000004,-290.723172122265
-0.3766999999999999,-288.45963404248096
-0.37570000000000003,-286.33756709268346
-0.3746999999999999,-284.2155001428859
-0.37370000000000003,-281.9519620631018
-0.3726999999999999,-279.5469528533313
-0.37170000000000003,-277.1419436435607
-0.3706999999999999,-275.0198766937631
-0.36970000000000003,-272.8978097439656
-0.3686999999999999,-270.49280053419506
-0.3677,-268.0877913244245
-0.3666999999999999,-265.82425324464043
-0.3657,-263.98512855481584
-0.3646999999999999,-262.1460038649913
-0.3637,-259.7409946552208
-0.3626999999999999,-257.33598544545015
-0.3617,-254.93097623567962
-0.36070000000000013,-253.09185154585506
-0.3597,-251.111255726044
-0.35870000000000013,-248.84771764625998
-0.3577,-246.7256506964624
-0.35670000000000013,-244.46211261667833
-0.3557,-242.48151679686728
-0.3547000000000001,-240.64239210704275
-0.3537,-238.5203251572452
-0.3527000000000001,-236.1153159474746
-0.3517,-233.85177786769057
-0.3507000000000001,-232.01265317786604
-0.3497,-230.03205735805497
-0.3487000000000001,-227.7685192782709
-0.3477,-225.50498119848683
-0.3467000000000001,-223.2414431187028
-0.3457,-221.26084729889175
-0.3447000000000001,-219.5631937390537
-0.3437,-217.58259791924263
-0.3427000000000001,-215.17758870947208
-0.3417,-212.914050629688
-0.3407000000000001,-211.07492593986345
-0.3397,-209.37727238002543
-0.3387000000000001,-207.25520543022787
-0.3377,-205.13313848043032
-0.3367000000000001,-203.01107153063276
-0.3357,-201.17194684080823
-0.3347000000000001,-199.33282215098367
-0.3337,-197.49369746115914
-0.3327000000000001,-195.37163051136156
-0.3317,-193.249563561564
-0.3307000000000001,-191.41043887173947
-0.3297,-189.71278531190143
-0.3287000000000001,-187.73218949209036
-0.3277,-185.6101225422928
-0.3267000000000001,-183.48805559249527
-0.3257,-181.64893090267074
-0.3247000000000001,-180.09274847281918
-0.3237,-178.1121526530081
-0.3227000000000001,-176.13155683319707
-0.3217,-174.0094898833995
-0.3207000000000001,-172.17036519357498
-0.3197,-170.61418276372342
-0.3187000000000001,-168.77505807389886
-0.3177,-166.65299112410133
-0.3167000000000001,-164.81386643427678
-0.3157,-162.97474174445222
-0.3147000000000001,-161.1356170546277
-0.3137,-159.29649236480313
-0.3127000000000001,-157.45736767497857
-0.3117,-155.61824298515404
-0.3107000000000001,-153.77911829532948
-0.3097,-152.22293586547795
-0.3087000000000001,-150.38381117565342
-0.3077,-148.40321535584232
-0.3067000000000001,-146.5640906660178
-0.30569999999999997,-144.86643710617977
-0.3047000000000001,-143.3102546763282
-0.30369999999999997,-141.47112998650366
-0.3027000000000001,-139.57541684468453
-0.30169999999999997,-137.75043926785864
-0.3007000000000001,-136.13766838601245
-0.29969999999999997,-134.46830905217172
-0.2987000000000001,-132.6857728143418
-0.29769999999999996,-130.8042067855213
-0.2967000000000001,-129.02167054769134
-0.29569999999999996,-127.4088996658452
-0.2947000000000001,-125.88101146199097
-0.29369999999999996,-124.18335790215292
-0.29270000000000007,-122.34423321232836
-0.29169999999999996,-120.56169697449842
-0.29070000000000007,-118.90648475365633
-0.28969999999999996,-117.33615521080614
-0.28870000000000007,-115.72338432896
-0.28769999999999996,-113.92670097813141
-0.28670000000000007,-112.14416474030146
-0.28569999999999995,-110.57383519745127
-0.28470000000000006,-109.04594699359701
-0.28369999999999995,-107.4331761117509
-0.28270000000000006,-105.69308121291688
-0.28169999999999995,-104.02372187907615
-0.28070000000000006,-102.4958336752219
-0.27969999999999995,-101.06697526235823
-0.27870000000000006,-99.35517458952152
-0.27769999999999995,-97.6575210296835
-0.27670000000000006,-96.00230880884139
-0.27569999999999995,-94.5168619439831
-0.27470000000000006,-92.98897374012887
-0.27369999999999994,-91.29132018029082
-0.27270000000000005,-89.50878394246087
-0.27169999999999994,-87.79698326962418
-0.27070000000000005,-86.28324217876859
-0.26969999999999994,-84.8826779919022
-0.26870000000000005,-83.35478978804795
-0.26769999999999994,-81.65713622820991
