Apr. 7, 2025   22:48:37
Cyclic Voltammetry
File: c:/users/guazh/data/banditlqround7_x0exp994_r5/2025-03-28-exp1013\exp1013-2025-04-07t22_34_15-h2koh\exp1013_cv_sr_300mvs_efin_-1600mv.bin
Data Source:  Experiment
Instrument Model:  CHI760E
Header: CV ran at 300 mVs
Note: 

Init E (V) = -1
High E (V) = -1
Low E (V) = -1.6
Final E (V) = -1
Init P/N = N
Scan Rate (V/s) = 0.3
Segment = 3
Sample Interval (V) = 0.001
Quiet Time (sec) = 2
Sensitivity (A/V) = 0.01
Comp R (ohm) = 2.0

Results:

Channel 1:
Segment 1:

Segment 2:

Segment 3:

Potential/V, Current/A

-1.000, 1.559e-7
-1.001, 3.239e-6
-1.002, 3.239e-6
-1.003, 3.239e-6
-1.004, 3.239e-6
-1.005, 3.239e-6
-1.006, 3.239e-6
-1.007, 3.239e-6
-1.008, 3.239e-6
-1.009, 3.239e-6
-1.010, 3.239e-6
-1.011, 3.239e-6
-1.012, 3.239e-6
-1.013, 3.239e-6
-1.014, 3.239e-6
-1.015, 3.239e-6
-1.016, 3.239e-6
-1.017, 3.239e-6
-1.018, 3.239e-6
-1.019, 3.239e-6
-1.020, 6.322e-6
-1.021, 6.322e-6
-1.022, 6.322e-6
-1.023, 3.239e-6
-1.024, 6.322e-6
-1.025, 6.322e-6
-1.026, 3.239e-6
-1.027, 6.322e-6
-1.028, 3.239e-6
-1.029, 6.322e-6
-1.030, 6.322e-6
-1.031, 6.322e-6
-1.032, 6.322e-6
-1.033, 6.322e-6
-1.034, 6.322e-6
-1.035, 6.322e-6
-1.036, 6.322e-6
-1.037, 6.322e-6
-1.038, 6.322e-6
-1.039, 6.322e-6
-1.040, 6.322e-6
-1.041, 6.322e-6
-1.042, 6.322e-6
-1.043, 6.322e-6
-1.044, 6.322e-6
-1.045, 6.322e-6
-1.046, 6.322e-6
-1.047, 6.322e-6
-1.048, 6.322e-6
-1.049, 6.322e-6
-1.050, 6.322e-6
-1.051, 6.322e-6
-1.052, 6.322e-6
-1.053, 6.322e-6
-1.054, 6.322e-6
-1.055, 6.322e-6
-1.056, 6.322e-6
-1.057, 6.322e-6
-1.058, 6.322e-6
-1.059, 6.322e-6
-1.060, 6.322e-6
-1.061, 6.322e-6
-1.062, 6.322e-6
-1.063, 6.322e-6
-1.064, 6.322e-6
-1.065, 6.322e-6
-1.066, 6.322e-6
-1.067, 6.322e-6
-1.068, 6.322e-6
-1.069, 6.322e-6
-1.070, 6.322e-6
-1.071, 6.322e-6
-1.072, 9.405e-6
-1.073, 6.322e-6
-1.074, 9.405e-6
-1.075, 6.322e-6
-1.076, 6.322e-6
-1.077, 9.405e-6
-1.078, 6.322e-6
-1.079, 6.322e-6
-1.080, 6.322e-6
-1.081, 6.322e-6
-1.082, 6.322e-6
-1.083, 9.405e-6
-1.084, 6.322e-6
-1.085, 6.322e-6
-1.086, 6.322e-6
-1.087, 9.405e-6
-1.088, 9.405e-6
-1.089, 9.405e-6
-1.090, 9.405e-6
-1.091, 9.405e-6
-1.092, 9.405e-6
-1.093, 9.405e-6
-1.094, 6.322e-6
-1.095, 6.322e-6
-1.096, 9.405e-6
-1.097, 9.405e-6
-1.098, 9.405e-6
-1.099, 9.405e-6
-1.100, 9.405e-6
-1.101, 9.405e-6
-1.102, 9.405e-6
-1.103, 6.322e-6
-1.104, 9.405e-6
-1.105, 9.405e-6
-1.106, 9.405e-6
-1.107, 9.405e-6
-1.108, 9.405e-6
-1.109, 9.405e-6
-1.110, 9.405e-6
-1.111, 9.405e-6
-1.112, 9.405e-6
-1.113, 9.405e-6
-1.114, 9.405e-6
-1.115, 9.405e-6
-1.116, 9.405e-6
-1.117, 9.405e-6
-1.118, 9.405e-6
-1.119, 9.405e-6
-1.120, 9.405e-6
-1.121, 9.405e-6
-1.122, 9.405e-6
-1.123, 9.405e-6
-1.124, 9.405e-6
-1.125, 9.405e-6
-1.126, 9.405e-6
-1.127, 9.405e-6
-1.128, 9.405e-6
-1.129, 9.405e-6
-1.130, 9.405e-6
-1.131, 9.405e-6
-1.132, 9.405e-6
-1.133, 9.405e-6
-1.134, 9.405e-6
-1.135, 9.405e-6
-1.136, 9.405e-6
-1.137, 9.405e-6
-1.138, 9.405e-6
-1.139, 9.405e-6
-1.140, 9.405e-6
-1.141, 9.405e-6
-1.142, 9.405e-6
-1.143, 9.405e-6
-1.144, 9.405e-6
-1.145, 9.405e-6
-1.146, 9.405e-6
-1.147, 9.405e-6
-1.148, 9.405e-6
-1.149, 9.405e-6
-1.150, 9.405e-6
-1.151, 9.405e-6
-1.152, 9.405e-6
-1.153, 9.405e-6
-1.154, 9.405e-6
-1.155, 9.405e-6
-1.156, 9.405e-6
-1.157, 9.405e-6
-1.158, 9.405e-6
-1.159, 9.405e-6
-1.160, 9.405e-6
-1.161, 9.405e-6
-1.162, 1.249e-5
-1.163, 9.405e-6
-1.164, 1.249e-5
-1.165, 1.249e-5
-1.166, 1.249e-5
-1.167, 1.249e-5
-1.168, 9.405e-6
-1.169, 9.405e-6
-1.170, 9.405e-6
-1.171, 9.405e-6
-1.172, 1.249e-5
-1.173, 1.249e-5
-1.174, 1.249e-5
-1.175, 1.249e-5
-1.176, 1.249e-5
-1.177, 1.249e-5
-1.178, 1.249e-5
-1.179, 1.249e-5
-1.180, 9.405e-6
-1.181, 1.249e-5
-1.182, 1.249e-5
-1.183, 1.249e-5
-1.184, 1.249e-5
-1.185, 1.249e-5
-1.186, 1.249e-5
-1.187, 1.249e-5
-1.188, 1.249e-5
-1.189, 1.249e-5
-1.190, 1.249e-5
-1.191, 1.249e-5
-1.192, 1.249e-5
-1.193, 1.249e-5
-1.194, 1.249e-5
-1.195, 1.249e-5
-1.196, 1.249e-5
-1.197, 1.249e-5
-1.198, 1.249e-5
-1.199, 1.249e-5
-1.200, 1.249e-5
-1.201, 1.249e-5
-1.202, 1.249e-5
-1.203, 1.249e-5
-1.204, 1.249e-5
-1.205, 1.249e-5
-1.206, 1.249e-5
-1.207, 1.249e-5
-1.208, 1.249e-5
-1.209, 1.249e-5
-1.210, 1.249e-5
-1.211, 1.249e-5
-1.212, 1.249e-5
-1.213, 1.249e-5
-1.214, 1.249e-5
-1.215, 1.249e-5
-1.216, 1.249e-5
-1.217, 1.249e-5
-1.218, 1.249e-5
-1.219, 1.249e-5
-1.220, 1.249e-5
-1.221, 1.249e-5
-1.222, 1.249e-5
-1.223, 1.249e-5
-1.224, 1.249e-5
-1.225, 1.249e-5
-1.226, 1.249e-5
-1.227, 1.249e-5
-1.228, 1.249e-5
-1.229, 1.249e-5
-1.230, 1.249e-5
-1.231, 1.249e-5
-1.232, 1.249e-5
-1.233, 1.249e-5
-1.234, 1.249e-5
-1.235, 1.249e-5
-1.236, 1.249e-5
-1.237, 1.249e-5
-1.238, 1.249e-5
-1.239, 1.249e-5
-1.240, 1.249e-5
-1.241, 1.249e-5
-1.242, 1.249e-5
-1.243, 1.249e-5
-1.244, 1.249e-5
-1.245, 1.557e-5
-1.246, 1.249e-5
-1.247, 1.557e-5
-1.248, 1.249e-5
-1.249, 1.249e-5
-1.250, 1.557e-5
-1.251, 1.249e-5
-1.252, 1.249e-5
-1.253, 1.249e-5
-1.254, 1.249e-5
-1.255, 1.249e-5
-1.256, 1.557e-5
-1.257, 1.249e-5
-1.258, 1.557e-5
-1.259, 1.557e-5
-1.260, 1.249e-5
-1.261, 1.249e-5
-1.262, 1.557e-5
-1.263, 1.249e-5
-1.264, 1.557e-5
-1.265, 1.249e-5
-1.266, 1.249e-5
-1.267, 1.557e-5
-1.268, 1.557e-5
-1.269, 1.557e-5
-1.270, 1.249e-5
-1.271, 1.557e-5
-1.272, 1.557e-5
-1.273, 1.557e-5
-1.274, 1.557e-5
-1.275, 1.557e-5
-1.276, 1.249e-5
-1.277, 1.557e-5
-1.278, 1.557e-5
-1.279, 1.557e-5
-1.280, 1.557e-5
-1.281, 1.557e-5
-1.282, 1.557e-5
-1.283, 1.557e-5
-1.284, 1.557e-5
-1.285, 1.557e-5
-1.286, 1.557e-5
-1.287, 1.557e-5
-1.288, 1.557e-5
-1.289, 1.557e-5
-1.290, 1.557e-5
-1.291, 1.557e-5
-1.292, 1.557e-5
-1.293, 1.557e-5
-1.294, 1.865e-5
-1.295, 1.557e-5
-1.296, 1.865e-5
-1.297, 1.557e-5
-1.298, 1.557e-5
-1.299, 1.865e-5
-1.300, 1.865e-5
-1.301, 1.865e-5
-1.302, 1.865e-5
-1.303, 1.865e-5
-1.304, 1.865e-5
-1.305, 1.865e-5
-1.306, 1.865e-5
-1.307, 1.865e-5
-1.308, 1.865e-5
-1.309, 1.865e-5
-1.310, 1.865e-5
-1.311, 1.865e-5
-1.312, 1.865e-5
-1.313, 1.865e-5
-1.314, 2.174e-5
-1.315, 1.865e-5
-1.316, 1.865e-5
-1.317, 2.174e-5
-1.318, 2.174e-5
-1.319, 2.174e-5
-1.320, 2.174e-5
-1.321, 2.174e-5
-1.322, 2.482e-5
-1.323, 2.482e-5
-1.324, 2.482e-5
-1.325, 2.482e-5
-1.326, 2.482e-5
-1.327, 2.482e-5
-1.328, 2.482e-5
-1.329, 2.482e-5
-1.330, 2.790e-5
-1.331, 2.790e-5
-1.332, 2.790e-5
-1.333, 2.790e-5
-1.334, 2.790e-5
-1.335, 3.099e-5
-1.336, 3.099e-5
-1.337, 3.099e-5
-1.338, 3.099e-5
-1.339, 3.099e-5
-1.340, 3.407e-5
-1.341, 3.407e-5
-1.342, 3.407e-5
-1.343, 3.407e-5
-1.344, 3.715e-5
-1.345, 3.715e-5
-1.346, 3.715e-5
-1.347, 4.024e-5
-1.348, 4.024e-5
-1.349, 4.024e-5
-1.350, 4.024e-5
-1.351, 4.332e-5
-1.352, 4.332e-5
-1.353, 4.640e-5
-1.354, 4.640e-5
-1.355, 4.640e-5
-1.356, 4.949e-5
-1.357, 4.949e-5
-1.358, 5.257e-5
-1.359, 5.257e-5
-1.360, 5.565e-5
-1.361, 5.565e-5
-1.362, 5.873e-5
-1.363, 5.873e-5
-1.364, 6.182e-5
-1.365, 6.490e-5
-1.366, 6.490e-5
-1.367, 6.798e-5
-1.368, 7.107e-5
-1.369, 7.415e-5
-1.370, 7.415e-5
-1.371, 7.723e-5
-1.372, 8.032e-5
-1.373, 8.340e-5
-1.374, 8.340e-5
-1.375, 8.648e-5
-1.376, 8.957e-5
-1.377, 9.265e-5
-1.378, 9.573e-5
-1.379, 1.019e-4
-1.380, 1.050e-4
-1.381, 1.081e-4
-1.382, 1.111e-4
-1.383, 1.142e-4
-1.384, 1.204e-4
-1.385, 1.235e-4
-1.386, 1.266e-4
-1.387, 1.327e-4
-1.388, 1.358e-4
-1.389, 1.420e-4
-1.390, 1.481e-4
-1.391, 1.512e-4
-1.392, 1.574e-4
-1.393, 1.636e-4
-1.394, 1.697e-4
-1.395, 1.759e-4
-1.396, 1.790e-4
-1.397, 1.882e-4
-1.398, 1.944e-4
-1.399, 2.006e-4
-1.400, 2.067e-4
-1.401, 2.160e-4
-1.402, 2.221e-4
-1.403, 2.283e-4
-1.404, 2.376e-4
-1.405, 2.468e-4
-1.406, 2.530e-4
-1.407, 2.622e-4
-1.408, 2.715e-4
-1.409, 2.807e-4
-1.410, 2.900e-4
-1.411, 2.992e-4
-1.412, 3.085e-4
-1.413, 3.208e-4
-1.414, 3.331e-4
-1.415, 3.424e-4
-1.416, 3.547e-4
-1.417, 3.670e-4
-1.418, 3.794e-4
-1.419, 3.917e-4
-1.420, 4.040e-4
-1.421, 4.164e-4
-1.422, 4.287e-4
-1.423, 4.410e-4
-1.424, 4.565e-4
-1.425, 4.688e-4
-1.426, 4.873e-4
-1.427, 5.027e-4
-1.428, 5.181e-4
-1.429, 5.335e-4
-1.430, 5.489e-4
-1.431, 5.644e-4
-1.432, 5.829e-4
-1.433, 5.983e-4
-1.434, 6.168e-4
-1.435, 6.322e-4
-1.436, 6.507e-4
-1.437, 6.692e-4
-1.438, 6.877e-4
-1.439, 7.093e-4
-1.440, 7.278e-4
-1.441, 7.494e-4
-1.442, 7.709e-4
-1.443, 7.956e-4
-1.444, 8.203e-4
-1.445, 8.449e-4
-1.446, 8.696e-4
-1.447, 8.973e-4
-1.448, 9.220e-4
-1.449, 9.467e-4
-1.450, 9.713e-4
-1.451, 9.960e-4
-1.452, 1.021e-3
-1.453, 1.045e-3
-1.454, 1.073e-3
-1.455, 1.101e-3
-1.456, 1.125e-3
-1.457, 1.153e-3
-1.458, 1.181e-3
-1.459, 1.209e-3
-1.460, 1.240e-3
-1.461, 1.270e-3
-1.462, 1.301e-3
-1.463, 1.335e-3
-1.464, 1.369e-3
-1.465, 1.403e-3
-1.466, 1.437e-3
-1.467, 1.471e-3
-1.468, 1.508e-3
-1.469, 1.539e-3
-1.470, 1.569e-3
-1.471, 1.603e-3
-1.472, 1.643e-3
-1.473, 1.677e-3
-1.474, 1.711e-3
-1.475, 1.745e-3
-1.476, 1.779e-3
-1.477, 1.813e-3
-1.478, 1.844e-3
-1.479, 1.878e-3
-1.480, 1.909e-3
-1.481, 1.939e-3
-1.482, 1.973e-3
-1.483, 1.995e-3
-1.484, 2.004e-3
-1.485, 2.010e-3
-1.486, 2.026e-3
-1.487, 2.066e-3
-1.488, 2.121e-3
-1.489, 2.186e-3
-1.490, 2.251e-3
-1.491, 2.312e-3
-1.492, 2.368e-3
-1.493, 2.417e-3
-1.494, 2.464e-3
-1.495, 2.510e-3
-1.496, 2.556e-3
-1.497, 2.605e-3
-1.498, 2.661e-3
-1.499, 2.713e-3
-1.500, 2.766e-3
-1.501, 2.818e-3
-1.502, 2.877e-3
-1.503, 2.932e-3
-1.504, 2.991e-3
-1.505, 3.056e-3
-1.506, 3.126e-3
-1.507, 3.197e-3
-1.508, 3.265e-3
-1.509, 3.327e-3
-1.510, 3.382e-3
-1.511, 3.435e-3
-1.512, 3.487e-3
-1.513, 3.536e-3
-1.514, 3.583e-3
-1.515, 3.632e-3
-1.516, 3.684e-3
-1.517, 3.740e-3
-1.518, 3.799e-3
-1.519, 3.857e-3
-1.520, 3.913e-3
-1.521, 3.968e-3
-1.522, 4.024e-3
-1.523, 4.076e-3
-1.524, 4.128e-3
-1.525, 4.184e-3
-1.526, 4.239e-3
-1.527, 4.301e-3
-1.528, 4.363e-3
-1.529, 4.434e-3
-1.530, 4.501e-3
-1.531, 4.575e-3
-1.532, 4.646e-3
-1.533, 4.717e-3
-1.534, 4.773e-3
-1.535, 4.813e-3
-1.536, 4.838e-3
-1.537, 4.865e-3
-1.538, 4.915e-3
-1.539, 4.970e-3
-1.540, 5.001e-3
-1.541, 5.035e-3
-1.542, 5.103e-3
-1.543, 5.174e-3
-1.544, 5.220e-3
-1.545, 5.260e-3
-1.546, 5.306e-3
-1.547, 5.362e-3
-1.548, 5.426e-3
-1.549, 5.507e-3
-1.550, 5.596e-3
-1.551, 5.661e-3
-1.552, 5.710e-3
-1.553, 5.766e-3
-1.554, 5.809e-3
-1.555, 5.836e-3
-1.556, 5.877e-3
-1.557, 5.926e-3
-1.558, 5.975e-3
-1.559, 6.031e-3
-1.560, 6.102e-3
-1.561, 6.188e-3
-1.562, 6.293e-3
-1.563, 6.404e-3
-1.564, 6.518e-3
-1.565, 6.626e-3
-1.566, 6.734e-3
-1.567, 6.832e-3
-1.568, 6.925e-3
-1.569, 7.014e-3
-1.570, 7.097e-3
-1.571, 7.175e-3
-1.572, 7.252e-3
-1.573, 7.326e-3
-1.574, 7.393e-3
-1.575, 7.458e-3
-1.576, 7.532e-3
-1.577, 7.615e-3
-1.578, 7.689e-3
-1.579, 7.748e-3
-1.580, 7.797e-3
-1.581, 7.853e-3
-1.582, 7.924e-3
-1.583, 8.016e-3
-1.584, 8.133e-3
-1.585, 8.247e-3
-1.586, 8.352e-3
-1.587, 8.451e-3
-1.588, 8.534e-3
-1.589, 8.596e-3
-1.590, 8.636e-3
-1.591, 8.673e-3
-1.592, 8.713e-3
-1.593, 8.759e-3
-1.594, 8.815e-3
-1.595, 8.867e-3
-1.596, 8.926e-3
-1.597, 8.997e-3
-1.598, 9.068e-3
-1.599, 9.138e-3
-1.600, 9.142e-3
-1.599, 9.031e-3
-1.598, 8.913e-3
-1.597, 8.802e-3
-1.596, 8.701e-3
-1.595, 8.624e-3
-1.594, 8.574e-3
-1.593, 8.534e-3
-1.592, 8.494e-3
-1.591, 8.454e-3
-1.590, 8.420e-3
-1.589, 8.380e-3
-1.588, 8.321e-3
-1.587, 8.260e-3
-1.586, 8.180e-3
-1.585, 8.084e-3
-1.584, 7.979e-3
-1.583, 7.878e-3
-1.582, 7.785e-3
-1.581, 7.699e-3
-1.580, 7.622e-3
-1.579, 7.560e-3
-1.578, 7.517e-3
-1.577, 7.486e-3
-1.576, 7.461e-3
-1.575, 7.443e-3
-1.574, 7.424e-3
-1.573, 7.393e-3
-1.572, 7.350e-3
-1.571, 7.289e-3
-1.570, 7.208e-3
-1.569, 7.119e-3
-1.568, 7.027e-3
-1.567, 6.937e-3
-1.566, 6.848e-3
-1.565, 6.761e-3
-1.564, 6.684e-3
-1.563, 6.617e-3
-1.562, 6.552e-3
-1.561, 6.487e-3
-1.560, 6.428e-3
-1.559, 6.373e-3
-1.558, 6.317e-3
-1.557, 6.259e-3
-1.556, 6.185e-3
-1.555, 6.102e-3
-1.554, 6.012e-3
-1.553, 5.929e-3
-1.552, 5.849e-3
-1.551, 5.775e-3
-1.550, 5.710e-3
-1.549, 5.648e-3
-1.548, 5.596e-3
-1.547, 5.544e-3
-1.546, 5.482e-3
-1.545, 5.405e-3
-1.544, 5.325e-3
-1.543, 5.238e-3
-1.542, 5.158e-3
-1.541, 5.075e-3
-1.540, 4.989e-3
-1.539, 4.902e-3
-1.538, 4.828e-3
-1.537, 4.754e-3
-1.536, 4.680e-3
-1.535, 4.603e-3
-1.534, 4.532e-3
-1.533, 4.471e-3
-1.532, 4.412e-3
-1.531, 4.366e-3
-1.530, 4.329e-3
-1.529, 4.295e-3
-1.528, 4.270e-3
-1.527, 4.246e-3
-1.526, 4.212e-3
-1.525, 4.172e-3
-1.524, 4.122e-3
-1.523, 4.067e-3
-1.522, 4.008e-3
-1.521, 3.940e-3
-1.520, 3.869e-3
-1.519, 3.795e-3
-1.518, 3.721e-3
-1.517, 3.647e-3
-1.516, 3.573e-3
-1.515, 3.509e-3
-1.514, 3.450e-3
-1.513, 3.401e-3
-1.512, 3.358e-3
-1.511, 3.318e-3
-1.510, 3.278e-3
-1.509, 3.241e-3
-1.508, 3.207e-3
-1.507, 3.173e-3
-1.506, 3.133e-3
-1.505, 3.089e-3
-1.504, 3.049e-3
-1.503, 3.009e-3
-1.502, 2.969e-3
-1.501, 2.929e-3
-1.500, 2.886e-3
-1.499, 2.843e-3
-1.498, 2.803e-3
-1.497, 2.763e-3
-1.496, 2.719e-3
-1.495, 2.679e-3
-1.494, 2.639e-3
-1.493, 2.596e-3
-1.492, 2.556e-3
-1.491, 2.516e-3
-1.490, 2.470e-3
-1.489, 2.430e-3
-1.488, 2.386e-3
-1.487, 2.343e-3
-1.486, 2.303e-3
-1.485, 2.257e-3
-1.484, 2.217e-3
-1.483, 2.183e-3
-1.482, 2.146e-3
-1.481, 2.106e-3
-1.480, 2.066e-3
-1.479, 2.026e-3
-1.478, 1.989e-3
-1.477, 1.949e-3
-1.476, 1.909e-3
-1.475, 1.869e-3
-1.474, 1.828e-3
-1.473, 1.795e-3
-1.472, 1.761e-3
-1.471, 1.724e-3
-1.470, 1.690e-3
-1.469, 1.659e-3
-1.468, 1.625e-3
-1.467, 1.594e-3
-1.466, 1.560e-3
-1.465, 1.526e-3
-1.464, 1.492e-3
-1.463, 1.462e-3
-1.462, 1.434e-3
-1.461, 1.403e-3
-1.460, 1.372e-3
-1.459, 1.344e-3
-1.458, 1.314e-3
-1.457, 1.280e-3
-1.456, 1.252e-3
-1.455, 1.221e-3
-1.454, 1.196e-3
-1.453, 1.172e-3
-1.452, 1.150e-3
-1.451, 1.125e-3
-1.450, 1.104e-3
-1.449, 1.082e-3
-1.448, 1.061e-3
-1.447, 1.039e-3
-1.446, 1.018e-3
-1.445, 9.991e-4
-1.444, 9.775e-4
-1.443, 9.590e-4
-1.442, 9.405e-4
-1.441, 9.189e-4
-1.440, 8.973e-4
-1.439, 8.788e-4
-1.438, 8.603e-4
-1.437, 8.418e-4
-1.436, 8.233e-4
-1.435, 8.048e-4
-1.434, 7.863e-4
-1.433, 7.709e-4
-1.432, 7.524e-4
-1.431, 7.339e-4
-1.430, 7.154e-4
-1.429, 6.969e-4
-1.428, 6.815e-4
-1.427, 6.630e-4
-1.426, 6.445e-4
-1.425, 6.291e-4
-1.424, 6.168e-4
-1.423, 6.014e-4
-1.422, 5.890e-4
-1.421, 5.767e-4
-1.420, 5.613e-4
-1.419, 5.489e-4
-1.418, 5.335e-4
-1.417, 5.212e-4
-1.416, 5.089e-4
-1.415, 4.965e-4
-1.414, 4.842e-4
-1.413, 4.719e-4
-1.412, 4.595e-4
-1.411, 4.472e-4
-1.410, 4.349e-4
-1.409, 4.225e-4
-1.408, 4.133e-4
-1.407, 4.040e-4
-1.406, 3.948e-4
-1.405, 3.825e-4
-1.404, 3.732e-4
-1.403, 3.640e-4
-1.402, 3.547e-4
-1.401, 3.455e-4
-1.400, 3.362e-4
-1.399, 3.270e-4
-1.398, 3.177e-4
-1.397, 3.085e-4
-1.396, 3.023e-4
-1.395, 2.931e-4
-1.394, 2.838e-4
-1.393, 2.776e-4
-1.392, 2.684e-4
-1.391, 2.622e-4
-1.390, 2.561e-4
-1.389, 2.499e-4
-1.388, 2.437e-4
-1.387, 2.345e-4
-1.386, 2.283e-4
-1.385, 2.221e-4
-1.384, 2.160e-4
-1.383, 2.098e-4
-1.382, 2.067e-4
-1.381, 2.006e-4
-1.380, 1.944e-4
-1.379, 1.882e-4
-1.378, 1.851e-4
-1.377, 1.790e-4
-1.376, 1.728e-4
-1.375, 1.697e-4
-1.374, 1.636e-4
-1.373, 1.605e-4
-1.372, 1.543e-4
-1.371, 1.512e-4
-1.370, 1.481e-4
-1.369, 1.420e-4
-1.368, 1.389e-4
-1.367, 1.358e-4
-1.366, 1.296e-4
-1.365, 1.266e-4
-1.364, 1.235e-4
-1.363, 1.204e-4
-1.362, 1.173e-4
-1.361, 1.142e-4
-1.360, 1.111e-4
-1.359, 1.081e-4
-1.358, 1.050e-4
-1.357, 1.019e-4
-1.356, 9.882e-5
-1.355, 9.573e-5
-1.354, 9.265e-5
-1.353, 8.957e-5
-1.352, 8.648e-5
-1.351, 8.340e-5
-1.350, 8.340e-5
-1.349, 7.723e-5
-1.348, 7.723e-5
-1.347, 7.415e-5
-1.346, 7.107e-5
-1.345, 7.107e-5
-1.344, 6.798e-5
-1.343, 6.490e-5
-1.342, 6.490e-5
-1.341, 6.490e-5
-1.340, 6.182e-5
-1.339, 5.873e-5
-1.338, 5.873e-5
-1.337, 5.565e-5
-1.336, 5.257e-5
-1.335, 5.257e-5
-1.334, 5.257e-5
-1.333, 4.949e-5
-1.332, 4.640e-5
-1.331, 4.640e-5
-1.330, 4.332e-5
-1.329, 4.332e-5
-1.328, 4.332e-5
-1.327, 4.024e-5
-1.326, 4.024e-5
-1.325, 4.024e-5
-1.324, 3.715e-5
-1.323, 3.715e-5
-1.322, 3.407e-5
-1.321, 3.407e-5
-1.320, 3.407e-5
-1.319, 3.099e-5
-1.318, 3.099e-5
-1.317, 3.099e-5
-1.316, 2.790e-5
-1.315, 2.790e-5
-1.314, 2.790e-5
-1.313, 2.790e-5
-1.312, 2.482e-5
-1.311, 2.482e-5
-1.310, 2.482e-5
-1.309, 2.174e-5
-1.308, 2.174e-5
-1.307, 2.174e-5
-1.306, 2.174e-5
-1.305, 2.174e-5
-1.304, 2.174e-5
-1.303, 1.865e-5
-1.302, 1.865e-5
-1.301, 1.865e-5
-1.300, 1.865e-5
-1.299, 1.557e-5
-1.298, 1.557e-5
-1.297, 1.557e-5
-1.296, 1.557e-5
-1.295, 1.557e-5
-1.294, 1.557e-5
-1.293, 1.249e-5
-1.292, 1.249e-5
-1.291, 1.249e-5
-1.290, 1.249e-5
-1.289, 1.249e-5
-1.288, 1.249e-5
-1.287, 1.249e-5
-1.286, 1.249e-5
-1.285, 9.405e-6
-1.284, 9.405e-6
-1.283, 9.405e-6
-1.282, 9.405e-6
-1.281, 9.405e-6
-1.280, 9.405e-6
-1.279, 9.405e-6
-1.278, 9.405e-6
-1.277, 6.322e-6
-1.276, 9.405e-6
-1.275, 6.322e-6
-1.274, 6.322e-6
-1.273, 6.322e-6
-1.272, 6.322e-6
-1.271, 6.322e-6
-1.270, 6.322e-6
-1.269, 6.322e-6
-1.268, 6.322e-6
-1.267, 6.322e-6
-1.266, 3.239e-6
-1.265, 6.322e-6
-1.264, 3.239e-6
-1.263, 6.322e-6
-1.262, 3.239e-6
-1.261, 3.239e-6
-1.260, 3.239e-6
-1.259, 3.239e-6
-1.258, 3.239e-6
-1.257, 3.239e-6
-1.256, 3.239e-6
-1.255, 3.239e-6
-1.254, 3.239e-6
-1.253, 3.239e-6
-1.252, 3.239e-6
-1.251, 3.239e-6
-1.250, 3.239e-6
-1.249, 1.559e-7
-1.248, 3.239e-6
-1.247, 1.559e-7
-1.246, 3.239e-6
-1.245, 1.559e-7
-1.244, 1.559e-7
-1.243, 3.239e-6
-1.242, 1.559e-7
-1.241, 1.559e-7
-1.240, 1.559e-7
-1.239, 1.559e-7
-1.238, 1.559e-7
-1.237, 1.559e-7
-1.236, 1.559e-7
-1.235, 1.559e-7
-1.234, 1.559e-7
-1.233, 1.559e-7
-1.232, 1.559e-7
-1.231, 1.559e-7
-1.230, 1.559e-7
-1.229, 1.559e-7
-1.228, 1.559e-7
-1.227, 1.559e-7
-1.226, 1.559e-7
-1.225, 1.559e-7
-1.224, 1.559e-7
-1.223, -2.927e-6
-1.222, -2.927e-6
-1.221, -2.927e-6
-1.220, 1.559e-7
-1.219, 1.559e-7
-1.218, 1.559e-7
-1.217, 1.559e-7
-1.216, -2.927e-6
-1.215, 1.559e-7
-1.214, -2.927e-6
-1.213, -2.927e-6
-1.212, -2.927e-6
-1.211, -2.927e-6
-1.210, -2.927e-6
-1.209, -2.927e-6
-1.208, -2.927e-6
-1.207, -2.927e-6
-1.206, -2.927e-6
-1.205, -2.927e-6
-1.204, -2.927e-6
-1.203, -2.927e-6
-1.202, -2.927e-6
-1.201, -2.927e-6
-1.200, -2.927e-6
-1.199, -2.927e-6
-1.198, -2.927e-6
-1.197, -2.927e-6
-1.196, -2.927e-6
-1.195, -2.927e-6
-1.194, -2.927e-6
-1.193, -2.927e-6
-1.192, -2.927e-6
-1.191, -2.927e-6
-1.190, -2.927e-6
-1.189, -2.927e-6
-1.188, -2.927e-6
-1.187, -2.927e-6
-1.186, -6.010e-6
-1.185, -2.927e-6
-1.184, -2.927e-6
-1.183, -2.927e-6
-1.182, -2.927e-6
-1.181, -2.927e-6
-1.180, -2.927e-6
-1.179, -6.010e-6
-1.178, -2.927e-6
-1.177, -2.927e-6
-1.176, -2.927e-6
-1.175, -2.927e-6
-1.174, -6.010e-6
-1.173, -2.927e-6
-1.172, -2.927e-6
-1.171, -6.010e-6
-1.170, -6.010e-6
-1.169, -6.010e-6
-1.168, -2.927e-6
-1.167, -6.010e-6
-1.166, -6.010e-6
-1.165, -2.927e-6
-1.164, -6.010e-6
-1.163, -2.927e-6
-1.162, -6.010e-6
-1.161, -6.010e-6
-1.160, -6.010e-6
-1.159, -6.010e-6
-1.158, -6.010e-6
-1.157, -6.010e-6
-1.156, -6.010e-6
-1.155, -6.010e-6
-1.154, -6.010e-6
-1.153, -6.010e-6
-1.152, -6.010e-6
-1.151, -6.010e-6
-1.150, -6.010e-6
-1.149, -6.010e-6
-1.148, -6.010e-6
-1.147, -6.010e-6
-1.146, -6.010e-6
-1.145, -6.010e-6
-1.144, -6.010e-6
-1.143, -6.010e-6
-1.142, -6.010e-6
-1.141, -6.010e-6
-1.140, -6.010e-6
-1.139, -6.010e-6
-1.138, -6.010e-6
-1.137, -6.010e-6
-1.136, -6.010e-6
-1.135, -6.010e-6
-1.134, -6.010e-6
-1.133, -6.010e-6
-1.132, -9.093e-6
-1.131, -6.010e-6
-1.130, -6.010e-6
-1.129, -6.010e-6
-1.128, -6.010e-6
-1.127, -6.010e-6
-1.126, -6.010e-6
-1.125, -9.093e-6
-1.124, -9.093e-6
-1.123, -6.010e-6
-1.122, -6.010e-6
-1.121, -9.093e-6
-1.120, -9.093e-6
-1.119, -9.093e-6
-1.118, -9.093e-6
-1.117, -9.093e-6
-1.116, -9.093e-6
-1.115, -9.093e-6
-1.114, -9.093e-6
-1.113, -6.010e-6
-1.112, -9.093e-6
-1.111, -9.093e-6
-1.110, -9.093e-6
-1.109, -9.093e-6
-1.108, -9.093e-6
-1.107, -9.093e-6
-1.106, -9.093e-6
-1.105, -9.093e-6
-1.104, -9.093e-6
-1.103, -9.093e-6
-1.102, -9.093e-6
-1.101, -9.093e-6
-1.100, -9.093e-6
-1.099, -9.093e-6
-1.098, -9.093e-6
-1.097, -9.093e-6
-1.096, -9.093e-6
-1.095, -9.093e-6
-1.094, -9.093e-6
-1.093, -9.093e-6
-1.092, -1.218e-5
-1.091, -1.218e-5
-1.090, -1.218e-5
-1.089, -1.218e-5
-1.088, -9.093e-6
-1.087, -1.218e-5
-1.086, -1.218e-5
-1.085, -9.093e-6
-1.084, -1.218e-5
-1.083, -1.218e-5
-1.082, -1.218e-5
-1.081, -1.218e-5
-1.080, -1.218e-5
-1.079, -1.218e-5
-1.078, -1.218e-5
-1.077, -1.218e-5
-1.076, -1.218e-5
-1.075, -1.218e-5
-1.074, -1.218e-5
-1.073, -1.218e-5
-1.072, -1.218e-5
-1.071, -1.218e-5
-1.070, -1.218e-5
-1.069, -1.218e-5
-1.068, -1.218e-5
-1.067, -1.218e-5
-1.066, -1.218e-5
-1.065, -1.218e-5
-1.064, -1.218e-5
-1.063, -1.218e-5
-1.062, -1.526e-5
-1.061, -1.218e-5
-1.060, -1.526e-5
-1.059, -1.526e-5
-1.058, -1.218e-5
-1.057, -1.526e-5
-1.056, -1.526e-5
-1.055, -1.526e-5
-1.054, -1.526e-5
-1.053, -1.526e-5
-1.052, -1.526e-5
-1.051, -1.526e-5
-1.050, -1.526e-5
-1.049, -1.526e-5
-1.048, -1.526e-5
-1.047, -1.526e-5
-1.046, -1.526e-5
-1.045, -1.526e-5
-1.044, -1.526e-5
-1.043, -1.526e-5
-1.042, -1.526e-5
-1.041, -1.834e-5
-1.040, -1.834e-5
-1.039, -1.834e-5
-1.038, -1.834e-5
-1.037, -1.834e-5
-1.036, -1.834e-5
-1.035, -1.834e-5
-1.034, -1.834e-5
-1.033, -1.834e-5
-1.032, -1.834e-5
-1.031, -1.834e-5
-1.030, -1.834e-5
-1.029, -1.834e-5
-1.028, -1.834e-5
-1.027, -1.834e-5
-1.026, -1.834e-5
-1.025, -1.834e-5
-1.024, -1.834e-5
-1.023, -1.834e-5
-1.022, -1.834e-5
-1.021, -1.834e-5
-1.020, -2.143e-5
-1.019, -2.143e-5
-1.018, -2.143e-5
-1.017, -2.143e-5
-1.016, -2.143e-5
-1.015, -2.143e-5
-1.014, -2.143e-5
-1.013, -2.143e-5
-1.012, -2.143e-5
-1.011, -2.143e-5
-1.010, -2.143e-5
-1.009, -2.143e-5
-1.008, -2.143e-5
-1.007, -2.143e-5
-1.006, -2.143e-5
-1.005, -2.143e-5
-1.004, -2.451e-5
-1.003, -2.451e-5
-1.002, -2.451e-5
-1.001, -2.451e-5
