Potential V vs RHE, Current mA cm-2
0.013299999999999867,0.267946320194438
0.012299999999999978,-0.12265546969829867
0.011299999999999866,-0.29058170099227854
0.010299999999999976,-0.37942557062380283
0.009299999999999864,-0.4433705213777025
0.008299999999999974,-0.505051934051818
0.007299999999999862,-0.5831439978043682
0.006299999999999972,-0.6516160247178359
0.00529999999999986,-0.6852861536546238
0.0042999999999999705,-0.7127315528720055
0.0032999999999998586,-0.7570120165577812
0.0022999999999999687,-0.8144492953323017
0.0012999999999998568,-0.8648130176074971
0.00029999999999996696,-0.8834872067657155
-0.000700000000000145,-0.9023028670539204
-0.0017000000000000348,-0.9342753424308702
-0.0027000000000001467,-0.9832243534062003
-0.0037000000000000366,-1.025807163532138
-0.0047000000000001485,-1.0471693041601002
-0.005700000000000038,-1.0519793225796414
-0.00670000000000015,-1.0815467887468206
-0.00770000000000004,-1.1261101946925691
-0.008700000000000152,-1.1644488709189116
-0.009700000000000042,-1.180576579737373
-0.010700000000000154,-1.1889233764065767
-0.011700000000000044,-1.2145296509341341
-0.012700000000000156,-1.2558392208901932
-0.013700000000000045,-1.2904996477368864
-0.014700000000000157,-1.3046467607355368
-0.015700000000000047,-1.3050711741254966
-0.01670000000000016,-1.3272821415333773
-0.01770000000000005,-1.3749579123388291
-0.01870000000000016,-1.404949791895968
-0.01970000000000005,-1.41456982873505
-0.020700000000000163,-1.4175407224647667
-0.021700000000000053,-1.4401761032626073
-0.022700000000000164,-1.4840321535584236
-0.023700000000000054,-1.5137410908555893
-0.024700000000000166,-1.5208146473549145
-0.025700000000000056,-1.5236440699546445
-0.026700000000000168,-1.54203531685289
-0.027700000000000058,-1.583061944548976
-0.02870000000000017,-1.614185593146007
-0.02970000000000006,-1.6198444383454669
-0.03070000000000017,-1.6212591496453321
-0.03170000000000006,-1.6424798191433077
-0.03270000000000017,-1.6792623129397986
-0.03370000000000006,-1.7118006728366943
-0.034700000000000175,-1.7118006728366943
-0.035700000000000065,-1.7118006728366943
-0.03670000000000018,-1.7372654762342652
-0.03770000000000007,-1.771218547431026
-0.03870000000000018,-1.8009274847281918
-0.03970000000000007,-1.8037569073279218
-0.04070000000000018,-1.8037569073279218
-0.04170000000000007,-1.823562865526032
-0.04270000000000018,-1.857515936722793
-0.04370000000000007,-1.8872248740199586
-0.044700000000000184,-1.891469007919554
-0.045700000000000074,-1.8858101627200938
-0.046700000000000186,-1.9084455435179344
-0.047700000000000076,-1.9409839034148304
-0.04870000000000019,-1.9664487068124006
-0.04970000000000008,-1.9735222633117262
-0.05070000000000019,-1.9650339955125358
-0.05170000000000008,-1.9890840876102414
-0.05270000000000019,-2.0272812927065975
-0.05370000000000008,-2.048501962204573
-0.05470000000000019,-2.0569902300037635
-0.05570000000000008,-2.047087250904708
-0.056700000000000195,-2.071137343002414
-0.057700000000000085,-2.105090414199175
-0.058700000000000196,-2.12631108369715
-0.059700000000000086,-2.12914050629688
-0.0607000000000002,-2.127725794997015
-0.06170000000000009,-2.158849443594046
-0.0627000000000002,-2.192802514790807
-0.06370000000000009,-2.2111937616890525
-0.0647000000000002,-2.2126084729889177
-0.06570000000000009,-2.2111937616890525
-0.0667000000000002,-2.230999719887163
-0.0677000000000001,-2.2706116362833835
-0.0687000000000002,-2.2946617283810897
-0.0697000000000001,-2.2932470170812245
-0.07070000000000021,-2.2974911509808194
-0.0717000000000001,-2.3144676865791998
-0.07270000000000021,-2.352664891675556
-0.0737000000000001,-2.379544406372992
-0.07470000000000021,-2.379544406372992
-0.0757000000000001,-2.380959117672857
-0.07670000000000021,-2.4035944984706976
-0.0777000000000001,-2.4446211261667834
-0.07870000000000021,-2.472915352164084
-0.0797000000000001,-2.4715006408642193
-0.08070000000000022,-2.4771594860636794
-0.0817000000000001,-2.50545371206098
-0.08270000000000022,-2.542236205857471
-0.08370000000000011,-2.5733598544545018
-0.08470000000000022,-2.576189277054232
-0.08570000000000011,-2.579018699653962
-0.08670000000000022,-2.6115570595508575
-0.08770000000000011,-2.6539983985468085
-0.08870000000000022,-2.6851220471438397
-0.08970000000000011,-2.69361031494303
-0.09070000000000022,-2.69361031494303
-0.09170000000000011,-2.7289780974396556
-0.09270000000000023,-2.775663570335202
-0.09370000000000012,-2.8039577963325026
-0.09470000000000023,-2.8166901980312877
-0.09570000000000012,-2.820934331930883
-0.09670000000000023,-2.854887403127644
-0.09770000000000012,-2.9086464325225156
-0.09870000000000023,-2.9369406585198163
-0.09970000000000012,-2.9482583489187366
-0.10070000000000023,-2.963820173217252
-0.10170000000000012,-2.996358533114148
-0.10270000000000024,-3.050117562509019
-0.10370000000000013,-3.079826499806185
-0.10470000000000024,-3.0939736128048354
-0.10570000000000013,-3.1123648597030806
-0.10670000000000024,-3.1477326421997063
-0.10770000000000013,-3.202906382894443
-0.10870000000000024,-3.2368594540912037
-0.10970000000000013,-3.2510065670898545
-0.11070000000000024,-3.267983102688235
-0.11170000000000013,-3.3061803077845906
-0.11270000000000002,-3.362768759779192
-0.11370000000000013,-3.3967218309759533
-0.11470000000000002,-3.4108689439746036
-0.11570000000000014,-3.434919036072309
-0.11670000000000003,-3.4773603750682605
-0.11770000000000014,-3.5311194044631313
-0.11870000000000003,-3.572146032159218
-0.11970000000000014,-3.5848784338580026
-0.12070000000000003,-3.608928525955709
-0.12170000000000014,-3.6541992875513896
-0.12270000000000003,-3.7093730282461257
-0.12370000000000014,-3.7560585011416725
-0.12470000000000003,-3.7702056141403233
-0.12570000000000014,-3.7928409949381634
-0.12670000000000003,-3.84235589043344
-0.12770000000000015,-3.8975296311281755
-0.12870000000000004,-3.9428003927238575
-0.12970000000000015,-3.962606350921967
-0.13070000000000004,-3.9809975978202137
-0.13170000000000015,-4.0319272046153545
-0.13270000000000004,-4.094174501809416
-0.13370000000000015,-4.136615840805367
-0.13470000000000004,-4.162080644202938
-0.13570000000000015,-4.181886602401049
-0.13670000000000004,-4.23281620919619
-0.13770000000000016,-4.302137062889576
-0.13870000000000005,-4.344578401885528
-0.13970000000000016,-4.3728726278828285
-0.14070000000000005,-4.398337431280399
-0.14170000000000016,-4.449267038075541
-0.14270000000000005,-4.515758469169198
-0.14370000000000016,-4.561029230764878
-0.14470000000000005,-4.586494034162449
-0.14570000000000016,-4.6162029714596144
-0.14670000000000005,-4.665717866954891
-0.14770000000000016,-4.735038720648277
-0.14870000000000005,-4.783138904843689
-0.14970000000000017,-4.810018419541125
-0.15070000000000006,-4.84821562463748
-0.15170000000000017,-4.900559942732487
-0.15270000000000006,-4.9698807964258735
-0.15370000000000017,-5.020810403221016
-0.15470000000000006,-5.0420310727189905
-0.15570000000000017,-5.084472411714942
-0.15670000000000006,-5.141060863709543
-0.15770000000000017,-5.210381717402931
-0.15870000000000006,-5.262726035497936
-0.15970000000000018,-5.295264395394832
-0.16070000000000007,-5.332046889191323
-0.16170000000000018,-5.39570889768525
-0.16270000000000007,-5.466444462678503
-0.16370000000000018,-5.528691759872564
-0.16470000000000007,-5.565474253669055
-0.16570000000000018,-5.5994273248658155
-0.16670000000000007,-5.665918755959472
-0.16770000000000018,-5.728166053153534
-0.16870000000000007,-5.787583927747865
-0.16970000000000018,-5.828610555443951
-0.17070000000000007,-5.865393049240442
-0.17170000000000019,-5.9347139029338285
-0.17270000000000008,-6.011108313126541
-0.1737000000000002,-6.064867342521412
-0.17470000000000008,-6.1058939702174975
-0.1757000000000002,-6.14833530921345
-0.17670000000000008,-6.221900296806432
-0.1777000000000002,-6.305368263498468
-0.17870000000000008,-6.3548831589937445
-0.1797000000000002,-6.39590978668983
-0.18070000000000008,-6.438351125685783
-0.1817000000000002,-6.507671979379168
-0.18270000000000008,-6.602457636470127
-0.1837000000000002,-6.659046088464728
-0.1847000000000001,-6.694413870961354
-0.1857000000000002,-6.745343477756495
-0.1867000000000001,-6.810420197550286
-0.1877000000000002,-6.906620565941108
-0.1887000000000001,-6.966038440535441
-0.1897000000000002,-7.007065068231526
-0.1907000000000001,-7.059409386326533
-0.1917000000000001,-7.12307139482046
-0.19269999999999998,-7.198051093713307
-0.1937000000000001,-7.260298390907368
-0.19469999999999998,-7.291422039504399
-0.1957000000000001,-7.346595780199135
-0.19669999999999999,-7.428649035591308
-0.1977000000000001,-7.500799311884425
-0.1987,-7.564461320378352
-0.1997000000000001,-7.596999680275248
-0.2007,-7.649343998370253
-0.2017000000000001,-7.724323697263101
-0.2027,-7.799303396155947
-0.2037000000000001,-7.862965404649874
-0.2047,-7.8983331871465
-0.2057000000000001,-7.94360394874218
-0.2067,-8.017168936335162
-0.2077000000000001,-8.093563346527874
-0.2087,-8.140248819423421
-0.2097000000000001,-8.179860735819641
-0.2107,-8.219472652215863
-0.2117000000000001,-8.28596408330952
-0.2127,-8.359529070902502
-0.2137000000000001,-8.407629255097913
-0.2147,-8.45431472799346
-0.2157000000000001,-8.519391447787251
-0.2167,-8.551929807684147
-0.21770000000000012,-8.614177104878209
-0.2187,-8.64813017607497
-0.21970000000000012,-8.669350845572946
-0.2207,-8.708962761969165
-0.22170000000000012,-8.762721791364037
-0.2227,-8.822139665958368
-0.22370000000000012,-8.85892215975486
-0.2247,-8.87023985015378
-0.22570000000000012,-8.905607632650405
-0.2267,-8.949463682946222
-0.22770000000000012,-9.013125691440148
-0.22870000000000001,-9.035761072237987
-0.22970000000000013,-9.042834628737316
-0.23070000000000002,-9.061225875635559
-0.23170000000000013,-9.100837792031781
-0.23270000000000002,-9.151767398826921
-0.23370000000000013,-9.168743934425303
-0.23470000000000002,-9.164499800525707
-0.23570000000000013,-9.184305758723816
-0.23670000000000002,-9.209770562121388
-0.2376999999999999,-9.24089421071842
-0.23870000000000002,-9.259285457616667
-0.2396999999999999,-9.250797189817476
-0.24070000000000003,-9.252211901117338
-0.24169999999999991,-9.28899439491383
-0.24270000000000003,-9.31162977571167
-0.24369999999999992,-9.3144591983114
-0.24470000000000003,-9.304556219212346
-0.24569999999999992,-9.287579683613965
-0.24670000000000003,-9.3144591983114
-0.24769999999999992,-9.330021022609918
-0.24870000000000003,-9.3144591983114
-0.24969999999999992,-9.294653240113291
-0.25070000000000003,-9.276261993215044
-0.2516999999999999,-9.284750261014237
-0.25270000000000004,-9.28899439491383
-0.2536999999999999,-9.269188436715721
-0.25470000000000004,-9.239479499418556
-0.2556999999999999,-9.222502963820174
-0.25670000000000004,-9.230991231619363
-0.25769999999999993,-9.230991231619363
-0.25870000000000004,-9.191379315223143
-0.25969999999999993,-9.15459682142665
-0.26070000000000004,-9.113570193730567
-0.26169999999999993,-9.113570193730567
-0.26270000000000004,-9.09234952423259
-0.26369999999999993,-9.05273760783637
-0.26470000000000005,-9.004637423640958
-0.26569999999999994,-8.967854929844465
-0.26670000000000005,-8.95795195074541
-0.26769999999999994,-8.939560703847167
-0.26870000000000005,-8.891460519651757
-0.26969999999999994,-8.829213222457696
-0.27070000000000005,-8.783942460862013
-0.27169999999999994,-8.759892368764307
-0.27270000000000005,-8.738671699266332
-0.27369999999999994,-8.697645071570244
-0.27470000000000006,-8.6226653726774
-0.27569999999999995,-8.567491631982662
-0.27670000000000006,-8.543441539884956
-0.27769999999999995,-8.512317891287925
-0.27870000000000006,-8.45148530539373
-0.27969999999999995,-8.379335029100613
-0.28070000000000006,-8.324161288405875
-0.28169999999999995,-8.293037639808846
-0.28270000000000006,-8.25484043471249
-0.28369999999999995,-8.203910827917348
-0.28470000000000006,-8.13176055162423
-0.28569999999999995,-8.07800152222936
-0.28670000000000007,-8.046877873632328
-0.28769999999999996,-8.007265957236108
-0.28870000000000007,-7.9549216391411015
-0.28969999999999996,-7.891259630647174
-0.29070000000000007,-7.833256467352707
-0.29169999999999996,-7.809206375255003
-0.29270000000000007,-7.780912149257703
-0.29369999999999996,-7.728567831162695
-0.2947000000000001,-7.66490582266877
-0.29569999999999996,-7.604073236774572
-0.2967000000000001,-7.585681989876327
-0.29769999999999996,-7.565876031678216
-0.2987000000000001,-7.5220199813824
-0.29969999999999997,-7.469675663287394
-0.3007000000000001,-7.425819612991578
-0.30169999999999997,-7.418746056492251
-0.3027000000000001,-7.404598943493602
-0.30369999999999997,-7.3649870270973805
-0.3047000000000001,-7.32254568810143
-0.30569999999999997,-7.301325018603455
-0.3067000000000001,-7.2999103073035885
-0.3077,-7.305569152503049
-0.3087000000000001,-7.277274926505749
-0.3097,-7.246151277908718
-0.3107000000000001,-7.2404924327092575
-0.3117,-7.253224834408043
-0.3127000000000001,-7.274445503906019
-0.3137,-7.264542524806962
-0.3147000000000001,-7.2390777214093935
-0.3157,-7.257468968307639
-0.3167000000000001,-7.2928367508042635
-0.3177,-7.32254568810143
-0.3187000000000001,-7.3381075123999455
-0.3197,-7.331033955900621
-0.3207000000000001,-7.352254625398595
-0.3217,-7.404598943493602
-0.3227000000000001,-7.448454993789417
-0.3237,-7.480993353686313
-0.3247000000000001,-7.503628734484154
-0.3257,-7.53899651698078
-0.3267000000000001,-7.6069026593743025
-0.3277,-7.6663205339686336
-0.3287000000000001,-7.7130060068641795
-0.3297,-7.739885521561616
-0.3307000000000001,-7.7978886848560816
-0.3317,-7.879941940248254
-0.3327000000000001,-7.95775106174083
-0.3337,-8.015754225035298
-0.3347000000000001,-8.065269120530575
-0.3357,-8.124686995124907
-0.3367000000000001,-8.235034476514379
-0.3377,-8.324161288405875
-0.3387000000000001,-8.383579163000208
-0.3397,-8.426020501996158
-0.3407000000000001,-8.512317891287925
-0.3417,-8.621250661377534
-0.3427000000000001,-8.72169516366795
-0.3437,-8.806577841659854
-0.3447000000000001,-8.865995716254185
-0.3457,-8.956537239445547
-0.3467000000000001,-9.0555670304361
-0.3477,-9.157426244026382
-0.3487000000000001,-9.24938247851761
-0.3497,-9.321532754810727
-0.3507000000000001,-9.412074278002088
-0.3517,-9.526665893291156
-0.3527000000000001,-9.635598663380765
-0.3537,-9.717651918772937
-0.3547000000000001,-9.786972772466322
-0.3557,-9.89024669735647
-0.35670000000000013,-10.007667735245269
-0.3577,-10.103868103636094
-0.35870000000000013,-10.185921359028264
-0.3597,-10.25241279012192
-0.36070000000000013,-10.351442581112472
-0.3617,-10.458960639902216
-0.3626999999999999,-10.556575719592905
-0.3637,-10.630140707185886
-0.3646999999999999,-10.707949828678462
-0.3657,-10.790003084070635
-0.3666999999999999,-10.906009410659568
-0.3677,-10.99655093385093
-0.3686999999999999,-11.072945344043642
-0.36970000000000003,-11.129533796038242
-0.3706999999999999,-11.20734291753082
-0.37170000000000003,-11.321934532819888
-0.3726999999999999,-11.41247605601125
-0.37370000000000003,-11.495944022703288
-0.3746999999999999,-11.56102074249708
-0.37570000000000003,-11.652976976988306
-0.3766999999999999,-11.764739169677645
-0.37770000000000004,-11.883574918866309
-0.3786999999999999,-11.957139906459291
-0.37970000000000004,-12.049096140950518
-0.3806999999999999,-12.15944362233999
-0.38170000000000004,-12.288182350627707
-0.38269999999999993,-12.416921078915427
-0.38370000000000004,-12.53292740550436
-0.38469999999999993,-12.656007288592617
-0.38570000000000004,-12.813040242877635
-0.38669999999999993,-12.994123289260362
-0.38770000000000004,-13.187938737341872
-0.38869999999999993,-13.371851206324326
-0.38970000000000005,-13.560007809206377
-0.39069999999999994,-13.784946905884919
-0.39170000000000005,-14.04949791895968
-0.39269999999999994,-14.316878354634172
-0.39370000000000005,-14.57152638860988
-0.39469999999999994,-14.882762874580186
-0.39570000000000005,-15.222293586547794
-0.39669999999999994,-15.575971411514052
-0.39770000000000005,-15.972090575476265
-0.39869999999999994,-16.354062626439823
-0.39970000000000006,-16.764328903400685
-0.40069999999999995,-17.20288940635885
-0.40170000000000006,-17.683891248312957
-0.40269999999999995,-18.164893090267068
-0.40370000000000006,-18.645894932221182
-0.40469999999999995,-19.1834852261699
-0.40570000000000006,-19.73522263311726
-0.40669999999999995,-20.315254266061928
-0.40770000000000006,-20.923580125003895
-0.40869999999999995,-21.503611757948562
-0.40970000000000006,-22.097790503891872
-0.41069999999999995,-22.76270481482844
-0.41170000000000007,-23.427619125765005
-0.41269999999999996,-24.120827662698876
-0.41370000000000007,-24.785741973635442
-0.41469999999999996,-25.49309762356796
-0.41570000000000007,-26.21460038649913
-0.41669999999999996,-26.97854448842625
-0.41770000000000007,-27.728341477354718
-0.41869999999999996,-28.463991353284538
-0.4197000000000001,-29.22793545521166
-0.42069999999999996,-30.04846800913338
-0.4217000000000001,-30.91144190205105
-0.42269999999999996,-31.731974455972775
-0.4237000000000001,-32.56665412289314
-0.42469999999999997,-33.40133378981351
-0.4257000000000001,-34.292601908728486
-0.42669999999999997,-35.21216425364076
-0.4277000000000001,-36.08928525955708
-0.42869999999999997,-36.98055337847206
-0.4297000000000001,-37.90011572338433
-0.43069999999999997,-38.86211940729255
-0.4317000000000001,-39.75338752620753
-0.4327,-40.68709698411846
-0.4337000000000001,-41.66324778102533
-0.4347,-42.667692803929505
-0.4357000000000001,-43.61554937483908
-0.4367,-44.619994397743255
-0.4377000000000001,-45.596145194650134
-0.4387,-46.572295991557006
-0.4397000000000001,-47.56259390146253
-0.4407,-48.567038924366706
-0.4417000000000001,-49.628072399265484
-0.4427,-50.75984143915752
-0.4437000000000001,-51.7642864620617
-0.4447,-52.75458437196722
-0.4457000000000001,-53.71658805587545
-0.4467,-54.74932730477692
-0.4477000000000001,-55.73962521468245
-0.4487,-56.74407023758662
-0.4497000000000001,-57.7202210344935
-0.4507,-58.72466605739767
-0.4517000000000001,-60.16767158326001
-0.4527,-61.04479258917633
-0.4537000000000001,-61.865325143098055
-0.4547,-62.77074037501168
-0.4557000000000001,-63.95909786689831
-0.4567,-65.26063226277414
-0.4577000000000001,-66.20848883368372
-0.4587,-67.1563454045933
-0.4597000000000001,-68.14664331449882
-0.4607,-69.08035277240974
-0.4617000000000001,-69.98576800432336
-0.4627,-70.96191880123024
-0.4637000000000001,-71.78245135515196
-0.4647,-72.51810123108179
-0.4657000000000001,-73.40936934999675
-0.4667,-74.25819612991579
-0.4677000000000001,-75.29093537881725
-0.4687,-76.0407323677457
-0.4697000000000001,-76.81882358267148
-0.4707,-77.58276768459861
-0.4717000000000001,-78.43159446451764
-0.4727,-79.22383279244205
-0.4737000000000001,-80.15754225035298
-0.4747,-80.92148635228011
-0.4757000000000001,-81.74201890620182
-0.4767,-82.90208217209116
-0.4777000000000001,-83.56699648302772
-0.4787,-84.45826460194269
-0.4797000000000001,-85.60418075483337
-0.4807,-86.79253824672
-0.48170000000000013,-87.88186594761608
-0.4827,-88.68825138853916
-0.48370000000000013,-89.55122528145681
-0.4847,-90.28687515738663
-0.48570000000000013,-91.17814327630163
-0.4867,-91.29132018029082
-0.48570000000000013,-90.34346360938125
-0.4847,-89.25413590848517
-0.48370000000000013,-87.86771883461743
-0.4827,-86.55203732574294
-0.48170000000000013,-85.23635581686847
-0.4807,-83.90652719499532
-0.4797000000000001,-82.59084568612084
-0.4787,-81.40248819423421
-0.4777000000000001,-80.29901338033947
-0.4767,-79.1248030014515
-0.4757000000000001,-77.90815128356756
-0.4747,-76.7339409046796
-0.4737000000000001,-75.82852567276596
-0.4727,-74.64016818087934
-0.4717000000000001,-73.5649875929819
-0.4707,-72.60298390907369
-0.4697000000000001,-71.64098022516546
-0.4687,-70.50921118527343
-0.4677000000000001,-69.6320901793571
-0.4667,-68.58520381745697
-0.4657000000000001,-67.48172900356225
-0.4647,-66.42069552866347
-0.4637000000000001,-65.38795627976201
-0.4627,-64.14301033588076
-0.4617000000000001,-63.02538840898739
