Potential V vs RHE, Current mA cm-2
0.013299999999999867,0.08502414912188871
0.012299999999999978,-1.92117794521672
0.011299999999999866,-3.623075638954359
0.010299999999999976,-5.017980980621284
0.009299999999999864,-6.108723392817228
0.008299999999999974,-6.850032113946507
0.007299999999999862,-7.635196885371603
0.006299999999999972,-8.464217707092514
0.00529999999999986,-9.11781432763016
0.0042999999999999705,-9.59740145828441
0.0032999999999998586,-9.946835149351072
0.0022999999999999687,-10.296268840417738
0.0012999999999998568,-10.775855971071984
0.00029999999999996696,-11.255443101726232
-0.000700000000000145,-11.473308641905447
-0.0017000000000000348,-11.604876792792895
-0.0027000000000001467,-11.82274233297211
-0.0037000000000000366,-12.170761312738911
-0.0047000000000001485,-12.476338953509758
-0.005700000000000038,-12.651763154693022
-0.00670000000000015,-12.694204493688973
-0.00770000000000004,-12.781916594280606
-0.008700000000000152,-13.043638184755638
-0.009700000000000042,-13.30535977523067
-0.010700000000000154,-13.436927926118118
-0.011700000000000044,-13.3930718758223
-0.012700000000000156,-13.47936926511407
-0.013700000000000045,-13.698649516593148
-0.014700000000000157,-13.916515056772363
-0.015700000000000047,-13.960371107068182
-0.01670000000000016,-13.960371107068182
-0.01770000000000005,-14.002812446064135
-0.01870000000000016,-14.217848563643619
-0.01970000000000005,-14.444202371622024
-0.020700000000000163,-14.444202371622024
-0.021700000000000053,-14.345172580631472
-0.022700000000000164,-14.401761032626075
-0.023700000000000054,-14.529085049613924
-0.024700000000000166,-14.741291744593681
-0.025700000000000056,-14.741291744593681
-0.026700000000000168,-14.65640906660178
-0.027700000000000058,-14.69885040559773
-0.02870000000000017,-14.868615761581536
-0.02970000000000006,-15.094969569559943
-0.03070000000000017,-15.094969569559943
-0.03170000000000006,-14.967645552572087
-0.03270000000000017,-15.01008689156804
-0.03370000000000006,-15.137410908555893
-0.034700000000000175,-15.349617603535648
-0.035700000000000065,-15.307176264539699
-0.03670000000000018,-15.264734925543747
-0.03770000000000007,-15.264734925543747
-0.03870000000000018,-15.448647394526201
-0.03970000000000007,-15.575971411514052
-0.04070000000000018,-15.575971411514052
-0.04170000000000007,-15.448647394526201
-0.04270000000000018,-15.491088733522153
-0.04370000000000007,-15.660854089505953
-0.044700000000000184,-15.78817810649381
-0.045700000000000074,-15.78817810649381
-0.046700000000000186,-15.70329542850191
-0.047700000000000076,-15.70329542850191
-0.04870000000000019,-15.830619445489761
-0.04970000000000008,-15.972090575476265
-0.05070000000000019,-15.972090575476265
-0.05170000000000008,-15.87306078448571
-0.05270000000000019,-15.830619445489761
-0.05370000000000008,-16.014531914472215
-0.05470000000000019,-16.141855931460068
-0.05570000000000008,-16.141855931460068
-0.056700000000000195,-16.014531914472215
-0.057700000000000085,-16.014531914472215
-0.058700000000000196,-16.141855931460068
-0.059700000000000086,-16.269179948447924
-0.0607000000000002,-16.22673860945197
-0.06170000000000009,-16.141855931460068
-0.0627000000000002,-16.141855931460068
-0.06370000000000009,-16.22673860945197
-0.0647000000000002,-16.354062626439823
-0.06570000000000009,-16.269179948447924
-0.0667000000000002,-16.141855931460068
-0.0677000000000001,-16.184297270456018
-0.0687000000000002,-16.311621287443874
-0.0697000000000001,-16.438945304431726
-0.07070000000000021,-16.396503965435777
-0.0717000000000001,-16.311621287443874
-0.07270000000000021,-16.311621287443874
-0.0737000000000001,-16.396503965435777
-0.07470000000000021,-16.580416434418233
-0.0757000000000001,-16.53797509542228
-0.07670000000000021,-16.396503965435777
-0.0777000000000001,-16.354062626439823
-0.07870000000000021,-16.495533756426326
-0.0797000000000001,-16.580416434418233
-0.08070000000000022,-16.53797509542228
-0.0817000000000001,-16.354062626439823
-0.08270000000000022,-16.311621287443874
-0.08370000000000011,-16.396503965435777
-0.08470000000000022,-16.53797509542228
-0.08570000000000011,-16.495533756426326
-0.08670000000000022,-16.354062626439823
-0.08770000000000011,-16.311621287443874
-0.08870000000000022,-16.438945304431726
-0.08970000000000011,-16.580416434418233
-0.09070000000000022,-16.495533756426326
-0.09170000000000011,-16.354062626439823
-0.09270000000000023,-16.311621287443874
-0.09370000000000012,-16.438945304431726
-0.09470000000000023,-16.53797509542228
-0.09570000000000012,-16.495533756426326
-0.09670000000000023,-16.396503965435777
-0.09770000000000012,-16.354062626439823
-0.09870000000000023,-16.495533756426326
-0.09970000000000012,-16.622857773414182
-0.10070000000000023,-16.580416434418233
-0.10170000000000012,-16.495533756426326
-0.10270000000000024,-16.438945304431726
-0.10370000000000013,-16.580416434418233
-0.10470000000000024,-16.70774045140608
-0.10570000000000013,-16.665299112410132
-0.10670000000000024,-16.53797509542228
-0.10770000000000013,-16.495533756426326
-0.10870000000000024,-16.665299112410132
-0.10970000000000013,-16.750181790402035
-0.11070000000000024,-16.750181790402035
-0.11170000000000013,-16.580416434418233
-0.11270000000000002,-16.580416434418233
-0.11370000000000013,-16.70774045140608
-0.11470000000000002,-16.835064468393938
-0.11570000000000014,-16.792623129397985
-0.11670000000000003,-16.665299112410132
-0.11770000000000014,-16.622857773414182
-0.11870000000000003,-16.750181790402035
-0.11970000000000014,-16.835064468393938
-0.12070000000000003,-16.792623129397985
-0.12170000000000014,-16.665299112410132
-0.12270000000000003,-16.665299112410132
-0.12370000000000014,-16.835064468393938
-0.12470000000000003,-16.962388485381787
-0.12570000000000014,-16.919947146385837
-0.12670000000000003,-16.835064468393938
-0.12770000000000015,-16.835064468393938
-0.12870000000000004,-16.962388485381787
-0.12970000000000015,-17.103859615368293
-0.13070000000000004,-17.061418276372343
-0.13170000000000015,-17.018976937376394
-0.13270000000000004,-17.018976937376394
-0.13370000000000015,-17.103859615368293
-0.13470000000000004,-17.231183632356142
-0.13570000000000015,-17.231183632356142
-0.13670000000000004,-17.103859615368293
-0.13770000000000016,-17.103859615368293
-0.13870000000000005,-17.231183632356142
-0.13970000000000016,-17.358507649344002
-0.14070000000000005,-17.358507649344002
-0.14170000000000016,-17.231183632356142
-0.14270000000000005,-17.231183632356142
-0.14370000000000016,-17.40094898833995
-0.14470000000000005,-17.542420118326454
-0.14570000000000016,-17.542420118326454
-0.14670000000000005,-17.40094898833995
-0.14770000000000016,-17.40094898833995
-0.14870000000000005,-17.542420118326454
-0.14970000000000017,-17.669744135314307
-0.15070000000000006,-17.71218547431026
-0.15170000000000017,-17.584861457322408
-0.15270000000000006,-17.584861457322408
-0.15370000000000017,-17.75462681330621
-0.15470000000000006,-17.924392169290012
-0.15570000000000017,-17.881950830294063
-0.15670000000000006,-17.797068152302163
-0.15770000000000017,-17.839509491298113
-0.15870000000000006,-18.009274847281915
-0.15970000000000018,-18.15074597726842
-0.16070000000000007,-18.15074597726842
-0.16170000000000018,-18.009274847281915
-0.16270000000000007,-18.06586329927652
-0.16370000000000018,-18.19318731626437
-0.16470000000000007,-18.362952672248177
-0.16570000000000018,-18.362952672248177
-0.16670000000000007,-18.27806999425627
-0.16770000000000018,-18.23562865526032
-0.16870000000000007,-18.40539401124413
-0.16970000000000018,-18.589306480226583
-0.17070000000000007,-18.53271802823198
-0.17170000000000019,-18.44783535024008
-0.17270000000000008,-18.44783535024008
-0.1737000000000002,-18.674189158218486
-0.17470000000000008,-18.80151317520634
-0.1757000000000002,-18.80151317520634
-0.17670000000000008,-18.716630497214435
-0.1777000000000002,-18.759071836210385
-0.17870000000000008,-18.92883719219419
-0.1797000000000002,-19.112749661176647
-0.18070000000000008,-19.112749661176647
-0.1817000000000002,-19.056161209182044
-0.18270000000000008,-19.056161209182044
-0.1837000000000002,-19.2400736781645
-0.1847000000000001,-19.409839034148305
-0.1857000000000002,-19.409839034148305
-0.1867000000000001,-19.28251501716045
-0.1877000000000002,-19.3249563561564
-0.1887000000000001,-19.49472171214021
-0.1897000000000002,-19.678634181122664
-0.1907000000000001,-19.678634181122664
-0.1917000000000001,-19.579604390132108
-0.19269999999999998,-19.579604390132108
-0.1937000000000001,-19.805958198110513
-0.19469999999999998,-19.97572355409432
-0.1957000000000001,-19.97572355409432
-0.19669999999999999,-19.890840876102416
-0.1977000000000001,-19.93328221509837
-0.1987,-20.06060623208622
-0.1997000000000001,-20.244518701068674
-0.2007,-20.244518701068674
-0.2017000000000001,-20.159636023076775
-0.2027,-20.202077362072725
-0.2037000000000001,-20.414284057052477
-0.2047,-20.541608074040333
-0.2057000000000001,-20.499166735044383
-0.2067,-20.456725396048434
-0.2077000000000001,-20.456725396048434
-0.2087,-20.683079204026836
-0.2097000000000001,-20.85284456001064
-0.2107,-20.85284456001064
-0.2117000000000001,-20.810403221014692
-0.2127,-20.810403221014692
-0.2137000000000001,-21.022609915994444
-0.2147,-21.2065223849769
-0.2157000000000001,-21.291405062968803
-0.2167,-21.2065223849769
-0.21770000000000012,-21.248963723972853
-0.2187,-21.418729079956652
-0.21970000000000012,-21.58849443594046
-0.2207,-21.58849443594046
-0.22170000000000012,-21.503611757948562
-0.2227,-21.54605309694451
-0.22370000000000012,-21.729965565926964
-0.2247,-21.899730921910766
-0.22570000000000012,-21.94217226090672
-0.2267,-21.857289582914817
-0.22770000000000012,-21.899730921910766
-0.22870000000000001,-22.069496277894572
-0.22970000000000013,-22.295850085872978
-0.23070000000000002,-22.295850085872978
-0.23170000000000013,-22.253408746877028
-0.23270000000000002,-22.295850085872978
-0.23370000000000013,-22.46561544185678
-0.23470000000000002,-22.63538079784059
-0.23570000000000013,-22.67782213683654
-0.23670000000000002,-22.63538079784059
-0.2376999999999999,-22.67782213683654
-0.23870000000000002,-22.946617283810895
-0.2396999999999999,-23.1163826397947
-0.24070000000000003,-23.15882397879065
-0.24169999999999991,-23.1163826397947
-0.24270000000000003,-23.2012653177866
-0.24369999999999992,-23.427619125765005
-0.24470000000000003,-23.597384481748815
-0.24569999999999992,-23.682267159740714
-0.24670000000000003,-23.639825820744765
-0.24769999999999992,-23.682267159740714
-0.24870000000000003,-23.908620967719123
-0.24969999999999992,-24.120827662698876
-0.25070000000000003,-24.120827662698876
-0.2516999999999999,-24.078386323702922
-0.25270000000000004,-24.16326900169483
-0.2536999999999999,-24.389622809673234
-0.25470000000000004,-24.601829504652986
-0.2556999999999999,-24.64427084364894
-0.25670000000000004,-24.64427084364894
-0.25769999999999993,-24.729153521640843
-0.25870000000000004,-24.95550732961925
-0.25969999999999993,-25.210155363594954
-0.26070000000000004,-25.210155363594954
-0.26169999999999993,-25.252596702590903
-0.26270000000000004,-25.295038041586857
-0.26369999999999993,-25.521391849565262
-0.26470000000000005,-25.77603988354097
-0.26569999999999994,-25.81848122253692
-0.26670000000000005,-25.81848122253692
-0.26769999999999994,-25.959952352523427
-0.26870000000000005,-26.17215904750318
-0.26969999999999994,-26.38436574248293
-0.27070000000000005,-26.483395533473487
-0.27169999999999994,-26.440954194477534
-0.27270000000000005,-26.483395533473487
-0.27369999999999994,-26.738043567449193
-0.27470000000000006,-26.907808923433
-0.27569999999999995,-27.00683871442355
-0.27670000000000006,-27.00683871442355
-0.27769999999999995,-27.049280053419505
-0.27870000000000006,-27.303928087395207
-0.27969999999999995,-27.487840556377662
-0.28070000000000006,-27.572723234369565
-0.28169999999999995,-27.615164573365515
-0.28270000000000006,-27.65760591236147
-0.28369999999999995,-27.869812607341224
-0.28470000000000006,-28.09616641531963
-0.28569999999999995,-28.13860775431558
-0.28670000000000007,-28.13860775431558
-0.28769999999999996,-28.18104909331153
-0.28870000000000007,-28.393255788291288
-0.28969999999999996,-28.619609596269694
-0.29070000000000007,-28.662050935265643
-0.29169999999999996,-28.619609596269694
-0.29270000000000007,-28.704492274261593
-0.29369999999999996,-28.91669896924135
-0.2947000000000001,-29.14305277721976
-0.29569999999999996,-29.18549411621571
-0.2967000000000001,-29.18549411621571
-0.29769999999999996,-29.22793545521166
-0.2987000000000001,-29.440142150191413
-0.29969999999999997,-29.66649595816982
-0.3007000000000001,-29.708937297165768
-0.30169999999999997,-29.66649595816982
-0.3027000000000001,-29.751378636161718
-0.30369999999999997,-29.96358533114148
-0.3047000000000001,-30.189939139119886
-0.30569999999999997,-30.232380478115836
-0.3067000000000001,-30.189939139119886
-0.3077,-30.274821817111786
-0.3087000000000001,-30.444587173095588
-0.3097,-30.670940981073993
-0.3107000000000001,-30.71338232006995
-0.3117,-30.71338232006995
-0.3127000000000001,-30.79826499806185
-0.3137,-31.010471693041605
-0.3147000000000001,-31.23682550102001
-0.3157,-31.321708179011907
-0.3167000000000001,-31.321708179011907
-0.3177,-31.40659085700382
-0.3187000000000001,-31.661238890979522
-0.3197,-31.887592698957924
-0.3207000000000001,-31.930034037953877
-0.3217,-31.930034037953877
-0.3227000000000001,-32.05735805494172
-0.3237,-32.368594540912035
-0.3247000000000001,-32.58080123589179
-0.3257,-32.66568391388369
-0.3267000000000001,-32.70812525287965
-0.3277,-32.84959638286615
-0.3287000000000001,-33.10424441684186
-0.3297,-33.41548090281216
-0.3307000000000001,-33.54280491980002
-0.3317,-33.58524625879597
-0.3327000000000001,-33.81160006677438
-0.3337,-34.10868943974604
-0.3347000000000001,-34.462367264712285
-0.3357,-34.58969128170015
-0.3367000000000001,-34.717015298688004
-0.3377,-34.94336910666641
-0.3387000000000001,-35.240458479638065
-0.3397,-35.594136304604326
-0.3407000000000001,-35.763901660588125
-0.3417,-35.94781412957058
-0.3427000000000001,-36.16002082455034
-0.3437,-36.55613998851254
-0.3447000000000001,-36.99470049147071
-0.3457,-37.206907186450465
-0.3467000000000001,-37.376672542434264
-0.3477,-37.687909028404576
-0.3487000000000001,-38.16891087035869
-0.3497,-38.6499127123128
-0.3507000000000001,-39.046031876275016
-0.3517,-39.30067991025072
-0.3527000000000001,-39.696799074212926
-0.3537,-40.26268359415894
-0.3547000000000001,-40.78612677510901
-0.3557,-41.267128617063115
-0.35670000000000013,-41.66324778102533
-0.3577,-42.130102509980794
-0.35870000000000013,-42.79501682091736
-0.3597,-43.44578401885527
-0.36070000000000013,-43.92678586080939
-0.3617,-44.4077877027635
-0.3626999999999999,-44.97367222270952
-0.3637,-45.70932209863933
-0.3646999999999999,-46.45911908756781
-0.3657,-47.067444946509774
-0.3666999999999999,-47.67577080545174
-0.3677,-48.36897934238561
-0.3686999999999999,-49.33098302629383
-0.36970000000000003,-50.29298671020206
-0.3706999999999999,-51.127666377122424
-0.37170000000000003,-51.90575759204819
-0.3726999999999999,-52.86776127595642
-0.37370000000000003,-53.999530315848446
-0.3746999999999999,-55.17374069473642
-0.37570000000000003,-56.26306839563251
-0.3766999999999999,-57.30995475753264
-0.37770000000000004,-58.54075358841522
-0.3786999999999999,-59.9696120012789
-0.37970000000000004,-61.412617527141244
-0.3806999999999999,-62.77074037501168
-0.38170000000000004,-64.0722747708875
-0.38269999999999993,-65.60016297474175
-0.38370000000000004,-67.2978165345798
-0.38469999999999993,-69.13694122440434
-0.38570000000000004,-70.87703612323833
-0.38669999999999993,-70.91947746223428
-0.38570000000000004,-68.96717586842054
-0.38469999999999993,-67.82125971552985
-0.38370000000000004,-67.08560983960004
-0.38269999999999993,-66.29337151167562
-0.38170000000000004,-65.51528029674984
-0.3806999999999999,-64.86451309881193
-0.37970000000000004,-64.34106991786187
-0.3786999999999999,-63.860068075907755
-0.37770000000000004,-63.20930087796983
-0.3766999999999999,-62.41706255004542
-0.37570000000000003,-61.7662953521075
-0.3746999999999999,-61.242852171157445
-0.37370000000000003,-60.71940899020737
-0.3726999999999999,-59.92717066228296
-0.37170000000000003,-59.10663810836124
-0.3706999999999999,-58.39928245842871
-0.36970000000000003,-57.70607392149485
-0.3686999999999999,-57.012865384560975
-0.3677,-56.13574437864466
-0.3666999999999999,-55.17374069473642
-0.3657,-54.35320814081471
-0.3646999999999999,-53.64585249088219
-0.3637,-52.91020261495237
-0.3626999999999999,-52.033081609036046
-0.3617,-51.071077925127824
-0.36070000000000013,-50.2505453712061
-0.3597,-49.557336834272235
-0.35870000000000013,-48.76509850634781
-0.3577,-47.8879775004315
-0.35670000000000013,-46.88353247752732
-0.3557,-46.02055858460964
-0.3547000000000001,-45.27076159568118
-0.3537,-44.535111719751356
-0.3527000000000001,-43.61554937483908
-0.3517,-42.653545690930855
-0.3507000000000001,-41.74813045901723
-0.3497,-40.99833347008877
-0.3487000000000001,-40.220242255162994
-0.3477,-39.30067991025072
-0.3467000000000001,-38.33867622634249
-0.3457,-37.47570233342482
-0.3447000000000001,-36.768346683492304
-0.3437,-36.03269680756248
-0.3427000000000001,-35.11313446265021
-0.3417,-34.15113077874198
-0.3407000000000001,-33.330598224820264
-0.3397,-32.62324257488775
-0.3387000000000001,-31.972475376949827
-0.3377,-31.052913032037555
-0.3367000000000001,-30.189939139119886
-0.3357,-29.39770081119546
-0.3347000000000001,-28.704492274261593
-0.3337,-28.05372507632368
-0.3327000000000001,-27.261486748399253
-0.3317,-26.34192440348698
-0.3307000000000001,-25.60627452755716
-0.3297,-24.95550732961925
-0.3287000000000001,-24.34718147067728
-0.3277,-23.55494314275286
-0.3267000000000001,-22.67782213683654
-0.3257,-21.98461359990267
-0.3247000000000001,-21.418729079956652
-0.3237,-20.810403221014692
-0.3227000000000001,-20.06060623208622
-0.3217,-19.28251501716045
-0.3207000000000001,-18.589306480226583
-0.3197,-18.06586329927652
-0.3187000000000001,-17.542420118326454
-0.3177,-16.877505807389888
-0.3167000000000001,-16.141855931460068
-0.3157,-15.491088733522153
-0.3147000000000001,-15.01008689156804
-0.3137,-14.529085049613924
-0.3127000000000001,-13.916515056772363
-0.3117,-13.217647674639037
-0.3107000000000001,-12.651763154693022
-0.3097,-12.214617363034726
-0.3087000000000001,-11.73503023238048
-0.3077,-11.123874950838783
-0.3067000000000001,-10.514134380596953
-0.30569999999999997,-9.946835149351072
-0.3047000000000001,-9.55496011928846
-0.30369999999999997,-9.205526428221793
-0.3027000000000001,-8.638227196975913
-0.30169999999999997,-8.070927965730034
-0.3007000000000001,-7.591340835075788
-0.29969999999999997,-7.243321855308987
-0.2987000000000001,-6.893888164242324
-0.29769999999999996,-6.37044498329226
-0.2967000000000001,-5.847001802342197
-0.29569999999999996,-5.411270721983764
-0.2947000000000001,-5.105693081212917
-0.29369999999999996,-4.800115440442069
-0.29270000000000007,-4.3205283097878215
-0.29169999999999996,-3.7970851288377587
-0.29070000000000007,-3.403795387475278
-0.28969999999999996,-3.1859298472960624
-0.28870000000000007,-2.8803522065252145
-0.28769999999999996,-2.4884771764625997
-0.28670000000000007,-2.008890045808352
-0.28569999999999995,-1.6594563547416883
-0.28470000000000006,-1.4415908145624723
-0.28369999999999995,-1.1798692240874404
-0.28270000000000006,-0.8308599464107361
-0.28169999999999995,-0.3511313446265021
-0.28070000000000006,-0.04582249900262853
-0.27969999999999995,0.12863969849672777
-0.27870000000000006,0.3467457395969205
-0.27769999999999995,0.6956135461436386
-0.27670000000000006,1.0881959318561862
-0.27569999999999995,1.3934906303670611
-0.27470000000000006,1.5250587812545096
-0.27369999999999994,1.6990682711379093
-0.27270000000000005,2.048501962204573
-0.27169999999999994,2.396520941971372
-0.27070000000000005,2.658242532446404
-0.26969999999999994,2.7898106833338523
-0.26870000000000005,2.919964122921436
