Apr. 21, 2025   13:44:31
Cyclic Voltammetry
File: c:/users/guazh/data/banditlqround7_x0exp590_r20/2025-04-16-exp1147\exp1147-2025-04-21t13_37_36-h2koh\exp1147_cv_sr_400mvs_efin_-1400mv.bin
Data Source:  Experiment
Instrument Model:  CHI760E
Header: CV ran at 400 mVs
Note: 

Init E (V) = -1
High E (V) = -1
Low E (V) = -1.4
Final E (V) = -1
Init P/N = N
Scan Rate (V/s) = 0.4
Segment = 3
Sample Interval (V) = 0.001
Quiet Time (sec) = 2
Sensitivity (A/V) = 0.01
Comp R (ohm) = 1.4

Results:

Channel 1:
Segment 1:

Segment 2:

Segment 3:

Potential/V, Current/A

-1.000, 5.873e-5
-1.001, 1.666e-4
-1.002, 2.345e-4
-1.003, 3.054e-4
-1.004, 3.979e-4
-1.005, 5.058e-4
-1.006, 5.983e-4
-1.007, 6.476e-4
-1.008, 6.599e-4
-1.009, 6.630e-4
-1.010, 6.846e-4
-1.011, 7.370e-4
-1.012, 8.079e-4
-1.013, 8.542e-4
-1.014, 8.634e-4
-1.015, 8.449e-4
-1.016, 8.295e-4
-1.017, 8.449e-4
-1.018, 8.912e-4
-1.019, 9.405e-4
-1.020, 9.652e-4
-1.021, 9.528e-4
-1.022, 9.220e-4
-1.023, 9.066e-4
-1.024, 9.282e-4
-1.025, 9.744e-4
-1.026, 1.014e-3
-1.027, 1.018e-3
-1.028, 9.929e-4
-1.029, 9.590e-4
-1.030, 9.528e-4
-1.031, 9.775e-4
-1.032, 1.021e-3
-1.033, 1.051e-3
-1.034, 1.042e-3
-1.035, 1.008e-3
-1.036, 9.775e-4
-1.037, 9.806e-4
-1.038, 1.018e-3
-1.039, 1.058e-3
-1.040, 1.070e-3
-1.041, 1.051e-3
-1.042, 1.011e-3
-1.043, 9.929e-4
-1.044, 1.005e-3
-1.045, 1.045e-3
-1.046, 1.082e-3
-1.047, 1.082e-3
-1.048, 1.051e-3
-1.049, 1.014e-3
-1.050, 1.005e-3
-1.051, 1.030e-3
-1.052, 1.070e-3
-1.053, 1.095e-3
-1.054, 1.085e-3
-1.055, 1.048e-3
-1.056, 1.014e-3
-1.057, 1.018e-3
-1.058, 1.051e-3
-1.059, 1.092e-3
-1.060, 1.104e-3
-1.061, 1.082e-3
-1.062, 1.042e-3
-1.063, 1.021e-3
-1.064, 1.033e-3
-1.065, 1.073e-3
-1.066, 1.104e-3
-1.067, 1.107e-3
-1.068, 1.073e-3
-1.069, 1.036e-3
-1.070, 1.027e-3
-1.071, 1.048e-3
-1.072, 1.088e-3
-1.073, 1.116e-3
-1.074, 1.104e-3
-1.075, 1.067e-3
-1.076, 1.036e-3
-1.077, 1.036e-3
-1.078, 1.070e-3
-1.079, 1.107e-3
-1.080, 1.119e-3
-1.081, 1.098e-3
-1.082, 1.055e-3
-1.083, 1.033e-3
-1.084, 1.045e-3
-1.085, 1.085e-3
-1.086, 1.119e-3
-1.087, 1.119e-3
-1.088, 1.085e-3
-1.089, 1.048e-3
-1.090, 1.036e-3
-1.091, 1.058e-3
-1.092, 1.101e-3
-1.093, 1.122e-3
-1.094, 1.113e-3
-1.095, 1.073e-3
-1.096, 1.039e-3
-1.097, 1.042e-3
-1.098, 1.076e-3
-1.099, 1.113e-3
-1.100, 1.125e-3
-1.101, 1.101e-3
-1.102, 1.061e-3
-1.103, 1.039e-3
-1.104, 1.051e-3
-1.105, 1.092e-3
-1.106, 1.125e-3
-1.107, 1.122e-3
-1.108, 1.092e-3
-1.109, 1.051e-3
-1.110, 1.042e-3
-1.111, 1.067e-3
-1.112, 1.104e-3
-1.113, 1.129e-3
-1.114, 1.116e-3
-1.115, 1.076e-3
-1.116, 1.045e-3
-1.117, 1.045e-3
-1.118, 1.079e-3
-1.119, 1.119e-3
-1.120, 1.129e-3
-1.121, 1.107e-3
-1.122, 1.067e-3
-1.123, 1.042e-3
-1.124, 1.058e-3
-1.125, 1.095e-3
-1.126, 1.129e-3
-1.127, 1.125e-3
-1.128, 1.095e-3
-1.129, 1.058e-3
-1.130, 1.048e-3
-1.131, 1.070e-3
-1.132, 1.113e-3
-1.133, 1.135e-3
-1.134, 1.125e-3
-1.135, 1.085e-3
-1.136, 1.051e-3
-1.137, 1.055e-3
-1.138, 1.088e-3
-1.139, 1.125e-3
-1.140, 1.138e-3
-1.141, 1.113e-3
-1.142, 1.073e-3
-1.143, 1.051e-3
-1.144, 1.064e-3
-1.145, 1.104e-3
-1.146, 1.138e-3
-1.147, 1.135e-3
-1.148, 1.101e-3
-1.149, 1.064e-3
-1.150, 1.055e-3
-1.151, 1.079e-3
-1.152, 1.119e-3
-1.153, 1.141e-3
-1.154, 1.129e-3
-1.155, 1.092e-3
-1.156, 1.061e-3
-1.157, 1.061e-3
-1.158, 1.095e-3
-1.159, 1.135e-3
-1.160, 1.147e-3
-1.161, 1.125e-3
-1.162, 1.085e-3
-1.163, 1.064e-3
-1.164, 1.079e-3
-1.165, 1.119e-3
-1.166, 1.153e-3
-1.167, 1.150e-3
-1.168, 1.119e-3
-1.169, 1.082e-3
-1.170, 1.073e-3
-1.171, 1.098e-3
-1.172, 1.141e-3
-1.173, 1.166e-3
-1.174, 1.153e-3
-1.175, 1.113e-3
-1.176, 1.082e-3
-1.177, 1.085e-3
-1.178, 1.122e-3
-1.179, 1.159e-3
-1.180, 1.172e-3
-1.181, 1.147e-3
-1.182, 1.107e-3
-1.183, 1.085e-3
-1.184, 1.101e-3
-1.185, 1.144e-3
-1.186, 1.178e-3
-1.187, 1.178e-3
-1.188, 1.147e-3
-1.189, 1.110e-3
-1.190, 1.101e-3
-1.191, 1.129e-3
-1.192, 1.169e-3
-1.193, 1.196e-3
-1.194, 1.187e-3
-1.195, 1.150e-3
-1.196, 1.119e-3
-1.197, 1.119e-3
-1.198, 1.156e-3
-1.199, 1.199e-3
-1.200, 1.209e-3
-1.201, 1.190e-3
-1.202, 1.153e-3
-1.203, 1.135e-3
-1.204, 1.150e-3
-1.205, 1.193e-3
-1.206, 1.227e-3
-1.207, 1.227e-3
-1.208, 1.199e-3
-1.209, 1.169e-3
-1.210, 1.159e-3
-1.211, 1.187e-3
-1.212, 1.230e-3
-1.213, 1.255e-3
-1.214, 1.246e-3
-1.215, 1.212e-3
-1.216, 1.184e-3
-1.217, 1.190e-3
-1.218, 1.227e-3
-1.219, 1.270e-3
-1.220, 1.286e-3
-1.221, 1.267e-3
-1.222, 1.230e-3
-1.223, 1.215e-3
-1.224, 1.230e-3
-1.225, 1.273e-3
-1.226, 1.310e-3
-1.227, 1.317e-3
-1.228, 1.289e-3
-1.229, 1.261e-3
-1.230, 1.258e-3
-1.231, 1.286e-3
-1.232, 1.332e-3
-1.233, 1.360e-3
-1.234, 1.354e-3
-1.235, 1.323e-3
-1.236, 1.295e-3
-1.237, 1.307e-3
-1.238, 1.344e-3
-1.239, 1.391e-3
-1.240, 1.409e-3
-1.241, 1.397e-3
-1.242, 1.363e-3
-1.243, 1.347e-3
-1.244, 1.369e-3
-1.245, 1.415e-3
-1.246, 1.455e-3
-1.247, 1.465e-3
-1.248, 1.440e-3
-1.249, 1.412e-3
-1.250, 1.412e-3
-1.251, 1.446e-3
-1.252, 1.495e-3
-1.253, 1.529e-3
-1.254, 1.526e-3
-1.255, 1.499e-3
-1.256, 1.477e-3
-1.257, 1.492e-3
-1.258, 1.536e-3
-1.259, 1.585e-3
-1.260, 1.606e-3
-1.261, 1.597e-3
-1.262, 1.569e-3
-1.263, 1.560e-3
-1.264, 1.585e-3
-1.265, 1.637e-3
-1.266, 1.684e-3
-1.267, 1.696e-3
-1.268, 1.680e-3
-1.269, 1.656e-3
-1.270, 1.662e-3
-1.271, 1.699e-3
-1.272, 1.754e-3
-1.273, 1.795e-3
-1.274, 1.798e-3
-1.275, 1.776e-3
-1.276, 1.761e-3
-1.277, 1.779e-3
-1.278, 1.828e-3
-1.279, 1.884e-3
-1.280, 1.915e-3
-1.281, 1.909e-3
-1.282, 1.887e-3
-1.283, 1.884e-3
-1.284, 1.918e-3
-1.285, 1.976e-3
-1.286, 2.029e-3
-1.287, 2.047e-3
-1.288, 2.038e-3
-1.289, 2.023e-3
-1.290, 2.035e-3
-1.291, 2.081e-3
-1.292, 2.146e-3
-1.293, 2.192e-3
-1.294, 2.205e-3
-1.295, 2.189e-3
-1.296, 2.183e-3
-1.297, 2.208e-3
-1.298, 2.266e-3
-1.299, 2.331e-3
-1.300, 2.368e-3
-1.301, 2.371e-3
-1.302, 2.359e-3
-1.303, 2.365e-3
-1.304, 2.405e-3
-1.305, 2.473e-3
-1.306, 2.538e-3
-1.307, 2.565e-3
-1.308, 2.565e-3
-1.309, 2.559e-3
-1.310, 2.581e-3
-1.311, 2.633e-3
-1.312, 2.707e-3
-1.313, 2.766e-3
-1.314, 2.784e-3
-1.315, 2.778e-3
-1.316, 2.781e-3
-1.317, 2.818e-3
-1.318, 2.886e-3
-1.319, 2.960e-3
-1.320, 3.003e-3
-1.321, 3.019e-3
-1.322, 3.015e-3
-1.323, 3.031e-3
-1.324, 3.080e-3
-1.325, 3.154e-3
-1.326, 3.228e-3
-1.327, 3.265e-3
-1.328, 3.274e-3
-1.329, 3.281e-3
-1.330, 3.311e-3
-1.331, 3.376e-3
-1.332, 3.456e-3
-1.333, 3.524e-3
-1.334, 3.558e-3
-1.335, 3.564e-3
-1.336, 3.577e-3
-1.337, 3.626e-3
-1.338, 3.703e-3
-1.339, 3.786e-3
-1.340, 3.848e-3
-1.341, 3.873e-3
-1.342, 3.882e-3
-1.343, 3.910e-3
-1.344, 3.974e-3
-1.345, 4.061e-3
-1.346, 4.147e-3
-1.347, 4.196e-3
-1.348, 4.215e-3
-1.349, 4.230e-3
-1.350, 4.273e-3
-1.351, 4.344e-3
-1.352, 4.434e-3
-1.353, 4.511e-3
-1.354, 4.554e-3
-1.355, 4.569e-3
-1.356, 4.594e-3
-1.357, 4.653e-3
-1.358, 4.742e-3
-1.359, 4.838e-3
-1.360, 4.912e-3
-1.361, 4.952e-3
-1.362, 4.976e-3
-1.363, 5.010e-3
-1.364, 5.072e-3
-1.365, 5.161e-3
-1.366, 5.254e-3
-1.367, 5.319e-3
-1.368, 5.349e-3
-1.369, 5.377e-3
-1.370, 5.430e-3
-1.371, 5.516e-3
-1.372, 5.621e-3
-1.373, 5.707e-3
-1.374, 5.759e-3
-1.375, 5.787e-3
-1.376, 5.824e-3
-1.377, 5.895e-3
-1.378, 5.997e-3
-1.379, 6.102e-3
-1.380, 6.182e-3
-1.381, 6.231e-3
-1.382, 6.262e-3
-1.383, 6.314e-3
-1.384, 6.398e-3
-1.385, 6.506e-3
-1.386, 6.610e-3
-1.387, 6.684e-3
-1.388, 6.724e-3
-1.389, 6.758e-3
-1.390, 6.820e-3
-1.391, 6.916e-3
-1.392, 7.030e-3
-1.393, 7.128e-3
-1.394, 7.193e-3
-1.395, 7.230e-3
-1.396, 7.273e-3
-1.397, 7.350e-3
-1.398, 7.461e-3
-1.399, 7.575e-3
-1.400, 7.560e-3
-1.399, 7.347e-3
-1.398, 7.150e-3
-1.397, 6.993e-3
-1.396, 6.882e-3
-1.395, 6.811e-3
-1.394, 6.740e-3
-1.393, 6.641e-3
-1.392, 6.518e-3
-1.391, 6.388e-3
-1.390, 6.287e-3
-1.389, 6.222e-3
-1.388, 6.179e-3
-1.387, 6.117e-3
-1.386, 6.021e-3
-1.385, 5.904e-3
-1.384, 5.793e-3
-1.383, 5.713e-3
-1.382, 5.664e-3
-1.381, 5.624e-3
-1.380, 5.556e-3
-1.379, 5.454e-3
-1.378, 5.340e-3
-1.377, 5.238e-3
-1.376, 5.174e-3
-1.375, 5.137e-3
-1.374, 5.093e-3
-1.373, 5.019e-3
-1.372, 4.915e-3
-1.371, 4.807e-3
-1.370, 4.720e-3
-1.369, 4.671e-3
-1.368, 4.637e-3
-1.367, 4.588e-3
-1.366, 4.501e-3
-1.365, 4.391e-3
-1.364, 4.289e-3
-1.363, 4.224e-3
-1.362, 4.187e-3
-1.361, 4.159e-3
-1.360, 4.101e-3
-1.359, 4.008e-3
-1.358, 3.897e-3
-1.357, 3.808e-3
-1.356, 3.749e-3
-1.355, 3.721e-3
-1.354, 3.688e-3
-1.353, 3.623e-3
-1.352, 3.527e-3
-1.351, 3.425e-3
-1.350, 3.348e-3
-1.349, 3.308e-3
-1.348, 3.287e-3
-1.347, 3.247e-3
-1.346, 3.173e-3
-1.345, 3.074e-3
-1.344, 2.985e-3
-1.343, 2.926e-3
-1.342, 2.898e-3
-1.341, 2.880e-3
-1.340, 2.834e-3
-1.339, 2.753e-3
-1.338, 2.658e-3
-1.337, 2.578e-3
-1.336, 2.534e-3
-1.335, 2.516e-3
-1.334, 2.491e-3
-1.333, 2.436e-3
-1.332, 2.346e-3
-1.331, 2.254e-3
-1.330, 2.189e-3
-1.329, 2.155e-3
-1.328, 2.143e-3
-1.327, 2.112e-3
-1.326, 2.047e-3
-1.325, 1.958e-3
-1.324, 1.875e-3
-1.323, 1.825e-3
-1.322, 1.810e-3
-1.321, 1.798e-3
-1.320, 1.761e-3
-1.319, 1.690e-3
-1.318, 1.600e-3
-1.317, 1.529e-3
-1.316, 1.495e-3
-1.315, 1.489e-3
-1.314, 1.477e-3
-1.313, 1.428e-3
-1.312, 1.354e-3
-1.311, 1.270e-3
-1.310, 1.218e-3
-1.309, 1.199e-3
-1.308, 1.196e-3
-1.307, 1.175e-3
-1.306, 1.122e-3
-1.305, 1.039e-3
-1.304, 9.652e-4
-1.303, 9.251e-4
-1.302, 9.189e-4
-1.301, 9.189e-4
-1.300, 8.912e-4
-1.299, 8.295e-4
-1.298, 7.524e-4
-1.297, 6.908e-4
-1.296, 6.692e-4
-1.295, 6.692e-4
-1.294, 6.661e-4
-1.293, 6.291e-4
-1.292, 5.613e-4
-1.291, 4.904e-4
-1.290, 4.441e-4
-1.289, 4.349e-4
-1.288, 4.410e-4
-1.287, 4.318e-4
-1.286, 3.855e-4
-1.285, 3.146e-4
-1.284, 2.499e-4
-1.283, 2.221e-4
-1.282, 2.221e-4
-1.281, 2.314e-4
-1.280, 2.129e-4
-1.279, 1.574e-4
-1.278, 8.957e-5
-1.277, 3.715e-5
-1.276, 2.174e-5
-1.275, 3.407e-5
-1.274, 4.024e-5
-1.273, 9.405e-6
-1.272, -4.917e-5
-1.271, -1.139e-4
-1.270, -1.509e-4
-1.269, -1.509e-4
-1.268, -1.355e-4
-1.267, -1.355e-4
-1.266, -1.756e-4
-1.265, -2.372e-4
-1.264, -2.897e-4
-1.263, -3.143e-4
-1.262, -3.020e-4
-1.261, -2.866e-4
-1.260, -2.989e-4
-1.259, -3.452e-4
-1.258, -4.037e-4
-1.257, -4.500e-4
-1.256, -4.561e-4
-1.255, -4.376e-4
-1.254, -4.253e-4
-1.253, -4.469e-4
-1.252, -4.993e-4
-1.251, -5.548e-4
-1.250, -5.826e-4
-1.249, -5.764e-4
-1.248, -5.548e-4
-1.247, -5.486e-4
-1.246, -5.795e-4
-1.245, -6.380e-4
-1.244, -6.874e-4
-1.243, -6.997e-4
-1.242, -6.843e-4
-1.241, -6.627e-4
-1.240, -6.658e-4
-1.239, -7.059e-4
-1.238, -7.614e-4
-1.237, -7.984e-4
-1.236, -8.015e-4
-1.235, -7.768e-4
-1.234, -7.552e-4
-1.233, -7.737e-4
-1.232, -8.169e-4
-1.231, -8.693e-4
-1.230, -8.939e-4
-1.229, -8.847e-4
-1.228, -8.569e-4
-1.227, -8.477e-4
-1.226, -8.724e-4
-1.225, -9.217e-4
-1.224, -9.649e-4
-1.223, -9.772e-4
-1.222, -9.556e-4
-1.221, -9.279e-4
-1.220, -9.279e-4
-1.219, -9.618e-4
-1.218, -1.014e-3
-1.217, -1.048e-3
-1.216, -1.045e-3
-1.215, -1.014e-3
-1.214, -9.926e-4
-1.213, -1.005e-3
-1.212, -1.045e-3
-1.211, -1.094e-3
-1.210, -1.113e-3
-1.209, -1.097e-3
-1.208, -1.067e-3
-1.207, -1.051e-3
-1.206, -1.073e-3
-1.205, -1.122e-3
-1.204, -1.162e-3
-1.203, -1.165e-3
-1.202, -1.141e-3
-1.201, -1.110e-3
-1.200, -1.104e-3
-1.199, -1.138e-3
-1.198, -1.184e-3
-1.197, -1.215e-3
-1.196, -1.208e-3
-1.195, -1.175e-3
-1.194, -1.150e-3
-1.193, -1.156e-3
-1.192, -1.196e-3
-1.191, -1.239e-3
-1.190, -1.255e-3
-1.189, -1.236e-3
-1.188, -1.202e-3
-1.187, -1.184e-3
-1.186, -1.202e-3
-1.185, -1.249e-3
-1.184, -1.286e-3
-1.183, -1.289e-3
-1.182, -1.264e-3
-1.181, -1.230e-3
-1.180, -1.224e-3
-1.179, -1.252e-3
-1.178, -1.298e-3
-1.177, -1.326e-3
-1.176, -1.316e-3
-1.175, -1.282e-3
-1.174, -1.255e-3
-1.173, -1.261e-3
-1.172, -1.298e-3
-1.171, -1.338e-3
-1.170, -1.353e-3
-1.169, -1.335e-3
-1.168, -1.298e-3
-1.167, -1.279e-3
-1.166, -1.298e-3
-1.165, -1.338e-3
-1.164, -1.375e-3
-1.163, -1.375e-3
-1.162, -1.344e-3
-1.161, -1.310e-3
-1.160, -1.304e-3
-1.159, -1.332e-3
-1.158, -1.375e-3
-1.157, -1.403e-3
-1.156, -1.390e-3
-1.155, -1.356e-3
-1.154, -1.326e-3
-1.153, -1.329e-3
-1.152, -1.366e-3
-1.151, -1.406e-3
-1.150, -1.418e-3
-1.149, -1.396e-3
-1.148, -1.359e-3
-1.147, -1.338e-3
-1.146, -1.353e-3
-1.145, -1.393e-3
-1.144, -1.427e-3
-1.143, -1.430e-3
-1.142, -1.400e-3
-1.141, -1.363e-3
-1.140, -1.356e-3
-1.139, -1.381e-3
-1.138, -1.424e-3
-1.137, -1.446e-3
-1.136, -1.433e-3
-1.135, -1.396e-3
-1.134, -1.366e-3
-1.133, -1.369e-3
-1.132, -1.403e-3
-1.131, -1.443e-3
-1.130, -1.455e-3
-1.129, -1.433e-3
-1.128, -1.393e-3
-1.127, -1.369e-3
-1.126, -1.384e-3
-1.125, -1.424e-3
-1.124, -1.458e-3
-1.123, -1.455e-3
-1.122, -1.424e-3
-1.121, -1.387e-3
-1.120, -1.378e-3
-1.119, -1.403e-3
-1.118, -1.446e-3
-1.117, -1.467e-3
-1.116, -1.455e-3
-1.115, -1.418e-3
-1.114, -1.384e-3
-1.113, -1.387e-3
-1.112, -1.421e-3
-1.111, -1.458e-3
-1.110, -1.470e-3
-1.109, -1.446e-3
-1.108, -1.406e-3
-1.107, -1.384e-3
-1.106, -1.396e-3
-1.105, -1.440e-3
-1.104, -1.474e-3
-1.103, -1.470e-3
-1.102, -1.440e-3
-1.101, -1.403e-3
-1.100, -1.390e-3
-1.099, -1.415e-3
-1.098, -1.455e-3
-1.097, -1.477e-3
-1.096, -1.464e-3
-1.095, -1.424e-3
-1.094, -1.390e-3
-1.093, -1.393e-3
-1.092, -1.430e-3
-1.091, -1.467e-3
-1.090, -1.477e-3
-1.089, -1.455e-3
-1.088, -1.415e-3
-1.087, -1.393e-3
-1.086, -1.406e-3
-1.085, -1.446e-3
-1.084, -1.477e-3
-1.083, -1.474e-3
-1.082, -1.443e-3
-1.081, -1.406e-3
-1.080, -1.396e-3
-1.079, -1.421e-3
-1.078, -1.461e-3
-1.077, -1.486e-3
-1.076, -1.474e-3
-1.075, -1.437e-3
-1.074, -1.406e-3
-1.073, -1.409e-3
-1.072, -1.443e-3
-1.071, -1.480e-3
-1.070, -1.492e-3
-1.069, -1.470e-3
-1.068, -1.433e-3
-1.067, -1.409e-3
-1.066, -1.424e-3
-1.065, -1.464e-3
-1.064, -1.495e-3
-1.063, -1.495e-3
-1.062, -1.464e-3
-1.061, -1.427e-3
-1.060, -1.418e-3
-1.059, -1.440e-3
-1.058, -1.483e-3
-1.057, -1.507e-3
-1.056, -1.492e-3
-1.055, -1.458e-3
-1.054, -1.427e-3
-1.053, -1.430e-3
-1.052, -1.467e-3
-1.051, -1.504e-3
-1.050, -1.517e-3
-1.049, -1.495e-3
-1.048, -1.455e-3
-1.047, -1.433e-3
-1.046, -1.449e-3
-1.045, -1.489e-3
-1.044, -1.523e-3
-1.043, -1.520e-3
-1.042, -1.486e-3
-1.041, -1.452e-3
-1.040, -1.443e-3
-1.039, -1.467e-3
-1.038, -1.507e-3
-1.037, -1.532e-3
-1.036, -1.520e-3
-1.035, -1.483e-3
-1.034, -1.452e-3
-1.033, -1.455e-3
-1.032, -1.489e-3
-1.031, -1.529e-3
-1.030, -1.541e-3
-1.029, -1.520e-3
-1.028, -1.483e-3
-1.027, -1.458e-3
-1.026, -1.477e-3
-1.025, -1.517e-3
-1.024, -1.551e-3
-1.023, -1.551e-3
-1.022, -1.520e-3
-1.021, -1.483e-3
-1.020, -1.474e-3
-1.019, -1.501e-3
-1.018, -1.544e-3
-1.017, -1.566e-3
-1.016, -1.554e-3
-1.015, -1.520e-3
-1.014, -1.486e-3
-1.013, -1.489e-3
-1.012, -1.526e-3
-1.011, -1.566e-3
-1.010, -1.575e-3
-1.009, -1.554e-3
-1.008, -1.514e-3
-1.007, -1.495e-3
-1.006, -1.511e-3
-1.005, -1.554e-3
-1.004, -1.588e-3
-1.003, -1.588e-3
-1.002, -1.560e-3
-1.001, -1.526e-3
