Apr. 16, 2025   21:55:30
Cyclic Voltammetry
File: c:/users/guazh/data/banditlqround7_x0exp590_r20/2025-04-16-exp1102\exp1102-2025-04-16t21_50_35-h2koh\exp1102_cv_50mvs_efin_-1400mv.bin
Data Source:  Experiment
Instrument Model:  CHI760E
Header: CV ran at 50 mVs
Note: 

Init E (V) = -1
High E (V) = -1
Low E (V) = -1.4
Final E (V) = -1
Init P/N = N
Scan Rate (V/s) = 0.05
Segment = 7
Sample Interval (V) = 0.001
Quiet Time (sec) = 60
Sensitivity (A/V) = 0.001
Comp R (ohm) = 1.7

Results:

Channel 1:
Segment 1:
Ep = -1.256V
ip = 2.537e-4A
Ah = 3.480e-4C

Segment 2:

Segment 3:

Segment 4:

Segment 5:

Segment 6:

Segment 7:

Potential/V, Current/A

-1.000, 6.064e-6
-1.001, 6.440e-6
-1.002, 6.547e-6
-1.003, 6.564e-6
-1.004, 6.592e-6
-1.005, 6.703e-6
-1.006, 6.811e-6
-1.007, 6.846e-6
-1.008, 6.880e-6
-1.009, 6.889e-6
-1.010, 6.962e-6
-1.011, 7.050e-6
-1.012, 7.104e-6
-1.013, 7.119e-6
-1.014, 7.161e-6
-1.015, 7.227e-6
-1.016, 7.307e-6
-1.017, 7.351e-6
-1.018, 7.372e-6
-1.019, 7.395e-6
-1.020, 7.485e-6
-1.021, 7.604e-6
-1.022, 7.638e-6
-1.023, 7.629e-6
-1.024, 7.683e-6
-1.025, 7.767e-6
-1.026, 7.863e-6
-1.027, 7.876e-6
-1.028, 7.886e-6
-1.029, 7.947e-6
-1.030, 8.011e-6
-1.031, 8.164e-6
-1.032, 8.185e-6
-1.033, 8.197e-6
-1.034, 8.270e-6
-1.035, 8.362e-6
-1.036, 8.460e-6
-1.037, 8.559e-6
-1.038, 8.588e-6
-1.039, 8.645e-6
-1.040, 8.751e-6
-1.041, 8.852e-6
-1.042, 8.936e-6
-1.043, 9.001e-6
-1.044, 9.076e-6
-1.045, 9.197e-6
-1.046, 9.312e-6
-1.047, 9.460e-6
-1.048, 9.460e-6
-1.049, 9.579e-6
-1.050, 9.727e-6
-1.051, 9.863e-6
-1.052, 9.956e-6
-1.053, 1.007e-5
-1.054, 1.017e-5
-1.055, 1.032e-5
-1.056, 1.048e-5
-1.057, 1.063e-5
-1.058, 1.075e-5
-1.059, 1.085e-5
-1.060, 1.102e-5
-1.061, 1.120e-5
-1.062, 1.143e-5
-1.063, 1.154e-5
-1.064, 1.167e-5
-1.065, 1.188e-5
-1.066, 1.212e-5
-1.067, 1.233e-5
-1.068, 1.242e-5
-1.069, 1.262e-5
-1.070, 1.283e-5
-1.071, 1.311e-5
-1.072, 1.335e-5
-1.073, 1.350e-5
-1.074, 1.373e-5
-1.075, 1.401e-5
-1.076, 1.431e-5
-1.077, 1.457e-5
-1.078, 1.480e-5
-1.079, 1.505e-5
-1.080, 1.535e-5
-1.081, 1.571e-5
-1.082, 1.601e-5
-1.083, 1.624e-5
-1.084, 1.656e-5
-1.085, 1.693e-5
-1.086, 1.730e-5
-1.087, 1.769e-5
-1.088, 1.799e-5
-1.089, 1.837e-5
-1.090, 1.880e-5
-1.091, 1.923e-5
-1.092, 1.968e-5
-1.093, 2.008e-5
-1.094, 2.049e-5
-1.095, 2.099e-5
-1.096, 2.150e-5
-1.097, 2.201e-5
-1.098, 2.250e-5
-1.099, 2.300e-5
-1.100, 2.353e-5
-1.101, 2.417e-5
-1.102, 2.478e-5
-1.103, 2.534e-5
-1.104, 2.588e-5
-1.105, 2.656e-5
-1.106, 2.725e-5
-1.107, 2.797e-5
-1.108, 2.863e-5
-1.109, 2.930e-5
-1.110, 3.005e-5
-1.111, 3.086e-5
-1.112, 3.163e-5
-1.113, 3.239e-5
-1.114, 3.315e-5
-1.115, 3.398e-5
-1.116, 3.492e-5
-1.117, 3.579e-5
-1.118, 3.660e-5
-1.119, 3.754e-5
-1.120, 3.845e-5
-1.121, 3.946e-5
-1.122, 4.048e-5
-1.123, 4.138e-5
-1.124, 4.239e-5
-1.125, 4.343e-5
-1.126, 4.450e-5
-1.127, 4.565e-5
-1.128, 4.666e-5
-1.129, 4.772e-5
-1.130, 4.886e-5
-1.131, 5.003e-5
-1.132, 5.123e-5
-1.133, 5.242e-5
-1.134, 5.353e-5
-1.135, 5.477e-5
-1.136, 5.599e-5
-1.137, 5.725e-5
-1.138, 5.849e-5
-1.139, 5.973e-5
-1.140, 6.100e-5
-1.141, 6.237e-5
-1.142, 6.371e-5
-1.143, 6.505e-5
-1.144, 6.630e-5
-1.145, 6.774e-5
-1.146, 6.918e-5
-1.147, 7.059e-5
-1.148, 7.199e-5
-1.149, 7.339e-5
-1.150, 7.486e-5
-1.151, 7.641e-5
-1.152, 7.794e-5
-1.153, 7.945e-5
-1.154, 8.094e-5
-1.155, 8.247e-5
-1.156, 8.411e-5
-1.157, 8.575e-5
-1.158, 8.728e-5
-1.159, 8.884e-5
-1.160, 9.050e-5
-1.161, 9.216e-5
-1.162, 9.389e-5
-1.163, 9.549e-5
-1.164, 9.711e-5
-1.165, 9.873e-5
-1.166, 1.005e-4
-1.167, 1.021e-4
-1.168, 1.038e-4
-1.169, 1.054e-4
-1.170, 1.070e-4
-1.171, 1.086e-4
-1.172, 1.101e-4
-1.173, 1.115e-4
-1.174, 1.129e-4
-1.175, 1.142e-4
-1.176, 1.155e-4
-1.177, 1.168e-4
-1.178, 1.179e-4
-1.179, 1.189e-4
-1.180, 1.200e-4
-1.181, 1.209e-4
-1.182, 1.217e-4
-1.183, 1.225e-4
-1.184, 1.231e-4
-1.185, 1.238e-4
-1.186, 1.244e-4
-1.187, 1.249e-4
-1.188, 1.254e-4
-1.189, 1.258e-4
-1.190, 1.263e-4
-1.191, 1.268e-4
-1.192, 1.273e-4
-1.193, 1.279e-4
-1.194, 1.284e-4
-1.195, 1.292e-4
-1.196, 1.301e-4
-1.197, 1.310e-4
-1.198, 1.320e-4
-1.199, 1.331e-4
-1.200, 1.345e-4
-1.201, 1.360e-4
-1.202, 1.377e-4
-1.203, 1.394e-4
-1.204, 1.412e-4
-1.205, 1.433e-4
-1.206, 1.457e-4
-1.207, 1.482e-4
-1.208, 1.506e-4
-1.209, 1.531e-4
-1.210, 1.557e-4
-1.211, 1.585e-4
-1.212, 1.614e-4
-1.213, 1.643e-4
-1.214, 1.672e-4
-1.215, 1.704e-4
-1.216, 1.736e-4
-1.217, 1.770e-4
-1.218, 1.803e-4
-1.219, 1.834e-4
-1.220, 1.868e-4
-1.221, 1.902e-4
-1.222, 1.936e-4
-1.223, 1.970e-4
-1.224, 2.003e-4
-1.225, 2.038e-4
-1.226, 2.072e-4
-1.227, 2.107e-4
-1.228, 2.142e-4
-1.229, 2.178e-4
-1.230, 2.212e-4
-1.231, 2.248e-4
-1.232, 2.284e-4
-1.233, 2.318e-4
-1.234, 2.349e-4
-1.235, 2.380e-4
-1.236, 2.411e-4
-1.237, 2.440e-4
-1.238, 2.469e-4
-1.239, 2.496e-4
-1.240, 2.523e-4
-1.241, 2.551e-4
-1.242, 2.577e-4
-1.243, 2.601e-4
-1.244, 2.622e-4
-1.245, 2.641e-4
-1.246, 2.659e-4
-1.247, 2.676e-4
-1.248, 2.691e-4
-1.249, 2.703e-4
-1.250, 2.715e-4
-1.251, 2.725e-4
-1.252, 2.733e-4
-1.253, 2.738e-4
-1.254, 2.741e-4
-1.255, 2.743e-4
-1.256, 2.743e-4
-1.257, 2.742e-4
-1.258, 2.739e-4
-1.259, 2.734e-4
-1.260, 2.728e-4
-1.261, 2.721e-4
-1.262, 2.712e-4
-1.263, 2.701e-4
-1.264, 2.688e-4
-1.265, 2.674e-4
-1.266, 2.660e-4
-1.267, 2.644e-4
-1.268, 2.627e-4
-1.269, 2.609e-4
-1.270, 2.589e-4
-1.271, 2.570e-4
-1.272, 2.550e-4
-1.273, 2.529e-4
-1.274, 2.507e-4
-1.275, 2.485e-4
-1.276, 2.463e-4
-1.277, 2.442e-4
-1.278, 2.419e-4
-1.279, 2.395e-4
-1.280, 2.371e-4
-1.281, 2.349e-4
-1.282, 2.326e-4
-1.283, 2.301e-4
-1.284, 2.276e-4
-1.285, 2.251e-4
-1.286, 2.227e-4
-1.287, 2.204e-4
-1.288, 2.181e-4
-1.289, 2.158e-4
-1.290, 2.135e-4
-1.291, 2.115e-4
-1.292, 2.094e-4
-1.293, 2.073e-4
-1.294, 2.054e-4
-1.295, 2.034e-4
-1.296, 2.014e-4
-1.297, 1.996e-4
-1.298, 1.977e-4
-1.299, 1.958e-4
-1.300, 1.941e-4
-1.301, 1.924e-4
-1.302, 1.906e-4
-1.303, 1.886e-4
-1.304, 1.867e-4
-1.305, 1.848e-4
-1.306, 1.831e-4
-1.307, 1.814e-4
-1.308, 1.794e-4
-1.309, 1.773e-4
-1.310, 1.754e-4
-1.311, 1.736e-4
-1.312, 1.717e-4
-1.313, 1.696e-4
-1.314, 1.674e-4
-1.315, 1.650e-4
-1.316, 1.628e-4
-1.317, 1.605e-4
-1.318, 1.582e-4
-1.319, 1.560e-4
-1.320, 1.535e-4
-1.321, 1.513e-4
-1.322, 1.489e-4
-1.323, 1.465e-4
-1.324, 1.441e-4
-1.325, 1.418e-4
-1.326, 1.395e-4
-1.327, 1.373e-4
-1.328, 1.350e-4
-1.329, 1.325e-4
-1.330, 1.300e-4
-1.331, 1.278e-4
-1.332, 1.255e-4
-1.333, 1.233e-4
-1.334, 1.210e-4
-1.335, 1.187e-4
-1.336, 1.166e-4
-1.337, 1.146e-4
-1.338, 1.124e-4
-1.339, 1.102e-4
-1.340, 1.082e-4
-1.341, 1.063e-4
-1.342, 1.044e-4
-1.343, 1.024e-4
-1.344, 1.003e-4
-1.345, 9.822e-5
-1.346, 9.625e-5
-1.347, 9.438e-5
-1.348, 9.271e-5
-1.349, 9.099e-5
-1.350, 8.936e-5
-1.351, 8.778e-5
-1.352, 8.611e-5
-1.353, 8.452e-5
-1.354, 8.291e-5
-1.355, 8.139e-5
-1.356, 7.993e-5
-1.357, 7.842e-5
-1.358, 7.701e-5
-1.359, 7.555e-5
-1.360, 7.415e-5
-1.361, 7.304e-5
-1.362, 7.194e-5
-1.363, 7.078e-5
-1.364, 6.956e-5
-1.365, 6.847e-5
-1.366, 6.741e-5
-1.367, 6.636e-5
-1.368, 6.517e-5
-1.369, 6.407e-5
-1.370, 6.317e-5
-1.371, 6.238e-5
-1.372, 6.169e-5
-1.373, 6.104e-5
-1.374, 6.017e-5
-1.375, 5.920e-5
-1.376, 5.864e-5
-1.377, 5.803e-5
-1.378, 5.746e-5
-1.379, 5.691e-5
-1.380, 5.636e-5
-1.381, 5.601e-5
-1.382, 5.593e-5
-1.383, 5.554e-5
-1.384, 5.525e-5
-1.385, 5.473e-5
-1.386, 5.428e-5
-1.387, 5.387e-5
-1.388, 5.364e-5
-1.389, 5.340e-5
-1.390, 5.308e-5
-1.391, 5.310e-5
-1.392, 5.292e-5
-1.393, 5.276e-5
-1.394, 5.258e-5
-1.395, 5.227e-5
-1.396, 5.223e-5
-1.397, 5.199e-5
-1.398, 5.216e-5
-1.399, 5.178e-5
-1.400, 4.791e-5
-1.399, 4.517e-5
-1.398, 4.316e-5
-1.397, 4.137e-5
-1.396, 3.996e-5
-1.395, 3.853e-5
-1.394, 3.784e-5
-1.393, 3.584e-5
-1.392, 3.479e-5
-1.391, 3.364e-5
-1.390, 3.222e-5
-1.389, 3.105e-5
-1.388, 3.000e-5
-1.387, 2.903e-5
-1.386, 2.805e-5
-1.385, 2.727e-5
-1.384, 2.643e-5
-1.383, 2.553e-5
-1.382, 2.475e-5
-1.381, 2.395e-5
-1.380, 2.317e-5
-1.379, 2.245e-5
-1.378, 2.182e-5
-1.377, 2.122e-5
-1.376, 2.056e-5
-1.375, 1.999e-5
-1.374, 1.943e-5
-1.373, 1.898e-5
-1.372, 1.847e-5
-1.371, 1.783e-5
-1.370, 1.735e-5
-1.369, 1.686e-5
-1.368, 1.644e-5
-1.367, 1.607e-5
-1.366, 1.557e-5
-1.365, 1.507e-5
-1.364, 1.473e-5
-1.363, 1.435e-5
-1.362, 1.408e-5
-1.361, 1.366e-5
-1.360, 1.330e-5
-1.359, 1.297e-5
-1.358, 1.269e-5
-1.357, 1.237e-5
-1.356, 1.199e-5
-1.355, 1.167e-5
-1.354, 1.142e-5
-1.353, 1.118e-5
-1.352, 1.099e-5
-1.351, 1.072e-5
-1.350, 1.048e-5
-1.349, 1.025e-5
-1.348, 1.006e-5
-1.347, 9.838e-6
-1.346, 9.545e-6
-1.345, 9.298e-6
-1.344, 9.116e-6
-1.343, 8.955e-6
-1.342, 8.787e-6
-1.341, 8.531e-6
-1.340, 8.293e-6
-1.339, 8.106e-6
-1.338, 8.000e-6
-1.337, 7.831e-6
-1.336, 7.631e-6
-1.335, 7.441e-6
-1.334, 7.319e-6
-1.333, 7.184e-6
-1.332, 7.008e-6
-1.331, 6.827e-6
-1.330, 6.671e-6
-1.329, 6.569e-6
-1.328, 6.492e-6
-1.327, 6.309e-6
-1.326, 6.100e-6
-1.325, 5.937e-6
-1.324, 5.770e-6
-1.323, 5.676e-6
-1.322, 5.571e-6
-1.321, 5.430e-6
-1.320, 5.301e-6
-1.319, 5.214e-6
-1.318, 5.093e-6
-1.317, 4.992e-6
-1.316, 4.839e-6
-1.315, 4.674e-6
-1.314, 4.527e-6
-1.313, 4.512e-6
-1.312, 4.468e-6
-1.311, 4.281e-6
-1.310, 4.110e-6
-1.309, 4.076e-6
-1.308, 4.005e-6
-1.307, 3.943e-6
-1.306, 3.864e-6
-1.305, 3.659e-6
-1.304, 3.572e-6
-1.303, 3.541e-6
-1.302, 3.409e-6
-1.301, 3.294e-6
-1.300, 3.138e-6
-1.299, 3.085e-6
-1.298, 3.083e-6
-1.297, 2.964e-6
-1.296, 2.881e-6
-1.295, 2.762e-6
-1.294, 2.632e-6
-1.293, 2.627e-6
-1.292, 2.561e-6
-1.291, 2.421e-6
-1.290, 2.312e-6
-1.289, 2.254e-6
-1.288, 2.256e-6
-1.287, 2.185e-6
-1.286, 2.028e-6
-1.285, 1.950e-6
-1.284, 1.900e-6
-1.283, 1.872e-6
-1.282, 1.824e-6
-1.281, 1.693e-6
-1.280, 1.545e-6
-1.279, 1.444e-6
-1.278, 1.480e-6
-1.277, 1.450e-6
-1.276, 1.340e-6
-1.275, 1.209e-6
-1.274, 1.210e-6
-1.273, 1.173e-6
-1.272, 1.200e-6
-1.271, 1.064e-6
-1.270, 9.262e-7
-1.269, 9.006e-7
-1.268, 8.700e-7
-1.267, 8.078e-7
-1.266, 7.605e-7
-1.265, 6.352e-7
-1.264, 6.875e-7
-1.263, 6.638e-7
-1.262, 6.608e-7
-1.261, 5.908e-7
-1.260, 5.030e-7
-1.259, 4.398e-7
-1.258, 3.708e-7
-1.257, 3.422e-7
-1.256, 2.474e-7
-1.255, 1.438e-7
-1.254, 9.452e-8
-1.253, 1.330e-7
-1.252, 1.636e-7
-1.251, 4.519e-8
-1.250, -3.867e-8
-1.249, -8.504e-8
-1.248, -6.926e-8
-1.247, -1.373e-7
-1.246, -2.074e-7
-1.245, -3.347e-7
-1.244, -3.080e-7
-1.243, -2.804e-7
-1.242, -3.485e-7
-1.241, -4.215e-7
-1.240, -5.043e-7
-1.239, -5.113e-7
-1.238, -5.537e-7
-1.237, -5.339e-7
-1.236, -5.971e-7
-1.235, -7.076e-7
-1.234, -7.362e-7
-1.233, -7.411e-7
-1.232, -7.007e-7
-1.231, -7.934e-7
-1.230, -9.187e-7
-1.229, -9.503e-7
-1.228, -9.276e-7
-1.227, -9.532e-7
-1.226, -1.008e-6
-1.225, -1.122e-6
-1.224, -1.054e-6
-1.223, -9.730e-7
-1.222, -9.384e-7
-1.221, -9.562e-7
-1.220, -1.079e-6
-1.219, -1.123e-6
-1.218, -1.095e-6
-1.217, -1.156e-6
-1.216, -1.204e-6
-1.215, -1.257e-6
-1.214, -1.244e-6
-1.213, -1.167e-6
-1.212, -1.228e-6
-1.211, -1.258e-6
-1.210, -1.346e-6
-1.209, -1.389e-6
-1.208, -1.369e-6
-1.207, -1.336e-6
-1.206, -1.354e-6
-1.205, -1.423e-6
-1.204, -1.441e-6
-1.203, -1.391e-6
-1.202, -1.412e-6
-1.201, -1.503e-6
-1.200, -1.527e-6
-1.199, -1.518e-6
-1.198, -1.492e-6
-1.197, -1.430e-6
-1.196, -1.502e-6
-1.195, -1.572e-6
-1.194, -1.611e-6
-1.193, -1.606e-6
-1.192, -1.556e-6
-1.191, -1.573e-6
-1.190, -1.663e-6
-1.189, -1.597e-6
-1.188, -1.609e-6
-1.187, -1.596e-6
-1.186, -1.612e-6
-1.185, -1.693e-6
-1.184, -1.751e-6
-1.183, -1.708e-6
-1.182, -1.710e-6
-1.181, -1.728e-6
-1.180, -1.780e-6
-1.179, -1.801e-6
-1.178, -1.753e-6
-1.177, -1.746e-6
-1.176, -1.837e-6
-1.175, -1.843e-6
-1.174, -1.876e-6
-1.173, -1.791e-6
-1.172, -1.759e-6
-1.171, -1.791e-6
-1.170, -1.847e-6
-1.169, -1.932e-6
-1.168, -1.881e-6
-1.167, -1.814e-6
-1.166, -1.887e-6
-1.165, -1.909e-6
-1.164, -1.957e-6
-1.163, -1.903e-6
-1.162, -1.892e-6
-1.161, -1.899e-6
-1.160, -1.986e-6
-1.159, -1.985e-6
-1.158, -1.969e-6
-1.157, -1.884e-6
-1.156, -1.868e-6
-1.155, -1.979e-6
-1.154, -1.965e-6
-1.153, -1.964e-6
-1.152, -1.912e-6
-1.151, -1.957e-6
-1.150, -2.021e-6
-1.149, -2.027e-6
-1.148, -2.010e-6
-1.147, -1.943e-6
-1.146, -1.976e-6
-1.145, -2.087e-6
-1.144, -2.025e-6
-1.143, -1.968e-6
-1.142, -1.914e-6
-1.141, -1.996e-6
-1.140, -2.027e-6
-1.139, -2.050e-6
-1.138, -2.038e-6
-1.137, -2.030e-6
-1.136, -2.005e-6
-1.135, -2.008e-6
-1.134, -2.045e-6
-1.133, -1.925e-6
-1.132, -1.899e-6
-1.131, -1.929e-6
-1.130, -1.979e-6
-1.129, -2.018e-6
-1.128, -1.959e-6
-1.127, -1.910e-6
-1.126, -1.936e-6
-1.125, -1.958e-6
-1.124, -1.950e-6
-1.123, -1.892e-6
-1.122, -1.815e-6
-1.121, -1.821e-6
-1.120, -1.871e-6
-1.119, -1.896e-6
-1.118, -1.862e-6
-1.117, -1.789e-6
-1.116, -1.816e-6
-1.115, -1.911e-6
-1.114, -1.879e-6
-1.113, -1.868e-6
-1.112, -1.778e-6
-1.111, -1.796e-6
-1.110, -1.899e-6
-1.109, -1.860e-6
-1.108, -1.834e-6
-1.107, -1.807e-6
-1.106, -1.825e-6
-1.105, -1.879e-6
-1.104, -1.880e-6
-1.103, -1.852e-6
-1.102, -1.775e-6
-1.101, -1.761e-6
-1.100, -1.788e-6
-1.099, -1.840e-6
-1.098, -1.814e-6
-1.097, -1.774e-6
-1.096, -1.733e-6
-1.095, -1.829e-6
-1.094, -1.808e-6
-1.093, -1.776e-6
-1.092, -1.660e-6
-1.091, -1.676e-6
-1.090, -1.719e-6
-1.089, -1.744e-6
-1.088, -1.721e-6
-1.087, -1.672e-6
-1.086, -1.739e-6
-1.085, -1.725e-6
-1.084, -1.774e-6
-1.083, -1.790e-6
-1.082, -1.651e-6
-1.081, -1.677e-6
-1.080, -1.718e-6
-1.079, -1.725e-6
-1.078, -1.728e-6
-1.077, -1.654e-6
-1.076, -1.689e-6
-1.075, -1.735e-6
-1.074, -1.740e-6
-1.073, -1.729e-6
-1.072, -1.630e-6
-1.071, -1.701e-6
-1.070, -1.759e-6
-1.069, -1.747e-6
-1.068, -1.702e-6
-1.067, -1.686e-6
-1.066, -1.679e-6
-1.065, -1.780e-6
-1.064, -1.755e-6
-1.063, -1.711e-6
-1.062, -1.681e-6
-1.061, -1.669e-6
-1.060, -1.745e-6
-1.059, -1.776e-6
-1.058, -1.760e-6
-1.057, -1.682e-6
-1.056, -1.715e-6
-1.055, -1.773e-6
-1.054, -1.807e-6
-1.053, -1.761e-6
-1.052, -1.707e-6
-1.051, -1.757e-6
-1.050, -1.828e-6
-1.049, -1.846e-6
-1.048, -1.821e-6
-1.047, -1.751e-6
-1.046, -1.780e-6
-1.045, -1.857e-6
-1.044, -1.846e-6
-1.043, -1.847e-6
-1.042, -1.768e-6
-1.041, -1.809e-6
-1.040, -1.865e-6
-1.039, -1.891e-6
-1.038, -1.884e-6
-1.037, -1.850e-6
-1.036, -1.822e-6
-1.035, -1.944e-6
-1.034, -1.906e-6
-1.033, -1.938e-6
-1.032, -1.885e-6
-1.031, -1.905e-6
-1.030, -1.969e-6
-1.029, -1.966e-6
-1.028, -1.967e-6
-1.027, -1.949e-6
-1.026, -1.915e-6
-1.025, -2.016e-6
-1.024, -2.045e-6
-1.023, -2.056e-6
-1.022, -2.004e-6
-1.021, -1.977e-6
-1.020, -2.070e-6
-1.019, -2.116e-6
-1.018, -2.059e-6
-1.017, -2.072e-6
-1.016, -2.002e-6
-1.015, -2.138e-6
-1.014, -2.160e-6
-1.013, -2.105e-6
-1.012, -2.076e-6
-1.011, -2.116e-6
-1.010, -2.164e-6
-1.009, -2.227e-6
-1.008, -2.184e-6
-1.007, -2.179e-6
-1.006, -2.148e-6
-1.005, -2.238e-6
-1.004, -2.268e-6
-1.003, -2.279e-6
-1.002, -2.219e-6
-1.001, -2.182e-6
-1.000, 2.149e-7
-1.001, 8.394e-7
-1.002, 1.088e-6
-1.003, 1.264e-6
-1.004, 1.410e-6
-1.005, 1.417e-6
-1.006, 1.505e-6
-1.007, 1.589e-6
-1.008, 1.719e-6
-1.009, 1.806e-6
-1.010, 1.802e-6
-1.011, 1.784e-6
-1.012, 1.858e-6
-1.013, 1.973e-6
-1.014, 2.040e-6
-1.015, 2.004e-6
-1.016, 2.025e-6
-1.017, 2.071e-6
-1.018, 2.178e-6
-1.019, 2.224e-6
-1.020, 2.185e-6
-1.021, 2.158e-6
-1.022, 2.246e-6
-1.023, 2.348e-6
-1.024, 2.368e-6
-1.025, 2.333e-6
-1.026, 2.357e-6
-1.027, 2.323e-6
-1.028, 2.466e-6
-1.029, 2.496e-6
-1.030, 2.475e-6
-1.031, 2.454e-6
-1.032, 2.511e-6
-1.033, 2.546e-6
-1.034, 2.617e-6
-1.035, 2.553e-6
-1.036, 2.537e-6
-1.037, 2.576e-6
-1.038, 2.659e-6
-1.039, 2.745e-6
-1.040, 2.670e-6
-1.041, 2.633e-6
-1.042, 2.661e-6
-1.043, 2.731e-6
-1.044, 2.773e-6
-1.045, 2.751e-6
-1.046, 2.690e-6
-1.047, 2.791e-6
-1.048, 2.798e-6
-1.049, 2.875e-6
-1.050, 2.865e-6
-1.051, 2.840e-6
-1.052, 2.837e-6
-1.053, 2.896e-6
-1.054, 2.925e-6
-1.055, 2.928e-6
-1.056, 2.899e-6
-1.057, 2.910e-6
-1.058, 2.995e-6
-1.059, 2.965e-6
-1.060, 2.972e-6
-1.061, 2.934e-6
-1.062, 2.976e-6
-1.063, 3.036e-6
-1.064, 3.083e-6
-1.065, 3.036e-6
-1.066, 3.025e-6
-1.067, 3.012e-6
-1.068, 3.076e-6
-1.069, 3.156e-6
-1.070, 3.088e-6
-1.071, 3.095e-6
-1.072, 3.100e-6
-1.073, 3.121e-6
-1.074, 3.192e-6
-1.075, 3.162e-6
-1.076, 3.119e-6
-1.077, 3.177e-6
-1.078, 3.212e-6
-1.079, 3.224e-6
-1.080, 3.202e-6
-1.081, 3.170e-6
-1.082, 3.219e-6
-1.083, 3.260e-6
-1.084, 3.341e-6
-1.085, 3.317e-6
-1.086, 3.282e-6
-1.087, 3.282e-6
-1.088, 3.326e-6
-1.089, 3.390e-6
-1.090, 3.379e-6
-1.091, 3.347e-6
-1.092, 3.368e-6
-1.093, 3.415e-6
-1.094, 3.444e-6
-1.095, 3.451e-6
-1.096, 3.392e-6
-1.097, 3.396e-6
-1.098, 3.485e-6
-1.099, 3.503e-6
-1.100, 3.493e-6
-1.101, 3.471e-6
-1.102, 3.518e-6
-1.103, 3.547e-6
-1.104, 3.603e-6
-1.105, 3.582e-6
-1.106, 3.540e-6
-1.107, 3.574e-6
-1.108, 3.617e-6
-1.109, 3.684e-6
-1.110, 3.615e-6
-1.111, 3.643e-6
-1.112, 3.629e-6
-1.113, 3.699e-6
-1.114, 3.747e-6
-1.115, 3.730e-6
-1.116, 3.661e-6
-1.117, 3.701e-6
-1.118, 3.787e-6
-1.119, 3.831e-6
-1.120, 3.816e-6
-1.121, 3.754e-6
-1.122, 3.816e-6
-1.123, 3.886e-6
-1.124, 3.912e-6
-1.125, 3.904e-6
-1.126, 3.849e-6
-1.127, 3.845e-6
-1.128, 3.937e-6
-1.129, 3.941e-6
-1.130, 4.017e-6
-1.131, 3.966e-6
-1.132, 3.966e-6
-1.133, 4.042e-6
-1.134, 4.053e-6
-1.135, 4.053e-6
-1.136, 4.015e-6
-1.137, 4.026e-6
-1.138, 4.128e-6
-1.139, 4.169e-6
-1.140, 4.140e-6
-1.141, 4.118e-6
-1.142, 4.128e-6
-1.143, 4.226e-6
-1.144, 4.262e-6
-1.145, 4.254e-6
-1.146, 4.193e-6
-1.147, 4.246e-6
-1.148, 4.283e-6
-1.149, 4.367e-6
-1.150, 4.324e-6
-1.151, 4.315e-6
-1.152, 4.333e-6
-1.153, 4.374e-6
-1.154, 4.489e-6
-1.155, 4.415e-6
-1.156, 4.418e-6
-1.157, 4.427e-6
-1.158, 4.510e-6
-1.159, 4.554e-6
-1.160, 4.551e-6
-1.161, 4.506e-6
-1.162, 4.553e-6
-1.163, 4.607e-6
-1.164, 4.664e-6
-1.165, 4.715e-6
-1.166, 4.611e-6
-1.167, 4.654e-6
-1.168, 4.718e-6
-1.169, 4.767e-6
-1.170, 4.755e-6
-1.171, 4.755e-6
-1.172, 4.751e-6
-1.173, 4.879e-6
-1.174, 4.912e-6
-1.175, 4.931e-6
-1.176, 4.869e-6
-1.177, 4.968e-6
-1.178, 5.002e-6
-1.179, 5.038e-6
-1.180, 5.031e-6
-1.181, 5.051e-6
-1.182, 5.050e-6
-1.183, 5.154e-6
-1.184, 5.172e-6
-1.185, 5.165e-6
-1.186, 5.203e-6
-1.187, 5.174e-6
-1.188, 5.243e-6
-1.189, 5.338e-6
-1.190, 5.344e-6
-1.191, 5.333e-6
-1.192, 5.313e-6
-1.193, 5.410e-6
-1.194, 5.505e-6
-1.195, 5.469e-6
-1.196, 5.443e-6
-1.197, 5.490e-6
-1.198, 5.514e-6
-1.199, 5.597e-6
-1.200, 5.625e-6
-1.201, 5.611e-6
-1.202, 5.625e-6
-1.203, 5.676e-6
-1.204, 5.762e-6
-1.205, 5.785e-6
-1.206, 5.780e-6
-1.207, 5.816e-6
-1.208, 5.857e-6
-1.209, 5.963e-6
-1.210, 5.946e-6
-1.211, 5.948e-6
-1.212, 5.926e-6
-1.213, 6.030e-6
-1.214, 6.131e-6
-1.215, 6.121e-6
-1.216, 6.118e-6
-1.217, 6.160e-6
-1.218, 6.217e-6
-1.219, 6.321e-6
-1.220, 6.310e-6
-1.221, 6.312e-6
-1.222, 6.367e-6
-1.223, 6.453e-6
-1.224, 6.480e-6
-1.225, 6.501e-6
-1.226, 6.492e-6
-1.227, 6.533e-6
-1.228, 6.617e-6
-1.229, 6.735e-6
-1.230, 6.689e-6
-1.231, 6.726e-6
-1.232, 6.717e-6
-1.233, 6.814e-6
-1.234, 6.941e-6
-1.235, 6.921e-6
-1.236, 6.952e-6
-1.237, 6.958e-6
-1.238, 7.002e-6
-1.239, 7.128e-6
-1.240, 7.112e-6
-1.241, 7.119e-6
-1.242, 7.208e-6
-1.243, 7.235e-6
-1.244, 7.342e-6
-1.245, 7.396e-6
-1.246, 7.365e-6
-1.247, 7.426e-6
-1.248, 7.456e-6
-1.249, 7.588e-6
-1.250, 7.578e-6
-1.251, 7.567e-6
-1.252, 7.625e-6
-1.253, 7.727e-6
-1.254, 7.842e-6
-1.255, 7.850e-6
-1.256, 7.844e-6
-1.257, 7.879e-6
-1.258, 7.964e-6
-1.259, 8.045e-6
-1.260, 8.096e-6
-1.261, 8.099e-6
-1.262, 8.097e-6
-1.263, 8.215e-6
-1.264, 8.289e-6
-1.265, 8.392e-6
-1.266, 8.381e-6
-1.267, 8.416e-6
-1.268, 8.481e-6
-1.269, 8.601e-6
-1.270, 8.638e-6
-1.271, 8.612e-6
-1.272, 8.633e-6
-1.273, 8.749e-6
-1.274, 8.874e-6
-1.275, 8.952e-6
-1.276, 8.878e-6
-1.277, 8.961e-6
-1.278, 9.018e-6
-1.279, 9.123e-6
-1.280, 9.239e-6
-1.281, 9.210e-6
-1.282, 9.219e-6
-1.283, 9.315e-6
-1.284, 9.438e-6
-1.285, 9.513e-6
-1.286, 9.514e-6
-1.287, 9.588e-6
-1.288, 9.640e-6
-1.289, 9.729e-6
-1.290, 9.866e-6
-1.291, 9.825e-6
-1.292, 9.882e-6
-1.293, 9.990e-6
-1.294, 1.007e-5
-1.295, 1.017e-5
-1.296, 1.012e-5
-1.297, 1.024e-5
-1.298, 1.030e-5
-1.299, 1.039e-5
-1.300, 1.049e-5
-1.301, 1.048e-5
-1.302, 1.055e-5
-1.303, 1.064e-5
-1.304, 1.074e-5
-1.305, 1.080e-5
-1.306, 1.088e-5
-1.307, 1.090e-5
-1.308, 1.096e-5
-1.309, 1.111e-5
-1.310, 1.120e-5
-1.311, 1.126e-5
-1.312, 1.123e-5
-1.313, 1.139e-5
-1.314, 1.151e-5
-1.315, 1.156e-5
-1.316, 1.161e-5
-1.317, 1.164e-5
-1.318, 1.173e-5
-1.319, 1.186e-5
-1.320, 1.196e-5
-1.321, 1.200e-5
-1.322, 1.205e-5
-1.323, 1.213e-5
-1.324, 1.228e-5
-1.325, 1.241e-5
-1.326, 1.243e-5
-1.327, 1.245e-5
-1.328, 1.258e-5
-1.329, 1.270e-5
-1.330, 1.282e-5
-1.331, 1.287e-5
-1.332, 1.290e-5
-1.333, 1.300e-5
-1.334, 1.315e-5
-1.335, 1.323e-5
-1.336, 1.332e-5
-1.337, 1.334e-5
-1.338, 1.351e-5
-1.339, 1.361e-5
-1.340, 1.373e-5
-1.341, 1.384e-5
-1.342, 1.387e-5
-1.343, 1.394e-5
-1.344, 1.412e-5
-1.345, 1.426e-5
-1.346, 1.429e-5
-1.347, 1.440e-5
-1.348, 1.453e-5
-1.349, 1.467e-5
-1.350, 1.482e-5
-1.351, 1.489e-5
-1.352, 1.494e-5
-1.353, 1.507e-5
-1.354, 1.524e-5
-1.355, 1.536e-5
-1.356, 1.546e-5
-1.357, 1.563e-5
-1.358, 1.574e-5
-1.359, 1.604e-5
-1.360, 1.621e-5
-1.361, 1.634e-5
-1.362, 1.646e-5
-1.363, 1.656e-5
-1.364, 1.666e-5
-1.365, 1.688e-5
-1.366, 1.696e-5
-1.367, 1.715e-5
-1.368, 1.731e-5
-1.369, 1.763e-5
-1.370, 1.790e-5
-1.371, 1.797e-5
-1.372, 1.824e-5
-1.373, 1.836e-5
-1.374, 1.849e-5
-1.375, 1.862e-5
-1.376, 1.875e-5
-1.377, 1.875e-5
-1.378, 1.889e-5
-1.379, 1.905e-5
-1.380, 1.927e-5
-1.381, 1.936e-5
-1.382, 1.946e-5
-1.383, 1.967e-5
-1.384, 1.978e-5
-1.385, 1.999e-5
-1.386, 2.015e-5
-1.387, 2.034e-5
-1.388, 2.057e-5
-1.389, 2.081e-5
-1.390, 2.110e-5
-1.391, 2.115e-5
-1.392, 2.120e-5
-1.393, 2.137e-5
-1.394, 2.164e-5
-1.395, 2.189e-5
-1.396, 2.199e-5
-1.397, 2.218e-5
-1.398, 2.239e-5
-1.399, 2.266e-5
-1.400, 2.016e-5
-1.399, 1.881e-5
-1.398, 1.796e-5
-1.397, 1.724e-5
-1.396, 1.660e-5
-1.395, 1.607e-5
-1.394, 1.545e-5
-1.393, 1.480e-5
-1.392, 1.463e-5
-1.391, 1.402e-5
-1.390, 1.353e-5
-1.389, 1.308e-5
-1.388, 1.263e-5
-1.387, 1.224e-5
-1.386, 1.197e-5
-1.385, 1.162e-5
-1.384, 1.121e-5
-1.383, 1.082e-5
-1.382, 1.057e-5
-1.381, 1.033e-5
-1.380, 1.017e-5
-1.379, 9.773e-6
-1.378, 9.517e-6
-1.377, 9.252e-6
-1.376, 9.013e-6
-1.375, 8.830e-6
-1.374, 8.528e-6
-1.373, 8.339e-6
-1.372, 8.136e-6
-1.371, 7.995e-6
-1.370, 7.825e-6
-1.369, 7.614e-6
-1.368, 7.381e-6
-1.367, 7.241e-6
-1.366, 7.014e-6
-1.365, 6.946e-6
-1.364, 6.713e-6
-1.363, 6.557e-6
-1.362, 6.384e-6
-1.361, 6.346e-6
-1.360, 6.298e-6
-1.359, 6.013e-6
-1.358, 5.817e-6
-1.357, 5.658e-6
-1.356, 5.542e-6
-1.355, 5.370e-6
-1.354, 5.226e-6
-1.353, 5.079e-6
-1.352, 4.961e-6
-1.351, 4.875e-6
-1.350, 4.801e-6
-1.349, 4.675e-6
-1.348, 4.479e-6
-1.347, 4.397e-6
-1.346, 4.395e-6
-1.345, 4.290e-6
-1.344, 4.135e-6
-1.343, 3.987e-6
-1.342, 3.934e-6
-1.341, 3.909e-6
-1.340, 3.814e-6
-1.339, 3.711e-6
-1.338, 3.562e-6
-1.337, 3.465e-6
-1.336, 3.425e-6
-1.335, 3.303e-6
-1.334, 3.198e-6
-1.333, 3.034e-6
-1.332, 2.985e-6
-1.331, 2.941e-6
-1.330, 2.911e-6
-1.329, 2.787e-6
-1.328, 2.613e-6
-1.327, 2.598e-6
-1.326, 2.530e-6
-1.325, 2.532e-6
-1.324, 2.396e-6
-1.323, 2.298e-6
-1.322, 2.222e-6
-1.321, 2.196e-6
-1.320, 2.222e-6
-1.319, 2.098e-6
-1.318, 2.004e-6
-1.317, 1.965e-6
-1.316, 1.975e-6
-1.315, 1.972e-6
-1.314, 1.937e-6
-1.313, 1.862e-6
-1.312, 1.909e-6
-1.311, 1.872e-6
-1.310, 1.731e-6
-1.309, 1.673e-6
-1.308, 1.546e-6
-1.307, 1.513e-6
-1.306, 1.494e-6
-1.305, 1.481e-6
-1.304, 1.471e-6
-1.303, 1.353e-6
-1.302, 1.257e-6
-1.301, 1.306e-6
-1.300, 1.314e-6
-1.299, 1.126e-6
-1.298, 1.104e-6
-1.297, 1.005e-6
-1.296, 1.057e-6
-1.295, 1.057e-6
-1.294, 9.815e-7
-1.293, 9.144e-7
-1.292, 8.907e-7
-1.291, 9.035e-7
-1.290, 8.887e-7
-1.289, 8.118e-7
-1.288, 7.013e-7
-1.287, 6.717e-7
-1.286, 6.855e-7
-1.285, 6.569e-7
-1.284, 6.125e-7
-1.283, 5.118e-7
-1.282, 4.803e-7
-1.281, 4.931e-7
-1.280, 4.832e-7
-1.279, 4.596e-7
-1.278, 3.471e-7
-1.277, 3.550e-7
-1.276, 3.283e-7
-1.275, 3.343e-7
-1.274, 2.652e-7
-1.273, 1.646e-7
-1.272, 1.113e-7
-1.271, 1.142e-7
-1.270, 1.547e-7
-1.269, 8.465e-8
-1.268, 9.669e-9
-1.267, -5.545e-8
-1.266, 2.762e-9
-1.265, -2.980e-8
-1.264, -2.092e-8
-1.263, -1.354e-7
-1.262, -2.123e-7
-1.261, -1.857e-7
-1.260, -1.817e-7
-1.259, -1.995e-7
-1.258, -3.159e-7
-1.257, -3.268e-7
-1.256, -3.376e-7
-1.255, -2.991e-7
-1.254, -3.761e-7
-1.253, -4.195e-7
-1.252, -4.442e-7
-1.251, -4.570e-7
-1.250, -4.086e-7
-1.249, -4.817e-7
-1.248, -5.655e-7
-1.247, -5.596e-7
-1.246, -5.626e-7
-1.245, -5.655e-7
-1.244, -5.912e-7
-1.243, -6.849e-7
-1.242, -7.007e-7
-1.241, -6.987e-7
-1.240, -6.760e-7
-1.239, -6.819e-7
-1.238, -7.520e-7
-1.237, -7.697e-7
-1.236, -7.441e-7
-1.235, -7.332e-7
-1.234, -8.072e-7
-1.233, -8.447e-7
-1.232, -8.694e-7
-1.231, -8.132e-7
-1.230, -7.737e-7
-1.229, -9.177e-7
-1.228, -9.463e-7
-1.227, -9.532e-7
-1.226, -9.414e-7
-1.225, -8.931e-7
-1.224, -9.296e-7
-1.223, -1.004e-6
-1.222, -1.008e-6
-1.221, -9.809e-7
-1.220, -9.513e-7
-1.219, -9.878e-7
-1.218, -1.064e-6
-1.217, -1.043e-6
-1.216, -1.052e-6
-1.215, -9.641e-7
-1.214, -1.032e-6
-1.213, -1.048e-6
-1.212, -1.100e-6
-1.211, -1.137e-6
-1.210, -1.036e-6
-1.209, -1.061e-6
-1.208, -1.082e-6
-1.207, -1.132e-6
-1.206, -1.111e-6
-1.205, -1.052e-6
-1.204, -1.055e-6
-1.203, -1.119e-6
-1.202, -1.165e-6
-1.201, -1.120e-6
-1.200, -1.098e-6
-1.199, -1.089e-6
-1.198, -1.179e-6
-1.197, -1.156e-6
-1.196, -1.136e-6
-1.195, -1.076e-6
-1.194, -1.086e-6
-1.193, -1.118e-6
-1.192, -1.174e-6
-1.191, -1.120e-6
-1.190, -1.083e-6
-1.189, -1.084e-6
-1.188, -1.147e-6
-1.187, -1.184e-6
-1.186, -1.111e-6
-1.185, -1.083e-6
-1.184, -1.113e-6
-1.183, -1.111e-6
-1.182, -1.174e-6
-1.181, -1.110e-6
-1.180, -1.096e-6
-1.179, -1.090e-6
-1.178, -1.156e-6
-1.177, -1.172e-6
-1.176, -1.125e-6
-1.175, -1.091e-6
-1.174, -1.126e-6
-1.173, -1.162e-6
-1.172, -1.141e-6
-1.171, -1.157e-6
-1.170, -1.100e-6
-1.169, -1.132e-6
-1.168, -1.124e-6
-1.167, -1.167e-6
-1.166, -1.163e-6
-1.165, -1.100e-6
-1.164, -1.054e-6
-1.163, -1.188e-6
-1.162, -1.161e-6
-1.161, -1.158e-6
-1.160, -1.076e-6
-1.159, -1.066e-6
-1.158, -1.169e-6
-1.157, -1.162e-6
-1.156, -1.074e-6
-1.155, -1.097e-6
-1.154, -1.108e-6
-1.153, -1.157e-6
-1.152, -1.147e-6
-1.151, -1.132e-6
-1.150, -1.087e-6
-1.149, -1.090e-6
-1.148, -1.122e-6
-1.147, -1.172e-6
-1.146, -1.143e-6
-1.145, -1.158e-6
-1.144, -1.116e-6
-1.143, -1.173e-6
-1.142, -1.236e-6
-1.141, -1.169e-6
-1.140, -1.142e-6
-1.139, -1.110e-6
-1.138, -1.201e-6
-1.137, -1.177e-6
-1.136, -1.170e-6
-1.135, -1.157e-6
-1.134, -1.176e-6
-1.133, -1.211e-6
-1.132, -1.241e-6
-1.131, -1.182e-6
-1.130, -1.180e-6
-1.129, -1.167e-6
-1.128, -1.238e-6
-1.127, -1.249e-6
-1.126, -1.237e-6
-1.125, -1.214e-6
-1.124, -1.210e-6
-1.123, -1.274e-6
-1.122, -1.298e-6
-1.121, -1.283e-6
-1.120, -1.264e-6
-1.119, -1.237e-6
-1.118, -1.323e-6
-1.117, -1.357e-6
-1.116, -1.309e-6
-1.115, -1.304e-6
-1.114, -1.241e-6
-1.113, -1.342e-6
-1.112, -1.358e-6
-1.111, -1.327e-6
-1.110, -1.345e-6
-1.109, -1.260e-6
-1.108, -1.366e-6
-1.107, -1.433e-6
-1.106, -1.367e-6
-1.105, -1.374e-6
-1.104, -1.306e-6
-1.103, -1.405e-6
-1.102, -1.445e-6
-1.101, -1.414e-6
-1.100, -1.333e-6
-1.099, -1.370e-6
-1.098, -1.421e-6
-1.097, -1.487e-6
-1.096, -1.428e-6
-1.095, -1.438e-6
-1.094, -1.450e-6
-1.093, -1.530e-6
-1.092, -1.522e-6
-1.091, -1.526e-6
-1.090, -1.491e-6
-1.089, -1.478e-6
-1.088, -1.526e-6
-1.087, -1.578e-6
-1.086, -1.572e-6
-1.085, -1.546e-6
-1.084, -1.510e-6
-1.083, -1.603e-6
-1.082, -1.643e-6
-1.081, -1.622e-6
-1.080, -1.609e-6
-1.079, -1.570e-6
-1.078, -1.652e-6
-1.077, -1.666e-6
-1.076, -1.649e-6
-1.075, -1.647e-6
-1.074, -1.625e-6
-1.073, -1.689e-6
-1.072, -1.751e-6
-1.071, -1.753e-6
-1.070, -1.680e-6
-1.069, -1.648e-6
-1.068, -1.746e-6
-1.067, -1.830e-6
-1.066, -1.746e-6
-1.065, -1.777e-6
-1.064, -1.737e-6
-1.063, -1.798e-6
-1.062, -1.853e-6
-1.061, -1.839e-6
-1.060, -1.820e-6
-1.059, -1.799e-6
-1.058, -1.889e-6
-1.057, -1.929e-6
-1.056, -1.911e-6
-1.055, -1.856e-6
-1.054, -1.845e-6
-1.053, -1.957e-6
-1.052, -1.982e-6
-1.051, -1.977e-6
-1.050, -1.928e-6
-1.049, -1.906e-6
-1.048, -2.018e-6
-1.047, -2.007e-6
-1.046, -2.055e-6
-1.045, -2.012e-6
-1.044, -1.965e-6
-1.043, -2.067e-6
-1.042, -2.083e-6
-1.041, -2.124e-6
-1.040, -2.050e-6
-1.039, -2.072e-6
-1.038, -2.114e-6
-1.037, -2.179e-6
-1.036, -2.170e-6
-1.035, -2.156e-6
-1.034, -2.131e-6
-1.033, -2.222e-6
-1.032, -2.237e-6
-1.031, -2.260e-6
-1.030, -2.180e-6
-1.029, -2.190e-6
-1.028, -2.200e-6
-1.027, -2.327e-6
-1.026, -2.309e-6
-1.025, -2.277e-6
-1.024, -2.247e-6
-1.023, -2.325e-6
-1.022, -2.435e-6
-1.021, -2.351e-6
-1.020, -2.350e-6
-1.019, -2.372e-6
-1.018, -2.362e-6
-1.017, -2.471e-6
-1.016, -2.465e-6
-1.015, -2.407e-6
-1.014, -2.430e-6
-1.013, -2.459e-6
-1.012, -2.549e-6
-1.011, -2.553e-6
-1.010, -2.550e-6
-1.009, -2.474e-6
-1.008, -2.550e-6
-1.007, -2.633e-6
-1.006, -2.592e-6
-1.005, -2.591e-6
-1.004, -2.578e-6
-1.003, -2.631e-6
-1.002, -2.701e-6
-1.001, -2.712e-6
-1.000, -5.150e-8
-1.001, 6.421e-7
-1.002, 8.720e-7
-1.003, 9.499e-7
-1.004, 1.105e-6
-1.005, 1.268e-6
-1.006, 1.426e-6
-1.007, 1.439e-6
-1.008, 1.469e-6
-1.009, 1.611e-6
-1.010, 1.682e-6
-1.011, 1.793e-6
-1.012, 1.788e-6
-1.013, 1.791e-6
-1.014, 1.890e-6
-1.015, 1.970e-6
-1.016, 2.035e-6
-1.017, 2.035e-6
-1.018, 2.071e-6
-1.019, 2.071e-6
-1.020, 2.159e-6
-1.021, 2.248e-6
-1.022, 2.222e-6
-1.023, 2.226e-6
-1.024, 2.262e-6
-1.025, 2.343e-6
-1.026, 2.415e-6
-1.027, 2.375e-6
-1.028, 2.337e-6
-1.029, 2.385e-6
-1.030, 2.449e-6
-1.031, 2.529e-6
-1.032, 2.484e-6
-1.033, 2.453e-6
-1.034, 2.524e-6
-1.035, 2.582e-6
-1.036, 2.672e-6
-1.037, 2.622e-6
-1.038, 2.583e-6
-1.039, 2.623e-6
-1.040, 2.675e-6
-1.041, 2.724e-6
-1.042, 2.720e-6
-1.043, 2.684e-6
-1.044, 2.689e-6
-1.045, 2.791e-6
-1.046, 2.788e-6
-1.047, 2.810e-6
-1.048, 2.748e-6
-1.049, 2.764e-6
-1.050, 2.871e-6
-1.051, 2.884e-6
-1.052, 2.824e-6
-1.053, 2.830e-6
-1.054, 2.841e-6
-1.055, 2.924e-6
-1.056, 2.957e-6
-1.057, 2.920e-6
-1.058, 2.901e-6
-1.059, 2.939e-6
-1.060, 2.969e-6
-1.061, 3.026e-6
-1.062, 2.990e-6
-1.063, 2.945e-6
-1.064, 2.977e-6
-1.065, 2.993e-6
-1.066, 3.087e-6
-1.067, 3.032e-6
-1.068, 3.003e-6
-1.069, 3.014e-6
-1.070, 3.088e-6
-1.071, 3.123e-6
-1.072, 3.080e-6
-1.073, 3.084e-6
-1.074, 3.071e-6
-1.075, 3.096e-6
-1.076, 3.165e-6
-1.077, 3.150e-6
-1.078, 3.086e-6
-1.079, 3.100e-6
-1.080, 3.130e-6
-1.081, 3.207e-6
-1.082, 3.160e-6
-1.083, 3.123e-6
-1.084, 3.087e-6
-1.085, 3.196e-6
-1.086, 3.246e-6
-1.087, 3.200e-6
-1.088, 3.191e-6
-1.089, 3.159e-6
-1.090, 3.249e-6
-1.091, 3.273e-6
-1.092, 3.276e-6
-1.093, 3.232e-6
-1.094, 3.225e-6
-1.095, 3.299e-6
-1.096, 3.330e-6
-1.097, 3.280e-6
-1.098, 3.282e-6
-1.099, 3.265e-6
-1.100, 3.313e-6
-1.101, 3.370e-6
-1.102, 3.302e-6
-1.103, 3.294e-6
-1.104, 3.293e-6
-1.105, 3.355e-6
-1.106, 3.406e-6
-1.107, 3.342e-6
-1.108, 3.320e-6
-1.109, 3.349e-6
-1.110, 3.390e-6
-1.111, 3.423e-6
-1.112, 3.379e-6
-1.113, 3.327e-6
-1.114, 3.418e-6
-1.115, 3.412e-6
-1.116, 3.470e-6
-1.117, 3.426e-6
-1.118, 3.403e-6
-1.119, 3.404e-6
-1.120, 3.449e-6
-1.121, 3.474e-6
-1.122, 3.511e-6
-1.123, 3.428e-6
-1.124, 3.422e-6
-1.125, 3.479e-6
-1.126, 3.494e-6
-1.127, 3.523e-6
-1.128, 3.445e-6
-1.129, 3.444e-6
-1.130, 3.570e-6
-1.131, 3.541e-6
-1.132, 3.514e-6
-1.133, 3.519e-6
-1.134, 3.547e-6
-1.135, 3.570e-6
-1.136, 3.618e-6
-1.137, 3.612e-6
-1.138, 3.575e-6
-1.139, 3.546e-6
-1.140, 3.617e-6
-1.141, 3.680e-6
-1.142, 3.663e-6
-1.143, 3.659e-6
-1.144, 3.603e-6
-1.145, 3.632e-6
-1.146, 3.696e-6
-1.147, 3.683e-6
-1.148, 3.662e-6
-1.149, 3.651e-6
-1.150, 3.726e-6
-1.151, 3.768e-6
-1.152, 3.678e-6
-1.153, 3.726e-6
-1.154, 3.690e-6
-1.155, 3.750e-6
-1.156, 3.818e-6
-1.157, 3.808e-6
-1.158, 3.774e-6
-1.159, 3.740e-6
-1.160, 3.813e-6
-1.161, 3.840e-6
-1.162, 3.824e-6
-1.163, 3.794e-6
-1.164, 3.781e-6
-1.165, 3.853e-6
-1.166, 3.901e-6
-1.167, 3.925e-6
-1.168, 3.836e-6
-1.169, 3.830e-6
-1.170, 3.964e-6
-1.171, 3.945e-6
-1.172, 3.948e-6
-1.173, 3.943e-6
-1.174, 3.895e-6
-1.175, 3.996e-6
-1.176, 4.033e-6
-1.177, 3.974e-6
-1.178, 3.980e-6
-1.179, 3.982e-6
-1.180, 4.008e-6
-1.181, 4.093e-6
-1.182, 4.079e-6
-1.183, 4.042e-6
-1.184, 4.041e-6
-1.185, 4.080e-6
-1.186, 4.155e-6
-1.187, 4.136e-6
-1.188, 4.110e-6
-1.189, 4.096e-6
-1.190, 4.157e-6
-1.191, 4.255e-6
-1.192, 4.206e-6
-1.193, 4.170e-6
-1.194, 4.218e-6
-1.195, 4.251e-6
-1.196, 4.314e-6
-1.197, 4.300e-6
-1.198, 4.247e-6
-1.199, 4.275e-6
-1.200, 4.309e-6
-1.201, 4.371e-6
-1.202, 4.392e-6
-1.203, 4.383e-6
-1.204, 4.367e-6
-1.205, 4.439e-6
-1.206, 4.503e-6
-1.207, 4.500e-6
-1.208, 4.419e-6
-1.209, 4.429e-6
-1.210, 4.544e-6
-1.211, 4.539e-6
-1.212, 4.583e-6
-1.213, 4.563e-6
-1.214, 4.559e-6
-1.215, 4.634e-6
-1.216, 4.654e-6
-1.217, 4.683e-6
-1.218, 4.685e-6
-1.219, 4.686e-6
-1.220, 4.714e-6
-1.221, 4.824e-6
-1.222, 4.779e-6
-1.223, 4.773e-6
-1.224, 4.799e-6
-1.225, 4.847e-6
-1.226, 4.920e-6
-1.227, 4.904e-6
-1.228, 4.908e-6
-1.229, 4.928e-6
-1.230, 4.973e-6
-1.231, 5.083e-6
-1.232, 5.009e-6
-1.233, 5.039e-6
-1.234, 5.109e-6
-1.235, 5.116e-6
-1.236, 5.222e-6
-1.237, 5.230e-6
-1.238, 5.164e-6
-1.239, 5.202e-6
-1.240, 5.243e-6
-1.241, 5.303e-6
-1.242, 5.331e-6
-1.243, 5.312e-6
-1.244, 5.334e-6
-1.245, 5.400e-6
-1.246, 5.488e-6
-1.247, 5.495e-6
-1.248, 5.482e-6
-1.249, 5.491e-6
-1.250, 5.541e-6
-1.251, 5.630e-6
-1.252, 5.637e-6
-1.253, 5.590e-6
-1.254, 5.638e-6
-1.255, 5.698e-6
-1.256, 5.750e-6
-1.257, 5.785e-6
-1.258, 5.785e-6
-1.259, 5.798e-6
-1.260, 5.803e-6
-1.261, 5.939e-6
-1.262, 5.946e-6
-1.263, 5.933e-6
-1.264, 5.920e-6
-1.265, 6.021e-6
-1.266, 6.133e-6
-1.267, 6.111e-6
-1.268, 6.067e-6
-1.269, 6.110e-6
-1.270, 6.179e-6
-1.271, 6.265e-6
-1.272, 6.293e-6
-1.273, 6.241e-6
-1.274, 6.295e-6
-1.275, 6.371e-6
-1.276, 6.390e-6
-1.277, 6.447e-6
-1.278, 6.406e-6
-1.279, 6.470e-6
-1.280, 6.522e-6
-1.281, 6.620e-6
-1.282, 6.603e-6
-1.283, 6.625e-6
-1.284, 6.650e-6
-1.285, 6.742e-6
-1.286, 6.801e-6
-1.287, 6.832e-6
-1.288, 6.804e-6
-1.289, 6.873e-6
-1.290, 6.898e-6
-1.291, 6.996e-6
-1.292, 7.026e-6
-1.293, 7.028e-6
-1.294, 7.033e-6
-1.295, 7.101e-6
-1.296, 7.212e-6
-1.297, 7.280e-6
-1.298, 7.252e-6
-1.299, 7.262e-6
-1.300, 7.373e-6
-1.301, 7.483e-6
-1.302, 7.492e-6
-1.303, 7.517e-6
-1.304, 7.503e-6
-1.305, 7.578e-6
-1.306, 7.715e-6
-1.307, 7.779e-6
-1.308, 7.736e-6
-1.309, 7.774e-6
-1.310, 7.843e-6
-1.311, 7.941e-6
-1.312, 8.059e-6
-1.313, 7.982e-6
-1.314, 8.027e-6
-1.315, 8.149e-6
-1.316, 8.202e-6
-1.317, 8.304e-6
-1.318, 8.282e-6
-1.319, 8.397e-6
-1.320, 8.392e-6
-1.321, 8.526e-6
-1.322, 8.621e-6
-1.323, 8.600e-6
-1.324, 8.645e-6
-1.325, 8.749e-6
-1.326, 8.856e-6
-1.327, 8.952e-6
-1.328, 8.897e-6
-1.329, 9.009e-6
-1.330, 9.089e-6
-1.331, 9.188e-6
-1.332, 9.293e-6
-1.333, 9.337e-6
-1.334, 9.362e-6
-1.335, 9.452e-6
-1.336, 9.570e-6
-1.337, 9.691e-6
-1.338, 9.709e-6
-1.339, 9.778e-6
-1.340, 9.802e-6
-1.341, 9.977e-6
-1.342, 1.001e-5
-1.343, 1.007e-5
-1.344, 1.015e-5
-1.345, 1.027e-5
-1.346, 1.037e-5
-1.347, 1.045e-5
-1.348, 1.049e-5
-1.349, 1.058e-5
-1.350, 1.082e-5
-1.351, 1.106e-5
-1.352, 1.120e-5
-1.353, 1.118e-5
-1.354, 1.115e-5
-1.355, 1.126e-5
-1.356, 1.132e-5
-1.357, 1.146e-5
-1.358, 1.153e-5
-1.359, 1.156e-5
-1.360, 1.171e-5
-1.361, 1.182e-5
-1.362, 1.200e-5
-1.363, 1.202e-5
-1.364, 1.211e-5
-1.365, 1.224e-5
-1.366, 1.243e-5
-1.367, 1.252e-5
-1.368, 1.258e-5
-1.369, 1.268e-5
-1.370, 1.289e-5
-1.371, 1.300e-5
-1.372, 1.319e-5
-1.373, 1.323e-5
-1.374, 1.340e-5
-1.375, 1.353e-5
-1.376, 1.371e-5
-1.377, 1.387e-5
-1.378, 1.395e-5
-1.379, 1.402e-5
-1.380, 1.422e-5
-1.381, 1.443e-5
-1.382, 1.460e-5
-1.383, 1.470e-5
-1.384, 1.481e-5
-1.385, 1.503e-5
-1.386, 1.522e-5
-1.387, 1.547e-5
-1.388, 1.553e-5
-1.389, 1.574e-5
-1.390, 1.590e-5
-1.391, 1.618e-5
-1.392, 1.637e-5
-1.393, 1.648e-5
-1.394, 1.665e-5
-1.395, 1.677e-5
-1.396, 1.704e-5
-1.397, 1.734e-5
-1.398, 1.745e-5
-1.399, 1.761e-5
-1.400, 1.512e-5
-1.399, 1.410e-5
-1.398, 1.344e-5
-1.397, 1.292e-5
-1.396, 1.242e-5
-1.395, 1.199e-5
-1.394, 1.161e-5
-1.393, 1.124e-5
-1.392, 1.078e-5
-1.391, 1.042e-5
-1.390, 1.006e-5
-1.389, 9.850e-6
-1.388, 9.619e-6
-1.387, 9.243e-6
-1.386, 9.003e-6
-1.385, 8.776e-6
-1.384, 8.689e-6
-1.383, 8.353e-6
-1.382, 8.074e-6
-1.381, 7.840e-6
-1.380, 7.594e-6
-1.379, 7.445e-6
-1.378, 7.271e-6
-1.377, 7.064e-6
-1.376, 6.792e-6
-1.375, 6.612e-6
-1.374, 6.520e-6
-1.373, 6.370e-6
-1.372, 6.196e-6
-1.371, 6.006e-6
-1.370, 5.830e-6
-1.369, 5.737e-6
-1.368, 5.607e-6
-1.367, 5.399e-6
-1.366, 5.203e-6
-1.365, 5.070e-6
-1.364, 5.016e-6
-1.363, 4.908e-6
-1.362, 4.751e-6
-1.361, 4.603e-6
-1.360, 4.500e-6
-1.359, 4.442e-6
-1.358, 4.321e-6
-1.357, 4.215e-6
-1.356, 4.066e-6
-1.355, 3.951e-6
-1.354, 3.916e-6
-1.353, 3.809e-6
-1.352, 3.669e-6
-1.351, 3.572e-6
-1.350, 3.461e-6
-1.349, 3.400e-6
-1.348, 3.394e-6
-1.347, 3.204e-6
-1.346, 3.119e-6
-1.345, 3.040e-6
-1.344, 2.995e-6
-1.343, 2.966e-6
-1.342, 2.822e-6
-1.341, 2.690e-6
-1.340, 2.688e-6
-1.339, 2.606e-6
-1.338, 2.599e-6
-1.337, 2.424e-6
-1.336, 2.367e-6
-1.335, 2.303e-6
-1.334, 2.285e-6
-1.333, 2.287e-6
-1.332, 2.200e-6
-1.331, 1.981e-6
-1.330, 2.047e-6
-1.329, 1.971e-6
-1.328, 2.003e-6
-1.327, 1.878e-6
-1.326, 1.748e-6
-1.325, 1.761e-6
-1.324, 1.714e-6
-1.323, 1.715e-6
-1.322, 1.605e-6
-1.321, 1.505e-6
-1.320, 1.481e-6
-1.319, 1.479e-6
-1.318, 1.455e-6
-1.317, 1.393e-6
-1.316, 1.289e-6
-1.315, 1.248e-6
-1.314, 1.250e-6
-1.313, 1.228e-6
-1.312, 1.174e-6
-1.311, 1.069e-6
-1.310, 1.043e-6
-1.309, 1.058e-6
-1.308, 1.079e-6
-1.307, 9.361e-7
-1.306, 9.045e-7
-1.305, 8.769e-7
-1.304, 8.641e-7
-1.303, 8.749e-7
-1.302, 7.693e-7
-1.301, 7.042e-7
-1.300, 7.141e-7
-1.299, 6.648e-7
-1.298, 6.845e-7
-1.297, 6.342e-7
-1.296, 5.819e-7
-1.295, 5.148e-7
-1.294, 5.691e-7
-1.293, 5.493e-7
-1.292, 5.118e-7
-1.291, 3.905e-7
-1.290, 4.023e-7
-1.289, 3.895e-7
-1.288, 4.379e-7
-1.287, 3.303e-7
-1.286, 2.445e-7
-1.285, 2.455e-7
-1.284, 2.691e-7
-1.283, 2.445e-7
-1.282, 2.514e-7
-1.281, 9.156e-8
-1.280, 1.202e-7
-1.279, 1.764e-7
-1.278, 1.488e-7
-1.277, 8.169e-8
-1.276, 4.025e-8
-1.275, 3.749e-9
-1.274, 5.998e-8
-1.273, 9.669e-9
-1.272, -1.697e-8
-1.271, -3.177e-8
-1.270, -9.096e-8
-1.269, -7.222e-8
-1.268, -2.782e-8
-1.267, -1.038e-7
-1.266, -1.807e-7
-1.265, -2.192e-7
-1.264, -1.650e-7
-1.263, -1.344e-7
-1.262, -2.488e-7
-1.261, -2.498e-7
-1.260, -2.330e-7
-1.259, -2.656e-7
-1.258, -2.755e-7
-1.257, -2.715e-7
-1.256, -3.583e-7
-1.255, -3.643e-7
-1.254, -3.248e-7
-1.253, -2.981e-7
-1.252, -3.830e-7
-1.251, -4.116e-7
-1.250, -4.590e-7
-1.249, -3.810e-7
-1.248, -3.988e-7
-1.247, -4.323e-7
-1.246, -5.122e-7
-1.245, -4.826e-7
-1.244, -4.313e-7
-1.243, -4.343e-7
-1.242, -4.994e-7
-1.241, -5.586e-7
-1.240, -5.330e-7
-1.239, -4.787e-7
-1.238, -4.777e-7
-1.237, -5.409e-7
-1.236, -5.468e-7
-1.235, -5.734e-7
-1.234, -4.895e-7
-1.233, -4.984e-7
-1.232, -5.339e-7
-1.231, -5.438e-7
-1.230, -6.287e-7
-1.229, -5.695e-7
-1.228, -5.576e-7
-1.227, -5.675e-7
-1.226, -6.740e-7
-1.225, -6.395e-7
-1.224, -5.685e-7
-1.223, -5.783e-7
-1.222, -6.198e-7
-1.221, -6.829e-7
-1.220, -6.444e-7
-1.219, -6.356e-7
-1.218, -5.774e-7
-1.217, -6.208e-7
-1.216, -6.622e-7
-1.215, -6.760e-7
-1.214, -6.277e-7
-1.213, -5.912e-7
-1.212, -6.454e-7
-1.211, -7.135e-7
-1.210, -7.263e-7
-1.209, -6.661e-7
-1.208, -6.178e-7
-1.207, -6.533e-7
-1.206, -7.194e-7
-1.205, -7.155e-7
-1.204, -6.602e-7
-1.203, -6.957e-7
-1.202, -7.066e-7
-1.201, -7.638e-7
-1.200, -7.323e-7
-1.199, -7.007e-7
-1.198, -6.563e-7
-1.197, -7.086e-7
-1.196, -7.392e-7
-1.195, -7.796e-7
-1.194, -7.283e-7
-1.193, -7.086e-7
-1.192, -7.244e-7
-1.191, -7.757e-7
-1.190, -8.033e-7
-1.189, -7.303e-7
-1.188, -6.967e-7
-1.187, -7.530e-7
-1.186, -7.875e-7
-1.185, -8.062e-7
-1.184, -7.836e-7
-1.183, -7.372e-7
-1.182, -7.974e-7
-1.181, -7.776e-7
-1.180, -8.280e-7
-1.179, -8.191e-7
-1.178, -7.796e-7
-1.177, -7.924e-7
-1.176, -8.645e-7
-1.175, -8.911e-7
-1.174, -8.506e-7
-1.173, -7.707e-7
-1.172, -8.388e-7
-1.171, -9.148e-7
-1.170, -9.256e-7
-1.169, -8.635e-7
-1.168, -8.171e-7
-1.167, -8.556e-7
-1.166, -9.296e-7
-1.165, -9.010e-7
-1.164, -8.931e-7
-1.163, -8.664e-7
-1.162, -8.664e-7
-1.161, -9.828e-7
-1.160, -9.710e-7
-1.159, -9.108e-7
-1.158, -8.743e-7
-1.157, -8.911e-7
-1.156, -9.542e-7
-1.155, -1.005e-6
-1.154, -9.611e-7
-1.153, -8.990e-7
-1.152, -9.286e-7
-1.151, -1.027e-6
-1.150, -1.030e-6
-1.149, -9.463e-7
-1.148, -9.404e-7
-1.147, -9.888e-7
-1.146, -1.011e-6
-1.145, -1.060e-6
-1.144, -1.015e-6
-1.143, -9.720e-7
-1.142, -1.021e-6
-1.141, -1.050e-6
-1.140, -1.104e-6
-1.139, -1.098e-6
-1.138, -1.031e-6
-1.137, -1.068e-6
-1.136, -1.100e-6
-1.135, -1.142e-6
-1.134, -1.110e-6
-1.133, -1.019e-6
-1.132, -1.093e-6
-1.131, -1.149e-6
-1.130, -1.187e-6
-1.129, -1.155e-6
-1.128, -1.098e-6
-1.127, -1.106e-6
-1.126, -1.199e-6
-1.125, -1.231e-6
-1.124, -1.181e-6
-1.123, -1.181e-6
-1.122, -1.188e-6
-1.121, -1.230e-6
-1.120, -1.253e-6
-1.119, -1.200e-6
-1.118, -1.166e-6
-1.117, -1.204e-6
-1.116, -1.275e-6
-1.115, -1.333e-6
-1.114, -1.253e-6
-1.113, -1.244e-6
-1.112, -1.268e-6
-1.111, -1.357e-6
-1.110, -1.349e-6
-1.109, -1.290e-6
-1.108, -1.279e-6
-1.107, -1.298e-6
-1.106, -1.382e-6
-1.105, -1.435e-6
-1.104, -1.355e-6
-1.103, -1.333e-6
-1.102, -1.364e-6
-1.101, -1.391e-6
-1.100, -1.438e-6
-1.099, -1.437e-6
-1.098, -1.394e-6
-1.097, -1.461e-6
-1.096, -1.451e-6
-1.095, -1.454e-6
-1.094, -1.492e-6
-1.093, -1.395e-6
-1.092, -1.460e-6
-1.091, -1.530e-6
-1.090, -1.542e-6
-1.089, -1.547e-6
-1.088, -1.474e-6
-1.087, -1.501e-6
-1.086, -1.625e-6
-1.085, -1.601e-6
-1.084, -1.587e-6
-1.083, -1.545e-6
-1.082, -1.586e-6
-1.081, -1.653e-6
-1.080, -1.647e-6
-1.079, -1.620e-6
-1.078, -1.612e-6
-1.077, -1.663e-6
-1.076, -1.707e-6
-1.075, -1.757e-6
-1.074, -1.736e-6
-1.073, -1.703e-6
-1.072, -1.717e-6
-1.071, -1.769e-6
-1.070, -1.824e-6
-1.069, -1.783e-6
-1.068, -1.756e-6
-1.067, -1.770e-6
-1.066, -1.845e-6
-1.065, -1.879e-6
-1.064, -1.835e-6
-1.063, -1.783e-6
-1.062, -1.872e-6
-1.061, -1.930e-6
-1.060, -1.928e-6
-1.059, -1.937e-6
-1.058, -1.892e-6
-1.057, -1.944e-6
-1.056, -1.980e-6
-1.055, -2.011e-6
-1.054, -2.005e-6
-1.053, -1.934e-6
-1.052, -1.946e-6
-1.051, -2.062e-6
-1.050, -2.083e-6
-1.049, -2.113e-6
-1.048, -2.024e-6
-1.047, -2.041e-6
-1.046, -2.134e-6
-1.045, -2.105e-6
-1.044, -2.145e-6
-1.043, -2.094e-6
-1.042, -2.141e-6
-1.041, -2.220e-6
-1.040, -2.249e-6
-1.039, -2.224e-6
-1.038, -2.174e-6
-1.037, -2.205e-6
-1.036, -2.267e-6
-1.035, -2.327e-6
-1.034, -2.288e-6
-1.033, -2.259e-6
-1.032, -2.302e-6
-1.031, -2.352e-6
-1.030, -2.390e-6
-1.029, -2.352e-6
-1.028, -2.319e-6
-1.027, -2.395e-6
-1.026, -2.439e-6
-1.025, -2.480e-6
-1.024, -2.491e-6
-1.023, -2.386e-6
-1.022, -2.465e-6
-1.021, -2.504e-6
-1.020, -2.542e-6
-1.019, -2.571e-6
-1.018, -2.478e-6
-1.017, -2.547e-6
-1.016, -2.588e-6
-1.015, -2.603e-6
-1.014, -2.612e-6
-1.013, -2.577e-6
-1.012, -2.605e-6
-1.011, -2.716e-6
-1.010, -2.702e-6
-1.009, -2.702e-6
-1.008, -2.667e-6
-1.007, -2.693e-6
-1.006, -2.762e-6
-1.005, -2.797e-6
-1.004, -2.767e-6
-1.003, -2.761e-6
-1.002, -2.803e-6
-1.001, -2.838e-6
