Apr. 20, 2025   11:11:45
Cyclic Voltammetry
File: c:/users/guazh/data/banditlqround7_x0exp590_r20/2025-04-16-exp1136\exp1136-2025-04-20t10_59_49-arkoh\exp1136_cv_sr_800mvs_efin_-1500mv.bin
Data Source:  Experiment
Instrument Model:  CHI760E
Header: CV ran at 800 mVs
Note: 

Init E (V) = -1
High E (V) = -1
Low E (V) = -1.5
Final E (V) = -1
Init P/N = N
Scan Rate (V/s) = 0.8
Segment = 3
Sample Interval (V) = 0.001
Quiet Time (sec) = 2
Sensitivity (A/V) = 0.01
Comp R (ohm) = 1.5

Results:

Channel 1:
Segment 1:

Segment 2:

Segment 3:

Potential/V, Current/A

-1.000, 5.565e-5
-1.001, 1.204e-4
-1.002, 1.389e-4
-1.003, 1.451e-4
-1.004, 1.451e-4
-1.005, 1.389e-4
-1.006, 1.358e-4
-1.007, 1.327e-4
-1.008, 1.327e-4
-1.009, 1.358e-4
-1.010, 1.451e-4
-1.011, 1.512e-4
-1.012, 1.574e-4
-1.013, 1.636e-4
-1.014, 1.636e-4
-1.015, 1.636e-4
-1.016, 1.605e-4
-1.017, 1.543e-4
-1.018, 1.481e-4
-1.019, 1.420e-4
-1.020, 1.389e-4
-1.021, 1.389e-4
-1.022, 1.389e-4
-1.023, 1.420e-4
-1.024, 1.481e-4
-1.025, 1.574e-4
-1.026, 1.636e-4
-1.027, 1.636e-4
-1.028, 1.666e-4
-1.029, 1.636e-4
-1.030, 1.574e-4
-1.031, 1.512e-4
-1.032, 1.451e-4
-1.033, 1.389e-4
-1.034, 1.389e-4
-1.035, 1.389e-4
-1.036, 1.420e-4
-1.037, 1.481e-4
-1.038, 1.543e-4
-1.039, 1.605e-4
-1.040, 1.636e-4
-1.041, 1.636e-4
-1.042, 1.636e-4
-1.043, 1.574e-4
-1.044, 1.543e-4
-1.045, 1.481e-4
-1.046, 1.420e-4
-1.047, 1.389e-4
-1.048, 1.358e-4
-1.049, 1.420e-4
-1.050, 1.481e-4
-1.051, 1.512e-4
-1.052, 1.605e-4
-1.053, 1.636e-4
-1.054, 1.636e-4
-1.055, 1.666e-4
-1.056, 1.605e-4
-1.057, 1.574e-4
-1.058, 1.512e-4
-1.059, 1.420e-4
-1.060, 1.420e-4
-1.061, 1.389e-4
-1.062, 1.420e-4
-1.063, 1.451e-4
-1.064, 1.512e-4
-1.065, 1.574e-4
-1.066, 1.636e-4
-1.067, 1.636e-4
-1.068, 1.666e-4
-1.069, 1.636e-4
-1.070, 1.574e-4
-1.071, 1.543e-4
-1.072, 1.481e-4
-1.073, 1.420e-4
-1.074, 1.420e-4
-1.075, 1.420e-4
-1.076, 1.451e-4
-1.077, 1.512e-4
-1.078, 1.574e-4
-1.079, 1.636e-4
-1.080, 1.666e-4
-1.081, 1.666e-4
-1.082, 1.666e-4
-1.083, 1.605e-4
-1.084, 1.574e-4
-1.085, 1.512e-4
-1.086, 1.451e-4
-1.087, 1.451e-4
-1.088, 1.420e-4
-1.089, 1.481e-4
-1.090, 1.512e-4
-1.091, 1.574e-4
-1.092, 1.636e-4
-1.093, 1.666e-4
-1.094, 1.697e-4
-1.095, 1.697e-4
-1.096, 1.636e-4
-1.097, 1.605e-4
-1.098, 1.543e-4
-1.099, 1.481e-4
-1.100, 1.481e-4
-1.101, 1.451e-4
-1.102, 1.481e-4
-1.103, 1.512e-4
-1.104, 1.574e-4
-1.105, 1.636e-4
-1.106, 1.697e-4
-1.107, 1.697e-4
-1.108, 1.728e-4
-1.109, 1.697e-4
-1.110, 1.636e-4
-1.111, 1.605e-4
-1.112, 1.543e-4
-1.113, 1.481e-4
-1.114, 1.481e-4
-1.115, 1.481e-4
-1.116, 1.543e-4
-1.117, 1.574e-4
-1.118, 1.636e-4
-1.119, 1.697e-4
-1.120, 1.728e-4
-1.121, 1.759e-4
-1.122, 1.728e-4
-1.123, 1.697e-4
-1.124, 1.636e-4
-1.125, 1.605e-4
-1.126, 1.543e-4
-1.127, 1.512e-4
-1.128, 1.512e-4
-1.129, 1.543e-4
-1.130, 1.605e-4
-1.131, 1.666e-4
-1.132, 1.728e-4
-1.133, 1.759e-4
-1.134, 1.790e-4
-1.135, 1.790e-4
-1.136, 1.728e-4
-1.137, 1.697e-4
-1.138, 1.666e-4
-1.139, 1.574e-4
-1.140, 1.543e-4
-1.141, 1.543e-4
-1.142, 1.574e-4
-1.143, 1.636e-4
-1.144, 1.666e-4
-1.145, 1.728e-4
-1.146, 1.790e-4
-1.147, 1.790e-4
-1.148, 1.821e-4
-1.149, 1.790e-4
-1.150, 1.759e-4
-1.151, 1.697e-4
-1.152, 1.636e-4
-1.153, 1.605e-4
-1.154, 1.574e-4
-1.155, 1.574e-4
-1.156, 1.636e-4
-1.157, 1.666e-4
-1.158, 1.759e-4
-1.159, 1.821e-4
-1.160, 1.851e-4
-1.161, 1.851e-4
-1.162, 1.851e-4
-1.163, 1.790e-4
-1.164, 1.759e-4
-1.165, 1.697e-4
-1.166, 1.636e-4
-1.167, 1.636e-4
-1.168, 1.605e-4
-1.169, 1.666e-4
-1.170, 1.697e-4
-1.171, 1.759e-4
-1.172, 1.821e-4
-1.173, 1.882e-4
-1.174, 1.882e-4
-1.175, 1.913e-4
-1.176, 1.851e-4
-1.177, 1.821e-4
-1.178, 1.790e-4
-1.179, 1.697e-4
-1.180, 1.666e-4
-1.181, 1.666e-4
-1.182, 1.697e-4
-1.183, 1.728e-4
-1.184, 1.790e-4
-1.185, 1.851e-4
-1.186, 1.913e-4
-1.187, 1.913e-4
-1.188, 1.944e-4
-1.189, 1.913e-4
-1.190, 1.882e-4
-1.191, 1.821e-4
-1.192, 1.759e-4
-1.193, 1.728e-4
-1.194, 1.697e-4
-1.195, 1.728e-4
-1.196, 1.759e-4
-1.197, 1.821e-4
-1.198, 1.851e-4
-1.199, 1.944e-4
-1.200, 1.975e-4
-1.201, 2.006e-4
-1.202, 1.975e-4
-1.203, 1.944e-4
-1.204, 1.882e-4
-1.205, 1.851e-4
-1.206, 1.790e-4
-1.207, 1.759e-4
-1.208, 1.759e-4
-1.209, 1.790e-4
-1.210, 1.851e-4
-1.211, 1.913e-4
-1.212, 1.944e-4
-1.213, 2.006e-4
-1.214, 2.036e-4
-1.215, 2.036e-4
-1.216, 2.006e-4
-1.217, 1.975e-4
-1.218, 1.913e-4
-1.219, 1.851e-4
-1.220, 1.821e-4
-1.221, 1.790e-4
-1.222, 1.821e-4
-1.223, 1.851e-4
-1.224, 1.913e-4
-1.225, 1.975e-4
-1.226, 2.036e-4
-1.227, 2.067e-4
-1.228, 2.098e-4
-1.229, 2.098e-4
-1.230, 2.006e-4
-1.231, 1.975e-4
-1.232, 1.913e-4
-1.233, 1.882e-4
-1.234, 1.851e-4
-1.235, 1.851e-4
-1.236, 1.913e-4
-1.237, 1.944e-4
-1.238, 2.006e-4
-1.239, 2.098e-4
-1.240, 2.098e-4
-1.241, 2.129e-4
-1.242, 2.129e-4
-1.243, 2.067e-4
-1.244, 2.036e-4
-1.245, 1.975e-4
-1.246, 1.913e-4
-1.247, 1.913e-4
-1.248, 1.913e-4
-1.249, 1.944e-4
-1.250, 1.975e-4
-1.251, 2.036e-4
-1.252, 2.098e-4
-1.253, 2.160e-4
-1.254, 2.191e-4
-1.255, 2.191e-4
-1.256, 2.160e-4
-1.257, 2.098e-4
-1.258, 2.067e-4
-1.259, 2.006e-4
-1.260, 1.975e-4
-1.261, 1.944e-4
-1.262, 1.975e-4
-1.263, 2.036e-4
-1.264, 2.067e-4
-1.265, 2.129e-4
-1.266, 2.191e-4
-1.267, 2.221e-4
-1.268, 2.252e-4
-1.269, 2.221e-4
-1.270, 2.160e-4
-1.271, 2.129e-4
-1.272, 2.067e-4
-1.273, 2.036e-4
-1.274, 2.036e-4
-1.275, 2.036e-4
-1.276, 2.098e-4
-1.277, 2.129e-4
-1.278, 2.191e-4
-1.279, 2.252e-4
-1.280, 2.283e-4
-1.281, 2.283e-4
-1.282, 2.283e-4
-1.283, 2.252e-4
-1.284, 2.221e-4
-1.285, 2.160e-4
-1.286, 2.098e-4
-1.287, 2.098e-4
-1.288, 2.098e-4
-1.289, 2.129e-4
-1.290, 2.191e-4
-1.291, 2.221e-4
-1.292, 2.283e-4
-1.293, 2.345e-4
-1.294, 2.376e-4
-1.295, 2.376e-4
-1.296, 2.345e-4
-1.297, 2.314e-4
-1.298, 2.252e-4
-1.299, 2.221e-4
-1.300, 2.191e-4
-1.301, 2.191e-4
-1.302, 2.191e-4
-1.303, 2.252e-4
-1.304, 2.314e-4
-1.305, 2.376e-4
-1.306, 2.437e-4
-1.307, 2.437e-4
-1.308, 2.468e-4
-1.309, 2.468e-4
-1.310, 2.406e-4
-1.311, 2.376e-4
-1.312, 2.345e-4
-1.313, 2.314e-4
-1.314, 2.314e-4
-1.315, 2.283e-4
-1.316, 2.345e-4
-1.317, 2.406e-4
-1.318, 2.468e-4
-1.319, 2.530e-4
-1.320, 2.561e-4
-1.321, 2.591e-4
-1.322, 2.591e-4
-1.323, 2.561e-4
-1.324, 2.530e-4
-1.325, 2.499e-4
-1.326, 2.468e-4
-1.327, 2.437e-4
-1.328, 2.437e-4
-1.329, 2.499e-4
-1.330, 2.561e-4
-1.331, 2.622e-4
-1.332, 2.684e-4
-1.333, 2.746e-4
-1.334, 2.776e-4
-1.335, 2.776e-4
-1.336, 2.776e-4
-1.337, 2.746e-4
-1.338, 2.715e-4
-1.339, 2.684e-4
-1.340, 2.684e-4
-1.341, 2.684e-4
-1.342, 2.715e-4
-1.343, 2.746e-4
-1.344, 2.807e-4
-1.345, 2.900e-4
-1.346, 2.961e-4
-1.347, 3.023e-4
-1.348, 3.054e-4
-1.349, 3.054e-4
-1.350, 3.023e-4
-1.351, 2.992e-4
-1.352, 2.961e-4
-1.353, 2.961e-4
-1.354, 2.961e-4
-1.355, 2.992e-4
-1.356, 3.054e-4
-1.357, 3.115e-4
-1.358, 3.208e-4
-1.359, 3.300e-4
-1.360, 3.331e-4
-1.361, 3.393e-4
-1.362, 3.424e-4
-1.363, 3.424e-4
-1.364, 3.393e-4
-1.365, 3.393e-4
-1.366, 3.393e-4
-1.367, 3.393e-4
-1.368, 3.424e-4
-1.369, 3.485e-4
-1.370, 3.578e-4
-1.371, 3.670e-4
-1.372, 3.763e-4
-1.373, 3.855e-4
-1.374, 3.886e-4
-1.375, 3.948e-4
-1.376, 3.979e-4
-1.377, 4.010e-4
-1.378, 3.979e-4
-1.379, 3.979e-4
-1.380, 4.010e-4
-1.381, 4.071e-4
-1.382, 4.133e-4
-1.383, 4.225e-4
-1.384, 4.318e-4
-1.385, 4.441e-4
-1.386, 4.565e-4
-1.387, 4.657e-4
-1.388, 4.750e-4
-1.389, 4.780e-4
-1.390, 4.842e-4
-1.391, 4.873e-4
-1.392, 4.873e-4
-1.393, 4.935e-4
-1.394, 4.996e-4
-1.395, 5.089e-4
-1.396, 5.212e-4
-1.397, 5.335e-4
-1.398, 5.489e-4
-1.399, 5.644e-4
-1.400, 5.798e-4
-1.401, 5.921e-4
-1.402, 6.014e-4
-1.403, 6.106e-4
-1.404, 6.199e-4
-1.405, 6.291e-4
-1.406, 6.384e-4
-1.407, 6.476e-4
-1.408, 6.599e-4
-1.409, 6.754e-4
-1.410, 6.939e-4
-1.411, 7.154e-4
-1.412, 7.370e-4
-1.413, 7.617e-4
-1.414, 7.802e-4
-1.415, 8.018e-4
-1.416, 8.203e-4
-1.417, 8.388e-4
-1.418, 8.573e-4
-1.419, 8.758e-4
-1.420, 8.973e-4
-1.421, 9.220e-4
-1.422, 9.498e-4
-1.423, 9.775e-4
-1.424, 1.011e-3
-1.425, 1.048e-3
-1.426, 1.088e-3
-1.427, 1.125e-3
-1.428, 1.169e-3
-1.429, 1.206e-3
-1.430, 1.246e-3
-1.431, 1.286e-3
-1.432, 1.329e-3
-1.433, 1.372e-3
-1.434, 1.421e-3
-1.435, 1.474e-3
-1.436, 1.532e-3
-1.437, 1.597e-3
-1.438, 1.665e-3
-1.439, 1.739e-3
-1.440, 1.813e-3
-1.441, 1.893e-3
-1.442, 1.973e-3
-1.443, 2.054e-3
-1.444, 2.137e-3
-1.445, 2.223e-3
-1.446, 2.309e-3
-1.447, 2.396e-3
-1.448, 2.491e-3
-1.449, 2.590e-3
-1.450, 2.695e-3
-1.451, 2.803e-3
-1.452, 2.917e-3
-1.453, 3.037e-3
-1.454, 3.160e-3
-1.455, 3.284e-3
-1.456, 3.407e-3
-1.457, 3.524e-3
-1.458, 3.644e-3
-1.459, 3.762e-3
-1.460, 3.879e-3
-1.461, 3.996e-3
-1.462, 4.116e-3
-1.463, 4.236e-3
-1.464, 4.360e-3
-1.465, 4.489e-3
-1.466, 4.619e-3
-1.467, 4.748e-3
-1.468, 4.881e-3
-1.469, 5.004e-3
-1.470, 5.127e-3
-1.471, 5.241e-3
-1.472, 5.356e-3
-1.473, 5.463e-3
-1.474, 5.571e-3
-1.475, 5.676e-3
-1.476, 5.787e-3
-1.477, 5.901e-3
-1.478, 6.018e-3
-1.479, 6.139e-3
-1.480, 6.262e-3
-1.481, 6.382e-3
-1.482, 6.502e-3
-1.483, 6.617e-3
-1.484, 6.724e-3
-1.485, 6.832e-3
-1.486, 6.934e-3
-1.487, 7.036e-3
-1.488, 7.138e-3
-1.489, 7.242e-3
-1.490, 7.350e-3
-1.491, 7.461e-3
-1.492, 7.578e-3
-1.493, 7.699e-3
-1.494, 7.819e-3
-1.495, 7.939e-3
-1.496, 8.056e-3
-1.497, 8.167e-3
-1.498, 8.272e-3
-1.499, 8.374e-3
-1.500, 8.386e-3
-1.499, 8.275e-3
-1.498, 8.177e-3
-1.497, 8.081e-3
-1.496, 7.988e-3
-1.495, 7.899e-3
-1.494, 7.813e-3
-1.493, 7.730e-3
-1.492, 7.646e-3
-1.491, 7.557e-3
-1.490, 7.467e-3
-1.489, 7.369e-3
-1.488, 7.267e-3
-1.487, 7.162e-3
-1.486, 7.054e-3
-1.485, 6.953e-3
-1.484, 6.851e-3
-1.483, 6.758e-3
-1.482, 6.669e-3
-1.481, 6.586e-3
-1.480, 6.502e-3
-1.479, 6.419e-3
-1.478, 6.336e-3
-1.477, 6.247e-3
-1.476, 6.154e-3
-1.475, 6.062e-3
-1.474, 5.960e-3
-1.473, 5.864e-3
-1.472, 5.766e-3
-1.471, 5.673e-3
-1.470, 5.584e-3
-1.469, 5.500e-3
-1.468, 5.420e-3
-1.467, 5.346e-3
-1.466, 5.269e-3
-1.465, 5.192e-3
-1.464, 5.112e-3
-1.463, 5.029e-3
-1.462, 4.942e-3
-1.461, 4.856e-3
-1.460, 4.764e-3
-1.459, 4.674e-3
-1.458, 4.588e-3
-1.457, 4.508e-3
-1.456, 4.434e-3
-1.455, 4.360e-3
-1.454, 4.292e-3
-1.453, 4.224e-3
-1.452, 4.159e-3
-1.451, 4.088e-3
-1.450, 4.017e-3
-1.449, 3.940e-3
-1.448, 3.863e-3
-1.447, 3.780e-3
-1.446, 3.703e-3
-1.445, 3.626e-3
-1.444, 3.555e-3
-1.443, 3.487e-3
-1.442, 3.425e-3
-1.441, 3.364e-3
-1.440, 3.308e-3
-1.439, 3.247e-3
-1.438, 3.188e-3
-1.437, 3.126e-3
-1.436, 3.059e-3
-1.435, 2.994e-3
-1.434, 2.926e-3
-1.433, 2.858e-3
-1.432, 2.790e-3
-1.431, 2.732e-3
-1.430, 2.673e-3
-1.429, 2.618e-3
-1.428, 2.568e-3
-1.427, 2.519e-3
-1.426, 2.470e-3
-1.425, 2.420e-3
-1.424, 2.368e-3
-1.423, 2.312e-3
-1.422, 2.257e-3
-1.421, 2.201e-3
-1.420, 2.146e-3
-1.419, 2.091e-3
-1.418, 2.038e-3
-1.417, 1.992e-3
-1.416, 1.946e-3
-1.415, 1.906e-3
-1.414, 1.865e-3
-1.413, 1.828e-3
-1.412, 1.785e-3
-1.411, 1.745e-3
-1.410, 1.702e-3
-1.409, 1.656e-3
-1.408, 1.613e-3
-1.407, 1.563e-3
-1.406, 1.520e-3
-1.405, 1.480e-3
-1.404, 1.440e-3
-1.403, 1.406e-3
-1.402, 1.375e-3
-1.401, 1.344e-3
-1.400, 1.314e-3
-1.399, 1.283e-3
-1.398, 1.249e-3
-1.397, 1.218e-3
-1.396, 1.181e-3
-1.395, 1.147e-3
-1.394, 1.110e-3
-1.393, 1.076e-3
-1.392, 1.042e-3
-1.391, 1.011e-3
-1.390, 9.868e-4
-1.389, 9.621e-4
-1.388, 9.405e-4
-1.387, 9.189e-4
-1.386, 8.943e-4
-1.385, 8.727e-4
-1.384, 8.449e-4
-1.383, 8.172e-4
-1.382, 7.894e-4
-1.381, 7.617e-4
-1.380, 7.339e-4
-1.379, 7.124e-4
-1.378, 6.877e-4
-1.377, 6.661e-4
-1.376, 6.507e-4
-1.375, 6.353e-4
-1.374, 6.199e-4
-1.373, 6.044e-4
-1.372, 5.859e-4
-1.371, 5.705e-4
-1.370, 5.489e-4
-1.369, 5.274e-4
-1.368, 5.058e-4
-1.367, 4.842e-4
-1.366, 4.657e-4
-1.365, 4.503e-4
-1.364, 4.349e-4
-1.363, 4.256e-4
-1.362, 4.164e-4
-1.361, 4.040e-4
-1.360, 3.948e-4
-1.359, 3.825e-4
-1.358, 3.670e-4
-1.357, 3.547e-4
-1.356, 3.362e-4
-1.355, 3.208e-4
-1.354, 3.054e-4
-1.353, 2.900e-4
-1.352, 2.776e-4
-1.351, 2.684e-4
-1.350, 2.622e-4
-1.349, 2.561e-4
-1.348, 2.499e-4
-1.347, 2.437e-4
-1.346, 2.376e-4
-1.345, 2.283e-4
-1.344, 2.191e-4
-1.343, 2.036e-4
-1.342, 1.913e-4
-1.341, 1.790e-4
-1.340, 1.666e-4
-1.339, 1.605e-4
-1.338, 1.512e-4
-1.337, 1.481e-4
-1.336, 1.451e-4
-1.335, 1.420e-4
-1.334, 1.389e-4
-1.333, 1.358e-4
-1.332, 1.296e-4
-1.331, 1.204e-4
-1.330, 1.111e-4
-1.329, 1.019e-4
-1.328, 9.265e-5
-1.327, 8.032e-5
-1.326, 7.415e-5
-1.325, 6.798e-5
-1.324, 6.490e-5
-1.323, 6.490e-5
-1.322, 6.490e-5
-1.321, 6.490e-5
-1.320, 6.490e-5
-1.319, 5.873e-5
-1.318, 5.257e-5
-1.317, 4.640e-5
-1.316, 3.715e-5
-1.315, 2.790e-5
-1.314, 1.865e-5
-1.313, 1.557e-5
-1.312, 9.405e-6
-1.311, 9.405e-6
-1.310, 9.405e-6
-1.309, 9.405e-6
-1.308, 9.405e-6
-1.307, 1.249e-5
-1.306, 9.405e-6
-1.305, 6.322e-6
-1.304, 1.559e-7
-1.303, -6.010e-6
-1.302, -1.526e-5
-1.301, -2.143e-5
-1.300, -2.759e-5
-1.299, -3.068e-5
-1.298, -3.376e-5
-1.297, -3.068e-5
-1.296, -3.068e-5
-1.295, -2.759e-5
-1.294, -2.451e-5
-1.293, -2.451e-5
-1.292, -2.759e-5
-1.291, -3.068e-5
-1.290, -3.684e-5
-1.289, -4.609e-5
-1.288, -4.917e-5
-1.287, -5.534e-5
-1.286, -6.151e-5
-1.285, -6.151e-5
-1.284, -6.151e-5
-1.283, -5.842e-5
-1.282, -5.534e-5
-1.281, -5.226e-5
-1.280, -5.226e-5
-1.279, -5.226e-5
-1.278, -5.534e-5
-1.277, -5.842e-5
-1.276, -6.459e-5
-1.275, -7.076e-5
-1.274, -7.692e-5
-1.273, -8.000e-5
-1.272, -8.309e-5
-1.271, -8.000e-5
-1.270, -8.000e-5
-1.269, -7.692e-5
-1.268, -7.384e-5
-1.267, -7.076e-5
-1.266, -6.767e-5
-1.265, -7.076e-5
-1.264, -7.384e-5
-1.263, -8.309e-5
-1.262, -8.617e-5
-1.261, -9.234e-5
-1.260, -9.850e-5
-1.259, -9.850e-5
-1.258, -9.850e-5
-1.257, -9.850e-5
-1.256, -9.234e-5
-1.255, -8.925e-5
-1.254, -8.309e-5
-1.253, -8.309e-5
-1.252, -8.309e-5
-1.251, -8.617e-5
-1.250, -9.234e-5
-1.249, -9.850e-5
-1.248, -1.016e-4
-1.247, -1.108e-4
-1.246, -1.108e-4
-1.245, -1.108e-4
-1.244, -1.078e-4
-1.243, -1.047e-4
-1.242, -1.016e-4
-1.241, -9.850e-5
-1.240, -9.542e-5
-1.239, -9.234e-5
-1.238, -9.542e-5
-1.237, -9.850e-5
-1.236, -1.078e-4
-1.235, -1.108e-4
-1.234, -1.170e-4
-1.233, -1.201e-4
-1.232, -1.232e-4
-1.231, -1.201e-4
-1.230, -1.170e-4
-1.229, -1.139e-4
-1.228, -1.078e-4
-1.227, -1.047e-4
-1.226, -1.047e-4
-1.225, -1.047e-4
-1.224, -1.078e-4
-1.223, -1.139e-4
-1.222, -1.170e-4
-1.221, -1.232e-4
-1.220, -1.293e-4
-1.219, -1.293e-4
-1.218, -1.293e-4
-1.217, -1.263e-4
-1.216, -1.201e-4
-1.215, -1.170e-4
-1.214, -1.108e-4
-1.213, -1.108e-4
-1.212, -1.108e-4
-1.211, -1.108e-4
-1.210, -1.201e-4
-1.209, -1.232e-4
-1.208, -1.293e-4
-1.207, -1.355e-4
-1.206, -1.355e-4
-1.205, -1.355e-4
-1.204, -1.355e-4
-1.203, -1.293e-4
-1.202, -1.232e-4
-1.201, -1.201e-4
-1.200, -1.170e-4
-1.199, -1.170e-4
-1.198, -1.201e-4
-1.197, -1.232e-4
-1.196, -1.293e-4
-1.195, -1.355e-4
-1.194, -1.386e-4
-1.193, -1.417e-4
-1.192, -1.448e-4
-1.191, -1.417e-4
-1.190, -1.386e-4
-1.189, -1.324e-4
-1.188, -1.293e-4
-1.187, -1.232e-4
-1.186, -1.232e-4
-1.185, -1.232e-4
-1.184, -1.263e-4
-1.183, -1.324e-4
-1.182, -1.355e-4
-1.181, -1.448e-4
-1.180, -1.478e-4
-1.179, -1.478e-4
-1.178, -1.478e-4
-1.177, -1.478e-4
-1.176, -1.417e-4
-1.175, -1.355e-4
-1.174, -1.293e-4
-1.173, -1.263e-4
-1.172, -1.293e-4
-1.171, -1.293e-4
-1.170, -1.355e-4
-1.169, -1.417e-4
-1.168, -1.478e-4
-1.167, -1.540e-4
-1.166, -1.540e-4
-1.165, -1.571e-4
-1.164, -1.540e-4
-1.163, -1.478e-4
-1.162, -1.417e-4
-1.161, -1.386e-4
-1.160, -1.355e-4
-1.159, -1.324e-4
-1.158, -1.355e-4
-1.157, -1.386e-4
-1.156, -1.478e-4
-1.155, -1.478e-4
-1.154, -1.571e-4
-1.153, -1.602e-4
-1.152, -1.632e-4
-1.151, -1.602e-4
-1.150, -1.540e-4
-1.149, -1.478e-4
-1.148, -1.448e-4
-1.147, -1.386e-4
-1.146, -1.386e-4
-1.145, -1.386e-4
-1.144, -1.417e-4
-1.143, -1.478e-4
-1.142, -1.540e-4
-1.141, -1.602e-4
-1.140, -1.632e-4
-1.139, -1.663e-4
-1.138, -1.663e-4
-1.137, -1.632e-4
-1.136, -1.571e-4
-1.135, -1.540e-4
-1.134, -1.448e-4
-1.133, -1.448e-4
-1.132, -1.417e-4
-1.131, -1.478e-4
-1.130, -1.509e-4
-1.129, -1.571e-4
-1.128, -1.632e-4
-1.127, -1.694e-4
-1.126, -1.725e-4
-1.125, -1.725e-4
-1.124, -1.694e-4
-1.123, -1.632e-4
-1.122, -1.602e-4
-1.121, -1.540e-4
-1.120, -1.509e-4
-1.119, -1.478e-4
-1.118, -1.509e-4
-1.117, -1.540e-4
-1.116, -1.602e-4
-1.115, -1.663e-4
-1.114, -1.725e-4
-1.113, -1.756e-4
-1.112, -1.787e-4
-1.111, -1.756e-4
-1.110, -1.694e-4
-1.109, -1.663e-4
-1.108, -1.602e-4
-1.107, -1.571e-4
-1.106, -1.540e-4
-1.105, -1.540e-4
-1.104, -1.571e-4
-1.103, -1.632e-4
-1.102, -1.694e-4
-1.101, -1.756e-4
-1.100, -1.817e-4
-1.099, -1.817e-4
-1.098, -1.817e-4
-1.097, -1.787e-4
-1.096, -1.725e-4
-1.095, -1.694e-4
-1.094, -1.632e-4
-1.093, -1.602e-4
-1.092, -1.602e-4
-1.091, -1.602e-4
-1.090, -1.663e-4
-1.089, -1.725e-4
-1.088, -1.787e-4
-1.087, -1.848e-4
-1.086, -1.879e-4
-1.085, -1.879e-4
-1.084, -1.848e-4
-1.083, -1.787e-4
-1.082, -1.756e-4
-1.081, -1.694e-4
-1.080, -1.663e-4
-1.079, -1.632e-4
-1.078, -1.663e-4
-1.077, -1.694e-4
-1.076, -1.756e-4
-1.075, -1.817e-4
-1.074, -1.879e-4
-1.073, -1.941e-4
-1.072, -1.941e-4
-1.071, -1.910e-4
-1.070, -1.879e-4
-1.069, -1.787e-4
-1.068, -1.756e-4
-1.067, -1.725e-4
-1.066, -1.694e-4
-1.065, -1.694e-4
-1.064, -1.725e-4
-1.063, -1.787e-4
-1.062, -1.848e-4
-1.061, -1.910e-4
-1.060, -1.972e-4
-1.059, -1.972e-4
-1.058, -1.972e-4
-1.057, -1.941e-4
-1.056, -1.879e-4
-1.055, -1.848e-4
-1.054, -1.787e-4
-1.053, -1.756e-4
-1.052, -1.756e-4
-1.051, -1.756e-4
-1.050, -1.817e-4
-1.049, -1.879e-4
-1.048, -1.941e-4
-1.047, -2.002e-4
-1.046, -2.033e-4
-1.045, -2.064e-4
-1.044, -2.033e-4
-1.043, -1.972e-4
-1.042, -1.910e-4
-1.041, -1.848e-4
-1.040, -1.817e-4
-1.039, -1.787e-4
-1.038, -1.817e-4
-1.037, -1.879e-4
-1.036, -1.910e-4
-1.035, -1.972e-4
-1.034, -2.064e-4
-1.033, -2.095e-4
-1.032, -2.126e-4
-1.031, -2.095e-4
-1.030, -2.064e-4
-1.029, -2.002e-4
-1.028, -1.941e-4
-1.027, -1.879e-4
-1.026, -1.879e-4
-1.025, -1.879e-4
-1.024, -1.910e-4
-1.023, -1.972e-4
-1.022, -2.033e-4
-1.021, -2.095e-4
-1.020, -2.157e-4
-1.019, -2.187e-4
-1.018, -2.187e-4
-1.017, -2.157e-4
-1.016, -2.095e-4
-1.015, -2.033e-4
-1.014, -2.002e-4
-1.013, -1.941e-4
-1.012, -1.941e-4
-1.011, -1.972e-4
-1.010, -2.033e-4
-1.009, -2.095e-4
-1.008, -2.157e-4
-1.007, -2.218e-4
-1.006, -2.280e-4
-1.005, -2.280e-4
-1.004, -2.249e-4
-1.003, -2.218e-4
-1.002, -2.157e-4
-1.001, -2.095e-4
