Potential V vs RHE, Current mA cm-2
0.013299999999999867,-0.4384190318281749
0.012299999999999978,-2.1828995356917518
0.011299999999999866,-3.623075638954359
0.010299999999999976,-4.843971490737885
0.009299999999999864,-5.977155241929781
0.008299999999999974,-6.981600264833956
0.007299999999999862,-7.853062425550818
0.006299999999999972,-8.638227196975913
0.00529999999999986,-9.24938247851761
0.0042999999999999705,-9.85912304875944
0.0032999999999998586,-10.340124890713554
0.0022999999999999687,-10.819712021367803
0.0012999999999998568,-11.299299152022046
0.00029999999999996696,-11.82274233297211
-0.000700000000000145,-12.258473413330542
-0.0017000000000000348,-12.651763154693022
-0.0027000000000001467,-12.955926084164007
-0.0037000000000000366,-13.217647674639037
-0.0047000000000001485,-13.436927926118118
-0.005700000000000038,-13.698649516593148
-0.00670000000000015,-13.960371107068182
-0.00770000000000004,-14.217848563643619
-0.008700000000000152,-14.529085049613924
-0.009700000000000042,-14.783733083589633
-0.010700000000000154,-15.01008689156804
-0.011700000000000044,-15.137410908555893
-0.012700000000000156,-15.222293586547794
-0.013700000000000045,-15.349617603535648
-0.014700000000000157,-15.533530072518102
-0.015700000000000047,-15.74573676749786
-0.01670000000000016,-15.972090575476265
-0.01770000000000005,-16.099414592464115
-0.01870000000000016,-16.269179948447924
-0.01970000000000005,-16.354062626439823
-0.020700000000000163,-16.396503965435777
-0.021700000000000053,-16.495533756426326
-0.022700000000000164,-16.580416434418233
-0.023700000000000054,-16.70774045140608
-0.024700000000000166,-16.877505807389888
-0.025700000000000056,-17.018976937376394
-0.026700000000000168,-17.103859615368293
-0.027700000000000058,-17.188742293360193
-0.02870000000000017,-17.188742293360193
-0.02970000000000006,-17.231183632356142
-0.03070000000000017,-17.316066310348052
-0.03170000000000006,-17.40094898833995
-0.03270000000000017,-17.542420118326454
-0.03370000000000006,-17.669744135314307
-0.034700000000000175,-17.75462681330621
-0.035700000000000065,-17.797068152302163
-0.03670000000000018,-17.839509491298113
-0.03770000000000007,-17.839509491298113
-0.03870000000000018,-17.881950830294063
-0.03970000000000007,-17.924392169290012
-0.04070000000000018,-18.06586329927652
-0.04170000000000007,-18.19318731626437
-0.04270000000000018,-18.23562865526032
-0.04370000000000007,-18.320511333252224
-0.044700000000000184,-18.320511333252224
-0.045700000000000074,-18.362952672248177
-0.046700000000000186,-18.362952672248177
-0.047700000000000076,-18.40539401124413
-0.04870000000000019,-18.44783535024008
-0.04970000000000008,-18.589306480226583
-0.05070000000000019,-18.674189158218486
-0.05170000000000008,-18.759071836210385
-0.05270000000000019,-18.759071836210385
-0.05370000000000008,-18.759071836210385
-0.05470000000000019,-18.759071836210385
-0.05570000000000008,-18.759071836210385
-0.056700000000000195,-18.843954514202288
-0.057700000000000085,-18.92883719219419
-0.058700000000000196,-19.01371987018609
-0.059700000000000086,-19.112749661176647
-0.0607000000000002,-19.155191000172596
-0.06170000000000009,-19.155191000172596
-0.0627000000000002,-19.155191000172596
-0.06370000000000009,-19.155191000172596
-0.0647000000000002,-19.197632339168546
-0.06570000000000009,-19.28251501716045
-0.0667000000000002,-19.3249563561564
-0.0677000000000001,-19.452280373144255
-0.0687000000000002,-19.452280373144255
-0.0697000000000001,-19.452280373144255
-0.07070000000000021,-19.452280373144255
-0.0717000000000001,-19.452280373144255
-0.07270000000000021,-19.452280373144255
-0.0737000000000001,-19.537163051136158
-0.07470000000000021,-19.579604390132108
-0.0757000000000001,-19.721075520118614
-0.07670000000000021,-19.763516859114564
-0.0777000000000001,-19.763516859114564
-0.07870000000000021,-19.763516859114564
-0.0797000000000001,-19.721075520118614
-0.08070000000000022,-19.721075520118614
-0.0817000000000001,-19.763516859114564
-0.08270000000000022,-19.848399537106463
-0.08370000000000011,-19.93328221509837
-0.08470000000000022,-20.01816489309027
-0.08570000000000011,-20.01816489309027
-0.08670000000000022,-20.06060623208622
-0.08770000000000011,-20.01816489309027
-0.08870000000000022,-20.01816489309027
-0.08970000000000011,-20.01816489309027
-0.09070000000000022,-20.10304757108217
-0.09170000000000011,-20.244518701068674
-0.09270000000000023,-20.244518701068674
-0.09370000000000012,-20.286960040064624
-0.09470000000000023,-20.286960040064624
-0.09570000000000012,-20.286960040064624
-0.09670000000000023,-20.286960040064624
-0.09770000000000012,-20.286960040064624
-0.09870000000000023,-20.371842718056527
-0.09970000000000012,-20.456725396048434
-0.10070000000000023,-20.499166735044383
-0.10170000000000012,-20.541608074040333
-0.10270000000000024,-20.584049413036283
-0.10370000000000013,-20.541608074040333
-0.10470000000000024,-20.499166735044383
-0.10570000000000013,-20.541608074040333
-0.10670000000000024,-20.584049413036283
-0.10770000000000013,-20.683079204026836
-0.10870000000000024,-20.76796188201874
-0.10970000000000013,-20.810403221014692
-0.11070000000000024,-20.810403221014692
-0.11170000000000013,-20.810403221014692
-0.11270000000000002,-20.810403221014692
-0.11370000000000013,-20.810403221014692
-0.11470000000000002,-20.85284456001064
-0.11570000000000014,-20.89528589900659
-0.11670000000000003,-21.022609915994444
-0.11770000000000014,-21.065051254990397
-0.11870000000000003,-21.107492593986347
-0.11970000000000014,-21.107492593986347
-0.12070000000000003,-21.065051254990397
-0.12170000000000014,-21.065051254990397
-0.12270000000000003,-21.065051254990397
-0.12370000000000014,-21.149933932982297
-0.12470000000000003,-21.248963723972853
-0.12570000000000014,-21.333846401964752
-0.12670000000000003,-21.376287740960702
-0.12770000000000015,-21.376287740960702
-0.12870000000000004,-21.333846401964752
-0.12970000000000015,-21.333846401964752
-0.13070000000000004,-21.333846401964752
-0.13170000000000015,-21.418729079956652
-0.13270000000000004,-21.503611757948562
-0.13370000000000015,-21.54605309694451
-0.13470000000000004,-21.63093577493641
-0.13570000000000015,-21.63093577493641
-0.13670000000000004,-21.63093577493641
-0.13770000000000016,-21.63093577493641
-0.13870000000000005,-21.63093577493641
-0.13970000000000016,-21.67337711393236
-0.14070000000000005,-21.729965565926964
-0.14170000000000016,-21.814848243918867
-0.14270000000000005,-21.899730921910766
-0.14370000000000016,-21.94217226090672
-0.14470000000000005,-21.94217226090672
-0.14570000000000016,-21.94217226090672
-0.14670000000000005,-21.899730921910766
-0.14770000000000016,-21.94217226090672
-0.14870000000000005,-22.027054938898623
-0.14970000000000017,-22.111937616890522
-0.15070000000000006,-22.196820294882425
-0.15170000000000017,-22.253408746877028
-0.15270000000000006,-22.295850085872978
-0.15370000000000017,-22.253408746877028
-0.15470000000000006,-22.253408746877028
-0.15570000000000017,-22.253408746877028
-0.15670000000000006,-22.295850085872978
-0.15770000000000017,-22.38073276386488
-0.15870000000000006,-22.508056780852733
-0.15970000000000018,-22.550498119848687
-0.16070000000000007,-22.592939458844636
-0.16170000000000018,-22.592939458844636
-0.16270000000000007,-22.550498119848687
-0.16370000000000018,-22.550498119848687
-0.16470000000000007,-22.63538079784059
-0.16570000000000018,-22.72026347583249
-0.16670000000000007,-22.819293266823045
-0.16770000000000018,-22.904175944814945
-0.16870000000000007,-22.946617283810895
-0.16970000000000018,-22.946617283810895
-0.17070000000000007,-22.946617283810895
-0.17170000000000019,-22.946617283810895
-0.17270000000000008,-22.946617283810895
-0.1737000000000002,-23.031499961802798
-0.17470000000000008,-23.1163826397947
-0.1757000000000002,-23.2012653177866
-0.17670000000000008,-23.300295108777156
-0.1777000000000002,-23.300295108777156
-0.17870000000000008,-23.300295108777156
-0.1797000000000002,-23.300295108777156
-0.18070000000000008,-23.300295108777156
-0.1817000000000002,-23.385177786769056
-0.18270000000000008,-23.47006046476096
-0.1837000000000002,-23.55494314275286
-0.1847000000000001,-23.639825820744765
-0.1857000000000002,-23.682267159740714
-0.1867000000000001,-23.682267159740714
-0.1877000000000002,-23.682267159740714
-0.1887000000000001,-23.724708498736668
-0.1897000000000002,-23.767149837732617
-0.1907000000000001,-23.86617962872317
-0.1917000000000001,-23.951062306715073
-0.19269999999999998,-24.035944984706973
-0.1937000000000001,-24.120827662698876
-0.19469999999999998,-24.120827662698876
-0.1957000000000001,-24.120827662698876
-0.19669999999999999,-24.120827662698876
-0.1977000000000001,-24.16326900169483
-0.1987,-24.290593018682678
-0.1997000000000001,-24.389622809673234
-0.2007,-24.474505487665134
-0.2017000000000001,-24.559388165657033
-0.2027,-24.601829504652986
-0.2037000000000001,-24.601829504652986
-0.2047,-24.601829504652986
-0.2057000000000001,-24.64427084364894
-0.2067,-24.729153521640843
-0.2077000000000001,-24.870624651627345
-0.2087,-24.95550732961925
-0.2097000000000001,-25.0828313466071
-0.2107,-25.12527268560305
-0.2117000000000001,-25.12527268560305
-0.2127,-25.12527268560305
-0.2137000000000001,-25.167714024599
-0.2147,-25.252596702590903
-0.2157000000000001,-25.39406783257741
-0.2167,-25.521391849565262
-0.21770000000000012,-25.648715866553115
-0.2187,-25.691157205549064
-0.21970000000000012,-25.73359854454502
-0.2207,-25.73359854454502
-0.22170000000000012,-25.77603988354097
-0.2227,-25.86092256153287
-0.22370000000000012,-25.959952352523427
-0.2247,-26.087276369511276
-0.22570000000000012,-26.21460038649913
-0.2267,-26.34192440348698
-0.22770000000000012,-26.38436574248293
-0.22870000000000001,-26.440954194477534
-0.22970000000000013,-26.440954194477534
-0.23070000000000002,-26.525836872469437
-0.23170000000000013,-26.61071955046134
-0.23270000000000002,-26.780484906445146
-0.23370000000000013,-26.9643973754276
-0.23470000000000002,-27.049280053419505
-0.23570000000000013,-27.176604070407354
-0.23670000000000002,-27.219045409403304
-0.2376999999999999,-27.261486748399253
-0.23870000000000002,-27.303928087395207
-0.2396999999999999,-27.38881076538711
-0.24070000000000003,-27.572723234369565
-0.24169999999999991,-27.742488590353368
-0.24270000000000003,-27.869812607341224
-0.24369999999999992,-28.011283737327723
-0.24470000000000003,-28.09616641531963
-0.24569999999999992,-28.13860775431558
-0.24670000000000003,-28.22349043230748
-0.24769999999999992,-28.308373110299385
-0.24870000000000003,-28.478138466283188
-0.24969999999999992,-28.662050935265643
-0.25070000000000003,-28.831816291249446
-0.2516999999999999,-29.001581647233255
-0.25270000000000004,-29.100611438223805
-0.2536999999999999,-29.18549411621571
-0.25470000000000004,-29.27037679420761
-0.2556999999999999,-29.39770081119546
-0.25670000000000004,-29.581613280177915
-0.25769999999999993,-29.751378636161718
-0.25870000000000004,-29.96358533114148
-0.25969999999999993,-30.147497800123933
-0.26070000000000004,-30.274821817111786
-0.26169999999999993,-30.402145834099635
-0.26270000000000004,-30.487028512091538
-0.26369999999999993,-30.614352529079397
-0.26470000000000005,-30.79826499806185
-0.26569999999999994,-31.010471693041605
-0.26670000000000005,-31.23682550102001
-0.26769999999999994,-31.449032195999767
-0.26870000000000005,-31.618797551983565
-0.26969999999999994,-31.802710020966025
-0.27070000000000005,-31.930034037953877
-0.27169999999999994,-32.05735805494172
-0.27270000000000005,-32.24127052392419
-0.27369999999999994,-32.49591855789989
-0.27470000000000006,-32.764713704874254
-0.27569999999999995,-33.01936173884996
-0.27670000000000006,-33.231568433829715
-0.27769999999999995,-33.41548090281216
-0.27870000000000006,-33.58524625879597
-0.27969999999999995,-33.712570275783825
-0.28070000000000006,-33.93892408376223
-0.28169999999999995,-34.193572117737936
-0.28270000000000006,-34.462367264712285
-0.28369999999999995,-34.75945663768395
-0.28470000000000006,-35.02825178465831
-0.28569999999999995,-35.240458479638065
-0.28670000000000007,-35.46681228761647
-0.28769999999999996,-35.679018982596226
-0.28870000000000007,-35.90537279057463
-0.28969999999999996,-36.16002082455034
-0.29070000000000007,-36.5136986495166
-0.29169999999999996,-36.81078802248826
-0.29270000000000007,-37.122024508458566
-0.29369999999999996,-37.41911388143023
-0.2947000000000001,-37.645467689408626
-0.29569999999999996,-37.90011572338433
-0.2967000000000001,-38.16891087035869
-0.29769999999999996,-38.42355890433439
-0.2987000000000001,-38.777236729300654
-0.29969999999999997,-39.130914554266916
-0.3007000000000001,-39.47044526623452
-0.30169999999999997,-39.82412309120078
-0.3027000000000001,-40.177800916167044
-0.30369999999999997,-40.43244895014274
-0.3047000000000001,-40.743685436113054
-0.30569999999999997,-41.04077480908471
-0.3067000000000001,-41.39445263405098
-0.3077,-41.83301313700913
-0.3087000000000001,-42.2715736399673
-0.3097,-42.6111043519349
-0.3107000000000001,-42.96478217690117
-0.3117,-43.31846000186743
-0.3127000000000001,-43.657990713835034
-0.3137,-44.011668538801295
-0.3147000000000001,-44.4077877027635
-0.3157,-44.88878954471762
-0.3167000000000001,-45.32735004767578
-0.3177,-45.75176343763528
-0.3187000000000001,-46.2327652795894
-0.3197,-46.628884443551605
-0.3207000000000001,-47.02500360751382
-0.3217,-47.40697565847737
-0.3227000000000001,-47.80309482243959
-0.3237,-48.32653800338966
-0.3247000000000001,-48.84998118433972
-0.3257,-49.373424365289786
-0.3267000000000001,-49.85442620724389
-0.3277,-50.29298671020206
-0.3287000000000001,-50.73154721316022
-0.3297,-51.17010771611838
-0.3307000000000001,-51.65110955807249
-0.3317,-52.2169940780185
-0.3327000000000001,-52.74043725896857
-0.3337,-53.30632177891458
-0.3347000000000001,-53.872206298860604
-0.3357,-54.39564947981066
-0.3367000000000001,-54.876651321764776
-0.3377,-55.400094502714836
-0.3387000000000001,-55.881096344668954
-0.3397,-56.44698086461496
-0.3407000000000001,-57.097748062552874
-0.3417,-57.7485152604908
-0.3427000000000001,-58.35684111943277
-0.3437,-58.92272563937878
-0.3447000000000001,-59.502757272323436
-0.3457,-60.06864179226946
-0.3467000000000001,-60.63452631221547
-0.3477,-61.242852171157445
-0.3487000000000001,-61.851178030099405
-0.3497,-62.544386567033264
-0.3507000000000001,-63.20930087796983
-0.3517,-63.902509414903705
-0.3527000000000001,-64.51083527384567
-0.3537,-65.16160247178358
-0.3547000000000001,-65.7274869917296
-0.3557,-66.39240130266617
-0.35670000000000013,-67.128051178596
-0.3577,-67.86370105452582
-0.35870000000000013,-68.61349804345427
-0.3597,-69.3491479193841
-0.36070000000000013,-70.05650356931662
-0.3617,-70.70727076725453
-0.3626999999999999,-71.4004793041884
-0.3637,-72.10783495412092
-0.3646999999999999,-72.84348483005074
-0.3657,-73.62157604497652
-0.3666999999999999,-74.45625571189689
-0.3677,-75.19190558782671
-0.3686999999999999,-75.98414391575112
-0.36970000000000003,-76.71979379168094
-0.3706999999999999,-77.46959078060941
-0.37170000000000003,-78.24768199553519
-0.3726999999999999,-78.99747898446365
-0.37370000000000003,-79.86045287738132
-0.3746999999999999,-80.73757388329766
-0.37570000000000003,-81.57225355021802
-0.3766999999999999,-82.47766878213164
-0.37770000000000004,-83.22746577106011
-0.3786999999999999,-84.00555698598588
-0.37970000000000004,-84.75535397491434
-0.3806999999999999,-85.57588652883607
-0.38170000000000004,-86.49544887374834
-0.38269999999999993,-87.41501121866061
-0.38370000000000004,-88.32042645057423
-0.38469999999999993,-89.19754745649055
-0.38570000000000004,-90.07466846240689
-0.38669999999999993,-89.46634260346492
-0.38570000000000004,-86.66521422973216
-0.38469999999999993,-84.40167614994809
-0.38370000000000004,-82.47766878213164
-0.38269999999999993,-80.73757388329766
-0.38170000000000004,-79.16724434044745
-0.3806999999999999,-77.68179747558916
-0.37970000000000004,-76.23879194972683
-0.3786999999999999,-74.8523748758591
-0.37770000000000004,-73.45181068899271
-0.3766999999999999,-72.15027629311687
-0.37570000000000003,-70.91947746223428
-0.3746999999999999,-69.74526708334632
-0.37370000000000003,-68.65593938245023
-0.3726999999999999,-67.52417034255821
-0.37170000000000003,-66.43484264166212
-0.3706999999999999,-65.2464851497755
-0.36970000000000003,-64.11471610988345
-0.3686999999999999,-62.98294706999144
-0.3677,-61.936060708091304
-0.3666999999999999,-60.889174346191176
-0.3657,-59.92717066228296
-0.3646999999999999,-58.97931409137338
-0.3637,-58.017310407465146
-0.3626999999999999,-56.97042404556503
-0.3617,-55.9235376836649
-0.36070000000000013,-54.876651321764776
-0.3597,-53.91464763785655
-0.35870000000000013,-52.95264395394832
-0.3577,-52.033081609036046
-0.35670000000000013,-51.17010771611838
-0.3557,-50.2505453712061
-0.3547000000000001,-49.33098302629383
-0.3537,-48.36897934238561
-0.3527000000000001,-47.40697565847737
-0.3517,-46.544001765559706
-0.3507000000000001,-45.624439420647434
-0.3497,-44.74731841473111
-0.3487000000000001,-43.92678586080939
-0.3477,-43.134547532884966
-0.3467000000000001,-42.31401497896325
-0.3457,-41.43689397304693
-0.3447000000000001,-40.559772967130606
-0.3437,-39.654357735216976
-0.3427000000000001,-38.81967806829661
-0.3417,-38.04158685337084
-0.3407000000000001,-37.291789864442364
-0.3397,-36.55613998851254
-0.3387000000000001,-35.763901660588125
-0.3377,-34.94336910666641
-0.3367000000000001,-34.10868943974604
-0.3357,-33.288156885824314
-0.3347000000000001,-32.49591855789989
-0.3337,-31.802710020966025
-0.3327000000000001,-31.052913032037555
-0.3317,-30.359704495103685
-0.3307000000000001,-29.708937297165768
-0.3297,-28.959140308237306
-0.3287000000000001,-28.22349043230748
-0.3277,-27.43125210438306
-0.3267000000000001,-26.69560222845324
-0.3257,-26.002393691519377
-0.3247000000000001,-25.337479380582806
-0.3237,-24.686712182644893
-0.3227000000000001,-24.078386323702922
-0.3217,-23.427619125765005
-0.3207000000000001,-22.72026347583249
-0.3197,-22.027054938898623
-0.3187000000000001,-21.291405062968803
-0.3177,-20.683079204026836
-0.3167000000000001,-20.06060623208622
-0.3157,-19.452280373144255
-0.3147000000000001,-18.88639585319824
-0.3137,-18.320511333252224
-0.3127000000000001,-17.71218547431026
-0.3117,-17.061418276372343
-0.3107000000000001,-16.396503965435777
-0.3097,-15.78817810649381
-0.3087000000000001,-15.222293586547794
-0.3077,-14.69885040559773
-0.3067000000000001,-14.175407224647667
-0.30569999999999997,-13.654793466297335
-0.3047000000000001,-13.13135028534727
-0.30369999999999997,-12.520195003805576
-0.3027000000000001,-11.909039722263879
-0.30169999999999997,-11.343155202317865
-0.3007000000000001,-10.819712021367803
-0.29969999999999997,-10.296268840417738
-0.2987000000000001,-9.85912304875944
-0.29769999999999996,-9.423391968401008
-0.2967000000000001,-8.899948787450944
-0.29569999999999996,-8.376505606500881
-0.2947000000000001,-7.853062425550818
-0.29369999999999996,-7.329619244600755
-0.29270000000000007,-6.806176063650692
-0.29169999999999996,-6.326588932996443
-0.29070000000000007,-5.9347139029338285
-0.28969999999999996,-5.5414241615713475
-0.28870000000000007,-5.105693081212917
-0.28769999999999996,-4.626105950558669
-0.28670000000000007,-4.146518819904423
-0.28569999999999995,-3.6655169779503103
-0.28470000000000006,-3.2297858975918787
-0.28369999999999995,-2.794054817233447
-0.28270000000000006,-2.4007650758709675
-0.28169999999999995,-2.095187435100119
-0.28070000000000006,-1.7033124050375041
-0.27969999999999995,-1.2671569112891135
-0.27870000000000006,-0.8308599464107361
-0.27769999999999995,-0.3947044526623452
-0.27670000000000006,0.04140859974704963
-0.27569999999999995,0.43403342679859325
-0.27470000000000006,0.7393281253094681
-0.27369999999999994,1.0881959318561862
-0.27270000000000005,1.3934906303670611
-0.27169999999999994,1.7429243214337253
-0.27070000000000005,2.1347993514963406
-0.26969999999999994,2.5280890928588207
-0.26870000000000005,2.919964122921436
