Mar. 5, 2025   14:15:27
Cyclic Voltammetry
File: c:/users/guazh/data/banditlqround7_x0exp169_r20_3/2025-03-03-exp878\exp878-2025-03-05t13_59_10-arkoh\exp878_cv_50mvs_efin_-1700mv.bin
Data Source:  Experiment
Instrument Model:  CHI760E
Header: CV ran at 50 mVs
Note: 

Init E (V) = -1
High E (V) = -1
Low E (V) = -1.7
Final E (V) = -1
Init P/N = N
Scan Rate (V/s) = 0.05
Segment = 7
Sample Interval (V) = 0.001
Quiet Time (sec) = 60
Sensitivity (A/V) = 0.001
Comp R (ohm) = 1.8

Results:

Channel 1:
Segment 1:

Segment 2:

Segment 3:

Segment 4:

Segment 5:

Segment 6:

Segment 7:

Potential/V, Current/A

-1.000, 7.806e-6
-1.001, 1.023e-5
-1.002, 1.095e-5
-1.003, 1.108e-5
-1.004, 1.111e-5
-1.005, 1.140e-5
-1.006, 1.166e-5
-1.007, 1.213e-5
-1.008, 1.201e-5
-1.009, 1.187e-5
-1.010, 1.215e-5
-1.011, 1.238e-5
-1.012, 1.264e-5
-1.013, 1.257e-5
-1.014, 1.243e-5
-1.015, 1.260e-5
-1.016, 1.286e-5
-1.017, 1.294e-5
-1.018, 1.300e-5
-1.019, 1.271e-5
-1.020, 1.290e-5
-1.021, 1.310e-5
-1.022, 1.337e-5
-1.023, 1.327e-5
-1.024, 1.307e-5
-1.025, 1.322e-5
-1.026, 1.349e-5
-1.027, 1.360e-5
-1.028, 1.348e-5
-1.029, 1.330e-5
-1.030, 1.343e-5
-1.031, 1.373e-5
-1.032, 1.383e-5
-1.033, 1.364e-5
-1.034, 1.362e-5
-1.035, 1.359e-5
-1.036, 1.393e-5
-1.037, 1.405e-5
-1.038, 1.385e-5
-1.039, 1.387e-5
-1.040, 1.382e-5
-1.041, 1.406e-5
-1.042, 1.430e-5
-1.043, 1.406e-5
-1.044, 1.400e-5
-1.045, 1.406e-5
-1.046, 1.431e-5
-1.047, 1.454e-5
-1.048, 1.424e-5
-1.049, 1.419e-5
-1.050, 1.435e-5
-1.051, 1.445e-5
-1.052, 1.464e-5
-1.053, 1.455e-5
-1.054, 1.436e-5
-1.055, 1.450e-5
-1.056, 1.463e-5
-1.057, 1.486e-5
-1.058, 1.471e-5
-1.059, 1.443e-5
-1.060, 1.465e-5
-1.061, 1.488e-5
-1.062, 1.513e-5
-1.063, 1.485e-5
-1.064, 1.467e-5
-1.065, 1.483e-5
-1.066, 1.512e-5
-1.067, 1.523e-5
-1.068, 1.495e-5
-1.069, 1.495e-5
-1.070, 1.492e-5
-1.071, 1.524e-5
-1.072, 1.528e-5
-1.073, 1.512e-5
-1.074, 1.510e-5
-1.075, 1.520e-5
-1.076, 1.537e-5
-1.077, 1.551e-5
-1.078, 1.527e-5
-1.079, 1.524e-5
-1.080, 1.524e-5
-1.081, 1.543e-5
-1.082, 1.573e-5
-1.083, 1.542e-5
-1.084, 1.527e-5
-1.085, 1.548e-5
-1.086, 1.558e-5
-1.087, 1.584e-5
-1.088, 1.553e-5
-1.089, 1.536e-5
-1.090, 1.562e-5
-1.091, 1.568e-5
-1.092, 1.587e-5
-1.093, 1.571e-5
-1.094, 1.543e-5
-1.095, 1.573e-5
-1.096, 1.580e-5
-1.097, 1.596e-5
-1.098, 1.576e-5
-1.099, 1.559e-5
-1.100, 1.572e-5
-1.101, 1.598e-5
-1.102, 1.602e-5
-1.103, 1.586e-5
-1.104, 1.564e-5
-1.105, 1.578e-5
-1.106, 1.606e-5
-1.107, 1.608e-5
-1.108, 1.581e-5
-1.109, 1.580e-5
-1.110, 1.583e-5
-1.111, 1.614e-5
-1.112, 1.612e-5
-1.113, 1.592e-5
-1.114, 1.591e-5
-1.115, 1.582e-5
-1.116, 1.607e-5
-1.117, 1.618e-5
-1.118, 1.590e-5
-1.119, 1.592e-5
-1.120, 1.581e-5
-1.121, 1.608e-5
-1.122, 1.619e-5
-1.123, 1.596e-5
-1.124, 1.586e-5
-1.125, 1.594e-5
-1.126, 1.606e-5
-1.127, 1.620e-5
-1.128, 1.594e-5
-1.129, 1.580e-5
-1.130, 1.606e-5
-1.131, 1.610e-5
-1.132, 1.611e-5
-1.133, 1.605e-5
-1.134, 1.584e-5
-1.135, 1.603e-5
-1.136, 1.607e-5
-1.137, 1.614e-5
-1.138, 1.600e-5
-1.139, 1.577e-5
-1.140, 1.591e-5
-1.141, 1.613e-5
-1.142, 1.600e-5
-1.143, 1.598e-5
-1.144, 1.572e-5
-1.145, 1.587e-5
-1.146, 1.613e-5
-1.147, 1.608e-5
-1.148, 1.594e-5
-1.149, 1.576e-5
-1.150, 1.585e-5
-1.151, 1.614e-5
-1.152, 1.606e-5
-1.153, 1.577e-5
-1.154, 1.583e-5
-1.155, 1.579e-5
-1.156, 1.606e-5
-1.157, 1.602e-5
-1.158, 1.585e-5
-1.159, 1.575e-5
-1.160, 1.574e-5
-1.161, 1.596e-5
-1.162, 1.606e-5
-1.163, 1.577e-5
-1.164, 1.566e-5
-1.165, 1.588e-5
-1.166, 1.598e-5
-1.167, 1.605e-5
-1.168, 1.575e-5
-1.169, 1.568e-5
-1.170, 1.584e-5
-1.171, 1.592e-5
-1.172, 1.597e-5
-1.173, 1.578e-5
-1.174, 1.571e-5
-1.175, 1.578e-5
-1.176, 1.598e-5
-1.177, 1.596e-5
-1.178, 1.594e-5
-1.179, 1.565e-5
-1.180, 1.576e-5
-1.181, 1.600e-5
-1.182, 1.601e-5
-1.183, 1.589e-5
-1.184, 1.567e-5
-1.185, 1.574e-5
-1.186, 1.603e-5
-1.187, 1.605e-5
-1.188, 1.579e-5
-1.189, 1.576e-5
-1.190, 1.583e-5
-1.191, 1.609e-5
-1.192, 1.598e-5
-1.193, 1.579e-5
-1.194, 1.582e-5
-1.195, 1.583e-5
-1.196, 1.609e-5
-1.197, 1.615e-5
-1.198, 1.588e-5
-1.199, 1.576e-5
-1.200, 1.596e-5
-1.201, 1.607e-5
-1.202, 1.620e-5
-1.203, 1.590e-5
-1.204, 1.588e-5
-1.205, 1.608e-5
-1.206, 1.614e-5
-1.207, 1.625e-5
-1.208, 1.604e-5
-1.209, 1.590e-5
-1.210, 1.616e-5
-1.211, 1.622e-5
-1.212, 1.632e-5
-1.213, 1.616e-5
-1.214, 1.603e-5
-1.215, 1.622e-5
-1.216, 1.636e-5
-1.217, 1.643e-5
-1.218, 1.632e-5
-1.219, 1.617e-5
-1.220, 1.632e-5
-1.221, 1.656e-5
-1.222, 1.655e-5
-1.223, 1.646e-5
-1.224, 1.631e-5
-1.225, 1.643e-5
-1.226, 1.682e-5
-1.227, 1.669e-5
-1.228, 1.676e-5
-1.229, 1.662e-5
-1.230, 1.668e-5
-1.231, 1.703e-5
-1.232, 1.686e-5
-1.233, 1.676e-5
-1.234, 1.681e-5
-1.235, 1.690e-5
-1.236, 1.711e-5
-1.237, 1.720e-5
-1.238, 1.701e-5
-1.239, 1.708e-5
-1.240, 1.718e-5
-1.241, 1.736e-5
-1.242, 1.752e-5
-1.243, 1.733e-5
-1.244, 1.728e-5
-1.245, 1.753e-5
-1.246, 1.770e-5
-1.247, 1.784e-5
-1.248, 1.764e-5
-1.249, 1.760e-5
-1.250, 1.786e-5
-1.251, 1.804e-5
-1.252, 1.817e-5
-1.253, 1.799e-5
-1.254, 1.805e-5
-1.255, 1.828e-5
-1.256, 1.843e-5
-1.257, 1.853e-5
-1.258, 1.849e-5
-1.259, 1.841e-5
-1.260, 1.869e-5
-1.261, 1.900e-5
-1.262, 1.902e-5
-1.263, 1.898e-5
-1.264, 1.895e-5
-1.265, 1.921e-5
-1.266, 1.960e-5
-1.267, 1.956e-5
-1.268, 1.950e-5
-1.269, 1.958e-5
-1.270, 1.977e-5
-1.271, 2.023e-5
-1.272, 2.017e-5
-1.273, 2.005e-5
-1.274, 2.029e-5
-1.275, 2.046e-5
-1.276, 2.084e-5
-1.277, 2.098e-5
-1.278, 2.081e-5
-1.279, 2.110e-5
-1.280, 2.135e-5
-1.281, 2.162e-5
-1.282, 2.176e-5
-1.283, 2.168e-5
-1.284, 2.180e-5
-1.285, 2.218e-5
-1.286, 2.250e-5
-1.287, 2.265e-5
-1.288, 2.262e-5
-1.289, 2.280e-5
-1.290, 2.321e-5
-1.291, 2.344e-5
-1.292, 2.374e-5
-1.293, 2.373e-5
-1.294, 2.386e-5
-1.295, 2.435e-5
-1.296, 2.458e-5
-1.297, 2.485e-5
-1.298, 2.493e-5
-1.299, 2.503e-5
-1.300, 2.549e-5
-1.301, 2.596e-5
-1.302, 2.617e-5
-1.303, 2.627e-5
-1.304, 2.647e-5
-1.305, 2.688e-5
-1.306, 2.750e-5
-1.307, 2.758e-5
-1.308, 2.780e-5
-1.309, 2.812e-5
-1.310, 2.856e-5
-1.311, 2.908e-5
-1.312, 2.930e-5
-1.313, 2.939e-5
-1.314, 2.991e-5
-1.315, 3.027e-5
-1.316, 3.090e-5
-1.317, 3.121e-5
-1.318, 3.140e-5
-1.319, 3.188e-5
-1.320, 3.233e-5
-1.321, 3.289e-5
-1.322, 3.340e-5
-1.323, 3.357e-5
-1.324, 3.396e-5
-1.325, 3.459e-5
-1.326, 3.526e-5
-1.327, 3.580e-5
-1.328, 3.596e-5
-1.329, 3.642e-5
-1.330, 3.715e-5
-1.331, 3.778e-5
-1.332, 3.836e-5
-1.333, 3.864e-5
-1.334, 3.910e-5
-1.335, 3.995e-5
-1.336, 4.059e-5
-1.337, 4.110e-5
-1.338, 4.158e-5
-1.339, 4.210e-5
-1.340, 4.285e-5
-1.341, 4.375e-5
-1.342, 4.423e-5
-1.343, 4.480e-5
-1.344, 4.525e-5
-1.345, 4.615e-5
-1.346, 4.714e-5
-1.347, 4.756e-5
-1.348, 4.820e-5
-1.349, 4.882e-5
-1.350, 4.972e-5
-1.351, 5.068e-5
-1.352, 5.128e-5
-1.353, 5.184e-5
-1.354, 5.268e-5
-1.355, 5.354e-5
-1.356, 5.442e-5
-1.357, 5.524e-5
-1.358, 5.586e-5
-1.359, 5.665e-5
-1.360, 5.760e-5
-1.361, 5.862e-5
-1.362, 5.950e-5
-1.363, 6.005e-5
-1.364, 6.093e-5
-1.365, 6.205e-5
-1.366, 6.310e-5
-1.367, 6.396e-5
-1.368, 6.459e-5
-1.369, 6.551e-5
-1.370, 6.671e-5
-1.371, 6.773e-5
-1.372, 6.869e-5
-1.373, 6.948e-5
-1.374, 7.040e-5
-1.375, 7.164e-5
-1.376, 7.273e-5
-1.377, 7.379e-5
-1.378, 7.468e-5
-1.379, 7.558e-5
-1.380, 7.689e-5
-1.381, 7.821e-5
-1.382, 7.922e-5
-1.383, 8.017e-5
-1.384, 8.114e-5
-1.385, 8.247e-5
-1.386, 8.385e-5
-1.387, 8.482e-5
-1.388, 8.584e-5
-1.389, 8.709e-5
-1.390, 8.836e-5
-1.391, 8.985e-5
-1.392, 9.095e-5
-1.393, 9.201e-5
-1.394, 9.322e-5
-1.395, 9.460e-5
-1.396, 9.618e-5
-1.397, 9.742e-5
-1.398, 9.846e-5
-1.399, 9.990e-5
-1.400, 1.013e-4
-1.401, 1.028e-4
-1.402, 1.042e-4
-1.403, 1.054e-4
-1.404, 1.068e-4
-1.405, 1.084e-4
-1.406, 1.099e-4
-1.407, 1.114e-4
-1.408, 1.127e-4
-1.409, 1.141e-4
-1.410, 1.160e-4
-1.411, 1.175e-4
-1.412, 1.189e-4
-1.413, 1.203e-4
-1.414, 1.218e-4
-1.415, 1.237e-4
-1.416, 1.254e-4
-1.417, 1.270e-4
-1.418, 1.286e-4
-1.419, 1.302e-4
-1.420, 1.322e-4
-1.421, 1.342e-4
-1.422, 1.358e-4
-1.423, 1.375e-4
-1.424, 1.391e-4
-1.425, 1.413e-4
-1.426, 1.433e-4
-1.427, 1.451e-4
-1.428, 1.469e-4
-1.429, 1.489e-4
-1.430, 1.512e-4
-1.431, 1.533e-4
-1.432, 1.551e-4
-1.433, 1.570e-4
-1.434, 1.590e-4
-1.435, 1.613e-4
-1.436, 1.637e-4
-1.437, 1.658e-4
-1.438, 1.680e-4
-1.439, 1.703e-4
-1.440, 1.727e-4
-1.441, 1.750e-4
-1.442, 1.774e-4
-1.443, 1.795e-4
-1.444, 1.821e-4
-1.445, 1.846e-4
-1.446, 1.874e-4
-1.447, 1.899e-4
-1.448, 1.922e-4
-1.449, 1.948e-4
-1.450, 1.977e-4
-1.451, 2.006e-4
-1.452, 2.032e-4
-1.453, 2.058e-4
-1.454, 2.086e-4
-1.455, 2.118e-4
-1.456, 2.148e-4
-1.457, 2.178e-4
-1.458, 2.208e-4
-1.459, 2.237e-4
-1.460, 2.270e-4
-1.461, 2.302e-4
-1.462, 2.336e-4
-1.463, 2.368e-4
-1.464, 2.400e-4
-1.465, 2.436e-4
-1.466, 2.474e-4
-1.467, 2.509e-4
-1.468, 2.542e-4
-1.469, 2.577e-4
-1.470, 2.615e-4
-1.471, 2.656e-4
-1.472, 2.694e-4
-1.473, 2.730e-4
-1.474, 2.771e-4
-1.475, 2.813e-4
-1.476, 2.856e-4
-1.477, 2.900e-4
-1.478, 2.939e-4
-1.479, 2.982e-4
-1.480, 3.029e-4
-1.481, 3.076e-4
-1.482, 3.123e-4
-1.483, 3.169e-4
-1.484, 3.220e-4
-1.485, 3.270e-4
-1.486, 3.321e-4
-1.487, 3.373e-4
-1.488, 3.423e-4
-1.489, 3.474e-4
-1.490, 3.532e-4
-1.491, 3.589e-4
-1.492, 3.643e-4
-1.493, 3.700e-4
-1.494, 3.759e-4
-1.495, 3.821e-4
-1.496, 3.882e-4
-1.497, 3.945e-4
-1.498, 4.008e-4
-1.499, 4.072e-4
-1.500, 4.140e-4
-1.501, 4.208e-4
-1.502, 4.276e-4
-1.503, 4.344e-4
-1.504, 4.414e-4
-1.505, 4.489e-4
-1.506, 4.568e-4
-1.507, 4.641e-4
-1.508, 4.716e-4
-1.509, 4.794e-4
-1.510, 4.878e-4
-1.511, 4.962e-4
-1.512, 5.047e-4
-1.513, 5.131e-4
-1.514, 5.217e-4
-1.515, 5.306e-4
-1.516, 5.403e-4
-1.517, 5.500e-4
-1.518, 5.593e-4
-1.519, 5.688e-4
-1.520, 5.789e-4
-1.521, 5.897e-4
-1.522, 6.002e-4
-1.523, 6.104e-4
-1.524, 6.213e-4
-1.525, 6.324e-4
-1.526, 6.443e-4
-1.527, 6.563e-4
-1.528, 6.681e-4
-1.529, 6.806e-4
-1.530, 6.932e-4
-1.531, 7.063e-4
-1.532, 7.196e-4
-1.533, 7.328e-4
-1.534, 7.460e-4
-1.535, 7.601e-4
-1.536, 7.746e-4
-1.537, 7.901e-4
-1.538, 8.050e-4
-1.539, 8.203e-4
-1.540, 8.364e-4
-1.541, 8.530e-4
-1.542, 8.700e-4
-1.543, 8.867e-4
-1.544, 9.035e-4
-1.545, 9.215e-4
-1.546, 9.404e-4
-1.547, 9.593e-4
-1.548, 9.789e-4
-1.549, 9.987e-4
-1.550, 1.020e-3
-1.551, 1.041e-3
-1.552, 1.061e-3
-1.553, 1.082e-3
-1.554, 1.105e-3
-1.555, 1.128e-3
-1.556, 1.151e-3
-1.557, 1.176e-3
-1.558, 1.202e-3
-1.559, 1.226e-3
-1.560, 1.251e-3
-1.561, 1.278e-3
-1.562, 1.307e-3
-1.563, 1.333e-3
-1.564, 1.360e-3
-1.565, 1.390e-3
-1.566, 1.421e-3
-1.567, 1.453e-3
-1.568, 1.484e-3
-1.569, 1.516e-3
-1.570, 1.549e-3
-1.571, 1.580e-3
-1.572, 1.615e-3
-1.573, 1.650e-3
-1.574, 1.688e-3
-1.575, 1.726e-3
-1.576, 1.764e-3
-1.577, 1.802e-3
-1.578, 1.839e-3
-1.579, 1.881e-3
-1.580, 1.923e-3
-1.581, 1.965e-3
-1.582, 2.006e-3
-1.583, 2.051e-3
-1.584, 2.098e-3
-1.585, 2.141e-3
-1.586, 2.184e-3
-1.587, 2.234e-3
-1.588, 2.286e-3
-1.589, 2.337e-3
-1.590, 2.386e-3
-1.591, 2.431e-3
-1.592, 2.481e-3
-1.593, 2.533e-3
-1.594, 2.584e-3
-1.595, 2.638e-3
-1.596, 2.694e-3
-1.597, 2.747e-3
-1.598, 2.806e-3
-1.599, 2.859e-3
-1.600, 2.910e-3
-1.601, 2.967e-3
-1.602, 3.027e-3
-1.603, 3.092e-3
-1.604, 3.149e-3
-1.605, 3.202e-3
-1.606, 3.257e-3
-1.607, 3.313e-3
-1.608, 3.378e-3
-1.609, 3.441e-3
-1.610, 3.503e-3
-1.611, 3.558e-3
-1.612, 3.619e-3
-1.613, 3.689e-3
-1.614, 3.763e-3
-1.615, 3.830e-3
-1.616, 3.887e-3
-1.617, 3.954e-3
-1.618, 4.021e-3
-1.619, 4.081e-3
-1.620, 4.148e-3
-1.621, 4.219e-3
-1.622, 4.292e-3
-1.623, 4.362e-3
-1.624, 4.416e-3
-1.625, 4.477e-3
-1.626, 4.561e-3
-1.627, 4.633e-3
-1.628, 4.707e-3
-1.629, 4.783e-3
-1.630, 4.846e-3
-1.631, 4.912e-3
-1.632, 4.979e-3
-1.633, 5.045e-3
-1.634, 5.115e-3
-1.635, 5.197e-3
-1.636, 5.276e-3
-1.637, 5.346e-3
-1.638, 5.408e-3
-1.639, 5.476e-3
-1.640, 5.550e-3
-1.641, 5.630e-3
-1.642, 5.702e-3
-1.643, 5.768e-3
-1.644, 5.840e-3
-1.645, 5.916e-3
-1.646, 5.987e-3
-1.647, 6.053e-3
-1.648, 6.128e-3
-1.649, 6.201e-3
-1.650, 6.270e-3
-1.651, 6.335e-3
-1.652, 6.411e-3
-1.653, 6.492e-3
-1.654, 6.561e-3
-1.655, 6.632e-3
-1.656, 6.699e-3
-1.657, 6.765e-3
-1.658, 6.846e-3
-1.659, 6.923e-3
-1.660, 6.997e-3
-1.661, 7.070e-3
-1.662, 7.144e-3
-1.663, 7.217e-3
-1.664, 7.293e-3
-1.665, 7.372e-3
-1.666, 7.444e-3
-1.667, 7.516e-3
-1.668, 7.598e-3
-1.669, 7.669e-3
-1.670, 7.748e-3
-1.671, 7.825e-3
-1.672, 7.892e-3
-1.673, 7.960e-3
-1.674, 8.061e-3
-1.675, 8.147e-3
-1.676, 8.205e-3
-1.677, 8.264e-3
-1.678, 8.337e-3
-1.679, 8.431e-3
-1.680, 8.495e-3
-1.681, 8.548e-3
-1.682, 8.612e-3
-1.683, 8.705e-3
-1.684, 8.783e-3
-1.685, 8.839e-3
-1.686, 8.903e-3
-1.687, 8.998e-3
-1.688, 9.071e-3
-1.689, 9.152e-3
-1.690, 9.222e-3
-1.691, 9.286e-3
-1.692, 9.377e-3
-1.693, 9.432e-3
-1.694, 9.497e-3
-1.695, 9.581e-3
-1.696, 9.680e-3
-1.697, 9.747e-3
-1.698, 9.808e-3
-1.699, 9.918e-3
-1.700, 9.941e-3
-1.699, 9.812e-3
-1.698, 9.699e-3
-1.697, 9.655e-3
-1.696, 9.557e-3
-1.695, 9.442e-3
-1.694, 9.317e-3
-1.693, 9.191e-3
-1.692, 9.073e-3
-1.691, 8.970e-3
-1.690, 8.859e-3
-1.689, 8.769e-3
-1.688, 8.681e-3
-1.687, 8.603e-3
-1.686, 8.551e-3
-1.685, 8.450e-3
-1.684, 8.356e-3
-1.683, 8.254e-3
-1.682, 8.201e-3
-1.681, 8.061e-3
-1.680, 7.941e-3
-1.679, 7.855e-3
-1.678, 7.805e-3
-1.677, 7.731e-3
-1.676, 7.619e-3
-1.675, 7.596e-3
-1.674, 7.506e-3
-1.673, 7.403e-3
-1.672, 7.287e-3
-1.671, 7.195e-3
-1.670, 7.104e-3
-1.669, 7.005e-3
-1.668, 6.910e-3
-1.667, 6.832e-3
-1.666, 6.754e-3
-1.665, 6.656e-3
-1.664, 6.579e-3
-1.663, 6.511e-3
-1.662, 6.461e-3
-1.661, 6.369e-3
-1.660, 6.246e-3
-1.659, 6.210e-3
-1.658, 6.177e-3
-1.657, 6.150e-3
-1.656, 6.091e-3
-1.655, 6.031e-3
-1.654, 5.966e-3
-1.653, 5.887e-3
-1.652, 5.809e-3
-1.651, 5.729e-3
-1.650, 5.635e-3
-1.649, 5.543e-3
-1.648, 5.453e-3
-1.647, 5.417e-3
-1.646, 5.340e-3
-1.645, 5.311e-3
-1.644, 5.215e-3
-1.643, 5.139e-3
-1.642, 5.078e-3
-1.641, 5.057e-3
-1.640, 4.991e-3
-1.639, 4.928e-3
-1.638, 4.860e-3
-1.637, 4.794e-3
-1.636, 4.729e-3
-1.635, 4.661e-3
-1.634, 4.593e-3
-1.633, 4.531e-3
-1.632, 4.473e-3
-1.631, 4.411e-3
-1.630, 4.339e-3
-1.629, 4.265e-3
-1.628, 4.194e-3
-1.627, 4.130e-3
-1.626, 4.066e-3
-1.625, 4.004e-3
-1.624, 3.943e-3
-1.623, 3.880e-3
-1.622, 3.818e-3
-1.621, 3.749e-3
-1.620, 3.701e-3
-1.619, 3.637e-3
-1.618, 3.575e-3
-1.617, 3.514e-3
-1.616, 3.452e-3
-1.615, 3.398e-3
-1.614, 3.343e-3
-1.613, 3.288e-3
-1.612, 3.232e-3
-1.611, 3.175e-3
-1.610, 3.122e-3
-1.609, 3.075e-3
-1.608, 3.027e-3
-1.607, 2.984e-3
-1.606, 2.933e-3
-1.605, 2.872e-3
-1.604, 2.815e-3
-1.603, 2.760e-3
-1.602, 2.714e-3
-1.601, 2.678e-3
-1.600, 2.629e-3
-1.599, 2.576e-3
-1.598, 2.527e-3
-1.597, 2.484e-3
-1.596, 2.440e-3
-1.595, 2.400e-3
-1.594, 2.357e-3
-1.593, 2.314e-3
-1.592, 2.270e-3
-1.591, 2.227e-3
-1.590, 2.184e-3
-1.589, 2.142e-3
-1.588, 2.108e-3
-1.587, 2.072e-3
-1.586, 2.034e-3
-1.585, 1.996e-3
-1.584, 1.958e-3
-1.583, 1.914e-3
-1.582, 1.872e-3
-1.581, 1.834e-3
-1.580, 1.798e-3
-1.579, 1.763e-3
-1.578, 1.730e-3
-1.577, 1.694e-3
-1.576, 1.661e-3
-1.575, 1.628e-3
-1.574, 1.592e-3
-1.573, 1.559e-3
-1.572, 1.534e-3
-1.571, 1.501e-3
-1.570, 1.472e-3
-1.569, 1.442e-3
-1.568, 1.414e-3
-1.567, 1.384e-3
-1.566, 1.353e-3
-1.565, 1.325e-3
-1.564, 1.298e-3
-1.563, 1.270e-3
-1.562, 1.244e-3
-1.561, 1.219e-3
-1.560, 1.193e-3
-1.559, 1.168e-3
-1.558, 1.143e-3
-1.557, 1.120e-3
-1.556, 1.098e-3
-1.555, 1.074e-3
-1.554, 1.052e-3
-1.553, 1.028e-3
-1.552, 1.006e-3
-1.551, 9.843e-4
-1.550, 9.640e-4
-1.549, 9.442e-4
-1.548, 9.246e-4
-1.547, 9.043e-4
-1.546, 8.851e-4
-1.545, 8.672e-4
-1.544, 8.480e-4
-1.543, 8.286e-4
-1.542, 8.107e-4
-1.541, 7.945e-4
-1.540, 7.785e-4
-1.539, 7.625e-4
-1.538, 7.468e-4
-1.537, 7.296e-4
-1.536, 7.121e-4
-1.535, 6.964e-4
-1.534, 6.812e-4
-1.533, 6.671e-4
-1.532, 6.535e-4
-1.531, 6.398e-4
-1.530, 6.265e-4
-1.529, 6.131e-4
-1.528, 5.998e-4
-1.527, 5.865e-4
-1.526, 5.733e-4
-1.525, 5.612e-4
-1.524, 5.490e-4
-1.523, 5.366e-4
-1.522, 5.248e-4
-1.521, 5.133e-4
-1.520, 5.024e-4
-1.519, 4.914e-4
-1.518, 4.800e-4
-1.517, 4.692e-4
-1.516, 4.592e-4
-1.515, 4.492e-4
-1.514, 4.397e-4
-1.513, 4.298e-4
-1.512, 4.200e-4
-1.511, 4.108e-4
-1.510, 4.015e-4
-1.509, 3.925e-4
-1.508, 3.838e-4
-1.507, 3.754e-4
-1.506, 3.674e-4
-1.505, 3.588e-4
-1.504, 3.511e-4
-1.503, 3.427e-4
-1.502, 3.358e-4
-1.501, 3.271e-4
-1.500, 3.202e-4
-1.499, 3.130e-4
-1.498, 3.063e-4
-1.497, 2.992e-4
-1.496, 2.928e-4
-1.495, 2.864e-4
-1.494, 2.799e-4
-1.493, 2.735e-4
-1.492, 2.674e-4
-1.491, 2.616e-4
-1.490, 2.559e-4
-1.489, 2.500e-4
-1.488, 2.441e-4
-1.487, 2.386e-4
-1.486, 2.332e-4
-1.485, 2.281e-4
-1.484, 2.227e-4
-1.483, 2.176e-4
-1.482, 2.126e-4
-1.481, 2.076e-4
-1.480, 2.031e-4
-1.479, 1.985e-4
-1.478, 1.938e-4
-1.477, 1.893e-4
-1.476, 1.851e-4
-1.475, 1.811e-4
-1.474, 1.769e-4
-1.473, 1.724e-4
-1.472, 1.683e-4
-1.471, 1.645e-4
-1.470, 1.607e-4
-1.469, 1.569e-4
-1.468, 1.531e-4
-1.467, 1.493e-4
-1.466, 1.459e-4
-1.465, 1.426e-4
-1.464, 1.393e-4
-1.463, 1.357e-4
-1.462, 1.323e-4
-1.461, 1.292e-4
-1.460, 1.263e-4
-1.459, 1.231e-4
-1.458, 1.198e-4
-1.457, 1.167e-4
-1.456, 1.140e-4
-1.455, 1.114e-4
-1.454, 1.084e-4
-1.453, 1.057e-4
-1.452, 1.029e-4
-1.451, 1.004e-4
-1.450, 9.815e-5
-1.449, 9.548e-5
-1.448, 9.294e-5
-1.447, 9.032e-5
-1.446, 8.784e-5
-1.445, 8.571e-5
-1.444, 8.301e-5
-1.443, 8.065e-5
-1.442, 7.861e-5
-1.441, 7.655e-5
-1.440, 7.484e-5
-1.439, 7.282e-5
-1.438, 7.057e-5
-1.437, 6.858e-5
-1.436, 6.675e-5
-1.435, 6.496e-5
-1.434, 6.307e-5
-1.433, 6.100e-5
-1.432, 5.934e-5
-1.431, 5.777e-5
-1.430, 5.626e-5
-1.429, 5.440e-5
-1.428, 5.258e-5
-1.427, 5.098e-5
-1.426, 4.958e-5
-1.425, 4.826e-5
-1.424, 4.689e-5
-1.423, 4.524e-5
-1.422, 4.362e-5
-1.421, 4.243e-5
-1.420, 4.129e-5
-1.419, 3.986e-5
-1.418, 3.834e-5
-1.417, 3.679e-5
-1.416, 3.579e-5
-1.415, 3.473e-5
-1.414, 3.326e-5
-1.413, 3.183e-5
-1.412, 3.052e-5
-1.411, 2.925e-5
-1.410, 2.841e-5
-1.409, 2.724e-5
-1.408, 2.597e-5
-1.407, 2.502e-5
-1.406, 2.400e-5
-1.405, 2.345e-5
-1.404, 2.238e-5
-1.403, 2.116e-5
-1.402, 2.020e-5
-1.401, 1.934e-5
-1.400, 1.870e-5
-1.399, 1.786e-5
-1.398, 1.665e-5
-1.397, 1.570e-5
-1.396, 1.501e-5
-1.395, 1.421e-5
-1.394, 1.354e-5
-1.393, 1.241e-5
-1.392, 1.168e-5
-1.391, 1.108e-5
-1.390, 1.044e-5
-1.389, 9.695e-6
-1.388, 8.817e-6
-1.387, 7.783e-6
-1.386, 7.331e-6
-1.385, 6.708e-6
-1.384, 6.064e-6
-1.383, 5.110e-6
-1.382, 4.367e-6
-1.381, 4.132e-6
-1.380, 3.787e-6
-1.379, 3.174e-6
-1.378, 2.492e-6
-1.377, 1.768e-6
-1.376, 1.429e-6
-1.375, 1.096e-6
-1.374, 4.684e-7
-1.373, -1.413e-7
-1.372, -7.027e-7
-1.371, -1.215e-6
-1.370, -1.475e-6
-1.369, -2.096e-6
-1.368, -2.789e-6
-1.367, -3.158e-6
-1.366, -3.611e-6
-1.365, -3.658e-6
-1.364, -4.100e-6
-1.363, -4.940e-6
-1.362, -5.326e-6
-1.361, -5.664e-6
-1.360, -5.865e-6
-1.359, -6.341e-6
-1.358, -6.883e-6
-1.357, -7.232e-6
-1.356, -7.354e-6
-1.355, -7.558e-6
-1.354, -7.973e-6
-1.353, -8.526e-6
-1.352, -8.861e-6
-1.351, -9.031e-6
-1.350, -9.181e-6
-1.349, -9.455e-6
-1.348, -1.000e-5
-1.347, -1.039e-5
-1.346, -1.038e-5
-1.345, -1.056e-5
-1.344, -1.089e-5
-1.343, -1.133e-5
-1.342, -1.166e-5
-1.341, -1.175e-5
-1.340, -1.192e-5
-1.339, -1.249e-5
-1.338, -1.301e-5
-1.337, -1.346e-5
-1.336, -1.347e-5
-1.335, -1.356e-5
-1.334, -1.388e-5
-1.333, -1.407e-5
-1.332, -1.428e-5
-1.331, -1.430e-5
-1.330, -1.425e-5
-1.329, -1.450e-5
-1.328, -1.474e-5
-1.327, -1.512e-5
-1.326, -1.513e-5
-1.325, -1.507e-5
-1.324, -1.526e-5
-1.323, -1.568e-5
-1.322, -1.579e-5
-1.321, -1.581e-5
-1.320, -1.576e-5
-1.319, -1.611e-5
-1.318, -1.649e-5
-1.317, -1.659e-5
-1.316, -1.659e-5
-1.315, -1.659e-5
-1.314, -1.663e-5
-1.313, -1.712e-5
-1.312, -1.719e-5
-1.311, -1.717e-5
-1.310, -1.719e-5
-1.309, -1.737e-5
-1.308, -1.789e-5
-1.307, -1.823e-5
-1.306, -1.804e-5
-1.305, -1.821e-5
-1.304, -1.835e-5
-1.303, -1.858e-5
-1.302, -1.879e-5
-1.301, -1.864e-5
-1.300, -1.853e-5
-1.299, -1.887e-5
-1.298, -1.907e-5
-1.297, -1.933e-5
-1.296, -1.914e-5
-1.295, -1.909e-5
-1.294, -1.932e-5
-1.293, -1.947e-5
-1.292, -1.959e-5
-1.291, -1.961e-5
-1.290, -1.944e-5
-1.289, -1.960e-5
-1.288, -1.992e-5
-1.287, -1.999e-5
-1.286, -2.005e-5
-1.285, -1.984e-5
-1.284, -2.007e-5
-1.283, -2.041e-5
-1.282, -2.051e-5
-1.281, -2.042e-5
-1.280, -2.040e-5
-1.279, -2.043e-5
-1.278, -2.088e-5
-1.277, -2.094e-5
-1.276, -2.086e-5
-1.275, -2.094e-5
-1.274, -2.093e-5
-1.273, -2.138e-5
-1.272, -2.137e-5
-1.271, -2.127e-5
-1.270, -2.133e-5
-1.269, -2.175e-5
-1.268, -2.241e-5
-1.267, -2.292e-5
-1.266, -2.294e-5
-1.265, -2.308e-5
-1.264, -2.314e-5
-1.263, -2.343e-5
-1.262, -2.362e-5
-1.261, -2.325e-5
-1.260, -2.321e-5
-1.259, -2.344e-5
-1.258, -2.365e-5
-1.257, -2.372e-5
-1.256, -2.358e-5
-1.255, -2.342e-5
-1.254, -2.375e-5
-1.253, -2.387e-5
-1.252, -2.389e-5
-1.251, -2.393e-5
-1.250, -2.373e-5
-1.249, -2.394e-5
-1.248, -2.412e-5
-1.247, -2.415e-5
-1.246, -2.417e-5
-1.245, -2.395e-5
-1.244, -2.415e-5
-1.243, -2.455e-5
-1.242, -2.463e-5
-1.241, -2.456e-5
-1.240, -2.439e-5
-1.239, -2.463e-5
-1.238, -2.492e-5
-1.237, -2.486e-5
-1.236, -2.485e-5
-1.235, -2.476e-5
-1.234, -2.493e-5
-1.233, -2.524e-5
-1.232, -2.521e-5
-1.231, -2.509e-5
-1.230, -2.505e-5
-1.229, -2.543e-5
-1.228, -2.555e-5
-1.227, -2.565e-5
-1.226, -2.550e-5
-1.225, -2.559e-5
-1.224, -2.576e-5
-1.223, -2.611e-5
-1.222, -2.640e-5
-1.221, -2.614e-5
-1.220, -2.610e-5
-1.219, -2.627e-5
-1.218, -2.648e-5
-1.217, -2.668e-5
-1.216, -2.641e-5
-1.215, -2.643e-5
-1.214, -2.664e-5
-1.213, -2.688e-5
-1.212, -2.701e-5
-1.211, -2.711e-5
-1.210, -2.692e-5
-1.209, -2.711e-5
-1.208, -2.743e-5
-1.207, -2.741e-5
-1.206, -2.737e-5
-1.205, -2.721e-5
-1.204, -2.753e-5
-1.203, -2.808e-5
-1.202, -2.827e-5
-1.201, -2.827e-5
-1.200, -2.795e-5
-1.199, -2.822e-5
-1.198, -2.870e-5
-1.197, -2.859e-5
-1.196, -2.849e-5
-1.195, -2.851e-5
-1.194, -2.864e-5
-1.193, -2.914e-5
-1.192, -2.900e-5
-1.191, -2.896e-5
-1.190, -2.893e-5
-1.189, -2.907e-5
-1.188, -2.935e-5
-1.187, -2.956e-5
-1.186, -2.941e-5
-1.185, -2.946e-5
-1.184, -2.955e-5
-1.183, -2.983e-5
-1.182, -2.995e-5
-1.181, -2.981e-5
-1.180, -2.978e-5
-1.179, -3.003e-5
-1.178, -3.038e-5
-1.177, -3.048e-5
-1.176, -3.038e-5
-1.175, -3.029e-5
-1.174, -3.063e-5
-1.173, -3.079e-5
-1.172, -3.084e-5
-1.171, -3.088e-5
-1.170, -3.076e-5
-1.169, -3.111e-5
-1.168, -3.134e-5
-1.167, -3.144e-5
-1.166, -3.149e-5
-1.165, -3.126e-5
-1.164, -3.157e-5
-1.163, -3.208e-5
-1.162, -3.232e-5
-1.161, -3.255e-5
-1.160, -3.248e-5
-1.159, -3.275e-5
-1.158, -3.324e-5
-1.157, -3.309e-5
-1.156, -3.297e-5
-1.155, -3.306e-5
-1.154, -3.317e-5
-1.153, -3.355e-5
-1.152, -3.353e-5
-1.151, -3.357e-5
-1.150, -3.356e-5
-1.149, -3.364e-5
-1.148, -3.398e-5
-1.147, -3.420e-5
-1.146, -3.416e-5
-1.145, -3.417e-5
-1.144, -3.434e-5
-1.143, -3.465e-5
-1.142, -3.484e-5
-1.141, -3.467e-5
-1.140, -3.464e-5
-1.139, -3.501e-5
-1.138, -3.528e-5
-1.137, -3.552e-5
-1.136, -3.532e-5
-1.135, -3.538e-5
-1.134, -3.588e-5
-1.133, -3.608e-5
-1.132, -3.618e-5
-1.131, -3.620e-5
-1.130, -3.593e-5
-1.129, -3.637e-5
-1.128, -3.659e-5
-1.127, -3.670e-5
-1.126, -3.677e-5
-1.125, -3.668e-5
-1.124, -3.697e-5
-1.123, -3.752e-5
-1.122, -3.753e-5
-1.121, -3.755e-5
-1.120, -3.741e-5
-1.119, -3.768e-5
-1.118, -3.818e-5
-1.117, -3.824e-5
-1.116, -3.816e-5
-1.115, -3.823e-5
-1.114, -3.840e-5
-1.113, -3.881e-5
-1.112, -3.880e-5
-1.111, -3.882e-5
-1.110, -3.882e-5
-1.109, -3.903e-5
-1.108, -3.952e-5
-1.107, -3.972e-5
-1.106, -3.957e-5
-1.105, -3.959e-5
-1.104, -3.978e-5
-1.103, -4.018e-5
-1.102, -4.039e-5
-1.101, -4.020e-5
-1.100, -4.027e-5
-1.099, -4.068e-5
-1.098, -4.098e-5
-1.097, -4.114e-5
-1.096, -4.107e-5
-1.095, -4.104e-5
-1.094, -4.141e-5
-1.093, -4.162e-5
-1.092, -4.169e-5
-1.091, -4.176e-5
-1.090, -4.163e-5
-1.089, -4.200e-5
-1.088, -4.227e-5
-1.087, -4.234e-5
-1.086, -4.253e-5
-1.085, -4.234e-5
-1.084, -4.259e-5
-1.083, -4.308e-5
-1.082, -4.299e-5
-1.081, -4.313e-5
-1.080, -4.303e-5
-1.079, -4.336e-5
-1.078, -4.383e-5
-1.077, -4.370e-5
-1.076, -4.388e-5
-1.075, -4.379e-5
-1.074, -4.393e-5
-1.073, -4.435e-5
-1.072, -4.439e-5
-1.071, -4.433e-5
-1.070, -4.449e-5
-1.069, -4.466e-5
-1.068, -4.502e-5
-1.067, -4.528e-5
-1.066, -4.506e-5
-1.065, -4.508e-5
-1.064, -4.527e-5
-1.063, -4.580e-5
-1.062, -4.636e-5
-1.061, -4.644e-5
-1.060, -4.638e-5
-1.059, -4.691e-5
-1.058, -4.712e-5
-1.057, -4.735e-5
-1.056, -4.706e-5
-1.055, -4.685e-5
-1.054, -4.739e-5
-1.053, -4.757e-5
-1.052, -4.765e-5
-1.051, -4.776e-5
-1.050, -4.755e-5
-1.049, -4.802e-5
-1.048, -4.818e-5
-1.047, -4.833e-5
-1.046, -4.819e-5
-1.045, -4.811e-5
-1.044, -4.834e-5
-1.043, -4.885e-5
-1.042, -4.881e-5
-1.041, -4.887e-5
-1.040, -4.874e-5
-1.039, -4.904e-5
-1.038, -4.955e-5
-1.037, -4.937e-5
-1.036, -4.936e-5
-1.035, -4.944e-5
-1.034, -4.967e-5
-1.033, -5.005e-5
-1.032, -5.003e-5
-1.031, -4.990e-5
-1.030, -4.995e-5
-1.029, -5.024e-5
-1.028, -5.052e-5
-1.027, -5.073e-5
-1.026, -5.045e-5
-1.025, -5.065e-5
-1.024, -5.105e-5
-1.023, -5.155e-5
-1.022, -5.183e-5
-1.021, -5.167e-5
-1.020, -5.139e-5
-1.019, -5.188e-5
-1.018, -5.213e-5
-1.017, -5.224e-5
-1.016, -5.202e-5
-1.015, -5.190e-5
-1.014, -5.233e-5
-1.013, -5.250e-5
-1.012, -5.254e-5
-1.011, -5.262e-5
-1.010, -5.228e-5
-1.009, -5.269e-5
-1.008, -5.296e-5
-1.007, -5.297e-5
-1.006, -5.304e-5
-1.005, -5.281e-5
-1.004, -5.302e-5
-1.003, -5.344e-5
-1.002, -5.340e-5
-1.001, -5.336e-5
-1.000, -3.080e-5
-1.001, -2.274e-5
-1.002, -2.000e-5
-1.003, -1.803e-5
-1.004, -1.603e-5
-1.005, -1.447e-5
-1.006, -1.341e-5
-1.007, -1.233e-5
-1.008, -1.147e-5
-1.009, -1.015e-5
-1.010, -9.105e-6
-1.011, -8.627e-6
-1.012, -7.998e-6
-1.013, -7.220e-6
-1.014, -6.389e-6
-1.015, -5.331e-6
-1.016, -4.984e-6
-1.017, -4.655e-6
-1.018, -3.946e-6
-1.019, -3.356e-6
-1.020, -2.658e-6
-1.021, -2.295e-6
-1.022, -2.095e-6
-1.023, -1.358e-6
-1.024, -7.204e-7
-1.025, -1.097e-7
-1.026, 1.389e-7
-1.027, 1.961e-7
-1.028, 7.289e-7
-1.029, 1.300e-6
-1.030, 1.906e-6
-1.031, 2.168e-6
-1.032, 2.051e-6
-1.033, 2.562e-6
-1.034, 3.243e-6
-1.035, 3.668e-6
-1.036, 3.823e-6
-1.037, 3.900e-6
-1.038, 4.261e-6
-1.039, 4.851e-6
-1.040, 5.161e-6
-1.041, 5.271e-6
-1.042, 5.375e-6
-1.043, 5.652e-6
-1.044, 6.109e-6
-1.045, 6.648e-6
-1.046, 6.450e-6
-1.047, 6.649e-6
-1.048, 6.829e-6
-1.049, 7.243e-6
-1.050, 7.570e-6
-1.051, 7.197e-6
-1.052, 7.098e-6
-1.053, 7.268e-6
-1.054, 7.658e-6
-1.055, 8.158e-6
-1.056, 8.079e-6
-1.057, 8.088e-6
-1.058, 8.608e-6
-1.059, 8.931e-6
-1.060, 9.221e-6
-1.061, 9.254e-6
-1.062, 9.105e-6
-1.063, 9.474e-6
-1.064, 9.784e-6
-1.065, 1.016e-5
-1.066, 1.023e-5
-1.067, 9.966e-6
-1.068, 1.040e-5
-1.069, 1.079e-5
-1.070, 1.105e-5
-1.071, 1.116e-5
-1.072, 1.090e-5
-1.073, 1.114e-5
-1.074, 1.168e-5
-1.075, 1.194e-5
-1.076, 1.176e-5
-1.077, 1.174e-5
-1.078, 1.196e-5
-1.079, 1.235e-5
-1.080, 1.259e-5
-1.081, 1.246e-5
-1.082, 1.261e-5
-1.083, 1.262e-5
-1.084, 1.297e-5
-1.085, 1.326e-5
-1.086, 1.306e-5
-1.087, 1.297e-5
-1.088, 1.322e-5
-1.089, 1.339e-5
-1.090, 1.393e-5
-1.091, 1.372e-5
-1.092, 1.367e-5
-1.093, 1.388e-5
-1.094, 1.414e-5
-1.095, 1.446e-5
-1.096, 1.417e-5
-1.097, 1.401e-5
-1.098, 1.436e-5
-1.099, 1.462e-5
-1.100, 1.486e-5
-1.101, 1.469e-5
-1.102, 1.463e-5
-1.103, 1.487e-5
-1.104, 1.513e-5
-1.105, 1.529e-5
-1.106, 1.530e-5
-1.107, 1.508e-5
-1.108, 1.531e-5
-1.109, 1.565e-5
-1.110, 1.575e-5
-1.111, 1.578e-5
-1.112, 1.543e-5
-1.113, 1.562e-5
-1.114, 1.608e-5
-1.115, 1.609e-5
-1.116, 1.603e-5
-1.117, 1.583e-5
-1.118, 1.600e-5
-1.119, 1.637e-5
-1.120, 1.643e-5
-1.121, 1.619e-5
-1.122, 1.628e-5
-1.123, 1.625e-5
-1.124, 1.658e-5
-1.125, 1.668e-5
-1.126, 1.647e-5
-1.127, 1.646e-5
-1.128, 1.640e-5
-1.129, 1.658e-5
-1.130, 1.684e-5
-1.131, 1.636e-5
-1.132, 1.619e-5
-1.133, 1.640e-5
-1.134, 1.654e-5
-1.135, 1.687e-5
-1.136, 1.660e-5
-1.137, 1.640e-5
-1.138, 1.673e-5
-1.139, 1.678e-5
-1.140, 1.703e-5
-1.141, 1.675e-5
-1.142, 1.662e-5
-1.143, 1.678e-5
-1.144, 1.691e-5
-1.145, 1.710e-5
-1.146, 1.701e-5
-1.147, 1.684e-5
-1.148, 1.699e-5
-1.149, 1.723e-5
-1.150, 1.722e-5
-1.151, 1.711e-5
-1.152, 1.688e-5
-1.153, 1.700e-5
-1.154, 1.739e-5
-1.155, 1.732e-5
-1.156, 1.723e-5
-1.157, 1.705e-5
-1.158, 1.714e-5
-1.159, 1.750e-5
-1.160, 1.739e-5
-1.161, 1.718e-5
-1.162, 1.722e-5
-1.163, 1.726e-5
-1.164, 1.747e-5
-1.165, 1.757e-5
-1.166, 1.731e-5
-1.167, 1.729e-5
-1.168, 1.721e-5
-1.169, 1.739e-5
-1.170, 1.761e-5
-1.171, 1.732e-5
-1.172, 1.716e-5
-1.173, 1.738e-5
-1.174, 1.740e-5
-1.175, 1.768e-5
-1.176, 1.735e-5
-1.177, 1.730e-5
-1.178, 1.735e-5
-1.179, 1.737e-5
-1.180, 1.749e-5
-1.181, 1.716e-5
-1.182, 1.699e-5
-1.183, 1.725e-5
-1.184, 1.733e-5
-1.185, 1.751e-5
-1.186, 1.733e-5
-1.187, 1.704e-5
-1.188, 1.730e-5
-1.189, 1.745e-5
-1.190, 1.750e-5
-1.191, 1.737e-5
-1.192, 1.707e-5
-1.193, 1.717e-5
-1.194, 1.764e-5
-1.195, 1.745e-5
-1.196, 1.723e-5
-1.197, 1.708e-5
-1.198, 1.708e-5
-1.199, 1.740e-5
-1.200, 1.720e-5
-1.201, 1.701e-5
-1.202, 1.685e-5
-1.203, 1.691e-5
-1.204, 1.707e-5
-1.205, 1.705e-5
-1.206, 1.685e-5
-1.207, 1.684e-5
-1.208, 1.682e-5
-1.209, 1.712e-5
-1.210, 1.718e-5
-1.211, 1.695e-5
-1.212, 1.682e-5
-1.213, 1.692e-5
-1.214, 1.710e-5
-1.215, 1.721e-5
-1.216, 1.682e-5
-1.217, 1.672e-5
-1.218, 1.683e-5
-1.219, 1.690e-5
-1.220, 1.696e-5
-1.221, 1.688e-5
-1.222, 1.661e-5
-1.223, 1.695e-5
-1.224, 1.710e-5
-1.225, 1.709e-5
-1.226, 1.697e-5
-1.227, 1.679e-5
-1.228, 1.714e-5
-1.229, 1.736e-5
-1.230, 1.730e-5
-1.231, 1.709e-5
-1.232, 1.691e-5
-1.233, 1.707e-5
-1.234, 1.741e-5
-1.235, 1.732e-5
-1.236, 1.712e-5
-1.237, 1.713e-5
-1.238, 1.723e-5
-1.239, 1.760e-5
-1.240, 1.744e-5
-1.241, 1.728e-5
-1.242, 1.732e-5
-1.243, 1.741e-5
-1.244, 1.763e-5
-1.245, 1.769e-5
-1.246, 1.754e-5
-1.247, 1.756e-5
-1.248, 1.755e-5
-1.249, 1.781e-5
-1.250, 1.813e-5
-1.251, 1.768e-5
-1.252, 1.768e-5
-1.253, 1.788e-5
-1.254, 1.806e-5
-1.255, 1.826e-5
-1.256, 1.803e-5
-1.257, 1.792e-5
-1.258, 1.819e-5
-1.259, 1.837e-5
-1.260, 1.856e-5
-1.261, 1.835e-5
-1.262, 1.820e-5
-1.263, 1.852e-5
-1.264, 1.868e-5
-1.265, 1.878e-5
-1.266, 1.859e-5
-1.267, 1.851e-5
-1.268, 1.868e-5
-1.269, 1.903e-5
-1.270, 1.900e-5
-1.271, 1.897e-5
-1.272, 1.887e-5
-1.273, 1.904e-5
-1.274, 1.938e-5
-1.275, 1.927e-5
-1.276, 1.922e-5
-1.277, 1.911e-5
-1.278, 1.937e-5
-1.279, 1.963e-5
-1.280, 1.990e-5
-1.281, 1.954e-5
-1.282, 1.978e-5
-1.283, 1.982e-5
-1.284, 2.019e-5
-1.285, 2.024e-5
-1.286, 2.009e-5
-1.287, 2.022e-5
-1.288, 2.027e-5
-1.289, 2.070e-5
-1.290, 2.087e-5
-1.291, 2.061e-5
-1.292, 2.070e-5
-1.293, 2.097e-5
-1.294, 2.128e-5
-1.295, 2.135e-5
-1.296, 2.117e-5
-1.297, 2.129e-5
-1.298, 2.157e-5
-1.299, 2.179e-5
-1.300, 2.192e-5
-1.301, 2.183e-5
-1.302, 2.168e-5
-1.303, 2.199e-5
-1.304, 2.225e-5
-1.305, 2.240e-5
-1.306, 2.243e-5
-1.307, 2.235e-5
-1.308, 2.274e-5
-1.309, 2.313e-5
-1.310, 2.321e-5
-1.311, 2.329e-5
-1.312, 2.327e-5
-1.313, 2.352e-5
-1.314, 2.395e-5
-1.315, 2.410e-5
-1.316, 2.395e-5
-1.317, 2.417e-5
-1.318, 2.438e-5
-1.319, 2.485e-5
-1.320, 2.496e-5
-1.321, 2.487e-5
-1.322, 2.506e-5
-1.323, 2.537e-5
-1.324, 2.577e-5
-1.325, 2.597e-5
-1.326, 2.591e-5
-1.327, 2.608e-5
-1.328, 2.645e-5
-1.329, 2.683e-5
-1.330, 2.706e-5
-1.331, 2.703e-5
-1.332, 2.717e-5
-1.333, 2.761e-5
-1.334, 2.795e-5
-1.335, 2.822e-5
-1.336, 2.817e-5
-1.337, 2.829e-5
-1.338, 2.888e-5
-1.339, 2.918e-5
-1.340, 2.949e-5
-1.341, 2.955e-5
-1.342, 2.974e-5
-1.343, 3.019e-5
-1.344, 3.051e-5
-1.345, 3.077e-5
-1.346, 3.098e-5
-1.347, 3.108e-5
-1.348, 3.163e-5
-1.349, 3.211e-5
-1.350, 3.247e-5
-1.351, 3.265e-5
-1.352, 3.278e-5
-1.353, 3.321e-5
-1.354, 3.392e-5
-1.355, 3.409e-5
-1.356, 3.432e-5
-1.357, 3.452e-5
-1.358, 3.505e-5
-1.359, 3.575e-5
-1.360, 3.610e-5
-1.361, 3.614e-5
-1.362, 3.666e-5
-1.363, 3.708e-5
-1.364, 3.772e-5
-1.365, 3.813e-5
-1.366, 3.823e-5
-1.367, 3.873e-5
-1.368, 3.926e-5
-1.369, 3.989e-5
-1.370, 4.042e-5
-1.371, 4.061e-5
-1.372, 4.113e-5
-1.373, 4.176e-5
-1.374, 4.235e-5
-1.375, 4.299e-5
-1.376, 4.317e-5
-1.377, 4.377e-5
-1.378, 4.440e-5
-1.379, 4.510e-5
-1.380, 4.570e-5
-1.381, 4.615e-5
-1.382, 4.671e-5
-1.383, 4.741e-5
-1.384, 4.812e-5
-1.385, 4.873e-5
-1.386, 4.936e-5
-1.387, 4.978e-5
-1.388, 5.060e-5
-1.389, 5.152e-5
-1.390, 5.219e-5
-1.391, 5.278e-5
-1.392, 5.319e-5
-1.393, 5.408e-5
-1.394, 5.524e-5
-1.395, 5.587e-5
-1.396, 5.646e-5
-1.397, 5.716e-5
-1.398, 5.814e-5
-1.399, 5.928e-5
-1.400, 5.986e-5
-1.401, 6.057e-5
-1.402, 6.145e-5
-1.403, 6.248e-5
-1.404, 6.347e-5
-1.405, 6.443e-5
-1.406, 6.512e-5
-1.407, 6.610e-5
-1.408, 6.702e-5
-1.409, 6.821e-5
-1.410, 6.920e-5
-1.411, 6.984e-5
-1.412, 7.077e-5
-1.413, 7.199e-5
-1.414, 7.329e-5
-1.415, 7.441e-5
-1.416, 7.525e-5
-1.417, 7.627e-5
-1.418, 7.778e-5
-1.419, 7.911e-5
-1.420, 8.035e-5
-1.421, 8.139e-5
-1.422, 8.255e-5
-1.423, 8.401e-5
-1.424, 8.539e-5
-1.425, 8.674e-5
-1.426, 8.798e-5
-1.427, 8.921e-5
-1.428, 9.075e-5
-1.429, 9.245e-5
-1.430, 9.370e-5
-1.431, 9.511e-5
-1.432, 9.640e-5
-1.433, 9.815e-5
-1.434, 9.996e-5
-1.435, 1.013e-4
-1.436, 1.028e-4
-1.437, 1.044e-4
-1.438, 1.061e-4
-1.439, 1.080e-4
-1.440, 1.095e-4
-1.441, 1.111e-4
-1.442, 1.130e-4
-1.443, 1.147e-4
-1.444, 1.167e-4
-1.445, 1.187e-4
-1.446, 1.202e-4
-1.447, 1.222e-4
-1.448, 1.242e-4
-1.449, 1.265e-4
-1.450, 1.284e-4
-1.451, 1.302e-4
-1.452, 1.323e-4
-1.453, 1.345e-4
-1.454, 1.370e-4
-1.455, 1.393e-4
-1.456, 1.412e-4
-1.457, 1.434e-4
-1.458, 1.462e-4
-1.459, 1.487e-4
-1.460, 1.512e-4
-1.461, 1.535e-4
-1.462, 1.561e-4
-1.463, 1.590e-4
-1.464, 1.617e-4
-1.465, 1.643e-4
-1.466, 1.673e-4
-1.467, 1.699e-4
-1.468, 1.731e-4
-1.469, 1.762e-4
-1.470, 1.793e-4
-1.471, 1.823e-4
-1.472, 1.855e-4
-1.473, 1.890e-4
-1.474, 1.927e-4
-1.475, 1.961e-4
-1.476, 1.994e-4
-1.477, 2.032e-4
-1.478, 2.071e-4
-1.479, 2.110e-4
-1.480, 2.150e-4
-1.481, 2.190e-4
-1.482, 2.231e-4
-1.483, 2.277e-4
-1.484, 2.323e-4
-1.485, 2.369e-4
-1.486, 2.415e-4
-1.487, 2.460e-4
-1.488, 2.513e-4
-1.489, 2.565e-4
-1.490, 2.618e-4
-1.491, 2.670e-4
-1.492, 2.724e-4
-1.493, 2.784e-4
-1.494, 2.844e-4
-1.495, 2.903e-4
-1.496, 2.963e-4
-1.497, 3.028e-4
-1.498, 3.094e-4
-1.499, 3.161e-4
-1.500, 3.232e-4
-1.501, 3.301e-4
-1.502, 3.374e-4
-1.503, 3.453e-4
-1.504, 3.532e-4
-1.505, 3.612e-4
-1.506, 3.688e-4
-1.507, 3.769e-4
-1.508, 3.858e-4
-1.509, 3.953e-4
-1.510, 4.043e-4
-1.511, 4.133e-4
-1.512, 4.226e-4
-1.513, 4.328e-4
-1.514, 4.431e-4
-1.515, 4.531e-4
-1.516, 4.634e-4
-1.517, 4.741e-4
-1.518, 4.855e-4
-1.519, 4.970e-4
-1.520, 5.085e-4
-1.521, 5.202e-4
-1.522, 5.321e-4
-1.523, 5.445e-4
-1.524, 5.575e-4
-1.525, 5.698e-4
-1.526, 5.830e-4
-1.527, 5.974e-4
-1.528, 6.112e-4
-1.529, 6.255e-4
-1.530, 6.400e-4
-1.531, 6.546e-4
-1.532, 6.696e-4
-1.533, 6.854e-4
-1.534, 7.014e-4
-1.535, 7.171e-4
-1.536, 7.335e-4
-1.537, 7.504e-4
-1.538, 7.683e-4
-1.539, 7.860e-4
-1.540, 8.038e-4
-1.541, 8.222e-4
-1.542, 8.405e-4
-1.543, 8.602e-4
-1.544, 8.800e-4
-1.545, 9.002e-4
-1.546, 9.199e-4
-1.547, 9.407e-4
-1.548, 9.638e-4
-1.549, 9.843e-4
-1.550, 1.005e-3
-1.551, 1.028e-3
-1.552, 1.052e-3
-1.553, 1.077e-3
-1.554, 1.100e-3
-1.555, 1.124e-3
-1.556, 1.149e-3
-1.557, 1.175e-3
-1.558, 1.201e-3
-1.559, 1.227e-3
-1.560, 1.256e-3
-1.561, 1.283e-3
-1.562, 1.311e-3
-1.563, 1.338e-3
-1.564, 1.366e-3
-1.565, 1.395e-3
-1.566, 1.426e-3
-1.567, 1.459e-3
-1.568, 1.496e-3
-1.569, 1.528e-3
-1.570, 1.560e-3
-1.571, 1.592e-3
-1.572, 1.621e-3
-1.573, 1.651e-3
-1.574, 1.688e-3
-1.575, 1.725e-3
-1.576, 1.759e-3
-1.577, 1.801e-3
-1.578, 1.843e-3
-1.579, 1.881e-3
-1.580, 1.917e-3
-1.581, 1.954e-3
-1.582, 1.997e-3
-1.583, 2.033e-3
-1.584, 2.076e-3
-1.585, 2.121e-3
-1.586, 2.162e-3
-1.587, 2.201e-3
-1.588, 2.251e-3
-1.589, 2.303e-3
-1.590, 2.343e-3
-1.591, 2.387e-3
-1.592, 2.437e-3
-1.593, 2.485e-3
-1.594, 2.529e-3
-1.595, 2.570e-3
-1.596, 2.620e-3
-1.597, 2.671e-3
-1.598, 2.723e-3
-1.599, 2.768e-3
-1.600, 2.822e-3
-1.601, 2.882e-3
-1.602, 2.929e-3
-1.603, 2.976e-3
-1.604, 3.035e-3
-1.605, 3.091e-3
-1.606, 3.131e-3
-1.607, 3.184e-3
-1.608, 3.250e-3
-1.609, 3.310e-3
-1.610, 3.359e-3
-1.611, 3.421e-3
-1.612, 3.478e-3
-1.613, 3.525e-3
-1.614, 3.577e-3
-1.615, 3.643e-3
-1.616, 3.707e-3
-1.617, 3.757e-3
-1.618, 3.822e-3
-1.619, 3.881e-3
-1.620, 3.933e-3
-1.621, 4.002e-3
-1.622, 4.075e-3
-1.623, 4.132e-3
-1.624, 4.192e-3
-1.625, 4.263e-3
-1.626, 4.309e-3
-1.627, 4.358e-3
-1.628, 4.436e-3
-1.629, 4.514e-3
-1.630, 4.561e-3
-1.631, 4.608e-3
-1.632, 4.695e-3
-1.633, 4.768e-3
-1.634, 4.822e-3
-1.635, 4.892e-3
-1.636, 4.966e-3
-1.637, 5.009e-3
-1.638, 5.077e-3
-1.639, 5.156e-3
-1.640, 5.227e-3
-1.641, 5.284e-3
-1.642, 5.356e-3
-1.643, 5.407e-3
-1.644, 5.473e-3
-1.645, 5.579e-3
-1.646, 5.619e-3
-1.647, 5.680e-3
-1.648, 5.782e-3
-1.649, 5.882e-3
-1.650, 5.902e-3
-1.651, 5.980e-3
-1.652, 6.071e-3
-1.653, 6.107e-3
-1.654, 6.186e-3
-1.655, 6.292e-3
-1.656, 6.370e-3
-1.657, 6.408e-3
-1.658, 6.462e-3
-1.659, 6.562e-3
-1.660, 6.634e-3
-1.661, 6.676e-3
-1.662, 6.774e-3
-1.663, 6.842e-3
-1.664, 6.929e-3
-1.665, 7.002e-3
-1.666, 7.073e-3
-1.667, 7.142e-3
-1.668, 7.191e-3
-1.669, 7.280e-3
-1.670, 7.358e-3
-1.671, 7.399e-3
-1.672, 7.485e-3
-1.673, 7.571e-3
-1.674, 7.637e-3
-1.675, 7.684e-3
-1.676, 7.757e-3
-1.677, 7.861e-3
-1.678, 7.920e-3
-1.679, 8.005e-3
-1.680, 8.083e-3
-1.681, 8.161e-3
-1.682, 8.223e-3
-1.683, 8.301e-3
-1.684, 8.384e-3
-1.685, 8.460e-3
-1.686, 8.510e-3
-1.687, 8.591e-3
-1.688, 8.708e-3
-1.689, 8.760e-3
-1.690, 8.802e-3
-1.691, 8.881e-3
-1.692, 8.999e-3
-1.693, 9.085e-3
-1.694, 9.144e-3
-1.695, 9.250e-3
-1.696, 9.342e-3
-1.697, 9.353e-3
-1.698, 9.436e-3
-1.699, 9.523e-3
-1.700, 9.580e-3
-1.699, 9.485e-3
-1.698, 9.341e-3
-1.697, 9.254e-3
-1.696, 9.189e-3
-1.695, 9.070e-3
-1.694, 9.003e-3
-1.693, 8.927e-3
-1.692, 8.789e-3
-1.691, 8.651e-3
-1.690, 8.601e-3
-1.689, 8.548e-3
-1.688, 8.421e-3
-1.687, 8.319e-3
-1.686, 8.205e-3
-1.685, 8.116e-3
-1.684, 8.037e-3
-1.683, 7.911e-3
-1.682, 7.831e-3
-1.681, 7.747e-3
-1.680, 7.694e-3
-1.679, 7.615e-3
-1.678, 7.583e-3
-1.677, 7.452e-3
-1.676, 7.351e-3
-1.675, 7.291e-3
-1.674, 7.185e-3
-1.673, 7.051e-3
-1.672, 6.971e-3
-1.671, 6.937e-3
-1.670, 6.874e-3
-1.669, 6.745e-3
-1.668, 6.646e-3
-1.667, 6.594e-3
-1.666, 6.598e-3
-1.665, 6.453e-3
-1.664, 6.383e-3
-1.663, 6.316e-3
-1.662, 6.262e-3
-1.661, 6.205e-3
-1.660, 6.122e-3
-1.659, 6.024e-3
-1.658, 5.971e-3
-1.657, 5.901e-3
-1.656, 5.793e-3
-1.655, 5.734e-3
-1.654, 5.681e-3
-1.653, 5.583e-3
-1.652, 5.518e-3
-1.651, 5.469e-3
-1.650, 5.384e-3
-1.649, 5.268e-3
-1.648, 5.205e-3
-1.647, 5.175e-3
-1.646, 5.099e-3
-1.645, 4.995e-3
-1.644, 4.941e-3
-1.643, 4.903e-3
-1.642, 4.829e-3
-1.641, 4.747e-3
-1.640, 4.667e-3
-1.639, 4.614e-3
-1.638, 4.561e-3
-1.637, 4.498e-3
-1.636, 4.441e-3
-1.635, 4.412e-3
-1.634, 4.354e-3
-1.633, 4.279e-3
-1.632, 4.221e-3
-1.631, 4.166e-3
-1.630, 4.118e-3
-1.629, 4.082e-3
-1.628, 4.021e-3
-1.627, 3.950e-3
-1.626, 3.895e-3
-1.625, 3.844e-3
-1.624, 3.784e-3
-1.623, 3.729e-3
-1.622, 3.662e-3
-1.621, 3.601e-3
-1.620, 3.540e-3
-1.619, 3.477e-3
-1.618, 3.419e-3
-1.617, 3.362e-3
-1.616, 3.306e-3
-1.615, 3.249e-3
-1.614, 3.203e-3
-1.613, 3.141e-3
-1.612, 3.082e-3
-1.611, 3.029e-3
-1.610, 2.971e-3
-1.609, 2.921e-3
-1.608, 2.881e-3
-1.607, 2.825e-3
-1.606, 2.772e-3
-1.605, 2.727e-3
-1.604, 2.683e-3
-1.603, 2.628e-3
-1.602, 2.574e-3
-1.601, 2.538e-3
-1.600, 2.497e-3
-1.599, 2.464e-3
-1.598, 2.424e-3
-1.597, 2.376e-3
-1.596, 2.328e-3
-1.595, 2.279e-3
-1.594, 2.238e-3
-1.593, 2.198e-3
-1.592, 2.153e-3
-1.591, 2.110e-3
-1.590, 2.071e-3
-1.589, 2.031e-3
-1.588, 1.987e-3
-1.587, 1.951e-3
-1.586, 1.917e-3
-1.585, 1.883e-3
-1.584, 1.852e-3
-1.583, 1.818e-3
-1.582, 1.776e-3
-1.581, 1.743e-3
-1.580, 1.719e-3
-1.579, 1.690e-3
-1.578, 1.653e-3
-1.577, 1.621e-3
-1.576, 1.590e-3
-1.575, 1.560e-3
-1.574, 1.526e-3
-1.573, 1.495e-3
-1.572, 1.463e-3
-1.571, 1.435e-3
-1.570, 1.406e-3
-1.569, 1.374e-3
-1.568, 1.345e-3
-1.567, 1.317e-3
-1.566, 1.291e-3
-1.565, 1.264e-3
-1.564, 1.238e-3
-1.563, 1.212e-3
-1.562, 1.189e-3
-1.561, 1.163e-3
-1.560, 1.138e-3
-1.559, 1.114e-3
-1.558, 1.090e-3
-1.557, 1.068e-3
-1.556, 1.046e-3
-1.555, 1.024e-3
-1.554, 1.003e-3
-1.553, 9.806e-4
-1.552, 9.590e-4
-1.551, 9.386e-4
-1.550, 9.199e-4
-1.549, 9.009e-4
-1.548, 8.813e-4
-1.547, 8.628e-4
-1.546, 8.461e-4
-1.545, 8.277e-4
-1.544, 8.091e-4
-1.543, 7.923e-4
-1.542, 7.768e-4
-1.541, 7.601e-4
-1.540, 7.434e-4
-1.539, 7.277e-4
-1.538, 7.127e-4
-1.537, 6.973e-4
-1.536, 6.827e-4
-1.535, 6.680e-4
-1.534, 6.538e-4
-1.533, 6.400e-4
-1.532, 6.264e-4
-1.531, 6.135e-4
-1.530, 6.010e-4
-1.529, 5.878e-4
-1.528, 5.758e-4
-1.527, 5.637e-4
-1.526, 5.520e-4
-1.525, 5.395e-4
-1.524, 5.282e-4
-1.523, 5.172e-4
-1.522, 5.062e-4
-1.521, 4.955e-4
-1.520, 4.850e-4
-1.519, 4.749e-4
-1.518, 4.653e-4
-1.517, 4.554e-4
-1.516, 4.455e-4
-1.515, 4.362e-4
-1.514, 4.270e-4
-1.513, 4.178e-4
-1.512, 4.091e-4
-1.511, 4.007e-4
-1.510, 3.916e-4
-1.509, 3.832e-4
-1.508, 3.753e-4
-1.507, 3.675e-4
-1.506, 3.598e-4
-1.505, 3.521e-4
-1.504, 3.444e-4
-1.503, 3.370e-4
-1.502, 3.297e-4
-1.501, 3.228e-4
-1.500, 3.157e-4
-1.499, 3.087e-4
-1.498, 3.022e-4
-1.497, 2.957e-4
-1.496, 2.897e-4
-1.495, 2.833e-4
-1.494, 2.770e-4
-1.493, 2.711e-4
-1.492, 2.655e-4
-1.491, 2.600e-4
-1.490, 2.543e-4
-1.489, 2.485e-4
-1.488, 2.431e-4
-1.487, 2.379e-4
-1.486, 2.329e-4
-1.485, 2.276e-4
-1.484, 2.228e-4
-1.483, 2.167e-4
-1.482, 2.123e-4
-1.481, 2.079e-4
-1.480, 2.032e-4
-1.479, 1.988e-4
-1.478, 1.943e-4
-1.477, 1.902e-4
-1.476, 1.862e-4
-1.475, 1.817e-4
-1.474, 1.775e-4
-1.473, 1.734e-4
-1.472, 1.697e-4
-1.471, 1.661e-4
-1.470, 1.621e-4
-1.469, 1.583e-4
-1.468, 1.547e-4
-1.467, 1.512e-4
-1.466, 1.479e-4
-1.465, 1.442e-4
-1.464, 1.407e-4
-1.463, 1.376e-4
-1.462, 1.345e-4
-1.461, 1.315e-4
-1.460, 1.281e-4
-1.459, 1.248e-4
-1.458, 1.220e-4
-1.457, 1.194e-4
-1.456, 1.166e-4
-1.455, 1.136e-4
-1.454, 1.106e-4
-1.453, 1.082e-4
-1.452, 1.056e-4
-1.451, 1.030e-4
-1.450, 1.005e-4
-1.449, 9.760e-5
-1.448, 9.519e-5
-1.447, 9.287e-5
-1.446, 9.066e-5
-1.445, 8.822e-5
-1.444, 8.594e-5
-1.443, 8.371e-5
-1.442, 8.179e-5
-1.441, 7.962e-5
-1.440, 7.738e-5
-1.439, 7.501e-5
-1.438, 7.274e-5
-1.437, 7.091e-5
-1.436, 6.912e-5
-1.435, 6.688e-5
-1.434, 6.487e-5
-1.433, 6.314e-5
-1.432, 6.167e-5
-1.431, 6.001e-5
-1.430, 5.790e-5
-1.429, 5.604e-5
-1.428, 5.447e-5
-1.427, 5.300e-5
-1.426, 5.163e-5
-1.425, 4.970e-5
-1.424, 4.826e-5
-1.423, 4.697e-5
-1.422, 4.561e-5
-1.421, 4.435e-5
-1.420, 4.271e-5
-1.419, 4.110e-5
-1.418, 4.001e-5
-1.417, 3.876e-5
-1.416, 3.766e-5
-1.415, 3.627e-5
-1.414, 3.469e-5
-1.413, 3.350e-5
-1.412, 3.242e-5
-1.411, 3.126e-5
-1.410, 2.994e-5
-1.409, 2.872e-5
-1.408, 2.770e-5
-1.407, 2.691e-5
-1.406, 2.589e-5
-1.405, 2.481e-5
-1.404, 2.374e-5
-1.403, 2.272e-5
-1.402, 2.203e-5
-1.401, 2.113e-5
-1.400, 2.011e-5
-1.399, 1.902e-5
-1.398, 1.817e-5
-1.397, 1.766e-5
-1.396, 1.689e-5
-1.395, 1.568e-5
-1.394, 1.479e-5
-1.393, 1.399e-5
-1.392, 1.348e-5
-1.391, 1.287e-5
-1.390, 1.177e-5
-1.389, 1.107e-5
-1.388, 1.044e-5
-1.387, 9.810e-6
-1.386, 9.295e-6
-1.385, 8.259e-6
-1.384, 7.557e-6
-1.383, 6.931e-6
-1.382, 6.459e-6
-1.381, 6.062e-6
-1.380, 5.237e-6
-1.379, 4.421e-6
-1.378, 4.033e-6
-1.377, 3.646e-6
-1.376, 3.152e-6
-1.375, 2.207e-6
-1.374, 1.455e-6
-1.373, 1.178e-6
-1.372, 7.664e-7
-1.371, 2.514e-7
-1.370, -4.057e-7
-1.369, -1.162e-6
-1.368, -1.407e-6
-1.367, -1.602e-6
-1.366, -2.104e-6
-1.365, -2.694e-6
-1.364, -3.221e-6
-1.363, -3.648e-6
-1.362, -3.700e-6
-1.361, -4.108e-6
-1.360, -4.642e-6
-1.359, -5.080e-6
-1.358, -5.412e-6
-1.357, -5.514e-6
-1.356, -5.816e-6
-1.355, -6.468e-6
-1.354, -6.836e-6
-1.353, -7.066e-6
-1.352, -7.187e-6
-1.351, -7.478e-6
-1.350, -8.041e-6
-1.349, -8.386e-6
-1.348, -8.490e-6
-1.347, -8.663e-6
-1.346, -8.827e-6
-1.345, -9.414e-6
-1.344, -9.697e-6
-1.343, -9.819e-6
-1.342, -1.005e-5
-1.341, -1.015e-5
-1.340, -1.061e-5
-1.339, -1.101e-5
-1.338, -1.115e-5
-1.337, -1.129e-5
-1.336, -1.139e-5
-1.335, -1.181e-5
-1.334, -1.222e-5
-1.333, -1.225e-5
-1.332, -1.229e-5
-1.331, -1.262e-5
-1.330, -1.299e-5
-1.329, -1.335e-5
-1.328, -1.320e-5
-1.327, -1.322e-5
-1.326, -1.362e-5
-1.325, -1.377e-5
-1.324, -1.407e-5
-1.323, -1.416e-5
-1.322, -1.413e-5
-1.321, -1.435e-5
-1.320, -1.462e-5
-1.319, -1.484e-5
-1.318, -1.501e-5
-1.317, -1.490e-5
-1.316, -1.510e-5
-1.315, -1.549e-5
-1.314, -1.565e-5
-1.313, -1.575e-5
-1.312, -1.562e-5
-1.311, -1.573e-5
-1.310, -1.620e-5
-1.309, -1.625e-5
-1.308, -1.636e-5
-1.307, -1.670e-5
-1.306, -1.680e-5
-1.305, -1.741e-5
-1.304, -1.768e-5
-1.303, -1.778e-5
-1.302, -1.775e-5
-1.301, -1.770e-5
-1.300, -1.803e-5
-1.299, -1.829e-5
-1.298, -1.820e-5
-1.297, -1.817e-5
-1.296, -1.814e-5
-1.295, -1.852e-5
-1.294, -1.884e-5
-1.293, -1.874e-5
-1.292, -1.854e-5
-1.291, -1.873e-5
-1.290, -1.896e-5
-1.289, -1.917e-5
-1.288, -1.906e-5
-1.287, -1.898e-5
-1.286, -1.912e-5
-1.285, -1.930e-5
-1.284, -1.957e-5
-1.283, -1.949e-5
-1.282, -1.934e-5
-1.281, -1.952e-5
-1.280, -1.985e-5
-1.279, -2.003e-5
-1.278, -1.996e-5
-1.277, -1.991e-5
-1.276, -2.000e-5
-1.275, -2.040e-5
-1.274, -2.040e-5
-1.273, -2.050e-5
-1.272, -2.039e-5
-1.271, -2.037e-5
-1.270, -2.080e-5
-1.269, -2.092e-5
-1.268, -2.092e-5
-1.267, -2.096e-5
-1.266, -2.099e-5
-1.265, -2.123e-5
-1.264, -2.155e-5
-1.263, -2.149e-5
-1.262, -2.151e-5
-1.261, -2.149e-5
-1.260, -2.172e-5
-1.259, -2.196e-5
-1.258, -2.189e-5
-1.257, -2.174e-5
-1.256, -2.188e-5
-1.255, -2.220e-5
-1.254, -2.255e-5
-1.253, -2.244e-5
-1.252, -2.243e-5
-1.251, -2.267e-5
-1.250, -2.282e-5
-1.249, -2.312e-5
-1.248, -2.300e-5
-1.247, -2.292e-5
-1.246, -2.307e-5
-1.245, -2.328e-5
-1.244, -2.348e-5
-1.243, -2.356e-5
-1.242, -2.332e-5
-1.241, -2.354e-5
-1.240, -2.372e-5
-1.239, -2.379e-5
-1.238, -2.397e-5
-1.237, -2.374e-5
-1.236, -2.382e-5
-1.235, -2.417e-5
-1.234, -2.436e-5
-1.233, -2.441e-5
-1.232, -2.428e-5
-1.231, -2.448e-5
-1.230, -2.486e-5
-1.229, -2.516e-5
-1.228, -2.500e-5
-1.227, -2.502e-5
-1.226, -2.483e-5
-1.225, -2.520e-5
-1.224, -2.542e-5
-1.223, -2.534e-5
-1.222, -2.540e-5
-1.221, -2.545e-5
-1.220, -2.570e-5
-1.219, -2.613e-5
-1.218, -2.594e-5
-1.217, -2.582e-5
-1.216, -2.589e-5
-1.215, -2.622e-5
-1.214, -2.646e-5
-1.213, -2.631e-5
-1.212, -2.627e-5
-1.211, -2.655e-5
-1.210, -2.691e-5
-1.209, -2.722e-5
-1.208, -2.705e-5
-1.207, -2.696e-5
-1.206, -2.719e-5
-1.205, -2.732e-5
-1.204, -2.753e-5
-1.203, -2.768e-5
-1.202, -2.745e-5
-1.201, -2.761e-5
-1.200, -2.794e-5
-1.199, -2.809e-5
-1.198, -2.828e-5
-1.197, -2.810e-5
-1.196, -2.812e-5
-1.195, -2.861e-5
-1.194, -2.873e-5
-1.193, -2.873e-5
-1.192, -2.860e-5
-1.191, -2.868e-5
-1.190, -2.915e-5
-1.189, -2.924e-5
-1.188, -2.918e-5
-1.187, -2.923e-5
-1.186, -2.916e-5
-1.185, -2.977e-5
-1.184, -2.982e-5
-1.183, -2.981e-5
-1.182, -2.985e-5
-1.181, -2.997e-5
-1.180, -3.041e-5
-1.179, -3.085e-5
-1.178, -3.108e-5
-1.177, -3.106e-5
-1.176, -3.103e-5
-1.175, -3.142e-5
-1.174, -3.162e-5
-1.173, -3.146e-5
-1.172, -3.137e-5
-1.171, -3.161e-5
-1.170, -3.188e-5
-1.169, -3.220e-5
-1.168, -3.209e-5
-1.167, -3.199e-5
-1.166, -3.221e-5
-1.165, -3.244e-5
-1.164, -3.268e-5
-1.163, -3.276e-5
-1.162, -3.256e-5
-1.161, -3.273e-5
-1.160, -3.301e-5
-1.159, -3.333e-5
-1.158, -3.340e-5
-1.157, -3.318e-5
-1.156, -3.330e-5
-1.155, -3.384e-5
-1.154, -3.392e-5
-1.153, -3.407e-5
-1.152, -3.386e-5
-1.151, -3.403e-5
-1.150, -3.456e-5
-1.149, -3.461e-5
-1.148, -3.457e-5
-1.147, -3.462e-5
-1.146, -3.463e-5
-1.145, -3.518e-5
-1.144, -3.532e-5
-1.143, -3.528e-5
-1.142, -3.546e-5
-1.141, -3.532e-5
-1.140, -3.581e-5
-1.139, -3.623e-5
-1.138, -3.598e-5
-1.137, -3.607e-5
-1.136, -3.610e-5
-1.135, -3.652e-5
-1.134, -3.694e-5
-1.133, -3.677e-5
-1.132, -3.676e-5
-1.131, -3.714e-5
-1.130, -3.737e-5
-1.129, -3.776e-5
-1.128, -3.765e-5
-1.127, -3.766e-5
-1.126, -3.796e-5
-1.125, -3.819e-5
-1.124, -3.834e-5
-1.123, -3.848e-5
-1.122, -3.834e-5
-1.121, -3.870e-5
-1.120, -3.898e-5
-1.119, -3.927e-5
-1.118, -3.951e-5
-1.117, -3.924e-5
-1.116, -3.954e-5
-1.115, -3.996e-5
-1.114, -4.017e-5
-1.113, -4.020e-5
-1.112, -3.998e-5
-1.111, -4.012e-5
-1.110, -4.074e-5
-1.109, -4.077e-5
-1.108, -4.084e-5
-1.107, -4.082e-5
-1.106, -4.098e-5
-1.105, -4.144e-5
-1.104, -4.167e-5
-1.103, -4.161e-5
-1.102, -4.163e-5
-1.101, -4.172e-5
-1.100, -4.216e-5
-1.099, -4.246e-5
-1.098, -4.232e-5
-1.097, -4.245e-5
-1.096, -4.250e-5
-1.095, -4.287e-5
-1.094, -4.330e-5
-1.093, -4.321e-5
-1.092, -4.314e-5
-1.091, -4.344e-5
-1.090, -4.369e-5
-1.089, -4.406e-5
-1.088, -4.399e-5
-1.087, -4.393e-5
-1.086, -4.424e-5
-1.085, -4.455e-5
-1.084, -4.484e-5
-1.083, -4.508e-5
-1.082, -4.498e-5
-1.081, -4.547e-5
-1.080, -4.598e-5
-1.079, -4.619e-5
-1.078, -4.638e-5
-1.077, -4.613e-5
-1.076, -4.652e-5
-1.075, -4.685e-5
-1.074, -4.694e-5
-1.073, -4.694e-5
-1.072, -4.683e-5
-1.071, -4.691e-5
-1.070, -4.759e-5
-1.069, -4.761e-5
-1.068, -4.758e-5
-1.067, -4.764e-5
-1.066, -4.770e-5
-1.065, -4.816e-5
-1.064, -4.825e-5
-1.063, -4.823e-5
-1.062, -4.832e-5
-1.061, -4.830e-5
-1.060, -4.876e-5
-1.059, -4.906e-5
-1.058, -4.890e-5
-1.057, -4.896e-5
-1.056, -4.907e-5
-1.055, -4.975e-5
-1.054, -5.017e-5
-1.053, -4.989e-5
-1.052, -4.978e-5
-1.051, -5.010e-5
-1.050, -5.052e-5
-1.049, -5.077e-5
-1.048, -5.051e-5
-1.047, -5.032e-5
-1.046, -5.070e-5
-1.045, -5.092e-5
-1.044, -5.121e-5
-1.043, -5.120e-5
-1.042, -5.115e-5
-1.041, -5.142e-5
-1.040, -5.158e-5
-1.039, -5.187e-5
-1.038, -5.185e-5
-1.037, -5.166e-5
-1.036, -5.179e-5
-1.035, -5.230e-5
-1.034, -5.246e-5
-1.033, -5.246e-5
-1.032, -5.229e-5
-1.031, -5.236e-5
-1.030, -5.294e-5
-1.029, -5.294e-5
-1.028, -5.294e-5
-1.027, -5.294e-5
-1.026, -5.305e-5
-1.025, -5.360e-5
-1.024, -5.387e-5
-1.023, -5.376e-5
-1.022, -5.382e-5
-1.021, -5.410e-5
-1.020, -5.460e-5
-1.019, -5.516e-5
-1.018, -5.489e-5
-1.017, -5.486e-5
-1.016, -5.483e-5
-1.015, -5.522e-5
-1.014, -5.547e-5
-1.013, -5.518e-5
-1.012, -5.519e-5
-1.011, -5.546e-5
-1.010, -5.569e-5
-1.009, -5.597e-5
-1.008, -5.574e-5
-1.007, -5.562e-5
-1.006, -5.582e-5
-1.005, -5.611e-5
-1.004, -5.628e-5
-1.003, -5.635e-5
-1.002, -5.618e-5
-1.001, -5.639e-5
-1.000, -3.308e-5
-1.001, -2.427e-5
-1.002, -2.090e-5
-1.003, -1.850e-5
-1.004, -1.664e-5
-1.005, -1.530e-5
-1.006, -1.403e-5
-1.007, -1.243e-5
-1.008, -1.119e-5
-1.009, -1.015e-5
-1.010, -9.287e-6
-1.011, -8.645e-6
-1.012, -7.410e-6
-1.013, -6.381e-6
-1.014, -5.714e-6
-1.015, -5.110e-6
-1.016, -4.680e-6
-1.017, -3.780e-6
-1.018, -2.671e-6
-1.019, -2.242e-6
-1.020, -1.874e-6
-1.021, -1.533e-6
-1.022, -6.809e-7
-1.023, 2.317e-7
-1.024, 6.046e-7
-1.025, 6.440e-7
-1.026, 1.079e-6
-1.027, 1.396e-6
-1.028, 2.041e-6
-1.029, 2.302e-6
-1.030, 2.376e-6
-1.031, 2.914e-6
-1.032, 3.506e-6
-1.033, 4.085e-6
-1.034, 4.480e-6
-1.035, 4.453e-6
-1.036, 4.896e-6
-1.037, 5.417e-6
-1.038, 5.957e-6
-1.039, 6.328e-6
-1.040, 6.205e-6
-1.041, 6.580e-6
-1.042, 7.163e-6
-1.043, 7.549e-6
-1.044, 7.791e-6
-1.045, 7.787e-6
-1.046, 8.013e-6
-1.047, 8.602e-6
-1.048, 8.937e-6
-1.049, 9.220e-6
-1.050, 9.341e-6
-1.051, 9.286e-6
-1.052, 9.939e-6
-1.053, 1.033e-5
-1.054, 1.046e-5
-1.055, 1.048e-5
-1.056, 1.054e-5
-1.057, 1.093e-5
-1.058, 1.149e-5
-1.059, 1.159e-5
-1.060, 1.163e-5
-1.061, 1.169e-5
-1.062, 1.213e-5
-1.063, 1.271e-5
-1.064, 1.261e-5
-1.065, 1.249e-5
-1.066, 1.282e-5
-1.067, 1.315e-5
-1.068, 1.365e-5
-1.069, 1.374e-5
-1.070, 1.362e-5
-1.071, 1.387e-5
-1.072, 1.414e-5
-1.073, 1.467e-5
-1.074, 1.468e-5
-1.075, 1.465e-5
-1.076, 1.469e-5
-1.077, 1.512e-5
-1.078, 1.548e-5
-1.079, 1.559e-5
-1.080, 1.523e-5
-1.081, 1.532e-5
-1.082, 1.568e-5
-1.083, 1.588e-5
-1.084, 1.593e-5
-1.085, 1.589e-5
-1.086, 1.598e-5
-1.087, 1.648e-5
-1.088, 1.667e-5
-1.089, 1.682e-5
-1.090, 1.670e-5
-1.091, 1.662e-5
-1.092, 1.704e-5
-1.093, 1.730e-5
-1.094, 1.735e-5
-1.095, 1.729e-5
-1.096, 1.730e-5
-1.097, 1.765e-5
-1.098, 1.801e-5
-1.099, 1.794e-5
-1.100, 1.782e-5
-1.101, 1.790e-5
-1.102, 1.813e-5
-1.103, 1.865e-5
-1.104, 1.844e-5
-1.105, 1.833e-5
-1.106, 1.848e-5
-1.107, 1.869e-5
-1.108, 1.911e-5
-1.109, 1.898e-5
-1.110, 1.872e-5
-1.111, 1.900e-5
-1.112, 1.904e-5
-1.113, 1.947e-5
-1.114, 1.951e-5
-1.115, 1.913e-5
-1.116, 1.930e-5
-1.117, 1.950e-5
-1.118, 1.983e-5
-1.119, 1.999e-5
-1.120, 1.948e-5
-1.121, 1.969e-5
-1.122, 1.993e-5
-1.123, 2.007e-5
-1.124, 2.007e-5
-1.125, 1.991e-5
-1.126, 1.994e-5
-1.127, 2.028e-5
-1.128, 2.040e-5
-1.129, 2.035e-5
-1.130, 2.022e-5
-1.131, 2.002e-5
-1.132, 2.030e-5
-1.133, 2.062e-5
-1.134, 2.045e-5
-1.135, 2.033e-5
-1.136, 2.038e-5
-1.137, 2.055e-5
-1.138, 2.085e-5
-1.139, 2.066e-5
-1.140, 2.036e-5
-1.141, 2.054e-5
-1.142, 2.067e-5
-1.143, 2.099e-5
-1.144, 2.077e-5
-1.145, 2.053e-5
-1.146, 2.055e-5
-1.147, 2.060e-5
-1.148, 2.074e-5
-1.149, 2.041e-5
-1.150, 2.014e-5
-1.151, 2.043e-5
-1.152, 2.057e-5
-1.153, 2.070e-5
-1.154, 2.077e-5
-1.155, 2.033e-5
-1.156, 2.051e-5
-1.157, 2.063e-5
-1.158, 2.075e-5
-1.159, 2.071e-5
-1.160, 2.028e-5
-1.161, 2.043e-5
-1.162, 2.074e-5
-1.163, 2.075e-5
-1.164, 2.072e-5
-1.165, 2.034e-5
-1.166, 2.045e-5
-1.167, 2.056e-5
-1.168, 2.060e-5
-1.169, 2.051e-5
-1.170, 2.031e-5
-1.171, 2.032e-5
-1.172, 2.052e-5
-1.173, 2.064e-5
-1.174, 2.047e-5
-1.175, 2.041e-5
-1.176, 2.018e-5
-1.177, 2.050e-5
-1.178, 2.074e-5
-1.179, 2.036e-5
-1.180, 2.015e-5
-1.181, 2.019e-5
-1.182, 2.025e-5
-1.183, 2.057e-5
-1.184, 2.026e-5
-1.185, 1.991e-5
-1.186, 2.010e-5
-1.187, 2.016e-5
-1.188, 2.030e-5
-1.189, 2.016e-5
-1.190, 1.984e-5
-1.191, 1.990e-5
-1.192, 1.997e-5
-1.193, 2.008e-5
-1.194, 1.997e-5
-1.195, 1.956e-5
-1.196, 1.956e-5
-1.197, 1.979e-5
-1.198, 1.988e-5
-1.199, 1.979e-5
-1.200, 1.933e-5
-1.201, 1.943e-5
-1.202, 1.965e-5
-1.203, 1.965e-5
-1.204, 1.950e-5
-1.205, 1.914e-5
-1.206, 1.916e-5
-1.207, 1.939e-5
-1.208, 1.948e-5
-1.209, 1.915e-5
-1.210, 1.884e-5
-1.211, 1.857e-5
-1.212, 1.874e-5
-1.213, 1.893e-5
-1.214, 1.864e-5
-1.215, 1.850e-5
-1.216, 1.836e-5
-1.217, 1.861e-5
-1.218, 1.881e-5
-1.219, 1.842e-5
-1.220, 1.820e-5
-1.221, 1.824e-5
-1.222, 1.838e-5
-1.223, 1.869e-5
-1.224, 1.831e-5
-1.225, 1.798e-5
-1.226, 1.819e-5
-1.227, 1.829e-5
-1.228, 1.863e-5
-1.229, 1.833e-5
-1.230, 1.784e-5
-1.231, 1.805e-5
-1.232, 1.811e-5
-1.233, 1.822e-5
-1.234, 1.811e-5
-1.235, 1.782e-5
-1.236, 1.789e-5
-1.237, 1.809e-5
-1.238, 1.816e-5
-1.239, 1.810e-5
-1.240, 1.770e-5
-1.241, 1.778e-5
-1.242, 1.813e-5
-1.243, 1.803e-5
-1.244, 1.801e-5
-1.245, 1.769e-5
-1.246, 1.783e-5
-1.247, 1.800e-5
-1.248, 1.804e-5
-1.249, 1.780e-5
-1.250, 1.781e-5
-1.251, 1.768e-5
-1.252, 1.789e-5
-1.253, 1.806e-5
-1.254, 1.781e-5
-1.255, 1.781e-5
-1.256, 1.771e-5
-1.257, 1.789e-5
-1.258, 1.814e-5
-1.259, 1.777e-5
-1.260, 1.765e-5
-1.261, 1.781e-5
-1.262, 1.798e-5
-1.263, 1.828e-5
-1.264, 1.805e-5
-1.265, 1.784e-5
-1.266, 1.809e-5
-1.267, 1.823e-5
-1.268, 1.843e-5
-1.269, 1.827e-5
-1.270, 1.812e-5
-1.271, 1.830e-5
-1.272, 1.837e-5
-1.273, 1.861e-5
-1.274, 1.850e-5
-1.275, 1.835e-5
-1.276, 1.849e-5
-1.277, 1.878e-5
-1.278, 1.895e-5
-1.279, 1.884e-5
-1.280, 1.879e-5
-1.281, 1.891e-5
-1.282, 1.914e-5
-1.283, 1.944e-5
-1.284, 1.912e-5
-1.285, 1.902e-5
-1.286, 1.903e-5
-1.287, 1.918e-5
-1.288, 1.929e-5
-1.289, 1.915e-5
-1.290, 1.932e-5
-1.291, 1.944e-5
-1.292, 1.978e-5
-1.293, 2.005e-5
-1.294, 1.989e-5
-1.295, 1.997e-5
-1.296, 1.998e-5
-1.297, 2.030e-5
-1.298, 2.069e-5
-1.299, 2.054e-5
-1.300, 2.055e-5
-1.301, 2.080e-5
-1.302, 2.109e-5
-1.303, 2.145e-5
-1.304, 2.128e-5
-1.305, 2.116e-5
-1.306, 2.164e-5
-1.307, 2.182e-5
-1.308, 2.227e-5
-1.309, 2.209e-5
-1.310, 2.209e-5
-1.311, 2.242e-5
-1.312, 2.272e-5
-1.313, 2.298e-5
-1.314, 2.303e-5
-1.315, 2.288e-5
-1.316, 2.335e-5
-1.317, 2.369e-5
-1.318, 2.398e-5
-1.319, 2.404e-5
-1.320, 2.392e-5
-1.321, 2.432e-5
-1.322, 2.472e-5
-1.323, 2.499e-5
-1.324, 2.491e-5
-1.325, 2.508e-5
-1.326, 2.537e-5
-1.327, 2.586e-5
-1.328, 2.606e-5
-1.329, 2.609e-5
-1.330, 2.630e-5
-1.331, 2.651e-5
-1.332, 2.692e-5
-1.333, 2.740e-5
-1.334, 2.737e-5
-1.335, 2.754e-5
-1.336, 2.783e-5
-1.337, 2.817e-5
-1.338, 2.876e-5
-1.339, 2.860e-5
-1.340, 2.884e-5
-1.341, 2.920e-5
-1.342, 2.965e-5
-1.343, 3.015e-5
-1.344, 3.024e-5
-1.345, 3.028e-5
-1.346, 3.080e-5
-1.347, 3.124e-5
-1.348, 3.166e-5
-1.349, 3.170e-5
-1.350, 3.200e-5
-1.351, 3.247e-5
-1.352, 3.299e-5
-1.353, 3.339e-5
-1.354, 3.367e-5
-1.355, 3.380e-5
-1.356, 3.439e-5
-1.357, 3.493e-5
-1.358, 3.545e-5
-1.359, 3.566e-5
-1.360, 3.585e-5
-1.361, 3.642e-5
-1.362, 3.707e-5
-1.363, 3.754e-5
-1.364, 3.788e-5
-1.365, 3.811e-5
-1.366, 3.868e-5
-1.367, 3.938e-5
-1.368, 3.994e-5
-1.369, 4.021e-5
-1.370, 4.069e-5
-1.371, 4.099e-5
-1.372, 4.177e-5
-1.373, 4.231e-5
-1.374, 4.264e-5
-1.375, 4.315e-5
-1.376, 4.377e-5
-1.377, 4.459e-5
-1.378, 4.549e-5
-1.379, 4.576e-5
-1.380, 4.625e-5
-1.381, 4.702e-5
-1.382, 4.793e-5
-1.383, 4.871e-5
-1.384, 4.908e-5
-1.385, 4.967e-5
-1.386, 5.068e-5
-1.387, 5.136e-5
-1.388, 5.228e-5
-1.389, 5.287e-5
-1.390, 5.354e-5
-1.391, 5.457e-5
-1.392, 5.542e-5
-1.393, 5.634e-5
-1.394, 5.710e-5
-1.395, 5.771e-5
-1.396, 5.875e-5
-1.397, 5.983e-5
-1.398, 6.079e-5
-1.399, 6.160e-5
-1.400, 6.225e-5
-1.401, 6.340e-5
-1.402, 6.466e-5
-1.403, 6.565e-5
-1.404, 6.648e-5
-1.405, 6.740e-5
-1.406, 6.862e-5
-1.407, 6.992e-5
-1.408, 7.100e-5
-1.409, 7.191e-5
-1.410, 7.306e-5
-1.411, 7.422e-5
-1.412, 7.567e-5
-1.413, 7.693e-5
-1.414, 7.796e-5
-1.415, 7.912e-5
-1.416, 8.043e-5
-1.417, 8.200e-5
-1.418, 8.341e-5
-1.419, 8.442e-5
-1.420, 8.573e-5
-1.421, 8.719e-5
-1.422, 8.872e-5
-1.423, 9.027e-5
-1.424, 9.132e-5
-1.425, 9.277e-5
-1.426, 9.452e-5
-1.427, 9.614e-5
-1.428, 9.781e-5
-1.429, 9.916e-5
-1.430, 1.007e-4
-1.431, 1.026e-4
-1.432, 1.042e-4
-1.433, 1.061e-4
-1.434, 1.077e-4
-1.435, 1.093e-4
-1.436, 1.113e-4
-1.437, 1.132e-4
-1.438, 1.150e-4
-1.439, 1.168e-4
-1.440, 1.185e-4
-1.441, 1.205e-4
-1.442, 1.228e-4
-1.443, 1.246e-4
-1.444, 1.266e-4
-1.445, 1.285e-4
-1.446, 1.307e-4
-1.447, 1.330e-4
-1.448, 1.352e-4
-1.449, 1.371e-4
-1.450, 1.394e-4
-1.451, 1.416e-4
-1.452, 1.442e-4
-1.453, 1.466e-4
-1.454, 1.487e-4
-1.455, 1.511e-4
-1.456, 1.536e-4
-1.457, 1.563e-4
-1.458, 1.590e-4
-1.459, 1.614e-4
-1.460, 1.637e-4
-1.461, 1.667e-4
-1.462, 1.695e-4
-1.463, 1.724e-4
-1.464, 1.750e-4
-1.465, 1.777e-4
-1.466, 1.808e-4
-1.467, 1.839e-4
-1.468, 1.870e-4
-1.469, 1.898e-4
-1.470, 1.928e-4
-1.471, 1.960e-4
-1.472, 1.995e-4
-1.473, 2.027e-4
-1.474, 2.060e-4
-1.475, 2.093e-4
-1.476, 2.129e-4
-1.477, 2.168e-4
-1.478, 2.203e-4
-1.479, 2.241e-4
-1.480, 2.278e-4
-1.481, 2.318e-4
-1.482, 2.360e-4
-1.483, 2.401e-4
-1.484, 2.442e-4
-1.485, 2.485e-4
-1.486, 2.531e-4
-1.487, 2.578e-4
-1.488, 2.624e-4
-1.489, 2.670e-4
-1.490, 2.719e-4
-1.491, 2.769e-4
-1.492, 2.823e-4
-1.493, 2.876e-4
-1.494, 2.927e-4
-1.495, 2.984e-4
-1.496, 3.043e-4
-1.497, 3.106e-4
-1.498, 3.167e-4
-1.499, 3.228e-4
-1.500, 3.295e-4
-1.501, 3.365e-4
-1.502, 3.436e-4
-1.503, 3.507e-4
-1.504, 3.580e-4
-1.505, 3.657e-4
-1.506, 3.736e-4
-1.507, 3.819e-4
-1.508, 3.906e-4
-1.509, 3.992e-4
-1.510, 4.079e-4
-1.511, 4.174e-4
-1.512, 4.272e-4
-1.513, 4.370e-4
-1.514, 4.469e-4
-1.515, 4.572e-4
-1.516, 4.681e-4
-1.517, 4.789e-4
-1.518, 4.899e-4
-1.519, 5.015e-4
-1.520, 5.135e-4
-1.521, 5.257e-4
-1.522, 5.383e-4
-1.523, 5.508e-4
-1.524, 5.638e-4
-1.525, 5.771e-4
-1.526, 5.907e-4
-1.527, 6.050e-4
-1.528, 6.191e-4
-1.529, 6.340e-4
-1.530, 6.488e-4
-1.531, 6.636e-4
-1.532, 6.795e-4
-1.533, 6.958e-4
-1.534, 7.120e-4
-1.535, 7.286e-4
-1.536, 7.455e-4
-1.537, 7.642e-4
-1.538, 7.818e-4
-1.539, 7.989e-4
-1.540, 8.168e-4
-1.541, 8.354e-4
-1.542, 8.547e-4
-1.543, 8.739e-4
-1.544, 8.936e-4
-1.545, 9.142e-4
-1.546, 9.348e-4
-1.547, 9.564e-4
-1.548, 9.784e-4
-1.549, 9.998e-4
-1.550, 1.023e-3
-1.551, 1.046e-3
-1.552, 1.069e-3
-1.553, 1.092e-3
-1.554, 1.118e-3
-1.555, 1.142e-3
-1.556, 1.167e-3
-1.557, 1.193e-3
-1.558, 1.220e-3
-1.559, 1.248e-3
-1.560, 1.274e-3
-1.561, 1.301e-3
-1.562, 1.330e-3
-1.563, 1.359e-3
-1.564, 1.389e-3
-1.565, 1.420e-3
-1.566, 1.449e-3
-1.567, 1.480e-3
-1.568, 1.513e-3
-1.569, 1.546e-3
-1.570, 1.579e-3
-1.571, 1.611e-3
-1.572, 1.645e-3
-1.573, 1.680e-3
-1.574, 1.715e-3
-1.575, 1.751e-3
-1.576, 1.787e-3
-1.577, 1.825e-3
-1.578, 1.864e-3
-1.579, 1.903e-3
-1.580, 1.941e-3
-1.581, 1.978e-3
-1.582, 2.017e-3
-1.583, 2.058e-3
-1.584, 2.098e-3
-1.585, 2.140e-3
-1.586, 2.182e-3
-1.587, 2.227e-3
-1.588, 2.268e-3
-1.589, 2.312e-3
-1.590, 2.360e-3
-1.591, 2.405e-3
-1.592, 2.445e-3
-1.593, 2.492e-3
-1.594, 2.544e-3
-1.595, 2.593e-3
-1.596, 2.633e-3
-1.597, 2.682e-3
-1.598, 2.730e-3
-1.599, 2.779e-3
-1.600, 2.833e-3
-1.601, 2.882e-3
-1.602, 2.929e-3
-1.603, 2.979e-3
-1.604, 3.034e-3
-1.605, 3.091e-3
-1.606, 3.144e-3
-1.607, 3.195e-3
-1.608, 3.241e-3
-1.609, 3.295e-3
-1.610, 3.349e-3
-1.611, 3.413e-3
-1.612, 3.468e-3
-1.613, 3.530e-3
-1.614, 3.601e-3
-1.615, 3.662e-3
-1.616, 3.712e-3
-1.617, 3.756e-3
-1.618, 3.810e-3
-1.619, 3.880e-3
-1.620, 3.940e-3
-1.621, 3.991e-3
-1.622, 4.052e-3
-1.623, 4.119e-3
-1.624, 4.181e-3
-1.625, 4.237e-3
-1.626, 4.299e-3
-1.627, 4.361e-3
-1.628, 4.416e-3
-1.629, 4.480e-3
-1.630, 4.549e-3
-1.631, 4.607e-3
-1.632, 4.671e-3
-1.633, 4.730e-3
-1.634, 4.790e-3
-1.635, 4.858e-3
-1.636, 4.932e-3
-1.637, 4.994e-3
-1.638, 5.059e-3
-1.639, 5.126e-3
-1.640, 5.191e-3
-1.641, 5.266e-3
-1.642, 5.338e-3
-1.643, 5.405e-3
-1.644, 5.461e-3
-1.645, 5.531e-3
-1.646, 5.601e-3
-1.647, 5.671e-3
-1.648, 5.747e-3
-1.649, 5.823e-3
-1.650, 5.902e-3
-1.651, 5.972e-3
-1.652, 6.023e-3
-1.653, 6.077e-3
-1.654, 6.144e-3
-1.655, 6.218e-3
-1.656, 6.296e-3
-1.657, 6.375e-3
-1.658, 6.443e-3
-1.659, 6.506e-3
-1.660, 6.580e-3
-1.661, 6.669e-3
-1.662, 6.747e-3
-1.663, 6.800e-3
-1.664, 6.850e-3
-1.665, 6.923e-3
-1.666, 7.005e-3
-1.667, 7.087e-3
-1.668, 7.162e-3
-1.669, 7.251e-3
-1.670, 7.305e-3
-1.671, 7.379e-3
-1.672, 7.432e-3
-1.673, 7.488e-3
-1.674, 7.555e-3
-1.675, 7.617e-3
-1.676, 7.700e-3
-1.677, 7.814e-3
-1.678, 7.879e-3
-1.679, 7.993e-3
-1.680, 8.063e-3
-1.681, 8.114e-3
-1.682, 8.184e-3
-1.683, 8.260e-3
-1.684, 8.327e-3
-1.685, 8.423e-3
-1.686, 8.532e-3
-1.687, 8.601e-3
-1.688, 8.675e-3
-1.689, 8.765e-3
-1.690, 8.844e-3
-1.691, 8.890e-3
-1.692, 8.966e-3
-1.693, 9.037e-3
-1.694, 9.119e-3
-1.695, 9.171e-3
-1.696, 9.233e-3
-1.697, 9.309e-3
-1.698, 9.399e-3
-1.699, 9.463e-3
-1.700, 9.445e-3
-1.699, 9.370e-3
-1.698, 9.273e-3
-1.697, 9.192e-3
-1.696, 9.079e-3
-1.695, 8.970e-3
-1.694, 8.870e-3
-1.693, 8.765e-3
-1.692, 8.659e-3
-1.691, 8.581e-3
-1.690, 8.491e-3
-1.689, 8.374e-3
-1.688, 8.278e-3
-1.687, 8.211e-3
-1.686, 8.088e-3
-1.685, 7.993e-3
-1.684, 7.983e-3
-1.683, 7.853e-3
-1.682, 7.720e-3
-1.681, 7.651e-3
-1.680, 7.571e-3
-1.679, 7.482e-3
-1.678, 7.375e-3
-1.677, 7.302e-3
-1.676, 7.207e-3
-1.675, 7.100e-3
-1.674, 7.030e-3
-1.673, 6.981e-3
-1.672, 6.875e-3
-1.671, 6.778e-3
-1.670, 6.693e-3
-1.669, 6.642e-3
-1.668, 6.568e-3
-1.667, 6.488e-3
-1.666, 6.380e-3
-1.665, 6.345e-3
-1.664, 6.268e-3
-1.663, 6.183e-3
-1.662, 6.091e-3
-1.661, 6.023e-3
-1.660, 5.940e-3
-1.659, 5.851e-3
-1.658, 5.768e-3
-1.657, 5.696e-3
-1.656, 5.625e-3
-1.655, 5.556e-3
-1.654, 5.496e-3
-1.653, 5.438e-3
-1.652, 5.363e-3
-1.651, 5.301e-3
-1.650, 5.233e-3
-1.649, 5.170e-3
-1.648, 5.107e-3
-1.647, 5.036e-3
-1.646, 4.972e-3
-1.645, 4.948e-3
-1.644, 4.847e-3
-1.643, 4.780e-3
-1.642, 4.707e-3
-1.641, 4.644e-3
-1.640, 4.579e-3
-1.639, 4.510e-3
-1.638, 4.442e-3
-1.637, 4.375e-3
-1.636, 4.316e-3
-1.635, 4.264e-3
-1.634, 4.190e-3
-1.633, 4.117e-3
-1.632, 4.060e-3
-1.631, 4.017e-3
-1.630, 3.956e-3
-1.629, 3.919e-3
-1.628, 3.864e-3
-1.627, 3.795e-3
-1.626, 3.732e-3
-1.625, 3.670e-3
-1.624, 3.614e-3
-1.623, 3.553e-3
-1.622, 3.500e-3
-1.621, 3.448e-3
-1.620, 3.392e-3
-1.619, 3.336e-3
-1.618, 3.282e-3
-1.617, 3.229e-3
-1.616, 3.166e-3
-1.615, 3.108e-3
-1.614, 3.055e-3
-1.613, 3.007e-3
-1.612, 2.964e-3
-1.611, 2.914e-3
-1.610, 2.863e-3
-1.609, 2.815e-3
-1.608, 2.776e-3
-1.607, 2.733e-3
-1.606, 2.682e-3
-1.605, 2.624e-3
-1.604, 2.589e-3
-1.603, 2.570e-3
-1.602, 2.533e-3
-1.601, 2.495e-3
-1.600, 2.452e-3
-1.599, 2.410e-3
-1.598, 2.369e-3
-1.597, 2.329e-3
-1.596, 2.285e-3
-1.595, 2.243e-3
-1.594, 2.200e-3
-1.593, 2.156e-3
-1.592, 2.116e-3
-1.591, 2.077e-3
-1.590, 2.038e-3
-1.589, 1.998e-3
-1.588, 1.960e-3
-1.587, 1.922e-3
-1.586, 1.883e-3
-1.585, 1.846e-3
-1.584, 1.813e-3
-1.583, 1.775e-3
-1.582, 1.740e-3
-1.581, 1.707e-3
-1.580, 1.674e-3
-1.579, 1.639e-3
-1.578, 1.608e-3
-1.577, 1.576e-3
-1.576, 1.545e-3
-1.575, 1.515e-3
-1.574, 1.484e-3
-1.573, 1.454e-3
-1.572, 1.425e-3
-1.571, 1.397e-3
-1.570, 1.369e-3
-1.569, 1.339e-3
-1.568, 1.312e-3
-1.567, 1.287e-3
-1.566, 1.264e-3
-1.565, 1.236e-3
-1.564, 1.210e-3
-1.563, 1.187e-3
-1.562, 1.163e-3
-1.561, 1.142e-3
-1.560, 1.116e-3
-1.559, 1.094e-3
-1.558, 1.072e-3
-1.557, 1.050e-3
-1.556, 1.028e-3
-1.555, 1.008e-3
-1.554, 9.855e-4
-1.553, 9.677e-4
-1.552, 9.466e-4
-1.551, 9.273e-4
-1.550, 9.087e-4
-1.549, 8.905e-4
-1.548, 8.748e-4
-1.547, 8.573e-4
-1.546, 8.400e-4
-1.545, 8.235e-4
-1.544, 8.071e-4
-1.543, 7.908e-4
-1.542, 7.741e-4
-1.541, 7.578e-4
-1.540, 7.417e-4
-1.539, 7.264e-4
-1.538, 7.111e-4
-1.537, 6.961e-4
-1.536, 6.815e-4
-1.535, 6.670e-4
-1.534, 6.531e-4
-1.533, 6.398e-4
-1.532, 6.267e-4
-1.531, 6.131e-4
-1.530, 6.005e-4
-1.529, 5.879e-4
-1.528, 5.754e-4
-1.527, 5.637e-4
-1.526, 5.515e-4
-1.525, 5.401e-4
-1.524, 5.289e-4
-1.523, 5.178e-4
-1.522, 5.071e-4
-1.521, 4.963e-4
-1.520, 4.859e-4
-1.519, 4.757e-4
-1.518, 4.658e-4
-1.517, 4.563e-4
-1.516, 4.466e-4
-1.515, 4.368e-4
-1.514, 4.276e-4
-1.513, 4.189e-4
-1.512, 4.104e-4
-1.511, 4.015e-4
-1.510, 3.928e-4
-1.509, 3.848e-4
-1.508, 3.768e-4
-1.507, 3.689e-4
-1.506, 3.610e-4
-1.505, 3.533e-4
-1.504, 3.460e-4
-1.503, 3.389e-4
-1.502, 3.318e-4
-1.501, 3.246e-4
-1.500, 3.177e-4
-1.499, 3.110e-4
-1.498, 3.045e-4
-1.497, 2.980e-4
-1.496, 2.915e-4
-1.495, 2.854e-4
-1.494, 2.794e-4
-1.493, 2.737e-4
-1.492, 2.679e-4
-1.491, 2.618e-4
-1.490, 2.562e-4
-1.489, 2.507e-4
-1.488, 2.454e-4
-1.487, 2.403e-4
-1.486, 2.349e-4
-1.485, 2.296e-4
-1.484, 2.248e-4
-1.483, 2.199e-4
-1.482, 2.154e-4
-1.481, 2.103e-4
-1.480, 2.056e-4
-1.479, 2.013e-4
-1.478, 1.968e-4
-1.477, 1.926e-4
-1.476, 1.879e-4
-1.475, 1.836e-4
-1.474, 1.797e-4
-1.473, 1.759e-4
-1.472, 1.723e-4
-1.471, 1.683e-4
-1.470, 1.643e-4
-1.469, 1.607e-4
-1.468, 1.573e-4
-1.467, 1.538e-4
-1.466, 1.501e-4
-1.465, 1.463e-4
-1.464, 1.432e-4
-1.463, 1.401e-4
-1.462, 1.369e-4
-1.461, 1.337e-4
-1.460, 1.304e-4
-1.459, 1.275e-4
-1.458, 1.247e-4
-1.457, 1.219e-4
-1.456, 1.189e-4
-1.455, 1.158e-4
-1.454, 1.131e-4
-1.453, 1.108e-4
-1.452, 1.081e-4
-1.451, 1.053e-4
-1.450, 1.027e-4
-1.449, 1.002e-4
-1.448, 9.795e-5
-1.447, 9.552e-5
-1.446, 9.279e-5
-1.445, 9.036e-5
-1.444, 8.829e-5
-1.443, 8.600e-5
-1.442, 8.409e-5
-1.441, 8.164e-5
-1.440, 7.943e-5
-1.439, 7.747e-5
-1.438, 7.525e-5
-1.437, 7.340e-5
-1.436, 7.130e-5
-1.435, 6.911e-5
-1.434, 6.731e-5
-1.433, 6.571e-5
-1.432, 6.401e-5
-1.431, 6.217e-5
-1.430, 6.002e-5
-1.429, 5.852e-5
-1.428, 5.699e-5
-1.427, 5.544e-5
-1.426, 5.380e-5
-1.425, 5.200e-5
-1.424, 5.057e-5
-1.423, 4.930e-5
-1.422, 4.789e-5
-1.421, 4.633e-5
-1.420, 4.475e-5
-1.419, 4.342e-5
-1.418, 4.228e-5
-1.417, 4.098e-5
-1.416, 3.964e-5
-1.415, 3.817e-5
-1.414, 3.693e-5
-1.413, 3.592e-5
-1.412, 3.486e-5
-1.411, 3.343e-5
-1.410, 3.214e-5
-1.409, 3.101e-5
-1.408, 3.019e-5
-1.407, 2.922e-5
-1.406, 2.783e-5
-1.405, 2.665e-5
-1.404, 2.555e-5
-1.403, 2.455e-5
-1.402, 2.381e-5
-1.401, 2.269e-5
-1.400, 2.166e-5
-1.399, 2.081e-5
-1.398, 1.997e-5
-1.397, 1.925e-5
-1.396, 1.821e-5
-1.395, 1.714e-5
-1.394, 1.654e-5
-1.393, 1.577e-5
-1.392, 1.514e-5
-1.391, 1.434e-5
-1.390, 1.327e-5
-1.389, 1.257e-5
-1.388, 1.215e-5
-1.387, 1.138e-5
-1.386, 1.054e-5
-1.385, 9.590e-6
-1.384, 9.059e-6
-1.383, 8.482e-6
-1.382, 7.900e-6
-1.381, 7.211e-6
-1.380, 6.345e-6
-1.379, 5.369e-6
-1.378, 4.847e-6
-1.377, 4.155e-6
-1.376, 3.431e-6
-1.375, 2.587e-6
-1.374, 1.804e-6
-1.373, 1.641e-6
-1.372, 1.160e-6
-1.371, 4.605e-7
-1.370, -9.688e-8
-1.369, -5.280e-7
-1.368, -8.092e-7
-1.367, -1.162e-6
-1.366, -1.825e-6
-1.365, -2.230e-6
-1.364, -2.693e-6
-1.363, -2.966e-6
-1.362, -3.190e-6
-1.361, -3.766e-6
-1.360, -4.281e-6
-1.359, -4.609e-6
-1.358, -4.892e-6
-1.357, -5.092e-6
-1.356, -5.619e-6
-1.355, -6.181e-6
-1.354, -6.415e-6
-1.353, -6.602e-6
-1.352, -6.709e-6
-1.351, -7.233e-6
-1.350, -7.679e-6
-1.349, -7.888e-6
-1.348, -8.060e-6
-1.347, -8.300e-6
-1.346, -8.628e-6
-1.345, -9.179e-6
-1.344, -9.422e-6
-1.343, -9.545e-6
-1.342, -9.733e-6
-1.341, -1.002e-5
-1.340, -1.046e-5
-1.339, -1.069e-5
-1.338, -1.080e-5
-1.337, -1.089e-5
-1.336, -1.122e-5
-1.335, -1.157e-5
-1.334, -1.185e-5
-1.333, -1.178e-5
-1.332, -1.186e-5
-1.331, -1.234e-5
-1.330, -1.263e-5
-1.329, -1.283e-5
-1.328, -1.285e-5
-1.327, -1.288e-5
-1.326, -1.324e-5
-1.325, -1.355e-5
-1.324, -1.368e-5
-1.323, -1.372e-5
-1.322, -1.373e-5
-1.321, -1.404e-5
-1.320, -1.444e-5
-1.319, -1.448e-5
-1.318, -1.465e-5
-1.317, -1.457e-5
-1.316, -1.488e-5
-1.315, -1.542e-5
-1.314, -1.542e-5
-1.313, -1.565e-5
-1.312, -1.561e-5
-1.311, -1.590e-5
-1.310, -1.630e-5
-1.309, -1.635e-5
-1.308, -1.622e-5
-1.307, -1.626e-5
-1.306, -1.649e-5
-1.305, -1.688e-5
-1.304, -1.687e-5
-1.303, -1.685e-5
-1.302, -1.690e-5
-1.301, -1.711e-5
-1.300, -1.741e-5
-1.299, -1.756e-5
-1.298, -1.742e-5
-1.297, -1.739e-5
-1.296, -1.764e-5
-1.295, -1.791e-5
-1.294, -1.811e-5
-1.293, -1.799e-5
-1.292, -1.799e-5
-1.291, -1.831e-5
-1.290, -1.855e-5
-1.289, -1.861e-5
-1.288, -1.858e-5
-1.287, -1.852e-5
-1.286, -1.892e-5
-1.285, -1.904e-5
-1.284, -1.916e-5
-1.283, -1.924e-5
-1.282, -1.933e-5
-1.281, -1.960e-5
-1.280, -2.000e-5
-1.279, -1.998e-5
-1.278, -1.997e-5
-1.277, -1.980e-5
-1.276, -1.997e-5
-1.275, -2.032e-5
-1.274, -2.027e-5
-1.273, -2.039e-5
-1.272, -2.022e-5
-1.271, -2.038e-5
-1.270, -2.088e-5
-1.269, -2.082e-5
-1.268, -2.067e-5
-1.267, -2.069e-5
-1.266, -2.090e-5
-1.265, -2.156e-5
-1.264, -2.157e-5
-1.263, -2.156e-5
-1.262, -2.160e-5
-1.261, -2.169e-5
-1.260, -2.196e-5
-1.259, -2.217e-5
-1.258, -2.195e-5
-1.257, -2.199e-5
-1.256, -2.209e-5
-1.255, -2.235e-5
-1.254, -2.253e-5
-1.253, -2.228e-5
-1.252, -2.231e-5
-1.251, -2.259e-5
-1.250, -2.286e-5
-1.249, -2.292e-5
-1.248, -2.283e-5
-1.247, -2.272e-5
-1.246, -2.311e-5
-1.245, -2.322e-5
-1.244, -2.327e-5
-1.243, -2.326e-5
-1.242, -2.312e-5
-1.241, -2.352e-5
-1.240, -2.360e-5
-1.239, -2.373e-5
-1.238, -2.367e-5
-1.237, -2.361e-5
-1.236, -2.377e-5
-1.235, -2.416e-5
-1.234, -2.411e-5
-1.233, -2.416e-5
-1.232, -2.406e-5
-1.231, -2.421e-5
-1.230, -2.456e-5
-1.229, -2.483e-5
-1.228, -2.459e-5
-1.227, -2.462e-5
-1.226, -2.480e-5
-1.225, -2.527e-5
-1.224, -2.543e-5
-1.223, -2.532e-5
-1.222, -2.547e-5
-1.221, -2.558e-5
-1.220, -2.581e-5
-1.219, -2.607e-5
-1.218, -2.573e-5
-1.217, -2.577e-5
-1.216, -2.590e-5
-1.215, -2.629e-5
-1.214, -2.656e-5
-1.213, -2.629e-5
-1.212, -2.626e-5
-1.211, -2.651e-5
-1.210, -2.667e-5
-1.209, -2.693e-5
-1.208, -2.676e-5
-1.207, -2.681e-5
-1.206, -2.699e-5
-1.205, -2.724e-5
-1.204, -2.735e-5
-1.203, -2.732e-5
-1.202, -2.721e-5
-1.201, -2.742e-5
-1.200, -2.758e-5
-1.199, -2.775e-5
-1.198, -2.774e-5
-1.197, -2.767e-5
-1.196, -2.796e-5
-1.195, -2.819e-5
-1.194, -2.834e-5
-1.193, -2.836e-5
-1.192, -2.823e-5
-1.191, -2.838e-5
-1.190, -2.883e-5
-1.189, -2.891e-5
-1.188, -2.875e-5
-1.187, -2.884e-5
-1.186, -2.893e-5
-1.185, -2.936e-5
-1.184, -2.942e-5
-1.183, -2.922e-5
-1.182, -2.944e-5
-1.181, -2.940e-5
-1.180, -2.986e-5
-1.179, -3.003e-5
-1.178, -3.000e-5
-1.177, -2.989e-5
-1.176, -3.010e-5
-1.175, -3.045e-5
-1.174, -3.069e-5
-1.173, -3.048e-5
-1.172, -3.041e-5
-1.171, -3.080e-5
-1.170, -3.104e-5
-1.169, -3.128e-5
-1.168, -3.117e-5
-1.167, -3.121e-5
-1.166, -3.145e-5
-1.165, -3.172e-5
-1.164, -3.195e-5
-1.163, -3.210e-5
-1.162, -3.221e-5
-1.161, -3.267e-5
-1.160, -3.303e-5
-1.159, -3.326e-5
-1.158, -3.326e-5
-1.157, -3.315e-5
-1.156, -3.334e-5
-1.155, -3.365e-5
-1.154, -3.380e-5
-1.153, -3.384e-5
-1.152, -3.361e-5
-1.151, -3.382e-5
-1.150, -3.420e-5
-1.149, -3.430e-5
-1.148, -3.428e-5
-1.147, -3.438e-5
-1.146, -3.438e-5
-1.145, -3.482e-5
-1.144, -3.500e-5
-1.143, -3.492e-5
-1.142, -3.505e-5
-1.141, -3.499e-5
-1.140, -3.542e-5
-1.139, -3.575e-5
-1.138, -3.560e-5
-1.137, -3.561e-5
-1.136, -3.572e-5
-1.135, -3.609e-5
-1.134, -3.640e-5
-1.133, -3.631e-5
-1.132, -3.622e-5
-1.131, -3.648e-5
-1.130, -3.682e-5
-1.129, -3.713e-5
-1.128, -3.698e-5
-1.127, -3.698e-5
-1.126, -3.736e-5
-1.125, -3.769e-5
-1.124, -3.797e-5
-1.123, -3.822e-5
-1.122, -3.804e-5
-1.121, -3.845e-5
-1.120, -3.885e-5
-1.119, -3.900e-5
-1.118, -3.913e-5
-1.117, -3.886e-5
-1.116, -3.911e-5
-1.115, -3.947e-5
-1.114, -3.969e-5
-1.113, -4.000e-5
-1.112, -3.977e-5
-1.111, -3.996e-5
-1.110, -4.044e-5
-1.109, -4.062e-5
-1.108, -4.059e-5
-1.107, -4.080e-5
-1.106, -4.092e-5
-1.105, -4.140e-5
-1.104, -4.164e-5
-1.103, -4.159e-5
-1.102, -4.168e-5
-1.101, -4.168e-5
-1.100, -4.205e-5
-1.099, -4.242e-5
-1.098, -4.228e-5
-1.097, -4.239e-5
-1.096, -4.236e-5
-1.095, -4.279e-5
-1.094, -4.322e-5
-1.093, -4.319e-5
-1.092, -4.316e-5
-1.091, -4.334e-5
-1.090, -4.373e-5
-1.089, -4.399e-5
-1.088, -4.393e-5
-1.087, -4.389e-5
-1.086, -4.408e-5
-1.085, -4.440e-5
-1.084, -4.472e-5
-1.083, -4.481e-5
-1.082, -4.460e-5
-1.081, -4.490e-5
-1.080, -4.517e-5
-1.079, -4.554e-5
-1.078, -4.559e-5
-1.077, -4.543e-5
-1.076, -4.567e-5
-1.075, -4.618e-5
-1.074, -4.624e-5
-1.073, -4.643e-5
-1.072, -4.619e-5
-1.071, -4.632e-5
-1.070, -4.690e-5
-1.069, -4.702e-5
-1.068, -4.717e-5
-1.067, -4.720e-5
-1.066, -4.723e-5
-1.065, -4.774e-5
-1.064, -4.786e-5
-1.063, -4.793e-5
-1.062, -4.809e-5
-1.061, -4.813e-5
-1.060, -4.862e-5
-1.059, -4.918e-5
-1.058, -4.918e-5
-1.057, -4.935e-5
-1.056, -4.936e-5
-1.055, -4.972e-5
-1.054, -5.022e-5
-1.053, -5.018e-5
-1.052, -5.005e-5
-1.051, -5.026e-5
-1.050, -5.055e-5
-1.049, -5.092e-5
-1.048, -5.084e-5
-1.047, -5.062e-5
-1.046, -5.089e-5
-1.045, -5.110e-5
-1.044, -5.143e-5
-1.043, -5.160e-5
-1.042, -5.136e-5
-1.041, -5.179e-5
-1.040, -5.200e-5
-1.039, -5.227e-5
-1.038, -5.244e-5
-1.037, -5.216e-5
-1.036, -5.232e-5
-1.035, -5.268e-5
-1.034, -5.289e-5
-1.033, -5.292e-5
-1.032, -5.274e-5
-1.031, -5.290e-5
-1.030, -5.335e-5
-1.029, -5.342e-5
-1.028, -5.359e-5
-1.027, -5.363e-5
-1.026, -5.370e-5
-1.025, -5.408e-5
-1.024, -5.436e-5
-1.023, -5.433e-5
-1.022, -5.430e-5
-1.021, -5.424e-5
-1.020, -5.452e-5
-1.019, -5.505e-5
-1.018, -5.498e-5
-1.017, -5.501e-5
-1.016, -5.478e-5
-1.015, -5.513e-5
-1.014, -5.570e-5
-1.013, -5.550e-5
-1.012, -5.551e-5
-1.011, -5.564e-5
-1.010, -5.586e-5
-1.009, -5.642e-5
-1.008, -5.622e-5
-1.007, -5.606e-5
-1.006, -5.624e-5
-1.005, -5.648e-5
-1.004, -5.679e-5
-1.003, -5.694e-5
-1.002, -5.671e-5
-1.001, -5.679e-5
