Potential V vs RHE, Current mA cm-2
0.013299999999999867,-0.1330535977523067
0.012299999999999978,-0.9617207416482519
0.011299999999999866,-1.4854468648582886
0.010299999999999976,-1.92117794521672
0.009299999999999864,-2.2706116362833835
0.008299999999999974,-2.532333226758415
0.007299999999999862,-2.8379108675292635
0.006299999999999972,-3.0119203574126634
0.00529999999999986,-3.1859298472960624
0.0042999999999999705,-3.403795387475278
0.0032999999999998586,-3.579219588658543
0.0022999999999999687,-3.7093730282461257
0.0012999999999998568,-3.884797229429391
0.00029999999999996696,-4.014950669016974
-0.000700000000000145,-4.102662769608606
-0.0017000000000000348,-4.1889601589003735
-0.0027000000000001467,-4.276672259492005
-0.0037000000000000366,-4.364384360083638
-0.0047000000000001485,-4.406825699079589
-0.005700000000000038,-4.450681749375406
-0.00670000000000015,-4.582249900262854
-0.00770000000000004,-4.582249900262854
-0.008700000000000152,-4.712403339850438
-0.009700000000000042,-4.800115440442069
-0.010700000000000154,-4.887827541033701
-0.011700000000000044,-4.9302688800296535
-0.012700000000000156,-4.974124930325469
-0.013700000000000045,-5.017980980621284
-0.014700000000000157,-5.149549131508733
-0.015700000000000047,-5.191990470504685
-0.01670000000000016,-5.323558621392133
-0.01770000000000005,-5.411270721983764
-0.01870000000000016,-5.497568111275533
-0.01970000000000005,-5.629136262162981
-0.020700000000000163,-5.759289701750564
-0.021700000000000053,-5.847001802342197
-0.022700000000000164,-5.977155241929781
-0.023700000000000054,-6.064867342521412
-0.024700000000000166,-6.196435493408861
-0.025700000000000056,-6.326588932996443
-0.026700000000000168,-6.500598422879844
-0.027700000000000058,-6.632166573767292
-0.02870000000000017,-6.806176063650692
-0.02970000000000006,-6.981600264833956
-0.03070000000000017,-7.155609754717355
-0.03170000000000006,-7.329619244600755
-0.03270000000000017,-7.5474847847799715
-0.03370000000000006,-7.722908985963235
-0.034700000000000175,-7.896918475846635
-0.035700000000000065,-8.070927965730034
-0.03670000000000018,-8.288793505909249
-0.03770000000000007,-8.464217707092514
-0.03870000000000018,-8.68208324727173
-0.03970000000000007,-8.899948787450944
-0.04070000000000018,-9.073958277334345
-0.04170000000000007,-9.24938247851761
-0.04270000000000018,-9.423391968401008
-0.04370000000000007,-9.641257508580225
-0.044700000000000184,-9.81668170976349
-0.045700000000000074,-10.034547249942705
-0.046700000000000186,-10.25241279012192
-0.047700000000000076,-10.470278330301136
-0.04870000000000019,-10.731999920776168
-0.04970000000000008,-10.993721511251199
-0.05070000000000019,-11.211587051430415
-0.05170000000000008,-11.42945259160963
-0.05270000000000019,-11.647318131788847
-0.05370000000000008,-11.86659838326793
-0.05470000000000019,-12.084463923447142
-0.05570000000000008,-12.258473413330542
-0.056700000000000195,-12.432482903213943
-0.057700000000000085,-12.607907104397206
-0.058700000000000196,-12.781916594280606
-0.059700000000000086,-12.913484745168056
-0.0607000000000002,-13.043638184755638
-0.06170000000000009,-13.087494235051453
-0.0627000000000002,-13.217647674639037
-0.06370000000000009,-13.261503724934855
-0.0647000000000002,-13.30535977523067
-0.06570000000000009,-13.349215825526485
-0.0667000000000002,-13.436927926118118
-0.0677000000000001,-13.47936926511407
-0.0687000000000002,-13.567081365705702
-0.0697000000000001,-13.567081365705702
-0.07070000000000021,-13.610937416001518
-0.0717000000000001,-13.610937416001518
-0.07270000000000021,-13.610937416001518
-0.0737000000000001,-13.610937416001518
-0.07470000000000021,-13.654793466297335
-0.0757000000000001,-13.654793466297335
-0.07670000000000021,-13.698649516593148
-0.0777000000000001,-13.741090855589102
-0.07870000000000021,-13.784946905884919
-0.0797000000000001,-13.784946905884919
-0.08070000000000022,-13.828802956180734
-0.0817000000000001,-13.828802956180734
-0.08270000000000022,-13.828802956180734
-0.08370000000000011,-13.828802956180734
-0.08470000000000022,-13.872659006476551
-0.08570000000000011,-13.872659006476551
-0.08670000000000022,-13.916515056772363
-0.08770000000000011,-13.916515056772363
-0.08870000000000022,-14.002812446064135
-0.08970000000000011,-14.002812446064135
-0.09070000000000022,-14.002812446064135
-0.09170000000000011,-14.002812446064135
-0.09270000000000023,-14.002812446064135
-0.09370000000000012,-13.960371107068182
-0.09470000000000023,-13.960371107068182
-0.09570000000000012,-13.960371107068182
-0.09670000000000023,-13.960371107068182
-0.09770000000000012,-13.960371107068182
-0.09870000000000023,-14.002812446064135
-0.09970000000000012,-14.002812446064135
-0.10070000000000023,-13.960371107068182
-0.10170000000000012,-13.916515056772363
-0.10270000000000024,-13.828802956180734
-0.10370000000000013,-13.784946905884919
-0.10470000000000024,-13.698649516593148
-0.10570000000000013,-13.654793466297335
-0.10670000000000024,-13.654793466297335
-0.10770000000000013,-13.654793466297335
-0.10870000000000024,-13.610937416001518
-0.10970000000000013,-13.610937416001518
-0.11070000000000024,-13.610937416001518
-0.11170000000000013,-13.523225315409885
-0.11270000000000002,-13.47936926511407
-0.11370000000000013,-13.436927926118118
-0.11470000000000002,-13.436927926118118
-0.11570000000000014,-13.3930718758223
-0.11670000000000003,-13.3930718758223
-0.11770000000000014,-13.3930718758223
-0.11870000000000003,-13.3930718758223
-0.11970000000000014,-13.3930718758223
-0.12070000000000003,-13.3930718758223
-0.12170000000000014,-13.349215825526485
-0.12270000000000003,-13.30535977523067
-0.12370000000000014,-13.261503724934855
-0.12470000000000003,-13.261503724934855
-0.12570000000000014,-13.261503724934855
-0.12670000000000003,-13.261503724934855
-0.12770000000000015,-13.261503724934855
-0.12870000000000004,-13.261503724934855
-0.12970000000000015,-13.261503724934855
-0.13070000000000004,-13.217647674639037
-0.13170000000000015,-13.175206335643086
-0.13270000000000004,-13.175206335643086
-0.13370000000000015,-13.13135028534727
-0.13470000000000004,-13.13135028534727
-0.13570000000000015,-13.087494235051453
-0.13670000000000004,-13.087494235051453
-0.13770000000000016,-13.087494235051453
-0.13870000000000005,-13.087494235051453
-0.13970000000000016,-13.087494235051453
-0.14070000000000005,-13.087494235051453
-0.14170000000000016,-13.043638184755638
-0.14270000000000005,-13.043638184755638
-0.14370000000000016,-13.043638184755638
-0.14470000000000005,-12.99978213445982
-0.14570000000000016,-12.99978213445982
-0.14670000000000005,-12.99978213445982
-0.14770000000000016,-12.99978213445982
-0.14870000000000005,-12.99978213445982
-0.14970000000000017,-12.99978213445982
-0.15070000000000006,-12.99978213445982
-0.15170000000000017,-12.99978213445982
-0.15270000000000006,-12.99978213445982
-0.15370000000000017,-12.99978213445982
-0.15470000000000006,-12.955926084164007
-0.15570000000000017,-12.955926084164007
-0.15670000000000006,-12.99978213445982
-0.15770000000000017,-12.99978213445982
-0.15870000000000006,-12.99978213445982
-0.15970000000000018,-13.043638184755638
-0.16070000000000007,-13.043638184755638
-0.16170000000000018,-13.043638184755638
-0.16270000000000007,-13.043638184755638
-0.16370000000000018,-13.043638184755638
-0.16470000000000007,-13.087494235051453
-0.16570000000000018,-13.087494235051453
-0.16670000000000007,-13.13135028534727
-0.16770000000000018,-13.175206335643086
-0.16870000000000007,-13.217647674639037
-0.16970000000000018,-13.217647674639037
-0.17070000000000007,-13.261503724934855
-0.17170000000000019,-13.261503724934855
-0.17270000000000008,-13.30535977523067
-0.1737000000000002,-13.349215825526485
-0.17470000000000008,-13.349215825526485
-0.1757000000000002,-13.3930718758223
-0.17670000000000008,-13.436927926118118
-0.1777000000000002,-13.523225315409885
-0.17870000000000008,-13.567081365705702
-0.1797000000000002,-13.654793466297335
-0.18070000000000008,-13.741090855589102
-0.1817000000000002,-13.741090855589102
-0.18270000000000008,-13.828802956180734
-0.1837000000000002,-13.828802956180734
-0.1847000000000001,-13.916515056772363
-0.1857000000000002,-13.960371107068182
-0.1867000000000001,-14.046668496359947
-0.1877000000000002,-14.13438059695158
-0.1887000000000001,-14.175407224647667
-0.1897000000000002,-14.26028990263957
-0.1907000000000001,-14.345172580631472
-0.1917000000000001,-14.345172580631472
-0.19269999999999998,-14.444202371622024
-0.1937000000000001,-14.444202371622024
-0.19469999999999998,-14.529085049613924
-0.1957000000000001,-14.57152638860988
-0.19669999999999999,-14.65640906660178
-0.1977000000000001,-14.741291744593681
-0.1987,-14.783733083589633
-0.1997000000000001,-14.868615761581536
-0.2007,-14.925204213576137
-0.2017000000000001,-14.967645552572087
-0.2027,-15.05252823056399
-0.2037000000000001,-15.094969569559943
-0.2047,-15.137410908555893
-0.2057000000000001,-15.222293586547794
-0.2067,-15.264734925543747
-0.2077000000000001,-15.349617603535648
-0.2087,-15.448647394526201
-0.2097000000000001,-15.533530072518102
-0.2107,-15.660854089505953
-0.2117000000000001,-15.78817810649381
-0.2127,-15.830619445489761
-0.2137000000000001,-15.91550212348166
-0.2147,-16.014531914472215
-0.2157000000000001,-16.141855931460068
-0.2167,-16.269179948447924
-0.21770000000000012,-16.396503965435777
-0.2187,-16.53797509542228
-0.21970000000000012,-16.70774045140608
-0.2207,-16.792623129397985
-0.22170000000000012,-16.919947146385837
-0.2227,-17.061418276372343
-0.22370000000000012,-17.146300954364243
-0.2247,-17.2736249713521
-0.22570000000000012,-17.40094898833995
-0.2267,-17.584861457322408
-0.22770000000000012,-17.71218547431026
-0.22870000000000001,-17.881950830294063
-0.22970000000000013,-18.06586329927652
-0.23070000000000002,-18.23562865526032
-0.23170000000000013,-18.362952672248177
-0.23270000000000002,-18.49027668923603
-0.23370000000000013,-18.674189158218486
-0.23470000000000002,-18.843954514202288
-0.23570000000000013,-18.97127853119014
-0.23670000000000002,-19.197632339168546
-0.2376999999999999,-19.367397695152352
-0.23870000000000002,-19.636192842126707
-0.2396999999999999,-19.805958198110513
-0.24070000000000003,-20.06060623208622
-0.24169999999999991,-20.244518701068674
-0.24270000000000003,-20.456725396048434
-0.24369999999999992,-20.683079204026836
-0.24470000000000003,-20.89528589900659
-0.24569999999999992,-21.107492593986347
-0.24670000000000003,-21.376287740960702
-0.24769999999999992,-21.58849443594046
-0.24870000000000003,-21.857289582914817
-0.24969999999999992,-22.111937616890522
-0.25070000000000003,-22.38073276386488
-0.2516999999999999,-22.592939458844636
-0.25270000000000004,-22.861734605818995
-0.2536999999999999,-23.073941300798747
-0.25470000000000004,-23.342736447773106
-0.2556999999999999,-23.597384481748815
-0.25670000000000004,-23.86617962872317
-0.25769999999999993,-24.16326900169483
-0.25870000000000004,-24.432064148669184
-0.25969999999999993,-24.729153521640843
-0.26070000000000004,-25.04039000761115
-0.26169999999999993,-25.252596702590903
-0.26270000000000004,-25.563833188561212
-0.26369999999999993,-25.81848122253692
-0.26470000000000005,-26.087276369511276
-0.26569999999999994,-26.38436574248293
-0.26670000000000005,-26.738043567449193
-0.26769999999999994,-27.049280053419505
-0.26870000000000005,-27.34636942639116
-0.26969999999999994,-27.700047251357418
-0.27070000000000005,-28.05372507632368
-0.27169999999999994,-28.350814449295335
-0.27270000000000005,-28.662050935265643
-0.27369999999999994,-29.001581647233255
-0.27470000000000006,-29.35525947219951
-0.27569999999999995,-29.708937297165768
-0.27670000000000006,-30.10505646112798
-0.27769999999999995,-30.444587173095588
-0.27870000000000006,-30.8407063370578
-0.27969999999999995,-31.27926684001596
-0.28070000000000006,-31.661238890979522
-0.28169999999999995,-32.01491671594578
-0.28270000000000006,-32.41103587990799
-0.28369999999999995,-32.807155043870196
-0.28470000000000006,-33.18912709483376
-0.28569999999999995,-33.58524625879597
-0.28670000000000007,-34.06624810075008
-0.28769999999999996,-34.462367264712285
-0.28870000000000007,-34.94336910666641
-0.28969999999999996,-35.38192960962457
-0.29070000000000007,-35.848784338580025
-0.29169999999999996,-36.28734484153819
-0.29270000000000007,-36.768346683492304
-0.29369999999999996,-37.206907186450465
-0.2947000000000001,-37.73035036740053
-0.29569999999999996,-38.211352209354644
-0.2967000000000001,-38.81967806829661
-0.29769999999999996,-39.34312124924667
-0.2987000000000001,-39.90900576919269
-0.29969999999999997,-40.4748902891387
-0.3007000000000001,-41.083216148080666
-0.30169999999999997,-41.66324778102533
-0.3027000000000001,-42.229132300971344
-0.30369999999999997,-42.79501682091736
-0.3047000000000001,-43.40334267985933
-0.30569999999999997,-44.011668538801295
-0.3067000000000001,-44.66243573673921
-0.3077,-45.27076159568118
-0.3087000000000001,-45.93567590661774
-0.3097,-46.544001765559706
-0.3107000000000001,-47.19476896349763
-0.3117,-47.76065348344364
-0.3127000000000001,-48.32653800338966
-0.3137,-49.03389365332217
-0.3147000000000001,-49.642219512264134
-0.3157,-50.2505453712061
-0.3167000000000001,-50.90131256914402
-0.3177,-51.509638428085985
-0.3187000000000001,-52.11796428702795
-0.3197,-52.78287859796452
-0.3207000000000001,-53.39120445690648
-0.3217,-53.999530315848446
-0.3227000000000001,-54.60785617479041
-0.3237,-55.25862337272834
-0.3247000000000001,-55.838655005673
-0.3257,-56.489422203610914
-0.3267000000000001,-57.14018940154883
-0.3277,-57.7485152604908
-0.3287000000000001,-58.498312249419264
-0.3297,-59.10663810836124
-0.3307000000000001,-59.757405306299155
-0.3317,-60.32328982624517
-0.3327000000000001,-60.93161568518713
-0.3337,-61.53994154412909
-0.3347000000000001,-62.16241451606972
-0.3357,-62.81318171400764
-0.3367000000000001,-63.5063902509415
-0.3377,-64.15715744887942
-0.3387000000000001,-64.82207175981598
-0.3397,-65.51528029674984
-0.3407000000000001,-66.20848883368372
-0.3417,-66.77437335362974
-0.3427000000000001,-67.48172900356225
-0.3437,-68.0900548625042
-0.3447000000000001,-68.74082206044213
-0.3457,-69.39158925838004
-0.3467000000000001,-70.09894490831257
-0.3477,-70.79215344524643
-0.3487000000000001,-71.48536198218031
-0.3497,-72.23515897110877
-0.3507000000000001,-72.92836750804264
-0.3517,-73.62157604497652
-0.3527000000000001,-74.37137303390499
-0.3537,-75.1070229098348
-0.3547000000000001,-75.81437855976732
-0.3557,-76.55002843569714
-0.35670000000000013,-77.34226676362155
-0.3577,-78.12035797854733
-0.35870000000000013,-78.91259630647174
-0.3597,-79.73312886039348
-0.36070000000000013,-80.61024986630979
-0.3617,-81.43078242023151
-0.3626999999999999,-82.30790342614785
-0.3637,-83.22746577106011
-0.3646999999999999,-84.09043966397778
-0.3657,-85.01000200889004
-0.3666999999999999,-85.97200569279828
-0.3677,-86.93400937670651
-0.3686999999999999,-87.93845439961068
-0.36970000000000003,-88.9853407615108
-0.3706999999999999,-89.98978578441499
-0.37170000000000003,-90.99423080731917
-0.3726999999999999,-91.98452871722468
-0.37370000000000003,-93.08800353111941
-0.3746999999999999,-94.26221391000739
-0.37570000000000003,-95.43642428889537
-0.3766999999999999,-96.73795868477121
-0.37770000000000004,-98.05364019364569
-0.3786999999999999,-99.22785057253368
-0.37970000000000004,-100.40206095142165
-0.3806999999999999,-101.40650597432582
-0.38170000000000004,-102.3260683192381
-0.38269999999999993,-103.24563066415038
-0.38370000000000004,-104.12275167006669
-0.38469999999999993,-105.07060824097626
-0.38570000000000004,-105.99017058588855
-0.38669999999999993,-105.90528790789664
-0.38570000000000004,-104.06616321807209
-0.38469999999999993,-102.63730480520842
-0.38370000000000004,-101.32162329633393
-0.38269999999999993,-100.10497157844999
-0.38170000000000004,-98.97320253855796
-0.3806999999999999,-97.84143349866595
-0.37970000000000004,-96.73795868477121
-0.3786999999999999,-95.69107232287108
-0.37770000000000004,-94.601744621975
-0.3766999999999999,-93.55485826007487
-0.37570000000000003,-92.42308922018285
-0.3746999999999999,-91.29132018029082
-0.37370000000000003,-90.24443381839069
-0.3726999999999999,-89.11266477849867
-0.37170000000000003,-88.02333707760259
-0.3706999999999999,-86.97645071570246
-0.36970000000000003,-85.92956435380233
-0.3686999999999999,-84.84023665290624
-0.3677,-83.75090895201016
-0.3666999999999999,-82.70402259011003
-0.3657,-81.61469488921396
-0.3646999999999999,-80.56780852731384
-0.3637,-79.47848082641775
-0.3626999999999999,-78.43159446451764
-0.3617,-77.34226676362155
-0.36070000000000013,-76.29538040172143
-0.3597,-75.19190558782671
-0.35870000000000013,-74.14501922592657
-0.3577,-73.09813286402644
-0.35670000000000013,-72.15027629311687
-0.3557,-71.1458312702127
-0.3547000000000001,-70.18382758630447
-0.3537,-69.22182390239624
-0.3527000000000001,-68.25982021848802
-0.3517,-67.25537519558385
-0.3507000000000001,-66.29337151167562
-0.3497,-65.34551494076604
-0.3487000000000001,-64.42595259585376
-0.3477,-63.46394891194555
-0.3467000000000001,-62.58682790602922
-0.3457,-61.72385401311155
-0.3447000000000001,-60.84673300719523
-0.3437,-60.02620045327351
-0.3427000000000001,-59.10663810836124
-0.3417,-58.22951710244491
-0.3407000000000001,-57.408984548523186
-0.3397,-56.57430488160282
-0.3387000000000001,-55.7820665536784
-0.3377,-54.961533999756675
-0.3367000000000001,-54.2117370108282
-0.3357,-53.518528473894335
-0.3347000000000001,-52.78287859796452
-0.3337,-52.075522948032
-0.3327000000000001,-51.38231441109813
-0.3317,-50.64666453516831
-0.3307000000000001,-49.939308885235796
-0.3297,-49.20365900930597
-0.3287000000000001,-48.55289181136806
-0.3277,-47.8879775004315
-0.3267000000000001,-47.27965164148953
-0.3257,-46.67132578254756
-0.3247000000000001,-46.062999923605595
-0.3237,-45.45467406466363
-0.3227000000000001,-44.84634820572166
-0.3217,-44.181433894785094
-0.3207000000000001,-43.53066669684718
-0.3197,-42.92234083790521
-0.3187000000000001,-42.2715736399673
-0.3177,-41.606659329030734
-0.3167000000000001,-40.99833347008877
-0.3157,-40.3900076111468
-0.3147000000000001,-39.82412309120078
-0.3137,-39.258238571254765
-0.3127000000000001,-38.6499127123128
-0.3117,-38.04158685337084
-0.3107000000000001,-37.376672542434264
-0.3097,-36.64102266650445
-0.3087000000000001,-35.94781412957058
-0.3077,-35.240458479638065
-0.3067000000000001,-34.632132620696105
-0.30569999999999997,-33.93892408376223
-0.3047000000000001,-33.288156885824314
-0.30369999999999997,-32.66568391388369
-0.3027000000000001,-32.05735805494172
-0.30169999999999997,-31.449032195999767
-0.3007000000000001,-30.88314767605375
-0.29969999999999997,-30.317263156107735
-0.2987000000000001,-29.708937297165768
-0.29769999999999996,-29.100611438223805
-0.2967000000000001,-28.478138466283188
-0.29569999999999996,-27.869812607341224
-0.2947000000000001,-27.261486748399253
-0.29369999999999996,-26.69560222845324
-0.29270000000000007,-26.129717708507226
-0.29169999999999996,-25.563833188561212
-0.29070000000000007,-25.04039000761115
-0.28969999999999996,-24.474505487665134
-0.28870000000000007,-23.908620967719123
-0.28769999999999996,-23.342736447773106
-0.28670000000000007,-22.776851927827092
-0.28569999999999995,-22.253408746877028
-0.28470000000000006,-21.729965565926964
-0.28369999999999995,-21.2065223849769
-0.28270000000000006,-20.76796188201874
-0.28169999999999995,-20.202077362072725
-0.28070000000000006,-19.763516859114564
-0.27969999999999995,-19.2400736781645
-0.27870000000000006,-18.716630497214435
-0.27769999999999995,-18.27806999425627
-0.27670000000000006,-17.839509491298113
-0.27569999999999995,-17.358507649344002
-0.27470000000000006,-16.919947146385837
-0.27369999999999994,-16.53797509542228
-0.27270000000000005,-16.099414592464115
-0.27169999999999994,-15.618412750510005
-0.27070000000000005,-15.179852247551842
-0.26969999999999994,-14.783733083589633
-0.26870000000000005,-14.345172580631472
-0.26769999999999994,-13.916515056772363
