Potential V vs RHE, Current mA cm-2
0.013299999999999867,13.391657164522437
0.012299999999999978,11.941578082160774
0.011299999999999866,10.709364539978326
0.010299999999999976,9.607304437383464
0.009299999999999864,8.588712301480637
0.008299999999999974,7.663491111368903
0.007299999999999862,6.817493754049612
0.006299999999999972,6.060623208621817
0.00529999999999986,5.329217466591594
0.0042999999999999705,4.6020558584609645
0.0032999999999998586,3.906017898927366
0.0022999999999999687,3.2665683913883696
0.0012999999999998568,2.6766337793446495
0.00029999999999996696,2.1065051254990395
-0.000700000000000145,1.5278882038542394
-0.0017000000000000348,0.9652575198979146
-0.0027000000000001467,0.45327350047675774
-0.0037000000000000366,-0.03597610835556788
-0.0047000000000001485,-0.5142475575009409
-0.005700000000000038,-1.007274445503906
-0.00670000000000015,-1.4769585970590984
-0.00770000000000004,-1.9013719870186092
-0.008700000000000152,-2.30880884137974
-0.009700000000000042,-2.719075118340601
-0.010700000000000154,-3.150562064799437
-0.011700000000000044,-3.559413630460432
-0.012700000000000156,-3.934312124924667
-0.013700000000000045,-4.276672259492005
-0.014700000000000157,-4.630350084458265
-0.015700000000000047,-4.991101465923849
-0.01670000000000016,-5.358926403888759
-0.01770000000000005,-5.688554136757313
-0.01870000000000016,-5.97998466452951
-0.01970000000000005,-6.292635861799683
-0.020700000000000163,-6.619434172068506
-0.021700000000000053,-6.944817771037465
-0.022700000000000164,-7.251810123108179
-0.023700000000000054,-7.503628734484154
-0.024700000000000166,-7.771009170158646
-0.025700000000000056,-8.063854409230709
-0.026700000000000168,-8.349626091803447
-0.027700000000000058,-8.618421238777803
-0.02870000000000017,-8.868825138853914
-0.02970000000000006,-9.110740771130837
-0.03070000000000017,-9.375291784205599
-0.03170000000000006,-9.628525106881439
-0.03270000000000017,-9.869026027858496
-0.03370000000000006,-10.102453392336226
-0.034700000000000175,-10.331636622914363
-0.035700000000000065,-10.5891140794898
-0.03670000000000018,-10.845176824765371
-0.03770000000000007,-11.081433611842833
-0.03870000000000018,-11.310616842420966
-0.03970000000000007,-11.490285177503829
-0.04070000000000018,-11.703906583783448
-0.04170000000000007,-11.944407504760505
-0.04270000000000018,-12.155199488440394
-0.04370000000000007,-12.363162049520556
-0.044700000000000184,-12.551318652402605
-0.045700000000000074,-12.742304677884386
-0.046700000000000186,-12.975732042362116
-0.047700000000000076,-13.172376913043358
-0.04870000000000019,-13.353459959426083
-0.04970000000000008,-13.531713583209076
-0.05070000000000019,-13.755237968587751
-0.05170000000000008,-13.992909466965077
-0.05270000000000019,-14.217848563643619
-0.05370000000000008,-14.387613919627421
-0.05470000000000019,-14.543232162612577
-0.05570000000000008,-14.727144631595033
-0.056700000000000195,-14.939351326574789
-0.057700000000000085,-15.137410908555893
-0.058700000000000196,-15.307176264539699
-0.059700000000000086,-15.4769416205235
-0.0607000000000002,-15.689148315503255
-0.06170000000000009,-15.901355010483012
-0.0627000000000002,-16.085267479465468
-0.06370000000000009,-16.24088572245062
-0.0647000000000002,-16.396503965435777
-0.06570000000000009,-16.59456354741688
-0.0667000000000002,-16.806770242396635
-0.0677000000000001,-16.99068271137909
-0.0687000000000002,-17.132153841365596
-0.0697000000000001,-17.2736249713521
-0.07070000000000021,-17.471684553333205
-0.0717000000000001,-17.669744135314307
-0.07270000000000021,-17.825362378299463
-0.0737000000000001,-17.966833508285966
-0.07470000000000021,-18.15074597726842
-0.0757000000000001,-18.348805559249524
-0.07670000000000021,-18.561012254229283
-0.0777000000000001,-18.744924723211735
-0.07870000000000021,-18.88639585319824
-0.0797000000000001,-19.027866983184744
-0.08070000000000022,-19.22592656516585
-0.0817000000000001,-19.395691921149652
-0.08270000000000022,-19.551310164134804
-0.08370000000000011,-19.69278129412131
-0.08470000000000022,-19.834252424107817
-0.08570000000000011,-20.00401778009162
-0.08670000000000022,-20.187930249074075
-0.08770000000000011,-20.38598983105518
-0.08870000000000022,-20.52746096104168
-0.08970000000000011,-20.683079204026836
-0.09070000000000022,-20.86699167300929
-0.09170000000000011,-21.022609915994444
-0.09270000000000023,-21.16408104598095
-0.09370000000000012,-21.291405062968803
-0.09470000000000023,-21.461170418952605
-0.09570000000000012,-21.63093577493641
-0.09670000000000023,-21.814848243918867
-0.09770000000000012,-21.97046648690402
-0.09870000000000023,-22.111937616890522
-0.09970000000000012,-22.281702972874328
-0.10070000000000023,-22.437321215859484
-0.10170000000000012,-22.66367502383789
-0.10270000000000024,-22.80514615382439
-0.10370000000000013,-22.91832305781359
-0.10470000000000024,-23.073941300798747
-0.10570000000000013,-23.257853769781203
-0.10670000000000024,-23.44176623876366
-0.10770000000000013,-23.61153159474746
-0.10870000000000024,-23.753002724733967
-0.10970000000000013,-23.908620967719123
-0.11070000000000024,-24.078386323702922
-0.11170000000000013,-24.20571034069078
-0.11270000000000002,-24.34718147067728
-0.11370000000000013,-24.474505487665134
-0.11470000000000002,-24.64427084364894
-0.11570000000000014,-24.856477538628695
-0.11670000000000003,-25.026242894612498
-0.11770000000000014,-25.196008250596304
-0.11870000000000003,-25.323332267584156
-0.11970000000000014,-25.478950510569312
-0.12070000000000003,-25.60627452755716
-0.12170000000000014,-25.81848122253692
-0.12270000000000003,-25.988246578520723
-0.12370000000000014,-26.129717708507226
-0.12470000000000003,-26.313630177489685
-0.12570000000000014,-26.511689759470787
-0.12670000000000003,-26.681455115454593
-0.12770000000000015,-26.837073358439746
-0.12870000000000004,-26.97854448842625
-0.12970000000000015,-27.120015618412754
-0.13070000000000004,-27.233192522401957
-0.13170000000000015,-27.38881076538711
-0.13270000000000004,-27.58687034736821
-0.13370000000000015,-27.770782816350668
-0.13470000000000004,-27.997136624329073
-0.13570000000000015,-28.19519620631018
-0.13670000000000004,-28.393255788291288
-0.13770000000000016,-28.577168257273744
-0.13870000000000005,-28.718639387260247
-0.13970000000000016,-28.831816291249446
-0.14070000000000005,-29.058170099227848
-0.14170000000000016,-29.34111235920086
-0.14270000000000005,-29.510877715184666
-0.14370000000000016,-29.652348845171172
-0.14470000000000005,-29.836261314153624
-0.14570000000000016,-30.00602667013743
-0.14670000000000005,-30.204086252118536
-0.14770000000000016,-30.416292947098288
-0.14870000000000005,-30.614352529079397
-0.14970000000000017,-30.7841178850632
-0.15070000000000006,-30.99632458004295
-0.15170000000000017,-31.19438416202406
-0.15270000000000006,-31.392443744005163
-0.15370000000000017,-31.57635621298762
-0.15470000000000006,-31.83100424696332
-0.15570000000000017,-32.09979939393769
-0.15670000000000006,-32.32615320191609
-0.15770000000000017,-32.51006567089854
-0.15870000000000006,-32.67983102688235
-0.15970000000000018,-32.87789060886345
-0.16070000000000007,-33.14668575583781
-0.16170000000000018,-33.41548090281216
-0.16270000000000007,-33.64183471079057
-0.16370000000000018,-33.85404140577033
-0.16470000000000007,-34.06624810075008
-0.16570000000000018,-34.26430768273119
-0.16670000000000007,-34.5472499427042
-0.16770000000000018,-34.75945663768395
-0.16870000000000007,-34.9150748806691
-0.16970000000000018,-35.15557580164616
-0.17070000000000007,-35.41022383562187
-0.17170000000000019,-35.664871869597576
-0.17270000000000008,-35.90537279057463
-0.1737000000000002,-36.13172659855304
-0.17470000000000008,-36.38637463252874
-0.1757000000000002,-36.5985813275085
-0.17670000000000008,-36.86737647448285
-0.1777000000000002,-37.164465847454515
-0.17870000000000008,-37.41911388143023
-0.1797000000000002,-37.58887923741403
-0.18070000000000008,-37.77279170639648
-0.1817000000000002,-38.154763757360044
-0.18270000000000008,-38.3669704523398
-0.1837000000000002,-38.55088292132225
-0.1847000000000001,-38.74894250330336
-0.1857000000000002,-39.00359053727906
-0.1867000000000001,-39.314827023249364
-0.1877000000000002,-39.59776928322238
-0.1887000000000001,-39.83827020419943
-0.1897000000000002,-40.05047689917919
-0.1907000000000001,-40.33341915915219
-0.1917000000000001,-40.6729498711198
-0.19269999999999998,-40.98418635709011
-0.1937000000000001,-41.210540165068515
-0.19469999999999998,-41.45104108604558
-0.1957000000000001,-41.74813045901723
-0.19669999999999999,-42.04521983198889
-0.1977000000000001,-42.34230920496055
-0.1987,-42.59695723893625
-0.1997000000000001,-42.80916393391601
-0.2007,-43.09210619388902
-0.2017000000000001,-43.45993113185393
-0.2027,-43.74287339182693
-0.2037000000000001,-44.03996276479859
-0.2047,-44.4077877027635
-0.2057000000000001,-44.76146552772976
-0.2067,-45.086849126698716
-0.2077000000000001,-45.39808561266902
-0.2087,-45.73761632463664
-0.2097000000000001,-46.119588375600195
-0.2107,-46.37423640957591
-0.2117000000000001,-46.68547289554621
-0.2127,-46.91182670352462
-0.2137000000000001,-47.180621850498966
-0.2147,-47.506005449467935
-0.2157000000000001,-47.83138904843689
-0.2167,-48.18506687340315
-0.21770000000000012,-48.51045047237211
-0.2187,-48.79339273234511
-0.21970000000000012,-49.104629218315424
-0.2207,-49.41586570428573
-0.22170000000000012,-49.72710219025603
-0.2227,-50.038338676226346
-0.22370000000000012,-50.30713382320071
-0.2247,-50.67495876116561
-0.22570000000000012,-51.014489473133224
-0.2267,-51.29743173310623
-0.22770000000000012,-51.52378554108463
-0.22870000000000001,-51.86331625305225
-0.22970000000000013,-52.17455273902255
-0.23070000000000002,-52.514083450990164
-0.23170000000000013,-52.86776127595642
-0.23270000000000002,-53.20729198792403
-0.23370000000000013,-53.476087134898386
-0.23470000000000002,-53.7873236208687
-0.23570000000000013,-54.1551485588336
-0.23670000000000002,-54.480532157802564
-0.2376999999999999,-54.791768643772876
-0.23870000000000002,-55.17374069473642
-0.2396999999999999,-55.49912429370539
-0.24070000000000003,-55.838655005673
-0.24169999999999991,-56.13574437864466
-0.24270000000000003,-56.41868663861767
-0.24369999999999992,-56.67333467259337
-0.24470000000000003,-56.97042404556503
-0.24569999999999992,-57.352396096528594
-0.24670000000000003,-57.76266237348945
-0.24769999999999992,-58.13048731145436
-0.24870000000000003,-58.47001802342197
-0.24969999999999992,-58.79540162239092
-0.25070000000000003,-59.16322656035583
-0.2516999999999999,-59.54519861131939
-0.25270000000000004,-59.842287984291055
-0.2536999999999999,-60.18181869625866
-0.25470000000000004,-60.62037919921682
-0.2556999999999999,-61.00235125018038
-0.25670000000000004,-61.37017618814529
-0.25769999999999993,-61.6531184481183
-0.25870000000000004,-62.04923761208051
-0.25969999999999993,-62.38876832404812
-0.26070000000000004,-62.71415192301708
-0.26169999999999993,-63.02538840898739
-0.26270000000000004,-63.40736045995095
-0.26369999999999993,-63.860068075907755
-0.26470000000000005,-64.213745900874
-0.26569999999999994,-64.53912949984297
-0.26670000000000005,-64.92110155080654
-0.26769999999999994,-65.33136782776738
-0.26870000000000005,-65.64260431373769
-0.26969999999999994,-65.86895812171612
-0.27070000000000005,-66.19434172068507
-0.27169999999999994,-66.66119644964053
-0.27270000000000005,-66.98658004860948
-0.27369999999999994,-67.2695223085825
-0.27470000000000006,-67.56661168155415
-0.27569999999999995,-67.9202895065204
-0.27670000000000006,-68.34470289647993
-0.27769999999999995,-68.69838072144618
-0.27870000000000006,-69.0096172074165
-0.27969999999999995,-69.39158925838004
-0.28070000000000006,-69.75941419634496
-0.28169999999999995,-70.02820934331933
-0.28270000000000006,-70.31115160329232
-0.28369999999999995,-70.63653520226127
-0.28470000000000006,-70.94777168823158
-0.28569999999999995,-71.28730240019921
-0.28670000000000007,-71.78245135515196
-0.28769999999999996,-72.16442340611552
-0.28870000000000007,-72.43321855308989
-0.28969999999999996,-72.73030792606153
-0.29070000000000007,-73.08398575102778
-0.29169999999999996,-73.49425202798865
-0.29270000000000007,-73.90451830494952
-0.29369999999999996,-74.22990190391847
-0.2947000000000001,-74.59772684188339
-0.29569999999999996,-74.9938460058456
-0.2967000000000001,-75.36167094381051
-0.29769999999999996,-75.60217186478755
-0.2987000000000001,-75.82852567276596
-0.29969999999999997,-76.02658525474708
-0.3007000000000001,-76.32367462771872
-0.30169999999999997,-76.74808801767824
-0.3027000000000001,-77.21494274663371
-0.30369999999999997,-77.51203211960537
-0.3047000000000001,-77.82326860557566
-0.30569999999999997,-78.13450509154598
-0.3067000000000001,-78.47403580351359
-0.3077,-78.8984491934731
-0.3087000000000001,-79.20968567944341
-0.3097,-79.53506927841237
-0.3107000000000001,-79.87459999037998
-0.3117,-80.22827781534622
-0.3127000000000001,-80.58195564031249
-0.3137,-80.86489790028548
-0.3147000000000001,-81.1478401602585
-0.3157,-81.52981221122207
-0.3167000000000001,-81.86934292318966
-0.3177,-82.15228518316268
-0.3187000000000001,-82.35034476514379
-0.3197,-82.57669857312219
-0.3207000000000001,-82.98696485008304
-0.3217,-83.41137824004257
-0.3227000000000001,-83.77920317800748
-0.3237,-84.00555698598588
-0.3247000000000001,-84.28849924595887
-0.3257,-84.57144150593189
-0.3267000000000001,-84.96756066989411
-0.3277,-85.20806159087115
-0.3287000000000001,-85.54759230283878
-0.3297,-85.87297590180773
-0.3307000000000001,-86.24080083977263
-0.3317,-86.50959598674699
-0.3327000000000001,-86.77839113372136
-0.3337,-87.06133339369435
-0.3347000000000001,-87.31598142767007
-0.3357,-87.51404100965117
-0.3367000000000001,-87.81113038262282
-0.3377,-88.13651398159179
-0.3387000000000001,-88.53263314555399
-0.3397,-88.87216385752161
-0.3407000000000001,-89.19754745649055
-0.3417,-89.48048971646357
-0.3427000000000001,-89.84831465442848
-0.3437,-90.01808001041228
-0.3447000000000001,-90.32931649638259
-0.3457,-90.73958277334346
-0.3467000000000001,-91.16399616330297
-0.3477,-91.43279131027732
-0.3487000000000001,-91.72988068324898
-0.3497,-91.94208737822873
-0.3507000000000001,-92.28161809019635
-0.3517,-92.79091415814774
-0.3527000000000001,-93.20118043510863
-0.3537,-93.52656403407757
-0.3547000000000001,-93.79535918105194
-0.3557,-94.21977257101145
-0.35670000000000013,-94.4885677179858
-0.3577,-94.70077441296557
-0.35870000000000013,-94.84224554295207
-0.3597,-95.22421759391563
-0.36070000000000013,-95.67692520987244
-0.3617,-96.22866261681979
-0.3626999999999999,-96.58234044178606
-0.3637,-96.82284136276311
-0.3646999999999999,-97.10578362273613
-0.3657,-97.60093257768887
-0.3666999999999999,-98.12437575863895
-0.3677,-98.647818939589
-0.3686999999999999,-98.95905542555931
-0.36970000000000003,-99.18540923353773
-0.3706999999999999,-99.59567551049858
-0.37170000000000003,-100.02008890045809
-0.3726999999999999,-100.43035517741896
-0.37370000000000003,-100.86891568037711
-0.3746999999999999,-101.26503484433933
-0.37570000000000003,-101.71774246029614
-0.3766999999999999,-102.09971451125969
-0.37770000000000004,-102.67974614420436
-0.3786999999999999,-103.25977777714903
-0.37970000000000004,-103.67004405410988
-0.3806999999999999,-104.19348723505995
-0.38170000000000004,-104.70278330301136
-0.38269999999999993,-105.12719669297088
-0.38370000000000004,-105.5799043089277
-0.38469999999999993,-106.24481861986426
-0.38570000000000004,-106.99461560879273
-0.38669999999999993,-106.1457888288737
-0.38570000000000004,-103.51442581112472
-0.38469999999999993,-101.18015216634743
-0.38370000000000004,-98.97320253855796
-0.38269999999999993,-97.09163650973747
-0.38170000000000004,-95.32324738490618
-0.3806999999999999,-93.49826980808028
-0.37970000000000004,-91.70158645725168
-0.3786999999999999,-89.96149155841768
-0.37770000000000004,-88.37701490256885
-0.3766999999999999,-86.84912669871461
-0.37570000000000003,-85.23635581686847
-0.3746999999999999,-83.93482142099262
-0.37370000000000003,-82.36449187814243
-0.3726999999999999,-80.82245656128954
-0.37170000000000003,-79.64824618240156
-0.3706999999999999,-78.03547530055542
-0.36970000000000003,-76.43685153170793
-0.3686999999999999,-75.03628734484154
-0.3677,-73.77719428796166
-0.3666999999999999,-72.58883679607503
-0.3657,-71.42877353018571
-0.3646999999999999,-70.24041603829907
-0.3637,-68.88229319042864
-0.3626999999999999,-67.62320013354876
-0.3617,-66.33581285067157
-0.36070000000000013,-65.06257268079304
-0.3597,-63.81762673691181
-0.35870000000000013,-62.64341635802381
-0.3577,-61.55408865712774
-0.35670000000000013,-60.43646673023436
-0.3557,-59.24810923834774
-0.3547000000000001,-58.10219308545706
-0.3537,-56.942129819567725
-0.3527000000000001,-55.79621366667705
-0.3517,-54.67859173978366
-0.3507000000000001,-53.71658805587545
-0.3497,-52.65555458097666
-0.3487000000000001,-51.55207976708194
-0.3477,-50.50519340518181
-0.3467000000000001,-49.458307043281685
-0.3457,-48.41142068138156
-0.3447000000000001,-47.350387206482786
-0.3437,-46.27520661858535
-0.3427000000000001,-45.27076159568118
-0.3417,-44.3511992507689
-0.3407000000000001,-43.44578401885527
-0.3397,-42.39889765695515
-0.3387000000000001,-41.39445263405098
-0.3377,-40.4183018371441
-0.3367000000000001,-39.56947505722508
-0.3357,-38.6216184863155
-0.3347000000000001,-37.645467689408626
-0.3337,-36.669316892501755
-0.3327000000000001,-35.806342999584075
-0.3317,-34.92922199366775
-0.3307000000000001,-34.03795387475279
-0.3297,-33.07595019084456
-0.3287000000000001,-32.19882918492823
-0.3277,-31.36414951800786
-0.3267000000000001,-30.51532273808884
-0.3257,-29.66649595816982
-0.3247000000000001,-28.789374952253496
-0.3237,-27.926401059335824
-0.3227000000000001,-27.134162731411404
-0.3217,-26.356071516485635
-0.3207000000000001,-25.57798030155986
-0.3197,-24.785741973635442
-0.3187000000000001,-23.993503645711023
-0.3177,-23.24370665678255
-0.3167000000000001,-22.508056780852733
-0.3157,-21.758259791924264
-0.3147000000000001,-20.994315689997144
-0.3137,-20.25866581406732
-0.3127000000000001,-19.636192842126707
-0.3117,-18.97127853119014
-0.3107000000000001,-18.23562865526032
-0.3097,-17.499978779330505
-0.3087000000000001,-16.820917355395284
-0.3077,-16.15600304445872
-0.3067000000000001,-15.547677185516752
-0.30569999999999997,-14.882762874580186
-0.3047000000000001,-14.217848563643619
-0.30369999999999997,-13.586887323903813
-0.3027000000000001,-12.965829063263062
-0.30169999999999997,-12.375894451219342
-0.3007000000000001,-11.774642148776701
-0.29969999999999997,-11.138022063837434
-0.2987000000000001,-10.518378514496549
-0.29769999999999996,-9.944005726751344
-0.2967000000000001,-9.380950629405058
-0.29569999999999996,-8.809407264259583
-0.2947000000000001,-8.220887363515727
-0.29369999999999996,-7.656417554869579
-0.29270000000000007,-7.103265436622349
-0.29169999999999996,-6.557186874874445
-0.29070000000000007,-6.021011292225596
-0.28969999999999996,-5.460785617479042
-0.28870000000000007,-4.9175364783308675
-0.28769999999999996,-4.41814338947851
-0.28670000000000007,-3.9300679910250715
-0.28569999999999995,-3.4108689439746036
-0.28470000000000006,-2.8860110517246746
-0.28369999999999995,-2.3753002724733965
-0.28270000000000006,-1.9013719870186092
-0.28169999999999995,-1.4288584128636872
-0.28070000000000006,-0.9451686194398311
-0.27969999999999995,-0.44549258832750005
-0.27870000000000006,0.049854426207243896
-0.27769999999999995,0.5049104629218315
-0.27670000000000006,0.9427636102300604
-0.27569999999999995,1.4053742052859275
-0.27470000000000006,1.8801513175206337
-0.27369999999999994,2.355494314275286
-0.27270000000000005,2.791225394633717
-0.27169999999999994,3.200076960294713
-0.27070000000000005,3.6499551536517942
-0.26969999999999994,4.115395171307392
-0.26870000000000005,4.569517498564068
-0.26769999999999994,4.9896867546239845
-0.26670000000000005,5.3900500524857895
-0.26569999999999994,5.80314575204638
-0.26470000000000005,6.250194522803732
