Potential V vs RHE, Current mA cm-2
0.013299999999999867,14.925204213576137
0.012299999999999978,13.432683792218524
0.011299999999999866,11.868013094567791
0.010299999999999976,10.22128914152489
0.009299999999999864,8.922584168248786
0.008299999999999974,7.703103027765124
0.007299999999999862,6.240291543704677
0.006299999999999972,5.0335428049198
0.00529999999999986,4.034756627215084
0.0042999999999999705,2.767175302536012
0.0032999999999998586,1.5590118524512704
0.0022999999999999687,0.6633581285067156
0.0012999999999998568,-0.38918707859287155
0.00029999999999996696,-1.5788178106493809
-0.000700000000000145,-2.4559388165657037
-0.0017000000000000348,-3.3047655964847262
-0.0027000000000001467,-4.411069832979184
-0.0037000000000000366,-5.329217466591594
-0.0047000000000001485,-6.045061384323302
-0.005700000000000038,-7.019797469930312
-0.00670000000000015,-7.983215865138402
-0.00770000000000004,-8.629738929176723
-0.008700000000000152,-9.44885677179858
-0.009700000000000042,-10.427836991305185
-0.010700000000000154,-11.113971971739728
-0.011700000000000044,-11.784545127875756
-0.012700000000000156,-12.71825458578668
-0.013700000000000045,-13.458148595616095
-0.014700000000000157,-14.01271542516319
-0.015700000000000047,-14.826174422585586
-0.01670000000000016,-15.632559863508657
-0.01770000000000005,-16.15600304445872
-0.01870000000000016,-16.820917355395284
-0.01970000000000005,-17.655597022315657
-0.020700000000000163,-18.221481542261674
-0.021700000000000053,-18.759071836210385
-0.022700000000000164,-19.593751503130758
-0.023700000000000054,-20.21622447507137
-0.024700000000000166,-20.668932091028186
-0.025700000000000056,-21.404581966958006
-0.026700000000000168,-22.111937616890522
-0.027700000000000058,-22.550498119848687
-0.02870000000000017,-23.15882397879065
-0.02970000000000006,-23.92276808071777
-0.03070000000000017,-24.389622809673234
-0.03170000000000006,-24.884771764625995
-0.03270000000000017,-25.620421640555815
-0.03370000000000006,-26.15801193450453
-0.034700000000000175,-26.525836872469437
-0.035700000000000065,-27.190751183406004
-0.03670000000000018,-27.841518381343924
-0.03770000000000007,-28.18104909331153
-0.03870000000000018,-28.704492274261593
-0.03970000000000007,-29.39770081119546
-0.04070000000000018,-29.793819975157668
-0.04170000000000007,-30.21823336511718
-0.04270000000000018,-30.91144190205105
-0.04370000000000007,-31.37829663100651
-0.044700000000000184,-31.703680229975475
-0.045700000000000074,-32.354447427913385
-0.046700000000000186,-32.96277328685535
-0.047700000000000076,-33.25986265982701
-0.04870000000000019,-33.755011614779775
-0.04970000000000008,-34.41992592571634
-0.05070000000000019,-34.787750863681254
-0.05170000000000008,-35.198017140642115
-0.05270000000000019,-35.862931451578675
-0.05370000000000008,-36.3439332935328
-0.05470000000000019,-36.64102266650445
-0.05570000000000008,-37.206907186450465
-0.056700000000000195,-37.81523304539243
-0.057700000000000085,-38.12646953136274
-0.058700000000000196,-38.57917714731955
-0.059700000000000086,-39.21579723225882
-0.0607000000000002,-39.58362217022373
-0.06170000000000009,-39.96559422118728
-0.0627000000000002,-40.5880671931279
-0.06370000000000009,-41.04077480908471
-0.0647000000000002,-41.33786418205637
-0.06570000000000009,-41.91789581500104
-0.0667000000000002,-42.4696332219484
-0.0677000000000001,-42.752575481921404
-0.0687000000000002,-43.24772443687417
-0.0697000000000001,-43.89849163481209
-0.07070000000000021,-44.25216945977835
-0.0717000000000001,-44.605847284744605
-0.07270000000000021,-45.28490870867982
-0.0737000000000001,-45.73761632463664
-0.07470000000000021,-45.99226435861234
-0.0757000000000001,-46.544001765559706
-0.07670000000000021,-47.067444946509774
-0.0777000000000001,-47.33624009348412
-0.07870000000000021,-47.84553616143554
-0.0797000000000001,-48.49630335937346
-0.08070000000000022,-48.80753984534376
-0.0817000000000001,-49.104629218315424
-0.08270000000000022,-49.74124930325469
-0.08370000000000011,-50.1939569192115
-0.08470000000000022,-50.43445784018856
-0.08570000000000011,-51.000342360134574
-0.08670000000000022,-51.53793265408329
-0.08770000000000011,-51.80672780105764
-0.08870000000000022,-52.2735825300131
-0.08970000000000011,-52.896055501953725
-0.09070000000000022,-53.20729198792403
-0.09170000000000011,-53.546822699891635
-0.09270000000000023,-54.18344278483091
-0.09370000000000012,-54.63615040078772
-0.09470000000000023,-54.890798434763425
-0.09570000000000012,-55.442535841710786
-0.09670000000000023,-56.022567474655446
-0.09770000000000012,-56.22062705663656
-0.09870000000000023,-56.57430488160282
-0.09970000000000012,-57.15433651454749
-0.10070000000000023,-57.45142588751914
-0.10170000000000012,-57.76266237348945
-0.10270000000000024,-58.427576684426015
-0.10370000000000013,-58.85199007438552
-0.10470000000000024,-59.13493233435853
-0.10570000000000013,-59.7432581933005
-0.10670000000000024,-60.28084848724921
-0.10770000000000013,-60.50720229522762
-0.10870000000000024,-60.974057024183075
-0.10970000000000013,-61.5682357701264
-0.11070000000000024,-61.907766482094
-0.11170000000000013,-62.21900296806431
-0.11270000000000002,-62.855623053003576
-0.11370000000000013,-63.350772007956344
-0.11470000000000002,-63.60542004193205
-0.11570000000000014,-64.11471610988345
-0.11670000000000003,-64.62401217783489
-0.11770000000000014,-64.86451309881193
-0.11870000000000003,-65.2747793757728
-0.11970000000000014,-65.82651678272015
-0.12070000000000003,-66.02457636470128
-0.12170000000000014,-66.32166573767293
-0.12270000000000003,-67.04316850060408
-0.12370000000000014,-67.48172900356225
-0.12470000000000003,-67.70808281154066
-0.12570000000000014,-68.28811444448532
-0.12670000000000003,-68.8115576254354
-0.12770000000000015,-68.93888164242324
-0.12870000000000004,-69.33500080638545
-0.12970000000000015,-69.9433266653274
-0.13070000000000004,-70.19797469930313
-0.13170000000000015,-70.52335829827209
-0.13270000000000004,-71.13168415721405
-0.13370000000000015,-71.52780332117625
-0.13470000000000004,-71.76830424215332
-0.13570000000000015,-72.19271763211282
-0.13670000000000004,-72.67371947406694
-0.13770000000000016,-72.95666173403994
-0.13870000000000005,-73.38107512399945
-0.13970000000000016,-74.07428366093333
-0.14070000000000005,-74.42796148589959
-0.14170000000000016,-74.62602106788069
-0.14270000000000005,-75.1070229098348
-0.14370000000000016,-75.53143629979431
-0.14470000000000005,-75.74364299477406
-0.14570000000000016,-76.23879194972683
-0.14670000000000005,-76.7339409046796
-0.14770000000000016,-77.00273605165394
-0.14870000000000005,-77.42714944161345
-0.14970000000000017,-78.06376952655272
-0.15070000000000006,-78.44574157751629
-0.15170000000000017,-78.79941940248254
-0.15270000000000006,-79.36530392242857
-0.15370000000000017,-79.73312886039348
-0.15470000000000006,-79.98777689436918
-0.15570000000000017,-80.53951430131653
-0.15670000000000006,-81.13369304725985
-0.15770000000000017,-81.36004685523827
-0.15870000000000006,-81.69957756720586
-0.15970000000000018,-82.20887363515729
-0.16070000000000007,-82.49181589513029
-0.16170000000000018,-82.71816970310869
-0.16270000000000007,-83.15673020606685
-0.16370000000000018,-83.51040803103311
-0.16470000000000007,-83.69432050001558
-0.16570000000000018,-84.21776368096563
-0.16670000000000007,-84.769501087913
-0.16770000000000018,-85.06659046088465
-0.16870000000000007,-85.53344518984011
-0.16970000000000018,-86.22665372677399
-0.17070000000000007,-86.59447866473889
-0.17170000000000019,-86.97645071570246
-0.17270000000000008,-87.65551213963768
-0.1737000000000002,-88.07992552959718
-0.17470000000000008,-88.3345735635729
-0.1757000000000002,-88.9287523095162
-0.17670000000000008,-89.57951950745412
-0.1777000000000002,-89.94734444541903
-0.17870000000000008,-90.30102227038529
-0.1797000000000002,-90.81031833833671
-0.18070000000000008,-91.05081925931376
-0.1817000000000002,-91.33376151928677
-0.18270000000000008,-91.94208737822873
-0.1837000000000002,-92.39479499418556
-0.1847000000000001,-92.67773725415857
-0.1857000000000002,-93.20118043510863
-0.1867000000000001,-93.69632939006138
-0.1877000000000002,-93.92268319803979
-0.1887000000000001,-94.3753908139966
-0.1897000000000002,-94.94127533394261
-0.1907000000000001,-95.19592336791831
-0.1917000000000001,-95.52130696688728
-0.19269999999999998,-96.22866261681979
-0.1937000000000001,-96.65307600677932
-0.19469999999999998,-96.82284136276311
-0.1957000000000001,-97.38872588270912
-0.19669999999999999,-97.92631617665783
-0.1977000000000001,-98.18096421063355
-0.1987,-98.647818939589
-0.1997000000000001,-99.29858613752693
-0.2007,-99.70885241448778
-0.2017000000000001,-100.20400136944055
-0.2027,-100.89720990637443
-0.2037000000000001,-101.34991752233122
-0.2047,-101.66115400830152
-0.2057000000000001,-102.21289141524889
-0.2067,-102.72218748320032
-0.2077000000000001,-103.01927685617197
-0.2087,-103.47198447212878
-0.2097000000000001,-103.99542765307885
-0.2107,-104.26422280005319
-0.2117000000000001,-104.57545928602352
-0.2127,-105.24037359696008
-0.2137000000000001,-105.7779638909088
-0.2147,-106.11749460287639
-0.2157000000000001,-106.68337912282242
-0.2167,-107.16438096477653
-0.21770000000000012,-107.51805878974278
-0.2187,-108.0839433096888
-0.21970000000000012,-108.69226916863077
-0.2207,-109.01765276759973
-0.22170000000000012,-109.4845074965552
-0.2227,-110.22015737248502
-0.22370000000000012,-110.71530632743777
-0.2247,-110.98410147441213
-0.22570000000000012,-111.60657444635275
-0.2267,-112.22904741829338
-0.22770000000000012,-112.55443101726232
-0.22870000000000001,-112.92225595522721
-0.22970000000000013,-113.48814047517324
-0.23070000000000002,-113.89840675213411
-0.23170000000000013,-114.2945259160963
-0.23270000000000002,-114.94529311403423
-0.23370000000000013,-115.4121478429897
-0.23470000000000002,-115.77997278095461
-0.23570000000000013,-116.40244575289522
-0.23670000000000002,-117.01077161183719
-0.2376999999999999,-117.3785965498021
-0.23870000000000002,-117.94448106974811
-0.2396999999999999,-118.69427805867657
-0.24070000000000003,-119.13283856163473
-0.24169999999999991,-119.47236927360234
-0.24270000000000003,-120.17972492353488
-0.24369999999999992,-120.68902099148629
-0.24470000000000003,-120.95781613846064
-0.24569999999999992,-121.45296509341341
-0.24670000000000003,-122.0471438393567
-0.24769999999999992,-122.35838032532703
-0.24870000000000003,-122.83938216728113
-0.24969999999999992,-123.3062368962366
-0.25070000000000003,-123.815532964188
-0.2516999999999999,-124.38141748413402
-0.25270000000000004,-125.10292024706521
-0.2536999999999999,-125.59806920201797
-0.25470000000000004,-126.09321815697072
-0.2556999999999999,-126.9561920498884
-0.25670000000000004,-127.72013615181551
-0.25769999999999993,-128.1304024287764
-0.25870000000000004,-128.65384560972643
-0.25969999999999993,-129.4319368246522
-0.26070000000000004,-129.89879155360765
-0.26169999999999993,-130.210028039578
-0.26270000000000004,-130.84664812451723
-0.26369999999999993,-131.37009130546733
-0.26470000000000005,-131.70962201743492
-0.26569999999999994,-132.36038921537283
-0.26670000000000005,-132.98286218731346
-0.26769999999999994,-133.32239289928106
-0.26870000000000005,-133.8741303062284
-0.26969999999999994,-134.6522215211542
-0.27070000000000005,-135.11907625010966
-0.27169999999999994,-135.60007809206377
-0.27270000000000005,-136.27913951599896
-0.27369999999999994,-136.83087692294635
-0.27470000000000006,-137.2128489739099
-0.27569999999999995,-137.976793075837
-0.27670000000000006,-138.81147274275742
-0.27769999999999995,-139.19344479372097
-0.27870000000000006,-139.78762353966425
-0.27969999999999995,-140.65059743258192
-0.28070000000000006,-141.1174521615374
-0.28169999999999995,-141.61260111649017
-0.28270000000000006,-142.4614278964092
-0.28369999999999995,-143.16878354634173
-0.28470000000000006,-143.5931969363012
-0.28569999999999995,-144.30055258623375
-0.28670000000000007,-145.00790823616626
-0.28769999999999996,-145.43232162612577
-0.28870000000000007,-145.9982061460718
-0.28969999999999996,-146.8470329259908
-0.29070000000000007,-147.27144631595033
-0.29169999999999996,-147.6958597059098
-0.29270000000000007,-148.54468648582886
-0.29369999999999996,-149.1105710057749
-0.2947000000000001,-149.6764555257209
-0.29569999999999996,-150.38381117565342
-0.2967000000000001,-151.09116682558593
-0.29769999999999996,-151.5155802155454
-0.2987000000000001,-152.22293586547795
-0.29969999999999997,-153.07176264539694
-0.3007000000000001,-153.63764716534297
-0.30169999999999997,-154.0620605553025
-0.3027000000000001,-154.9108873352215
-0.30369999999999997,-155.47677185516753
-0.3047000000000001,-155.90118524512707
-0.30569999999999997,-156.46706976507306
-0.3067000000000001,-157.17442541500557
-0.3077,-157.59883880496508
-0.3087000000000001,-158.3061944548976
-0.3097,-159.01355010483013
-0.3107000000000001,-159.72090575476264
-0.3117,-160.5697325346817
-0.3127000000000001,-161.1356170546277
-0.3137,-161.41855931460069
-0.3147000000000001,-161.70150157457368
-0.3157,-162.40885722450622
-0.3167000000000001,-163.11621287443873
-0.3177,-163.39915513441173
-0.3187000000000001,-164.10651078434424
-0.3197,-164.9553375642633
-0.3207000000000001,-165.5212220842093
-0.3217,-166.0871066041553
-0.3227000000000001,-166.93593338407433
-0.3237,-167.6432890340068
-0.3247000000000001,-168.20917355395284
-0.3257,-168.91652920388537
-0.3267000000000001,-169.7653559838044
-0.3277,-170.33124050375042
-0.3287000000000001,-171.03859615368293
-0.3297,-171.74595180361547
-0.3307000000000001,-172.0288940635885
-0.3317,-172.87772084350746
-0.3327000000000001,-173.72654762342648
-0.3337,-173.72654762342648
-0.3347000000000001,-174.150961013386
-0.3357,-175.28273005327804
-0.3367000000000001,-175.84861457322407
-0.3377,-175.99008570321055
-0.3387000000000001,-176.55597022315658
-0.3397,-177.4047970030756
-0.3407000000000001,-177.82921039303508
-0.3417,-178.25362378299462
-0.3427000000000001,-179.10245056291362
-0.3437,-179.80980621284618
-0.3447000000000001,-180.37569073279218
-0.3457,-181.36598864269772
-0.3467000000000001,-182.21481542261674
-0.3477,-182.63922881257625
-0.3487000000000001,-183.20511333252225
-0.3497,-184.19541124242778
-0.3507000000000001,-184.9027668923603
-0.3517,-185.1857091523333
-0.3527000000000001,-185.89306480226583
-0.3537,-186.31747819222534
-0.3547000000000001,-186.88336271217133
-0.3557,-187.59071836210387
-0.35670000000000013,-188.15660288204987
-0.3577,-188.58101627200938
-0.35870000000000013,-189.42984305192843
-0.3597,-190.42014096183394
-0.36070000000000013,-190.98602548177996
-0.3617,-191.551910001726
-0.3626999999999999,-192.54220791163152
-0.3637,-193.249563561564
-0.3646999999999999,-193.9569192114965
-0.3657,-194.80574599141553
-0.3666999999999999,-195.65457277133459
-0.3677,-196.0789861612941
-0.3686999999999999,-196.6448706812401
-0.36970000000000003,-197.63516859114563
-0.3706999999999999,-198.20105311109162
-0.37170000000000003,-198.48399537106465
-0.3726999999999999,-199.04987989101065
-0.37370000000000003,-199.61576441095667
-0.3746999999999999,-199.89870667092967
-0.37570000000000003,-200.4645911908757
-0.3766999999999999,-201.03047571082172
-0.37770000000000004,-201.31341797079472
-0.3786999999999999,-202.02077362072723
-0.37970000000000004,-202.86960040064628
-0.3806999999999999,-203.15254266061928
-0.38170000000000004,-203.57695605057876
-0.38269999999999993,-204.2843117005113
-0.38370000000000004,-204.8501962204573
-0.38469999999999993,-205.27460961041683
-0.38570000000000004,-205.84049413036286
-0.38669999999999993,-204.8501962204573
-0.38570000000000004,-201.87930249074074
-0.38469999999999993,-199.04987989101065
-0.38370000000000004,-196.3619284212671
-0.38269999999999993,-193.6739769515235
-0.38170000000000004,-190.84455435179345
-0.3806999999999999,-188.4395451420229
-0.37970000000000004,-185.89306480226583
-0.3786999999999999,-183.20511333252225
-0.37770000000000004,-180.94157525273818
-0.3766999999999999,-178.67803717295413
-0.37570000000000003,-176.13155683319707
-0.3746999999999999,-173.72654762342648
-0.37370000000000003,-171.60448067362896
-0.3726999999999999,-169.0580003338719
-0.37170000000000003,-166.65299112410133
-0.3706999999999999,-164.67239530429026
-0.36970000000000003,-162.2673860945197
-0.3686999999999999,-159.57943462477613
-0.3677,-157.45736767497857
-0.3666999999999999,-155.47677185516753
-0.3657,-153.07176264539694
-0.3646999999999999,-150.5252823056399
-0.3637,-148.54468648582886
-0.3626999999999999,-146.28114840604482
-0.3617,-144.15908145624724
-0.36070000000000013,-142.17848563643616
-0.3597,-139.9290946696508
-0.35870000000000013,-137.6089681378721
-0.3577,-135.71325499605297
-0.35670000000000013,-133.88827741922708
-0.3557,-131.66718067843897
-0.3547000000000001,-129.6299964066333
-0.3537,-127.81916594280607
-0.3527000000000001,-125.86686434899234
-0.3517,-123.78723873819072
-0.3507000000000001,-121.91981982236886
-0.3497,-119.95337111555646
-0.3487000000000001,-117.76056860076565
-0.3477,-115.90729679794246
-0.3467000000000001,-114.08231922111656
-0.3457,-111.96025227131899
-0.3447000000000001,-110.0786862424985
-0.3437,-108.40932690865776
-0.3427000000000001,-106.38628974985076
-0.3417,-104.4056939300397
-0.3407000000000001,-102.77877593519491
-0.3397,-100.93965124537037
-0.3387000000000001,-98.94490831256067
-0.3377,-97.26140186572127
-0.3367000000000001,-95.57789541888187
-0.3357,-93.68218227706274
-0.3347000000000001,-91.92794026523009
-0.3337,-90.32931649638259
-0.3327000000000001,-88.43360335456343
-0.3317,-86.58033155174023
-0.3307000000000001,-85.052443347886
-0.3297,-83.32649556205067
-0.3287000000000001,-81.51566509822342
-0.3277,-80.07265957236108
-0.3267000000000001,-78.62965404649873
-0.3257,-76.83297069567014
-0.3247000000000001,-75.26264115281995
-0.3237,-73.89037119195086
-0.3227000000000001,-72.23515897110877
-0.3217,-70.56579963726803
-0.3207000000000001,-69.19352967639895
-0.3197,-67.6090530205501
-0.3187000000000001,-65.86895812171612
-0.3177,-64.48254104784839
-0.3167000000000001,-63.09612397398064
-0.3157,-61.4267646401399
-0.3147000000000001,-60.01205334027486
-0.3137,-58.75296028339497
-0.3127000000000001,-57.182630740544774
-0.3117,-55.6688896496892
-0.3107000000000001,-54.45223793180526
-0.3097,-53.051673744938874
-0.3087000000000001,-51.481344202088685
-0.3077,-50.23639825820745
-0.3067000000000001,-48.96315808832892
-0.30569999999999997,-47.40697565847737
-0.3047000000000001,-46.062999923605595
-0.30369999999999997,-44.90293665771627
-0.3027000000000001,-43.44578401885527
-0.30169999999999997,-42.03107271899024
-0.3007000000000001,-40.91345079209687
-0.29969999999999997,-39.59776928322238
-0.2987000000000001,-38.16891087035869
-0.29769999999999996,-37.00884760446935
-0.2967000000000001,-35.862931451578675
-0.29569999999999996,-34.43407303871499
-0.2947000000000001,-33.203274207832415
-0.29369999999999996,-32.15638784593229
-0.29270000000000007,-30.8407063370578
-0.29169999999999996,-29.525024828183312
-0.29070000000000007,-28.52057980527914
-0.28969999999999996,-27.31807520039386
-0.28870000000000007,-25.959952352523427
-0.28769999999999996,-24.9130659906233
-0.28670000000000007,-23.86617962872317
-0.28569999999999995,-22.550498119848687
-0.28470000000000006,-21.447023305953955
-0.28369999999999995,-20.47087250904708
-0.28270000000000006,-19.2683679041618
-0.28169999999999995,-18.06586329927652
-0.28070000000000006,-17.160448067362896
-0.27969999999999995,-16.11356170546277
-0.27870000000000006,-14.868615761581536
-0.27769999999999995,-13.940565148870071
-0.27670000000000006,-12.991293866660634
-0.27569999999999995,-11.76049503577805
-0.27470000000000006,-10.75746472417374
-0.27369999999999994,-9.911467366854446
-0.27270000000000005,-8.776868904362688
-0.27169999999999994,-7.693200048666069
-0.27070000000000005,-6.8853998964431335
-0.26969999999999994,-5.889443141338147
-0.26870000000000005,-4.7406975658477375
-0.26769999999999994,-3.8904560746288515
-0.26670000000000005,-3.0204086252118536
