Potential V vs RHE, Current mA cm-2
0.05339999999999995,-0.03627319772853954
0.05239999999999995,-0.03724934852544641
0.051399999999999946,-0.03778693881939513
0.050399999999999945,-0.03825379354835059
0.049399999999999944,-0.038706501164307405
0.04839999999999994,-0.03918750300626152
0.04739999999999994,-0.039597769283222374
0.04639999999999994,-0.039979741334185935
0.04539999999999994,-0.04040415472414544
0.04439999999999994,-0.04084271522710361
0.04339999999999994,-0.04129542284306042
0.04239999999999994,-0.04170568912002128
0.04139999999999994,-0.04208766117098484
0.040399999999999936,-0.0424696332219484
0.039399999999999935,-0.042922340837905214
0.038399999999999934,-0.04341748979285798
0.03739999999999993,-0.04381360895682019
0.03639999999999993,-0.04419558100778375
0.03539999999999993,-0.04461999439774326
0.03439999999999993,-0.045072702013700075
0.03339999999999993,-0.045511262516658234
0.03239999999999993,-0.04593567590661774
0.03139999999999993,-0.046331795070579954
0.030399999999999927,-0.04674206134754081
0.029399999999999926,-0.04718062185049897
0.028399999999999925,-0.047689917918450384
0.027399999999999924,-0.0481143313084099
0.026399999999999924,-0.048538744698369406
0.025399999999999923,-0.04899145231432622
0.024399999999999922,-0.04944415993028303
0.02339999999999992,-0.049911014659238494
0.02239999999999992,-0.050363722275195304
0.02139999999999992,-0.05077398855215617
0.020399999999999918,-0.05121254905511433
0.019399999999999917,-0.051707698010067096
0.018399999999999916,-0.0522169940780185
0.017399999999999916,-0.05266970169397532
0.016399999999999915,-0.05309411508393482
0.015399999999999914,-0.05356096981289029
0.014399999999999913,-0.05405611876784306
0.013399999999999912,-0.05459370906179176
0.012399999999999911,-0.05506056379074723
0.01139999999999991,-0.05549912429370539
0.01039999999999991,-0.05595183190966221
0.009399999999999908,-0.056446980864614964
0.008399999999999908,-0.05697042404556502
0.007399999999999907,-0.057451425887519135
0.006399999999999906,-0.0578899863904773
0.005399999999999905,-0.05838513534543006
0.004399999999999904,-0.05888028430038283
0.003399999999999903,-0.059403727481332894
0.002399999999999902,-0.0598564350972897
0.0013999999999999013,-0.06030914271324651
0.00039999999999990044,-0.06080429166819928
-0.0006000000000001005,-0.0613135877361507
-0.0016000000000001013,-0.0618511780300994
-0.0026000000000001022,-0.06238876832404811
-0.003600000000000103,-0.06284147594000493
-0.004600000000000104,-0.06333662489495769
-0.005600000000000105,-0.06388836230190505
-0.006600000000000106,-0.06445424682185108
-0.007600000000000107,-0.06496354288980248
-0.008600000000000108,-0.06545869184475524
-0.009600000000000108,-0.06592554657371072
-0.01060000000000011,-0.06644898975466076
-0.01160000000000011,-0.06704316850060409
-0.012600000000000111,-0.0675807587945528
-0.013600000000000112,-0.06809005486250422
-0.014600000000000113,-0.06858520381745697
-0.015600000000000114,-0.06910864699840705
-0.016600000000000115,-0.06967453151835307
-0.017600000000000116,-0.07021212181230177
-0.018600000000000116,-0.07070727076725454
-0.019600000000000117,-0.07121656683520594
-0.020600000000000118,-0.07174001001615601
-0.02160000000000012,-0.07233418876209932
-0.02260000000000012,-0.07285763194304938
-0.02360000000000012,-0.0733386337850035
-0.024600000000000122,-0.07386207696595355
-0.025600000000000123,-0.07439966725990228
-0.026600000000000124,-0.07500799311884425
-0.027600000000000124,-0.07554558341279295
-0.028600000000000125,-0.07602658525474706
-0.029600000000000126,-0.07656417554869578
-0.030600000000000127,-0.0770734716166472
-0.03160000000000013,-0.07769594458858782
-0.03260000000000013,-0.07826182910853383
-0.03360000000000013,-0.07874283095048794
-0.03460000000000002,-0.07928042124443666
-0.03560000000000002,-0.07980386442538671
-0.03660000000000002,-0.08036974894533275
-0.03760000000000002,-0.08093563346527875
-0.03860000000000002,-0.08145907664622881
-0.039600000000000024,-0.08198251982717887
-0.040600000000000025,-0.08253425723412625
-0.041600000000000026,-0.08311428886707091
-0.04260000000000003,-0.08362358493502231
-0.04360000000000003,-0.08409043966397778
-0.04460000000000003,-0.0845714415059319
-0.04560000000000003,-0.08510903179988061
-0.04660000000000003,-0.08570321054582393
-0.04760000000000003,-0.08624080083977263
-0.04860000000000003,-0.08675009690772406
-0.04960000000000003,-0.08723109874967816
-0.050600000000000034,-0.08774039481762959
-0.051600000000000035,-0.08827798511157829
-0.052600000000000036,-0.08878728117952969
-0.053600000000000037,-0.08929657724748112
-0.05460000000000004,-0.08979172620243389
-0.05560000000000004,-0.09030102227038528
-0.05660000000000004,-0.09085275967733265
-0.05760000000000004,-0.09137620285828273
-0.05860000000000004,-0.09182891047423952
-0.05960000000000004,-0.09233820654219095
-0.06060000000000004,-0.0928050612711464
-0.061600000000000044,-0.09338509290409107
-0.06260000000000004,-0.09388024185904384
-0.06360000000000005,-0.09436124370099794
-0.06460000000000005,-0.0948280984299534
-0.06560000000000005,-0.09529495315890889
-0.06660000000000005,-0.09581839633985893
-0.06760000000000005,-0.09631354529481169
-0.06860000000000005,-0.0967662529107685
-0.06960000000000005,-0.09720481341372668
-0.07060000000000005,-0.09765752102968349
-0.07160000000000005,-0.09816681709763489
-0.07260000000000005,-0.09864781893958902
-0.07360000000000005,-0.09904393810355122
-0.07460000000000006,-0.09948249860650937
-0.07560000000000006,-0.09993520622246618
-0.07660000000000006,-0.10043035517741895
-0.07760000000000006,-0.10091135701937308
-0.07860000000000006,-0.10129332907033663
-0.07960000000000006,-0.10171774246029613
-0.08060000000000006,-0.10208556739826105
-0.08160000000000006,-0.10256656924021516
-0.08260000000000006,-0.10300512974317333
-0.08360000000000006,-0.10335880756813957
-0.08460000000000006,-0.10374077961910314
-0.08560000000000006,-0.104151045896064
-0.08660000000000007,-0.10457545928602352
-0.08760000000000007,-0.10497157844998573
-0.08860000000000007,-0.10533940338795064
-0.08960000000000007,-0.10570722832591554
-0.09060000000000007,-0.10607505326388045
-0.09160000000000007,-0.10649946665383996
-0.09260000000000007,-0.10688143870480352
-0.09360000000000007,-0.10724926364276843
-0.09460000000000007,-0.10757464724173739
-0.09560000000000007,-0.10790003084070635
-0.09660000000000007,-0.10828200289166989
-0.09760000000000008,-0.10863568071663617
-0.09860000000000008,-0.10897521142860378
-0.09960000000000008,-0.10930059502757274
-0.10060000000000008,-0.1095976844005444
-0.10160000000000008,-0.10996550933850929
-0.10260000000000008,-0.1102484515984823
-0.10360000000000008,-0.11051724674545668
-0.10460000000000008,-0.11070115921443913
-0.10560000000000008,-0.11106898415240402
-0.10660000000000008,-0.11142266197737029
-0.10760000000000008,-0.11171975135034196
-0.10860000000000009,-0.1119885464973163
-0.10960000000000009,-0.11222904741829336
-0.11060000000000009,-0.11248369545226906
-0.11160000000000009,-0.11276663771224207
-0.11260000000000009,-0.11306372708521374
-0.11360000000000009,-0.11326178666719483
-0.11460000000000009,-0.11347399336217459
-0.11560000000000009,-0.11372864139615031
-0.11660000000000009,-0.11399743654312465
-0.1176000000000001,-0.11425208457710037
-0.1186000000000001,-0.11443599704608282
-0.1196000000000001,-0.11461990951506526
-0.1206000000000001,-0.11481796909704638
-0.1216000000000001,-0.11504432290502477
-0.1226000000000001,-0.11528482382600183
-0.1236000000000001,-0.11538385361699238
-0.1246000000000001,-0.11551117763398025
-0.1256000000000001,-0.11580826700695189
-0.1266000000000001,-0.11602047370193166
-0.1276000000000001,-0.11624682750991006
-0.1286000000000001,-0.11638829863989655
-0.1296000000000001,-0.11657221110887903
-0.1306000000000001,-0.11671368223886554
-0.1316000000000001,-0.11689759470784798
-0.1326000000000001,-0.11701077161183718
-0.1336000000000001,-0.11712394851582639
-0.1346000000000001,-0.11726541964581289
-0.1356000000000001,-0.1173785965498021
-0.1366000000000001,-0.11753421479278725
-0.1376000000000001,-0.11770398014877105
-0.1386000000000001,-0.11777471571376431
-0.1396000000000001,-0.11785959839175622
-0.1406000000000001,-0.1179444810697481
-0.14160000000000011,-0.1181142464257319
-0.14260000000000012,-0.11819912910372382
-0.14360000000000012,-0.11819912910372382
-0.14460000000000012,-0.11822742332972111
-0.14560000000000012,-0.11829815889471437
-0.14660000000000012,-0.11843963002470087
-0.14760000000000012,-0.11856695404168872
-0.14860000000000012,-0.11860939538068467
-0.14960000000000012,-0.11863768960668199
-0.15060000000000012,-0.11869427805867658
-0.15160000000000012,-0.11877916073666848
-0.15260000000000012,-0.11889233764065768
-0.15360000000000013,-0.11893477897965361
-0.15460000000000013,-0.11893477897965361
-0.15560000000000013,-0.11894892609265229
-0.15660000000000013,-0.11900551454464689
-0.15760000000000013,-0.11903380877064418
-0.15860000000000013,-0.11907625010964012
-0.15960000000000002,-0.11909039722263878
-0.16060000000000002,-0.1191186914486361
-0.16160000000000002,-0.11920357412662799
-0.16260000000000002,-0.1192601625786226
-0.16360000000000002,-0.11928845680461989
-0.16460000000000002,-0.1192601625786226
-0.16560000000000002,-0.11931675103061717
-0.16660000000000003,-0.11941578082160774
-0.16760000000000003,-0.11941578082160774
-0.16860000000000003,-0.11942992793460638
-0.16960000000000003,-0.1194016337086091
-0.17060000000000003,-0.11938748659561045
-0.17160000000000003,-0.11941578082160774
-0.17260000000000003,-0.11941578082160774
-0.17360000000000003,-0.11938748659561045
-0.17460000000000003,-0.11935919236961315
-0.17560000000000003,-0.1193450452566145
-0.17660000000000003,-0.1193450452566145
-0.17760000000000004,-0.1194016337086091
-0.17860000000000004,-0.11941578082160774
-0.17960000000000004,-0.11947236927360234
-0.18060000000000004,-0.1194016337086091
-0.18160000000000004,-0.11930260391761856
-0.18260000000000004,-0.11933089814361585
-0.18360000000000004,-0.1192318683526253
-0.18460000000000004,-0.11920357412662799
-0.18560000000000004,-0.11917527990063068
-0.18660000000000004,-0.11920357412662799
-0.18760000000000004,-0.11924601546562394
-0.18860000000000005,-0.11914698567463339
-0.18960000000000005,-0.1191186914486361
-0.19060000000000005,-0.11907625010964012
-0.19160000000000005,-0.1191186914486361
-0.19260000000000005,-0.1191186914486361
-0.19360000000000005,-0.11903380877064418
-0.19460000000000005,-0.11899136743164823
-0.19560000000000005,-0.11899136743164823
-0.19660000000000005,-0.118920631866655
-0.19760000000000005,-0.11896307320565094
-0.19860000000000005,-0.11890648475365632
-0.19960000000000006,-0.11880745496266579
-0.20060000000000006,-0.11877916073666848
-0.20160000000000006,-0.11882160207566443
-0.20260000000000006,-0.11887819052765905
-0.20360000000000006,-0.11897722031864959
-0.20460000000000006,-0.11893477897965361
-0.20560000000000006,-0.11882160207566443
-0.20660000000000006,-0.11860939538068467
-0.20760000000000006,-0.11860939538068467
-0.20860000000000006,-0.11855280692869007
-0.20960000000000006,-0.11846792425069817
-0.21060000000000006,-0.11839718868570492
-0.21160000000000007,-0.11842548291170223
-0.21260000000000007,-0.11848207136369682
-0.21360000000000007,-0.11843963002470087
-0.21460000000000007,-0.11838304157270628
-0.21560000000000007,-0.11835474734670896
-0.21660000000000007,-0.11842548291170223
-0.21760000000000007,-0.11848207136369682
-0.21860000000000007,-0.11843963002470087
-0.21960000000000007,-0.11838304157270628
-0.22060000000000007,-0.11834060023371032
-0.22160000000000007,-0.11835474734670896
-0.22260000000000008,-0.11826986466871706
-0.22360000000000008,-0.11821327621672245
-0.22460000000000008,-0.11821327621672245
-0.22560000000000008,-0.11812839353873056
-0.22660000000000008,-0.11822742332972111
-0.22760000000000008,-0.11819912910372382
-0.22860000000000008,-0.11808595219973461
-0.22960000000000008,-0.11802936374774001
-0.23060000000000008,-0.11800106952174272
-0.23160000000000008,-0.11798692240874405
-0.23260000000000008,-0.1179444810697481
-0.23360000000000009,-0.11793033395674946
-0.2346000000000001,-0.1178030099397616
-0.2356000000000001,-0.11781715705276027
-0.2366000000000001,-0.11790203973075215
-0.2376000000000001,-0.1178030099397616
-0.2386000000000001,-0.1178030099397616
-0.2396000000000001,-0.1176049503577805
-0.2406000000000001,-0.117463479227794
-0.2416000000000001,-0.1175483619057859
-0.2426000000000001,-0.11757665613178321
-0.2436000000000001,-0.117463479227794
-0.2446000000000001,-0.11739274366280074
-0.2456000000000001,-0.117463479227794
-0.2466000000000001,-0.11739274366280074
-0.2476000000000001,-0.11742103788879804
-0.2486000000000001,-0.11742103788879804
-0.2496000000000001,-0.11739274366280074
-0.2506000000000001,-0.11753421479278725
-0.2516000000000001,-0.117463479227794
-0.2526000000000001,-0.11740689077579938
-0.2536000000000001,-0.1173220080978075
-0.2546000000000001,-0.11727956675881154
-0.2556000000000001,-0.11727956675881154
-0.2566000000000001,-0.11730786098480883
-0.2576000000000001,-0.11736444943680345
-0.2586000000000001,-0.11733615521080615
-0.2596000000000001,-0.11727956675881154
-0.2606000000000001,-0.11725127253281424
-0.2616000000000001,-0.11725127253281424
-0.2626000000000001,-0.1172937138718102
-0.2636000000000001,-0.11725127253281424
-0.2646000000000001,-0.11718053696782099
-0.2656000000000001,-0.11716638985482233
-0.2666000000000001,-0.11720883119381828
-0.2676000000000001,-0.1172371254198156
-0.2686000000000001,-0.11722297830681694
-0.2696000000000001,-0.11712394851582639
-0.2706000000000001,-0.11706736006383177
-0.2716000000000001,-0.11712394851582639
-0.2726000000000001,-0.11712394851582639
-0.2736000000000001,-0.11710980140282773
-0.2746000000000001,-0.11708150717683044
-0.2756000000000001,-0.11708150717683044
-0.2766000000000001,-0.11708150717683044
-0.2776000000000001,-0.11718053696782099
-0.2786000000000001,-0.1171522427418237
-0.2796000000000001,-0.11716638985482233
-0.2806000000000001,-0.11739274366280074
-0.28160000000000013,-0.11752006767978859
-0.28260000000000013,-0.11761909747077916
-0.28360000000000013,-0.11749177345379128
-0.2846,-0.11744933211479533
-0.2856,-0.11740689077579938
-0.2866,-0.11727956675881154
-0.2876,-0.1173220080978075
-0.2886,-0.11742103788879804
-0.2896,-0.11749177345379128
-0.2906,-0.1175483619057859
-0.2916,-0.11764739169677645
-0.2926,-0.1178030099397616
-0.2936,-0.11785959839175622
-0.29460000000000003,-0.11784545127875755
-0.29560000000000003,-0.11776056860076566
-0.29660000000000003,-0.11790203973075215
-0.29760000000000003,-0.1179444810697481
-0.29860000000000003,-0.11793033395674946
-0.29960000000000003,-0.11798692240874405
-0.30060000000000003,-0.11801521663474136
-0.30160000000000003,-0.11804351086073867
-0.30260000000000004,-0.11812839353873056
-0.30360000000000004,-0.11810009931273327
-0.30460000000000004,-0.11818498199072516
-0.30560000000000004,-0.11814254065172922
-0.30660000000000004,-0.11821327621672245
-0.30760000000000004,-0.11839718868570492
-0.30860000000000004,-0.11843963002470087
-0.30960000000000004,-0.1179444810697481
-0.31060000000000004,-0.11778886282676294
-0.31160000000000004,-0.11788789261775351
-0.31260000000000004,-0.11800106952174272
-0.31360000000000005,-0.11804351086073867
-0.31460000000000005,-0.11804351086073867
-0.31560000000000005,-0.11802936374774001
-0.31660000000000005,-0.11802936374774001
-0.31760000000000005,-0.11807180508673595
-0.31860000000000005,-0.11812839353873056
-0.31960000000000005,-0.11819912910372382
-0.32060000000000005,-0.11825571755571843
-0.32160000000000005,-0.11834060023371032
-0.32260000000000005,-0.11831230600771302
-0.32360000000000005,-0.11829815889471437
-0.32460000000000006,-0.11834060023371032
-0.32560000000000006,-0.11834060023371032
-0.32660000000000006,-0.11835474734670896
-0.32760000000000006,-0.11834060023371032
-0.32860000000000006,-0.11839718868570492
-0.32960000000000006,-0.11853865981569144
-0.33060000000000006,-0.11855280692869007
-0.33160000000000006,-0.11859524826768601
-0.33260000000000006,-0.11876501362366983
-0.33360000000000006,-0.11879330784966712
-0.33460000000000006,-0.11882160207566443
-0.33560000000000006,-0.11893477897965361
-0.33660000000000007,-0.11907625010964012
-0.33760000000000007,-0.11933089814361585
-0.33860000000000007,-0.11918942701362933
-0.33960000000000007,-0.118920631866655
-0.34060000000000007,-0.11893477897965361
-0.34160000000000007,-0.11899136743164823
-0.34260000000000007,-0.11924601546562394
-0.34360000000000007,-0.11950066349959966
-0.3446000000000001,-0.1196279875165875
-0.3456000000000001,-0.11972701730757807
-0.3466000000000001,-0.11978360575957266
-0.34759999999999996,-0.11989678266356185
-0.3486000000000001,-0.11991092977656051
-0.34959999999999997,-0.1199958124545524
-0.3506000000000001,-0.12015143069753757
-0.35159999999999997,-0.12012313647154027
-0.3526000000000001,-0.12032119605352137
-0.35359999999999997,-0.12039193161851462
-0.3546000000000001,-0.12039193161851462
-0.35559999999999997,-0.12042022584451192
-0.3566000000000001,-0.12049096140950517
-0.3576,-0.12060413831349438
-0.3586000000000001,-0.12066072676548899
-0.3596,-0.12064657965249034
-0.3606000000000001,-0.12060413831349438
-0.3616,-0.12058999120049572
-0.3626000000000001,-0.12071731521748358
-0.3636,-0.12075975655647953
-0.3646000000000001,-0.12074560944348088
-0.3656,-0.12071731521748358
-0.3666000000000001,-0.12075975655647953
-0.3676,-0.12088708057346739
-0.3686000000000001,-0.1210285517034539
-0.3696,-0.12112758149444444
-0.3706000000000001,-0.12114172860744309
-0.3716,-0.12112758149444444
-0.3726000000000001,-0.12119831705943768
-0.3736,-0.121226611285435
-0.3746000000000001,-0.1213114939634269
-0.3756,-0.12143881798041474
-0.3766000000000001,-0.12156614199740261
-0.3776,-0.12166517178839317
-0.3786000000000001,-0.1216793189013918
-0.3796,-0.1216793189013918
-0.3806000000000001,-0.12172176024038774
-0.3816,-0.12170761312738912
-0.3826000000000001,-0.1218207900313783
-0.3836,-0.12191981982236885
-0.3846000000000001,-0.1219622611613648
-0.3856,-0.12200470250036077
-0.3866000000000001,-0.1218773784833729
-0.3876,-0.12214617363034727
-0.3886000000000001,-0.12254229279430948
-0.3896,-0.12248570434231489
-0.3906000000000001,-0.1222169091953405
-0.3916,-0.12218861496934323
-0.3926000000000001,-0.12228764476033378
-0.3936,-0.12235838032532702
-0.3946000000000001,-0.12233008609932973
-0.3956,-0.12240082166432298
-0.3966000000000001,-0.12242911589032028
-0.3976,-0.12249985145531352
-0.3986000000000001,-0.12249985145531352
-0.3996,-0.12252814568131082
-0.4006000000000001,-0.12259888124630408
-0.4016,-0.12265546969829867
-0.4026000000000001,-0.12275449948928924
-0.4036,-0.12285352928027979
-0.4046000000000001,-0.12271205815029328
-0.4056,-0.12261302835930274
-0.40660000000000013,-0.12265546969829867
-0.4076,-0.12278279371528653
-0.40860000000000013,-0.1229101177322744
-0.4096,-0.1226271754723014
-0.41060000000000013,-0.12269791103729463
-0.4116,-0.12286767639327843
-0.41260000000000013,-0.12303744174926225
-0.4136,-0.1231930599922474
-0.41460000000000014,-0.1232779426702393
-0.4156,-0.12346185513922175
-0.41660000000000014,-0.1234194138002258
-0.4176,-0.12354673781721365
-0.41860000000000014,-0.12374479739919475
-0.41960000000000003,-0.12375894451219341
-0.42060000000000014,-0.12385797430318395
-0.42160000000000003,-0.12409847522416102
-0.42260000000000014,-0.12429653480614214
-0.42360000000000003,-0.12435312325813672
-0.42460000000000014,-0.12435312325813672
-0.42560000000000003,-0.12438141748413403
-0.42660000000000015,-0.12448044727512457
-0.42760000000000004,-0.12462191840511107
-0.42860000000000015,-0.12483412510009084
-0.42960000000000004,-0.1248765664390868
-0.43060000000000015,-0.12490486066508408
-0.43160000000000004,-0.12507462602106792
-0.43260000000000015,-0.12532927405504357
-0.43360000000000004,-0.12548489229802873
-0.43460000000000015,-0.12559806920201796
-0.43560000000000004,-0.12571124610600715
-0.43660000000000015,-0.1258668643489923
