Potential V vs RHE, Current mA cm-2
0.05339999999999995,5.905004965636663
0.05239999999999995,5.813048731145436
0.051399999999999946,5.695627693256637
0.050399999999999945,5.582450789267434
0.049399999999999944,5.474932730477692
0.04839999999999994,5.3702440942876795
0.04739999999999994,5.268384880697396
0.04639999999999994,5.169355089706844
0.04539999999999994,5.071740010016156
0.04439999999999994,4.974124930325469
0.04339999999999994,4.879339273234511
0.04239999999999994,4.785968327443419
0.04139999999999994,4.694012092952192
0.040399999999999936,4.6020558584609645
0.039399999999999935,4.511514335269602
0.038399999999999934,4.420972812078239
0.03739999999999993,4.331846000186743
0.03639999999999993,4.245548610894974
0.03539999999999993,4.157836510303343
0.03439999999999993,4.072953832311441
0.03339999999999993,3.988071154319539
0.03239999999999993,3.9046031876275014
0.03139999999999993,3.821135220935464
0.030399999999999927,3.7390819655432916
0.029399999999999926,3.65702871015112
0.028399999999999925,3.576390166058813
0.027399999999999924,3.4971663332663705
0.026399999999999924,3.4179425004739286
0.025399999999999923,3.3401333789813514
0.024399999999999922,3.2637389687886396
0.02339999999999992,3.1873445585959277
0.02239999999999992,3.110950148403216
0.02139999999999992,3.0359704495103688
0.020399999999999918,2.9624054619173865
0.019399999999999917,2.89025518562427
0.018399999999999916,2.818104909331153
0.017399999999999916,2.745954633038036
0.016399999999999915,2.6752190680447843
0.015399999999999914,2.6058982143513973
0.014399999999999913,2.536577360658011
0.013399999999999912,2.468671218264489
0.012399999999999911,2.4007650758709675
0.01139999999999991,2.3342736447773107
0.01039999999999991,2.2691969249835187
0.009399999999999908,2.204120205189727
0.008399999999999908,2.1390434853959355
0.007399999999999907,2.0753814769020087
0.006399999999999906,2.013134179707947
0.005399999999999905,1.9508868825138854
0.004399999999999904,1.8886395853198237
0.003399999999999903,1.8292217107254924
0.002399999999999902,1.768389124831296
0.0013999999999999013,1.7103859615368293
0.00039999999999990044,1.6509680869424979
-0.0006000000000001005,1.5943796349478963
-0.0016000000000001013,1.5377911829532949
-0.0026000000000001022,1.4812027309586933
-0.003600000000000103,1.426028990263957
-0.004600000000000104,1.3714211340891667
-0.005600000000000105,1.317096220174349
-0.006600000000000106,1.2637616041694373
-0.007600000000000107,1.2112758149444443
-0.008600000000000108,1.159497381369384
-0.009600000000000108,1.1087092457042291
-0.01060000000000011,1.0582040522990475
-0.01160000000000011,1.0082647434138117
-0.012600000000000111,0.9583254345285759
-0.013600000000000112,0.9093764235532455
-0.014600000000000113,0.8617006527477938
-0.015600000000000114,0.8147322375922746
-0.016600000000000115,0.768471178086688
-0.017600000000000116,0.7230589453610202
-0.018600000000000116,0.6779296548953256
-0.019600000000000117,0.6335077200795635
-0.020600000000000118,0.5895101986537608
-0.02160000000000012,0.5459370906179177
-0.02260000000000012,0.5037786938819395
-0.02360000000000012,0.46176176827594795
-0.024600000000000122,0.4204521983198889
-0.025600000000000123,0.3799914551437488
-0.026600000000000124,0.3395307119676088
-0.027600000000000124,0.29977732444140126
-0.028600000000000125,0.2611557059550858
-0.029600000000000126,0.22267555859875673
-0.030600000000000127,0.1850442380223468
-0.03160000000000013,0.14769585970590982
-0.03260000000000013,0.11105483703940537
-0.03360000000000013,0.07485237487585908
-0.03460000000000002,0.03927238568425342
-0.03560000000000002,0.00442097281207824
-0.03660000000000002,-0.029977732444140127
-0.03760000000000002,-0.06393080364090101
-0.03860000000000002,-0.09748775567369967
-0.039600000000000024,-0.13053541163854693
-0.040600000000000025,-0.1628332706144657
-0.041600000000000026,-0.19452280373144254
-0.04260000000000003,-0.22578792345845985
-0.04360000000000003,-0.25662862979551765
-0.04460000000000003,-0.28676198048264295
-0.04560000000000003,-0.31675386003978173
-0.04660000000000003,-0.346038383946988
-0.04760000000000003,-0.3750399655942212
-0.04860000000000003,-0.40361713385149495
-0.04960000000000003,-0.4314869464588362
-0.050600000000000034,-0.4592152879361909
-0.051600000000000035,-0.4862362737636131
-0.052600000000000036,-0.5128328462010757
-0.053600000000000037,-0.5391464763785655
-0.05460000000000004,-0.5648942220361092
-0.05560000000000004,-0.5907834388236393
-0.05660000000000004,-0.615965299961237
-0.05760000000000004,-0.6401568631889291
-0.05860000000000004,-0.6646313686765942
-0.05960000000000004,-0.6886814607742999
-0.06060000000000004,-0.7118827260920865
-0.061600000000000044,-0.7352254625398595
-0.06260000000000004,-0.7582852567276597
-0.06360000000000005,-0.7809206375255002
-0.06460000000000005,-0.8034145471933544
-0.06560000000000005,-0.8250596300812894
-0.06660000000000005,-0.8464217707092515
-0.06760000000000005,-0.8673594979472539
-0.06860000000000005,-0.8880142829252835
-0.06960000000000005,-0.9088105390332994
-0.07060000000000005,-0.9290409106213695
-0.07160000000000005,-0.9488468688194802
-0.07260000000000005,-0.9686528270175907
-0.07360000000000005,-0.9876099584357821
-0.07460000000000006,-1.0069915032439332
-0.07560000000000006,-1.0259486346621245
-0.07660000000000006,-1.0444813526903567
-0.07760000000000006,-1.062872599588602
-0.07860000000000006,-1.0809809042268743
-0.07960000000000006,-1.098523324345201
-0.08060000000000006,-1.1163486867235004
-0.08160000000000006,-1.1336081645818537
-0.08260000000000006,-1.1510091135701939
-0.08360000000000006,-1.1679856491685743
-0.08460000000000006,-1.1845377713769953
-0.08560000000000006,-1.2012313647154027
-0.08660000000000007,-1.2173590735338642
-0.08760000000000007,-1.2339111957422848
-0.08860000000000007,-1.2500389045607463
-0.08960000000000007,-1.2656007288592617
-0.09060000000000007,-1.28144549541775
-0.09160000000000007,-1.2965829063263061
-0.09260000000000007,-1.3115788461048754
-0.09360000000000007,-1.3267162570134312
-0.09460000000000007,-1.3415707256620142
-0.09560000000000007,-1.3565666654405837
-0.09660000000000007,-1.37127966295918
-0.09760000000000008,-1.385568247087817
-0.09860000000000008,-1.4001397734764267
-0.09960000000000008,-1.4141454153450908
-0.10060000000000008,-1.427443701563822
-0.10160000000000008,-1.4415908145624723
-0.10260000000000008,-1.4557379275611226
-0.10360000000000008,-1.4698850405597732
-0.10460000000000008,-1.4840321535584236
-0.10560000000000008,-1.4967645552572086
-0.10660000000000008,-1.5094969569559942
-0.10760000000000008,-1.5236440699546445
-0.10860000000000009,-1.5363764716534298
-0.10960000000000009,-1.5491088733522151
-0.11060000000000009,-1.5618412750510005
-0.11160000000000009,-1.5759883880496508
-0.11260000000000009,-1.587306078448571
-0.11360000000000009,-1.6014531914472214
-0.11460000000000009,-1.614185593146007
-0.11560000000000009,-1.6283327061446573
-0.11660000000000009,-1.6396503965435776
-0.1176000000000001,-1.6523827982423631
-0.1186000000000001,-1.6651151999411482
-0.1196000000000001,-1.6764328903400685
-0.1206000000000001,-1.6891652920388538
-0.1216000000000001,-1.700482982437774
-0.1226000000000001,-1.7132153841365596
-0.1236000000000001,-1.7259477858353447
-0.1246000000000001,-1.7372654762342652
-0.1256000000000001,-1.7499978779330503
-0.1266000000000001,-1.7613155683319706
-0.1276000000000001,-1.774047970030756
-0.1286000000000001,-1.7853656604296764
-0.1296000000000001,-1.7980980621284617
-0.1306000000000001,-1.8094157525273817
-0.1316000000000001,-1.8207334429263025
-0.1326000000000001,-1.8334658446250875
-0.1336000000000001,-1.8447835350240078
-0.1346000000000001,-1.857515936722793
-0.1356000000000001,-1.8688336271217136
-0.1366000000000001,-1.8801513175206337
-0.1376000000000001,-1.892883719219419
-0.1386000000000001,-1.9042014096183393
-0.1396000000000001,-1.9155191000172598
-0.1406000000000001,-1.9282515017160449
-0.14160000000000011,-1.9395691921149654
-0.14260000000000012,-1.9508868825138854
-0.14360000000000012,-1.9622045729128061
-0.14460000000000012,-1.9735222633117262
-0.14560000000000012,-1.9848399537106465
-0.14660000000000012,-1.9961576441095665
-0.14760000000000012,-2.008890045808352
-0.14860000000000012,-2.020207736207272
-0.14960000000000012,-2.0315254266061924
-0.15060000000000012,-2.042843117005113
-0.15160000000000012,-2.054160807404033
-0.15260000000000012,-2.0668932091028185
-0.15360000000000013,-2.0782108995017388
-0.15460000000000013,-2.0895285899006595
-0.15560000000000013,-2.1008462802995793
-0.15660000000000013,-2.1121639706984996
-0.15760000000000013,-2.12348166109742
-0.15860000000000013,-2.1347993514963406
-0.15960000000000002,-2.1461170418952604
-0.16060000000000002,-2.1574347322941807
-0.16160000000000002,-2.1687524226931014
-0.16260000000000002,-2.1800701130920217
-0.16360000000000002,-2.1913878034909415
-0.16460000000000002,-2.201290782589997
-0.16560000000000002,-2.2140231842887825
-0.16660000000000003,-2.226755585987568
-0.16760000000000003,-2.2394879876863527
-0.16860000000000003,-2.249390966785408
-0.16960000000000003,-2.260708657184329
-0.17060000000000003,-2.2706116362833835
-0.17160000000000003,-2.2819293266823037
-0.17260000000000003,-2.2932470170812245
-0.17360000000000003,-2.30314999618028
-0.17460000000000003,-2.3144676865791998
-0.17560000000000003,-2.3243706656782552
-0.17660000000000003,-2.3356883560771755
-0.17760000000000004,-2.347006046476096
-0.17860000000000004,-2.3569090255751513
-0.17960000000000004,-2.3682267159740715
-0.18060000000000004,-2.3781296950731265
-0.18160000000000004,-2.389447385472047
-0.18260000000000004,-2.3993503645711023
-0.18360000000000004,-2.4092533436701573
-0.18460000000000004,-2.4191563227692128
-0.18560000000000004,-2.4290593018682682
-0.18660000000000004,-2.4403769922671885
-0.18760000000000004,-2.4502799713662435
-0.18860000000000005,-2.460182950465299
-0.18960000000000005,-2.4700859295643536
-0.19060000000000005,-2.4799889086634095
-0.19160000000000005,-2.4898918877624645
-0.19260000000000005,-2.49979486686152
-0.19360000000000005,-2.509697845960575
-0.19460000000000005,-2.5196008250596305
-0.19560000000000005,-2.5295038041586855
-0.19660000000000005,-2.5379920719578757
-0.19760000000000005,-2.5478950510569307
-0.19860000000000005,-2.557798030155986
-0.19960000000000006,-2.5662862979551764
-0.20060000000000006,-2.576189277054232
-0.20160000000000006,-2.584677544853422
-0.20260000000000006,-2.5945805239524775
-0.20360000000000006,-2.6030687917516673
-0.20460000000000006,-2.6115570595508575
-0.20560000000000006,-2.621460038649913
-0.20660000000000006,-2.6285335951492383
-0.20760000000000006,-2.637021862948428
-0.20860000000000006,-2.6455101307476188
-0.20960000000000006,-2.6539983985468085
-0.21060000000000006,-2.662486666345999
-0.21160000000000007,-2.670974934145189
-0.21260000000000007,-2.6794632019443796
-0.21360000000000007,-2.6879514697435702
-0.21460000000000007,-2.6950250262428948
-0.21560000000000007,-2.7035132940420854
-0.21660000000000007,-2.712001561841275
-0.21760000000000007,-2.720489829640466
-0.21860000000000007,-2.7275633861397908
-0.21960000000000007,-2.734636942639116
-0.22060000000000007,-2.741710499138441
-0.22160000000000007,-2.7501987669376318
-0.22260000000000008,-2.7572723234369563
-0.22360000000000008,-2.764345879936282
-0.22460000000000008,-2.7714194364356066
-0.22560000000000008,-2.778492992934932
-0.22660000000000008,-2.785566549434257
-0.22760000000000008,-2.7926401059335824
-0.22860000000000008,-2.7997136624329078
-0.22960000000000008,-2.8067872189322327
-0.23060000000000008,-2.813860775431558
-0.23160000000000008,-2.820934331930883
-0.23260000000000008,-2.8265931771303436
-0.23360000000000009,-2.833666733629668
-0.2346000000000001,-2.840740290128994
-0.2356000000000001,-2.8478138466283185
-0.2366000000000001,-2.854887403127644
-0.2376000000000001,-2.8605462483271045
-0.2386000000000001,-2.867619804826429
-0.2396000000000001,-2.874693361325755
-0.2406000000000001,-2.8817669178250793
-0.2416000000000001,-2.88742576302454
-0.2426000000000001,-2.8944993195238653
-0.2436000000000001,-2.90157287602319
-0.2446000000000001,-2.9100611438223805
-0.2456000000000001,-2.91571998902184
-0.2466000000000001,-2.922793545521166
-0.2476000000000001,-2.9298671020204905
-0.2486000000000001,-2.9369406585198163
-0.2496000000000001,-2.9440142150191413
-0.2506000000000001,-2.9525024828183315
-0.2516000000000001,-2.9595760393176564
-0.2526000000000001,-2.9666495958169823
-0.2536000000000001,-2.973723152316307
-0.2546000000000001,-2.9822114201154974
-0.2556000000000001,-2.990699687914687
-0.2566000000000001,-2.999187955713878
-0.2576000000000001,-3.0076762235130676
-0.2586000000000001,-3.0161644913122583
-0.2596000000000001,-3.024652759111448
-0.2606000000000001,-3.031726315610774
-0.2616000000000001,-3.041629294709829
-0.2626000000000001,-3.050117562509019
-0.2636000000000001,-3.0600205416080746
-0.2646000000000001,-3.069923520707129
-0.2656000000000001,-3.07841178850632
-0.2666000000000001,-3.08972947890524
-0.2676000000000001,-3.0996324580042955
-0.2686000000000001,-3.1095354371033506
-0.2696000000000001,-3.120853127502271
-0.2706000000000001,-3.1307561066013263
-0.2716000000000001,-3.1420737970002466
-0.2726000000000001,-3.153391487399167
-0.2736000000000001,-3.164709177798087
-0.2746000000000001,-3.1774415794968722
-0.2756000000000001,-3.1887592698957925
-0.2766000000000001,-3.201491671594578
-0.2776000000000001,-3.2156387845932284
-0.2786000000000001,-3.228371186292014
-0.2796000000000001,-3.2425182992906643
-0.2806000000000001,-3.2566654122893146
-0.28160000000000013,-3.2693978139880997
-0.28260000000000013,-3.28354492698675
-0.28360000000000013,-3.2976920399854004
-0.2846,-3.3118391529840507
-0.2856,-3.3274009772825663
-0.2866,-3.3429628015810815
-0.2876,-3.361354048479327
-0.2886,-3.3783305840777076
-0.2896,-3.3953071196760884
-0.2906,-3.412283655274469
-0.2916,-3.4292601908728493
-0.2926,-3.4462367264712297
-0.2936,-3.4646279733694745
-0.29460000000000003,-3.4830192202677206
-0.29560000000000003,-3.5014104671659654
-0.29660000000000003,-3.519801714064211
-0.29760000000000003,-3.5381929609624567
-0.29860000000000003,-3.556584207860702
-0.29960000000000003,-3.5749754547589476
-0.30060000000000003,-3.594781412957058
-0.30160000000000003,-3.6145873711551686
-0.30260000000000004,-3.6343933293532795
-0.30360000000000004,-3.6541992875513896
-0.30460000000000004,-3.6754199570493657
-0.30560000000000004,-3.696640626547341
-0.30660000000000004,-3.7178612960453163
-0.30760000000000004,-3.7390819655432916
-0.30860000000000004,-3.7617173463411326
-0.30960000000000004,-3.784352727138973
-0.31060000000000004,-3.8055733966369485
-0.31160000000000004,-3.8282087774347895
-0.31260000000000004,-3.852258869532495
-0.31360000000000005,-3.8748942503303354
-0.31460000000000005,-3.9003590537279056
-0.31560000000000005,-3.9244091458256123
-0.31660000000000005,-3.9484592379233177
-0.31760000000000005,-3.9725093300210226
-0.31860000000000005,-3.9979741334185936
-0.31960000000000005,-4.023438936816164
-0.32060000000000005,-4.050318451513601
-0.32160000000000005,-4.075783254911171
-0.32260000000000005,-4.101248058308742
-0.32360000000000005,-4.128127573006177
-0.32460000000000006,-4.153592376403748
-0.32560000000000006,-4.180471891101184
-0.32660000000000006,-4.20735140579862
-0.32760000000000006,-4.234230920496055
-0.32860000000000006,-4.2611104351934905
-0.32960000000000006,-4.289404661190791
-0.33060000000000006,-4.316284175888227
-0.33160000000000006,-4.344578401885528
-0.33260000000000006,-4.3728726278828285
-0.33360000000000006,-4.401166853880129
-0.33460000000000006,-4.42946107987743
-0.33560000000000006,-4.457755305874731
-0.33660000000000007,-4.487464243171897
-0.33760000000000007,-4.515758469169198
-0.33860000000000007,-4.545467406466363
-0.33960000000000007,-4.575176343763529
-0.34060000000000007,-4.603470569760829
-0.34160000000000007,-4.634594218357861
-0.34260000000000007,-4.66288844435516
-0.34360000000000007,-4.694012092952192
-0.3446000000000001,-4.723721030249357
-0.3456000000000001,-4.754844678846388
-0.3466000000000001,-4.784553616143554
-0.34759999999999996,-4.815677264740584
-0.3486000000000001,-4.846800913337615
-0.34959999999999997,-4.877924561934646
-0.3506000000000001,-4.909048210531677
-0.35159999999999997,-4.940171859128707
-0.3526000000000001,-4.971295507725738
-0.35359999999999997,-5.002419156322769
-0.3546000000000001,-5.034957516219666
-0.35559999999999997,-5.066081164816696
-0.3566000000000001,-5.097204813413727
-0.3576,-5.128328462010757
-0.3586000000000001,-5.1608668219076534
-0.3596,-5.191990470504685
-0.3606000000000001,-5.22452883040158
-0.3616,-5.257067190298477
-0.3626000000000001,-5.288190838895507
-0.3636,-5.319314487492538
-0.3646000000000001,-5.3504381360895685
-0.3656,-5.382976495986464
-0.3666000000000001,-5.414100144583495
-0.3676,-5.446638504480391
-0.3686000000000001,-5.479176864377286
-0.3696,-5.510300512974317
-0.3706000000000001,-5.542838872871213
-0.3716,-5.5739625214682444
-0.3726000000000001,-5.605086170065275
-0.3736,-5.637624529962172
-0.3746000000000001,-5.668748178559202
-0.3756,-5.699871827156233
-0.3766000000000001,-5.7309954757532635
-0.3776,-5.762119124350295
-0.3786000000000001,-5.793242772947325
-0.3796,-5.824366421544356
-0.3806000000000001,-5.855490070141387
-0.3816,-5.886613718738418
-0.3826000000000001,-5.916322656035583
-0.3836,-5.947446304632614
-0.3846000000000001,-5.978569953229646
-0.3856,-6.008278890526811
-0.3866000000000001,-6.037987827823977
-0.3876,-6.067696765121143
-0.3886000000000001,-6.097405702418309
-0.3896,-6.127114639715473
-0.3906000000000001,-6.15682357701264
-0.3916,-6.186532514309805
-0.3926000000000001,-6.214826740307106
-0.3936,-6.2431209663044065
-0.3946000000000001,-6.272829903601573
-0.3956,-6.301124129598874
-0.3966000000000001,-6.329418355596174
-0.3976,-6.357712581593474
-0.3986000000000001,-6.384592096290911
-0.3996,-6.411471610988346
-0.4006000000000001,-6.438351125685783
-0.4016,-6.465230640383218
-0.4026000000000001,-6.492110155080653
-0.4036,-6.517574958478224
-0.4046000000000001,-6.543039761875795
-0.4056,-6.569919276573231
-0.40660000000000013,-6.593969368670936
-0.4076,-6.619434172068506
-0.40860000000000013,-6.644898975466076
-0.4096,-6.6689490675637835
-0.41060000000000013,-6.692999159661489
-0.4116,-6.715634540459329
-0.41260000000000013,-6.739684632557035
-0.4136,-6.762320013354876
-0.41460000000000014,-6.786370105452581
-0.4156,-6.809005486250422
-0.41660000000000014,-6.830226155748398
-0.4176,-6.852861536546238
-0.41860000000000014,-6.874082206044213
-0.41960000000000003,-6.895302875542188
-0.42060000000000014,-6.916523545040165
-0.42160000000000003,-6.93774421453814
-0.42260000000000014,-6.958964884036115
-0.42360000000000003,-6.978770842234226
-0.42460000000000014,-6.997162089132471
-0.42560000000000003,-7.016968047330582
-0.42660000000000015,-7.035359294228828
-0.42760000000000004,-7.053750541127073
-0.42860000000000015,-7.072141788025317
-0.42960000000000004,-7.091947746223429
-0.43060000000000015,-7.1089242818218095
-0.43160000000000004,-7.125900817420191
-0.43260000000000015,-7.1414626417187055
-0.43360000000000004,-7.158439177317086
-0.43460000000000015,-7.174001001615601
-0.43560000000000004,-7.189562825914116
-0.43660000000000015,-7.205124650212632
-0.43760000000000004,-7.220686474511147
-0.43860000000000016,-7.236248298809663
-0.43960000000000005,-7.250395411808314
-0.44060000000000016,-7.2659572361068285
-0.44160000000000005,-7.280104349105479
-0.44260000000000016,-7.294251462104128
-0.44360000000000005,-7.306983863802915
-0.44460000000000016,-7.321130976801564
-0.44560000000000005,-7.33386337850035
-0.44660000000000016,-7.348010491499002
-0.44760000000000005,-7.360742893197786
-0.44860000000000017,-7.37347529489657
-0.44960000000000006,-7.386207696595355
-0.45060000000000017,-7.398940098294142
-0.45160000000000006,-7.413087211292793
-0.45260000000000017,-7.425819612991578
-0.45360000000000006,-7.437137303390498
-0.45460000000000017,-7.448454993789417
-0.45560000000000006,-7.459772684188338
