Apr. 19, 2025   02:45:27
Cyclic Voltammetry
File: c:/users/guazh/data/banditlqround7_x0exp590_r20/2025-04-16-exp1123\exp1123-2025-04-19t02_28_24-arkoh\exp1123_cv_sr_50mvs_efin_-1700mv.bin
Data Source:  Experiment
Instrument Model:  CHI760E
Header: CV ran at 50 mVs
Note: 

Init E (V) = -1
High E (V) = -1
Low E (V) = -1.7
Final E (V) = -1
Init P/N = N
Scan Rate (V/s) = 0.05
Segment = 3
Sample Interval (V) = 0.001
Quiet Time (sec) = 2
Sensitivity (A/V) = 0.01
Comp R (ohm) = 1.7

Results:

Channel 1:
Segment 1:

Segment 2:

Segment 3:

Potential/V, Current/A

-1.000, 2.395e-6
-1.001, 4.980e-6
-1.002, 5.030e-6
-1.003, 4.319e-6
-1.004, 4.457e-6
-1.005, 5.681e-6
-1.006, 6.579e-6
-1.007, 6.302e-6
-1.008, 5.424e-6
-1.009, 5.336e-6
-1.010, 6.529e-6
-1.011, 7.506e-6
-1.012, 7.052e-6
-1.013, 6.233e-6
-1.014, 6.095e-6
-1.015, 7.200e-6
-1.016, 8.039e-6
-1.017, 7.575e-6
-1.018, 6.756e-6
-1.019, 6.717e-6
-1.020, 7.654e-6
-1.021, 8.552e-6
-1.022, 8.049e-6
-1.023, 7.111e-6
-1.024, 7.131e-6
-1.025, 8.118e-6
-1.026, 9.025e-6
-1.027, 8.562e-6
-1.028, 7.447e-6
-1.029, 7.536e-6
-1.030, 8.542e-6
-1.031, 9.420e-6
-1.032, 8.828e-6
-1.033, 7.930e-6
-1.034, 7.841e-6
-1.035, 8.877e-6
-1.036, 9.578e-6
-1.037, 9.282e-6
-1.038, 8.276e-6
-1.039, 8.236e-6
-1.040, 9.085e-6
-1.041, 9.982e-6
-1.042, 9.459e-6
-1.043, 8.611e-6
-1.044, 8.512e-6
-1.045, 9.627e-6
-1.046, 1.025e-5
-1.047, 9.726e-6
-1.048, 8.710e-6
-1.049, 8.808e-6
-1.050, 9.874e-6
-1.051, 1.057e-5
-1.052, 1.012e-5
-1.053, 9.144e-6
-1.054, 8.996e-6
-1.055, 1.014e-5
-1.056, 1.084e-5
-1.057, 1.034e-5
-1.058, 9.450e-6
-1.059, 9.223e-6
-1.060, 1.034e-5
-1.061, 1.101e-5
-1.062, 1.061e-5
-1.063, 9.617e-6
-1.064, 9.588e-6
-1.065, 1.065e-5
-1.066, 1.144e-5
-1.067, 1.088e-5
-1.068, 9.894e-6
-1.069, 9.864e-6
-1.070, 1.082e-5
-1.071, 1.176e-5
-1.072, 1.108e-5
-1.073, 1.003e-5
-1.074, 1.014e-5
-1.075, 1.126e-5
-1.076, 1.197e-5
-1.077, 1.147e-5
-1.078, 1.038e-5
-1.079, 1.052e-5
-1.080, 1.141e-5
-1.081, 1.219e-5
-1.082, 1.169e-5
-1.083, 1.073e-5
-1.084, 1.067e-5
-1.085, 1.169e-5
-1.086, 1.245e-5
-1.087, 1.188e-5
-1.088, 1.101e-5
-1.089, 1.088e-5
-1.090, 1.203e-5
-1.091, 1.271e-5
-1.092, 1.220e-5
-1.093, 1.126e-5
-1.094, 1.123e-5
-1.095, 1.234e-5
-1.096, 1.291e-5
-1.097, 1.237e-5
-1.098, 1.151e-5
-1.099, 1.136e-5
-1.100, 1.259e-5
-1.101, 1.323e-5
-1.102, 1.262e-5
-1.103, 1.189e-5
-1.104, 1.173e-5
-1.105, 1.280e-5
-1.106, 1.356e-5
-1.107, 1.292e-5
-1.108, 1.205e-5
-1.109, 1.194e-5
-1.110, 1.296e-5
-1.111, 1.379e-5
-1.112, 1.312e-5
-1.113, 1.220e-5
-1.114, 1.220e-5
-1.115, 1.329e-5
-1.116, 1.390e-5
-1.117, 1.346e-5
-1.118, 1.241e-5
-1.119, 1.247e-5
-1.120, 1.357e-5
-1.121, 1.422e-5
-1.122, 1.370e-5
-1.123, 1.260e-5
-1.124, 1.259e-5
-1.125, 1.376e-5
-1.126, 1.435e-5
-1.127, 1.395e-5
-1.128, 1.274e-5
-1.129, 1.275e-5
-1.130, 1.392e-5
-1.131, 1.452e-5
-1.132, 1.406e-5
-1.133, 1.295e-5
-1.134, 1.302e-5
-1.135, 1.411e-5
-1.136, 1.482e-5
-1.137, 1.405e-5
-1.138, 1.320e-5
-1.139, 1.310e-5
-1.140, 1.421e-5
-1.141, 1.485e-5
-1.142, 1.415e-5
-1.143, 1.339e-5
-1.144, 1.331e-5
-1.145, 1.433e-5
-1.146, 1.501e-5
-1.147, 1.429e-5
-1.148, 1.343e-5
-1.149, 1.346e-5
-1.150, 1.442e-5
-1.151, 1.514e-5
-1.152, 1.450e-5
-1.153, 1.357e-5
-1.154, 1.359e-5
-1.155, 1.449e-5
-1.156, 1.523e-5
-1.157, 1.466e-5
-1.158, 1.364e-5
-1.159, 1.370e-5
-1.160, 1.469e-5
-1.161, 1.527e-5
-1.162, 1.478e-5
-1.163, 1.367e-5
-1.164, 1.374e-5
-1.165, 1.486e-5
-1.166, 1.548e-5
-1.167, 1.483e-5
-1.168, 1.380e-5
-1.169, 1.375e-5
-1.170, 1.492e-5
-1.171, 1.545e-5
-1.172, 1.486e-5
-1.173, 1.401e-5
-1.174, 1.384e-5
-1.175, 1.496e-5
-1.176, 1.557e-5
-1.177, 1.495e-5
-1.178, 1.415e-5
-1.179, 1.418e-5
-1.180, 1.509e-5
-1.181, 1.577e-5
-1.182, 1.500e-5
-1.183, 1.414e-5
-1.184, 1.408e-5
-1.185, 1.509e-5
-1.186, 1.577e-5
-1.187, 1.514e-5
-1.188, 1.415e-5
-1.189, 1.428e-5
-1.190, 1.524e-5
-1.191, 1.591e-5
-1.192, 1.519e-5
-1.193, 1.436e-5
-1.194, 1.445e-5
-1.195, 1.540e-5
-1.196, 1.593e-5
-1.197, 1.545e-5
-1.198, 1.439e-5
-1.199, 1.456e-5
-1.200, 1.545e-5
-1.201, 1.610e-5
-1.202, 1.548e-5
-1.203, 1.456e-5
-1.204, 1.466e-5
-1.205, 1.576e-5
-1.206, 1.618e-5
-1.207, 1.556e-5
-1.208, 1.469e-5
-1.209, 1.485e-5
-1.210, 1.586e-5
-1.211, 1.639e-5
-1.212, 1.578e-5
-1.213, 1.482e-5
-1.214, 1.494e-5
-1.215, 1.601e-5
-1.216, 1.653e-5
-1.217, 1.599e-5
-1.218, 1.512e-5
-1.219, 1.510e-5
-1.220, 1.623e-5
-1.221, 1.673e-5
-1.222, 1.614e-5
-1.223, 1.534e-5
-1.224, 1.537e-5
-1.225, 1.641e-5
-1.226, 1.709e-5
-1.227, 1.641e-5
-1.228, 1.561e-5
-1.229, 1.579e-5
-1.230, 1.683e-5
-1.231, 1.743e-5
-1.232, 1.674e-5
-1.233, 1.580e-5
-1.234, 1.605e-5
-1.235, 1.715e-5
-1.236, 1.764e-5
-1.237, 1.702e-5
-1.238, 1.620e-5
-1.239, 1.637e-5
-1.240, 1.739e-5
-1.241, 1.795e-5
-1.242, 1.744e-5
-1.243, 1.660e-5
-1.244, 1.676e-5
-1.245, 1.782e-5
-1.246, 1.843e-5
-1.247, 1.779e-5
-1.248, 1.698e-5
-1.249, 1.729e-5
-1.250, 1.834e-5
-1.251, 1.884e-5
-1.252, 1.825e-5
-1.253, 1.759e-5
-1.254, 1.766e-5
-1.255, 1.897e-5
-1.256, 1.943e-5
-1.257, 1.885e-5
-1.258, 1.808e-5
-1.259, 1.829e-5
-1.260, 1.946e-5
-1.261, 2.014e-5
-1.262, 1.963e-5
-1.263, 1.878e-5
-1.264, 1.889e-5
-1.265, 2.012e-5
-1.266, 2.085e-5
-1.267, 2.021e-5
-1.268, 1.951e-5
-1.269, 1.972e-5
-1.270, 2.111e-5
-1.271, 2.174e-5
-1.272, 2.098e-5
-1.273, 2.040e-5
-1.274, 2.068e-5
-1.275, 2.175e-5
-1.276, 2.238e-5
-1.277, 2.195e-5
-1.278, 2.130e-5
-1.279, 2.166e-5
-1.280, 2.307e-5
-1.281, 2.356e-5
-1.282, 2.308e-5
-1.283, 2.241e-5
-1.284, 2.279e-5
-1.285, 2.411e-5
-1.286, 2.461e-5
-1.287, 2.438e-5
-1.288, 2.379e-5
-1.289, 2.409e-5
-1.290, 2.544e-5
-1.291, 2.606e-5
-1.292, 2.578e-5
-1.293, 2.515e-5
-1.294, 2.557e-5
-1.295, 2.681e-5
-1.296, 2.763e-5
-1.297, 2.723e-5
-1.298, 2.679e-5
-1.299, 2.715e-5
-1.300, 2.868e-5
-1.301, 2.937e-5
-1.302, 2.904e-5
-1.303, 2.863e-5
-1.304, 2.907e-5
-1.305, 3.040e-5
-1.306, 3.132e-5
-1.307, 3.099e-5
-1.308, 3.061e-5
-1.309, 3.123e-5
-1.310, 3.258e-5
-1.311, 3.344e-5
-1.312, 3.319e-5
-1.313, 3.275e-5
-1.314, 3.352e-5
-1.315, 3.498e-5
-1.316, 3.581e-5
-1.317, 3.572e-5
-1.318, 3.535e-5
-1.319, 3.615e-5
-1.320, 3.759e-5
-1.321, 3.858e-5
-1.322, 3.856e-5
-1.323, 3.812e-5
-1.324, 3.896e-5
-1.325, 4.058e-5
-1.326, 4.166e-5
-1.327, 4.159e-5
-1.328, 4.138e-5
-1.329, 4.206e-5
-1.330, 4.384e-5
-1.331, 4.500e-5
-1.332, 4.510e-5
-1.333, 4.493e-5
-1.334, 4.581e-5
-1.335, 4.757e-5
-1.336, 4.863e-5
-1.337, 4.885e-5
-1.338, 4.897e-5
-1.339, 4.979e-5
-1.340, 5.167e-5
-1.341, 5.289e-5
-1.342, 5.320e-5
-1.343, 5.314e-5
-1.344, 5.426e-5
-1.345, 5.623e-5
-1.346, 5.756e-5
-1.347, 5.791e-5
-1.348, 5.802e-5
-1.349, 5.933e-5
-1.350, 6.126e-5
-1.351, 6.273e-5
-1.352, 6.317e-5
-1.353, 6.359e-5
-1.354, 6.478e-5
-1.355, 6.693e-5
-1.356, 6.838e-5
-1.357, 6.919e-5
-1.358, 6.958e-5
-1.359, 7.103e-5
-1.360, 7.327e-5
-1.361, 7.491e-5
-1.362, 7.579e-5
-1.363, 7.633e-5
-1.364, 7.783e-5
-1.365, 8.016e-5
-1.366, 8.214e-5
-1.367, 8.301e-5
-1.368, 8.376e-5
-1.369, 8.553e-5
-1.370, 8.819e-5
-1.371, 9.010e-5
-1.372, 9.120e-5
-1.373, 9.220e-5
-1.374, 9.400e-5
-1.375, 9.683e-5
-1.376, 9.907e-5
-1.377, 1.004e-4
-1.378, 1.014e-4
-1.379, 1.035e-4
-1.380, 1.064e-4
-1.381, 1.088e-4
-1.382, 1.104e-4
-1.383, 1.118e-4
-1.384, 1.139e-4
-1.385, 1.171e-4
-1.386, 1.198e-4
-1.387, 1.215e-4
-1.388, 1.230e-4
-1.389, 1.256e-4
-1.390, 1.289e-4
-1.391, 1.318e-4
-1.392, 1.336e-4
-1.393, 1.355e-4
-1.394, 1.383e-4
-1.395, 1.420e-4
-1.396, 1.451e-4
-1.397, 1.474e-4
-1.398, 1.495e-4
-1.399, 1.525e-4
-1.400, 1.564e-4
-1.401, 1.598e-4
-1.402, 1.625e-4
-1.403, 1.647e-4
-1.404, 1.681e-4
-1.405, 1.722e-4
-1.406, 1.760e-4
-1.407, 1.788e-4
-1.408, 1.815e-4
-1.409, 1.851e-4
-1.410, 1.897e-4
-1.411, 1.938e-4
-1.412, 1.970e-4
-1.413, 2.000e-4
-1.414, 2.038e-4
-1.415, 2.089e-4
-1.416, 2.131e-4
-1.417, 2.168e-4
-1.418, 2.201e-4
-1.419, 2.242e-4
-1.420, 2.293e-4
-1.421, 2.340e-4
-1.422, 2.380e-4
-1.423, 2.417e-4
-1.424, 2.463e-4
-1.425, 2.520e-4
-1.426, 2.573e-4
-1.427, 2.615e-4
-1.428, 2.659e-4
-1.429, 2.707e-4
-1.430, 2.768e-4
-1.431, 2.826e-4
-1.432, 2.871e-4
-1.433, 2.919e-4
-1.434, 2.978e-4
-1.435, 3.038e-4
-1.436, 3.102e-4
-1.437, 3.154e-4
-1.438, 3.206e-4
-1.439, 3.268e-4
-1.440, 3.339e-4
-1.441, 3.403e-4
-1.442, 3.461e-4
-1.443, 3.516e-4
-1.444, 3.580e-4
-1.445, 3.658e-4
-1.446, 3.732e-4
-1.447, 3.795e-4
-1.448, 3.853e-4
-1.449, 3.928e-4
-1.450, 4.006e-4
-1.451, 4.083e-4
-1.452, 4.151e-4
-1.453, 4.216e-4
-1.454, 4.290e-4
-1.455, 4.382e-4
-1.456, 4.468e-4
-1.457, 4.544e-4
-1.458, 4.619e-4
-1.459, 4.698e-4
-1.460, 4.792e-4
-1.461, 4.885e-4
-1.462, 4.965e-4
-1.463, 5.048e-4
-1.464, 5.144e-4
-1.465, 5.242e-4
-1.466, 5.342e-4
-1.467, 5.434e-4
-1.468, 5.522e-4
-1.469, 5.625e-4
-1.470, 5.732e-4
-1.471, 5.841e-4
-1.472, 5.938e-4
-1.473, 6.034e-4
-1.474, 6.145e-4
-1.475, 6.263e-4
-1.476, 6.382e-4
-1.477, 6.488e-4
-1.478, 6.606e-4
-1.479, 6.719e-4
-1.480, 6.840e-4
-1.481, 6.967e-4
-1.482, 7.089e-4
-1.483, 7.218e-4
-1.484, 7.350e-4
-1.485, 7.483e-4
-1.486, 7.624e-4
-1.487, 7.751e-4
-1.488, 7.882e-4
-1.489, 8.028e-4
-1.490, 8.182e-4
-1.491, 8.339e-4
-1.492, 8.481e-4
-1.493, 8.626e-4
-1.494, 8.775e-4
-1.495, 8.948e-4
-1.496, 9.110e-4
-1.497, 9.281e-4
-1.498, 9.425e-4
-1.499, 9.595e-4
-1.500, 9.779e-4
-1.501, 9.951e-4
-1.502, 1.011e-3
-1.503, 1.029e-3
-1.504, 1.047e-3
-1.505, 1.066e-3
-1.506, 1.085e-3
-1.507, 1.104e-3
-1.508, 1.122e-3
-1.509, 1.141e-3
-1.510, 1.161e-3
-1.511, 1.181e-3
-1.512, 1.200e-3
-1.513, 1.217e-3
-1.514, 1.238e-3
-1.515, 1.259e-3
-1.516, 1.282e-3
-1.517, 1.303e-3
-1.518, 1.324e-3
-1.519, 1.345e-3
-1.520, 1.367e-3
-1.521, 1.389e-3
-1.522, 1.412e-3
-1.523, 1.433e-3
-1.524, 1.456e-3
-1.525, 1.481e-3
-1.526, 1.505e-3
-1.527, 1.528e-3
-1.528, 1.551e-3
-1.529, 1.576e-3
-1.530, 1.600e-3
-1.531, 1.627e-3
-1.532, 1.650e-3
-1.533, 1.675e-3
-1.534, 1.700e-3
-1.535, 1.730e-3
-1.536, 1.758e-3
-1.537, 1.783e-3
-1.538, 1.807e-3
-1.539, 1.830e-3
-1.540, 1.855e-3
-1.541, 1.884e-3
-1.542, 1.911e-3
-1.543, 1.938e-3
-1.544, 1.966e-3
-1.545, 1.994e-3
-1.546, 2.024e-3
-1.547, 2.050e-3
-1.548, 2.080e-3
-1.549, 2.108e-3
-1.550, 2.136e-3
-1.551, 2.167e-3
-1.552, 2.195e-3
-1.553, 2.223e-3
-1.554, 2.251e-3
-1.555, 2.280e-3
-1.556, 2.311e-3
-1.557, 2.343e-3
-1.558, 2.375e-3
-1.559, 2.405e-3
-1.560, 2.437e-3
-1.561, 2.469e-3
-1.562, 2.500e-3
-1.563, 2.529e-3
-1.564, 2.566e-3
-1.565, 2.597e-3
-1.566, 2.634e-3
-1.567, 2.663e-3
-1.568, 2.690e-3
-1.569, 2.722e-3
-1.570, 2.753e-3
-1.571, 2.789e-3
-1.572, 2.818e-3
-1.573, 2.850e-3
-1.574, 2.882e-3
-1.575, 2.918e-3
-1.576, 2.949e-3
-1.577, 2.992e-3
-1.578, 3.024e-3
-1.579, 3.057e-3
-1.580, 3.091e-3
-1.581, 3.135e-3
-1.582, 3.163e-3
-1.583, 3.203e-3
-1.584, 3.231e-3
-1.585, 3.265e-3
-1.586, 3.306e-3
-1.587, 3.336e-3
-1.588, 3.373e-3
-1.589, 3.401e-3
-1.590, 3.447e-3
-1.591, 3.488e-3
-1.592, 3.527e-3
-1.593, 3.559e-3
-1.594, 3.605e-3
-1.595, 3.633e-3
-1.596, 3.671e-3
-1.597, 3.704e-3
-1.598, 3.738e-3
-1.599, 3.782e-3
-1.600, 3.826e-3
-1.601, 3.865e-3
-1.602, 3.903e-3
-1.603, 3.957e-3
-1.604, 3.982e-3
-1.605, 4.024e-3
-1.606, 4.065e-3
-1.607, 4.105e-3
-1.608, 4.150e-3
-1.609, 4.180e-3
-1.610, 4.237e-3
-1.611, 4.279e-3
-1.612, 4.317e-3
-1.613, 4.358e-3
-1.614, 4.388e-3
-1.615, 4.429e-3
-1.616, 4.469e-3
-1.617, 4.504e-3
-1.618, 4.542e-3
-1.619, 4.592e-3
-1.620, 4.632e-3
-1.621, 4.676e-3
-1.622, 4.715e-3
-1.623, 4.762e-3
-1.624, 4.818e-3
-1.625, 4.850e-3
-1.626, 4.912e-3
-1.627, 4.956e-3
-1.628, 4.984e-3
-1.629, 5.022e-3
-1.630, 5.076e-3
-1.631, 5.116e-3
-1.632, 5.166e-3
-1.633, 5.206e-3
-1.634, 5.248e-3
-1.635, 5.290e-3
-1.636, 5.337e-3
-1.637, 5.375e-3
-1.638, 5.423e-3
-1.639, 5.452e-3
-1.640, 5.501e-3
-1.641, 5.551e-3
-1.642, 5.590e-3
-1.643, 5.634e-3
-1.644, 5.682e-3
-1.645, 5.741e-3
-1.646, 5.777e-3
-1.647, 5.833e-3
-1.648, 5.863e-3
-1.649, 5.904e-3
-1.650, 5.943e-3
-1.651, 5.994e-3
-1.652, 6.041e-3
-1.653, 6.105e-3
-1.654, 6.153e-3
-1.655, 6.219e-3
-1.656, 6.269e-3
-1.657, 6.304e-3
-1.658, 6.341e-3
-1.659, 6.397e-3
-1.660, 6.469e-3
-1.661, 6.512e-3
-1.662, 6.550e-3
-1.663, 6.605e-3
-1.664, 6.660e-3
-1.665, 6.740e-3
-1.666, 6.810e-3
-1.667, 6.855e-3
-1.668, 6.910e-3
-1.669, 6.938e-3
-1.670, 6.978e-3
-1.671, 7.027e-3
-1.672, 7.095e-3
-1.673, 7.151e-3
-1.674, 7.206e-3
-1.675, 7.243e-3
-1.676, 7.288e-3
-1.677, 7.320e-3
-1.678, 7.390e-3
-1.679, 7.455e-3
-1.680, 7.514e-3
-1.681, 7.604e-3
-1.682, 7.653e-3
-1.683, 7.705e-3
-1.684, 7.775e-3
-1.685, 7.840e-3
-1.686, 7.901e-3
-1.687, 7.944e-3
-1.688, 8.007e-3
-1.689, 8.087e-3
-1.690, 8.116e-3
-1.691, 8.151e-3
-1.692, 8.240e-3
-1.693, 8.298e-3
-1.694, 8.353e-3
-1.695, 8.398e-3
-1.696, 8.462e-3
-1.697, 8.493e-3
-1.698, 8.569e-3
-1.699, 8.619e-3
-1.700, 8.591e-3
-1.699, 8.539e-3
-1.698, 8.467e-3
-1.697, 8.456e-3
-1.696, 8.330e-3
-1.695, 8.287e-3
-1.694, 8.203e-3
-1.693, 8.138e-3
-1.692, 8.065e-3
-1.691, 8.058e-3
-1.690, 7.952e-3
-1.689, 7.892e-3
-1.688, 7.789e-3
-1.687, 7.696e-3
-1.686, 7.609e-3
-1.685, 7.537e-3
-1.684, 7.464e-3
-1.683, 7.391e-3
-1.682, 7.328e-3
-1.681, 7.306e-3
-1.680, 7.234e-3
-1.679, 7.146e-3
-1.678, 7.064e-3
-1.677, 6.975e-3
-1.676, 6.903e-3
-1.675, 6.869e-3
-1.674, 6.812e-3
-1.673, 6.754e-3
-1.672, 6.674e-3
-1.671, 6.624e-3
-1.670, 6.611e-3
-1.669, 6.542e-3
-1.668, 6.486e-3
-1.667, 6.434e-3
-1.666, 6.372e-3
-1.665, 6.297e-3
-1.664, 6.239e-3
-1.663, 6.184e-3
-1.662, 6.158e-3
-1.661, 6.077e-3
-1.660, 6.021e-3
-1.659, 5.987e-3
-1.658, 5.977e-3
-1.657, 5.920e-3
-1.656, 5.842e-3
-1.655, 5.744e-3
-1.654, 5.678e-3
-1.653, 5.645e-3
-1.652, 5.590e-3
-1.651, 5.554e-3
-1.650, 5.499e-3
-1.649, 5.460e-3
-1.648, 5.415e-3
-1.647, 5.365e-3
-1.646, 5.293e-3
-1.645, 5.243e-3
-1.644, 5.199e-3
-1.643, 5.142e-3
-1.642, 5.093e-3
-1.641, 5.042e-3
-1.640, 5.004e-3
-1.639, 4.966e-3
-1.638, 4.926e-3
-1.637, 4.869e-3
-1.636, 4.820e-3
-1.635, 4.765e-3
-1.634, 4.715e-3
-1.633, 4.656e-3
-1.632, 4.619e-3
-1.631, 4.558e-3
-1.630, 4.518e-3
-1.629, 4.487e-3
-1.628, 4.443e-3
-1.627, 4.398e-3
-1.626, 4.347e-3
-1.625, 4.288e-3
-1.624, 4.237e-3
-1.623, 4.174e-3
-1.622, 4.145e-3
-1.621, 4.083e-3
-1.620, 4.039e-3
-1.619, 3.985e-3
-1.618, 3.930e-3
-1.617, 3.874e-3
-1.616, 3.819e-3
-1.615, 3.769e-3
-1.614, 3.728e-3
-1.613, 3.685e-3
-1.612, 3.636e-3
-1.611, 3.586e-3
-1.610, 3.544e-3
-1.609, 3.500e-3
-1.608, 3.448e-3
-1.607, 3.413e-3
-1.606, 3.376e-3
-1.605, 3.331e-3
-1.604, 3.279e-3
-1.603, 3.236e-3
-1.602, 3.193e-3
-1.601, 3.162e-3
-1.600, 3.131e-3
-1.599, 3.092e-3
-1.598, 3.054e-3
-1.597, 3.012e-3
-1.596, 2.974e-3
-1.595, 2.943e-3
-1.594, 2.900e-3
-1.593, 2.853e-3
-1.592, 2.819e-3
-1.591, 2.776e-3
-1.590, 2.739e-3
-1.589, 2.701e-3
-1.588, 2.664e-3
-1.587, 2.620e-3
-1.586, 2.588e-3
-1.585, 2.555e-3
-1.584, 2.516e-3
-1.583, 2.476e-3
-1.582, 2.446e-3
-1.581, 2.413e-3
-1.580, 2.389e-3
-1.579, 2.351e-3
-1.578, 2.307e-3
-1.577, 2.274e-3
-1.576, 2.238e-3
-1.575, 2.200e-3
-1.574, 2.176e-3
-1.573, 2.143e-3
-1.572, 2.112e-3
-1.571, 2.081e-3
-1.570, 2.058e-3
-1.569, 2.027e-3
-1.568, 2.002e-3
-1.567, 1.970e-3
-1.566, 1.937e-3
-1.565, 1.911e-3
-1.564, 1.882e-3
-1.563, 1.849e-3
-1.562, 1.824e-3
-1.561, 1.795e-3
-1.560, 1.765e-3
-1.559, 1.741e-3
-1.558, 1.711e-3
-1.557, 1.686e-3
-1.556, 1.662e-3
-1.555, 1.639e-3
-1.554, 1.611e-3
-1.553, 1.583e-3
-1.552, 1.557e-3
-1.551, 1.531e-3
-1.550, 1.507e-3
-1.549, 1.480e-3
-1.548, 1.455e-3
-1.547, 1.432e-3
-1.546, 1.409e-3
-1.545, 1.387e-3
-1.544, 1.364e-3
-1.543, 1.339e-3
-1.542, 1.318e-3
-1.541, 1.297e-3
-1.540, 1.275e-3
-1.539, 1.258e-3
-1.538, 1.238e-3
-1.537, 1.219e-3
-1.536, 1.203e-3
-1.535, 1.187e-3
-1.534, 1.166e-3
-1.533, 1.145e-3
-1.532, 1.124e-3
-1.531, 1.104e-3
-1.530, 1.087e-3
-1.529, 1.070e-3
-1.528, 1.050e-3
-1.527, 1.032e-3
-1.526, 1.013e-3
-1.525, 9.961e-4
-1.524, 9.778e-4
-1.523, 9.595e-4
-1.522, 9.417e-4
-1.521, 9.248e-4
-1.520, 9.084e-4
-1.519, 8.930e-4
-1.518, 8.761e-4
-1.517, 8.599e-4
-1.516, 8.448e-4
-1.515, 8.309e-4
-1.514, 8.157e-4
-1.513, 8.021e-4
-1.512, 7.873e-4
-1.511, 7.730e-4
-1.510, 7.604e-4
-1.509, 7.458e-4
-1.508, 7.317e-4
-1.507, 7.183e-4
-1.506, 7.061e-4
-1.505, 6.948e-4
-1.504, 6.825e-4
-1.503, 6.689e-4
-1.502, 6.557e-4
-1.501, 6.436e-4
-1.500, 6.328e-4
-1.499, 6.217e-4
-1.498, 6.097e-4
-1.497, 5.973e-4
-1.496, 5.874e-4
-1.495, 5.775e-4
-1.494, 5.667e-4
-1.493, 5.554e-4
-1.492, 5.442e-4
-1.491, 5.347e-4
-1.490, 5.254e-4
-1.489, 5.154e-4
-1.488, 5.057e-4
-1.487, 4.953e-4
-1.486, 4.864e-4
-1.485, 4.785e-4
-1.484, 4.694e-4
-1.483, 4.597e-4
-1.482, 4.503e-4
-1.481, 4.418e-4
-1.480, 4.351e-4
-1.479, 4.263e-4
-1.478, 4.178e-4
-1.477, 4.102e-4
-1.476, 4.028e-4
-1.475, 3.961e-4
-1.474, 3.887e-4
-1.473, 3.805e-4
-1.472, 3.726e-4
-1.471, 3.662e-4
-1.470, 3.595e-4
-1.469, 3.531e-4
-1.468, 3.456e-4
-1.467, 3.384e-4
-1.466, 3.325e-4
-1.465, 3.269e-4
-1.464, 3.203e-4
-1.463, 3.137e-4
-1.462, 3.070e-4
-1.461, 3.018e-4
-1.460, 2.967e-4
-1.459, 2.905e-4
-1.458, 2.845e-4
-1.457, 2.784e-4
-1.456, 2.738e-4
-1.455, 2.689e-4
-1.454, 2.635e-4
-1.453, 2.576e-4
-1.452, 2.522e-4
-1.451, 2.479e-4
-1.450, 2.438e-4
-1.449, 2.387e-4
-1.448, 2.333e-4
-1.447, 2.283e-4
-1.446, 2.244e-4
-1.445, 2.208e-4
-1.444, 2.165e-4
-1.443, 2.113e-4
-1.442, 2.067e-4
-1.441, 2.031e-4
-1.440, 1.997e-4
-1.439, 1.956e-4
-1.438, 1.909e-4
-1.437, 1.868e-4
-1.436, 1.837e-4
-1.435, 1.806e-4
-1.434, 1.766e-4
-1.433, 1.724e-4
-1.432, 1.682e-4
-1.431, 1.656e-4
-1.430, 1.629e-4
-1.429, 1.593e-4
-1.428, 1.552e-4
-1.427, 1.516e-4
-1.426, 1.493e-4
-1.425, 1.468e-4
-1.424, 1.435e-4
-1.423, 1.397e-4
-1.422, 1.365e-4
-1.421, 1.343e-4
-1.420, 1.322e-4
-1.419, 1.291e-4
-1.418, 1.257e-4
-1.417, 1.226e-4
-1.416, 1.208e-4
-1.415, 1.189e-4
-1.414, 1.161e-4
-1.413, 1.128e-4
-1.412, 1.102e-4
-1.411, 1.086e-4
-1.410, 1.069e-4
-1.409, 1.043e-4
-1.408, 1.013e-4
-1.407, 9.883e-5
-1.406, 9.725e-5
-1.405, 9.591e-5
-1.404, 9.350e-5
-1.403, 9.058e-5
-1.402, 8.836e-5
-1.401, 8.709e-5
-1.400, 8.578e-5
-1.399, 8.353e-5
-1.398, 8.096e-5
-1.397, 7.876e-5
-1.396, 7.773e-5
-1.395, 7.658e-5
-1.394, 7.452e-5
-1.393, 7.204e-5
-1.392, 7.022e-5
-1.391, 6.938e-5
-1.390, 6.842e-5
-1.389, 6.655e-5
-1.388, 6.431e-5
-1.387, 6.259e-5
-1.386, 6.190e-5
-1.385, 6.094e-5
-1.384, 5.931e-5
-1.383, 5.697e-5
-1.382, 5.545e-5
-1.381, 5.479e-5
-1.380, 5.413e-5
-1.379, 5.255e-5
-1.378, 5.042e-5
-1.377, 4.903e-5
-1.376, 4.864e-5
-1.375, 4.804e-5
-1.374, 4.644e-5
-1.373, 4.453e-5
-1.372, 4.326e-5
-1.371, 4.293e-5
-1.370, 4.248e-5
-1.369, 4.096e-5
-1.368, 3.928e-5
-1.367, 3.795e-5
-1.366, 3.772e-5
-1.365, 3.747e-5
-1.364, 3.610e-5
-1.363, 3.423e-5
-1.362, 3.316e-5
-1.361, 3.303e-5
-1.360, 3.280e-5
-1.359, 3.151e-5
-1.358, 2.971e-5
-1.357, 2.878e-5
-1.356, 2.870e-5
-1.355, 2.842e-5
-1.354, 2.723e-5
-1.353, 2.558e-5
-1.352, 2.486e-5
-1.351, 2.486e-5
-1.350, 2.480e-5
-1.349, 2.344e-5
-1.348, 2.198e-5
-1.347, 2.113e-5
-1.346, 2.140e-5
-1.345, 2.135e-5
-1.344, 2.015e-5
-1.343, 1.881e-5
-1.342, 1.792e-5
-1.341, 1.814e-5
-1.340, 1.803e-5
-1.339, 1.696e-5
-1.338, 1.563e-5
-1.337, 1.494e-5
-1.336, 1.525e-5
-1.335, 1.538e-5
-1.334, 1.444e-5
-1.333, 1.312e-5
-1.332, 1.254e-5
-1.331, 1.274e-5
-1.330, 1.300e-5
-1.329, 1.191e-5
-1.328, 1.068e-5
-1.327, 1.018e-5
-1.326, 1.058e-5
-1.325, 1.078e-5
-1.324, 9.805e-6
-1.323, 8.621e-6
-1.322, 8.177e-6
-1.321, 8.611e-6
-1.320, 8.848e-6
-1.319, 7.920e-6
-1.318, 6.579e-6
-1.317, 6.322e-6
-1.316, 6.845e-6
-1.315, 6.983e-6
-1.314, 6.105e-6
-1.313, 5.010e-6
-1.312, 4.625e-6
-1.311, 5.148e-6
-1.310, 5.434e-6
-1.309, 4.556e-6
-1.308, 3.589e-6
-1.307, 3.116e-6
-1.306, 3.727e-6
-1.305, 3.757e-6
-1.304, 3.126e-6
-1.303, 2.070e-6
-1.302, 1.715e-6
-1.301, 2.405e-6
-1.300, 2.642e-6
-1.299, 1.665e-6
-1.298, 8.366e-7
-1.297, 5.801e-7
-1.296, 1.162e-6
-1.295, 1.488e-6
-1.294, 6.097e-7
-1.293, -3.867e-7
-1.292, -6.235e-7
-1.291, 3.749e-8
-1.290, 3.729e-7
-1.289, -4.657e-7
-1.288, -1.334e-6
-1.287, -1.590e-6
-1.286, -9.590e-7
-1.285, -5.841e-7
-1.284, -1.354e-6
-1.283, -2.429e-6
-1.282, -2.478e-6
-1.281, -1.867e-6
-1.280, -1.551e-6
-1.279, -2.251e-6
-1.278, -3.297e-6
-1.277, -3.327e-6
-1.276, -2.567e-6
-1.275, -2.360e-6
-1.274, -3.189e-6
-1.273, -4.096e-6
-1.272, -4.156e-6
-1.271, -3.337e-6
-1.270, -3.129e-6
-1.269, -3.820e-6
-1.268, -4.817e-6
-1.267, -4.974e-6
-1.266, -4.037e-6
-1.265, -3.850e-6
-1.264, -4.550e-6
-1.263, -5.487e-6
-1.262, -5.606e-6
-1.261, -4.747e-6
-1.260, -4.432e-6
-1.259, -5.261e-6
-1.258, -6.070e-6
-1.257, -6.158e-6
-1.256, -5.241e-6
-1.255, -4.994e-6
-1.254, -5.734e-6
-1.253, -6.721e-6
-1.252, -6.681e-6
-1.251, -6.020e-6
-1.250, -5.507e-6
-1.249, -6.326e-6
-1.248, -7.234e-6
-1.247, -7.253e-6
-1.246, -6.306e-6
-1.245, -6.129e-6
-1.244, -6.898e-6
-1.243, -7.806e-6
-1.242, -7.776e-6
-1.241, -6.957e-6
-1.240, -6.533e-6
-1.239, -7.263e-6
-1.238, -8.329e-6
-1.237, -8.132e-6
-1.236, -7.263e-6
-1.235, -7.036e-6
-1.234, -7.658e-6
-1.233, -8.704e-6
-1.232, -8.575e-6
-1.231, -7.648e-6
-1.230, -7.313e-6
-1.229, -8.437e-6
-1.228, -9.227e-6
-1.227, -9.187e-6
-1.226, -8.191e-6
-1.225, -7.924e-6
-1.224, -8.625e-6
-1.223, -9.503e-6
-1.222, -9.552e-6
-1.221, -8.457e-6
-1.220, -8.240e-6
-1.219, -9.049e-6
-1.218, -1.001e-5
-1.217, -9.868e-6
-1.216, -8.862e-6
-1.215, -8.585e-6
-1.214, -9.404e-6
-1.213, -1.024e-5
-1.212, -1.019e-5
-1.211, -9.306e-6
-1.210, -8.960e-6
-1.209, -9.878e-6
-1.208, -1.057e-5
-1.207, -1.053e-5
-1.206, -9.542e-6
-1.205, -9.118e-6
-1.204, -1.008e-5
-1.203, -1.103e-5
-1.202, -1.082e-5
-1.201, -9.967e-6
-1.200, -9.700e-6
-1.199, -1.053e-5
-1.198, -1.145e-5
-1.197, -1.117e-5
-1.196, -1.013e-5
-1.195, -9.986e-6
-1.194, -1.078e-5
-1.193, -1.173e-5
-1.192, -1.144e-5
-1.191, -1.042e-5
-1.190, -1.039e-5
-1.189, -1.105e-5
-1.188, -1.206e-5
-1.187, -1.186e-5
-1.186, -1.073e-5
-1.185, -1.055e-5
-1.184, -1.140e-5
-1.183, -1.232e-5
-1.182, -1.210e-5
-1.181, -1.098e-5
-1.180, -1.083e-5
-1.179, -1.177e-5
-1.178, -1.285e-5
-1.177, -1.247e-5
-1.176, -1.137e-5
-1.175, -1.124e-5
-1.174, -1.211e-5
-1.173, -1.295e-5
-1.172, -1.265e-5
-1.171, -1.168e-5
-1.170, -1.149e-5
-1.169, -1.252e-5
-1.168, -1.330e-5
-1.167, -1.288e-5
-1.166, -1.203e-5
-1.165, -1.180e-5
-1.164, -1.280e-5
-1.163, -1.373e-5
-1.162, -1.322e-5
-1.161, -1.229e-5
-1.160, -1.203e-5
-1.159, -1.299e-5
-1.158, -1.400e-5
-1.157, -1.359e-5
-1.156, -1.254e-5
-1.155, -1.258e-5
-1.154, -1.331e-5
-1.153, -1.425e-5
-1.152, -1.400e-5
-1.151, -1.288e-5
-1.150, -1.284e-5
-1.149, -1.363e-5
-1.148, -1.461e-5
-1.147, -1.430e-5
-1.146, -1.320e-5
-1.145, -1.316e-5
-1.144, -1.394e-5
-1.143, -1.489e-5
-1.142, -1.456e-5
-1.141, -1.349e-5
-1.140, -1.336e-5
-1.139, -1.450e-5
-1.138, -1.522e-5
-1.137, -1.500e-5
-1.136, -1.377e-5
-1.135, -1.375e-5
-1.134, -1.467e-5
-1.133, -1.561e-5
-1.132, -1.525e-5
-1.131, -1.415e-5
-1.130, -1.410e-5
-1.129, -1.512e-5
-1.128, -1.593e-5
-1.127, -1.563e-5
-1.126, -1.453e-5
-1.125, -1.446e-5
-1.124, -1.542e-5
-1.123, -1.635e-5
-1.122, -1.579e-5
-1.121, -1.479e-5
-1.120, -1.480e-5
-1.119, -1.578e-5
-1.118, -1.675e-5
-1.117, -1.605e-5
-1.116, -1.514e-5
-1.115, -1.508e-5
-1.114, -1.611e-5
-1.113, -1.707e-5
-1.112, -1.648e-5
-1.111, -1.546e-5
-1.110, -1.551e-5
-1.109, -1.647e-5
-1.108, -1.729e-5
-1.107, -1.684e-5
-1.106, -1.577e-5
-1.105, -1.579e-5
-1.104, -1.679e-5
-1.103, -1.761e-5
-1.102, -1.718e-5
-1.101, -1.607e-5
-1.100, -1.611e-5
-1.099, -1.717e-5
-1.098, -1.787e-5
-1.097, -1.746e-5
-1.096, -1.631e-5
-1.095, -1.632e-5
-1.094, -1.748e-5
-1.093, -1.824e-5
-1.092, -1.765e-5
-1.091, -1.668e-5
-1.090, -1.671e-5
-1.089, -1.771e-5
-1.088, -1.862e-5
-1.087, -1.798e-5
-1.086, -1.696e-5
-1.085, -1.698e-5
-1.084, -1.803e-5
-1.083, -1.877e-5
-1.082, -1.827e-5
-1.081, -1.716e-5
-1.080, -1.716e-5
-1.079, -1.831e-5
-1.078, -1.911e-5
-1.077, -1.846e-5
-1.076, -1.746e-5
-1.075, -1.767e-5
-1.074, -1.866e-5
-1.073, -1.944e-5
-1.072, -1.876e-5
-1.071, -1.768e-5
-1.070, -1.783e-5
-1.069, -1.887e-5
-1.068, -1.967e-5
-1.067, -1.910e-5
-1.066, -1.784e-5
-1.065, -1.811e-5
-1.064, -1.908e-5
-1.063, -1.984e-5
-1.062, -1.928e-5
-1.061, -1.813e-5
-1.060, -1.837e-5
-1.059, -1.952e-5
-1.058, -2.006e-5
-1.057, -1.941e-5
-1.056, -1.836e-5
-1.055, -1.850e-5
-1.054, -1.972e-5
-1.053, -2.043e-5
-1.052, -1.963e-5
-1.051, -1.868e-5
-1.050, -1.877e-5
-1.049, -2.004e-5
-1.048, -2.068e-5
-1.047, -1.999e-5
-1.046, -1.888e-5
-1.045, -1.895e-5
-1.044, -2.020e-5
-1.043, -2.097e-5
-1.042, -2.017e-5
-1.041, -1.909e-5
-1.040, -1.917e-5
-1.039, -2.040e-5
-1.038, -2.118e-5
-1.037, -2.029e-5
-1.036, -1.931e-5
-1.035, -1.962e-5
-1.034, -2.078e-5
-1.033, -2.145e-5
-1.032, -2.064e-5
-1.031, -1.959e-5
-1.030, -1.984e-5
-1.029, -2.094e-5
-1.028, -2.160e-5
-1.027, -2.093e-5
-1.026, -1.968e-5
-1.025, -2.007e-5
-1.024, -2.131e-5
-1.023, -2.189e-5
-1.022, -2.111e-5
-1.021, -2.009e-5
-1.020, -2.039e-5
-1.019, -2.149e-5
-1.018, -2.206e-5
-1.017, -2.132e-5
-1.016, -2.031e-5
-1.015, -2.052e-5
-1.014, -2.178e-5
-1.013, -2.220e-5
-1.012, -2.147e-5
-1.011, -2.051e-5
-1.010, -2.074e-5
-1.009, -2.197e-5
-1.008, -2.265e-5
-1.007, -2.178e-5
-1.006, -2.093e-5
-1.005, -2.106e-5
-1.004, -2.237e-5
-1.003, -2.295e-5
-1.002, -2.201e-5
-1.001, -2.105e-5
