Potential V vs RHE, Current mA cm-2
0.013299999999999867,-0.4384190318281749
0.012299999999999978,-1.3107300193249565
0.011299999999999866,-1.9650339955125358
0.010299999999999976,-2.532333226758415
0.009299999999999864,-3.055776407708479
0.008299999999999974,-3.447651437771094
0.007299999999999862,-3.6655169779503103
0.006299999999999972,-3.7970851288377587
0.00529999999999986,-4.0588067193127895
0.0042999999999999705,-4.3205283097878215
0.0032999999999998586,-4.494537799671222
0.0022999999999999687,-4.538393849967037
0.0012999999999998568,-4.626105950558669
0.00029999999999996696,-4.756259390146253
-0.000700000000000145,-4.9302688800296535
-0.0017000000000000348,-5.017980980621284
-0.0027000000000001467,-5.017980980621284
-0.0037000000000000366,-5.017980980621284
-0.0047000000000001485,-5.105693081212917
-0.005700000000000038,-5.279702571096316
-0.00670000000000015,-5.323558621392133
-0.00770000000000004,-5.323558621392133
-0.008700000000000152,-5.279702571096316
-0.009700000000000042,-5.411270721983764
-0.010700000000000154,-5.5414241615713475
-0.011700000000000044,-5.585280211867165
-0.012700000000000156,-5.5414241615713475
-0.013700000000000045,-5.5414241615713475
-0.014700000000000157,-5.585280211867165
-0.015700000000000047,-5.715433651454749
-0.01670000000000016,-5.759289701750564
-0.01770000000000005,-5.715433651454749
-0.01870000000000016,-5.672992312458796
-0.01970000000000005,-5.715433651454749
-0.020700000000000163,-5.847001802342197
-0.021700000000000053,-5.890857852638012
-0.022700000000000164,-5.847001802342197
-0.023700000000000054,-5.80314575204638
-0.024700000000000166,-5.890857852638012
-0.025700000000000056,-5.977155241929781
-0.026700000000000168,-6.021011292225596
-0.027700000000000058,-5.977155241929781
-0.02870000000000017,-5.9347139029338285
-0.02970000000000006,-5.977155241929781
-0.03070000000000017,-6.108723392817228
-0.03170000000000006,-6.108723392817228
-0.03270000000000017,-6.108723392817228
-0.03370000000000006,-6.021011292225596
-0.034700000000000175,-6.064867342521412
-0.035700000000000065,-6.196435493408861
-0.03670000000000018,-6.238876832404812
-0.03770000000000007,-6.152579443113044
-0.03870000000000018,-6.108723392817228
-0.03970000000000007,-6.152579443113044
-0.04070000000000018,-6.282732882700628
-0.04170000000000007,-6.326588932996443
-0.04270000000000018,-6.238876832404812
-0.04370000000000007,-6.238876832404812
-0.044700000000000184,-6.282732882700628
-0.045700000000000074,-6.37044498329226
-0.046700000000000186,-6.414301033588076
-0.047700000000000076,-6.326588932996443
-0.04870000000000019,-6.282732882700628
-0.04970000000000008,-6.37044498329226
-0.05070000000000019,-6.458157083883892
-0.05170000000000008,-6.500598422879844
-0.05270000000000019,-6.414301033588076
-0.05370000000000008,-6.37044498329226
-0.05470000000000019,-6.414301033588076
-0.05570000000000008,-6.500598422879844
-0.056700000000000195,-6.54445447317566
-0.057700000000000085,-6.500598422879844
-0.058700000000000196,-6.458157083883892
-0.059700000000000086,-6.500598422879844
-0.0607000000000002,-6.588310523471475
-0.06170000000000009,-6.632166573767292
-0.0627000000000002,-6.588310523471475
-0.06370000000000009,-6.500598422879844
-0.0647000000000002,-6.54445447317566
-0.06570000000000009,-6.6760226240631075
-0.0667000000000002,-6.6760226240631075
-0.0677000000000001,-6.632166573767292
-0.0687000000000002,-6.54445447317566
-0.0697000000000001,-6.632166573767292
-0.07070000000000021,-6.719878674358924
-0.0717000000000001,-6.762320013354876
-0.07270000000000021,-6.719878674358924
-0.0737000000000001,-6.6760226240631075
-0.07470000000000021,-6.719878674358924
-0.0757000000000001,-6.806176063650692
-0.07670000000000021,-6.806176063650692
-0.0777000000000001,-6.719878674358924
-0.07870000000000021,-6.6760226240631075
-0.0797000000000001,-6.719878674358924
-0.08070000000000022,-6.850032113946507
-0.0817000000000001,-6.850032113946507
-0.08270000000000022,-6.806176063650692
-0.08370000000000011,-6.762320013354876
-0.08470000000000022,-6.806176063650692
-0.08570000000000011,-6.93774421453814
-0.08670000000000022,-6.93774421453814
-0.08770000000000011,-6.893888164242324
-0.08870000000000022,-6.806176063650692
-0.08970000000000011,-6.850032113946507
-0.09070000000000022,-6.93774421453814
-0.09170000000000011,-6.981600264833956
-0.09270000000000023,-6.893888164242324
-0.09370000000000012,-6.850032113946507
-0.09470000000000023,-6.893888164242324
-0.09570000000000012,-6.981600264833956
-0.09670000000000023,-7.024041603829907
-0.09770000000000012,-6.93774421453814
-0.09870000000000023,-6.893888164242324
-0.09970000000000012,-6.93774421453814
-0.10070000000000023,-7.024041603829907
-0.10170000000000012,-7.024041603829907
-0.10270000000000024,-6.981600264833956
-0.10370000000000013,-6.93774421453814
-0.10470000000000024,-6.981600264833956
-0.10570000000000013,-7.067897654125724
-0.10670000000000024,-7.111753704421539
-0.10770000000000013,-7.067897654125724
-0.10870000000000024,-6.981600264833956
-0.10970000000000013,-7.024041603829907
-0.11070000000000024,-7.111753704421539
-0.11170000000000013,-7.155609754717355
-0.11270000000000002,-7.067897654125724
-0.11370000000000013,-7.024041603829907
-0.11470000000000002,-7.067897654125724
-0.11570000000000014,-7.199465805013171
-0.11670000000000003,-7.243321855308987
-0.11770000000000014,-7.155609754717355
-0.11870000000000003,-7.111753704421539
-0.11970000000000014,-7.155609754717355
-0.12070000000000003,-7.243321855308987
-0.12170000000000014,-7.243321855308987
-0.12270000000000003,-7.155609754717355
-0.12370000000000014,-7.111753704421539
-0.12470000000000003,-7.199465805013171
-0.12570000000000014,-7.28576319430494
-0.12670000000000003,-7.28576319430494
-0.12770000000000015,-7.243321855308987
-0.12870000000000004,-7.199465805013171
-0.12970000000000015,-7.243321855308987
-0.13070000000000004,-7.329619244600755
-0.13170000000000015,-7.37347529489657
-0.13270000000000004,-7.28576319430494
-0.13370000000000015,-7.243321855308987
-0.13470000000000004,-7.28576319430494
-0.13570000000000015,-7.37347529489657
-0.13670000000000004,-7.37347529489657
-0.13770000000000016,-7.329619244600755
-0.13870000000000005,-7.243321855308987
-0.13970000000000016,-7.329619244600755
-0.14070000000000005,-7.4173313451923875
-0.14170000000000016,-7.4173313451923875
-0.14270000000000005,-7.37347529489657
-0.14370000000000016,-7.329619244600755
-0.14470000000000005,-7.37347529489657
-0.14570000000000016,-7.50504344578402
-0.14670000000000005,-7.50504344578402
-0.14770000000000016,-7.4173313451923875
-0.14870000000000005,-7.37347529489657
-0.14970000000000017,-7.4173313451923875
-0.15070000000000006,-7.50504344578402
-0.15170000000000017,-7.50504344578402
-0.15270000000000006,-7.50504344578402
-0.15370000000000017,-7.4173313451923875
-0.15470000000000006,-7.461187395488204
-0.15570000000000017,-7.5474847847799715
-0.15670000000000006,-7.591340835075788
-0.15770000000000017,-7.5474847847799715
-0.15870000000000006,-7.461187395488204
-0.15970000000000018,-7.50504344578402
-0.16070000000000007,-7.591340835075788
-0.16170000000000018,-7.635196885371603
-0.16270000000000007,-7.591340835075788
-0.16370000000000018,-7.5474847847799715
-0.16470000000000007,-7.591340835075788
-0.16570000000000018,-7.722908985963235
-0.16670000000000007,-7.722908985963235
-0.16770000000000018,-7.679052935667419
-0.16870000000000007,-7.591340835075788
-0.16970000000000018,-7.635196885371603
-0.17070000000000007,-7.7653503249591855
-0.17170000000000019,-7.7653503249591855
-0.17270000000000008,-7.722908985963235
-0.1737000000000002,-7.635196885371603
-0.17470000000000008,-7.679052935667419
-0.1757000000000002,-7.809206375255003
-0.17670000000000008,-7.809206375255003
-0.1777000000000002,-7.7653503249591855
-0.17870000000000008,-7.679052935667419
-0.1797000000000002,-7.7653503249591855
-0.18070000000000008,-7.853062425550818
-0.1817000000000002,-7.896918475846635
-0.18270000000000008,-7.809206375255003
-0.1837000000000002,-7.7653503249591855
-0.1847000000000001,-7.809206375255003
-0.1857000000000002,-7.940774526142452
-0.1867000000000001,-7.940774526142452
-0.1877000000000002,-7.853062425550818
-0.1887000000000001,-7.809206375255003
-0.1897000000000002,-7.896918475846635
-0.1907000000000001,-7.984630576438266
-0.1917000000000001,-8.027071915434218
-0.19269999999999998,-7.940774526142452
-0.1937000000000001,-7.896918475846635
-0.19469999999999998,-7.940774526142452
-0.1957000000000001,-8.027071915434218
-0.19669999999999999,-8.070927965730034
-0.1977000000000001,-8.027071915434218
-0.1987,-7.984630576438266
-0.1997000000000001,-8.027071915434218
-0.2007,-8.11478401602585
-0.2017000000000001,-8.158640066321666
-0.2027,-8.070927965730034
-0.2037000000000001,-8.027071915434218
-0.2047,-8.11478401602585
-0.2057000000000001,-8.202496116617484
-0.2067,-8.202496116617484
-0.2077000000000001,-8.158640066321666
-0.2087,-8.11478401602585
-0.2097000000000001,-8.202496116617484
-0.2107,-8.288793505909249
-0.2117000000000001,-8.288793505909249
-0.2127,-8.202496116617484
-0.2137000000000001,-8.202496116617484
-0.2147,-8.246352166913299
-0.2157000000000001,-8.376505606500881
-0.2167,-8.376505606500881
-0.21770000000000012,-8.332649556205066
-0.2187,-8.288793505909249
-0.21970000000000012,-8.376505606500881
-0.2207,-8.464217707092514
-0.22170000000000012,-8.508073757388331
-0.2227,-8.4203616567967
-0.22370000000000012,-8.376505606500881
-0.2247,-8.4203616567967
-0.22570000000000012,-8.55051509638428
-0.2267,-8.55051509638428
-0.22770000000000012,-8.508073757388331
-0.22870000000000001,-8.464217707092514
-0.22970000000000013,-8.55051509638428
-0.23070000000000002,-8.638227196975913
-0.23170000000000013,-8.638227196975913
-0.23270000000000002,-8.594371146680096
-0.23370000000000013,-8.594371146680096
-0.23470000000000002,-8.638227196975913
-0.23570000000000013,-8.769795347863363
-0.23670000000000002,-8.769795347863363
-0.2376999999999999,-8.725939297567548
-0.23870000000000002,-8.68208324727173
-0.2396999999999999,-8.769795347863363
-0.24070000000000003,-8.85609273715513
-0.24169999999999991,-8.899948787450944
-0.24270000000000003,-8.85609273715513
-0.24369999999999992,-8.812236686859313
-0.24470000000000003,-8.899948787450944
-0.24569999999999992,-8.987660888042578
-0.24670000000000003,-9.031516938338395
-0.24769999999999992,-8.987660888042578
-0.24870000000000003,-8.987660888042578
-0.24969999999999992,-9.031516938338395
-0.25070000000000003,-9.161670377925978
-0.2516999999999999,-9.205526428221793
-0.25270000000000004,-9.161670377925978
-0.2536999999999999,-9.161670377925978
-0.25470000000000004,-9.24938247851761
-0.2556999999999999,-9.335679867809377
-0.25670000000000004,-9.379535918105192
-0.25769999999999993,-9.335679867809377
-0.25870000000000004,-9.335679867809377
-0.25969999999999993,-9.423391968401008
-0.26070000000000004,-9.55496011928846
-0.26169999999999993,-9.59740145828441
-0.26270000000000004,-9.55496011928846
-0.26369999999999993,-9.55496011928846
-0.26470000000000005,-9.641257508580225
-0.26569999999999994,-9.772825659467674
-0.26670000000000005,-9.85912304875944
-0.26769999999999994,-9.81668170976349
-0.26870000000000005,-9.81668170976349
-0.26969999999999994,-9.902979099055257
-0.27070000000000005,-10.034547249942705
-0.27169999999999994,-10.078403300238522
-0.27270000000000005,-10.034547249942705
-0.27369999999999994,-10.078403300238522
-0.27470000000000006,-10.164700689530287
-0.27569999999999995,-10.340124890713554
-0.27670000000000006,-10.382566229709504
-0.27769999999999995,-10.382566229709504
-0.27870000000000006,-10.382566229709504
-0.27969999999999995,-10.514134380596953
-0.28070000000000006,-10.644287820184536
-0.28169999999999995,-10.731999920776168
-0.28270000000000006,-10.731999920776168
-0.28369999999999995,-10.731999920776168
-0.28470000000000006,-10.863568071663616
-0.28569999999999995,-11.037577561547016
-0.28670000000000007,-11.123874950838783
-0.28769999999999996,-11.123874950838783
-0.28870000000000007,-11.1677310011346
-0.28969999999999996,-11.255443101726232
-0.29070000000000007,-11.473308641905447
-0.29169999999999996,-11.517164692201263
-0.29270000000000007,-11.56102074249708
-0.29369999999999996,-11.604876792792895
-0.2947000000000001,-11.778886282676295
-0.29569999999999996,-11.909039722263879
-0.2967000000000001,-12.040607873151327
-0.29769999999999996,-12.084463923447142
-0.2987000000000001,-12.12831997374296
-0.29969999999999997,-12.258473413330542
-0.3007000000000001,-12.432482903213943
-0.30169999999999997,-12.56405105410139
-0.3027000000000001,-12.607907104397206
-0.30369999999999997,-12.694204493688973
-0.3047000000000001,-12.869628694872238
-0.30569999999999997,-13.043638184755638
-0.3067000000000001,-13.175206335643086
-0.3077,-13.217647674639037
-0.3087000000000001,-13.30535977523067
-0.3097,-13.47936926511407
-0.3107000000000001,-13.698649516593148
-0.3117,-13.828802956180734
-0.3127000000000001,-13.916515056772363
-0.3137,-14.002812446064135
-0.3147000000000001,-14.217848563643619
-0.3157,-14.444202371622024
-0.3167000000000001,-14.61396772760583
-0.3177,-14.65640906660178
-0.3187000000000001,-14.783733083589633
-0.3197,-14.967645552572087
-0.3207000000000001,-15.222293586547794
-0.3217,-15.3920589425316
-0.3227000000000001,-15.533530072518102
-0.3237,-15.660854089505953
-0.3247000000000001,-15.87306078448571
-0.3257,-16.141855931460068
-0.3267000000000001,-16.354062626439823
-0.3277,-16.495533756426326
-0.3287000000000001,-16.622857773414182
-0.3297,-16.877505807389888
-0.3307000000000001,-17.146300954364243
-0.3317,-17.358507649344002
-0.3327000000000001,-17.542420118326454
-0.3337,-17.71218547431026
-0.3347000000000001,-18.009274847281915
-0.3357,-18.320511333252224
-0.3367000000000001,-18.589306480226583
-0.3377,-18.759071836210385
-0.3387000000000001,-18.92883719219419
-0.3397,-19.28251501716045
-0.3407000000000001,-19.579604390132108
-0.3417,-19.848399537106463
-0.3427000000000001,-20.01816489309027
-0.3437,-20.286960040064624
-0.3447000000000001,-20.626490752032236
-0.3457,-21.022609915994444
-0.3467000000000001,-21.333846401964752
-0.3477,-21.58849443594046
-0.3487000000000001,-21.857289582914817
-0.3497,-22.196820294882425
-0.3507000000000001,-22.592939458844636
-0.3517,-22.946617283810895
-0.3527000000000001,-23.2012653177866
-0.3537,-23.51250180375691
-0.3547000000000001,-23.908620967719123
-0.3557,-24.389622809673234
-0.35670000000000013,-24.814036199632742
-0.3577,-25.12527268560305
-0.35870000000000013,-25.43650917157336
-0.3597,-25.86092256153287
-0.36070000000000013,-26.38436574248293
-0.3617,-26.780484906445146
-0.3626999999999999,-27.091721392415455
-0.3637,-27.487840556377662
-0.3646999999999999,-27.954695285333123
-0.3657,-28.53472691827779
-0.3666999999999999,-29.001581647233255
-0.3677,-29.440142150191413
-0.3686999999999999,-29.878702653149578
-0.36970000000000003,-30.444587173095588
-0.3706999999999999,-31.052913032037555
-0.37170000000000003,-31.533914873991666
-0.3726999999999999,-31.972475376949827
-0.37370000000000003,-32.41103587990799
-0.3746999999999999,-32.97692039985401
-0.37570000000000003,-33.58524625879597
-0.3766999999999999,-34.193572117737936
-0.37770000000000004,-34.67457395969205
-0.3786999999999999,-35.198017140642115
-0.37970000000000004,-35.848784338580025
-0.3806999999999999,-36.5985813275085
-0.38170000000000004,-37.206907186450465
-0.38269999999999993,-37.73035036740053
-0.38370000000000004,-38.29623488734655
-0.38469999999999993,-38.94700208528445
-0.38570000000000004,-39.61191639622103
-0.38669999999999993,-40.220242255162994
-0.38770000000000004,-40.828568114104954
-0.38869999999999993,-41.39445263405098
-0.38970000000000005,-42.186690961975394
-0.39069999999999994,-42.96478217690117
-0.39170000000000005,-43.657990713835034
-0.39269999999999994,-44.28046368577565
-0.39370000000000005,-44.88878954471762
-0.39469999999999994,-45.666880759643384
-0.39570000000000005,-46.45911908756781
-0.39669999999999994,-47.19476896349763
-0.39770000000000005,-47.84553616143554
-0.39869999999999994,-48.55289181136806
-0.39970000000000006,-49.33098302629383
-0.40069999999999995,-50.1656626932142
-0.40170000000000006,-50.98619524713592
-0.40269999999999995,-51.69355089706845
-0.40370000000000006,-52.42920077299826
-0.40469999999999995,-53.22143910092268
-0.40570000000000006,-54.0419716548444
-0.40669999999999995,-54.876651321764776
-0.40770000000000006,-55.56985985869864
-0.40869999999999995,-56.30550973462846
-0.40970000000000006,-57.14018940154883
-0.41069999999999995,-58.017310407465146
-0.41170000000000007,-58.79540162239092
-0.41269999999999996,-59.587639950315335
-0.41370000000000007,-60.36573116524111
-0.41469999999999996,-61.15796949316553
-0.41570000000000007,-62.06338472507916
-0.41669999999999996,-63.02538840898739
-0.41770000000000007,-63.860068075907755
-0.41869999999999996,-64.59571795183757
-0.4197000000000001,-65.4728389577539
-0.42069999999999996,-66.43484264166212
-0.4217000000000001,-67.25537519558385
-0.42269999999999996,-68.04761352350828
-0.4237000000000001,-68.86814607742998
-0.42469999999999997,-69.78770842234226
-0.4257000000000001,-70.66482942825859
-0.42669999999999997,-71.48536198218031
-0.4277000000000001,-72.32004164910067
-0.42869999999999997,-73.15472131602105
-0.4297000000000001,-74.06013654793468
-0.43069999999999997,-74.93725755385098
-0.4317000000000001,-75.8992612377592
-0.4327,-76.9037062606634
-0.4337000000000001,-77.76668015358106
-0.4347,-78.55891848150549
-0.4357000000000001,-79.47848082641775
-0.4367,-80.52536718831789
-0.4377000000000001,-81.38834108123557
-0.4387,-82.13813807016405
-0.4397000000000001,-83.04355330207765
-0.4407,-84.13288100297372
-0.4417000000000001,-85.052443347886
-0.4427,-85.80224033681448
-0.4437000000000001,-86.66521422973216
-0.4447,-87.62721791364037
-0.4457000000000001,-88.6741042755405
-0.4467,-89.63610795944872
-0.4477000000000001,-90.47078762636909
-0.4487,-91.33376151928677
-0.4497000000000001,-92.3806478811869
-0.4507,-93.38509290409107
-0.4517000000000001,-94.26221391000739
-0.4527,-95.22421759391563
-0.4537000000000001,-96.44086931179956
-0.4547,-97.40287299570777
-0.4557000000000001,-98.09608153264163
-0.4567,-99.01564387755391
-0.4577000000000001,-99.93520622246619
-0.4587,-100.88306279337576
-0.4597000000000001,-101.88750781627995
-0.4607,-102.93439417818009
-0.4617000000000001,-103.89639786208829
-0.4627,-104.85840154599651
-0.4637000000000001,-105.63649276092228
-0.4647,-106.4287310888467
-0.4657000000000001,-107.47561745074682
-0.4667,-108.56494515164292
-0.4677000000000001,-109.39962481856328
-0.4687,-110.40406984146746
-0.4697000000000001,-111.49339754236355
-0.4707,-112.54028390426367
-0.4717000000000001,-113.36081645818538
-0.4727,-114.11061344711386
-0.4737000000000001,-114.97358734003153
-0.4747,-116.06291504092759
-0.4757000000000001,-117.06736006383179
-0.4767,-117.77471571376431
-0.4777000000000001,-118.55280692869007
-0.4787,-119.47236927360234
-0.4797000000000001,-120.39193161851462
-0.4807,-121.21246417243634
-0.48170000000000013,-122.1320265173486
-0.4827,-123.1364715402528
-0.48370000000000013,-123.99944543317046
-0.4847,-124.87656643908679
-0.48570000000000013,-125.88101146199097
-0.4867,-126.3195719649491
-0.48570000000000013,-124.9614491170787
-0.4847,-123.87212141618261
-0.48370000000000013,-123.00914752326493
-0.4827,-122.21690919534053
-0.48170000000000013,-121.2549055114323
-0.4807,-120.29290182752408
-0.4797000000000001,-119.47236927360234
-0.4787,-118.68013094567793
-0.4777000000000001,-117.94448106974811
-0.4767,-117.06736006383179
-0.4757000000000001,-116.14779771891952
-0.4747,-115.4121478429897
-0.4737000000000001,-114.71893930605583
-0.4727,-113.75693562214758
-0.4717000000000001,-112.79493193823936
-0.4707,-112.18660607929739
-0.4697000000000001,-111.3094850733811
-0.4687,-110.22015737248502
-0.4677000000000001,-109.44206615755924
-0.4667,-108.69226916863077
-0.4657000000000001,-107.914177953705
-0.4647,-106.95217426979677
-0.4637000000000001,-106.11749460287639
-0.4627,-105.29696204895468
-0.4617000000000001,-104.46228238203432
