Potential V vs RHE, Current mA cm-2
0.013299999999999867,-0.48199213986401795
0.012299999999999978,-1.6594563547416883
0.011299999999999866,-2.532333226758415
0.010299999999999976,-3.317497998183511
0.009299999999999864,-3.971094618721158
0.008299999999999974,-4.582249900262854
0.007299999999999862,-5.149549131508733
0.006299999999999972,-5.629136262162981
0.00529999999999986,-6.108723392817228
0.0042999999999999705,-6.54445447317566
0.0032999999999998586,-6.893888164242324
0.0022999999999999687,-7.199465805013171
0.0012999999999998568,-7.461187395488204
0.00029999999999996696,-7.679052935667419
-0.000700000000000145,-7.853062425550818
-0.0017000000000000348,-8.027071915434218
-0.0027000000000001467,-8.246352166913299
-0.0037000000000000366,-8.508073757388331
-0.0047000000000001485,-8.725939297567548
-0.005700000000000038,-8.899948787450944
-0.00670000000000015,-9.073958277334345
-0.00770000000000004,-9.161670377925978
-0.008700000000000152,-9.24938247851761
-0.009700000000000042,-9.335679867809377
-0.010700000000000154,-9.379535918105192
-0.011700000000000044,-9.511104068992642
-0.012700000000000156,-9.59740145828441
-0.013700000000000045,-9.772825659467674
-0.014700000000000157,-9.902979099055257
-0.015700000000000047,-9.99069119964689
-0.01670000000000016,-10.078403300238522
-0.01770000000000005,-10.120844639234473
-0.01870000000000016,-10.164700689530287
-0.01970000000000005,-10.208556739826104
-0.020700000000000163,-10.208556739826104
-0.021700000000000053,-10.25241279012192
-0.022700000000000164,-10.340124890713554
-0.023700000000000054,-10.470278330301136
-0.024700000000000166,-10.557990430892769
-0.025700000000000056,-10.644287820184536
-0.026700000000000168,-10.731999920776168
-0.027700000000000058,-10.775855971071984
-0.02870000000000017,-10.775855971071984
-0.02970000000000006,-10.775855971071984
-0.03070000000000017,-10.775855971071984
-0.03170000000000006,-10.819712021367803
-0.03270000000000017,-10.906009410659568
-0.03370000000000006,-10.949865460955383
-0.034700000000000175,-11.037577561547016
-0.035700000000000065,-11.123874950838783
-0.03670000000000018,-11.1677310011346
-0.03770000000000007,-11.211587051430415
-0.03870000000000018,-11.211587051430415
-0.03970000000000007,-11.211587051430415
-0.04070000000000018,-11.211587051430415
-0.04170000000000007,-11.211587051430415
-0.04270000000000018,-11.255443101726232
-0.04370000000000007,-11.343155202317865
-0.044700000000000184,-11.42945259160963
-0.045700000000000074,-11.517164692201263
-0.046700000000000186,-11.56102074249708
-0.047700000000000076,-11.604876792792895
-0.04870000000000019,-11.604876792792895
-0.04970000000000008,-11.56102074249708
-0.05070000000000019,-11.56102074249708
-0.05170000000000008,-11.56102074249708
-0.05270000000000019,-11.647318131788847
-0.05370000000000008,-11.691174182084664
-0.05470000000000019,-11.82274233297211
-0.05570000000000008,-11.86659838326793
-0.056700000000000195,-11.909039722263879
-0.057700000000000085,-11.909039722263879
-0.058700000000000196,-11.909039722263879
-0.059700000000000086,-11.909039722263879
-0.0607000000000002,-11.86659838326793
-0.06170000000000009,-11.909039722263879
-0.0627000000000002,-11.952895772559694
-0.06370000000000009,-11.996751822855511
-0.0647000000000002,-12.084463923447142
-0.06570000000000009,-12.12831997374296
-0.0667000000000002,-12.170761312738911
-0.0677000000000001,-12.170761312738911
-0.0687000000000002,-12.170761312738911
-0.0697000000000001,-12.12831997374296
-0.07070000000000021,-12.12831997374296
-0.0717000000000001,-12.12831997374296
-0.07270000000000021,-12.170761312738911
-0.0737000000000001,-12.214617363034726
-0.07470000000000021,-12.302329463626359
-0.0757000000000001,-12.346185513922174
-0.07670000000000021,-12.390041564217992
-0.0777000000000001,-12.390041564217992
-0.07870000000000021,-12.390041564217992
-0.0797000000000001,-12.346185513922174
-0.08070000000000022,-12.346185513922174
-0.0817000000000001,-12.346185513922174
-0.08270000000000022,-12.390041564217992
-0.08370000000000011,-12.432482903213943
-0.08470000000000022,-12.520195003805576
-0.08570000000000011,-12.56405105410139
-0.08670000000000022,-12.607907104397206
-0.08770000000000011,-12.607907104397206
-0.08870000000000022,-12.607907104397206
-0.08970000000000011,-12.56405105410139
-0.09070000000000022,-12.56405105410139
-0.09170000000000011,-12.56405105410139
-0.09270000000000023,-12.607907104397206
-0.09370000000000012,-12.607907104397206
-0.09470000000000023,-12.694204493688973
-0.09570000000000012,-12.781916594280606
-0.09670000000000023,-12.781916594280606
-0.09770000000000012,-12.781916594280606
-0.09870000000000023,-12.781916594280606
-0.09970000000000012,-12.73806054398479
-0.10070000000000023,-12.694204493688973
-0.10170000000000012,-12.694204493688973
-0.10270000000000024,-12.73806054398479
-0.10370000000000013,-12.781916594280606
-0.10470000000000024,-12.825772644576423
-0.10570000000000013,-12.913484745168056
-0.10670000000000024,-12.913484745168056
-0.10770000000000013,-12.955926084164007
-0.10870000000000024,-12.913484745168056
-0.10970000000000013,-12.869628694872238
-0.11070000000000024,-12.869628694872238
-0.11170000000000013,-12.869628694872238
-0.11270000000000002,-12.913484745168056
-0.11370000000000013,-12.955926084164007
-0.11470000000000002,-12.99978213445982
-0.11570000000000014,-13.087494235051453
-0.11670000000000003,-13.087494235051453
-0.11770000000000014,-13.087494235051453
-0.11870000000000003,-13.087494235051453
-0.11970000000000014,-13.043638184755638
-0.12070000000000003,-13.043638184755638
-0.12170000000000014,-12.99978213445982
-0.12270000000000003,-13.043638184755638
-0.12370000000000014,-13.087494235051453
-0.12470000000000003,-13.175206335643086
-0.12570000000000014,-13.217647674639037
-0.12670000000000003,-13.261503724934855
-0.12770000000000015,-13.217647674639037
-0.12870000000000004,-13.217647674639037
-0.12970000000000015,-13.217647674639037
-0.13070000000000004,-13.175206335643086
-0.13170000000000015,-13.175206335643086
-0.13270000000000004,-13.175206335643086
-0.13370000000000015,-13.217647674639037
-0.13470000000000004,-13.30535977523067
-0.13570000000000015,-13.349215825526485
-0.13670000000000004,-13.3930718758223
-0.13770000000000016,-13.3930718758223
-0.13870000000000005,-13.349215825526485
-0.13970000000000016,-13.30535977523067
-0.14070000000000005,-13.30535977523067
-0.14170000000000016,-13.30535977523067
-0.14270000000000005,-13.349215825526485
-0.14370000000000016,-13.3930718758223
-0.14470000000000005,-13.436927926118118
-0.14570000000000016,-13.523225315409885
-0.14670000000000005,-13.523225315409885
-0.14770000000000016,-13.523225315409885
-0.14870000000000005,-13.523225315409885
-0.14970000000000017,-13.47936926511407
-0.15070000000000006,-13.436927926118118
-0.15170000000000017,-13.436927926118118
-0.15270000000000006,-13.47936926511407
-0.15370000000000017,-13.523225315409885
-0.15470000000000006,-13.567081365705702
-0.15570000000000017,-13.654793466297335
-0.15670000000000006,-13.698649516593148
-0.15770000000000017,-13.654793466297335
-0.15870000000000006,-13.654793466297335
-0.15970000000000018,-13.610937416001518
-0.16070000000000007,-13.567081365705702
-0.16170000000000018,-13.567081365705702
-0.16270000000000007,-13.610937416001518
-0.16370000000000018,-13.654793466297335
-0.16470000000000007,-13.741090855589102
-0.16570000000000018,-13.784946905884919
-0.16670000000000007,-13.828802956180734
-0.16770000000000018,-13.784946905884919
-0.16870000000000007,-13.784946905884919
-0.16970000000000018,-13.741090855589102
-0.17070000000000007,-13.698649516593148
-0.17170000000000019,-13.698649516593148
-0.17270000000000008,-13.784946905884919
-0.1737000000000002,-13.828802956180734
-0.17470000000000008,-13.872659006476551
-0.1757000000000002,-13.916515056772363
-0.17670000000000008,-13.960371107068182
-0.1777000000000002,-13.916515056772363
-0.17870000000000008,-13.960371107068182
-0.1797000000000002,-13.916515056772363
-0.18070000000000008,-13.916515056772363
-0.1817000000000002,-13.916515056772363
-0.18270000000000008,-13.916515056772363
-0.1837000000000002,-13.960371107068182
-0.1847000000000001,-14.002812446064135
-0.1857000000000002,-14.090524546655764
-0.1867000000000001,-14.13438059695158
-0.1877000000000002,-14.13438059695158
-0.1887000000000001,-14.13438059695158
-0.1897000000000002,-14.090524546655764
-0.1907000000000001,-14.046668496359947
-0.1917000000000001,-14.046668496359947
-0.19269999999999998,-14.090524546655764
-0.1937000000000001,-14.090524546655764
-0.19469999999999998,-14.175407224647667
-0.1957000000000001,-14.26028990263957
-0.19669999999999999,-14.26028990263957
-0.1977000000000001,-14.26028990263957
-0.1987,-14.26028990263957
-0.1997000000000001,-14.217848563643619
-0.2007,-14.175407224647667
-0.2017000000000001,-14.175407224647667
-0.2027,-14.217848563643619
-0.2037000000000001,-14.26028990263957
-0.2047,-14.345172580631472
-0.2057000000000001,-14.401761032626075
-0.2067,-14.444202371622024
-0.2077000000000001,-14.401761032626075
-0.2087,-14.345172580631472
-0.2097000000000001,-14.345172580631472
-0.2107,-14.30273124163552
-0.2117000000000001,-14.345172580631472
-0.2127,-14.401761032626075
-0.2137000000000001,-14.486643710617974
-0.2147,-14.57152638860988
-0.2157000000000001,-14.65640906660178
-0.2167,-14.65640906660178
-0.21770000000000012,-14.65640906660178
-0.2187,-14.61396772760583
-0.21970000000000012,-14.65640906660178
-0.2207,-14.61396772760583
-0.22170000000000012,-14.65640906660178
-0.2227,-14.69885040559773
-0.22370000000000012,-14.69885040559773
-0.2247,-14.741291744593681
-0.22570000000000012,-14.783733083589633
-0.2267,-14.783733083589633
-0.22770000000000012,-14.826174422585586
-0.22870000000000001,-14.783733083589633
-0.22970000000000013,-14.783733083589633
-0.23070000000000002,-14.783733083589633
-0.23170000000000013,-14.741291744593681
-0.23270000000000002,-14.783733083589633
-0.23370000000000013,-14.826174422585586
-0.23470000000000002,-14.925204213576137
-0.23570000000000013,-15.01008689156804
-0.23670000000000002,-15.05252823056399
-0.2376999999999999,-15.05252823056399
-0.23870000000000002,-15.05252823056399
-0.2396999999999999,-15.05252823056399
-0.24070000000000003,-15.05252823056399
-0.24169999999999991,-15.05252823056399
-0.24270000000000003,-15.094969569559943
-0.24369999999999992,-15.137410908555893
-0.24470000000000003,-15.264734925543747
-0.24569999999999992,-15.307176264539699
-0.24670000000000003,-15.349617603535648
-0.24769999999999992,-15.349617603535648
-0.24870000000000003,-15.349617603535648
-0.24969999999999992,-15.307176264539699
-0.25070000000000003,-15.264734925543747
-0.2516999999999999,-15.307176264539699
-0.25270000000000004,-15.307176264539699
-0.2536999999999999,-15.3920589425316
-0.25470000000000004,-15.491088733522153
-0.2556999999999999,-15.533530072518102
-0.25670000000000004,-15.618412750510005
-0.25769999999999993,-15.575971411514052
-0.25870000000000004,-15.618412750510005
-0.25969999999999993,-15.575971411514052
-0.26070000000000004,-15.575971411514052
-0.26169999999999993,-15.575971411514052
-0.26270000000000004,-15.660854089505953
-0.26369999999999993,-15.70329542850191
-0.26470000000000005,-15.78817810649381
-0.26569999999999994,-15.87306078448571
-0.26670000000000005,-15.91550212348166
-0.26769999999999994,-15.972090575476265
-0.26870000000000005,-15.91550212348166
-0.26969999999999994,-15.91550212348166
-0.27070000000000005,-15.91550212348166
-0.27169999999999994,-15.972090575476265
-0.27270000000000005,-16.056973253468165
-0.27369999999999994,-16.099414592464115
-0.27470000000000006,-16.184297270456018
-0.27569999999999995,-16.269179948447924
-0.27670000000000006,-16.354062626439823
-0.27769999999999995,-16.354062626439823
-0.27870000000000006,-16.354062626439823
-0.27969999999999995,-16.396503965435777
-0.28070000000000006,-16.396503965435777
-0.28169999999999995,-16.438945304431726
-0.28270000000000006,-16.53797509542228
-0.28369999999999995,-16.622857773414182
-0.28470000000000006,-16.750181790402035
-0.28569999999999995,-16.835064468393938
-0.28670000000000007,-16.877505807389888
-0.28769999999999996,-16.919947146385837
-0.28870000000000007,-16.962388485381787
-0.28969999999999996,-17.018976937376394
-0.29070000000000007,-17.018976937376394
-0.29169999999999996,-17.061418276372343
-0.29270000000000007,-17.146300954364243
-0.29369999999999996,-17.231183632356142
-0.2947000000000001,-17.358507649344002
-0.29569999999999996,-17.4433903273359
-0.2967000000000001,-17.584861457322408
-0.29769999999999996,-17.627302796318357
-0.2987000000000001,-17.669744135314307
-0.29969999999999997,-17.669744135314307
-0.3007000000000001,-17.71218547431026
-0.30169999999999997,-17.797068152302163
-0.3027000000000001,-17.881950830294063
-0.30369999999999997,-18.009274847281915
-0.3047000000000001,-18.15074597726842
-0.30569999999999997,-18.27806999425627
-0.3067000000000001,-18.362952672248177
-0.3077,-18.44783535024008
-0.3087000000000001,-18.49027668923603
-0.3097,-18.589306480226583
-0.3107000000000001,-18.674189158218486
-0.3117,-18.759071836210385
-0.3127000000000001,-18.88639585319824
-0.3137,-19.056161209182044
-0.3147000000000001,-19.197632339168546
-0.3157,-19.3249563561564
-0.3167000000000001,-19.452280373144255
-0.3177,-19.537163051136158
-0.3187000000000001,-19.636192842126707
-0.3197,-19.721075520118614
-0.3207000000000001,-19.805958198110513
-0.3217,-19.93328221509837
-0.3227000000000001,-20.06060623208622
-0.3237,-20.244518701068674
-0.3247000000000001,-20.414284057052477
-0.3257,-20.584049413036283
-0.3267000000000001,-20.76796188201874
-0.3277,-20.89528589900659
-0.3287000000000001,-21.022609915994444
-0.3297,-21.107492593986347
-0.3307000000000001,-21.248963723972853
-0.3317,-21.376287740960702
-0.3327000000000001,-21.58849443594046
-0.3337,-21.772406904922917
-0.3347000000000001,-21.98461359990267
-0.3357,-22.196820294882425
-0.3367000000000001,-22.42317410286083
-0.3377,-22.592939458844636
-0.3387000000000001,-22.67782213683654
-0.3397,-22.861734605818995
-0.3407000000000001,-22.989058622806844
-0.3417,-23.2012653177866
-0.3427000000000001,-23.427619125765005
-0.3437,-23.639825820744765
-0.3447000000000001,-23.908620967719123
-0.3457,-24.16326900169483
-0.3467000000000001,-24.389622809673234
-0.3477,-24.601829504652986
-0.3487000000000001,-24.814036199632742
-0.3497,-25.04039000761115
-0.3507000000000001,-25.252596702590903
-0.3517,-25.478950510569312
-0.3527000000000001,-25.73359854454502
-0.3537,-26.002393691519377
-0.3547000000000001,-26.29948306449103
-0.3557,-26.61071955046134
-0.35670000000000013,-26.907808923433
-0.3577,-27.134162731411404
-0.35870000000000013,-27.38881076538711
-0.3597,-27.615164573365515
-0.36070000000000013,-27.827371268345274
-0.3617,-28.05372507632368
-0.3626999999999999,-28.393255788291288
-0.3637,-28.704492274261593
-0.3646999999999999,-29.058170099227848
-0.3657,-29.440142150191413
-0.3666999999999999,-29.751378636161718
-0.3677,-30.04846800913338
-0.3686999999999999,-30.359704495103685
-0.36970000000000003,-30.670940981073993
-0.3706999999999999,-30.968030354045652
-0.37170000000000003,-31.321708179011907
-0.3726999999999999,-31.717827342974125
-0.37370000000000003,-32.14224073293363
-0.3746999999999999,-32.58080123589179
-0.37570000000000003,-32.97692039985401
-0.3766999999999999,-33.373039563816214
-0.37770000000000004,-33.755011614779775
-0.3786999999999999,-34.10868943974604
-0.37970000000000004,-34.50480860370825
-0.3806999999999999,-34.90092776767045
-0.38170000000000004,-35.32534115762997
-0.38269999999999993,-35.806342999584075
-0.38370000000000004,-36.244903502542236
-0.38469999999999993,-36.6834640055004
-0.38570000000000004,-37.206907186450465
-0.38669999999999993,-37.60302635041268
-0.38770000000000004,-38.04158685337084
-0.38869999999999993,-38.46600024333035
-0.38970000000000005,-38.90456074628851
-0.39069999999999994,-39.34312124924667
-0.39170000000000005,-39.82412309120078
-0.39269999999999994,-40.30512493315489
-0.39370000000000005,-40.87100945310091
-0.39469999999999994,-41.47933531204288
-0.39570000000000005,-42.087661170984845
-0.39669999999999994,-42.71013414292546
-0.39770000000000005,-43.27601866287147
-0.39869999999999994,-43.79946184382153
-0.39970000000000006,-44.4077877027635
-0.40069999999999995,-44.93123088371356
-0.40170000000000006,-45.53955674265553
-0.40269999999999995,-46.2327652795894
-0.40370000000000006,-46.94012092952192
-0.40469999999999995,-47.590888127459834
-0.40570000000000006,-48.36897934238561
-0.40669999999999995,-49.03389365332217
-0.40770000000000006,-49.68466085126009
-0.40869999999999995,-50.335428049198
-0.40970000000000006,-50.90131256914402
-0.41069999999999995,-51.55207976708194
-0.41170000000000007,-52.2169940780185
-0.41269999999999996,-52.91020261495237
-0.41370000000000007,-53.64585249088219
-0.41469999999999996,-54.43809081880661
-0.41570000000000007,-55.17374069473642
-0.41669999999999996,-55.96597902266086
-0.41770000000000007,-56.65918755959472
-0.41869999999999996,-57.408984548523186
-0.4197000000000001,-58.18707576344896
-0.42069999999999996,-58.92272563937878
-0.4217000000000001,-59.67252262830725
-0.42269999999999996,-60.54964363422357
-0.4237000000000001,-61.327734849149344
-0.42469999999999997,-62.16241451606972
-0.4257000000000001,-63.06782974798333
-0.42669999999999997,-63.902509414903705
-0.4277000000000001,-64.72304196882543
-0.42869999999999997,-65.60016297474175
-0.4297000000000001,-66.39240130266617
-0.43069999999999997,-67.17049251759194
-0.4317000000000001,-68.0051721845123
-0.4327,-68.86814607742998
-0.4337000000000001,-69.78770842234226
-0.4347,-70.79215344524643
-0.4357000000000001,-71.7117157901587
-0.4367,-72.63127813507097
-0.4377000000000001,-73.49425202798865
-0.4387,-74.32893169490903
-0.4397000000000001,-75.19190558782671
-0.4407,-76.06902659374302
-0.4417000000000001,-76.98858893865528
-0.4427,-77.99303396155948
-0.4437000000000001,-78.99747898446365
-0.4447,-80.00192400736783
-0.4457000000000001,-80.99222191727335
-0.4467,-81.95422560118158
-0.4477000000000001,-82.87378794609386
-0.4487,-83.87823296899803
-0.4497000000000001,-84.7977953139103
-0.4507,-85.70321054582392
-0.4517000000000001,-86.7076555687281
-0.4527,-87.62721791364037
-0.4537000000000001,-88.63166293654454
-0.4547,-89.67854929844468
-0.4557000000000001,-90.68299432134886
-0.4567,-91.72988068324898
-0.4577000000000001,-92.73432570615316
-0.4587,-93.65388805106544
-0.4597000000000001,-94.6583330739696
-0.4607,-95.56374830588322
-0.4617000000000001,-96.4833106507955
-0.4627,-97.61507969068752
-0.4637000000000001,-98.66196605258766
-0.4647,-99.75129375348374
-0.4657000000000001,-100.88306279337576
-0.4667,-101.92994915527588
-0.4677000000000001,-102.89195283918411
-0.4687,-103.85395652309235
-0.4697000000000001,-104.81596020700057
-0.4707,-105.82040522990474
-0.4717000000000001,-106.90973293080083
-0.4727,-107.914177953705
-0.4737000000000001,-108.96106431560513
-0.4747,-110.09283335549715
-0.4757000000000001,-111.09727837840134
-0.4767,-112.14416474030146
-0.4777000000000001,-113.23349244119754
-0.4787,-114.19549612510575
-0.4797000000000001,-115.19994114800993
-0.4807,-116.20438617091412
-0.48170000000000013,-117.19468408081964
-0.4827,-118.1991291037238
-0.48370000000000013,-119.24601546562396
-0.4847,-120.25046048852812
-0.48570000000000013,-121.33978818942418
-0.4867,-121.48125931941068
-0.48570000000000013,-120.12313647154028
-0.4847,-119.07625010964013
-0.48370000000000013,-118.15668776472786
-0.4827,-117.25127253281424
-0.48170000000000013,-116.37415152689792
-0.4807,-115.4970305209816
-0.4797000000000001,-114.76138064505177
-0.4787,-113.96914231712736
-0.4777000000000001,-113.23349244119754
-0.4767,-112.54028390426367
-0.4757000000000001,-111.83292825433115
-0.4747,-110.92751302241753
-0.4737000000000001,-110.09283335549715
-0.4727,-109.13082967158894
-0.4717000000000001,-108.2537086656726
-0.4707,-107.47561745074682
-0.4697000000000001,-106.68337912282242
-0.4687,-105.99017058588855
-0.4677000000000001,-105.21207937096277
-0.4667,-104.41984104303836
