Jan. 7, 2025   16:34:35
Cyclic Voltammetry
File: c:/users/guazh/data/banditlqround7_x0exp772_r5/2025-01-07-exp789\exp789-2025-01-07t16_28_44-arkoh\exp789_cv_sr_100mvs_efin_-1400mv.bin
Data Source:  Experiment
Instrument Model:  CHI760E
Header: CV ran at 100 mVs
Note: 

Init E (V) = -1
High E (V) = -1
Low E (V) = -1.4
Final E (V) = -1
Init P/N = N
Scan Rate (V/s) = 0.1
Segment = 3
Sample Interval (V) = 0.001
Quiet Time (sec) = 2
Sensitivity (A/V) = 0.01
Comp R (ohm) = 1.3

Results:

Channel 1:
Segment 1:

Segment 2:

Segment 3:

Potential/V, Current/A

-1.000, -9.244e-5
-1.001, 5.899e-5
-1.002, 1.275e-4
-1.003, 2.273e-4
-1.004, 2.837e-4
-1.005, 3.246e-4
-1.006, 3.934e-4
-1.007, 4.010e-4
-1.008, 4.528e-4
-1.009, 4.727e-4
-1.010, 4.840e-4
-1.011, 5.298e-4
-1.012, 5.200e-4
-1.013, 5.578e-4
-1.014, 5.657e-4
-1.015, 5.662e-4
-1.016, 6.023e-4
-1.017, 5.844e-4
-1.018, 6.165e-4
-1.019, 6.182e-4
-1.020, 6.157e-4
-1.021, 6.484e-4
-1.022, 6.285e-4
-1.023, 6.591e-4
-1.024, 6.601e-4
-1.025, 6.524e-4
-1.026, 6.839e-4
-1.027, 6.625e-4
-1.028, 6.903e-4
-1.029, 6.891e-4
-1.030, 6.836e-4
-1.031, 7.125e-4
-1.032, 6.873e-4
-1.033, 7.138e-4
-1.034, 7.106e-4
-1.035, 7.033e-4
-1.036, 7.349e-4
-1.037, 7.116e-4
-1.038, 7.396e-4
-1.039, 7.372e-4
-1.040, 7.291e-4
-1.041, 7.577e-4
-1.042, 7.325e-4
-1.043, 7.563e-4
-1.044, 7.523e-4
-1.045, 7.440e-4
-1.046, 7.727e-4
-1.047, 7.465e-4
-1.048, 7.710e-4
-1.049, 7.668e-4
-1.050, 7.591e-4
-1.051, 7.870e-4
-1.052, 7.605e-4
-1.053, 7.842e-4
-1.054, 7.806e-4
-1.055, 7.716e-4
-1.056, 7.987e-4
-1.057, 7.729e-4
-1.058, 7.973e-4
-1.059, 7.927e-4
-1.060, 7.827e-4
-1.061, 8.093e-4
-1.062, 7.823e-4
-1.063, 8.057e-4
-1.064, 8.008e-4
-1.065, 7.920e-4
-1.066, 8.198e-4
-1.067, 7.926e-4
-1.068, 8.162e-4
-1.069, 8.101e-4
-1.070, 7.988e-4
-1.071, 8.246e-4
-1.072, 7.973e-4
-1.073, 8.209e-4
-1.074, 8.153e-4
-1.075, 8.062e-4
-1.076, 8.351e-4
-1.077, 8.050e-4
-1.078, 8.262e-4
-1.079, 8.223e-4
-1.080, 8.137e-4
-1.081, 8.416e-4
-1.082, 8.126e-4
-1.083, 8.329e-4
-1.084, 8.269e-4
-1.085, 8.156e-4
-1.086, 8.416e-4
-1.087, 8.141e-4
-1.088, 8.354e-4
-1.089, 8.309e-4
-1.090, 8.188e-4
-1.091, 8.445e-4
-1.092, 8.165e-4
-1.093, 8.378e-4
-1.094, 8.329e-4
-1.095, 8.216e-4
-1.096, 8.476e-4
-1.097, 8.199e-4
-1.098, 8.407e-4
-1.099, 8.335e-4
-1.100, 8.278e-4
-1.101, 8.540e-4
-1.102, 8.265e-4
-1.103, 8.492e-4
-1.104, 8.416e-4
-1.105, 8.290e-4
-1.106, 8.532e-4
-1.107, 8.233e-4
-1.108, 8.449e-4
-1.109, 8.378e-4
-1.110, 8.246e-4
-1.111, 8.493e-4
-1.112, 8.185e-4
-1.113, 8.402e-4
-1.114, 8.359e-4
-1.115, 8.245e-4
-1.116, 8.521e-4
-1.117, 8.244e-4
-1.118, 8.470e-4
-1.119, 8.433e-4
-1.120, 8.313e-4
-1.121, 8.575e-4
-1.122, 8.284e-4
-1.123, 8.489e-4
-1.124, 8.441e-4
-1.125, 8.295e-4
-1.126, 8.563e-4
-1.127, 8.272e-4
-1.128, 8.479e-4
-1.129, 8.434e-4
-1.130, 8.306e-4
-1.131, 8.575e-4
-1.132, 8.284e-4
-1.133, 8.507e-4
-1.134, 8.463e-4
-1.135, 8.340e-4
-1.136, 8.600e-4
-1.137, 8.309e-4
-1.138, 8.505e-4
-1.139, 8.473e-4
-1.140, 8.361e-4
-1.141, 8.612e-4
-1.142, 8.335e-4
-1.143, 8.539e-4
-1.144, 8.498e-4
-1.145, 8.386e-4
-1.146, 8.652e-4
-1.147, 8.364e-4
-1.148, 8.584e-4
-1.149, 8.531e-4
-1.150, 8.397e-4
-1.151, 8.693e-4
-1.152, 8.411e-4
-1.153, 8.626e-4
-1.154, 8.593e-4
-1.155, 8.470e-4
-1.156, 8.750e-4
-1.157, 8.454e-4
-1.158, 8.671e-4
-1.159, 8.634e-4
-1.160, 8.492e-4
-1.161, 8.764e-4
-1.162, 8.475e-4
-1.163, 8.689e-4
-1.164, 8.652e-4
-1.165, 8.520e-4
-1.166, 8.794e-4
-1.167, 8.528e-4
-1.168, 8.748e-4
-1.169, 8.728e-4
-1.170, 8.612e-4
-1.171, 8.906e-4
-1.172, 8.635e-4
-1.173, 8.864e-4
-1.174, 8.825e-4
-1.175, 8.706e-4
-1.176, 8.979e-4
-1.177, 8.708e-4
-1.178, 8.934e-4
-1.179, 8.912e-4
-1.180, 8.800e-4
-1.181, 9.064e-4
-1.182, 8.802e-4
-1.183, 9.029e-4
-1.184, 9.004e-4
-1.185, 8.891e-4
-1.186, 9.187e-4
-1.187, 8.919e-4
-1.188, 9.155e-4
-1.189, 9.131e-4
-1.190, 9.028e-4
-1.191, 9.308e-4
-1.192, 9.023e-4
-1.193, 9.290e-4
-1.194, 9.268e-4
-1.195, 9.166e-4
-1.196, 9.483e-4
-1.197, 9.210e-4
-1.198, 9.448e-4
-1.199, 9.442e-4
-1.200, 9.329e-4
-1.201, 9.637e-4
-1.202, 9.418e-4
-1.203, 9.627e-4
-1.204, 9.614e-4
-1.205, 9.503e-4
-1.206, 9.823e-4
-1.207, 9.586e-4
-1.208, 9.828e-4
-1.209, 9.820e-4
-1.210, 9.716e-4
-1.211, 1.002e-3
-1.212, 9.792e-4
-1.213, 1.004e-3
-1.214, 1.007e-3
-1.215, 9.979e-4
-1.216, 1.029e-3
-1.217, 1.008e-3
-1.218, 1.033e-3
-1.219, 1.036e-3
-1.220, 1.029e-3
-1.221, 1.060e-3
-1.222, 1.039e-3
-1.223, 1.065e-3
-1.224, 1.067e-3
-1.225, 1.060e-3
-1.226, 1.092e-3
-1.227, 1.072e-3
-1.228, 1.102e-3
-1.229, 1.107e-3
-1.230, 1.100e-3
-1.231, 1.133e-3
-1.232, 1.111e-3
-1.233, 1.142e-3
-1.234, 1.147e-3
-1.235, 1.142e-3
-1.236, 1.178e-3
-1.237, 1.157e-3
-1.238, 1.188e-3
-1.239, 1.193e-3
-1.240, 1.183e-3
-1.241, 1.217e-3
-1.242, 1.206e-3
-1.243, 1.238e-3
-1.244, 1.246e-3
-1.245, 1.243e-3
-1.246, 1.280e-3
-1.247, 1.261e-3
-1.248, 1.290e-3
-1.249, 1.296e-3
-1.250, 1.292e-3
-1.251, 1.331e-3
-1.252, 1.315e-3
-1.253, 1.349e-3
-1.254, 1.361e-3
-1.255, 1.363e-3
-1.256, 1.405e-3
-1.257, 1.391e-3
-1.258, 1.427e-3
-1.259, 1.438e-3
-1.260, 1.440e-3
-1.261, 1.483e-3
-1.262, 1.469e-3
-1.263, 1.506e-3
-1.264, 1.520e-3
-1.265, 1.523e-3
-1.266, 1.567e-3
-1.267, 1.557e-3
-1.268, 1.595e-3
-1.269, 1.609e-3
-1.270, 1.617e-3
-1.271, 1.665e-3
-1.272, 1.653e-3
-1.273, 1.693e-3
-1.274, 1.714e-3
-1.275, 1.720e-3
-1.276, 1.767e-3
-1.277, 1.761e-3
-1.278, 1.804e-3
-1.279, 1.827e-3
-1.280, 1.832e-3
-1.281, 1.882e-3
-1.282, 1.883e-3
-1.283, 1.927e-3
-1.284, 1.947e-3
-1.285, 1.958e-3
-1.286, 2.009e-3
-1.287, 2.009e-3
-1.288, 2.058e-3
-1.289, 2.084e-3
-1.290, 2.098e-3
-1.291, 2.151e-3
-1.292, 2.150e-3
-1.293, 2.199e-3
-1.294, 2.227e-3
-1.295, 2.242e-3
-1.296, 2.302e-3
-1.297, 2.305e-3
-1.298, 2.357e-3
-1.299, 2.388e-3
-1.300, 2.406e-3
-1.301, 2.467e-3
-1.302, 2.473e-3
-1.303, 2.529e-3
-1.304, 2.565e-3
-1.305, 2.585e-3
-1.306, 2.645e-3
-1.307, 2.651e-3
-1.308, 2.714e-3
-1.309, 2.749e-3
-1.310, 2.778e-3
-1.311, 2.846e-3
-1.312, 2.852e-3
-1.313, 2.912e-3
-1.314, 2.952e-3
-1.315, 2.981e-3
-1.316, 3.052e-3
-1.317, 3.068e-3
-1.318, 3.131e-3
-1.319, 3.174e-3
-1.320, 3.205e-3
-1.321, 3.277e-3
-1.322, 3.290e-3
-1.323, 3.359e-3
-1.324, 3.406e-3
-1.325, 3.422e-3
-1.326, 3.512e-3
-1.327, 3.543e-3
-1.328, 3.611e-3
-1.329, 3.663e-3
-1.330, 3.695e-3
-1.331, 3.773e-3
-1.332, 3.795e-3
-1.333, 3.861e-3
-1.334, 3.909e-3
-1.335, 3.944e-3
-1.336, 4.022e-3
-1.337, 4.047e-3
-1.338, 4.124e-3
-1.339, 4.180e-3
-1.340, 4.225e-3
-1.341, 4.311e-3
-1.342, 4.342e-3
-1.343, 4.418e-3
-1.344, 4.481e-3
-1.345, 4.525e-3
-1.346, 4.614e-3
-1.347, 4.647e-3
-1.348, 4.722e-3
-1.349, 4.785e-3
-1.350, 4.835e-3
-1.351, 4.926e-3
-1.352, 4.958e-3
-1.353, 5.042e-3
-1.354, 5.108e-3
-1.355, 5.161e-3
-1.356, 5.254e-3
-1.357, 5.288e-3
-1.358, 5.379e-3
-1.359, 5.433e-3
-1.360, 5.485e-3
-1.361, 5.591e-3
-1.362, 5.630e-3
-1.363, 5.726e-3
-1.364, 5.796e-3
-1.365, 5.853e-3
-1.366, 5.948e-3
-1.367, 5.985e-3
-1.368, 6.080e-3
-1.369, 6.150e-3
-1.370, 6.221e-3
-1.371, 6.318e-3
-1.372, 6.353e-3
-1.373, 6.440e-3
-1.374, 6.523e-3
-1.375, 6.588e-3
-1.376, 6.684e-3
-1.377, 6.738e-3
-1.378, 6.833e-3
-1.379, 6.905e-3
-1.380, 6.964e-3
-1.381, 7.067e-3
-1.382, 7.120e-3
-1.383, 7.214e-3
-1.384, 7.295e-3
-1.385, 7.366e-3
-1.386, 7.471e-3
-1.387, 7.520e-3
-1.388, 7.621e-3
-1.389, 7.704e-3
-1.390, 7.778e-3
-1.391, 7.883e-3
-1.392, 7.963e-3
-1.393, 8.078e-3
-1.394, 8.137e-3
-1.395, 8.199e-3
-1.396, 8.320e-3
-1.397, 8.371e-3
-1.398, 8.489e-3
-1.399, 8.576e-3
-1.400, 8.502e-3
-1.399, 8.343e-3
-1.398, 8.165e-3
-1.397, 8.062e-3
-1.396, 7.940e-3
-1.395, 7.817e-3
-1.394, 7.749e-3
-1.393, 7.624e-3
-1.392, 7.545e-3
-1.391, 7.452e-3
-1.390, 7.342e-3
-1.389, 7.273e-3
-1.388, 7.149e-3
-1.387, 7.080e-3
-1.386, 6.991e-3
-1.385, 6.885e-3
-1.384, 6.820e-3
-1.383, 6.690e-3
-1.382, 6.613e-3
-1.381, 6.533e-3
-1.380, 6.427e-3
-1.379, 6.370e-3
-1.378, 6.251e-3
-1.377, 6.171e-3
-1.376, 6.083e-3
-1.375, 5.970e-3
-1.374, 5.917e-3
-1.373, 5.802e-3
-1.372, 5.736e-3
-1.371, 5.644e-3
-1.370, 5.533e-3
-1.369, 5.467e-3
-1.368, 5.364e-3
-1.367, 5.305e-3
-1.366, 5.226e-3
-1.365, 5.132e-3
-1.364, 5.075e-3
-1.363, 4.966e-3
-1.362, 4.908e-3
-1.361, 4.830e-3
-1.360, 4.740e-3
-1.359, 4.685e-3
-1.358, 4.572e-3
-1.357, 4.512e-3
-1.356, 4.433e-3
-1.355, 4.343e-3
-1.354, 4.297e-3
-1.353, 4.194e-3
-1.352, 4.135e-3
-1.351, 4.065e-3
-1.350, 3.972e-3
-1.349, 3.926e-3
-1.348, 3.827e-3
-1.347, 3.776e-3
-1.346, 3.705e-3
-1.345, 3.619e-3
-1.344, 3.580e-3
-1.343, 3.485e-3
-1.342, 3.435e-3
-1.341, 3.373e-3
-1.340, 3.291e-3
-1.339, 3.250e-3
-1.338, 3.157e-3
-1.337, 3.109e-3
-1.336, 3.048e-3
-1.335, 2.963e-3
-1.334, 2.927e-3
-1.333, 2.836e-3
-1.332, 2.788e-3
-1.331, 2.708e-3
-1.330, 2.637e-3
-1.329, 2.606e-3
-1.328, 2.522e-3
-1.327, 2.479e-3
-1.326, 2.422e-3
-1.325, 2.347e-3
-1.324, 2.315e-3
-1.323, 2.232e-3
-1.322, 2.194e-3
-1.321, 2.138e-3
-1.320, 2.068e-3
-1.319, 2.041e-3
-1.318, 1.961e-3
-1.317, 1.928e-3
-1.316, 1.879e-3
-1.315, 1.809e-3
-1.314, 1.785e-3
-1.313, 1.704e-3
-1.312, 1.667e-3
-1.311, 1.618e-3
-1.310, 1.552e-3
-1.309, 1.529e-3
-1.308, 1.456e-3
-1.307, 1.428e-3
-1.306, 1.382e-3
-1.305, 1.319e-3
-1.304, 1.300e-3
-1.303, 1.228e-3
-1.302, 1.201e-3
-1.301, 1.158e-3
-1.300, 1.097e-3
-1.299, 1.082e-3
-1.298, 1.014e-3
-1.297, 9.893e-4
-1.296, 9.501e-4
-1.295, 8.933e-4
-1.294, 8.792e-4
-1.293, 8.136e-4
-1.292, 7.903e-4
-1.291, 7.539e-4
-1.290, 7.010e-4
-1.289, 6.895e-4
-1.288, 6.274e-4
-1.287, 6.072e-4
-1.286, 5.731e-4
-1.285, 5.222e-4
-1.284, 5.136e-4
-1.283, 4.550e-4
-1.282, 4.376e-4
-1.281, 4.061e-4
-1.280, 3.573e-4
-1.279, 3.534e-4
-1.278, 2.969e-4
-1.277, 2.820e-4
-1.276, 2.528e-4
-1.275, 2.074e-4
-1.274, 2.044e-4
-1.273, 1.502e-4
-1.272, 1.379e-4
-1.271, 1.109e-4
-1.270, 6.876e-5
-1.269, 6.866e-5
-1.268, 1.628e-5
-1.267, 6.214e-6
-1.266, -1.684e-5
-1.265, -5.854e-5
-1.264, -5.601e-5
-1.263, -1.054e-4
-1.262, -1.135e-4
-1.261, -1.342e-4
-1.260, -1.732e-4
-1.259, -1.681e-4
-1.258, -2.143e-4
-1.257, -2.202e-4
-1.256, -2.379e-4
-1.255, -2.749e-4
-1.254, -2.689e-4
-1.253, -3.127e-4
-1.252, -3.169e-4
-1.251, -3.333e-4
-1.250, -3.679e-4
-1.249, -3.597e-4
-1.248, -4.009e-4
-1.247, -4.030e-4
-1.246, -4.168e-4
-1.245, -4.485e-4
-1.244, -4.382e-4
-1.243, -4.772e-4
-1.242, -4.773e-4
-1.241, -4.900e-4
-1.240, -5.201e-4
-1.239, -5.082e-4
-1.238, -5.477e-4
-1.237, -5.462e-4
-1.236, -5.572e-4
-1.235, -5.867e-4
-1.234, -5.723e-4
-1.233, -6.090e-4
-1.232, -6.060e-4
-1.231, -6.161e-4
-1.230, -6.422e-4
-1.229, -6.287e-4
-1.228, -6.643e-4
-1.227, -6.602e-4
-1.226, -6.666e-4
-1.225, -6.926e-4
-1.224, -6.739e-4
-1.223, -7.072e-4
-1.222, -7.010e-4
-1.221, -7.076e-4
-1.220, -7.330e-4
-1.219, -7.148e-4
-1.218, -7.482e-4
-1.217, -7.419e-4
-1.216, -7.483e-4
-1.215, -7.717e-4
-1.214, -7.521e-4
-1.213, -7.825e-4
-1.212, -7.741e-4
-1.211, -7.763e-4
-1.210, -8.001e-4
-1.209, -7.789e-4
-1.208, -8.069e-4
-1.207, -7.988e-4
-1.206, -8.015e-4
-1.205, -8.232e-4
-1.204, -8.031e-4
-1.203, -8.374e-4
-1.202, -8.281e-4
-1.201, -8.268e-4
-1.200, -8.464e-4
-1.199, -8.247e-4
-1.198, -8.522e-4
-1.197, -8.428e-4
-1.196, -8.447e-4
-1.195, -8.659e-4
-1.194, -8.425e-4
-1.193, -8.693e-4
-1.192, -8.570e-4
-1.191, -8.572e-4
-1.190, -8.769e-4
-1.189, -8.531e-4
-1.188, -8.820e-4
-1.187, -8.715e-4
-1.186, -8.709e-4
-1.185, -8.915e-4
-1.184, -8.678e-4
-1.183, -8.963e-4
-1.182, -8.840e-4
-1.181, -8.827e-4
-1.180, -9.021e-4
-1.179, -8.776e-4
-1.178, -9.042e-4
-1.177, -8.928e-4
-1.176, -8.854e-4
-1.175, -9.031e-4
-1.174, -8.842e-4
-1.173, -9.107e-4
-1.172, -8.985e-4
-1.171, -8.967e-4
-1.170, -9.153e-4
-1.169, -8.900e-4
-1.168, -9.136e-4
-1.167, -9.010e-4
-1.166, -8.982e-4
-1.165, -9.157e-4
-1.164, -8.898e-4
-1.163, -9.146e-4
-1.162, -9.023e-4
-1.161, -9.011e-4
-1.160, -9.199e-4
-1.159, -8.951e-4
-1.158, -9.191e-4
-1.157, -9.069e-4
-1.156, -9.040e-4
-1.155, -9.201e-4
-1.154, -8.952e-4
-1.153, -9.195e-4
-1.152, -9.060e-4
-1.151, -9.043e-4
-1.150, -9.235e-4
-1.149, -8.968e-4
-1.148, -9.218e-4
-1.147, -9.082e-4
-1.146, -9.037e-4
-1.145, -9.217e-4
-1.144, -8.960e-4
-1.143, -9.211e-4
-1.142, -9.075e-4
-1.141, -9.061e-4
-1.140, -9.241e-4
-1.139, -8.984e-4
-1.138, -9.210e-4
-1.137, -9.099e-4
-1.136, -9.049e-4
-1.135, -9.239e-4
-1.134, -9.011e-4
-1.133, -9.231e-4
-1.132, -9.086e-4
-1.131, -9.040e-4
-1.130, -9.235e-4
-1.129, -8.970e-4
-1.128, -9.198e-4
-1.127, -9.076e-4
-1.126, -9.035e-4
-1.125, -9.214e-4
-1.124, -8.954e-4
-1.123, -9.183e-4
-1.122, -9.059e-4
-1.121, -9.034e-4
-1.120, -9.216e-4
-1.119, -8.959e-4
-1.118, -9.195e-4
-1.117, -9.063e-4
-1.116, -9.019e-4
-1.115, -9.213e-4
-1.114, -8.947e-4
-1.113, -9.183e-4
-1.112, -9.054e-4
-1.111, -9.022e-4
-1.110, -9.218e-4
-1.109, -8.955e-4
-1.108, -9.190e-4
-1.107, -9.071e-4
-1.106, -9.027e-4
-1.105, -9.230e-4
-1.104, -8.976e-4
-1.103, -9.177e-4
-1.102, -9.070e-4
-1.101, -9.063e-4
-1.100, -9.255e-4
-1.099, -9.013e-4
-1.098, -9.249e-4
-1.097, -9.149e-4
-1.096, -9.082e-4
-1.095, -9.261e-4
-1.094, -9.004e-4
-1.093, -9.235e-4
-1.092, -9.121e-4
-1.091, -9.064e-4
-1.090, -9.246e-4
-1.089, -8.975e-4
-1.088, -9.198e-4
-1.087, -9.105e-4
-1.086, -9.073e-4
-1.085, -9.266e-4
-1.084, -9.036e-4
-1.083, -9.283e-4
-1.082, -9.202e-4
-1.081, -9.167e-4
-1.080, -9.351e-4
-1.079, -9.103e-4
-1.078, -9.374e-4
-1.077, -9.263e-4
-1.076, -9.222e-4
-1.075, -9.434e-4
-1.074, -9.185e-4
-1.073, -9.427e-4
-1.072, -9.326e-4
-1.071, -9.280e-4
-1.070, -9.491e-4
-1.069, -9.275e-4
-1.068, -9.526e-4
-1.067, -9.415e-4
-1.066, -9.364e-4
-1.065, -9.597e-4
-1.064, -9.332e-4
-1.063, -9.583e-4
-1.062, -9.478e-4
-1.061, -9.455e-4
-1.060, -9.702e-4
-1.059, -9.464e-4
-1.058, -9.703e-4
-1.057, -9.620e-4
-1.056, -9.594e-4
-1.055, -9.825e-4
-1.054, -9.612e-4
-1.053, -9.876e-4
-1.052, -9.807e-4
-1.051, -9.771e-4
-1.050, -1.000e-3
-1.049, -9.771e-4
-1.048, -1.002e-3
-1.047, -9.942e-4
-1.046, -9.947e-4
-1.045, -1.018e-3
-1.044, -9.948e-4
-1.043, -1.019e-3
-1.042, -1.014e-3
-1.041, -1.015e-3
-1.040, -1.039e-3
-1.039, -1.017e-3
-1.038, -1.044e-3
-1.037, -1.038e-3
-1.036, -1.036e-3
-1.035, -1.061e-3
-1.034, -1.039e-3
-1.033, -1.067e-3
-1.032, -1.061e-3
-1.031, -1.061e-3
-1.030, -1.086e-3
-1.029, -1.065e-3
-1.028, -1.093e-3
-1.027, -1.089e-3
-1.026, -1.091e-3
-1.025, -1.119e-3
-1.024, -1.096e-3
-1.023, -1.123e-3
-1.022, -1.121e-3
-1.021, -1.122e-3
-1.020, -1.150e-3
-1.019, -1.130e-3
-1.018, -1.158e-3
-1.017, -1.153e-3
-1.016, -1.154e-3
-1.015, -1.182e-3
-1.014, -1.164e-3
-1.013, -1.193e-3
-1.012, -1.190e-3
-1.011, -1.189e-3
-1.010, -1.217e-3
-1.009, -1.199e-3
-1.008, -1.229e-3
-1.007, -1.222e-3
-1.006, -1.228e-3
-1.005, -1.262e-3
-1.004, -1.244e-3
-1.003, -1.274e-3
-1.002, -1.273e-3
-1.001, -1.275e-3
