Potential V vs RHE, Current mA cm-2
0.013299999999999867,-0.3511313446265021
0.012299999999999978,-2.095187435100119
0.011299999999999866,-3.4915074880669104
0.010299999999999976,-4.756259390146253
0.009299999999999864,-5.80314575204638
0.008299999999999974,-6.458157083883892
0.007299999999999862,-7.024041603829907
0.006299999999999972,-7.635196885371603
0.00529999999999986,-8.202496116617484
0.0042999999999999705,-8.68208324727173
0.0032999999999998586,-8.987660888042578
0.0022999999999999687,-9.205526428221793
0.0012999999999998568,-9.511104068992642
0.00029999999999996696,-9.902979099055257
-0.000700000000000145,-10.208556739826104
-0.0017000000000000348,-10.340124890713554
-0.0027000000000001467,-10.42642228000532
-0.0037000000000000366,-10.601846481188586
-0.0047000000000001485,-10.863568071663616
-0.005700000000000038,-11.123874950838783
-0.00670000000000015,-11.1677310011346
-0.00770000000000004,-11.211587051430415
-0.008700000000000152,-11.343155202317865
-0.009700000000000042,-11.56102074249708
-0.010700000000000154,-11.778886282676295
-0.011700000000000044,-11.82274233297211
-0.012700000000000156,-11.82274233297211
-0.013700000000000045,-11.909039722263879
-0.014700000000000157,-12.12831997374296
-0.015700000000000047,-12.302329463626359
-0.01670000000000016,-12.302329463626359
-0.01770000000000005,-12.302329463626359
-0.01870000000000016,-12.390041564217992
-0.01970000000000005,-12.56405105410139
-0.020700000000000163,-12.694204493688973
-0.021700000000000053,-12.694204493688973
-0.022700000000000164,-12.651763154693022
-0.023700000000000054,-12.73806054398479
-0.024700000000000166,-12.955926084164007
-0.025700000000000056,-13.087494235051453
-0.026700000000000168,-13.043638184755638
-0.027700000000000058,-13.043638184755638
-0.02870000000000017,-13.087494235051453
-0.02970000000000006,-13.261503724934855
-0.03070000000000017,-13.349215825526485
-0.03170000000000006,-13.349215825526485
-0.03270000000000017,-13.30535977523067
-0.03370000000000006,-13.349215825526485
-0.034700000000000175,-13.523225315409885
-0.035700000000000065,-13.698649516593148
-0.03670000000000018,-13.654793466297335
-0.03770000000000007,-13.610937416001518
-0.03870000000000018,-13.654793466297335
-0.03970000000000007,-13.784946905884919
-0.04070000000000018,-13.916515056772363
-0.04170000000000007,-13.872659006476551
-0.04270000000000018,-13.784946905884919
-0.04370000000000007,-13.828802956180734
-0.044700000000000184,-14.002812446064135
-0.045700000000000074,-14.13438059695158
-0.046700000000000186,-14.090524546655764
-0.047700000000000076,-14.002812446064135
-0.04870000000000019,-14.046668496359947
-0.04970000000000008,-14.175407224647667
-0.05070000000000019,-14.26028990263957
-0.05170000000000008,-14.26028990263957
-0.05270000000000019,-14.13438059695158
-0.05370000000000008,-14.175407224647667
-0.05470000000000019,-14.30273124163552
-0.05570000000000008,-14.401761032626075
-0.056700000000000195,-14.345172580631472
-0.057700000000000085,-14.26028990263957
-0.058700000000000196,-14.30273124163552
-0.059700000000000086,-14.444202371622024
-0.0607000000000002,-14.529085049613924
-0.06170000000000009,-14.486643710617974
-0.0627000000000002,-14.401761032626075
-0.06370000000000009,-14.401761032626075
-0.0647000000000002,-14.529085049613924
-0.06570000000000009,-14.61396772760583
-0.0667000000000002,-14.57152638860988
-0.0677000000000001,-14.444202371622024
-0.0687000000000002,-14.444202371622024
-0.0697000000000001,-14.57152638860988
-0.07070000000000021,-14.65640906660178
-0.0717000000000001,-14.57152638860988
-0.07270000000000021,-14.486643710617974
-0.0737000000000001,-14.486643710617974
-0.07470000000000021,-14.57152638860988
-0.0757000000000001,-14.65640906660178
-0.07670000000000021,-14.57152638860988
-0.0777000000000001,-14.486643710617974
-0.07870000000000021,-14.486643710617974
-0.0797000000000001,-14.57152638860988
-0.08070000000000022,-14.65640906660178
-0.0817000000000001,-14.57152638860988
-0.08270000000000022,-14.486643710617974
-0.08370000000000011,-14.486643710617974
-0.08470000000000022,-14.57152638860988
-0.08570000000000011,-14.65640906660178
-0.08670000000000022,-14.61396772760583
-0.08770000000000011,-14.486643710617974
-0.08870000000000022,-14.486643710617974
-0.08970000000000011,-14.61396772760583
-0.09070000000000022,-14.61396772760583
-0.09170000000000011,-14.57152638860988
-0.09270000000000023,-14.444202371622024
-0.09370000000000012,-14.444202371622024
-0.09470000000000023,-14.57152638860988
-0.09570000000000012,-14.65640906660178
-0.09670000000000023,-14.57152638860988
-0.09770000000000012,-14.486643710617974
-0.09870000000000023,-14.486643710617974
-0.09970000000000012,-14.61396772760583
-0.10070000000000023,-14.65640906660178
-0.10170000000000012,-14.57152638860988
-0.10270000000000024,-14.486643710617974
-0.10370000000000013,-14.486643710617974
-0.10470000000000024,-14.61396772760583
-0.10570000000000013,-14.69885040559773
-0.10670000000000024,-14.61396772760583
-0.10770000000000013,-14.529085049613924
-0.10870000000000024,-14.529085049613924
-0.10970000000000013,-14.65640906660178
-0.11070000000000024,-14.741291744593681
-0.11170000000000013,-14.69885040559773
-0.11270000000000002,-14.61396772760583
-0.11370000000000013,-14.65640906660178
-0.11470000000000002,-14.783733083589633
-0.11570000000000014,-14.868615761581536
-0.11670000000000003,-14.783733083589633
-0.11770000000000014,-14.69885040559773
-0.11870000000000003,-14.741291744593681
-0.11970000000000014,-14.826174422585586
-0.12070000000000003,-14.967645552572087
-0.12170000000000014,-14.868615761581536
-0.12270000000000003,-14.783733083589633
-0.12370000000000014,-14.826174422585586
-0.12470000000000003,-15.01008689156804
-0.12570000000000014,-15.094969569559943
-0.12670000000000003,-15.094969569559943
-0.12770000000000015,-15.01008689156804
-0.12870000000000004,-15.05252823056399
-0.12970000000000015,-15.222293586547794
-0.13070000000000004,-15.307176264539699
-0.13170000000000015,-15.264734925543747
-0.13270000000000004,-15.179852247551842
-0.13370000000000015,-15.222293586547794
-0.13470000000000004,-15.3920589425316
-0.13570000000000015,-15.533530072518102
-0.13670000000000004,-15.491088733522153
-0.13770000000000016,-15.3920589425316
-0.13870000000000005,-15.448647394526201
-0.13970000000000016,-15.618412750510005
-0.14070000000000005,-15.74573676749786
-0.14170000000000016,-15.70329542850191
-0.14270000000000005,-15.660854089505953
-0.14370000000000016,-15.70329542850191
-0.14470000000000005,-15.91550212348166
-0.14570000000000016,-16.056973253468165
-0.14670000000000005,-16.056973253468165
-0.14770000000000016,-16.014531914472215
-0.14870000000000005,-16.014531914472215
-0.14970000000000017,-16.184297270456018
-0.15070000000000006,-16.311621287443874
-0.15170000000000017,-16.269179948447924
-0.15270000000000006,-16.22673860945197
-0.15370000000000017,-16.311621287443874
-0.15470000000000006,-16.438945304431726
-0.15570000000000017,-16.622857773414182
-0.15670000000000006,-16.622857773414182
-0.15770000000000017,-16.622857773414182
-0.15870000000000006,-16.70774045140608
-0.15970000000000018,-16.835064468393938
-0.16070000000000007,-17.018976937376394
-0.16170000000000018,-16.962388485381787
-0.16270000000000007,-16.962388485381787
-0.16370000000000018,-17.061418276372343
-0.16470000000000007,-17.231183632356142
-0.16570000000000018,-17.358507649344002
-0.16670000000000007,-17.358507649344002
-0.16770000000000018,-17.316066310348052
-0.16870000000000007,-17.40094898833995
-0.16970000000000018,-17.627302796318357
-0.17070000000000007,-17.75462681330621
-0.17170000000000019,-17.797068152302163
-0.17270000000000008,-17.75462681330621
-0.1737000000000002,-17.839509491298113
-0.17470000000000008,-18.06586329927652
-0.1757000000000002,-18.19318731626437
-0.17670000000000008,-18.23562865526032
-0.1777000000000002,-18.19318731626437
-0.17870000000000008,-18.320511333252224
-0.1797000000000002,-18.53271802823198
-0.18070000000000008,-18.674189158218486
-0.1817000000000002,-18.716630497214435
-0.18270000000000008,-18.674189158218486
-0.1837000000000002,-18.80151317520634
-0.1847000000000001,-19.01371987018609
-0.1857000000000002,-19.197632339168546
-0.1867000000000001,-19.2400736781645
-0.1877000000000002,-19.2400736781645
-0.1887000000000001,-19.3249563561564
-0.1897000000000002,-19.537163051136158
-0.1907000000000001,-19.721075520118614
-0.1917000000000001,-19.763516859114564
-0.19269999999999998,-19.763516859114564
-0.1937000000000001,-19.890840876102416
-0.19469999999999998,-20.10304757108217
-0.1957000000000001,-20.329401379060574
-0.19669999999999999,-20.371842718056527
-0.1977000000000001,-20.414284057052477
-0.1987,-20.541608074040333
-0.1997000000000001,-20.76796188201874
-0.2007,-20.93772723800254
-0.2017000000000001,-20.980168576998494
-0.2027,-20.980168576998494
-0.2037000000000001,-21.149933932982297
-0.2047,-21.376287740960702
-0.2057000000000001,-21.58849443594046
-0.2067,-21.67337711393236
-0.2077000000000001,-21.729965565926964
-0.2087,-21.857289582914817
-0.2097000000000001,-22.111937616890522
-0.2107,-22.33829142486893
-0.2117000000000001,-22.42317410286083
-0.2127,-22.42317410286083
-0.2137000000000001,-22.592939458844636
-0.2147,-22.861734605818995
-0.2157000000000001,-23.073941300798747
-0.2167,-23.15882397879065
-0.21770000000000012,-23.24370665678255
-0.2187,-23.385177786769056
-0.21970000000000012,-23.639825820744765
-0.2207,-23.86617962872317
-0.22170000000000012,-23.951062306715073
-0.2227,-24.035944984706973
-0.22370000000000012,-24.20571034069078
-0.2247,-24.516946826661083
-0.22570000000000012,-24.729153521640843
-0.2267,-24.870624651627345
-0.22770000000000012,-24.95550732961925
-0.22870000000000001,-25.12527268560305
-0.22970000000000013,-25.39406783257741
-0.23070000000000002,-25.60627452755716
-0.23170000000000013,-25.691157205549064
-0.23270000000000002,-25.77603988354097
-0.23370000000000013,-26.002393691519377
-0.23470000000000002,-26.257041725495082
-0.23570000000000013,-26.525836872469437
-0.23670000000000002,-26.65316088945729
-0.2376999999999999,-26.69560222845324
-0.23870000000000002,-26.907808923433
-0.2396999999999999,-27.176604070407354
-0.24070000000000003,-27.38881076538711
-0.24169999999999991,-27.530281895373616
-0.24270000000000003,-27.572723234369565
-0.24369999999999992,-27.78492992934932
-0.24470000000000003,-28.05372507632368
-0.24569999999999992,-28.308373110299385
-0.24670000000000003,-28.393255788291288
-0.24769999999999992,-28.478138466283188
-0.24870000000000003,-28.662050935265643
-0.24969999999999992,-28.959140308237306
-0.25070000000000003,-29.18549411621571
-0.2516999999999999,-29.27037679420761
-0.25270000000000004,-29.31281813320356
-0.2536999999999999,-29.482583489187363
-0.25470000000000004,-29.751378636161718
-0.2556999999999999,-30.00602667013743
-0.25670000000000004,-30.10505646112798
-0.25769999999999993,-30.189939139119886
-0.25870000000000004,-30.317263156107735
-0.25969999999999993,-30.571911190083444
-0.26070000000000004,-30.8407063370578
-0.26169999999999993,-30.88314767605375
-0.26270000000000004,-30.925589015049702
-0.26369999999999993,-31.052913032037555
-0.26470000000000005,-31.321708179011907
-0.26569999999999994,-31.449032195999767
-0.26670000000000005,-31.533914873991666
-0.26769999999999994,-31.533914873991666
-0.26870000000000005,-31.618797551983565
-0.26969999999999994,-31.84515135996197
-0.27070000000000005,-32.01491671594578
-0.27169999999999994,-32.05735805494172
-0.27270000000000005,-32.01491671594578
-0.27369999999999994,-32.09979939393769
-0.27470000000000006,-32.283711862920136
-0.27569999999999995,-32.41103587990799
-0.27670000000000006,-32.41103587990799
-0.27769999999999995,-32.368594540912035
-0.27870000000000006,-32.41103587990799
-0.27969999999999995,-32.53835989689585
-0.28070000000000006,-32.62324257488775
-0.28169999999999995,-32.62324257488775
-0.28270000000000006,-32.53835989689585
-0.28369999999999995,-32.58080123589179
-0.28470000000000006,-32.70812525287965
-0.28569999999999995,-32.807155043870196
-0.28670000000000007,-32.764713704874254
-0.28769999999999996,-32.62324257488775
-0.28870000000000007,-32.62324257488775
-0.28969999999999996,-32.70812525287965
-0.29070000000000007,-32.764713704874254
-0.29169999999999996,-32.66568391388369
-0.29270000000000007,-32.49591855789989
-0.29369999999999996,-32.45347721890394
-0.2947000000000001,-32.49591855789989
-0.29569999999999996,-32.49591855789989
-0.2967000000000001,-32.32615320191609
-0.29769999999999996,-32.184682071929586
-0.2987000000000001,-32.09979939393769
-0.29969999999999997,-32.09979939393769
-0.3007000000000001,-32.09979939393769
-0.30169999999999997,-31.930034037953877
-0.3027000000000001,-31.717827342974125
-0.30369999999999997,-31.618797551983565
-0.3047000000000001,-31.618797551983565
-0.30569999999999997,-31.57635621298762
-0.3067000000000001,-31.40659085700382
-0.3077,-31.19438416202406
-0.3087000000000001,-31.095354371033505
-0.3097,-31.095354371033505
-0.3107000000000001,-31.052913032037555
-0.3117,-30.88314767605375
-0.3127000000000001,-30.670940981073993
-0.3137,-30.571911190083444
-0.3147000000000001,-30.571911190083444
-0.3157,-30.529469851087494
-0.3167000000000001,-30.317263156107735
-0.3177,-30.10505646112798
-0.3187000000000001,-30.00602667013743
-0.3197,-30.00602667013743
-0.3207000000000001,-29.96358533114148
-0.3217,-29.836261314153624
-0.3227000000000001,-29.66649595816982
-0.3237,-29.62405461917387
-0.3247000000000001,-29.62405461917387
-0.3257,-29.62405461917387
-0.3267000000000001,-29.482583489187363
-0.3277,-29.31281813320356
-0.3287000000000001,-29.27037679420761
-0.3297,-29.35525947219951
-0.3307000000000001,-29.39770081119546
-0.3317,-29.35525947219951
-0.3327000000000001,-29.22793545521166
-0.3337,-29.27037679420761
-0.3347000000000001,-29.35525947219951
-0.3357,-29.440142150191413
-0.3367000000000001,-29.39770081119546
-0.3377,-29.35525947219951
-0.3387000000000001,-29.39770081119546
-0.3397,-29.581613280177915
-0.3407000000000001,-29.708937297165768
-0.3417,-29.751378636161718
-0.3427000000000001,-29.751378636161718
-0.3437,-29.836261314153624
-0.3447000000000001,-30.10505646112798
-0.3457,-30.317263156107735
-0.3467000000000001,-30.359704495103685
-0.3477,-30.444587173095588
-0.3487000000000001,-30.614352529079397
-0.3497,-30.88314767605375
-0.3507000000000001,-31.137795710029454
-0.3517,-31.27926684001596
-0.3527000000000001,-31.40659085700382
-0.3537,-31.661238890979522
-0.3547000000000001,-32.05735805494172
-0.3557,-32.45347721890394
-0.35670000000000013,-32.66568391388369
-0.3577,-32.892037721862096
-0.35870000000000013,-33.231568433829715
-0.3597,-33.712570275783825
-0.36070000000000013,-34.193572117737936
-0.3617,-34.5472499427042
-0.3626999999999999,-34.90092776767045
-0.3637,-35.38192960962457
-0.3646999999999999,-35.94781412957058
-0.3657,-36.5136986495166
-0.3666999999999999,-36.99470049147071
-0.3677,-37.41911388143023
-0.3686999999999999,-38.08402819236679
-0.36970000000000003,-38.81967806829661
-0.3706999999999999,-39.56947505722508
-0.37170000000000003,-40.177800916167044
-0.3726999999999999,-40.78612677510901
-0.37370000000000003,-41.56421799003478
-0.3746999999999999,-42.483780334947056
-0.37570000000000003,-43.36090134086337
-0.3766999999999999,-44.138992555789144
-0.37770000000000004,-44.93123088371356
-0.3786999999999999,-45.85079322862584
-0.37970000000000004,-46.88353247752732
-0.3806999999999999,-47.93041883942744
-0.38170000000000004,-48.93486386233162
-0.38269999999999993,-49.939308885235796
-0.38370000000000004,-51.127666377122424
-0.38469999999999993,-52.471642111994214
-0.38570000000000004,-53.7873236208687
-0.38669999999999993,-53.433645795902436
-0.38570000000000004,-50.98619524713592
-0.38469999999999993,-49.458307043281685
-0.38370000000000004,-48.45386202037751
-0.38269999999999993,-47.590888127459834
-0.38170000000000004,-46.79864979953541
-0.3806999999999999,-46.062999923605595
-0.37970000000000004,-45.45467406466363
-0.3786999999999999,-44.97367222270952
-0.37770000000000004,-44.45022904175945
-0.3766999999999999,-43.84190318281749
-0.37570000000000003,-43.17698887188092
-0.3746999999999999,-42.6111043519349
-0.37370000000000003,-42.229132300971344
-0.3726999999999999,-41.74813045901723
-0.37170000000000003,-41.083216148080666
-0.3706999999999999,-40.4748902891387
-0.36970000000000003,-39.90900576919269
-0.3686999999999999,-39.47044526623452
-0.3677,-38.98944342428042
-0.3666999999999999,-38.38111756533845
-0.3657,-37.73035036740053
-0.3646999999999999,-37.122024508458566
-0.3637,-36.5985813275085
-0.3626999999999999,-36.07513814655844
-0.3617,-35.38192960962457
-0.36070000000000013,-34.67457395969205
-0.3597,-34.06624810075008
-0.35870000000000013,-33.58524625879597
-0.3577,-33.06180307784591
-0.35670000000000013,-32.45347721890394
-0.3557,-31.76026868197007
-0.3547000000000001,-31.19438416202406
-0.3537,-30.670940981073993
-0.3527000000000001,-30.10505646112798
-0.3517,-29.482583489187363
-0.3507000000000001,-28.789374952253496
-0.3497,-28.22349043230748
-0.3487000000000001,-27.742488590353368
-0.3477,-27.219045409403304
-0.3467000000000001,-26.61071955046134
-0.3457,-25.91751101352747
-0.3447000000000001,-25.337479380582806
-0.3437,-24.870624651627345
-0.3427000000000001,-24.389622809673234
-0.3417,-23.724708498736668
-0.3407000000000001,-23.073941300798747
-0.3397,-22.508056780852733
-0.3387000000000001,-22.069496277894572
-0.3377,-21.58849443594046
-0.3367000000000001,-20.93772723800254
-0.3357,-20.329401379060574
-0.3347000000000001,-19.763516859114564
-0.3337,-19.367397695152352
-0.3327000000000001,-18.88639585319824
-0.3317,-18.27806999425627
-0.3307000000000001,-17.669744135314307
-0.3297,-17.146300954364243
-0.3287000000000001,-16.750181790402035
-0.3277,-16.354062626439823
-0.3267000000000001,-15.74573676749786
-0.3257,-15.179852247551842
-0.3247000000000001,-14.69885040559773
-0.3237,-14.30273124163552
-0.3227000000000001,-13.916515056772363
-0.3217,-13.349215825526485
-0.3207000000000001,-12.781916594280606
-0.3197,-12.346185513922174
-0.3187000000000001,-11.996751822855511
-0.3177,-11.604876792792895
-0.3167000000000001,-11.123874950838783
-0.3157,-10.557990430892769
-0.3147000000000001,-10.164700689530287
-0.3137,-9.81668170976349
-0.3127000000000001,-9.467248018696827
-0.3117,-9.031516938338395
-0.3107000000000001,-8.464217707092514
-0.3097,-8.11478401602585
-0.3087000000000001,-7.809206375255003
-0.3077,-7.50504344578402
-0.3067000000000001,-7.067897654125724
-0.30569999999999997,-6.588310523471475
-0.3047000000000001,-6.196435493408861
-0.30369999999999997,-5.977155241929781
-0.3027000000000001,-5.672992312458796
-0.30169999999999997,-5.279702571096316
-0.3007000000000001,-4.843971490737885
-0.29969999999999997,-4.538393849967037
-0.2987000000000001,-4.276672259492005
-0.29769999999999996,-4.014950669016974
-0.2967000000000001,-3.623075638954359
-0.29569999999999996,-3.2297858975918787
-0.2947000000000001,-2.924208256821031
-0.29369999999999996,-2.7501987669376318
-0.29270000000000007,-2.4884771764625997
-0.29169999999999996,-2.1390434853959355
-0.29070000000000007,-1.7471684553333202
-0.28969999999999996,-1.4415908145624723
-0.28870000000000007,-1.3107300193249565
-0.28769999999999996,-1.0925815368857679
-0.28670000000000007,-0.7437137303390498
-0.28569999999999995,-0.3947044526623452
-0.28470000000000006,-0.1330535977523067
-0.28369999999999995,-0.002205534916489592
-0.28270000000000006,0.17231183632356148
-0.28169999999999995,0.5211796428702795
-0.28070000000000006,0.8264743413811545
-0.27969999999999995,1.0446228238203432
-0.27870000000000006,1.175483619057859
-0.27769999999999995,1.349917522331218
-0.27670000000000006,1.6113561705462767
-0.27569999999999995,1.9607898616129409
-0.27470000000000006,2.1347993514963406
-0.27369999999999994,2.2663675023837886
-0.27270000000000005,2.396520941971372
-0.27169999999999994,2.658242532446404
-0.27070000000000005,2.963820173217252
-0.26969999999999994,3.1378296631006513
-0.26870000000000005,3.225541763692284
-0.26769999999999994,3.355695203279867
