Potential V vs RHE, Current mA cm-2
0.013299999999999867,-0.48199213986401795
0.012299999999999978,-2.3569090255751513
0.011299999999999866,-3.840941179133574
0.010299999999999976,-5.105693081212917
0.009299999999999864,-6.326588932996443
0.008299999999999974,-7.37347529489657
0.007299999999999862,-8.288793505909249
0.006299999999999972,-9.031516938338395
0.00529999999999986,-9.59740145828441
0.0042999999999999705,-10.120844639234473
0.0032999999999998586,-10.601846481188586
0.0022999999999999687,-11.123874950838783
0.0012999999999998568,-11.647318131788847
0.00029999999999996696,-12.040607873151327
-0.000700000000000145,-12.346185513922174
-0.0017000000000000348,-12.56405105410139
-0.0027000000000001467,-12.781916594280606
-0.0037000000000000366,-13.043638184755638
-0.0047000000000001485,-13.349215825526485
-0.005700000000000038,-13.654793466297335
-0.00670000000000015,-13.872659006476551
-0.00770000000000004,-14.002812446064135
-0.008700000000000152,-14.090524546655764
-0.009700000000000042,-14.217848563643619
-0.010700000000000154,-14.444202371622024
-0.011700000000000044,-14.69885040559773
-0.012700000000000156,-14.925204213576137
-0.013700000000000045,-15.05252823056399
-0.014700000000000157,-15.094969569559943
-0.015700000000000047,-15.137410908555893
-0.01670000000000016,-15.222293586547794
-0.01770000000000005,-15.3920589425316
-0.01870000000000016,-15.618412750510005
-0.01970000000000005,-15.78817810649381
-0.020700000000000163,-15.830619445489761
-0.021700000000000053,-15.830619445489761
-0.022700000000000164,-15.91550212348166
-0.023700000000000054,-16.014531914472215
-0.024700000000000166,-16.184297270456018
-0.025700000000000056,-16.354062626439823
-0.026700000000000168,-16.438945304431726
-0.027700000000000058,-16.495533756426326
-0.02870000000000017,-16.438945304431726
-0.02970000000000006,-16.495533756426326
-0.03070000000000017,-16.622857773414182
-0.03170000000000006,-16.792623129397985
-0.03270000000000017,-16.919947146385837
-0.03370000000000006,-17.018976937376394
-0.034700000000000175,-16.962388485381787
-0.035700000000000065,-16.962388485381787
-0.03670000000000018,-17.018976937376394
-0.03770000000000007,-17.103859615368293
-0.03870000000000018,-17.2736249713521
-0.03970000000000007,-17.358507649344002
-0.04070000000000018,-17.40094898833995
-0.04170000000000007,-17.358507649344002
-0.04270000000000018,-17.358507649344002
-0.04370000000000007,-17.4433903273359
-0.044700000000000184,-17.584861457322408
-0.045700000000000074,-17.71218547431026
-0.046700000000000186,-17.797068152302163
-0.047700000000000076,-17.75462681330621
-0.04870000000000019,-17.75462681330621
-0.04970000000000008,-17.71218547431026
-0.05070000000000019,-17.797068152302163
-0.05170000000000008,-17.966833508285966
-0.05270000000000019,-18.06586329927652
-0.05370000000000008,-18.06586329927652
-0.05470000000000019,-18.06586329927652
-0.05570000000000008,-17.966833508285966
-0.056700000000000195,-18.009274847281915
-0.057700000000000085,-18.10830463827247
-0.058700000000000196,-18.23562865526032
-0.059700000000000086,-18.320511333252224
-0.0607000000000002,-18.320511333252224
-0.06170000000000009,-18.27806999425627
-0.0627000000000002,-18.23562865526032
-0.06370000000000009,-18.23562865526032
-0.0647000000000002,-18.362952672248177
-0.06570000000000009,-18.44783535024008
-0.0667000000000002,-18.44783535024008
-0.0677000000000001,-18.40539401124413
-0.0687000000000002,-18.320511333252224
-0.0697000000000001,-18.27806999425627
-0.07070000000000021,-18.362952672248177
-0.0717000000000001,-18.44783535024008
-0.07270000000000021,-18.53271802823198
-0.0737000000000001,-18.49027668923603
-0.07470000000000021,-18.44783535024008
-0.0757000000000001,-18.362952672248177
-0.07670000000000021,-18.362952672248177
-0.0777000000000001,-18.40539401124413
-0.07870000000000021,-18.53271802823198
-0.0797000000000001,-18.53271802823198
-0.08070000000000022,-18.53271802823198
-0.0817000000000001,-18.40539401124413
-0.08270000000000022,-18.362952672248177
-0.08370000000000011,-18.362952672248177
-0.08470000000000022,-18.40539401124413
-0.08570000000000011,-18.49027668923603
-0.08670000000000022,-18.49027668923603
-0.08770000000000011,-18.44783535024008
-0.08870000000000022,-18.362952672248177
-0.08970000000000011,-18.27806999425627
-0.09070000000000022,-18.362952672248177
-0.09170000000000011,-18.44783535024008
-0.09270000000000023,-18.49027668923603
-0.09370000000000012,-18.49027668923603
-0.09470000000000023,-18.40539401124413
-0.09570000000000012,-18.320511333252224
-0.09670000000000023,-18.27806999425627
-0.09770000000000012,-18.362952672248177
-0.09870000000000023,-18.44783535024008
-0.09970000000000012,-18.53271802823198
-0.10070000000000023,-18.44783535024008
-0.10170000000000012,-18.362952672248177
-0.10270000000000024,-18.320511333252224
-0.10370000000000013,-18.320511333252224
-0.10470000000000024,-18.40539401124413
-0.10570000000000013,-18.49027668923603
-0.10670000000000024,-18.53271802823198
-0.10770000000000013,-18.44783535024008
-0.10870000000000024,-18.362952672248177
-0.10970000000000013,-18.320511333252224
-0.11070000000000024,-18.40539401124413
-0.11170000000000013,-18.49027668923603
-0.11270000000000002,-18.589306480226583
-0.11370000000000013,-18.589306480226583
-0.11470000000000002,-18.49027668923603
-0.11570000000000014,-18.44783535024008
-0.11670000000000003,-18.44783535024008
-0.11770000000000014,-18.53271802823198
-0.11870000000000003,-18.674189158218486
-0.11970000000000014,-18.759071836210385
-0.12070000000000003,-18.759071836210385
-0.12170000000000014,-18.674189158218486
-0.12270000000000003,-18.631747819222536
-0.12370000000000014,-18.674189158218486
-0.12470000000000003,-18.80151317520634
-0.12570000000000014,-18.88639585319824
-0.12670000000000003,-18.92883719219419
-0.12770000000000015,-18.88639585319824
-0.12870000000000004,-18.843954514202288
-0.12970000000000015,-18.843954514202288
-0.13070000000000004,-18.92883719219419
-0.13170000000000015,-19.056161209182044
-0.13270000000000004,-19.197632339168546
-0.13370000000000015,-19.2400736781645
-0.13470000000000004,-19.197632339168546
-0.13570000000000015,-19.155191000172596
-0.13670000000000004,-19.2400736781645
-0.13770000000000016,-19.3249563561564
-0.13870000000000005,-19.49472171214021
-0.13970000000000016,-19.579604390132108
-0.14070000000000005,-19.579604390132108
-0.14170000000000016,-19.537163051136158
-0.14270000000000005,-19.579604390132108
-0.14370000000000016,-19.678634181122664
-0.14470000000000005,-19.805958198110513
-0.14570000000000016,-19.93328221509837
-0.14670000000000005,-19.97572355409432
-0.14770000000000016,-19.97572355409432
-0.14870000000000005,-19.97572355409432
-0.14970000000000017,-19.97572355409432
-0.15070000000000006,-20.06060623208622
-0.15170000000000017,-20.244518701068674
-0.15270000000000006,-20.371842718056527
-0.15370000000000017,-20.414284057052477
-0.15470000000000006,-20.414284057052477
-0.15570000000000017,-20.414284057052477
-0.15670000000000006,-20.456725396048434
-0.15770000000000017,-20.626490752032236
-0.15870000000000006,-20.810403221014692
-0.15970000000000018,-20.93772723800254
-0.16070000000000007,-20.980168576998494
-0.16170000000000018,-20.980168576998494
-0.16270000000000007,-20.980168576998494
-0.16370000000000018,-21.107492593986347
-0.16470000000000007,-21.333846401964752
-0.16570000000000018,-21.503611757948562
-0.16670000000000007,-21.58849443594046
-0.16770000000000018,-21.63093577493641
-0.16870000000000007,-21.63093577493641
-0.16970000000000018,-21.729965565926964
-0.17070000000000007,-21.857289582914817
-0.17170000000000019,-22.027054938898623
-0.17270000000000008,-22.196820294882425
-0.1737000000000002,-22.295850085872978
-0.17470000000000008,-22.33829142486893
-0.1757000000000002,-22.33829142486893
-0.17670000000000008,-22.42317410286083
-0.1777000000000002,-22.592939458844636
-0.17870000000000008,-22.819293266823045
-0.1797000000000002,-22.989058622806844
-0.18070000000000008,-23.031499961802798
-0.1817000000000002,-23.073941300798747
-0.18270000000000008,-23.1163826397947
-0.1837000000000002,-23.300295108777156
-0.1847000000000001,-23.51250180375691
-0.1857000000000002,-23.724708498736668
-0.1867000000000001,-23.86617962872317
-0.1877000000000002,-23.951062306715073
-0.1887000000000001,-23.993503645711023
-0.1897000000000002,-24.078386323702922
-0.1907000000000001,-24.290593018682678
-0.1917000000000001,-24.516946826661083
-0.19269999999999998,-24.64427084364894
-0.1937000000000001,-24.771594860636792
-0.19469999999999998,-24.870624651627345
-0.1957000000000001,-24.9130659906233
-0.19669999999999999,-24.997948668615198
-0.1977000000000001,-25.210155363594954
-0.1987,-25.43650917157336
-0.1997000000000001,-25.60627452755716
-0.2007,-25.73359854454502
-0.2017000000000001,-25.81848122253692
-0.2027,-25.86092256153287
-0.2037000000000001,-26.044835030515326
-0.2047,-26.257041725495082
-0.2057000000000001,-26.525836872469437
-0.2067,-26.738043567449193
-0.2077000000000001,-26.822926245441096
-0.2087,-26.907808923433
-0.2097000000000001,-27.049280053419505
-0.2107,-27.261486748399253
-0.2117000000000001,-27.530281895373616
-0.2127,-27.78492992934932
-0.2137000000000001,-27.954695285333123
-0.2147,-28.09616641531963
-0.2157000000000001,-28.22349043230748
-0.2167,-28.350814449295335
-0.21770000000000012,-28.619609596269694
-0.2187,-28.8742576302454
-0.21970000000000012,-29.100611438223805
-0.2207,-29.22793545521166
-0.22170000000000012,-29.35525947219951
-0.2227,-29.482583489187363
-0.22370000000000012,-29.66649595816982
-0.2247,-29.96358533114148
-0.22570000000000012,-30.274821817111786
-0.2267,-30.487028512091538
-0.22770000000000012,-30.571911190083444
-0.22870000000000001,-30.71338232006995
-0.22970000000000013,-30.88314767605375
-0.23070000000000002,-31.095354371033505
-0.23170000000000013,-31.36414951800786
-0.23270000000000002,-31.661238890979522
-0.23370000000000013,-31.887592698957924
-0.23470000000000002,-32.01491671594578
-0.23570000000000013,-32.14224073293363
-0.23670000000000002,-32.368594540912035
-0.2376999999999999,-32.66568391388369
-0.23870000000000002,-32.97692039985401
-0.2396999999999999,-33.288156885824314
-0.24070000000000003,-33.45792224180811
-0.24169999999999991,-33.58524625879597
-0.24270000000000003,-33.81160006677438
-0.24369999999999992,-34.06624810075008
-0.24470000000000003,-34.377484586720385
-0.24569999999999992,-34.67457395969205
-0.24670000000000003,-34.90092776767045
-0.24769999999999992,-35.02825178465831
-0.24870000000000003,-35.15557580164616
-0.24969999999999992,-35.38192960962457
-0.25070000000000003,-35.594136304604326
-0.2516999999999999,-35.94781412957058
-0.25270000000000004,-36.244903502542236
-0.2536999999999999,-36.4288159715247
-0.25470000000000004,-36.55613998851254
-0.2556999999999999,-36.6834640055004
-0.25670000000000004,-36.89567070048016
-0.25769999999999993,-37.164465847454515
-0.25870000000000004,-37.47570233342482
-0.25969999999999993,-37.687909028404576
-0.26070000000000004,-37.85767438438838
-0.26169999999999993,-37.99914551437489
-0.26270000000000004,-38.12646953136274
-0.26369999999999993,-38.33867622634249
-0.26470000000000005,-38.607471373316855
-0.26569999999999994,-38.86211940729255
-0.26670000000000005,-39.130914554266916
-0.26769999999999994,-39.258238571254765
-0.26870000000000005,-39.34312124924667
-0.26969999999999994,-39.47044526623452
-0.27070000000000005,-39.654357735216976
-0.27169999999999994,-39.90900576919269
-0.27270000000000005,-40.135359577171094
-0.27369999999999994,-40.30512493315489
-0.27470000000000006,-40.34756627215084
-0.27569999999999995,-40.43244895014274
-0.27670000000000006,-40.559772967130606
-0.27769999999999995,-40.78612677510901
-0.27870000000000006,-40.99833347008877
-0.27969999999999995,-41.182245939071215
-0.28070000000000006,-41.267128617063115
-0.28169999999999995,-41.30956995605907
-0.28270000000000006,-41.30956995605907
-0.28369999999999995,-41.43689397304693
-0.28470000000000006,-41.56421799003478
-0.28569999999999995,-41.70568912002128
-0.28670000000000007,-41.83301313700913
-0.28769999999999996,-41.83301313700913
-0.28870000000000007,-41.74813045901723
-0.28969999999999996,-41.79057179801318
-0.29070000000000007,-41.83301313700913
-0.29169999999999996,-41.91789581500104
-0.29270000000000007,-42.00277849299294
-0.29369999999999996,-42.04521983198889
-0.2947000000000001,-41.96033715399699
-0.29569999999999996,-41.83301313700913
-0.2967000000000001,-41.79057179801318
-0.29769999999999996,-41.83301313700913
-0.2987000000000001,-41.91789581500104
-0.29969999999999997,-41.96033715399699
-0.3007000000000001,-41.87545447600508
-0.30169999999999997,-41.74813045901723
-0.3027000000000001,-41.56421799003478
-0.30369999999999997,-41.52177665103883
-0.3047000000000001,-41.47933531204288
-0.30569999999999997,-41.52177665103883
-0.3067000000000001,-41.43689397304693
-0.3077,-41.30956995605907
-0.3087000000000001,-41.083216148080666
-0.3097,-40.95589213109281
-0.3107000000000001,-40.87100945310091
-0.3117,-40.828568114104954
-0.3127000000000001,-40.78612677510901
-0.3137,-40.65880275812115
-0.3147000000000001,-40.43244895014274
-0.3157,-40.26268359415894
-0.3167000000000001,-40.092918238175145
-0.3177,-39.99388844718459
-0.3187000000000001,-39.95144710818864
-0.3197,-39.82412309120078
-0.3207000000000001,-39.654357735216976
-0.3217,-39.38556258824262
-0.3227000000000001,-39.173355893262865
-0.3237,-39.046031876275016
-0.3247000000000001,-38.94700208528445
-0.3257,-38.90456074628851
-0.3267000000000001,-38.777236729300654
-0.3277,-38.5650300343209
-0.3287000000000001,-38.29623488734655
-0.3297,-38.16891087035869
-0.3307000000000001,-38.08402819236679
-0.3317,-38.04158685337084
-0.3327000000000001,-37.99914551437489
-0.3337,-37.90011572338433
-0.3347000000000001,-37.73035036740053
-0.3357,-37.56058501141672
-0.3367000000000001,-37.47570233342482
-0.3377,-37.47570233342482
-0.3387000000000001,-37.51814367242077
-0.3397,-37.47570233342482
-0.3407000000000001,-37.376672542434264
-0.3417,-37.206907186450465
-0.3427000000000001,-37.122024508458566
-0.3437,-37.122024508458566
-0.3447000000000001,-37.206907186450465
-0.3457,-37.291789864442364
-0.3467000000000001,-37.334231203438314
-0.3477,-37.334231203438314
-0.3487000000000001,-37.249348525446415
-0.3497,-37.291789864442364
-0.3507000000000001,-37.376672542434264
-0.3517,-37.51814367242077
-0.3527000000000001,-37.645467689408626
-0.3537,-37.77279170639648
-0.3547000000000001,-37.81523304539243
-0.3557,-37.85767438438838
-0.35670000000000013,-38.04158685337084
-0.3577,-38.253793548350586
-0.35870000000000013,-38.5650300343209
-0.3597,-38.81967806829661
-0.36070000000000013,-38.98944342428042
-0.3617,-39.130914554266916
-0.3626999999999999,-39.258238571254765
-0.3637,-39.51288660523048
-0.3646999999999999,-39.82412309120078
-0.3657,-40.220242255162994
-0.3666999999999999,-40.51733162813464
-0.3677,-40.78612677510901
-0.3686999999999999,-41.083216148080666
-0.36970000000000003,-41.43689397304693
-0.3706999999999999,-41.83301313700913
-0.37170000000000003,-42.3564563179592
-0.3726999999999999,-42.837458159913304
-0.37370000000000003,-43.31846000186743
-0.3746999999999999,-43.75702050482558
-0.37570000000000003,-44.138992555789144
-0.3766999999999999,-44.66243573673921
-0.37770000000000004,-45.32735004767578
-0.3786999999999999,-46.02055858460964
-0.37970000000000004,-46.713767121543505
-0.3806999999999999,-47.32209298048547
-0.38170000000000004,-47.8879775004315
-0.38269999999999993,-48.51045047237211
-0.38370000000000004,-49.28854168729788
-0.38469999999999993,-50.1656626932142
-0.38570000000000004,-51.127666377122424
-0.38669999999999993,-50.42031072718991
-0.38570000000000004,-47.46356411047198
-0.38469999999999993,-45.18587891768927
-0.38370000000000004,-43.44578401885527
-0.38269999999999993,-42.00277849299294
-0.38170000000000004,-40.87100945310091
-0.3806999999999999,-39.86656443019674
-0.37970000000000004,-38.90456074628851
-0.3786999999999999,-37.94255706238028
-0.37770000000000004,-37.037141830466666
-0.3766999999999999,-36.20246216354629
-0.37570000000000003,-35.594136304604326
-0.3746999999999999,-34.94336910666641
-0.37370000000000003,-34.33504324772444
-0.3726999999999999,-33.54280491980002
-0.37170000000000003,-32.807155043870196
-0.3706999999999999,-32.09979939393769
-0.36970000000000003,-31.449032195999767
-0.3686999999999999,-30.88314767605375
-0.3677,-30.359704495103685
-0.3666999999999999,-29.751378636161718
-0.3657,-29.14305277721976
-0.3646999999999999,-28.435697127287238
-0.3637,-27.827371268345274
-0.3626999999999999,-27.303928087395207
-0.3617,-26.822926245441096
-0.36070000000000013,-26.29948306449103
-0.3597,-25.73359854454502
-0.35870000000000013,-25.0828313466071
-0.3577,-24.432064148669184
-0.35670000000000013,-23.86617962872317
-0.3557,-23.385177786769056
-0.3547000000000001,-22.946617283810895
-0.3537,-22.42317410286083
-0.3527000000000001,-21.814848243918867
-0.3517,-21.2065223849769
-0.3507000000000001,-20.584049413036283
-0.3497,-20.06060623208622
-0.3487000000000001,-19.579604390132108
-0.3477,-19.155191000172596
-0.3467000000000001,-18.674189158218486
-0.3457,-18.06586329927652
-0.3447000000000001,-17.4433903273359
-0.3437,-16.962388485381787
-0.3427000000000001,-16.495533756426326
-0.3417,-16.099414592464115
-0.3407000000000001,-15.660854089505953
-0.3397,-15.179852247551842
-0.3387000000000001,-14.65640906660178
-0.3377,-14.046668496359947
-0.3367000000000001,-13.567081365705702
-0.3357,-13.175206335643086
-0.3347000000000001,-12.781916594280606
-0.3337,-12.390041564217992
-0.3327000000000001,-11.909039722263879
-0.3317,-11.385596541313816
-0.3307000000000001,-10.863568071663616
-0.3297,-10.382566229709504
-0.3287000000000001,-10.078403300238522
-0.3277,-9.728969609171857
-0.3267000000000001,-9.293238528813426
-0.3257,-8.812236686859313
-0.3247000000000001,-8.332649556205066
-0.3237,-7.853062425550818
-0.3227000000000001,-7.50504344578402
-0.3217,-7.199465805013171
-0.3207000000000001,-6.893888164242324
-0.3197,-6.500598422879844
-0.3187000000000001,-6.021011292225596
-0.3177,-5.585280211867165
-0.3167000000000001,-5.235846520800501
-0.3157,-4.9302688800296535
-0.3147000000000001,-4.668547289554621
-0.3137,-4.364384360083638
-0.3127000000000001,-3.971094618721158
-0.3117,-3.5353635383627267
-0.3107000000000001,-3.1420737970002466
-0.3097,-2.8379108675292635
-0.3087000000000001,-2.618630616050183
-0.3077,-2.3569090255751513
-0.3067000000000001,-2.095187435100119
-0.30569999999999997,-1.7033124050375041
-0.3047000000000001,-1.3107300193249565
-0.30369999999999997,-0.9617207416482519
-0.3027000000000001,-0.7001406223032067
-0.30169999999999997,-0.5255652478998613
-0.3007000000000001,-0.30755823659065895
-0.29969999999999997,-0.002205534916489592
-0.2987000000000001,0.3467457395969205
-0.29769999999999996,0.6956135461436386
-0.2967000000000001,0.9573351366186703
-0.29569999999999996,1.1317690398920295
-0.2947000000000001,1.3063444142953748
-0.29369999999999996,1.5250587812545096
-0.29270000000000007,1.8292217107254924
-0.29169999999999996,2.1347993514963406
-0.29070000000000007,2.4403769922671885
-0.28969999999999996,2.658242532446404
-0.28870000000000007,2.7898106833338523
-0.28769999999999996,2.919964122921436
-0.28670000000000007,3.1378296631006513
-0.28569999999999995,3.3995512535756833
-0.28470000000000006,3.748984944642347
-0.28369999999999995,3.9668504848215624
-0.28270000000000006,4.140859974704963
-0.28169999999999995,4.272428125592412
-0.28070000000000006,4.402581565179994
-0.27969999999999995,4.578005766363259
-0.27870000000000006,4.883583407134107
-0.27769999999999995,5.145304997609139
-0.27670000000000006,5.319314487492538
-0.27569999999999995,5.449467927080121
-0.27470000000000006,5.537180027671754
-0.27369999999999994,5.667333467259336
-0.27270000000000005,5.886613718738418
-0.27169999999999994,6.14833530921345
-0.27070000000000005,6.366200849392665
-0.26969999999999994,6.540210339276065
-0.26870000000000005,6.627922439867697
-0.26769999999999994,6.671778490163514
-0.26670000000000005,6.845787980046913
