Potential V vs RHE, Current mA cm-2
0.05339999999999995,-0.1385285304827844
0.05239999999999995,-0.14110330504853877
0.051399999999999946,-0.14189554337646318
0.050399999999999945,-0.1424614278964092
0.049399999999999944,-0.1428858412863687
0.04839999999999994,-0.14316878354634172
0.04739999999999994,-0.14387613919627423
0.04639999999999994,-0.14430055258623375
0.04539999999999994,-0.14486643710617977
0.04439999999999994,-0.14514937936615277
0.04339999999999994,-0.14557379275611226
0.04239999999999994,-0.14599820614607179
0.04139999999999994,-0.14642261953603128
0.040399999999999936,-0.14698850405597733
0.039399999999999935,-0.14727144631595032
0.038399999999999934,-0.14783733083589634
0.03739999999999993,-0.14812027309586934
0.03639999999999993,-0.14840321535584233
0.03539999999999993,-0.14911057100577488
0.03439999999999993,-0.14953498439573437
0.03339999999999993,-0.1498179266557074
0.03239999999999993,-0.1501008689156804
0.03139999999999993,-0.1503838111756534
0.030399999999999927,-0.1508082245656129
0.029399999999999926,-0.1512326379555724
0.028399999999999925,-0.15193999360550495
0.027399999999999924,-0.15222293586547794
0.026399999999999924,-0.15278882038542396
0.025399999999999923,-0.15307176264539696
0.024399999999999922,-0.15363764716534298
0.02339999999999992,-0.15448647394526202
0.02239999999999992,-0.15491088733522151
0.02139999999999992,-0.15547677185516753
0.020399999999999918,-0.15590118524512703
0.019399999999999917,-0.15632559863508652
0.018399999999999916,-0.15689148315503257
0.017399999999999916,-0.15731589654499206
0.016399999999999915,-0.15774030993495158
0.015399999999999914,-0.15816472332491108
0.014399999999999913,-0.1584476655848841
0.013399999999999912,-0.1587306078448571
0.012399999999999911,-0.15901355010483012
0.01139999999999991,-0.15915502123481662
0.01039999999999991,-0.15915502123481662
0.009399999999999908,-0.15943796349478964
0.008399999999999908,-0.16028679027470866
0.007399999999999907,-0.16085267479465465
0.006399999999999906,-0.16113561705462764
0.005399999999999905,-0.1615600304445872
0.004399999999999904,-0.1618429727045602
0.003399999999999903,-0.16212591496453319
0.002399999999999902,-0.1624088572245062
0.0013999999999999013,-0.1625503283544927
0.00039999999999990044,-0.1628332706144657
-0.0006000000000001005,-0.16339915513441172
-0.0016000000000001013,-0.16354062626439822
-0.0026000000000001022,-0.16382356852437122
-0.003600000000000103,-0.16396503965435774
-0.004600000000000104,-0.16424798191433077
-0.005600000000000105,-0.16495533756426325
-0.006600000000000106,-0.16509680869424978
-0.007600000000000107,-0.16523827982423628
-0.008600000000000108,-0.1658041643441823
-0.009600000000000108,-0.16622857773414182
-0.01060000000000011,-0.16637004886412832
-0.01160000000000011,-0.1666529911241013
-0.012600000000000111,-0.1669359333840743
-0.013600000000000112,-0.16707740451406086
-0.014600000000000113,-0.16707740451406086
-0.015600000000000114,-0.16707740451406086
-0.016600000000000115,-0.16750181790402036
-0.017600000000000116,-0.16764328903400685
-0.018600000000000116,-0.16806770242396638
-0.019600000000000117,-0.16835064468393937
-0.020600000000000118,-0.16835064468393937
-0.02160000000000012,-0.16905800033387192
-0.02260000000000012,-0.16919947146385841
-0.02360000000000012,-0.1694824137238314
-0.024600000000000122,-0.1697653559838044
-0.025600000000000123,-0.17004829824377743
-0.026600000000000124,-0.17004829824377743
-0.027600000000000124,-0.17033124050375043
-0.028600000000000125,-0.17047271163373692
-0.029600000000000126,-0.17075565389370992
-0.030600000000000127,-0.17103859615368294
-0.03160000000000013,-0.17146300954364244
-0.03260000000000013,-0.17202889406358848
-0.03360000000000013,-0.17231183632356148
-0.03460000000000002,-0.17259477858353447
-0.03560000000000002,-0.1728777208435075
-0.03660000000000002,-0.173019191973494
-0.03760000000000002,-0.1737265476234265
-0.03860000000000002,-0.1737265476234265
-0.039600000000000024,-0.173868018753413
-0.040600000000000025,-0.173868018753413
-0.041600000000000026,-0.17457537440334553
-0.04260000000000003,-0.17485831666331855
-0.04360000000000003,-0.17485831666331855
-0.04460000000000003,-0.17514125892329155
-0.04560000000000003,-0.17528273005327805
-0.04660000000000003,-0.17570714344323757
-0.04760000000000003,-0.17599008570321056
-0.04860000000000003,-0.17613155683319706
-0.04960000000000003,-0.17613155683319706
-0.050600000000000034,-0.17641449909317006
-0.051600000000000035,-0.17655597022315658
-0.052600000000000036,-0.1768389124831296
-0.053600000000000037,-0.1774047970030756
-0.05460000000000004,-0.17768773926304862
-0.05560000000000004,-0.17768773926304862
-0.05660000000000004,-0.1774047970030756
-0.05760000000000004,-0.1774047970030756
-0.05860000000000004,-0.17797068152302162
-0.05960000000000004,-0.1782536237829946
-0.06060000000000004,-0.1782536237829946
-0.061600000000000044,-0.17867803717295414
-0.06260000000000004,-0.17896097943292713
-0.06360000000000005,-0.17910245056291366
-0.06460000000000005,-0.17910245056291366
-0.06560000000000005,-0.17938539282288665
-0.06660000000000005,-0.17995127734283267
-0.06760000000000005,-0.18023421960280567
-0.06860000000000005,-0.18023421960280567
-0.06960000000000005,-0.1805171618627787
-0.07060000000000005,-0.1808001041227517
-0.07160000000000005,-0.1808001041227517
-0.07260000000000005,-0.18108304638272468
-0.07360000000000005,-0.18108304638272468
-0.07460000000000006,-0.18136598864269768
-0.07560000000000006,-0.18150745977268423
-0.07660000000000006,-0.18164893090267073
-0.07760000000000006,-0.18207334429263022
-0.07860000000000006,-0.18320511333252223
-0.07960000000000006,-0.18334658446250876
-0.08060000000000006,-0.18348805559249526
-0.08160000000000006,-0.18362952672248176
-0.08260000000000006,-0.18377099785246825
-0.08360000000000006,-0.18405394011244128
-0.08460000000000006,-0.18362952672248176
-0.08560000000000006,-0.18334658446250876
-0.08660000000000007,-0.18405394011244128
-0.08760000000000007,-0.1843368823724143
-0.08860000000000007,-0.1844783535024008
-0.08960000000000007,-0.1844783535024008
-0.09060000000000007,-0.1846198246323873
-0.09160000000000007,-0.1850442380223468
-0.09260000000000007,-0.18532718028231981
-0.09360000000000007,-0.1854686514123063
-0.09460000000000007,-0.1858930648022658
-0.09560000000000007,-0.18631747819222533
-0.09660000000000007,-0.18645894932221183
-0.09760000000000008,-0.18631747819222533
-0.09860000000000008,-0.18674189158218485
-0.09960000000000008,-0.18744924723211737
-0.10060000000000008,-0.18773218949209036
-0.10160000000000008,-0.18773218949209036
-0.10260000000000008,-0.18773218949209036
-0.10360000000000008,-0.18801513175206336
-0.10460000000000008,-0.18843954514202288
-0.10560000000000008,-0.18843954514202288
-0.10660000000000008,-0.18858101627200938
-0.10760000000000008,-0.18886395853198237
-0.10860000000000009,-0.18928837192194192
-0.10960000000000009,-0.18985425644188791
-0.11060000000000009,-0.19013719870186094
-0.11160000000000009,-0.19042014096183393
-0.11260000000000009,-0.19084455435179343
-0.11360000000000009,-0.19169338113171247
-0.11460000000000009,-0.19183485226169897
-0.11560000000000009,-0.1922592656516585
-0.11660000000000009,-0.1919763233916855
-0.1176000000000001,-0.192117794521672
-0.1186000000000001,-0.19268367904161798
-0.1196000000000001,-0.1933910346915505
-0.1206000000000001,-0.19282515017160448
-0.1216000000000001,-0.1931080924315775
-0.1226000000000001,-0.1936739769515235
-0.1236000000000001,-0.1936739769515235
-0.1246000000000001,-0.19381544808151
-0.1256000000000001,-0.1936739769515235
-0.1266000000000001,-0.19423986147146954
-0.1276000000000001,-0.19423986147146954
-0.1286000000000001,-0.19494721712140206
-0.1296000000000001,-0.19565457277133455
-0.1306000000000001,-0.19579604390132105
-0.1316000000000001,-0.19551310164134805
-0.1326000000000001,-0.19593751503130757
-0.1336000000000001,-0.19607898616129407
-0.1346000000000001,-0.19636192842126707
-0.1356000000000001,-0.19593751503130757
-0.1366000000000001,-0.19622045729128057
-0.1376000000000001,-0.1965033995512536
-0.1386000000000001,-0.19622045729128057
-0.1396000000000001,-0.1965033995512536
-0.1406000000000001,-0.1965033995512536
-0.14160000000000011,-0.19692781294121312
-0.14260000000000012,-0.19777663972113213
-0.14360000000000012,-0.1974936974611591
-0.14460000000000012,-0.1974936974611591
-0.14560000000000012,-0.1976351685911456
-0.14660000000000012,-0.1973522263311726
-0.14760000000000012,-0.1972107552011861
-0.14860000000000012,-0.19777663972113213
-0.14960000000000012,-0.19848399537106462
-0.15060000000000012,-0.19876693763103764
-0.15160000000000012,-0.19848399537106462
-0.15260000000000012,-0.19876693763103764
-0.15360000000000013,-0.19876693763103764
-0.15460000000000013,-0.19834252424107812
-0.15560000000000013,-0.19848399537106462
-0.15660000000000013,-0.19919135102099716
-0.15760000000000013,-0.19961576441095666
-0.15860000000000013,-0.19961576441095666
-0.15960000000000002,-0.19961576441095666
-0.16060000000000002,-0.19947429328097016
-0.16160000000000002,-0.19975723554094318
-0.16260000000000002,-0.19989870667092968
-0.16360000000000002,-0.20004017780091618
-0.16460000000000002,-0.20046459119087567
-0.16560000000000002,-0.20046459119087567
-0.16660000000000003,-0.2008890045808352
-0.16760000000000003,-0.2011719468408082
-0.16860000000000003,-0.20187930249074074
-0.16960000000000003,-0.20187930249074074
-0.17060000000000003,-0.20131341797079472
-0.17160000000000003,-0.20159636023076774
-0.17260000000000003,-0.20173783136075424
-0.17360000000000003,-0.20202077362072723
-0.17460000000000003,-0.20230371588070023
-0.17560000000000003,-0.20301107153063278
-0.17660000000000003,-0.20301107153063278
-0.17760000000000004,-0.20329401379060577
-0.17860000000000004,-0.2040013694405383
-0.17960000000000004,-0.2035769560505788
-0.18060000000000004,-0.20301107153063278
-0.18160000000000004,-0.20343548492059227
-0.18260000000000004,-0.2040013694405383
-0.18360000000000004,-0.2035769560505788
-0.18460000000000004,-0.20343548492059227
-0.18560000000000004,-0.2035769560505788
-0.18660000000000004,-0.20428431170051128
-0.18760000000000004,-0.20485019622045733
-0.18860000000000005,-0.2041428405705248
-0.18960000000000005,-0.20470872509047083
-0.19060000000000005,-0.20541608074040332
-0.19160000000000005,-0.20513313848043033
-0.19260000000000005,-0.20499166735044383
-0.19360000000000005,-0.20527460961041682
-0.19460000000000005,-0.20513313848043033
-0.19560000000000005,-0.20541608074040332
-0.19660000000000005,-0.20527460961041682
-0.19760000000000005,-0.20569902300037635
-0.19860000000000005,-0.20626490752032234
-0.19960000000000006,-0.20697226317025488
-0.20060000000000006,-0.20640637865030886
-0.20160000000000006,-0.20626490752032234
-0.20260000000000006,-0.2065478497802954
-0.20360000000000006,-0.20725520543022788
-0.20460000000000006,-0.20725520543022788
-0.20560000000000006,-0.20725520543022788
-0.20660000000000006,-0.2079625610801604
-0.20760000000000006,-0.2081040322101469
-0.20860000000000006,-0.2082455033401334
-0.20960000000000006,-0.2081040322101469
-0.21060000000000006,-0.20852844560010642
-0.21160000000000007,-0.2088113878600794
-0.21260000000000007,-0.20923580125003893
-0.21360000000000007,-0.20951874351001196
-0.21460000000000007,-0.20966021463999845
-0.21560000000000007,-0.21008462802995795
-0.21660000000000007,-0.20994315689997145
-0.21760000000000007,-0.21022609915994445
-0.21860000000000007,-0.21050904141991747
-0.21960000000000007,-0.21079198367989047
-0.22060000000000007,-0.2119237527197825
-0.22160000000000007,-0.2119237527197825
-0.22260000000000008,-0.21291405062968802
-0.22360000000000008,-0.21347993514963404
-0.22460000000000008,-0.21333846401964754
-0.22560000000000008,-0.21333846401964754
-0.22660000000000008,-0.21376287740960703
-0.22760000000000008,-0.21404581966958006
-0.22860000000000008,-0.21418729079956658
-0.22960000000000008,-0.21418729079956658
-0.23060000000000008,-0.21475317531951257
-0.23160000000000008,-0.2151775887094721
-0.23260000000000008,-0.2154605309694451
-0.23360000000000009,-0.2156020020994316
-0.2346000000000001,-0.2160264154893911
-0.2356000000000001,-0.21630935774936413
-0.2366000000000001,-0.21701671339929662
-0.2376000000000001,-0.21758259791924262
-0.2386000000000001,-0.21800701130920216
-0.2396000000000001,-0.21800701130920216
-0.2406000000000001,-0.2189973092191077
-0.2416000000000001,-0.21913878034909418
-0.2426000000000001,-0.2195631937390537
-0.2436000000000001,-0.22012907825899972
-0.2446000000000001,-0.22083643390893223
-0.2456000000000001,-0.22126084729889173
-0.2466000000000001,-0.22168526068885125
-0.2476000000000001,-0.22253408746877026
-0.2486000000000001,-0.2228170297287433
-0.2496000000000001,-0.2228170297287433
-0.2506000000000001,-0.22338291424868928
-0.2516000000000001,-0.22380732763864883
-0.2526000000000001,-0.22409026989862182
-0.2536000000000001,-0.22437321215859482
-0.2546000000000001,-0.22479762554855431
-0.2556000000000001,-0.22493909667854084
-0.2566000000000001,-0.22493909667854084
-0.2576000000000001,-0.22536351006850036
-0.2586000000000001,-0.22592939458844638
-0.2596000000000001,-0.22663675023837887
-0.2606000000000001,-0.2267782213683654
-0.2616000000000001,-0.22691969249835187
-0.2626000000000001,-0.22720263475832486
-0.2636000000000001,-0.22776851927827088
-0.2646000000000001,-0.2284758749282034
-0.2656000000000001,-0.22833440379821693
-0.2666000000000001,-0.2284758749282034
-0.2676000000000001,-0.22904175944814942
-0.2686000000000001,-0.2293247017081224
-0.2696000000000001,-0.22946617283810894
-0.2706000000000001,-0.2293247017081224
-0.2716000000000001,-0.23003205735805496
-0.2726000000000001,-0.23045647074801448
-0.2736000000000001,-0.23059794187800098
-0.2746000000000001,-0.23045647074801448
-0.2756000000000001,-0.2307394130079875
-0.2766000000000001,-0.23088088413797397
-0.2776000000000001,-0.2307394130079875
-0.2786000000000001,-0.23088088413797397
-0.2796000000000001,-0.2310223552679605
-0.2806000000000001,-0.23158823978790652
-0.28160000000000013,-0.23272000882779853
-0.28260000000000013,-0.23314442221775805
-0.28360000000000013,-0.23300295108777153
-0.2846,-0.232578537697812
-0.2856,-0.23300295108777153
-0.2866,-0.23356883560771755
-0.2876,-0.23385177786769054
-0.2886,-0.2345591335176231
-0.2896,-0.23427619125765006
-0.2906,-0.23470060464760956
-0.2916,-0.23413472012766354
-0.2926,-0.23385177786769054
-0.2936,-0.23371030673770407
-0.29460000000000003,-0.23342736447773108
-0.29560000000000003,-0.23328589334774452
-0.29660000000000003,-0.23356883560771755
-0.29760000000000003,-0.23328589334774452
-0.29860000000000003,-0.23342736447773108
-0.29960000000000003,-0.23342736447773108
-0.30060000000000003,-0.23300295108777153
-0.30160000000000003,-0.23314442221775805
-0.30260000000000004,-0.23328589334774452
-0.30360000000000004,-0.23286147995778506
-0.30460000000000004,-0.23272000882779853
-0.30560000000000004,-0.23300295108777153
-0.30660000000000004,-0.23314442221775805
-0.30760000000000004,-0.23286147995778506
-0.30860000000000004,-0.23272000882779853
-0.30960000000000004,-0.23328589334774452
-0.31060000000000004,-0.23229559543783898
-0.31160000000000004,-0.23229559543783898
-0.31260000000000004,-0.23809591176728565
-0.31360000000000005,-0.23753002724733965
-0.31460000000000005,-0.23611531594747462
-0.31560000000000005,-0.23583237368750162
-0.31660000000000005,-0.23512501803756908
-0.31760000000000005,-0.2345591335176231
-0.31860000000000005,-0.23399324899767707
-0.31960000000000005,-0.23399324899767707
-0.32060000000000005,-0.23385177786769054
-0.32160000000000005,-0.23328589334774452
-0.32260000000000005,-0.23286147995778506
-0.32360000000000005,-0.23243706656782553
-0.32460000000000006,-0.23229559543783898
-0.32560000000000006,-0.231729710917893
-0.32660000000000006,-0.23158823978790652
-0.32760000000000006,-0.23201265317786599
-0.32860000000000006,-0.23272000882779853
-0.32960000000000006,-0.23484207577759608
-0.33060000000000006,-0.23470060464760956
-0.33160000000000006,-0.23371030673770407
-0.33260000000000006,-0.23328589334774452
-0.33360000000000006,-0.23272000882779853
-0.33460000000000006,-0.23314442221775805
-0.33560000000000006,-0.23441766238763656
-0.33660000000000007,-0.2345591335176231
-0.33760000000000007,-0.2345591335176231
-0.33860000000000007,-0.23484207577759608
-0.33960000000000007,-0.2345591335176231
-0.34060000000000007,-0.23342736447773108
-0.34160000000000007,-0.23286147995778506
-0.34260000000000007,-0.23356883560771755
-0.34360000000000007,-0.23328589334774452
-0.3446000000000001,-0.23328589334774452
-0.3456000000000001,-0.23371030673770407
-0.3466000000000001,-0.23342736447773108
-0.34759999999999996,-0.23371030673770407
-0.3486000000000001,-0.23512501803756908
-0.34959999999999997,-0.23427619125765006
-0.3506000000000001,-0.23385177786769054
-0.35159999999999997,-0.23342736447773108
-0.3526000000000001,-0.23243706656782553
-0.35359999999999997,-0.23243706656782553
-0.3546000000000001,-0.23243706656782553
-0.35559999999999997,-0.232578537697812
-0.3566000000000001,-0.23300295108777153
-0.3576,-0.23371030673770407
-0.3586000000000001,-0.23342736447773108
-0.3596,-0.23342736447773108
-0.3606000000000001,-0.23385177786769054
-0.3616,-0.23356883560771755
-0.3626000000000001,-0.23328589334774452
-0.3636,-0.23427619125765006
-0.3646000000000001,-0.23470060464760956
-0.3656,-0.2345591335176231
-0.3666000000000001,-0.23484207577759608
-0.3676,-0.23427619125765006
-0.3686000000000001,-0.23526648916755558
-0.3696,-0.2368226715974071
-0.3706000000000001,-0.23625678707746112
-0.3716,-0.23767149837732615
-0.3726000000000001,-0.23781296950731265
-0.3736,-0.24149121888696176
-0.3746000000000001,-0.24191563227692126
-0.3756,-0.24106680549700227
-0.3766000000000001,-0.24078386323702924
-0.3776,-0.24417917035670533
-0.3786000000000001,-0.24446211261667833
-0.3796,-0.24106680549700227
-0.3806000000000001,-0.24050092097705625
-0.3816,-0.24035944984706975
-0.3826000000000001,-0.24050092097705625
-0.3836,-0.2420571034069078
-0.3846000000000001,-0.24516946826661082
-0.3856,-0.24997948668615194
-0.3866000000000001,-0.24913065990623293
-0.3876,-0.24884771764625993
-0.3886000000000001,-0.2485647753862869
-0.3896,-0.24799889086634092
-0.3906000000000001,-0.24969654442617895
-0.3916,-0.24870624651627343
-0.3926000000000001,-0.24729153521640837
-0.3936,-0.24630123730650288
-0.3946000000000001,-0.24644270843648935
-0.3956,-0.2468671218264489
-0.3966000000000001,-0.2477159486063679
-0.3976,-0.24870624651627343
-0.3986000000000001,-0.24969654442617895
-0.3996,-0.2485647753862869
-0.4006000000000001,-0.2477159486063679
-0.4016,-0.24672565069646235
-0.4026000000000001,-0.24587682391654336
-0.4036,-0.2482818331263139
-0.4046000000000001,-0.2482818331263139
-0.4056,-0.2485647753862869
-0.40660000000000013,-0.2485647753862869
-0.4076,-0.24799889086634092
-0.40860000000000013,-0.24729153521640837
-0.4096,-0.2477159486063679
-0.41060000000000013,-0.2460182950465299
-0.4116,-0.24516946826661082
-0.41260000000000013,-0.24587682391654336
-0.4136,-0.24757447747638137
-0.41460000000000014,-0.24842330425630044
-0.4156,-0.251960082505963
-0.41660000000000014,-0.25068684233608446
-0.4176,-0.24898918877624646
-0.41860000000000014,-0.24842330425630044
-0.41960000000000003,-0.2468671218264489
-0.42060000000000014,-0.24545241052658387
-0.42160000000000003,-0.24983801555616547
-0.42260000000000014,-0.2518186113759765
-0.42360000000000003,-0.24997948668615194
-0.42460000000000014,-0.24955507329619245
-0.42560000000000003,-0.24884771764625993
-0.42660000000000015,-0.24898918877624646
-0.42760000000000004,-0.24884771764625993
-0.42860000000000015,-0.24814036199632744
-0.42960000000000004,-0.24969654442617895
-0.43060000000000015,-0.24870624651627343
-0.43160000000000004,-0.24927213103621945
-0.43260000000000015,-0.25026242894612494
-0.43360000000000004,-0.24870624651627343
-0.43460000000000015,-0.2482818331263139
-0.43560000000000004,-0.25096978459605745
-0.43660000000000015,-0.24983801555616547
-0.43760000000000004,-0.24842330425630044
-0.43860000000000016,-0.24785741973635445
