Potential V vs RHE, Current mA cm-2
0.4132999999999999,-0.017881950830294063
0.4122999999999999,-0.019622045729128058
0.4112999999999999,-0.02007475334508487
0.4102999999999999,-0.020315254266061927
0.4092999999999999,-0.020499166735044382
0.4082999999999999,-0.020640637865030884
0.4072999999999999,-0.02075381476902009
0.4062999999999999,-0.02088113878600794
0.4052999999999999,-0.020980168576998495
0.4042999999999999,-0.021107492593986348
0.4032999999999999,-0.02119237527197825
0.4022999999999999,-0.021291405062968803
0.4012999999999999,-0.021418729079956657
0.4002999999999999,-0.021489464644949906
0.3992999999999999,-0.021602641548939108
0.3982999999999999,-0.02167337711393236
0.3972999999999999,-0.021729965565926962
0.3962999999999999,-0.021843142469916164
0.3952999999999999,-0.021928025147908068
0.3942999999999999,-0.02204120205189727
0.39329999999999987,-0.022126084729889174
0.39229999999999987,-0.02218267318188378
0.39129999999999987,-0.022253408746877028
0.39029999999999987,-0.02232414431187028
0.38929999999999987,-0.02239487987686353
0.38829999999999987,-0.02245146832885813
0.38729999999999987,-0.022522203893851383
0.38629999999999987,-0.022635380797840585
0.38529999999999986,-0.02273441058883114
0.38429999999999986,-0.02279099904082574
0.38329999999999986,-0.022847587492820343
0.38229999999999986,-0.022890028831816296
0.38129999999999986,-0.022946617283810897
0.38029999999999986,-0.0230032057358055
0.37929999999999986,-0.0230880884137974
0.37829999999999986,-0.023158823978790648
0.37729999999999986,-0.0232295595437839
0.37629999999999986,-0.023314442221775804
0.37529999999999986,-0.023371030673770405
0.37429999999999986,-0.023427619125765006
0.37329999999999985,-0.023484207577759608
0.37229999999999985,-0.02352664891675556
0.37129999999999985,-0.02359738448174881
0.37029999999999985,-0.023682267159740714
0.36929999999999985,-0.023753002724733966
0.36829999999999985,-0.023795444063729916
0.36729999999999985,-0.02388032674172182
0.36629999999999985,-0.02395106230671507
0.36529999999999985,-0.023993503645711022
0.36429999999999985,-0.024064239210704275
0.36329999999999985,-0.024106680549700225
0.36229999999999984,-0.024163269001694826
0.36129999999999984,-0.02424815167968673
0.36029999999999984,-0.024304740131681327
0.35929999999999984,-0.024403769922671882
0.35829999999999984,-0.024446211261667832
0.35729999999999984,-0.024502799713662437
0.35629999999999984,-0.024587682391654337
0.35529999999999984,-0.02461597661765164
0.35429999999999984,-0.02468671218264489
0.35329999999999984,-0.024729153521640842
0.35229999999999984,-0.024785741973635443
0.35129999999999983,-0.024870624651627343
0.35029999999999983,-0.024927213103621948
0.34929999999999983,-0.024983801555616546
0.34829999999999983,-0.025040390007611147
0.34729999999999983,-0.02512527268560305
0.34629999999999983,-0.02515356691160035
0.34529999999999983,-0.025210155363594954
0.34429999999999983,-0.025266743815589552
0.3432999999999998,-0.025309185154585506
0.3422999999999998,-0.02537992071957876
0.3412999999999998,-0.02545065628457201
0.3402999999999998,-0.02554968607556256
0.3392999999999998,-0.025592127414558512
0.3382999999999998,-0.025634568753554465
0.3372999999999998,-0.025662862979551764
0.3362999999999998,-0.025719451431546365
0.3352999999999998,-0.025818481222536924
0.3342999999999998,-0.025889216787530173
0.3332999999999998,-0.02594580523952477
0.3322999999999998,-0.026016540804518026
0.3312999999999998,-0.026044835030515325
0.3302999999999998,-0.026115570595508578
0.3292999999999998,-0.026172159047503182
0.3282999999999998,-0.02620045327350048
0.3272999999999998,-0.02627118883849373
0.3262999999999998,-0.026341924403486983
0.3252999999999999,-0.026426807081478886
0.3242999999999999,-0.02649754264647214
0.3232999999999999,-0.02652583687246944
0.3222999999999999,-0.02659657243746269
0.3212999999999999,-0.02665316088945729
0.3202999999999999,-0.02668145511545459
0.3192999999999999,-0.02673804356744919
0.3182999999999999,-0.026780484906445145
0.3172999999999999,-0.026865367584437045
0.3162999999999999,-0.026936103149430297
0.3152999999999999,-0.026992691601424906
0.3142999999999999,-0.027063427166418155
0.3132999999999999,-0.027105868505414105
0.3122999999999999,-0.027120015618412752
0.3112999999999999,-0.027176604070407354
0.3102999999999999,-0.027219045409403307
0.3092999999999999,-0.027289780974396556
0.3082999999999999,-0.02736051653938981
0.3072999999999999,-0.02741710499138441
0.3062999999999999,-0.02750198766937631
0.3052999999999999,-0.027544429008372267
0.3042999999999999,-0.027586870347368214
0.3032999999999999,-0.02762931168636417
0.3022999999999999,-0.027657605912361466
0.3012999999999999,-0.02772834147735472
0.3002999999999999,-0.027799077042347967
0.2992999999999999,-0.027841518381343924
0.2982999999999999,-0.027898106833338522
0.2972999999999999,-0.027982989511330426
0.2962999999999999,-0.028039577963325023
0.2952999999999999,-0.02811031352831828
0.2942999999999999,-0.02813860775431558
0.2932999999999999,-0.028166901980312884
0.2922999999999999,-0.028223490432307482
0.2912999999999999,-0.028265931771303435
0.2902999999999999,-0.028336667336296688
0.2892999999999999,-0.028421550014288588
0.2882999999999999,-0.028449844240285887
0.2872999999999999,-0.028534726918277787
0.2862999999999999,-0.02860546248327104
0.2852999999999999,-0.028647903822266993
0.2842999999999999,-0.028704492274261594
0.2832999999999999,-0.028732786500258897
0.2822999999999999,-0.028775227839254847
0.2812999999999999,-0.028817669178250797
0.2802999999999999,-0.02888840474324405
0.2792999999999999,-0.028987434534234607
0.2782999999999999,-0.029015728760231903
0.2772999999999999,-0.0290723172122265
0.2762999999999999,-0.02912890566422111
0.2752999999999999,-0.029157199890218404
0.2742999999999999,-0.029199641229214358
0.2732999999999999,-0.029256229681208955
0.2722999999999999,-0.02931281813320356
0.2712999999999999,-0.02941184792419411
0.2702999999999999,-0.029482583489187364
0.2692999999999999,-0.029553319054180613
0.26829999999999987,-0.029581613280177915
0.26729999999999987,-0.02959576039317657
0.26629999999999987,-0.029652348845171168
0.26529999999999987,-0.02969479018416712
0.26429999999999987,-0.029751378636161722
0.26329999999999987,-0.029807967088156324
0.26229999999999987,-0.02986455554015093
0.26129999999999987,-0.029949438218142825
0.26029999999999986,-0.029991879557138775
0.25929999999999986,-0.030034320896134725
0.25829999999999986,-0.03007676223513068
0.25729999999999986,-0.03011920357412663
0.25629999999999986,-0.030161644913122586
0.25529999999999986,-0.030218233365117184
0.25429999999999986,-0.030274821817111785
0.25329999999999986,-0.030317263156107735
0.25229999999999986,-0.03040214583409964
0.25129999999999986,-0.03047288139909289
0.25029999999999986,-0.03051532273808884
0.24929999999999986,-0.03055776407708479
0.24829999999999985,-0.030571911190083446
0.24729999999999985,-0.030642646755076695
0.24629999999999985,-0.03065679386807535
0.24529999999999985,-0.030769970772064545
0.24429999999999985,-0.030840706337057794
0.24329999999999985,-0.03085485345005645
0.24229999999999985,-0.0309255890150497
0.24129999999999985,-0.030953883241047007
0.24029999999999985,-0.03099632458004295
0.23929999999999985,-0.031052913032037555
0.23829999999999985,-0.031081207258034853
0.23729999999999984,-0.031137795710029458
0.23629999999999984,-0.031194384162024056
0.23529999999999984,-0.03126511972701731
0.23429999999999984,-0.03133585529201056
0.23329999999999984,-0.03139244374400516
0.23229999999999984,-0.03144903219599977
0.23129999999999984,-0.03149147353499571
0.23029999999999984,-0.031505620647994365
0.22929999999999984,-0.03154806198699031
0.22829999999999984,-0.03160465043898492
0.22729999999999984,-0.03164709177798087
0.22629999999999983,-0.031731974455972776
0.22529999999999983,-0.031788562907967374
0.22429999999999983,-0.03183100424696332
0.22329999999999983,-0.031887592698957926
0.22229999999999983,-0.03191588692495523
0.22129999999999983,-0.03195832826395118
0.22029999999999983,-0.03202906382894443
0.21929999999999983,-0.032071505167940384
0.21829999999999983,-0.03211394650693633
0.21729999999999983,-0.032184682071929586
0.21629999999999983,-0.03222712341092554
0.21529999999999982,-0.03228371186292014
0.21429999999999982,-0.032326153201916084
0.21329999999999982,-0.03236859454091204
0.21229999999999982,-0.03243933010590529
0.21129999999999982,-0.032467624331902596
0.21029999999999982,-0.032552507009894496
0.20929999999999982,-0.0326090954618891
0.20829999999999982,-0.032623242574887745
0.20729999999999982,-0.032708125252879645
0.20629999999999982,-0.0327505665918756
0.20529999999999982,-0.03279300793087155
0.20429999999999982,-0.03287789060886345
0.20329999999999981,-0.03290618483486075
0.2022999999999998,-0.032976920399854
0.2012999999999998,-0.03301936173884996
0.20029999999999992,-0.033061803077845904
0.19929999999999992,-0.03313253864283916
0.19829999999999992,-0.033174979981835113
0.19729999999999992,-0.03323156843382971
0.19629999999999992,-0.03330230399882296
0.19529999999999992,-0.03337303956381622
0.19429999999999992,-0.03348621646780542
0.19329999999999992,-0.03352865780680137
0.19229999999999992,-0.03352865780680137
0.19129999999999991,-0.03358524625879597
0.1902999999999999,-0.03364183471079057
0.1892999999999999,-0.033712570275783824
0.1882999999999999,-0.03376915872777843
0.1872999999999999,-0.033825747179773026
0.1862999999999999,-0.03386818851876898
0.1852999999999999,-0.033924776970763584
0.1842999999999999,-0.033967218309759524
0.1832999999999999,-0.03403795387475279
0.1822999999999999,-0.034094542326747385
0.1812999999999999,-0.03415113077874199
0.1802999999999999,-0.03422186634373524
0.1792999999999999,-0.03423601345673389
0.1782999999999999,-0.034306749021727145
0.1772999999999999,-0.034349190360723085
0.1762999999999999,-0.03441992592571634
0.1752999999999999,-0.03451895571670689
0.1742999999999999,-0.034547249942704195
0.1732999999999999,-0.03458969128170015
0.1722999999999999,-0.0346321326206961
0.1712999999999999,-0.03467457395969205
0.1702999999999999,-0.034731162411686646
0.1692999999999999,-0.03478775086368125
0.1682999999999999,-0.03484433931567585
0.1672999999999999,-0.034929221993667756
0.1662999999999999,-0.03495751621966506
0.1652999999999999,-0.03498581044566235
0.1642999999999999,-0.03504239889765696
0.1632999999999999,-0.03507069312365426
0.1622999999999999,-0.03515557580164616
0.1612999999999999,-0.03521216425364076
0.1602999999999999,-0.03531119404463132
0.1592999999999999,-0.03533948827062862
0.15829999999999989,-0.03535363538362727
0.15729999999999988,-0.03541022383562187
0.15629999999999988,-0.03549510651361377
0.15529999999999988,-0.03553754785260972
0.15429999999999988,-0.035594136304604326
0.15329999999999988,-0.035650724756598924
0.15229999999999988,-0.03570731320859352
0.15129999999999988,-0.03577804877358678
0.15029999999999988,-0.035820490112582724
0.14929999999999988,-0.03587707856457733
0.14829999999999988,-0.035961961242569236
0.14729999999999988,-0.03600440258156519
0.14629999999999987,-0.03606099103355979
0.14529999999999987,-0.036117579485554385
0.14429999999999987,-0.03614587371155169
0.14329999999999987,-0.036230756389543595
0.14229999999999987,-0.03632978618053414
0.14129999999999987,-0.03635808040653144
0.14029999999999987,-0.036457110197522
0.13929999999999987,-0.036499551536517946
0.13829999999999987,-0.0365419928755139
0.13729999999999987,-0.03661272844050715
0.13629999999999987,-0.0366551697795031
0.13529999999999986,-0.03671175823149771
0.13429999999999986,-0.03675419957049365
0.13329999999999986,-0.03679664090948961
0.13229999999999986,-0.03689567070048015
0.13129999999999986,-0.03693811203947611
0.13029999999999986,-0.03702299471746801
0.12929999999999986,-0.03706543605646396
0.12829999999999986,-0.03710787739545991
0.12729999999999986,-0.037206907186450464
0.12629999999999986,-0.03726349563844507
0.12529999999999986,-0.037320084090439666
0.12429999999999986,-0.037404966768431566
0.12329999999999985,-0.037433260994428876
0.12229999999999985,-0.037518143672420776
0.12129999999999985,-0.03758887923741403
0.12029999999999985,-0.03763132057640997
0.11929999999999985,-0.03770205614140323
0.11829999999999985,-0.03771620325440188
0.11729999999999985,-0.03778693881939513
0.11629999999999985,-0.03785767438438838
0.11529999999999985,-0.03790011572338433
0.11429999999999985,-0.03799914551437489
0.11329999999999985,-0.03802743974037219
0.11229999999999984,-0.03806988107936814
0.11129999999999984,-0.03818305798335734
0.11029999999999984,-0.03822549932235329
0.10929999999999984,-0.03825379354835059
0.10829999999999984,-0.0383103820003452
0.10729999999999984,-0.03833867622634249
0.10629999999999984,-0.038423558904334396
0.10529999999999984,-0.038494294469327645
0.10429999999999984,-0.0385650300343209
0.10329999999999984,-0.038621618486315505
0.10229999999999984,-0.038706501164307405
0.10129999999999983,-0.03874894250330335
0.10029999999999983,-0.03879138384229931
0.09929999999999983,-0.03880553095529796
0.09829999999999983,-0.03886211940729256
0.09729999999999983,-0.03894700208528446
0.09629999999999983,-0.03903188476327636
0.09529999999999983,-0.03911676744126827
0.09429999999999983,-0.03918750300626152
0.09329999999999983,-0.03922994434525747
0.09229999999999983,-0.03930067991025072
0.09129999999999983,-0.039328974136248016
0.09029999999999982,-0.03938556258824262
0.08929999999999982,-0.039428003927238574
0.08829999999999982,-0.03947044526623452
0.08729999999999982,-0.03956947505722508
0.08629999999999982,-0.03964021062221833
0.08529999999999982,-0.039725093300210235
0.08429999999999982,-0.03978168175220483
0.08329999999999982,-0.03976753463920618
0.08229999999999982,-0.03983827020419943
0.08129999999999982,-0.03988071154319539
0.08029999999999982,-0.03995144710818864
0.07929999999999982,-0.04003632978618053
0.07829999999999981,-0.04012121246417244
0.07729999999999981,-0.04019194802916569
0.07629999999999981,-0.04024853648116029
0.07529999999999992,-0.04029097782015625
0.07429999999999992,-0.040347566272150845
0.07329999999999992,-0.040375860498148154
0.07229999999999992,-0.04043244895014275
0.07129999999999992,-0.040503184515136
0.07029999999999992,-0.0405597729671306
0.06929999999999992,-0.040630508532123855
0.06829999999999992,-0.040715391210115755
0.06729999999999992,-0.04077197966211036
0.06629999999999991,-0.04085686234010226
0.06529999999999991,-0.040927597905095515
0.06429999999999991,-0.040955892131092804
0.06329999999999991,-0.041012480583087416
0.06229999999999991,-0.04105492192208336
0.06129999999999991,-0.04111151037407796
0.06029999999999991,-0.04121054016506852
0.05929999999999991,-0.04128127573006177
0.05829999999999991,-0.04135201129505502
0.05729999999999991,-0.04142274686004828
0.056299999999999906,-0.041451041086045574
0.055299999999999905,-0.04152177665103883
0.054299999999999904,-0.041550070877036126
0.0532999999999999,-0.041606659329030724
0.0522999999999999,-0.04173398334601858
0.0512999999999999,-0.04179057179801319
0.0502999999999999,-0.04187545447600509
0.0492999999999999,-0.041917895815001036
0.0482999999999999,-0.04193204292799969
0.0472999999999999,-0.042016925605991594
0.0462999999999999,-0.04207351405798619
0.045299999999999896,-0.04214424962297945
0.044299999999999895,-0.042214985187972696
0.043299999999999894,-0.042271573639967294
0.04229999999999989,-0.0423847505439565
0.04129999999999989,-0.0424413389959511
0.04029999999999989,-0.04254036878694165
0.03929999999999989,-0.042554515899940304
0.03829999999999989,-0.04259695723893625
0.03729999999999989,-0.042667692803929506
0.03629999999999989,-0.042738428368922755
0.03529999999999989,-0.042809163933916004
0.034299999999999886,-0.04290819372490656
0.033299999999999885,-0.042936487950903865
0.032299999999999884,-0.04300722351589712
0.031299999999999883,-0.04307795908089037
0.030299999999999883,-0.04313454753288497
0.02929999999999988,-0.04317698887188092
0.02829999999999988,-0.04323357732387552
0.02729999999999988,-0.04331846000186742
0.02629999999999988,-0.043403342679859326
0.025299999999999878,-0.04351651958384853
0.024299999999999877,-0.04355896092284448
0.023299999999999876,-0.04361554937483908
0.022299999999999875,-0.04368628493983233
0.021299999999999875,-0.04372872627882829
0.020299999999999874,-0.04381360895682019
0.019299999999999873,-0.043870197408814794
0.018299999999999872,-0.04394093297380804
0.01729999999999987,-0.044025815651799936
0.01629999999999987,-0.04408240410379454
0.01529999999999987,-0.0442097281207824
0.014299999999999868,-0.044223875233781046
0.013299999999999867,-0.044266316572777
0.012299999999999978,-0.0443511992507689
0.011299999999999866,-0.0444077877027635
0.010299999999999976,-0.04447852326775675
0.009299999999999864,-0.04456340594574865
0.008299999999999974,-0.04463414151074191
0.007299999999999862,-0.04474731841473111
0.006299999999999972,-0.044775612640728414
0.00529999999999986,-0.044860495318720314
0.0042999999999999705,-0.04490293665771626
0.0032999999999998586,-0.04491708377071492
0.0022999999999999687,-0.04501611356170547
0.0012999999999998568,-0.045100996239697363
0.00029999999999996696,-0.04517173180469062
-0.000700000000000145,-0.04527076159568117
-0.0017000000000000348,-0.045313202934677124
-0.0027000000000001467,-0.04536979138667173
-0.0037000000000000366,-0.04542637983866633
-0.0047000000000001485,-0.04546882117766228
-0.005700000000000038,-0.04552540962965688
-0.00670000000000015,-0.04558199808165148
-0.00770000000000004,-0.045666880759643376
-0.008700000000000152,-0.04578005766363259
-0.009700000000000042,-0.04585079322862584
-0.010700000000000154,-0.04592152879361909
-0.011700000000000044,-0.04594982301961639
-0.012700000000000156,-0.04599226435861234
-0.013700000000000045,-0.046062999923605595
-0.014700000000000157,-0.0461195883756002
-0.015700000000000047,-0.0461761768275948
-0.01670000000000016,-0.046275206618585356
-0.01770000000000005,-0.046345942183578605
-0.01870000000000016,-0.046416677748571854
-0.01970000000000005,-0.04647326620056645
-0.020700000000000163,-0.04650156042656376
-0.021700000000000053,-0.04655814887855836
-0.022700000000000164,-0.04665717866954891
-0.023700000000000054,-0.04674206134754081
-0.024700000000000166,-0.04681279691253406
-0.025700000000000056,-0.04684109113853137
-0.026700000000000168,-0.046883532477527315
-0.027700000000000058,-0.046968415155519215
-0.02870000000000017,-0.04701085649451517
-0.02970000000000006,-0.04709573917250707
-0.03070000000000017,-0.04715232762450167
-0.03170000000000006,-0.04722306318949493
-0.03270000000000017,-0.04730794586748682
-0.03370000000000006,-0.047350387206482776
-0.034700000000000175,-0.04742112277147603
-0.035700000000000065,-0.04747771122347064
-0.03670000000000018,-0.047534299675465234
-0.03770000000000007,-0.047619182353457135
-0.03870000000000018,-0.04767577080545173
-0.03970000000000007,-0.04774650637044498
-0.04070000000000018,-0.04780309482243959
-0.04170000000000007,-0.0478596832744342
-0.04270000000000018,-0.04793041883942745
-0.04370000000000007,-0.048029448630418
-0.044700000000000184,-0.048086037082412596
-0.045700000000000074,-0.0481426255344072
-0.046700000000000186,-0.048185066873403154
-0.047700000000000076,-0.048227508212399094
-0.04870000000000019,-0.048312390890391
-0.04970000000000008,-0.0483972735683829
-0.05070000000000019,-0.048439714907378854
-0.05170000000000008,-0.04855289181136806
-0.05270000000000019,-0.04862362737636131
-0.05370000000000008,-0.04869436294135456
-0.05470000000000019,-0.048750951393349166
-0.05570000000000008,-0.04876509850634782
-0.056700000000000195,-0.048821686958342415
-0.057700000000000085,-0.048892422523335664
-0.058700000000000196,-0.04897730520132757
-0.059700000000000086,-0.04906218787931948
-0.0607000000000002,-0.049118776331314076
-0.06170000000000009,-0.049203659009305976
-0.0627000000000002,-0.049274394574299225
-0.06370000000000009,-0.049288541687297883
-0.0647000000000002,-0.04937342436528978
-0.06570000000000009,-0.049401718591287086
-0.0667000000000002,-0.049458307043281684
-0.0677000000000001,-0.04958563106026953
