Potential V vs RHE, Current mA cm-2
0.013299999999999867,-0.1766974413531431
0.012299999999999978,-3.1859298472960624
0.011299999999999866,-5.9347139029338285
0.010299999999999976,-8.594371146680096
0.009299999999999864,-11.037577561547016
0.008299999999999974,-13.3930718758223
0.007299999999999862,-15.618412750510005
0.006299999999999972,-17.627302796318357
0.00529999999999986,-19.537163051136158
0.0042999999999999705,-21.376287740960702
0.0032999999999998586,-23.1163826397947
0.0022999999999999687,-24.771594860636792
0.0012999999999998568,-26.440954194477534
0.00029999999999996696,-27.912253946337174
-0.000700000000000145,-29.482583489187363
-0.0017000000000000348,-30.968030354045652
-0.0027000000000001467,-32.368594540912035
-0.0037000000000000366,-33.81160006677438
-0.0047000000000001485,-35.15557580164616
-0.005700000000000038,-36.4288159715247
-0.00670000000000015,-37.60302635041268
-0.00770000000000004,-38.777236729300654
-0.008700000000000152,-39.82412309120078
-0.009700000000000042,-40.828568114104954
-0.010700000000000154,-41.83301313700913
-0.011700000000000044,-42.752575481921404
-0.012700000000000156,-43.57310803584313
-0.013700000000000045,-44.45022904175945
-0.014700000000000157,-45.27076159568118
-0.015700000000000047,-46.147882601597495
-0.01670000000000016,-47.02500360751382
-0.01770000000000005,-47.80309482243959
-0.01870000000000016,-48.59533315036401
-0.01970000000000005,-49.41586570428573
-0.020700000000000163,-50.0807800152223
-0.021700000000000053,-50.81642989115212
-0.022700000000000164,-51.509638428085985
-0.023700000000000054,-52.075522948032
-0.024700000000000166,-52.64140746797801
-0.025700000000000056,-53.16485064892808
-0.026700000000000168,-53.68829382987814
-0.027700000000000058,-54.1268543328363
-0.02870000000000017,-54.65029751378637
-0.02970000000000006,-55.13129935574048
-0.03070000000000017,-55.65474253669055
-0.03170000000000006,-56.1781857176406
-0.03270000000000017,-56.65918755959472
-0.03370000000000006,-57.182630740544774
-0.034700000000000175,-57.66363258249889
-0.035700000000000065,-58.14463442445301
-0.03670000000000018,-58.54075358841522
-0.03770000000000007,-58.97931409137338
-0.03870000000000018,-59.36128614233694
-0.03970000000000007,-59.67252262830725
-0.04070000000000018,-59.9696120012789
-0.04170000000000007,-60.28084848724921
-0.04270000000000018,-60.49305518222897
-0.04370000000000007,-60.84673300719523
-0.044700000000000184,-61.11552815416958
-0.045700000000000074,-61.412617527141244
-0.046700000000000186,-61.7662953521075
-0.047700000000000076,-62.06338472507916
-0.04870000000000019,-62.37462121104946
-0.04970000000000008,-62.72829903601572
-0.05070000000000019,-63.02538840898739
-0.05170000000000008,-63.29418355596174
-0.05270000000000019,-63.54883158993744
-0.05370000000000008,-63.77518539791585
-0.05470000000000019,-63.944950753899654
-0.05570000000000008,-64.11471610988345
-0.056700000000000195,-64.29862857886593
-0.057700000000000085,-64.38351125685783
-0.058700000000000196,-64.55327661284163
-0.059700000000000086,-64.72304196882543
-0.0607000000000002,-64.94939577680383
-0.06170000000000009,-65.20404381077954
-0.0627000000000002,-65.43039761875795
-0.06370000000000009,-65.68504565273366
-0.0647000000000002,-65.95384079970802
-0.06570000000000009,-66.08116481669586
-0.0667000000000002,-66.25093017267966
-0.0677000000000001,-66.47728398065809
-0.0687000000000002,-66.60460799764593
-0.0697000000000001,-66.68949067563783
-0.07070000000000021,-66.81681469262568
-0.0717000000000001,-66.9582858226122
-0.07270000000000021,-66.9582858226122
-0.0737000000000001,-67.08560983960004
-0.07470000000000021,-67.17049251759194
-0.0757000000000001,-67.34025787357575
-0.07670000000000021,-67.48172900356225
-0.0777000000000001,-67.65149435954605
-0.07870000000000021,-67.86370105452582
-0.0797000000000001,-68.04761352350828
-0.08070000000000022,-68.21737887949207
-0.0817000000000001,-68.30226155748396
-0.08270000000000022,-68.48617402646643
-0.08370000000000011,-68.52861536546239
-0.08470000000000022,-68.61349804345427
-0.08570000000000011,-68.69838072144618
-0.08670000000000022,-68.74082206044213
-0.08770000000000011,-68.74082206044213
-0.08870000000000022,-68.82570473843404
-0.08970000000000011,-68.86814607742998
-0.09070000000000022,-68.96717586842054
-0.09170000000000011,-69.13694122440434
-0.09270000000000023,-69.26426524139221
-0.09370000000000012,-69.39158925838004
-0.09470000000000023,-69.57550172736251
-0.09570000000000012,-69.6603844053544
-0.09670000000000023,-69.78770842234226
-0.09770000000000012,-69.95747377832606
-0.09870000000000023,-69.95747377832606
-0.09970000000000012,-70.05650356931662
-0.10070000000000023,-70.01406223032066
-0.10170000000000012,-70.05650356931662
-0.10270000000000024,-70.01406223032066
-0.10370000000000013,-70.05650356931662
-0.10470000000000024,-70.14138624730852
-0.10570000000000013,-70.22626892530042
-0.10670000000000024,-70.31115160329232
-0.10770000000000013,-70.43847562028017
-0.10870000000000024,-70.57994675026669
-0.10970000000000013,-70.70727076725453
-0.11070000000000024,-70.8345947842424
-0.11170000000000013,-70.91947746223428
-0.11270000000000002,-71.06094859222078
-0.11370000000000013,-71.10338993121674
-0.11470000000000002,-71.10338993121674
-0.11570000000000014,-71.1458312702127
-0.11670000000000003,-71.1458312702127
-0.11770000000000014,-71.10338993121674
-0.11870000000000003,-71.2307139482046
-0.11970000000000014,-71.2307139482046
-0.12070000000000003,-71.35803796519245
-0.12170000000000014,-71.48536198218031
-0.12270000000000003,-71.52780332117625
-0.12370000000000014,-71.7117157901587
-0.12470000000000003,-71.83903980714656
-0.12570000000000014,-71.96636382413442
-0.12670000000000003,-72.05124650212633
-0.12770000000000015,-72.19271763211282
-0.12870000000000004,-72.19271763211282
-0.12970000000000015,-72.23515897110877
-0.13070000000000004,-72.27760031010472
-0.13170000000000015,-72.27760031010472
-0.13270000000000004,-72.27760031010472
-0.13370000000000015,-72.32004164910067
-0.13470000000000004,-72.36248298809663
-0.13570000000000015,-72.40492432709259
-0.13670000000000004,-72.53224834408043
-0.13770000000000016,-72.63127813507097
-0.13870000000000005,-72.71616081306288
-0.13970000000000016,-72.8859261690467
-0.14070000000000005,-72.97080884703858
-0.14170000000000016,-73.09813286402644
-0.14270000000000005,-73.197162655017
-0.14370000000000016,-73.197162655017
-0.14470000000000005,-73.23960399401295
-0.14570000000000016,-73.2820453330089
-0.14670000000000005,-73.2820453330089
-0.14770000000000016,-73.2820453330089
-0.14870000000000005,-73.3669280110008
-0.14970000000000017,-73.40936934999675
-0.15070000000000006,-73.49425202798865
-0.15170000000000017,-73.62157604497652
-0.15270000000000006,-73.76304717496302
-0.15370000000000017,-73.89037119195086
-0.15470000000000006,-74.0176952089387
-0.15570000000000017,-74.20160767792116
-0.15670000000000006,-74.24404901691713
-0.15770000000000017,-74.37137303390499
-0.15870000000000006,-74.41381437290093
-0.15970000000000018,-74.45625571189689
-0.16070000000000007,-74.49869705089283
-0.16170000000000018,-74.54113838988879
-0.16270000000000007,-74.54113838988879
-0.16370000000000018,-74.62602106788069
-0.16470000000000007,-74.72505085887124
-0.16570000000000018,-74.80993353686314
-0.16670000000000007,-74.97969889284694
-0.16770000000000018,-75.06458157083884
-0.16870000000000007,-75.2484940398213
-0.16970000000000018,-75.4182593958051
-0.17070000000000007,-75.54558341279296
-0.17170000000000019,-75.6729074297808
-0.17270000000000008,-75.77193722077136
-0.1737000000000002,-75.81437855976732
-0.17470000000000008,-75.85681989876326
-0.1757000000000002,-75.8992612377592
-0.17670000000000008,-75.98414391575112
-0.1777000000000002,-75.98414391575112
-0.17870000000000008,-76.02658525474708
-0.1797000000000002,-76.06902659374302
-0.18070000000000008,-76.23879194972683
-0.1817000000000002,-76.33782174071737
-0.18270000000000008,-76.46514575770523
-0.1837000000000002,-76.63491111368903
-0.1847000000000001,-76.7622351306769
-0.1857000000000002,-76.86126492166746
-0.1867000000000001,-77.03103027765125
-0.1877000000000002,-77.20079563363505
-0.1887000000000001,-77.243236972631
-0.1897000000000002,-77.28567831162695
-0.1907000000000001,-77.42714944161345
-0.1917000000000001,-77.51203211960537
-0.19269999999999998,-77.51203211960537
-0.1937000000000001,-77.63935613659322
-0.19469999999999998,-77.7242388145851
-0.1957000000000001,-77.86570994457162
-0.19669999999999999,-78.07791663955136
-0.1977000000000001,-78.20524065653922
-0.1987,-78.38915312552167
-0.1997000000000001,-78.55891848150549
-0.2007,-78.77112517648524
-0.2017000000000001,-78.91259630647174
-0.2027,-79.08236166245555
-0.2037000000000001,-79.25212701843935
-0.2047,-79.33700969643127
-0.2057000000000001,-79.42189237442317
-0.2067,-79.52092216541372
-0.2077000000000001,-79.56336350440966
-0.2087,-79.73312886039348
-0.2097000000000001,-79.86045287738132
-0.2107,-80.00192400736783
-0.2117000000000001,-80.25657204134353
-0.2127,-80.42633739732734
-0.2137000000000001,-80.65269120530574
-0.2147,-80.86489790028548
-0.2157000000000001,-81.13369304725985
-0.2167,-81.3458997422396
-0.21770000000000012,-81.47322375922747
-0.2187,-81.61469488921396
-0.21970000000000012,-81.74201890620182
-0.2207,-81.82690158419373
-0.22170000000000012,-81.95422560118158
-0.2227,-82.03910827917348
-0.22370000000000012,-82.18057940915998
-0.2247,-82.35034476514379
-0.22570000000000012,-82.56255146012353
-0.2267,-82.78890526810196
-0.22770000000000012,-83.0011119630817
-0.22870000000000001,-83.18502443206415
-0.22970000000000013,-83.52455514403178
-0.23070000000000002,-83.75090895201016
-0.23170000000000013,-83.92067430799398
-0.23270000000000002,-84.23191079396429
-0.23370000000000013,-84.40167614994809
-0.23470000000000002,-84.57144150593189
-0.23570000000000013,-84.75535397491434
-0.23670000000000002,-84.92511933089816
-0.2376999999999999,-85.09488468688197
-0.23870000000000002,-85.32123849486035
-0.2396999999999999,-85.49100385084417
-0.24070000000000003,-85.70321054582392
-0.24169999999999991,-86.01444703179425
-0.24270000000000003,-86.28324217876859
-0.24369999999999992,-86.58033155174023
-0.24470000000000003,-86.97645071570246
-0.24569999999999992,-87.27354008867411
-0.24670000000000003,-87.54233523564847
-0.24769999999999992,-87.85357172161878
-0.24870000000000003,-88.10821975559449
-0.24969999999999992,-88.32042645057423
-0.25070000000000003,-88.54678025855264
-0.2516999999999999,-88.7589869535324
-0.25270000000000004,-88.9853407615108
-0.2536999999999999,-89.28243013448247
-0.25470000000000004,-89.50878394246087
-0.2556999999999999,-89.84831465442848
-0.25670000000000004,-90.15955114039879
-0.25769999999999993,-90.51322896536506
-0.25870000000000004,-90.89520101632861
-0.25969999999999993,-91.29132018029082
-0.26070000000000004,-91.64499800525708
-0.26169999999999993,-91.94208737822873
-0.26270000000000004,-92.33820654219093
-0.26369999999999993,-92.6070016891653
-0.26470000000000005,-92.90409106213696
-0.26569999999999994,-93.17288620911131
-0.26670000000000005,-93.51241692107894
-0.26769999999999994,-93.82365340704924
-0.26870000000000005,-94.17733123201549
-0.26969999999999994,-94.47442060498715
-0.27070000000000005,-94.91298110794531
-0.27169999999999994,-95.35154161090348
-0.27270000000000005,-95.74766077486568
-0.27369999999999994,-96.21451550382113
-0.27470000000000006,-96.69551734577524
-0.27569999999999995,-97.13407784873341
-0.27670000000000006,-97.57263835169158
-0.27769999999999995,-98.01119885464975
-0.27870000000000006,-98.40731801861195
-0.27969999999999995,-98.83173140857146
-0.28070000000000006,-99.18540923353773
-0.28169999999999995,-99.58152839749994
-0.28270000000000006,-99.97764756146215
-0.28369999999999995,-100.40206095142165
-0.28470000000000006,-100.84062145437981
-0.28569999999999995,-101.3640646353299
-0.28670000000000007,-101.88750781627995
-0.28769999999999996,-102.36850965823406
-0.28870000000000007,-102.93439417818009
-0.28969999999999996,-103.50027869812607
-0.29070000000000007,-104.02372187907615
-0.29169999999999996,-104.58960639902216
-0.29270000000000007,-105.16963803196683
-0.29369999999999996,-105.69308121291688
-0.2947000000000001,-106.15993594187235
-0.29569999999999996,-106.64093778382647
-0.2967000000000001,-107.12193962578058
-0.29769999999999996,-107.6029414677347
-0.2987000000000001,-108.12638464868475
-0.29969999999999997,-108.69226916863077
-0.3007000000000001,-109.25815368857677
-0.30169999999999997,-109.8806266605174
-0.3027000000000001,-110.4465111804634
-0.30369999999999997,-111.09727837840134
-0.3047000000000001,-111.7904869153352
-0.30569999999999997,-112.48369545226906
-0.3067000000000001,-113.10616842420968
-0.3077,-113.79937696114357
-0.3087000000000001,-114.36526148108955
-0.3097,-114.93114600103557
-0.3107000000000001,-115.4970305209816
-0.3117,-116.14779771891952
-0.3127000000000001,-116.72782935186417
-0.3137,-117.46347922779398
-0.3147000000000001,-118.07180508673595
-0.3157,-118.86404341466037
-0.3167000000000001,-119.5996932905902
-0.3177,-120.33534316652002
-0.3187000000000001,-121.17002283344038
-0.3197,-121.96226116136481
-0.3207000000000001,-122.78279371528653
-0.3217,-123.57503204321095
-0.3227000000000001,-124.31068191914078
-0.3237,-125.10292024706521
-0.3247000000000001,-125.79612878399907
-0.3257,-126.57421999892482
-0.3267000000000001,-127.32401698785328
-0.3277,-128.05966686378312
-0.3287000000000001,-128.89434653070347
-0.3297,-129.6299964066333
-0.3307000000000001,-130.5495587515456
-0.3317,-131.46912109645783
-0.3327000000000001,-132.33209498937555
-0.3337,-133.29409867328377
-0.3347000000000001,-134.29854369618792
-0.3357,-135.17566470210423
-0.3367000000000001,-136.08107993401788
-0.3377,-137.04308361792607
-0.3387000000000001,-137.87776328484648
-0.3397,-138.7548842907628
-0.3407000000000001,-139.61785818368048
-0.3417,-140.4949791895968
-0.3427000000000001,-141.3721001955131
-0.3437,-142.31995676642268
-0.3447000000000001,-143.16878354634173
-0.3457,-144.30055258623375
-0.3467000000000001,-145.29085049613926
-0.3477,-146.28114840604482
-0.3487000000000001,-147.27144631595033
-0.3497,-148.40321535584232
-0.3507000000000001,-149.39351326574788
-0.3517,-150.5252823056399
-0.3527000000000001,-151.5155802155454
-0.3537,-152.64734925543743
-0.3547000000000001,-153.63764716534297
-0.3557,-154.76941620523502
-0.35670000000000013,-155.75971411514055
-0.3577,-156.75001202504606
-0.35870000000000013,-157.88178106493808
-0.3597,-159.01355010483013
-0.36070000000000013,-160.14531914472215
-0.3617,-161.2770881846142
-0.3626999999999999,-162.40885722450622
-0.3637,-163.54062626439824
-0.3646999999999999,-164.81386643427678
-0.3657,-165.94563547416882
-0.3666999999999999,-167.21887564404733
-0.3677,-168.49211581392586
-0.3686999999999999,-169.7653559838044
-0.36970000000000003,-170.89712502369645
-0.3706999999999999,-172.17036519357498
-0.37170000000000003,-173.302134233467
-0.3726999999999999,-174.2924321433725
-0.37370000000000003,-175.56567231325104
-0.3746999999999999,-176.8389124831296
-0.37570000000000003,-178.1121526530081
-0.3766999999999999,-179.38539282288664
-0.37770000000000004,-180.8001041227517
-0.3786999999999999,-182.07334429263022
-0.37970000000000004,-183.48805559249527
-0.3806999999999999,-184.7612957623738
-0.38170000000000004,-186.17600706223882
-0.38269999999999993,-187.44924723211736
-0.38370000000000004,-188.8639585319824
-0.38469999999999993,-190.13719870186094
-0.38570000000000004,-191.41043887173947
-0.38669999999999993,-190.42014096183394
-0.38570000000000004,-185.7515936722793
-0.38469999999999993,-181.5074597726842
-0.38370000000000004,-177.54626813306209
-0.38269999999999993,-173.86801875341303
-0.38170000000000004,-170.47271163373694
-0.3806999999999999,-167.07740451406085
-0.37970000000000004,-163.96503965435775
-0.3786999999999999,-161.1356170546277
-0.37770000000000004,-158.1647233249111
-0.3766999999999999,-155.33530072518104
-0.37570000000000003,-152.50587812545095
-0.3746999999999999,-149.8179266557074
-0.37370000000000003,-147.27144631595033
-0.3726999999999999,-144.58349484620675
-0.37170000000000003,-142.03701450644968
-0.3706999999999999,-139.49053416669264
-0.36970000000000003,-137.08552495692206
-0.3686999999999999,-134.6522215211542
-0.3677,-132.33209498937555
-0.3666999999999999,-130.11099824858744
-0.3657,-128.01722552478716
-0.3646999999999999,-125.83857012299501
-0.3637,-123.74479739919475
-0.3626999999999999,-121.69346601439047
-0.3617,-119.55725195159425
-0.36070000000000013,-117.50592056678994
-0.3597,-115.45458918198564
-0.35870000000000013,-113.40325779718134
-0.3577,-111.35192641237703
-0.35670000000000013,-109.30059502757274
-0.3557,-107.26341075576708
-0.3547000000000001,-105.33940338795064
-0.3537,-103.41539602013418
-0.3527000000000001,-101.50553576531638
-0.3517,-99.66641107549184
-0.3507000000000001,-97.78484504667132
-0.3497,-96.00230880884139
-0.3487000000000001,-94.26221391000739
-0.3477,-92.42308922018285
-0.3467000000000001,-90.68299432134886
-0.3457,-88.9004580835189
-0.3447000000000001,-87.10377473269031
-0.3437,-85.27879715586442
-0.3427000000000001,-83.48211380503581
-0.3417,-81.69957756720586
-0.3407000000000001,-79.90289421637728
-0.3397,-78.16279931754329
-0.3387000000000001,-76.46514575770523
-0.3377,-74.80993353686314
-0.3367000000000001,-73.23960399401295
-0.3357,-71.6268331121668
-0.3347000000000001,-70.05650356931662
-0.3337,-68.52861536546239
-0.3327000000000001,-66.91584448361623
-0.3317,-65.34551494076604
-0.3307000000000001,-63.81762673691181
-0.3297,-62.16241451606972
-0.3287000000000001,-60.63452631221547
-0.3277,-59.02175543036933
-0.3267000000000001,-57.45142588751914
-0.3257,-55.881096344668954
-0.3247000000000001,-54.35320814081471
-0.3237,-52.78287859796452
-0.3227000000000001,-51.29743173310623
-0.3217,-49.85442620724389
-0.3207000000000001,-48.41142068138156
-0.3197,-47.02500360751382
-0.3187000000000001,-45.666880759643384
-0.3177,-44.28046368577565
-0.3167000000000001,-42.837458159913304
-0.3157,-41.43689397304693
-0.3147000000000001,-39.99388844718459
-0.3137,-38.5650300343209
-0.3127000000000001,-37.164465847454515
-0.3117,-35.721460321592176
-0.3107000000000001,-34.236013456733886
-0.3097,-32.892037721862096
-0.3087000000000001,-31.533914873991666
-0.3077,-30.189939139119886
-0.3067000000000001,-28.91669896924135
-0.30569999999999997,-27.572723234369565
-0.3047000000000001,-26.34192440348698
-0.30369999999999997,-25.167714024599
-0.3027000000000001,-23.908620967719123
-0.30169999999999997,-22.63538079784059
-0.3007000000000001,-21.418729079956652
-0.29969999999999997,-20.10304757108217
-0.2987000000000001,-18.843954514202288
-0.29769999999999996,-17.584861457322408
-0.2967000000000001,-16.354062626439823
-0.29569999999999996,-15.05252823056399
-0.2947000000000001,-13.828802956180734
-0.29369999999999996,-12.56405105410139
-0.29270000000000007,-11.473308641905447
-0.29169999999999996,-10.340124890713554
-0.29070000000000007,-9.205526428221793
-0.28969999999999996,-8.070927965730034
-0.28870000000000007,-7.024041603829907
-0.28769999999999996,-5.890857852638012
-0.28670000000000007,-4.843971490737885
-0.28569999999999995,-3.7532290785419424
-0.28470000000000006,-2.618630616050183
-0.28369999999999995,-1.4415908145624723
-0.28270000000000006,-0.3511313446265021
-0.28169999999999995,0.8264743413811545
-0.28070000000000006,1.9607898616129409
-0.27969999999999995,3.0076762235130676
-0.27870000000000006,4.098418635709011
-0.27769999999999995,5.101448947313322
-0.27670000000000006,6.1044792589176335
-0.27569999999999995,7.107509570521944
-0.27470000000000006,8.022827781534623
-0.27369999999999994,8.939560703847167
-0.27270000000000005,9.942591015451477
-0.27169999999999994,10.901765276759972
-0.27070000000000005,11.862354249368334
-0.26969999999999994,12.821528510676828
-0.26870000000000005,13.824558822281137
-0.26769999999999994,14.826174422585586
-0.26670000000000005,15.830619445489761
-0.26569999999999994,16.877505807389888
-0.26470000000000005,17.797068152302163
