Potential V vs RHE, Current mA cm-2
0.013299999999999867,-0.22253408746877026
0.012299999999999978,-3.009090934812933
0.011299999999999866,-4.873680428035052
0.010299999999999976,-6.415715744887942
0.009299999999999864,-7.976142308639078
0.008299999999999974,-9.048493473936775
0.007299999999999862,-9.781313927266863
0.006299999999999972,-10.720682230377248
0.00529999999999986,-11.500188156602883
0.0042999999999999705,-11.842548291170223
0.0032999999999998586,-12.360332626920826
0.0022999999999999687,-12.979976176261713
0.0012999999999998568,-13.195012293841197
0.00029999999999996696,-13.410048411420682
-0.000700000000000145,-13.920759190671962
-0.0017000000000000348,-14.142868864750772
-0.0027000000000001467,-14.175407224647667
-0.0037000000000000366,-14.543232162612577
-0.0047000000000001485,-14.812027309586934
-0.005700000000000038,-14.755438857592333
-0.00670000000000015,-14.953498439573437
-0.00770000000000004,-15.293029151541045
-0.008700000000000152,-15.264734925543747
-0.009700000000000042,-15.293029151541045
-0.010700000000000154,-15.660854089505953
-0.011700000000000044,-15.731589654499205
-0.012700000000000156,-15.646706976507305
-0.013700000000000045,-15.87306078448571
-0.014700000000000157,-16.071120366466815
-0.015700000000000047,-15.91550212348166
-0.01670000000000016,-16.04282614046952
-0.01770000000000005,-16.311621287443874
-0.01870000000000016,-16.19844438345467
-0.01970000000000005,-16.184297270456018
-0.020700000000000163,-16.46723953042903
-0.021700000000000053,-16.481386643427676
-0.022700000000000164,-16.368209739438473
-0.023700000000000054,-16.56626932141958
-0.024700000000000166,-16.736034677403385
-0.025700000000000056,-16.56626932141958
-0.026700000000000168,-16.622857773414182
-0.027700000000000058,-16.877505807389888
-0.02870000000000017,-16.764328903400685
-0.02970000000000006,-16.721887564404735
-0.03070000000000017,-17.00482982437774
-0.03170000000000006,-16.97653559838044
-0.03270000000000017,-16.820917355395284
-0.03370000000000006,-17.018976937376394
-0.034700000000000175,-17.146300954364243
-0.035700000000000065,-16.94824137238314
-0.03670000000000018,-17.018976937376394
-0.03770000000000007,-17.2453307453548
-0.03870000000000018,-17.132153841365596
-0.03970000000000007,-17.07556538937099
-0.04070000000000018,-17.316066310348052
-0.04170000000000007,-17.301919197349395
-0.04270000000000018,-17.118006728366943
-0.04370000000000007,-17.316066310348052
-0.044700000000000184,-17.429243214337255
-0.045700000000000074,-17.231183632356142
-0.046700000000000186,-17.301919197349395
-0.047700000000000076,-17.499978779330505
-0.04870000000000019,-17.386801875341302
-0.04970000000000008,-17.316066310348052
-0.05070000000000019,-17.556567231325104
-0.05170000000000008,-17.542420118326454
-0.05270000000000019,-17.358507649344002
-0.05370000000000008,-17.542420118326454
-0.05470000000000019,-17.641449909317007
-0.05570000000000008,-17.429243214337255
-0.056700000000000195,-17.514125892329155
-0.057700000000000085,-17.74047970030756
-0.058700000000000196,-17.584861457322408
-0.059700000000000086,-17.528273005327804
-0.0607000000000002,-17.76877392630486
-0.06170000000000009,-17.75462681330621
-0.0627000000000002,-17.584861457322408
-0.06370000000000009,-17.75462681330621
-0.0647000000000002,-17.853656604296763
-0.06570000000000009,-17.641449909317007
-0.0667000000000002,-17.71218547431026
-0.0677000000000001,-17.924392169290012
-0.0687000000000002,-17.782921039303513
-0.0697000000000001,-17.71218547431026
-0.07070000000000021,-17.938539282288666
-0.0717000000000001,-17.896097943292716
-0.07270000000000021,-17.72633258730891
-0.0737000000000001,-17.896097943292716
-0.07470000000000021,-18.009274847281915
-0.0757000000000001,-17.825362378299463
-0.07670000000000021,-17.881950830294063
-0.0777000000000001,-18.09415752527382
-0.07870000000000021,-17.938539282288666
-0.0797000000000001,-17.867803717295413
-0.08070000000000022,-18.10830463827247
-0.0817000000000001,-18.06586329927652
-0.08270000000000022,-17.881950830294063
-0.08370000000000011,-18.06586329927652
-0.08470000000000022,-18.17904020326572
-0.08570000000000011,-17.980980621284615
-0.08670000000000022,-18.05171618627787
-0.08770000000000011,-18.249775768258974
-0.08870000000000022,-18.10830463827247
-0.08970000000000011,-18.02342196028057
-0.09070000000000022,-18.263922881257624
-0.09170000000000011,-18.23562865526032
-0.09270000000000023,-18.05171618627787
-0.09370000000000012,-18.249775768258974
-0.09470000000000023,-18.362952672248177
-0.09570000000000012,-18.164893090267068
-0.09670000000000023,-18.23562865526032
-0.09770000000000012,-18.433688237241427
-0.09870000000000023,-18.292217107254928
-0.09970000000000012,-18.23562865526032
-0.10070000000000023,-18.44783535024008
-0.10170000000000012,-18.40539401124413
-0.10270000000000024,-18.263922881257624
-0.10370000000000013,-18.433688237241427
-0.10470000000000024,-18.561012254229283
-0.10570000000000013,-18.377099785246827
-0.10670000000000024,-18.433688237241427
-0.10770000000000013,-18.645894932221182
-0.10870000000000024,-18.504423802234676
-0.10970000000000013,-18.419541124242777
-0.11070000000000024,-18.674189158218486
-0.11170000000000013,-18.645894932221182
-0.11270000000000002,-18.49027668923603
-0.11370000000000013,-18.702483384215785
-0.11470000000000002,-18.80151317520634
-0.11570000000000014,-18.589306480226583
-0.11670000000000003,-18.674189158218486
-0.11770000000000014,-18.88639585319824
-0.11870000000000003,-18.730777610213085
-0.11970000000000014,-18.674189158218486
-0.12070000000000003,-18.92883719219419
-0.12170000000000014,-18.900542966196888
-0.12270000000000003,-18.759071836210385
-0.12370000000000014,-18.97127853119014
-0.12470000000000003,-19.084455435179343
-0.12570000000000014,-18.872248740199588
-0.12670000000000003,-18.97127853119014
-0.12770000000000015,-19.1834852261699
-0.12870000000000004,-19.042014096183394
-0.12970000000000015,-18.999572757187444
-0.13070000000000004,-19.25422079116315
-0.13170000000000015,-19.2400736781645
-0.13270000000000004,-19.098602548177997
-0.13370000000000015,-19.31080924315775
-0.13470000000000004,-19.423986147146955
-0.13570000000000015,-19.211779452167196
-0.13670000000000004,-19.31080924315775
-0.13770000000000016,-19.523015938137508
-0.13870000000000005,-19.409839034148305
-0.13970000000000016,-19.381544808151002
-0.14070000000000005,-19.65033995512536
-0.14170000000000016,-19.664487068124007
-0.14270000000000005,-19.523015938137508
-0.14370000000000016,-19.721075520118614
-0.14470000000000005,-19.848399537106463
-0.14570000000000016,-19.678634181122664
-0.14670000000000005,-19.749369746115914
-0.14770000000000016,-19.98987066709297
-0.14870000000000005,-19.890840876102416
-0.14970000000000017,-19.862546650105116
-0.15070000000000006,-20.14548891007812
-0.15170000000000017,-20.13134179707947
-0.15270000000000006,-20.01816489309027
-0.15370000000000017,-20.230371588070028
-0.15470000000000006,-20.357695605057877
-0.15570000000000017,-20.202077362072725
-0.15670000000000006,-20.286960040064624
-0.15770000000000017,-20.555755187038983
-0.15870000000000006,-20.456725396048434
-0.15970000000000018,-20.44257828304978
-0.16070000000000007,-20.73966765602144
-0.16170000000000018,-20.75381476902009
-0.16270000000000007,-20.626490752032236
-0.16370000000000018,-20.881138786007945
-0.16470000000000007,-21.050904141991744
-0.16570000000000018,-20.86699167300929
-0.16670000000000007,-21.008462802995794
-0.16770000000000018,-21.2631108369715
-0.16870000000000007,-21.19237527197825
-0.16970000000000018,-21.19237527197825
-0.17070000000000007,-21.489464644949905
-0.17170000000000019,-21.503611757948562
-0.17270000000000008,-21.404581966958006
-0.1737000000000002,-21.659230000933714
-0.17470000000000008,-21.814848243918867
-0.1757000000000002,-21.68752422693101
-0.17670000000000008,-21.828995356917517
-0.1777000000000002,-22.126084729889175
-0.17870000000000008,-22.055349164895922
-0.1797000000000002,-22.083643390893226
-0.18070000000000008,-22.38073276386488
-0.1817000000000002,-22.42317410286083
-0.18270000000000008,-22.36658565086623
-0.1837000000000002,-22.607086571843286
-0.1847000000000001,-22.819293266823045
-0.1857000000000002,-22.706116362833843
-0.1867000000000001,-22.87588171881764
-0.1877000000000002,-23.2012653177866
-0.1887000000000001,-23.144676865792
-0.1897000000000002,-23.187118204787954
-0.1907000000000001,-23.54079602975421
-0.1917000000000001,-23.56909025575151
-0.19269999999999998,-23.526648916755562
-0.1937000000000001,-23.809591176728567
-0.19469999999999998,-24.035944984706973
-0.1957000000000001,-23.96520941971372
-0.19669999999999999,-24.17741611469348
-0.1977000000000001,-24.502799713662437
-0.1987,-24.474505487665134
-0.1997000000000001,-24.531093939659737
-0.2007,-24.898918877624645
-0.2017000000000001,-24.997948668615198
-0.2027,-24.95550732961925
-0.2037000000000001,-25.280890928588207
-0.2047,-25.521391849565262
-0.2057000000000001,-25.478950510569312
-0.2067,-25.73359854454502
-0.2077000000000001,-26.087276369511276
-0.2087,-26.087276369511276
-0.2097000000000001,-26.17215904750318
-0.2107,-26.58242532446404
-0.2117000000000001,-26.69560222845324
-0.2127,-26.709749341451893
-0.2137000000000001,-27.0775742794168
-0.2147,-27.40295787838576
-0.2157000000000001,-27.43125210438306
-0.2167,-27.685900138358768
-0.21770000000000012,-28.05372507632368
-0.2187,-28.082019302320973
-0.21970000000000012,-28.22349043230748
-0.2207,-28.619609596269694
-0.22170000000000012,-28.789374952253496
-0.2227,-28.8459634042481
-0.22370000000000012,-29.242082568210304
-0.2247,-29.59576039317657
-0.22570000000000012,-29.59576039317657
-0.2267,-29.906996879146874
-0.22770000000000012,-30.345557382105042
-0.22870000000000001,-30.43044006009694
-0.22970000000000013,-30.600205416080744
-0.23070000000000002,-31.095354371033505
-0.23170000000000013,-31.29341395301461
-0.23270000000000002,-31.40659085700382
-0.23370000000000013,-31.901739811956578
-0.23470000000000002,-32.255417636922836
-0.23570000000000013,-32.31200608891744
-0.23670000000000002,-32.66568391388369
-0.2376999999999999,-33.13253864283916
-0.23870000000000002,-33.274009772825664
-0.2396999999999999,-33.48621646780542
-0.24070000000000003,-34.06624810075008
-0.24169999999999991,-34.36333747372174
-0.24270000000000003,-34.50480860370825
-0.24369999999999992,-35.04239889765696
-0.24470000000000003,-35.45266517461782
-0.24569999999999992,-35.56584207860703
-0.24670000000000003,-36.00440258156518
-0.24769999999999992,-36.52784576251525
-0.24870000000000003,-36.7117582314977
-0.24969999999999992,-37.02299471746801
-0.25070000000000003,-37.617173463411326
-0.2516999999999999,-37.97085128837759
-0.25270000000000004,-38.197205096355994
-0.2536999999999999,-38.777236729300654
-0.25470000000000004,-39.244091458256115
-0.2556999999999999,-39.42800392723857
-0.25670000000000004,-39.89485865619403
-0.25769999999999993,-40.503184515136
-0.25870000000000004,-40.75783254911171
-0.25969999999999993,-41.15395171307392
-0.26070000000000004,-41.83301313700913
-0.26169999999999993,-42.25742652696865
-0.26270000000000004,-42.554515899940306
-0.26369999999999993,-43.16284175888227
-0.26470000000000005,-43.72872627882828
-0.26569999999999994,-43.98337431280399
-0.26670000000000005,-44.577553058747306
-0.26769999999999994,-45.27076159568118
-0.26870000000000005,-45.61029230764878
-0.26969999999999994,-46.091294149602895
-0.27070000000000005,-46.86938536452866
-0.27169999999999994,-47.32209298048547
-0.27270000000000005,-47.689917918450384
-0.27369999999999994,-48.41142068138156
-0.27470000000000006,-49.04804076632082
-0.27569999999999995,-49.387571478288436
-0.27670000000000006,-50.010044450229046
-0.27769999999999995,-50.78813566515482
-0.27870000000000006,-51.22669616811298
-0.27969999999999995,-51.792580688059
-0.28070000000000006,-52.64140746797801
-0.28169999999999995,-53.19314487492538
-0.28270000000000006,-53.63170537788354
-0.28369999999999995,-54.45223793180526
-0.28470000000000006,-55.17374069473642
-0.28569999999999995,-55.59815408469595
-0.28670000000000007,-56.37624529962171
-0.28769999999999996,-57.23921919253939
-0.28870000000000007,-57.76266237348945
-0.28969999999999996,-58.44172379742467
-0.29070000000000007,-59.34713902933829
-0.29169999999999996,-59.95546488828025
-0.29270000000000007,-60.521349408226264
-0.29369999999999996,-61.412617527141244
-0.2947000000000001,-62.17656162906836
-0.29569999999999996,-62.71415192301708
-0.2967000000000001,-63.57712581593475
-0.29769999999999996,-64.56742372584027
-0.2987000000000001,-65.2181909237782
-0.29969999999999997,-65.93969368670936
-0.3007000000000001,-66.9582858226122
-0.30169999999999997,-67.693935698542
-0.3027000000000001,-68.35885000947859
-0.30369999999999997,-69.33500080638545
-0.3047000000000001,-70.25456315129772
-0.30569999999999997,-70.90533034923564
-0.3067000000000001,-71.8814811461425
-0.3077,-72.94251462104128
-0.3087000000000001,-73.66401738397246
-0.3097,-74.48454993789417
-0.3107000000000001,-75.5880247517889
-0.3117,-76.42270441870929
-0.3127000000000001,-77.1583542946391
-0.3137,-78.27597622153247
-0.3147000000000001,-79.33700969643127
-0.3157,-80.08680668535972
-0.3167000000000001,-81.1761343862558
-0.3177,-82.35034476514379
-0.3187000000000001,-83.15673020606685
-0.3197,-84.03385121198318
-0.3207000000000001,-85.25050292986711
-0.3217,-86.19835950077669
-0.3227000000000001,-87.03303916769705
-0.3237,-88.27798511157829
-0.3247000000000001,-89.45219549046627
-0.3257,-90.3576107223799
-0.3267000000000001,-91.51767398826922
-0.3277,-92.76261993215046
-0.3287000000000001,-93.63974093806678
-0.3297,-94.67248018696824
-0.3307000000000001,-95.97401458284409
-0.3317,-96.97845960574826
-0.3327000000000001,-97.95461040265513
-0.3337,-99.31273325052557
-0.3347000000000001,-100.61426764640142
-0.3357,-101.60456555630694
-0.3367000000000001,-102.87780572618546
-0.3377,-104.1793401220613
-0.3387000000000001,-105.22622648396143
-0.3397,-106.32970129785616
-0.3407000000000001,-107.73026548472255
-0.3417,-108.93277008960783
-0.3427000000000001,-110.00795067750525
-0.3437,-111.43680909036894
-0.3447000000000001,-112.85152039023397
-0.3457,-113.88425963913545
-0.3467000000000001,-115.2140882610086
-0.3477,-116.64294667387229
-0.3487000000000001,-117.74642148776701
-0.3497,-118.9772203186496
-0.3507000000000001,-120.51925563550247
-0.3517,-121.82079003137831
-0.3527000000000001,-123.03744174926223
-0.3537,-124.63606551810975
-0.3547000000000001,-126.13565949596666
-0.3557,-127.22498719686273
-0.35670000000000013,-128.61140427073047
-0.3577,-130.18173381358068
-0.35870000000000013,-131.34179707947
-0.3597,-132.65747858834447
-0.36070000000000013,-134.35513214818255
-0.3617,-135.72740210905164
-0.3626999999999999,-137.0996720699207
-0.3637,-138.76903140376146
-0.3646999999999999,-140.2686253816184
-0.3657,-141.47112998650366
-0.3666999999999999,-143.0273124163552
-0.3677,-144.72496597619326
-0.3686999999999999,-145.9982061460718
-0.36970000000000003,-147.4129174459368
-0.3706999999999999,-149.25204213576137
-0.37170000000000003,-150.8082245656129
-0.3726999999999999,-152.0814647354914
-0.37370000000000003,-153.77911829532948
-0.3746999999999999,-155.47677185516753
-0.37570000000000003,-156.75001202504606
-0.3766999999999999,-158.4476655848841
-0.37770000000000004,-160.14531914472215
-0.3786999999999999,-161.5600304445872
-0.37970000000000004,-163.11621287443873
-0.3806999999999999,-165.09680869424977
-0.38170000000000004,-166.65299112410133
-0.38269999999999993,-168.06770242396635
-0.38370000000000004,-169.9068271137909
-0.38469999999999993,-171.60448067362896
-0.38570000000000004,-173.01919197349397
-0.38669999999999993,-171.88742293360195
-0.38570000000000004,-168.35064468393938
-0.38469999999999993,-165.09680869424977
-0.38370000000000004,-162.40885722450622
-0.38269999999999993,-160.28679027470866
-0.38170000000000004,-157.88178106493808
-0.3806999999999999,-155.47677185516753
-0.37970000000000004,-153.35470490536997
-0.3786999999999999,-151.37410908555893
-0.37770000000000004,-149.1105710057749
-0.3766999999999999,-147.1299751859638
-0.37570000000000003,-145.29085049613926
-0.3746999999999999,-143.3102546763282
-0.37370000000000003,-141.35795308251446
-0.3726999999999999,-139.68859374867372
-0.37170000000000003,-137.70799792886265
-0.3706999999999999,-135.670813657057
-0.36970000000000003,-133.95901298422032
-0.3686999999999999,-132.09159406839845
-0.3677,-130.05440979659284
-0.3666999999999999,-128.34260912375615
-0.3657,-126.71569112891132
-0.3646999999999999,-124.80583087409354
-0.3637,-122.98085329726763
-0.3626999999999999,-121.45296509341341
-0.3617,-119.58554617759155
-0.36070000000000013,-117.6615388097751
-0.3597,-116.13365060592085
-0.35870000000000013,-114.47843838507877
-0.3577,-112.59687235625829
-0.35670000000000013,-111.0265428134081
-0.3557,-109.52694883555114
-0.3547000000000001,-107.75855971071984
-0.3537,-106.0326119248845
-0.3527000000000001,-104.57545928602352
-0.3517,-102.86365861318681
-0.3507000000000001,-101.06697526235823
-0.3497,-99.62396973649588
-0.3487000000000001,-98.1102286456403
-0.3477,-96.3701337468063
-0.3467000000000001,-94.98371667293856
-0.3457,-93.61144671206948
-0.3447000000000001,-91.91379315223143
-0.3437,-90.28687515738663
-0.3427000000000001,-88.9853407615108
-0.3417,-87.41501121866061
-0.3407000000000001,-85.71735765882258
-0.3397,-84.41582326294673
-0.3387000000000001,-83.07184752807495
-0.3377,-81.36004685523827
-0.3367000000000001,-80.04436534636378
-0.3357,-78.79941940248254
-0.3347000000000001,-77.17250140763775
-0.3337,-75.7012016557781
-0.3327000000000001,-74.52699127689014
-0.3317,-73.0273972990332
-0.3307000000000001,-71.52780332117625
-0.3297,-70.35359294228827
-0.3287000000000001,-69.0944998854084
-0.3277,-67.56661168155415
-0.3267000000000001,-66.33581285067157
-0.3257,-65.17574958478224
-0.3247000000000001,-63.66200849392664
-0.3237,-62.27559142005891
-0.3227000000000001,-61.25699928415608
-0.3217,-59.87058221028835
-0.3207000000000001,-58.498312249419264
-0.3197,-57.45142588751914
-0.3187000000000001,-56.31965684762711
-0.3177,-54.876651321764776
-0.3167000000000001,-53.77317650787004
-0.3157,-52.71214303297127
-0.3147000000000001,-51.33987307210218
-0.3137,-50.094927128220945
-0.3127000000000001,-49.14707055731138
-0.3117,-47.93041883942744
-0.3107000000000001,-46.61473733055296
-0.3097,-45.681027872642034
-0.3087000000000001,-44.648288623740555
-0.3077,-43.30431288886877
-0.3067000000000001,-42.29986786596459
-0.30569999999999997,-41.38030552105233
-0.3047000000000001,-40.10706535117379
-0.30369999999999997,-39.01773765027771
-0.3027000000000001,-38.18305798335734
-0.30169999999999997,-37.07958316946261
-0.3007000000000001,-35.90537279057463
-0.29969999999999997,-35.08484023665291
-0.2987000000000001,-34.15113077874198
-0.29769999999999996,-32.90618483486075
-0.2967000000000001,-32.00076960294713
-0.29569999999999996,-31.19438416202406
-0.2947000000000001,-30.03432089613473
-0.29369999999999996,-29.029875873230555
-0.29270000000000007,-28.336667336296685
-0.29169999999999996,-27.303928087395207
-0.29070000000000007,-26.242894612496432
-0.28969999999999996,-25.521391849565262
-0.28870000000000007,-24.70085929564354
-0.28769999999999996,-23.58323736875016
-0.28670000000000007,-22.790999040825742
-0.28569999999999995,-22.069496277894572
-0.28470000000000006,-21.036757028993097
-0.28369999999999995,-20.13134179707947
-0.28270000000000006,-19.565457277133458
-0.28169999999999995,-18.645894932221182
-0.28070000000000006,-17.683891248312957
-0.27969999999999995,-17.07556538937099
-0.27870000000000006,-16.339915513441174
-0.27769999999999995,-15.321323377538347
-0.27670000000000006,-14.67055617960043
-0.27569999999999995,-14.045253785060085
-0.27470000000000006,-13.138423841846596
-0.27369999999999994,-12.326379555724063
-0.27270000000000005,-11.819912910372382
-0.27169999999999994,-11.027674582447961
-0.27070000000000005,-10.154797710431232
-0.26969999999999994,-9.635598663380765
-0.26870000000000005,-8.994734444541903
-0.26769999999999994,-8.080830944829088
